"SPL Vertical"																																																																							
"On-Axis"		"10°"		"-10°"		"20°"		"-20°"		"30°"		"-30°"		"40°"		"-40°"		"50°"		"-50°"		"60°"		"-60°"		"70°"		"-70°"		"80°"		"-80°"		"90°"		"-90°"		"100°"		"-100°"		"110°"		"-110°"		"120°"		"-120°"		"130°"		"-130°"		"140°"		"-140°"		"150°"		"-150°"		"160°"		"-160°"		"170°"		"-170°"		"180°"	
"Frequency [Hz]"	"Sound Pessure Level [dB]  / [2.83V 1m] "	"Frequency [Hz]"	"Sound Pessure Level [dB]  / [2.83V 1m] "	"Frequency [Hz]"	"Sound Pessure Level [dB]  / [2.83V 1m] "	"Frequency [Hz]"	"Sound Pessure Level [dB]  / [2.83V 1m] "	"Frequency [Hz]"	"Sound Pessure Level [dB]  / [2.83V 1m] "	"Frequency [Hz]"	"Sound Pessure Level [dB]  / [2.83V 1m] "	"Frequency [Hz]"	"Sound Pessure Level [dB]  / [2.83V 1m] "	"Frequency [Hz]"	"Sound Pessure Level [dB]  / [2.83V 1m] "	"Frequency [Hz]"	"Sound Pessure Level [dB]  / [2.83V 1m] "	"Frequency [Hz]"	"Sound Pessure Level [dB]  / [2.83V 1m] "	"Frequency [Hz]"	"Sound Pessure Level [dB]  / [2.83V 1m] "	"Frequency [Hz]"	"Sound Pessure Level [dB]  / [2.83V 1m] "	"Frequency [Hz]"	"Sound Pessure Level [dB]  / [2.83V 1m] "	"Frequency [Hz]"	"Sound Pessure Level [dB]  / [2.83V 1m] "	"Frequency [Hz]"	"Sound Pessure Level [dB]  / [2.83V 1m] "	"Frequency [Hz]"	"Sound Pessure Level [dB]  / [2.83V 1m] "	"Frequency [Hz]"	"Sound Pessure Level [dB]  / [2.83V 1m] "	"Frequency [Hz]"	"Sound Pessure Level [dB]  / [2.83V 1m] "	"Frequency [Hz]"	"Sound Pessure Level [dB]  / [2.83V 1m] "	"Frequency [Hz]"	"Sound Pessure Level [dB]  / [2.83V 1m] "	"Frequency [Hz]"	"Sound Pessure Level [dB]  / [2.83V 1m] "	"Frequency [Hz]"	"Sound Pessure Level [dB]  / [2.83V 1m] "	"Frequency [Hz]"	"Sound Pessure Level [dB]  / [2.83V 1m] "	"Frequency [Hz]"	"Sound Pessure Level [dB]  / [2.83V 1m] "	"Frequency [Hz]"	"Sound Pessure Level [dB]  / [2.83V 1m] "	"Frequency [Hz]"	"Sound Pessure Level [dB]  / [2.83V 1m] "	"Frequency [Hz]"	"Sound Pessure Level [dB]  / [2.83V 1m] "	"Frequency [Hz]"	"Sound Pessure Level [dB]  / [2.83V 1m] "	"Frequency [Hz]"	"Sound Pessure Level [dB]  / [2.83V 1m] "	"Frequency [Hz]"	"Sound Pessure Level [dB]  / [2.83V 1m] "	"Frequency [Hz]"	"Sound Pessure Level [dB]  / [2.83V 1m] "	"Frequency [Hz]"	"Sound Pessure Level [dB]  / [2.83V 1m] "	"Frequency [Hz]"	"Sound Pessure Level [dB]  / [2.83V 1m] "	"Frequency [Hz]"	"Sound Pessure Level [dB]  / [2.83V 1m] "	"Frequency [Hz]"	"Sound Pessure Level [dB]  / [2.83V 1m] "	"Frequency [Hz]"	"Sound Pessure Level [dB]  / [2.83V 1m] "
20.5078	56.2973	20.5078	55.6598	20.5078	56.6497	20.5078	54.6796	20.5078	56.7463	20.5078	53.2556	20.5078	56.5949	20.5078	51.2235	20.5078	56.1838	20.5078	48.4013	20.5078	55.4788	20.5078	45.5102	20.5078	54.4137	20.5078	46.5915	20.5078	52.8717	20.5078	50.4757	20.5078	50.6515	20.5078	53.8274	20.5078	47.4963	20.5078	56.3937	20.5078	44.3466	20.5078	58.3613	20.5078	46.2924	20.5078	59.8657	20.5078	50.5621	20.5078	60.9854	20.5078	53.9479	20.5078	61.7638	20.5078	56.4923	20.5078	62.2247	20.5078	58.4336	20.5078	62.3797	20.5078	59.9154	20.5078	62.233	20.5078	61.0172	20.5078	61.7822
21.9727	55.9924	21.9727	55.3482	21.9727	56.3487	21.9727	54.3979	21.9727	56.433	21.9727	53.1614	21.9727	56.2491	21.9727	51.8425	21.9727	55.7862	21.9727	51.1375	21.9727	55.02	21.9727	51.9619	21.9727	53.9209	21.9727	54.0241	21.9727	52.5003	21.9727	56.3495	21.9727	50.9971	21.9727	58.464	21.9727	50.2983	21.9727	60.2612	21.9727	51.4384	21.9727	61.7431	21.9727	53.7872	21.9727	62.93	21.9727	56.2402	21.9727	63.8389	21.9727	58.3988	21.9727	64.4804	21.9727	60.2093	21.9727	64.8602	21.9727	61.6955	21.9727	64.9813	21.9727	62.886	21.9727	64.8453	21.9727	63.8011	21.9727	64.4524
23.4375	57.9163	23.4375	57.3794	23.4375	58.2155	23.4375	56.6067	23.4375	58.2821	23.4375	55.6428	23.4375	58.1172	23.4375	54.667	23.4375	57.7152	23.4375	54.1342	23.4375	57.0663	23.4375	54.6198	23.4375	56.1697	23.4375	56.1148	23.4375	55.0756	23.4375	58.0347	23.4375	54.0036	23.4375	59.9235	23.4375	53.5111	23.4375	61.5993	23.4375	54.2121	23.4375	63.014	23.4375	55.925	23.4375	64.1623	23.4375	57.9586	23.4375	65.0485	23.4375	59.8879	23.4375	65.6769	23.4375	61.5729	23.4375	66.0504	23.4375	62.9868	23.4375	66.1706	23.4375	64.1337	23.4375	66.0388	23.4375	65.0215	23.4375	65.6558
24.9023	59.0533	24.9023	58.602	24.9023	59.3142	24.9023	57.9886	24.9023	59.3773	24.9023	57.2985	24.9023	59.2412	24.9023	56.7346	24.9023	58.9072	24.9023	56.64	24.9023	58.3845	24.9023	57.2958	24.9023	57.7074	24.9023	58.6107	24.9023	56.9771	24.9023	60.229	24.9023	56.4269	24.9023	61.8546	24.9023	56.4214	24.9023	63.337	24.9023	57.2017	24.9023	64.6164	24.9023	58.6034	24.9023	65.6715	24.9023	60.2532	24.9023	66.4948	24.9023	61.8777	24.9023	67.0831	24.9023	63.3476	24.9023	67.4346	24.9023	64.6136	24.9023	67.5487	24.9023	65.6592	24.9023	67.426	24.9023	66.4786	24.9023	67.0685
26.3672	60.6023	26.3672	60.2486	26.3672	60.8131	26.3672	59.7905	26.3672	60.8665	26.3672	59.3148	26.3672	60.7595	26.3672	58.9857	26.3672	60.4971	26.3672	59.0315	26.3672	60.0975	26.3672	59.6179	26.3672	59.6057	26.3672	60.6962	26.3672	59.1197	26.3672	62.0484	26.3672	58.8168	26.3672	63.4564	26.3672	58.9253	26.3672	64.7813	26.3672	59.583	26.3672	65.9512	26.3672	60.7073	26.3672	66.9315	26.3672	62.0729	26.3672	67.7044	26.3672	63.4744	26.3672	68.2604	26.3672	64.7859	26.3672	68.5937	26.3672	65.9431	26.3672	68.7016	26.3672	66.9148	26.3672	68.5841	26.3672	67.685	26.3672	68.2436
27.832	61.9401	27.832	61.6545	27.832	62.117	27.832	61.3028	27.832	62.1669	27.832	60.9682	27.832	62.0856	27.832	60.7876	27.832	61.8802	27.832	60.9279	27.832	61.5729	27.832	61.4966	27.832	61.2111	27.832	62.4559	27.832	60.8841	27.832	63.6508	27.832	60.7312	27.832	64.9133	27.832	60.911	27.832	66.1222	27.832	61.5128	27.832	67.2054	27.832	62.4843	27.832	68.1229	27.832	63.6723	27.832	68.8518	27.832	64.9187	27.832	69.3782	27.832	66.1107	27.832	69.6939	27.832	67.1813	27.832	69.7948	27.832	68.0922	27.832	69.6804	27.832	68.8211	27.832	69.3537
29.2969	63.3814	29.2969	63.1713	29.2969	63.5163	29.2969	62.9283	29.2969	63.5555	29.2969	62.726	29.2969	63.4942	29.2969	62.6712	29.2969	63.3403	29.2969	62.8798	29.2969	63.1175	29.2969	63.4201	29.2969	62.8719	29.2969	64.2648	29.2969	62.6803	29.2969	65.3079	29.2969	62.6492	29.2969	66.4237	29.2969	62.8871	29.2969	67.5108	29.2969	63.4498	29.2969	68.5004	29.2969	64.302	29.2969	69.3492	29.2969	65.3385	29.2969	70.03	29.2969	66.4403	29.2969	70.5253	29.2969	67.5122	29.2969	70.8242	29.2969	68.4895	29.2969	70.9209	29.2969	69.3308	29.2969	70.8145	29.2969	70.0096	29.2969	70.5082
30.7617	64.7469	30.7617	64.5921	30.7617	64.8513	30.7617	64.426	30.7617	64.885	30.7617	64.3116	30.7617	64.8425	30.7617	64.3325	30.7617	64.7313	30.7617	64.5729	30.7617	64.5739	30.7617	65.0799	30.7617	64.4114	30.7617	65.8343	30.7617	64.3071	30.7617	66.7594	30.7617	64.3427	30.7617	67.7581	30.7617	64.5966	30.7617	68.744	30.7617	65.1094	30.7617	69.6529	30.7617	65.8592	30.7617	70.4405	30.7617	66.7716	30.7617	71.0769	30.7617	67.7545	30.7617	71.5419	30.7617	68.7262	30.7617	71.8226	30.7617	69.625	30.7617	71.9121	30.7617	70.408	30.7617	71.8092	30.7617	71.0456	30.7617	71.5174
32.2266	66.1273	32.2266	66.0319	32.2266	66.193	32.2266	65.9408	32.2266	66.2107	32.2266	65.9048	32.2266	66.1754	32.2266	65.9873	32.2266	66.0942	32.2266	66.2488	32.2266	65.9879	32.2266	66.7226	32.2266	65.8926	32.2266	67.3965	32.2266	65.8603	32.2266	68.2162	32.2266	65.9534	32.2266	69.1076	32.2266	66.2287	32.2266	69.9987	32.2266	66.7138	32.2266	70.8308	32.2266	67.3926	32.2266	71.5598	32.2266	68.2102	32.2266	72.154	32.2266	69.0952	32.2266	72.5911	32.2266	69.9786	32.2266	72.8562	32.2266	70.8045	32.2266	72.9413	32.2266	71.5308	32.2266	72.8445	32.2266	72.1266	32.2266	72.5697
33.6914	67.3946	33.6914	67.3266	33.6914	67.446	33.6914	67.2721	33.6914	67.4642	33.6914	67.2741	33.6914	67.4444	33.6914	67.3844	33.6914	67.393	33.6914	67.6506	33.6914	67.3282	33.6914	68.0988	33.6914	67.2806	33.6914	68.7196	33.6914	67.2927	33.6914	69.4702	33.6914	67.4139	33.6914	70.2892	33.6914	67.6878	33.6914	71.1138	33.6914	68.1367	33.6914	71.8898	33.6914	68.7502	33.6914	72.5744	33.6914	69.4874	33.6914	73.1355	33.6914	70.2909	33.6914	73.5497	33.6914	71.1013	33.6914	73.8014	33.6914	71.8669	33.6914	73.882	33.6914	72.5464	33.6914	73.7893	33.6914	73.1078	33.6914	73.5278
35.1563	68.8302	35.1563	68.7948	35.1563	68.8599	35.1563	68.7786	35.1563	68.8694	35.1563	68.8163	35.1563	68.8543	35.1563	68.9478	35.1563	68.8196	35.1563	69.2093	35.1563	68.7806	35.1563	69.6209	35.1563	68.7623	35.1563	70.1767	35.1563	68.7988	35.1563	70.8454	35.1563	68.9289	35.1563	71.5788	35.1563	69.187	35.1563	72.3238	35.1563	69.5921	35.1563	73.0317	35.1563	70.1387	35.1563	73.6614	35.1563	70.7969	35.1563	74.1805	35.1563	71.5209	35.1563	74.5647	35.1563	72.2599	35.1563	74.7973	35.1563	72.9663	35.1563	74.8689	35.1563	73.5997	35.1563	74.7771	35.1563	74.128	35.1563	74.5264
36.6211	69.9892	36.6211	69.9816	36.6211	70.0016	36.6211	70.0012	36.6211	70.0048	36.6211	70.0773	36.6211	69.9938	36.6211	70.2423	36.6211	69.9718	36.6211	70.5234	36.6211	69.9507	36.6211	70.9342	36.6211	69.9511	36.6211	71.4677	36.6211	70.0008	36.6211	72.0969	36.6211	70.1314	36.6211	72.7811	36.6211	70.3722	36.6211	73.4747	36.6211	70.7406	36.6211	74.1335	36.6211	71.2357	36.6211	74.7189	36.6211	71.8362	36.6211	75.199	36.6211	72.5056	36.6211	75.5492	36.6211	73.1998	36.6211	75.7521	36.6211	73.875	36.6211	75.7982	36.6211	74.4914	36.6211	75.6856	36.6211	75.0155	36.6211	75.4203
38.0859	71.1878	38.0859	71.2104	38.0859	71.1777	38.0859	71.2639	38.0859	71.1685	38.0859	71.3716	38.0859	71.1555	38.0859	71.5582	38.0859	71.1416	38.0859	71.8439	38.0859	71.1368	38.0859	72.2381	38.0859	71.1583	38.0859	72.7348	38.0859	71.2287	38.0859	73.3126	38.0859	71.3736	38.0859	73.9383	38.0859	71.6159	38.0859	74.5733	38.0859	71.9691	38.0859	75.1788	38.0859	72.4325	38.0859	75.7189	38.0859	72.9889	38.0859	76.1631	38.0859	73.6082	38.0859	76.4869	38.0859	74.2526	38.0859	76.6728	38.0859	74.8829	38.0859	76.7109	38.0859	75.4622	38.0859	76.5993	38.0859	75.9581	38.0859	76.3439
39.5508	72.6246	39.5508	72.6608	39.5508	72.6047	39.5508	72.7269	39.5508	72.5922	39.5508	72.8403	39.5508	72.5834	39.5508	73.0192	39.5508	72.5806	39.5508	73.2786	39.5508	72.5912	39.5508	73.6263	39.5508	72.6281	39.5508	74.0591	39.5508	72.7081	39.5508	74.5621	39.5508	72.8501	39.5508	75.11	39.5508	73.0714	39.5508	75.6712	39.5508	73.383	39.5508	76.2118	39.5508	73.7861	39.5508	76.6988	39.5508	74.2693	39.5508	77.1025	39.5508	74.8103	39.5508	77.3986	39.5508	75.3789	39.5508	77.5693	39.5508	75.9411	39.5508	77.6043	39.5508	76.463	39.5508	77.5015	39.5508	76.9137	39.5508	77.2667
41.0156	72.8682	41.0156	72.8925	41.0156	72.858	41.0156	72.9439	41.0156	72.8535	41.0156	73.0397	41.0156	72.8521	41.0156	73.1986	41.0156	72.8565	41.0156	73.4376	41.0156	72.8748	41.0156	73.7665	41.0156	72.92	41.0156	74.1848	41.0156	73.0088	41.0156	74.679	41.0156	73.1596	41.0156	75.2244	41.0156	73.3884	41.0156	75.789	41.0156	73.7052	41.0156	76.3376	41.0156	74.1095	41.0156	76.8358	41.0156	74.5893	41.0156	77.2531	41.0156	75.1224	41.0156	77.5642	41.0156	75.6789	41.0156	77.7508	41.0156	76.2262	41.0156	77.8025	41.0156	76.7314	41.0156	77.7168	41.0156	77.1645	41.0156	77.4997
42.4805	74.494	42.4805	74.5431	42.4805	74.4669	42.4805	74.6245	42.4805	74.455	42.4805	74.7508	42.4805	74.4555	42.4805	74.935	42.4805	74.4698	42.4805	75.1877	42.4805	74.5036	42.4805	75.5138	42.4805	74.5659	42.4805	75.9105	42.4805	74.6688	42.4805	76.3656	42.4805	74.8252	42.4805	76.859	42.4805	75.0466	42.4805	77.3643	42.4805	75.3405	42.4805	77.8522	42.4805	75.7071	42.4805	78.2934	42.4805	76.1381	42.4805	78.6605	42.4805	76.617	42.4805	78.9306	42.4805	77.12	42.4805	79.0865	42.4805	77.6195	42.4805	79.1185	42.4805	78.0861	42.4805	79.0246	42.4805	78.4916	42.4805	78.8111
43.9453	75.4575	43.9453	75.5168	43.9453	75.4231	43.9453	75.6095	43.9453	75.4082	43.9453	75.7453	43.9453	75.4102	43.9453	75.9343	43.9453	75.4301	43.9453	76.1841	43.9453	75.4722	43.9453	76.4982	43.9453	75.5437	43.9453	76.8732	43.9453	75.6539	43.9453	77.2988	43.9453	75.8132	43.9453	77.7575	43.9453	76.0305	43.9453	78.2264	43.9453	76.3116	43.9453	78.6795	43.9453	76.6567	43.9453	79.0897	43.9453	77.0592	43.9453	79.4316	43.9453	77.5047	43.9453	79.683	43.9453	77.9731	43.9453	79.8274	43.9453	78.4395	43.9453	79.8551	43.9453	78.8769	43.9453	79.7643	43.9453	79.2588	43.9453	79.5611
45.4102	76.3802	45.4102	76.4445	45.4102	76.3406	45.4102	76.54	45.4102	76.3213	45.4102	76.6741	45.4102	76.3206	45.4102	76.8548	45.4102	76.3392	45.4102	77.088	45.4102	76.3807	45.4102	77.3766	45.4102	76.4507	45.4102	77.7185	45.4102	76.557	45.4102	78.1053	45.4102	76.7078	45.4102	78.5228	45.4102	76.9105	45.4102	78.9512	45.4102	77.1701	45.4102	79.3671	45.4102	77.487	45.4102	79.7457	45.4102	77.856	45.4102	80.0624	45.4102	78.2651	45.4102	80.296	45.4102	78.6967	45.4102	80.43	45.4102	79.1285	45.4102	80.4548	45.4102	79.5355	45.4102	80.3683	45.4102	79.8926	45.4102	80.1765
46.875	77.193	46.875	77.2625	46.875	77.1485	46.875	77.3617	46.875	77.1256	46.875	77.4966	46.875	77.1231	46.875	77.6731	46.875	77.1418	46.875	77.8959	46.875	77.1846	46.875	78.1673	46.875	77.2561	46.875	78.4854	46.875	77.3623	46.875	78.8434	46.875	77.5099	46.875	79.229	46.875	77.7048	46.875	79.6251	46.875	77.9507	46.875	80.0105	46.875	78.2478	46.875	80.3622	46.875	78.5916	46.875	80.6572	46.875	78.972	46.875	80.8751	46.875	79.3733	46.875	80.9998	46.875	79.7756	46.875	81.0219	46.875	80.156	46.875	80.9394	46.875	80.4909	46.875	80.7582
48.3398	77.8989	48.3398	77.9717	48.3398	77.8534	48.3398	78.0756	48.3398	77.8325	48.3398	78.2152	48.3398	77.8351	48.3398	78.3947	48.3398	77.8616	48.3398	78.6174	48.3398	77.914	48.3398	78.8841	48.3398	77.9956	48.3398	79.1924	48.3398	78.1108	48.3398	79.5356	48.3398	78.2645	48.3398	79.9025	48.3398	78.4608	48.3398	80.2776	48.3398	78.7022	48.3398	80.6416	48.3398	78.9885	48.3398	80.9736	48.3398	79.3153	48.3398	81.2521	48.3398	79.6739	48.3398	81.458	48.3398	80.0506	48.3398	81.5761	48.3398	80.4276	48.3398	81.5974	48.3398	80.7842	48.3398	81.5201	48.3398	81.0985	48.3398	81.3496
51.2695	79.3537	51.2695	79.4321	51.2695	79.3024	51.2695	79.5393	51.2695	79.2771	51.2695	79.6774	51.2695	79.2772	51.2695	79.8479	51.2695	79.3028	51.2695	80.0518	51.2695	79.3548	51.2695	80.2889	51.2695	79.4348	51.2695	80.5566	51.2695	79.5449	51.2695	80.85	51.2695	79.6873	51.2695	81.1606	51.2695	79.8642	51.2695	81.4766	51.2695	80.0767	51.2695	81.7831	51.2695	80.3241	51.2695	82.0627	51.2695	80.6036	51.2695	82.2972	51.2695	80.9088	51.2695	82.4698	51.2695	81.2296	51.2695	82.5667	51.2695	81.5523	51.2695	82.5797	51.2695	81.8598	51.2695	82.5072	51.2695	82.1334	51.2695	82.3546
52.7344	79.9862	52.7344	80.0655	52.7344	79.9339	52.7344	80.1727	52.7344	79.9078	52.7344	80.3086	52.7344	79.9076	52.7344	80.4741	52.7344	79.9333	52.7344	80.6693	52.7344	79.9854	52.7344	80.8932	52.7344	80.0647	52.7344	81.1434	52.7344	80.1723	52.7344	81.4153	52.7344	80.3098	52.7344	81.7017	52.7344	80.4781	52.7344	81.9921	52.7344	80.6779	52.7344	82.2733	52.7344	80.9084	52.7344	82.5297	52.7344	81.167	52.7344	82.7447	52.7344	81.4484	52.7344	82.9025	52.7344	81.744	52.7344	82.9902	52.7344	82.0417	52.7344	83	52.7344	82.3262	52.7344	82.9305	52.7344	82.5805	52.7344	82.787
54.1992	80.5088	54.1992	80.5906	54.1992	80.454	54.1992	80.6996	54.1992	80.426	54.1992	80.8359	54.1992	80.4247	54.1992	80.9991	54.1992	80.4499	54.1992	81.1888	54.1992	80.502	54.1992	81.4035	54.1992	80.5811	54.1992	81.6405	54.1992	80.6877	54.1992	81.8955	54.1992	80.8223	54.1992	82.162	54.1992	80.9852	54.1992	82.4309	54.1992	81.1764	54.1992	82.6905	54.1992	81.3948	54.1992	82.9267	54.1992	81.638	54.1992	83.1243	54.1992	81.9013	54.1992	83.2688	54.1992	82.177	54.1992	83.3481	54.1992	82.4546	54.1992	83.3549	54.1992	82.7202	54.1992	83.2879	54.1992	82.9581	54.1992	83.1521
55.6641	80.9893	55.6641	81.0737	55.6641	80.9321	55.6641	81.1847	55.6641	80.9023	55.6641	81.3217	55.6641	80.9	55.6641	81.4836	55.6641	80.9252	55.6641	81.6691	55.6641	80.9778	55.6641	81.8762	55.6641	81.0575	55.6641	82.1021	55.6641	81.1641	55.6641	82.3426	55.6641	81.2973	55.6641	82.5919	55.6641	81.4567	55.6641	82.8419	55.6641	81.6415	55.6641	83.0821	55.6641	81.8503	55.6641	83.3	55.6641	82.0807	55.6641	83.4819	55.6641	82.3283	55.6641	83.6143	55.6641	82.5864	55.6641	83.6861	55.6641	82.8457	55.6641	83.6905	55.6641	83.0938	55.6641	83.6263	55.6641	83.3162	55.6641	83.4983
58.5938	81.9291	58.5938	82.0165	58.5938	81.8681	58.5938	82.1287	58.5938	81.8349	58.5938	82.2633	58.5938	81.8302	58.5938	82.418	58.5938	81.854	58.5938	82.5901	58.5938	81.9059	58.5938	82.7769	58.5938	81.9846	58.5938	82.9753	58.5938	82.0886	58.5938	83.1817	58.5938	82.216	58.5938	83.3914	58.5938	82.3648	58.5938	83.5986	58.5938	82.5329	58.5938	83.7955	58.5938	82.718	58.5938	83.9725	58.5938	82.9173	58.5938	84.1188	58.5938	83.1275	58.5938	84.2236	58.5938	83.3438	58.5938	84.2777	58.5938	83.5595	58.5938	84.2757	58.5938	83.7658	58.5938	84.217	58.5938	83.952	58.5938	84.1061
60.0586	82.2782	60.0586	82.3655	60.0586	82.2166	60.0586	82.4764	60.0586	82.1824	60.0586	82.6083	60.0586	82.1764	60.0586	82.7584	60.0586	82.1986	60.0586	82.9236	60.0586	82.2483	60.0586	83.1009	60.0586	82.324	60.0586	83.287	60.0586	82.4238	60.0586	83.4786	60.0586	82.5454	60.0586	83.6713	60.0586	82.6864	60.0586	83.8601	60.0586	82.8442	60.0586	84.0381	60.0586	83.0164	60.0586	84.1969	60.0586	83.2006	60.0586	84.327	60.0586	83.3937	60.0586	84.4186	60.0586	83.5918	60.0586	84.4637	60.0586	83.7893	60.0586	84.4574	60.0586	83.9788	60.0586	84.3995	60.0586	84.1508	60.0586	84.2945
62.9883	83.0205	62.9883	83.1072	62.9883	82.9587	62.9883	83.2159	62.9883	82.9238	62.9883	83.3433	62.9883	82.9168	62.9883	83.4857	62.9883	82.9379	62.9883	83.6394	62.9883	82.986	62.9883	83.8008	62.9883	83.0592	62.9883	83.9665	62.9883	83.1549	62.9883	84.1331	62.9883	83.27	62.9883	84.2972	62.9883	83.4012	62.9883	84.455	62.9883	83.5455	62.9883	84.6013	62.9883	83.6998	62.9883	84.7301	62.9883	83.8617	62.9883	84.8342	62.9883	84.0284	62.9883	84.9061	62.9883	84.197	62.9883	84.9394	62.9883	84.3636	62.9883	84.9303	62.9883	84.5227	62.9883	84.8788	62.9883	84.6673	62.9883	84.7888
64.4531	83.3591	64.4531	83.4445	64.4531	83.2984	64.4531	83.5512	64.4531	83.2643	64.4531	83.6758	64.4531	83.258	64.4531	83.8141	64.4531	83.2796	64.4531	83.9623	64.4531	83.3278	64.4531	84.1163	64.4531	83.4006	64.4531	84.2726	64.4531	83.4949	64.4531	84.4279	64.4531	83.6074	64.4531	84.5789	64.4531	83.7344	64.4531	84.7222	64.4531	83.8724	64.4531	84.8537	64.4531	84.0183	64.4531	84.9683	64.4531	84.1693	64.4531	85.06	64.4531	84.323	64.4531	85.1225	64.4531	84.4769	64.4531	85.1503	64.4531	84.6277	64.4531	85.1403	64.4531	84.7711	64.4531	85.0926	64.4531	84.9012	64.4531	85.0108
67.3828	83.8879	67.3828	83.9708	67.3828	83.8288	67.3828	84.0739	67.3828	83.7959	67.3828	84.1931	67.3828	83.7906	67.3828	84.3238	67.3828	83.8129	67.3828	84.4612	67.3828	83.8614	67.3828	84.6011	67.3828	83.9336	67.3828	84.7394	67.3828	84.0259	67.3828	84.8729	67.3828	84.1342	67.3828	84.9987	67.3828	84.2542	67.3828	85.1144	67.3828	84.3817	67.3828	85.2175	67.3828	84.5127	67.3828	85.3049	67.3828	84.6444	67.3828	85.373	67.3828	84.7742	67.3828	85.4178	67.3828	84.9004	67.3828	85.4358	67.3828	85.0211	67.3828	85.4251	67.3828	85.134	67.3828	85.3859	67.3828	85.2355	67.3828	85.3212
68.8477	84.0557	68.8477	84.1394	68.8477	83.9955	68.8477	84.2429	68.8477	83.9614	68.8477	84.3616	68.8477	83.9549	68.8477	84.4908	68.8477	83.9761	68.8477	84.6255	68.8477	84.0236	68.8477	84.7609	68.8477	84.0946	68.8477	84.8931	68.8477	84.1856	68.8477	85.0185	68.8477	84.292	68.8477	85.1345	68.8477	84.4092	68.8477	85.2389	68.8477	84.5326	68.8477	85.3297	68.8477	84.6581	68.8477	85.4049	68.8477	84.7823	68.8477	85.4617	68.8477	84.903	68.8477	85.4973	68.8477	85.0186	68.8477	85.509	68.8477	85.1279	68.8477	85.4957	68.8477	85.2293	68.8477	85.4578	68.8477	85.3205	68.8477	85.3981
71.7773	84.4118	71.7773	84.492	71.7773	84.3536	71.7773	84.5902	71.7773	84.3201	71.7773	84.702	71.7773	84.3128	71.7773	84.8221	71.7773	84.3317	71.7773	84.9455	71.7773	84.3754	71.7773	85.0671	71.7773	84.441	71.7773	85.1827	71.7773	84.5248	71.7773	85.2887	71.7773	84.622	71.7773	85.3827	71.7773	84.7275	71.7773	85.4631	71.7773	84.8367	71.7773	85.529	71.7773	84.9451	71.7773	85.5797	71.7773	85.0497	71.7773	85.6145	71.7773	85.1482	71.7773	85.6324	71.7773	85.2399	71.7773	85.6327	71.7773	85.3244	71.7773	85.6151	71.7773	85.4019	71.7773	85.5809	71.7773	85.4716	71.7773	85.5321
74.707	84.8326	74.707	84.912	74.707	84.7755	74.707	85.0092	74.707	84.7434	74.707	85.1193	74.707	84.738	74.707	85.2365	74.707	84.7591	74.707	85.355	74.707	84.8052	74.707	85.4695	74.707	84.8729	74.707	85.5751	74.707	84.9579	74.707	85.6681	74.707	85.0548	74.707	85.7461	74.707	85.1579	74.707	85.8081	74.707	85.2619	74.707	85.8541	74.707	85.362	74.707	85.885	74.707	85.4546	74.707	85.902	74.707	85.5375	74.707	85.9063	74.707	85.6102	74.707	85.8989	74.707	85.6733	74.707	85.8809	74.707	85.7283	74.707	85.8535	74.707	85.7764	74.707	85.8182
77.6367	85.1456	77.6367	85.2278	77.6367	85.0849	77.6367	85.3272	77.6367	85.0491	77.6367	85.4383	77.6367	85.0399	77.6367	85.5549	77.6367	85.0571	77.6367	85.6709	77.6367	85.0993	77.6367	85.7802	77.6367	85.1631	77.6367	85.8779	77.6367	85.244	77.6367	85.9598	77.6367	85.3366	77.6367	86.0237	77.6367	85.4349	77.6367	86.0689	77.6367	85.5331	77.6367	86.0962	77.6367	85.6261	77.6367	86.1078	77.6367	85.71	77.6367	86.1065	77.6367	85.7823	77.6367	86.0954	77.6367	85.8426	77.6367	86.0771	77.6367	85.8919	77.6367	86.0538	77.6367	85.9326	77.6367	86.0273	77.6367	85.9673	77.6367	85.9985
79.1016	85.2405	79.1016	85.3218	79.1016	85.1784	79.1016	85.4181	79.1016	85.139	79.1016	85.5239	79.1016	85.124	79.1016	85.6333	79.1016	85.1339	79.1016	85.7402	79.1016	85.1674	79.1016	85.8389	79.1016	85.2215	79.1016	85.9243	79.1016	85.292	79.1016	85.9925	79.1016	85.3738	79.1016	86.0414	79.1016	85.461	79.1016	86.0704	79.1016	85.5478	79.1016	86.081	79.1016	85.6291	79.1016	86.0759	79.1016	85.7009	79.1016	86.0591	79.1016	85.7608	79.1016	86.0345	79.1016	85.8085	79.1016	86.0062	79.1016	85.8454	79.1016	85.977	79.1016	85.8745	79.1016	85.9493	79.1016	85.8995	79.1016	85.9237
82.0313	85.4948	82.0313	85.5764	82.0313	85.4295	82.0313	85.6692	82.0313	85.3841	82.0313	85.7677	82.0313	85.3611	82.0313	85.8656	82.0313	85.3613	82.0313	85.9569	82.0313	85.384	82.0313	86.0356	82.0313	85.4265	82.0313	86.0967	82.0313	85.4848	82.0313	86.1365	82.0313	85.5535	82.0313	86.1534	82.0313	85.6264	82.0313	86.1477	82.0313	85.6973	82.0313	86.1223	82.0313	85.7603	82.0313	86.0822	82.0313	85.811	82.0313	86.0339	82.0313	85.8468	82.0313	85.9845	82.0313	85.8675	82.0313	85.9403	82.0313	85.8755	82.0313	85.9061	82.0313	85.8753	82.0313	85.8841	82.0313	85.8727	82.0313	85.8739
84.9609	85.8389	84.9609	85.9174	84.9609	85.7763	84.9609	86.0065	84.9609	85.7333	84.9609	86.1002	84.9609	85.7123	84.9609	86.1917	84.9609	85.7138	84.9609	86.2743	84.9609	85.7365	84.9609	86.3414	84.9609	85.7776	84.9609	86.3878	84.9609	85.8323	84.9609	86.4099	84.9609	85.8948	84.9609	86.4062	84.9609	85.9588	84.9609	86.378	84.9609	86.0177	84.9609	86.3294	84.9609	86.0657	84.9609	86.2672	84.9609	86.0985	84.9609	86.1996	84.9609	86.1137	84.9609	86.1354	84.9609	86.112	84.9609	86.0826	84.9609	86.0964	84.9609	86.0468	84.9609	86.0729	84.9609	86.0304	84.9609	86.0489	84.9609	86.0325
87.8906	85.8409	87.8906	85.9169	87.8906	85.7832	87.8906	86.0064	87.8906	85.7472	87.8906	86.1034	87.8906	85.7348	87.8906	86.2013	87.8906	85.7461	87.8906	86.2933	87.8906	85.7795	87.8906	86.3728	87.8906	85.8317	87.8906	86.4343	87.8906	85.8977	87.8906	86.4734	87.8906	85.9714	87.8906	86.4882	87.8906	86.0462	87.8906	86.479	87.8906	86.1154	87.8906	86.4488	87.8906	86.173	87.8906	86.4029	87.8906	86.2146	87.8906	86.3486	87.8906	86.238	87.8906	86.2937	87.8906	86.2436	87.8906	86.2458	87.8906	86.235	87.8906	86.2108	87.8906	86.218	87.8906	86.1921	87.8906	86.2004	87.8906	86.1897
90.8203	85.1243	90.8203	85.1823	90.8203	85.097	90.8203	85.2677	90.8203	85.1024	90.8203	85.3758	90.8203	85.1408	90.8203	85.5008	90.8203	85.2111	90.8203	85.636	90.8203	85.3104	90.8203	85.7742	90.8203	85.4343	90.8203	85.9081	90.8203	85.5764	90.8203	86.0313	90.8203	85.7296	90.8203	86.1389	90.8203	85.8855	90.8203	86.228	90.8203	86.036	90.8203	86.2981	90.8203	86.1736	90.8203	86.3512	90.8203	86.2919	90.8203	86.3913	90.8203	86.3868	90.8203	86.4227	90.8203	86.4562	90.8203	86.4497	90.8203	86.5005	90.8203	86.4745	90.8203	86.5222	90.8203	86.4972	90.8203	86.5256	90.8203	86.5156
95.2148	86.3945	95.2148	86.4783	95.2148	86.3182	95.2148	86.5638	95.2148	86.2542	95.2148	86.6444	95.2148	86.2063	95.2148	86.7132	95.2148	86.1767	95.2148	86.7629	95.2148	86.1661	95.2148	86.7869	95.2148	86.1731	95.2148	86.7792	95.2148	86.1945	95.2148	86.7361	95.2148	86.2247	95.2148	86.6564	95.2148	86.2567	95.2148	86.5426	95.2148	86.2824	95.2148	86.4015	95.2148	86.2937	95.2148	86.2448	95.2148	86.2836	95.2148	86.0879	95.2148	86.2475	95.2148	85.9485	95.2148	86.1844	95.2148	85.8437	95.2148	86.0986	95.2148	85.7862	95.2148	85.9997	95.2148	85.7808	95.2148	85.9021	95.2148	85.8235
98.1445	85.9096	98.1445	85.9799	98.1445	85.8535	98.1445	86.0601	98.1445	85.8151	98.1445	86.145	98.1445	85.7967	98.1445	86.2288	98.1445	85.7997	98.1445	86.3048	98.1445	85.8239	98.1445	86.3663	98.1445	85.8673	98.1445	86.4068	98.1445	85.926	98.1445	86.4214	98.1445	85.9941	98.1445	86.407	98.1445	86.0642	98.1445	86.3637	98.1445	86.1283	98.1445	86.2955	98.1445	86.1782	98.1445	86.2105	98.1445	86.2072	98.1445	86.1199	98.1445	86.2112	98.1445	86.037	98.1445	86.1893	98.1445	85.9743	98.1445	86.1451	98.1445	85.9411	98.1445	86.0862	98.1445	85.9411	98.1445	86.024	98.1445	85.9716
101.074	85.9921	101.074	86.0663	101.074	85.929	101.074	86.147	101.074	85.881	101.074	86.2286	101.074	85.8512	101.074	86.305	101.074	85.8414	101.074	86.3695	101.074	85.8521	101.074	86.4153	101.074	85.8818	101.074	86.4363	101.074	85.9273	101.074	86.428	101.074	85.9829	101.074	86.3879	101.074	86.0414	101.074	86.3174	101.074	86.0943	101.074	86.2216	101.074	86.1333	101.074	86.1103	101.074	86.151	101.074	85.9968	101.074	86.1428	101.074	85.8961	101.074	86.1076	101.074	85.8226	101.074	86.0487	101.074	85.7861	101.074	85.9742	101.074	85.7901	101.074	85.8965	101.074	85.8304
105.469	86.0229	105.469	86.087	105.469	85.9688	105.469	86.1574	105.469	85.928	105.469	86.2297	105.469	85.903	105.469	86.2987	105.469	85.8956	105.469	86.3584	105.469	85.9065	105.469	86.4025	105.469	85.935	105.469	86.4251	105.469	85.9781	105.469	86.4212	105.469	86.0311	105.469	86.388	105.469	86.0873	105.469	86.326	105.469	86.1388	105.469	86.2396	105.469	86.1773	105.469	86.1377	105.469	86.1959	105.469	86.033	105.469	86.1895	105.469	85.94	105.469	86.1569	105.469	85.8724	105.469	86.1008	105.469	85.8403	105.469	86.0291	105.469	85.8469	105.469	85.9534	105.469	85.888
108.398	86.1201	108.398	86.1913	108.398	86.0566	108.398	86.2661	108.398	86.0044	108.398	86.3399	108.398	85.9666	108.398	86.4073	108.398	85.9456	108.398	86.4625	108.398	85.9428	108.398	86.4993	108.398	85.9576	108.398	86.512	108.398	85.9878	108.398	86.4957	108.398	86.0286	108.398	86.448	108.398	86.0735	108.398	86.3695	108.398	86.1145	108.398	86.2652	108.398	86.1434	108.398	86.1445	108.398	86.153	108.398	86.021	108.398	86.1385	108.398	85.9104	108.398	86.0985	108.398	85.8275	108.398	86.0364	108.398	85.7833	108.398	85.9604	108.398	85.7815	108.398	85.8827	108.398	85.8182
112.793	86.3385	112.793	86.4051	112.793	86.2767	112.793	86.4727	112.793	86.2229	112.793	86.537	112.793	86.1803	112.793	86.5929	112.793	86.1515	112.793	86.6345	112.793	86.1383	112.793	86.6554	112.793	86.1409	112.793	86.6494	112.793	86.1579	112.793	86.6118	112.793	86.1854	112.793	86.54	112.793	86.2171	112.793	86.4355	112.793	86.2454	112.793	86.3046	112.793	86.2616	112.793	86.1588	112.793	86.2582	112.793	86.0139	112.793	86.2296	112.793	85.8882	112.793	86.174	112.793	85.7985	112.793	86.0943	112.793	85.7563	112.793	85.9989	112.793	85.7645	112.793	85.9009	112.793	85.8172
117.188	86.3796	117.188	86.4376	117.188	86.324	117.188	86.4948	117.188	86.2737	117.188	86.5475	117.188	86.2312	117.188	86.5913	117.188	86.1991	117.188	86.621	117.188	86.1792	117.188	86.6307	117.188	86.1718	117.188	86.6146	117.188	86.1757	117.188	86.5679	117.188	86.1873	117.188	86.488	117.188	86.2011	117.188	86.3761	117.188	86.2098	117.188	86.2377	117.188	86.2059	117.188	86.0837	117.188	86.1824	117.188	85.9294	117.188	86.135	117.188	85.7929	117.188	86.0628	117.188	85.6914	117.188	85.97	117.188	85.6375	117.188	85.8658	117.188	85.6359	117.188	85.7643	117.188	85.6822
120.117	86.6158	120.117	86.6821	120.117	86.5509	120.117	86.7458	120.117	86.491	120.117	86.8025	120.117	86.4396	120.117	86.8471	120.117	86.3995	120.117	86.8743	120.117	86.3726	120.117	86.8782	120.117	86.3594	120.117	86.8533	120.117	86.3582	120.117	86.7955	120.117	86.3652	120.117	86.703	120.117	86.3744	120.117	86.5777	120.117	86.3783	120.117	86.4262	120.117	86.3694	120.117	86.2602	120.117	86.341	120.117	86.0957	120.117	86.2888	120.117	85.9513	120.117	86.2126	120.117	85.844	120.117	86.1167	120.117	85.7862	120.117	86.0107	120.117	85.7821	120.117	85.9086	120.117	85.8269
124.512	86.5492	124.512	86.6204	124.512	86.4798	124.512	86.6886	124.512	86.4167	124.512	86.7483	124.512	86.3645	124.512	86.7936	124.512	86.3271	124.512	86.8178	124.512	86.3076	124.512	86.8141	124.512	86.307	124.512	86.776	124.512	86.3239	124.512	86.6992	124.512	86.3536	124.512	86.5824	124.512	86.3886	124.512	86.4294	124.512	86.419	124.512	86.2501	124.512	86.4342	124.512	86.0606	124.512	86.4239	124.512	85.8825	124.512	86.3808	124.512	85.7388	124.512	86.3016	124.512	85.6499	124.512	86.1887	124.512	85.6276	124.512	86.0513	124.512	85.6718	124.512	85.905	124.512	85.7709
128.906	86.3476	128.906	86.4077	128.906	86.2836	128.906	86.461	128.906	86.2185	128.906	86.504	128.906	86.1551	128.906	86.5319	128.906	86.0965	128.906	86.539	128.906	86.0457	128.906	86.5185	128.906	86.0046	128.906	86.4634	128.906	85.9739	128.906	86.3682	128.906	85.9513	128.906	86.23	128.906	85.9324	128.906	86.0509	128.906	85.9099	128.906	85.8392	128.906	85.8756	128.906	85.6103	128.906	85.821	128.906	85.3864	128.906	85.74	128.906	85.193	128.906	85.6301	128.906	85.0544	128.906	85.4947	128.906	84.9872	128.906	85.3441	128.906	84.9959	128.906	85.1957	128.906	85.0718
133.301	86.0987	133.301	86.1616	133.301	86.0395	133.301	86.2249	133.301	85.9867	133.301	86.284	133.301	85.9427	133.301	86.3334	133.301	85.9097	133.301	86.3655	133.301	85.8889	133.301	86.3723	133.301	85.8804	133.301	86.3454	133.301	85.8818	133.301	86.2781	133.301	85.8887	133.301	86.1667	133.301	85.8938	133.301	86.0126	133.301	85.8886	133.301	85.8231	133.301	85.8641	133.301	85.6127	133.301	85.8127	133.301	85.4021	133.301	85.7297	133.301	85.2155	133.301	85.6154	133.301	85.0765	133.301	85.4761	133.301	85.0026	133.301	85.3248	133.301	85.0005	133.301	85.1803	133.301	85.065
139.16	85.7767	139.16	85.826	139.16	85.734	139.16	85.8805	139.16	85.7003	139.16	85.9383	139.16	85.6789	139.16	85.9968	139.16	85.6739	139.16	86.0514	139.16	85.6893	139.16	86.0956	139.16	85.7273	139.16	86.1219	139.16	85.7868	139.16	86.1229	139.16	85.8627	139.16	86.0934	139.16	85.946	139.16	86.0318	139.16	86.0247	139.16	85.9422	139.16	86.0858	139.16	85.8343	139.16	86.1178	139.16	85.7234	139.16	86.1127	139.16	85.628	139.16	86.0678	139.16	85.5656	139.16	85.9869	139.16	85.5489	139.16	85.8803	139.16	85.5819	139.16	85.7643	139.16	85.6585
143.555	85.9138	143.555	85.962	143.555	85.8609	143.555	86.0036	143.555	85.806	143.555	86.0372	143.555	85.7537	143.555	86.0604	143.555	85.7099	143.555	86.0697	143.555	85.6809	143.555	86.0602	143.555	85.6721	143.555	86.0264	143.555	85.6861	143.555	85.9634	143.555	85.721	143.555	85.8692	143.555	85.77	143.555	85.746	143.555	85.822	143.555	85.6022	143.555	85.8636	143.555	85.4517	143.555	85.8812	143.555	85.3135	143.555	85.8644	143.555	85.2074	143.555	85.8078	143.555	85.1503	143.555	85.7127	143.555	85.1516	143.555	85.5878	143.555	85.2104	143.555	85.4486	143.555	85.3156
147.949	85.8682	147.949	85.9	147.949	85.8275	147.949	85.9223	147.949	85.7797	147.949	85.9347	147.949	85.7286	147.949	85.9362	147.949	85.6795	147.949	85.9241	147.949	85.639	147.949	85.894	147.949	85.6129	147.949	85.8402	147.949	85.605	147.949	85.7579	147.949	85.615	147.949	85.6444	147.949	85.638	147.949	85.5018	147.949	85.6642	147.949	85.3382	147.949	85.6812	147.949	85.1685	147.949	85.6762	147.949	85.0129	147.949	85.6384	147.949	84.8933	147.949	85.5622	147.949	84.8281	147.949	85.4487	147.949	84.8276	147.949	85.3066	147.949	84.8908	147.949	85.1517	147.949	85.0054
153.809	86.0112	153.809	86.0358	153.809	85.9697	153.809	86.0434	153.809	85.9128	153.809	86.0343	153.809	85.8441	153.809	86.0082	153.809	85.7691	153.809	85.9632	153.809	85.6948	153.809	85.8961	153.809	85.6285	153.809	85.8023	153.809	85.5758	153.809	85.6778	153.809	85.539	153.809	85.5213	153.809	85.5157	153.809	85.3359	153.809	85.4987	153.809	85.1313	153.809	85.477	153.809	84.924	153.809	85.4384	153.809	84.7356	153.809	85.3723	153.809	84.5894	153.809	85.2727	153.809	84.5047	153.809	85.14	153.809	84.4918	153.809	84.9828	153.809	84.5494	153.809	84.8171	153.809	84.6648
159.668	86.1067	159.668	86.1351	159.668	86.061	159.668	86.1456	159.668	85.9995	159.668	86.1374	159.668	85.9252	159.668	86.109	159.668	85.8429	159.668	86.0573	159.668	85.7577	159.668	85.9774	159.668	85.6749	159.668	85.8637	159.668	85.5982	159.668	85.7115	159.668	85.5287	159.668	85.5192	159.668	85.4639	159.668	85.2908	159.668	85.3982	159.668	85.0375	159.668	85.3236	159.668	84.7783	159.668	85.2316	159.668	84.5382	159.668	85.1158	159.668	84.3437	159.668	84.9734	159.668	84.2167	159.668	84.8078	159.668	84.1699	159.668	84.6291	159.668	84.2031	159.668	84.4541	159.668	84.3044
165.527	85.9759	165.527	86.0074	165.527	85.928	165.527	86.0224	165.527	85.8656	165.527	86.021	165.527	85.7924	165.527	86.0024	165.527	85.7141	165.527	85.9642	165.527	85.6375	165.527	85.9015	165.527	85.5685	165.527	85.8083	165.527	85.5109	165.527	85.679	165.527	85.4647	165.527	85.5107	165.527	85.4255	165.527	85.3062	165.527	85.3852	165.527	85.0751	165.527	85.3339	165.527	84.8354	165.527	85.2617	165.527	84.6109	165.527	85.1616	165.527	84.4275	165.527	85.0315	165.527	84.3073	165.527	84.8755	165.527	84.2629	165.527	84.7048	165.527	84.2949	165.527	84.5365	165.527	84.3924
171.387	85.6913	171.387	85.731	171.387	85.6357	171.387	85.7546	171.387	85.5664	171.387	85.7627	171.387	85.4883	171.387	85.7553	171.387	85.4088	171.387	85.7304	171.387	85.3364	171.387	85.6836	171.387	85.2789	171.387	85.6088	171.387	85.241	171.387	85.5003	171.387	85.222	171.387	85.3547	171.387	85.2157	171.387	85.1741	171.387	85.211	171.387	84.9678	171.387	85.1944	171.387	84.7523	171.387	85.153	171.387	84.5502	171.387	85.0779	171.387	84.3853	171.387	84.9666	171.387	84.2779	171.387	84.8241	171.387	84.2396	171.387	84.6632	171.387	84.2718	171.387	84.5029	171.387	84.3652
177.246	85.6056	177.246	85.6425	177.246	85.5499	177.246	85.6611	177.246	85.4773	177.246	85.6627	177.246	85.3924	177.246	85.6478	177.246	85.3028	177.246	85.6147	177.246	85.218	177.246	85.5592	177.246	85.1473	177.246	85.4755	177.246	85.0972	177.246	85.3577	177.246	85.0691	177.246	85.203	177.246	85.0582	177.246	85.0143	177.246	85.0537	177.246	84.8021	177.246	85.0416	177.246	84.5844	177.246	85.0077	177.246	84.3844	177.246	84.9413	177.246	84.226	177.246	84.8381	177.246	84.128	177.246	84.7019	177.246	84.1003	177.246	84.5443	177.246	84.142	177.246	84.3838	177.246	84.2424
183.105	85.3663	183.105	85.3914	183.105	85.3177	183.105	85.3939	183.105	85.2469	183.105	85.3763	183.105	85.1588	183.105	85.3403	183.105	85.0616	183.105	85.2856	183.105	84.9659	183.105	85.2092	183.105	84.8824	183.105	85.1061	183.105	84.8192	183.105	84.9712	183.105	84.7794	183.105	84.8025	183.105	84.7594	183.105	84.6038	183.105	84.7491	183.105	84.3867	183.105	84.7342	183.105	84.1702	183.105	84.6998	183.105	83.978	183.105	84.6341	183.105	83.8331	183.105	84.5316	183.105	83.7524	183.105	84.3945	183.105	83.7429	183.105	84.2336	183.105	83.8012	183.105	84.0667	183.105	83.9153
188.965	85.2834	188.965	85.3034	188.965	85.2331	188.965	85.2945	188.965	85.1541	188.965	85.2593	188.965	85.0514	188.965	85.1998	188.965	84.9339	188.965	85.1161	188.965	84.8134	188.965	85.0057	188.965	84.7024	188.965	84.8644	188.965	84.6115	188.965	84.6885	188.965	84.5462	188.965	84.478	188.965	84.505	188.965	84.2396	188.965	84.4788	188.965	83.9887	188.965	84.4535	188.965	83.7486	188.965	84.4131	188.965	83.5462	188.965	84.344	188.965	83.4055	188.965	84.2385	188.965	83.3413	188.965	84.0969	188.965	83.3559	188.965	83.9281	188.965	83.4404	188.965	83.7482	188.965	83.5782
196.289	85.4031	196.289	85.4244	196.289	85.3503	196.289	85.4162	196.289	85.2671	196.289	85.3815	196.289	85.1583	196.289	85.3227	196.289	85.0328	196.289	85.2398	196.289	84.9021	196.289	85.1295	196.289	84.7784	196.289	84.9864	196.289	84.6714	196.289	84.805	196.289	84.5861	196.289	84.5838	196.289	84.5203	196.289	84.3279	196.289	84.4655	196.289	84.0519	196.289	84.409	196.289	83.7799	196.289	84.3373	196.289	83.5411	196.289	84.2395	196.289	83.3636	196.289	84.1106	196.289	83.2656	196.289	83.953	196.289	83.2519	196.289	83.7767	196.289	83.3143	196.289	83.5978	196.289	83.4365
203.613	85.2522	203.613	85.2627	203.613	85.2032	203.613	85.2387	203.613	85.1153	203.613	85.1857	203.613	84.993	203.613	85.1082	203.613	84.846	203.613	85.0082	203.613	84.6881	203.613	84.8837	203.613	84.5353	203.613	84.7301	203.613	84.4021	203.613	84.5425	203.613	84.2974	203.613	84.3194	203.613	84.2215	203.613	84.0661	203.613	84.1659	203.613	83.7973	203.613	84.1155	203.613	83.5364	203.613	84.0537	203.613	83.311	203.613	83.9669	203.613	83.1462	203.613	83.8488	203.613	83.0572	203.613	83.7016	203.613	83.0462	203.613	83.5359	203.613	83.1048	203.613	83.3683	203.613	83.2182
210.938	85.1571	210.938	85.1492	210.938	85.1221	210.938	85.1029	210.938	85.0437	210.938	85.0242	210.938	84.9264	210.938	84.9189	210.938	84.7794	210.938	84.7895	210.938	84.6161	210.938	84.635	210.938	84.4515	210.938	84.4509	210.938	84.2992	210.938	84.2326	210.938	84.1678	210.938	83.9787	210.938	84.0583	210.938	83.6953	210.938	83.9638	210.938	83.3983	210.938	83.8714	210.938	83.1126	210.938	83.7668	210.938	82.8673	210.938	83.6384	210.938	82.6883	210.938	83.4816	210.938	82.5907	210.938	83.3003	210.938	82.5761	210.938	83.1068	210.938	82.6357	210.938	82.9187	210.938	82.7555
218.262	85.0084	218.262	85.0205	218.262	84.9549	218.262	84.995	218.262	84.86	218.262	84.9373	218.262	84.7287	218.262	84.8522	218.262	84.5711	218.262	84.7409	218.262	84.4014	218.262	84.601	218.262	84.2354	218.262	84.4268	218.262	84.0869	218.262	84.2127	218.262	83.9633	218.262	83.9577	218.262	83.8641	218.262	83.6684	218.262	83.7798	218.262	83.3622	218.262	83.696	218.262	83.0652	218.262	83.597	218.262	82.8076	218.262	83.4716	218.262	82.615	218.262	83.3164	218.262	82.502	218.262	83.137	218.262	82.4704	218.262	82.9478	218.262	82.5128	218.262	82.7677	218.262	82.6168
225.586	84.9569	225.586	84.9643	225.586	84.9019	225.586	84.9298	225.586	84.7983	225.586	84.8616	225.586	84.6517	225.586	84.7668	225.586	84.4741	225.586	84.6489	225.586	84.2833	225.586	84.506	225.586	84.0998	225.586	84.3321	225.586	83.9422	225.586	84.1212	225.586	83.8221	225.586	83.872	225.586	83.7401	225.586	83.5929	225.586	83.6855	225.586	83.3043	225.586	83.6402	225.586	83.0355	225.586	83.5844	225.586	82.8175	225.586	83.5027	225.586	82.6723	225.586	83.3889	225.586	82.6067	225.586	83.2466	225.586	82.6137	225.586	83.0882	225.586	82.6792	225.586	82.9302	225.586	82.7891
232.91	85.0014	232.91	85.0042	232.91	84.9441	232.91	84.9589	232.91	84.8308	232.91	84.8741	232.91	84.6658	232.91	84.7577	232.91	84.4603	232.91	84.614	232.91	84.2313	232.91	84.4417	232.91	83.9997	232.91	84.2349	232.91	83.7861	232.91	83.9866	232.91	83.6058	232.91	83.6949	232.91	83.4644	232.91	83.3681	232.91	83.3564	232.91	83.0291	232.91	83.2674	232.91	82.7135	232.91	83.1802	232.91	82.46	232.91	83.0803	232.91	82.296	232.91	82.9609	232.91	82.2266	232.91	82.8239	232.91	82.2368	232.91	82.6783	232.91	82.3037	232.91	82.536	232.91	82.4078
241.699	84.881	241.699	84.86	241.699	84.8477	241.699	84.7937	241.699	84.756	241.699	84.6929	241.699	84.6082	241.699	84.5673	241.699	84.414	241.699	84.421	241.699	84.1898	241.699	84.2515	241.699	83.9565	241.699	84.05	241.699	83.7357	241.699	83.8056	241.699	83.5435	241.699	83.5116	241.699	83.3858	241.699	83.1717	241.699	83.2558	241.699	82.805	241.699	83.1367	241.699	82.4459	241.699	83.009	241.699	82.1363	241.699	82.8574	241.699	81.9121	241.699	82.6768	241.699	81.7891	241.699	82.4747	241.699	81.7613	241.699	82.2681	241.699	81.811	241.699	82.0776	241.699	81.9208
250.488	84.8341	250.488	84.7892	250.488	84.8158	250.488	84.6915	250.488	84.7297	250.488	84.5548	250.488	84.5788	250.488	84.3921	250.488	84.3742	250.488	84.2116	250.488	84.1339	250.488	84.014	250.488	83.881	250.488	83.792	250.488	83.6382	250.488	83.5345	250.488	83.4227	250.488	83.2328	250.488	83.2407	250.488	82.8883	250.488	83.0862	250.488	82.5176	250.488	82.9443	250.488	82.154	250.488	82.7972	250.488	81.84	250.488	82.631	250.488	81.6134	250.488	82.4404	250.488	81.492	250.488	82.2311	250.488	81.4703	250.488	82.0176	250.488	81.5297	250.488	81.8184	250.488	81.6509
259.277	85.015	259.277	84.9702	259.277	84.9937	259.277	84.8705	259.277	84.9009	259.277	84.7298	259.277	84.7388	259.277	84.5615	259.277	84.5184	259.277	84.3736	259.277	84.259	259.277	84.1659	259.277	83.9867	259.277	83.9308	259.277	83.7292	259.277	83.6565	259.277	83.5083	259.277	83.3336	259.277	83.3322	259.277	82.9624	259.277	83.1918	259.277	82.5588	259.277	83.0649	259.277	82.1564	259.277	82.9245	259.277	81.8017	259.277	82.7502	259.277	81.5396	259.277	82.5351	259.277	81.3958	259.277	82.288	259.277	81.3691	259.277	82.0307	259.277	81.4399	259.277	81.789	259.277	81.5861
268.066	84.4774	268.066	84.4063	268.066	84.483	268.066	84.2853	268.066	84.4146	268.066	84.134	268.066	84.273	268.066	83.9717	268.066	84.0683	268.066	83.8109	268.066	83.8202	268.066	83.6533	268.066	83.556	268.066	83.4896	268.066	83.3057	268.066	83.304	268.066	83.094	268.066	83.0826	268.066	82.9319	268.066	82.8201	268.066	82.8123	268.066	82.5256	268.066	82.7136	268.066	82.223	268.066	82.6092	268.066	81.9462	268.066	82.4786	268.066	81.7286	268.066	82.3149	268.066	81.5908	268.066	82.1272	268.066	81.5358	268.066	81.9362	268.066	81.5543	268.066	81.7657	268.066	81.6343
276.855	84.5786	276.855	84.5152	276.855	84.5646	276.855	84.382	276.855	84.4725	276.855	84.1925	276.855	84.3085	276.855	83.9637	276.855	84.0848	276.855	83.7114	276.855	83.8196	276.855	83.4456	276.855	83.536	276.855	83.1682	276.855	83.2602	276.855	82.8756	276.855	83.0165	276.855	82.5645	276.855	82.8205	276.855	82.2385	276.855	82.6721	276.855	81.9121	276.855	82.5531	276.855	81.6087	276.855	82.4341	276.855	81.3543	276.855	82.2858	276.855	81.1683	276.855	82.0915	276.855	81.0589	276.855	81.8553	276.855	81.0258	276.855	81.6017	276.855	81.0671	276.855	81.3666	276.855	81.1824
287.109	84.7307	287.109	84.6917	287.109	84.6801	287.109	84.5713	287.109	84.5407	287.109	84.3849	287.109	84.3224	287.109	84.1504	287.109	84.0445	287.109	83.884	287.109	83.7332	287.109	83.5945	287.109	83.4187	287.109	83.2815	287.109	83.1299	287.109	82.9389	287.109	82.8882	287.109	82.5616	287.109	82.7015	287.109	82.155	287.109	82.5621	287.109	81.7415	287.109	82.4497	287.109	81.3611	287.109	82.3387	287.109	81.0613	287.109	82.2064	287.109	80.8787	287.109	82.04	287.109	80.8224	287.109	81.84	287.109	80.8741	287.109	81.6183	287.109	81.0032	287.109	81.3932	287.109	81.1826
297.363	84.4768	297.363	84.4426	297.363	84.4213	297.363	84.3283	297.363	84.2749	297.363	84.149	297.363	84.0462	297.363	83.922	297.363	83.754	297.363	83.6614	297.363	83.4262	297.363	83.3744	297.363	83.0964	297.363	83.0591	297.363	82.7961	297.363	82.7085	297.363	82.5474	297.363	82.3178	297.363	82.3559	297.363	81.8945	297.363	82.2108	297.363	81.4663	297.363	82.0902	297.363	81.0808	297.363	81.9706	297.363	80.7923	297.363	81.8343	297.363	80.6363	297.363	81.6746	297.363	80.6111	297.363	81.4967	297.363	80.683	297.363	81.3123	297.363	80.8103	297.363	81.1328	297.363	80.9642
307.617	84.4945	307.617	84.4156	307.617	84.487	307.617	84.2696	307.617	84.3816	307.617	84.0786	307.617	84.178	307.617	83.8613	307.617	83.8901	307.617	83.6272	307.617	83.5469	307.617	83.3742	307.617	83.1905	307.617	83.0926	307.617	82.8678	307.617	82.7712	307.617	82.616	307.617	82.4062	307.617	82.4465	307.617	82.0066	307.617	82.3413	307.617	81.598	307.617	82.2624	307.617	81.2225	307.617	82.1698	307.617	80.9292	307.617	82.0368	307.617	80.7559	307.617	81.857	307.617	80.709	307.617	81.644	307.617	80.763	307.617	81.4225	307.617	80.88	307.617	81.2153	307.617	81.0336
319.336	84.4402	319.336	84.3385	319.336	84.4423	319.336	84.1606	319.336	84.3323	319.336	83.9373	319.336	84.1092	319.336	83.6995	319.336	83.7844	319.336	83.4666	319.336	83.3836	319.336	83.2386	319.336	82.9476	319.336	82.9968	319.336	82.5296	319.336	82.7153	319.336	82.1834	319.336	82.3758	319.336	81.9438	319.336	81.9798	319.336	81.8095	319.336	81.5546	319.336	81.7441	319.336	81.1507	319.336	81.6958	319.336	80.8285	319.336	81.622	319.336	80.6329	319.336	81.5038	319.336	80.5712	319.336	81.3476	319.336	80.6139	319.336	81.1748	319.336	80.718	319.336	81.0063	319.336	80.8528
329.59	84.5797	329.59	84.4337	329.59	84.6132	329.59	84.1986	329.59	84.524	329.59	83.9103	329.59	84.3136	329.59	83.6106	329.59	83.9947	329.59	83.3342	329.59	83.5912	329.59	83.0936	329.59	83.139	329.59	82.8725	329.59	82.6847	329.59	82.6359	329.59	82.2795	329.59	82.3491	329.59	81.9642	329.59	81.9965	329.59	81.7531	329.59	81.5934	329.59	81.6257	329.59	81.1878	329.59	81.5383	329.59	80.8463	329.59	81.4454	329.59	80.6244	329.59	81.3209	329.59	80.5355	329.59	81.1656	329.59	80.5491	329.59	81.0004	329.59	80.6209	329.59	80.8492	329.59	80.7229
341.309	84.4348	341.309	84.2912	341.309	84.4647	341.309	84.0544	341.309	84.3744	341.309	83.7591	341.309	84.1691	341.309	83.4486	341.309	83.8642	341.309	83.1623	341.309	83.4843	341.309	82.9196	341.309	83.0624	341.309	82.7106	341.309	82.6397	341.309	82.5039	341.309	82.2603	341.309	82.2643	341.309	81.9622	341.309	81.9722	341.309	81.7634	341.309	81.6349	341.309	81.6522	341.309	81.2894	341.309	81.5921	341.309	80.9927	341.309	81.5383	341.309	80.7966	341.309	81.4583	341.309	80.7202	341.309	81.3434	341.309	80.7429	341.309	81.2063	341.309	80.8255	341.309	81.0666	341.309	80.9376
353.027	84.3534	353.027	84.2057	353.027	84.3522	353.027	83.9259	353.027	84.201	353.027	83.5504	353.027	83.9118	353.027	83.1348	353.027	83.5082	353.027	82.7442	353.027	83.0259	353.027	82.4295	353.027	82.5107	353.027	82.2011	353.027	82.0145	353.027	82.0244	353.027	81.5859	353.027	81.8414	353.027	81.2577	353.027	81.6039	353.027	81.038	353.027	81.2994	353.027	80.9099	353.027	80.9616	353.027	80.8403	353.027	80.662	353.027	80.794	353.027	80.4725	353.027	80.7472	353.027	80.4157	353.027	80.6949	353.027	80.4514	353.027	80.6459	353.027	80.5155	353.027	80.6063	353.027	80.568
366.211	84.6079	366.211	84.4554	366.211	84.6045	366.211	84.16	366.211	84.4445	366.211	83.7502	366.211	84.1392	366.211	83.2707	366.211	83.7113	366.211	82.7793	366.211	83.1965	366.211	82.3344	366.211	82.642	366.211	81.9753	366.211	82.1015	366.211	81.7052	366.211	81.6226	366.211	81.4915	366.211	81.2321	366.211	81.285	366.211	80.9276	366.211	81.0471	366.211	80.6847	366.211	80.7705	366.211	80.474	366.211	80.4856	366.211	80.2788	366.211	80.2433	366.211	80.103	366.211	80.0797	366.211	79.9671	366.211	79.99	366.211	79.8912	366.211	79.9398	366.211	79.8765	366.211	79.9012
379.395	85.0361	379.395	84.9307	379.395	84.995	379.395	84.6936	379.395	84.8046	379.395	84.3521	379.395	84.4743	379.395	83.943	379.395	84.0255	379.395	83.5063	379.395	83.4921	379.395	83.0754	379.395	82.9209	379.395	82.6683	379.395	82.3678	379.395	82.284	379.395	81.8887	379.395	81.9056	379.395	81.5232	379.395	81.5089	379.395	81.2783	379.395	81.0782	379.395	81.1242	379.395	80.6235	379.395	81.0072	379.395	80.1917	379.395	80.8725	379.395	79.8523	379.395	80.6861	379.395	79.6563	379.395	80.4475	379.395	79.6019	379.395	80.1884	379.395	79.6507	379.395	79.9528	379.395	79.7707
392.578	84.692	392.578	84.521	392.578	84.698	392.578	84.2017	392.578	84.5376	392.578	83.7711	392.578	84.222	392.578	83.2863	392.578	83.7752	392.578	82.8143	392.578	83.2372	392.578	82.4083	392.578	82.665	392.578	82.0873	392.578	82.1275	392.578	81.8356	392.578	81.6883	392.578	81.6221	392.578	81.3826	392.578	81.4182	392.578	81.2035	392.578	81.2052	392.578	81.1107	392.578	80.9777	392.578	81.053	392.578	80.7485	392.578	80.9886	392.578	80.5484	392.578	80.8956	392.578	80.4118	392.578	80.7746	392.578	80.3548	392.578	80.643	392.578	80.367	392.578	80.5226	392.578	80.4276
405.762	84.6482	405.762	84.4527	405.762	84.6423	405.762	84.0605	405.762	84.4434	405.762	83.4995	405.762	84.0689	405.762	82.8332	405.762	83.5451	405.762	82.1678	405.762	82.9114	405.762	81.6321	405.762	82.2259	405.762	81.3161	405.762	81.5696	405.762	81.2127	405.762	81.038	405.762	81.2298	405.762	80.7102	405.762	81.2589	405.762	80.6056	405.762	81.2295	405.762	80.668	405.762	81.1249	405.762	80.7981	405.762	80.9725	405.762	80.9042	405.762	80.8216	405.762	80.9357	405.762	80.7133	405.762	80.8914	405.762	80.6594	405.762	80.8063	405.762	80.6487	405.762	80.7241	405.762	80.6704
420.41	85.637	420.41	85.4599	420.41	85.603	420.41	85.076	420.41	85.3608	420.41	84.4987	420.41	84.9226	420.41	83.7535	420.41	84.3114	420.41	82.8858	420.41	83.5644	420.41	81.9722	420.41	82.7353	420.41	81.1308	420.41	81.8941	420.41	80.5049	420.41	81.1216	420.41	80.1959	420.41	80.4957	420.41	80.1864	420.41	80.0746	420.41	80.3535	420.41	79.88	420.41	80.5622	420.41	79.8878	420.41	80.7338	420.41	80.0349	420.41	80.8509	420.41	80.2445	420.41	80.9257	420.41	80.4568	420.41	80.9649	420.41	80.6426	420.41	80.9602	420.41	80.7933	420.41	80.9023
435.059	85.3817	435.059	85.2746	435.059	85.3143	435.059	84.9942	435.059	85.0778	435.059	84.5513	435.059	84.6821	435.059	83.969	435.059	84.1432	435.059	83.2831	435.059	83.4878	435.059	82.5414	435.059	82.7603	435.059	81.8071	435.059	82.0281	435.059	81.1638	435.059	81.376	435.059	80.7045	435.059	80.8804	435.059	80.4881	435.059	80.5736	435.059	80.4916	435.059	80.4311	435.059	80.6231	435.059	80.3986	435.059	80.7861	435.059	80.4298	435.059	80.9252	435.059	80.5029	435.059	81.0228	435.059	80.6117	435.059	81.0736	435.059	80.7475	435.059	81.0694	435.059	80.8887	435.059	81.0046
451.172	85.5066	451.172	85.3699	451.172	85.4439	451.172	85.0371	451.172	85.186	451.172	84.5229	451.172	84.7431	451.172	83.854	451.172	84.1325	451.172	83.0653	451.172	83.3842	451.172	82.1945	451.172	82.5486	451.172	81.2845	451.172	81.7026	451.172	80.405	451.172	80.9446	451.172	79.6797	451.172	80.3677	451.172	79.2709	451.172	80.0179	451.172	79.277	451.172	79.8753	451.172	79.6329	451.172	79.882	451.172	80.1582	451.172	79.9874	451.172	80.6801	451.172	80.1689	451.172	81.0889	451.172	80.4195	451.172	81.3296	451.172	80.7208	451.172	81.3852	451.172	81.0266	451.172	81.2697
465.82	85.7461	465.82	85.6506	465.82	85.6358	465.82	85.3527	465.82	85.3281	465.82	84.8704	465.82	84.8398	465.82	84.2358	465.82	84.1942	465.82	83.4899	465.82	83.4203	465.82	82.6697	465.82	82.555	465.82	81.8007	465.82	81.6487	465.82	80.9038	465.82	80.7744	465.82	80.0238	465.82	80.0274	465.82	79.2588	465.82	79.4981	465.82	78.7517	465.82	79.2207	465.82	78.6079	465.82	79.1483	465.82	78.8	465.82	79.1914	465.82	79.1802	465.82	79.2821	465.82	79.5764	465.82	79.4025	465.82	79.8614	465.82	79.5631	465.82	79.9737	465.82	79.7541	465.82	79.9182
483.398	85.0329	483.398	84.9152	483.398	84.963	483.398	84.6179	483.398	84.7114	483.398	84.1639	483.398	84.2953	483.398	83.5881	483.398	83.7404	483.398	82.9299	483.398	83.0795	483.398	82.2242	483.398	82.3523	483.398	81.5008	483.398	81.6071	483.398	80.7937	483.398	80.8993	483.398	80.1492	483.398	80.283	483.398	79.6244	483.398	79.7973	483.398	79.2767	483.398	79.4596	483.398	79.1554	483.398	79.2735	483.398	79.2826	483.398	79.2417	483.398	79.6133	483.398	79.3645	483.398	80.0255	483.398	79.6226	483.398	80.3719	483.398	79.9601	483.398	80.5457	483.398	80.2882	483.398	80.5087
499.512	85.2149	499.512	85.1194	499.512	85.1111	499.512	84.8255	499.512	84.822	499.512	84.3547	499.512	84.3699	499.512	83.7481	499.512	83.7821	499.512	83.0539	499.512	83.0931	499.512	82.3086	499.512	82.3488	499.512	81.5299	499.512	81.6066	499.512	80.736	499.512	80.922	499.512	79.9799	499.512	80.3279	499.512	79.3576	499.512	79.8269	499.512	78.966	499.512	79.4131	499.512	78.8445	499.512	79.1049	499.512	78.9669	499.512	78.9515	499.512	79.2686	499.512	78.9955	499.512	79.6509	499.512	79.2245	499.512	79.9877	499.512	79.5635	499.512	80.1657	499.512	79.9027	499.512	80.1305
517.09	85.362	517.09	85.2437	517.09	85.2728	517.09	84.923	517.09	84.9854	517.09	84.4238	517.09	84.52	517.09	83.7866	517.09	83.9061	517.09	83.0555	517.09	83.1855	517.09	82.262	517.09	82.4144	517.09	81.4203	517.09	81.6616	517.09	80.5507	517.09	80.9928	517.09	79.7145	517.09	80.4408	517.09	79.0259	517.09	79.9853	517.09	78.6098	517.09	79.5763	517.09	78.5292	517.09	79.1961	517.09	78.7591	517.09	78.9103	517.09	79.2062	517.09	78.8443	517.09	79.7236	517.09	79.0645	517.09	80.1447	517.09	79.4894	517.09	80.3414	517.09	79.9442	517.09	80.2637
536.133	85.109	536.133	84.9777	536.133	84.9725	536.133	84.592	536.133	84.5868	536.133	84.0065	536.133	83.9934	536.133	83.3143	536.133	83.252	536.133	82.6161	536.133	82.4385	536.133	81.9647	536.133	81.6452	536.133	81.3382	536.133	80.9708	536.133	80.685	536.133	80.487	536.133	80.0001	536.133	80.1927	536.133	79.3685	536.133	80.0037	536.133	78.9316	536.133	79.8041	536.133	78.7886	536.133	79.5257	536.133	78.9343	536.133	79.2144	536.133	79.2919	536.133	79.0427	536.133	79.7504	536.133	79.1848	536.133	80.1706	536.133	79.6095	536.133	80.4144	536.133	80.086	536.133	80.3893
555.176	85.5776	555.176	85.4133	555.176	85.461	555.176	84.9738	555.176	85.077	555.176	84.2971	555.176	84.4496	555.176	83.4637	555.176	83.6109	555.176	82.5838	555.176	82.6076	555.176	81.7473	555.176	81.5175	555.176	80.9726	555.176	80.4711	555.176	80.2246	555.176	79.6425	555.176	79.5023	555.176	79.1582	555.176	78.9015	555.176	78.9748	555.176	78.5678	555.176	78.9005	555.176	78.5583	555.176	78.7462	555.176	78.7986	555.176	78.4489	555.176	79.1777	555.176	78.1343	555.176	79.5911	555.176	78.0863	555.176	79.9073	555.176	78.484	555.176	79.9797	555.176	79.1434	555.176	79.7144
574.219	85.7003	574.219	85.5765	574.219	85.5717	574.219	85.1794	574.219	85.2168	574.219	84.5158	574.219	84.6554	574.219	83.6485	574.219	83.904	574.219	82.7058	574.219	82.9877	574.219	81.8291	574.219	81.9585	574.219	81.062	574.219	80.9186	574.219	80.3098	574.219	80.0259	574.219	79.4583	574.219	79.4314	574.219	78.548	574.219	79.1498	574.219	77.8658	574.219	79.0278	574.219	77.7555	574.219	78.8761	574.219	78.2003	574.219	78.6055	574.219	78.8671	574.219	78.2896	574.219	79.4725	574.219	78.1614	574.219	79.857	574.219	78.4381	574.219	79.9186	574.219	79.0335	574.219	79.6158
594.727	85.7519	594.727	85.7376	594.727	85.513	594.727	85.4655	594.727	85.0381	594.727	84.9474	594.727	84.3542	594.727	84.2178	594.727	83.4959	594.727	83.3382	594.727	82.5063	594.727	82.3941	594.727	81.4487	594.727	81.4704	594.727	80.4345	594.727	80.5997	594.727	79.6325	594.727	79.7264	594.727	79.1776	594.727	78.7598	594.727	79.0212	594.727	77.7336	594.727	78.9578	594.727	76.9831	594.727	78.8264	594.727	76.9657	594.727	78.6365	594.727	77.6113	594.727	78.5212	594.727	78.4007	594.727	78.5771	594.727	78.9738	594.727	78.7745	594.727	79.2301	594.727	79.02	594.727	79.2106
615.234	85.9639	615.234	85.8342	615.234	85.8018	615.234	85.4099	615.234	85.3706	615.234	84.7284	615.234	84.7016	615.234	83.8866	615.234	83.8283	615.234	83.0329	615.234	82.788	615.234	82.3037	615.234	81.6332	615.234	81.7337	615.234	80.4648	615.234	81.2377	615.234	79.4677	615.234	80.682	615.234	78.8461	615.234	79.9695	615.234	78.6173	615.234	79.1222	615.234	78.5431	615.234	78.3681	615.234	78.3463	615.234	78.082	615.234	77.9232	615.234	78.3947	615.234	77.4455	615.234	78.9953	615.234	77.332	615.234	79.4867	615.234	77.8354	615.234	79.632	615.234	78.6596	615.234	79.3414
637.207	86.2092	637.207	86.017	637.207	86.0607	637.207	85.4754	637.207	85.6076	637.207	84.6248	637.207	84.8997	637.207	83.5828	637.207	83.9874	637.207	82.5515	637.207	82.9088	637.207	81.737	637.207	81.6913	637.207	81.1968	637.207	80.3969	637.207	80.7985	637.207	79.2109	637.207	80.3518	637.207	78.4538	637.207	79.7333	637.207	78.2898	637.207	78.9489	637.207	78.445	637.207	78.2115	637.207	78.491	637.207	77.9383	637.207	78.2133	637.207	78.3416	637.207	77.7296	637.207	79.082	637.207	77.4924	637.207	79.6772	637.207	77.9107	637.207	79.8528	637.207	78.7675	637.207	79.5233
659.18	86.4547	659.18	86.3596	659.18	86.1984	659.18	85.883	659.18	85.64	659.18	85.0261	659.18	84.8391	659.18	83.8452	659.18	83.853	659.18	82.4824	659.18	82.7242	659.18	81.1644	659.18	81.4858	659.18	80.0956	659.18	80.2072	659.18	79.3152	659.18	79.0653	659.18	78.7345	659.18	78.3229	659.18	78.2801	659.18	78.0729	659.18	77.9085	659.18	78.0674	659.18	77.5868	659.18	77.9748	659.18	77.4089	659.18	77.6507	659.18	77.6205	659.18	77.1972	659.18	78.2503	659.18	76.9572	659.18	78.9136	659.18	77.3032	659.18	79.1899	659.18	78.1287	659.18	78.8952
682.617	85.9875	682.617	85.9291	682.617	85.6607	682.617	85.4514	682.617	85.0178	682.617	84.5718	682.617	84.1513	682.617	83.3904	682.617	83.1541	682.617	82.1216	682.617	82.0833	682.617	81.0467	682.617	80.937	682.617	80.3059	682.617	79.6861	682.617	79.7534	682.617	78.3793	682.617	79.1346	682.617	77.2909	682.617	78.3175	682.617	76.8546	682.617	77.3856	682.617	77.0903	682.617	76.6582	682.617	77.4394	682.617	76.5451	682.617	77.3803	682.617	77.1266	682.617	76.7551	682.617	77.9948	682.617	75.9326	682.617	78.6369	682.617	75.8872	682.617	78.718	682.617	76.9295	682.617	78.1038
707.52	86.363	707.52	86.3298	707.52	86.0524	707.52	85.9081	707.52	85.4672	707.52	85.0913	707.52	84.6847	707.52	83.9328	707.52	83.7638	707.52	82.5852	707.52	82.7183	707.52	81.3194	707.52	81.5117	707.52	80.4022	707.52	80.0954	707.52	79.8451	707.52	78.5182	707.52	79.4069	707.52	77.1323	707.52	78.8607	707.52	76.5644	707.52	78.1317	707.52	76.8633	707.52	77.3002	707.52	77.3251	707.52	76.6752	707.52	77.4539	707.52	76.7582	707.52	77.2289	707.52	77.5733	707.52	76.9929	707.52	78.4785	707.52	77.2376	707.52	78.9238	707.52	77.9968	707.52	78.7191
732.422	86.9657	732.422	87.0434	732.422	86.56	732.422	86.754	732.422	85.8889	732.422	86.084	732.422	85.0377	732.422	85.059	732.422	84.0976	732.422	83.7795	732.422	83.124	732.422	82.4701	732.422	82.1032	732.422	81.4385	732.422	80.9743	732.422	80.826	732.422	79.7089	732.422	80.4668	732.422	78.4269	732.422	80.1243	732.422	77.4818	732.422	79.6387	732.422	77.1975	732.422	78.8592	732.422	77.3439	732.422	77.7573	732.422	77.3523	732.422	76.8488	732.422	76.9011	732.422	77.0178	732.422	76.2369	732.422	77.9552	732.422	76.2791	732.422	78.5762	732.422	77.3281	732.422	78.3458
757.324	86.5954	757.324	86.7548	757.324	86.1006	757.324	86.5354	757.324	85.3523	757.324	85.9187	757.324	84.4725	757.324	84.9104	757.324	83.5797	757.324	83.5784	757.324	82.7055	757.324	82.153	757.324	81.7672	757.324	81.0518	757.324	80.6622	757.324	80.4962	757.324	79.4172	757.324	80.1863	757.324	78.2928	757.324	79.7531	757.324	77.6425	757.324	79.1493	757.324	77.4858	757.324	78.5404	757.324	77.4891	757.324	78.0338	757.324	77.3448	757.324	77.6872	757.324	76.8817	757.324	77.6281	757.324	76.122	757.324	77.7699	757.324	75.5893	757.324	77.6837	757.324	76.0307	757.324	77.0318
785.156	86.8427	785.156	87.0068	785.156	86.4007	785.156	86.8307	785.156	85.7736	785.156	86.2841	785.156	85.0566	785.156	85.3725	785.156	84.2883	785.156	84.1637	785.156	83.4195	785.156	82.8307	785.156	82.3518	785.156	81.6278	785.156	81.0019	785.156	80.6923	785.156	79.3581	785.156	79.9006	785.156	77.6038	785.156	79.0965	785.156	76.3129	785.156	78.3549	785.156	76.0676	785.156	77.8083	785.156	76.501	785.156	77.3603	785.156	76.806	785.156	77.0362	785.156	76.6013	785.156	77.3014	785.156	76.2134	785.156	78.236	785.156	76.6882	785.156	79.0493	785.156	78.0435	785.156	79.0346
811.523	86.4032	811.523	86.7412	811.523	85.78	811.523	86.6997	811.523	84.9996	811.523	86.2431	811.523	84.1849	811.523	85.3927	811.523	83.4068	811.523	84.2113	811.523	82.6452	811.523	82.8139	811.523	81.7846	811.523	81.4205	811.523	80.6619	811.523	80.315	811.523	79.1585	811.523	79.5879	811.523	77.3755	811.523	79.0513	811.523	75.9227	811.523	78.5497	811.523	75.6101	811.523	78.1279	811.523	76.133	811.523	77.8479	811.523	76.57	811.523	77.6848	811.523	76.4885	811.523	77.651	811.523	75.9752	811.523	77.719	811.523	75.6456	811.523	77.6236	811.523	76.1499	811.523	77.0599
840.82	86.7632	840.82	87.1662	840.82	85.9901	840.82	87.0979	840.82	85.0132	840.82	86.4967	840.82	84.0698	840.82	85.3594	840.82	83.3486	840.82	83.8067	840.82	82.8057	840.82	82.1634	840.82	82.181	840.82	80.8582	840.82	81.1934	840.82	80.0086	840.82	79.6749	840.82	79.3548	840.82	77.6749	840.82	78.7581	840.82	75.7739	840.82	78.3555	840.82	75.137	840.82	78.098	840.82	75.7948	840.82	77.6316	840.82	76.4754	840.82	76.9344	840.82	76.3698	840.82	76.6435	840.82	75.5101	840.82	77.1896	840.82	75.2594	840.82	77.8478	840.82	76.5413	840.82	77.716
870.117	86.5247	870.117	86.9337	870.117	85.7463	870.117	86.8755	870.117	84.7908	870.117	86.3003	870.117	83.8939	870.117	85.1729	870.117	83.1741	870.117	83.5175	870.117	82.563	870.117	81.5766	870.117	81.9126	870.117	79.9351	870.117	81.0917	870.117	79.0143	870.117	79.995	870.117	78.4501	870.117	78.5707	870.117	77.7966	870.117	76.9722	870.117	77.221	870.117	75.7968	870.117	77.1679	870.117	75.643	870.117	77.5473	870.117	75.9274	870.117	77.9271	870.117	75.549	870.117	78.1358	870.117	74.0749	870.117	78.183	870.117	72.9588	870.117	77.8663	870.117	74.6035	870.117	76.7399
900.879	86.8093	900.879	87.3798	900.879	85.8531	900.879	87.4244	900.879	84.7326	900.879	86.8672	900.879	83.6982	900.879	85.6866	900.879	82.8958	900.879	83.962	900.879	82.2777	900.879	81.9593	900.879	81.6588	900.879	80.0848	900.879	80.8254	900.879	78.5468	900.879	79.6091	900.879	77.2469	900.879	77.9635	900.879	76.2995	900.879	76.1988	900.879	76.1282	900.879	75.3362	900.879	76.4774	900.879	76.0027	900.879	76.6981	900.879	76.9835	900.879	76.8421	900.879	77.0381	900.879	77.3713	900.879	75.8118	900.879	78.1384	900.879	74.6081	900.879	78.4347	900.879	75.8639	900.879	77.6954
933.105	86.8357	933.105	87.294	933.105	85.9124	933.105	87.1878	933.105	84.7487	933.105	86.4994	933.105	83.6393	933.105	85.2203	933.105	82.7923	933.105	83.3473	933.105	82.2282	933.105	81.0851	933.105	81.8056	933.105	79.2466	933.105	81.2898	933.105	78.6009	933.105	80.4208	933.105	78.2853	933.105	78.9617	933.105	77.2114	933.105	76.8553	933.105	75.9044	933.105	74.9926	933.105	76.2242	933.105	75.2795	933.105	77.3669	933.105	76.4879	933.105	77.9705	933.105	76.4175	933.105	78.2129	933.105	74.412	933.105	78.6263	933.105	72.9382	933.105	78.9342	933.105	75.8265	933.105	78.2311
965.332	86.7702	965.332	87.3781	965.332	85.7268	965.332	87.4063	965.332	84.5302	965.332	86.7967	965.332	83.508	965.332	85.531	965.332	82.7524	965.332	83.6281	965.332	82.1083	965.332	81.2946	965.332	81.437	965.332	79.3837	965.332	80.6776	965.332	78.9163	965.332	79.7284	965.332	78.8987	965.332	78.3515	965.332	77.7457	965.332	76.3052	965.332	75.2348	965.332	74.3772	965.332	73.7663	965.332	75.2808	965.332	74.916	965.332	77.427	965.332	76.3584	965.332	77.9999	965.332	77.5909	965.332	76.1226	965.332	78.7868	965.332	73.1762	965.332	79.4555	965.332	75.8829	965.332	78.7367
1,000.49	86.9317	1,000.49	87.1933	1,000.49	86.2358	1,000.49	86.94	1,000.49	85.3132	1,000.49	86.221	1,000.49	84.3175	1,000.49	85.0758	1,000.49	83.2571	1,000.49	83.383	1,000.49	82.1696	1,000.49	80.8318	1,000.49	81.2223	1,000.49	77.2497	1,000.49	80.5677	1,000.49	74.6293	1,000.49	80.1436	1,000.49	75.7099	1,000.49	79.5804	1,000.49	76.7154	1,000.49	78.2235	1,000.49	76.2602	1,000.49	75.135	1,000.49	75.0864	1,000.49	70.6476	1,000.49	74.5883	1,000.49	74.1383	1,000.49	75.3423	1,000.49	77.5684	1,000.49	76.646	1,000.49	77.3407	1,000.49	77.8319	1,000.49	72.9678	1,000.49	78.1114	1,000.49	71.2323	1,000.49	76.3486
1,035.64	86.7521	1,035.64	87.2425	1,035.64	85.9457	1,035.64	87.2408	1,035.64	85.0907	1,035.64	86.7233	1,035.64	84.3157	1,035.64	85.7577	1,035.64	83.4952	1,035.64	84.3575	1,035.64	82.4696	1,035.64	82.3356	1,035.64	81.2367	1,035.64	79.3301	1,035.64	79.9851	1,035.64	75.353	1,035.64	79.1487	1,035.64	73.451	1,035.64	79.0035	1,035.64	74.8839	1,035.64	78.86	1,035.64	75.5443	1,035.64	77.6454	1,035.64	75.1409	1,035.64	74.7587	1,035.64	74.7736	1,035.64	73.4699	1,035.64	74.9095	1,035.64	76.8069	1,035.64	75.4916	1,035.64	78.1884	1,035.64	76.3756	1,035.64	76.2849	1,035.64	76.5124	1,035.64	72.6877	1,035.64	74.5965
1,072.27	86.6035	1,072.27	86.89	1,072.27	86.0059	1,072.27	86.7483	1,072.27	85.3192	1,072.27	86.2208	1,072.27	84.5396	1,072.27	85.3292	1,072.27	83.5284	1,072.27	84.0095	1,072.27	82.3468	1,072.27	82.2582	1,072.27	81.0933	1,072.27	80.4105	1,072.27	79.6515	1,072.27	79.3533	1,072.27	78.0812	1,072.27	79.1929	1,072.27	77.2605	1,072.27	78.3294	1,072.27	77.4657	1,072.27	75.6239	1,072.27	77.2351	1,072.27	72.3578	1,072.27	75.5922	1,072.27	72.5826	1,072.27	73.9855	1,072.27	73.8014	1,072.27	75.554	1,072.27	74.5013	1,072.27	76.7371	1,072.27	75.5751	1,072.27	75.7235	1,072.27	76.5064	1,072.27	74.6628	1,072.27	75.9327
1,108.89	86.0331	1,108.89	86.4456	1,108.89	85.459	1,108.89	86.459	1,108.89	84.8895	1,108.89	86.012	1,108.89	84.228	1,108.89	85.1861	1,108.89	83.4326	1,108.89	84.1034	1,108.89	82.6274	1,108.89	82.7963	1,108.89	81.7626	1,108.89	81.1068	1,108.89	80.4525	1,108.89	78.9422	1,108.89	78.2985	1,108.89	77.304	1,108.89	75.9876	1,108.89	77.16	1,108.89	75.9133	1,108.89	76.7662	1,108.89	76.8064	1,108.89	75.3201	1,108.89	76.4943	1,108.89	74.1231	1,108.89	75.396	1,108.89	74.5132	1,108.89	75.8754	1,108.89	75.4966	1,108.89	76.8614	1,108.89	76.3369	1,108.89	76.1155	1,108.89	76.5598	1,108.89	74.5758	1,108.89	75.4407
1,148.44	86.0699	1,148.44	86.2355	1,148.44	85.7332	1,148.44	86.1206	1,148.44	85.2605	1,148.44	85.5647	1,148.44	84.6138	1,148.44	84.5599	1,148.44	83.7434	1,148.44	83.339	1,148.44	82.7685	1,148.44	82.0775	1,148.44	81.8278	1,148.44	80.6668	1,148.44	80.6724	1,148.44	79.0088	1,148.44	78.7519	1,148.44	77.3467	1,148.44	76.0843	1,148.44	76.1507	1,148.44	74.8349	1,148.44	75.1551	1,148.44	75.3131	1,148.44	73.8883	1,148.44	74.8765	1,148.44	72.6991	1,148.44	74.4328	1,148.44	72.9937	1,148.44	75.8012	1,148.44	74.744	1,148.44	76.1924	1,148.44	75.9318	1,148.44	74.9084	1,148.44	75.9447	1,148.44	74.163	1,148.44	74.9701
1,189.45	86.5481	1,189.45	86.619	1,189.45	86.0755	1,189.45	86.2182	1,189.45	85.4345	1,189.45	85.4756	1,189.45	84.6297	1,189.45	84.4503	1,189.45	83.6055	1,189.45	83.0823	1,189.45	82.6252	1,189.45	81.35	1,189.45	81.9058	1,189.45	79.5233	1,189.45	81.1362	1,189.45	77.8202	1,189.45	79.6673	1,189.45	75.7832	1,189.45	77.0029	1,189.45	74.1734	1,189.45	73.8587	1,189.45	74.6987	1,189.45	73.1862	1,189.45	75.5327	1,189.45	74.0314	1,189.45	75.0948	1,189.45	74.6462	1,189.45	73.1376	1,189.45	75.6649	1,189.45	72.69	1,189.45	76.2324	1,189.45	74.2139	1,189.45	75.0888	1,189.45	74.6329	1,189.45	73.1605	1,189.45	73.584
1,230.47	86.7876	1,230.47	86.8288	1,230.47	86.3592	1,230.47	86.337	1,230.47	85.7301	1,230.47	85.3363	1,230.47	84.9318	1,230.47	84.0858	1,230.47	83.8991	1,230.47	82.833	1,230.47	82.7763	1,230.47	81.2152	1,230.47	81.7722	1,230.47	78.6679	1,230.47	80.6705	1,230.47	76.1501	1,230.47	78.9533	1,230.47	74.7502	1,230.47	76.5256	1,230.47	73.0927	1,230.47	74.3636	1,230.47	73.2574	1,230.47	73.6145	1,230.47	75.842	1,230.47	73.8407	1,230.47	77.0539	1,230.47	74.3478	1,230.47	75.6835	1,230.47	75.0815	1,230.47	73.1923	1,230.47	75.8854	1,230.47	73.6253	1,230.47	75.6745	1,230.47	74.4747	1,230.47	74.412	1,230.47	74.1181
1,274.41	86.7858	1,274.41	86.9762	1,274.41	86.3248	1,274.41	86.6355	1,274.41	85.7761	1,274.41	85.7023	1,274.41	85.0033	1,274.41	84.3405	1,274.41	83.9298	1,274.41	82.8094	1,274.41	82.7058	1,274.41	80.9138	1,274.41	81.4268	1,274.41	78.0346	1,274.41	80.1468	1,274.41	74.9191	1,274.41	78.7799	1,274.41	74.0112	1,274.41	76.9222	1,274.41	72.0294	1,274.41	74.5112	1,274.41	67.0765	1,274.41	73.1611	1,274.41	72.2347	1,274.41	73.0848	1,274.41	75.7492	1,274.41	71.9313	1,274.41	75.2388	1,274.41	72.8053	1,274.41	73.2873	1,274.41	74.6422	1,274.41	73.9585	1,274.41	74.0127	1,274.41	74.373	1,274.41	72.8679	1,274.41	73.5195
1,319.82	86.3375	1,319.82	86.6837	1,319.82	86.0251	1,319.82	86.37	1,319.82	85.8205	1,319.82	85.2158	1,319.82	85.0347	1,319.82	83.5862	1,319.82	83.5493	1,319.82	81.8115	1,319.82	81.9189	1,319.82	80.0168	1,319.82	80.721	1,319.82	77.9876	1,319.82	79.8212	1,319.82	75.2199	1,319.82	78.4705	1,319.82	74.4776	1,319.82	76.4579	1,319.82	75.2476	1,319.82	74.4883	1,319.82	73.0449	1,319.82	73.1917	1,319.82	70.406	1,319.82	73.0798	1,319.82	74.5705	1,319.82	74.43	1,319.82	75.6433	1,319.82	75.1004	1,319.82	72.8194	1,319.82	74.6836	1,319.82	70.7035	1,319.82	74.0517	1,319.82	71.9126	1,319.82	72.5963	1,319.82	71.9261
1,366.7	85.7606	1,366.7	86.175	1,366.7	85.7443	1,366.7	86.1848	1,366.7	85.783	1,366.7	85.1756	1,366.7	85.2664	1,366.7	83.7125	1,366.7	84.0602	1,366.7	82.3605	1,366.7	82.4657	1,366.7	80.3721	1,366.7	80.852	1,366.7	77.1016	1,366.7	79.4892	1,366.7	73.0651	1,366.7	78.0639	1,366.7	70.4737	1,366.7	75.9211	1,366.7	71.8561	1,366.7	72.7252	1,366.7	71.4641	1,366.7	69.8852	1,366.7	69.952	1,366.7	72.0776	1,366.7	73.7012	1,366.7	73.8287	1,366.7	75.2628	1,366.7	73.078	1,366.7	72.5129	1,366.7	73.7278	1,366.7	69.3188	1,366.7	74.946	1,366.7	71.1938	1,366.7	74.0997	1,366.7	72.4736
1,413.57	85.4566	1,413.57	85.5414	1,413.57	85.5239	1,413.57	85.5688	1,413.57	85.3045	1,413.57	84.9299	1,413.57	84.4711	1,413.57	83.5536	1,413.57	83.3039	1,413.57	81.9743	1,413.57	82.0974	1,413.57	80.4878	1,413.57	80.4859	1,413.57	78.804	1,413.57	78.8933	1,413.57	76.6246	1,413.57	78.196	1,413.57	73.1692	1,413.57	77.579	1,413.57	70.0227	1,413.57	75.7648	1,413.57	69.5046	1,413.57	72.6792	1,413.57	69.5308	1,413.57	67.9727	1,413.57	73.0415	1,413.57	69.0095	1,413.57	75.573	1,413.57	74.5044	1,413.57	74.5661	1,413.57	74.7281	1,413.57	71.8437	1,413.57	72.6622	1,413.57	70.7148	1,413.57	72.7672	1,413.57	71.9462
1,463.38	85.4123	1,463.38	84.8894	1,463.38	85.7102	1,463.38	84.7775	1,463.38	84.937	1,463.38	84.392	1,463.38	83.594	1,463.38	83.1953	1,463.38	82.6372	1,463.38	81.3938	1,463.38	81.7716	1,463.38	79.9394	1,463.38	80.3009	1,463.38	79.3404	1,463.38	78.4659	1,463.38	77.7522	1,463.38	77.1091	1,463.38	73.8223	1,463.38	76.5822	1,463.38	72.8675	1,463.38	76.1643	1,463.38	74.0044	1,463.38	74.497	1,463.38	71.8364	1,463.38	69.8617	1,463.38	70.0555	1,463.38	68.3562	1,463.38	72.1289	1,463.38	71.8518	1,463.38	71.4612	1,463.38	71.5781	1,463.38	69.5152	1,463.38	71.2674	1,463.38	68.4524	1,463.38	71.6876	1,463.38	69.2491
1,516.11	86.1076	1,516.11	85.2024	1,516.11	85.9072	1,516.11	84.3094	1,516.11	84.6699	1,516.11	83.9911	1,516.11	83.329	1,516.11	83.1641	1,516.11	82.2552	1,516.11	81.4918	1,516.11	81.0085	1,516.11	79.8445	1,516.11	79.3545	1,516.11	79.0972	1,516.11	77.2174	1,516.11	78.4493	1,516.11	74.7069	1,516.11	75.5877	1,516.11	72.8001	1,516.11	74.2248	1,516.11	72.8076	1,516.11	76.2169	1,516.11	73.3157	1,516.11	74.6989	1,516.11	71.8879	1,516.11	70.8623	1,516.11	69.9988	1,516.11	71.2166	1,516.11	67.7483	1,516.11	70.0471	1,516.11	67.8332	1,516.11	68.3612	1,516.11	71.24	1,516.11	68.536	1,516.11	71.4571	1,516.11	70.0623
1,568.85	86.3291	1,568.85	85.5445	1,568.85	86.3008	1,568.85	84.0404	1,568.85	85.4364	1,568.85	82.9174	1,568.85	83.3813	1,568.85	82.6765	1,568.85	80.995	1,568.85	81.7478	1,568.85	79.7466	1,568.85	79.6233	1,568.85	78.9708	1,568.85	76.9291	1,568.85	77.8049	1,568.85	74.679	1,568.85	76.1365	1,568.85	71.3902	1,568.85	74.2	1,568.85	68.9878	1,568.85	73.4221	1,568.85	73.7516	1,568.85	74.0307	1,568.85	74.8686	1,568.85	72.3146	1,568.85	72.0843	1,568.85	67.3143	1,568.85	71.3334	1,568.85	68.5316	1,568.85	70.7468	1,568.85	67.4972	1,568.85	67.9955	1,568.85	71.3673	1,568.85	68.4411	1,568.85	72.3781	1,568.85	70.6129
1,624.51	86.1441	1,624.51	85.3995	1,624.51	86.471	1,624.51	84.1485	1,624.51	85.3723	1,624.51	82.1394	1,624.51	82.901	1,624.51	81.0529	1,624.51	80.8789	1,624.51	80.7419	1,624.51	79.6303	1,624.51	79.4844	1,624.51	78.741	1,624.51	77.276	1,624.51	77.9861	1,624.51	75.402	1,624.51	76.6962	1,624.51	74.6905	1,624.51	74.8045	1,624.51	68.913	1,624.51	72.4312	1,624.51	63.5673	1,624.51	72.1451	1,624.51	73.8064	1,624.51	72.6923	1,624.51	74.18	1,624.51	67.4027	1,624.51	71.067	1,624.51	68.5879	1,624.51	69.7939	1,624.51	70.604	1,624.51	66.7004	1,624.51	72.1997	1,624.51	66.8851	1,624.51	73.7414	1,624.51	71.1241
1,681.64	86.0561	1,681.64	84.7905	1,681.64	86.4541	1,681.64	84.1668	1,681.64	84.842	1,681.64	82.6375	1,681.64	82.5664	1,681.64	79.7539	1,681.64	80.6388	1,681.64	79.9508	1,681.64	78.8868	1,681.64	80.5221	1,681.64	78.3361	1,681.64	77.675	1,681.64	77.8568	1,681.64	74.8051	1,681.64	76.4221	1,681.64	75.603	1,681.64	74.7307	1,681.64	71.7531	1,681.64	72.763	1,681.64	66.3231	1,681.64	73.0917	1,681.64	70.3656	1,681.64	74.2665	1,681.64	73.2437	1,681.64	69.3333	1,681.64	72.1377	1,681.64	67.9377	1,681.64	69.9695	1,681.64	71.4846	1,681.64	66.5542	1,681.64	69.6771	1,681.64	65.199	1,681.64	74.5155	1,681.64	70.8171
1,741.7	86.0154	1,741.7	85.1164	1,741.7	85.6986	1,741.7	83.3004	1,741.7	84.5676	1,741.7	82.3057	1,741.7	82.314	1,741.7	81.6021	1,741.7	79.6584	1,741.7	79.8606	1,741.7	78.5927	1,741.7	78.2531	1,741.7	77.9718	1,741.7	78.2573	1,741.7	77.4562	1,741.7	74.8088	1,741.7	77.0636	1,741.7	71.1958	1,741.7	76.198	1,741.7	72.892	1,741.7	74.2401	1,741.7	71.8928	1,741.7	72.4885	1,741.7	71.7436	1,741.7	73.1673	1,741.7	72.4268	1,741.7	70.3106	1,741.7	70.8694	1,741.7	69.0193	1,741.7	70.4892	1,741.7	69.8052	1,741.7	64.9128	1,741.7	66.3761	1,741.7	61.0806	1,741.7	72.6086	1,741.7	70.8848
1,803.22	86.8459	1,803.22	85.537	1,803.22	86.3029	1,803.22	82.8195	1,803.22	83.7515	1,803.22	80.6671	1,803.22	81.2332	1,803.22	81.0132	1,803.22	79.8724	1,803.22	81.2742	1,803.22	78.4423	1,803.22	80.3151	1,803.22	77.2038	1,803.22	77.7209	1,803.22	76.636	1,803.22	75.4184	1,803.22	76.996	1,803.22	73.7341	1,803.22	76.4238	1,803.22	74.8382	1,803.22	74.0354	1,803.22	75.7295	1,803.22	71.632	1,803.22	72.4004	1,803.22	72.878	1,803.22	70.9628	1,803.22	71.2537	1,803.22	70.4517	1,803.22	69.2517	1,803.22	71.7877	1,803.22	71.7858	1,803.22	67.4671	1,803.22	68.1741	1,803.22	59.5451	1,803.22	72.9291	1,803.22	70.1906
1,866.21	87.0365	1,866.21	85.5107	1,866.21	86.2569	1,866.21	82.0494	1,866.21	84.0317	1,866.21	79.4983	1,866.21	81.0839	1,866.21	80.0916	1,866.21	78.4069	1,866.21	81.4999	1,866.21	78.3132	1,866.21	80.9472	1,866.21	77.2784	1,866.21	79.405	1,866.21	75.0192	1,866.21	78.6398	1,866.21	75.2582	1,866.21	77.0502	1,866.21	75.0427	1,866.21	77.5403	1,866.21	71.2933	1,866.21	76.9171	1,866.21	71.7227	1,866.21	73.764	1,866.21	73.2283	1,866.21	68.9971	1,866.21	71.9376	1,866.21	69.0738	1,866.21	61.6983	1,866.21	71.2743	1,866.21	71.1015	1,866.21	64.0737	1,866.21	66.277	1,866.21	61.6054	1,866.21	72.7441	1,866.21	70.7411
1,932.13	86.09	1,932.13	84.323	1,932.13	85.9835	1,932.13	81.3825	1,932.13	83.9624	1,932.13	78.0526	1,932.13	80.3906	1,932.13	79.6923	1,932.13	78.7765	1,932.13	81.0099	1,932.13	78.3372	1,932.13	80.5438	1,932.13	75.6322	1,932.13	79.9657	1,932.13	74.5874	1,932.13	79.8002	1,932.13	75.2377	1,932.13	79.0182	1,932.13	76.1899	1,932.13	74.9649	1,932.13	73.9874	1,932.13	75.5985	1,932.13	67.9488	1,932.13	73.7461	1,932.13	70.2377	1,932.13	71.1642	1,932.13	71.8121	1,932.13	72.4694	1,932.13	69.8964	1,932.13	70.6558	1,932.13	66.9827	1,932.13	58.4987	1,932.13	67.9213	1,932.13	66.5646	1,932.13	70.9868	1,932.13	71.524
1,999.51	85.3296	1,999.51	83.211	1,999.51	84.7842	1,999.51	80.0055	1,999.51	82.6547	1,999.51	76.5958	1,999.51	79.6354	1,999.51	79.5389	1,999.51	77.1846	1,999.51	81.7516	1,999.51	77.0279	1,999.51	80.388	1,999.51	76.0541	1,999.51	79.6259	1,999.51	75.9213	1,999.51	78.6898	1,999.51	75.7001	1,999.51	77.7152	1,999.51	76.6461	1,999.51	73.6481	1,999.51	75.6666	1,999.51	68.7453	1,999.51	70.4107	1,999.51	71.3555	1,999.51	72.1154	1,999.51	73.4278	1,999.51	70.8099	1,999.51	73.3267	1,999.51	69.2891	1,999.51	68.1046	1,999.51	66.3268	1,999.51	55.2409	1,999.51	64.4465	1,999.51	66.3762	1,999.51	70.1123	1,999.51	71.5302
2,069.82	86.1453	2,069.82	84.9221	2,069.82	84.264	2,069.82	80.4277	2,069.82	81.1372	2,069.82	75.806	2,069.82	77.0511	2,069.82	79.4393	2,069.82	75.1856	2,069.82	81.7626	2,069.82	74.9597	2,069.82	81.7309	2,069.82	74.5774	2,069.82	79.54	2,069.82	74.8288	2,069.82	73.6178	2,069.82	73.8637	2,069.82	72.0978	2,069.82	73.7985	2,069.82	74.5589	2,069.82	75.609	2,069.82	70.9677	2,069.82	71.0457	2,069.82	70.238	2,069.82	72.1408	2,069.82	74.9775	2,069.82	73.4898	2,069.82	73.9215	2,069.82	60.1866	2,069.82	69.5043	2,069.82	69.6469	2,069.82	50.936	2,069.82	65.6126	2,069.82	65.2855	2,069.82	72.1769	2,069.82	72.199
2,143.07	85.9749	2,143.07	85.0652	2,143.07	84.5593	2,143.07	80.2692	2,143.07	80.5308	2,143.07	73.2383	2,143.07	72.9561	2,143.07	79.0192	2,143.07	72.8172	2,143.07	80.719	2,143.07	74.113	2,143.07	81.8388	2,143.07	75.3818	2,143.07	80.818	2,143.07	74.1497	2,143.07	77.2801	2,143.07	74.521	2,143.07	71.3969	2,143.07	73.6844	2,143.07	73.5447	2,143.07	72.7284	2,143.07	73.945	2,143.07	73.2579	2,143.07	66.767	2,143.07	64.7503	2,143.07	70.518	2,143.07	70.8619	2,143.07	72.1674	2,143.07	61.1258	2,143.07	69.5327	2,143.07	67.8897	2,143.07	62.1874	2,143.07	68.6069	2,143.07	67.621	2,143.07	72.3732	2,143.07	73.1797
2,219.24	85.1304	2,219.24	84.0364	2,219.24	84.2067	2,219.24	79.4885	2,219.24	80.0028	2,219.24	67.9052	2,219.24	72.089	2,219.24	80.5776	2,219.24	71.4677	2,219.24	82.3565	2,219.24	74.9988	2,219.24	82.4692	2,219.24	76.4392	2,219.24	79.8411	2,219.24	73.8346	2,219.24	78.318	2,219.24	73.7818	2,219.24	76.6203	2,219.24	73.5685	2,219.24	73.8678	2,219.24	70.3355	2,219.24	76.0728	2,219.24	72.6339	2,219.24	72.2701	2,219.24	70.9957	2,219.24	69.9742	2,219.24	68.0058	2,219.24	69.6031	2,219.24	55.9838	2,219.24	71.0421	2,219.24	67.7651	2,219.24	62.6198	2,219.24	67.7431	2,219.24	67.6521	2,219.24	72.2338	2,219.24	71.1641
2,296.88	84.7701	2,296.88	83.7179	2,296.88	83.4225	2,296.88	77.4718	2,296.88	79.3863	2,296.88	71.1764	2,296.88	69.9368	2,296.88	81.4315	2,296.88	71.88	2,296.88	82.8204	2,296.88	75.9921	2,296.88	81.9347	2,296.88	76.7136	2,296.88	78.684	2,296.88	76.0259	2,296.88	74.6227	2,296.88	73.9408	2,296.88	73.9826	2,296.88	73.1195	2,296.88	72.1141	2,296.88	67.9164	2,296.88	72.2041	2,296.88	69.0226	2,296.88	71.9284	2,296.88	71.3506	2,296.88	68.2794	2,296.88	68.7831	2,296.88	67.1725	2,296.88	64.4592	2,296.88	68.5219	2,296.88	65.9378	2,296.88	64.1501	2,296.88	67.1804	2,296.88	69.163	2,296.88	71.4786	2,296.88	69.4014
2,378.91	85.4462	2,378.91	84.2996	2,378.91	83.8788	2,378.91	77.2336	2,378.91	79.3859	2,378.91	73.9926	2,378.91	57.8635	2,378.91	81.3601	2,378.91	73.6397	2,378.91	82.7578	2,378.91	78.0483	2,378.91	80.0833	2,378.91	79.0271	2,378.91	77.2481	2,378.91	77.2221	2,378.91	75.7183	2,378.91	73.391	2,378.91	73.6431	2,378.91	71.2552	2,378.91	71.2652	2,378.91	69.4266	2,378.91	64.4559	2,378.91	66.1153	2,378.91	68.4728	2,378.91	72.0557	2,378.91	67.2667	2,378.91	67.9276	2,378.91	67.66	2,378.91	66.3091	2,378.91	68.362	2,378.91	64.8944	2,378.91	63.746	2,378.91	67.0597	2,378.91	66.0731	2,378.91	69.1788	2,378.91	67.8768
2,462.4	85.0445	2,462.4	84.5183	2,462.4	83.2454	2,462.4	78.9287	2,462.4	78.2385	2,462.4	76.2385	2,462.4	46.471	2,462.4	82.4359	2,462.4	76.4746	2,462.4	81.98	2,462.4	79.8834	2,462.4	80.3028	2,462.4	79.5603	2,462.4	78.2495	2,462.4	77.2502	2,462.4	72.2019	2,462.4	73.0748	2,462.4	69.7446	2,462.4	73.3367	2,462.4	70.0636	2,462.4	72.5199	2,462.4	66.5013	2,462.4	68.9917	2,462.4	67.5541	2,462.4	70.0629	2,462.4	63.7551	2,462.4	69.3457	2,462.4	66.3187	2,462.4	69.3622	2,462.4	69.8427	2,462.4	64.0125	2,462.4	68.3651	2,462.4	65.8082	2,462.4	68.2068	2,462.4	68.4424	2,462.4	68.7551
2,548.83	84.7202	2,548.83	84.3624	2,548.83	82.4271	2,548.83	78.4394	2,548.83	77.7895	2,548.83	78.855	2,548.83	68.6084	2,548.83	82.186	2,548.83	78.0541	2,548.83	82.1552	2,548.83	81.003	2,548.83	79.8932	2,548.83	80.3589	2,548.83	75.5949	2,548.83	77.9385	2,548.83	75.3701	2,548.83	74.0984	2,548.83	70.8344	2,548.83	72.1271	2,548.83	70.674	2,548.83	71.1888	2,548.83	69.155	2,548.83	64.3565	2,548.83	66.3351	2,548.83	70.6458	2,548.83	67.3757	2,548.83	70.2253	2,548.83	63.4729	2,548.83	70.2632	2,548.83	68.764	2,548.83	65.2901	2,548.83	68.064	2,548.83	64.6967	2,548.83	70.0146	2,548.83	68.8723	2,548.83	70.5923
2,639.65	85.5098	2,639.65	84.8657	2,639.65	82.299	2,639.65	79.216	2,639.65	76.3095	2,639.65	79.5352	2,639.65	74.0416	2,639.65	82.3768	2,639.65	80.1808	2,639.65	82.2272	2,639.65	82.1942	2,639.65	79.3763	2,639.65	81.301	2,639.65	76.5928	2,639.65	79.242	2,639.65	74.3548	2,639.65	77.0973	2,639.65	74.6281	2,639.65	73.1585	2,639.65	73.1276	2,639.65	71.0306	2,639.65	72.6828	2,639.65	68.668	2,639.65	68.4969	2,639.65	70.1828	2,639.65	69.3333	2,639.65	71.8813	2,639.65	65.2813	2,639.65	68.0976	2,639.65	67.0442	2,639.65	67.4276	2,639.65	69.2737	2,639.65	65.2395	2,639.65	68.4646	2,639.65	68.5443	2,639.65	69.2987
2,731.93	85.8005	2,731.93	85.1619	2,731.93	82.9721	2,731.93	80.6715	2,731.93	75.9967	2,731.93	80.5549	2,731.93	76.6397	2,731.93	82.9068	2,731.93	81.6719	2,731.93	82.3472	2,731.93	82.7041	2,731.93	81.4959	2,731.93	81.4307	2,731.93	80.2032	2,731.93	78.7886	2,731.93	77.8994	2,731.93	75.6547	2,731.93	76.3545	2,731.93	67.7667	2,731.93	74.5851	2,731.93	67.1617	2,731.93	72.9686	2,731.93	71.1257	2,731.93	70.4402	2,731.93	71.003	2,731.93	69.1455	2,731.93	72.5401	2,731.93	66.4081	2,731.93	69.2674	2,731.93	68.3977	2,731.93	67.6578	2,731.93	69.5928	2,731.93	65.8745	2,731.93	72.411	2,731.93	68.2449	2,731.93	69.3662
2,828.61	85.6158	2,828.61	84.8213	2,828.61	83.252	2,828.61	80.4374	2,828.61	77.9548	2,828.61	81.539	2,828.61	77.0765	2,828.61	83.4015	2,828.61	82.2147	2,828.61	83.3509	2,828.61	83.3297	2,828.61	82.7409	2,828.61	81.5855	2,828.61	81.0408	2,828.61	78.9177	2,828.61	77.9811	2,828.61	76.9563	2,828.61	75.742	2,828.61	71.4192	2,828.61	73.7922	2,828.61	63.8142	2,828.61	72.7907	2,828.61	68.4473	2,828.61	71.662	2,828.61	71.2723	2,828.61	70.2141	2,828.61	70.615	2,828.61	70.2117	2,828.61	70.7526	2,828.61	69.4913	2,828.61	68.2886	2,828.61	70.5701	2,828.61	63.4962	2,828.61	72.7674	2,828.61	67.6451	2,828.61	71.183
2,928.22	85.3366	2,928.22	84.2498	2,928.22	83.1412	2,928.22	80.7064	2,928.22	79.4681	2,928.22	82.4158	2,928.22	79.5511	2,928.22	84.0714	2,928.22	82.2172	2,928.22	84.3165	2,928.22	83.9216	2,928.22	84.0538	2,928.22	82.7198	2,928.22	81.701	2,928.22	79.8976	2,928.22	78.6142	2,928.22	75.7103	2,928.22	77.0046	2,928.22	67.795	2,928.22	75.5632	2,928.22	69.8029	2,928.22	74.0879	2,928.22	71.8323	2,928.22	72.0482	2,928.22	72.1247	2,928.22	70.5328	2,928.22	72.6897	2,928.22	68.9371	2,928.22	70.7797	2,928.22	70.3836	2,928.22	69.3161	2,928.22	68.9864	2,928.22	65.3185	2,928.22	73.564	2,928.22	69.2923	2,928.22	72.0415
3,030.76	84.7295	3,030.76	82.9382	3,030.76	83.1576	3,030.76	80.8622	3,030.76	80.3914	3,030.76	82.2097	3,030.76	81.4187	3,030.76	84.272	3,030.76	82.5197	3,030.76	85.3819	3,030.76	83.86	3,030.76	84.0623	3,030.76	83.1183	3,030.76	80.8996	3,030.76	80.7379	3,030.76	78.9772	3,030.76	75.766	3,030.76	76.1482	3,030.76	66.1361	3,030.76	72.9775	3,030.76	68.3574	3,030.76	71.1045	3,030.76	75.3231	3,030.76	70.0606	3,030.76	73.9024	3,030.76	68.6409	3,030.76	73.8885	3,030.76	69.0936	3,030.76	71.9078	3,030.76	69.1376	3,030.76	68.5426	3,030.76	69.6171	3,030.76	64.0059	3,030.76	72.0715	3,030.76	68.1311	3,030.76	72.4951
3,137.7	84.5847	3,137.7	83.2144	3,137.7	83.2443	3,137.7	81.459	3,137.7	81.3986	3,137.7	81.9797	3,137.7	82.7541	3,137.7	84.5423	3,137.7	82.7992	3,137.7	85.3692	3,137.7	83.5787	3,137.7	83.1989	3,137.7	83.4912	3,137.7	81.3581	3,137.7	81.0998	3,137.7	75.6149	3,137.7	76.235	3,137.7	73.4519	3,137.7	72.5575	3,137.7	73.1551	3,137.7	69.4914	3,137.7	71.3877	3,137.7	74.4916	3,137.7	69.1257	3,137.7	74.709	3,137.7	67.9429	3,137.7	73.3191	3,137.7	67.9799	3,137.7	71.3408	3,137.7	69.0089	3,137.7	67.3061	3,137.7	68.7976	3,137.7	63.6907	3,137.7	70.1097	3,137.7	67.4838	3,137.7	71.0464
3,249.02	84.1964	3,249.02	82.9149	3,249.02	82.9846	3,249.02	81.7692	3,249.02	82.3344	3,249.02	81.8584	3,249.02	83.7125	3,249.02	85.0625	3,249.02	82.5413	3,249.02	84.63	3,249.02	82.944	3,249.02	83.1186	3,249.02	83.4401	3,249.02	78.5763	3,249.02	82.0061	3,249.02	77.5684	3,249.02	77.3601	3,249.02	76.5352	3,249.02	73.9874	3,249.02	73.0737	3,249.02	73.6093	3,249.02	71.3329	3,249.02	75.5289	3,249.02	68.3996	3,249.02	74.846	3,249.02	67.3008	3,249.02	73.0825	3,249.02	66.231	3,249.02	70.9857	3,249.02	67.0965	3,249.02	65.4377	3,249.02	68.6888	3,249.02	65.9126	3,249.02	71.1469	3,249.02	68.6336	3,249.02	69.824
3,363.28	84.1348	3,363.28	83.102	3,363.28	82.7692	3,363.28	81.0948	3,363.28	82.4122	3,363.28	82.2101	3,363.28	84.2895	3,363.28	85.3346	3,363.28	81.968	3,363.28	83.7246	3,363.28	81.5156	3,363.28	82.0487	3,363.28	83.2516	3,363.28	79.9858	3,363.28	82.855	3,363.28	77.3415	3,363.28	79.2796	3,363.28	70.5598	3,363.28	76.3573	3,363.28	71.1396	3,363.28	75.4062	3,363.28	71.1291	3,363.28	74.5671	3,363.28	67.4265	3,363.28	74.7893	3,363.28	65.4239	3,363.28	70.4179	3,363.28	66.5368	3,363.28	69.8924	3,363.28	66.1036	3,363.28	65.2349	3,363.28	66.6896	3,363.28	67.1231	3,363.28	71.2125	3,363.28	68.9968	3,363.28	70.2229
3,481.93	84.1999	3,481.93	83.7281	3,481.93	82.9791	3,481.93	80.6131	3,481.93	82.4481	3,481.93	83.3118	3,481.93	84.3572	3,481.93	84.2802	3,481.93	81.7347	3,481.93	83.8457	3,481.93	80.7108	3,481.93	81.1044	3,481.93	82.9982	3,481.93	79.2458	3,481.93	81.5514	3,481.93	73.1513	3,481.93	78.932	3,481.93	75.264	3,481.93	76.3018	3,481.93	71.9385	3,481.93	77.5032	3,481.93	69.7798	3,481.93	76.1518	3,481.93	68.9887	3,481.93	75.3974	3,481.93	66.6061	3,481.93	71.1519	3,481.93	63.7274	3,481.93	68.9767	3,481.93	65.5471	3,481.93	65.5441	3,481.93	64.728	3,481.93	66.0723	3,481.93	70.9237	3,481.93	67.6781	3,481.93	71.1091
3,604.98	84.9064	3,604.98	83.5797	3,604.98	82.9496	3,604.98	80.6654	3,604.98	82.9856	3,604.98	83.496	3,604.98	84.4284	3,604.98	84.0901	3,604.98	81.0081	3,604.98	82.7219	3,604.98	79.5286	3,604.98	81.7073	3,604.98	83.1687	3,604.98	77.5878	3,604.98	81.2722	3,604.98	77.4184	3,604.98	78.8521	3,604.98	73.413	3,604.98	74.8529	3,604.98	69.3916	3,604.98	73.0152	3,604.98	70.0725	3,604.98	76.43	3,604.98	66.9704	3,604.98	76.0722	3,604.98	67.501	3,604.98	70.9909	3,604.98	61.5252	3,604.98	67.8196	3,604.98	63.7966	3,604.98	67.6911	3,604.98	64.1831	3,604.98	64.4139	3,604.98	69.8913	3,604.98	67.1977	3,604.98	70.677
3,732.42	84.8675	3,732.42	83.602	3,732.42	83.1006	3,732.42	81.4242	3,732.42	83.0526	3,732.42	83.861	3,732.42	84.3422	3,732.42	83.1691	3,732.42	80.8562	3,732.42	83.2894	3,732.42	79.3136	3,732.42	80.0383	3,732.42	82.2907	3,732.42	79.5884	3,732.42	81.1479	3,732.42	75.6903	3,732.42	78.2668	3,732.42	73.8158	3,732.42	71.1104	3,732.42	72.0214	3,732.42	71.4859	3,732.42	70.0261	3,732.42	73.7636	3,732.42	68.3934	3,732.42	75.3198	3,732.42	68.6409	3,732.42	72.1869	3,732.42	62.3786	3,732.42	67.1898	3,732.42	65.5797	3,732.42	66.8572	3,732.42	62.1655	3,732.42	64.8514	3,732.42	68.3454	3,732.42	66.4913	3,732.42	70.7705
3,864.26	85.5425	3,864.26	84.1102	3,864.26	82.8737	3,864.26	82.1637	3,864.26	83.2402	3,864.26	83.3138	3,864.26	84.0918	3,864.26	83.0044	3,864.26	81.0533	3,864.26	82.0308	3,864.26	77.3938	3,864.26	81.322	3,864.26	80.4663	3,864.26	79.0646	3,864.26	81.0416	3,864.26	76.5922	3,864.26	78.038	3,864.26	74.7046	3,864.26	71.6016	3,864.26	71.2968	3,864.26	59.8912	3,864.26	70.0266	3,864.26	68.0719	3,864.26	67.3142	3,864.26	72.131	3,864.26	67.3951	3,864.26	70.6934	3,864.26	63.4715	3,864.26	66.6432	3,864.26	65.5986	3,864.26	66.1478	3,864.26	62.609	3,864.26	61.116	3,864.26	68.189	3,864.26	65.8263	3,864.26	71.4599
4,000.49	86.0474	4,000.49	84.2504	4,000.49	83.3208	4,000.49	82.6545	4,000.49	82.7747	4,000.49	83.3243	4,000.49	84.2526	4,000.49	82.8848	4,000.49	81.2897	4,000.49	81.6123	4,000.49	75.5775	4,000.49	81.8481	4,000.49	79.9376	4,000.49	78.9687	4,000.49	80.8602	4,000.49	77.9727	4,000.49	77.5802	4,000.49	69.6311	4,000.49	73.4399	4,000.49	70.6282	4,000.49	66.1342	4,000.49	68.5696	4,000.49	64.6496	4,000.49	67.0783	4,000.49	70.8125	4,000.49	65.28	4,000.49	69.8288	4,000.49	60.7711	4,000.49	65.5549	4,000.49	64.7043	4,000.49	65.4945	4,000.49	59.5152	4,000.49	61.5867	4,000.49	69.6476	4,000.49	65.3442	4,000.49	71.8506
4,141.11	86.5943	4,141.11	84.8216	4,141.11	84.1818	4,141.11	83.4406	4,141.11	82.8586	4,141.11	83.686	4,141.11	83.7276	4,141.11	82.3766	4,141.11	79.4463	4,141.11	82.1177	4,141.11	76.8207	4,141.11	80.4784	4,141.11	79.7642	4,141.11	78.3453	4,141.11	80.4968	4,141.11	71.6074	4,141.11	76.2176	4,141.11	74.4207	4,141.11	63.0513	4,141.11	70.9102	4,141.11	67.7307	4,141.11	68.7992	4,141.11	70.5706	4,141.11	66.7597	4,141.11	71.9389	4,141.11	64.6986	4,141.11	69.2521	4,141.11	60.3644	4,141.11	64.8354	4,141.11	63.6093	4,141.11	66.8296	4,141.11	55.3668	4,141.11	65.2782	4,141.11	67.322	4,141.11	67.712	4,141.11	70.2559
4,287.6	86.5088	4,287.6	85.0674	4,287.6	84.4364	4,287.6	83.8716	4,287.6	82.4661	4,287.6	83.4335	4,287.6	81.9985	4,287.6	82.3017	4,287.6	79.386	4,287.6	81.711	4,287.6	75.9764	4,287.6	80.4594	4,287.6	79.5328	4,287.6	76.6217	4,287.6	79.0345	4,287.6	76.8449	4,287.6	70.3526	4,287.6	69.0416	4,287.6	69.3095	4,287.6	70.6898	4,287.6	63.7244	4,287.6	69.3448	4,287.6	70.8097	4,287.6	67.0599	4,287.6	73.3243	4,287.6	67.266	4,287.6	67.588	4,287.6	60.4688	4,287.6	66.8764	4,287.6	64.1345	4,287.6	67.1837	4,287.6	55.4279	4,287.6	66.1014	4,287.6	69.4321	4,287.6	67.5898	4,287.6	70.8384
4,438.48	87.1354	4,438.48	85.7996	4,438.48	85.29	4,438.48	84.5321	4,438.48	83.222	4,438.48	83.4442	4,438.48	83.5995	4,438.48	82.8729	4,438.48	80.5902	4,438.48	82.0334	4,438.48	75.6163	4,438.48	79.4554	4,438.48	78.6687	4,438.48	79.2218	4,438.48	77.7871	4,438.48	74.6449	4,438.48	71.5879	4,438.48	75.1663	4,438.48	72.0208	4,438.48	72.117	4,438.48	64.347	4,438.48	69.3393	4,438.48	67.018	4,438.48	67.7049	4,438.48	72.0703	4,438.48	67.2521	4,438.48	69.505	4,438.48	62.689	4,438.48	62.8673	4,438.48	66.5214	4,438.48	66.7462	4,438.48	55.6618	4,438.48	65.0012	4,438.48	65.7829	4,438.48	65.8957	4,438.48	69.4147
4,595.21	86.9493	4,595.21	86.2841	4,595.21	85.6147	4,595.21	84.9217	4,595.21	83.972	4,595.21	83.3912	4,595.21	83.7159	4,595.21	82.6017	4,595.21	80.7418	4,595.21	80.9227	4,595.21	71.7341	4,595.21	80.4999	4,595.21	77.433	4,595.21	78.6517	4,595.21	76.0472	4,595.21	77.5669	4,595.21	74.9784	4,595.21	70.2443	4,595.21	71.9064	4,595.21	71.396	4,595.21	59.2119	4,595.21	68.7766	4,595.21	61.6826	4,595.21	67.0501	4,595.21	70.1181	4,595.21	66.6271	4,595.21	67.4501	4,595.21	63.064	4,595.21	60.7708	4,595.21	64.9373	4,595.21	65.7524	4,595.21	54.3644	4,595.21	63.3301	4,595.21	68.423	4,595.21	66.4748	4,595.21	70.7267
4,756.35	87.2572	4,756.35	86.8606	4,756.35	86.0146	4,756.35	84.9771	4,756.35	83.5942	4,756.35	83.96	4,756.35	83.3066	4,756.35	82.8776	4,756.35	81.1799	4,756.35	81.2091	4,756.35	73.051	4,756.35	80.4607	4,756.35	75.2235	4,756.35	79.0116	4,756.35	76.4701	4,756.35	74.8693	4,756.35	77.1851	4,756.35	73.6158	4,756.35	71.0568	4,756.35	69.5258	4,756.35	64.2849	4,756.35	67.7757	4,756.35	58.8414	4,756.35	65.7803	4,756.35	69.6938	4,756.35	63.8433	4,756.35	68.4062	4,756.35	63.1835	4,756.35	60.0229	4,756.35	63.4775	4,756.35	68.68	4,756.35	48.3657	4,756.35	63.7067	4,756.35	66.828	4,756.35	64.5506	4,756.35	69.6152
4,924.8	87.0328	4,924.8	87.1572	4,924.8	86.2211	4,924.8	84.6892	4,924.8	84.4531	4,924.8	84.002	4,924.8	84.0652	4,924.8	81.8748	4,924.8	82.6901	4,924.8	80.9632	4,924.8	73.7885	4,924.8	80.4352	4,924.8	69.3954	4,924.8	77.3812	4,924.8	77.1611	4,924.8	75.4194	4,924.8	75.6839	4,924.8	69.3899	4,924.8	72.8136	4,924.8	70.4778	4,924.8	64.5045	4,924.8	66.492	4,924.8	64.6619	4,924.8	66.3865	4,924.8	68.5699	4,924.8	64.272	4,924.8	70.1777	4,924.8	60.7602	4,924.8	60.454	4,924.8	64.8191	4,924.8	64.7959	4,924.8	49.8998	4,924.8	64.6711	4,924.8	64.6535	4,924.8	62.0876	4,924.8	68.818
5,097.66	86.4972	5,097.66	87.0243	5,097.66	85.9676	5,097.66	84.5478	5,097.66	84.7005	5,097.66	84.234	5,097.66	83.8332	5,097.66	81.5865	5,097.66	82.6723	5,097.66	81.825	5,097.66	76.1875	5,097.66	79.972	5,097.66	69.6475	5,097.66	76.1206	5,097.66	77.8825	5,097.66	75.2072	5,097.66	74.8759	5,097.66	71.856	5,097.66	74.1609	5,097.66	70.2404	5,097.66	66.9196	5,097.66	68.1501	5,097.66	65.765	5,097.66	66.6139	5,097.66	67.423	5,097.66	63.7873	5,097.66	69.7047	5,097.66	61.987	5,097.66	63.3575	5,097.66	63.5292	5,097.66	61.0227	5,097.66	52.867	5,097.66	63.4413	5,097.66	66.8517	5,097.66	62.095	5,097.66	68.4552
5,277.83	86.5131	5,277.83	86.5569	5,277.83	85.1034	5,277.83	84.4492	5,277.83	83.9766	5,277.83	83.7031	5,277.83	82.9176	5,277.83	81.5217	5,277.83	82.5739	5,277.83	82.0952	5,277.83	78.7769	5,277.83	80.2676	5,277.83	74.9317	5,277.83	77.4109	5,277.83	78.9111	5,277.83	76.1584	5,277.83	75.906	5,277.83	69.9685	5,277.83	72.8416	5,277.83	70.9579	5,277.83	63.5997	5,277.83	68.0048	5,277.83	60.3658	5,277.83	67.906	5,277.83	64.0659	5,277.83	63.5348	5,277.83	68.5413	5,277.83	61.3789	5,277.83	64.8595	5,277.83	64.1366	5,277.83	57.8109	5,277.83	48.4678	5,277.83	62.6634	5,277.83	63.5895	5,277.83	60.9366	5,277.83	66.5658
5,463.87	85.4231	5,463.87	85.7284	5,463.87	84.8793	5,463.87	84.6724	5,463.87	84.4325	5,463.87	83.2807	5,463.87	83.0258	5,463.87	82.7127	5,463.87	82.8809	5,463.87	82.4507	5,463.87	79.0883	5,463.87	81.0684	5,463.87	73.8502	5,463.87	76.7561	5,463.87	79.1808	5,463.87	75.6782	5,463.87	76.0877	5,463.87	70.5853	5,463.87	72.1943	5,463.87	69.837	5,463.87	70.6218	5,463.87	66.7174	5,463.87	51.7618	5,463.87	66.9845	5,463.87	51.5868	5,463.87	62.9067	5,463.87	66.1384	5,463.87	60.8167	5,463.87	63.9832	5,463.87	63.9641	5,463.87	61.0707	5,463.87	56.1058	5,463.87	65.1122	5,463.87	64.334	5,463.87	60.5855	5,463.87	66.8058
5,657.23	84.971	5,657.23	85.4491	5,657.23	83.9129	5,657.23	84.4243	5,657.23	83.9988	5,657.23	82.4799	5,657.23	82.8561	5,657.23	83.5378	5,657.23	83.0956	5,657.23	82.095	5,657.23	80.4871	5,657.23	80.8862	5,657.23	74.6851	5,657.23	75.6652	5,657.23	77.0346	5,657.23	71.8384	5,657.23	76.479	5,657.23	71.074	5,657.23	72.3483	5,657.23	68.8369	5,657.23	72.1846	5,657.23	67.7803	5,657.23	53.2109	5,657.23	66.5849	5,657.23	61.2071	5,657.23	62.8852	5,657.23	68.5131	5,657.23	63.6812	5,657.23	57.7538	5,657.23	62.9027	5,657.23	57.1492	5,657.23	60.5054	5,657.23	65.8281	5,657.23	61.8326	5,657.23	57.6078	5,657.23	65.4313
5,856.45	84.2995	5,856.45	84.927	5,856.45	83.0474	5,856.45	83.6763	5,856.45	83.7157	5,856.45	82.9227	5,856.45	82.489	5,856.45	83.6017	5,856.45	82.23	5,856.45	82.2688	5,856.45	80.2948	5,856.45	79.9776	5,856.45	73.9409	5,856.45	77.8104	5,856.45	74.0935	5,856.45	74.1959	5,856.45	78.3033	5,856.45	71.4658	5,856.45	74.3391	5,856.45	67.7566	5,856.45	71.4964	5,856.45	68.5474	5,856.45	60.1542	5,856.45	66.278	5,856.45	60.6347	5,856.45	65.2568	5,856.45	67.3383	5,856.45	64.0337	5,856.45	50.9713	5,856.45	62.36	5,856.45	47.5515	5,856.45	59.829	5,856.45	61.9209	5,856.45	62.7401	5,856.45	52.8622	5,856.45	65.5928
6,062.99	83.8517	6,062.99	84.6796	6,062.99	82.6459	6,062.99	83.347	6,062.99	83.4749	6,062.99	83.3451	6,062.99	81.5266	6,062.99	82.6317	6,062.99	80.9761	6,062.99	81.9686	6,062.99	78.2288	6,062.99	80.3171	6,062.99	73.1746	6,062.99	78.5559	6,062.99	75.0924	6,062.99	74.4268	6,062.99	78.1441	6,062.99	72.8281	6,062.99	74.2923	6,062.99	67.6536	6,062.99	67.3051	6,062.99	67.6917	6,062.99	64.7682	6,062.99	64.8515	6,062.99	62.991	6,062.99	65.0849	6,062.99	63.8349	6,062.99	63.6	6,062.99	56.5712	6,062.99	63.3361	6,062.99	56.325	6,062.99	60.529	6,062.99	63.3181	6,062.99	62.525	6,062.99	54.7217	6,062.99	63.4361
6,276.86	83.8145	6,276.86	84.2412	6,276.86	82.7075	6,276.86	83.2402	6,276.86	83.1553	6,276.86	83.5071	6,276.86	81.8614	6,276.86	82.197	6,276.86	80.8065	6,276.86	81.2378	6,276.86	78.1602	6,276.86	80.772	6,276.86	76.0428	6,276.86	77.7634	6,276.86	75.4246	6,276.86	74.0473	6,276.86	76.9402	6,276.86	70.873	6,276.86	73.4045	6,276.86	67.169	6,276.86	63.8221	6,276.86	66.918	6,276.86	61.9663	6,276.86	63.3531	6,276.86	64.7271	6,276.86	63.414	6,276.86	66.4954	6,276.86	63.4628	6,276.86	60.8897	6,276.86	62.125	6,276.86	60.7932	6,276.86	58.5676	6,276.86	63.5701	6,276.86	58.7769	6,276.86	57.0335	6,276.86	62.1486
6,498.05	84.171	6,498.05	83.6497	6,498.05	82.9298	6,498.05	83.7518	6,498.05	82.5968	6,498.05	83.3724	6,498.05	81.6385	6,498.05	81.6216	6,498.05	81.4673	6,498.05	81.0983	6,498.05	80.4504	6,498.05	80.3284	6,498.05	77.4469	6,498.05	77.4335	6,498.05	77.1807	6,498.05	74.3318	6,498.05	77.6345	6,498.05	70.3666	6,498.05	71.1656	6,498.05	67.5329	6,498.05	66.727	6,498.05	66.7551	6,498.05	52.9649	6,498.05	62.6849	6,498.05	62.7363	6,498.05	61.6994	6,498.05	66.8494	6,498.05	62.7136	6,498.05	60.7999	6,498.05	62.3985	6,498.05	50.4937	6,498.05	57.7013	6,498.05	61.067	6,498.05	59.7617	6,498.05	54.5866	6,498.05	62.4889
6,726.56	84.0685	6,726.56	83.0328	6,726.56	83.1883	6,726.56	84.0218	6,726.56	82.0955	6,726.56	82.7429	6,726.56	81.7605	6,726.56	81.8979	6,726.56	82.4592	6,726.56	80.5815	6,726.56	82.0042	6,726.56	80.3137	6,726.56	78.2002	6,726.56	77.1938	6,726.56	76.843	6,726.56	74.5191	6,726.56	74.2094	6,726.56	70.9372	6,726.56	69.2448	6,726.56	67.1863	6,726.56	67.803	6,726.56	66.3769	6,726.56	49.0326	6,726.56	63.2351	6,726.56	53.2897	6,726.56	61.9433	6,726.56	65.6282	6,726.56	62.5949	6,726.56	58.9384	6,726.56	62.8595	6,726.56	56.3718	6,726.56	59.0994	6,726.56	63.2216	6,726.56	59.6633	6,726.56	55.2102	6,726.56	62.6898
6,963.87	83.6039	6,963.87	82.6263	6,963.87	83.7842	6,963.87	84.0038	6,963.87	82.0858	6,963.87	82.8846	6,963.87	81.4029	6,963.87	81.6984	6,963.87	82.4628	6,963.87	80.5095	6,963.87	82.1711	6,963.87	79.9793	6,963.87	76.8321	6,963.87	77.4371	6,963.87	71.1257	6,963.87	73.6676	6,963.87	68.8938	6,963.87	71.3174	6,963.87	64.9774	6,963.87	65.2746	6,963.87	65.222	6,963.87	65.2386	6,963.87	50.1693	6,963.87	61.5813	6,963.87	49.0143	6,963.87	61.4364	6,963.87	68.6451	6,963.87	62.2275	6,963.87	60.4028	6,963.87	61.7407	6,963.87	45.0254	6,963.87	56.7774	6,963.87	62.1313	6,963.87	60.0797	6,963.87	55.2829	6,963.87	61.4429
7,209.96	83.5142	7,209.96	82.6108	7,209.96	83.6402	7,209.96	83.8959	7,209.96	82.0606	7,209.96	82.7631	7,209.96	80.8628	7,209.96	81.1734	7,209.96	81.7612	7,209.96	80.84	7,209.96	81.4805	7,209.96	79.2846	7,209.96	76.1037	7,209.96	76.7644	7,209.96	62.1926	7,209.96	71.4324	7,209.96	67.8465	7,209.96	69.8798	7,209.96	64.5759	7,209.96	63.5145	7,209.96	53.7982	7,209.96	64.5494	7,209.96	50.4754	7,209.96	61.7616	7,209.96	51.3054	7,209.96	58.9622	7,209.96	64.7224	7,209.96	60.1883	7,209.96	59.9034	7,209.96	61.3577	7,209.96	51.7311	7,209.96	55.6904	7,209.96	59.9798	7,209.96	55.9771	7,209.96	53.9354	7,209.96	60.834
7,464.84	83.454	7,464.84	82.622	7,464.84	83.691	7,464.84	83.7387	7,464.84	82.5826	7,464.84	82.4585	7,464.84	81.4937	7,464.84	81.0565	7,464.84	80.9021	7,464.84	80.986	7,464.84	79.1994	7,464.84	78.8458	7,464.84	75.1619	7,464.84	75.9672	7,464.84	66.3592	7,464.84	71.6706	7,464.84	72.0735	7,464.84	68.7674	7,464.84	66.9515	7,464.84	63.2202	7,464.84	52.6374	7,464.84	63.3889	7,464.84	56.0805	7,464.84	62.418	7,464.84	52.9226	7,464.84	58.4601	7,464.84	64.6599	7,464.84	59.8125	7,464.84	58.6489	7,464.84	60.7031	7,464.84	46.7782	7,464.84	55.4339	7,464.84	58.4322	7,464.84	56.482	7,464.84	54.8879	7,464.84	59.0366
7,727.05	83.2971	7,727.05	83.1918	7,727.05	83.5846	7,727.05	84.0755	7,727.05	82.9865	7,727.05	82.4346	7,727.05	81.1065	7,727.05	81.2922	7,727.05	79.6688	7,727.05	80.7316	7,727.05	77.1493	7,727.05	78.6044	7,727.05	75.9737	7,727.05	75.4687	7,727.05	71.9475	7,727.05	70.2443	7,727.05	75.5482	7,727.05	67.9248	7,727.05	64.6779	7,727.05	62.3265	7,727.05	53.6481	7,727.05	61.6696	7,727.05	54.7489	7,727.05	60.617	7,727.05	54.8031	7,727.05	56.6378	7,727.05	63.701	7,727.05	58.9805	7,727.05	56.1793	7,727.05	59.7691	7,727.05	53.8763	7,727.05	56.7039	7,727.05	59.7788	7,727.05	56.0644	7,727.05	54.2994	7,727.05	56.4185
7,999.51	83.4018	7,999.51	83.9112	7,999.51	83.7585	7,999.51	84.0403	7,999.51	83.6263	7,999.51	82.9147	7,999.51	81.8993	7,999.51	81.3068	7,999.51	79.4486	7,999.51	80.6218	7,999.51	77.3828	7,999.51	78.0694	7,999.51	74.9906	7,999.51	73.8545	7,999.51	74.0345	7,999.51	70.7732	7,999.51	75.7573	7,999.51	67.5054	7,999.51	67.1271	7,999.51	64.0144	7,999.51	62.4106	7,999.51	60.5451	7,999.51	58.8157	7,999.51	59.3033	7,999.51	55.6123	7,999.51	57.5304	7,999.51	53.7958	7,999.51	58.132	7,999.51	59.9744	7,999.51	60.2004	7,999.51	57.5567	7,999.51	55.9527	7,999.51	57.2961	7,999.51	53.1827	7,999.51	54.5988	7,999.51	56.1197
8,282.23	84.1547	8,282.23	84.5397	8,282.23	83.7627	8,282.23	84.1971	8,282.23	83.6365	8,282.23	83.0831	8,282.23	81.701	8,282.23	81.2144	8,282.23	79.408	8,282.23	80.4002	8,282.23	78.0801	8,282.23	77.6316	8,282.23	73.8875	8,282.23	74.1129	8,282.23	75.4981	8,282.23	71.0493	8,282.23	74.8427	8,282.23	67.1125	8,282.23	65.86	8,282.23	64.0256	8,282.23	62.5977	8,282.23	60.8089	8,282.23	57.8261	8,282.23	59.7767	8,282.23	58.7922	8,282.23	55.3224	8,282.23	58.8783	8,282.23	58.71	8,282.23	61.1268	8,282.23	60.356	8,282.23	54.6434	8,282.23	57.1955	8,282.23	52.8069	8,282.23	51.9411	8,282.23	47.5939	8,282.23	54.8158
8,573.73	84.6345	8,573.73	84.5716	8,573.73	83.7945	8,573.73	84.4006	8,573.73	83.9021	8,573.73	82.8706	8,573.73	81.687	8,573.73	81.7559	8,573.73	79.384	8,573.73	79.4823	8,573.73	78.3379	8,573.73	77.6841	8,573.73	76.0917	8,573.73	74.2742	8,573.73	74.5719	8,573.73	71.3004	8,573.73	72.0531	8,573.73	67.6215	8,573.73	66.1278	8,573.73	64.1399	8,573.73	63.8831	8,573.73	60.9834	8,573.73	51.9439	8,573.73	60.2326	8,573.73	58.1781	8,573.73	54.1499	8,573.73	55.7558	8,573.73	57.5709	8,573.73	60.1932	8,573.73	61.1534	8,573.73	53.1528	8,573.73	57.8454	8,573.73	56.3923	8,573.73	45.7633	8,573.73	51.0357	8,573.73	56.7377
8,876.95	84.565	8,876.95	84.6021	8,876.95	84.3456	8,876.95	84.1751	8,876.95	83.9864	8,876.95	83.1358	8,876.95	81.1137	8,876.95	81.7993	8,876.95	79.367	8,876.95	79.1999	8,876.95	78.5835	8,876.95	77.2741	8,876.95	76.7247	8,876.95	75.0295	8,876.95	72.1748	8,876.95	70.8317	8,876.95	64.5081	8,876.95	67.1327	8,876.95	63.9455	8,876.95	62.4282	8,876.95	65.3495	8,876.95	59.6745	8,876.95	51.9209	8,876.95	58.9975	8,876.95	53.3057	8,876.95	53.5754	8,876.95	58.3179	8,876.95	57.8319	8,876.95	58.1925	8,876.95	60.8511	8,876.95	50.0524	8,876.95	54.4452	8,876.95	52.8123	8,876.95	51.8923	8,876.95	49.5229	8,876.95	53.008
9,188.96	84.2428	9,188.96	84.8113	9,188.96	84.4788	9,188.96	83.7149	9,188.96	84.043	9,188.96	83.6803	9,188.96	80.7656	9,188.96	81.6141	9,188.96	80.4582	9,188.96	79.3715	9,188.96	78.6406	9,188.96	76.9382	9,188.96	76.9755	9,188.96	74.3349	9,188.96	67.5876	9,188.96	70.4212	9,188.96	65.019	9,188.96	65.6396	9,188.96	57.9872	9,188.96	60.353	9,188.96	59.5521	9,188.96	60.3556	9,188.96	52.23	9,188.96	57.0522	9,188.96	52.464	9,188.96	54.9952	9,188.96	55.9425	9,188.96	57.752	9,188.96	56.2435	9,188.96	59.8284	9,188.96	50.8681	9,188.96	52.313	9,188.96	55.2935	9,188.96	51.0274	9,188.96	25.7016	9,188.96	48.3769
9,514.16	84.1159	9,514.16	84.9	9,514.16	84.4063	9,514.16	83.5712	9,514.16	83.9654	9,514.16	83.8225	9,514.16	80.771	9,514.16	81.4485	9,514.16	80.1575	9,514.16	79.4126	9,514.16	78.0056	9,514.16	76.8989	9,514.16	75.8562	9,514.16	73.3605	9,514.16	70.6962	9,514.16	69.8146	9,514.16	69.5782	9,514.16	64.8254	9,514.16	60.7104	9,514.16	58.2936	9,514.16	52.7073	9,514.16	58.4866	9,514.16	46.5456	9,514.16	56.2161	9,514.16	51.9528	9,514.16	54.1545	9,514.16	53.7271	9,514.16	56.6054	9,514.16	48.1792	9,514.16	57.7282	9,514.16	50.5585	9,514.16	52.1265	9,514.16	54.2769	9,514.16	50.4044	9,514.16	47.632	9,514.16	48.1714
9,849.61	84.4305	9,849.61	84.8786	9,849.61	84.4313	9,849.61	84.0669	9,849.61	83.8146	9,849.61	83.5345	9,849.61	81.3802	9,849.61	81.3729	9,849.61	79.5505	9,849.61	79.3394	9,849.61	76.6518	9,849.61	77.065	9,849.61	73.2254	9,849.61	71.8269	9,849.61	72.1046	9,849.61	68.2838	9,849.61	69.043	9,849.61	63.7234	9,849.61	63.7389	9,849.61	58.2842	9,849.61	57.4514	9,849.61	55.8224	9,849.61	53.9182	9,849.61	55.7151	9,849.61	53.0643	9,849.61	51.5324	9,849.61	53.4923	9,849.61	54.7273	9,849.61	45.6887	9,849.61	56.1504	9,849.61	54.1472	9,849.61	51.6017	9,849.61	55.0829	9,849.61	46.8586	9,849.61	49.6272	9,849.61	50.9223
10,196.8	84.9314	10,196.8	85.0244	10,196.8	84.4055	10,196.8	84.6028	10,196.8	83.3504	10,196.8	83.0977	10,196.8	82.2386	10,196.8	81.0061	10,196.8	79.6003	10,196.8	79.2367	10,196.8	77.0292	10,196.8	76.7599	10,196.8	72.715	10,196.8	70.5325	10,196.8	70.3699	10,196.8	67.2233	10,196.8	63.5458	10,196.8	62.2431	10,196.8	62.3439	10,196.8	57.6638	10,196.8	56.4897	10,196.8	54.2997	10,196.8	52.6131	10,196.8	53.4733	10,196.8	51.5483	10,196.8	53.6132	10,196.8	57.8333	10,196.8	56.0167	10,196.8	51.9068	10,196.8	55.9468	10,196.8	54.7112	10,196.8	49.8763	10,196.8	51.4263	10,196.8	45.9175	10,196.8	49.524	10,196.8	52.1979
10,555.7	85.3451	10,555.7	85.183	10,555.7	84.6599	10,555.7	84.7751	10,555.7	83.4283	10,555.7	82.6735	10,555.7	82.1072	10,555.7	80.393	10,555.7	79.1161	10,555.7	78.7982	10,555.7	76.8453	10,555.7	75.7167	10,555.7	72.2289	10,555.7	70.1538	10,555.7	68.5655	10,555.7	65.7551	10,555.7	63.7326	10,555.7	61.5044	10,555.7	60.7776	10,555.7	56.7866	10,555.7	54.7617	10,555.7	55.4197	10,555.7	52.1417	10,555.7	51.7738	10,555.7	51.835	10,555.7	55.8485	10,555.7	57.2244	10,555.7	55.9997	10,555.7	52.7355	10,555.7	53.197	10,555.7	52.0546	10,555.7	51.0129	10,555.7	52.467	10,555.7	40.7545	10,555.7	47.8838	10,555.7	51.8137
10,927.7	85.7687	10,927.7	85.0621	10,927.7	84.987	10,927.7	84.6799	10,927.7	83.72	10,927.7	82.5701	10,927.7	81.8479	10,927.7	80.0779	10,927.7	78.4504	10,927.7	78.6756	10,927.7	75.5871	10,927.7	74.0615	10,927.7	72.193	10,927.7	69.7178	10,927.7	69.4911	10,927.7	66.311	10,927.7	64.0045	10,927.7	59.8302	10,927.7	57.949	10,927.7	56.0248	10,927.7	46.2608	10,927.7	55.8161	10,927.7	46.1974	10,927.7	49.2902	10,927.7	54.9904	10,927.7	56.6857	10,927.7	53.2251	10,927.7	55.3129	10,927.7	50.0774	10,927.7	50.9205	10,927.7	52.788	10,927.7	50.677	10,927.7	53.0685	10,927.7	31.5125	10,927.7	46.0886	10,927.7	50.7496
11,313	86.016	11,313	85.0733	11,313	85.2418	11,313	84.6652	11,313	83.8506	11,313	82.7041	11,313	81.6508	11,313	80.0681	11,313	78.4639	11,313	78.2237	11,313	75.334	11,313	72.9947	11,313	70.3228	11,313	68.9007	11,313	69.7254	11,313	66.2201	11,313	62.7565	11,313	59.7971	11,313	58.49	11,313	53.9924	11,313	46.1497	11,313	54.4748	11,313	43.2272	11,313	48.007	11,313	49.7032	11,313	54.1795	11,313	45.727	11,313	53.4889	11,313	39.6509	11,313	47.8009	11,313	52.9437	11,313	48.6772	11,313	50.6833	11,313	26.0737	11,313	46.9986	11,313	49.6011
11,712.9	85.6599	11,712.9	85.0924	11,712.9	84.9587	11,712.9	84.7995	11,712.9	83.7843	11,712.9	82.7791	11,712.9	81.4953	11,712.9	80.0324	11,712.9	78.8029	11,712.9	77.3039	11,712.9	74.973	11,712.9	72.5987	11,712.9	71.2132	11,712.9	67.9873	11,712.9	69.7226	11,712.9	65.319	11,712.9	59.3855	11,712.9	60.3485	11,712.9	53.3135	11,712.9	53.6474	11,712.9	50.3513	11,712.9	55.2495	11,712.9	47.2502	11,712.9	47.6213	11,712.9	48.2277	11,712.9	52.9684	11,712.9	38.8439	11,712.9	53.4695	11,712.9	42.464	11,712.9	46.8504	11,712.9	49.7314	11,712.9	45.6158	11,712.9	48.2418	11,712.9	37.6881	11,712.9	46.8038	11,712.9	50.931
12,126	85.31	12,126	85.4158	12,126	84.4708	12,126	84.6416	12,126	83.5371	12,126	82.6677	12,126	81.1904	12,126	79.6858	12,126	78.7711	12,126	76.5125	12,126	74.4889	12,126	72.4576	12,126	70.5855	12,126	66.716	12,126	67.7065	12,126	64.3206	12,126	55.5169	12,126	58.8399	12,126	47.2825	12,126	54.1258	12,126	53.3854	12,126	54.6654	12,126	50.6856	12,126	46.7695	12,126	41.7251	12,126	52.9209	12,126	35.5027	12,126	52.4384	12,126	28.3381	12,126	44.4244	12,126	44.5561	12,126	37.2383	12,126	44.3842	12,126	41.4604	12,126	39.3574	12,126	48.8203
12,553.7	85.5083	12,553.7	85.5259	12,553.7	84.6867	12,553.7	84.3244	12,553.7	83.6819	12,553.7	82.5529	12,553.7	80.9089	12,553.7	79.2594	12,553.7	77.2097	12,553.7	76.1109	12,553.7	72.5324	12,553.7	72.2614	12,553.7	68.7305	12,553.7	65.6995	12,553.7	65.0787	12,553.7	63.0458	12,553.7	54.9739	12,553.7	58.1681	12,553.7	53.2975	12,553.7	52.5897	12,553.7	48.9732	12,553.7	52.1285	12,553.7	48.8939	12,553.7	47.6614	12,553.7	45.3885	12,553.7	51.4951	12,553.7	45.6417	12,553.7	48.8231	12,553.7	41.1635	12,553.7	46.4415	12,553.7	47.3047	12,553.7	43.6745	12,553.7	47.5232	12,553.7	45.2412	12,553.7	42.2132	12,553.7	44.0858
12,996.1	85.5327	12,996.1	85.2792	12,996.1	84.9088	12,996.1	83.9787	12,996.1	83.4658	12,996.1	82.3904	12,996.1	80.5093	12,996.1	78.8381	12,996.1	76.9705	12,996.1	75.6966	12,996.1	73.0312	12,996.1	72.0885	12,996.1	67.5274	12,996.1	65.4312	12,996.1	62.5485	12,996.1	62.2135	12,996.1	58.1543	12,996.1	58.0148	12,996.1	53.0063	12,996.1	52.2859	12,996.1	51.6819	12,996.1	49.9436	12,996.1	48.7629	12,996.1	48.9531	12,996.1	45.4129	12,996.1	50.6088	12,996.1	51.0346	12,996.1	49.8024	12,996.1	46.5142	12,996.1	47.8909	12,996.1	45.8455	12,996.1	43.3619	12,996.1	46.6367	12,996.1	48.556	12,996.1	42.8576	12,996.1	40.3429
13,454.6	85.3175	13,454.6	85.3771	13,454.6	84.8322	13,454.6	83.9658	13,454.6	82.9624	13,454.6	82.1229	13,454.6	79.7482	13,454.6	78.2229	13,454.6	75.7759	13,454.6	75.4623	13,454.6	73.1937	13,454.6	71.7948	13,454.6	67.17	13,454.6	66.2048	13,454.6	62.4756	13,454.6	60.8616	13,454.6	58.9731	13,454.6	58.0151	13,454.6	51.7686	13,454.6	51.9128	13,454.6	54.1713	13,454.6	52.2302	13,454.6	52.6225	13,454.6	49.2763	13,454.6	42.6576	13,454.6	51.0613	13,454.6	52.5807	13,454.6	50.4754	13,454.6	49.5576	13,454.6	49.1375	13,454.6	49.0914	13,454.6	43.3776	13,454.6	45.1914	13,454.6	49.614	13,454.6	41.3526	13,454.6	44.0365
13,929.2	85.1208	13,929.2	85.4708	13,929.2	84.4251	13,929.2	83.8366	13,929.2	82.7879	13,929.2	81.6763	13,929.2	79.6476	13,929.2	77.7439	13,929.2	75.7839	13,929.2	74.9057	13,929.2	73.6965	13,929.2	70.9054	13,929.2	67.2922	13,929.2	65.2802	13,929.2	64.0647	13,929.2	59.8154	13,929.2	55.0018	13,929.2	55.6786	13,929.2	48.8575	13,929.2	50.7459	13,929.2	56.0506	13,929.2	49.6259	13,929.2	58.2103	13,929.2	48.2588	13,929.2	45.4936	13,929.2	50.2405	13,929.2	53.4782	13,929.2	48.5858	13,929.2	48.4894	13,929.2	49.4867	13,929.2	51.8862	13,929.2	44.0198	13,929.2	42.0378	13,929.2	49.6045	13,929.2	34.4274	13,929.2	47.9573
14,419.9	85.1678	14,419.9	85.2752	14,419.9	84.0653	14,419.9	83.6436	14,419.9	82.6303	14,419.9	81.2871	14,419.9	79.707	14,419.9	77.739	14,419.9	76.3999	14,419.9	74.2936	14,419.9	72.5352	14,419.9	69.8043	14,419.9	67.975	14,419.9	63.3039	14,419.9	62.0691	14,419.9	59.138	14,419.9	58.1283	14,419.9	56.0719	14,419.9	53.8517	14,419.9	51.6183	14,419.9	54.9951	14,419.9	45.3024	14,419.9	58.4653	14,419.9	47.5259	14,419.9	49.4797	14,419.9	47.6517	14,419.9	52.002	14,419.9	46.8884	14,419.9	43.9368	14,419.9	48.3393	14,419.9	51.62	14,419.9	46.4013	14,419.9	37.8167	14,419.9	46.0004	14,419.9	33.1101	14,419.9	50.7882
14,928.2	85.3061	14,928.2	85.014	14,928.2	83.9806	14,928.2	83.3737	14,928.2	82.3003	14,928.2	80.8329	14,928.2	79.5741	14,928.2	77.6021	14,928.2	76.6021	14,928.2	73.9037	14,928.2	72.1348	14,928.2	68.7997	14,928.2	66.5333	14,928.2	63.0421	14,928.2	58.2414	14,928.2	59.9825	14,928.2	57.2923	14,928.2	57.0493	14,928.2	51.5225	14,928.2	51.3988	14,928.2	52.8744	14,928.2	46.839	14,928.2	58.8414	14,928.2	48.766	14,928.2	48.6018	14,928.2	44.6321	14,928.2	44.8792	14,928.2	46.7055	14,928.2	33.9674	14,928.2	45.755	14,928.2	45.7549	14,928.2	45.3435	14,928.2	30.1576	14,928.2	44.4519	14,928.2	32.3571	14,928.2	50.6623
15,455.6	85.3605	15,455.6	84.9106	15,455.6	83.9344	15,455.6	83.036	15,455.6	81.7749	15,455.6	80.5823	15,455.6	79.1456	15,455.6	77.1136	15,455.6	75.9758	15,455.6	73.5872	15,455.6	70.5676	15,455.6	67.5644	15,455.6	65.6563	15,455.6	63.7228	15,455.6	60.6907	15,455.6	60.998	15,455.6	56.2918	15,455.6	57.3635	15,455.6	52.0559	15,455.6	51.2809	15,455.6	53.5055	15,455.6	48.2967	15,455.6	59.3197	15,455.6	48.1827	15,455.6	47.8121	15,455.6	43.4578	15,455.6	39.1249	15,455.6	47.9905	15,455.6	43.8727	15,455.6	42.9657	15,455.6	47.0501	15,455.6	46.1361	15,455.6	38.1237	15,455.6	39.7803	15,455.6	33.5132	15,455.6	49.7998
16,000.5	85.1287	16,000.5	84.6703	16,000.5	83.6885	16,000.5	82.7942	16,000.5	81.5047	16,000.5	80.5382	16,000.5	78.9581	16,000.5	76.3642	16,000.5	74.8389	16,000.5	73.1882	16,000.5	69.48	16,000.5	66.7052	16,000.5	68.1665	16,000.5	63.6699	16,000.5	60.5967	16,000.5	59.6845	16,000.5	59.7803	16,000.5	55.0675	16,000.5	54.7914	16,000.5	51.5002	16,000.5	53.2147	16,000.5	47.0576	16,000.5	59.6309	16,000.5	47.2689	16,000.5	40.1762	16,000.5	44.5555	16,000.5	43.6289	16,000.5	48.0736	16,000.5	44.7292	16,000.5	40.1384	16,000.5	45.5782	16,000.5	41.6422	16,000.5	41.5238	16,000.5	37.687	16,000.5	38.6074	16,000.5	48.3823
16,564.5	84.784	16,564.5	84.3782	16,564.5	83.3701	16,564.5	82.5856	16,564.5	81.4235	16,564.5	80.4735	16,564.5	78.3722	16,564.5	75.7682	16,564.5	73.6152	16,564.5	72.5165	16,564.5	69.4067	16,564.5	66.7978	16,564.5	64.6553	16,564.5	62.6898	16,564.5	60.7673	16,564.5	58.3607	16,564.5	55.2055	16,564.5	52.8027	16,564.5	54.2892	16,564.5	51.2893	16,564.5	54.9831	16,564.5	41.5956	16,564.5	59.0853	16,564.5	45.3549	16,564.5	40.2319	16,564.5	41.1939	16,564.5	41.4669	16,564.5	46.2721	16,564.5	44.2152	16,564.5	39.2723	16,564.5	46.6119	16,564.5	37.7829	16,564.5	44.3028	16,564.5	35.1698	16,564.5	44.6763	16,564.5	45.891
17,148.9	84.4969	17,148.9	84.0708	17,148.9	83.1128	17,148.9	82.4668	17,148.9	81.3674	17,148.9	80.0499	17,148.9	77.6159	17,148.9	75.3968	17,148.9	73.0006	17,148.9	71.9411	17,148.9	68.2599	17,148.9	66.6804	17,148.9	62.9362	17,148.9	61.6695	17,148.9	58.9931	17,148.9	57.5351	17,148.9	50.0203	17,148.9	52.0984	17,148.9	50.3551	17,148.9	49.9154	17,148.9	56.6809	17,148.9	35.7463	17,148.9	58.8959	17,148.9	44.704	17,148.9	44.3822	17,148.9	37.0455	17,148.9	44.8983	17,148.9	45.7914	17,148.9	46.9903	17,148.9	40.4166	17,148.9	42.7935	17,148.9	41.0781	17,148.9	44.7982	17,148.9	36.6472	17,148.9	46.1213	17,148.9	45.1076
17,752.4	84.2038	17,752.4	83.8703	17,752.4	83.0256	17,752.4	82.0982	17,752.4	81.1365	17,752.4	79.4495	17,752.4	77.0222	17,752.4	75.0395	17,752.4	72.8775	17,752.4	70.9127	17,752.4	67.4551	17,752.4	64.7297	17,752.4	64.4871	17,752.4	60.1597	17,752.4	56.5141	17,752.4	56.5252	17,752.4	41.3167	17,752.4	51.7937	17,752.4	43.8158	17,752.4	46.7321	17,752.4	57.2607	17,752.4	37.7682	17,752.4	59.8642	17,752.4	41.6897	17,752.4	44.8848	17,752.4	33.449	17,752.4	47.3819	17,752.4	44.2624	17,752.4	47.6165	17,752.4	38.3538	17,752.4	46.24	17,752.4	47.0237	17,752.4	44.9542	17,752.4	47.3875	17,752.4	46.6087	17,752.4	47.3087
18,379.4	83.5331	18,379.4	83.4297	18,379.4	82.7243	18,379.4	81.843	18,379.4	80.6044	18,379.4	78.766	18,379.4	76.4913	18,379.4	74.1151	18,379.4	72.2889	18,379.4	69.405	18,379.4	66.6134	18,379.4	61.4861	18,379.4	61.1187	18,379.4	57.432	18,379.4	55.748	18,379.4	52.4909	18,379.4	45.2672	18,379.4	49.8559	18,379.4	42.1671	18,379.4	37.2299	18,379.4	56.7808	18,379.4	38.5359	18,379.4	59.4393	18,379.4	34.8675	18,379.4	44.6698	18,379.4	39.5824	18,379.4	41.6929	18,379.4	41.6845	18,379.4	44.1997	18,379.4	36.0084	18,379.4	47.5736	18,379.4	48.8502	18,379.4	41.0116	18,379.4	50.2138	18,379.4	41.3223	18,379.4	48.7792
19,026.9	82.5888	19,026.9	82.6282	19,026.9	81.7829	19,026.9	81.2599	19,026.9	79.5035	19,026.9	77.9956	19,026.9	75.5514	19,026.9	73.0109	19,026.9	70.8608	19,026.9	68.0263	19,026.9	65.0611	19,026.9	60.6707	19,026.9	55.6267	19,026.9	56.0285	19,026.9	51.2603	19,026.9	53.1868	19,026.9	47.4173	19,026.9	48.7703	19,026.9	16.8597	19,026.9	34.282	19,026.9	56.2136	19,026.9	31.6152	19,026.9	59.4075	19,026.9	39.6761	19,026.9	45.3941	19,026.9	38.3904	19,026.9	37.781	19,026.9	41.9806	19,026.9	45.0073	19,026.9	37.2925	19,026.9	49.1862	19,026.9	48.3668	19,026.9	41.1101	19,026.9	52.77	19,026.9	39.775	19,026.9	49.8495
19,697.8	82.1922	19,697.8	82.0584	19,697.8	81.0404	19,697.8	80.2959	19,697.8	78.6096	19,697.8	77.2156	19,697.8	74.5987	19,697.8	72.0246	19,697.8	68.6514	19,697.8	65.5933	19,697.8	63.2238	19,697.8	59.7783	19,697.8	47.4481	19,697.8	56.0494	19,697.8	53.2523	19,697.8	54.6487	19,697.8	48.2288	19,697.8	48.0727	19,697.8	34.4432	19,697.8	39.4467	19,697.8	55.5445	19,697.8	36.1173	19,697.8	58.1939	19,697.8	35.4403	19,697.8	45.4839	19,697.8	40.4062	19,697.8	40.4127	19,697.8	38.8402	19,697.8	46.0088	19,697.8	41.2529	19,697.8	48.5609	19,697.8	47.1412	19,697.8	43.9586	19,697.8	53.4044	19,697.8	42.8834	19,697.8	50.2479
19,999.5	81.9333	19,999.5	81.8519	19,999.5	80.7926	19,999.5	79.8043	19,999.5	78.3784	19,999.5	76.698	19,999.5	74.1941	19,999.5	71.1521	19,999.5	66.9612	19,999.5	64.465	19,999.5	61.9441	19,999.5	59.1078	19,999.5	43.0968	19,999.5	55.1695	19,999.5	50.9282	19,999.5	54.0424	19,999.5	54.0817	19,999.5	49.7689	19,999.5	43.4169	19,999.5	31.0295	19,999.5	53.2163	19,999.5	40.4632	19,999.5	56.8564	19,999.5	35.2675	19,999.5	43.6047	19,999.5	37.9304	19,999.5	36.7392	19,999.5	40.9084	19,999.5	47.9618	19,999.5	40.3089	19,999.5	54.2147	19,999.5	48.9191	19,999.5	48.4455	19,999.5	54.6577	19,999.5	45.0375	19,999.5	46.76
