"SPL Horizontal"																																																																							
"On-Axis"		"10°"		"-10°"		"20°"		"-20°"		"30°"		"-30°"		"40°"		"-40°"		"50°"		"-50°"		"60°"		"-60°"		"70°"		"-70°"		"80°"		"-80°"		"90°"		"-90°"		"100°"		"-100°"		"110°"		"-110°"		"120°"		"-120°"		"130°"		"-130°"		"140°"		"-140°"		"150°"		"-150°"		"160°"		"-160°"		"170°"		"-170°"		"180°"	
"Frequency [Hz]"	"Sound Pessure Level [dB]  / [2.83V 1m] "	"Frequency [Hz]"	"Sound Pessure Level [dB]  / [2.83V 1m] "	"Frequency [Hz]"	"Sound Pessure Level [dB]  / [2.83V 1m] "	"Frequency [Hz]"	"Sound Pessure Level [dB]  / [2.83V 1m] "	"Frequency [Hz]"	"Sound Pessure Level [dB]  / [2.83V 1m] "	"Frequency [Hz]"	"Sound Pessure Level [dB]  / [2.83V 1m] "	"Frequency [Hz]"	"Sound Pessure Level [dB]  / [2.83V 1m] "	"Frequency [Hz]"	"Sound Pessure Level [dB]  / [2.83V 1m] "	"Frequency [Hz]"	"Sound Pessure Level [dB]  / [2.83V 1m] "	"Frequency [Hz]"	"Sound Pessure Level [dB]  / [2.83V 1m] "	"Frequency [Hz]"	"Sound Pessure Level [dB]  / [2.83V 1m] "	"Frequency [Hz]"	"Sound Pessure Level [dB]  / [2.83V 1m] "	"Frequency [Hz]"	"Sound Pessure Level [dB]  / [2.83V 1m] "	"Frequency [Hz]"	"Sound Pessure Level [dB]  / [2.83V 1m] "	"Frequency [Hz]"	"Sound Pessure Level [dB]  / [2.83V 1m] "	"Frequency [Hz]"	"Sound Pessure Level [dB]  / [2.83V 1m] "	"Frequency [Hz]"	"Sound Pessure Level [dB]  / [2.83V 1m] "	"Frequency [Hz]"	"Sound Pessure Level [dB]  / [2.83V 1m] "	"Frequency [Hz]"	"Sound Pessure Level [dB]  / [2.83V 1m] "	"Frequency [Hz]"	"Sound Pessure Level [dB]  / [2.83V 1m] "	"Frequency [Hz]"	"Sound Pessure Level [dB]  / [2.83V 1m] "	"Frequency [Hz]"	"Sound Pessure Level [dB]  / [2.83V 1m] "	"Frequency [Hz]"	"Sound Pessure Level [dB]  / [2.83V 1m] "	"Frequency [Hz]"	"Sound Pessure Level [dB]  / [2.83V 1m] "	"Frequency [Hz]"	"Sound Pessure Level [dB]  / [2.83V 1m] "	"Frequency [Hz]"	"Sound Pessure Level [dB]  / [2.83V 1m] "	"Frequency [Hz]"	"Sound Pessure Level [dB]  / [2.83V 1m] "	"Frequency [Hz]"	"Sound Pessure Level [dB]  / [2.83V 1m] "	"Frequency [Hz]"	"Sound Pessure Level [dB]  / [2.83V 1m] "	"Frequency [Hz]"	"Sound Pessure Level [dB]  / [2.83V 1m] "	"Frequency [Hz]"	"Sound Pessure Level [dB]  / [2.83V 1m] "	"Frequency [Hz]"	"Sound Pessure Level [dB]  / [2.83V 1m] "	"Frequency [Hz]"	"Sound Pessure Level [dB]  / [2.83V 1m] "	"Frequency [Hz]"	"Sound Pessure Level [dB]  / [2.83V 1m] "	"Frequency [Hz]"	"Sound Pessure Level [dB]  / [2.83V 1m] "	"Frequency [Hz]"	"Sound Pessure Level [dB]  / [2.83V 1m] "
20.5078	56.2973	20.5078	56.0007	20.5078	56.3455	20.5078	55.4354	20.5078	56.1466	20.5078	54.5574	20.5078	55.6821	20.5078	53.2902	20.5078	54.9093	20.5078	51.5121	20.5078	53.7497	20.5078	49.0813	20.5078	52.0654	20.5078	46.2778	20.5078	49.6281	20.5078	45.7466	20.5078	46.2643	20.5078	48.8445	20.5078	44.1115	20.5078	52.2383	20.5078	47.3923	20.5078	54.9551	20.5078	51.4433	20.5078	57.0697	20.5078	54.5302	20.5078	58.7118	20.5078	56.8482	20.5078	59.9659	20.5078	58.6055	20.5078	60.8803	20.5078	59.9232	20.5078	61.4812	20.5078	60.8694	20.5078	61.7808	20.5078	61.482	20.5078	61.7822
21.9727	55.9924	21.9727	55.7853	21.9727	55.9331	21.9727	55.3056	21.9727	55.6023	21.9727	54.5413	21.9727	54.9837	21.9727	53.4974	21.9727	54.0555	21.9727	52.2716	21.9727	52.8218	21.9727	51.2553	21.9727	51.432	21.9727	51.2568	21.9727	50.4875	21.9727	52.6595	21.9727	50.9986	21.9727	54.7756	21.9727	52.9341	21.9727	56.9119	21.9727	55.2778	21.9727	58.8088	21.9727	57.4496	21.9727	60.4148	21.9727	59.3084	21.9727	61.7361	21.9727	60.851	21.9727	62.7874	21.9727	62.0996	21.9727	63.5799	21.9727	63.0739	21.9727	64.12	21.9727	63.7867	21.9727	64.4106	21.9727	64.245	21.9727	64.4524
23.4375	57.9163	23.4375	57.7055	23.4375	57.9013	23.4375	57.2671	23.4375	57.6586	23.4375	56.6034	23.4375	57.1832	23.4375	55.7426	23.4375	56.4743	23.4375	54.7988	23.4375	55.5614	23.4375	54.0818	23.4375	54.5748	23.4375	54.1054	23.4375	53.8766	23.4375	55.134	23.4375	54.0374	23.4375	56.8131	23.4375	55.2562	23.4375	58.6428	23.4375	57.063	23.4375	60.3502	23.4375	58.9437	23.4375	61.8387	23.4375	60.6549	23.4375	63.0837	23.4375	62.1217	23.4375	64.0831	23.4375	63.3301	23.4375	64.839	23.4375	64.2834	23.4375	65.3529	23.4375	64.9865	23.4375	65.6254	23.4375	65.4433	23.4375	65.6558
24.9023	59.0533	24.9023	58.8812	24.9023	59.0362	24.9023	58.5272	24.9023	58.8288	24.9023	58.014	24.9023	58.4368	24.9023	57.403	24.9023	57.8831	24.9023	56.8361	24.9023	57.235	24.9023	56.5702	24.9023	56.6541	24.9023	56.8903	24.9023	56.4303	24.9023	57.8632	24.9023	56.8607	24.9023	59.2614	24.9023	57.9646	24.9023	60.7911	24.9023	59.458	24.9023	62.2599	24.9023	61.035	24.9023	63.575	24.9023	62.5152	24.9023	64.6975	24.9023	63.8183	24.9023	65.6116	24.9023	64.9137	24.9023	66.3097	24.9023	65.7898	24.9023	66.7872	24.9023	66.4423	24.9023	67.0409	24.9023	66.8689	24.9023	67.0685
26.3672	60.6023	26.3672	60.4748	26.3672	60.5806	26.3672	60.2094	26.3672	60.4099	26.3672	59.8352	26.3672	60.1019	26.3672	59.4151	26.3672	59.6893	26.3672	59.0675	26.3672	59.2444	26.3672	58.97	26.3672	58.9035	26.3672	59.2962	26.3672	58.8639	26.3672	60.0914	26.3672	59.2966	26.3672	61.2304	26.3672	60.2093	26.3672	62.5198	26.3672	61.4362	26.3672	63.8031	26.3672	62.7717	26.3672	64.9852	26.3672	64.0665	26.3672	66.015	26.3672	65.2361	26.3672	66.8655	26.3672	66.2374	26.3672	67.5216	26.3672	67.0486	26.3672	67.9736	26.3672	67.6575	26.3672	68.2154	26.3672	68.0572	26.3672	68.2436
27.832	61.9401	27.832	61.8366	27.832	61.9243	27.832	61.6259	27.832	61.7907	27.832	61.3387	27.832	61.5546	27.832	61.035	27.832	61.2528	27.832	60.8159	27.832	60.9551	27.832	60.8168	27.832	60.7744	27.832	61.1596	27.832	60.8525	27.832	61.8744	27.832	61.2973	27.832	62.8756	27.832	62.108	27.832	64.0208	27.832	63.173	27.832	65.1813	27.832	64.3444	27.832	66.2688	27.832	65.5009	27.832	67.2293	27.832	66.5635	27.832	68.0312	27.832	67.4853	27.832	68.6549	27.832	68.239	27.832	69.0879	27.832	68.8078	27.832	69.3222	27.832	69.1814	27.832	69.3537
29.2969	63.3814	29.2969	63.3011	29.2969	63.3735	29.2969	63.1455	29.2969	63.2788	29.2969	62.9453	29.2969	63.1133	29.2969	62.7552	29.2969	62.9123	29.2969	62.6574	29.2969	62.7363	29.2969	62.7503	29.2969	62.6733	29.2969	63.114	29.2969	62.8225	29.2969	63.7651	29.2969	63.2546	29.2969	64.6443	29.2969	63.9689	29.2969	65.6501	29.2969	64.8918	29.2969	66.6822	29.2969	65.917	29.2969	67.6636	29.2969	66.9469	29.2969	68.5415	29.2969	67.9094	29.2969	69.2815	29.2969	68.7565	29.2969	69.8607	29.2969	69.4569	29.2969	70.2639	29.2969	69.9902	29.2969	70.4814	29.2969	70.3433	29.2969	70.5082
30.7617	64.7469	30.7617	64.6879	30.7617	64.7412	30.7617	64.5766	30.7617	64.6722	30.7617	64.4409	30.7617	64.5552	30.7617	64.3279	30.7617	64.4219	30.7617	64.3032	30.7617	64.3236	30.7617	64.4407	30.7617	64.3294	30.7617	64.7977	30.7617	64.5126	30.7617	65.3864	30.7617	64.9234	30.7617	66.1654	30.7617	65.5621	30.7617	67.0592	30.7617	66.3768	30.7617	67.9866	30.7617	67.2875	30.7617	68.8794	30.7617	68.2142	30.7617	69.687	30.7617	69.0919	30.7617	70.3734	30.7617	69.8735	30.7617	70.9137	30.7617	70.526	30.7617	71.2909	30.7617	71.0266	30.7617	71.494	30.7617	71.3602	30.7617	71.5174
32.2266	66.1273	32.2266	66.0933	32.2266	66.1175	32.2266	66.0268	32.2266	66.0651	32.2266	65.9524	32.2266	65.9842	32.2266	65.909	32.2266	65.9025	32.2266	65.9476	32.2266	65.8629	32.2266	66.1225	32.2266	65.9201	32.2266	66.4742	32.2266	66.1288	32.2266	67.011	32.2266	66.5252	32.2266	67.7042	32.2266	67.1089	32.2266	68.4978	32.2266	67.8415	32.2266	69.3277	32.2266	68.661	32.2266	70.1354	32.2266	69.5016	32.2266	70.8736	32.2266	70.3058	32.2266	71.5066	32.2266	71.0285	32.2266	72.0082	32.2266	71.6366	32.2266	72.3598	32.2266	72.1061	32.2266	72.5491	32.2266	72.4205	32.2266	72.5697
33.6914	67.3946	33.6914	67.3716	33.6914	67.3879	33.6914	67.3286	33.6914	67.3531	33.6914	67.2868	33.6914	67.3028	33.6914	67.2789	33.6914	67.2618	33.6914	67.3466	33.6914	67.2659	33.6914	67.533	33.6914	67.3591	33.6914	67.87	33.6914	67.5835	33.6914	68.3648	33.6914	67.9657	33.6914	68.9959	33.6914	68.505	33.6914	69.7189	33.6914	69.1717	33.6914	70.4799	33.6914	69.9163	33.6914	71.227	33.6914	70.6837	33.6914	71.9159	33.6914	71.423	33.6914	72.5113	33.6914	72.0921	33.6914	72.9865	33.6914	72.6581	33.6914	73.322	33.6914	73.0966	33.6914	73.5047	33.6914	73.3901	33.6914	73.5278
35.1563	68.8302	35.1563	68.814	35.1563	68.8289	35.1563	68.7882	35.1563	68.8115	35.1563	68.7704	35.1563	68.7889	35.1563	68.7869	35.1563	68.7813	35.1563	68.8706	35.1563	68.8171	35.1563	69.0551	35.1563	68.9303	35.1563	69.3653	35.1563	69.1525	35.1563	69.8085	35.1563	69.504	35.1563	70.3696	35.1563	69.9856	35.1563	71.0148	35.1563	70.576	35.1563	71.7001	35.1563	71.2374	35.1563	72.3801	35.1563	71.9247	35.1563	73.0136	35.1563	72.5934	35.1563	73.5664	35.1563	73.204	35.1563	74.0111	35.1563	73.7243	35.1563	74.3275	35.1563	74.1293	35.1563	74.5017	35.1563	74.4005	35.1563	74.5264
36.6211	69.9892	36.6211	69.9803	36.6211	69.9904	36.6211	69.9707	36.6211	69.9852	36.6211	69.975	36.6211	69.9827	36.6211	70.0153	36.6211	69.9996	36.6211	70.1181	36.6211	70.0596	36.6211	70.3102	36.6211	70.1895	36.6211	70.6113	36.6211	70.4144	36.6211	71.0271	36.6211	70.7505	36.6211	71.5458	36.6211	71.1984	36.6211	72.1398	36.6211	71.7414	36.6211	72.772	36.6211	72.3488	36.6211	73.4024	36.6211	72.9823	36.6211	73.9934	36.6211	73.6023	36.6211	74.5122	36.6211	74.1723	36.6211	74.9317	36.6211	74.6611	36.6211	75.2314	36.6211	75.0435	36.6211	75.3969	36.6211	75.3006	36.6211	75.4203
38.0859	71.1878	38.0859	71.1841	38.0859	71.1928	38.0859	71.1875	38.0859	71.2	38.0859	71.2103	38.0859	71.217	38.0859	71.2703	38.0859	71.2575	38.0859	71.389	38.0859	71.3403	38.0859	71.5872	38.0859	71.4864	38.0859	71.88	38.0859	71.715	38.0859	72.2714	38.0859	72.0381	38.0859	72.7518	38.0859	72.4558	38.0859	73.2984	38.0859	72.9548	38.0859	73.8799	38.0859	73.5101	38.0859	74.4616	38.0859	74.0897	38.0859	75.0093	38.0859	74.6589	38.0859	75.4922	38.0859	75.1846	38.0859	75.8843	38.0859	75.6374	38.0859	76.1654	38.0859	75.993	38.0859	76.3212	38.0859	76.2326	38.0859	76.3439
39.5508	72.6246	39.5508	72.6292	39.5508	72.6273	39.5508	72.6457	39.5508	72.638	39.5508	72.6833	39.5508	72.6623	39.5508	72.7554	39.5508	72.7104	39.5508	72.8775	39.5508	72.7964	39.5508	73.065	39.5508	72.936	39.5508	73.3291	39.5508	73.1437	39.5508	73.6732	39.5508	73.429	39.5508	74.0911	39.5508	73.7933	39.5508	74.5662	39.5508	74.2274	39.5508	75.0742	39.5508	74.7127	39.5508	75.5863	39.5508	75.2234	39.5508	76.0724	39.5508	75.7301	39.5508	76.5042	39.5508	76.2029	39.5508	76.8567	39.5508	76.6142	39.5508	77.1098	39.5508	76.9399	39.5508	77.2491	39.5508	77.1617	39.5508	77.2667
41.0156	72.8682	41.0156	72.8726	41.0156	72.8715	41.0156	72.8893	41.0156	72.8824	41.0156	72.928	41.0156	72.9062	41.0156	73.0023	41.0156	72.9529	41.0156	73.1277	41.0156	73.0361	41.0156	73.3195	41.0156	73.1717	41.0156	73.5882	41.0156	73.3744	41.0156	73.9369	41.0156	73.6543	41.0156	74.3583	41.0156	74.0133	41.0156	74.8353	41.0156	74.4431	41.0156	75.3432	41.0156	74.9256	41.0156	75.8531	41.0156	75.4351	41.0156	76.3353	41.0156	75.9423	41.0156	76.7618	41.0156	76.4172	41.0156	77.1084	41.0156	76.8319	41.0156	77.3551	41.0156	77.1621	41.0156	77.4881	41.0156	77.389	41.0156	77.4997
42.4805	74.494	42.4805	74.5112	42.4805	74.4915	42.4805	74.5462	42.4805	74.5042	42.4805	74.6057	42.4805	74.5364	42.4805	74.6991	42.4805	74.5959	42.4805	74.8372	42.4805	74.693	42.4805	75.0302	42.4805	74.8389	42.4805	75.2856	42.4805	75.0438	42.4805	75.605	42.4805	75.3142	42.4805	75.9833	42.4805	75.6503	42.4805	76.4077	42.4805	76.0446	42.4805	76.8591	42.4805	76.4824	42.4805	77.3141	42.4805	76.9426	42.4805	77.747	42.4805	77.4005	42.4805	78.1329	42.4805	77.83	42.4805	78.4487	42.4805	78.2058	42.4805	78.6752	42.4805	78.5056	42.4805	78.7987	42.4805	78.7115	42.4805	78.8111
43.9453	75.4575	43.9453	75.477	43.9453	75.4563	43.9453	75.5172	43.9453	75.474	43.9453	75.5836	43.9453	75.514	43.9453	75.6833	43.9453	75.5825	43.9453	75.8249	43.9453	75.6876	43.9453	76.0161	43.9453	75.8381	43.9453	76.2624	43.9453	76.0416	43.9453	76.5649	43.9453	76.3028	43.9453	76.9189	43.9453	76.6214	43.9453	77.3136	43.9453	76.9908	43.9453	77.7325	43.9453	77.3982	43.9453	78.155	43.9453	77.8254	43.9453	78.5583	43.9453	78.2503	43.9453	78.9192	43.9453	78.6493	43.9453	79.2158	43.9453	78.9989	43.9453	79.4298	43.9453	79.2781	43.9453	79.5475	43.9453	79.4694	43.9453	79.5611
45.4102	76.3802	45.4102	76.3998	45.4102	76.3797	45.4102	76.4404	45.4102	76.3988	45.4102	76.5063	45.4102	76.4403	45.4102	76.6033	45.4102	76.5091	45.4102	76.7379	45.4102	76.6117	45.4102	76.9167	45.4102	76.7551	45.4102	77.1439	45.4102	76.9454	45.4102	77.4207	45.4102	77.1864	45.4102	77.7433	45.4102	77.478	45.4102	78.103	45.4102	77.8148	45.4102	78.4855	45.4102	78.186	45.4102	78.8729	45.4102	78.5761	45.4102	79.2443	45.4102	78.9654	45.4102	79.5781	45.4102	79.3324	45.4102	79.8537	45.4102	79.6553	45.4102	80.0533	45.4102	79.9139	45.4102	80.1634	45.4102	80.0915	45.4102	80.1765
46.875	77.193	46.875	77.2133	46.875	77.193	46.875	77.2553	46.875	77.2135	46.875	77.3224	46.875	77.2569	46.875	77.4193	46.875	77.3271	46.875	77.551	46.875	77.4292	46.875	77.7227	46.875	77.5688	46.875	77.9379	46.875	77.7508	46.875	78.1971	46.875	77.9781	46.875	78.4972	46.875	78.2504	46.875	78.8305	46.875	78.563	46.875	79.1847	46.875	78.9068	46.875	79.5436	46.875	79.2679	46.875	79.8885	46.875	79.6289	46.875	80.1992	46.875	79.9699	46.875	80.4564	46.875	80.2707	46.875	80.6429	46.875	80.5123	46.875	80.7459	46.875	80.6785	46.875	80.7582
48.3398	77.8989	48.3398	77.9195	48.3398	77.9013	48.3398	77.9645	48.3398	77.9271	48.3398	78.0363	48.3398	77.9781	48.3398	78.1383	48.3398	78.057	48.3398	78.2744	48.3398	78.1676	48.3398	78.4481	48.3398	78.3139	48.3398	78.6615	48.3398	78.4992	48.3398	78.9145	48.3398	78.725	48.3398	79.2036	48.3398	78.9902	48.3398	79.5218	48.3398	79.2902	48.3398	79.8579	48.3398	79.6166	48.3398	80.1975	48.3398	79.957	48.3398	80.5233	48.3398	80.2958	48.3398	80.817	48.3398	80.6151	48.3398	81.0604	48.3398	80.8963	48.3398	81.2376	48.3398	81.1217	48.3398	81.3364	48.3398	81.2764	48.3398	81.3496
51.2695	79.3537	51.2695	79.3762	51.2695	79.3551	51.2695	79.4233	51.2695	79.3806	51.2695	79.4962	51.2695	79.4311	51.2695	79.5963	51.2695	79.508	51.2695	79.7256	51.2695	79.6131	51.2695	79.8853	51.2695	79.7482	51.2695	80.0761	51.2695	79.9148	51.2695	80.2972	51.2695	80.1133	51.2695	80.5456	51.2695	80.3422	51.2695	80.8158	51.2695	80.5981	51.2695	81.0995	51.2695	80.8745	51.2695	81.3854	51.2695	81.1621	51.2695	81.6599	51.2695	81.4488	51.2695	81.9077	51.2695	81.7202	51.2695	82.1134	51.2695	81.9607	51.2695	82.263	51.2695	82.1549	51.2695	82.3455	51.2695	82.2895	51.2695	82.3546
52.7344	79.9862	52.7344	80.0109	52.7344	79.9858	52.7344	80.0601	52.7344	80.0099	52.7344	80.1344	52.7344	80.0589	52.7344	80.2347	52.7344	80.1339	52.7344	80.3616	52.7344	80.2357	52.7344	80.5158	52.7344	80.3656	52.7344	80.6972	52.7344	80.5241	52.7344	80.9045	52.7344	80.711	52.7344	81.1349	52.7344	80.9248	52.7344	81.3837	52.7344	81.1623	52.7344	81.6436	52.7344	81.4178	52.7344	81.9047	52.7344	81.683	52.7344	82.1552	52.7344	81.9473	52.7344	82.3813	52.7344	82.1977	52.7344	82.5691	52.7344	82.4201	52.7344	82.7054	52.7344	82.6002	52.7344	82.78	52.7344	82.7256	52.7344	82.787
54.1992	80.5088	54.1992	80.5327	54.1992	80.5097	54.1992	80.5813	54.1992	80.5354	54.1992	80.6548	54.1992	80.5861	54.1992	80.7533	54.1992	80.6624	54.1992	80.8771	54.1992	80.7644	54.1992	81.0259	54.1992	80.8926	54.1992	81.1992	54.1992	81.0467	54.1992	81.3954	54.1992	81.2261	54.1992	81.6118	54.1992	81.4289	54.1992	81.844	54.1992	81.6519	54.1992	82.0857	54.1992	81.89	54.1992	82.3282	54.1992	82.1359	54.1992	82.5608	54.1992	82.3801	54.1992	82.7711	54.1992	82.611	54.1992	82.946	54.1992	82.8158	54.1992	83.0736	54.1992	82.9815	54.1992	83.1442	54.1992	83.0965	54.1992	83.1521
55.6641	80.9893	55.6641	81.0139	55.6641	80.9901	55.6641	81.0636	55.6641	81.0161	55.6641	81.1382	55.6641	81.0676	55.6641	81.2372	55.6641	81.1443	55.6641	81.3602	55.6641	81.2461	55.6641	81.5064	55.6641	81.3726	55.6641	81.6745	55.6641	81.523	55.6641	81.8626	55.6641	81.6962	55.6641	82.068	55.6641	81.8899	55.6641	82.2864	55.6641	82.101	55.6641	82.5121	55.6641	82.3246	55.6641	82.7374	55.6641	82.5543	55.6641	82.9527	55.6641	82.7816	55.6641	83.147	55.6641	82.996	55.6641	83.3086	55.6641	83.186	55.6641	83.4263	55.6641	83.3397	55.6641	83.4913	55.6641	83.4464	55.6641	83.4983
58.5938	81.9291	58.5938	81.953	58.5938	81.9305	58.5938	82.0017	58.5938	81.9573	58.5938	82.0743	58.5938	82.009	58.5938	82.1696	58.5938	82.0846	58.5938	82.2859	58.5938	82.1829	58.5938	82.4213	58.5938	82.3024	58.5938	82.5737	58.5938	82.4411	58.5938	82.7407	58.5938	82.5969	58.5938	82.9192	58.5938	82.7672	58.5938	83.1058	58.5938	82.9489	58.5938	83.2958	58.5938	83.1381	58.5938	83.4833	58.5938	83.3297	58.5938	83.661	58.5938	83.5174	58.5938	83.8206	58.5938	83.6935	58.5938	83.9527	58.5938	83.8492	58.5938	84.0486	58.5938	83.9752	58.5938	84.1012	58.5938	84.0631	58.5938	84.1061
60.0586	82.2782	60.0586	82.3004	60.0586	82.2808	60.0586	82.3469	60.0586	82.3083	60.0586	82.4166	60.0586	82.3599	60.0586	82.5079	60.0586	82.4345	60.0586	82.6188	60.0586	82.5305	60.0586	82.7472	60.0586	82.646	60.0586	82.8905	60.0586	82.7785	60.0586	83.0461	60.0586	82.9257	60.0586	83.2112	60.0586	83.0849	60.0586	83.3823	60.0586	83.253	60.0586	83.5555	60.0586	83.4264	60.0586	83.7257	60.0586	83.6006	60.0586	83.8867	60.0586	83.7703	60.0586	84.0313	60.0586	83.9286	60.0586	84.1513	60.0586	84.0679	60.0586	84.2392	60.0586	84.18	60.0586	84.2882	60.0586	84.2575	60.0586	84.2945
62.9883	83.0205	62.9883	83.0416	62.9883	83.0238	62.9883	83.0864	62.9883	83.0512	62.9883	83.1533	62.9883	83.1019	62.9883	83.2404	62.9883	83.1744	62.9883	83.3451	62.9883	83.2663	62.9883	83.4645	62.9883	83.3751	62.9883	83.5956	62.9883	83.498	62.9883	83.7355	62.9883	83.6318	62.9883	83.8811	62.9883	83.7737	62.9883	84.0293	62.9883	83.9207	62.9883	84.1768	62.9883	84.0695	62.9883	84.3197	62.9883	84.2167	62.9883	84.4536	62.9883	84.3582	62.9883	84.5728	62.9883	84.489	62.9883	84.6715	62.9883	84.6034	62.9883	84.7434	62.9883	84.6953	62.9883	84.7836	62.9883	84.7586	62.9883	84.7888
64.4531	83.3591	64.4531	83.3803	64.4531	83.3622	64.4531	83.4247	64.4531	83.3892	64.4531	83.4909	64.4531	83.4393	64.4531	83.5766	64.4531	83.5106	64.4531	83.6788	64.4531	83.6007	64.4531	83.7944	64.4531	83.7067	64.4531	83.9201	64.4531	83.8254	64.4531	84.0527	64.4531	83.9537	64.4531	84.1891	64.4531	84.0882	64.4531	84.3263	64.4531	84.226	64.4531	84.4612	64.4531	84.3639	64.4531	84.5908	64.4531	84.4989	64.4531	84.7111	64.4531	84.6272	64.4531	84.8177	64.4531	84.7449	64.4531	84.9057	64.4531	84.8471	64.4531	84.9698	64.4531	84.9286	64.4531	85.0058	64.4531	84.9845	64.4531	85.0108
67.3828	83.8879	67.3828	83.9065	67.3828	83.893	67.3828	83.9479	67.3828	83.9214	67.3828	84.0103	67.3828	83.9721	67.3828	84.091	67.3828	84.0429	67.3828	84.1868	67.3828	84.1308	67.3828	84.2939	67.3828	84.2324	67.3828	84.4087	67.3828	84.344	67.3828	84.5276	67.3828	84.4619	67.3828	84.6472	67.3828	84.5826	67.3828	84.7647	67.3828	84.7028	67.3828	84.8776	67.3828	84.8196	67.3828	84.9836	67.3828	84.9305	67.3828	85.0803	67.3828	85.0331	67.3828	85.165	67.3828	85.1247	67.3828	85.2345	67.3828	85.2024	67.3828	85.2855	67.3828	85.263	67.3828	85.3151	67.3828	85.3034	67.3828	85.3212
68.8477	84.0557	68.8477	84.0732	68.8477	84.0619	68.8477	84.1134	68.8477	84.0914	68.8477	84.1744	68.8477	84.143	68.8477	84.2535	68.8477	84.2142	68.8477	84.3472	68.8477	84.3019	68.8477	84.4514	68.8477	84.4024	68.8477	84.5624	68.8477	84.5116	68.8477	84.6762	68.8477	84.6257	68.8477	84.7895	68.8477	84.7407	68.8477	84.8992	68.8477	84.8534	68.8477	85.0032	68.8477	84.961	68.8477	85.0994	68.8477	85.0613	68.8477	85.1858	68.8477	85.1522	68.8477	85.2607	68.8477	85.232	68.8477	85.3216	68.8477	85.2986	68.8477	85.3661	68.8477	85.35	68.8477	85.3922	68.8477	85.3837	68.8477	85.3981
71.7773	84.4118	71.7773	84.4249	71.7773	84.4211	71.7773	84.4595	71.7773	84.4523	71.7773	84.5137	71.7773	84.5041	71.7773	84.5846	71.7773	84.5738	71.7773	84.6686	71.7773	84.658	71.7773	84.7616	71.7773	84.7528	71.7773	84.8595	71.7773	84.8537	71.7773	84.9582	71.7773	84.9565	71.7773	85.0543	71.7773	85.0571	71.7773	85.1449	71.7773	85.1523	71.7773	85.2282	71.7773	85.2394	71.7773	85.3028	71.7773	85.3165	71.7773	85.368	71.7773	85.3827	71.7773	85.4233	71.7773	85.4372	71.7773	85.4681	71.7773	85.4798	71.7773	85.5018	71.7773	85.5101	71.7773	85.5234	71.7773	85.5277	71.7773	85.5321
74.707	84.8326	74.707	84.8383	74.707	84.849	74.707	84.8652	74.707	84.8869	74.707	84.9116	74.707	84.9445	74.707	84.9745	74.707	85.0191	74.707	85.0502	74.707	85.1067	74.707	85.1345	74.707	85.2031	74.707	85.2231	74.707	85.3034	74.707	85.3118	74.707	85.4029	74.707	85.397	74.707	85.4972	74.707	85.4759	74.707	85.5826	74.707	85.5468	74.707	85.6563	74.707	85.609	74.707	85.7166	74.707	85.6625	74.707	85.7632	74.707	85.708	74.707	85.7964	74.707	85.7461	74.707	85.8172	74.707	85.7773	74.707	85.827	74.707	85.8014	74.707	85.827	74.707	85.8182
77.6367	85.1456	77.6367	85.1598	77.6367	85.1531	77.6367	85.1947	77.6367	85.1822	77.6367	85.2481	77.6367	85.2313	77.6367	85.3166	77.6367	85.2976	77.6367	85.3961	77.6367	85.3773	77.6367	85.4821	77.6367	85.466	77.6367	85.5698	77.6367	85.5585	77.6367	85.6546	77.6367	85.6498	77.6367	85.7327	77.6367	85.7352	77.6367	85.801	77.6367	85.8107	77.6367	85.8577	77.6367	85.8737	77.6367	85.9025	77.6367	85.9228	77.6367	85.9359	77.6367	85.9581	77.6367	85.9596	77.6367	85.9811	77.6367	85.9758	77.6367	85.9941	77.6367	85.9866	77.6367	85.9999	77.6367	85.9938	77.6367	86.0007	77.6367	85.9985
79.1016	85.2405	79.1016	85.2591	79.1016	85.2418	79.1016	85.2965	79.1016	85.2629	79.1016	85.3504	79.1016	85.3024	79.1016	85.4175	79.1016	85.3579	79.1016	85.4937	79.1016	85.4257	79.1016	85.5744	79.1016	85.5016	79.1016	85.6547	79.1016	85.5808	79.1016	85.7301	79.1016	85.6583	79.1016	85.7966	79.1016	85.7299	79.1016	85.8513	79.1016	85.7916	79.1016	85.8923	79.1016	85.8412	79.1016	85.9197	79.1016	85.8775	79.1016	85.9346	79.1016	85.9013	79.1016	85.9395	79.1016	85.9143	79.1016	85.9378	79.1016	85.9199	79.1016	85.9329	79.1016	85.9214	79.1016	85.9275	79.1016	85.9219	79.1016	85.9237
82.0313	85.4948	82.0313	85.5222	82.0313	85.4845	82.0313	85.5652	82.0313	85.4912	82.0313	85.6213	82.0313	85.514	82.0313	85.6871	82.0313	85.5508	82.0313	85.7584	82.0313	85.5984	82.0313	85.8302	82.0313	85.6529	82.0313	85.8976	82.0313	85.7097	82.0313	85.9559	82.0313	85.7643	82.0313	86.001	82.0313	85.8124	82.0313	86.03	82.0313	85.8506	82.0313	86.0416	82.0313	85.8767	82.0313	86.0364	82.0313	85.8901	82.0313	86.0168	82.0313	85.8923	82.0313	85.9871	82.0313	85.8862	82.0313	85.9528	82.0313	85.8766	82.0313	85.9194	82.0313	85.8684	82.0313	85.892	82.0313	85.8665	82.0313	85.8739
84.9609	85.8389	84.9609	85.8624	84.9609	85.8315	84.9609	85.9007	84.9609	85.8401	84.9609	85.9512	84.9609	85.8636	84.9609	86.0104	84.9609	85.8994	84.9609	86.0736	84.9609	85.9441	84.9609	86.1359	84.9609	85.9934	84.9609	86.1919	84.9609	86.0425	84.9609	86.2369	84.9609	86.0869	84.9609	86.2667	84.9609	86.122	84.9609	86.2787	84.9609	86.1448	84.9609	86.2721	84.9609	86.1531	84.9609	86.2483	84.9609	86.1471	84.9609	86.211	84.9609	86.1289	84.9609	86.1656	84.9609	86.1025	84.9609	86.1188	84.9609	86.0737	84.9609	86.0775	84.9609	86.0487	84.9609	86.0475	84.9609	86.0335	84.9609	86.0325
87.8906	85.8409	87.8906	85.8477	87.8906	85.853	87.8906	85.8727	87.8906	85.8833	87.8906	85.9136	87.8906	85.9297	87.8906	85.9671	87.8906	85.989	87.8906	86.0285	87.8906	86.0567	87.8906	86.0927	87.8906	86.128	87.8906	86.1542	87.8906	86.1973	87.8906	86.2076	87.8906	86.2593	87.8906	86.2486	87.8906	86.3094	87.8906	86.2743	87.8906	86.3437	87.8906	86.2837	87.8906	86.3602	87.8906	86.2779	87.8906	86.3587	87.8906	86.2603	87.8906	86.3411	87.8906	86.236	87.8906	86.3114	87.8906	86.2113	87.8906	86.2753	87.8906	86.1923	87.8906	86.239	87.8906	86.1842	87.8906	86.2088	87.8906	86.1897
90.8203	85.1243	90.8203	85.1103	90.8203	85.1709	90.8203	85.1289	90.8203	85.2487	90.8203	85.1783	90.8203	85.3547	90.8203	85.255	90.8203	85.4842	90.8203	85.3543	90.8203	85.6315	90.8203	85.4701	90.8203	85.7895	90.8203	85.5957	90.8203	85.9509	90.8203	85.7244	90.8203	86.1076	90.8203	85.8497	90.8203	86.2523	90.8203	85.9664	90.8203	86.3784	90.8203	86.071	90.8203	86.4806	90.8203	86.1619	90.8203	86.5556	90.8203	86.2394	90.8203	86.6024	90.8203	86.3058	90.8203	86.6221	90.8203	86.3639	90.8203	86.6182	90.8203	86.4171	90.8203	86.5954	90.8203	86.4675	90.8203	86.5595	90.8203	86.5156
95.2148	86.3945	95.2148	86.4113	95.2148	86.3857	95.2148	86.4351	95.2148	86.3851	95.2148	86.464	95.2148	86.3917	95.2148	86.4948	95.2148	86.4035	95.2148	86.5239	95.2148	86.4175	95.2148	86.5466	95.2148	86.4299	95.2148	86.5581	95.2148	86.4364	95.2148	86.5537	95.2148	86.4323	95.2148	86.5294	95.2148	86.4134	95.2148	86.4825	95.2148	86.3765	95.2148	86.4125	95.2148	86.32	95.2148	86.3219	95.2148	86.2449	95.2148	86.2161	95.2148	86.1556	95.2148	86.104	95.2148	86.0593	95.2148	85.9971	95.2148	85.9665	95.2148	85.9078	95.2148	85.8891	95.2148	85.8474	95.2148	85.8386	95.2148	85.8235
98.1445	85.9096	98.1445	85.9272	98.1445	85.9087	98.1445	85.9603	98.1445	85.9244	98.1445	86.0069	98.1445	85.9554	98.1445	86.0633	98.1445	85.999	98.1445	86.125	98.1445	86.0517	98.1445	86.1868	98.1445	86.1086	98.1445	86.2427	98.1445	86.164	98.1445	86.2867	98.1445	86.212	98.1445	86.3137	98.1445	86.247	98.1445	86.3197	98.1445	86.2643	98.1445	86.303	98.1445	86.2608	98.1445	86.2648	98.1445	86.2363	98.1445	86.2093	98.1445	86.1933	98.1445	86.1436	98.1445	86.1377	98.1445	86.0773	98.1445	86.078	98.1445	86.0209	98.1445	86.0242	98.1445	85.9837	98.1445	85.9863	98.1445	85.9716
101.074	85.9921	101.074	85.9942	101.074	86.0022	101.074	86.008	101.074	86.0244	101.074	86.032	101.074	86.0575	101.074	86.0635	101.074	86.0994	101.074	86.0993	101.074	86.1469	101.074	86.1348	101.074	86.1958	101.074	86.1651	101.074	86.2411	101.074	86.185	101.074	86.277	101.074	86.1898	101.074	86.2981	101.074	86.1763	101.074	86.2998	101.074	86.1432	101.074	86.2792	101.074	86.0922	101.074	86.2356	101.074	86.0282	101.074	86.1716	101.074	85.9591	101.074	86.0932	101.074	85.895	101.074	86.0092	101.074	85.8468	101.074	85.9303	101.074	85.8235	101.074	85.8677	101.074	85.8304
105.469	86.0229	105.469	86.0433	105.469	86.0129	105.469	86.0729	105.469	86.014	105.469	86.11	105.469	86.026	105.469	86.1518	105.469	86.0482	105.469	86.1952	105.469	86.0786	105.469	86.236	105.469	86.1142	105.469	86.2695	105.469	86.1509	105.469	86.2909	105.469	86.1839	105.469	86.296	105.469	86.2077	105.469	86.2816	105.469	86.2174	105.469	86.2468	105.469	86.2094	105.469	86.1933	105.469	86.1822	105.469	86.126	105.469	86.1371	105.469	86.0525	105.469	86.0788	105.469	85.9827	105.469	86.015	105.469	85.9269	105.469	85.9554	105.469	85.8936	105.469	85.9102	105.469	85.888
108.398	86.1201	108.398	86.131	108.398	86.1188	108.398	86.1508	108.398	86.1272	108.398	86.178	108.398	86.1444	108.398	86.2104	108.398	86.1691	108.398	86.2445	108.398	86.199	108.398	86.2763	108.398	86.2306	108.398	86.3008	108.398	86.2598	108.398	86.3132	108.398	86.2816	108.398	86.3087	108.398	86.291	108.398	86.2842	108.398	86.2835	108.398	86.2385	108.398	86.2559	108.398	86.1733	108.398	86.2075	108.398	86.0937	108.398	86.1405	108.398	86.008	108.398	86.061	108.398	85.927	108.398	85.9778	108.398	85.8623	108.398	85.9023	108.398	85.8239	108.398	85.846	108.398	85.8182
112.793	86.3385	112.793	86.362	112.793	86.32	112.793	86.3902	112.793	86.3067	112.793	86.4223	112.793	86.2983	112.793	86.4567	112.793	86.2942	112.793	86.4906	112.793	86.2933	112.793	86.5203	112.793	86.2938	112.793	86.541	112.793	86.2927	112.793	86.5474	112.793	86.2863	112.793	86.5345	112.793	86.2708	112.793	86.4983	112.793	86.2424	112.793	86.4372	112.793	86.1986	112.793	86.3525	112.793	86.1394	112.793	86.2489	112.793	86.0675	112.793	86.1351	112.793	85.9892	112.793	86.0229	112.793	85.914	112.793	85.9251	112.793	85.8533	112.793	85.8537	112.793	85.8182	112.793	85.8172
117.188	86.3796	117.188	86.3587	117.188	86.4023	117.188	86.3407	117.188	86.4258	117.188	86.3263	117.188	86.4489	117.188	86.3159	117.188	86.4707	117.188	86.3087	117.188	86.4896	117.188	86.3025	117.188	86.5033	117.188	86.2939	117.188	86.5087	117.188	86.2784	117.188	86.5019	117.188	86.251	117.188	86.4787	117.188	86.2074	117.188	86.4351	117.188	86.1454	117.188	86.3685	117.188	86.0655	117.188	86.2789	117.188	85.9723	117.188	86.1696	117.188	85.8745	117.188	86.0478	117.188	85.784	117.188	85.9247	117.188	85.7143	117.188	85.814	117.188	85.6777	117.188	85.7295	117.188	85.6822
120.117	86.6158	120.117	86.5607	120.117	86.6694	120.117	86.5049	120.117	86.7205	120.117	86.4494	120.117	86.7683	120.117	86.3946	120.117	86.8116	120.117	86.3407	120.117	86.8487	120.117	86.2872	120.117	86.8773	120.117	86.2329	120.117	86.8943	120.117	86.1758	120.117	86.8957	120.117	86.114	120.117	86.8771	120.117	86.0463	120.117	86.8345	120.117	85.9731	120.117	86.7645	120.117	85.8973	120.117	86.666	120.117	85.8247	120.117	86.541	120.117	85.7639	120.117	86.395	120.117	85.7253	120.117	86.2374	120.117	85.7189	120.117	86.0809	120.117	85.752	120.117	85.9397	120.117	85.8269
124.512	86.5492	124.512	86.5656	124.512	86.5363	124.512	86.5832	124.512	86.5285	124.512	86.5996	124.512	86.5269	124.512	86.6119	124.512	86.5314	124.512	86.6167	124.512	86.5407	124.512	86.6105	124.512	86.552	124.512	86.5894	124.512	86.5608	124.512	86.5501	124.512	86.5617	124.512	86.4898	124.512	86.549	124.512	86.4077	124.512	86.5172	124.512	86.3054	124.512	86.4626	124.512	86.188	124.512	86.3837	124.512	86.0641	124.512	86.2829	124.512	85.9456	124.512	86.1661	124.512	85.846	124.512	86.0433	124.512	85.7783	124.512	85.9273	124.512	85.752	124.512	85.8323	124.512	85.7709
128.906	86.3476	128.906	86.3831	128.906	86.311	128.906	86.4163	128.906	86.2743	128.906	86.4455	128.906	86.2384	128.906	86.4683	128.906	86.2035	128.906	86.4815	128.906	86.1694	128.906	86.4807	128.906	86.1344	128.906	86.4608	128.906	86.0954	128.906	86.4164	128.906	86.0482	128.906	86.3428	128.906	85.9875	128.906	86.2368	128.906	85.9087	128.906	86.0984	128.906	85.8087	128.906	85.9313	128.906	85.6878	128.906	85.7445	128.906	85.5505	128.906	85.5518	128.906	85.4066	128.906	85.3706	128.906	85.2701	128.906	85.22	128.906	85.1582	128.906	85.1167	128.906	85.0877	128.906	85.0718
133.301	86.0987	133.301	86.109	133.301	86.091	133.301	86.1227	133.301	86.0842	133.301	86.1403	133.301	86.0769	133.301	86.1606	133.301	86.0672	133.301	86.181	133.301	86.0531	133.301	86.1969	133.301	86.0324	133.301	86.2023	133.301	86.002	133.301	86.1902	133.301	85.9586	133.301	86.1538	133.301	85.8987	133.301	86.0877	133.301	85.8196	133.301	85.9891	133.301	85.7201	133.301	85.8595	133.301	85.6021	133.301	85.7052	133.301	85.4711	133.301	85.5374	133.301	85.3373	133.301	85.3721	133.301	85.2146	133.301	85.2275	133.301	85.1189	133.301	85.1208	133.301	85.0655	133.301	85.065
139.16	85.7767	139.16	85.7588	139.16	85.8003	139.16	85.7476	139.16	85.8294	139.16	85.7445	139.16	85.8642	139.16	85.7507	139.16	85.9048	139.16	85.7665	139.16	85.9506	139.16	85.7903	139.16	85.9994	139.16	85.8187	139.16	86.0471	139.16	85.8461	139.16	86.0882	139.16	85.8664	139.16	86.1165	139.16	85.8735	139.16	86.126	139.16	85.8636	139.16	86.1123	139.16	85.8358	139.16	86.0738	139.16	85.7933	139.16	86.0128	139.16	85.7428	139.16	85.935	139.16	85.6941	139.16	85.8496	139.16	85.6582	139.16	85.768	139.16	85.6443	139.16	85.7012	139.16	85.6585
143.555	85.9138	143.555	85.908	143.555	85.9139	143.555	85.8969	143.555	85.909	143.555	85.8822	143.555	85.9007	143.555	85.8657	143.555	85.8916	143.555	85.8489	143.555	85.8837	143.555	85.8322	143.555	85.8782	143.555	85.8144	143.555	85.8742	143.555	85.7929	143.555	85.8689	143.555	85.7639	143.555	85.8577	143.555	85.724	143.555	85.8353	143.555	85.6712	143.555	85.7971	143.555	85.6059	143.555	85.7408	143.555	85.5318	143.555	85.6678	143.555	85.4559	143.555	85.583	143.555	85.3874	143.555	85.4949	143.555	85.3361	143.555	85.4143	143.555	85.3105	143.555	85.3517	143.555	85.3156
147.949	85.8682	147.949	85.8623	147.949	85.8647	147.949	85.8476	147.949	85.8522	147.949	85.8259	147.949	85.8326	147.949	85.7993	147.949	85.8083	147.949	85.7695	147.949	85.7821	147.949	85.7372	147.949	85.7557	147.949	85.7015	147.949	85.7292	147.949	85.6602	147.949	85.7007	147.949	85.6101	147.949	85.6665	147.949	85.5482	147.949	85.6219	147.949	85.473	147.949	85.5628	147.949	85.3855	147.949	85.487	147.949	85.2901	147.949	85.3961	147.949	85.1945	147.949	85.2959	147.949	85.1086	147.949	85.1954	147.949	85.0429	147.949	85.1064	147.949	85.0066	147.949	85.0401	147.949	85.0054
153.809	86.0112	153.809	86.006	153.809	86.0001	153.809	85.9851	153.809	85.9734	153.809	85.95	153.809	85.9326	153.809	85.9025	153.809	85.8805	153.809	85.8441	153.809	85.8199	153.809	85.7757	153.809	85.7537	153.809	85.6969	153.809	85.6834	153.809	85.6068	153.809	85.6095	153.809	85.504	153.809	85.5305	153.809	85.3883	153.809	85.4444	153.809	85.2612	153.809	85.3486	153.809	85.1271	153.809	85.2423	153.809	84.9933	153.809	85.1268	153.809	84.8696	153.809	85.0069	153.809	84.7666	153.809	84.8905	153.809	84.694	153.809	84.7879	153.809	84.6591	153.809	84.7096	153.809	84.6648
159.668	86.1067	159.668	86.099	159.668	86.0979	159.668	86.0756	159.668	86.0723	159.668	86.0384	159.668	86.031	159.668	85.9892	159.668	85.9753	159.668	85.9291	159.668	85.9068	159.668	85.8581	159.668	85.8262	159.668	85.7743	159.668	85.7335	159.668	85.6744	159.668	85.6273	159.668	85.5549	159.668	85.5061	159.668	85.4132	159.668	85.3684	159.668	85.2495	159.668	85.2144	159.668	85.0683	159.668	85.047	159.668	84.8789	159.668	84.8729	159.668	84.6948	159.668	84.702	159.668	84.532	159.668	84.5469	159.668	84.4055	159.668	84.4212	159.668	84.3274	159.668	84.3372	159.668	84.3044
165.527	85.9759	165.527	85.9696	165.527	85.9656	165.527	85.9473	165.527	85.9395	165.527	85.9109	165.527	85.8994	165.527	85.8628	165.527	85.848	165.527	85.8051	165.527	85.7879	165.527	85.7386	165.527	85.7206	165.527	85.6627	165.527	85.646	165.527	85.575	165.527	85.5621	165.527	85.4722	165.527	85.466	165.527	85.3514	165.527	85.3544	165.527	85.2118	165.527	85.2257	165.527	85.0564	165.527	85.0812	165.527	84.8926	165.527	84.9263	165.527	84.7322	165.527	84.7705	165.527	84.5892	165.527	84.6262	165.527	84.478	165.527	84.5073	165.527	84.4101	165.527	84.4263	165.527	84.3924
171.387	85.6913	171.387	85.6818	171.387	85.6865	171.387	85.6595	171.387	85.6671	171.387	85.627	171.387	85.6345	171.387	85.5872	171.387	85.591	171.387	85.5424	171.387	85.5392	171.387	85.4932	171.387	85.4808	171.387	85.4384	171.387	85.4163	171.387	85.3751	171.387	85.344	171.387	85.2994	171.387	85.2608	171.387	85.2076	171.387	85.1637	171.387	85.0981	171.387	85.0507	171.387	84.9726	171.387	84.9234	171.387	84.8366	171.387	84.7874	171.387	84.6992	171.387	84.6525	171.387	84.572	171.387	84.5313	171.387	84.4673	171.387	84.4368	171.387	84.3958	171.387	84.3793	171.387	84.3652
177.246	85.6056	177.246	85.5816	177.246	85.6092	177.246	85.5387	177.246	85.593	177.246	85.4803	177.246	85.5597	177.246	85.4108	177.246	85.5134	177.246	85.3343	177.246	85.4585	177.246	85.2539	177.246	85.3984	177.246	85.1706	177.246	85.3349	177.246	85.0832	177.246	85.2667	177.246	84.9894	177.246	85.1909	177.246	84.8865	177.246	85.1031	177.246	84.774	177.246	85.0002	177.246	84.6544	177.246	84.8815	177.246	84.5339	177.246	84.7506	177.246	84.4217	177.246	84.6152	177.246	84.3283	177.246	84.4858	177.246	84.2631	177.246	84.3742	177.246	84.2333	177.246	84.2906	177.246	84.2424
183.105	85.3663	183.105	85.3553	183.105	85.3517	183.105	85.3199	183.105	85.3125	183.105	85.2635	183.105	85.2524	183.105	85.1907	183.105	85.1768	183.105	85.1065	183.105	85.092	183.105	85.0149	183.105	85.0036	183.105	84.918	183.105	84.9157	183.105	84.8161	183.105	84.8291	183.105	84.708	183.105	84.7423	183.105	84.5925	183.105	84.6518	183.105	84.4697	183.105	84.5539	183.105	84.3428	183.105	84.4471	183.105	84.2183	183.105	84.3334	183.105	84.1046	183.105	84.2184	183.105	84.0112	183.105	84.1104	183.105	83.9456	183.105	84.0187	183.105	83.913	183.105	83.9517	183.105	83.9153
188.965	85.2834	188.965	85.2764	188.965	85.2592	188.965	85.2399	188.965	85.2047	188.965	85.1774	188.965	85.1229	188.965	85.0934	188.965	85.0192	188.965	84.9929	188.965	84.9002	188.965	84.8801	188.965	84.7729	188.965	84.758	188.965	84.643	188.965	84.6281	188.965	84.5145	188.965	84.4909	188.965	84.3889	188.965	84.3473	188.965	84.2657	188.965	84.1998	188.965	84.1443	188.965	84.0532	188.965	84.0248	188.965	83.915	188.965	83.9098	188.965	83.7933	188.965	83.8039	188.965	83.6956	188.965	83.7132	188.965	83.6265	188.965	83.643	188.965	83.5875	188.965	83.5972	188.965	83.5782
196.289	85.4031	196.289	85.3774	196.289	85.3968	196.289	85.3232	196.289	85.3576	196.289	85.2457	196.289	85.2868	196.289	85.1513	196.289	85.1883	196.289	85.0457	196.289	85.067	196.289	84.933	196.289	84.9289	196.289	84.8145	196.289	84.7791	196.289	84.6892	196.289	84.6221	196.289	84.5541	196.289	84.4607	196.289	84.407	196.289	84.297	196.289	84.2479	196.289	84.1333	196.289	84.0809	196.289	83.973	196.289	83.9145	196.289	83.8215	196.289	83.7598	196.289	83.6862	196.289	83.6281	196.289	83.5748	196.289	83.5277	196.289	83.4936	196.289	83.4634	196.289	83.4468	196.289	83.4365
203.613	85.2522	203.613	85.2135	203.613	85.2513	203.613	85.1377	203.613	85.2112	203.613	85.0297	203.613	85.135	203.613	84.8966	203.613	85.028	203.613	84.7462	203.613	84.8962	203.613	84.5862	203.613	84.7464	203.613	84.4224	203.613	84.5844	203.613	84.2586	203.613	84.415	203.613	84.0967	203.613	84.2417	203.613	83.9379	203.613	84.0678	203.613	83.7842	203.613	83.8969	203.613	83.6398	203.613	83.7338	203.613	83.51	203.613	83.5846	203.613	83.4007	203.613	83.4561	203.613	83.3162	203.613	83.3537	203.613	83.258	203.613	83.2803	203.613	83.2257	203.613	83.2358	203.613	83.2182
210.938	85.1571	210.938	85.115	210.938	85.1575	210.938	85.0328	210.938	85.1176	210.938	84.9152	210.938	85.0414	210.938	84.7684	210.938	84.9349	210.938	84.6	210.938	84.8046	210.938	84.4168	210.938	84.6564	210.938	84.224	210.938	84.4941	210.938	84.0248	210.938	84.3194	210.938	83.8214	210.938	84.1322	210.938	83.6163	210.938	83.933	210.938	83.4145	210.938	83.7245	210.938	83.2247	210.938	83.5136	210.938	83.0575	210.938	83.3113	210.938	82.9228	210.938	83.1303	210.938	82.8265	210.938	82.9812	210.938	82.7689	210.938	82.8697	210.938	82.7464	210.938	82.7957	210.938	82.7555
218.262	85.0084	218.262	84.9793	218.262	84.9946	218.262	84.9089	218.262	84.9393	218.262	84.8017	218.262	84.8469	218.262	84.6638	218.262	84.7243	218.262	84.5023	218.262	84.5799	218.262	84.3236	218.262	84.4222	218.262	84.1329	218.262	84.2573	218.262	83.9337	218.262	84.0885	218.262	83.7282	218.262	83.9158	218.262	83.5193	218.262	83.7374	218.262	83.3122	218.262	83.5524	218.262	83.1153	218.262	83.3634	218.262	82.9399	218.262	83.1775	218.262	82.7966	218.262	83.0053	218.262	82.6926	218.262	82.8577	218.262	82.6297	218.262	82.7423	218.262	82.6055	218.262	82.6622	218.262	82.6168
225.586	84.9569	225.586	84.9449	225.586	84.922	225.586	84.8879	225.586	84.8415	225.586	84.7904	225.586	84.7203	225.586	84.6588	225.586	84.5663	225.586	84.5005	225.586	84.3899	225.586	84.3222	225.586	84.2027	225.586	84.1295	225.586	84.0154	225.586	83.9267	225.586	83.8363	225.586	83.7172	225.586	83.6695	225.586	83.5058	225.586	83.5162	225.586	83.3006	225.586	83.3754	225.586	83.1134	225.586	83.2468	225.586	82.958	225.586	83.1314	225.586	82.8455	225.586	83.0313	225.586	82.7796	225.586	82.9481	225.586	82.7555	225.586	82.8816	225.586	82.7623	225.586	82.8293	225.586	82.7891
232.91	85.0014	232.91	84.9786	232.91	84.969	232.91	84.9048	232.91	84.8808	232.91	84.7873	232.91	84.7392	232.91	84.6351	232.91	84.5501	232.91	84.458	232.91	84.3224	232.91	84.2648	232.91	84.0665	232.91	84.0621	232.91	83.7941	232.91	83.8532	232.91	83.5173	232.91	83.6392	232.91	83.248	232.91	83.4213	232.91	82.9978	232.91	83.2037	232.91	82.7782	232.91	82.9957	232.91	82.5996	232.91	82.8107	232.91	82.4698	232.91	82.6617	232.91	82.3911	232.91	82.5548	232.91	82.3582	232.91	82.4853	232.91	82.3592	232.91	82.4407	232.91	82.3795	232.91	82.4078
241.699	84.881	241.699	84.8294	241.699	84.8755	241.699	84.7248	241.699	84.8122	241.699	84.5744	241.699	84.6942	241.699	84.3877	241.699	84.5274	241.699	84.175	241.699	84.3199	241.699	83.9461	241.699	84.0803	241.699	83.7089	241.699	83.8164	241.699	83.4689	241.699	83.5347	241.699	83.2293	241.699	83.241	241.699	82.993	241.699	82.9427	241.699	82.7648	241.699	82.6518	241.699	82.5526	241.699	82.3853	241.699	82.3665	241.699	82.1639	241.699	82.2155	241.699	82.0043	241.699	82.1026	241.699	81.9123	241.699	82.0227	241.699	81.8799	241.699	81.9652	241.699	81.8889	241.699	81.9208
250.488	84.8341	250.488	84.7733	250.488	84.8322	250.488	84.6541	250.488	84.7664	250.488	84.4833	250.488	84.6389	250.488	84.2698	250.488	84.4553	250.488	84.0235	250.488	84.2247	250.488	83.7547	250.488	83.9586	250.488	83.4733	250.488	83.6696	250.488	83.1882	250.488	83.3696	250.488	82.9073	250.488	83.0682	250.488	82.6387	250.488	82.773	250.488	82.3908	250.488	82.4911	250.488	82.1733	250.488	82.2319	250.488	81.9952	250.488	82.0085	250.488	81.8615	250.488	81.8347	250.488	81.7702	250.488	81.7189	250.488	81.7119	250.488	81.6589	250.488	81.6748	250.488	81.6417	250.488	81.6509
259.277	85.015	259.277	84.9606	259.277	85.0132	259.277	84.8535	259.277	84.954	259.277	84.6993	259.277	84.8387	259.277	84.5051	259.277	84.6709	259.277	84.2783	259.277	84.4558	259.277	84.0254	259.277	84.1999	259.277	83.7511	259.277	83.9101	259.277	83.4584	259.277	83.594	259.277	83.1503	259.277	83.2601	259.277	82.8327	259.277	82.9197	259.277	82.5178	259.277	82.5874	259.277	82.2245	259.277	82.2822	259.277	81.9755	259.277	82.024	259.277	81.7893	259.277	81.8282	259.277	81.6712	259.277	81.6993	259.277	81.6111	259.277	81.6282	259.277	81.5888	259.277	81.5965	259.277	81.5861
268.066	84.4774	268.066	84.4008	268.066	84.4946	268.066	84.2706	268.066	84.4502	268.066	84.0965	268.066	84.3455	268.066	83.8913	268.066	84.185	268.066	83.6692	268.066	83.9755	268.066	83.4434	268.066	83.7256	268.066	83.2227	268.066	83.4452	268.066	83.0103	268.066	83.1447	268.066	82.8044	268.066	82.8349	268.066	82.6016	268.066	82.5279	268.066	82.402	268.066	82.238	268.066	82.2119	268.066	81.9822	268.066	82.0426	268.066	81.7789	268.066	81.9053	268.066	81.6421	268.066	81.8042	268.066	81.5748	268.066	81.7335	268.066	81.5653	268.066	81.6807	268.066	81.5921	268.066	81.6343
276.855	84.5786	276.855	84.5253	276.855	84.5686	276.855	84.4029	276.855	84.5037	276.855	84.2107	276.855	84.3932	276.855	83.9536	276.855	84.2451	276.855	83.6426	276.855	84.0644	276.855	83.2936	276.855	83.8531	276.855	82.9261	276.855	83.6109	276.855	82.5611	276.855	83.3378	276.855	82.2176	276.855	83.0367	276.855	81.9112	276.855	82.7166	276.855	81.6519	276.855	82.3931	276.855	81.4454	276.855	82.0864	276.855	81.2935	276.855	81.8164	276.855	81.1947	276.855	81.5971	276.855	81.1437	276.855	81.4322	276.855	81.1313	276.855	81.316	276.855	81.1469	276.855	81.2366	276.855	81.1824
287.109	84.7307	287.109	84.7139	287.109	84.6663	287.109	84.6185	287.109	84.5255	287.109	84.4517	287.109	84.3215	287.109	84.2236	287.109	84.075	287.109	83.9448	287.109	83.8093	287.109	83.6251	287.109	83.544	287.109	83.2738	287.109	83.2871	287.109	82.9012	287.109	83.0314	287.109	82.5211	287.109	82.7599	287.109	82.1531	287.109	82.4572	287.109	81.8228	287.109	82.1234	287.109	81.5571	287.109	81.7828	287.109	81.3743	287.109	81.4789	287.109	81.2743	287.109	81.2566	287.109	81.2358	287.109	81.1382	287.109	81.2256	287.109	81.1115	287.109	81.2131	287.109	81.1398	287.109	81.1826
297.363	84.4768	297.363	84.3757	297.363	84.4816	297.363	84.195	297.363	84.3797	297.363	83.9548	297.363	84.1693	297.363	83.6764	297.363	83.8604	297.363	83.3795	297.363	83.4759	297.363	83.0791	297.363	83.0511	297.363	82.7832	297.363	82.6269	297.363	82.4922	297.363	82.2387	297.363	82.2024	297.363	81.9034	297.363	81.9131	297.363	81.6169	297.363	81.6334	297.363	81.3647	297.363	81.3847	297.363	81.1412	297.363	81.1933	297.363	80.9596	297.363	81.0754	297.363	80.8439	297.363	81.0243	297.363	80.808	297.363	81.0108	297.363	80.8394	297.363	80.999	297.363	80.9038	297.363	80.9642
307.617	84.4945	307.617	84.3953	307.617	84.5308	307.617	84.236	307.617	84.5009	307.617	84.0204	307.617	84.4003	307.617	83.7549	307.617	84.2245	307.617	83.45	307.617	83.972	307.617	83.1195	307.617	83.6465	307.617	82.7786	307.617	83.2594	307.617	82.4419	307.617	82.8301	307.617	82.1212	307.617	82.3845	307.617	81.8267	307.617	81.9516	307.617	81.5688	307.617	81.5601	307.617	81.3593	307.617	81.2355	307.617	81.2094	307.617	81.0001	307.617	81.1224	307.617	80.8688	307.617	81.0879	307.617	80.8396	307.617	81.0812	307.617	80.8862	307.617	81.0711	307.617	80.9648	307.617	81.0336
319.336	84.4402	319.336	84.3683	319.336	84.4312	319.336	84.2166	319.336	84.3444	319.336	83.9901	319.336	84.1864	319.336	83.6966	319.336	83.9667	319.336	83.3467	319.336	83.6961	319.336	82.9534	319.336	83.385	319.336	82.5324	319.336	83.0433	319.336	82.1024	319.336	82.6803	319.336	81.6854	319.336	82.305	319.336	81.3072	319.336	81.9288	319.336	80.9962	319.336	81.5673	319.336	80.779	319.336	81.2428	319.336	80.6704	319.336	80.9831	319.336	80.6627	319.336	80.814	319.336	80.722	319.336	80.745	319.336	80.7998	319.336	80.758	319.336	80.8513	319.336	80.8103	319.336	80.8528
329.59	84.5797	329.59	84.5046	329.59	84.568	329.59	84.3463	329.59	84.471	329.59	84.1131	329.59	84.2953	329.59	83.8166	329.59	84.0515	329.59	83.4698	329.59	83.7521	329.59	83.0852	329.59	83.4098	329.59	82.6738	329.59	83.0353	329.59	82.2456	329.59	82.6381	329.59	81.8134	329.59	82.2287	329.59	81.3977	329.59	81.8221	329.59	81.03	329.59	81.4409	329.59	80.7483	329.59	81.1131	329.59	80.582	329.59	80.8661	329.59	80.5333	329.59	80.7161	329.59	80.5709	329.59	80.6588	329.59	80.6436	329.59	80.6678	329.59	80.7033	329.59	80.7026	329.59	80.7229
341.309	84.4348	341.309	84.3485	341.309	84.4236	341.309	84.1679	341.309	84.3208	341.309	83.9036	341.309	84.1409	341.309	83.5724	341.309	83.9046	341.309	83.1937	341.309	83.6353	341.309	82.7872	341.309	83.3521	341.309	82.3708	341.309	83.0644	341.309	81.9603	341.309	82.7698	341.309	81.5708	341.309	82.459	341.309	81.2194	341.309	82.127	341.309	80.927	341.309	81.7841	341.309	80.7188	341.309	81.4599	341.309	80.615	341.309	81.1945	341.309	80.6166	341.309	81.0193	341.309	80.6957	341.309	80.9383	341.309	80.8035	341.309	80.9258	341.309	80.8929	341.309	80.9396	341.309	80.9376
353.027	84.3534	353.027	84.2558	353.027	84.3364	353.027	84.0538	353.027	84.1995	353.027	83.7611	353.027	83.9429	353.027	83.3946	353.027	83.5759	353.027	82.9725	353.027	83.1183	353.027	82.5131	353.027	82.6026	353.027	82.0327	353.027	82.0694	353.027	81.5471	353.027	81.5592	353.027	81.0758	353.027	81.1008	353.027	80.6486	353.027	80.7076	353.027	80.3065	353.027	80.3877	353.027	80.0915	353.027	80.1581	353.027	80.0257	353.027	80.0447	353.027	80.095	353.027	80.0609	353.027	80.2486	353.027	80.1833	353.027	80.4174	353.027	80.3524	353.027	80.5376	353.027	80.4985	353.027	80.568
366.211	84.6079	366.211	84.4659	366.211	84.6328	366.211	84.2159	366.211	84.5377	366.211	83.8734	366.211	84.3247	366.211	83.459	366.211	83.9999	366.211	82.9946	366.211	83.5723	366.211	82.4978	366.211	83.0537	366.211	81.9786	366.211	82.4591	366.211	81.4413	366.211	81.8079	366.211	80.8953	366.211	81.1257	366.211	80.3692	366.211	80.4482	366.211	79.9172	366.211	79.8291	366.211	79.6045	366.211	79.345	366.211	79.4715	366.211	79.0796	366.211	79.5042	366.211	79.0704	366.211	79.6393	366.211	79.2637	366.211	79.7957	366.211	79.5383	366.211	79.9004	366.211	79.7746	366.211	79.9012
379.395	85.0361	379.395	84.9633	379.395	85.0223	379.395	84.798	379.395	84.9282	379.395	84.5366	379.395	84.76	379.395	84.181	379.395	84.5237	379.395	83.7429	379.395	84.2255	379.395	83.2452	379.395	83.8715	379.395	82.7182	379.395	83.4674	379.395	82.1891	379.395	83.0191	379.395	81.6717	379.395	82.5328	379.395	81.1674	379.395	82.0165	379.395	80.6836	379.395	81.4813	379.395	80.2525	379.395	80.9474	379.395	79.9288	379.395	80.4515	379.395	79.7551	379.395	80.0484	379.395	79.7198	379.395	79.7923	379.395	79.7569	379.395	79.698	379.395	79.7883	379.395	79.7184	379.395	79.7707
392.578	84.692	392.578	84.6257	392.578	84.6345	392.578	84.445	392.578	84.4535	392.578	84.1664	392.578	84.1609	392.578	83.8103	392.578	83.7802	392.578	83.3974	392.578	83.3457	392.578	82.9455	392.578	82.8961	392.578	82.4692	392.578	82.466	392.578	81.9803	392.578	82.0766	392.578	81.4908	392.578	81.7331	392.578	81.017	392.578	81.4306	392.578	80.5853	392.578	81.164	392.578	80.2365	392.578	80.9355	392.578	80.0173	392.578	80.7548	392.578	79.9529	392.578	80.6311	392.578	80.0223	392.578	80.5622	392.578	80.1648	392.578	80.5275	392.578	80.3143	392.578	80.4934	392.578	80.4276
405.762	84.6482	405.762	84.5417	405.762	84.5968	405.762	84.2879	405.762	84.3829	405.762	83.9039	405.762	84.0099	405.762	83.4139	405.762	83.4921	405.762	82.851	405.762	82.8608	405.762	82.2581	405.762	82.1697	405.762	81.6873	405.762	81.4956	405.762	81.1924	405.762	80.9235	405.762	80.8135	405.762	80.5157	405.762	80.5616	405.762	80.2852	405.762	80.4173	405.762	80.199	405.762	80.3502	405.762	80.2076	405.762	80.3388	405.762	80.2712	405.762	80.3754	405.762	80.3655	405.762	80.4527	405.762	80.4736	405.762	80.5497	405.762	80.5762	405.762	80.6326	405.762	80.6491	405.762	80.6704
420.41	85.637	420.41	85.4529	420.41	85.6731	420.41	85.123	420.41	85.559	420.41	84.6525	420.41	85.2908	420.41	84.053	420.41	84.8609	420.41	83.3461	420.41	84.2577	420.41	82.5638	420.41	83.4686	420.41	81.748	420.41	82.4876	420.41	80.9526	420.41	81.3354	420.41	80.2506	420.41	80.093	420.41	79.7387	420.41	78.9484	420.41	79.5078	420.41	78.1912	420.41	79.5776	420.41	78.0417	420.41	79.8664	420.41	78.4309	420.41	80.2419	420.41	79.0821	420.41	80.5894	420.41	79.7495	420.41	80.8372	420.41	80.3014	420.41	80.9479	420.41	80.6887	420.41	80.9023
435.059	85.3817	435.059	85.2601	435.059	85.3975	435.059	85.0321	435.059	85.307	435.059	84.6936	435.059	85.1099	435.059	84.2373	435.059	84.8063	435.059	83.6563	435.059	84.395	435.059	82.9529	435.059	83.8718	435.059	82.1509	435.059	83.2299	435.059	81.3088	435.059	82.4662	435.059	80.5234	435.059	81.597	435.059	79.9156	435.059	80.6819	435.059	79.5875	435.059	79.8474	435.059	79.5719	435.059	79.2758	435.059	79.812	435.059	79.1135	435.059	80.192	435.059	79.3502	435.059	80.5868	435.059	79.8238	435.059	80.8947	435.059	80.3409	435.059	81.0467	435.059	80.7601	435.059	81.0046
451.172	85.5066	451.172	85.4055	451.172	85.4924	451.172	85.1873	451.172	85.3648	451.172	84.8483	451.172	85.1244	451.172	84.3813	451.172	84.7701	451.172	83.7736	451.172	84.2967	451.172	83.0078	451.172	83.6937	451.172	82.0685	451.172	82.947	451.172	80.9627	451.172	82.0449	451.172	79.7643	451.172	80.9952	451.172	78.6878	451.172	79.8624	451.172	78.0948	451.172	78.8297	451.172	78.2219	451.172	78.2202	451.172	78.8847	451.172	78.294	451.172	79.704	451.172	78.9373	451.172	80.4262	451.172	79.7801	451.172	80.948	451.172	80.5254	451.172	81.2352	451.172	81.0347	451.172	81.2697
465.82	85.7461	465.82	85.6379	465.82	85.728	465.82	85.4072	465.82	85.587	465.82	85.0647	465.82	85.3321	465.82	84.6239	465.82	84.9755	465.82	84.0926	465.82	84.5274	465.82	83.463	465.82	83.9898	465.82	82.7073	465.82	83.3481	465.82	81.783	465.82	82.5687	465.82	80.6523	465.82	81.6098	465.82	79.3259	465.82	80.4527	465.82	77.9631	465.82	79.1632	465.82	77.0025	465.82	77.9822	465.82	76.9546	465.82	77.3302	465.82	77.7172	465.82	77.4687	465.82	78.6951	465.82	78.1594	465.82	79.4677	465.82	78.9637	465.82	79.8834	465.82	79.5933	465.82	79.9182
483.398	85.0329	483.398	84.9218	483.398	85.0446	483.398	84.7197	483.398	84.9501	483.398	84.4331	483.398	84.7463	483.398	84.062	483.398	84.4334	483.398	83.5972	483.398	84.0134	483.398	83.0191	483.398	83.4885	483.398	82.3024	483.398	82.86	483.398	81.4281	483.398	82.127	483.398	80.4133	483.398	81.2881	483.398	79.3649	483.398	80.3547	483.398	78.529	483.398	79.3876	483.398	78.2027	483.398	78.5586	483.398	78.4545	483.398	78.1511	483.398	79.0451	483.398	78.3432	483.398	79.6858	483.398	78.9692	483.398	80.1976	483.398	79.6835	483.398	80.4889	483.398	80.2333	483.398	80.5087
499.512	85.2149	499.512	85.1222	499.512	85.1931	499.512	84.925	499.512	85.0567	499.512	84.6391	499.512	84.8152	499.512	84.2784	499.512	84.4832	499.512	83.8441	499.512	84.0716	499.512	83.3147	499.512	83.578	499.512	82.644	499.512	82.9796	499.512	81.773	499.512	82.2335	499.512	80.6576	499.512	81.2865	499.512	79.3281	499.512	80.1052	499.512	78.0024	499.512	78.7502	499.512	77.177	499.512	77.5147	499.512	77.2816	499.512	76.9489	499.512	78.0834	499.512	77.3241	499.512	79.0175	499.512	78.2255	499.512	79.735	499.512	79.1333	499.512	80.1134	499.512	79.7953	499.512	80.1305
517.09	85.362	517.09	85.2529	517.09	85.3432	517.09	85.0104	517.09	85.2108	517.09	84.6402	517.09	84.9849	517.09	84.1594	517.09	84.6867	517.09	83.5916	517.09	84.3308	517.09	82.9549	517.09	83.9135	517.09	82.2436	517.09	83.4051	517.09	81.4167	517.09	82.7502	517.09	80.408	517.09	81.8794	517.09	79.1797	517.09	80.7321	517.09	77.8514	517.09	79.3066	517.09	76.8974	517.09	77.7888	517.09	76.9499	517.09	76.7427	517.09	77.8961	517.09	76.813	517.09	79.0231	517.09	77.785	517.09	79.8707	517.09	78.9224	517.09	80.2921	517.09	79.795	517.09	80.2637
536.133	85.109	536.133	85.0219	536.133	85.0564	536.133	84.8119	536.133	84.8582	536.133	84.5013	536.133	84.5219	536.133	84.1113	536.133	84.0694	536.133	83.6526	536.133	83.5346	536.133	83.1148	536.133	82.9545	536.133	82.4573	536.133	82.3514	536.133	81.6099	536.133	81.7113	536.133	80.4879	536.133	80.9777	536.133	79.0383	536.133	80.0775	536.133	77.3703	536.133	78.9888	536.133	76.0415	536.133	77.8724	536.133	75.9594	536.133	77.2039	536.133	77.0665	536.133	77.4575	536.133	78.4367	536.133	78.4044	536.133	79.5275	536.133	79.4213	536.133	80.1881	536.133	80.1258	536.133	80.3893
555.176	85.5776	555.176	85.4128	555.176	85.6034	555.176	85.1209	555.176	85.4898	555.176	84.7277	555.176	85.2458	555.176	84.2698	555.176	84.8863	555.176	83.7805	555.176	84.4261	555.176	83.2633	555.176	83.8693	555.176	82.6677	555.176	83.1963	555.176	81.889	555.176	82.3554	555.176	80.7912	555.176	81.2603	555.176	79.2474	555.176	79.7948	555.176	77.2412	555.176	77.8424	555.176	75.2543	555.176	75.4762	555.176	74.7388	555.176	73.716	555.176	76.0854	555.176	74.3565	555.176	77.7785	555.176	76.3727	555.176	79.0058	555.176	78.1161	555.176	79.6435	555.176	79.2206	555.176	79.7144
574.219	85.7003	574.219	85.6182	574.219	85.6537	574.219	85.4124	574.219	85.4831	574.219	85.0945	574.219	85.203	574.219	84.6793	574.219	84.8385	574.219	84.1777	574.219	84.4231	574.219	83.5884	574.219	83.9883	574.219	82.887	574.219	83.5349	574.219	82.0154	574.219	83.0051	574.219	80.8737	574.219	82.2846	574.219	79.3244	574.219	81.2404	574.219	77.2581	574.219	79.7706	574.219	74.9551	574.219	77.8866	574.219	74.007	574.219	75.9642	574.219	75.483	574.219	75.1073	574.219	77.5069	574.219	76.0053	574.219	78.946	574.219	77.6005	574.219	79.6401	574.219	78.91	574.219	79.6158
594.727	85.7519	594.727	85.5855	594.727	85.7566	594.727	85.2754	594.727	85.6023	594.727	84.8634	594.727	85.3116	594.727	84.4136	594.727	84.9289	594.727	83.9926	594.727	84.5101	594.727	83.6298	594.727	84.0954	594.727	83.2826	594.727	83.6798	594.727	82.8367	594.727	83.2056	594.727	82.1379	594.727	82.5725	594.727	81.0208	594.727	81.6436	594.727	79.3345	594.727	80.2519	594.727	77.0555	594.727	78.2712	594.727	74.8593	594.727	75.9785	594.727	74.6763	594.727	74.9064	594.727	76.3593	594.727	76.0641	594.727	77.9869	594.727	77.7158	594.727	78.944	594.727	78.8082	594.727	79.2106
615.234	85.9639	615.234	85.7819	615.234	85.9716	615.234	85.4358	615.234	85.8094	615.234	84.955	615.234	85.4938	615.234	84.3916	615.234	85.0534	615.234	83.8148	615.234	84.5299	615.234	83.2827	615.234	83.9745	615.234	82.7894	615.234	83.4287	615.234	82.2302	615.234	82.8854	615.234	81.4259	615.234	82.2614	615.234	80.1851	615.234	81.4118	615.234	78.3681	615.234	80.1784	615.234	76.0514	615.234	78.4599	615.234	74.1623	615.234	76.4157	615.234	74.499	615.234	75.0409	615.234	76.3863	615.234	75.6612	615.234	78.1099	615.234	77.3571	615.234	79.1277	615.234	78.7305	615.234	79.3414
637.207	86.2092	637.207	86.0075	637.207	86.2208	637.207	85.6315	637.207	86.0401	637.207	85.1142	637.207	85.6803	637.207	84.5138	637.207	85.1795	637.207	83.9147	637.207	84.6097	637.207	83.3969	637.207	84.0666	637.207	82.9739	637.207	83.6141	637.207	82.5472	637.207	83.2154	637.207	81.9221	637.207	82.7276	637.207	80.8552	637.207	81.9575	637.207	79.0963	637.207	80.7082	637.207	76.542	637.207	78.8096	637.207	74.1669	637.207	76.3104	637.207	74.6728	637.207	74.4117	637.207	76.8873	637.207	75.2195	637.207	78.5936	637.207	77.2712	637.207	79.4554	637.207	78.8041	637.207	79.5233
659.18	86.4547	659.18	86.2692	659.18	86.42	659.18	85.8597	659.18	86.1787	659.18	85.2429	659.18	85.749	659.18	84.4677	659.18	85.1583	659.18	83.6294	659.18	84.4607	659.18	82.8685	659.18	83.7492	659.18	82.2975	659.18	83.1289	659.18	81.8701	659.18	82.6293	659.18	81.3572	659.18	82.133	659.18	80.466	659.18	81.4115	659.18	78.9315	659.18	80.2125	659.18	76.5686	659.18	78.3174	659.18	73.7726	659.18	75.7133	659.18	73.1717	659.18	73.5915	659.18	75.4299	659.18	74.4127	659.18	77.5447	659.18	76.6078	659.18	78.6906	659.18	78.203	659.18	78.8952
682.617	85.9875	682.617	85.7817	682.617	85.9759	682.617	85.3772	682.617	85.7378	682.617	84.8034	682.617	85.282	682.617	84.1114	682.617	84.6479	682.617	83.3873	682.617	83.9151	682.617	82.7476	682.617	83.1989	682.617	82.2833	682.617	82.6079	682.617	81.9621	682.617	82.1707	682.617	81.5892	682.617	81.785	682.617	80.8766	682.617	81.2443	682.617	79.525	682.617	80.3003	682.617	77.2651	682.617	78.7043	682.617	74.1506	682.617	76.2966	682.617	72.3736	682.617	73.672	682.617	74.2826	682.617	73.4871	682.617	76.5724	682.617	75.6039	682.617	77.8527	682.617	77.3528	682.617	78.1038
707.52	86.363	707.52	86.1891	707.52	86.3119	707.52	85.7889	707.52	86.0359	707.52	85.1643	707.52	85.5376	707.52	84.3389	707.52	84.829	707.52	83.3918	707.52	83.951	707.52	82.4783	707.52	83.0068	707.52	81.7708	707.52	82.1847	707.52	81.3072	707.52	81.6751	707.52	80.9058	707.52	81.4489	707.52	80.2525	707.52	81.1749	707.52	79.0105	707.52	80.4129	707.52	76.8897	707.52	78.7867	707.52	74.0737	707.52	76.1301	707.52	73.0682	707.52	73.4744	707.52	75.2682	707.52	73.9821	707.52	77.4399	707.52	76.2757	707.52	78.5733	707.52	77.9556	707.52	78.7191
732.422	86.9657	732.422	86.8124	732.422	86.8943	732.422	86.4379	732.422	86.6161	732.422	85.8682	732.422	86.154	732.422	85.1339	732.422	85.5231	732.422	84.2611	732.422	84.7431	732.422	83.3034	732.422	83.8699	732.422	82.3926	732.422	83.0095	732.422	81.6832	732.422	82.2758	732.422	81.1316	732.422	81.6922	732.422	80.4162	732.422	81.115	732.422	79.1205	732.422	80.2478	732.422	76.862	732.422	78.6923	732.422	73.5674	732.422	75.9671	732.422	71.8018	732.422	72.0494	732.422	74.2785	732.422	71.6146	732.422	76.8021	732.422	75.1093	732.422	78.1285	732.422	77.4272	732.422	78.3458
757.324	86.5954	757.324	86.3985	757.324	86.5687	757.324	85.9892	757.324	86.309	757.324	85.3844	757.324	85.8176	757.324	84.629	757.324	85.121	757.324	83.8221	757.324	84.2884	757.324	83.1101	757.324	83.449	757.324	82.6106	757.324	82.7681	757.324	82.2999	757.324	82.3339	757.324	81.9823	757.324	82.0375	757.324	81.3661	757.324	81.6148	757.324	80.1389	757.324	80.7785	757.324	77.994	757.324	79.2736	757.324	74.7829	757.324	76.8797	757.324	72.0164	757.324	73.7029	757.324	73.2637	757.324	71.9717	757.324	75.6218	757.324	73.8334	757.324	76.917	757.324	75.9816	757.324	77.0318
785.156	86.8427	785.156	86.6687	785.156	86.7657	785.156	86.2364	785.156	86.4479	785.156	85.5491	785.156	85.8947	785.156	84.6294	785.156	85.1093	785.156	83.5477	785.156	84.1166	785.156	82.4782	785.156	83.005	785.156	81.6897	785.156	81.9781	785.156	81.3081	785.156	81.318	785.156	81.0785	785.156	81.0938	785.156	80.54	785.156	80.9471	785.156	79.2804	785.156	80.3619	785.156	76.9824	785.156	78.9149	785.156	73.6537	785.156	76.2444	785.156	71.8641	785.156	72.5061	785.156	74.4299	785.156	72.1474	785.156	77.1848	785.156	75.633	785.156	78.7258	785.156	78.0641	785.156	79.0346
811.523	86.4032	811.523	86.1745	811.523	86.378	811.523	85.7153	811.523	86.0889	811.523	85.0385	811.523	85.5524	811.523	84.1459	811.523	84.793	811.523	83.0654	811.523	83.8253	811.523	81.9281	811.523	82.6825	811.523	81.0333	811.523	81.5058	811.523	80.6565	811.523	80.5989	811.523	80.6223	811.523	80.2152	811.523	80.3945	811.523	80.1684	811.523	79.4849	811.523	79.918	811.523	77.5078	811.523	78.9285	811.523	74.1749	811.523	76.7722	811.523	71.04	811.523	73.3806	811.523	72.8611	811.523	71.4519	811.523	75.5956	811.523	73.7411	811.523	76.954	811.523	76.0066	811.523	77.0599
840.82	86.7632	840.82	86.5762	840.82	86.6934	840.82	86.0987	840.82	86.3953	840.82	85.3129	840.82	85.8683	840.82	84.2314	840.82	85.0734	840.82	82.9183	840.82	83.9598	840.82	81.5407	840.82	82.5413	840.82	80.4342	840.82	81.0457	840.82	79.9513	840.82	80.0416	840.82	79.9823	840.82	79.9303	840.82	79.9416	840.82	80.1931	840.82	79.2336	840.82	80.004	840.82	77.3434	840.82	78.8082	840.82	73.6326	840.82	76.1771	840.82	69.0491	840.82	71.981	840.82	72.1702	840.82	70.5035	840.82	75.8896	840.82	73.9996	840.82	77.5582	840.82	76.5734	840.82	77.716
870.117	86.5247	870.117	86.2634	870.117	86.5456	870.117	85.7918	870.117	86.3158	870.117	85.1277	870.117	85.8324	870.117	84.2331	870.117	85.0766	870.117	83.0338	870.117	84.0253	870.117	81.5569	870.117	82.7062	870.117	80.1821	870.117	81.2828	870.117	79.6013	870.117	80.1523	870.117	79.8257	870.117	79.7624	870.117	79.9875	870.117	79.9366	870.117	79.3369	870.117	79.903	870.117	77.37	870.117	78.9682	870.117	73.4458	870.117	76.5805	870.117	67.5924	870.117	72.0285	870.117	70.2489	870.117	67.4041	870.117	74.5605	870.117	71.7698	870.117	76.5276	870.117	75.2899	870.117	76.7399
900.879	86.8093	900.879	86.5989	900.879	86.7781	900.879	86.1425	900.879	86.4969	900.879	85.4043	900.879	85.9719	900.879	84.3333	900.879	85.2127	900.879	82.8909	900.879	84.1892	900.879	81.0983	900.879	82.8257	900.879	79.2577	900.879	81.1251	900.879	78.2771	900.879	79.4978	900.879	78.619	900.879	78.8476	900.879	79.1751	900.879	79.2258	900.879	78.8744	900.879	79.5649	900.879	77.1349	900.879	79.0836	900.879	73.2782	900.879	77.3232	900.879	67.842	900.879	73.7531	900.879	71.4138	900.879	69.8661	900.879	75.4834	900.879	73.1281	900.879	77.3673	900.879	76.4395	900.879	77.6954
933.105	86.8357	933.105	86.5883	933.105	86.8535	933.105	86.1678	933.105	86.6223	933.105	85.6118	933.105	86.1542	933.105	84.8582	933.105	85.4542	933.105	83.7416	933.105	84.4853	933.105	82.1103	933.105	83.1724	933.105	80.1036	933.105	81.5028	933.105	78.6824	933.105	79.8342	933.105	78.8827	933.105	79.105	933.105	79.6347	933.105	79.5037	933.105	79.5107	933.105	79.8427	933.105	77.7559	933.105	79.1422	933.105	73.3702	933.105	76.7188	933.105	62.3492	933.105	71.3006	933.105	69.3995	933.105	65.6526	933.105	75.3008	933.105	73.1517	933.105	77.7382	933.105	76.9116	933.105	78.2311
965.332	86.7702	965.332	86.6145	965.332	86.7273	965.332	86.2641	965.332	86.503	965.332	85.7415	965.332	86.1208	965.332	85.0421	965.332	85.5826	965.332	84.0564	965.332	84.8132	965.332	82.536	965.332	83.6095	965.332	80.179	965.332	81.6668	965.332	77.268	965.332	78.8758	965.332	76.537	965.332	76.8188	965.332	78.3259	965.332	78.0098	965.332	79.3722	965.332	79.6882	965.332	78.7056	965.332	79.9351	965.332	75.6641	965.332	78.2473	965.332	67.1987	965.332	73.6378	965.332	68.4288	965.332	66.276	965.332	75.8377	965.332	73.2389	965.332	78.3939	965.332	77.2822	965.332	78.7367
1,000.49	86.9317	1,000.49	86.7046	1,000.49	86.9004	1,000.49	86.2815	1,000.49	86.5795	1,000.49	85.7179	1,000.49	86.0156	1,000.49	85.0284	1,000.49	85.3255	1,000.49	84.1442	1,000.49	84.5546	1,000.49	82.8836	1,000.49	83.5381	1,000.49	80.9918	1,000.49	81.9929	1,000.49	78.441	1,000.49	79.7683	1,000.49	76.7427	1,000.49	77.4608	1,000.49	77.9484	1,000.49	77.1995	1,000.49	79.5567	1,000.49	78.7665	1,000.49	79.7116	1,000.49	79.6493	1,000.49	77.7971	1,000.49	78.7721	1,000.49	72.3603	1,000.49	75.2979	1,000.49	52.246	1,000.49	65.4751	1,000.49	71.9169	1,000.49	66.6269	1,000.49	75.8513	1,000.49	74.1581	1,000.49	76.3486
1,035.64	86.7521	1,035.64	86.4833	1,035.64	86.693	1,035.64	85.934	1,035.64	86.2962	1,035.64	85.1742	1,035.64	85.6175	1,035.64	84.322	1,035.64	84.7586	1,035.64	83.4788	1,035.64	83.8144	1,035.64	82.5267	1,035.64	82.8068	1,035.64	81.0913	1,035.64	81.5793	1,035.64	78.8531	1,035.64	79.7512	1,035.64	76.4862	1,035.64	77.0022	1,035.64	76.5006	1,035.64	74.934	1,035.64	78.0022	1,035.64	76.5313	1,035.64	78.4898	1,035.64	78.222	1,035.64	77.1833	1,035.64	77.9942	1,035.64	73.3039	1,035.64	75.453	1,035.64	66.2492	1,035.64	69.4898	1,035.64	70.4685	1,035.64	65.0239	1,035.64	74.2231	1,035.64	71.9363	1,035.64	74.5965
1,072.27	86.6035	1,072.27	86.3148	1,072.27	86.4824	1,072.27	85.6915	1,072.27	85.9704	1,072.27	84.8732	1,072.27	85.1677	1,072.27	83.9468	1,072.27	84.2315	1,072.27	82.9063	1,072.27	83.2834	1,072.27	81.7315	1,072.27	82.3126	1,072.27	80.2942	1,072.27	81.1628	1,072.27	78.2258	1,072.27	79.5215	1,072.27	75.6519	1,072.27	77.0281	1,072.27	75.2428	1,072.27	74.4337	1,072.27	76.9592	1,072.27	74.7575	1,072.27	77.4604	1,072.27	76.1741	1,072.27	75.7936	1,072.27	76.0407	1,072.27	71.4421	1,072.27	73.7105	1,072.27	67.4456	1,072.27	68.2943	1,072.27	72.3306	1,072.27	67.9633	1,072.27	75.4763	1,072.27	73.6658	1,072.27	75.9327
1,108.89	86.0331	1,108.89	85.7317	1,108.89	85.9443	1,108.89	85.0958	1,108.89	85.4898	1,108.89	84.249	1,108.89	84.7456	1,108.89	83.3481	1,108.89	83.8067	1,108.89	82.5002	1,108.89	82.8128	1,108.89	81.5954	1,108.89	81.9103	1,108.89	80.239	1,108.89	80.955	1,108.89	77.9354	1,108.89	79.3681	1,108.89	74.809	1,108.89	76.4786	1,108.89	74.0231	1,108.89	72.8027	1,108.89	75.9445	1,108.89	73.3499	1,108.89	76.6462	1,108.89	75.7003	1,108.89	75.0552	1,108.89	75.9903	1,108.89	70.1681	1,108.89	73.5681	1,108.89	64.5056	1,108.89	66.9134	1,108.89	71.6462	1,108.89	67.1739	1,108.89	74.9717	1,108.89	73.3141	1,108.89	75.4407
1,148.44	86.0699	1,148.44	85.6755	1,148.44	86.0723	1,148.44	84.9376	1,148.44	85.6693	1,148.44	83.9284	1,148.44	84.893	1,148.44	82.8014	1,148.44	83.8605	1,148.44	81.8522	1,148.44	82.7795	1,148.44	81.1785	1,148.44	81.8051	1,148.44	80.298	1,148.44	80.9061	1,148.44	78.5224	1,148.44	79.8244	1,148.44	75.4529	1,148.44	78.0508	1,148.44	72.4791	1,148.44	75.1899	1,148.44	73.5075	1,148.44	73.0276	1,148.44	75.0038	1,148.44	74.0345	1,148.44	74.1201	1,148.44	74.3043	1,148.44	69.3432	1,148.44	71.8608	1,148.44	64.1761	1,148.44	65.0126	1,148.44	72.2402	1,148.44	63.5572	1,148.44	75.1878	1,148.44	71.7708	1,148.44	74.9701
1,189.45	86.5481	1,189.45	86.1193	1,189.45	86.5906	1,189.45	85.3086	1,189.45	86.2173	1,189.45	84.1216	1,189.45	85.4156	1,189.45	82.6649	1,189.45	84.2298	1,189.45	81.2593	1,189.45	82.7909	1,189.45	80.2557	1,189.45	81.3973	1,189.45	79.4099	1,189.45	80.3941	1,189.45	77.925	1,189.45	79.6051	1,189.45	75.2108	1,189.45	78.2369	1,189.45	72.5071	1,189.45	75.6654	1,189.45	73.5314	1,189.45	73.5281	1,189.45	75.0783	1,189.45	74.9094	1,189.45	74.4324	1,189.45	76.0057	1,189.45	70.4349	1,189.45	74.5141	1,189.45	58.3272	1,189.45	68.8076	1,189.45	68.8089	1,189.45	61.1186	1,189.45	73.2186	1,189.45	70.6348	1,189.45	73.584
1,230.47	86.7876	1,230.47	86.4388	1,230.47	86.7589	1,230.47	85.6533	1,230.47	86.3434	1,230.47	84.4297	1,230.47	85.494	1,230.47	82.9269	1,230.47	84.2454	1,230.47	81.3735	1,230.47	82.7592	1,230.47	80.0434	1,230.47	81.3046	1,230.47	79.2421	1,230.47	80.1968	1,230.47	78.5505	1,230.47	79.3579	1,230.47	76.8442	1,230.47	78.1229	1,230.47	73.834	1,230.47	76.1074	1,230.47	73.1789	1,230.47	74.451	1,230.47	74.7458	1,230.47	74.6022	1,230.47	74.327	1,230.47	74.9243	1,230.47	70.4851	1,230.47	73.7533	1,230.47	58.1422	1,230.47	69.5572	1,230.47	68.8961	1,230.47	63.3357	1,230.47	73.5522	1,230.47	71.0571	1,230.47	74.1181
1,274.41	86.7858	1,274.41	86.4664	1,274.41	86.7251	1,274.41	85.7508	1,274.41	86.2828	1,274.41	84.6326	1,274.41	85.4543	1,274.41	83.1612	1,274.41	84.257	1,274.41	81.5093	1,274.41	82.7564	1,274.41	80.0147	1,274.41	81.1668	1,274.41	78.9646	1,274.41	79.8712	1,274.41	77.9665	1,274.41	78.9399	1,274.41	75.9774	1,274.41	77.671	1,274.41	72.5309	1,274.41	75.2911	1,274.41	72.3929	1,274.41	73.1405	1,274.41	75.1545	1,274.41	74.5948	1,274.41	75.4045	1,274.41	75.8919	1,274.41	72.2804	1,274.41	74.4785	1,274.41	62.8345	1,274.41	68.8646	1,274.41	67.3278	1,274.41	61.3163	1,274.41	72.7673	1,274.41	70.6506	1,274.41	73.5195
1,319.82	86.3375	1,319.82	86.1128	1,319.82	86.2492	1,319.82	85.5809	1,319.82	85.8319	1,319.82	84.6647	1,319.82	85.0904	1,319.82	83.3285	1,319.82	83.9978	1,319.82	81.6503	1,319.82	82.5146	1,319.82	79.8763	1,319.82	80.7078	1,319.82	78.6297	1,319.82	79.104	1,319.82	77.8077	1,319.82	78.2186	1,319.82	76.0315	1,319.82	77.2125	1,319.82	72.7463	1,319.82	75.2751	1,319.82	71.2553	1,319.82	72.8962	1,319.82	73.0961	1,319.82	72.8366	1,319.82	74.0207	1,319.82	73.8386	1,319.82	72.0037	1,319.82	72.9222	1,319.82	63.6653	1,319.82	68.1405	1,319.82	65.095	1,319.82	58.2664	1,319.82	71.2104	1,319.82	68.6777	1,319.82	71.9261
1,366.7	85.7606	1,366.7	85.5515	1,366.7	85.712	1,366.7	85.0161	1,366.7	85.449	1,366.7	84.2025	1,366.7	84.8738	1,366.7	83.0909	1,366.7	83.8288	1,366.7	81.4804	1,366.7	82.2548	1,366.7	79.5193	1,366.7	80.2891	1,366.7	78.0132	1,366.7	78.3269	1,366.7	77.2552	1,366.7	76.9736	1,366.7	76.4074	1,366.7	76.2855	1,366.7	74.6497	1,366.7	75.046	1,366.7	72.51	1,366.7	72.4253	1,366.7	73.0018	1,366.7	71.4249	1,366.7	73.9746	1,366.7	73.1107	1,366.7	71.8198	1,366.7	73.1352	1,366.7	63.2967	1,366.7	68.7677	1,366.7	65.1238	1,366.7	57.5288	1,366.7	71.2907	1,366.7	69.7358	1,366.7	72.4736
1,413.57	85.4566	1,413.57	85.2478	1,413.57	85.4824	1,413.57	84.6828	1,413.57	85.1157	1,413.57	83.5691	1,413.57	84.2293	1,413.57	82.1647	1,413.57	83.1024	1,413.57	80.7453	1,413.57	81.8026	1,413.57	79.1575	1,413.57	79.9009	1,413.57	77.5286	1,413.57	77.66	1,413.57	76.4496	1,413.57	76.2292	1,413.57	75.269	1,413.57	75.3316	1,413.57	72.6834	1,413.57	73.7859	1,413.57	70.0055	1,413.57	71.0358	1,413.57	72.3752	1,413.57	70.5387	1,413.57	73.316	1,413.57	73.0703	1,413.57	71.1544	1,413.57	72.5444	1,413.57	65.6424	1,413.57	66.7859	1,413.57	67.0149	1,413.57	61.2592	1,413.57	71.6997	1,413.57	68.6667	1,413.57	71.9462
1,463.38	85.4123	1,463.38	85.0504	1,463.38	85.3899	1,463.38	84.3071	1,463.38	85.0119	1,463.38	83.395	1,463.38	84.2591	1,463.38	82.3968	1,463.38	83.2959	1,463.38	81.034	1,463.38	82.2115	1,463.38	79.2277	1,463.38	80.6361	1,463.38	77.33	1,463.38	78.6065	1,463.38	75.7304	1,463.38	76.9912	1,463.38	74.4196	1,463.38	75.6153	1,463.38	72.3866	1,463.38	73.172	1,463.38	70.3205	1,463.38	69.8439	1,463.38	72.2515	1,463.38	69.5813	1,463.38	73.2896	1,463.38	72.7086	1,463.38	70.8319	1,463.38	72.9773	1,463.38	63.1084	1,463.38	68.5122	1,463.38	61.99	1,463.38	55.7477	1,463.38	68.5916	1,463.38	64.7375	1,463.38	69.2491
1,516.11	86.1076	1,516.11	85.6202	1,516.11	86.0839	1,516.11	84.8144	1,516.11	85.6315	1,516.11	83.9621	1,516.11	84.9217	1,516.11	83.0788	1,516.11	84.0297	1,516.11	81.87	1,516.11	83.0104	1,516.11	80.1178	1,516.11	81.734	1,516.11	78.1454	1,516.11	80.0476	1,516.11	76.58	1,516.11	78.5011	1,516.11	75.2267	1,516.11	77.3457	1,516.11	72.8862	1,516.11	75.2908	1,516.11	69.1546	1,516.11	72.1383	1,516.11	70.4269	1,516.11	69.5001	1,516.11	72.0671	1,516.11	71.3264	1,516.11	69.975	1,516.11	72.4976	1,516.11	62.5754	1,516.11	69.3046	1,516.11	61.6778	1,516.11	60.5234	1,516.11	69.0276	1,516.11	65.8401	1,516.11	70.0623
1,568.85	86.3291	1,568.85	85.85	1,568.85	86.3694	1,568.85	85.1299	1,568.85	85.9064	1,568.85	84.2121	1,568.85	85.1281	1,568.85	83.1574	1,568.85	84.2088	1,568.85	81.9465	1,568.85	83.0519	1,568.85	80.4043	1,568.85	81.5224	1,568.85	78.6518	1,568.85	79.9078	1,568.85	77.078	1,568.85	78.3526	1,568.85	76.2008	1,568.85	76.5995	1,568.85	74.5946	1,568.85	74.4676	1,568.85	69.7323	1,568.85	72.1063	1,568.85	68.5388	1,568.85	69.9563	1,568.85	71.3508	1,568.85	71.8369	1,568.85	71.5774	1,568.85	72.7206	1,568.85	65.7668	1,568.85	70.167	1,568.85	61.1857	1,568.85	62.6327	1,568.85	69.4631	1,568.85	67.2701	1,568.85	70.6129
1,624.51	86.1441	1,624.51	85.6428	1,624.51	86.0507	1,624.51	84.9569	1,624.51	85.3405	1,624.51	84.1788	1,624.51	84.3603	1,624.51	83.0248	1,624.51	83.2816	1,624.51	81.6396	1,624.51	82.0915	1,624.51	80.0891	1,624.51	80.8028	1,624.51	78.1938	1,624.51	79.0816	1,624.51	76.5056	1,624.51	76.6976	1,624.51	76.0162	1,624.51	74.5169	1,624.51	74.7213	1,624.51	73.6737	1,624.51	69.4429	1,624.51	72.7352	1,624.51	68.0496	1,624.51	69.3323	1,624.51	72.9364	1,624.51	70.5473	1,624.51	72.9448	1,624.51	72.5425	1,624.51	67.9994	1,624.51	70.0989	1,624.51	60.4101	1,624.51	61.5162	1,624.51	68.8824	1,624.51	68.3999	1,624.51	71.1241
1,681.64	86.0561	1,681.64	85.7514	1,681.64	85.8004	1,681.64	84.9594	1,681.64	85.2098	1,681.64	83.9401	1,681.64	84.2933	1,681.64	82.8646	1,681.64	82.788	1,681.64	81.5884	1,681.64	81.3156	1,681.64	79.7503	1,681.64	80.5159	1,681.64	77.6754	1,681.64	79.1624	1,681.64	75.7113	1,681.64	76.806	1,681.64	74.6121	1,681.64	74.6733	1,681.64	74.5886	1,681.64	73.7821	1,681.64	72.2353	1,681.64	73.0259	1,681.64	69.3434	1,681.64	68.027	1,681.64	73.1884	1,681.64	68.6702	1,681.64	74.1199	1,681.64	71.1493	1,681.64	70.582	1,681.64	69.8462	1,681.64	65.704	1,681.64	63.1388	1,681.64	69.6078	1,681.64	65.3546	1,681.64	70.8171
1,741.7	86.0154	1,741.7	85.8194	1,741.7	85.8687	1,741.7	84.9831	1,741.7	85.5831	1,741.7	83.7443	1,741.7	84.9353	1,741.7	82.5212	1,741.7	83.6237	1,741.7	81.243	1,741.7	82.041	1,741.7	79.4839	1,741.7	81.1915	1,741.7	77.2578	1,741.7	80.1329	1,741.7	75.9516	1,741.7	77.6052	1,741.7	75.5689	1,741.7	75.4772	1,741.7	74.3045	1,741.7	75.1944	1,741.7	71.5126	1,741.7	74.8597	1,741.7	67.7001	1,741.7	71.7156	1,741.7	70.8128	1,741.7	67.1958	1,741.7	72.6009	1,741.7	70.4155	1,741.7	68.8496	1,741.7	71.9243	1,741.7	66.0887	1,741.7	69.3637	1,741.7	70.8982	1,741.7	63.8798	1,741.7	70.8848
1,803.22	86.8459	1,803.22	86.5107	1,803.22	86.5709	1,803.22	85.4419	1,803.22	86.0854	1,803.22	84.0064	1,803.22	85.277	1,803.22	82.7185	1,803.22	83.8035	1,803.22	81.3083	1,803.22	82.25	1,803.22	79.3861	1,803.22	81.3742	1,803.22	77.7745	1,803.22	80.3359	1,803.22	75.691	1,803.22	78.2845	1,803.22	72.4613	1,803.22	76.2378	1,803.22	72.6578	1,803.22	75.6019	1,803.22	71.9609	1,803.22	75.0732	1,803.22	66.7925	1,803.22	72.0555	1,803.22	70.0906	1,803.22	68.1523	1,803.22	72.4649	1,803.22	71.9429	1,803.22	69.605	1,803.22	72.3521	1,803.22	65.7097	1,803.22	67.5557	1,803.22	70.7393	1,803.22	67.2288	1,803.22	70.1906
1,866.21	87.0365	1,866.21	86.7108	1,866.21	86.744	1,866.21	85.9672	1,866.21	86.0114	1,866.21	84.9379	1,866.21	85.4226	1,866.21	83.3992	1,866.21	84.4414	1,866.21	81.4833	1,866.21	82.3619	1,866.21	80.0578	1,866.21	80.3657	1,866.21	78.8817	1,866.21	79.3158	1,866.21	76.9558	1,866.21	77.5276	1,866.21	73.9637	1,866.21	75.9472	1,866.21	71.788	1,866.21	75.4836	1,866.21	70.9224	1,866.21	74.4437	1,866.21	67.2885	1,866.21	70.8133	1,866.21	66.194	1,866.21	67.3758	1,866.21	71.7642	1,866.21	72.9205	1,866.21	70.2621	1,866.21	74.19	1,866.21	63.9925	1,866.21	67.6609	1,866.21	70.0157	1,866.21	65.4273	1,866.21	70.7411
1,932.13	86.09	1,932.13	85.6536	1,932.13	85.9961	1,932.13	84.7349	1,932.13	85.6905	1,932.13	83.8877	1,932.13	84.7526	1,932.13	83.1139	1,932.13	83.512	1,932.13	81.7307	1,932.13	82.421	1,932.13	79.8555	1,932.13	80.299	1,932.13	78.705	1,932.13	77.9449	1,932.13	77.3433	1,932.13	76.8809	1,932.13	75.2155	1,932.13	75.1524	1,932.13	74.3557	1,932.13	72.8264	1,932.13	73.4263	1,932.13	72.1492	1,932.13	70.0003	1,932.13	70.8662	1,932.13	66.5873	1,932.13	65.2825	1,932.13	69.8834	1,932.13	68.8135	1,932.13	70.456	1,932.13	71.9262	1,932.13	66.9901	1,932.13	66.4085	1,932.13	70.4561	1,932.13	64.0121	1,932.13	71.524
1,999.51	85.3296	1,999.51	84.9801	1,999.51	85.6956	1,999.51	84.7123	1,999.51	85.5128	1,999.51	83.8728	1,999.51	84.8239	1,999.51	82.5008	1,999.51	84.0383	1,999.51	80.8328	1,999.51	82.8467	1,999.51	78.916	1,999.51	81.2034	1,999.51	77.6215	1,999.51	79.4945	1,999.51	76.1235	1,999.51	77.4261	1,999.51	73.6967	1,999.51	75.3628	1,999.51	73.5112	1,999.51	73.5584	1,999.51	72.7631	1,999.51	73.0191	1,999.51	70.5529	1,999.51	71.7459	1,999.51	69.221	1,999.51	67.9416	1,999.51	69.3997	1,999.51	67.2633	1,999.51	69.6425	1,999.51	69.6103	1,999.51	67.2862	1,999.51	69.4466	1,999.51	72.1765	1,999.51	63.7346	1,999.51	71.5302
2,069.82	86.1453	2,069.82	85.8852	2,069.82	86.1648	2,069.82	85.281	2,069.82	85.8868	2,069.82	84.307	2,069.82	85.2565	2,069.82	83.1731	2,069.82	84.3523	2,069.82	81.8178	2,069.82	83.2135	2,069.82	79.6619	2,069.82	81.443	2,069.82	77.9143	2,069.82	79.7473	2,069.82	76.971	2,069.82	78.4565	2,069.82	74.3671	2,069.82	75.9062	2,069.82	72.2692	2,069.82	74.1655	2,069.82	72.0513	2,069.82	73.1028	2,069.82	69.868	2,069.82	71.391	2,069.82	68.9183	2,069.82	69.8043	2,069.82	71.2256	2,069.82	69.8319	2,069.82	68.063	2,069.82	71.5961	2,069.82	67.924	2,069.82	66.9545	2,069.82	70.8645	2,069.82	69.9134	2,069.82	72.199
2,143.07	85.9749	2,143.07	85.914	2,143.07	85.795	2,143.07	85.3073	2,143.07	85.7162	2,143.07	84.6952	2,143.07	85.4038	2,143.07	83.7147	2,143.07	84.5126	2,143.07	81.8907	2,143.07	83.2057	2,143.07	80.4174	2,143.07	81.1049	2,143.07	79.3693	2,143.07	79.1674	2,143.07	77.6482	2,143.07	77.5524	2,143.07	73.9949	2,143.07	75.7107	2,143.07	71.9836	2,143.07	74.0589	2,143.07	73.8916	2,143.07	70.3792	2,143.07	69.5228	2,143.07	70.523	2,143.07	63.6819	2,143.07	67.9791	2,143.07	66.4754	2,143.07	67.2223	2,143.07	64.2618	2,143.07	65.6632	2,143.07	63.2063	2,143.07	66.5907	2,143.07	72.4491	2,143.07	65.5465	2,143.07	73.1797
2,219.24	85.1304	2,219.24	85.1592	2,219.24	84.6814	2,219.24	84.6018	2,219.24	84.5639	2,219.24	84.1605	2,219.24	84.3008	2,219.24	83.0915	2,219.24	83.1533	2,219.24	81.3377	2,219.24	81.2582	2,219.24	79.8598	2,219.24	80.2406	2,219.24	78.2039	2,219.24	78.4987	2,219.24	76.1859	2,219.24	75.6375	2,219.24	74.9776	2,219.24	74.9902	2,219.24	72.037	2,219.24	72.7619	2,219.24	68.5332	2,219.24	68.336	2,219.24	68.8497	2,219.24	68.4209	2,219.24	68.5239	2,219.24	68.3329	2,219.24	69.6453	2,219.24	65.1722	2,219.24	67.8497	2,219.24	64.5179	2,219.24	62.1564	2,219.24	54.4552	2,219.24	71.256	2,219.24	66.0305	2,219.24	71.1641
2,296.88	84.7701	2,296.88	84.3871	2,296.88	84.5723	2,296.88	83.737	2,296.88	84.5189	2,296.88	83.2807	2,296.88	84.1056	2,296.88	82.5026	2,296.88	83.4716	2,296.88	81.3928	2,296.88	82.9509	2,296.88	79.5474	2,296.88	81.5062	2,296.88	77.544	2,296.88	79.2324	2,296.88	75.3067	2,296.88	76.5689	2,296.88	73.1955	2,296.88	74.3678	2,296.88	73.1544	2,296.88	72.7292	2,296.88	70.7492	2,296.88	70.6119	2,296.88	66.4144	2,296.88	70.7844	2,296.88	64.2818	2,296.88	68.9729	2,296.88	70.1414	2,296.88	67.5598	2,296.88	67.8323	2,296.88	69.7833	2,296.88	49.4183	2,296.88	66.496	2,296.88	67.9354	2,296.88	60.5529	2,296.88	69.4014
2,378.91	85.4462	2,378.91	85.3815	2,378.91	85.3064	2,378.91	85.1554	2,378.91	85.2213	2,378.91	84.3521	2,378.91	85.3508	2,378.91	83.5754	2,378.91	84.6068	2,378.91	82.0293	2,378.91	83.3289	2,378.91	80.0266	2,378.91	81.8155	2,378.91	78.1497	2,378.91	80.0795	2,378.91	75.4788	2,378.91	78.4713	2,378.91	74.4281	2,378.91	76.8113	2,378.91	71.6303	2,378.91	74.1665	2,378.91	72.0258	2,378.91	72.0854	2,378.91	71.432	2,378.91	72.8871	2,378.91	64.9746	2,378.91	68.7596	2,378.91	69.424	2,378.91	68.9681	2,378.91	71.0835	2,378.91	72.04	2,378.91	64.5902	2,378.91	69.8261	2,378.91	65.4608	2,378.91	61.1146	2,378.91	67.8768
2,462.4	85.0445	2,462.4	85.0558	2,462.4	84.967	2,462.4	85.091	2,462.4	84.9036	2,462.4	84.7774	2,462.4	84.9753	2,462.4	84.0652	2,462.4	84.3546	2,462.4	82.6864	2,462.4	83.1918	2,462.4	80.8816	2,462.4	81.3871	2,462.4	79.07	2,462.4	79.5365	2,462.4	76.0021	2,462.4	77.1836	2,462.4	74.1426	2,462.4	74.3855	2,462.4	72.6556	2,462.4	72.9581	2,462.4	69.2609	2,462.4	70.0895	2,462.4	71.6973	2,462.4	70.0311	2,462.4	68.1796	2,462.4	69.0255	2,462.4	66.7266	2,462.4	65.0303	2,462.4	70.2843	2,462.4	69.7682	2,462.4	66.572	2,462.4	68.9021	2,462.4	64.2386	2,462.4	65.8631	2,462.4	68.7551
2,548.83	84.7202	2,548.83	85.0037	2,548.83	84.555	2,548.83	84.8981	2,548.83	84.7242	2,548.83	84.554	2,548.83	84.4579	2,548.83	83.3948	2,548.83	83.9507	2,548.83	82.0668	2,548.83	82.8876	2,548.83	80.3528	2,548.83	81.2287	2,548.83	78.3832	2,548.83	79.0392	2,548.83	75.9656	2,548.83	76.9574	2,548.83	73.6633	2,548.83	74.3629	2,548.83	72.9214	2,548.83	72.6872	2,548.83	70.851	2,548.83	70.6711	2,548.83	69.7592	2,548.83	68.6451	2,548.83	68.1409	2,548.83	69.3404	2,548.83	69.3239	2,548.83	62.2456	2,548.83	69.8505	2,548.83	68.3033	2,548.83	66.9571	2,548.83	69.1706	2,548.83	70.6507	2,548.83	60.8779	2,548.83	70.5923
2,639.65	85.5098	2,639.65	85.713	2,639.65	85.5829	2,639.65	85.7043	2,639.65	85.699	2,639.65	85.1313	2,639.65	85.5996	2,639.65	84.0714	2,639.65	85.1075	2,639.65	82.334	2,639.65	84.0231	2,639.65	80.1329	2,639.65	82.175	2,639.65	77.7762	2,639.65	79.8607	2,639.65	75.5938	2,639.65	77.7918	2,639.65	73.4797	2,639.65	75.5587	2,639.65	71.4122	2,639.65	73.2702	2,639.65	69.2359	2,639.65	71.9749	2,639.65	71.3119	2,639.65	68.6037	2,639.65	67.1084	2,639.65	69.3224	2,639.65	66.1988	2,639.65	64.5719	2,639.65	70.177	2,639.65	68.8509	2,639.65	67.1258	2,639.65	69.608	2,639.65	70.1795	2,639.65	66.9638	2,639.65	69.2987
2,731.93	85.8005	2,731.93	86.1105	2,731.93	85.7632	2,731.93	86.257	2,731.93	86.0576	2,731.93	86.0071	2,731.93	86.1436	2,731.93	85.1421	2,731.93	85.5977	2,731.93	83.5218	2,731.93	84.4988	2,731.93	81.5079	2,731.93	82.8149	2,731.93	79.3911	2,731.93	80.1937	2,731.93	77.3659	2,731.93	78.0693	2,731.93	74.4805	2,731.93	75.9773	2,731.93	72.6324	2,731.93	73.0493	2,731.93	71.3225	2,731.93	72.2368	2,731.93	69.2514	2,731.93	69.5425	2,731.93	68.6345	2,731.93	70.6604	2,731.93	66.5957	2,731.93	66.9536	2,731.93	69.9973	2,731.93	69.2222	2,731.93	66.8115	2,731.93	68.3439	2,731.93	68.7977	2,731.93	65.3131	2,731.93	69.3662
2,828.61	85.6158	2,828.61	85.977	2,828.61	85.608	2,828.61	86.3714	2,828.61	85.8478	2,828.61	86.2378	2,828.61	86.1349	2,828.61	85.5106	2,828.61	85.7806	2,828.61	83.8271	2,828.61	84.61	2,828.61	81.5416	2,828.61	82.6341	2,828.61	79.3911	2,828.61	80.3401	2,828.61	77.6545	2,828.61	78.2247	2,828.61	74.5701	2,828.61	76.1217	2,828.61	73.3364	2,828.61	73.3192	2,828.61	71.3344	2,828.61	72.4795	2,828.61	73.1599	2,828.61	69.3862	2,828.61	71.1728	2,828.61	70.1837	2,828.61	65.1619	2,828.61	69.1711	2,828.61	72.2614	2,828.61	69.3241	2,828.61	68.4775	2,828.61	71.2178	2,828.61	70.2925	2,828.61	63.0064	2,828.61	71.183
2,928.22	85.3366	2,928.22	85.9539	2,928.22	85.4171	2,928.22	86.482	2,928.22	86.0708	2,928.22	86.5009	2,928.22	86.3028	2,928.22	85.5818	2,928.22	85.9991	2,928.22	83.9388	2,928.22	84.5395	2,928.22	81.8353	2,928.22	82.5158	2,928.22	79.4763	2,928.22	80.544	2,928.22	77.3743	2,928.22	78.3745	2,928.22	74.0811	2,928.22	76.4022	2,928.22	72.5372	2,928.22	73.8695	2,928.22	72.2881	2,928.22	72.568	2,928.22	67.8269	2,928.22	71.1247	2,928.22	70.5724	2,928.22	69.4528	2,928.22	68.0376	2,928.22	68.0728	2,928.22	72.5994	2,928.22	69.7702	2,928.22	66.4279	2,928.22	72.1959	2,928.22	69.8335	2,928.22	65.713	2,928.22	72.0415
3,030.76	84.7295	3,030.76	85.4273	3,030.76	84.6068	3,030.76	86.0167	3,030.76	85.672	3,030.76	86.0874	3,030.76	85.8738	3,030.76	85.0181	3,030.76	85.5991	3,030.76	83.2633	3,030.76	84.4044	3,030.76	81.5526	3,030.76	82.5281	3,030.76	79.1524	3,030.76	80.5805	3,030.76	76.4365	3,030.76	78.4098	3,030.76	74.5434	3,030.76	76.729	3,030.76	72.4352	3,030.76	74.0839	3,030.76	71.2042	3,030.76	72.7869	3,030.76	67.3846	3,030.76	71.3269	3,030.76	70.9258	3,030.76	69.7601	3,030.76	66.87	3,030.76	67.5034	3,030.76	71.9625	3,030.76	69.4375	3,030.76	67.2434	3,030.76	72.3394	3,030.76	70.122	3,030.76	64.1335	3,030.76	72.4951
3,137.7	84.5847	3,137.7	85.2324	3,137.7	84.6538	3,137.7	85.7697	3,137.7	85.3556	3,137.7	85.6435	3,137.7	85.6934	3,137.7	84.7507	3,137.7	85.467	3,137.7	82.9035	3,137.7	84.0872	3,137.7	80.8565	3,137.7	82.4153	3,137.7	78.802	3,137.7	80.2861	3,137.7	76.4215	3,137.7	77.7222	3,137.7	75.0114	3,137.7	76.2641	3,137.7	72.6258	3,137.7	74.1869	3,137.7	71.8231	3,137.7	71.525	3,137.7	70.438	3,137.7	69.0818	3,137.7	68.0874	3,137.7	68.5891	3,137.7	64.4429	3,137.7	68.0004	3,137.7	71.942	3,137.7	68.1598	3,137.7	69.0449	3,137.7	71.9773	3,137.7	71.0085	3,137.7	64.3492	3,137.7	71.0464
3,249.02	84.1964	3,249.02	84.8258	3,249.02	84.2957	3,249.02	85.4107	3,249.02	84.85	3,249.02	85.2804	3,249.02	85.1065	3,249.02	84.461	3,249.02	84.8491	3,249.02	82.7388	3,249.02	83.6349	3,249.02	81.012	3,249.02	81.9271	3,249.02	79.0227	3,249.02	79.839	3,249.02	76.5407	3,249.02	77.781	3,249.02	74.7246	3,249.02	75.7526	3,249.02	72.4682	3,249.02	73.7364	3,249.02	70.3965	3,249.02	71.1157	3,249.02	69.3112	3,249.02	69.6433	3,249.02	71.1623	3,249.02	68.1122	3,249.02	63.8209	3,249.02	68.9302	3,249.02	71.6313	3,249.02	64.6285	3,249.02	68.5976	3,249.02	71.5615	3,249.02	67.5779	3,249.02	65.0002	3,249.02	69.824
3,363.28	84.1348	3,363.28	84.2894	3,363.28	84.1702	3,363.28	84.9411	3,363.28	84.5817	3,363.28	84.9795	3,363.28	84.8555	3,363.28	83.9325	3,363.28	84.7442	3,363.28	82.5071	3,363.28	83.5679	3,363.28	80.6649	3,363.28	81.594	3,363.28	78.315	3,363.28	79.6848	3,363.28	76.4527	3,363.28	78.0786	3,363.28	74.9844	3,363.28	76.1122	3,363.28	72.9351	3,363.28	73.9786	3,363.28	70.5155	3,363.28	71.4291	3,363.28	68.746	3,363.28	70.144	3,363.28	70.6784	3,363.28	69.5663	3,363.28	66.6662	3,363.28	68.4235	3,363.28	70.907	3,363.28	63.4702	3,363.28	66.0309	3,363.28	70.6953	3,363.28	67.1215	3,363.28	63.9851	3,363.28	70.2229
3,481.93	84.1999	3,481.93	84.2281	3,481.93	84.2438	3,481.93	84.8531	3,481.93	84.1819	3,481.93	84.6117	3,481.93	84.3	3,481.93	83.4248	3,481.93	84.0077	3,481.93	82.3275	3,481.93	82.9653	3,481.93	80.5474	3,481.93	81.0992	3,481.93	78.2125	3,481.93	79.4618	3,481.93	76.3846	3,481.93	77.5074	3,481.93	74.9167	3,481.93	75.9741	3,481.93	73.017	3,481.93	74.7805	3,481.93	70.0359	3,481.93	72.6354	3,481.93	65.9853	3,481.93	68.4181	3,481.93	68.7767	3,481.93	66.2033	3,481.93	66.3489	3,481.93	67.8669	3,481.93	69.5864	3,481.93	62.8919	3,481.93	66.0473	3,481.93	69.5238	3,481.93	69.054	3,481.93	60.8291	3,481.93	71.1091
3,604.98	84.9064	3,604.98	84.5035	3,604.98	84.7167	3,604.98	84.2467	3,604.98	84.8041	3,604.98	84.6922	3,604.98	84.3618	3,604.98	84.0504	3,604.98	83.945	3,604.98	82.621	3,604.98	82.5906	3,604.98	80.767	3,604.98	81.4352	3,604.98	79.1558	3,604.98	80.2116	3,604.98	76.8979	3,604.98	78.5589	3,604.98	74.7269	3,604.98	76.1155	3,604.98	72.0469	3,604.98	74	3,604.98	69.2075	3,604.98	71.3543	3,604.98	67.8363	3,604.98	69.9797	3,604.98	66.146	3,604.98	66.5599	3,604.98	64.6444	3,604.98	67.3985	3,604.98	69.3949	3,604.98	64.3675	3,604.98	68.3221	3,604.98	70.0126	3,604.98	68.1933	3,604.98	61.9431	3,604.98	70.677
3,732.42	84.8675	3,732.42	84.4166	3,732.42	85.1545	3,732.42	84.159	3,732.42	84.1317	3,732.42	83.2119	3,732.42	83.7805	3,732.42	83.1546	3,732.42	83.4849	3,732.42	82.0968	3,732.42	83.2154	3,732.42	80.6948	3,732.42	81.9287	3,732.42	78.9902	3,732.42	80.0855	3,732.42	77.5884	3,732.42	78.4297	3,732.42	75.3323	3,732.42	76.1549	3,732.42	73.3573	3,732.42	73.7929	3,732.42	70.2449	3,732.42	71.503	3,732.42	68.435	3,732.42	69.7006	3,732.42	68.341	3,732.42	67.286	3,732.42	66.1459	3,732.42	67.0213	3,732.42	69.1872	3,732.42	63.2742	3,732.42	67.8221	3,732.42	69.7318	3,732.42	69.1691	3,732.42	63.4719	3,732.42	70.7705
3,864.26	85.5425	3,864.26	84.9441	3,864.26	85.371	3,864.26	84.2819	3,864.26	84.5193	3,864.26	83.9868	3,864.26	83.7736	3,864.26	83.0469	3,864.26	83.543	3,864.26	82.9482	3,864.26	83.0102	3,864.26	81.5042	3,864.26	82.2436	3,864.26	79.3662	3,864.26	80.9261	3,864.26	77.5279	3,864.26	78.4144	3,864.26	74.5212	3,864.26	76.0726	3,864.26	72.3319	3,864.26	74.2845	3,864.26	70.4685	3,864.26	72.7107	3,864.26	66.3387	3,864.26	68.8793	3,864.26	67.2101	3,864.26	67.5317	3,864.26	64.8268	3,864.26	68.3201	3,864.26	68.4646	3,864.26	64.2116	3,864.26	64.2908	3,864.26	69.0542	3,864.26	68.7785	3,864.26	63.927	3,864.26	71.4599
4,000.49	86.0474	4,000.49	84.9958	4,000.49	85.7039	4,000.49	83.815	4,000.49	84.8747	4,000.49	84.6973	4,000.49	83.5921	4,000.49	84.0427	4,000.49	83.3157	4,000.49	82.9076	4,000.49	82.8926	4,000.49	81.821	4,000.49	82.3592	4,000.49	79.8603	4,000.49	80.6186	4,000.49	76.5829	4,000.49	78.6865	4,000.49	74.6785	4,000.49	75.457	4,000.49	72.4148	4,000.49	72.6029	4,000.49	70.1879	4,000.49	70.4688	4,000.49	67.083	4,000.49	68.1087	4,000.49	67.933	4,000.49	66.1864	4,000.49	66.942	4,000.49	67.6518	4,000.49	67.4501	4,000.49	65.3363	4,000.49	67.1885	4,000.49	67.1193	4,000.49	68.5939	4,000.49	62.6481	4,000.49	71.8506
4,141.11	86.5943	4,141.11	84.6292	4,141.11	86.7923	4,141.11	83.7044	4,141.11	84.6504	4,141.11	83.0101	4,141.11	83.961	4,141.11	83.1785	4,141.11	83.6391	4,141.11	82.2963	4,141.11	83.8376	4,141.11	81.2698	4,141.11	82.5641	4,141.11	78.8731	4,141.11	80.4255	4,141.11	76.5057	4,141.11	77.8385	4,141.11	72.9263	4,141.11	75.1625	4,141.11	70.2199	4,141.11	73.1385	4,141.11	68.0129	4,141.11	71.5456	4,141.11	66.9886	4,141.11	69.2697	4,141.11	67.539	4,141.11	65.0855	4,141.11	66.6634	4,141.11	63.6067	4,141.11	65.9651	4,141.11	65.5976	4,141.11	66.419	4,141.11	66.7233	4,141.11	68.1015	4,141.11	62.9153	4,141.11	70.2559
4,287.6	86.5088	4,287.6	85.3933	4,287.6	86.3283	4,287.6	83.2009	4,287.6	85.4711	4,287.6	82.6035	4,287.6	83.9041	4,287.6	82.5808	4,287.6	84.3262	4,287.6	83.1872	4,287.6	83.6892	4,287.6	80.6673	4,287.6	81.7671	4,287.6	78.9521	4,287.6	79.9685	4,287.6	77.5942	4,287.6	77.441	4,287.6	74.59	4,287.6	74.5644	4,287.6	72.0505	4,287.6	72.1601	4,287.6	70.4968	4,287.6	69.7889	4,287.6	68.1658	4,287.6	66.4062	4,287.6	65.7289	4,287.6	65.1476	4,287.6	65.695	4,287.6	65.6148	4,287.6	67.1573	4,287.6	66.0953	4,287.6	65.7086	4,287.6	66.3367	4,287.6	69.4134	4,287.6	62.5072	4,287.6	70.8384
4,438.48	87.1354	4,438.48	85.2946	4,438.48	86.8798	4,438.48	83.7246	4,438.48	84.855	4,438.48	83.807	4,438.48	83.7525	4,438.48	84.04	4,438.48	83.1277	4,438.48	82.8817	4,438.48	82.3044	4,438.48	81.4415	4,438.48	81.9894	4,438.48	79.0708	4,438.48	79.4618	4,438.48	74.7419	4,438.48	76.8066	4,438.48	72.9181	4,438.48	73.8422	4,438.48	70.2933	4,438.48	70.8466	4,438.48	68.825	4,438.48	68.5866	4,438.48	65.9644	4,438.48	67.3119	4,438.48	64.4731	4,438.48	65.1849	4,438.48	63.7586	4,438.48	62.7481	4,438.48	67.6675	4,438.48	63.5263	4,438.48	64.8106	4,438.48	65.5221	4,438.48	67.851	4,438.48	63.9448	4,438.48	69.4147
4,595.21	86.9493	4,595.21	84.8108	4,595.21	87.247	4,595.21	82.9778	4,595.21	85.1875	4,595.21	82.0223	4,595.21	84.0358	4,595.21	82.7947	4,595.21	83.4014	4,595.21	82.0758	4,595.21	83.5879	4,595.21	80.6843	4,595.21	81.2302	4,595.21	78.2833	4,595.21	78.9736	4,595.21	76.1889	4,595.21	76.5695	4,595.21	73.5998	4,595.21	73.4235	4,595.21	71.5744	4,595.21	71.4709	4,595.21	69.0415	4,595.21	69.0621	4,595.21	66.0634	4,595.21	68.0461	4,595.21	67.0186	4,595.21	64.1303	4,595.21	63.4313	4,595.21	62.724	4,595.21	64.6602	4,595.21	61.8725	4,595.21	64.7377	4,595.21	64.2076	4,595.21	68.2471	4,595.21	64.9984	4,595.21	70.7267
4,756.35	87.2572	4,756.35	86.1648	4,756.35	86.7672	4,756.35	83.32	4,756.35	85.7968	4,756.35	83.5535	4,756.35	83.6965	4,756.35	82.8948	4,756.35	84.0961	4,756.35	82.7884	4,756.35	82.9725	4,756.35	80.6107	4,756.35	81.1614	4,756.35	78.3392	4,756.35	78.9096	4,756.35	76.0049	4,756.35	76.7235	4,756.35	74.1688	4,756.35	74.4744	4,756.35	70.4294	4,756.35	72.3428	4,756.35	67.478	4,756.35	69.9998	4,756.35	66.9274	4,756.35	66.1477	4,756.35	64.8684	4,756.35	64.5336	4,756.35	62.8021	4,756.35	62.2963	4,756.35	63.2672	4,756.35	60.5458	4,756.35	63.5756	4,756.35	63.9189	4,756.35	67.4729	4,756.35	61.4528	4,756.35	69.6152
4,924.8	87.0328	4,924.8	84.7433	4,924.8	87.0535	4,924.8	84.2032	4,924.8	84.7172	4,924.8	83.2206	4,924.8	84.0977	4,924.8	83.3246	4,924.8	82.9034	4,924.8	82.1584	4,924.8	82.8702	4,924.8	80.3374	4,924.8	81.6367	4,924.8	78.4259	4,924.8	79.6843	4,924.8	76.2425	4,924.8	77.8609	4,924.8	73.3689	4,924.8	74.2083	4,924.8	70.1487	4,924.8	72.7049	4,924.8	70.2304	4,924.8	69.6544	4,924.8	64.4596	4,924.8	67.9059	4,924.8	64.4876	4,924.8	64.5197	4,924.8	64.9232	4,924.8	63.5941	4,924.8	60.4533	4,924.8	62.0604	4,924.8	65.3833	4,924.8	62.9407	4,924.8	66.5604	4,924.8	64.9479	4,924.8	68.818
5,097.66	86.4972	5,097.66	85.9743	5,097.66	86.1479	5,097.66	83.883	5,097.66	84.9791	5,097.66	83.0521	5,097.66	83.8068	5,097.66	82.8192	5,097.66	83.8268	5,097.66	82.2082	5,097.66	83.3069	5,097.66	80.2843	5,097.66	81.9384	5,097.66	78.4158	5,097.66	80.405	5,097.66	76.1171	5,097.66	77.2457	5,097.66	71.7015	5,097.66	74.9126	5,097.66	69.7482	5,097.66	72.3713	5,097.66	68.7682	5,097.66	70.0139	5,097.66	64.9698	5,097.66	67.6449	5,097.66	63.1748	5,097.66	63.5586	5,097.66	61.5929	5,097.66	63.9747	5,097.66	63.331	5,097.66	59.5711	5,097.66	64.1761	5,097.66	61.179	5,097.66	66.5609	5,097.66	64.6143	5,097.66	68.4552
5,277.83	86.5131	5,277.83	85.8274	5,277.83	86.2846	5,277.83	85.2982	5,277.83	84.9805	5,277.83	84.0414	5,277.83	84.1267	5,277.83	82.7988	5,277.83	83.7417	5,277.83	81.2706	5,277.83	83.2825	5,277.83	79.2961	5,277.83	82.1673	5,277.83	77.2779	5,277.83	80.0562	5,277.83	73.5497	5,277.83	78.019	5,277.83	72.8651	5,277.83	74.6618	5,277.83	70.3598	5,277.83	71.6961	5,277.83	68.2291	5,277.83	70.0185	5,277.83	67.9074	5,277.83	68.4295	5,277.83	61.6205	5,277.83	65.5184	5,277.83	61.2187	5,277.83	63.2213	5,277.83	58.803	5,277.83	57.7516	5,277.83	63.4502	5,277.83	62.5656	5,277.83	65.2412	5,277.83	63.6145	5,277.83	66.5658
5,463.87	85.4231	5,463.87	85.5004	5,463.87	85.1119	5,463.87	84.8374	5,463.87	84.7019	5,463.87	83.462	5,463.87	84.0916	5,463.87	82.448	5,463.87	83.3953	5,463.87	81.5785	5,463.87	83.2673	5,463.87	80.1323	5,463.87	82.156	5,463.87	77.4948	5,463.87	79.8553	5,463.87	75.4459	5,463.87	77.0792	5,463.87	73.0506	5,463.87	74.4378	5,463.87	69.0414	5,463.87	72.2739	5,463.87	68.251	5,463.87	68.2168	5,463.87	65.5349	5,463.87	67.6965	5,463.87	62.2754	5,463.87	65.0374	5,463.87	59.2568	5,463.87	64.6808	5,463.87	58.8323	5,463.87	56.589	5,463.87	63.6405	5,463.87	58.5785	5,463.87	66.0443	5,463.87	62.3412	5,463.87	66.8058
5,657.23	84.971	5,657.23	85.6433	5,657.23	84.9788	5,657.23	85.3162	5,657.23	84.8448	5,657.23	84.0894	5,657.23	84.0738	5,657.23	82.6318	5,657.23	83.4246	5,657.23	82.0071	5,657.23	82.9301	5,657.23	80.0293	5,657.23	81.5069	5,657.23	76.6266	5,657.23	79.4824	5,657.23	73.494	5,657.23	76.5241	5,657.23	70.8557	5,657.23	73.3301	5,657.23	67.9848	5,657.23	70.7764	5,657.23	66.4743	5,657.23	68.6484	5,657.23	64.6244	5,657.23	65.9121	5,657.23	61.5566	5,657.23	63.8188	5,657.23	57.4944	5,657.23	62.5993	5,657.23	60.0631	5,657.23	58.4496	5,657.23	60.2052	5,657.23	58.0604	5,657.23	64.7264	5,657.23	62.9487	5,657.23	65.4313
5,856.45	84.2995	5,856.45	85.1466	5,856.45	84.5664	5,856.45	85.2534	5,856.45	84.697	5,856.45	83.3972	5,856.45	84.1672	5,856.45	82.2576	5,856.45	83.1487	5,856.45	80.9656	5,856.45	82.5476	5,856.45	78.7907	5,856.45	80.9203	5,856.45	76.2197	5,856.45	78.0126	5,856.45	74.1908	5,856.45	75.4746	5,856.45	71.4151	5,856.45	71.8252	5,856.45	68.7593	5,856.45	69.911	5,856.45	65.6039	5,856.45	66.4235	5,856.45	61.3173	5,856.45	65.7096	5,856.45	61.987	5,856.45	63.2449	5,856.45	57.3562	5,856.45	58.3536	5,856.45	61.0076	5,856.45	58.4463	5,856.45	62.689	5,856.45	56.8962	5,856.45	62.602	5,856.45	61.5857	5,856.45	65.5928
6,062.99	83.8517	6,062.99	84.965	6,062.99	84.1854	6,062.99	84.6945	6,062.99	84.63	6,062.99	83.1813	6,062.99	84.0808	6,062.99	82.0435	6,062.99	82.8603	6,062.99	81.5212	6,062.99	82.4523	6,062.99	80.0104	6,062.99	80.4409	6,062.99	76.7682	6,062.99	78.2686	6,062.99	73.2118	6,062.99	75.3983	6,062.99	70.7384	6,062.99	71.9457	6,062.99	66.5711	6,062.99	69.5023	6,062.99	65.95	6,062.99	66.2704	6,062.99	61.9953	6,062.99	63.3572	6,062.99	62.4374	6,062.99	62.4763	6,062.99	58.3514	6,062.99	59.1295	6,062.99	59.3686	6,062.99	55.1357	6,062.99	61.8554	6,062.99	56.153	6,062.99	61.189	6,062.99	60.6156	6,062.99	63.4361
6,276.86	83.8145	6,276.86	85.1441	6,276.86	84.0586	6,276.86	84.8036	6,276.86	84.9055	6,276.86	83.2475	6,276.86	83.7144	6,276.86	82.6116	6,276.86	82.6349	6,276.86	81.9406	6,276.86	81.9784	6,276.86	79.0008	6,276.86	80.5005	6,276.86	75.5832	6,276.86	77.8038	6,276.86	74.3116	6,276.86	75.3971	6,276.86	71.1475	6,276.86	72.3399	6,276.86	67.6114	6,276.86	69.1249	6,276.86	64.4889	6,276.86	67.094	6,276.86	63.842	6,276.86	63.2358	6,276.86	59.5096	6,276.86	64.4133	6,276.86	54.7189	6,276.86	62.5421	6,276.86	55.4774	6,276.86	54.493	6,276.86	61.6534	6,276.86	55.344	6,276.86	61.8121	6,276.86	60.7855	6,276.86	62.1486
6,498.05	84.171	6,498.05	85.4702	6,498.05	84.4742	6,498.05	84.8911	6,498.05	85.1354	6,498.05	83.3547	6,498.05	84.1106	6,498.05	82.8013	6,498.05	82.74	6,498.05	81.9277	6,498.05	82.1537	6,498.05	79.3801	6,498.05	81.2326	6,498.05	76.3945	6,498.05	79.0892	6,498.05	72.8323	6,498.05	76.0652	6,498.05	69.3269	6,498.05	72.3486	6,498.05	67.8088	6,498.05	69.6564	6,498.05	65.0669	6,498.05	67.4603	6,498.05	64.483	6,498.05	65.2991	6,498.05	62.0418	6,498.05	62.9835	6,498.05	57.2915	6,498.05	63.751	6,498.05	55.0377	6,498.05	56.6679	6,498.05	60.1054	6,498.05	53.4546	6,498.05	57.8802	6,498.05	63.0353	6,498.05	62.4889
6,726.56	84.0685	6,726.56	84.7744	6,726.56	84.4978	6,726.56	84.2635	6,726.56	84.8369	6,726.56	82.9879	6,726.56	83.934	6,726.56	82.7123	6,726.56	82.8569	6,726.56	81.6634	6,726.56	82.7031	6,726.56	78.949	6,726.56	81.4099	6,726.56	76.0519	6,726.56	78.8612	6,726.56	73.6206	6,726.56	76.313	6,726.56	70.4811	6,726.56	72.8519	6,726.56	67.4826	6,726.56	69.4997	6,726.56	64.6588	6,726.56	68.0584	6,726.56	63.9941	6,726.56	64.995	6,726.56	60.3035	6,726.56	64.3342	6,726.56	55.7729	6,726.56	62.8586	6,726.56	56.4371	6,726.56	59.2187	6,726.56	58.0925	6,726.56	55.4109	6,726.56	58.5411	6,726.56	62.0166	6,726.56	62.6898
6,963.87	83.6039	6,963.87	84.3711	6,963.87	84.2188	6,963.87	84.1451	6,963.87	84.4757	6,963.87	83.1927	6,963.87	83.8544	6,963.87	82.6359	6,963.87	82.619	6,963.87	81.3699	6,963.87	82.2755	6,963.87	79.4278	6,963.87	81.3792	6,963.87	77.0101	6,963.87	79.2282	6,963.87	73.7832	6,963.87	76.4857	6,963.87	70.2624	6,963.87	72.7423	6,963.87	67.6846	6,963.87	69.9696	6,963.87	64.5002	6,963.87	67.3082	6,963.87	65.1681	6,963.87	65.503	6,963.87	61.6315	6,963.87	63.9156	6,963.87	60.0236	6,963.87	63.6122	6,963.87	56.7148	6,963.87	56.6011	6,963.87	56.9291	6,963.87	54.7556	6,963.87	56.6322	6,963.87	60.8878	6,963.87	61.4429
7,209.96	83.5142	7,209.96	83.6838	7,209.96	83.9036	7,209.96	83.6715	7,209.96	84.0134	7,209.96	82.7912	7,209.96	83.3175	7,209.96	81.7954	7,209.96	82.0553	7,209.96	80.8595	7,209.96	81.8849	7,209.96	79.1691	7,209.96	80.5787	7,209.96	76.5824	7,209.96	78.2701	7,209.96	73.5834	7,209.96	75.8713	7,209.96	69.6598	7,209.96	72.8742	7,209.96	67.4874	7,209.96	68.9586	7,209.96	64.6394	7,209.96	67.174	7,209.96	63.3118	7,209.96	65.6346	7,209.96	60.0037	7,209.96	63.5554	7,209.96	57.2865	7,209.96	60.4501	7,209.96	56.6786	7,209.96	58.8699	7,209.96	53.5735	7,209.96	55.6063	7,209.96	56.6478	7,209.96	58.9053	7,209.96	60.834
7,464.84	83.454	7,464.84	83.0736	7,464.84	83.665	7,464.84	83.2236	7,464.84	83.3558	7,464.84	81.6516	7,464.84	82.8585	7,464.84	81.0118	7,464.84	80.8655	7,464.84	80.3774	7,464.84	80.5922	7,464.84	78.8237	7,464.84	79.9423	7,464.84	76.2388	7,464.84	78.1277	7,464.84	72.7858	7,464.84	75.2116	7,464.84	69.5133	7,464.84	71.6637	7,464.84	67.1737	7,464.84	68.9788	7,464.84	63.7944	7,464.84	65.4465	7,464.84	62.8839	7,464.84	62.527	7,464.84	59.4242	7,464.84	61.2267	7,464.84	58.8042	7,464.84	60.7561	7,464.84	56.2049	7,464.84	54.879	7,464.84	54.1548	7,464.84	54.1998	7,464.84	56.416	7,464.84	57.5778	7,464.84	59.0366
7,727.05	83.2971	7,727.05	82.4749	7,727.05	83.312	7,727.05	82.922	7,727.05	82.9057	7,727.05	81.2162	7,727.05	82.0376	7,727.05	80.6356	7,727.05	80.704	7,727.05	80.0566	7,727.05	80.4834	7,727.05	78.0953	7,727.05	79.3689	7,727.05	73.9924	7,727.05	76.6049	7,727.05	71.1746	7,727.05	73.233	7,727.05	68.3109	7,727.05	70.9487	7,727.05	65.145	7,727.05	66.9706	7,727.05	61.815	7,727.05	64.2099	7,727.05	60.7466	7,727.05	61.3582	7,727.05	56.8443	7,727.05	59.7127	7,727.05	57.5997	7,727.05	55.6064	7,727.05	55.6529	7,727.05	57.2447	7,727.05	55.236	7,727.05	51.3992	7,727.05	56.9341	7,727.05	58.6177	7,727.05	56.4185
7,999.51	83.4018	7,999.51	82.7285	7,999.51	83.1215	7,999.51	83.0921	7,999.51	83.089	7,999.51	81.0421	7,999.51	82.5796	7,999.51	80.5386	7,999.51	80.5127	7,999.51	80.0494	7,999.51	79.8304	7,999.51	77.5319	7,999.51	78.9328	7,999.51	72.5467	7,999.51	76.0968	7,999.51	71.2947	7,999.51	72.8122	7,999.51	68.0982	7,999.51	69.8863	7,999.51	64.5611	7,999.51	65.2924	7,999.51	60.82	7,999.51	63.941	7,999.51	59.7485	7,999.51	58.4448	7,999.51	52.9572	7,999.51	61.5614	7,999.51	57.2013	7,999.51	58.4992	7,999.51	56.5969	7,999.51	57.6661	7,999.51	53.9092	7,999.51	53.2542	7,999.51	55.4815	7,999.51	55.3369	7,999.51	56.1197
8,282.23	84.1547	8,282.23	83.0828	8,282.23	83.958	8,282.23	83.1715	8,282.23	83.3242	8,282.23	81.154	8,282.23	82.7147	8,282.23	80.3965	8,282.23	80.6066	8,282.23	79.8799	8,282.23	80.2576	8,282.23	77.4001	8,282.23	79.273	8,282.23	73.4116	8,282.23	76.3984	8,282.23	70.189	8,282.23	72.9598	8,282.23	66.9149	8,282.23	69.3979	8,282.23	64.618	8,282.23	65.9664	8,282.23	61.318	8,282.23	64.6723	8,282.23	58.1518	8,282.23	58.2128	8,282.23	56.5523	8,282.23	59.7182	8,282.23	58.2059	8,282.23	54.7638	8,282.23	48.8908	8,282.23	55.8353	8,282.23	50.7198	8,282.23	53.174	8,282.23	56.1264	8,282.23	55.5987	8,282.23	54.8158
8,573.73	84.6345	8,573.73	83.6101	8,573.73	84.6907	8,573.73	83.6747	8,573.73	83.7765	8,573.73	81.3916	8,573.73	82.9173	8,573.73	80.8701	8,573.73	81.2643	8,573.73	79.6641	8,573.73	80.5777	8,573.73	77.3115	8,573.73	78.9508	8,573.73	73.5845	8,573.73	76.2039	8,573.73	70.2283	8,573.73	72.3806	8,573.73	66.1777	8,573.73	69.4199	8,573.73	64.9708	8,573.73	64.9815	8,573.73	61.0835	8,573.73	63.9428	8,573.73	57.7496	8,573.73	59.0648	8,573.73	57.2348	8,573.73	59.7341	8,573.73	58.6586	8,573.73	57.1773	8,573.73	46.4595	8,573.73	57.4107	8,573.73	52.1239	8,573.73	55.1996	8,573.73	56.147	8,573.73	54.7858	8,573.73	56.7377
8,876.95	84.565	8,876.95	83.6488	8,876.95	84.3892	8,876.95	83.3176	8,876.95	83.9837	8,876.95	81.3922	8,876.95	82.9425	8,876.95	80.5713	8,876.95	81.5929	8,876.95	79.2441	8,876.95	79.9722	8,876.95	76.7578	8,876.95	78.5421	8,876.95	73.0981	8,876.95	75.7523	8,876.95	70.9758	8,876.95	72.4114	8,876.95	66.6474	8,876.95	69.7119	8,876.95	62.7961	8,876.95	66.1803	8,876.95	60.1927	8,876.95	64.1807	8,876.95	57.5839	8,876.95	59.6548	8,876.95	54.4173	8,876.95	60.0947	8,876.95	59.1744	8,876.95	58.2507	8,876.95	48.3372	8,876.95	56.0246	8,876.95	50.9566	8,876.95	53.1613	8,876.95	56.4354	8,876.95	56.2809	8,876.95	53.008
9,188.96	84.2428	9,188.96	83.5577	9,188.96	84.0579	9,188.96	83.0199	9,188.96	83.7568	9,188.96	81.4249	9,188.96	82.8554	9,188.96	80.119	9,188.96	81.4037	9,188.96	78.581	9,188.96	79.1126	9,188.96	75.9184	9,188.96	77.9822	9,188.96	71.7749	9,188.96	75.1887	9,188.96	69.0218	9,188.96	71.7099	9,188.96	65.0582	9,188.96	67.9219	9,188.96	60.4032	9,188.96	65.9675	9,188.96	60.3127	9,188.96	61.0765	9,188.96	58.2043	9,188.96	59.7667	9,188.96	54.6136	9,188.96	59.4242	9,188.96	59.565	9,188.96	57.4672	9,188.96	50.758	9,188.96	57.3445	9,188.96	52.9707	9,188.96	54.5563	9,188.96	55.6154	9,188.96	54.4728	9,188.96	48.3769
9,514.16	84.1159	9,514.16	83.6576	9,514.16	83.9931	9,514.16	82.9475	9,514.16	83.6845	9,514.16	81.4449	9,514.16	82.7326	9,514.16	79.5341	9,514.16	81.1441	9,514.16	78.186	9,514.16	78.9347	9,514.16	75.1204	9,514.16	77.8546	9,514.16	71.5436	9,514.16	74.9849	9,514.16	67.3123	9,514.16	71.0736	9,514.16	63.5748	9,514.16	66.2824	9,514.16	60.6358	9,514.16	63.8193	9,514.16	58.7186	9,514.16	59.2602	9,514.16	54.4318	9,514.16	59.8979	9,514.16	56.0449	9,514.16	58.8162	9,514.16	56.8874	9,514.16	56.0069	9,514.16	43.8493	9,514.16	55.3615	9,514.16	50.0709	9,514.16	53.3754	9,514.16	54.5997	9,514.16	54.1857	9,514.16	48.1714
9,849.61	84.4305	9,849.61	83.9233	9,849.61	84.332	9,849.61	83.0387	9,849.61	83.7927	9,849.61	81.3788	9,849.61	82.6654	9,849.61	79.1972	9,849.61	81.0917	9,849.61	77.8866	9,849.61	78.9914	9,849.61	74.9883	9,849.61	77.2959	9,849.61	71.3029	9,849.61	74.5273	9,849.61	67.8237	9,849.61	70.5635	9,849.61	63.3723	9,849.61	66.2772	9,849.61	59.7686	9,849.61	64.9356	9,849.61	59.4564	9,849.61	59.1749	9,849.61	56.4447	9,849.61	59.2642	9,849.61	54.8208	9,849.61	57.8405	9,849.61	57.2241	9,849.61	53.9914	9,849.61	35.8405	9,849.61	55.1863	9,849.61	46.2006	9,849.61	53.6352	9,849.61	54.9434	9,849.61	51.8577	9,849.61	50.9223
10,196.8	84.9314	10,196.8	84.2977	10,196.8	84.7952	10,196.8	83.1174	10,196.8	84.0477	10,196.8	81.3605	10,196.8	82.9069	10,196.8	79.708	10,196.8	80.9458	10,196.8	77.6674	10,196.8	78.7957	10,196.8	74.7403	10,196.8	76.7733	10,196.8	71.3794	10,196.8	74.2338	10,196.8	67.4056	10,196.8	71.1248	10,196.8	64.2346	10,196.8	66.1915	10,196.8	60.6505	10,196.8	65.3903	10,196.8	60.01	10,196.8	58.0245	10,196.8	54.9372	10,196.8	59.6257	10,196.8	55.7279	10,196.8	55.9035	10,196.8	56.6527	10,196.8	52.3674	10,196.8	27.7597	10,196.8	54.8482	10,196.8	43.8991	10,196.8	55.1393	10,196.8	54.6269	10,196.8	53.4855	10,196.8	52.1979
10,555.7	85.3451	10,555.7	84.7072	10,555.7	85.1502	10,555.7	83.5904	10,555.7	84.4827	10,555.7	81.4431	10,555.7	83.3177	10,555.7	80.0277	10,555.7	80.9157	10,555.7	77.3774	10,555.7	78.7561	10,555.7	74.688	10,555.7	76.6585	10,555.7	72.0662	10,555.7	74.073	10,555.7	67.9451	10,555.7	71.8037	10,555.7	64.8003	10,555.7	65.6056	10,555.7	61.5395	10,555.7	65.3041	10,555.7	59.3276	10,555.7	59.1212	10,555.7	53.509	10,555.7	58.7059	10,555.7	57.2224	10,555.7	53.199	10,555.7	56.1429	10,555.7	53.2527	10,555.7	37.1854	10,555.7	53.1101	10,555.7	46.6968	10,555.7	54.4655	10,555.7	52.3553	10,555.7	53.3887	10,555.7	51.8137
10,927.7	85.7687	10,927.7	84.9771	10,927.7	85.5873	10,927.7	83.9219	10,927.7	84.9317	10,927.7	81.4206	10,927.7	83.5967	10,927.7	79.7246	10,927.7	81.2742	10,927.7	76.6854	10,927.7	79.0388	10,927.7	75.2785	10,927.7	76.8803	10,927.7	72.9008	10,927.7	74.66	10,927.7	68.5599	10,927.7	72.0276	10,927.7	64.7341	10,927.7	66.4225	10,927.7	61.7847	10,927.7	64.1976	10,927.7	58.3876	10,927.7	60.8764	10,927.7	54.9109	10,927.7	59.0021	10,927.7	56.6194	10,927.7	53.6901	10,927.7	55.4169	10,927.7	54.6818	10,927.7	41.5452	10,927.7	52.4369	10,927.7	44.8315	10,927.7	54.761	10,927.7	51.1059	10,927.7	51.36	10,927.7	50.7496
11,313	86.016	11,313	85.1794	11,313	85.7636	11,313	83.9532	11,313	85.0494	11,313	81.2583	11,313	83.4695	11,313	79.5386	11,313	81.3077	11,313	76.6044	11,313	78.7392	11,313	75.4784	11,313	77.0271	11,313	72.5902	11,313	74.6748	11,313	69.2736	11,313	71.5021	11,313	64.1387	11,313	67.4564	11,313	61.4796	11,313	63.4143	11,313	58.0621	11,313	61.55	11,313	54.9333	11,313	58.4876	11,313	55.5108	11,313	54.9619	11,313	53.9116	11,313	55.6729	11,313	40.7237	11,313	49.0889	11,313	45.399	11,313	54.9826	11,313	49.8711	11,313	49.1038	11,313	49.6011
11,712.9	85.6599	11,712.9	84.9046	11,712.9	85.4591	11,712.9	83.6564	11,712.9	84.7973	11,712.9	81.0293	11,712.9	83.0265	11,712.9	79.1564	11,712.9	80.8131	11,712.9	76.9531	11,712.9	77.9794	11,712.9	74.879	11,712.9	76.6174	11,712.9	72.0578	11,712.9	74.1324	11,712.9	69.0609	11,712.9	70.9576	11,712.9	63.5227	11,712.9	67.3896	11,712.9	61.1085	11,712.9	63.5132	11,712.9	58.1722	11,712.9	61.023	11,712.9	55.2158	11,712.9	57.347	11,712.9	55.4962	11,712.9	55.3934	11,712.9	52.969	11,712.9	54.8375	11,712.9	41.6656	11,712.9	46.4065	11,712.9	45.8673	11,712.9	53.6376	11,712.9	50.0885	11,712.9	43.9068	11,712.9	50.931
12,126	85.31	12,126	84.6384	12,126	85.2279	12,126	83.4293	12,126	84.4805	12,126	80.7182	12,126	82.4878	12,126	78.5591	12,126	80.2165	12,126	76.5343	12,126	77.6272	12,126	74.2978	12,126	76.0535	12,126	72.1869	12,126	74.0815	12,126	68.3435	12,126	70.7838	12,126	63.5253	12,126	66.6984	12,126	60.8083	12,126	62.703	12,126	57.9797	12,126	59.8293	12,126	53.5791	12,126	56.685	12,126	53.4836	12,126	53.0499	12,126	51.3914	12,126	53.335	12,126	41.0691	12,126	46.2358	12,126	44.5897	12,126	52.586	12,126	46.958	12,126	33.4858	12,126	48.8203
12,553.7	85.5083	12,553.7	84.9141	12,553.7	85.3998	12,553.7	83.5619	12,553.7	84.616	12,553.7	80.5313	12,553.7	82.5154	12,553.7	78.5629	12,553.7	80.2353	12,553.7	76.2264	12,553.7	78.2906	12,553.7	74.6979	12,553.7	76.2887	12,553.7	72.1379	12,553.7	74.5843	12,553.7	68.4293	12,553.7	70.7511	12,553.7	63.509	12,553.7	66.6411	12,553.7	60.2517	12,553.7	61.7959	12,553.7	57.4156	12,553.7	60.0731	12,553.7	53.7004	12,553.7	56.2164	12,553.7	53.0656	12,553.7	50.956	12,553.7	50.5952	12,553.7	52.6484	12,553.7	40.2439	12,553.7	46.8111	12,553.7	45.4897	12,553.7	50.0831	12,553.7	44.2927	12,553.7	35.3639	12,553.7	44.0858
12,996.1	85.5327	12,996.1	84.8502	12,996.1	85.5256	12,996.1	83.4251	12,996.1	84.6569	12,996.1	80.3578	12,996.1	82.5878	12,996.1	78.8951	12,996.1	80.2761	12,996.1	76.1852	12,996.1	78.5084	12,996.1	74.6725	12,996.1	76.3305	12,996.1	71.3751	12,996.1	74.2651	12,996.1	68.2311	12,996.1	70.1901	12,996.1	63.0976	12,996.1	66.9901	12,996.1	58.9673	12,996.1	60.5534	12,996.1	56.5352	12,996.1	60.4687	12,996.1	54.1437	12,996.1	55.0133	12,996.1	51.8814	12,996.1	48.8236	12,996.1	46.971	12,996.1	51.4391	12,996.1	41.4348	12,996.1	45.5373	12,996.1	45.2746	12,996.1	48.3055	12,996.1	42.7065	12,996.1	38.7733	12,996.1	40.3429
13,454.6	85.3175	13,454.6	84.5456	13,454.6	85.2721	13,454.6	83.1839	13,454.6	84.3199	13,454.6	80.0562	13,454.6	82.2382	13,454.6	78.8197	13,454.6	79.9144	13,454.6	76.1892	13,454.6	78.1276	13,454.6	74.051	13,454.6	75.7964	13,454.6	71.0551	13,454.6	73.5276	13,454.6	68.4517	13,454.6	70.2999	13,454.6	63.1336	13,454.6	67.3332	13,454.6	59.5969	13,454.6	60.2239	13,454.6	56.6617	13,454.6	60.2195	13,454.6	54.9483	13,454.6	55.9028	13,454.6	52.186	13,454.6	50.5837	13,454.6	45.1622	13,454.6	51.0846	13,454.6	43.5601	13,454.6	46.0735	13,454.6	46.5051	13,454.6	46.0359	13,454.6	43.2192	13,454.6	42.9525	13,454.6	44.0365
13,929.2	85.1208	13,929.2	84.2645	13,929.2	85.0263	13,929.2	82.7841	13,929.2	83.9615	13,929.2	79.7093	13,929.2	81.6466	13,929.2	78.3842	13,929.2	79.6585	13,929.2	75.9365	13,929.2	77.9092	13,929.2	73.3191	13,929.2	75.0453	13,929.2	71.6295	13,929.2	73.434	13,929.2	69.0123	13,929.2	70.7881	13,929.2	63.1517	13,929.2	67.0565	13,929.2	60.5719	13,929.2	60.694	13,929.2	56.3988	13,929.2	59.4553	13,929.2	54.592	13,929.2	55.6243	13,929.2	52.8169	13,929.2	50.2829	13,929.2	44.1479	13,929.2	50.5362	13,929.2	44.6922	13,929.2	46.8911	13,929.2	46.2468	13,929.2	38.468	13,929.2	47.355	13,929.2	46.2079	13,929.2	47.9573
14,419.9	85.1678	14,419.9	84.0969	14,419.9	84.9935	14,419.9	82.356	14,419.9	83.7837	14,419.9	79.5048	14,419.9	81.3664	14,419.9	78.1236	14,419.9	79.5416	14,419.9	75.3961	14,419.9	77.9251	14,419.9	73.2287	14,419.9	74.4856	14,419.9	71.4778	14,419.9	73.6861	14,419.9	68.854	14,419.9	70.4868	14,419.9	62.1129	14,419.9	66.5602	14,419.9	60.58	14,419.9	59.1845	14,419.9	54.6137	14,419.9	59.0266	14,419.9	54.8086	14,419.9	54.4961	14,419.9	52.6574	14,419.9	49.6014	14,419.9	45.7846	14,419.9	49.0803	14,419.9	43.9954	14,419.9	48.965	14,419.9	45.5184	14,419.9	33.4012	14,419.9	46.7853	14,419.9	47.3464	14,419.9	50.7882
14,928.2	85.3061	14,928.2	84.092	14,928.2	85.1109	14,928.2	82.227	14,928.2	83.7872	14,928.2	79.5704	14,928.2	81.5212	14,928.2	77.8315	14,928.2	79.7059	14,928.2	75.2263	14,928.2	77.7861	14,928.2	73.0493	14,928.2	74.6277	14,928.2	70.8931	14,928.2	73.6589	14,928.2	68.3364	14,928.2	69.8816	14,928.2	61.2549	14,928.2	66.2534	14,928.2	59.1947	14,928.2	58.1155	14,928.2	52.7543	14,928.2	58.8635	14,928.2	55.4453	14,928.2	52.4063	14,928.2	52.7493	14,928.2	50.0891	14,928.2	44.2336	14,928.2	44.0776	14,928.2	40.9101	14,928.2	49.6624	14,928.2	42.9044	14,928.2	37.3909	14,928.2	46.2327	14,928.2	48.2864	14,928.2	50.6623
15,455.6	85.3605	15,455.6	84.0095	15,455.6	85.1597	15,455.6	82.2826	15,455.6	83.5974	15,455.6	79.6864	15,455.6	81.481	15,455.6	77.6606	15,455.6	79.6422	15,455.6	75.5158	15,455.6	77.3323	15,455.6	72.6035	15,455.6	74.9308	15,455.6	70.6655	15,455.6	73.1634	15,455.6	68.0487	15,455.6	69.3232	15,455.6	59.8594	15,455.6	65.8026	15,455.6	57.8769	15,455.6	58.2982	15,455.6	50.8946	15,455.6	58.1265	15,455.6	55.5824	15,455.6	51.0705	15,455.6	52.2409	15,455.6	51.6511	15,455.6	42.4846	15,455.6	45.3412	15,455.6	42.3905	15,455.6	49.414	15,455.6	44.5619	15,455.6	41.9349	15,455.6	43.2177	15,455.6	49.1452	15,455.6	49.7998
16,000.5	85.1287	16,000.5	83.7195	16,000.5	84.876	16,000.5	81.9407	16,000.5	83.3661	16,000.5	79.2806	16,000.5	81.3403	16,000.5	77.3002	16,000.5	79.1466	16,000.5	75.6764	16,000.5	77.0374	16,000.5	72.3865	16,000.5	74.6117	16,000.5	69.7182	16,000.5	72.1917	16,000.5	67.1496	16,000.5	67.7934	16,000.5	58.3482	16,000.5	63.7338	16,000.5	56.1122	16,000.5	56.5133	16,000.5	50.929	16,000.5	56.0163	16,000.5	55.7057	16,000.5	49.8179	16,000.5	51.694	16,000.5	50.2652	16,000.5	40.921	16,000.5	43.7635	16,000.5	39.7803	16,000.5	49.0433	16,000.5	45.2564	16,000.5	43.5973	16,000.5	41.894	16,000.5	49.0737	16,000.5	48.3823
16,564.5	84.784	16,564.5	83.4237	16,564.5	84.5609	16,564.5	81.7455	16,564.5	83.1547	16,564.5	78.6111	16,564.5	81.1104	16,564.5	77.0587	16,564.5	78.4332	16,564.5	75.4648	16,564.5	76.6997	16,564.5	71.6023	16,564.5	73.6847	16,564.5	68.0909	16,564.5	70.9899	16,564.5	65.901	16,564.5	65.678	16,564.5	58.598	16,564.5	62.8007	16,564.5	53.8917	16,564.5	56.0468	16,564.5	50.4523	16,564.5	54.7308	16,564.5	55.6328	16,564.5	50.0852	16,564.5	50.3453	16,564.5	48.1319	16,564.5	41.1651	16,564.5	40.1368	16,564.5	28.9485	16,564.5	48.8734	16,564.5	46.0414	16,564.5	42.9494	16,564.5	41.7838	16,564.5	49.5876	16,564.5	45.891
17,148.9	84.4969	17,148.9	83.295	17,148.9	84.393	17,148.9	81.6264	17,148.9	83.2029	17,148.9	78.2721	17,148.9	80.8152	17,148.9	76.992	17,148.9	78.3225	17,148.9	74.7894	17,148.9	76.2178	17,148.9	70.3885	17,148.9	72.8474	17,148.9	67.1658	17,148.9	69.4936	17,148.9	65.7562	17,148.9	65.0897	17,148.9	59.3172	17,148.9	63.0216	17,148.9	53.0216	17,148.9	56.6215	17,148.9	50.4109	17,148.9	55.2838	17,148.9	54.0664	17,148.9	47.7809	17,148.9	48.6269	17,148.9	46.3627	17,148.9	40.4588	17,148.9	39.9578	17,148.9	37.7369	17,148.9	48.8615	17,148.9	45.0463	17,148.9	43.7563	17,148.9	41.3261	17,148.9	50.379	17,148.9	45.1076
17,752.4	84.2038	17,752.4	83.1971	17,752.4	84.1276	17,752.4	81.479	17,752.4	83.1793	17,752.4	78.4014	17,752.4	80.6107	17,752.4	76.8067	17,752.4	78.3482	17,752.4	74.39	17,752.4	75.9785	17,752.4	68.8546	17,752.4	72.0636	17,752.4	66.5944	17,752.4	68.1169	17,752.4	65.3636	17,752.4	63.9249	17,752.4	58.5867	17,752.4	62.9341	17,752.4	50.9417	17,752.4	57.5385	17,752.4	50.9272	17,752.4	55.1766	17,752.4	52.9678	17,752.4	43.6434	17,752.4	47.6248	17,752.4	46.7834	17,752.4	37.6116	17,752.4	41.4289	17,752.4	37.5874	17,752.4	49.3787	17,752.4	45.898	17,752.4	45.7461	17,752.4	40.9091	17,752.4	50.8269	17,752.4	47.3087
18,379.4	83.5331	18,379.4	82.7457	18,379.4	83.5416	18,379.4	80.9574	18,379.4	82.7459	18,379.4	78.1313	18,379.4	79.8063	18,379.4	76.2099	18,379.4	77.9126	18,379.4	72.9645	18,379.4	75.0804	18,379.4	66.9093	18,379.4	69.9213	18,379.4	64.9413	18,379.4	66.4585	18,379.4	64.0364	18,379.4	62.7572	18,379.4	58.5278	18,379.4	62.4569	18,379.4	48.0853	18,379.4	57.5543	18,379.4	50.3269	18,379.4	54.1638	18,379.4	51.1907	18,379.4	41.0095	18,379.4	41.1768	18,379.4	47.1519	18,379.4	39.3906	18,379.4	42.1114	18,379.4	40.9054	18,379.4	50.3917	18,379.4	45.6935	18,379.4	46.1908	18,379.4	40.0256	18,379.4	49.0338	18,379.4	48.7792
19,026.9	82.5888	19,026.9	81.7908	19,026.9	82.6751	19,026.9	79.8175	19,026.9	81.7836	19,026.9	77.0938	19,026.9	78.9362	19,026.9	74.616	19,026.9	76.6513	19,026.9	70.8019	19,026.9	73.4099	19,026.9	64.353	19,026.9	67.586	19,026.9	63.132	19,026.9	64.2387	19,026.9	62.2072	19,026.9	60.8675	19,026.9	57.5632	19,026.9	59.4331	19,026.9	47.7843	19,026.9	55.0267	19,026.9	49.0491	19,026.9	51.9197	19,026.9	47.2381	19,026.9	29.1963	19,026.9	33.2477	19,026.9	44.6677	19,026.9	41.4295	19,026.9	37.1007	19,026.9	41.2031	19,026.9	50.7219	19,026.9	42.5388	19,026.9	44.2529	19,026.9	38.8076	19,026.9	48.1342	19,026.9	49.8495
19,697.8	82.1922	19,697.8	81.3677	19,697.8	82.2877	19,697.8	79.3953	19,697.8	81.2792	19,697.8	76.5613	19,697.8	78.6064	19,697.8	73.4141	19,697.8	75.9792	19,697.8	69.3695	19,697.8	71.7569	19,697.8	62.7876	19,697.8	67.0176	19,697.8	61.2036	19,697.8	63.3149	19,697.8	60.2454	19,697.8	59.4664	19,697.8	55.6331	19,697.8	59.3383	19,697.8	47.1069	19,697.8	54.0192	19,697.8	46.2322	19,697.8	50.4581	19,697.8	43.6589	19,697.8	38.6439	19,697.8	29.3941	19,697.8	39.6503	19,697.8	40.1059	19,697.8	39.6326	19,697.8	41.3884	19,697.8	50.7187	19,697.8	42.1097	19,697.8	43.702	19,697.8	33.0896	19,697.8	46.0492	19,697.8	50.2479
19,999.5	81.9333	19,999.5	81.231	19,999.5	81.9871	19,999.5	79.2554	19,999.5	81.0483	19,999.5	76.3702	19,999.5	78.5543	19,999.5	73.1974	19,999.5	76.0857	19,999.5	68.8052	19,999.5	71.0353	19,999.5	62.0912	19,999.5	67.0039	19,999.5	61.0753	19,999.5	62.579	19,999.5	59.2364	19,999.5	59.9565	19,999.5	55.1742	19,999.5	59.5871	19,999.5	51.3852	19,999.5	55.5275	19,999.5	46.487	19,999.5	52.3115	19,999.5	50.7351	19,999.5	44.6277	19,999.5	48.6689	19,999.5	43.6417	19,999.5	45.178	19,999.5	47.7177	19,999.5	44.5735	19,999.5	52.8138	19,999.5	45.9668	19,999.5	47.8385	19,999.5	30.7834	19,999.5	46.0459	19,999.5	46.76
