"CEA2034"													
"On Axis"		"Listening Window"		"Early Reflections"		"Sound Power"		"Sound Power DI"		"Early Reflections DI"		"DI offset"	
"Frequency [Hz]"	"Sound Pessure Level [dB]  / [2.83V 1m] "	"Frequency [Hz]"	"Sound Pessure Level [dB]  / [2.83V 1m] "	"Frequency [Hz]"	"Sound Pessure Level [dB]  / [2.83V 1m] "	"Frequency [Hz]"	"Sound Pessure Level [dB]  / [2.83V 1m] "	"Frequency [Hz]"	"Sound Pessure Level [dB]  / [2.83V 1m] "	"Frequency [Hz]"	"Sound Pessure Level [dB]  / [2.83V 1m] "	"Frequency [Hz]"	"Sound Pessure Level [dB]  / [2.83V 1m] "
20.5078	59.3516	20.5078	59.3475	20.5078	59.2567	20.5078	59.2643	20.5078	40.0626	20.5078	40.0702	20.5078	39.9794
21.2402	60.5946	21.2402	60.5914	21.2402	60.5102	21.2402	60.5286	21.2402	40.0422	21.2402	40.0606	21.2402	39.9794
21.9727	61.1668	21.9727	61.1637	21.9727	61.0833	21.9727	61.1069	21.9727	40.0362	21.9727	40.0597	21.9727	39.9794
22.7051	61.9528	22.7051	61.9492	22.7051	61.8629	22.7051	61.8723	22.7051	40.0564	22.7051	40.0657	22.7051	39.9794
23.4375	62.4967	23.4375	62.4915	23.4375	62.3944	23.4375	62.3783	23.4375	40.0926	23.4375	40.0765	23.4375	39.9794
24.1699	63.0437	24.1699	63.0373	24.1699	62.9339	24.1699	62.9024	24.1699	40.1144	24.1699	40.0828	24.1699	39.9794
25.6348	64.3182	25.6348	64.3114	25.6348	64.2066	25.6348	64.1654	25.6348	40.1254	25.6348	40.0841	25.6348	39.9794
26.3672	65.0481	26.3672	65.0402	26.3672	64.9293	26.3672	64.868	26.3672	40.1517	26.3672	40.0903	26.3672	39.9794
27.0996	65.6322	27.0996	65.624	27.0996	65.5115	27.0996	65.445	27.0996	40.1584	27.0996	40.0919	27.0996	39.9794
27.832	66.1398	27.832	66.1316	27.832	66.0184	27.832	65.954	27.832	40.157	27.832	40.0926	27.832	39.9794
29.2969	67.2762	29.2969	67.2686	29.2969	67.1629	29.2969	67.1065	29.2969	40.1415	29.2969	40.0851	29.2969	39.9794
30.0293	67.6651	30.0293	67.6567	30.0293	67.5456	30.0293	67.4784	30.0293	40.1577	30.0293	40.0906	30.0293	39.9794
31.4941	68.742	31.4941	68.7341	31.4941	68.6302	31.4941	68.5729	31.4941	40.1406	31.4941	40.0833	31.4941	39.9794
32.2266	69.1627	32.2266	69.1541	32.2266	69.0458	32.2266	68.9834	32.2266	40.1501	32.2266	40.0877	32.2266	39.9794
33.6914	69.9603	33.6914	69.949	33.6914	69.8219	33.6914	69.7256	33.6914	40.2028	33.6914	40.1064	33.6914	39.9794
34.4238	70.4507	34.4238	70.4397	34.4238	70.3161	34.4238	70.2256	34.4238	40.1935	34.4238	40.103	34.4238	39.9794
35.8887	71.3551	35.8887	71.3431	35.8887	71.213	35.8887	71.1079	35.8887	40.2146	35.8887	40.1095	35.8887	39.9794
37.3535	72.1038	37.3535	72.0919	37.3535	71.9648	37.3535	71.8631	37.3535	40.2082	37.3535	40.1065	37.3535	39.9794
38.8184	72.9179	38.8184	72.9051	38.8184	72.7742	38.8184	72.6606	38.8184	40.2239	38.8184	40.1103	38.8184	39.9794
39.5508	73.3645	39.5508	73.3498	39.5508	73.2061	39.5508	73.0667	39.5508	40.2625	39.5508	40.1231	39.5508	39.9794
41.0156	74.819	41.0156	74.8073	41.0156	74.6833	41.0156	74.5756	41.0156	40.2111	41.0156	40.1033	41.0156	39.9794
42.4805	74.9623	42.4805	74.9501	42.4805	74.8261	42.4805	74.7214	42.4805	40.2081	42.4805	40.1034	42.4805	39.9794
43.9453	75.6723	43.9453	75.6586	43.9453	75.5239	43.9453	75.4002	43.9453	40.2378	43.9453	40.1141	43.9453	39.9794
45.4102	76.3578	45.4102	76.343	45.4102	76.2024	45.4102	76.067	45.4102	40.2554	45.4102	40.12	45.4102	39.9794
47.6074	77.5444	47.6074	77.529	47.6074	77.3877	47.6074	77.2471	47.6074	40.2613	47.6074	40.1207	47.6074	39.9794
49.0723	78.3339	49.0723	78.3183	49.0723	78.1787	49.0723	78.036	49.0723	40.2617	49.0723	40.119	49.0723	39.9794
50.5371	78.9767	50.5371	78.9603	50.5371	78.8151	50.5371	78.6638	50.5371	40.2759	50.5371	40.1246	50.5371	39.9794
52.7344	79.8263	52.7344	79.8088	52.7344	79.6577	52.7344	79.4955	52.7344	40.2927	52.7344	40.1306	52.7344	39.9794
54.1992	80.5145	54.1992	80.4965	54.1992	80.3441	54.1992	80.1763	54.1992	40.2996	54.1992	40.1318	54.1992	39.9794
56.3965	81.3465	56.3965	81.3287	56.3965	81.1804	56.3965	81.0216	56.3965	40.2865	56.3965	40.1277	56.3965	39.9794
58.5938	82.1331	58.5938	82.1147	58.5938	81.9651	58.5938	81.8069	58.5938	40.2872	58.5938	40.129	58.5938	39.9794
60.0586	82.5305	60.0586	82.5114	60.0586	82.358	60.0586	82.1976	60.0586	40.2931	60.0586	40.1328	60.0586	39.9794
62.2559	83.113	62.2559	83.0922	62.2559	82.927	62.2559	82.7527	62.2559	40.319	62.2559	40.1446	62.2559	39.9794
64.4531	83.6929	64.4531	83.6707	64.4531	83.4967	64.4531	83.3094	64.4531	40.3407	64.4531	40.1534	64.4531	39.9794
66.6504	84.1858	66.6504	84.1627	66.6504	83.9812	66.6504	83.783	66.6504	40.3591	66.6504	40.1609	66.6504	39.9794
69.5801	84.7197	69.5801	84.6968	69.5801	84.5218	69.5801	84.3424	69.5801	40.3338	69.5801	40.1544	69.5801	39.9794
71.7773	85.1356	71.7773	85.1112	71.7773	84.9274	71.7773	84.7368	71.7773	40.3537	71.7773	40.1632	71.7773	39.9794
73.9746	85.5506	73.9746	85.5253	73.9746	85.3373	73.9746	85.1418	73.9746	40.363	73.9746	40.1674	73.9746	39.9794
76.9043	86.0192	76.9043	85.9927	76.9043	85.8	76.9043	85.6019	76.9043	40.3702	76.9043	40.1721	76.9043	39.9794
79.834	86.4781	79.834	86.4498	79.834	86.2463	79.834	86.0376	79.834	40.3916	79.834	40.1829	79.834	39.9794
82.7637	86.8233	82.7637	86.7937	82.7637	86.5815	82.7637	86.3635	82.7637	40.4097	82.7637	40.1916	82.7637	39.9794
85.6934	87.0759	85.6934	87.0461	85.6934	86.8385	85.6934	86.6375	85.6934	40.388	85.6934	40.1871	85.6934	39.9794
88.623	87.3792	88.623	87.3475	88.623	87.1298	88.623	86.9212	88.623	40.4057	88.623	40.197	88.623	39.9794
91.5527	87.606	91.5527	87.572	91.5527	87.3412	91.5527	87.1194	91.5527	40.4319	91.5527	40.2102	91.5527	39.9794
94.4824	87.8001	94.4824	87.763	94.4824	87.5132	94.4824	87.2673	94.4824	40.4752	94.4824	40.2292	94.4824	39.9794
98.1445	88.0084	98.1445	87.9699	98.1445	87.7111	98.1445	87.4518	98.1445	40.4976	98.1445	40.2382	98.1445	39.9794
101.807	88.1199	101.807	88.0778	101.807	87.8017	101.807	87.5302	101.807	40.527	101.807	40.2555	101.807	39.9794
105.469	88.2991	105.469	88.255	105.469	87.9645	105.469	87.6705	105.469	40.5639	105.469	40.2699	105.469	39.9794
109.131	88.4939	109.131	88.4474	109.131	88.1459	109.131	87.8465	109.131	40.5803	109.131	40.2809	109.131	39.9794
112.793	88.7063	112.793	88.6535	112.793	88.3137	112.793	87.965	112.793	40.668	112.793	40.3192	112.793	39.9794
116.455	88.8866	116.455	88.8305	116.455	88.4708	116.455	88.0937	116.455	40.7162	116.455	40.3391	116.455	39.9794
120.85	89.0084	120.85	88.9503	120.85	88.5727	120.85	88.1621	120.85	40.7676	120.85	40.357	120.85	39.9794
125.244	89.0592	125.244	88.9998	125.244	88.6189	125.244	88.2183	125.244	40.7608	125.244	40.3603	125.244	39.9794
129.639	89.0142	129.639	88.9492	129.639	88.5399	129.639	88.1165	129.639	40.8121	129.639	40.3887	129.639	39.9794
134.033	88.9943	134.033	88.9257	134.033	88.5	134.033	88.0714	134.033	40.8336	134.033	40.4051	134.033	39.9794
138.428	88.9824	138.428	88.9098	138.428	88.4614	138.428	88.0128	138.428	40.8764	138.428	40.4278	138.428	39.9794
143.555	88.9708	143.555	88.894	143.555	88.4206	143.555	87.9492	143.555	40.9242	143.555	40.4529	143.555	39.9794
148.682	89.0247	148.682	88.9358	148.682	88.3892	148.682	87.8466	148.682	41.0685	148.682	40.526	148.682	39.9794
153.809	88.9449	153.809	88.8486	153.809	88.2493	153.809	87.6246	153.809	41.2034	153.809	40.5787	153.809	39.9794
159.668	89.0665	159.668	88.9683	159.668	88.3522	159.668	87.7045	159.668	41.2432	159.668	40.5955	159.668	39.9794
164.795	89.1863	164.795	89.0871	164.795	88.4601	164.795	87.7797	164.795	41.2868	164.795	40.6064	164.795	39.9794
170.654	89.1808	170.654	89.0799	170.654	88.4477	170.654	87.7703	170.654	41.289	170.654	40.6116	170.654	39.9794
176.514	89.0258	176.514	88.9209	176.514	88.2637	176.514	87.56	176.514	41.3403	176.514	40.6365	176.514	39.9794
183.105	88.8677	183.105	88.7556	183.105	88.055	183.105	87.3081	183.105	41.4269	183.105	40.68	183.105	39.9794
189.697	89	189.697	88.8783	189.697	88.1214	189.697	87.2808	189.697	41.5769	189.697	40.7363	189.697	39.9794
196.289	89.0695	196.289	88.9394	196.289	88.167	196.289	87.3724	196.289	41.5464	196.289	40.7518	196.289	39.9794
202.881	88.8813	202.881	88.7466	202.881	87.9377	202.881	87.1089	202.881	41.6172	202.881	40.7884	202.881	39.9794
210.205	88.7349	210.205	88.5913	210.205	87.7018	210.205	86.7497	210.205	41.821	210.205	40.8688	210.205	39.9794
217.529	88.821	217.529	88.6714	217.529	87.7388	217.529	86.7397	217.529	41.9112	217.529	40.9121	217.529	39.9794
225.586	89.1365	225.586	88.9661	225.586	87.8956	225.586	86.7599	225.586	42.1856	225.586	41.0499	225.586	39.9794
232.91	89.5094	232.91	89.3521	232.91	88.2569	232.91	86.7931	232.91	42.5383	232.91	41.0746	232.91	39.9794
241.699	89.0706	241.699	88.9248	241.699	87.9189	241.699	86.599	241.699	42.3053	241.699	40.9853	241.699	39.9794
249.756	89.3535	249.756	89.1967	249.756	88.092	249.756	86.6538	249.756	42.5224	249.756	41.0841	249.756	39.9794
258.545	89.2266	258.545	89.0852	258.545	88.0761	258.545	86.7351	258.545	42.3295	258.545	40.9886	258.545	39.9794
268.066	88.8258	268.066	88.6713	268.066	87.574	268.066	86.2172	268.066	42.4335	268.066	41.0767	268.066	39.9794
277.588	89.1522	277.588	88.9918	277.588	87.8573	277.588	86.3846	277.588	42.5866	277.588	41.1139	277.588	39.9794
287.109	89.0269	287.109	88.8629	287.109	87.7104	287.109	86.1422	287.109	42.7001	287.109	41.132	287.109	39.9794
297.363	89.5481	297.363	89.3843	297.363	88.1101	297.363	86.1407	297.363	43.2229	297.363	41.2536	297.363	39.9794
307.617	89.4381	307.617	89.3219	307.617	88.3103	307.617	86.5485	307.617	42.7528	307.617	40.991	307.617	39.9794
318.604	89.7517	318.604	89.5927	318.604	88.4108	318.604	86.4557	318.604	43.1164	318.604	41.1613	318.604	39.9794
329.59	89.6001	329.59	89.4763	329.59	88.4346	329.59	86.5168	329.59	42.939	329.59	41.0212	329.59	39.9794
341.309	88.9126	341.309	88.7555	341.309	87.6815	341.309	86.1694	341.309	42.5655	341.309	41.0534	341.309	39.9794
353.76	89.3013	353.76	89.1845	353.76	88.089	353.76	86.1022	353.76	43.0617	353.76	41.0749	353.76	39.9794
366.211	88.9083	366.211	88.7808	366.211	87.7521	366.211	85.8002	366.211	42.9601	366.211	41.0081	366.211	39.9794
378.662	89.043	378.662	88.9281	378.662	87.9375	378.662	85.9415	378.662	42.9659	378.662	40.97	378.662	39.9794
392.578	87.8113	392.578	87.6949	392.578	86.8543	392.578	85.0082	392.578	42.6661	392.578	40.8199	392.578	39.9794
405.762	87.7742	405.762	87.583	405.762	86.4766	405.762	84.5596	405.762	43.0029	405.762	41.0858	405.762	39.9794
420.41	87.9163	420.41	87.7386	420.41	86.5597	420.41	84.3009	420.41	43.4172	420.41	41.1583	420.41	39.9794
435.059	87.6978	435.059	87.5286	435.059	86.5311	435.059	84.5139	435.059	42.9941	435.059	40.977	435.059	39.9794
450.439	87.5187	450.439	87.279	450.439	86.0193	450.439	83.6836	450.439	43.5748	450.439	41.239	450.439	39.9794
466.553	87.2504	466.553	86.9958	466.553	85.6549	466.553	83.4491	466.553	43.5261	466.553	41.3203	466.553	39.9794
482.666	87.3531	482.666	87.0943	482.666	85.7351	482.666	83.3866	482.666	43.6871	482.666	41.3386	482.666	39.9794
500.244	87.1583	500.244	86.8542	500.244	85.3911	500.244	83.0126	500.244	43.821	500.244	41.4425	500.244	39.9794
517.822	86.7152	517.822	86.431	517.822	85.0888	517.822	82.7164	517.822	43.694	517.822	41.3216	517.822	39.9794
536.133	86.9016	536.133	86.5106	536.133	84.6847	536.133	82.0939	536.133	44.3961	536.133	41.8053	536.133	39.9794
554.443	86.5116	554.443	86.2144	554.443	84.5079	554.443	81.8417	554.443	44.3521	554.443	41.6859	554.443	39.9794
574.219	87.2278	574.219	86.8394	574.219	84.9945	574.219	82.1568	574.219	44.662	574.219	41.8243	574.219	39.9794
594.727	87.0428	594.727	86.6521	594.727	84.7162	594.727	81.9841	594.727	44.6473	594.727	41.9153	594.727	39.9794
615.234	86.9793	615.234	86.64	615.234	84.5749	615.234	81.5412	615.234	45.0782	615.234	42.0445	615.234	39.9794
637.207	87.9963	637.207	87.5525	637.207	85.3535	637.207	82.5007	637.207	45.0313	637.207	42.1784	637.207	39.9794
659.912	87.6014	659.912	87.2243	659.912	85.012	659.912	81.959	659.912	45.2447	659.912	42.1917	659.912	39.9794
683.35	87.8258	683.35	87.4575	683.35	85.2493	683.35	82.4594	683.35	44.9775	683.35	42.1876	683.35	39.9794
706.787	88.4659	706.787	88.0313	706.787	85.6879	706.787	82.6969	706.787	45.3138	706.787	42.3228	706.787	39.9794
731.689	88.1109	731.689	87.7721	731.689	85.4817	731.689	82.4378	731.689	45.3138	731.689	42.2699	731.689	39.9794
758.057	87.8275	758.057	87.4407	758.057	85.159	758.057	82.3063	758.057	45.1139	758.057	42.2611	758.057	39.9794
784.424	87.8829	784.424	87.5302	784.424	85.2468	784.424	82.3424	784.424	45.1672	784.424	42.2628	784.424	39.9794
812.256	88.0036	812.256	87.6105	812.256	85.2873	812.256	82.4812	812.256	45.1087	812.256	42.3026	812.256	39.9794
840.82	87.8521	840.82	87.443	840.82	85.1208	840.82	82.2914	840.82	45.131	840.82	42.3017	840.82	39.9794
870.85	87.6184	870.85	87.1835	870.85	84.9234	870.85	82.1157	870.85	45.0472	870.85	42.2395	870.85	39.9794
901.611	88.1879	901.611	87.7638	901.611	85.3038	901.611	82.1479	901.611	45.5953	901.611	42.4394	901.611	39.9794
933.105	88.2262	933.105	87.7423	933.105	85.218	933.105	81.9239	933.105	45.7978	933.105	42.5037	933.105	39.9794
966.064	88.1853	966.064	87.7165	966.064	85.2049	966.064	81.9621	966.064	45.7337	966.064	42.491	966.064	39.9794
999.756	88.2859	999.756	87.7289	999.756	85.1346	999.756	81.8466	999.756	45.8616	999.756	42.5736	999.756	39.9794
1,034.91	88.0862	1,034.91	87.5165	1,034.91	84.927	1,034.91	81.7672	1,034.91	45.7286	1,034.91	42.5689	1,034.91	39.9794
1,071.53	87.2562	1,071.53	86.7496	1,071.53	84.5444	1,071.53	81.4677	1,071.53	45.2613	1,071.53	42.1846	1,071.53	39.9794
1,109.62	86.9415	1,109.62	86.2963	1,109.62	83.9066	1,109.62	80.8288	1,109.62	45.4469	1,109.62	42.3691	1,109.62	39.9794
1,148.44	86.9136	1,148.44	86.2773	1,148.44	84.0058	1,148.44	80.6956	1,148.44	45.5611	1,148.44	42.251	1,148.44	39.9794
1,189.45	87.1411	1,189.45	86.5172	1,189.45	84.0744	1,189.45	80.662	1,189.45	45.8346	1,189.45	42.4222	1,189.45	39.9794
1,231.2	87.5839	1,231.2	86.993	1,231.2	84.4476	1,231.2	80.8704	1,231.2	46.1019	1,231.2	42.5247	1,231.2	39.9794
1,274.41	87.8067	1,274.41	87.1305	1,274.41	84.5217	1,274.41	80.8764	1,274.41	46.2335	1,274.41	42.5882	1,274.41	39.9794
1,319.82	88.0353	1,319.82	87.3392	1,319.82	84.7934	1,319.82	81.2814	1,319.82	46.0371	1,319.82	42.5252	1,319.82	39.9794
1,365.97	87.8642	1,365.97	87.1553	1,365.97	84.5085	1,365.97	81.0691	1,365.97	46.0656	1,365.97	42.6261	1,365.97	39.9794
1,414.31	87.5517	1,414.31	86.9013	1,414.31	84.2886	1,414.31	80.8627	1,414.31	46.0179	1,414.31	42.5921	1,414.31	39.9794
1,464.11	87.7401	1,464.11	86.99	1,464.11	84.2514	1,464.11	80.6677	1,464.11	46.3017	1,464.11	42.718	1,464.11	39.9794
1,515.38	87.4099	1,515.38	86.5438	1,515.38	84.0128	1,515.38	80.3143	1,515.38	46.2089	1,515.38	42.5104	1,515.38	39.9794
1,568.85	86.8152	1,568.85	85.907	1,568.85	83.5176	1,568.85	79.852	1,568.85	46.0345	1,568.85	42.3689	1,568.85	39.9794
1,624.51	86.4846	1,624.51	85.5697	1,624.51	83.1011	1,624.51	79.5558	1,624.51	45.9933	1,624.51	42.448	1,624.51	39.9794
1,681.64	86.3711	1,681.64	85.3533	1,681.64	82.9223	1,681.64	79.3738	1,681.64	45.9589	1,681.64	42.4104	1,681.64	39.9794
1,740.97	86.1848	1,740.97	85.3259	1,740.97	83.038	1,740.97	79.3758	1,740.97	45.9296	1,740.97	42.2674	1,740.97	39.9794
1,802.49	86.8361	1,802.49	85.9092	1,802.49	83.1976	1,802.49	79.2244	1,802.49	46.6642	1,802.49	42.691	1,802.49	39.9794
1,866.21	85.7942	1,866.21	85.0716	1,866.21	82.6087	1,866.21	78.783	1,866.21	46.2681	1,866.21	42.4423	1,866.21	39.9794
1,932.13	85.2636	1,932.13	84.5589	1,932.13	81.853	1,932.13	78.0623	1,932.13	46.476	1,932.13	42.6852	1,932.13	39.9794
2,000.24	85.5914	2,000.24	84.6797	2,000.24	81.7155	2,000.24	77.8053	2,000.24	46.8538	2,000.24	42.9436	2,000.24	39.9794
2,070.56	86.2736	2,070.56	85.4974	2,070.56	82.1719	2,070.56	77.8152	2,070.56	47.6616	2,070.56	43.305	2,070.56	39.9794
2,143.8	86.2312	2,143.8	85.4444	2,143.8	81.7601	2,143.8	77.2762	2,143.8	48.1477	2,143.8	43.6637	2,143.8	39.9794
2,219.24	85.8749	2,219.24	84.9778	2,219.24	81.2129	2,219.24	76.6573	2,219.24	48.2999	2,219.24	43.7443	2,219.24	39.9794
2,297.61	87.1122	2,297.61	86.0262	2,297.61	81.9989	2,297.61	77.0066	2,297.61	48.999	2,297.61	44.0067	2,297.61	39.9794
2,378.17	88.8152	2,378.17	87.4861	2,378.17	83.151	2,378.17	77.8541	2,378.17	49.6115	2,378.17	44.3145	2,378.17	39.9794
2,462.4	88.4607	2,462.4	87.336	2,462.4	83.0822	2,462.4	78.0303	2,462.4	49.2851	2,462.4	44.2331	2,462.4	39.9794
2,548.83	87.9227	2,548.83	86.7064	2,548.83	82.5835	2,548.83	77.6089	2,548.83	49.0769	2,548.83	44.1023	2,548.83	39.9794
2,638.92	87.5391	2,638.92	86.2038	2,638.92	82.2002	2,638.92	77.3973	2,638.92	48.7859	2,638.92	43.983	2,638.92	39.9794
2,731.93	86.7706	2,731.93	85.4614	2,731.93	81.781	2,731.93	77.1006	2,731.93	48.3403	2,731.93	43.6599	2,731.93	39.9794
2,828.61	86.3871	2,828.61	85.0069	2,828.61	81.7275	2,828.61	77.2269	2,828.61	47.7594	2,828.61	43.2588	2,828.61	39.9794
2,928.22	85.8385	2,928.22	84.3508	2,928.22	81.5789	2,928.22	77.2073	2,928.22	47.1229	2,928.22	42.7513	2,928.22	39.9794
3,031.49	84.3735	3,031.49	83.1265	3,031.49	81.1038	3,031.49	76.9219	3,031.49	46.184	3,031.49	42.0021	3,031.49	39.9794
3,138.43	84.5815	3,138.43	83.3891	3,138.43	81.3774	3,138.43	77.1044	3,138.43	46.2641	3,138.43	41.9911	3,138.43	39.9794
3,249.02	84.7664	3,249.02	83.6561	3,249.02	81.6118	3,249.02	77.5353	3,249.02	46.1002	3,249.02	42.0237	3,249.02	39.9794
3,363.28	84.9323	3,363.28	83.8326	3,363.28	81.7551	3,363.28	77.8822	3,363.28	45.9298	3,363.28	42.0569	3,363.28	39.9794
3,481.93	85.0464	3,481.93	83.9289	3,481.93	82.0809	3,481.93	78.2925	3,481.93	45.6159	3,481.93	41.8275	3,481.93	39.9794
3,604.98	85.1234	3,604.98	84.1297	3,604.98	82.5279	3,604.98	78.6799	3,604.98	45.4292	3,604.98	41.5812	3,604.98	39.9794
3,732.42	84.2253	3,732.42	83.3959	3,732.42	82.2221	3,732.42	78.4791	3,732.42	44.8962	3,732.42	41.1532	3,732.42	39.9794
3,863.53	84.328	3,863.53	83.385	3,863.53	82.254	3,863.53	78.4797	3,863.53	44.8848	3,863.53	41.1104	3,863.53	39.9794
3,999.76	84.5778	3,999.76	83.485	3,999.76	82.1506	3,999.76	78.395	3,999.76	45.0694	3,999.76	41.3138	3,999.76	39.9794
4,141.11	84.2403	4,141.11	83.4723	4,141.11	82.0812	4,141.11	78.3162	4,141.11	45.1355	4,141.11	41.3705	4,141.11	39.9794
4,286.87	84.6983	4,286.87	83.9053	4,286.87	82.3709	4,286.87	78.5595	4,286.87	45.3252	4,286.87	41.5137	4,286.87	39.9794
4,438.48	84.3397	4,438.48	84.0512	4,438.48	82.481	4,438.48	78.7109	4,438.48	45.3197	4,438.48	41.5496	4,438.48	39.9794
4,594.48	84.5772	4,594.48	84.0831	4,594.48	82.5015	4,594.48	78.742	4,594.48	45.3206	4,594.48	41.5611	4,594.48	39.9794
4,757.08	84.4697	4,757.08	84.1799	4,757.08	82.5673	4,757.08	78.8618	4,757.08	45.2974	4,757.08	41.592	4,757.08	39.9794
4,924.8	84.6	4,924.8	84.3347	4,924.8	82.5048	4,924.8	78.7321	4,924.8	45.582	4,924.8	41.8093	4,924.8	39.9794
5,098.39	84.5539	5,098.39	84.2236	5,098.39	82.3957	5,098.39	78.5711	5,098.39	45.6319	5,098.39	41.8073	5,098.39	39.9794
5,277.83	84.3848	5,277.83	84.1072	5,277.83	82.0633	5,277.83	78.2142	5,277.83	45.8724	5,277.83	42.0233	5,277.83	39.9794
5,463.87	84.3747	5,463.87	83.7812	5,463.87	81.6418	5,463.87	77.7636	5,463.87	45.997	5,463.87	42.1188	5,463.87	39.9794
5,656.49	83.9945	5,656.49	83.3334	5,656.49	81.2724	5,656.49	77.4613	5,656.49	45.8514	5,656.49	42.0404	5,656.49	39.9794
5,856.45	84.2008	5,856.45	83.4755	5,856.45	81.1356	5,856.45	77.288	5,856.45	46.1668	5,856.45	42.3192	5,856.45	39.9794
6,062.99	85.4023	6,062.99	84.2285	6,062.99	81.5139	6,062.99	77.4868	6,062.99	46.7211	6,062.99	42.6939	6,062.99	39.9794
6,276.86	86.0315	6,276.86	84.7229	6,276.86	81.9254	6,276.86	77.7886	6,276.86	46.9136	6,276.86	42.7769	6,276.86	39.9794
6,498.05	86.1795	6,498.05	85.0633	6,498.05	82.0544	6,498.05	77.851	6,498.05	47.1917	6,498.05	42.9883	6,498.05	39.9794
6,727.29	87.022	6,727.29	85.7022	6,727.29	82.4374	6,727.29	78.0662	6,727.29	47.6154	6,727.29	43.2441	6,727.29	39.9794
6,964.6	86.7767	6,964.6	85.6976	6,964.6	82.3672	6,964.6	77.9756	6,964.6	47.7014	6,964.6	43.3098	6,964.6	39.9794
7,209.96	86.8199	7,209.96	85.6236	7,209.96	82.2143	7,209.96	77.7352	7,209.96	47.8677	7,209.96	43.3886	7,209.96	39.9794
7,464.11	86.0328	7,464.11	84.9057	7,464.11	81.6313	7,464.11	77.2652	7,464.11	47.62	7,464.11	43.2538	7,464.11	39.9794
7,727.78	84.9489	7,727.78	83.8996	7,727.78	80.7309	7,727.78	76.492	7,727.78	47.387	7,727.78	43.1481	7,727.78	39.9794
8,000.24	84.6841	8,000.24	83.673	8,000.24	80.3194	8,000.24	76.0357	8,000.24	47.6166	8,000.24	43.333	8,000.24	39.9794
8,282.23	85.8917	8,282.23	84.7502	8,282.23	81.0054	8,282.23	76.4407	8,282.23	48.2889	8,282.23	43.7242	8,282.23	39.9794
8,574.46	87.127	8,574.46	85.8634	8,574.46	81.8701	8,574.46	76.9917	8,574.46	48.8512	8,574.46	43.9727	8,574.46	39.9794
8,876.22	86.836	8,876.22	85.8482	8,876.22	81.8214	8,876.22	76.9205	8,876.22	48.9071	8,876.22	44.0062	8,876.22	39.9794
9,189.7	85.7204	9,189.7	84.8297	9,189.7	80.9378	9,189.7	76.12	9,189.7	48.689	9,189.7	43.8712	9,189.7	39.9794
9,513.43	84.0329	9,513.43	83.3855	9,513.43	79.7297	9,513.43	75.083	9,513.43	48.2819	9,513.43	43.6352	9,513.43	39.9794
9,848.88	83.7979	9,848.88	83.0128	9,848.88	79.3019	9,848.88	74.6759	9,848.88	48.3163	9,848.88	43.6903	9,848.88	39.9794
10,196.8	84.2689	10,196.8	83.5335	10,196.8	79.5961	10,196.8	74.7954	10,196.8	48.7174	10,196.8	43.9168	10,196.8	39.9794
10,556.4	84.5136	10,556.4	83.9099	10,556.4	79.868	10,556.4	74.8697	10,556.4	49.0196	10,556.4	44.0213	10,556.4	39.9794
10,928.5	84.4227	10,928.5	83.6052	10,928.5	79.6787	10,928.5	74.5469	10,928.5	49.0377	10,928.5	43.9059	10,928.5	39.9794
11,313.7	83.887	11,313.7	82.8613	11,313.7	79.1715	11,313.7	74.1134	11,313.7	48.7273	11,313.7	43.6692	11,313.7	39.9794
11,712.9	83.2786	11,712.9	82.0262	11,712.9	78.3433	11,712.9	73.468	11,712.9	48.5376	11,712.9	43.6623	11,712.9	39.9794
12,126	83.5053	12,126	81.8393	12,126	78.0612	12,126	73.1904	12,126	48.6284	12,126	43.7575	12,126	39.9794
12,553.7	84.0419	12,553.7	82.3183	12,553.7	78.5036	12,553.7	73.5241	12,553.7	48.7736	12,553.7	43.7941	12,553.7	39.9794
12,996.1	84.1272	12,996.1	82.5176	12,996.1	78.6758	12,996.1	73.6658	12,996.1	48.8312	12,996.1	43.8212	12,996.1	39.9794
13,454.6	83.5083	13,454.6	82.2952	13,454.6	78.2912	13,454.6	73.4261	13,454.6	48.8485	13,454.6	43.9834	13,454.6	39.9794
13,928.5	82.6316	13,928.5	81.6587	13,928.5	77.5754	13,928.5	72.8627	13,928.5	48.7754	13,928.5	44.0627	13,928.5	39.9794
14,419.9	81.7576	14,419.9	81.0115	14,419.9	77.1027	14,419.9	72.4992	14,419.9	48.4918	14,419.9	43.8882	14,419.9	39.9794
14,928.2	82.3651	14,928.2	81.4176	14,928.2	77.4578	14,928.2	72.7371	14,928.2	48.66	14,928.2	43.9393	14,928.2	39.9794
15,454.8	82.6548	15,454.8	81.6478	15,454.8	77.5687	15,454.8	72.7408	15,454.8	48.8863	15,454.8	44.0585	15,454.8	39.9794
15,999.8	81.7205	15,999.8	80.9281	15,999.8	76.9999	15,999.8	72.2395	15,999.8	48.668	15,999.8	43.9076	15,999.8	39.9794
16,564.5	83.5612	16,564.5	82.6238	16,564.5	78.3554	16,564.5	73.328	16,564.5	49.2751	16,564.5	44.2478	16,564.5	39.9794
17,148.2	84.9984	17,148.2	83.6297	17,148.2	78.9836	17,148.2	73.5036	17,148.2	50.1055	17,148.2	44.6256	17,148.2	39.9794
17,753.2	86.1607	17,753.2	84.5008	17,753.2	79.4839	17,753.2	73.4917	17,753.2	50.9885	17,753.2	44.9963	17,753.2	39.9794
18,379.4	86.0347	18,379.4	84.2346	18,379.4	78.9612	18,379.4	72.8436	18,379.4	51.3704	18,379.4	45.2527	18,379.4	39.9794
19,027.6	85.0237	19,027.6	83.0258	19,027.6	77.5443	19,027.6	71.4174	19,027.6	51.5878	19,027.6	45.4609	19,027.6	39.9794
19,698.5	85.794	19,698.5	83.2402	19,698.5	77.5856	19,698.5	70.9275	19,698.5	52.292	19,698.5	45.634	19,698.5	39.9794
19,999.5	86.2014	19,999.5	83.3516	19,999.5	77.6926	19,999.5	70.7365	19,999.5	52.5945	19,999.5	45.6384	19,999.5	39.9794
