"Early Reflections"											
"Floor Bounce"		"Ceiling Bounce"		"Front Wall Bounce"		"Side Wall Bounce"		"Rear Wall Bounce"		"Total Early Reflection"	
"Frequency [Hz]"	"Sound Pessure Level [dB]  / [2.83V 1m] "	"Frequency [Hz]"	"Sound Pessure Level [dB]  / [2.83V 1m] "	"Frequency [Hz]"	"Sound Pessure Level [dB]  / [2.83V 1m] "	"Frequency [Hz]"	"Sound Pessure Level [dB]  / [2.83V 1m] "	"Frequency [Hz]"	"Sound Pessure Level [dB]  / [2.83V 1m] "	"Frequency [Hz]"	"Sound Pessure Level [dB]  / [2.83V 1m] "
20.5078	60.2325	20.5078	58.3757	20.5078	59.3405	20.5078	59.2242	20.5078	58.8517	20.5078	59.2567
21.2402	61.4469	21.2402	59.5881	21.2402	60.5853	21.2402	60.4886	21.2402	60.1779	21.2402	60.5102
21.9727	62.0205	21.9727	60.1493	21.9727	61.1577	21.9727	61.0623	21.9727	60.7611	21.9727	61.0833
22.7051	62.7983	22.7051	60.8946	22.7051	61.9435	22.7051	61.8469	22.7051	61.5388	22.7051	61.8629
23.4375	63.2957	23.4375	61.4904	23.4375	62.4857	23.4375	62.3754	23.4375	62.0425	23.4375	62.3944
24.1699	63.8152	24.1699	62.0664	24.1699	63.0315	24.1699	62.9131	24.1699	62.5674	24.1699	62.9339
25.6348	65.0458	25.6348	63.3596	25.6348	64.3059	25.6348	64.1894	25.6348	63.8599	25.6348	64.2066
26.3672	65.731	26.3672	64.1277	26.3672	65.035	26.3672	64.9122	26.3672	64.5742	26.3672	64.9293
27.0996	66.3013	27.0996	64.7084	27.0996	65.6189	27.0996	65.4959	27.0996	65.1626	27.0996	65.5115
27.832	66.8189	27.832	65.1809	27.832	66.1265	27.832	66.0048	27.832	65.6773	27.832	66.0184
29.2969	67.9322	29.2969	66.3327	29.2969	67.2641	29.2969	67.1534	29.2969	66.8594	29.2969	67.1629
30.0293	68.3074	30.0293	66.7286	30.0293	67.6521	30.0293	67.5348	30.0293	67.2303	30.0293	67.5456
31.4941	69.3557	31.4941	67.8286	31.4941	68.7299	31.4941	68.6223	31.4941	68.3552	31.4941	68.6302
32.2266	69.776	32.2266	68.2299	32.2266	69.1498	32.2266	69.0376	32.2266	68.7677	32.2266	69.0458
33.6914	70.5446	33.6914	69.0343	33.6914	69.9443	33.6914	69.8091	33.6914	69.4974	33.6914	69.8219
34.4238	71.0301	34.4238	69.5265	34.4238	70.4352	34.4238	70.3045	34.4238	70.0082	34.4238	70.3161
35.8887	71.9114	35.8887	70.4467	35.8887	71.3386	35.8887	71.2003	35.8887	70.8911	35.8887	71.213
37.3535	72.6407	37.3535	71.2171	37.3535	72.0875	37.3535	71.9526	37.3535	71.6601	37.3535	71.9648
38.8184	73.4173	38.8184	72.0634	38.8184	72.9008	38.8184	72.7615	38.8184	72.4692	38.8184	72.7742
39.5508	73.8321	39.5508	72.535	39.5508	73.3453	39.5508	73.1894	39.5508	72.8674	39.5508	73.2061
41.0156	75.3105	41.0156	73.9598	41.0156	74.8035	41.0156	74.6767	41.0156	74.4041	41.0156	74.6833
42.4805	75.4446	42.4805	74.118	42.4805	74.9462	42.4805	74.8169	42.4805	74.5524	42.4805	74.8261
43.9453	76.1352	43.9453	74.8318	43.9453	75.6545	43.9453	75.5121	43.9453	75.2271	43.9453	75.5239
45.4102	76.8025	45.4102	75.5265	45.4102	76.3389	45.4102	76.1891	45.4102	75.8952	45.4102	76.2024
47.6074	77.9497	47.6074	76.7555	47.6074	77.525	47.6074	77.3732	47.6074	77.0892	47.6074	77.3877
49.0723	78.7048	49.0723	77.5915	49.0723	78.3144	49.0723	78.1634	49.0723	77.8883	49.0723	78.1787
50.5371	79.339	50.5371	78.2305	50.5371	78.9563	50.5371	78.7984	50.5371	78.5159	50.5371	78.8151
52.7344	80.1746	52.7344	79.0822	52.7344	79.8047	52.7344	79.6394	52.7344	79.3486	52.7344	79.6577
54.1992	80.8374	54.1992	79.8	54.1992	80.4924	54.1992	80.3245	54.1992	80.0351	54.1992	80.3441
56.3965	81.6623	56.3965	80.6383	56.3965	81.3247	56.3965	81.161	56.3965	80.8934	56.3965	81.1804
58.5938	82.4436	58.5938	81.4225	58.5938	82.1107	58.5938	81.9443	58.5938	81.6842	58.5938	81.9651
60.0586	82.8464	60.0586	81.8024	60.0586	82.5072	60.0586	82.3355	60.0586	82.0741	60.0586	82.358
62.2559	83.4363	62.2559	82.346	62.2559	83.0877	62.2559	82.9017	62.2559	82.6222	62.2559	82.927
64.4531	84.0079	64.4531	82.9199	64.4531	83.6659	64.4531	83.4683	64.4531	83.1745	64.4531	83.4967
66.6504	84.5058	66.6504	83.3894	66.6504	84.1578	66.6504	83.9513	66.6504	83.6429	66.6504	83.9812
69.5801	85.0533	69.5801	83.9031	69.5801	84.6919	69.5801	84.492	69.5801	84.2163	69.5801	84.5218
71.7773	85.4591	71.7773	84.3147	71.7773	85.106	71.7773	84.8934	71.7773	84.6089	71.7773	84.9274
73.9746	85.8701	73.9746	84.7264	73.9746	85.52	73.9746	85.301	73.9746	85.0134	73.9746	85.3373
76.9043	86.3371	76.9043	85.1841	76.9043	85.9873	76.9043	85.7605	76.9043	85.4753	76.9043	85.8
79.834	86.8037	79.834	85.6092	79.834	86.4439	79.834	86.2022	79.834	85.9054	79.834	86.2463
82.7637	87.1552	82.7637	85.9277	82.7637	86.7876	82.7637	86.5341	82.7637	86.2254	82.7637	86.5815
85.6934	87.4161	85.6934	86.1662	85.6934	87.0399	85.6934	86.7894	85.6934	86.5128	85.6934	86.8385
88.623	87.72	88.623	86.4452	88.623	87.3409	88.623	87.0753	88.623	86.7946	88.623	87.1298
91.5527	87.9477	91.5527	86.643	91.5527	87.5649	91.5527	87.2805	91.5527	86.9864	91.5527	87.3412
94.4824	88.1396	94.4824	86.8022	94.4824	87.7554	94.4824	87.445	94.4824	87.1228	94.4824	87.5132
98.1445	88.3466	98.1445	87	98.1445	87.962	98.1445	87.639	98.1445	87.3001	98.1445	87.7111
101.807	88.4576	101.807	87.0747	101.807	88.0691	101.807	87.7185	101.807	87.374	101.807	87.8017
105.469	88.6344	105.469	87.2322	105.469	88.2459	105.469	87.8761	105.469	87.5042	105.469	87.9645
109.131	88.8342	109.131	87.3933	109.131	88.4378	109.131	88.0498	109.131	87.6794	109.131	88.1459
112.793	89.0159	112.793	87.5524	112.793	88.6429	112.793	88.2026	112.793	87.787	112.793	88.3137
116.455	89.1782	116.455	87.7189	116.455	88.8192	116.455	88.3496	116.455	87.9098	116.455	88.4708
120.85	89.3052	120.85	87.8316	120.85	88.9384	120.85	88.4443	120.85	87.9441	120.85	88.5727
125.244	89.376	125.244	87.8404	125.244	88.9875	125.244	88.4853	125.244	88.0036	125.244	88.6189
129.639	89.3029	129.639	87.7811	129.639	88.9358	129.639	88.3875	129.639	87.8873	129.639	88.5399
134.033	89.2895	134.033	87.7135	134.033	88.9116	134.033	88.3349	134.033	87.8384	134.033	88.5
138.428	89.2825	138.428	87.6419	138.428	88.8949	138.428	88.2834	138.428	87.7697	138.428	88.4614
143.555	89.2913	143.555	87.5385	143.555	88.8782	143.555	88.2305	143.555	87.6901	143.555	88.4206
148.682	89.3103	148.682	87.4731	148.682	88.9178	148.682	88.1617	148.682	87.5379	148.682	88.3892
153.809	89.1942	153.809	87.3463	153.809	88.8292	153.809	87.9986	153.809	87.2714	153.809	88.2493
159.668	89.3175	159.668	87.4297	159.668	88.9485	159.668	88.0933	159.668	87.3391	159.668	88.3522
164.795	89.404	164.795	87.5807	164.795	89.0673	164.795	88.1973	164.795	87.4146	164.795	88.4601
170.654	89.4176	170.654	87.5526	170.654	89.0595	170.654	88.1726	170.654	87.4113	170.654	88.4477
176.514	89.2401	176.514	87.3869	176.514	88.8997	176.514	87.9735	176.514	87.1745	176.514	88.2637
183.105	89.1051	183.105	87.0953	183.105	88.733	183.105	87.7429	183.105	86.872	183.105	88.055
189.697	89.1369	189.697	87.2202	189.697	88.8544	189.697	87.7885	189.697	86.8192	189.697	88.1214
196.289	89.1591	196.289	87.4035	196.289	88.9131	196.289	87.7801	196.289	86.9253	196.289	88.167
202.881	88.9953	202.881	87.0892	202.881	88.7198	202.881	87.5239	202.881	86.6545	202.881	87.9377
210.205	88.9112	210.205	86.6388	210.205	88.5627	210.205	87.2462	210.205	86.2538	210.205	87.7018
217.529	89.0339	217.529	86.5191	217.529	88.6417	217.529	87.2688	217.529	86.1898	217.529	87.7388
225.586	89.2651	225.586	86.6041	225.586	88.9328	225.586	87.316	225.586	86.1796	225.586	87.8956
232.91	89.5932	232.91	87.1172	232.91	89.3216	232.91	87.7397	232.91	86.0128	232.91	88.2569
241.699	89.3289	241.699	86.8305	241.699	88.8947	241.699	87.436	241.699	85.7083	241.699	87.9189
249.756	89.6232	249.756	86.6372	249.756	89.1662	249.756	87.5955	249.756	85.6294	249.756	88.092
258.545	89.3909	258.545	86.8499	258.545	89.0587	258.545	87.6545	258.545	85.9178	258.545	88.0761
268.066	89.0878	268.066	86.0208	268.066	88.6421	268.066	87.0796	268.066	85.2958	268.066	87.574
277.588	88.971	277.588	86.6425	277.588	88.9654	277.588	87.3984	277.588	85.6947	277.588	87.8573
287.109	88.9107	287.109	86.5267	287.109	88.8341	287.109	87.1816	287.109	85.5866	287.109	87.7104
297.363	89.5491	297.363	86.827	297.363	89.3552	297.363	87.5545	297.363	84.9989	297.363	88.1101
307.617	89.1957	307.617	87.4767	307.617	89.3049	307.617	88.0035	307.617	85.9096	307.617	88.3103
318.604	89.4463	318.604	87.7796	318.604	89.5647	318.604	87.9259	318.604	85.4692	318.604	88.4108
329.59	89.1738	329.59	88.0789	329.59	89.4572	329.59	88.1033	329.59	85.5808	329.59	88.4346
341.309	88.4902	341.309	87.3841	341.309	88.7276	341.309	87.1659	341.309	85.4572	341.309	87.6815
353.76	89.0883	353.76	87.4059	353.76	89.1668	353.76	87.714	353.76	85.1252	353.76	88.089
366.211	88.6444	366.211	86.8697	366.211	88.764	366.211	87.486	366.211	85.0897	366.211	87.7521
378.662	88.9237	378.662	86.9765	378.662	88.9128	378.662	87.6941	378.662	85.2429	378.662	87.9375
392.578	87.5447	392.578	85.6768	392.578	87.6828	392.578	86.7821	392.578	84.8459	392.578	86.8543
405.762	87.4393	405.762	85.0961	405.762	87.554	405.762	86.1436	405.762	84.3533	405.762	86.4766
420.41	87.6127	420.41	85.1122	420.41	87.7117	420.41	86.2629	420.41	83.7238	420.41	86.5597
435.059	87.3245	435.059	85.6154	435.059	87.502	435.059	86.2883	435.059	84.2126	435.059	86.5311
450.439	87.001	450.439	84.5418	450.439	87.2445	450.439	85.6479	450.439	83.4035	450.439	86.0193
466.553	86.7682	466.553	83.909	466.553	86.9571	466.553	85.2152	466.553	83.0096	466.553	85.6549
482.666	86.7372	482.666	84.2047	482.666	87.0559	482.666	85.2842	482.666	83.0326	482.666	85.7351
500.244	86.5084	500.244	83.5682	500.244	86.8014	500.244	84.8773	500.244	82.6011	500.244	85.3911
517.822	85.8355	517.822	83.499	517.822	86.3872	517.822	84.7218	517.822	82.6919	517.822	85.0888
536.133	85.6746	536.133	82.9065	536.133	86.4473	536.133	83.788	536.133	81.9582	536.133	84.6847
554.443	85.6656	554.443	82.4936	554.443	86.1707	554.443	83.853	554.443	80.9801	554.443	84.5079
574.219	86.1778	574.219	82.811	574.219	86.7715	574.219	84.165	574.219	81.8236	574.219	84.9945
594.727	85.9171	594.727	83.1872	594.727	86.5777	594.727	83.6124	594.727	81.5069	594.727	84.7162
615.234	85.261	615.234	83.1832	615.234	86.5953	615.234	83.7024	615.234	79.727	615.234	84.5749
637.207	86.717	637.207	83.1636	637.207	87.4773	637.207	83.9771	637.207	81.9902	637.207	85.3535
659.912	85.4828	659.912	83.9814	659.912	87.1666	659.912	83.9901	659.912	79.7385	659.912	85.012
683.35	85.5461	683.35	84.7335	683.35	87.3952	683.35	84.0591	683.35	80.6801	683.35	85.2493
706.787	86.408	706.787	85.1024	706.787	87.9524	706.787	84.1761	706.787	80.8546	706.787	85.6879
731.689	85.8479	731.689	85.3304	731.689	87.7226	731.689	84.1764	731.689	79.2074	731.689	85.4817
758.057	85.7555	758.057	85.4476	758.057	87.3627	758.057	83.6197	758.057	78.8971	758.057	85.159
784.424	85.8002	784.424	85.4717	784.424	87.4531	784.424	83.8074	784.424	78.3993	784.424	85.2468
812.256	86.2647	812.256	85.2148	812.256	87.5182	812.256	83.7268	812.256	78.376	812.256	85.2873
840.82	86.1618	840.82	85.415	840.82	87.3404	840.82	83.4315	840.82	77.5906	840.82	85.1208
870.85	86.1358	870.85	85.1572	870.85	87.0757	870.85	83.2524	870.85	77.7249	870.85	84.9234
901.611	86.3476	901.611	85.1089	901.611	87.6894	901.611	83.6511	901.611	76.0662	901.611	85.3038
933.105	86.542	933.105	84.4044	933.105	87.6337	933.105	83.5217	933.105	77.1497	933.105	85.218
966.064	87.0199	966.064	84.0857	966.064	87.5971	966.064	83.4119	966.064	76.0533	966.064	85.2049
999.756	87.0418	999.756	84.8738	999.756	87.5763	999.756	82.7445	999.756	77.0963	999.756	85.1346
1,034.91	86.9921	1,034.91	84.9694	1,034.91	87.3472	1,034.91	82.365	1,034.91	75.9397	1,034.91	84.927
1,071.53	87.3455	1,071.53	84.7999	1,071.53	86.5228	1,071.53	82.0071	1,071.53	76.6374	1,071.53	84.5444
1,109.62	86.667	1,109.62	84.3464	1,109.62	86.0283	1,109.62	81.0162	1,109.62	75.8214	1,109.62	83.9066
1,148.44	87.0392	1,148.44	83.8421	1,148.44	86.0607	1,148.44	81.3767	1,148.44	75.0851	1,148.44	84.0058
1,189.45	87.0424	1,189.45	83.2213	1,189.45	86.3448	1,189.45	81.3875	1,189.45	75.3206	1,189.45	84.0744
1,231.2	87.0652	1,231.2	83.7778	1,231.2	86.8079	1,231.2	81.9089	1,231.2	74.7292	1,231.2	84.4476
1,274.41	87.2154	1,274.41	83.354	1,274.41	86.95	1,274.41	81.9632	1,274.41	75.0195	1,274.41	84.5217
1,319.82	87.5703	1,319.82	84.2555	1,319.82	87.1166	1,319.82	82.1214	1,319.82	74.8893	1,319.82	84.7934
1,365.97	87.6575	1,365.97	84.2915	1,365.97	86.9181	1,365.97	81.0223	1,365.97	74.1973	1,365.97	84.5085
1,414.31	87.6692	1,414.31	83.5871	1,414.31	86.7114	1,414.31	80.722	1,414.31	74.0786	1,414.31	84.2886
1,464.11	87.0661	1,464.11	83.6352	1,464.11	86.8178	1,464.11	81.0163	1,464.11	73.8499	1,464.11	84.2514
1,515.38	86.5325	1,515.38	84.4231	1,515.38	86.3452	1,515.38	81.1099	1,515.38	73.0734	1,515.38	84.0128
1,568.85	86.3339	1,568.85	83.949	1,568.85	85.7143	1,568.85	80.5343	1,568.85	73.6454	1,568.85	83.5176
1,624.51	86.0818	1,624.51	83.2695	1,624.51	85.3095	1,624.51	80.1094	1,624.51	72.4989	1,624.51	83.1011
1,681.64	86.3173	1,681.64	82.8308	1,681.64	85.0359	1,681.64	79.8468	1,681.64	71.0074	1,681.64	82.9223
1,740.97	86.4906	1,740.97	82.6801	1,740.97	85.1632	1,740.97	79.9597	1,740.97	72.2957	1,740.97	83.038
1,802.49	86.0292	1,802.49	82.0667	1,802.49	85.855	1,802.49	80.0615	1,802.49	70.6039	1,802.49	83.1976
1,866.21	85.8822	1,866.21	82.348	1,866.21	84.8819	1,866.21	79.4192	1,866.21	70.5742	1,866.21	82.6087
1,932.13	84.9182	1,932.13	82.0842	1,932.13	84.2985	1,932.13	78.2125	1,932.13	68.6166	1,932.13	81.853
2,000.24	84.7318	2,000.24	81.0565	2,000.24	84.5195	2,000.24	77.697	2,000.24	66.9292	2,000.24	81.7155
2,070.56	84.9414	2,070.56	79.9892	2,070.56	85.3518	2,070.56	78.0603	2,070.56	65.8993	2,070.56	82.1719
2,143.8	84.5331	2,143.8	78.5974	2,143.8	85.1582	2,143.8	77.2176	2,143.8	63.9382	2,143.8	81.7601
2,219.24	84.3271	2,219.24	77.0791	2,219.24	84.6735	2,219.24	76.163	2,219.24	62.5503	2,219.24	81.2129
2,297.61	84.8745	2,297.61	74.385	2,297.61	85.8585	2,297.61	76.1898	2,297.61	59.0079	2,297.61	81.9989
2,378.17	85.5057	2,378.17	72.7535	2,378.17	87.2912	2,378.17	76.9336	2,378.17	60.9169	2,378.17	83.151
2,462.4	85.4737	2,462.4	74.088	2,462.4	87.1222	2,462.4	77.2836	2,462.4	64.5135	2,462.4	83.0822
2,548.83	84.321	2,548.83	73.9999	2,548.83	86.6886	2,548.83	77.4017	2,548.83	65.7448	2,548.83	82.5835
2,638.92	83.0556	2,638.92	75.4262	2,638.92	86.2972	2,638.92	77.8193	2,638.92	66.9351	2,638.92	82.2002
2,731.93	82.0857	2,731.93	77.7458	2,731.93	85.658	2,731.93	78.2114	2,731.93	67.3883	2,731.93	81.781
2,828.61	81.8129	2,828.61	78.8623	2,828.61	85.307	2,828.61	78.9463	2,828.61	68.9383	2,828.61	81.7275
2,928.22	81.9728	2,928.22	80.1266	2,928.22	84.6733	2,928.22	79.4108	2,928.22	70.316	2,928.22	81.5789
3,031.49	82.8946	3,031.49	80.3079	3,031.49	83.4874	3,031.49	79.2768	3,031.49	70.901	3,031.49	81.1038
3,138.43	83.5584	3,138.43	80.0584	3,138.43	83.6836	3,138.43	79.5879	3,138.43	71.3894	3,138.43	81.3774
3,249.02	83.6962	3,249.02	80.7095	3,249.02	83.9346	3,249.02	79.6974	3,249.02	72.0184	3,249.02	81.6118
3,363.28	83.8214	3,363.28	81.4849	3,363.28	84.1068	3,363.28	79.5173	3,363.28	72.4255	3,363.28	81.7551
3,481.93	83.8131	3,481.93	82.5629	3,481.93	84.2454	3,481.93	80.0779	3,481.93	72.749	3,481.93	82.0809
3,604.98	84.1119	3,604.98	83.1589	3,604.98	84.5156	3,604.98	80.8381	3,604.98	73.4473	3,604.98	82.5279
3,732.42	83.9588	3,732.42	82.9655	3,732.42	83.7862	3,732.42	80.9787	3,732.42	73.6806	3,732.42	82.2221
3,863.53	83.8646	3,863.53	82.9936	3,863.53	83.8176	3,863.53	81.1311	3,863.53	72.8067	3,863.53	82.254
3,999.76	83.4578	3,999.76	82.7106	3,999.76	83.7766	3,999.76	81.1806	3,999.76	72.8984	3,999.76	82.1506
4,141.11	83.7023	4,141.11	82.7025	4,141.11	83.7778	4,141.11	80.8733	4,141.11	71.5216	4,141.11	82.0812
4,286.87	83.4805	4,286.87	82.3601	4,286.87	84.2727	4,286.87	81.3639	4,286.87	73.1317	4,286.87	82.3709
4,438.48	83.5108	4,438.48	82.2493	4,438.48	84.385	4,438.48	81.6171	4,438.48	72.5548	4,438.48	82.481
4,594.48	83.6733	4,594.48	82.3344	4,594.48	84.3719	4,594.48	81.5372	4,594.48	73.8265	4,594.48	82.5015
4,757.08	83.6505	4,757.08	82.2506	4,757.08	84.3313	4,757.08	81.8652	4,757.08	73.1913	4,757.08	82.5673
4,924.8	84.0614	4,924.8	81.8781	4,924.8	84.4148	4,924.8	81.4764	4,924.8	73.1968	4,924.8	82.5048
5,098.39	83.6498	5,098.39	81.4557	5,098.39	84.3846	5,098.39	81.521	5,098.39	72.9084	5,098.39	82.3957
5,277.83	83.5673	5,277.83	80.7369	5,277.83	84.2009	5,277.83	80.9908	5,277.83	71.8385	5,277.83	82.0633
5,463.87	83.1742	5,463.87	80.6015	5,463.87	83.8198	5,463.87	80.3782	5,463.87	72.129	5,463.87	81.6418
5,656.49	83.0205	5,656.49	80.7589	5,656.49	83.2008	5,656.49	80.1165	5,656.49	70.843	5,656.49	81.2724
5,856.45	82.4995	5,856.45	81.2032	5,856.45	83.3886	5,856.45	79.4797	5,856.45	70.4599	5,856.45	81.1356
6,062.99	82.3083	6,062.99	81.6125	6,062.99	84.1513	6,062.99	79.4688	6,062.99	70.4821	6,062.99	81.5139
6,276.86	82.2248	6,276.86	81.4072	6,276.86	84.7489	6,276.86	80.0304	6,276.86	71.1085	6,276.86	81.9254
6,498.05	82.1472	6,498.05	81.0176	6,498.05	84.9862	6,498.05	80.2395	6,498.05	71.059	6,498.05	82.0544
6,727.29	82.4818	6,727.29	80.5793	6,727.29	85.6104	6,727.29	80.3547	6,727.29	72.2726	6,727.29	82.4374
6,964.6	82.6233	6,964.6	79.9942	6,964.6	85.5834	6,964.6	80.2367	6,964.6	72.0403	6,964.6	82.3672
7,209.96	82.6744	7,209.96	79.9447	7,209.96	85.4371	7,209.96	79.9767	7,209.96	70.6657	7,209.96	82.2143
7,464.11	82.7204	7,464.11	79.5332	7,464.11	84.6712	7,464.11	79.3906	7,464.11	70.4647	7,464.11	81.6313
7,727.78	82.6936	7,727.78	79.3497	7,727.78	83.5958	7,727.78	78.0016	7,727.78	69.5771	7,727.78	80.7309
8,000.24	82.583	8,000.24	79.2509	8,000.24	83.3073	8,000.24	76.8932	8,000.24	66.7055	8,000.24	80.3194
8,282.23	82.1754	8,282.23	78.9844	8,282.23	84.5036	8,282.23	77.4303	8,282.23	67.5024	8,282.23	81.0054
8,574.46	82.0484	8,574.46	78.2924	8,574.46	85.6925	8,574.46	78.4489	8,574.46	68.2669	8,574.46	81.8701
8,876.22	82.6091	8,876.22	77.5328	8,876.22	85.6283	8,876.22	78.1755	8,876.22	68.7623	8,876.22	81.8214
9,189.7	82.6928	9,189.7	76.3453	9,189.7	84.5517	9,189.7	77.1845	9,189.7	68.2866	9,189.7	80.9378
9,513.43	82.3759	9,513.43	76.1515	9,513.43	83.0727	9,513.43	75.595	9,513.43	67.7992	9,513.43	79.7297
9,848.88	82.0168	9,848.88	76.0382	9,848.88	82.7217	9,848.88	74.7125	9,848.88	65.3041	9,848.88	79.3019
10,196.8	81.4466	10,196.8	76.1808	10,196.8	83.2813	10,196.8	75.097	10,196.8	66.1889	10,196.8	79.5961
10,556.4	80.9612	10,556.4	75.1008	10,556.4	83.7374	10,556.4	75.8178	10,556.4	66.6311	10,556.4	79.868
10,928.5	80.5887	10,928.5	74.3192	10,928.5	83.4695	10,928.5	76.2374	10,928.5	66.4708	10,928.5	79.6787
11,313.7	80.184	11,313.7	73.5756	11,313.7	82.7208	11,313.7	76.4298	11,313.7	67.7499	11,313.7	79.1715
11,712.9	79.4056	11,712.9	73.2587	11,712.9	81.7723	11,712.9	75.8465	11,712.9	66.4457	11,712.9	78.3433
12,126	78.8222	12,126	73.6763	12,126	81.6643	12,126	75.1921	12,126	64.0713	12,126	78.0612
12,553.7	78.9546	12,553.7	74.6025	12,553.7	82.3346	12,553.7	75.0031	12,553.7	62.2826	12,553.7	78.5036
12,996.1	79.6668	12,996.1	75.3326	12,996.1	82.5408	12,996.1	74.4054	12,996.1	61.3926	12,996.1	78.6758
13,454.6	79.9339	13,454.6	75.4363	13,454.6	82.1464	13,454.6	73.1066	13,454.6	58.1439	13,454.6	78.2912
13,928.5	80.0483	13,928.5	74.8399	13,928.5	81.2558	13,928.5	71.9057	13,928.5	60.151	13,928.5	77.5754
14,419.9	79.7871	14,419.9	74.3338	14,419.9	80.6272	14,419.9	71.8705	14,419.9	61.915	14,419.9	77.1027
14,928.2	80.0957	14,928.2	74.8786	14,928.2	81.127	14,928.2	71.3651	14,928.2	61.9336	14,928.2	77.4578
15,454.8	80.5291	15,454.8	74.7569	15,454.8	81.3119	15,454.8	70.2419	15,454.8	61.4947	15,454.8	77.5687
15,999.8	80.0306	15,999.8	73.5795	15,999.8	80.5941	15,999.8	70.9283	15,999.8	63.0775	15,999.8	76.9999
16,564.5	81.0765	16,564.5	73.6098	16,564.5	82.2755	16,564.5	71.4744	16,564.5	61.8679	16,564.5	78.3554
17,148.2	80.8831	17,148.2	72.768	17,148.2	83.3559	17,148.2	70.5528	17,148.2	60.7053	17,148.2	78.9836
17,753.2	80.203	17,753.2	70.5117	17,753.2	84.2664	17,753.2	69.4733	17,753.2	59.1202	17,753.2	79.4839
18,379.4	79.5707	18,379.4	68.4401	18,379.4	83.8602	18,379.4	66.9899	18,379.4	57.2315	18,379.4	78.9612
19,027.6	78.2012	19,027.6	66.2767	19,027.6	82.4933	19,027.6	63.3901	19,027.6	56.6954	19,027.6	77.5443
19,698.5	76.3419	19,698.5	63.2889	19,698.5	82.8054	19,698.5	62.6455	19,698.5	57.5445	19,698.5	77.5856
19,999.5	75.4608	19,999.5	61.0364	19,999.5	83.0089	19,999.5	62.5073	19,999.5	57.5667	19,999.5	77.6926
