"SPL Horizontal"																																																																							
"On-Axis"		"10°"		"-10°"		"20°"		"-20°"		"30°"		"-30°"		"40°"		"-40°"		"50°"		"-50°"		"60°"		"-60°"		"70°"		"-70°"		"80°"		"-80°"		"90°"		"-90°"		"100°"		"-100°"		"110°"		"-110°"		"120°"		"-120°"		"130°"		"-130°"		"140°"		"-140°"		"150°"		"-150°"		"160°"		"-160°"		"170°"		"-170°"		"180°"	
"Frequency [Hz]"	"Sound Pessure Level [dB]  / [2.83V 1m] "	"Frequency [Hz]"	"Sound Pessure Level [dB]  / [2.83V 1m] "	"Frequency [Hz]"	"Sound Pessure Level [dB]  / [2.83V 1m] "	"Frequency [Hz]"	"Sound Pessure Level [dB]  / [2.83V 1m] "	"Frequency [Hz]"	"Sound Pessure Level [dB]  / [2.83V 1m] "	"Frequency [Hz]"	"Sound Pessure Level [dB]  / [2.83V 1m] "	"Frequency [Hz]"	"Sound Pessure Level [dB]  / [2.83V 1m] "	"Frequency [Hz]"	"Sound Pessure Level [dB]  / [2.83V 1m] "	"Frequency [Hz]"	"Sound Pessure Level [dB]  / [2.83V 1m] "	"Frequency [Hz]"	"Sound Pessure Level [dB]  / [2.83V 1m] "	"Frequency [Hz]"	"Sound Pessure Level [dB]  / [2.83V 1m] "	"Frequency [Hz]"	"Sound Pessure Level [dB]  / [2.83V 1m] "	"Frequency [Hz]"	"Sound Pessure Level [dB]  / [2.83V 1m] "	"Frequency [Hz]"	"Sound Pessure Level [dB]  / [2.83V 1m] "	"Frequency [Hz]"	"Sound Pessure Level [dB]  / [2.83V 1m] "	"Frequency [Hz]"	"Sound Pessure Level [dB]  / [2.83V 1m] "	"Frequency [Hz]"	"Sound Pessure Level [dB]  / [2.83V 1m] "	"Frequency [Hz]"	"Sound Pessure Level [dB]  / [2.83V 1m] "	"Frequency [Hz]"	"Sound Pessure Level [dB]  / [2.83V 1m] "	"Frequency [Hz]"	"Sound Pessure Level [dB]  / [2.83V 1m] "	"Frequency [Hz]"	"Sound Pessure Level [dB]  / [2.83V 1m] "	"Frequency [Hz]"	"Sound Pessure Level [dB]  / [2.83V 1m] "	"Frequency [Hz]"	"Sound Pessure Level [dB]  / [2.83V 1m] "	"Frequency [Hz]"	"Sound Pessure Level [dB]  / [2.83V 1m] "	"Frequency [Hz]"	"Sound Pessure Level [dB]  / [2.83V 1m] "	"Frequency [Hz]"	"Sound Pessure Level [dB]  / [2.83V 1m] "	"Frequency [Hz]"	"Sound Pessure Level [dB]  / [2.83V 1m] "	"Frequency [Hz]"	"Sound Pessure Level [dB]  / [2.83V 1m] "	"Frequency [Hz]"	"Sound Pessure Level [dB]  / [2.83V 1m] "	"Frequency [Hz]"	"Sound Pessure Level [dB]  / [2.83V 1m] "	"Frequency [Hz]"	"Sound Pessure Level [dB]  / [2.83V 1m] "	"Frequency [Hz]"	"Sound Pessure Level [dB]  / [2.83V 1m] "	"Frequency [Hz]"	"Sound Pessure Level [dB]  / [2.83V 1m] "	"Frequency [Hz]"	"Sound Pessure Level [dB]  / [2.83V 1m] "	"Frequency [Hz]"	"Sound Pessure Level [dB]  / [2.83V 1m] "	"Frequency [Hz]"	"Sound Pessure Level [dB]  / [2.83V 1m] "
20.5078	59.3516	20.5078	59.3091	20.5078	59.3884	20.5078	59.262	20.5078	59.418	20.5078	59.2112	20.5078	59.4383	20.5078	59.1568	20.5078	59.4472	20.5078	59.0991	20.5078	59.4425	20.5078	59.0377	20.5078	59.4223	20.5078	58.9727	20.5078	59.3848	20.5078	58.9041	20.5078	59.3295	20.5078	58.8323	20.5078	59.2564	20.5078	58.7585	20.5078	59.1671	20.5078	58.6843	20.5078	59.0644	20.5078	58.6121	20.5078	58.9527	20.5078	58.5452	20.5078	58.8375	20.5078	58.4873	20.5078	58.7252	20.5078	58.4426	20.5078	58.6225	20.5078	58.4153	20.5078	58.5356	20.5078	58.4092	20.5078	58.4693	20.5078	58.4269
21.2402	60.5946	21.2402	60.5369	21.2402	60.6471	21.2402	60.4754	21.2402	60.6929	21.2402	60.411	21.2402	60.7301	21.2402	60.3444	21.2402	60.7566	21.2402	60.276	21.2402	60.7704	21.2402	60.2063	21.2402	60.7695	21.2402	60.1358	21.2402	60.7522	21.2402	60.0654	21.2402	60.7174	21.2402	59.9962	21.2402	60.6648	21.2402	59.93	21.2402	60.595	21.2402	59.8691	21.2402	60.5096	21.2402	59.8161	21.2402	60.4116	21.2402	59.7742	21.2402	60.305	21.2402	59.7465	21.2402	60.1948	21.2402	59.7361	21.2402	60.0866	21.2402	59.7452	21.2402	59.9858	21.2402	59.7753	21.2402	59.8978	21.2402	59.8267
21.9727	61.1668	21.9727	61.1099	21.9727	61.2187	21.9727	61.0492	21.9727	61.2638	21.9727	60.9855	21.9727	61.3005	21.9727	60.9196	21.9727	61.3267	21.9727	60.852	21.9727	61.3405	21.9727	60.7831	21.9727	61.3399	21.9727	60.7136	21.9727	61.3234	21.9727	60.6442	21.9727	61.2899	21.9727	60.5763	21.9727	61.2392	21.9727	60.5117	21.9727	61.1718	21.9727	60.4526	21.9727	61.0894	21.9727	60.4019	21.9727	60.9948	21.9727	60.3624	21.9727	60.8917	21.9727	60.3373	21.9727	60.7849	21.9727	60.3293	21.9727	60.6796	21.9727	60.3405	21.9727	60.5812	21.9727	60.3721	21.9727	60.4946	21.9727	60.4239
22.7051	61.9528	22.7051	61.8958	22.7051	62.0047	22.7051	61.8349	22.7051	62.0499	22.7051	61.7708	22.7051	62.0867	22.7051	61.7044	22.7051	62.113	22.7051	61.6358	22.7051	62.127	22.7051	61.5657	22.7051	62.1266	22.7051	61.4945	22.7051	62.1103	22.7051	61.423	22.7051	62.077	22.7051	61.3526	22.7051	62.0263	22.7051	61.2852	22.7051	61.9586	22.7051	61.2232	22.7051	61.8755	22.7051	61.1696	22.7051	61.7797	22.7051	61.1278	22.7051	61.6748	22.7051	61.101	22.7051	61.5656	22.7051	61.0923	22.7051	61.4573	22.7051	61.104	22.7051	61.3555	22.7051	61.1371	22.7051	61.2654	22.7051	61.1915
23.4375	62.4967	23.4375	62.4486	23.4375	62.539	23.4375	62.3956	23.4375	62.5742	23.4375	62.3381	23.4375	62.6009	23.4375	62.2767	23.4375	62.6175	23.4375	62.2114	23.4375	62.6221	23.4375	62.1425	23.4375	62.6131	23.4375	62.0704	23.4375	62.5891	23.4375	61.9961	23.4375	62.5492	23.4375	61.9207	23.4375	62.4931	23.4375	61.8465	23.4375	62.4214	23.4375	61.7761	23.4375	62.3356	23.4375	61.7128	23.4375	62.2384	23.4375	61.6602	23.4375	62.1337	23.4375	61.6223	23.4375	62.0259	23.4375	61.6025	23.4375	61.9206	23.4375	61.6034	23.4375	61.8232	23.4375	61.6268	23.4375	61.739	23.4375	61.6725
24.1699	63.0437	24.1699	62.9927	24.1699	63.0882	24.1699	62.936	24.1699	63.1252	24.1699	62.8743	24.1699	63.1531	24.1699	62.808	24.1699	63.1704	24.1699	62.7373	24.1699	63.1754	24.1699	62.6626	24.1699	63.1666	24.1699	62.5847	24.1699	63.1426	24.1699	62.5045	24.1699	63.1024	24.1699	62.4237	24.1699	63.0456	24.1699	62.3447	24.1699	62.9728	24.1699	62.2706	24.1699	62.8855	24.1699	62.2051	24.1699	62.786	24.1699	62.1521	24.1699	62.678	24.1699	62.1155	24.1699	62.5661	24.1699	62.0989	24.1699	62.4555	24.1699	62.1048	24.1699	62.3519	24.1699	62.1344	24.1699	62.2608	24.1699	62.1871
25.6348	64.3182	25.6348	64.2723	25.6348	64.3576	25.6348	64.2208	25.6348	64.3897	25.6348	64.1641	25.6348	64.4131	25.6348	64.1026	25.6348	64.4264	25.6348	64.0367	25.6348	64.4282	25.6348	63.9666	25.6348	64.4172	25.6348	63.8931	25.6348	64.3922	25.6348	63.8173	25.6348	64.3523	25.6348	63.7406	25.6348	64.2974	25.6348	63.6655	25.6348	64.2281	25.6348	63.5948	25.6348	64.1458	25.6348	63.532	25.6348	64.0527	25.6348	63.4807	25.6348	63.9523	25.6348	63.4447	25.6348	63.8489	25.6348	63.4272	25.6348	63.7471	25.6348	63.4306	25.6348	63.6523	25.6348	63.456	25.6348	63.5695	25.6348	63.5029
26.3672	65.0481	26.3672	65.0049	26.3672	65.0845	26.3672	64.9556	26.3672	65.1131	26.3672	64.9007	26.3672	65.1328	26.3672	64.8405	26.3672	65.1422	26.3672	64.7755	26.3672	65.1401	26.3672	64.706	26.3672	65.1251	26.3672	64.6326	26.3672	65.0964	26.3672	64.5564	26.3672	65.0531	26.3672	64.479	26.3672	64.9954	26.3672	64.4026	26.3672	64.9239	26.3672	64.3301	26.3672	64.84	26.3672	64.2649	26.3672	64.7463	26.3672	64.2106	26.3672	64.6463	26.3672	64.1709	26.3672	64.544	26.3672	64.1493	26.3672	64.4445	26.3672	64.1482	26.3672	64.3527	26.3672	64.1689	26.3672	64.2735	26.3672	64.2112
27.0996	65.6322	27.0996	65.5888	27.0996	65.6687	27.0996	65.5391	27.0996	65.6973	27.0996	65.4838	27.0996	65.7171	27.0996	65.4232	27.0996	65.7267	27.0996	65.3576	27.0996	65.7249	27.0996	65.2874	27.0996	65.7105	27.0996	65.2135	27.0996	65.6825	27.0996	65.137	27.0996	65.6404	27.0996	65.0596	27.0996	65.5841	27.0996	64.9835	27.0996	65.5142	27.0996	64.9118	27.0996	65.4322	27.0996	64.8479	27.0996	65.3404	27.0996	64.7955	27.0996	65.242	27.0996	64.7581	27.0996	65.1412	27.0996	64.7391	27.0996	65.0426	27.0996	64.7405	27.0996	64.951	27.0996	64.7636	27.0996	64.8714	27.0996	64.8078
27.832	66.1398	27.832	66.0962	27.832	66.1764	27.832	66.0465	27.832	66.2053	27.832	65.9911	27.832	66.2253	27.832	65.9304	27.832	66.2353	27.832	65.8649	27.832	66.234	27.832	65.7949	27.832	66.2204	27.832	65.7214	27.832	66.1933	27.832	65.6455	27.832	66.1523	27.832	65.569	27.832	66.0973	27.832	65.494	27.832	66.0288	27.832	65.4237	27.832	65.9483	27.832	65.3614	27.832	65.8581	27.832	65.3107	27.832	65.7613	27.832	65.2751	27.832	65.6618	27.832	65.2577	27.832	65.5641	27.832	65.2607	27.832	65.4732	27.832	65.2849	27.832	65.3938	27.832	65.3299
29.2969	67.2762	29.2969	67.2341	29.2969	67.312	29.2969	67.1863	29.2969	67.3406	29.2969	67.1334	29.2969	67.3611	29.2969	67.0758	29.2969	67.3724	29.2969	67.0139	29.2969	67.3733	29.2969	66.9484	29.2969	67.3628	29.2969	66.8801	29.2969	67.34	29.2969	66.8101	29.2969	67.3044	29.2969	66.7403	29.2969	67.2558	29.2969	66.6728	29.2969	67.1948	29.2969	66.6103	29.2969	67.1225	29.2969	66.556	29.2969	67.041	29.2969	66.5131	29.2969	66.9529	29.2969	66.4846	29.2969	66.862	29.2969	66.4731	29.2969	66.772	29.2969	66.4802	29.2969	66.6875	29.2969	66.5065	29.2969	66.6126	29.2969	66.5513
30.0293	67.6651	30.0293	67.6246	30.0293	67.6989	30.0293	67.578	30.0293	67.7251	30.0293	67.5256	30.0293	67.743	30.0293	67.468	30.0293	67.7515	30.0293	67.4056	30.0293	67.7496	30.0293	67.3389	30.0293	67.7363	30.0293	67.2689	30.0293	67.7109	30.0293	67.1968	30.0293	67.6729	30.0293	67.1244	30.0293	67.6222	30.0293	67.054	30.0293	67.5595	30.0293	66.9885	30.0293	67.4858	30.0293	66.9312	30.0293	67.4032	30.0293	66.8853	30.0293	67.3145	30.0293	66.8541	30.0293	67.2231	30.0293	66.8401	30.0293	67.133	30.0293	66.8452	30.0293	67.0487	30.0293	66.87	30.0293	66.9742	30.0293	66.9136
31.4941	68.742	31.4941	68.7063	31.4941	68.7715	31.4941	68.6649	31.4941	68.794	31.4941	68.6182	31.4941	68.8088	31.4941	68.5666	31.4941	68.8151	31.4941	68.5107	31.4941	68.8122	31.4941	68.4511	31.4941	68.7992	31.4941	68.3887	31.4941	68.7757	31.4941	68.3248	31.4941	68.7413	31.4941	68.2611	31.4941	68.6962	31.4941	68.1997	31.4941	68.6409	31.4941	68.1432	31.4941	68.5766	31.4941	68.0943	31.4941	68.5051	31.4941	68.0558	31.4941	68.4287	31.4941	68.0302	31.4941	68.3503	31.4941	68.0196	31.4941	68.2733	31.4941	68.0252	31.4941	68.2012	31.4941	68.0474	31.4941	68.1376	31.4941	68.0854
32.2266	69.1627	32.2266	69.1244	32.2266	69.1943	32.2266	69.0799	32.2266	69.2186	32.2266	69.0297	32.2266	69.235	32.2266	68.9742	32.2266	69.2427	32.2266	68.914	32.2266	69.241	32.2266	68.85	32.2266	69.2293	32.2266	68.7832	32.2266	69.2071	32.2266	68.7152	32.2266	69.174	32.2266	68.648	32.2266	69.1302	32.2266	68.5841	32.2266	69.076	32.2266	68.5264	32.2266	69.0124	32.2266	68.4778	32.2266	68.941	32.2266	68.4413	32.2266	68.864	32.2266	68.4194	32.2266	68.7838	32.2266	68.414	32.2266	68.7039	32.2266	68.4258	32.2266	68.6275	32.2266	68.4549	32.2266	68.5583	32.2266	68.4998
33.6914	69.9603	33.6914	69.9282	33.6914	69.9842	33.6914	69.8883	33.6914	69.9997	33.6914	69.841	33.6914	70.0061	33.6914	69.7866	33.6914	70.0032	33.6914	69.7258	33.6914	69.9904	33.6914	69.6592	33.6914	69.9673	33.6914	69.5881	33.6914	69.9338	33.6914	69.514	33.6914	69.89	33.6914	69.439	33.6914	69.8361	33.6914	69.3659	33.6914	69.773	33.6914	69.2976	33.6914	69.702	33.6914	69.2375	33.6914	69.6248	33.6914	69.1888	33.6914	69.5438	33.6914	69.1546	33.6914	69.4619	33.6914	69.137	33.6914	69.3823	33.6914	69.1376	33.6914	69.3086	33.6914	69.1564	33.6914	69.2442	33.6914	69.1926
34.4238	70.4507	34.4238	70.4191	34.4238	70.4745	34.4238	70.3799	34.4238	70.4899	34.4238	70.3335	34.4238	70.4966	34.4238	70.2803	34.4238	70.4941	34.4238	70.221	34.4238	70.4822	34.4238	70.1564	34.4238	70.4604	34.4238	70.0875	34.4238	70.4286	34.4238	70.0162	34.4238	70.387	34.4238	69.9444	34.4238	70.3359	34.4238	69.8747	34.4238	70.276	34.4238	69.8102	34.4238	70.2087	34.4238	69.754	34.4238	70.1355	34.4238	69.7091	34.4238	70.0587	34.4238	69.6783	34.4238	69.9808	34.4238	69.6636	34.4238	69.905	34.4238	69.6661	34.4238	69.8344	34.4238	69.6859	34.4238	69.7723	34.4238	69.7219
35.8887	71.3551	35.8887	71.3253	35.8887	71.3765	35.8887	71.2874	35.8887	71.3891	35.8887	71.2419	35.8887	71.3925	35.8887	71.1892	35.8887	71.3865	35.8887	71.1299	35.8887	71.3706	35.8887	71.0649	35.8887	71.3446	35.8887	70.9954	35.8887	71.3087	35.8887	70.923	35.8887	71.2629	35.8887	70.8498	35.8887	71.2078	35.8887	70.7783	35.8887	71.1445	35.8887	70.7113	35.8887	71.0742	35.8887	70.6521	35.8887	70.9988	35.8887	70.6037	35.8887	70.9208	35.8887	70.5687	35.8887	70.8427	35.8887	70.5495	35.8887	70.7678	35.8887	70.5472	35.8887	70.6992	35.8887	70.5622	35.8887	70.6402	35.8887	70.5937
37.3535	72.1038	37.3535	72.0728	37.3535	72.1266	37.3535	72.0337	37.3535	72.1406	37.3535	71.9871	37.3535	72.1456	37.3535	71.9335	37.3535	72.1414	37.3535	71.8736	37.3535	72.1275	37.3535	71.8085	37.3535	72.1041	37.3535	71.7395	37.3535	72.071	37.3535	71.6683	37.3535	72.0285	37.3535	71.5972	37.3535	71.9772	37.3535	71.5289	37.3535	71.9179	37.3535	71.4661	37.3535	71.8519	37.3535	71.412	37.3535	71.7808	37.3535	71.3693	37.3535	71.7068	37.3535	71.3405	37.3535	71.6321	37.3535	71.3273	37.3535	71.5597	37.3535	71.3305	37.3535	71.4924	37.3535	71.3501	37.3535	71.4332	37.3535	71.3849
38.8184	72.9179	38.8184	72.8899	38.8184	72.9372	38.8184	72.8534	38.8184	72.9476	38.8184	72.809	38.8184	72.9489	38.8184	72.757	38.8184	72.9409	38.8184	72.6982	38.8184	72.9236	38.8184	72.6338	38.8184	72.8972	38.8184	72.5651	38.8184	72.8617	38.8184	72.494	38.8184	72.8177	38.8184	72.4228	38.8184	72.7658	38.8184	72.3541	38.8184	72.7069	38.8184	72.2909	38.8184	72.6424	38.8184	72.2363	38.8184	72.5737	38.8184	72.193	38.8184	72.5028	38.8184	72.1634	38.8184	72.4319	38.8184	72.149	38.8184	72.3636	38.8184	72.1507	38.8184	72.3003	38.8184	72.1681	38.8184	72.245	38.8184	72.2001
39.5508	73.3645	39.5508	73.3428	39.5508	73.3765	39.5508	73.3115	39.5508	73.3787	39.5508	73.271	39.5508	73.371	39.5508	73.2215	39.5508	73.3536	39.5508	73.164	39.5508	73.3267	39.5508	73.0992	39.5508	73.2905	39.5508	73.0287	39.5508	73.2457	39.5508	72.9542	39.5508	73.1928	39.5508	72.8782	39.5508	73.133	39.5508	72.8032	39.5508	73.0675	39.5508	72.7325	39.5508	72.9978	39.5508	72.6691	39.5508	72.9257	39.5508	72.6162	39.5508	72.8535	39.5508	72.5764	39.5508	72.7832	39.5508	72.5515	39.5508	72.7176	39.5508	72.5427	39.5508	72.659	39.5508	72.5502	39.5508	72.61	39.5508	72.5731
41.0156	74.819	41.0156	74.785	41.0156	74.845	41.0156	74.7435	41.0156	74.8626	41.0156	74.6952	41.0156	74.8714	41.0156	74.6406	41.0156	74.8711	41.0156	74.5806	41.0156	74.8614	41.0156	74.5165	41.0156	74.8422	41.0156	74.4495	41.0156	74.8134	41.0156	74.3815	41.0156	74.7752	41.0156	74.3147	41.0156	74.728	41.0156	74.2514	41.0156	74.6727	41.0156	74.1944	41.0156	74.6102	41.0156	74.1464	41.0156	74.5423	41.0156	74.11	41.0156	74.4707	41.0156	74.0872	41.0156	74.3979	41.0156	74.0795	41.0156	74.3264	41.0156	74.0876	41.0156	74.2592	41.0156	74.1111	41.0156	74.1991	41.0156	74.1489
42.4805	74.9623	42.4805	74.9337	42.4805	74.9827	42.4805	74.8971	42.4805	74.9947	42.4805	74.853	42.4805	74.9983	42.4805	74.8018	42.4805	74.9933	42.4805	74.7445	42.4805	74.9798	42.4805	74.6822	42.4805	74.9579	42.4805	74.6164	42.4805	74.9278	42.4805	74.549	42.4805	74.8899	42.4805	74.4823	42.4805	74.8447	42.4805	74.419	42.4805	74.7928	42.4805	74.362	42.4805	74.7353	42.4805	74.3141	42.4805	74.6732	42.4805	74.2779	42.4805	74.6082	42.4805	74.2553	42.4805	74.5421	42.4805	74.2477	42.4805	74.477	42.4805	74.2553	42.4805	74.4154	42.4805	74.2776	42.4805	74.3599	42.4805	74.3131
43.9453	75.6723	43.9453	75.6465	43.9453	75.689	43.9453	75.6119	43.9453	75.6965	43.9453	75.5688	43.9453	75.6948	43.9453	75.518	43.9453	75.684	43.9453	75.4601	43.9453	75.6642	43.9453	75.3965	43.9453	75.6357	43.9453	75.3287	43.9453	75.5991	43.9453	75.2586	43.9453	75.5548	43.9453	75.1888	43.9453	75.5036	43.9453	75.1218	43.9453	75.4466	43.9453	75.0605	43.9453	75.3849	43.9453	75.0079	43.9453	75.32	43.9453	74.9664	43.9453	75.2536	43.9453	74.9382	43.9453	75.1875	43.9453	74.9246	43.9453	75.124	43.9453	74.9261	43.9453	75.0653	43.9453	74.9424	43.9453	75.014	43.9453	74.9723
45.4102	76.3578	45.4102	76.3344	45.4102	76.3715	45.4102	76.3017	45.4102	76.3756	45.4102	76.26	45.4102	76.37	45.4102	76.2099	45.4102	76.355	45.4102	76.1524	45.4102	76.331	45.4102	76.0887	45.4102	76.2983	45.4102	76.0204	45.4102	76.2575	45.4102	75.9495	45.4102	76.2096	45.4102	75.8785	45.4102	76.1554	45.4102	75.81	45.4102	76.0961	45.4102	75.747	45.4102	76.0331	45.4102	75.6922	45.4102	75.9678	45.4102	75.6482	45.4102	75.902	45.4102	75.6171	45.4102	75.8376	45.4102	75.6001	45.4102	75.7766	45.4102	75.598	45.4102	75.7212	45.4102	75.6102	45.4102	75.6736	45.4102	75.636
47.6074	77.5444	47.6074	77.5237	47.6074	77.5552	47.6074	77.4933	47.6074	77.5561	47.6074	77.4538	47.6074	77.5473	47.6074	77.4057	47.6074	77.529	47.6074	77.3501	47.6074	77.5019	47.6074	77.2884	47.6074	77.4666	47.6074	77.2223	47.6074	77.4239	47.6074	77.154	47.6074	77.3749	47.6074	77.0858	47.6074	77.3208	47.6074	77.0204	47.6074	77.2629	47.6074	76.9605	47.6074	77.2027	47.6074	76.9087	47.6074	77.1416	47.6074	76.8671	47.6074	77.0813	47.6074	76.8376	47.6074	77.0233	47.6074	76.821	47.6074	76.9694	47.6074	76.8176	47.6074	76.9211	47.6074	76.827	47.6074	76.8802	47.6074	76.8483
49.0723	78.3339	49.0723	78.3144	49.0723	78.3435	49.0723	78.2851	49.0723	78.3432	49.0723	78.2466	49.0723	78.3332	49.0723	78.1995	49.0723	78.3141	49.0723	78.1449	49.0723	78.2864	49.0723	78.0842	49.0723	78.2508	49.0723	78.0193	49.0723	78.2084	49.0723	77.9522	49.0723	78.1603	49.0723	77.8855	49.0723	78.1077	49.0723	77.8219	49.0723	78.0518	49.0723	77.764	49.0723	77.9942	49.0723	77.7144	49.0723	77.9362	49.0723	77.675	49.0723	77.8793	49.0723	77.6474	49.0723	77.8248	49.0723	77.6324	49.0723	77.7742	49.0723	77.6299	49.0723	77.729	49.0723	77.6395	49.0723	77.6904	49.0723	77.6601
50.5371	78.9767	50.5371	78.9582	50.5371	78.9849	50.5371	78.9293	50.5371	78.9827	50.5371	78.8906	50.5371	78.9706	50.5371	78.8428	50.5371	78.949	50.5371	78.787	50.5371	78.9187	50.5371	78.7247	50.5371	78.8806	50.5371	78.6577	50.5371	78.8359	50.5371	78.5885	50.5371	78.7857	50.5371	78.5196	50.5371	78.7314	50.5371	78.4539	50.5371	78.6745	50.5371	78.3941	50.5371	78.6162	50.5371	78.3428	50.5371	78.5581	50.5371	78.3023	50.5371	78.5014	50.5371	78.2739	50.5371	78.4475	50.5371	78.2583	50.5371	78.3976	50.5371	78.2555	50.5371	78.3529	50.5371	78.2649	50.5371	78.315	50.5371	78.2852
52.7344	79.8263	52.7344	79.8081	52.7344	79.8335	52.7344	79.779	52.7344	79.8299	52.7344	79.7397	52.7344	79.8158	52.7344	79.6908	52.7344	79.7917	52.7344	79.6337	52.7344	79.7587	52.7344	79.5698	52.7344	79.7177	52.7344	79.5013	52.7344	79.67	52.7344	79.4306	52.7344	79.6169	52.7344	79.3602	52.7344	79.5601	52.7344	79.2931	52.7344	79.501	52.7344	79.2321	52.7344	79.4411	52.7344	79.1797	52.7344	79.382	52.7344	79.1381	52.7344	79.325	52.7344	79.1085	52.7344	79.2714	52.7344	79.0917	52.7344	79.2222	52.7344	79.0876	52.7344	79.1788	52.7344	79.0954	52.7344	79.1424	52.7344	79.1141
54.1992	80.5145	54.1992	80.4993	54.1992	80.5183	54.1992	80.4732	54.1992	80.5112	54.1992	80.4364	54.1992	80.4934	54.1992	80.3899	54.1992	80.4657	54.1992	80.3349	54.1992	80.4292	54.1992	80.273	54.1992	80.3849	54.1992	80.2063	54.1992	80.3344	54.1992	80.1371	54.1992	80.2792	54.1992	80.0681	54.1992	80.2211	54.1992	80.002	54.1992	80.1617	54.1992	79.9416	54.1992	80.1027	54.1992	79.8892	54.1992	80.0456	54.1992	79.8468	54.1992	79.9917	54.1992	79.8157	54.1992	79.9421	54.1992	79.7964	54.1992	79.8979	54.1992	79.7888	54.1992	79.8598	54.1992	79.7923	54.1992	79.8289	54.1992	79.8061
56.3965	81.3465	56.3965	81.3319	56.3965	81.3501	56.3965	81.3063	56.3965	81.3427	56.3965	81.2704	56.3965	81.3247	56.3965	81.2253	56.3965	81.2969	56.3965	81.1722	56.3965	81.2604	56.3965	81.1131	56.3965	81.2166	56.3965	81.05	56.3965	81.1671	56.3965	80.9853	56.3965	81.1136	56.3965	80.9218	56.3965	81.058	56.3965	80.8619	56.3965	81.0021	56.3965	80.808	56.3965	80.9475	56.3965	80.7623	56.3965	80.8959	56.3965	80.726	56.3965	80.8483	56.3965	80.6999	56.3965	80.8055	56.3965	80.6841	56.3965	80.7682	56.3965	80.6782	56.3965	80.7367	56.3965	80.6814	56.3965	80.7113	56.3965	80.6927
58.5938	82.1331	58.5938	82.115	58.5938	82.1398	58.5938	82.0857	58.5938	82.135	58.5938	82.046	58.5938	82.1193	58.5938	81.9972	58.5938	82.0935	58.5938	81.9408	58.5938	82.0586	58.5938	81.8789	58.5938	82.0162	58.5938	81.8138	58.5938	81.9679	58.5938	81.7484	58.5938	81.9155	58.5938	81.6853	58.5938	81.8611	58.5938	81.6274	58.5938	81.8065	58.5938	81.5769	58.5938	81.7533	58.5938	81.5358	58.5938	81.7031	58.5938	81.5051	58.5938	81.6568	58.5938	81.4852	58.5938	81.615	58.5938	81.4756	58.5938	81.5782	58.5938	81.4754	58.5938	81.5463	58.5938	81.4834	58.5938	81.5197	58.5938	81.4985
60.0586	82.5305	60.0586	82.5097	60.0586	82.5393	60.0586	82.4774	60.0586	82.5363	60.0586	82.4343	60.0586	82.5218	60.0586	82.3819	60.0586	82.4969	60.0586	82.3217	60.0586	82.4627	60.0586	82.2562	60.0586	82.4206	60.0586	82.1879	60.0586	82.3726	60.0586	82.1198	60.0586	82.3205	60.0586	82.0549	60.0586	82.2662	60.0586	81.9961	60.0586	82.2118	60.0586	81.946	60.0586	82.1587	60.0586	81.9065	60.0586	82.1085	60.0586	81.8785	60.0586	82.0618	60.0586	81.8622	60.0586	82.0193	60.0586	81.8569	60.0586	81.9811	60.0586	81.8613	60.0586	81.9472	60.0586	81.8738	60.0586	81.9178	60.0586	81.893
62.2559	83.113	62.2559	83.0929	62.2559	83.1203	62.2559	83.0601	62.2559	83.1146	62.2559	83.0157	62.2559	83.0967	62.2559	82.961	62.2559	83.0674	62.2559	82.8979	62.2559	83.0282	62.2559	82.8288	62.2559	82.9808	62.2559	82.7567	62.2559	82.9272	62.2559	82.6846	62.2559	82.8697	62.2559	82.6157	62.2559	82.8106	62.2559	82.5532	62.2559	82.7519	62.2559	82.4998	62.2559	82.6956	62.2559	82.4573	62.2559	82.6432	62.2559	82.4268	62.2559	82.5954	62.2559	82.4084	62.2559	82.5528	62.2559	82.4012	62.2559	82.5154	62.2559	82.4038	62.2559	82.4828	62.2559	82.4146	62.2559	82.455	62.2559	82.432
64.4531	83.6929	64.4531	83.6712	64.4531	83.7007	64.4531	83.6362	64.4531	83.6949	64.4531	83.5888	64.4531	83.6758	64.4531	83.5307	64.4531	83.6446	64.4531	83.4638	64.4531	83.6026	64.4531	83.3909	64.4531	83.5519	64.4531	83.315	64.4531	83.4945	64.4531	83.2394	64.4531	83.4329	64.4531	83.1675	64.4531	83.3696	64.4531	83.1026	64.4531	83.307	64.4531	83.0475	64.4531	83.2473	64.4531	83.0039	64.4531	83.192	64.4531	82.9729	64.4531	83.1422	64.4531	82.9543	64.4531	83.0984	64.4531	82.9471	64.4531	83.0603	64.4531	82.9497	64.4531	83.0277	64.4531	82.9604	64.4531	83.0001	64.4531	82.9775
66.6504	84.1858	66.6504	84.1597	66.6504	84.1976	66.6504	84.1196	66.6504	84.1949	66.6504	84.0667	66.6504	84.1784	66.6504	84.0028	66.6504	84.1489	66.6504	83.9299	66.6504	84.108	66.6504	83.8509	66.6504	84.0574	66.6504	83.7692	66.6504	83.9995	66.6504	83.6882	66.6504	83.9365	66.6504	83.6118	66.6504	83.8711	66.6504	83.5434	66.6504	83.8056	66.6504	83.4859	66.6504	83.7423	66.6504	83.4414	66.6504	83.6827	66.6504	83.4109	66.6504	83.628	66.6504	83.3941	66.6504	83.5787	66.6504	83.3899	66.6504	83.535	66.6504	83.3966	66.6504	83.4964	66.6504	83.412	66.6504	83.4629	66.6504	83.4346
69.5801	84.7197	69.5801	84.6928	69.5801	84.7323	69.5801	84.6522	69.5801	84.7306	69.5801	84.599	69.5801	84.7154	69.5801	84.535	69.5801	84.6878	69.5801	84.4627	69.5801	84.6494	69.5801	84.3852	69.5801	84.6023	69.5801	84.3059	69.5801	84.5488	69.5801	84.2287	69.5801	84.4915	69.5801	84.1574	69.5801	84.4329	69.5801	84.0957	69.5801	84.3753	69.5801	84.0462	69.5801	84.3206	69.5801	84.0108	69.5801	84.2699	69.5801	83.9899	69.5801	84.2238	69.5801	83.9828	69.5801	84.1823	69.5801	83.9877	69.5801	84.1448	69.5801	84.0021	69.5801	84.1105	69.5801	84.0234	69.5801	84.0787	69.5801	84.0494
71.7773	85.1356	71.7773	85.1083	71.7773	85.1477	71.7773	85.0663	71.7773	85.1446	71.7773	85.0108	71.7773	85.1271	71.7773	84.9437	71.7773	85.0965	71.7773	84.8678	71.7773	85.0547	71.7773	84.7862	71.7773	85.0039	71.7773	84.7029	71.7773	84.9468	71.7773	84.6219	71.7773	84.8862	71.7773	84.5475	71.7773	84.8249	71.7773	84.4835	71.7773	84.7654	71.7773	84.433	71.7773	84.7097	71.7773	84.3976	71.7773	84.6591	71.7773	84.3778	71.7773	84.614	71.7773	84.3724	71.7773	84.5739	71.7773	84.3794	71.7773	84.5381	71.7773	84.3958	71.7773	84.5052	71.7773	84.4185	71.7773	84.4744	71.7773	84.4453
73.9746	85.5506	73.9746	85.5229	73.9746	85.5627	73.9746	85.4798	73.9746	85.5591	73.9746	85.4227	73.9746	85.5407	73.9746	85.3536	73.9746	85.5091	73.9746	85.2751	73.9746	85.466	73.9746	85.1907	73.9746	85.4141	73.9746	85.1045	73.9746	85.3561	73.9746	85.0208	73.9746	85.2949	73.9746	84.944	73.9746	85.2334	73.9746	84.8784	73.9746	85.1741	73.9746	84.827	73.9746	85.119	73.9746	84.7918	73.9746	85.0692	73.9746	84.7732	73.9746	85.0249	73.9746	84.77	73.9746	84.9855	73.9746	84.7796	73.9746	84.9499	73.9746	84.7989	73.9746	84.9166	73.9746	84.8246	73.9746	84.8847	73.9746	84.8538
76.9043	86.0192	76.9043	85.9974	76.9043	86.0245	76.9043	85.9596	76.9043	86.0138	76.9043	85.9071	76.9043	85.988	76.9043	85.8417	76.9043	85.9488	76.9043	85.7664	76.9043	85.8986	76.9043	85.6845	76.9043	85.8402	76.9043	85.6002	76.9043	85.7769	76.9043	85.5178	76.9043	85.712	76.9043	85.4421	76.9043	85.6488	76.9043	85.3769	76.9043	85.5902	76.9043	85.3255	76.9043	85.538	76.9043	85.2897	76.9043	85.4934	76.9043	85.2699	76.9043	85.4562	76.9043	85.2646	76.9043	85.4253	76.9043	85.2712	76.9043	85.3989	76.9043	85.2862	76.9043	85.375	76.9043	85.3064	76.9043	85.3519	76.9043	85.3289
79.834	86.4781	79.834	86.458	79.834	86.4805	79.834	86.421	79.834	86.4657	79.834	86.3683	79.834	86.4347	79.834	86.3021	79.834	86.3893	79.834	86.2254	79.834	86.3321	79.834	86.1419	79.834	86.2663	79.834	86.056	79.834	86.1955	79.834	85.9721	79.834	86.1237	79.834	85.8951	79.834	86.0547	79.834	85.829	79.834	85.9918	79.834	85.777	79.834	85.9375	79.834	85.7406	79.834	85.893	79.834	85.7199	79.834	85.8582	79.834	85.7132	79.834	85.8316	79.834	85.7175	79.834	85.8111	79.834	85.7292	79.834	85.7939	79.834	85.7448	79.834	85.7779	79.834	85.7615
82.7637	86.8233	82.7637	86.8024	82.7637	86.8259	82.7637	86.7638	82.7637	86.8101	82.7637	86.709	82.7637	86.7771	82.7637	86.6405	82.7637	86.7286	82.7637	86.5615	82.7637	86.6672	82.7637	86.4759	82.7637	86.5963	82.7637	86.3881	82.7637	86.5198	82.7637	86.3031	82.7637	86.442	82.7637	86.2255	82.7637	86.3672	82.7637	86.1592	82.7637	86.2991	82.7637	86.1073	82.7637	86.2408	82.7637	86.0712	82.7637	86.1939	82.7637	86.0504	82.7637	86.1583	82.7637	86.0429	82.7637	86.1329	82.7637	86.0456	82.7637	86.1151	82.7637	86.0546	82.7637	86.1018	82.7637	86.0664	82.7637	86.0903	82.7637	86.0787
85.6934	87.0759	85.6934	87.0487	85.6934	87.0845	85.6934	87.0038	85.6934	87.0746	85.6934	86.9429	85.6934	87.0472	85.6934	86.8689	85.6934	87.0042	85.6934	86.7853	85.6934	86.9482	85.6934	86.6967	85.6934	86.8828	85.6934	86.6081	85.6934	86.8121	85.6934	86.5246	85.6934	86.7404	85.6934	86.4515	85.6934	86.6721	85.6934	86.3928	85.6934	86.6108	85.6934	86.3513	85.6934	86.5593	85.6934	86.3278	85.6934	86.5189	85.6934	86.3213	85.6934	86.4892	85.6934	86.3286	85.6934	86.4683	85.6934	86.3455	85.6934	86.4533	85.6934	86.3674	85.6934	86.4405	85.6934	86.3899	85.6934	86.4268	85.6934	86.4102
88.623	87.3792	88.623	87.3524	88.623	87.3862	88.623	87.3066	88.623	87.3736	88.623	87.2438	88.623	87.3425	88.623	87.1667	88.623	87.295	88.623	87.0794	88.623	87.2342	88.623	86.9867	88.623	87.1639	88.623	86.8939	88.623	87.0888	88.623	86.8068	88.623	87.0135	88.623	86.731	88.623	86.9428	88.623	86.6709	88.623	86.8809	88.623	86.6296	88.623	86.8304	88.623	86.6079	88.623	86.7927	88.623	86.6043	88.623	86.767	88.623	86.6152	88.623	86.7509	88.623	86.6359	88.623	86.7406	88.623	86.6609	88.623	86.732	88.623	86.6853	88.623	86.7213	88.623	86.7059
91.5527	87.606	91.5527	87.579	91.5527	87.6118	91.5527	87.5317	91.5527	87.5965	91.5527	87.4661	91.5527	87.5614	91.5527	87.3853	91.5527	87.5088	91.5527	87.2934	91.5527	87.442	91.5527	87.1957	91.5527	87.3652	91.5527	87.0979	91.5527	87.2834	91.5527	87.0063	91.5527	87.2021	91.5527	86.9267	91.5527	87.1263	91.5527	86.864	91.5527	87.0608	91.5527	86.8215	91.5527	87.0086	91.5527	86.7998	91.5527	86.971	91.5527	86.7973	91.5527	86.9472	91.5527	86.81	91.5527	86.9343	91.5527	86.8324	91.5527	86.9279	91.5527	86.8585	91.5527	86.9232	91.5527	86.8832	91.5527	86.9158	91.5527	86.9028
94.4824	87.8001	94.4824	87.7738	94.4824	87.8033	94.4824	87.7254	94.4824	87.7837	94.4824	87.6571	94.4824	87.7424	94.4824	87.5722	94.4824	87.6821	94.4824	87.475	94.4824	87.6062	94.4824	87.371	94.4824	87.5194	94.4824	87.2665	94.4824	87.4272	94.4824	87.1681	94.4824	87.3356	94.4824	87.0822	94.4824	87.2507	94.4824	87.0141	94.4824	87.1776	94.4824	86.9673	94.4824	87.1202	94.4824	86.9426	94.4824	87.08	94.4824	86.938	94.4824	87.0563	94.4824	86.9492	94.4824	87.0457	94.4824	86.9703	94.4824	87.0433	94.4824	86.9946	94.4824	87.0435	94.4824	87.0167	94.4824	87.0411	94.4824	87.0326
98.1445	88.0084	98.1445	87.9781	98.1445	88.0148	98.1445	87.9249	98.1445	87.9972	98.1445	87.8511	98.1445	87.9569	98.1445	87.7603	98.1445	87.8964	98.1445	87.6571	98.1445	87.8193	98.1445	87.5474	98.1445	87.7303	98.1445	87.4377	98.1445	87.6351	98.1445	87.3349	98.1445	87.5397	98.1445	87.2457	98.1445	87.4505	98.1445	87.1753	98.1445	87.3729	98.1445	87.1274	98.1445	87.3108	98.1445	87.1024	98.1445	87.2661	98.1445	87.0984	98.1445	87.238	98.1445	87.1106	98.1445	87.2236	98.1445	87.1329	98.1445	87.2179	98.1445	87.1587	98.1445	87.2152	98.1445	87.1823	98.1445	87.2105	98.1445	87.2
101.807	88.1199	101.807	88.0875	101.807	88.126	101.807	88.0301	101.807	88.106	101.807	87.9504	101.807	88.0613	101.807	87.8523	101.807	87.9945	101.807	87.7409	101.807	87.9097	101.807	87.6229	101.807	87.8122	101.807	87.5056	101.807	87.7085	101.807	87.397	101.807	87.6056	101.807	87.3044	101.807	87.5107	101.807	87.2339	101.807	87.4302	101.807	87.189	101.807	87.3684	101.807	87.1702	101.807	87.3274	101.807	87.1743	101.807	87.306	101.807	87.1955	101.807	87.3001	101.807	87.2262	101.807	87.3035	101.807	87.2585	101.807	87.3092	101.807	87.2857	101.807	87.3108	101.807	87.3036
105.469	88.2991	105.469	88.263	105.469	88.3077	105.469	88.2006	105.469	88.2888	105.469	88.1146	105.469	88.244	105.469	88.0091	105.469	88.1758	105.469	87.8895	105.469	88.0885	105.469	87.7625	105.469	87.9875	105.469	87.6361	105.469	87.8793	105.469	87.5186	105.469	87.7711	105.469	87.4181	105.469	87.6705	105.469	87.341	105.469	87.5839	105.469	87.2915	105.469	87.5162	105.469	87.2702	105.469	87.4695	105.469	87.2739	105.469	87.4429	105.469	87.2965	105.469	87.4322	105.469	87.33	105.469	87.4313	105.469	87.3659	105.469	87.4329	105.469	87.3972	105.469	87.4304	105.469	87.4191
109.131	88.4939	109.131	88.4614	109.131	88.4974	109.131	88.4012	109.131	88.4721	109.131	88.316	109.131	88.4194	109.131	88.2101	109.131	88.3427	109.131	88.0892	109.131	88.2464	109.131	87.9605	109.131	88.1366	109.131	87.8322	109.131	88.0208	109.131	87.7131	109.131	87.907	109.131	87.6116	109.131	87.8034	109.131	87.5348	109.131	87.7173	109.131	87.4865	109.131	87.6535	109.131	87.4674	109.131	87.6141	109.131	87.474	109.131	87.5972	109.131	87.4994	109.131	87.5975	109.131	87.535	109.131	87.6078	109.131	87.5717	109.131	87.6196	109.131	87.6018	109.131	87.6255	109.131	87.6203
112.793	88.7063	112.793	88.6707	112.793	88.7092	112.793	88.6041	112.793	88.6791	112.793	88.5096	112.793	88.6176	112.793	88.3923	112.793	88.5279	112.793	88.2587	112.793	88.4148	112.793	88.1168	112.793	88.2852	112.793	87.976	112.793	88.1477	112.793	87.8461	112.793	88.0119	112.793	87.7365	112.793	87.888	112.793	87.6547	112.793	87.7853	112.793	87.6049	112.793	87.7106	112.793	87.587	112.793	87.6669	112.793	87.5964	112.793	87.6524	112.793	87.625	112.793	87.661	112.793	87.6625	112.793	87.6835	112.793	87.6984	112.793	87.7092	112.793	87.7242	112.793	87.7286	112.793	87.7347
116.455	88.8866	116.455	88.8451	116.455	88.8932	116.455	88.7705	116.455	88.865	116.455	88.6661	116.455	88.8034	116.455	88.537	116.455	88.7118	116.455	88.3901	116.455	88.5952	116.455	88.234	116.455	88.4606	116.455	88.0791	116.455	88.3169	116.455	87.9363	116.455	88.1744	116.455	87.8165	116.455	88.0436	116.455	87.7283	116.455	87.9347	116.455	87.6768	116.455	87.855	116.455	87.6621	116.455	87.8078	116.455	87.6789	116.455	87.7916	116.455	87.7177	116.455	87.7996	116.455	87.7665	116.455	87.8219	116.455	87.8134	116.455	87.847	116.455	87.8486	116.455	87.8643	116.455	87.8659
120.85	89.0084	120.85	88.9564	120.85	89.0242	120.85	88.8701	120.85	89.0034	120.85	88.7531	120.85	88.9472	120.85	88.6108	120.85	88.8583	120.85	88.4502	120.85	88.7414	120.85	88.2804	120.85	88.6031	120.85	88.1119	120.85	88.4517	120.85	87.9563	120.85	88.2975	120.85	87.8248	120.85	88.1513	120.85	87.7266	120.85	88.024	120.85	87.6672	120.85	87.9242	120.85	87.6467	120.85	87.8569	120.85	87.6599	120.85	87.8219	120.85	87.6967	120.85	87.8141	120.85	87.7449	120.85	87.8239	120.85	87.7922	120.85	87.8398	120.85	87.8287	120.85	87.8508	120.85	87.8485
125.244	89.0592	125.244	89.0037	125.244	89.0775	125.244	88.9125	125.244	89.0588	125.244	88.7888	125.244	89.0049	125.244	88.6378	125.244	88.9193	125.244	88.4667	125.244	88.8072	125.244	88.2851	125.244	88.6756	125.244	88.1044	125.244	88.5331	125.244	87.9376	125.244	88.3897	125.244	87.7976	125.244	88.2559	125.244	87.6953	125.244	88.1412	125.244	87.6374	125.244	88.0531	125.244	87.6247	125.244	87.9949	125.244	87.6513	125.244	87.965	125.244	87.7062	125.244	87.9574	125.244	87.7756	125.244	87.9622	125.244	87.8453	125.244	87.9682	125.244	87.904	125.244	87.9648	125.244	87.9445
129.639	89.0142	129.639	88.9704	129.639	89.0176	129.639	88.8872	129.639	88.9811	129.639	88.7677	129.639	88.9071	129.639	88.617	129.639	88.8	129.639	88.4425	129.639	88.666	129.639	88.2537	129.639	88.5137	129.639	88.0629	129.639	88.3536	129.639	87.8837	129.639	88.1975	129.639	87.7307	129.639	88.0575	129.639	87.6163	129.639	87.9445	129.639	87.5491	129.639	87.8657	129.639	87.5311	129.639	87.8235	129.639	87.557	129.639	87.8139	129.639	87.615	129.639	87.8279	129.639	87.6896	129.639	87.8528	129.639	87.7649	129.639	87.8749	129.639	87.8271	129.639	87.8825	129.639	87.8674
134.033	88.9943	134.033	88.9572	134.033	88.9887	134.033	88.8793	134.033	88.9406	134.033	88.764	134.033	88.8522	134.033	88.6171	134.033	88.7278	134.033	88.4465	134.033	88.5741	134.033	88.2624	134.033	88.4005	134.033	88.0772	134.033	88.219	134.033	87.9048	134.033	88.0434	134.033	87.7594	134.033	87.8887	134.033	87.653	134.033	87.7681	134.033	87.5931	134.033	87.6909	134.033	87.5806	134.033	87.66	134.033	87.6091	134.033	87.6708	134.033	87.6659	134.033	87.7115	134.033	87.735	134.033	87.7667	134.033	87.7998	134.033	87.8196	134.033	87.8465	134.033	87.856	134.033	87.8661
138.428	88.9824	138.428	88.9382	138.428	88.9814	138.428	88.8513	138.428	88.9348	138.428	88.726	138.428	88.8441	138.428	88.569	138.428	88.7132	138.428	88.3893	138.428	88.5486	138.428	88.1982	138.428	88.3598	138.428	88.0093	138.428	88.1594	138.428	87.8374	138.428	87.9628	138.428	87.6969	138.428	87.7869	138.428	87.5993	138.428	87.648	138.428	87.5509	138.428	87.5582	138.428	87.5506	138.428	87.5225	138.428	87.5895	138.428	87.5373	138.428	87.653	138.428	87.59	138.428	87.7234	138.428	87.663	138.428	87.7837	138.428	87.7369	138.428	87.82	138.428	87.7947	138.428	87.8242
143.555	88.9708	143.555	88.9028	143.555	88.9906	143.555	88.7893	143.555	88.9619	143.555	88.6351	143.555	88.8861	143.555	88.4476	143.555	88.767	143.555	88.2371	143.555	88.6107	143.555	88.0169	143.555	88.4262	143.555	87.8031	143.555	88.2256	143.555	87.6134	143.555	88.0237	143.555	87.465	143.555	87.8373	143.555	87.3711	143.555	87.6834	143.555	87.3374	143.555	87.5754	143.555	87.3603	143.555	87.5208	143.555	87.4271	143.555	87.5178	143.555	87.5188	143.555	87.5561	143.555	87.6144	143.555	87.6184	143.555	87.6946	143.555	87.6847	143.555	87.7453	143.555	87.7364	143.555	87.7592
148.682	89.0247	148.682	88.9528	148.682	89.0411	148.682	88.8273	148.682	89.0024	148.682	88.6523	148.682	88.9109	148.682	88.4349	148.682	88.7715	148.682	88.1853	148.682	88.5915	148.682	87.9182	148.682	88.3817	148.682	87.6522	148.682	88.156	148.682	87.4096	148.682	87.9319	148.682	87.2138	148.682	87.7289	148.682	87.0847	148.682	87.5659	148.682	87.0334	148.682	87.4575	148.682	87.0584	148.682	87.41	148.682	87.1452	148.682	87.4187	148.682	87.2698	148.682	87.469	148.682	87.4047	148.682	87.5394	148.682	87.5248	148.682	87.6064	148.682	87.6113	148.682	87.6494	148.682	87.6534
153.809	88.9449	153.809	88.877	153.809	88.9531	153.809	88.7509	153.809	88.9019	153.809	88.5704	153.809	88.7938	153.809	88.3421	153.809	88.6335	153.809	88.0761	153.809	88.4288	153.809	87.7865	153.809	88.1909	153.809	87.4927	153.809	87.9351	153.809	87.2184	153.809	87.6806	153.809	86.9896	153.809	87.4494	153.809	86.8299	153.809	87.2633	153.809	86.7542	153.809	87.1393	153.809	86.7633	153.809	87.0846	153.809	86.8428	153.809	87.094	153.809	86.9669	153.809	87.1504	153.809	87.1052	153.809	87.2295	153.809	87.2298	153.809	87.3052	153.809	87.3194	153.809	87.3546	153.809	87.3617
159.668	89.0665	159.668	89.007	159.668	89.0654	159.668	88.8884	159.668	89.0035	159.668	88.7148	159.668	88.883	159.668	88.4925	159.668	88.7081	159.668	88.2311	159.668	88.4864	159.668	87.9444	159.668	88.229	159.668	87.6508	159.668	87.9517	159.668	87.3736	159.668	87.6753	159.668	87.1387	159.668	87.4244	159.668	86.9704	159.668	87.224	159.668	86.8851	159.668	87.0943	159.668	86.8854	159.668	87.0445	159.668	86.9582	159.668	87.069	159.668	87.0778	159.668	87.1478	159.668	87.2129	159.668	87.2526	159.668	87.3334	159.668	87.3532	159.668	87.4162	159.668	87.424	159.668	87.4475
164.795	89.1863	164.795	89.1276	164.795	89.1839	164.795	89.0098	164.795	89.1198	164.795	88.8371	164.795	88.9956	164.795	88.6159	164.795	88.8149	164.795	88.3557	164.795	88.5844	164.795	88.0702	164.795	88.3147	164.795	87.7775	164.795	88.0214	164.795	87.5006	164.795	87.7256	164.795	87.2652	164.795	87.4534	164.795	87.0955	164.795	87.2326	164.795	87.0082	164.795	87.0872	164.795	87.006	164.795	87.0296	164.795	87.0757	164.795	87.0558	164.795	87.1914	164.795	87.1455	164.795	87.3209	164.795	87.2675	164.795	87.4333	164.795	87.3884	164.795	87.5048	164.795	87.4795	164.795	87.5212
170.654	89.1808	170.654	89.0993	170.654	89.1996	170.654	88.9576	170.654	89.1549	170.654	88.7602	170.654	89.0479	170.654	88.5145	170.654	88.8816	170.654	88.2314	170.654	88.6618	170.654	87.9267	170.654	88.3981	170.654	87.6216	170.654	88.1048	170.654	87.3422	170.654	87.8021	170.654	87.1173	170.654	87.5162	170.654	86.9722	170.654	87.2766	170.654	86.9214	170.654	87.1111	170.654	86.9623	170.654	87.0372	170.654	87.0748	170.654	87.0554	170.654	87.2264	170.654	87.1473	170.654	87.3808	170.654	87.2807	170.654	87.5059	170.654	87.4188	170.654	87.5782	170.654	87.5285	170.654	87.5857
176.514	89.0258	176.514	88.9505	176.514	89.0361	176.514	88.811	176.514	88.9822	176.514	88.6103	176.514	88.8666	176.514	88.3538	176.514	88.6941	176.514	88.0506	176.514	88.4718	176.514	87.7149	176.514	88.2106	176.514	87.3673	176.514	87.9258	176.514	87.0361	176.514	87.6377	176.514	86.7553	176.514	87.3714	176.514	86.5592	176.514	87.1539	176.514	86.4724	176.514	87.0089	176.514	86.5002	176.514	86.9495	176.514	86.6242	176.514	86.9725	176.514	86.8081	176.514	87.0576	176.514	87.0085	176.514	87.1729	176.514	87.1858	176.514	87.2826	176.514	87.311	176.514	87.3552	176.514	87.3682
183.105	88.8677	183.105	88.808	183.105	88.8582	183.105	88.681	183.105	88.7794	183.105	88.4905	183.105	88.6334	183.105	88.2431	183.105	88.4245	183.105	87.9481	183.105	88.1602	183.105	87.6199	183.105	87.8528	183.105	87.2785	183.105	87.5196	183.105	86.9505	183.105	87.1849	183.105	86.6676	183.105	86.879	183.105	86.4622	183.105	86.635	183.105	86.358	183.105	86.4812	183.105	86.3614	183.105	86.4323	183.105	86.457	183.105	86.4821	183.105	86.6114	183.105	86.6043	183.105	86.7831	183.105	86.76	183.105	86.9331	183.105	86.9087	183.105	87.0314	183.105	87.0165	183.105	87.0606
189.697	89	189.697	88.9266	189.697	88.9983	189.697	88.7816	189.697	88.9203	189.697	88.5706	189.697	88.7672	189.697	88.3021	189.697	88.5423	189.697	87.9885	189.697	88.2528	189.697	87.647	189.697	87.9103	189.697	87.3003	189.697	87.5328	189.697	86.9768	189.697	87.1462	189.697	86.7074	189.697	86.7842	189.697	86.5206	189.697	86.4856	189.697	86.4336	189.697	86.286	189.697	86.4457	189.697	86.2063	189.697	86.5366	189.697	86.2439	189.697	86.6719	189.697	86.3718	189.697	86.8125	189.697	86.5481	189.697	86.9231	189.697	86.7283	189.697	86.9776	189.697	86.8748	189.697	86.9619
196.289	89.0695	196.289	88.9742	196.289	89.0838	196.289	88.8002	196.289	89.0167	196.289	88.553	196.289	88.8703	196.289	88.2416	196.289	88.6493	196.289	87.8803	196.289	88.3622	196.289	87.4907	196.289	88.0226	196.289	87.1031	196.289	87.651	196.289	86.7558	196.289	87.2761	196.289	86.4901	196.289	86.9345	196.289	86.3405	196.289	86.6665	196.289	86.3219	196.289	86.5062	196.289	86.4224	196.289	86.4701	196.289	86.6069	196.289	86.549	196.289	86.8282	196.289	86.7101	196.289	87.0404	196.289	86.908	196.289	87.2064	196.289	87.0972	196.289	87.3012	196.289	87.2404	196.289	87.3125
202.881	88.8813	202.881	88.7766	202.881	88.9024	202.881	88.5903	202.881	88.8394	202.881	88.3268	202.881	88.6935	202.881	87.9939	202.881	88.4681	202.881	87.6048	202.881	88.1705	202.881	87.1814	202.881	87.8132	202.881	86.7565	202.881	87.4173	202.881	86.3742	202.881	87.0144	202.881	86.0849	202.881	86.6471	202.881	85.9321	202.881	86.3634	202.881	85.9341	202.881	86.2047	202.881	86.0746	202.881	86.1889	202.881	86.3083	202.881	86.3011	202.881	86.5779	202.881	86.4991	202.881	86.8309	202.881	86.7287	202.881	87.0276	202.881	86.9394	202.881	87.1428	202.881	87.0929	202.881	87.1646
210.205	88.7349	210.205	88.6269	210.205	88.754	210.205	88.43	210.205	88.6852	210.205	88.1456	210.205	88.5304	210.205	87.7775	210.205	88.2932	210.205	87.3346	210.205	87.9798	210.205	86.8345	210.205	87.6014	210.205	86.3093	210.205	87.177	210.205	85.8102	210.205	86.7369	210.205	85.4073	210.205	86.3254	210.205	85.1742	210.205	85.9973	210.205	85.1561	210.205	85.8047	210.205	85.3423	210.205	85.7764	210.205	85.6688	210.205	85.9017	210.205	86.0492	210.205	86.1324	210.205	86.4061	210.205	86.4029	210.205	86.6846	210.205	86.6505	210.205	86.8535	210.205	86.8268	210.205	86.9
217.529	88.821	217.529	88.7276	217.529	88.8223	217.529	88.5421	217.529	88.7325	217.529	88.2655	217.529	88.5539	217.529	87.9013	217.529	88.2905	217.529	87.4571	217.529	87.9495	217.529	86.9484	217.529	87.5438	217.529	86.404	217.529	87.0948	217.529	85.8717	217.529	86.6367	217.529	85.42	217.529	86.2175	217.529	85.1267	217.529	85.895	217.529	85.0486	217.529	85.7207	217.529	85.1892	217.529	85.7176	217.529	85.4925	217.529	85.8657	217.529	85.8715	217.529	86.1097	217.529	86.243	217.529	86.3808	217.529	86.546	217.529	86.6171	217.529	86.7436	217.529	86.7729	217.529	86.8195
225.586	89.1365	225.586	89.0621	225.586	89.1072	225.586	88.8849	225.586	88.9729	225.586	88.6061	225.586	88.7326	225.586	88.2279	225.586	88.3862	225.586	87.7555	225.586	87.937	225.586	87.2022	225.586	87.3954	225.586	86.5954	225.586	86.7857	225.586	85.9869	225.586	86.1557	225.586	85.4586	225.586	85.5853	225.586	85.113	225.586	85.1813	225.586	85.0325	225.586	85.0401	225.586	85.2278	225.586	85.1897	225.586	85.625	225.586	85.5652	225.586	86.109	225.586	86.048	225.586	86.5739	225.586	86.5239	225.586	86.9456	225.586	86.9115	225.586	87.1799	225.586	87.1628	225.586	87.2545
232.91	89.5094	232.91	89.4189	232.91	89.5047	232.91	89.2351	232.91	89.4016	232.91	88.9587	232.91	89.1957	232.91	88.5901	232.91	88.8817	232.91	88.1308	232.91	88.454	232.91	87.5864	232.91	87.9094	232.91	86.9723	232.91	87.2511	232.91	86.3227	232.91	86.4987	232.91	85.7007	232.91	85.7036	232.91	85.201	232.91	84.9682	232.91	84.9268	232.91	84.4458	232.91	84.936	232.91	84.2794	232.91	85.1959	232.91	84.4959	232.91	85.599	232.91	84.9745	232.91	86.0207	232.91	85.537	232.91	86.3617	232.91	86.04	232.91	86.558	232.91	86.3989	232.91	86.5746
241.699	89.0706	241.699	88.9575	241.699	89.0935	241.699	88.7542	241.699	89.026	241.699	88.46	241.699	88.8671	241.699	88.0743	241.699	88.6151	241.699	87.5984	241.699	88.2683	241.699	87.0383	241.699	87.8259	241.699	86.4105	241.699	87.2904	241.699	85.751	241.699	86.6732	241.699	85.1251	241.699	86.004	241.699	84.6287	241.699	85.3426	241.699	84.3634	241.699	84.7862	241.699	84.3813	241.699	84.4502	241.699	84.6435	241.699	84.4098	241.699	85.0399	241.699	84.6408	241.699	85.4468	241.699	85.0296	241.699	85.7675	241.699	85.4399	241.699	85.9419	241.699	85.7651	241.699	85.9416
249.756	89.3535	249.756	89.2697	249.756	89.3424	249.756	89.0925	249.756	89.2335	249.756	88.8228	249.756	89.0235	249.756	88.4606	249.756	88.7082	249.756	88.0062	249.756	88.284	249.756	87.463	249.756	87.7493	249.756	86.8424	249.756	87.1083	249.756	86.1714	249.756	86.3784	249.756	85.5038	249.756	85.6027	249.756	84.9257	249.756	84.8645	249.756	84.5413	249.756	84.2902	249.756	84.426	249.756	84.01	249.756	84.5733	249.756	84.0749	249.756	84.8928	249.756	84.4099	249.756	85.2612	249.756	84.8652	249.756	85.5731	249.756	85.2997	249.756	85.7579	249.756	85.6197	249.756	85.7773
258.545	89.2266	258.545	89.1068	258.545	89.2602	258.545	88.9014	258.545	89.2063	258.545	88.6109	258.545	89.0624	258.545	88.236	258.545	88.8253	258.545	87.7796	258.545	88.4908	258.545	87.2499	258.545	88.0554	258.545	86.6658	258.545	87.5192	258.545	86.0639	258.545	86.8913	258.545	85.5054	258.545	86.2001	258.545	85.0726	258.545	85.5065	258.545	84.8445	258.545	84.9119	258.545	84.8541	258.545	84.5394	258.545	85.0628	258.545	84.4718	258.545	85.3786	258.545	84.6872	258.545	85.6995	258.545	85.0697	258.545	85.9441	258.545	85.4815	258.545	86.0593	258.545	85.8177	258.545	86.0182
268.066	88.8258	268.066	88.6955	268.066	88.8618	268.066	88.4693	268.066	88.8039	268.066	88.1442	268.066	88.6504	268.066	87.7174	268.066	88.398	268.066	87.1875	268.066	88.0411	268.066	86.5597	268.066	87.5736	268.066	85.8542	268.066	86.9914	268.066	85.1201	268.066	86.2996	268.066	84.4503	268.066	85.5254	268.066	83.978	268.066	84.7379	268.066	83.824	268.066	84.0661	268.066	84.0105	268.066	83.6774	268.066	84.4352	268.066	83.6821	268.066	84.9417	268.066	84.0358	268.066	85.3973	268.066	84.5709	268.066	85.7173	268.066	85.1122	268.066	85.857	268.066	85.5417	268.066	85.7981
277.588	89.1522	277.588	89.0842	277.588	89.1255	277.588	88.9164	277.588	89.0086	277.588	88.6424	277.588	88.8049	277.588	88.2548	277.588	88.5169	277.588	87.7456	277.588	88.1465	277.588	87.11	277.588	87.6955	277.588	86.354	277.588	87.1688	277.588	85.5099	277.588	86.5801	277.588	84.6629	277.588	85.9629	277.588	83.9727	277.588	85.3809	277.588	83.6394	277.588	84.9306	277.588	83.7681	277.588	84.713	277.588	84.2622	277.588	84.7746	277.588	84.906	277.588	85.0666	277.588	85.5113	277.588	85.4722	277.588	85.9693	277.588	85.8679	277.588	86.2333	277.588	86.1608	277.588	86.2932
287.109	89.0269	287.109	88.9669	287.109	88.9895	287.109	88.8089	287.109	88.8538	287.109	88.55	287.109	88.6186	287.109	88.1846	287.109	88.2821	287.109	87.7045	287.109	87.8421	287.109	87.1022	287.109	87.2972	287.109	86.3782	287.109	86.6498	287.109	85.5569	287.109	85.9152	287.109	84.7147	287.109	85.1393	287.109	84.0085	287.109	84.4235	287.109	83.6542	287.109	83.9338	287.109	83.7894	287.109	83.8376	287.109	84.3336	287.109	84.1693	287.109	85.0573	287.109	84.7843	287.109	85.7489	287.109	85.4717	287.109	86.2807	287.109	86.0675	287.109	86.5915	287.109	86.4778	287.109	86.658
297.363	89.5481	297.363	89.4566	297.363	89.5431	297.363	89.2726	297.363	89.4336	297.363	88.9958	297.363	89.2083	297.363	88.6203	297.363	88.8523	297.363	88.1347	297.363	88.3473	297.363	87.523	297.363	87.6717	297.363	86.7692	297.363	86.8031	297.363	85.8689	297.363	85.725	297.363	84.8559	297.363	84.4479	297.363	83.849	297.363	83.0637	297.363	83.0955	297.363	81.8483	297.363	82.8843	297.363	81.2802	297.363	83.2734	297.363	81.6387	297.363	84.0033	297.363	82.6138	297.363	84.7543	297.363	83.7102	297.363	85.3249	297.363	84.6367	297.363	85.6226	297.363	85.2816	297.363	85.6118
307.617	89.4381	307.617	89.3194	307.617	89.4891	307.617	89.1321	307.617	89.4708	307.617	88.8724	307.617	89.3781	307.617	88.5328	307.617	89.201	307.617	88.1021	307.617	88.9233	307.617	87.5669	307.617	88.522	307.617	86.9176	307.617	87.9688	307.617	86.161	307.617	87.2347	307.617	85.3429	307.617	86.302	307.617	84.5793	307.617	85.1925	307.617	84.0626	307.617	84.027	307.617	83.9718	307.617	83.1024	307.617	84.3115	307.617	82.8142	307.617	84.8916	307.617	83.2653	307.617	85.481	307.617	84.119	307.617	85.9176	307.617	84.9842	307.617	86.1139	307.617	85.6469	307.617	86.0285
318.604	89.7517	318.604	89.6349	318.604	89.7728	318.604	89.4205	318.604	89.6992	318.604	89.1054	318.604	89.5308	318.604	88.6842	318.604	89.2647	318.604	88.1477	318.604	88.8935	318.604	87.4829	318.604	88.4044	318.604	86.6765	318.604	87.779	318.604	85.7256	318.604	86.9972	318.604	84.6659	318.604	86.0484	318.604	83.6232	318.604	84.9577	318.604	82.8616	318.604	83.8401	318.604	82.6835	318.604	82.9632	318.604	83.1299	318.604	82.6742	318.604	83.9101	318.604	83.0679	318.604	84.6931	318.604	83.8497	318.604	85.2811	318.604	84.6535	318.604	85.5875	318.604	85.2611	318.604	85.5817
329.59	89.6001	329.59	89.5284	329.59	89.6	329.59	89.3822	329.59	89.5292	329.59	89.1562	329.59	89.3868	329.59	88.841	329.59	89.168	329.59	88.4216	329.59	88.8619	329.59	87.8773	329.59	88.4491	329.59	87.1855	329.59	87.9014	329.59	86.3306	329.59	87.1835	329.59	85.3251	329.59	86.2612	329.59	84.2515	329.59	85.1214	329.59	83.3198	329.59	83.8228	329.59	82.8452	329.59	82.5983	329.59	83.0034	329.59	81.9111	329.59	83.611	329.59	82.1081	329.59	84.3184	329.59	82.9397	329.59	84.8691	329.59	83.8906	329.59	85.135	329.59	84.6388	329.59	85.0629
341.309	88.9126	341.309	88.8814	341.309	88.8494	341.309	88.7538	341.309	88.6946	341.309	88.5268	341.309	88.4529	341.309	88.1937	341.309	88.1294	341.309	87.7424	341.309	87.7276	341.309	87.1553	341.309	87.2465	341.309	86.4158	341.309	86.6793	341.309	85.5231	341.309	86.0185	341.309	84.5277	341.309	85.2706	341.309	83.5896	341.309	84.4876	341.309	83.0076	341.309	83.8079	341.309	83.0548	341.309	83.4551	341.309	83.6783	341.309	83.601	341.309	84.5491	341.309	84.1799	341.309	85.3692	341.309	84.9389	341.309	85.9808	341.309	85.6384	341.309	86.3215	341.309	86.1376	341.309	86.373
353.76	89.3013	353.76	89.2139	353.76	89.3223	353.76	89.0615	353.76	89.2712	353.76	88.8387	353.76	89.1386	353.76	88.5308	353.76	88.9102	353.76	88.1117	353.76	88.5639	353.76	87.5439	353.76	88.0674	353.76	86.7828	353.76	87.3755	353.76	85.7874	353.76	86.4287	353.76	84.55	353.76	85.1564	353.76	83.1759	353.76	83.4965	353.76	82.0325	353.76	81.4964	353.76	81.7221	353.76	79.6814	353.76	82.4119	353.76	79.3597	353.76	83.5543	353.76	80.782	353.76	84.6108	353.76	82.6098	353.76	85.3449	353.76	84.0917	353.76	85.6843	353.76	85.0849	353.76	85.6051
366.211	88.9083	366.211	88.7721	366.211	88.9681	366.211	88.5637	366.211	88.9503	366.211	88.2867	366.211	88.8565	366.211	87.9384	366.211	88.6883	366.211	87.5033	366.211	88.4421	366.211	86.9492	366.211	88.1033	366.211	86.2281	366.211	87.6424	366.211	85.2861	366.211	87.0124	366.211	84.0891	366.211	86.1509	366.211	82.6963	366.211	84.9875	366.211	81.425	366.211	83.4743	366.211	80.9356	366.211	81.6999	366.211	81.5711	366.211	80.2115	366.211	82.7795	366.211	80.0691	366.211	83.9098	366.211	81.3173	366.211	84.6682	366.211	82.8631	366.211	84.9646	366.211	84.0662	366.211	84.7697
378.662	89.043	378.662	88.9506	378.662	89.068	378.662	88.7901	378.662	89.0283	378.662	88.5594	378.662	88.9277	378.662	88.2495	378.662	88.7678	378.662	87.8387	378.662	88.5417	378.662	87.2893	378.662	88.2293	378.662	86.5476	378.662	87.7944	378.662	85.5502	378.662	87.1873	378.662	84.2428	378.662	86.3497	378.662	82.6453	378.662	85.2283	378.662	81.0485	378.662	83.8129	378.662	80.2676	378.662	82.2488	378.662	80.9189	378.662	81.0579	378.662	82.3311	378.662	80.9953	378.662	83.652	378.662	82.0008	378.662	84.5492	378.662	83.2728	378.662	84.9521	378.662	84.2845	378.662	84.8593
392.578	87.8113	392.578	87.7332	392.578	87.8186	392.578	87.5933	392.578	87.7582	392.578	87.4052	392.578	87.6454	392.578	87.1766	392.578	87.5012	392.578	86.8973	392.578	87.3404	392.578	86.5323	392.578	87.1569	392.578	86.0212	392.578	86.915	392.578	85.2842	392.578	86.5495	392.578	84.2336	392.578	85.9741	392.578	82.8073	392.578	85.0941	392.578	81.0918	392.578	83.8321	392.578	79.6652	392.578	82.2102	392.578	79.619	392.578	80.6084	392.578	80.9205	392.578	80.0206	392.578	82.4338	392.578	80.9142	392.578	83.539	392.578	82.3323	392.578	84.0878	392.578	83.4636	392.578	84.062
405.762	87.7742	405.762	87.6211	405.762	87.8064	405.762	87.3718	405.762	87.7084	405.762	87.0618	405.762	87.4865	405.762	86.7267	405.762	87.1602	405.762	86.385	405.762	86.7565	405.762	86.021	405.762	86.2994	405.762	85.579	405.762	85.7968	405.762	84.973	405.762	85.2287	405.762	84.108	405.762	84.5476	405.762	82.9182	405.762	83.6978	405.762	81.4698	405.762	82.6652	405.762	80.2149	405.762	81.5829	405.762	80.0469	405.762	80.8669	405.762	81.1298	405.762	81.0226	405.762	82.5619	405.762	81.9638	405.762	83.6882	405.762	83.094	405.762	84.3077	405.762	83.9663	405.762	84.393
420.41	87.9163	420.41	87.7271	420.41	87.992	420.41	87.4385	420.41	87.9524	420.41	87.0732	420.41	87.8074	420.41	86.6536	420.41	87.5731	420.41	86.1901	420.41	87.2625	420.41	85.6683	420.41	86.8727	420.41	85.0417	420.41	86.3753	420.41	84.2327	420.41	85.7125	420.41	83.143	420.41	84.7988	420.41	81.686	420.41	83.5245	420.41	79.9019	420.41	81.7687	420.41	78.3259	420.41	79.4921	420.41	78.1783	420.41	77.2456	420.41	79.569	420.41	76.9498	420.41	81.2218	420.41	78.845	420.41	82.4287	420.41	80.8865	420.41	83.0266	420.41	82.289	420.41	82.9888
435.059	87.6978	435.059	87.574	435.059	87.7134	435.059	87.3577	435.059	87.6213	435.059	87.0768	435.059	87.4382	435.059	86.7596	435.059	87.193	435.059	86.4177	435.059	86.9156	435.059	86.0276	435.059	86.6181	435.059	85.5251	435.059	86.2766	435.059	84.8165	435.059	85.8251	435.059	83.7993	435.059	85.1672	435.059	82.399	435.059	84.1978	435.059	80.6768	435.059	82.8391	435.059	79.1497	435.059	81.1414	435.059	78.9252	435.059	79.5798	435.059	80.1526	435.059	79.222	435.059	81.698	435.059	80.3159	435.059	82.8626	435.059	81.7884	435.059	83.4655	435.059	82.9106	435.059	83.4808
450.439	87.5187	450.439	87.3237	450.439	87.5608	450.439	87.0052	450.439	87.4414	450.439	86.6101	450.439	87.1748	450.439	86.1903	450.439	86.7964	450.439	85.7797	450.439	86.3564	450.439	85.3682	450.439	85.8998	450.439	84.8889	450.439	85.4369	450.439	84.2265	450.439	84.9199	450.439	83.232	450.439	84.2431	450.439	81.735	450.439	83.2591	450.439	79.5955	450.439	81.7934	450.439	77.0935	450.439	79.6832	450.439	76.1852	450.439	77.0899	450.439	78.0853	450.439	75.8005	450.439	80.3725	450.439	77.5771	450.439	81.9178	450.439	80.0081	450.439	82.6371	450.439	81.7111	450.439	82.5705
466.553	87.2504	466.553	87.0745	466.553	87.2655	466.553	86.7542	466.553	87.1207	466.553	86.323	466.553	86.835	466.553	85.8256	466.553	86.4432	466.553	85.3061	466.553	85.9913	466.553	84.7878	466.553	85.5236	466.553	84.2536	466.553	85.0614	466.553	83.6364	466.553	84.5798	466.553	82.8299	466.553	83.9973	466.553	81.7191	466.553	83.1855	466.553	80.2575	466.553	81.9933	466.553	78.6974	466.553	80.3007	466.553	77.951	466.553	78.2379	466.553	78.7519	466.553	76.8729	466.553	80.2507	466.553	77.6759	466.553	81.4696	466.553	79.5703	466.553	82.0659	466.553	81.1203	466.553	81.9591
482.666	87.3531	482.666	87.1567	482.666	87.3855	482.666	86.8166	482.666	87.252	482.666	86.3723	482.666	86.9679	482.666	85.8773	482.666	86.5647	482.666	85.3809	482.666	86.0873	482.666	84.8963	482.666	85.5827	482.666	84.3719	482.666	85.0765	482.666	83.6878	482.666	84.5439	482.666	82.6733	482.666	83.8952	482.666	81.1257	482.666	82.9852	482.666	78.8547	482.666	81.6372	482.666	76.0976	482.666	79.6975	482.666	75.1799	482.666	77.3337	482.666	77.479	482.666	76.1097	482.666	79.9939	482.666	77.6337	482.666	81.6381	482.666	79.91	482.666	82.4083	482.666	81.5513	482.666	82.3759
500.244	87.1583	500.244	86.8867	500.244	87.2279	500.244	86.4349	500.244	87.0977	500.244	85.8533	500.244	86.7917	500.244	85.2203	500.244	86.3554	500.244	84.6252	500.244	85.8524	500.244	84.1248	500.244	85.3513	500.244	83.6963	500.244	84.8957	500.244	83.2291	500.244	84.4696	500.244	82.5629	500.244	83.9816	500.244	81.5307	500.244	83.279	500.244	79.998	500.244	82.173	500.244	77.9946	500.244	80.4678	500.244	76.2459	500.244	78.0899	500.244	76.3765	500.244	75.8279	500.244	78.073	500.244	76.0387	500.244	79.6773	500.244	78.1054	500.244	80.5663	500.244	79.8082	500.244	80.6258
517.822	86.7152	517.822	86.453	517.822	86.7912	517.822	86.0374	517.822	86.6728	517.822	85.5283	517.822	86.3773	517.822	85.0099	517.822	85.9515	517.822	84.5688	517.822	85.4716	517.822	84.2409	517.822	85.0193	517.822	83.9632	517.822	84.6308	517.822	83.5754	517.822	84.2507	517.822	82.8624	517.822	83.7408	517.822	81.581	517.822	82.9266	517.822	79.4636	517.822	81.6284	517.822	76.3889	517.822	79.6711	517.822	74.0599	517.822	77.0084	517.822	75.9394	517.822	74.6705	517.822	78.7471	517.822	75.4367	517.822	80.5183	517.822	77.9764	517.822	81.2496	517.822	79.9751	517.822	81.0599
536.133	86.9016	536.133	86.6054	536.133	86.9492	536.133	86.0777	536.133	86.7423	536.133	85.357	536.133	86.2856	536.133	84.5231	536.133	85.6049	536.133	83.7118	536.133	84.7699	536.133	83.0806	536.133	83.917	536.133	82.6913	536.133	83.2265	536.133	82.4104	536.133	82.7984	536.133	81.9592	536.133	82.5209	536.133	81.0214	536.133	82.112	536.133	79.2643	536.133	81.2523	536.133	76.3489	536.133	79.6326	536.133	73.0258	536.133	76.996	536.133	74.3084	536.133	74.0618	536.133	77.865	536.133	74.8246	536.133	80.2148	536.133	77.9759	536.133	81.3088	536.133	80.2331	536.133	81.3102
554.443	86.5116	554.443	86.229	554.443	86.6075	554.443	85.7726	554.443	86.5107	554.443	85.1653	554.443	86.2221	554.443	84.4464	554.443	85.7524	554.443	83.6781	554.443	85.1285	554.443	82.939	554.443	84.3997	554.443	82.2887	554.443	83.6342	554.443	81.7044	554.443	82.8868	554.443	81.0455	554.443	82.1449	554.443	80.0772	554.443	81.2922	554.443	78.5163	554.443	80.1203	554.443	76.0983	554.443	78.3613	554.443	73.1785	554.443	75.7678	554.443	72.9023	554.443	72.8958	554.443	75.6842	554.443	73.1696	554.443	78.0227	554.443	76.051	554.443	79.2102	554.443	78.2548	554.443	79.2876
574.219	87.2278	574.219	86.8877	574.219	87.3123	574.219	86.3135	574.219	87.1367	574.219	85.557	574.219	86.7096	574.219	84.7178	574.219	86.0582	574.219	83.9441	574.219	85.2464	574.219	83.3749	574.219	84.3978	574.219	83.0263	574.219	83.6897	574.219	82.738	574.219	83.2517	574.219	82.2415	574.219	83.0138	574.219	81.2322	574.219	82.702	574.219	79.3381	574.219	81.9651	574.219	75.927	574.219	80.4221	574.219	69.8114	574.219	77.5327	574.219	69.2367	574.219	72.2712	574.219	75.1947	574.219	68.4575	574.219	78.295	574.219	74.4054	574.219	79.5814	574.219	77.9538	574.219	79.4857
594.727	87.0428	594.727	86.6316	594.727	87.1934	594.727	85.9691	594.727	87.075	594.727	85.0784	594.727	86.6785	594.727	84.0279	594.727	86.0033	594.727	82.9858	594.727	85.0831	594.727	82.2402	594.727	84.0327	594.727	82.0151	594.727	83.0825	594.727	82.1723	594.727	82.482	594.727	82.2909	594.727	82.2438	594.727	81.9674	594.727	82.0756	594.727	80.8878	594.727	81.6036	594.727	78.7443	594.727	80.5141	594.727	75.3152	594.727	78.5488	594.727	72.6446	594.727	75.7195	594.727	75.0753	594.727	73.9708	594.727	77.9283	594.727	75.852	594.727	79.341	594.727	78.2085	594.727	79.4114
615.234	86.9793	615.234	86.7151	615.234	87.0394	615.234	86.2404	615.234	86.8992	615.234	85.5486	615.234	86.5604	615.234	84.6444	615.234	86.0233	615.234	83.57	615.234	85.2892	615.234	82.4468	615.234	84.3663	615.234	81.4859	615.234	83.2874	615.234	80.8608	615.234	82.1361	615.234	80.4887	615.234	81.0586	615.234	80.0277	615.234	80.1865	615.234	79.0612	615.234	79.4676	615.234	77.1548	615.234	78.6032	615.234	73.7902	615.234	77.1792	615.234	69.4955	615.234	74.8659	615.234	71.0115	615.234	72.2321	615.234	74.5545	615.234	72.4171	615.234	76.2429	615.234	74.7747	615.234	76.2541
637.207	87.9963	637.207	87.6597	637.207	88.053	637.207	87.0432	637.207	87.8268	637.207	86.1532	637.207	87.3113	637.207	85.0274	637.207	86.5048	637.207	83.7837	637.207	85.4339	637.207	82.6747	637.207	84.2094	637.207	82.0183	637.207	83.1074	637.207	81.8877	637.207	82.5037	637.207	81.9496	637.207	82.4589	637.207	81.7227	637.207	82.531	637.207	80.7664	637.207	82.1699	637.207	78.5989	637.207	80.9309	637.207	74.5915	637.207	78.357	637.207	71.4687	637.207	74.2171	637.207	75.9474	637.207	73.4287	637.207	79.5477	637.207	77.5896	637.207	81.2625	637.207	80.3642	637.207	81.5102
659.912	87.6014	659.912	87.3539	659.912	87.6164	659.912	86.8656	659.912	87.4112	659.912	86.1339	659.912	86.9992	659.912	85.1671	659.912	86.3892	659.912	84.0041	659.912	85.5838	659.912	82.7513	659.912	84.5891	659.912	81.6076	659.912	83.4416	659.912	80.7734	659.912	82.2452	659.912	80.2202	659.912	81.1722	659.912	79.6239	659.912	80.3372	659.912	78.5589	659.912	79.5988	659.912	76.6348	659.912	78.5482	659.912	73.6423	659.912	76.6589	659.912	71.1445	659.912	73.4001	659.912	72.8483	659.912	69.7768	659.912	75.4548	659.912	71.72	659.912	76.7673	659.912	75.0164	659.912	76.6545
683.35	87.8258	683.35	87.5744	683.35	87.8519	683.35	87.0994	683.35	87.6453	683.35	86.3968	683.35	87.194	683.35	85.4614	683.35	86.4849	683.35	84.3103	683.35	85.5138	683.35	83.0442	683.35	84.3147	683.35	81.9473	683.35	83.0215	683.35	81.4257	683.35	81.9365	683.35	81.5318	683.35	81.4056	683.35	81.7527	683.35	81.3967	683.35	81.472	683.35	81.4269	683.35	80.1839	683.35	80.9522	683.35	77.2904	683.35	79.5001	683.35	72.0158	683.35	76.5289	683.35	71.0213	683.35	72.0478	683.35	75.9214	683.35	72.7735	683.35	78.2788	683.35	76.6528	683.35	78.4725
706.787	88.4659	706.787	88.1815	706.787	88.4782	706.787	87.6176	706.787	88.2205	706.787	86.7677	706.787	87.688	706.787	85.6419	706.787	86.8705	706.787	84.3055	706.787	85.7639	706.787	82.9447	706.787	84.4077	706.787	81.8907	706.787	82.9727	706.787	81.3904	706.787	81.8399	706.787	81.2618	706.787	81.3507	706.787	81.0212	706.787	81.2816	706.787	80.1989	706.787	80.9965	706.787	78.3431	706.787	79.9085	706.787	74.8639	706.787	77.4622	706.787	70.5872	706.787	73.0716	706.787	73.4851	706.787	70.9902	706.787	77.449	706.787	75.5657	706.787	79.4216	706.787	78.6017	706.787	79.7795
731.689	88.1109	731.689	87.8874	731.689	88.1353	731.689	87.4572	731.689	87.9576	731.689	86.7981	731.689	87.5612	731.689	85.8708	731.689	86.9085	731.689	84.6317	731.689	85.9398	731.689	83.091	731.689	84.5932	731.689	81.4522	731.689	82.867	731.689	80.2511	731.689	80.9636	731.689	79.9419	731.689	79.4548	731.689	80.1091	731.689	78.8845	731.689	79.9008	731.689	78.8882	731.689	78.6311	731.689	78.5906	731.689	75.5558	731.689	77.2242	731.689	69.5674	731.689	73.7664	731.689	70.0967	731.689	65.8345	731.689	75.5393	731.689	69.9541	731.689	77.8969	731.689	75.812	731.689	77.9989
758.057	87.8275	758.057	87.5798	758.057	87.831	758.057	87.0913	758.057	87.5842	758.057	86.3544	758.057	87.0819	758.057	85.3476	758.057	86.3165	758.057	84.0547	758.057	85.2728	758.057	82.5213	758.057	83.9397	758.057	80.9639	758.057	82.3652	758.057	79.8281	758.057	80.7784	758.057	79.4258	758.057	79.6707	758.057	79.4261	758.057	79.4053	758.057	79.1687	758.057	79.6253	758.057	78.0701	758.057	79.5908	758.057	75.4754	758.057	78.634	758.057	70.409	758.057	75.9916	758.057	69.0509	758.057	70.2771	758.057	74.488	758.057	68.6758	758.057	77.0843	758.057	74.7275	758.057	77.1939
784.424	87.8829	784.424	87.7072	784.424	87.8348	784.424	87.2945	784.424	87.5752	784.424	86.6333	784.424	87.1058	784.424	85.7108	784.424	86.4034	784.424	84.5131	784.424	85.4128	784.424	83.0453	784.424	84.0563	784.424	81.4085	784.424	82.2637	784.424	79.9532	784.424	80.0611	784.424	79.2254	784.424	77.9037	784.424	79.2443	784.424	77.0551	784.424	79.2489	784.424	77.7289	784.424	78.391	784.424	78.272	784.424	75.8245	784.424	77.4925	784.424	70.2414	784.424	74.4433	784.424	69.2539	784.424	67.1245	784.424	75.1715	784.424	69.8534	784.424	77.7559	784.424	75.7526	784.424	77.9336
812.256	88.0036	812.256	87.7658	812.256	87.9831	812.256	87.2802	812.256	87.6997	812.256	86.5467	812.256	87.1617	812.256	85.5422	812.256	86.3841	812.256	84.2307	812.256	85.3742	812.256	82.6179	812.256	84.1192	812.256	80.8802	812.256	82.5954	812.256	79.5192	812.256	80.838	812.256	79.0749	812.256	79.1271	812.256	79.3078	812.256	78.1391	812.256	79.4153	812.256	78.2292	812.256	78.7226	812.256	78.5981	812.256	76.6261	812.256	78.159	812.256	72.2559	812.256	75.9334	812.256	68.4414	812.256	69.9528	812.256	73.36	812.256	64.5938	812.256	76.2741	812.256	73.4987	812.256	76.4146
840.82	87.8521	840.82	87.5652	840.82	87.8619	840.82	87.0072	840.82	87.598	840.82	86.186	840.82	87.0732	840.82	85.1012	840.82	86.3005	840.82	83.7459	840.82	85.2781	840.82	82.1305	840.82	83.9809	840.82	80.3465	840.82	82.3694	840.82	78.7121	840.82	80.442	840.82	77.8809	840.82	78.4394	840.82	78.1494	840.82	77.2287	840.82	78.6995	840.82	77.5183	840.82	78.5097	840.82	78.2784	840.82	76.8461	840.82	78.2132	840.82	72.932	840.82	76.5351	840.82	69.0382	840.82	72.3855	840.82	73.2562	840.82	68.6273	840.82	76.0652	840.82	73.415	840.82	76.1338
870.85	87.6184	870.85	87.2537	870.85	87.678	870.85	86.6143	870.85	87.4267	870.85	85.7386	870.85	86.8888	870.85	84.6511	870.85	86.1118	870.85	83.3432	870.85	85.1413	870.85	81.7823	870.85	83.985	870.85	79.979	870.85	82.5914	870.85	78.2561	870.85	80.8862	870.85	77.6217	870.85	78.9603	870.85	78.461	870.85	77.5063	870.85	79.3908	870.85	77.4513	870.85	79.2123	870.85	78.0639	870.85	77.1471	870.85	77.9155	870.85	71.7364	870.85	76.0334	870.85	65.9926	870.85	70.8642	870.85	73.6059	870.85	63.3818	870.85	76.4401	870.85	72.5954	870.85	76.1412
901.611	88.1879	901.611	87.8476	901.611	88.2559	901.611	87.2631	901.611	88.0325	901.611	86.4517	901.611	87.5179	901.611	85.4017	901.611	86.7227	901.611	84.0633	901.611	85.642	901.611	82.359	901.611	84.2312	901.611	80.2213	901.611	82.4165	901.611	77.7129	901.611	80.1544	901.611	75.5136	901.611	77.6255	901.611	75.2511	901.611	75.805	901.611	76.5483	901.611	75.9975	901.611	77.3082	901.611	77.1173	901.611	76.3755	901.611	77.4814	901.611	72.5483	901.611	76.2179	901.611	61.9557	901.611	72.1777	901.611	69.7312	901.611	63.6377	901.611	74.2689	901.611	70.5749	901.611	74.439
933.105	88.2262	933.105	87.8869	933.105	88.2395	933.105	87.2506	933.105	87.9133	933.105	86.3444	933.105	87.2666	933.105	85.192	933.105	86.354	933.105	83.8331	933.105	85.2444	933.105	82.3362	933.105	83.967	933.105	80.7629	933.105	82.4561	933.105	79.1295	933.105	80.5544	933.105	77.57	933.105	78.1419	933.105	76.6628	933.105	75.6066	933.105	76.6983	933.105	74.6524	933.105	76.6269	933.105	75.7137	933.105	75.1259	933.105	76.4864	933.105	70.5479	933.105	75.4212	933.105	60.5282	933.105	70.7482	933.105	70.9717	933.105	57.3872	933.105	74.9929	933.105	71.5586	933.105	75.2231
966.064	88.1853	966.064	87.836	966.064	88.2049	966.064	87.1728	966.064	87.9048	966.064	86.2431	966.064	87.3085	966.064	85.1196	966.064	86.4283	966.064	83.8717	966.064	85.2382	966.064	82.5122	966.064	83.6755	966.064	80.9558	966.064	81.6984	966.064	79.0607	966.064	79.3918	966.064	76.8924	966.064	77.0567	966.064	75.3639	966.064	75.3432	966.064	75.5501	966.064	75.3713	966.064	76.223	966.064	76.9522	966.064	75.6865	966.064	78.2004	966.064	72.5536	966.064	77.827	966.064	61.9225	966.064	74.7647	966.064	67.0547	966.064	65.886	966.064	73.0054	966.064	68.0538	966.064	73.2709
999.756	88.2859	999.756	87.8491	999.756	88.3217	999.756	87.0414	999.756	87.952	999.756	85.9101	999.756	87.1886	999.756	84.4938	999.756	86.0587	999.756	82.8219	999.756	84.6307	999.756	80.9882	999.756	83.0451	999.756	79.2497	999.756	81.4788	999.756	77.9802	999.756	79.9867	999.756	77.416	999.756	78.3726	999.756	77.5101	999.756	76.4595	999.756	77.9918	999.756	75.1963	999.756	78.2689	999.756	76.0632	999.756	77.4575	999.756	77.1854	999.756	74.4171	999.756	76.5757	999.756	67.4427	999.756	72.8825	999.756	69.9424	999.756	63.0774	999.756	74.4723	999.756	70.6591	999.756	74.7452
1,034.91	88.0862	1,034.91	87.596	1,034.91	88.1443	1,034.91	86.6884	1,034.91	87.7999	1,034.91	85.4302	1,034.91	87.087	1,034.91	83.9388	1,034.91	85.9878	1,034.91	82.3844	1,034.91	84.4243	1,034.91	80.9564	1,034.91	82.3739	1,034.91	79.7061	1,034.91	80.1077	1,034.91	78.3876	1,034.91	78.2449	1,034.91	76.8006	1,034.91	77.0641	1,034.91	75.783	1,034.91	76.0129	1,034.91	76.453	1,034.91	75.012	1,034.91	77.4002	1,034.91	75.6819	1,034.91	77.0578	1,034.91	77.3003	1,034.91	74.6128	1,034.91	77.5115	1,034.91	69.8394	1,034.91	75.1525	1,034.91	70.358	1,034.91	68.2194	1,034.91	73.4019	1,034.91	66.8636	1,034.91	72.7995
1,071.53	87.2562	1,071.53	86.7384	1,071.53	87.3535	1,071.53	85.8604	1,071.53	86.9935	1,071.53	84.698	1,071.53	86.1814	1,071.53	83.34	1,071.53	84.9995	1,071.53	81.9019	1,071.53	83.6404	1,071.53	80.5248	1,071.53	82.3632	1,071.53	79.2954	1,071.53	81.2544	1,071.53	78.135	1,071.53	80.0248	1,071.53	76.852	1,071.53	78.2588	1,071.53	75.6968	1,071.53	75.831	1,071.53	75.7106	1,071.53	73.5636	1,071.53	76.3356	1,071.53	73.2664	1,071.53	75.5629	1,071.53	74.0113	1,071.53	71.522	1,071.53	73.7122	1,071.53	61.1609	1,071.53	71.1106	1,071.53	70.5764	1,071.53	65.0463	1,071.53	74.1742	1,071.53	69.0227	1,071.53	73.599
1,109.62	86.9415	1,109.62	86.3596	1,109.62	86.9887	1,109.62	85.2828	1,109.62	86.4936	1,109.62	83.8092	1,109.62	85.4922	1,109.62	82.1357	1,109.62	84.1203	1,109.62	80.5571	1,109.62	82.6565	1,109.62	79.3328	1,109.62	81.4102	1,109.62	78.4395	1,109.62	80.3965	1,109.62	77.4897	1,109.62	79.255	1,109.62	76.0284	1,109.62	77.6362	1,109.62	74.424	1,109.62	75.5119	1,109.62	74.4526	1,109.62	73.4639	1,109.62	75.3417	1,109.62	72.7586	1,109.62	74.6357	1,109.62	73.1894	1,109.62	70.5008	1,109.62	72.9097	1,109.62	50.2338	1,109.62	70.1041	1,109.62	68.6412	1,109.62	59.3134	1,109.62	72.7997	1,109.62	66.2188	1,109.62	72.1806
1,148.44	86.9136	1,148.44	86.3733	1,148.44	86.9432	1,148.44	85.3668	1,148.44	86.4831	1,148.44	83.9987	1,148.44	85.6341	1,148.44	82.4238	1,148.44	84.5685	1,148.44	80.8171	1,148.44	83.4384	1,148.44	79.337	1,148.44	82.2429	1,148.44	78.1246	1,148.44	80.8182	1,148.44	77.1769	1,148.44	78.9887	1,148.44	75.947	1,148.44	76.6979	1,148.44	73.6865	1,148.44	73.9976	1,148.44	71.4726	1,148.44	71.4848	1,148.44	71.9405	1,148.44	71.6871	1,148.44	72.2905	1,148.44	73.822	1,148.44	70.0999	1,148.44	74.4504	1,148.44	61.838	1,148.44	71.9916	1,148.44	61.3968	1,148.44	62.4264	1,148.44	69.5292	1,148.44	64.4994	1,148.44	70.2805
1,189.45	87.1411	1,189.45	86.6545	1,189.45	87.1802	1,189.45	85.7186	1,189.45	86.7734	1,189.45	84.3971	1,189.45	85.9097	1,189.45	82.9002	1,189.45	84.6102	1,189.45	81.511	1,189.45	83.0065	1,189.45	80.2641	1,189.45	81.3755	1,189.45	78.882	1,189.45	79.9941	1,189.45	77.193	1,189.45	78.9103	1,189.45	75.1703	1,189.45	77.9429	1,189.45	72.6795	1,189.45	76.6675	1,189.45	70.585	1,189.45	74.661	1,189.45	70.5557	1,189.45	73.1021	1,189.45	70.9343	1,189.45	74.0613	1,189.45	69.5263	1,189.45	74.8021	1,189.45	63.9598	1,189.45	72.8127	1,189.45	59.4062	1,189.45	65.092	1,189.45	67.4951	1,189.45	61.4492	1,189.45	68.436
1,231.2	87.5839	1,231.2	87.0983	1,231.2	87.6215	1,231.2	86.2347	1,231.2	87.1833	1,231.2	85.087	1,231.2	86.3006	1,231.2	83.7321	1,231.2	85.0892	1,231.2	82.1724	1,231.2	83.7322	1,231.2	80.3218	1,231.2	82.3605	1,231.2	78.1438	1,231.2	80.9174	1,231.2	76.0066	1,231.2	79.2141	1,231.2	74.5453	1,231.2	77.1445	1,231.2	73.2264	1,231.2	74.7861	1,231.2	71.2765	1,231.2	72.4729	1,231.2	71.0267	1,231.2	71.5494	1,231.2	72.7602	1,231.2	72.8229	1,231.2	72.5187	1,231.2	73.9043	1,231.2	67.7347	1,231.2	72.7419	1,231.2	59.1342	1,231.2	66.9225	1,231.2	69.0223	1,231.2	61.4985	1,231.2	69.4646
1,274.41	87.8067	1,274.41	87.2922	1,274.41	87.8229	1,274.41	86.3017	1,274.41	87.3547	1,274.41	84.96	1,274.41	86.4242	1,274.41	83.5335	1,274.41	85.0897	1,274.41	82.2813	1,274.41	83.5058	1,274.41	81.15	1,274.41	81.9023	1,274.41	79.8015	1,274.41	80.3831	1,274.41	78.0927	1,274.41	78.7698	1,274.41	76.276	1,274.41	76.8141	1,274.41	74.294	1,274.41	74.4718	1,274.41	71.7113	1,274.41	71.8176	1,274.41	70.0909	1,274.41	70.3894	1,274.41	71.096	1,274.41	72.4193	1,274.41	70.9677	1,274.41	74.1308	1,274.41	66.7333	1,274.41	73.0909	1,274.41	42.4134	1,274.41	67.1943	1,274.41	65.5301	1,274.41	57.1648	1,274.41	66.861
1,319.82	88.0353	1,319.82	87.5945	1,319.82	87.9474	1,319.82	86.6463	1,319.82	87.3449	1,319.82	85.2884	1,319.82	86.3051	1,319.82	83.7751	1,319.82	85.0062	1,319.82	82.4447	1,319.82	83.6476	1,319.82	81.3676	1,319.82	82.2578	1,319.82	80.1947	1,319.82	80.6292	1,319.82	78.5435	1,319.82	78.487	1,319.82	76.4528	1,319.82	75.8844	1,319.82	74.243	1,319.82	73.4261	1,319.82	71.9862	1,319.82	71.4692	1,319.82	70.9929	1,319.82	69.8885	1,319.82	72.0444	1,319.82	70.9555	1,319.82	72.1792	1,319.82	73.2433	1,319.82	68.8008	1,319.82	72.6491	1,319.82	51.1761	1,319.82	65.7836	1,319.82	67.6971	1,319.82	61.8853	1,319.82	69.7915
1,365.97	87.8642	1,365.97	87.5021	1,365.97	87.7078	1,365.97	86.5047	1,365.97	87.1253	1,365.97	84.8678	1,365.97	86.1164	1,365.97	82.9033	1,365.97	84.5984	1,365.97	81.232	1,365.97	82.5692	1,365.97	80.1173	1,365.97	80.3633	1,365.97	78.97	1,365.97	78.5721	1,365.97	77.1707	1,365.97	77.326	1,365.97	75.1581	1,365.97	76.1548	1,365.97	73.8199	1,365.97	74.8463	1,365.97	72.5562	1,365.97	73.3429	1,365.97	71.4985	1,365.97	70.9188	1,365.97	72.1849	1,365.97	69.2444	1,365.97	72.89	1,365.97	71.6587	1,365.97	70.8674	1,365.97	71.9791	1,365.97	63.1455	1,365.97	66.7666	1,365.97	64.0754	1,365.97	58.4177	1,365.97	66.8202
1,414.31	87.5517	1,414.31	87.1524	1,414.31	87.5522	1,414.31	86.1634	1,414.31	87.1529	1,414.31	84.3873	1,414.31	86.2151	1,414.31	82.0405	1,414.31	84.6009	1,414.31	80.0291	1,414.31	82.4365	1,414.31	79.1511	1,414.31	80.3639	1,414.31	78.5752	1,414.31	79.0172	1,414.31	76.9975	1,414.31	78.039	1,414.31	74.923	1,414.31	76.4272	1,414.31	73.9893	1,414.31	73.8256	1,414.31	72.7065	1,414.31	70.8909	1,414.31	70.7604	1,414.31	67.7256	1,414.31	70.6829	1,414.31	66.4342	1,414.31	70.8457	1,414.31	69.732	1,414.31	67.9	1,414.31	70.8402	1,414.31	59.9166	1,414.31	67.6052	1,414.31	62.829	1,414.31	57.8864	1,414.31	62.4073
1,464.11	87.7401	1,464.11	87.2081	1,464.11	87.7973	1,464.11	86.1765	1,464.11	87.2839	1,464.11	84.5661	1,464.11	86.0859	1,464.11	82.5339	1,464.11	84.2977	1,464.11	80.5201	1,464.11	82.544	1,464.11	79.1108	1,464.11	81.3383	1,464.11	78.4476	1,464.11	80.2613	1,464.11	77.44	1,464.11	78.6847	1,464.11	75.3399	1,464.11	75.8179	1,464.11	72.844	1,464.11	71.6253	1,464.11	70.4512	1,464.11	68.6477	1,464.11	68.1834	1,464.11	68.5508	1,464.11	68.2173	1,464.11	68.946	1,464.11	68.84	1,464.11	70.1388	1,464.11	65.9399	1,464.11	71.3276	1,464.11	55.4101	1,464.11	69.5257	1,464.11	60.786	1,464.11	61.3589	1,464.11	56.2628
1,515.38	87.4099	1,515.38	86.855	1,515.38	87.3208	1,515.38	85.7822	1,515.38	86.5545	1,515.38	84.3845	1,515.38	85.2736	1,515.38	83.0109	1,515.38	83.8877	1,515.38	81.5587	1,515.38	82.8027	1,515.38	79.9612	1,515.38	81.5499	1,515.38	78.7888	1,515.38	79.553	1,515.38	77.1129	1,515.38	77.2619	1,515.38	73.8845	1,515.38	74.998	1,515.38	70.078	1,515.38	73.5197	1,515.38	68.0684	1,515.38	72.8754	1,515.38	67.8929	1,515.38	71.9988	1,515.38	69.8843	1,515.38	70.0801	1,515.38	71.1763	1,515.38	70.4881	1,515.38	69.3292	1,515.38	72.4208	1,515.38	67.663	1,515.38	71.1618	1,515.38	68.9805	1,515.38	66.0356	1,515.38	66.8215
1,568.85	86.8152	1,568.85	86.0849	1,568.85	86.8187	1,568.85	84.9046	1,568.85	86.0601	1,568.85	83.6369	1,568.85	84.7471	1,568.85	82.4573	1,568.85	83.3026	1,568.85	81.1096	1,568.85	82.101	1,568.85	79.4465	1,568.85	80.8513	1,568.85	78.0417	1,568.85	79.0438	1,568.85	76.6108	1,568.85	76.9997	1,568.85	74.1668	1,568.85	74.955	1,568.85	71.4197	1,568.85	72.5895	1,568.85	69.5763	1,568.85	70.6338	1,568.85	67.8672	1,568.85	70.3248	1,568.85	68.347	1,568.85	68.37	1,568.85	70.3947	1,568.85	66.9274	1,568.85	69.1704	1,568.85	70.6637	1,568.85	67.5634	1,568.85	69.9345	1,568.85	70.8177	1,568.85	66.9101	1,568.85	70.8093
1,624.51	86.4846	1,624.51	86.0834	1,624.51	86.1354	1,624.51	84.9249	1,624.51	85.2308	1,624.51	83.3052	1,624.51	84.1016	1,624.51	81.8776	1,624.51	83.0928	1,624.51	80.8309	1,624.51	82.0848	1,624.51	79.3433	1,624.51	80.3955	1,624.51	77.5799	1,624.51	77.819	1,624.51	75.5504	1,624.51	75.5272	1,624.51	72.3446	1,624.51	73.8835	1,624.51	69.4142	1,624.51	71.8459	1,624.51	68.5634	1,624.51	69.6321	1,624.51	67.4418	1,624.51	70.0014	1,624.51	68.6384	1,624.51	70.1136	1,624.51	71.7569	1,624.51	68.0935	1,624.51	70.4835	1,624.51	68.7045	1,624.51	67.0424	1,624.51	66.3567	1,624.51	70.7914	1,624.51	65.1243	1,624.51	70.6902
1,681.64	86.3711	1,681.64	85.6031	1,681.64	86.3115	1,681.64	83.9504	1,681.64	85.459	1,681.64	81.8123	1,681.64	84.077	1,681.64	80.7543	1,681.64	82.9013	1,681.64	80.6278	1,681.64	82.157	1,681.64	79.3551	1,681.64	80.8598	1,681.64	76.8001	1,681.64	78.1004	1,681.64	73.5752	1,681.64	74.4945	1,681.64	70.3495	1,681.64	72.806	1,681.64	69.6793	1,681.64	73.3124	1,681.64	70.0118	1,681.64	72.6502	1,681.64	70.6059	1,681.64	70.317	1,681.64	70.7024	1,681.64	69.8435	1,681.64	71.9356	1,681.64	69.5076	1,681.64	71.8202	1,681.64	67.4618	1,681.64	69.9203	1,681.64	62.8886	1,681.64	70.4361	1,681.64	62.0826	1,681.64	68.9836
1,740.97	86.1848	1,740.97	85.7365	1,740.97	85.9734	1,740.97	84.309	1,740.97	85.5455	1,740.97	82.5514	1,740.97	84.8341	1,740.97	81.6713	1,740.97	83.509	1,740.97	81.2067	1,740.97	81.6065	1,740.97	79.5047	1,740.97	79.5504	1,740.97	76.0573	1,740.97	77.7981	1,740.97	72.696	1,740.97	76.4484	1,740.97	71.3536	1,740.97	75.1175	1,740.97	70.7229	1,740.97	73.191	1,740.97	69.8692	1,740.97	69.3827	1,740.97	71.1327	1,740.97	65.521	1,740.97	70.9947	1,740.97	65.3739	1,740.97	70.2976	1,740.97	63.9824	1,740.97	69.2907	1,740.97	65.3754	1,740.97	66.3429	1,740.97	65.038	1,740.97	67.7611	1,740.97	55.6947	1,740.97	66.7667
1,802.49	86.8361	1,802.49	86.5059	1,802.49	86.6038	1,802.49	85.3874	1,802.49	86.051	1,802.49	83.8237	1,802.49	85.0256	1,802.49	82.3976	1,802.49	83.4501	1,802.49	81.0056	1,802.49	81.7145	1,802.49	79.0046	1,802.49	80.1141	1,802.49	76.2048	1,802.49	78.1642	1,802.49	73.3005	1,802.49	75.3124	1,802.49	70.9274	1,802.49	72.7786	1,802.49	68.6724	1,802.49	72.0595	1,802.49	67.2175	1,802.49	70.8451	1,802.49	68.0513	1,802.49	67.2014	1,802.49	67.3593	1,802.49	67.1671	1,802.49	64.9977	1,802.49	68.5364	1,802.49	62.6156	1,802.49	68.4811	1,802.49	63.3858	1,802.49	67.7781	1,802.49	66.803	1,802.49	59.8089	1,802.49	64.9608
1,866.21	85.7942	1,866.21	85.5071	1,866.21	85.5464	1,866.21	84.5559	1,866.21	84.9704	1,866.21	83.1799	1,866.21	84.0308	1,866.21	81.8016	1,866.21	82.6742	1,866.21	80.5176	1,866.21	81.0116	1,866.21	78.8294	1,866.21	79.0715	1,866.21	76.3767	1,866.21	76.8291	1,866.21	73.7906	1,866.21	74.2742	1,866.21	72.0784	1,866.21	71.4895	1,866.21	70.5102	1,866.21	70.0213	1,866.21	66.9496	1,866.21	69.336	1,866.21	65.3487	1,866.21	67.162	1,866.21	66.2236	1,866.21	65.8865	1,866.21	63.6352	1,866.21	65.2749	1,866.21	61.4189	1,866.21	62.5485	1,866.21	63.9834	1,866.21	60.0513	1,866.21	67.4065	1,866.21	48.8954	1,866.21	66.0329
1,932.13	85.2636	1,932.13	84.4431	1,932.13	85.5189	1,932.13	83.5058	1,932.13	84.8112	1,932.13	82.3298	1,932.13	83.3235	1,932.13	80.7108	1,932.13	81.645	1,932.13	79.0111	1,932.13	80.0771	1,932.13	77.3886	1,932.13	78.0585	1,932.13	75.0054	1,932.13	75.3146	1,932.13	71.7635	1,932.13	72.5313	1,932.13	69.9807	1,932.13	70.6382	1,932.13	69.8829	1,932.13	69.4977	1,932.13	67.4257	1,932.13	68.5469	1,932.13	59.2987	1,932.13	65.6327	1,932.13	64.4384	1,932.13	64.1747	1,932.13	65.4917	1,932.13	65.3822	1,932.13	62.6675	1,932.13	62.5105	1,932.13	57.4322	1,932.13	60.2617	1,932.13	55.2252	1,932.13	58.7394	1,932.13	54.4306
2,000.24	85.5914	2,000.24	84.9962	2,000.24	85.5201	2,000.24	83.8693	2,000.24	84.8042	2,000.24	82.2188	2,000.24	83.6973	2,000.24	80.0004	2,000.24	82.303	2,000.24	77.4142	2,000.24	80.3447	2,000.24	74.8237	2,000.24	77.5953	2,000.24	72.1162	2,000.24	74.4754	2,000.24	69.0821	2,000.24	71.7186	2,000.24	67.2318	2,000.24	69.0754	2,000.24	66.6925	2,000.24	66.377	2,000.24	63.8214	2,000.24	64.5956	2,000.24	59.9135	2,000.24	61.4612	2,000.24	64.1073	2,000.24	57.6393	2,000.24	64.0632	2,000.24	62.5234	2,000.24	59.6122	2,000.24	62.7536	2,000.24	61.8225	2,000.24	60.6052	2,000.24	64.4686	2,000.24	58.3852	2,000.24	61.5332
2,070.56	86.2736	2,070.56	85.8552	2,070.56	86.1943	2,070.56	84.9273	2,070.56	85.6149	2,070.56	83.37	2,070.56	84.5094	2,070.56	81.065	2,070.56	82.7404	2,070.56	78.1383	2,070.56	80.2723	2,070.56	75.1009	2,070.56	77.3614	2,070.56	72.2513	2,070.56	74.3397	2,070.56	69.0636	2,070.56	71.331	2,070.56	65.8193	2,070.56	68.1935	2,070.56	64.2114	2,070.56	65.6623	2,070.56	62.2941	2,070.56	65.251	2,070.56	57.698	2,070.56	63.8904	2,070.56	60.2414	2,070.56	56.3242	2,070.56	61.9702	2,070.56	59.3065	2,070.56	56.5366	2,070.56	61.2108	2,070.56	56.2834	2,070.56	58.3526	2,070.56	62.4579	2,070.56	59.4844	2,070.56	60.982
2,143.8	86.2312	2,143.8	85.7851	2,143.8	86.11	2,143.8	84.7335	2,143.8	85.3734	2,143.8	83.0089	2,143.8	83.9212	2,143.8	80.5669	2,143.8	81.7998	2,143.8	77.6424	2,143.8	79.1765	2,143.8	74.8417	2,143.8	76.0544	2,143.8	72.2788	2,143.8	72.4485	2,143.8	69.0891	2,143.8	68.7072	2,143.8	65.335	2,143.8	65.191	2,143.8	63.7348	2,143.8	62.5523	2,143.8	63.1852	2,143.8	62.8889	2,143.8	58.1443	2,143.8	63.4875	2,143.8	57.6701	2,143.8	58.903	2,143.8	61.7864	2,143.8	54.0394	2,143.8	57.3341	2,143.8	59.1432	2,143.8	40.749	2,143.8	51.023	2,143.8	55.9506	2,143.8	54.994	2,143.8	58.5055
2,219.24	85.8749	2,219.24	85.2013	2,219.24	85.8486	2,219.24	83.8979	2,219.24	85.0698	2,219.24	81.9518	2,219.24	83.5669	2,219.24	79.298	2,219.24	81.3969	2,219.24	76.0391	2,219.24	78.5155	2,219.24	72.6317	2,219.24	74.8512	2,219.24	69.5933	2,219.24	70.6564	2,219.24	66.8048	2,219.24	66.7027	2,219.24	63.8616	2,219.24	63.7267	2,219.24	61.8818	2,219.24	60.9147	2,219.24	61.916	2,219.24	58.1129	2,219.24	60.2949	2,219.24	58.3679	2,219.24	55.6647	2,219.24	57.4343	2,219.24	59.5718	2,219.24	51.4222	2,219.24	58.7244	2,219.24	57.0365	2,219.24	53.6878	2,219.24	55.998	2,219.24	57.6899	2,219.24	45.2683	2,219.24	57.8195
2,297.61	87.1122	2,297.61	86.2429	2,297.61	87.2958	2,297.61	84.6595	2,297.61	86.6146	2,297.61	82.167	2,297.61	84.9123	2,297.61	78.6999	2,297.61	82.2544	2,297.61	74.4945	2,297.61	78.9995	2,297.61	69.9593	2,297.61	75.4347	2,297.61	65.2485	2,297.61	71.1142	2,297.61	60.7311	2,297.61	65.8312	2,297.61	57.3021	2,297.61	61.5821	2,297.61	56.2158	2,297.61	59.6909	2,297.61	57.2937	2,297.61	58.3963	2,297.61	57.2747	2,297.61	58.052	2,297.61	54.4096	2,297.61	58.3888	2,297.61	58.4554	2,297.61	56.8737	2,297.61	57.8265	2,297.61	57.7381	2,297.61	52.2382	2,297.61	57.3363	2,297.61	57.9655	2,297.61	48.0863	2,297.61	56.1336
2,378.17	88.8152	2,378.17	87.9294	2,378.17	88.8054	2,378.17	86.195	2,378.17	87.7507	2,378.17	83.5816	2,378.17	85.6796	2,378.17	80.1946	2,378.17	82.8726	2,378.17	76.1283	2,378.17	79.464	2,378.17	71.4113	2,378.17	75.1221	2,378.17	66.7202	2,378.17	69.729	2,378.17	63.7064	2,378.17	64.8278	2,378.17	61.9609	2,378.17	61.9373	2,378.17	59.7681	2,378.17	61.0223	2,378.17	60.8993	2,378.17	59.7166	2,378.17	60.6861	2,378.17	59.0496	2,378.17	54.4528	2,378.17	62.1452	2,378.17	59.876	2,378.17	62.0453	2,378.17	60.7211	2,378.17	61.5811	2,378.17	59.5316	2,378.17	60.6259	2,378.17	58.2284	2,378.17	49.7335	2,378.17	57.5763
2,462.4	88.4607	2,462.4	87.6995	2,462.4	88.4421	2,462.4	86.2771	2,462.4	87.5318	2,462.4	84.0924	2,462.4	85.7069	2,462.4	80.9617	2,462.4	82.862	2,462.4	76.9054	2,462.4	79.1188	2,462.4	72.7173	2,462.4	75.1259	2,462.4	69.348	2,462.4	71.5852	2,462.4	66.9309	2,462.4	68.4919	2,462.4	65.9728	2,462.4	65.1993	2,462.4	64.5675	2,462.4	62.952	2,462.4	62.4988	2,462.4	62.5296	2,462.4	61.8626	2,462.4	60.996	2,462.4	59.8944	2,462.4	59.5087	2,462.4	60.1543	2,462.4	59.5551	2,462.4	56.7963	2,462.4	63.4292	2,462.4	61.2883	2,462.4	63.1403	2,462.4	63.6168	2,462.4	57.3435	2,462.4	60.8437
2,548.83	87.9227	2,548.83	87.175	2,548.83	88.0421	2,548.83	85.7988	2,548.83	87.2608	2,548.83	83.5129	2,548.83	85.4404	2,548.83	80.1493	2,548.83	82.8296	2,548.83	76.2467	2,548.83	79.7605	2,548.83	73.1025	2,548.83	76.4095	2,548.83	70.3664	2,548.83	73.636	2,548.83	67.8774	2,548.83	71.255	2,548.83	65.8295	2,548.83	68.4186	2,548.83	64.3938	2,548.83	66.5276	2,548.83	64.7647	2,548.83	64.8025	2,548.83	63.1891	2,548.83	63.0961	2,548.83	56.8495	2,548.83	63.1972	2,548.83	61.4528	2,548.83	60.2252	2,548.83	60.3132	2,548.83	61.4561	2,548.83	53.2962	2,548.83	60.1209	2,548.83	48.5993	2,548.83	58.5594	2,548.83	56.8658
2,638.92	87.5391	2,638.92	86.9006	2,638.92	87.4963	2,638.92	85.6253	2,638.92	86.6367	2,638.92	83.4577	2,638.92	85.012	2,638.92	80.528	2,638.92	82.6349	2,638.92	77.5997	2,638.92	79.7467	2,638.92	74.8973	2,638.92	77.1601	2,638.92	71.8363	2,638.92	75.1206	2,638.92	69.1043	2,638.92	72.6026	2,638.92	66.9084	2,638.92	69.7668	2,638.92	63.8277	2,638.92	68.2477	2,638.92	62.6651	2,638.92	66.1153	2,638.92	62.3945	2,638.92	62.529	2,638.92	58.2793	2,638.92	63.3188	2,638.92	53.2007	2,638.92	60.6982	2,638.92	59.2139	2,638.92	59.737	2,638.92	59.6386	2,638.92	58.0905	2,638.92	55.0153	2,638.92	57.9602	2,638.92	56.3159
2,731.93	86.7706	2,731.93	86.3096	2,731.93	86.6887	2,731.93	85.2063	2,731.93	85.889	2,731.93	83.3321	2,731.93	84.3331	2,731.93	81.0419	2,731.93	82.2182	2,731.93	78.6973	2,731.93	79.9984	2,731.93	76.1411	2,731.93	77.9307	2,731.93	73.049	2,731.93	75.905	2,731.93	69.9947	2,731.93	73.4778	2,731.93	66.7087	2,731.93	70.6403	2,731.93	62.992	2,731.93	68.453	2,731.93	62.6593	2,731.93	66.3796	2,731.93	61.2721	2,731.93	64.659	2,731.93	56.4986	2,731.93	63.4074	2,731.93	56.425	2,731.93	57.3543	2,731.93	50.5252	2,731.93	50.957	2,731.93	45.0894	2,731.93	53.8884	2,731.93	54.8586	2,731.93	54.041	2,731.93	52.2175
2,828.61	86.3871	2,828.61	85.8212	2,828.61	86.2956	2,828.61	84.8681	2,828.61	85.445	2,828.61	83.4825	2,828.61	84.0181	2,828.61	81.6552	2,828.61	82.2189	2,828.61	79.566	2,828.61	80.6654	2,828.61	77.0438	2,828.61	79.3647	2,828.61	73.8164	2,828.61	77.6902	2,828.61	71.137	2,828.61	74.9974	2,828.61	68.9955	2,828.61	71.7138	2,828.61	65.6314	2,828.61	69.6489	2,828.61	64.9485	2,828.61	66.7525	2,828.61	62.9366	2,828.61	63.6664	2,828.61	51.8972	2,828.61	65.5177	2,828.61	51.8486	2,828.61	63.4958	2,828.61	55.8234	2,828.61	56.5194	2,828.61	54.9852	2,828.61	55.4796	2,828.61	56.1098	2,828.61	52.3868	2,828.61	58.5741
2,928.22	85.8385	2,928.22	85.1578	2,928.22	85.7217	2,928.22	84.3214	2,928.22	84.5418	2,928.22	83.2725	2,928.22	83.0272	2,928.22	81.9117	2,928.22	81.9759	2,928.22	80.3561	2,928.22	81.1383	2,928.22	78.3446	2,928.22	79.7958	2,928.22	75.5163	2,928.22	78.1453	2,928.22	72.7597	2,928.22	75.8269	2,928.22	70.4425	2,928.22	72.7421	2,928.22	67.0651	2,928.22	70.7155	2,928.22	65.8962	2,928.22	69.0135	2,928.22	63.7485	2,928.22	66.9886	2,928.22	57.6693	2,928.22	65.3052	2,928.22	52.8649	2,928.22	61.5747	2,928.22	58.2623	2,928.22	57.4412	2,928.22	59.1223	2,928.22	55.6765	2,928.22	63.7704	2,928.22	50.3136	2,928.22	63.7824
3,031.49	84.3735	3,031.49	83.7755	3,031.49	84.2717	3,031.49	83.1771	3,031.49	83.4039	3,031.49	82.4693	3,031.49	82.5402	3,031.49	81.3652	3,031.49	81.7842	3,031.49	79.9103	3,031.49	80.895	3,031.49	78.1456	3,031.49	79.8692	3,031.49	75.8206	3,031.49	78.6031	3,031.49	73.288	3,031.49	76.4082	3,031.49	71.3604	3,031.49	73.2184	3,031.49	69.0237	3,031.49	70.7644	3,031.49	66.9548	3,031.49	68.358	3,031.49	64.2105	3,031.49	65.8593	3,031.49	57.9596	3,031.49	65.7059	3,031.49	58.9018	3,031.49	64.6183	3,031.49	57.4521	3,031.49	63.1228	3,031.49	57.7244	3,031.49	55.0632	3,031.49	61.1246	3,031.49	52.8646	3,031.49	63.5345
3,138.43	84.5815	3,138.43	84.062	3,138.43	84.464	3,138.43	83.3352	3,138.43	83.6673	3,138.43	82.5868	3,138.43	82.6409	3,138.43	81.6928	3,138.43	81.896	3,138.43	80.235	3,138.43	81.3677	3,138.43	78.1307	3,138.43	80.4225	3,138.43	75.4093	3,138.43	79.1959	3,138.43	72.5859	3,138.43	77.2653	3,138.43	70.593	3,138.43	74.3699	3,138.43	68.4681	3,138.43	71.9911	3,138.43	66.7601	3,138.43	69.69	3,138.43	63.8924	3,138.43	68.0122	3,138.43	61.6972	3,138.43	66.0706	3,138.43	59.2876	3,138.43	58.8497	3,138.43	61.6668	3,138.43	63.9252	3,138.43	61.2014	3,138.43	58.5855	3,138.43	63.8531	3,138.43	52.3463	3,138.43	63.9723
3,249.02	84.7664	3,249.02	84.4777	3,249.02	84.6555	3,249.02	83.8316	3,249.02	83.8432	3,249.02	82.8112	3,249.02	82.6698	3,249.02	81.6181	3,249.02	81.9585	3,249.02	80.0789	3,249.02	81.5223	3,249.02	78.0395	3,249.02	80.7172	3,249.02	75.6794	3,249.02	79.4812	3,249.02	73.7316	3,249.02	77.4651	3,249.02	72.0047	3,249.02	74.6668	3,249.02	69.0646	3,249.02	72.759	3,249.02	66.7727	3,249.02	71.2283	3,249.02	63.9557	3,249.02	68.35	3,249.02	59.1317	3,249.02	66.7273	3,249.02	61.1033	3,249.02	61.6845	3,249.02	60.523	3,249.02	63.7928	3,249.02	64.9211	3,249.02	60.0967	3,249.02	63.6235	3,249.02	59.9023	3,249.02	64.1408
3,363.28	84.9323	3,363.28	84.6786	3,363.28	84.8506	3,363.28	84.1179	3,363.28	83.9874	3,363.28	83.0279	3,363.28	82.6046	3,363.28	81.6918	3,363.28	81.5017	3,363.28	80.2959	3,363.28	80.7899	3,363.28	78.6074	3,363.28	80.0499	3,363.28	76.6181	3,363.28	78.9635	3,363.28	74.53	3,363.28	77.1676	3,363.28	72.9005	3,363.28	74.8758	3,363.28	70.4842	3,363.28	73.3578	3,363.28	67.871	3,363.28	71.5789	3,363.28	66.2829	3,363.28	68.2851	3,363.28	63.1803	3,363.28	66.8245	3,363.28	65.4987	3,363.28	62.0802	3,363.28	57.7006	3,363.28	63.7141	3,363.28	61.9552	3,363.28	60.001	3,363.28	64.4121	3,363.28	62.6511	3,363.28	63.4416
3,481.93	85.0464	3,481.93	84.7551	3,481.93	84.9261	3,481.93	83.9057	3,481.93	84.3996	3,481.93	82.9082	3,481.93	83.3158	3,481.93	81.9286	3,481.93	82.1766	3,481.93	80.6065	3,481.93	81.5308	3,481.93	79.0894	3,481.93	80.8261	3,481.93	77.1976	3,481.93	79.6877	3,481.93	74.4119	3,481.93	78.1092	3,481.93	72.2033	3,481.93	75.7181	3,481.93	70.5713	3,481.93	73.1459	3,481.93	67.9122	3,481.93	71.2965	3,481.93	65.6051	3,481.93	69.4346	3,481.93	60.5984	3,481.93	68.221	3,481.93	62.7978	3,481.93	62.8309	3,481.93	57.824	3,481.93	64.4322	3,481.93	60.9182	3,481.93	58.4646	3,481.93	63.4858	3,481.93	61.3456	3,481.93	64.1156
3,604.98	85.1234	3,604.98	84.9606	3,604.98	85.2058	3,604.98	84.4563	3,604.98	84.5959	3,604.98	83.5555	3,604.98	83.3403	3,604.98	82.7862	3,604.98	82.4358	3,604.98	81.8315	3,604.98	82.1607	3,604.98	79.8818	3,604.98	81.8589	3,604.98	77.6096	3,604.98	80.5647	3,604.98	75.1617	3,604.98	78.788	3,604.98	72.6014	3,604.98	76.7022	3,604.98	70.7421	3,604.98	74.5151	3,604.98	68.9658	3,604.98	72.8296	3,604.98	67.4815	3,604.98	69.389	3,604.98	62.0757	3,604.98	68.3271	3,604.98	65.4042	3,604.98	65.8195	3,604.98	58.8711	3,604.98	67.3532	3,604.98	62.7801	3,604.98	61.6524	3,604.98	59.7649	3,604.98	63.0064	3,604.98	61.3073
3,732.42	84.2253	3,732.42	84.157	3,732.42	84.2773	3,732.42	83.7611	3,732.42	83.899	3,732.42	82.8896	3,732.42	83.0839	3,732.42	82.4079	3,732.42	82.1736	3,732.42	81.8491	3,732.42	82.2933	3,732.42	80.2787	3,732.42	82.3957	3,732.42	78.3177	3,732.42	80.9403	3,732.42	75.7154	3,732.42	79.1111	3,732.42	73.3541	3,732.42	76.7656	3,732.42	71.5991	3,732.42	74.0167	3,732.42	69.171	3,732.42	72.0258	3,732.42	69.0119	3,732.42	69.3829	3,732.42	65.1351	3,732.42	67.049	3,732.42	65.9306	3,732.42	64.0395	3,732.42	60.8385	3,732.42	66.5613	3,732.42	61.6067	3,732.42	62.1723	3,732.42	60.2634	3,732.42	62.4315	3,732.42	59.4441
3,863.53	84.328	3,863.53	84.3029	3,863.53	84.2414	3,863.53	83.5316	3,863.53	84.0464	3,863.53	82.8923	3,863.53	83.1429	3,863.53	82.8564	3,863.53	82.3674	3,863.53	82.073	3,863.53	82.7015	3,863.53	80.2566	3,863.53	82.4913	3,863.53	78.3597	3,863.53	80.8498	3,863.53	75.7293	3,863.53	78.6581	3,863.53	72.4782	3,863.53	75.8603	3,863.53	70.4055	3,863.53	72.7195	3,863.53	68.2914	3,863.53	70.8588	3,863.53	67.6732	3,863.53	69.3259	3,863.53	63.606	3,863.53	68.9337	3,863.53	65.7683	3,863.53	64.9338	3,863.53	60.1581	3,863.53	65.7921	3,863.53	60.9363	3,863.53	62.9543	3,863.53	61.0913	3,863.53	61.1097	3,863.53	60.0365
3,999.76	84.5778	3,999.76	84.2444	3,999.76	84.412	3,999.76	83.3832	3,999.76	83.7328	3,999.76	82.6646	3,999.76	83.0641	3,999.76	82.7594	3,999.76	82.87	3,999.76	82.3662	3,999.76	83.1093	3,999.76	80.1618	3,999.76	82.5764	3,999.76	77.511	3,999.76	80.4399	3,999.76	74.6813	3,999.76	78.5557	3,999.76	72.0267	3,999.76	76.115	3,999.76	70.1375	3,999.76	72.4502	3,999.76	66.423	3,999.76	70.6812	3,999.76	67.4314	3,999.76	68.2073	3,999.76	64.1101	3,999.76	66.9992	3,999.76	63.6387	3,999.76	66.4629	3,999.76	58.7984	3,999.76	66.5475	3,999.76	56.7805	3,999.76	62.6755	3,999.76	62.5629	3,999.76	61.3463	3,999.76	62.1712
4,141.11	84.2403	4,141.11	84.1533	4,141.11	84.0453	4,141.11	83.7007	4,141.11	83.7657	4,141.11	83.1089	4,141.11	83.3049	4,141.11	82.973	4,141.11	82.4441	4,141.11	82.242	4,141.11	82.4239	4,141.11	80.2617	4,141.11	81.9315	4,141.11	77.5076	4,141.11	80.1454	4,141.11	74.1028	4,141.11	77.7006	4,141.11	71.5848	4,141.11	74.3561	4,141.11	69.955	4,141.11	71.6829	4,141.11	64.7057	4,141.11	69.1932	4,141.11	64.7464	4,141.11	68.4083	4,141.11	64.4173	4,141.11	66.2252	4,141.11	64.9332	4,141.11	65.2565	4,141.11	62.8921	4,141.11	65.0494	4,141.11	51.7523	4,141.11	64.2369	4,141.11	61.5722	4,141.11	51.6356	4,141.11	59.6302
4,286.87	84.6983	4,286.87	84.7174	4,286.87	84.3985	4,286.87	83.9783	4,286.87	84.4296	4,286.87	83.2636	4,286.87	84.2552	4,286.87	83.0371	4,286.87	83.7949	4,286.87	82.0521	4,286.87	83.332	4,286.87	79.4386	4,286.87	82.4974	4,286.87	77.3961	4,286.87	80.8156	4,286.87	75.358	4,286.87	78.8567	4,286.87	72.6803	4,286.87	76.2286	4,286.87	71.3111	4,286.87	73.5913	4,286.87	68.8268	4,286.87	70.9843	4,286.87	67.693	4,286.87	68.2468	4,286.87	65.4229	4,286.87	66.6146	4,286.87	63.5066	4,286.87	65.9836	4,286.87	60.4129	4,286.87	64.2634	4,286.87	43.8284	4,286.87	64.9197	4,286.87	63.6536	4,286.87	57.7875	4,286.87	60.7968
4,438.48	84.3397	4,438.48	84.8368	4,438.48	84.3384	4,438.48	84.7001	4,438.48	84.46	4,438.48	84.0415	4,438.48	83.9024	4,438.48	84.0569	4,438.48	82.666	4,438.48	83.2014	4,438.48	82.5248	4,438.48	81.3564	4,438.48	82.4259	4,438.48	78.8019	4,438.48	81.1023	4,438.48	75.1599	4,438.48	78.7495	4,438.48	70.8755	4,438.48	76.1738	4,438.48	68.0486	4,438.48	74.091	4,438.48	65.6215	4,438.48	70.7123	4,438.48	64.2455	4,438.48	69.2076	4,438.48	61.4423	4,438.48	66.7567	4,438.48	58.6245	4,438.48	67.0374	4,438.48	57.309	4,438.48	63.8444	4,438.48	44.9452	4,438.48	64.8166	4,438.48	60.2954	4,438.48	58.543	4,438.48	55.523
4,594.48	84.5772	4,594.48	84.7611	4,594.48	84.4793	4,594.48	84.0666	4,594.48	84.8366	4,594.48	83.569	4,594.48	84.1787	4,594.48	83.3326	4,594.48	82.9259	4,594.48	82.5709	4,594.48	82.7186	4,594.48	80.7375	4,594.48	82.6647	4,594.48	78.4606	4,594.48	81.4618	4,594.48	76.5369	4,594.48	79.3927	4,594.48	73.8466	4,594.48	76.7914	4,594.48	71.9788	4,594.48	74.1736	4,594.48	68.8806	4,594.48	71.1153	4,594.48	66.3155	4,594.48	68.8257	4,594.48	66.8617	4,594.48	65.8368	4,594.48	64.7503	4,594.48	64.3885	4,594.48	64.0573	4,594.48	63.9843	4,594.48	49.73	4,594.48	63.19	4,594.48	58.3021	4,594.48	58.2208	4,594.48	55.903
4,757.08	84.4697	4,757.08	84.916	4,757.08	84.4966	4,757.08	84.1498	4,757.08	84.9056	4,757.08	82.9564	4,757.08	84.1341	4,757.08	83.288	4,757.08	82.8924	4,757.08	83.3145	4,757.08	83.0648	4,757.08	81.704	4,757.08	82.9378	4,757.08	79.2237	4,757.08	81.8416	4,757.08	75.9465	4,757.08	79.593	4,757.08	71.908	4,757.08	76.676	4,757.08	68.9334	4,757.08	74.0498	4,757.08	67.1255	4,757.08	70.8202	4,757.08	62.9615	4,757.08	69.1146	4,757.08	62.2162	4,757.08	67.3657	4,757.08	65.1062	4,757.08	65.9933	4,757.08	59.864	4,757.08	62.7069	4,757.08	58.7728	4,757.08	64.5229	4,757.08	60.7751	4,757.08	60.6474	4,757.08	57.1631
4,924.8	84.6	4,924.8	84.8789	4,924.8	84.548	4,924.8	83.9729	4,924.8	85.0681	4,924.8	83.2326	4,924.8	84.3502	4,924.8	83.3139	4,924.8	82.8931	4,924.8	83.0521	4,924.8	82.1823	4,924.8	81.5741	4,924.8	82.1419	4,924.8	79.0754	4,924.8	80.8962	4,924.8	76.1474	4,924.8	78.8157	4,924.8	73.1895	4,924.8	76.1241	4,924.8	70.9175	4,924.8	73.7438	4,924.8	68.4069	4,924.8	69.7549	4,924.8	67.256	4,924.8	67.5303	4,924.8	64.8384	4,924.8	65.4415	4,924.8	64.1858	4,924.8	66.1332	4,924.8	62.7615	4,924.8	61.5391	4,924.8	57.7878	4,924.8	62.6809	4,924.8	60.8377	4,924.8	60.7901	4,924.8	59.1674
5,098.39	84.5539	5,098.39	84.8865	5,098.39	84.8443	5,098.39	83.7339	5,098.39	85.2981	5,098.39	82.2261	5,098.39	84.4824	5,098.39	82.6722	5,098.39	82.9201	5,098.39	82.8244	5,098.39	82.6089	5,098.39	81.4304	5,098.39	82.641	5,098.39	79.1339	5,098.39	81.4716	5,098.39	76.4216	5,098.39	78.7911	5,098.39	73.6629	5,098.39	75.4577	5,098.39	70.8936	5,098.39	73.2671	5,098.39	67.308	5,098.39	69.1269	5,098.39	64.4155	5,098.39	68.2755	5,098.39	62.6038	5,098.39	67.3113	5,098.39	63.9656	5,098.39	67.1466	5,098.39	61.3717	5,098.39	58.3054	5,098.39	58.4557	5,098.39	63.7571	5,098.39	58.9701	5,098.39	58.1966	5,098.39	53.5825
5,277.83	84.3848	5,277.83	84.7671	5,277.83	84.3789	5,277.83	83.9141	5,277.83	84.7717	5,277.83	83.093	5,277.83	83.8586	5,277.83	83.0045	5,277.83	82.3061	5,277.83	82.678	5,277.83	81.4834	5,277.83	81.0964	5,277.83	81.6841	5,277.83	78.4554	5,277.83	80.6687	5,277.83	75.1483	5,277.83	78.1266	5,277.83	71.6543	5,277.83	74.8534	5,277.83	69.1248	5,277.83	72.7921	5,277.83	67.062	5,277.83	68.5778	5,277.83	66.7486	5,277.83	66.5082	5,277.83	66.0277	5,277.83	65.3762	5,277.83	61.3454	5,277.83	65.7476	5,277.83	60.5895	5,277.83	57.2665	5,277.83	60.539	5,277.83	62.1959	5,277.83	58.2946	5,277.83	60.2001	5,277.83	57.7941
5,463.87	84.3747	5,463.87	84.0563	5,463.87	84.718	5,463.87	83.0882	5,463.87	84.5339	5,463.87	81.8032	5,463.87	83.4845	5,463.87	81.4816	5,463.87	81.8084	5,463.87	81.5213	5,463.87	81.2806	5,463.87	80.2605	5,463.87	81.6028	5,463.87	77.9297	5,463.87	80.5157	5,463.87	75.4483	5,463.87	77.9144	5,463.87	73.1689	5,463.87	74.3886	5,463.87	70.7506	5,463.87	72.6168	5,463.87	68.718	5,463.87	68.9253	5,463.87	65.6824	5,463.87	66.5362	5,463.87	65.6685	5,463.87	65.6015	5,463.87	58.9975	5,463.87	66.1142	5,463.87	59.8336	5,463.87	49.7793	5,463.87	59.386	5,463.87	61.0085	5,463.87	57.9778	5,463.87	56.4428	5,463.87	58.8453
5,656.49	83.9945	5,656.49	83.2013	5,656.49	84.0397	5,656.49	82.4678	5,656.49	83.5042	5,656.49	81.8005	5,656.49	82.9546	5,656.49	81.4244	5,656.49	81.6808	5,656.49	81.4812	5,656.49	80.8007	5,656.49	80.2923	5,656.49	80.8632	5,656.49	78.1318	5,656.49	79.9824	5,656.49	75.3269	5,656.49	77.2061	5,656.49	71.1829	5,656.49	73.567	5,656.49	66.29	5,656.49	72.1192	5,656.49	64.5025	5,656.49	69.4392	5,656.49	62.4023	5,656.49	65.7628	5,656.49	64.35	5,656.49	66.0042	5,656.49	60.0948	5,656.49	65.0075	5,656.49	59.1802	5,656.49	53.3294	5,656.49	61.2878	5,656.49	61.0423	5,656.49	60.9986	5,656.49	57.1989	5,656.49	57.4852
5,856.45	84.2008	5,856.45	83.5677	5,856.45	84.1296	5,856.45	82.8631	5,856.45	83.6361	5,856.45	81.6414	5,856.45	83.1782	5,856.45	80.736	5,856.45	81.5938	5,856.45	80.638	5,856.45	80.5845	5,856.45	79.2418	5,856.45	80.2221	5,856.45	76.5483	5,856.45	79.4733	5,856.45	73.1984	5,856.45	77.0071	5,856.45	70.0811	5,856.45	73.4399	5,856.45	67.7497	5,856.45	71.19	5,856.45	66.9329	5,856.45	68.9204	5,856.45	62.6799	5,856.45	64.8991	5,856.45	65.0488	5,856.45	63.0186	5,856.45	57.035	5,856.45	63.5675	5,856.45	59.654	5,856.45	44.047	5,856.45	58.9917	5,856.45	59.5408	5,856.45	59.9403	5,856.45	57.4528	5,856.45	60.3458
6,062.99	85.4023	6,062.99	84.3382	6,062.99	85.202	6,062.99	83.4959	6,062.99	84.1747	6,062.99	82.0187	6,062.99	83.5526	6,062.99	80.6849	6,062.99	81.9632	6,062.99	80.6072	6,062.99	80.5723	6,062.99	79.3265	6,062.99	79.9254	6,062.99	76.802	6,062.99	78.9762	6,062.99	73.5674	6,062.99	76.8124	6,062.99	70.6955	6,062.99	73.294	6,062.99	67.0527	6,062.99	70.4986	6,062.99	64.8352	6,062.99	69.2185	6,062.99	60.8095	6,062.99	64.7083	6,062.99	62.6737	6,062.99	64.8242	6,062.99	54.0362	6,062.99	63.1178	6,062.99	58.6903	6,062.99	53.6643	6,062.99	58.6192	6,062.99	60.1147	6,062.99	59.8941	6,062.99	57.2001	6,062.99	56.3856
6,276.86	86.0315	6,276.86	84.8212	6,276.86	85.7682	6,276.86	83.4918	6,276.86	85.2578	6,276.86	81.6625	6,276.86	84.7959	6,276.86	80.2463	6,276.86	83.1132	6,276.86	80.4217	6,276.86	81.5394	6,276.86	79.4356	6,276.86	80.5055	6,276.86	76.8756	6,276.86	80.1007	6,276.86	73.2833	6,276.86	78.5219	6,276.86	70.1326	6,276.86	74.3741	6,276.86	65.8434	6,276.86	71.3564	6,276.86	64.724	6,276.86	69.8778	6,276.86	55.6602	6,276.86	65.1604	6,276.86	64.1569	6,276.86	65.1796	6,276.86	47.1323	6,276.86	61.6011	6,276.86	56.0266	6,276.86	56.8308	6,276.86	59.5793	6,276.86	61.0919	6,276.86	59.7059	6,276.86	54.1936	6,276.86	60.1494
6,498.05	86.1795	6,498.05	85.1202	6,498.05	86.0191	6,498.05	83.8528	6,498.05	85.4952	6,498.05	82.2163	6,498.05	84.8127	6,498.05	80.967	6,498.05	83.1941	6,498.05	80.6757	6,498.05	81.5738	6,498.05	79.3744	6,498.05	80.9934	6,498.05	76.9042	6,498.05	80.5249	6,498.05	72.8902	6,498.05	78.3885	6,498.05	68.9961	6,498.05	74.7367	6,498.05	64.9166	6,498.05	71.6864	6,498.05	63.912	6,498.05	70.2729	6,498.05	60.3302	6,498.05	65.0075	6,498.05	62.1815	6,498.05	65.0786	6,498.05	48.678	6,498.05	60.7905	6,498.05	55.4634	6,498.05	53.1351	6,498.05	55.5461	6,498.05	60.1763	6,498.05	59.5677	6,498.05	50.1681	6,498.05	57.6772
6,727.29	87.022	6,727.29	85.6393	6,727.29	87.0609	6,727.29	84.513	6,727.29	85.8841	6,727.29	82.6147	6,727.29	85.002	6,727.29	80.878	6,727.29	83.4476	6,727.29	80.1644	6,727.29	81.9606	6,727.29	79.2226	6,727.29	81.179	6,727.29	76.7541	6,727.29	80.7841	6,727.29	73.6929	6,727.29	78.7637	6,727.29	70.1798	6,727.29	75.9913	6,727.29	66.6392	6,727.29	72.2566	6,727.29	65.5325	6,727.29	70.64	6,727.29	59.8869	6,727.29	65.2469	6,727.29	60.3988	6,727.29	65.5121	6,727.29	48.8341	6,727.29	54.7617	6,727.29	58.4185	6,727.29	53.145	6,727.29	50.1472	6,727.29	60.383	6,727.29	58.7167	6,727.29	47.2665	6,727.29	56.7537
6,964.6	86.7767	6,964.6	85.8877	6,964.6	86.578	6,964.6	84.5582	6,964.6	86.1215	6,964.6	82.6751	6,964.6	85.2229	6,964.6	81.0516	6,964.6	83.2389	6,964.6	80.1364	6,964.6	81.917	6,964.6	79.4213	6,964.6	81.1105	6,964.6	76.9009	6,964.6	79.9693	6,964.6	73.9843	6,964.6	78.3977	6,964.6	70.6614	6,964.6	75.5745	6,964.6	67.2022	6,964.6	70.9104	6,964.6	64.3131	6,964.6	69.1633	6,964.6	59.5493	6,964.6	65.4622	6,964.6	62.2613	6,964.6	64.3854	6,964.6	43.9465	6,964.6	55.1474	6,964.6	59.6955	6,964.6	58.2516	6,964.6	53.7241	6,964.6	57.2516	6,964.6	54.4486	6,964.6	52.8721	6,964.6	53.963
7,209.96	86.8199	7,209.96	85.7779	7,209.96	86.61	7,209.96	84.1516	7,209.96	85.9671	7,209.96	82.5914	7,209.96	84.6827	7,209.96	81.0919	7,209.96	83.0164	7,209.96	80.2496	7,209.96	81.5715	7,209.96	79.1475	7,209.96	80.5086	7,209.96	76.7217	7,209.96	79.5046	7,209.96	73.7602	7,209.96	77.9015	7,209.96	69.7801	7,209.96	74.0203	7,209.96	66.7954	7,209.96	70.2072	7,209.96	63.968	7,209.96	70.1169	7,209.96	60.1345	7,209.96	65.1233	7,209.96	60.267	7,209.96	64.9407	7,209.96	51.719	7,209.96	50.8327	7,209.96	57.3225	7,209.96	59.0173	7,209.96	53.3173	7,209.96	56.7589	7,209.96	52.5614	7,209.96	39.8879	7,209.96	53.5591
7,464.11	86.0328	7,464.11	84.908	7,464.11	85.8677	7,464.11	83.5008	7,464.11	85.0792	7,464.11	81.7775	7,464.11	84.1288	7,464.11	80.016	7,464.11	82.6264	7,464.11	79.3542	7,464.11	81.324	7,464.11	78.6791	7,464.11	80.0032	7,464.11	76.4436	7,464.11	78.7873	7,464.11	73.8679	7,464.11	76.6155	7,464.11	69.3165	7,464.11	73.942	7,464.11	65.2963	7,464.11	70.6641	7,464.11	63.6004	7,464.11	68.6114	7,464.11	58.5425	7,464.11	65.0215	7,464.11	60.5031	7,464.11	64.0962	7,464.11	53.1762	7,464.11	48.6277	7,464.11	53.7573	7,464.11	59.4469	7,464.11	57.4803	7,464.11	52.8151	7,464.11	54.9498	7,464.11	44.0022	7,464.11	47.6801
7,727.78	84.9489	7,727.78	83.8694	7,727.78	84.6998	7,727.78	82.5745	7,727.78	83.9581	7,727.78	81.272	7,727.78	82.7171	7,727.78	79.5166	7,727.78	81.1185	7,727.78	78.5711	7,727.78	79.6152	7,727.78	77.3166	7,727.78	78.2625	7,727.78	75.0246	7,727.78	76.658	7,727.78	72.5219	7,727.78	75.0413	7,727.78	68.5001	7,727.78	73.0384	7,727.78	64.9973	7,727.78	68.7714	7,727.78	64.2425	7,727.78	66.3701	7,727.78	59.9382	7,727.78	63.3985	7,727.78	59.8992	7,727.78	62.3304	7,727.78	54.0446	7,727.78	49.7717	7,727.78	47.2925	7,727.78	56.5907	7,727.78	53.9326	7,727.78	42.5266	7,727.78	54.5799	7,727.78	49.4177	7,727.78	38.6105
8,000.24	84.6841	8,000.24	83.6178	8,000.24	84.5094	8,000.24	82.2842	8,000.24	83.7621	8,000.24	80.8357	8,000.24	82.1576	8,000.24	79.3498	8,000.24	80.5757	8,000.24	77.3148	8,000.24	79.0542	8,000.24	74.7088	8,000.24	76.7531	8,000.24	71.9784	8,000.24	74.976	8,000.24	69.5992	8,000.24	73.2579	8,000.24	65.4105	8,000.24	70.2297	8,000.24	63.3677	8,000.24	65.9479	8,000.24	62.2554	8,000.24	64.5738	8,000.24	58.3133	8,000.24	61.5407	8,000.24	56.9353	8,000.24	60.5513	8,000.24	46.0463	8,000.24	42.6197	8,000.24	45.2106	8,000.24	54.4202	8,000.24	54.6848	8,000.24	46.0311	8,000.24	50.8023	8,000.24	46.2342	8,000.24	44.9121
8,282.23	85.8917	8,282.23	84.9979	8,282.23	85.8561	8,282.23	83.1947	8,282.23	85.0954	8,282.23	81.1713	8,282.23	83.466	8,282.23	78.9812	8,282.23	81.9054	8,282.23	77.2038	8,282.23	79.3246	8,282.23	75.412	8,282.23	77.2467	8,282.23	73.0277	8,282.23	76.0337	8,282.23	70.2309	8,282.23	73.5291	8,282.23	64.7712	8,282.23	71.4061	8,282.23	61.7104	8,282.23	65.977	8,282.23	59.9716	8,282.23	64.2273	8,282.23	55.9969	8,282.23	59.0313	8,282.23	54.4805	8,282.23	59.468	8,282.23	55.9744	8,282.23	38.9264	8,282.23	43.7734	8,282.23	51.1722	8,282.23	40.5629	8,282.23	37.7528	8,282.23	52.0544	8,282.23	46.8518	8,282.23	47.4937
8,574.46	87.127	8,574.46	86.0547	8,574.46	87.1533	8,574.46	84.4771	8,574.46	86.1223	8,574.46	82.2967	8,574.46	84.7466	8,574.46	79.9497	8,574.46	82.9738	8,574.46	78.0347	8,574.46	80.5459	8,574.46	76.6908	8,574.46	78.4021	8,574.46	74.2007	8,574.46	76.2327	8,574.46	71.5912	8,574.46	74.2925	8,574.46	65.9199	8,574.46	72.0996	8,574.46	63.6361	8,574.46	67.051	8,574.46	60.4413	8,574.46	62.0656	8,574.46	57.102	8,574.46	61.2846	8,574.46	56.7328	8,574.46	56.0566	8,574.46	55.1825	8,574.46	50.5716	8,574.46	47.9991	8,574.46	57.4762	8,574.46	51.2587	8,574.46	44.2656	8,574.46	53.7762	8,574.46	51.4139	8,574.46	35.733
8,876.22	86.836	8,876.22	86.2349	8,876.22	86.57	8,876.22	84.816	8,876.22	86.0662	8,876.22	82.8736	8,876.22	84.7744	8,876.22	80.0653	8,876.22	82.648	8,876.22	77.9909	8,876.22	79.7644	8,876.22	75.7435	8,876.22	78.1607	8,876.22	73.7836	8,876.22	76.3279	8,876.22	71.3525	8,876.22	74.8152	8,876.22	66.0548	8,876.22	72.672	8,876.22	61.7851	8,876.22	67.8201	8,876.22	60.796	8,876.22	64.6644	8,876.22	56.2325	8,876.22	62.1179	8,876.22	54.9656	8,876.22	56.6329	8,876.22	52.2183	8,876.22	46.0942	8,876.22	46.6888	8,876.22	52.9542	8,876.22	48.2664	8,876.22	45.1228	8,876.22	49.767	8,876.22	47.9066	8,876.22	44.3824
9,189.7	85.7204	9,189.7	85.122	9,189.7	85.7188	9,189.7	83.7693	9,189.7	84.9687	9,189.7	81.5298	9,189.7	83.6262	9,189.7	78.8476	9,189.7	81.4963	9,189.7	76.8777	9,189.7	79.1246	9,189.7	75.0523	9,189.7	76.9792	9,189.7	73.4278	9,189.7	75.3316	9,189.7	71.4692	9,189.7	73.5367	9,189.7	66.5704	9,189.7	71.942	9,189.7	62.8206	9,189.7	67.0353	9,189.7	61.2567	9,189.7	63.2952	9,189.7	53.5633	9,189.7	62.117	9,189.7	54.8996	9,189.7	56.4395	9,189.7	52.9324	9,189.7	47.1259	9,189.7	38.7212	9,189.7	56.6361	9,189.7	52.7096	9,189.7	43.9266	9,189.7	55.1162	9,189.7	47.9714	9,189.7	46.1449
9,513.43	84.0329	9,513.43	83.8458	9,513.43	83.98	9,513.43	82.4689	9,513.43	83.6721	9,513.43	79.5903	9,513.43	82.4112	9,513.43	76.4344	9,513.43	79.9728	9,513.43	74.5423	9,513.43	77.3826	9,513.43	73.5385	9,513.43	75.3455	9,513.43	72.4029	9,513.43	74.3852	9,513.43	71.328	9,513.43	73.1901	9,513.43	66.0419	9,513.43	71.4708	9,513.43	61.4489	9,513.43	67.024	9,513.43	61.4244	9,513.43	61.6192	9,513.43	54.7961	9,513.43	60.7164	9,513.43	55.1592	9,513.43	53.0619	9,513.43	54.2936	9,513.43	53.2829	9,513.43	37.1723	9,513.43	51.6931	9,513.43	50.7226	9,513.43	46.5399	9,513.43	55.459	9,513.43	45.3721	9,513.43	43.6201
9,848.88	83.7979	9,848.88	83.5966	9,848.88	83.6227	9,848.88	81.9887	9,848.88	83.3797	9,848.88	78.8669	9,848.88	81.9907	9,848.88	75.6028	9,848.88	79.3827	9,848.88	73.9925	9,848.88	76.6044	9,848.88	72.169	9,848.88	75.1103	9,848.88	71.0845	9,848.88	72.9571	9,848.88	68.4976	9,848.88	71.2954	9,848.88	64.129	9,848.88	68.7975	9,848.88	60.7746	9,848.88	65.1504	9,848.88	58.6863	9,848.88	59.4009	9,848.88	56.434	9,848.88	58.7638	9,848.88	52.8134	9,848.88	50.2332	9,848.88	53.9078	9,848.88	45.5619	9,848.88	33.6437	9,848.88	51.1362	9,848.88	50.3733	9,848.88	41.9867	9,848.88	50.1839	9,848.88	38.3803	9,848.88	37.6726
10,196.8	84.2689	10,196.8	84.3092	10,196.8	84.2079	10,196.8	82.4077	10,196.8	84.195	10,196.8	78.9358	10,196.8	82.4205	10,196.8	75.5029	10,196.8	80.0323	10,196.8	74.537	10,196.8	76.8791	10,196.8	72.9397	10,196.8	75.2509	10,196.8	72.2631	10,196.8	72.8533	10,196.8	69.5097	10,196.8	70.6855	10,196.8	63.9062	10,196.8	70.0063	10,196.8	59.6604	10,196.8	64.7918	10,196.8	58.684	10,196.8	59.4411	10,196.8	54.6386	10,196.8	59.5158	10,196.8	47.8694	10,196.8	49.0915	10,196.8	57.1248	10,196.8	47.6196	10,196.8	43.4308	10,196.8	49.8586	10,196.8	39.0465	10,196.8	41.147	10,196.8	48.8257	10,196.8	49.5908	10,196.8	31.2718
10,556.4	84.5136	10,556.4	84.7572	10,556.4	84.5535	10,556.4	82.9317	10,556.4	84.7535	10,556.4	79.6067	10,556.4	83.0437	10,556.4	77.17	10,556.4	80.3273	10,556.4	75.084	10,556.4	77.6306	10,556.4	73.1604	10,556.4	76.3519	10,556.4	71.8347	10,556.4	73.9181	10,556.4	70.0967	10,556.4	72.4577	10,556.4	63.7539	10,556.4	70.5742	10,556.4	56.605	10,556.4	64.7746	10,556.4	58.1944	10,556.4	56.9117	10,556.4	55.6579	10,556.4	59.3334	10,556.4	48.0216	10,556.4	47.8943	10,556.4	56.5396	10,556.4	53.8308	10,556.4	38.9874	10,556.4	51.7675	10,556.4	26.028	10,556.4	47.949	10,556.4	50.9889	10,556.4	52.6158	10,556.4	43.8167
10,928.5	84.4227	10,928.5	84.5019	10,928.5	84.4957	10,928.5	82.2789	10,928.5	84.3383	10,928.5	79.6305	10,928.5	82.6333	10,928.5	77.6933	10,928.5	80.2344	10,928.5	75.7755	10,928.5	78.8999	10,928.5	73.704	10,928.5	76.8589	10,928.5	71.8008	10,928.5	74.3549	10,928.5	70.3105	10,928.5	71.929	10,928.5	63.7169	10,928.5	70.3933	10,928.5	59.766	10,928.5	66.3803	10,928.5	58.4165	10,928.5	58.3307	10,928.5	53.0497	10,928.5	60.2288	10,928.5	48.5549	10,928.5	47.1737	10,928.5	57.6016	10,928.5	54.6623	10,928.5	38.3028	10,928.5	55.7455	10,928.5	42.1095	10,928.5	49.292	10,928.5	53.4996	10,928.5	54.2254	10,928.5	39.7155
11,313.7	83.887	11,313.7	83.5226	11,313.7	83.8724	11,313.7	81.1423	11,313.7	83.5396	11,313.7	79.7548	11,313.7	81.6291	11,313.7	77.9293	11,313.7	80.5124	11,313.7	75.4757	11,313.7	79.1278	11,313.7	72.965	11,313.7	77.2142	11,313.7	72.2986	11,313.7	74.1134	11,313.7	70.9203	11,313.7	73.0682	11,313.7	65.0683	11,313.7	71.644	11,313.7	59.919	11,313.7	68.2604	11,313.7	60.2273	11,313.7	61.6469	11,313.7	55.8802	11,313.7	61.5365	11,313.7	51.0409	11,313.7	50.4023	11,313.7	59.9052	11,313.7	57.5004	11,313.7	37.8965	11,313.7	55.9485	11,313.7	43.3386	11,313.7	49.2402	11,313.7	51.2703	11,313.7	57.3185	11,313.7	47.4421
11,712.9	83.2786	11,712.9	81.7827	11,712.9	83.4853	11,712.9	80.1532	11,712.9	82.0279	11,712.9	79.7082	11,712.9	80.396	11,712.9	77.3164	11,712.9	80.0884	11,712.9	74.113	11,712.9	78.6583	11,712.9	72.0708	11,712.9	76.436	11,712.9	71.7769	11,712.9	73.815	11,712.9	70.4706	11,712.9	72.7229	11,712.9	64.7743	11,712.9	70.0706	11,712.9	60.4489	11,712.9	66.6212	11,712.9	59.3397	11,712.9	62.4222	11,712.9	57.5654	11,712.9	61.1083	11,712.9	45.712	11,712.9	52.4918	11,712.9	61.4145	11,712.9	58.6898	11,712.9	43.6611	11,712.9	56.1559	11,712.9	46.1912	11,712.9	44.2039	11,712.9	54.3035	11,712.9	58.3078	11,712.9	48.3152
12,126	83.5053	12,126	81.0028	12,126	83.7233	12,126	80.0211	12,126	81.602	12,126	79.5225	12,126	80.2698	12,126	76.4986	12,126	79.8556	12,126	73.4925	12,126	77.559	12,126	72.1562	12,126	75.4547	12,126	71.5308	12,126	73.8028	12,126	68.5026	12,126	71.1177	12,126	62.9959	12,126	67.41	12,126	57.838	12,126	62.665	12,126	58.0251	12,126	61.5336	12,126	56.2908	12,126	59.0998	12,126	47.6688	12,126	53.4294	12,126	60.0367	12,126	57.3434	12,126	47.9089	12,126	54.5075	12,126	48.8494	12,126	41.9592	12,126	54.0251	12,126	57.9709	12,126	52.0132
12,553.7	84.0419	12,553.7	81.8325	12,553.7	84.2734	12,553.7	80.9308	12,553.7	82.386	12,553.7	79.2653	12,553.7	81.5561	12,553.7	76.301	12,553.7	80.0459	12,553.7	74.0847	12,553.7	77.2331	12,553.7	71.7274	12,553.7	75.4243	12,553.7	70.0306	12,553.7	73.0759	12,553.7	65.8221	12,553.7	70.1201	12,553.7	61.1547	12,553.7	65.5793	12,553.7	54.729	12,553.7	59.943	12,553.7	55.0228	12,553.7	58.3896	12,553.7	53.9206	12,553.7	57.0115	12,553.7	44.9269	12,553.7	52.1965	12,553.7	58.8503	12,553.7	55.3716	12,553.7	41.6185	12,553.7	49.6281	12,553.7	47.365	12,553.7	38.1846	12,553.7	50.1262	12,553.7	56.803	12,553.7	51.9381
12,996.1	84.1272	12,996.1	82.3058	12,996.1	84.2978	12,996.1	80.9645	12,996.1	83.0148	12,996.1	78.417	12,996.1	82.156	12,996.1	75.6306	12,996.1	79.7829	12,996.1	73.5166	12,996.1	76.8291	12,996.1	70.1611	12,996.1	75.1522	12,996.1	68.6595	12,996.1	71.7538	12,996.1	62.2271	12,996.1	67.9962	12,996.1	59.277	12,996.1	64.8295	12,996.1	53.8828	12,996.1	56.6764	12,996.1	55.4201	12,996.1	55.6193	12,996.1	53.652	12,996.1	53.4622	12,996.1	45.4326	12,996.1	50.9433	12,996.1	57.3812	12,996.1	54.4335	12,996.1	38.5312	12,996.1	51.6093	12,996.1	38.0209	12,996.1	43.5616	12,996.1	46.5127	12,996.1	56.2545	12,996.1	53.9267
13,454.6	83.5083	13,454.6	82.4217	13,454.6	83.6073	13,454.6	80.67	13,454.6	82.9798	13,454.6	77.5199	13,454.6	81.681	13,454.6	74.8772	13,454.6	78.9169	13,454.6	72.4526	13,454.6	75.5025	13,454.6	67.9289	13,454.6	73.0316	13,454.6	65.8356	13,454.6	69.0918	13,454.6	61.0741	13,454.6	65.0437	13,454.6	58.0271	13,454.6	60.4086	13,454.6	49.9882	13,454.6	54.8743	13,454.6	53.6374	13,454.6	52.2216	13,454.6	48.3976	13,454.6	45.0319	13,454.6	39.327	13,454.6	44.3556	13,454.6	55.5121	13,454.6	51.4129	13,454.6	46.7184	13,454.6	49.2712	13,454.6	34.6794	13,454.6	42.8046	13,454.6	46.4903	13,454.6	54.158	13,454.6	53.4848
13,928.5	82.6316	13,928.5	81.7085	13,928.5	82.5788	13,928.5	79.749	13,928.5	82.2028	13,928.5	76.7268	13,928.5	80.5926	13,928.5	74.8215	13,928.5	77.2874	13,928.5	71.0819	13,928.5	74.2649	13,928.5	67.2907	13,928.5	70.8229	13,928.5	67.0665	13,928.5	67.1484	13,928.5	62.7907	13,928.5	63.093	13,928.5	59.5886	13,928.5	63.2445	13,928.5	51.511	13,928.5	60.5279	13,928.5	56.0791	13,928.5	49.1685	13,928.5	52.2917	13,928.5	52.6603	13,928.5	43.5347	13,928.5	46.492	13,928.5	56.7867	13,928.5	45.3183	13,928.5	47.3034	13,928.5	50.4224	13,928.5	47.7943	13,928.5	46.4409	13,928.5	47.3521	13,928.5	53.14	13,928.5	49.3313
14,419.9	81.7576	14,419.9	81.3392	14,419.9	81.7292	14,419.9	79.09	14,419.9	81.6845	14,419.9	76.9822	14,419.9	79.7975	14,419.9	74.9316	14,419.9	76.932	14,419.9	71.2533	14,419.9	73.8209	14,419.9	68.4279	14,419.9	69.9927	14,419.9	68.1834	14,419.9	66.6	14,419.9	64.9801	14,419.9	66.6904	14,419.9	61.6215	14,419.9	64.9166	14,419.9	53.287	14,419.9	62.5311	14,419.9	56.1901	14,419.9	50.8398	14,419.9	52.3852	14,419.9	53.6456	14,419.9	45.0686	14,419.9	45.3683	14,419.9	55.1445	14,419.9	44.3996	14,419.9	44.1751	14,419.9	49.087	14,419.9	46.6876	14,419.9	50.3331	14,419.9	47.6023	14,419.9	52.6346	14,419.9	50.3277
14,928.2	82.3651	14,928.2	81.8847	14,928.2	82.4282	14,928.2	79.5121	14,928.2	82.189	14,928.2	77.2497	14,928.2	79.9014	14,928.2	73.7332	14,928.2	77.0138	14,928.2	69.9958	14,928.2	73.2442	14,928.2	68.502	14,928.2	68.9531	14,928.2	67.2955	14,928.2	67.1401	14,928.2	63.7383	14,928.2	66.1147	14,928.2	61.1253	14,928.2	64.9779	14,928.2	51.6481	14,928.2	61.9204	14,928.2	55.9128	14,928.2	48.0547	14,928.2	53.9703	14,928.2	49.5106	14,928.2	48.0159	14,928.2	43.8306	14,928.2	57.125	14,928.2	48.5377	14,928.2	49.4841	14,928.2	54.274	14,928.2	48.4532	14,928.2	49.7806	14,928.2	49.1526	14,928.2	55.7436	14,928.2	53.8112
15,454.8	82.6548	15,454.8	82.0862	15,454.8	83.0581	15,454.8	79.3892	15,454.8	82.4487	15,454.8	76.8505	15,454.8	79.4277	15,454.8	72.2177	15,454.8	76.3025	15,454.8	68.6853	15,454.8	71.319	15,454.8	66.4109	15,454.8	68.4129	15,454.8	64.9197	15,454.8	67.0936	15,454.8	61.496	15,454.8	66.5263	15,454.8	59.2957	15,454.8	64.8275	15,454.8	44.3844	15,454.8	61.5227	15,454.8	52.7999	15,454.8	50.0612	15,454.8	51.0403	15,454.8	52.7579	15,454.8	44.6442	15,454.8	47.0834	15,454.8	58.5734	15,454.8	51.1576	15,454.8	48.1086	15,454.8	54.9674	15,454.8	52.6146	15,454.8	48.0922	15,454.8	52.3398	15,454.8	59.4765	15,454.8	55.3541
15,999.8	81.7205	15,999.8	81.4143	15,999.8	82.1346	15,999.8	79.2255	15,999.8	81.5446	15,999.8	77.1183	15,999.8	78.7011	15,999.8	72.9746	15,999.8	76.1121	15,999.8	70.0296	15,999.8	72.5509	15,999.8	68.6143	15,999.8	69.1666	15,999.8	65.8454	15,999.8	69.1259	15,999.8	62.7295	15,999.8	67.5332	15,999.8	61.4073	15,999.8	66.2124	15,999.8	45.4194	15,999.8	63.6672	15,999.8	55.4432	15,999.8	54.4374	15,999.8	52.1663	15,999.8	54.1003	15,999.8	47.5909	15,999.8	47.6055	15,999.8	60.0601	15,999.8	56.6188	15,999.8	51.2846	15,999.8	57.3601	15,999.8	56.8849	15,999.8	52.7187	15,999.8	55.601	15,999.8	62.5398	15,999.8	57.245
16,564.5	83.5612	16,564.5	82.942	16,564.5	84.016	16,564.5	80.8962	16,564.5	83.148	16,564.5	78.1956	16,564.5	80.4399	16,564.5	73.7904	16,564.5	77.356	16,564.5	69.9859	16,564.5	73.3614	16,564.5	67.1853	16,564.5	69.7367	16,564.5	65.2214	16,564.5	67.8067	16,564.5	61.7555	16,564.5	66.933	16,564.5	60.1979	16,564.5	64.6159	16,564.5	49.2779	16,564.5	62.8607	16,564.5	56.496	16,564.5	56.9373	16,564.5	52.5431	16,564.5	49.8396	16,564.5	48.8981	16,564.5	48.6208	16,564.5	59.2003	16,564.5	58.0756	16,564.5	51.451	16,564.5	56.8778	16,564.5	56.4884	16,564.5	53.6371	16,564.5	57.1945	16,564.5	62.3593	16,564.5	58.2675
17,148.2	84.9984	17,148.2	83.9947	17,148.2	85.505	17,148.2	81.5064	17,148.2	84.2332	17,148.2	77.8408	17,148.2	81.0176	17,148.2	72.2029	17,148.2	77.2452	17,148.2	68.4745	17,148.2	72.3076	17,148.2	65.8304	17,148.2	67.8975	17,148.2	61.9198	17,148.2	65.9644	17,148.2	59.375	17,148.2	65.4721	17,148.2	58.956	17,148.2	62.8191	17,148.2	47.6388	17,148.2	61.8098	17,148.2	54.9452	17,148.2	58.2718	17,148.2	54.3759	17,148.2	46.5923	17,148.2	49.1174	17,148.2	47.5646	17,148.2	58.7885	17,148.2	58.7924	17,148.2	52.8128	17,148.2	59.469	17,148.2	57.4344	17,148.2	54.4107	17,148.2	55.6912	17,148.2	64.0369	17,148.2	59.1847
17,753.2	86.1607	17,753.2	84.8479	17,753.2	86.7359	17,753.2	82.242	17,753.2	85.028	17,753.2	77.4246	17,753.2	81.4103	17,753.2	70.5336	17,753.2	76.841	17,753.2	66.8141	17,753.2	71.3289	17,753.2	61.714	17,753.2	65.384	17,753.2	57.2208	17,753.2	64.2754	17,753.2	54.3143	17,753.2	63.3442	17,753.2	56.4365	17,753.2	61.2179	17,753.2	31.4611	17,753.2	59.7201	17,753.2	53.2049	17,753.2	59.6097	17,753.2	53.261	17,753.2	45.1743	17,753.2	47.3676	17,753.2	48.728	17,753.2	59.8145	17,753.2	60.3427	17,753.2	52.9076	17,753.2	60.6563	17,753.2	58.9663	17,753.2	55.188	17,753.2	57.8178	17,753.2	64.3537	17,753.2	58.363
18,379.4	86.0347	18,379.4	84.435	18,379.4	86.501	18,379.4	81.7324	18,379.4	84.5452	18,379.4	75.5188	18,379.4	80.311	18,379.4	66.8951	18,379.4	75.0108	18,379.4	61.5495	18,379.4	68.7193	18,379.4	57.9379	18,379.4	60.7907	18,379.4	57.2895	18,379.4	60.2269	18,379.4	52.6837	18,379.4	59.7145	18,379.4	51.8668	18,379.4	57.5876	18,379.4	41.2906	18,379.4	57.7321	18,379.4	54.5028	18,379.4	61.6462	18,379.4	54.9347	18,379.4	40.1453	18,379.4	44.9481	18,379.4	52.3442	18,379.4	58.8552	18,379.4	61.415	18,379.4	52.2709	18,379.4	60.6183	18,379.4	58.9103	18,379.4	56.7481	18,379.4	60.4547	18,379.4	64.4054	18,379.4	59.3369
19,027.6	85.0237	19,027.6	82.8506	19,027.6	85.4899	19,027.6	79.7412	19,027.6	83.063	19,027.6	71.2326	19,027.6	78.3378	19,027.6	57.5988	19,027.6	71.6273	19,027.6	55.9748	19,027.6	64.6457	19,027.6	59.9952	19,027.6	52.2949	19,027.6	61.3993	19,027.6	52.9041	19,027.6	54.6657	19,027.6	55.5648	19,027.6	55.167	19,027.6	55.4273	19,027.6	39.3398	19,027.6	58.0927	19,027.6	54.4776	19,027.6	62.7154	19,027.6	55.121	19,027.6	45.0336	19,027.6	44.7919	19,027.6	52.1006	19,027.6	57.3947	19,027.6	61.8135	19,027.6	51.8965	19,027.6	61.3756	19,027.6	57.1369	19,027.6	55.9404	19,027.6	59.0027	19,027.6	64.8607	19,027.6	58.5984
19,698.5	85.794	19,698.5	83.0113	19,698.5	86.1364	19,698.5	78.8501	19,698.5	83.1537	19,698.5	66.6675	19,698.5	77.5491	19,698.5	54.8193	19,698.5	69.5816	19,698.5	62.7794	19,698.5	61.2932	19,698.5	63.2712	19,698.5	46.2513	19,698.5	62.6127	19,698.5	55.9735	19,698.5	56.519	19,698.5	59.6625	19,698.5	57.2786	19,698.5	56.2001	19,698.5	42.0921	19,698.5	59.8613	19,698.5	55.1044	19,698.5	64.9619	19,698.5	54.3941	19,698.5	45.8819	19,698.5	46.423	19,698.5	53.4469	19,698.5	58.16	19,698.5	62.8238	19,698.5	52.8898	19,698.5	62.982	19,698.5	58.2742	19,698.5	55.7466	19,698.5	59.2289	19,698.5	65.0993	19,698.5	58.7687
19,999.5	86.2014	19,999.5	82.947	19,999.5	86.6031	19,999.5	78.5512	19,999.5	82.9154	19,999.5	64.4735	19,999.5	77.6277	19,999.5	60.3478	19,999.5	68.2257	19,999.5	64.16	19,999.5	59.1255	19,999.5	63.9601	19,999.5	44.8403	19,999.5	62.8442	19,999.5	58.057	19,999.5	56.5833	19,999.5	60.4937	19,999.5	57.5609	19,999.5	56.5899	19,999.5	43.6021	19,999.5	59.8015	19,999.5	54.3441	19,999.5	65.2748	19,999.5	54.8554	19,999.5	45.5936	19,999.5	46.5943	19,999.5	54.5199	19,999.5	58.6446	19,999.5	62.4132	19,999.5	51.2685	19,999.5	62.8521	19,999.5	58.149	19,999.5	57.0799	19,999.5	61.3098	19,999.5	64.6487	19,999.5	58.3685
