"SPL Vertical"																																																																							
"On-Axis"		"10°"		"-10°"		"20°"		"-20°"		"30°"		"-30°"		"40°"		"-40°"		"50°"		"-50°"		"60°"		"-60°"		"70°"		"-70°"		"80°"		"-80°"		"90°"		"-90°"		"100°"		"-100°"		"110°"		"-110°"		"120°"		"-120°"		"130°"		"-130°"		"140°"		"-140°"		"150°"		"-150°"		"160°"		"-160°"		"170°"		"-170°"		"180°"	
"Frequency [Hz]"	"Sound Pessure Level [dB]  / [2.83V 1m] "	"Frequency [Hz]"	"Sound Pessure Level [dB]  / [2.83V 1m] "	"Frequency [Hz]"	"Sound Pessure Level [dB]  / [2.83V 1m] "	"Frequency [Hz]"	"Sound Pessure Level [dB]  / [2.83V 1m] "	"Frequency [Hz]"	"Sound Pessure Level [dB]  / [2.83V 1m] "	"Frequency [Hz]"	"Sound Pessure Level [dB]  / [2.83V 1m] "	"Frequency [Hz]"	"Sound Pessure Level [dB]  / [2.83V 1m] "	"Frequency [Hz]"	"Sound Pessure Level [dB]  / [2.83V 1m] "	"Frequency [Hz]"	"Sound Pessure Level [dB]  / [2.83V 1m] "	"Frequency [Hz]"	"Sound Pessure Level [dB]  / [2.83V 1m] "	"Frequency [Hz]"	"Sound Pessure Level [dB]  / [2.83V 1m] "	"Frequency [Hz]"	"Sound Pessure Level [dB]  / [2.83V 1m] "	"Frequency [Hz]"	"Sound Pessure Level [dB]  / [2.83V 1m] "	"Frequency [Hz]"	"Sound Pessure Level [dB]  / [2.83V 1m] "	"Frequency [Hz]"	"Sound Pessure Level [dB]  / [2.83V 1m] "	"Frequency [Hz]"	"Sound Pessure Level [dB]  / [2.83V 1m] "	"Frequency [Hz]"	"Sound Pessure Level [dB]  / [2.83V 1m] "	"Frequency [Hz]"	"Sound Pessure Level [dB]  / [2.83V 1m] "	"Frequency [Hz]"	"Sound Pessure Level [dB]  / [2.83V 1m] "	"Frequency [Hz]"	"Sound Pessure Level [dB]  / [2.83V 1m] "	"Frequency [Hz]"	"Sound Pessure Level [dB]  / [2.83V 1m] "	"Frequency [Hz]"	"Sound Pessure Level [dB]  / [2.83V 1m] "	"Frequency [Hz]"	"Sound Pessure Level [dB]  / [2.83V 1m] "	"Frequency [Hz]"	"Sound Pessure Level [dB]  / [2.83V 1m] "	"Frequency [Hz]"	"Sound Pessure Level [dB]  / [2.83V 1m] "	"Frequency [Hz]"	"Sound Pessure Level [dB]  / [2.83V 1m] "	"Frequency [Hz]"	"Sound Pessure Level [dB]  / [2.83V 1m] "	"Frequency [Hz]"	"Sound Pessure Level [dB]  / [2.83V 1m] "	"Frequency [Hz]"	"Sound Pessure Level [dB]  / [2.83V 1m] "	"Frequency [Hz]"	"Sound Pessure Level [dB]  / [2.83V 1m] "	"Frequency [Hz]"	"Sound Pessure Level [dB]  / [2.83V 1m] "	"Frequency [Hz]"	"Sound Pessure Level [dB]  / [2.83V 1m] "	"Frequency [Hz]"	"Sound Pessure Level [dB]  / [2.83V 1m] "	"Frequency [Hz]"	"Sound Pessure Level [dB]  / [2.83V 1m] "	"Frequency [Hz]"	"Sound Pessure Level [dB]  / [2.83V 1m] "	"Frequency [Hz]"	"Sound Pessure Level [dB]  / [2.83V 1m] "
20.5078	59.3516	20.5078	59.0854	20.5078	59.6407	20.5078	58.8515	20.5078	59.9397	20.5078	58.6547	20.5078	60.2333	20.5078	58.4946	20.5078	60.5061	20.5078	58.3666	20.5078	60.7429	20.5078	58.2629	20.5078	60.9303	20.5078	58.175	20.5078	61.0568	20.5078	58.0952	20.5078	61.1137	20.5078	58.0183	20.5078	61.095	20.5078	57.9429	20.5078	60.9979	20.5078	57.8718	20.5078	60.8235	20.5078	57.8126	20.5078	60.5768	20.5078	57.7771	20.5078	60.2676	20.5078	57.7798	20.5078	59.9103	20.5078	57.8363	20.5078	59.524	20.5078	57.9597	20.5078	59.1317	20.5078	58.1571	20.5078	58.7581	20.5078	58.4269
21.2402	60.5946	21.2402	60.3311	21.2402	60.8766	21.2402	60.0949	21.2402	61.1656	21.2402	59.8909	21.2402	61.4481	21.2402	59.7198	21.2402	61.71	21.2402	59.5786	21.2402	61.9377	21.2402	59.4621	21.2402	62.1191	21.2402	59.3639	21.2402	62.2435	21.2402	59.2787	21.2402	62.3029	21.2402	59.2032	21.2402	62.2918	21.2402	59.1375	21.2402	62.2078	21.2402	59.085	21.2402	62.0519	21.2402	59.0529	21.2402	61.829	21.2402	59.0511	21.2402	61.5479	21.2402	59.0911	21.2402	61.2215	21.2402	59.1837	21.2402	60.8664	21.2402	59.3366	21.2402	60.5019	21.2402	59.5523	21.2402	60.1487	21.2402	59.8267
21.9727	61.1668	21.9727	60.9028	21.9727	61.4492	21.9727	60.6654	21.9727	61.7385	21.9727	60.4593	21.9727	62.0215	21.9727	60.2852	21.9727	62.2844	21.9727	60.14	21.9727	62.5138	21.9727	60.0185	21.9727	62.6975	21.9727	59.915	21.9727	62.8252	21.9727	59.8244	21.9727	62.8885	21.9727	59.744	21.9727	62.8821	21.9727	59.6746	21.9727	62.8034	21.9727	59.6203	21.9727	62.6531	21.9727	59.5892	21.9727	62.4355	21.9727	59.5918	21.9727	62.159	21.9727	59.6395	21.9727	61.8357	21.9727	59.7429	21.9727	61.4813	21.9727	59.9086	21.9727	61.1144	21.9727	60.1376	21.9727	60.7553	21.9727	60.4239
22.7051	61.9528	22.7051	61.6863	22.7051	62.2347	22.7051	61.4432	22.7051	62.5212	22.7051	61.2283	22.7051	62.7997	22.7051	61.043	22.7051	63.0574	22.7051	60.8851	22.7051	63.2816	22.7051	60.7508	22.7051	63.4606	22.7051	60.6353	22.7051	63.5845	22.7051	60.535	22.7051	63.6455	22.7051	60.4481	22.7051	63.6381	22.7051	60.3759	22.7051	63.5598	22.7051	60.323	22.7051	63.4111	22.7051	60.2973	22.7051	63.1964	22.7051	60.3086	22.7051	62.9233	22.7051	60.3674	22.7051	62.6034	22.7051	60.4829	22.7051	62.2518	22.7051	60.66	22.7051	61.8864	22.7051	60.8985	22.7051	61.5265	22.7051	61.1915
23.4375	62.4967	23.4375	62.2452	23.4375	62.7629	23.4375	62.0155	23.4375	63.0337	23.4375	61.8119	23.4375	63.2973	23.4375	61.6348	23.4375	63.5413	23.4375	61.4821	23.4375	63.7534	23.4375	61.3497	23.4375	63.9221	23.4375	61.233	23.4375	64.0378	23.4375	61.1286	23.4375	64.0925	23.4375	61.035	23.4375	64.0809	23.4375	60.9538	23.4375	64.0004	23.4375	60.8901	23.4375	63.8516	23.4375	60.8521	23.4375	63.6384	23.4375	60.8503	23.4375	63.3686	23.4375	60.8957	23.4375	63.0536	23.4375	60.9979	23.4375	62.7081	23.4375	61.1626	23.4375	62.3499	23.4375	61.3897	23.4375	61.9982	23.4375	61.6725
24.1699	63.0437	24.1699	62.8002	24.1699	63.3011	24.1699	62.5777	24.1699	63.5627	24.1699	62.38	24.1699	63.817	24.1699	62.2076	24.1699	64.052	24.1699	62.0585	24.1699	64.2555	24.1699	61.9286	24.1699	64.4164	24.1699	61.8136	24.1699	64.525	24.1699	61.7101	24.1699	64.5736	24.1699	61.6167	24.1699	64.5571	24.1699	61.5347	24.1699	64.473	24.1699	61.4691	24.1699	64.322	24.1699	61.4276	24.1699	64.1086	24.1699	61.4204	24.1699	63.8405	24.1699	61.4582	24.1699	63.5295	24.1699	61.5505	24.1699	63.1904	24.1699	61.7035	24.1699	62.841	24.1699	61.9176	24.1699	62.5003	24.1699	62.1871
25.6348	64.3182	25.6348	64.0851	25.6348	64.5624	25.6348	63.8696	25.6348	64.8091	25.6348	63.6754	25.6348	65.048	25.6348	63.5033	25.6348	65.2681	25.6348	63.3521	25.6348	65.4582	25.6348	63.2187	25.6348	65.6083	25.6348	63.1003	25.6348	65.7094	25.6348	62.9943	25.6348	65.7543	25.6348	62.9005	25.6348	65.7382	25.6348	62.8209	25.6348	65.6589	25.6348	62.7605	25.6348	65.5172	25.6348	62.7267	25.6348	65.3169	25.6348	62.7285	25.6348	65.0656	25.6348	62.7751	25.6348	64.7737	25.6348	62.8743	25.6348	64.4551	25.6348	63.03	25.6348	64.1256	25.6348	63.2416	25.6348	63.8025	25.6348	63.5029
26.3672	65.0481	26.3672	64.8272	26.3672	65.2785	26.3672	64.6216	26.3672	65.5102	26.3672	64.435	26.3672	65.7337	26.3672	64.2683	26.3672	65.9385	26.3672	64.1206	26.3672	66.1144	26.3672	63.9896	26.3672	66.2516	26.3672	63.8725	26.3672	66.3418	26.3672	63.7677	26.3672	66.3782	26.3672	63.6749	26.3672	66.3563	26.3672	63.5961	26.3672	66.2743	26.3672	63.5358	26.3672	66.1331	26.3672	63.5009	26.3672	65.9369	26.3672	63.4996	26.3672	65.6932	26.3672	63.5403	26.3672	65.4126	26.3672	63.63	26.3672	65.1084	26.3672	63.7728	26.3672	64.796	26.3672	63.9683	26.3672	64.4917	26.3672	64.2112
27.0996	65.6322	27.0996	65.4133	27.0996	65.8591	27.0996	65.2083	27.0996	66.0862	27.0996	65.0208	27.0996	66.3043	27.0996	64.852	27.0996	66.5036	27.0996	64.7014	27.0996	66.6741	27.0996	64.5672	27.0996	66.8068	27.0996	64.4475	27.0996	66.8934	27.0996	64.3409	27.0996	66.9276	27.0996	64.2476	27.0996	66.9052	27.0996	64.1698	27.0996	66.8243	27.0996	64.1123	27.0996	66.6861	27.0996	64.0815	27.0996	66.4947	27.0996	64.0851	27.0996	66.2571	27.0996	64.1309	27.0996	65.9837	27.0996	64.2251	27.0996	65.6871	27.0996	64.3707	27.0996	65.3821	27.0996	64.5668	27.0996	65.0839	27.0996	64.8078
27.832	66.1398	27.832	65.9153	27.832	66.371	27.832	65.7037	27.832	66.6014	27.832	65.5086	27.832	66.822	27.832	65.3319	27.832	67.0231	27.832	65.1735	27.832	67.1951	27.832	65.032	27.832	67.3292	27.832	64.9062	27.832	67.4173	27.832	64.7952	27.832	67.4534	27.832	64.6996	27.832	67.4331	27.832	64.6222	27.832	67.3548	27.832	64.5676	27.832	67.2191	27.832	64.5424	27.832	67.03	27.832	64.5542	27.832	66.7943	27.832	64.61	27.832	66.5217	27.832	64.7154	27.832	66.2243	27.832	64.8725	27.832	65.9165	27.832	65.0795	27.832	65.6134	27.832	65.3299
29.2969	67.2762	29.2969	67.0571	29.2969	67.5007	29.2969	66.8493	29.2969	67.7233	29.2969	66.6569	29.2969	67.9355	29.2969	66.4819	29.2969	68.1284	29.2969	66.3251	29.2969	68.2931	29.2969	66.1861	29.2969	68.4213	29.2969	66.0642	29.2969	68.5057	29.2969	65.9593	29.2969	68.5405	29.2969	65.8723	29.2969	68.5221	29.2969	65.8059	29.2969	68.4489	29.2969	65.7641	29.2969	68.3219	29.2969	65.7523	29.2969	68.1449	29.2969	65.7766	29.2969	67.9245	29.2969	65.8424	29.2969	67.6696	29.2969	65.9535	29.2969	67.3917	29.2969	66.1108	29.2969	67.1037	29.2969	66.3121	29.2969	66.8191	29.2969	66.5513
30.0293	67.6651	30.0293	67.4495	30.0293	67.8855	30.0293	67.2443	30.0293	68.1034	30.0293	67.0533	30.0293	68.3108	30.0293	66.8788	30.0293	68.4989	30.0293	66.7213	30.0293	68.659	30.0293	66.5805	30.0293	68.783	30.0293	66.4561	30.0293	68.8638	30.0293	66.3481	30.0293	68.8957	30.0293	66.2576	30.0293	68.8751	30.0293	66.1875	30.0293	68.8006	30.0293	66.1421	30.0293	68.6731	30.0293	66.1272	30.0293	68.4964	30.0293	66.1487	30.0293	68.2769	30.0293	66.2121	30.0293	68.0237	30.0293	66.3211	30.0293	67.7477	30.0293	66.4767	30.0293	67.4619	30.0293	66.6763	30.0293	67.1794	30.0293	66.9136
31.4941	68.742	31.4941	68.5338	31.4941	68.9536	31.4941	68.3344	31.4941	69.1618	31.4941	68.1477	31.4941	69.3592	31.4941	67.9762	31.4941	69.5378	31.4941	67.8212	31.4941	69.6898	31.4941	67.6833	31.4941	69.8076	31.4941	67.5628	31.4941	69.885	31.4941	67.4604	31.4941	69.9169	31.4941	67.3777	31.4941	69.8999	31.4941	67.3176	31.4941	69.8329	31.4941	67.2841	31.4941	69.7169	31.4941	67.2817	31.4941	69.5553	31.4941	67.3154	31.4941	69.354	31.4941	67.389	31.4941	69.121	31.4941	67.5046	31.4941	68.8662	31.4941	67.6619	31.4941	68.6009	31.4941	67.8576	31.4941	68.3367	31.4941	68.0854
32.2266	69.1627	32.2266	68.9525	32.2266	69.3752	32.2266	68.7499	32.2266	69.5833	32.2266	68.559	32.2266	69.7798	32.2266	68.3826	32.2266	69.9568	32.2266	68.2225	32.2266	70.1068	32.2266	68.0794	32.2266	70.2227	32.2266	67.9543	32.2266	70.2983	32.2266	67.8482	32.2266	70.3288	32.2266	67.7633	32.2266	70.3109	32.2266	67.7025	32.2266	70.2437	32.2266	67.6699	32.2266	70.128	32.2266	67.6702	32.2266	69.9674	32.2266	67.7078	32.2266	69.7674	32.2266	67.7862	32.2266	69.5358	32.2266	67.907	32.2266	69.2822	32.2266	68.0692	32.2266	69.0173	32.2266	68.269	32.2266	68.7527	32.2266	68.4998
33.6914	69.9603	33.6914	69.7563	33.6914	70.1646	33.6914	69.5577	33.6914	70.3631	33.6914	69.3684	33.6914	70.5489	33.6914	69.1911	33.6914	70.7147	33.6914	69.0275	33.6914	70.8534	33.6914	68.8788	33.6914	70.9583	33.6914	68.746	33.6914	71.0235	33.6914	68.6306	33.6914	71.0445	33.6914	68.5351	33.6914	71.0184	33.6914	68.4631	33.6914	70.9441	33.6914	68.4191	33.6914	70.8229	33.6914	68.4081	33.6914	70.658	33.6914	68.4352	33.6914	70.4553	33.6914	68.5041	33.6914	70.2223	33.6914	68.6167	33.6914	69.9685	33.6914	68.772	33.6914	69.7047	33.6914	68.9661	33.6914	69.4423	33.6914	69.1926
34.4238	70.4507	34.4238	70.2477	34.4238	70.6537	34.4238	70.0496	34.4238	70.8505	34.4238	69.8604	34.4238	71.0344	34.4238	69.6831	34.4238	71.1984	34.4238	69.5196	34.4238	71.3356	34.4238	69.3713	34.4238	71.4395	34.4238	69.2397	34.4238	71.5045	34.4238	69.1265	34.4238	71.5262	34.4238	69.0342	34.4238	71.5019	34.4238	68.9665	34.4238	71.4306	34.4238	68.9277	34.4238	71.3135	34.4238	68.9224	34.4238	71.1538	34.4238	68.9552	34.4238	70.957	34.4238	69.0292	34.4238	70.7305	34.4238	69.1455	34.4238	70.4832	34.4238	69.303	34.4238	70.2254	34.4238	69.4973	34.4238	69.968	34.4238	69.7219
35.8887	71.3551	35.8887	71.1577	35.8887	71.5512	35.8887	70.964	35.8887	71.7403	35.8887	70.778	35.8887	71.916	35.8887	70.6026	35.8887	72.0716	35.8887	70.44	35.8887	72.2006	35.8887	70.2919	35.8887	72.2969	35.8887	70.16	35.8887	72.3552	35.8887	70.046	35.8887	72.3715	35.8887	69.9528	35.8887	72.3431	35.8887	69.8836	35.8887	72.2692	35.8887	69.8426	35.8887	72.1511	35.8887	69.8344	35.8887	71.9921	35.8887	69.863	35.8887	71.7976	35.8887	69.9317	35.8887	71.5749	35.8887	70.0415	35.8887	71.3329	35.8887	70.1913	35.8887	71.0816	35.8887	70.3775	35.8887	70.8317	35.8887	70.5937
37.3535	72.1038	37.3535	71.9122	37.3535	72.2937	37.3535	71.7235	37.3535	72.4762	37.3535	71.5418	37.3535	72.6453	37.3535	71.37	37.3535	72.7947	37.3535	71.2106	37.3535	72.9184	37.3535	71.0655	37.3535	73.0104	37.3535	70.9364	37.3535	73.0661	37.3535	70.8257	37.3535	73.0815	37.3535	70.7361	37.3535	73.0543	37.3535	70.6711	37.3535	72.9839	37.3535	70.6346	37.3535	72.8714	37.3535	70.6308	37.3535	72.7202	37.3535	70.6633	37.3535	72.5353	37.3535	70.7345	37.3535	72.3235	37.3535	70.8451	37.3535	72.093	37.3535	70.9934	37.3535	71.8532	37.3535	71.1754	37.3535	71.6139	37.3535	71.3849
38.8184	72.9179	38.8184	72.7364	38.8184	73.0961	38.8184	72.5561	38.8184	73.2661	38.8184	72.3809	38.8184	73.4221	38.8184	72.2138	38.8184	73.5587	38.8184	72.0573	38.8184	73.6703	38.8184	71.9139	38.8184	73.7519	38.8184	71.7857	38.8184	73.799	38.8184	71.6753	38.8184	73.8084	38.8184	71.5859	38.8184	73.7782	38.8184	71.521	38.8184	73.7081	38.8184	71.4846	38.8184	73.5995	38.8184	71.4806	38.8184	73.4553	38.8184	71.5122	38.8184	73.2804	38.8184	71.5812	38.8184	73.0811	38.8184	71.6876	38.8184	72.8649	38.8184	71.8294	38.8184	72.6401	38.8184	72.0022	38.8184	72.4155	38.8184	72.2001
39.5508	73.3645	39.5508	73.1914	39.5508	73.5331	39.5508	73.0181	39.5508	73.6924	39.5508	72.8481	39.5508	73.8372	39.5508	72.6844	39.5508	73.9624	39.5508	72.5296	39.5508	74.0627	39.5508	72.3859	39.5508	74.1333	39.5508	72.2557	39.5508	74.1705	39.5508	72.1415	39.5508	74.1711	39.5508	72.0467	39.5508	74.1336	39.5508	71.9749	39.5508	74.0578	39.5508	71.9303	39.5508	73.9453	39.5508	71.9169	39.5508	73.7994	39.5508	71.9383	39.5508	73.6248	39.5508	71.9964	39.5508	73.4278	39.5508	72.0918	39.5508	73.2157	39.5508	72.2226	39.5508	72.9969	39.5508	72.385	39.5508	72.7798	39.5508	72.5731
41.0156	74.819	41.0156	74.6379	41.0156	74.9956	41.0156	74.4569	41.0156	75.1628	41.0156	74.2802	41.0156	75.3155	41.0156	74.1113	41.0156	75.4485	41.0156	73.9534	41.0156	75.5568	41.0156	73.8096	41.0156	75.6358	41.0156	73.6826	41.0156	75.6818	41.0156	73.5755	41.0156	75.6917	41.0156	73.4912	41.0156	75.6639	41.0156	73.4333	41.0156	75.5981	41.0156	73.4052	41.0156	75.4954	41.0156	73.4098	41.0156	75.3586	41.0156	73.4495	41.0156	75.1921	41.0156	73.5253	41.0156	75.0017	41.0156	73.6366	41.0156	74.7942	41.0156	73.7808	41.0156	74.5774	41.0156	73.9536	41.0156	74.3595	41.0156	74.1489
42.4805	74.9623	42.4805	74.7846	42.4805	75.1355	42.4805	74.607	42.4805	75.2996	42.4805	74.4334	42.4805	75.4495	42.4805	74.2673	42.4805	75.5801	42.4805	74.1118	42.4805	75.6866	42.4805	73.9699	42.4805	75.7644	42.4805	73.8444	42.4805	75.8099	42.4805	73.7384	42.4805	75.8203	42.4805	73.6551	42.4805	75.7937	42.4805	73.5981	42.4805	75.73	42.4805	73.5709	42.4805	75.6303	42.4805	73.5764	42.4805	75.4974	42.4805	73.617	42.4805	75.3353	42.4805	73.6934	42.4805	75.1496	42.4805	73.8049	42.4805	74.9468	42.4805	73.9486	42.4805	74.7345	42.4805	74.1201	42.4805	74.5206	42.4805	74.3131
43.9453	75.6723	43.9453	75.4985	43.9453	75.8403	43.9453	75.3232	43.9453	75.9979	43.9453	75.1503	43.9453	76.1404	43.9453	74.9834	43.9453	76.2632	43.9453	74.8259	43.9453	76.3616	43.9453	74.6808	43.9453	76.4316	43.9453	74.5515	43.9453	76.4699	43.9453	74.4412	43.9453	76.4739	43.9453	74.3535	43.9453	76.4421	43.9453	74.292	43.9453	76.3746	43.9453	74.2603	43.9453	76.2725	43.9453	74.2617	43.9453	76.1387	43.9453	74.2981	43.9453	75.9771	43.9453	74.3704	43.9453	75.7932	43.9453	74.4776	43.9453	75.5934	43.9453	74.617	43.9453	75.3848	43.9453	74.7839	43.9453	75.1751	43.9453	74.9723
45.4102	76.3578	45.4102	76.188	45.4102	76.5206	45.4102	76.0156	45.4102	76.6722	45.4102	75.8445	45.4102	76.808	45.4102	75.6783	45.4102	76.9236	45.4102	75.5208	45.4102	77.0148	45.4102	75.3751	45.4102	77.0779	45.4102	75.2448	45.4102	77.1099	45.4102	75.1335	45.4102	77.1087	45.4102	75.0448	45.4102	77.073	45.4102	74.9823	45.4102	77.003	45.4102	74.9498	45.4102	76.9004	45.4102	74.9499	45.4102	76.7677	45.4102	74.9846	45.4102	76.6092	45.4102	75.0545	45.4102	76.4299	45.4102	75.1583	45.4102	76.236	45.4102	75.293	45.4102	76.0342	45.4102	75.4542	45.4102	75.8317	45.4102	75.636
47.6074	77.5444	47.6074	77.3859	47.6074	77.6948	47.6074	77.2234	47.6074	77.8331	47.6074	77.0608	47.6074	77.9554	47.6074	76.9018	47.6074	78.0577	47.6074	76.7502	47.6074	78.1367	47.6074	76.6097	47.6074	78.1891	47.6074	76.4841	47.6074	78.2127	47.6074	76.3771	47.6074	78.2059	47.6074	76.2925	47.6074	78.168	47.6074	76.234	47.6074	78.0996	47.6074	76.2046	47.6074	78.0023	47.6074	76.2068	47.6074	77.8789	47.6074	76.2416	47.6074	77.7331	47.6074	76.309	47.6074	77.5695	47.6074	76.4072	47.6074	77.3933	47.6074	76.5329	47.6074	77.2103	47.6074	76.6818	47.6074	77.0266	47.6074	76.8483
49.0723	78.3339	49.0723	78.1866	49.0723	78.4727	49.0723	78.0345	49.0723	78.5995	49.0723	77.8814	49.0723	78.7104	49.0723	77.7309	49.0723	78.8023	49.0723	77.5867	49.0723	78.8719	49.0723	77.4525	49.0723	78.9167	49.0723	77.332	49.0723	78.9348	49.0723	77.2291	49.0723	78.9248	49.0723	77.1475	49.0723	78.8865	49.0723	77.0908	49.0723	78.8205	49.0723	77.0618	49.0723	78.7286	49.0723	77.063	49.0723	78.6131	49.0723	77.0952	49.0723	78.4777	49.0723	77.1581	49.0723	78.3263	49.0723	77.2499	49.0723	78.1637	49.0723	77.3671	49.0723	77.9948	49.0723	77.5056	49.0723	77.8251	49.0723	77.6601
50.5371	78.9767	50.5371	78.8305	50.5371	79.1136	50.5371	78.6785	50.5371	79.2374	50.5371	78.5245	50.5371	79.3448	50.5371	78.3723	50.5371	79.4326	50.5371	78.2257	50.5371	79.498	50.5371	78.0888	50.5371	79.5387	50.5371	77.9654	50.5371	79.553	50.5371	77.8597	50.5371	79.54	50.5371	77.7756	50.5371	79.4995	50.5371	77.717	50.5371	79.4323	50.5371	77.6869	50.5371	79.3402	50.5371	77.6875	50.5371	79.2256	50.5371	77.7198	50.5371	79.0918	50.5371	77.7832	50.5371	78.9428	50.5371	77.8755	50.5371	78.7827	50.5371	77.9931	50.5371	78.6163	50.5371	78.1314	50.5371	78.4486	50.5371	78.2852
52.7344	79.8263	52.7344	79.6824	52.7344	79.9596	52.7344	79.5316	52.7344	80.0789	52.7344	79.3778	52.7344	80.1807	52.7344	79.2251	52.7344	80.2623	52.7344	79.0775	52.7344	80.3211	52.7344	78.9394	52.7344	80.3552	52.7344	78.8149	52.7344	80.3633	52.7344	78.7084	52.7344	80.3447	52.7344	78.6238	52.7344	80.3	52.7344	78.565	52.7344	80.23	52.7344	78.5348	52.7344	80.1369	52.7344	78.5352	52.7344	80.0232	52.7344	78.5668	52.7344	79.8921	52.7344	78.6287	52.7344	79.7472	52.7344	78.7184	52.7344	79.5926	52.7344	78.8324	52.7344	79.4324	52.7344	78.966	52.7344	79.2713	52.7344	79.1141
54.1992	80.5145	54.1992	80.3779	54.1992	80.6398	54.1992	80.2337	54.1992	80.7505	54.1992	80.0859	54.1992	80.8436	54.1992	79.9384	54.1992	80.9164	54.1992	79.7956	54.1992	80.9667	54.1992	79.6617	54.1992	80.993	54.1992	79.541	54.1992	80.9944	54.1992	79.4378	54.1992	80.9707	54.1992	79.3561	54.1992	80.9227	54.1992	79.2994	54.1992	80.8518	54.1992	79.2703	54.1992	80.7602	54.1992	79.2703	54.1992	80.6507	54.1992	79.2998	54.1992	80.5263	54.1992	79.3575	54.1992	80.3906	54.1992	79.4409	54.1992	80.2469	54.1992	79.5465	54.1992	80.0989	54.1992	79.6698	54.1992	79.9506	54.1992	79.8061
56.3965	81.3465	56.3965	81.2115	56.3965	81.4699	56.3965	81.0685	56.3965	81.5783	56.3965	80.9216	56.3965	81.6686	56.3965	80.7751	56.3965	81.7386	56.3965	80.6337	56.3965	81.7862	56.3965	80.5019	56.3965	81.8103	56.3965	80.3845	56.3965	81.8102	56.3965	80.2858	56.3965	81.7863	56.3965	80.21	56.3965	81.7396	56.3965	80.1602	56.3965	81.6718	56.3965	80.1387	56.3965	81.5852	56.3965	80.1466	56.3965	81.4825	56.3965	80.1831	56.3965	81.3667	56.3965	80.2465	56.3965	81.2406	56.3965	80.3335	56.3965	81.1072	56.3965	80.4399	56.3965	80.9693	56.3965	80.5612	56.3965	80.83	56.3965	80.6927
58.5938	82.1331	58.5938	81.9984	58.5938	82.2554	58.5938	81.8552	58.5938	82.362	58.5938	81.7076	58.5938	82.45	58.5938	81.5602	58.5938	82.5172	58.5938	81.4178	58.5938	82.562	58.5938	81.2853	58.5938	82.5832	58.5938	81.1678	58.5938	82.5808	58.5938	81.0699	58.5938	82.5553	58.5938	80.9957	58.5938	82.5079	58.5938	80.9486	58.5938	82.4408	58.5938	80.9306	58.5938	82.3563	58.5938	80.9424	58.5938	82.2572	58.5938	80.9831	58.5938	82.1462	58.5938	81.0502	58.5938	82.0258	58.5938	81.14	58.5938	81.8985	58.5938	81.2479	58.5938	81.7665	58.5938	81.369	58.5938	81.6322	58.5938	81.4985
60.0586	82.5305	60.0586	82.3926	60.0586	82.6554	60.0586	82.2457	60.0586	82.7639	60.0586	82.0943	60.0586	82.8531	60.0586	81.9432	60.0586	82.9207	60.0586	81.7974	60.0586	82.9651	60.0586	81.6622	60.0586	82.9854	60.0586	81.5429	60.0586	82.9816	60.0586	81.4442	60.0586	82.9542	60.0586	81.3704	60.0586	82.905	60.0586	81.3247	60.0586	82.836	60.0586	81.3092	60.0586	82.75	60.0586	81.324	60.0586	82.6499	60.0586	81.368	60.0586	82.5385	60.0586	81.4383	60.0586	82.4183	60.0586	81.5309	60.0586	82.2915	60.0586	81.6408	60.0586	82.1602	60.0586	81.7631	60.0586	82.0265	60.0586	81.893
62.2559	83.113	62.2559	82.9696	62.2559	83.242	62.2559	82.8158	62.2559	83.3531	62.2559	82.6563	62.2559	83.4434	62.2559	82.4961	62.2559	83.5109	62.2559	82.3407	62.2559	83.5539	62.2559	82.196	62.2559	83.5719	62.2559	82.0676	62.2559	83.565	62.2559	81.9611	62.2559	83.5342	62.2559	81.8811	62.2559	83.4811	62.2559	81.8314	62.2559	83.4083	62.2559	81.8141	62.2559	83.3185	62.2559	81.8297	62.2559	83.2147	62.2559	81.8767	62.2559	83.0997	62.2559	81.9517	62.2559	82.9759	62.2559	82.0502	62.2559	82.8454	62.2559	82.1668	62.2559	82.7098	62.2559	82.2958	62.2559	82.5712	62.2559	82.432
64.4531	83.6929	64.4531	83.55	64.4531	83.8202	64.4531	83.3958	64.4531	83.9286	64.4531	83.235	64.4531	84.0154	64.4531	83.0727	64.4531	84.0784	64.4531	82.9147	64.4531	84.1164	64.4531	82.767	64.4531	84.129	64.4531	82.6355	64.4531	84.1165	64.4531	82.5258	64.4531	84.0803	64.4531	82.443	64.4531	84.0225	64.4531	82.3908	64.4531	83.9459	64.4531	82.3715	64.4531	83.8534	64.4531	82.3853	64.4531	83.7483	64.4531	82.4308	64.4531	83.6334	64.4531	82.5046	64.4531	83.5109	64.4531	82.6017	64.4531	83.3825	64.4531	82.7167	64.4531	83.2496	64.4531	82.8437	64.4531	83.1139	64.4531	82.9775
66.6504	84.1858	66.6504	84.0392	66.6504	84.316	66.6504	83.8805	66.6504	84.4263	66.6504	83.7147	66.6504	84.5137	66.6504	83.5471	66.6504	84.5762	66.6504	83.384	66.6504	84.6126	66.6504	83.2314	66.6504	84.6225	66.6504	83.0956	66.6504	84.6066	66.6504	82.9824	66.6504	84.5662	66.6504	82.8969	66.6504	84.5038	66.6504	82.843	66.6504	84.4225	66.6504	82.8228	66.6504	84.3257	66.6504	82.8365	66.6504	84.2166	66.6504	82.8825	66.6504	84.0985	66.6504	82.9571	66.6504	83.9734	66.6504	83.0553	66.6504	83.8431	66.6504	83.1715	66.6504	83.7089	66.6504	83.2997	66.6504	83.572	66.6504	83.4346
69.5801	84.7197	69.5801	84.5679	69.5801	84.8549	69.5801	84.404	69.5801	84.9697	69.5801	84.2335	69.5801	85.0613	69.5801	84.0623	69.5801	85.1275	69.5801	83.8969	69.5801	85.1672	69.5801	83.7442	69.5801	85.1802	69.5801	83.6106	69.5801	85.1673	69.5801	83.5025	69.5801	85.1302	69.5801	83.4248	69.5801	85.0717	69.5801	83.3812	69.5801	84.995	69.5801	83.3732	69.5801	84.9035	69.5801	83.4003	69.5801	84.8008	69.5801	83.4597	69.5801	84.6895	69.5801	83.5467	69.5801	84.5714	69.5801	83.6555	69.5801	84.4478	69.5801	83.7796	69.5801	84.319	69.5801	83.9127	69.5801	84.1857	69.5801	84.0494
71.7773	85.1356	71.7773	84.9848	71.7773	85.2687	71.7773	84.8208	71.7773	85.3802	71.7773	84.6493	71.7773	85.4674	71.7773	84.4762	71.7773	85.5283	71.7773	84.3085	71.7773	85.562	71.7773	84.1532	71.7773	85.5685	71.7773	84.0172	71.7773	85.5491	71.7773	83.9071	71.7773	85.5061	71.7773	83.828	71.7773	85.4425	71.7773	83.7837	71.7773	85.362	71.7773	83.7758	71.7773	85.2688	71.7773	83.8035	71.7773	85.1664	71.7773	83.8636	71.7773	85.0576	71.7773	83.9511	71.7773	84.9439	71.7773	84.0597	71.7773	84.8259	71.7773	84.1824	71.7773	84.7033	71.7773	84.3127	71.7773	84.5762	71.7773	84.4453
73.9746	85.5506	73.9746	85.3998	73.9746	85.6831	73.9746	85.2353	73.9746	85.7934	73.9746	85.0629	73.9746	85.8787	73.9746	84.8888	73.9746	85.9369	73.9746	84.7202	73.9746	85.9674	73.9746	84.5642	73.9746	85.9702	73.9746	84.428	73.9746	85.947	73.9746	84.3181	73.9746	85.9	73.9746	84.2399	73.9746	85.8329	73.9746	84.1969	73.9746	85.7498	73.9746	84.1905	73.9746	85.6549	73.9746	84.2197	73.9746	85.5524	73.9746	84.2809	73.9746	85.4449	73.9746	84.3688	73.9746	85.334	73.9746	84.4768	73.9746	85.2199	73.9746	84.5977	73.9746	85.1022	73.9746	84.7252	73.9746	84.98	73.9746	84.8538
76.9043	86.0192	76.9043	85.8669	76.9043	86.1523	76.9043	85.7003	76.9043	86.2622	76.9043	85.5253	76.9043	86.346	76.9043	85.3486	76.9043	86.402	76.9043	85.1776	76.9043	86.4293	76.9043	85.0199	76.9043	86.4286	76.9043	84.883	76.9043	86.4014	76.9043	84.7737	76.9043	86.3507	76.9043	84.6973	76.9043	86.2805	76.9043	84.6574	76.9043	86.1953	76.9043	84.655	76.9043	86.0999	76.9043	84.6885	76.9043	85.9985	76.9043	84.754	76.9043	85.894	76.9043	84.8455	76.9043	85.7876	76.9043	84.9556	76.9043	85.679	76.9043	85.0772	76.9043	85.5672	76.9043	85.2033	76.9043	85.4506	76.9043	85.3289
79.834	86.4781	79.834	86.3202	79.834	86.6154	79.834	86.147	79.834	86.7281	79.834	85.9648	79.834	86.8132	79.834	85.7806	79.834	86.8687	79.834	85.6023	79.834	86.8942	79.834	85.438	79.834	86.89	79.834	85.2957	79.834	86.8582	79.834	85.1826	79.834	86.8021	79.834	85.1044	79.834	86.726	79.834	85.0647	79.834	86.6352	79.834	85.0644	79.834	86.535	79.834	85.1015	79.834	86.43	79.834	85.1714	79.834	86.3234	79.834	85.2675	79.834	86.2165	79.834	85.382	79.834	86.1087	79.834	85.507	79.834	85.9981	79.834	85.6352	79.834	85.8827	79.834	85.7615
82.7637	86.8233	82.7637	86.6612	82.7637	86.964	82.7637	86.483	82.7637	87.0789	82.7637	86.295	82.7637	87.1651	82.7637	86.1048	82.7637	87.2206	82.7637	85.9205	82.7637	87.2449	82.7637	85.7505	82.7637	87.2386	82.7637	85.6033	82.7637	87.2038	82.7637	85.4865	82.7637	87.144	82.7637	85.4058	82.7637	87.0637	82.7637	85.3651	82.7637	86.9686	82.7637	85.3652	82.7637	86.8644	82.7637	85.404	82.7637	86.7559	82.7637	85.4764	82.7637	86.6466	82.7637	85.5754	82.7637	86.5377	82.7637	85.6929	82.7637	86.4287	82.7637	85.8205	82.7637	86.3172	82.7637	85.9509	82.7637	86.201	82.7637	86.0787
85.6934	87.0759	85.6934	86.9101	85.6934	87.2199	85.6934	86.7281	85.6934	87.3377	85.6934	86.5367	85.6934	87.4261	85.6934	86.3439	85.6934	87.4834	85.6934	86.1584	85.6934	87.5089	85.6934	85.9891	85.6934	87.5037	85.6934	85.8449	85.6934	87.4702	85.6934	85.7336	85.6934	87.4122	85.6934	85.661	85.6934	87.3347	85.6934	85.6306	85.6934	87.2438	85.6934	85.6425	85.6934	87.1453	85.6934	85.6937	85.6934	87.0441	85.6934	85.7784	85.6934	86.9434	85.6934	85.8885	85.6934	86.8437	85.6934	86.0149	85.6934	86.7435	85.6934	86.1488	85.6934	86.6398	85.6934	86.2823	85.6934	86.5294	85.6934	86.4102
88.623	87.3792	88.623	87.2102	88.623	87.525	88.623	87.0238	88.623	87.6431	88.623	86.8272	88.623	87.7304	88.623	86.6285	88.623	87.7852	88.623	86.437	88.623	87.8072	88.623	86.2623	88.623	87.7975	88.623	86.1138	88.623	87.759	88.623	85.9998	88.623	87.6959	88.623	85.9266	88.623	87.6138	88.623	85.8978	88.623	87.5193	88.623	85.9132	88.623	87.4188	88.623	85.9695	88.623	87.3175	88.623	86.06	88.623	87.2187	88.623	86.1758	88.623	87.1227	88.623	86.3071	88.623	87.0273	88.623	86.4442	88.623	86.9285	88.623	86.579	88.623	86.8223	88.623	86.7059
91.5527	87.606	91.5527	87.4334	91.5527	87.7539	91.5527	87.242	91.5527	87.8725	91.5527	87.0392	91.5527	87.9587	91.5527	86.8335	91.5527	88.011	91.5527	86.6346	91.5527	88.0291	91.5527	86.4526	91.5527	88.0145	91.5527	86.2977	91.5527	87.9703	91.5527	86.1786	91.5527	87.9011	91.5527	86.1022	91.5527	87.8133	91.5527	86.0722	91.5527	87.7137	91.5527	86.0886	91.5527	87.6095	91.5527	86.1476	91.5527	87.5063	91.5527	86.242	91.5527	87.4073	91.5527	86.3623	91.5527	87.3125	91.5527	86.4977	91.5527	87.2192	91.5527	86.6383	91.5527	87.1228	91.5527	86.7752	91.5527	87.0184	91.5527	86.9028
94.4824	87.8001	94.4824	87.6238	94.4824	87.9495	94.4824	87.4268	94.4824	88.0676	94.4824	87.2167	94.4824	88.1512	94.4824	87.0022	94.4824	88.1989	94.4824	86.7936	94.4824	88.2106	94.4824	86.6014	94.4824	88.1881	94.4824	86.4365	94.4824	88.1348	94.4824	86.3084	94.4824	88.0561	94.4824	86.2246	94.4824	87.9589	94.4824	86.1894	94.4824	87.851	94.4824	86.2031	94.4824	87.7402	94.4824	86.2619	94.4824	87.6327	94.4824	86.358	94.4824	87.5318	94.4824	86.4814	94.4824	87.4372	94.4824	86.6206	94.4824	87.3454	94.4824	86.7645	94.4824	87.2509	94.4824	86.9039	94.4824	87.148	94.4824	87.0326
98.1445	88.0084	98.1445	87.8305	98.1445	88.1587	98.1445	87.6313	98.1445	88.2766	98.1445	87.4186	98.1445	88.3587	98.1445	87.2018	98.1445	88.4035	98.1445	86.9912	98.1445	88.4108	98.1445	86.7976	98.1445	88.3825	98.1445	86.6318	98.1445	88.3222	98.1445	86.5035	98.1445	88.2355	98.1445	86.4197	98.1445	88.1301	98.1445	86.3845	98.1445	88.0143	98.1445	86.3977	98.1445	87.8969	98.1445	86.4553	98.1445	87.7846	98.1445	86.5493	98.1445	87.6813	98.1445	86.6694	98.1445	87.5868	98.1445	86.8045	98.1445	87.4974	98.1445	86.9434	98.1445	87.4071	98.1445	87.0772	98.1445	87.3095	98.1445	87.2
101.807	88.1199	101.807	87.9374	101.807	88.2725	101.807	87.7317	101.807	88.3905	101.807	87.511	101.807	88.4705	101.807	87.2852	101.807	88.511	101.807	87.0654	101.807	88.5121	101.807	86.8633	101.807	88.4761	101.807	86.6907	101.807	88.4072	101.807	86.5582	101.807	88.3118	101.807	86.4736	101.807	88.1984	101.807	86.4411	101.807	88.0768	101.807	86.4604	101.807	87.9563	101.807	86.5264	101.807	87.8448	101.807	86.6301	101.807	87.7459	101.807	86.7597	101.807	87.6589	101.807	86.9026	101.807	87.5787	101.807	87.0468	101.807	87.4976	101.807	87.1826	101.807	87.4079	101.807	87.3036
105.469	88.2991	105.469	88.1138	105.469	88.453	105.469	87.9041	105.469	88.5705	105.469	87.6786	105.469	88.648	105.469	87.4476	105.469	88.6839	105.469	87.2225	105.469	88.6783	105.469	87.0157	105.469	88.6336	105.469	86.8391	105.469	88.5543	105.469	86.7034	105.469	88.4472	105.469	86.6166	105.469	88.3217	105.469	86.5828	105.469	88.1885	105.469	86.6011	105.469	88.0583	105.469	86.6661	105.469	87.9398	105.469	86.7684	105.469	87.8375	105.469	86.8959	105.469	87.7508	105.469	87.0355	105.469	87.6741	105.469	87.175	105.469	87.5988	105.469	87.3049	105.469	87.5161	105.469	87.4191
109.131	88.4939	109.131	88.3033	109.131	88.6516	109.131	88.0869	109.131	88.771	109.131	87.8539	109.131	88.8485	109.131	87.6151	109.131	88.8824	109.131	87.3829	109.131	88.8732	109.131	87.1704	109.131	88.8232	109.131	86.9905	109.131	88.7374	109.131	86.8544	109.131	88.6235	109.131	86.7705	109.131	88.4913	109.131	86.7426	109.131	88.3528	109.131	86.7691	109.131	88.2196	109.131	86.8437	109.131	88.1012	109.131	86.9554	109.131	88.0023	109.131	87.091	109.131	87.9218	109.131	87.2366	109.131	87.8531	109.131	87.3793	109.131	87.7864	109.131	87.5092	109.131	87.7114	109.131	87.6203
112.793	88.7063	112.793	88.5153	112.793	88.8591	112.793	88.2932	112.793	88.9685	112.793	88.0492	112.793	89.0315	112.793	87.7945	112.793	89.0472	112.793	87.5423	112.793	89.0171	112.793	87.3066	112.793	88.9451	112.793	87.1021	112.793	88.8382	112.793	86.9419	112.793	88.7064	112.793	86.8365	112.793	88.5622	112.793	86.7919	112.793	88.4193	112.793	86.8081	112.793	88.2901	112.793	86.8796	112.793	88.1827	112.793	86.9954	112.793	88.0988	112.793	87.1414	112.793	88.0334	112.793	87.3018	112.793	87.9758	112.793	87.4618	112.793	87.9136	112.793	87.6089	112.793	87.8356	112.793	87.7347
116.455	88.8866	116.455	88.6972	116.455	89.0356	116.455	88.4746	116.455	89.1393	116.455	88.2279	116.455	89.1946	116.455	87.9683	116.455	89.2006	116.455	87.7091	116.455	89.1587	116.455	87.4648	116.455	89.0733	116.455	87.2504	116.455	88.9517	116.455	87.0804	116.455	88.8048	116.455	86.9664	116.455	88.6466	116.455	86.9154	116.455	88.4925	116.455	86.9285	116.455	88.3567	116.455	87.0001	116.455	88.2489	116.455	87.119	116.455	88.1709	116.455	87.2696	116.455	88.1163	116.455	87.4346	116.455	88.0725	116.455	87.5975	116.455	88.0243	116.455	87.7444	116.455	87.9584	116.455	87.8659
120.85	89.0084	120.85	88.8167	120.85	89.1597	120.85	88.5921	120.85	89.2654	120.85	88.3437	120.85	89.322	120.85	88.0827	120.85	89.3279	120.85	87.8219	120.85	89.284	120.85	87.5755	120.85	89.1938	120.85	87.3581	120.85	89.0639	120.85	87.1834	120.85	88.9045	120.85	87.0628	120.85	88.7295	120.85	87.0031	120.85	88.5547	120.85	87.0054	120.85	88.396	120.85	87.0646	120.85	88.2653	120.85	87.1698	120.85	88.1673	120.85	87.3059	120.85	88.0977	120.85	87.4563	120.85	88.0453	120.85	87.6048	120.85	87.995	120.85	87.7384	120.85	87.9328	120.85	87.8485
125.244	89.0592	125.244	88.8583	125.244	89.2188	125.244	88.6239	125.244	89.3314	125.244	88.366	125.244	89.3933	125.244	88.0966	125.244	89.4029	125.244	87.8295	125.244	89.3613	125.244	87.5797	125.244	89.272	125.244	87.3625	125.244	89.1419	125.244	87.192	125.244	88.9819	125.244	87.0792	125.244	88.8062	125.244	87.0304	125.244	88.6314	125.244	87.0455	125.244	88.4737	125.244	87.1179	125.244	88.3452	125.244	87.2355	125.244	88.2503	125.244	87.3824	125.244	88.1846	125.244	87.5412	125.244	88.1359	125.244	87.6957	125.244	88.0887	125.244	87.8329	125.244	88.0284	125.244	87.9445
129.639	89.0142	129.639	88.8155	129.639	89.1683	129.639	88.5802	129.639	89.2717	129.639	88.3189	129.639	89.3211	129.639	88.0441	129.639	89.3157	129.639	87.7702	129.639	89.2574	129.639	87.5126	129.639	89.1515	129.639	87.2872	129.639	89.0071	129.639	87.1081	129.639	88.8374	129.639	86.987	129.639	88.6587	129.639	86.9304	129.639	88.4888	129.639	86.9391	129.639	88.3435	129.639	87.0075	129.639	88.2322	129.639	87.124	129.639	88.1556	129.639	87.2732	129.639	88.1051	129.639	87.4375	129.639	88.0659	129.639	87.6	129.639	88.0216	129.639	87.7466	129.639	87.9584	129.639	87.8674
134.033	88.9943	134.033	88.7883	134.033	89.1532	134.033	88.5439	134.033	89.2591	134.033	88.272	134.033	89.3085	134.033	87.9861	134.033	89.3007	134.033	87.7016	134.033	89.2379	134.033	87.4352	134.033	89.126	134.033	87.2041	134.033	88.9746	134.033	87.0236	134.033	88.7977	134.033	86.9058	134.033	88.6129	134.033	86.8575	134.033	88.439	134.033	86.8785	134.033	88.2927	134.033	86.9615	134.033	88.1841	134.033	87.0929	134.033	88.1134	134.033	87.2554	134.033	88.0713	134.033	87.43	134.033	88.0416	134.033	87.5989	134.033	88.0068	134.033	87.7474	134.033	87.9516	134.033	87.8661
138.428	88.9824	138.428	88.7684	138.428	89.1464	138.428	88.5133	138.428	89.2543	138.428	88.2285	138.428	89.3025	138.428	87.9283	138.428	89.2904	138.428	87.6291	138.428	89.2207	138.428	87.349	138.428	89.0994	138.428	87.1063	138.428	88.9371	138.428	86.918	138.428	88.7488	138.428	86.7972	138.428	88.5535	138.428	86.7511	138.428	88.3716	138.428	86.7789	138.428	88.221	138.428	86.8722	138.428	88.1122	138.428	87.0158	138.428	88.0451	138.428	87.1903	138.428	88.0091	138.428	87.3752	138.428	87.9865	138.428	87.5516	138.428	87.9581	138.428	87.7045	138.428	87.9075	138.428	87.8242
143.555	88.9708	143.555	88.7432	143.555	89.1451	143.555	88.4714	143.555	89.2601	143.555	88.1673	143.555	89.3123	143.555	87.8459	143.555	89.3012	143.555	87.5245	143.555	89.2296	143.555	87.2229	143.555	89.1039	143.555	86.9611	143.555	88.935	143.555	86.7582	143.555	88.7385	143.555	86.629	143.555	88.5341	143.555	86.5816	143.555	88.3432	143.555	86.6153	143.555	88.1846	143.555	86.7204	143.555	88.0696	143.555	86.8798	143.555	87.9983	143.555	87.0717	143.555	87.9594	143.555	87.2737	143.555	87.9345	143.555	87.4652	143.555	87.9034	143.555	87.6303	143.555	87.8488	143.555	87.7592
148.682	89.0247	148.682	88.7913	148.682	89.1956	148.682	88.504	148.682	89.299	148.682	88.1748	148.682	89.333	148.682	87.8195	148.682	89.2988	148.682	87.458	148.682	89.2014	148.682	87.1131	148.682	89.0496	148.682	86.8096	148.682	88.8571	148.682	86.5712	148.682	88.6418	148.682	86.4169	148.682	88.4254	148.682	86.3572	148.682	88.2297	148.682	86.3913	148.682	88.0724	148.682	86.5073	148.682	87.9624	148.682	86.6847	148.682	87.8967	148.682	86.8981	148.682	87.8624	148.682	87.1216	148.682	87.8398	148.682	87.3324	148.682	87.8082	148.682	87.5132	148.682	87.7501	148.682	87.6534
153.809	88.9449	153.809	88.7135	153.809	89.1089	153.809	88.4228	153.809	89.2006	153.809	88.0845	153.809	89.2183	153.809	87.7142	153.809	89.1635	153.809	87.3317	153.809	89.0414	153.809	86.9604	153.809	88.8614	153.809	86.6263	153.809	88.6383	153.809	86.3553	153.809	88.3919	153.809	86.1693	153.809	88.1465	153.809	86.0818	153.809	87.9275	153.809	86.0947	153.809	87.7552	153.809	86.1975	153.809	87.6397	153.809	86.3693	153.809	87.577	153.809	86.5835	153.809	87.5508	153.809	86.812	153.809	87.5376	153.809	87.0298	153.809	87.5136	153.809	87.2172	153.809	87.4591	153.809	87.3617
159.668	89.0665	159.668	88.8316	159.668	89.2325	159.668	88.5357	159.668	89.3249	159.668	88.1901	159.668	89.342	159.668	87.8102	159.668	89.2854	159.668	87.4151	159.668	89.1602	159.668	87.0285	159.668	88.9761	159.668	86.6768	159.668	88.7479	159.668	86.3875	159.668	88.496	159.668	86.1847	159.668	88.2451	159.668	86.0851	159.668	88.0213	159.668	86.0931	159.668	87.8457	159.668	86.1991	159.668	87.7287	159.668	86.3816	159.668	87.6662	159.668	86.6115	159.668	87.6414	159.668	86.8577	159.668	87.6298	159.668	87.0923	159.668	87.6064	159.668	87.2934	159.668	87.5502	159.668	87.4475
164.795	89.1863	164.795	88.9604	164.795	89.3425	164.795	88.6727	164.795	89.4241	164.795	88.3342	164.795	89.429	164.795	87.9596	164.795	89.3585	164.795	87.5675	164.795	89.2175	164.795	87.1801	164.795	89.0157	164.795	86.8232	164.795	88.7686	164.795	86.5237	164.795	88.4982	164.795	86.3066	164.795	88.2319	164.795	86.1905	164.795	87.9987	164.795	86.1824	164.795	87.8224	164.795	86.2757	164.795	87.7141	164.795	86.4505	164.795	87.668	164.795	86.6779	164.795	87.6634	164.795	86.9257	164.795	87.6717	164.795	87.1636	164.795	87.6644	164.795	87.3674	164.795	87.6189	164.795	87.5212
170.654	89.1808	170.654	88.9467	170.654	89.3451	170.654	88.6517	170.654	89.4336	170.654	88.3077	170.654	89.4436	170.654	87.9302	170.654	89.3752	170.654	87.5383	170.654	89.2325	170.654	87.1547	170.654	89.0245	170.654	86.8051	170.654	88.7663	170.654	86.5162	170.654	88.48	170.654	86.3126	170.654	88.1947	170.654	86.2119	170.654	87.9429	170.654	86.2205	170.654	87.7531	170.654	86.3304	170.654	87.6411	170.654	86.5202	170.654	87.6034	170.654	86.7593	170.654	87.6185	170.654	87.0137	170.654	87.6543	170.654	87.2516	170.654	87.6774	170.654	87.4477	170.654	87.6603	170.654	87.5857
176.514	89.0258	176.514	88.7946	176.514	89.1847	176.514	88.4998	176.514	89.2657	176.514	88.1537	176.514	89.2663	176.514	87.7717	176.514	89.1879	176.514	87.3729	176.514	89.0356	176.514	86.98	176.514	88.8199	176.514	86.6187	176.514	88.5571	176.514	86.3158	176.514	88.2699	176.514	86.0969	176.514	87.9872	176.514	85.981	176.514	87.7398	176.514	85.9762	176.514	87.5542	176.514	86.0767	176.514	87.4447	176.514	86.2624	176.514	87.4075	176.514	86.5031	176.514	87.4216	176.514	86.7641	176.514	87.4551	176.514	87.012	176.514	87.4745	176.514	87.2195	176.514	87.4514	176.514	87.3682
183.105	88.8677	183.105	88.6165	183.105	89.0406	183.105	88.2967	183.105	89.1297	183.105	87.9216	183.105	89.1329	183.105	87.5085	183.105	89.0523	183.105	87.0787	183.105	88.8946	183.105	86.6568	183.105	88.6715	183.105	86.27	183.105	88.4009	183.105	85.9459	183.105	88.1068	183.105	85.7101	183.105	87.8187	183.105	85.5813	183.105	87.5671	183.105	85.5681	183.105	87.3772	183.105	85.6654	183.105	87.261	183.105	85.8542	183.105	87.213	183.105	86.1049	183.105	87.2115	183.105	86.3824	183.105	87.2249	183.105	86.652	183.105	87.2204	183.105	86.8847	183.105	87.1711	183.105	87.0606
189.697	89	189.697	88.7664	189.697	89.1469	189.697	88.4547	189.697	89.2024	189.697	88.078	189.697	89.1659	189.697	87.6538	189.697	89.0407	189.697	87.2043	189.697	88.8351	189.697	86.7563	189.697	88.5631	189.697	86.3396	189.697	88.2458	189.697	85.9845	189.697	87.9117	189.697	85.7182	189.697	87.5954	189.697	85.5603	189.697	87.3321	189.697	85.5194	189.697	87.1491	189.697	85.591	189.697	87.0562	189.697	85.7578	189.697	87.041	189.697	85.9931	189.697	87.0732	189.697	86.2637	189.697	87.1133	189.697	86.5353	189.697	87.1241	189.697	86.7762	189.697	87.0782	189.697	86.9619
196.289	89.0695	196.289	88.8502	196.289	89.203	196.289	88.5558	196.289	89.244	196.289	88.2009	196.289	89.1895	196.289	87.8041	196.289	89.0414	196.289	87.3881	196.289	88.8073	196.289	86.979	196.289	88.5023	196.289	86.6051	196.289	88.1511	196.289	86.2947	196.289	87.7888	196.289	86.0722	196.289	87.4585	196.289	85.9546	196.289	87.2034	196.289	85.9476	196.289	87.0538	196.289	86.0444	196.289	87.0157	196.289	86.2258	196.289	87.068	196.289	86.4632	196.289	87.1716	196.289	86.7226	196.289	87.2817	196.289	86.9696	196.289	87.3585	196.289	87.1738	196.289	87.3738	196.289	87.3125
202.881	88.8813	202.881	88.6338	202.881	89.0355	202.881	88.3073	202.881	89.0869	202.881	87.9205	202.881	89.0303	202.881	87.4976	202.881	88.8656	202.881	87.0674	202.881	88.5988	202.881	86.6623	202.881	88.2446	202.881	86.3153	202.881	87.8285	202.881	86.0551	202.881	87.3902	202.881	85.9006	202.881	86.9828	202.881	85.8573	202.881	86.6649	202.881	85.9169	202.881	86.4839	202.881	86.0602	202.881	86.4554	202.881	86.2613	202.881	86.5555	202.881	86.4921	202.881	86.7314	202.881	86.7237	202.881	86.9224	202.881	86.9288	202.881	87.0774	202.881	87.0824	202.881	87.1632	202.881	87.1646
210.205	88.7349	210.205	88.4474	210.205	88.9198	210.205	88.0703	210.205	88.993	210.205	87.6217	210.205	88.9496	210.205	87.1256	210.205	88.7884	210.205	86.6126	210.205	88.5132	210.205	86.12	210.205	88.1346	210.205	85.69	210.205	87.6734	210.205	85.3641	210.205	87.1657	210.205	85.1742	210.205	86.6669	210.205	85.1342	210.205	86.2491	210.205	85.2356	210.205	85.9842	210.205	85.4505	210.205	85.9133	210.205	85.7395	210.205	86.0225	210.205	86.0595	210.205	86.2486	210.205	86.3693	210.205	86.5095	210.205	86.6318	210.205	86.733	210.205	86.8163	210.205	86.8711	210.205	86.9
217.529	88.821	217.529	88.5127	217.529	89.0202	217.529	88.1055	217.529	89.1044	217.529	87.6156	217.529	89.0717	217.529	87.0661	217.529	88.9235	217.529	86.4892	217.529	88.6657	217.529	85.9273	217.529	88.309	217.529	85.432	217.529	87.8719	217.529	85.0567	217.529	87.3839	217.529	84.8445	217.529	86.8893	217.529	84.8132	217.529	86.4482	217.529	84.9491	217.529	86.1277	217.529	85.2128	217.529	85.9797	217.529	85.5526	217.529	86.0136	217.529	85.9168	217.529	86.1865	217.529	86.2594	217.529	86.422	217.529	86.5426	217.529	86.6411	217.529	86.7361	217.529	86.7846	217.529	86.8195
225.586	89.1365	225.586	88.8231	225.586	89.324	225.586	88.3921	225.586	89.3811	225.586	87.8569	225.586	89.3068	225.586	87.2389	225.586	89.1026	225.586	86.5706	225.586	88.7738	225.586	85.8998	225.586	88.3311	225.586	85.292	225.586	87.7944	225.586	84.8242	225.586	87.1993	225.586	84.5669	225.586	86.605	225.586	84.5558	225.586	86.0975	225.586	84.774	225.586	85.775	225.586	85.1608	225.586	85.7062	225.586	85.6375	225.586	85.8849	225.586	86.1302	225.586	86.2277	225.586	86.5784	225.586	86.6195	225.586	86.9361	225.586	86.9596	225.586	87.1691	225.586	87.1822	225.586	87.2545
232.91	89.5094	232.91	89.2342	232.91	89.6689	232.91	88.8472	232.91	89.7101	232.91	88.3544	232.91	89.6317	232.91	87.7658	232.91	89.4329	232.91	87.0977	232.91	89.1136	232.91	86.3776	232.91	88.6758	232.91	85.6502	232.91	88.1251	232.91	84.9832	232.91	87.4763	232.91	84.4653	232.91	86.7619	232.91	84.1849	232.91	86.0451	232.91	84.1899	232.91	85.4313	232.91	84.4574	232.91	85.0521	232.91	84.9026	232.91	85.0002	232.91	85.4181	232.91	85.2519	232.91	85.9069	232.91	85.6736	232.91	86.294	232.91	86.105	232.91	86.5272	232.91	86.4269	232.91	86.5746
241.699	89.0706	241.699	88.765	241.699	89.2771	241.699	88.371	241.699	89.3769	241.699	87.9022	241.699	89.3659	241.699	87.3753	241.699	89.2427	241.699	86.81	241.699	89.0092	241.699	86.2309	241.699	88.6697	241.699	85.6691	241.699	88.2312	241.699	85.1655	241.699	87.7038	241.699	84.7696	241.699	87.1035	241.699	84.5323	241.699	86.4589	241.699	84.488	241.699	85.8219	241.699	84.6346	241.699	85.2776	241.699	84.9265	241.699	84.9337	241.699	85.2873	241.699	84.867	241.699	85.6325	241.699	85.058	241.699	85.888	241.699	85.3901	241.699	86	241.699	85.7204	241.699	85.9416
249.756	89.3535	249.756	88.9994	249.756	89.5847	249.756	88.5309	249.756	89.6885	249.756	87.9616	249.756	89.6642	249.756	87.3105	249.756	89.5149	249.756	86.6042	249.756	89.2473	249.756	85.8793	249.756	88.8726	249.756	85.1849	249.756	88.407	249.756	84.583	249.756	87.8732	249.756	84.1416	249.756	87.3012	249.756	83.9174	249.756	86.729	249.756	83.9319	249.756	86.2015	249.756	84.1562	249.756	85.7677	249.756	84.5196	249.756	85.4737	249.756	84.9337	249.756	85.3476	249.756	85.3163	249.756	85.3804	249.756	85.6046	249.756	85.5178	249.756	85.761	249.756	85.6773	249.756	85.7773
258.545	89.2266	258.545	88.9333	258.545	89.4078	258.545	88.5339	258.545	89.4743	258.545	88.0385	258.545	89.4269	258.545	87.4623	258.545	89.2688	258.545	86.827	258.545	89.0063	258.545	86.1637	258.545	88.6485	258.545	85.5153	258.545	88.2087	258.545	84.9373	258.545	87.7063	258.545	84.4935	258.545	87.1697	258.545	84.2418	258.545	86.6395	258.545	84.2119	258.545	86.1675	258.545	84.3882	258.545	85.8093	258.545	84.7119	258.545	85.6071	258.545	85.1022	258.545	85.5692	258.545	85.4793	258.545	85.6606	258.545	85.7799	258.545	85.8145	258.545	85.9642	258.545	85.9549	258.545	86.0182
268.066	88.8258	268.066	88.4711	268.066	89.0535	268.066	87.9951	268.066	89.153	268.066	87.4087	268.066	89.1269	268.066	86.7295	268.066	88.9816	268.066	85.9848	268.066	88.7259	268.066	85.2168	268.066	88.371	268.066	84.4874	268.066	87.9313	268.066	83.8787	268.066	87.4261	268.066	83.4787	268.066	86.8848	268.066	83.3475	268.066	86.3506	268.066	83.4853	268.066	85.8813	268.066	83.8301	268.066	85.5378	268.066	84.2886	268.066	85.3609	268.066	84.7692	268.066	85.3489	268.066	85.1995	268.066	85.4563	268.066	85.5294	268.066	85.6127	268.066	85.7311	268.066	85.746	268.066	85.7981
277.588	89.1522	277.588	88.9192	277.588	89.2407	277.588	88.5424	277.588	89.1889	277.588	88.0264	277.588	89.0056	277.588	87.381	277.588	88.7049	277.588	86.6221	277.588	88.3062	277.588	85.7771	277.588	87.8346	277.588	84.8936	277.588	87.3226	277.588	84.0519	277.588	86.8104	277.588	83.3716	277.588	86.3458	277.588	82.9885	277.588	85.9789	277.588	82.9868	277.588	85.7522	277.588	83.3352	277.588	85.6863	277.588	83.9064	277.588	85.7672	277.588	84.555	277.588	85.9458	277.588	85.1703	277.588	86.1511	277.588	85.6854	277.588	86.3114	277.588	86.0647	277.588	86.3703	277.588	86.2932
287.109	89.0269	287.109	88.7816	287.109	89.1362	287.109	88.4019	287.109	89.1098	287.109	87.8918	287.109	88.95	287.109	87.2575	287.109	88.6604	287.109	86.5097	287.109	88.2449	287.109	85.6682	287.109	87.7088	287.109	84.7722	287.109	87.0622	287.109	83.8964	287.109	86.3294	287.109	83.1643	287.109	85.5673	287.109	82.7337	287.109	84.8881	287.109	82.7232	287.109	84.4578	287.109	83.124	287.109	84.4194	287.109	83.8023	287.109	84.7691	287.109	84.5879	287.109	85.3429	287.109	85.3434	287.109	85.9357	287.109	85.9761	287.109	86.3977	287.109	86.4269	287.109	86.6485	287.109	86.658
297.363	89.5481	297.363	89.2589	297.363	89.6993	297.363	88.8342	297.363	89.7125	297.363	88.2787	297.363	89.5902	297.363	87.5993	297.363	89.3363	297.363	86.8057	297.363	88.955	297.363	85.9131	297.363	88.4496	297.363	84.9488	297.363	87.8211	297.363	83.963	297.363	87.0709	297.363	83.0441	297.363	86.2084	297.363	82.3288	297.363	85.2729	297.363	81.9763	297.363	84.3733	297.363	82.0838	297.363	83.7211	297.363	82.6039	297.363	83.5524	297.363	83.3678	297.363	83.902	297.363	84.1819	297.363	84.5299	297.363	84.8914	297.363	85.1351	297.363	85.3904	297.363	85.5231	297.363	85.6118
307.617	89.4381	307.617	89.2795	307.617	89.48	307.617	89.0046	307.617	89.4074	307.617	88.6139	307.617	89.2252	307.617	88.1065	307.617	88.9418	307.617	87.4804	307.617	88.568	307.617	86.7354	307.617	88.1149	307.617	85.8828	307.617	87.5914	307.617	84.9623	307.617	87.0023	307.617	84.0673	307.617	86.3491	307.617	83.3621	307.617	85.6408	307.617	83.0407	307.617	84.9211	307.617	83.1978	307.617	84.3079	307.617	83.7369	307.617	83.997	307.617	84.4491	307.617	84.135	307.617	85.1414	307.617	84.6442	307.617	85.6832	307.617	85.2691	307.617	85.9942	307.617	85.7734	307.617	86.0285
318.604	89.7517	318.604	89.581	318.604	89.7943	318.604	89.2896	318.604	89.7048	318.604	88.8862	318.604	89.483	318.604	88.3798	318.604	89.132	318.604	87.7775	318.604	88.6576	318.604	87.0853	318.604	88.0677	318.604	86.3125	318.604	87.3735	318.604	85.481	318.604	86.592	318.604	84.6436	318.604	85.752	318.604	83.9042	318.604	84.9019	318.604	83.4201	318.604	84.1186	318.604	83.3375	318.604	83.5172	318.604	83.6705	318.604	83.2426	318.604	84.2651	318.604	83.3964	318.604	84.9016	318.604	83.9225	318.604	85.3991	318.604	84.6071	318.604	85.644	318.604	85.2131	318.604	85.5817
329.59	89.6001	329.59	89.5097	329.59	89.5756	329.59	89.3077	329.59	89.4386	329.59	89.0003	329.59	89.1977	329.59	88.5932	329.59	88.8662	329.59	88.0885	329.59	88.4584	329.59	87.4844	329.59	87.9855	329.59	86.7792	329.59	87.4513	329.59	85.9804	329.59	86.8515	329.59	85.1219	329.59	86.1764	329.59	84.2876	329.59	85.4213	329.59	83.6285	329.59	84.6082	329.59	83.3243	329.59	83.823	329.59	83.4566	329.59	83.2496	329.59	83.915	329.59	83.1095	329.59	84.4742	329.59	83.4563	329.59	84.9287	329.59	84.0775	329.59	85.1462	329.59	84.6792	329.59	85.0629
341.309	88.9126	341.309	88.8022	341.309	88.9008	341.309	88.5782	341.309	88.7664	341.309	88.2553	341.309	88.5171	341.309	87.8512	341.309	88.1661	341.309	87.3825	341.309	87.7305	341.309	86.8625	341.309	87.2287	341.309	86.3045	341.309	86.6797	341.309	85.7295	341.309	86.1035	341.309	85.1788	341.309	85.5226	341.309	84.7253	341.309	84.9651	341.309	84.4697	341.309	84.4715	341.309	84.5006	341.309	84.1074	341.309	84.8265	341.309	83.9719	341.309	85.3453	341.309	84.1607	341.309	85.8921	341.309	84.6687	341.309	86.3104	341.309	85.3415	341.309	86.4895	341.309	85.9644	341.309	86.373
353.76	89.3013	353.76	89.1265	353.76	89.3623	353.76	88.8464	353.76	89.3033	353.76	88.468	353.76	89.1231	353.76	87.9923	353.76	88.8251	353.76	87.4129	353.76	88.416	353.76	86.7197	353.76	87.9034	353.76	85.9096	353.76	87.2945	353.76	85.0064	353.76	86.5971	353.76	84.0919	353.76	85.8228	353.76	83.337	353.76	84.9959	353.76	82.9733	353.76	84.17	353.76	83.1384	353.76	83.4565	353.76	83.7281	353.76	83.0401	353.76	84.4824	353.76	83.1002	353.76	85.1639	353.76	83.6298	353.76	85.6226	353.76	84.3948	353.76	85.7797	353.76	85.1153	353.76	85.6051
366.211	88.9083	366.211	88.7064	366.211	88.9684	366.211	88.3744	366.211	88.8873	366.211	87.9354	366.211	88.6763	366.211	87.4193	366.211	88.3532	366.211	86.8544	366.211	87.9372	366.211	86.2579	366.211	87.4428	366.211	85.6303	366.211	86.8765	366.211	84.9613	366.211	86.238	366.211	84.2495	366.211	85.5288	366.211	83.5354	366.211	84.7684	366.211	82.9374	366.211	84.0116	366.211	82.6458	366.211	83.3572	366.211	82.8021	366.211	82.9367	366.211	83.3388	366.211	82.8732	366.211	84.0102	366.211	83.1982	366.211	84.5646	366.211	83.7795	366.211	84.8401	366.211	84.3757	366.211	84.7697
378.662	89.043	378.662	88.7998	378.662	89.1553	378.662	88.4481	378.662	89.1268	378.662	88.0157	378.662	88.9609	378.662	87.5237	378.662	88.6711	378.662	86.9749	378.662	88.2749	378.662	86.3521	378.662	87.7884	378.662	85.6283	378.662	87.2195	378.662	84.7879	378.662	86.5667	378.662	83.8587	378.662	85.8224	378.662	82.9536	378.662	84.9894	378.662	82.3003	378.662	84.1158	378.662	82.1552	378.662	83.3378	378.662	82.5687	378.662	82.8769	378.662	83.3059	378.662	82.9004	378.662	84.0612	378.662	83.3444	378.662	84.6268	378.662	83.9643	378.662	84.9024	378.662	84.5206	378.662	84.8593
392.578	87.8113	392.578	87.6026	392.578	87.8666	392.578	87.2502	392.578	87.7781	392.578	86.7824	392.578	87.5695	392.578	86.2387	392.578	87.2717	392.578	85.656	392.578	86.9161	392.578	85.0554	392.578	86.5298	392.578	84.4365	392.578	86.129	392.578	83.7828	392.578	85.7122	392.578	83.0788	392.578	85.2533	392.578	82.3397	392.578	84.7065	392.578	81.6545	392.578	84.027	392.578	81.2182	392.578	83.2219	392.578	81.2563	392.578	82.4433	392.578	81.8073	392.578	82.046	392.578	82.6376	392.578	82.3163	392.578	83.4308	392.578	83.0388	392.578	83.9503	392.578	83.7264	392.578	84.062
405.762	87.7742	405.762	87.4902	405.762	87.8681	405.762	87.0364	405.762	87.7672	405.762	86.4486	405.762	87.4819	405.762	85.7733	405.762	87.0379	405.762	85.0578	405.762	86.4758	405.762	84.3392	405.762	85.8492	405.762	83.6387	405.762	85.2173	405.762	82.9661	405.762	84.6281	405.762	82.3361	405.762	84.0956	405.762	81.7927	405.762	83.5866	405.762	81.4353	405.762	83.038	405.762	81.4091	405.762	82.4212	405.762	81.8073	405.762	81.8522	405.762	82.5463	405.762	81.658	405.762	83.3898	405.762	82.1124	405.762	84.087	405.762	83.0099	405.762	84.4561	405.762	83.8758	405.762	84.393
420.41	87.9163	420.41	87.6684	420.41	87.9888	420.41	87.2449	420.41	87.8946	420.41	86.6563	420.41	87.6488	420.41	85.9248	420.41	87.2721	420.41	85.0798	420.41	86.7909	420.41	84.1523	420.41	86.2353	420.41	83.1672	420.41	85.6347	420.41	82.1445	420.41	85.0092	420.41	81.1117	420.41	84.3605	420.41	80.1418	420.41	83.6652	420.41	79.4146	420.41	82.8755	420.41	79.2274	420.41	81.9419	420.41	79.7687	420.41	80.9014	420.41	80.8303	420.41	80.0749	420.41	81.9696	420.41	80.0818	420.41	82.8285	420.41	81.0251	420.41	83.2013	420.41	82.1938	420.41	82.9888
435.059	87.6978	435.059	87.4732	435.059	87.7632	435.059	87.1173	435.059	87.654	435.059	86.6658	435.059	87.3686	435.059	86.1541	435.059	86.9194	435.059	85.6038	435.059	86.3328	435.059	85.0135	435.059	85.648	435.059	84.3627	435.059	84.9192	435.059	83.6276	435.059	84.22	435.059	82.8066	435.059	83.6362	435.059	81.9549	435.059	83.228	435.059	81.2292	435.059	82.9695	435.059	80.8942	435.059	82.7366	435.059	81.1589	435.059	82.3955	435.059	81.9192	435.059	81.963	435.059	82.8119	435.059	81.7336	435.059	83.4891	435.059	82.0597	435.059	83.7377	435.059	82.8076	435.059	83.4808
450.439	87.5187	450.439	87.164	450.439	87.619	450.439	86.6026	450.439	87.4524	450.439	85.9123	450.439	87.0431	450.439	85.1836	450.439	86.4495	450.439	84.4889	450.439	85.7531	450.439	83.8503	450.439	85.0361	450.439	83.2326	450.439	84.3499	450.439	82.5672	450.439	83.6884	450.439	81.7871	450.439	82.9881	450.439	80.8681	450.439	82.1613	450.439	79.9099	450.439	81.1635	450.439	79.2615	450.439	80.092	450.439	79.4075	450.439	79.2886	450.439	80.34	450.439	79.2085	450.439	81.4834	450.439	79.911	450.439	82.3468	450.439	80.969	450.439	82.7222	450.439	81.9421	450.439	82.5705
466.553	87.2504	466.553	86.9235	466.553	87.324	466.553	86.3554	466.553	87.1621	466.553	85.5933	466.553	86.8035	466.553	84.7181	466.553	86.2957	466.553	83.8291	466.553	85.6844	466.553	83.0122	466.553	85.0103	466.553	82.305	466.553	84.313	466.553	81.6888	466.553	83.6306	466.553	81.114	466.553	82.9861	466.553	80.5441	466.553	82.3645	466.553	80.0084	466.553	81.7096	466.553	79.6552	466.553	80.9625	466.553	79.7133	466.553	80.1614	466.553	80.2619	466.553	79.5806	466.553	81.0661	466.553	79.6527	466.553	81.7679	466.553	80.4054	466.553	82.1069	466.553	81.3287	466.553	81.9591
482.666	87.3531	482.666	87.0548	482.666	87.3908	482.666	86.512	482.666	87.1846	482.666	85.7814	482.666	86.7721	482.666	84.956	482.666	86.1989	482.666	84.136	482.666	85.5121	482.666	83.3789	482.666	84.7628	482.666	82.6669	482.666	84.0097	482.666	81.9268	482.666	83.3142	482.666	81.0822	482.666	82.7208	482.666	80.1142	482.666	82.2273	482.666	79.161	482.666	81.7496	482.666	78.6484	482.666	81.1057	482.666	79.0643	482.666	80.0924	482.666	80.2494	482.666	78.8006	482.666	81.5459	482.666	78.2458	482.666	82.4715	482.666	79.4176	482.666	82.7916	482.666	81.17	482.666	82.3759
500.244	87.1583	500.244	86.9085	500.244	87.1559	500.244	86.38	500.244	86.94	500.244	85.5798	500.244	86.5438	500.244	84.5668	500.244	85.9894	500.244	83.4595	500.244	85.2977	500.244	82.4115	500.244	84.5021	500.244	81.5315	500.244	83.6519	500.244	80.8008	500.244	82.8054	500.244	80.09	500.244	82.0264	500.244	79.2668	500.244	81.4021	500.244	78.3164	500.244	81.0261	500.244	77.4757	500.244	80.8657	500.244	77.2816	500.244	80.6723	500.244	78.0509	500.244	80.1852	500.244	79.3133	500.244	79.5091	500.244	80.3798	500.244	79.2907	500.244	80.8557	500.244	79.8827	500.244	80.6258
517.822	86.7152	517.822	86.4632	517.822	86.6951	517.822	85.9597	517.822	86.4022	517.822	85.2432	517.822	85.8646	517.822	84.373	517.822	85.1494	517.822	83.4275	517.822	84.3613	517.822	82.4939	517.822	83.6186	517.822	81.6441	517.822	83.0064	517.822	80.9014	517.822	82.5256	517.822	80.2176	517.822	82.0751	517.822	79.4931	517.822	81.5038	517.822	78.6671	517.822	80.7218	517.822	77.8938	517.822	79.818	517.822	77.695	517.822	79.0718	517.822	78.4722	517.822	78.7337	517.822	79.7547	517.822	78.8669	517.822	80.8093	517.822	79.4642	517.822	81.2669	517.822	80.3373	517.822	81.0599
536.133	86.9016	536.133	86.6146	536.133	86.8328	536.133	85.9787	536.133	86.4253	536.133	85.0413	536.133	85.7093	536.133	83.9122	536.133	84.7233	536.133	82.7659	536.133	83.5172	536.133	81.7785	536.133	82.1834	536.133	81.0137	536.133	80.9322	536.133	80.3824	536.133	80.1192	536.133	79.7239	536.133	79.9801	536.133	78.8925	536.133	80.2918	536.133	77.8288	536.133	80.5873	536.133	76.761	536.133	80.4993	536.133	76.5153	536.133	79.8277	536.133	77.7028	536.133	78.6719	536.133	79.478	536.133	77.9249	536.133	80.8749	536.133	78.7254	536.133	81.5209	536.133	80.2576	536.133	81.3102
554.443	86.5116	554.443	86.2495	554.443	86.4756	554.443	85.6696	554.443	86.1843	554.443	84.7799	554.443	85.6932	554.443	83.6305	554.443	85.0446	554.443	82.3456	554.443	84.239	554.443	81.152	554.443	83.2332	554.443	80.3105	554.443	81.9765	554.443	79.9051	554.443	80.4831	554.443	79.7412	554.443	78.955	554.443	79.5203	554.443	77.8956	554.443	79.0299	554.443	77.7654	554.443	78.2526	554.443	78.2614	554.443	77.5329	554.443	78.6379	554.443	77.5525	554.443	78.4316	554.443	78.4182	554.443	77.7411	554.443	79.3596	554.443	77.4472	554.443	79.7253	554.443	78.2393	554.443	79.2876
574.219	87.2278	574.219	87.0231	574.219	87.1142	574.219	86.4548	574.219	86.7485	574.219	85.5091	574.219	86.1966	574.219	84.211	574.219	85.4986	574.219	82.6436	574.219	84.6551	574.219	80.9893	574.219	83.6359	574.219	79.546	574.219	82.4028	574.219	78.5759	574.219	80.9405	574.219	78.0223	574.219	79.3315	574.219	77.5418	574.219	77.9277	574.219	76.8409	574.219	77.3227	574.219	75.958	574.219	77.4823	574.219	75.5119	574.219	77.5194	574.219	76.2809	574.219	76.7927	574.219	77.8554	574.219	75.7366	574.219	79.2334	574.219	76.2019	574.219	79.8566	574.219	78.0722	574.219	79.4857
594.727	87.0428	594.727	86.8671	594.727	86.9382	594.727	86.389	594.727	86.5691	594.727	85.5925	594.727	85.9488	594.727	84.4811	594.727	85.1115	594.727	83.0873	594.727	84.1351	594.727	81.4849	594.727	83.1358	594.727	79.8135	594.727	82.2141	594.727	78.2937	594.727	81.3612	594.727	77.1395	594.727	80.384	594.727	76.355	594.727	78.9307	594.727	75.7313	594.727	76.714	594.727	75.191	594.727	74.5475	594.727	75.1273	594.727	75.115	594.727	76.0378	594.727	77.0672	594.727	77.5449	594.727	78.2173	594.727	78.8314	594.727	78.6511	594.727	79.4611	594.727	79.0032	594.727	79.4114
615.234	86.9793	615.234	86.8512	615.234	86.7336	615.234	86.3501	615.234	86.1382	615.234	85.5038	615.234	85.2516	615.234	84.3749	615.234	84.1728	615.234	83.0648	615.234	83.0167	615.234	81.703	615.234	81.8605	615.234	80.4136	615.234	80.7388	615.234	79.2631	615.234	79.7317	615.234	78.209	615.234	79.0008	615.234	77.09	615.234	78.6086	615.234	75.6722	615.234	78.3871	615.234	73.7862	615.234	78.1114	615.234	71.937	615.234	77.579	615.234	72.1846	615.234	76.5013	615.234	74.4	615.234	74.744	615.234	76.2371	615.234	73.4871	615.234	76.8919	615.234	74.58	615.234	76.2541
637.207	87.9963	637.207	87.7395	637.207	87.8715	637.207	87.0823	637.207	87.4178	637.207	86.0318	637.207	86.7217	637.207	84.6239	637.207	85.8752	637.207	82.9581	637.207	84.9242	637.207	81.2696	637.207	83.8413	637.207	79.9598	637.207	82.5581	637.207	79.3437	637.207	81.0346	637.207	79.2586	637.207	79.3674	637.207	79.2064	637.207	77.9698	637.207	78.7245	637.207	77.4753	637.207	77.5052	637.207	77.7761	637.207	75.7386	637.207	77.9333	637.207	75.4273	637.207	77.4135	637.207	77.7613	637.207	77.0409	637.207	80.1467	637.207	78.394	637.207	81.437	637.207	80.3826	637.207	81.5102
659.912	87.6014	659.912	87.6861	659.912	87.1373	659.912	87.3443	659.912	86.3807	659.912	86.5714	659.912	85.4371	659.912	85.3932	659.912	84.4082	659.912	83.8584	659.912	83.3923	659.912	82.0687	659.912	82.4844	659.912	80.2876	659.912	81.7309	659.912	79.025	659.912	81.0487	659.912	78.6307	659.912	80.1733	659.912	78.7212	659.912	78.6674	659.912	78.6306	659.912	76.0325	659.912	77.9487	659.912	72.9334	659.912	76.6139	659.912	73.8119	659.912	75.3082	659.912	76.1116	659.912	75.5491	659.912	76.5274	659.912	76.8578	659.912	75.433	659.912	77.4456	659.912	75.205	659.912	76.6545
683.35	87.8258	683.35	88.0527	683.35	87.2476	683.35	87.8697	683.35	86.4165	683.35	87.2458	683.35	85.4713	683.35	86.1679	683.35	84.5505	683.35	84.6424	683.35	83.7087	683.35	82.7226	683.35	82.8971	683.35	80.6029	683.35	82.079	683.35	78.7796	683.35	81.3386	683.35	77.882	683.35	80.7604	683.35	77.8248	683.35	80.1704	683.35	77.8444	683.35	79.237	683.35	77.3899	683.35	77.9829	683.35	76.5507	683.35	77.07	683.35	76.4182	683.35	76.606	683.35	77.7159	683.35	75.6106	683.35	79.1252	683.35	74.6007	683.35	79.5095	683.35	76.1578	683.35	78.4725
706.787	88.4659	706.787	88.6053	706.787	87.9636	706.787	88.3118	706.787	87.2176	706.787	87.5765	706.787	86.3572	706.787	86.4433	706.787	85.4751	706.787	84.9908	706.787	84.6012	706.787	83.3216	706.787	83.7115	706.787	81.5779	706.787	82.7598	706.787	79.9871	706.787	81.7014	706.787	78.8478	706.787	80.4712	706.787	78.2787	706.787	78.9793	706.787	77.9516	706.787	77.3903	706.787	77.3158	706.787	76.6986	706.787	76.066	706.787	77.3899	706.787	75.0081	706.787	77.99	706.787	76.2233	706.787	77.6671	706.787	78.5373	706.787	77.3892	706.787	79.8774	706.787	78.5104	706.787	79.7795
731.689	88.1109	731.689	88.3012	731.689	87.5486	731.689	88.0993	731.689	86.7045	731.689	87.5187	731.689	85.7574	731.689	86.58	731.689	84.8928	731.689	85.2877	731.689	84.1322	731.689	83.6325	731.689	83.3196	731.689	81.6798	731.689	82.3281	731.689	79.8232	731.689	81.2296	731.689	78.8807	731.689	80.2291	731.689	79.0084	731.689	79.273	731.689	79.2375	731.689	77.8206	731.689	78.7389	731.689	75.4464	731.689	77.2326	731.689	73.915	731.689	75.6171	731.689	75.2745	731.689	76.4039	731.689	76.111	731.689	78.3252	731.689	75.5312	731.689	79.017	731.689	75.9912	731.689	77.9989
758.057	87.8275	758.057	88.2153	758.057	87.1226	758.057	88.1434	758.057	86.3437	758.057	87.5924	758.057	85.6882	758.057	86.6328	758.057	85.1526	758.057	85.3769	758.057	84.5842	758.057	83.9135	758.057	83.8346	758.057	82.2692	758.057	82.8436	758.057	80.4986	758.057	81.6768	758.057	78.9565	758.057	80.4913	758.057	78.2833	758.057	79.3291	758.057	78.3352	758.057	77.9866	758.057	78.0637	758.057	76.4606	758.057	76.7537	758.057	75.7467	758.057	75.1025	758.057	76.3269	758.057	75.9275	758.057	76.475	758.057	77.9388	758.057	75.3109	758.057	78.5187	758.057	75.0425	758.057	77.1939
784.424	87.8829	784.424	88.3257	784.424	87.1782	784.424	88.3334	784.424	86.4146	784.424	87.8228	784.424	85.7313	784.424	86.8041	784.424	85.1644	784.424	85.3695	784.424	84.6576	784.424	83.6947	784.424	84.0784	784.424	82.0291	784.424	83.2694	784.424	80.6245	784.424	82.1387	784.424	79.6453	784.424	80.7268	784.424	79.1307	784.424	79.1057	784.424	78.8966	784.424	77.1096	784.424	78.4935	784.424	74.8365	784.424	77.4356	784.424	74.3647	784.424	75.7011	784.424	75.45	784.424	75.0455	784.424	75.2711	784.424	76.7548	784.424	74.5067	784.424	78.1759	784.424	76.0533	784.424	77.9336
812.256	88.0036	812.256	88.3076	812.256	87.4916	812.256	88.2617	812.256	86.8741	812.256	87.7367	812.256	86.2223	812.256	86.6684	812.256	85.6051	812.256	85.0944	812.256	85.0388	812.256	83.2067	812.256	84.429	812.256	81.3915	812.256	83.62	812.256	80.1171	812.256	82.5106	812.256	79.6621	812.256	81.207	812.256	79.9002	812.256	80.0912	812.256	80.2618	812.256	79.181	812.256	80.0344	812.256	77.3764	812.256	78.6999	812.256	73.3223	812.256	76.4497	812.256	72.3505	812.256	75.8857	812.256	75.9226	812.256	77.5855	812.256	76.2569	812.256	78.0863	812.256	74.8991	812.256	76.4146
840.82	87.8521	840.82	88.2966	840.82	87.2036	840.82	88.3366	840.82	86.5989	840.82	87.8771	840.82	86.139	840.82	86.8855	840.82	85.7011	840.82	85.3468	840.82	85.1484	840.82	83.2867	840.82	84.512	840.82	80.9049	840.82	83.9066	840.82	78.7424	840.82	83.2913	840.82	77.4544	840.82	82.3461	840.82	77.1785	840.82	80.5569	840.82	77.54	840.82	77.5104	840.82	77.8693	840.82	74.7076	840.82	77.3973	840.82	75.661	840.82	75.7666	840.82	76.9664	840.82	74.5115	840.82	76.9055	840.82	75.7672	840.82	75.9046	840.82	76.7672	840.82	75.2285	840.82	76.1338
870.85	87.6184	870.85	87.8558	870.85	87.2016	870.85	87.8343	870.85	86.6901	870.85	87.4675	870.85	86.1333	870.85	86.6295	870.85	85.5031	870.85	85.1609	870.85	84.7074	870.85	82.907	870.85	83.6758	870.85	79.7941	870.85	82.5249	870.85	76.3438	870.85	81.7262	870.85	75.2504	870.85	81.7134	870.85	77.1884	870.85	81.9931	870.85	79.0603	870.85	81.5143	870.85	79.7579	870.85	79.2843	870.85	78.969	870.85	74.6075	870.85	76.7642	870.85	73.7047	870.85	75.6859	870.85	76.5583	870.85	77.5139	870.85	75.9856	870.85	78.1612	870.85	73.7826	870.85	76.1412
901.611	88.1879	901.611	88.3524	901.611	87.6483	901.611	88.0178	901.611	86.9416	901.611	87.2386	901.611	86.2759	901.611	86.2261	901.611	85.7419	901.611	85.0897	901.611	85.2309	901.611	83.628	901.611	84.5494	901.611	81.4546	901.611	83.5503	901.611	78.1302	901.611	82.1558	901.611	73.5282	901.611	80.3995	901.611	72.3677	901.611	78.6878	901.611	75.8226	901.611	77.9638	901.611	77.7139	901.611	78.1231	901.611	77.3405	901.611	77.6821	901.611	74.2391	901.611	76.6412	901.611	69.9505	901.611	77.1028	901.611	73.5629	901.611	77.4279	901.611	75.392	901.611	75.5419	901.611	74.439
933.105	88.2262	933.105	88.4781	933.105	87.6908	933.105	88.1996	933.105	87.1178	933.105	87.3055	933.105	86.5535	933.105	85.9024	933.105	85.8647	933.105	84.2114	933.105	84.944	933.105	82.4089	933.105	83.8109	933.105	80.5257	933.105	82.538	933.105	78.4908	933.105	81.1833	933.105	76.18	933.105	79.9024	933.105	73.8463	933.105	78.9136	933.105	73.5866	933.105	77.848	933.105	75.6988	933.105	75.7619	933.105	77.1095	933.105	73.2287	933.105	76.6834	933.105	73.8575	933.105	74.9245	933.105	74.9387	933.105	74.7407	933.105	74.3465	933.105	75.762	933.105	73.9223	933.105	75.2231
966.064	88.1853	966.064	88.4163	966.064	87.7807	966.064	88.1052	966.064	87.4778	966.064	87.1402	966.064	87.1129	966.064	85.6572	966.064	86.4007	966.064	83.8803	966.064	85.3083	966.064	81.9402	966.064	84.049	966.064	79.8232	966.064	82.8913	966.064	77.4472	966.064	81.8861	966.064	74.7755	966.064	80.7477	966.064	72.9468	966.064	79.1481	966.064	74.5544	966.064	77.4255	966.064	76.9693	966.064	76.6018	966.064	77.688	966.064	75.996	966.064	75.9878	966.064	75.1435	966.064	71.9735	966.064	75.9068	966.064	72.1615	966.064	76.3504	966.064	73.9446	966.064	74.5266	966.064	73.2709
999.756	88.2859	999.756	88.4703	999.756	87.9631	999.756	88.2761	999.756	87.5849	999.756	87.5525	999.756	87.0904	999.756	86.3512	999.756	86.3644	999.756	84.7674	999.756	85.2376	999.756	82.7908	999.756	83.6469	999.756	80.4575	999.756	81.8619	999.756	78.0449	999.756	80.4351	999.756	75.4445	999.756	79.5378	999.756	71.4752	999.756	78.5131	999.756	69.786	999.756	76.5781	999.756	75.0589	999.756	73.7713	999.756	77.8539	999.756	71.505	999.756	77.7609	999.756	72.3958	999.756	75.5248	999.756	75.5207	999.756	74.6824	999.756	76.3981	999.756	75.6007	999.756	74.8015	999.756	74.7452
1,034.91	88.0862	1,034.91	88.3661	1,034.91	87.7346	1,034.91	88.2486	1,034.91	87.4879	1,034.91	87.5559	1,034.91	87.1062	1,034.91	86.3307	1,034.91	86.299	1,034.91	84.8115	1,034.91	85.1074	1,034.91	83.2146	1,034.91	83.7831	1,034.91	81.447	1,034.91	82.493	1,034.91	79.1387	1,034.91	81.2469	1,034.91	75.618	1,034.91	80.0677	1,034.91	68.8645	1,034.91	79.0161	1,034.91	66.2683	1,034.91	78.2534	1,034.91	74.1988	1,034.91	78.0501	1,034.91	76.9359	1,034.91	77.1926	1,034.91	76.4673	1,034.91	73.8774	1,034.91	73.3829	1,034.91	73.9844	1,034.91	72.6105	1,034.91	76.3935	1,034.91	74.0705	1,034.91	74.5911	1,034.91	72.7995
1,071.53	87.2562	1,071.53	87.6112	1,071.53	87.306	1,071.53	87.8123	1,071.53	87.559	1,071.53	87.338	1,071.53	87.5042	1,071.53	86.1592	1,071.53	86.9473	1,071.53	84.6311	1,071.53	85.8684	1,071.53	83.0645	1,071.53	84.2746	1,071.53	81.4563	1,071.53	82.1891	1,071.53	80.0107	1,071.53	79.733	1,071.53	78.9544	1,071.53	77.7629	1,071.53	77.3539	1,071.53	77.4404	1,071.53	73.2353	1,071.53	77.1052	1,071.53	64.0857	1,071.53	74.8448	1,071.53	72.3424	1,071.53	72.8405	1,071.53	76.0013	1,071.53	73.9154	1,071.53	75.7846	1,071.53	74.3934	1,071.53	74.7982	1,071.53	75.0756	1,071.53	74.7401	1,071.53	74.2577	1,071.53	73.599
1,109.62	86.9415	1,109.62	87.206	1,109.62	87.0372	1,109.62	87.4554	1,109.62	87.1003	1,109.62	87.1047	1,109.62	86.7661	1,109.62	85.954	1,109.62	86.0723	1,109.62	84.1615	1,109.62	85.114	1,109.62	82.0822	1,109.62	83.9559	1,109.62	79.959	1,109.62	82.6021	1,109.62	78.0025	1,109.62	80.6979	1,109.62	76.7259	1,109.62	77.4719	1,109.62	75.7662	1,109.62	72.3832	1,109.62	73.9462	1,109.62	72.1375	1,109.62	72.8962	1,109.62	75.7544	1,109.62	75.3058	1,109.62	76.3493	1,109.62	76.4609	1,109.62	73.6243	1,109.62	74.4088	1,109.62	72.0976	1,109.62	72.3876	1,109.62	74.5445	1,109.62	73.7601	1,109.62	72.9465	1,109.62	72.1806
1,148.44	86.9136	1,148.44	86.5874	1,148.44	87.304	1,148.44	86.6141	1,148.44	87.3943	1,148.44	86.4295	1,148.44	87.1718	1,148.44	85.4567	1,148.44	86.5029	1,148.44	83.6905	1,148.44	85.2107	1,148.44	81.5064	1,148.44	83.4458	1,148.44	79.314	1,148.44	81.6331	1,148.44	77.5293	1,148.44	79.8736	1,148.44	76.6957	1,148.44	77.4315	1,148.44	76.3215	1,148.44	73.5934	1,148.44	74.8144	1,148.44	73.3533	1,148.44	71.8576	1,148.44	75.5002	1,148.44	72.8161	1,148.44	74.4698	1,148.44	74.7891	1,148.44	73.0652	1,148.44	73.7869	1,148.44	73.4377	1,148.44	72.1681	1,148.44	73.1674	1,148.44	71.5072	1,148.44	72.0303	1,148.44	70.2805
1,189.45	87.1411	1,189.45	86.7024	1,189.45	87.4123	1,189.45	86.1996	1,189.45	87.4904	1,189.45	85.5792	1,189.45	87.2329	1,189.45	84.5937	1,189.45	86.3188	1,189.45	83.1302	1,189.45	84.6937	1,189.45	81.3445	1,189.45	82.8302	1,189.45	79.3883	1,189.45	81.3389	1,189.45	77.3554	1,189.45	80.1091	1,189.45	76.5533	1,189.45	78.0285	1,189.45	77.4546	1,189.45	73.0985	1,189.45	77.5126	1,189.45	64.4178	1,189.45	76.0068	1,189.45	73.3284	1,189.45	74.8288	1,189.45	75.9888	1,189.45	74.3722	1,189.45	74.3582	1,189.45	72.177	1,189.45	72.8534	1,189.45	70.5532	1,189.45	74.5856	1,189.45	71.4703	1,189.45	71.6703	1,189.45	68.436
1,231.2	87.5839	1,231.2	87.3318	1,231.2	87.8237	1,231.2	87.086	1,231.2	87.8044	1,231.2	86.5002	1,231.2	87.226	1,231.2	85.2987	1,231.2	85.9681	1,231.2	83.6251	1,231.2	84.2891	1,231.2	81.668	1,231.2	82.5479	1,231.2	79.1719	1,231.2	81.1413	1,231.2	76.0442	1,231.2	80.3478	1,231.2	73.7342	1,231.2	79.3582	1,231.2	72.5159	1,231.2	76.6109	1,231.2	70.3923	1,231.2	69.4805	1,231.2	71.9221	1,231.2	69.0092	1,231.2	75.8059	1,231.2	72.5928	1,231.2	76.993	1,231.2	70.9884	1,231.2	75.2847	1,231.2	71.2906	1,231.2	72.8162	1,231.2	73.5713	1,231.2	71.6929	1,231.2	72.2006	1,231.2	69.4646
1,274.41	87.8067	1,274.41	87.2898	1,274.41	88.0911	1,274.41	86.7466	1,274.41	87.9502	1,274.41	86.0639	1,274.41	87.3	1,274.41	84.8621	1,274.41	86.2245	1,274.41	83.133	1,274.41	84.8968	1,274.41	81.378	1,274.41	83.4672	1,274.41	79.5939	1,274.41	81.9727	1,274.41	76.7562	1,274.41	80.0919	1,274.41	73.2637	1,274.41	77.329	1,274.41	72.7541	1,274.41	74.447	1,274.41	71.7194	1,274.41	73.3583	1,274.41	68.6063	1,274.41	69.4728	1,274.41	72.0993	1,274.41	69.7965	1,274.41	75.0601	1,274.41	74.2408	1,274.41	73.7347	1,274.41	70.4859	1,274.41	69.6311	1,274.41	71.4626	1,274.41	68.4045	1,274.41	72.3541	1,274.41	66.861
1,319.82	88.0353	1,319.82	87.5981	1,319.82	88.4391	1,319.82	87.4323	1,319.82	88.2174	1,319.82	86.994	1,319.82	87.546	1,319.82	85.7424	1,319.82	86.8383	1,319.82	83.9297	1,319.82	85.6467	1,319.82	82.4773	1,319.82	83.4792	1,319.82	80.6776	1,319.82	80.7973	1,319.82	76.4296	1,319.82	78.7783	1,319.82	66.1685	1,319.82	77.7492	1,319.82	72.4307	1,319.82	76.6536	1,319.82	75.9535	1,319.82	74.7539	1,319.82	74.8297	1,319.82	74.562	1,319.82	75.1678	1,319.82	77.2313	1,319.82	77.6001	1,319.82	76.8639	1,319.82	76.6139	1,319.82	71.8326	1,319.82	72.8419	1,319.82	72.6064	1,319.82	72.1434	1,319.82	71.7372	1,319.82	69.7915
1,365.97	87.8642	1,365.97	87.4117	1,365.97	88.3319	1,365.97	87.2199	1,365.97	88.3521	1,365.97	86.9529	1,365.97	87.76	1,365.97	86.0115	1,365.97	86.7028	1,365.97	84.0169	1,365.97	85.2868	1,365.97	81.8908	1,365.97	83.5387	1,365.97	81.2607	1,365.97	81.9805	1,365.97	80.3896	1,365.97	80.9127	1,365.97	76.833	1,365.97	79.2868	1,365.97	69.0779	1,365.97	75.2554	1,365.97	68.3297	1,365.97	70.5412	1,365.97	70.0536	1,365.97	72.3782	1,365.97	73.9654	1,365.97	72.7039	1,365.97	77.1698	1,365.97	75.1553	1,365.97	76.1422	1,365.97	74.1927	1,365.97	72.498	1,365.97	72.7709	1,365.97	69.4089	1,365.97	72.7868	1,365.97	66.8202
1,414.31	87.5517	1,414.31	86.9999	1,414.31	87.9615	1,414.31	86.8575	1,414.31	87.9173	1,414.31	86.628	1,414.31	87.7758	1,414.31	85.5855	1,414.31	87.2899	1,414.31	83.3136	1,414.31	85.8734	1,414.31	80.3695	1,414.31	83.6648	1,414.31	79.3848	1,414.31	81.385	1,414.31	79.8165	1,414.31	79.9044	1,414.31	78.5248	1,414.31	79.2182	1,414.31	75.6201	1,414.31	78.0655	1,414.31	73.4784	1,414.31	75.1813	1,414.31	68.4528	1,414.31	68.2061	1,414.31	68.8014	1,414.31	73.7454	1,414.31	74.1755	1,414.31	76.4074	1,414.31	74.2451	1,414.31	72.4425	1,414.31	69.3767	1,414.31	72.8592	1,414.31	66.5664	1,414.31	71.5064	1,414.31	62.4073
1,464.11	87.7401	1,464.11	86.6553	1,464.11	88.2813	1,464.11	85.8663	1,464.11	87.8086	1,464.11	85.3624	1,464.11	86.9255	1,464.11	84.8037	1,464.11	86.3367	1,464.11	83.7544	1,464.11	85.6421	1,464.11	81.8533	1,464.11	84.2058	1,464.11	80.7079	1,464.11	81.7582	1,464.11	80.0896	1,464.11	78.9076	1,464.11	76.2659	1,464.11	77.3139	1,464.11	71.5081	1,464.11	76.1539	1,464.11	74.2783	1,464.11	71.4765	1,464.11	73.2601	1,464.11	70.181	1,464.11	64.9918	1,464.11	75.446	1,464.11	70.9573	1,464.11	74.86	1,464.11	74.4538	1,464.11	73.9394	1,464.11	69.6875	1,464.11	72.0056	1,464.11	62.1498	1,464.11	68.0003	1,464.11	56.2628
1,515.38	87.4099	1,515.38	86.1607	1,515.38	87.9967	1,515.38	85.3452	1,515.38	87.5488	1,515.38	85.1456	1,515.38	86.4508	1,515.38	85.2514	1,515.38	85.3116	1,515.38	84.8462	1,515.38	84.4635	1,515.38	82.7963	1,515.38	83.1937	1,515.38	79.9656	1,515.38	80.7982	1,515.38	78.4189	1,515.38	77.7227	1,515.38	74.8402	1,515.38	75.036	1,515.38	67.0067	1,515.38	72.8259	1,515.38	71.116	1,515.38	69.2654	1,515.38	73.863	1,515.38	70.9275	1,515.38	70.7624	1,515.38	72.3186	1,515.38	72.9249	1,515.38	67.7882	1,515.38	76.4122	1,515.38	70.1675	1,515.38	72.6753	1,515.38	70.6537	1,515.38	52.7813	1,515.38	70.7841	1,515.38	66.8215
1,568.85	86.8152	1,568.85	86.1094	1,568.85	86.8971	1,568.85	84.992	1,568.85	86.7402	1,568.85	84.3256	1,568.85	86.4788	1,568.85	84.4353	1,568.85	85.7192	1,568.85	84.4345	1,568.85	84.4049	1,568.85	82.7755	1,568.85	82.7667	1,568.85	79.195	1,568.85	80.4133	1,568.85	76.8027	1,568.85	78.0014	1,568.85	75.0563	1,568.85	76.7289	1,568.85	69.8999	1,568.85	75.2449	1,568.85	65.9504	1,568.85	70.3822	1,568.85	70.3559	1,568.85	70.7744	1,568.85	68.6573	1,568.85	65.965	1,568.85	70.948	1,568.85	66.3823	1,568.85	74.0752	1,568.85	69.9089	1,568.85	71.143	1,568.85	71.8474	1,568.85	65.2656	1,568.85	73.4314	1,568.85	70.8093
1,624.51	86.4846	1,624.51	85.9047	1,624.51	86.798	1,624.51	85.4408	1,624.51	86.7451	1,624.51	84.8585	1,624.51	86.2502	1,624.51	84.2255	1,624.51	85.088	1,624.51	83.4523	1,624.51	84.2637	1,624.51	81.7866	1,624.51	82.4549	1,624.51	78.7581	1,624.51	78.9066	1,624.51	75.3963	1,624.51	76.6498	1,624.51	75.3022	1,624.51	77.803	1,624.51	75.1451	1,624.51	77.756	1,624.51	72.0818	1,624.51	73.0376	1,624.51	70.2928	1,624.51	72.6149	1,624.51	70.8518	1,624.51	71.493	1,624.51	71.3337	1,624.51	65.4262	1,624.51	71.665	1,624.51	67.4738	1,624.51	71.2079	1,624.51	63.2062	1,624.51	68.848	1,624.51	71.6774	1,624.51	70.6902
1,681.64	86.3711	1,681.64	85.7566	1,681.64	86.8021	1,681.64	85.4207	1,681.64	86.8597	1,681.64	84.9504	1,681.64	86.4711	1,681.64	84.1522	1,681.64	85.5129	1,681.64	82.8483	1,681.64	84.5536	1,681.64	80.8947	1,681.64	82.2663	1,681.64	78.4616	1,681.64	78.3712	1,681.64	75.9394	1,681.64	76.3212	1,681.64	73.7089	1,681.64	76.9655	1,681.64	70.8389	1,681.64	75.6975	1,681.64	65.1151	1,681.64	70.4429	1,681.64	61.9707	1,681.64	73.96	1,681.64	67.5979	1,681.64	73.5128	1,681.64	72.3245	1,681.64	66.7958	1,681.64	73.8608	1,681.64	65.4173	1,681.64	71.6959	1,681.64	61.2135	1,681.64	65.1033	1,681.64	69.6704	1,681.64	68.9836
1,740.97	86.1848	1,740.97	85.4165	1,740.97	86.2476	1,740.97	85.1441	1,740.97	86.4481	1,740.97	84.9662	1,740.97	86.8043	1,740.97	84.0536	1,740.97	86.1981	1,740.97	82.7095	1,740.97	84.8808	1,740.97	80.6122	1,740.97	82.3797	1,740.97	77.9045	1,740.97	78.2335	1,740.97	75.5727	1,740.97	75.4209	1,740.97	72.8128	1,740.97	75.9347	1,740.97	67.7931	1,740.97	74.6713	1,740.97	62.3418	1,740.97	65.3561	1,740.97	62.0613	1,740.97	71.3065	1,740.97	67.692	1,740.97	73.4329	1,740.97	72.1232	1,740.97	66.9028	1,740.97	72.6899	1,740.97	64.4297	1,740.97	71.4172	1,740.97	63.092	1,740.97	67.366	1,740.97	67.192	1,740.97	66.7667
1,802.49	86.8361	1,802.49	85.9777	1,802.49	86.2064	1,802.49	84.9467	1,802.49	86.1261	1,802.49	84.6909	1,802.49	86.3313	1,802.49	83.3855	1,802.49	85.5975	1,802.49	81.9236	1,802.49	84.2901	1,802.49	80.3764	1,802.49	81.5662	1,802.49	77.4283	1,802.49	77.707	1,802.49	74.36	1,802.49	75.3125	1,802.49	72.8537	1,802.49	74.5147	1,802.49	70.2139	1,802.49	72.3799	1,802.49	68.4006	1,802.49	66.8103	1,802.49	69.0365	1,802.49	66.0132	1,802.49	69.0192	1,802.49	71.5297	1,802.49	70.2964	1,802.49	69.0949	1,802.49	71.0328	1,802.49	60.5386	1,802.49	69.5961	1,802.49	66.0125	1,802.49	64.5459	1,802.49	66.8608	1,802.49	64.9608
1,866.21	85.7942	1,866.21	86.0446	1,866.21	85.2758	1,866.21	85.4768	1,866.21	85.5621	1,866.21	85.0356	1,866.21	86.3545	1,866.21	84.3217	1,866.21	85.6875	1,866.21	82.1928	1,866.21	83.5093	1,866.21	78.9733	1,866.21	81.0287	1,866.21	75.766	1,866.21	77.5619	1,866.21	73.1064	1,866.21	73.6889	1,866.21	69.4514	1,866.21	71.584	1,866.21	67.1867	1,866.21	69.852	1,866.21	72.2059	1,866.21	68.1082	1,866.21	74.3367	1,866.21	65.4525	1,866.21	71.8692	1,866.21	62.8413	1,866.21	67.1098	1,866.21	66.4705	1,866.21	69.1129	1,866.21	62.0243	1,866.21	69.3343	1,866.21	66.7426	1,866.21	65.2729	1,866.21	63.2116	1,866.21	66.0329
1,932.13	85.2636	1,932.13	85.4089	1,932.13	85.3184	1,932.13	85.0041	1,932.13	85.1537	1,932.13	84.2045	1,932.13	85.0399	1,932.13	83.5177	1,932.13	84.5366	1,932.13	82.1781	1,932.13	83.322	1,932.13	79.7709	1,932.13	80.6422	1,932.13	75.6879	1,932.13	77.062	1,932.13	70.3783	1,932.13	74.3026	1,932.13	67.529	1,932.13	73.2257	1,932.13	66.608	1,932.13	71.7781	1,932.13	65.5416	1,932.13	65.7886	1,932.13	68.2507	1,932.13	62.7716	1,932.13	72.3447	1,932.13	53.5411	1,932.13	71.4975	1,932.13	69.2424	1,932.13	68.3153	1,932.13	67.5339	1,932.13	67.1187	1,932.13	69.273	1,932.13	61.1233	1,932.13	63.7922	1,932.13	54.4306
2,000.24	85.5914	2,000.24	85.7212	2,000.24	84.6032	2,000.24	85.4708	2,000.24	84.7031	2,000.24	84.351	2,000.24	85.0265	2,000.24	82.6691	2,000.24	84.4462	2,000.24	81.0349	2,000.24	83.0778	2,000.24	78.5021	2,000.24	80.8441	2,000.24	75.3212	2,000.24	77.4566	2,000.24	72.4539	2,000.24	72.8981	2,000.24	69.9549	2,000.24	71.1483	2,000.24	67.7132	2,000.24	72.5912	2,000.24	65.1291	2,000.24	71.0546	2,000.24	64.7597	2,000.24	63.0053	2,000.24	68.047	2,000.24	58.2244	2,000.24	68.8114	2,000.24	62.4848	2,000.24	66.8856	2,000.24	61.716	2,000.24	64.1434	2,000.24	65.2474	2,000.24	57.0716	2,000.24	60.6458	2,000.24	61.5332
2,070.56	86.2736	2,070.56	86.5159	2,070.56	85.3495	2,070.56	85.1525	2,070.56	85.3559	2,070.56	83.8226	2,070.56	85.1002	2,070.56	81.6811	2,070.56	84.2998	2,070.56	79.8132	2,070.56	82.5189	2,070.56	77.497	2,070.56	79.9153	2,070.56	73.194	2,070.56	76.3308	2,070.56	67.9302	2,070.56	71.2004	2,070.56	62.8268	2,070.56	67.3005	2,070.56	63.3133	2,070.56	69.3996	2,070.56	64.4479	2,070.56	68.5802	2,070.56	63.6699	2,070.56	58.2051	2,070.56	67.3372	2,070.56	52.3491	2,070.56	68.2255	2,070.56	61.1281	2,070.56	65.19	2,070.56	58.4932	2,070.56	62.8595	2,070.56	63.771	2,070.56	57.9596	2,070.56	60.3425	2,070.56	60.982
2,143.8	86.2312	2,143.8	87.1222	2,143.8	85.334	2,143.8	85.8049	2,143.8	84.802	2,143.8	83.4364	2,143.8	84.8928	2,143.8	81.0052	2,143.8	83.8261	2,143.8	77.7287	2,143.8	81.5136	2,143.8	75.0356	2,143.8	77.9458	2,143.8	71.8528	2,143.8	73.4476	2,143.8	68.4406	2,143.8	67.3132	2,143.8	65.3859	2,143.8	58.7869	2,143.8	62.7279	2,143.8	63.3213	2,143.8	62.5349	2,143.8	68.9484	2,143.8	63.848	2,143.8	64.3531	2,143.8	66.4126	2,143.8	49.6497	2,143.8	66.3238	2,143.8	54.9265	2,143.8	63.7381	2,143.8	62.1846	2,143.8	60.2417	2,143.8	61.6042	2,143.8	55.6008	2,143.8	62.1255	2,143.8	58.5055
2,219.24	85.8749	2,219.24	86.7834	2,219.24	84.7918	2,219.24	86.3247	2,219.24	84.6482	2,219.24	83.3923	2,219.24	84.7435	2,219.24	79.8975	2,219.24	83.4792	2,219.24	75.9802	2,219.24	80.1698	2,219.24	71.9926	2,219.24	74.2192	2,219.24	69.7069	2,219.24	65.8229	2,219.24	65.5094	2,219.24	56.8628	2,219.24	61.3351	2,219.24	62.5475	2,219.24	62.1575	2,219.24	69.7161	2,219.24	60.0764	2,219.24	72.064	2,219.24	61.9478	2,219.24	67.9806	2,219.24	64.3841	2,219.24	56.0846	2,219.24	62.3398	2,219.24	57.2404	2,219.24	60.3568	2,219.24	57.8225	2,219.24	59.7171	2,219.24	60.4666	2,219.24	56.3363	2,219.24	60.5977	2,219.24	57.8195
2,297.61	87.1122	2,297.61	87.1002	2,297.61	85.9586	2,297.61	86.0229	2,297.61	85.4542	2,297.61	83.1783	2,297.61	85.2983	2,297.61	77.6595	2,297.61	83.6521	2,297.61	72.8181	2,297.61	79.6094	2,297.61	66.8756	2,297.61	71.4343	2,297.61	64.2934	2,297.61	62.629	2,297.61	63.0985	2,297.61	65.0914	2,297.61	57.6398	2,297.61	40.7772	2,297.61	60.4374	2,297.61	71.1992	2,297.61	58.9283	2,297.61	74.5955	2,297.61	54.956	2,297.61	70.5514	2,297.61	61.292	2,297.61	63.1397	2,297.61	61.5239	2,297.61	61.0854	2,297.61	58.8089	2,297.61	52.7522	2,297.61	59.5506	2,297.61	60.2974	2,297.61	57.8452	2,297.61	59.4231	2,297.61	56.1336
2,378.17	88.8152	2,378.17	88.881	2,378.17	87.1637	2,378.17	85.7822	2,378.17	86.0394	2,378.17	81.6384	2,378.17	86.0491	2,378.17	75.5386	2,378.17	84.174	2,378.17	70.1778	2,378.17	79.5539	2,378.17	70.1447	2,378.17	71.6409	2,378.17	67.3189	2,378.17	69.257	2,378.17	66.0416	2,378.17	71.1795	2,378.17	64.038	2,378.17	67.9159	2,378.17	58.3098	2,378.17	71.4204	2,378.17	59.4962	2,378.17	77.247	2,378.17	60.0327	2,378.17	72.3032	2,378.17	61.8718	2,378.17	67.4714	2,378.17	64.352	2,378.17	63.9394	2,378.17	62.5126	2,378.17	50.6117	2,378.17	58.5074	2,378.17	59.6119	2,378.17	57.044	2,378.17	59.5751	2,378.17	57.5763
2,462.4	88.4607	2,462.4	88.9505	2,462.4	86.8097	2,462.4	86.2459	2,462.4	85.5908	2,462.4	80.2331	2,462.4	86.0821	2,462.4	75.7408	2,462.4	84.6238	2,462.4	73.5539	2,462.4	80.0741	2,462.4	72.2347	2,462.4	72.7777	2,462.4	70.0745	2,462.4	73.052	2,462.4	68.5191	2,462.4	74.2125	2,462.4	67.8307	2,462.4	71.3	2,462.4	66.7607	2,462.4	71.0112	2,462.4	63.5753	2,462.4	78.0313	2,462.4	64.7588	2,462.4	73.3293	2,462.4	67.5609	2,462.4	68.6536	2,462.4	65.6586	2,462.4	67.3665	2,462.4	62.9393	2,462.4	54.3495	2,462.4	60.8142	2,462.4	63.5111	2,462.4	59.0774	2,462.4	62.3656	2,462.4	60.8437
2,548.83	87.9227	2,548.83	87.5072	2,548.83	85.8774	2,548.83	85.0576	2,548.83	83.7709	2,548.83	78.8626	2,548.83	85.1101	2,548.83	72.3915	2,548.83	83.9576	2,548.83	74.4432	2,548.83	78.8594	2,548.83	74.7992	2,548.83	73.2747	2,548.83	74.0997	2,548.83	73.5874	2,548.83	72.298	2,548.83	74.5149	2,548.83	69.3506	2,548.83	72.8285	2,548.83	69.1619	2,548.83	73.6135	2,548.83	68.2455	2,548.83	78.7426	2,548.83	66.4105	2,548.83	74.1182	2,548.83	68.8935	2,548.83	67.7159	2,548.83	67.5256	2,548.83	67.9103	2,548.83	64.614	2,548.83	63.4672	2,548.83	55.8256	2,548.83	59.0905	2,548.83	62.7009	2,548.83	63.8061	2,548.83	56.8658
2,638.92	87.5391	2,638.92	86.9642	2,638.92	84.3762	2,638.92	83.1624	2,638.92	80.8985	2,638.92	76.3309	2,638.92	84.3491	2,638.92	68.7537	2,638.92	83.2449	2,638.92	75.4066	2,638.92	78.4599	2,638.92	77.9532	2,638.92	72.9238	2,638.92	78.0792	2,638.92	74.358	2,638.92	76.8313	2,638.92	74.3512	2,638.92	74.153	2,638.92	70.0617	2,638.92	72.6496	2,638.92	73.88	2,638.92	71.1271	2,638.92	79.0841	2,638.92	68.7397	2,638.92	74.2413	2,638.92	69.5057	2,638.92	65.0647	2,638.92	67.8216	2,638.92	65.1656	2,638.92	66.7966	2,638.92	58.1158	2,638.92	49.9068	2,638.92	61.9177	2,638.92	65.8735	2,638.92	62.4348	2,638.92	56.3159
2,731.93	86.7706	2,731.93	86.2346	2,731.93	82.2831	2,731.93	81.3712	2,731.93	78.9303	2,731.93	70.4	2,731.93	83.6158	2,731.93	70.4455	2,731.93	82.4762	2,731.93	78.0524	2,731.93	77.0609	2,731.93	80.1529	2,731.93	70.9442	2,731.93	79.12	2,731.93	74.2095	2,731.93	77.5984	2,731.93	74.2701	2,731.93	75.3163	2,731.93	67.7507	2,731.93	72.1707	2,731.93	71.9242	2,731.93	70.2246	2,731.93	78.9001	2,731.93	67.7009	2,731.93	75.0688	2,731.93	68.0728	2,731.93	59.2392	2,731.93	68.5643	2,731.93	61.905	2,731.93	66.8152	2,731.93	55.1285	2,731.93	55.8674	2,731.93	62.4961	2,731.93	66.9709	2,731.93	61.0609	2,731.93	52.2175
2,828.61	86.3871	2,828.61	85.5615	2,828.61	80.6046	2,828.61	80.0469	2,828.61	77.5999	2,828.61	64.4742	2,828.61	83.4478	2,828.61	72.385	2,828.61	82.4718	2,828.61	79.3712	2,828.61	76.3944	2,828.61	81.0387	2,828.61	72.242	2,828.61	79.63	2,828.61	77.0871	2,828.61	77.2816	2,828.61	76.5066	2,828.61	73.9883	2,828.61	70.3012	2,828.61	70.2198	2,828.61	70.4998	2,828.61	68.5624	2,828.61	78.8568	2,828.61	68.0382	2,828.61	74.9675	2,828.61	67.9487	2,828.61	64.8796	2,828.61	68.0221	2,828.61	59.7061	2,828.61	67.5312	2,828.61	58.8195	2,828.61	59.5125	2,828.61	63.0629	2,828.61	67.9726	2,828.61	52.7623	2,828.61	58.5741
2,928.22	85.8385	2,928.22	85.1245	2,928.22	78.591	2,928.22	78.9174	2,928.22	77.2781	2,928.22	64.9159	2,928.22	83.5836	2,928.22	74.7425	2,928.22	82.8068	2,928.22	81.1717	2,928.22	76.3792	2,928.22	81.7057	2,928.22	73.5551	2,928.22	78.8956	2,928.22	77.7005	2,928.22	76.0546	2,928.22	76.7312	2,928.22	73.7357	2,928.22	70.6361	2,928.22	71.2164	2,928.22	65.5644	2,928.22	69.8158	2,928.22	76.931	2,928.22	67.4636	2,928.22	73.5434	2,928.22	66.6671	2,928.22	65.1095	2,928.22	67.7783	2,928.22	63.6101	2,928.22	65.8419	2,928.22	63.7809	2,928.22	62.1785	2,928.22	63.5483	2,928.22	67.2119	2,928.22	54.6277	2,928.22	63.7824
3,031.49	84.3735	3,031.49	84.0996	3,031.49	74.6593	3,031.49	77.9127	3,031.49	78.9404	3,031.49	67.2613	3,031.49	84.4731	3,031.49	77.1908	3,031.49	83.5368	3,031.49	81.6657	3,031.49	75.8822	3,031.49	80.8963	3,031.49	72.417	3,031.49	77.8315	3,031.49	77.6513	3,031.49	76.1829	3,031.49	75.4871	3,031.49	73.7169	3,031.49	69.5135	3,031.49	70.6688	3,031.49	58.4467	3,031.49	67.8626	3,031.49	75.8927	3,031.49	65.6748	3,031.49	73.8946	3,031.49	64.7858	3,031.49	65.3089	3,031.49	64.6475	3,031.49	63.1703	3,031.49	64.7684	3,031.49	66.7872	3,031.49	58.3728	3,031.49	61.7602	3,031.49	64.998	3,031.49	39.154	3,031.49	63.5345
3,138.43	84.5815	3,138.43	84.8531	3,138.43	73.7202	3,138.43	79.0892	3,138.43	80.1921	3,138.43	71.1135	3,138.43	85.1631	3,138.43	78.8241	3,138.43	83.9421	3,138.43	81.31	3,138.43	73.9064	3,138.43	79.6649	3,138.43	73.8121	3,138.43	77.0498	3,138.43	78.2547	3,138.43	74.0343	3,138.43	75.4987	3,138.43	69.4417	3,138.43	69.5564	3,138.43	68.3464	3,138.43	47.6845	3,138.43	68.4566	3,138.43	75.5854	3,138.43	64.0307	3,138.43	74.1427	3,138.43	63.2434	3,138.43	66.4061	3,138.43	62.41	3,138.43	63.2139	3,138.43	63.975	3,138.43	65.5807	3,138.43	57.1949	3,138.43	63.3501	3,138.43	64.9884	3,138.43	53.5566	3,138.43	63.9723
3,249.02	84.7664	3,249.02	85.2345	3,249.02	73.5729	3,249.02	79.1653	3,249.02	80.5311	3,249.02	72.7709	3,249.02	85.4253	3,249.02	79.963	3,249.02	83.818	3,249.02	81.8676	3,249.02	72.3519	3,249.02	80.0155	3,249.02	75.4714	3,249.02	76.8595	3,249.02	80.0635	3,249.02	75.8367	3,249.02	78.9676	3,249.02	75.0643	3,249.02	74.806	3,249.02	72.851	3,249.02	50.2301	3,249.02	70.7228	3,249.02	74.5874	3,249.02	68.043	3,249.02	71.5915	3,249.02	65.3794	3,249.02	65.7725	3,249.02	63.0222	3,249.02	58.2629	3,249.02	63.1549	3,249.02	64.8934	3,249.02	58.0776	3,249.02	61.1536	3,249.02	64.1937	3,249.02	50.9888	3,249.02	64.1408
3,363.28	84.9323	3,363.28	85.378	3,363.28	74.497	3,363.28	78.6328	3,363.28	80.9096	3,363.28	75.0355	3,363.28	85.5686	3,363.28	81.3549	3,363.28	83.7919	3,363.28	82.2629	3,363.28	73.0984	3,363.28	80.693	3,363.28	76.0386	3,363.28	79.7121	3,363.28	80.5942	3,363.28	78.1564	3,363.28	80.5579	3,363.28	74.963	3,363.28	78.2666	3,363.28	71.8551	3,363.28	69.9884	3,363.28	69.685	3,363.28	73.2265	3,363.28	68.0665	3,363.28	69.607	3,363.28	67.1622	3,363.28	67.1878	3,363.28	65.2688	3,363.28	54.9124	3,363.28	64.5876	3,363.28	63.9747	3,363.28	59.6872	3,363.28	60.5109	3,363.28	62.2859	3,363.28	49.3592	3,363.28	63.4416
3,481.93	85.0464	3,481.93	85.0995	3,481.93	76.0131	3,481.93	76.6501	3,481.93	81.2744	3,481.93	78.3081	3,481.93	85.6075	3,481.93	82.7524	3,481.93	83.5027	3,481.93	82.6831	3,481.93	72.5718	3,481.93	82.2353	3,481.93	77.4741	3,481.93	80.0997	3,481.93	81.5666	3,481.93	76.1571	3,481.93	80.9314	3,481.93	74.6494	3,481.93	78.0022	3,481.93	74.0636	3,481.93	73.4361	3,481.93	71.7242	3,481.93	75.4711	3,481.93	68.3983	3,481.93	69.007	3,481.93	67.4666	3,481.93	65.7595	3,481.93	65.5484	3,481.93	52.3653	3,481.93	65.2266	3,481.93	59.6986	3,481.93	60.1024	3,481.93	58.8254	3,481.93	60.8027	3,481.93	57.9877	3,481.93	64.1156
3,604.98	85.1234	3,604.98	84.7095	3,604.98	77.2823	3,604.98	74.7437	3,604.98	82.2969	3,604.98	80.5035	3,604.98	85.805	3,604.98	83.3457	3,604.98	83.4813	3,604.98	83.7073	3,604.98	74.5665	3,604.98	82.3047	3,604.98	77.832	3,604.98	79.2733	3,604.98	81.1283	3,604.98	77.6905	3,604.98	80.1041	3,604.98	74.9003	3,604.98	76.8533	3,604.98	71.9425	3,604.98	75.3543	3,604.98	69.174	3,604.98	76.0509	3,604.98	66.3104	3,604.98	65.7217	3,604.98	65.906	3,604.98	63.7842	3,604.98	63.3896	3,604.98	55.1039	3,604.98	63.5072	3,604.98	52.4928	3,604.98	59.8277	3,604.98	53.0408	3,604.98	59.3948	3,604.98	56.6344	3,604.98	61.3073
3,732.42	84.2253	3,732.42	83.6928	3,732.42	77.7263	3,732.42	76.2003	3,732.42	82.3741	3,732.42	82.2514	3,732.42	85.4598	3,732.42	84.0308	3,732.42	83.4665	3,732.42	83.253	3,732.42	77.0993	3,732.42	81.1183	3,732.42	77.6311	3,732.42	79.0592	3,732.42	80.0924	3,732.42	76.4569	3,732.42	79.2499	3,732.42	72.8892	3,732.42	72.717	3,732.42	71.8011	3,732.42	73.6211	3,732.42	70.8694	3,732.42	76.3381	3,732.42	67.0029	3,732.42	62.6268	3,732.42	64.3955	3,732.42	60.9314	3,732.42	60.948	3,732.42	53.0854	3,732.42	62.1605	3,732.42	53.34	3,732.42	59.3657	3,732.42	47.8161	3,732.42	56.5505	3,732.42	56.7369	3,732.42	59.4441
3,863.53	84.328	3,863.53	83.1066	3,863.53	78.5563	3,863.53	77.806	3,863.53	82.2574	3,863.53	83.388	3,863.53	85.2897	3,863.53	84.1168	3,863.53	83.5067	3,863.53	83.1193	3,863.53	78.8631	3,863.53	81.2898	3,863.53	77.9483	3,863.53	78.0165	3,863.53	79.0686	3,863.53	76.4282	3,863.53	79.2237	3,863.53	75.0124	3,863.53	75.1201	3,863.53	72.8299	3,863.53	60.9001	3,863.53	69.6694	3,863.53	70.334	3,863.53	66.3561	3,863.53	61.1744	3,863.53	64.5653	3,863.53	59.9033	3,863.53	61.0103	3,863.53	56.2254	3,863.53	64.0671	3,863.53	58.4149	3,863.53	59.2054	3,863.53	49.8746	3,863.53	57.1115	3,863.53	53.5597	3,863.53	60.0365
3,999.76	84.5778	3,999.76	83.6671	3,999.76	80.2147	3,999.76	80.0923	3,999.76	82.7229	3,999.76	83.8625	3,999.76	84.5638	3,999.76	83.952	3,999.76	82.8311	3,999.76	82.8183	3,999.76	79.8738	3,999.76	80.7994	3,999.76	78.4228	3,999.76	79.0207	3,999.76	77.871	3,999.76	76.3815	3,999.76	78.3762	3,999.76	72.0228	3,999.76	73.4764	3,999.76	70.4344	3,999.76	60.0605	3,999.76	70.4648	3,999.76	70.4718	3,999.76	68.157	3,999.76	61.7193	3,999.76	67.6455	3,999.76	64.9934	3,999.76	63.2387	3,999.76	57.7138	3,999.76	64.1722	3,999.76	57.6926	3,999.76	59.7245	3,999.76	48.8954	3,999.76	57.8415	3,999.76	51.5824	3,999.76	62.1712
4,141.11	84.2403	4,141.11	83.6524	4,141.11	79.9812	4,141.11	80.8866	4,141.11	83.0741	4,141.11	84.5523	4,141.11	84.9052	4,141.11	83.8054	4,141.11	82.8167	4,141.11	82.401	4,141.11	79.6935	4,141.11	81.6119	4,141.11	77.4204	4,141.11	78.8075	4,141.11	75.3534	4,141.11	77.4896	4,141.11	74.9378	4,141.11	76.2182	4,141.11	70.0584	4,141.11	72.4743	4,141.11	61.9725	4,141.11	69.9758	4,141.11	74.4821	4,141.11	68.1236	4,141.11	60.6901	4,141.11	65.0524	4,141.11	68.7262	4,141.11	61.7339	4,141.11	58.8531	4,141.11	64.6943	4,141.11	54.9889	4,141.11	59.374	4,141.11	52.7441	4,141.11	59.0101	4,141.11	50.7654	4,141.11	59.6302
4,286.87	84.6983	4,286.87	83.4292	4,286.87	80.7691	4,286.87	81.99	4,286.87	83.2964	4,286.87	85.1866	4,286.87	84.6053	4,286.87	83.4326	4,286.87	82.2072	4,286.87	82.4342	4,286.87	79.9728	4,286.87	80.8277	4,286.87	77.6789	4,286.87	79.2604	4,286.87	73.6737	4,286.87	74.912	4,286.87	75.513	4,286.87	70.5847	4,286.87	75.8335	4,286.87	70.5464	4,286.87	65.7718	4,286.87	69.376	4,286.87	72.1144	4,286.87	68.3942	4,286.87	65.5142	4,286.87	64.7835	4,286.87	69.6829	4,286.87	63.0245	4,286.87	62.0443	4,286.87	62.744	4,286.87	54.4876	4,286.87	59.9328	4,286.87	56.6448	4,286.87	61.0371	4,286.87	59.7013	4,286.87	60.7968
4,438.48	84.3397	4,438.48	83.617	4,438.48	81.3416	4,438.48	83.8199	4,438.48	83.4699	4,438.48	85.1059	4,438.48	84.772	4,438.48	82.7848	4,438.48	81.7872	4,438.48	82.7924	4,438.48	79.0464	4,438.48	80.9154	4,438.48	78.5632	4,438.48	77.2843	4,438.48	74.8911	4,438.48	76.3292	4,438.48	74.2497	4,438.48	74.0503	4,438.48	77.1117	4,438.48	69.9737	4,438.48	70.6184	4,438.48	69.3047	4,438.48	71.4896	4,438.48	66.8814	4,438.48	67.8356	4,438.48	66.0737	4,438.48	67.6356	4,438.48	62.6245	4,438.48	59.543	4,438.48	64.3866	4,438.48	57.3411	4,438.48	61.6787	4,438.48	60.7191	4,438.48	59.116	4,438.48	57.1677	4,438.48	55.523
4,594.48	84.5772	4,594.48	83.5751	4,594.48	82.0708	4,594.48	84.2038	4,594.48	83.5117	4,594.48	84.7539	4,594.48	84.9237	4,594.48	82.8139	4,594.48	82.1421	4,594.48	83.1565	4,594.48	78.6971	4,594.48	80.6264	4,594.48	77.3659	4,594.48	78.7523	4,594.48	74.1742	4,594.48	73.3837	4,594.48	76.6902	4,594.48	72.0866	4,594.48	78.3435	4,594.48	69.8101	4,594.48	68.2961	4,594.48	69.7745	4,594.48	70.2115	4,594.48	68.1775	4,594.48	68.2561	4,594.48	63.7926	4,594.48	67.4186	4,594.48	63.46	4,594.48	56.4451	4,594.48	61.8654	4,594.48	57.4342	4,594.48	62.9325	4,594.48	58.1898	4,594.48	58.482	4,594.48	50.8559	4,594.48	55.903
4,757.08	84.4697	4,757.08	84.3934	4,757.08	82.6387	4,757.08	84.2241	4,757.08	83.2965	4,757.08	83.7187	4,757.08	84.54	4,757.08	82.9848	4,757.08	82.9499	4,757.08	82.8259	4,757.08	79.7761	4,757.08	80.5383	4,757.08	77.007	4,757.08	79.0688	4,757.08	75.4633	4,757.08	77.9239	4,757.08	78.3181	4,757.08	73.5362	4,757.08	77.6719	4,757.08	68.6478	4,757.08	66.8042	4,757.08	69.483	4,757.08	67.1724	4,757.08	67.6294	4,757.08	63.1734	4,757.08	65.5786	4,757.08	63.1335	4,757.08	64.9006	4,757.08	61.3122	4,757.08	63.3814	4,757.08	48.4321	4,757.08	62.1228	4,757.08	54.6778	4,757.08	58.8646	4,757.08	55.3468	4,757.08	57.1631
4,924.8	84.6	4,924.8	84.7831	4,924.8	83.1477	4,924.8	83.9531	4,924.8	84.1654	4,924.8	83.4177	4,924.8	84.7225	4,924.8	82.5985	4,924.8	83.1534	4,924.8	82.0068	4,924.8	80.9131	4,924.8	80.8517	4,924.8	78.7381	4,924.8	79.5055	4,924.8	76.4692	4,924.8	76.4607	4,924.8	77.1595	4,924.8	73.4678	4,924.8	73.9191	4,924.8	68.0142	4,924.8	62.6486	4,924.8	67.8125	4,924.8	70.3674	4,924.8	66.6873	4,924.8	58.502	4,924.8	61.8177	4,924.8	62.1173	4,924.8	63.8011	4,924.8	60.2649	4,924.8	59.1533	4,924.8	51.3016	4,924.8	61.9535	4,924.8	54.3569	4,924.8	56.4073	4,924.8	48.9774	4,924.8	59.1674
5,098.39	84.5539	5,098.39	83.8585	5,098.39	83.3417	5,098.39	83.1667	5,098.39	83.6207	5,098.39	83.3443	5,098.39	84.2796	5,098.39	81.8722	5,098.39	82.9472	5,098.39	81.4594	5,098.39	81.1425	5,098.39	80.9909	5,098.39	79.4928	5,098.39	79.1918	5,098.39	76.6264	5,098.39	76.595	5,098.39	74.5853	5,098.39	71.4021	5,098.39	71.4894	5,098.39	69.7502	5,098.39	63.1628	5,098.39	69.3897	5,098.39	67.8214	5,098.39	66.3432	5,098.39	62.3221	5,098.39	62.5557	5,098.39	59.4865	5,098.39	64.3934	5,098.39	50.8002	5,098.39	59.5085	5,098.39	47.6315	5,098.39	61.332	5,098.39	47.9851	5,098.39	57.5785	5,098.39	47.2806	5,098.39	53.5825
5,277.83	84.3848	5,277.83	83.3737	5,277.83	84.1194	5,277.83	83.6487	5,277.83	83.5038	5,277.83	82.6642	5,277.83	83.8954	5,277.83	80.4973	5,277.83	83.2802	5,277.83	81.2636	5,277.83	81.1876	5,277.83	80.3972	5,277.83	78.6645	5,277.83	78.6701	5,277.83	76.0803	5,277.83	77.3561	5,277.83	73.4959	5,277.83	73.8665	5,277.83	69.0357	5,277.83	68.0667	5,277.83	62.0104	5,277.83	68.1562	5,277.83	65.7547	5,277.83	65.6857	5,277.83	55.4804	5,277.83	61.9336	5,277.83	58.4434	5,277.83	60.6967	5,277.83	57.5767	5,277.83	60.3907	5,277.83	52.9107	5,277.83	60.6259	5,277.83	59.2226	5,277.83	53.1022	5,277.83	50.9616	5,277.83	57.7941
5,463.87	84.3747	5,463.87	82.9409	5,463.87	84.248	5,463.87	83.2769	5,463.87	83.0622	5,463.87	82.0168	5,463.87	83.4592	5,463.87	80.543	5,463.87	82.9861	5,463.87	81.1576	5,463.87	80.6309	5,463.87	80.0304	5,463.87	78.0305	5,463.87	79.1392	5,463.87	75.4855	5,463.87	76.2807	5,463.87	71.3942	5,463.87	72.4727	5,463.87	67.4352	5,463.87	69.0477	5,463.87	62.3667	5,463.87	68.0168	5,463.87	66.17	5,463.87	64.5719	5,463.87	47.9082	5,463.87	59.4947	5,463.87	60.351	5,463.87	59.564	5,463.87	56.1445	5,463.87	60.3667	5,463.87	43.949	5,463.87	60.2371	5,463.87	54.7031	5,463.87	56.6189	5,463.87	41.899	5,463.87	58.8453
5,656.49	83.9945	5,656.49	83.0359	5,656.49	84.3941	5,656.49	83.2284	5,656.49	82.701	5,656.49	81.4382	5,656.49	83.022	5,656.49	81.1099	5,656.49	83.3166	5,656.49	81.2192	5,656.49	81.2096	5,656.49	79.8114	5,656.49	77.6805	5,656.49	77.6668	5,656.49	73.5967	5,656.49	75.7772	5,656.49	71.552	5,656.49	72.9703	5,656.49	69.086	5,656.49	67.9803	5,656.49	53.7716	5,656.49	67.279	5,656.49	64.8042	5,656.49	65.2178	5,656.49	51.0354	5,656.49	60.4646	5,656.49	58.9801	5,656.49	58.8157	5,656.49	60.94	5,656.49	59.3081	5,656.49	55.3539	5,656.49	55.2607	5,656.49	56.0623	5,656.49	54.7808	5,656.49	52.0425	5,656.49	57.4852
5,856.45	84.2008	5,856.45	83.6514	5,856.45	83.8788	5,856.45	83.1113	5,856.45	82.3578	5,856.45	82.1789	5,856.45	82.556	5,856.45	82.1373	5,856.45	82.5811	5,856.45	81.2733	5,856.45	80.8079	5,856.45	79.9177	5,856.45	77.7597	5,856.45	77.7288	5,856.45	73.8049	5,856.45	76.1961	5,856.45	71.6903	5,856.45	73.5324	5,856.45	70.6723	5,856.45	68.5618	5,856.45	62.1863	5,856.45	65.7081	5,856.45	56.2965	5,856.45	66.4919	5,856.45	60.4778	5,856.45	54.3506	5,856.45	62.2654	5,856.45	60.3937	5,856.45	61.5278	5,856.45	57.6873	5,856.45	55.0657	5,856.45	56.1924	5,856.45	56.3432	5,856.45	58.7317	5,856.45	50.2508	5,856.45	60.3458
6,062.99	85.4023	6,062.99	84.6098	6,062.99	84.3631	6,062.99	83.5936	6,062.99	82.5069	6,062.99	83.0239	6,062.99	82.4973	6,062.99	82.1497	6,062.99	81.8927	6,062.99	81.6408	6,062.99	80.6982	6,062.99	80.9664	6,062.99	78.2015	6,062.99	78.6471	6,062.99	72.3113	6,062.99	74.8138	6,062.99	69.073	6,062.99	71.4201	6,062.99	68.4906	6,062.99	70.1156	6,062.99	63.0856	6,062.99	66.7797	6,062.99	64.5005	6,062.99	67.3811	6,062.99	63.334	6,062.99	55.895	6,062.99	56.1929	6,062.99	62.3704	6,062.99	61.6409	6,062.99	58.1	6,062.99	56.9694	6,062.99	53.8675	6,062.99	54.5323	6,062.99	59.3599	6,062.99	47.0769	6,062.99	56.3856
6,276.86	86.0315	6,276.86	84.6651	6,276.86	84.5954	6,276.86	83.7179	6,276.86	82.5977	6,276.86	82.883	6,276.86	82.3982	6,276.86	81.3057	6,276.86	81.6182	6,276.86	81.8165	6,276.86	80.7242	6,276.86	81.0653	6,276.86	77.5644	6,276.86	79.6963	6,276.86	73.0084	6,276.86	75.4912	6,276.86	70.4654	6,276.86	70.3668	6,276.86	68.9272	6,276.86	68.503	6,276.86	65.0509	6,276.86	65.3489	6,276.86	65.436	6,276.86	67.5408	6,276.86	57.3797	6,276.86	57.0366	6,276.86	39.5533	6,276.86	62.2714	6,276.86	58.3359	6,276.86	49.1097	6,276.86	53.6319	6,276.86	45.06	6,276.86	56.1942	6,276.86	58.1583	6,276.86	53.5321	6,276.86	60.1494
6,498.05	86.1795	6,498.05	85.2956	6,498.05	85.3496	6,498.05	84.258	6,498.05	83.1571	6,498.05	81.898	6,498.05	81.9469	6,498.05	81.0685	6,498.05	81.0862	6,498.05	81.3659	6,498.05	80.3501	6,498.05	80.5828	6,498.05	77.7783	6,498.05	78.537	6,498.05	74.6156	6,498.05	75.2478	6,498.05	71.8729	6,498.05	69.726	6,498.05	70.792	6,498.05	69.1608	6,498.05	68.0665	6,498.05	66.5125	6,498.05	64.196	6,498.05	66.1366	6,498.05	61.1292	6,498.05	57.3652	6,498.05	45.8281	6,498.05	62.4795	6,498.05	53.1877	6,498.05	37.9036	6,498.05	49.4906	6,498.05	48.2254	6,498.05	56.0191	6,498.05	58.3444	6,498.05	36.6237	6,498.05	57.6772
6,727.29	87.022	6,727.29	86.0231	6,727.29	85.9948	6,727.29	84.2316	6,727.29	83.7153	6,727.29	82.1898	6,727.29	82.0461	6,727.29	81.4225	6,727.29	81.3298	6,727.29	80.3257	6,727.29	80.3228	6,727.29	79.8345	6,727.29	77.5009	6,727.29	78.5255	6,727.29	75.3346	6,727.29	76.1546	6,727.29	71.9396	6,727.29	69.9942	6,727.29	67.39	6,727.29	67.7306	6,727.29	68.2745	6,727.29	65.6267	6,727.29	66.4813	6,727.29	65.721	6,727.29	60.1813	6,727.29	62.847	6,727.29	46.1267	6,727.29	62.0591	6,727.29	45.8786	6,727.29	42.5547	6,727.29	39.3338	6,727.29	47.9112	6,727.29	56.4428	6,727.29	57.3516	6,727.29	49.2076	6,727.29	56.7537
6,964.6	86.7767	6,964.6	85.7193	6,964.6	86.404	6,964.6	84.4731	6,964.6	84.2835	6,964.6	82.6495	6,964.6	81.9738	6,964.6	81.1661	6,964.6	80.9052	6,964.6	79.6451	6,964.6	79.7304	6,964.6	78.8449	6,964.6	77.7248	6,964.6	78.0173	6,964.6	75.3406	6,964.6	75.4863	6,964.6	69.7867	6,964.6	70.6954	6,964.6	63.2037	6,964.6	68.1851	6,964.6	67.8213	6,964.6	65.5861	6,964.6	67.415	6,964.6	63.1109	6,964.6	57.1297	6,964.6	58.6728	6,964.6	50.7394	6,964.6	60.8983	6,964.6	55.4264	6,964.6	50.1294	6,964.6	53.2027	6,964.6	45.5942	6,964.6	56.3531	6,964.6	53.6219	6,964.6	34.9537	6,964.6	53.963
7,209.96	86.8199	7,209.96	85.8636	7,209.96	86.5484	7,209.96	84.5086	7,209.96	84.178	7,209.96	82.5591	7,209.96	82.0984	7,209.96	81.4156	7,209.96	81.19	7,209.96	79.4326	7,209.96	79.5313	7,209.96	78.4458	7,209.96	76.6288	7,209.96	76.622	7,209.96	73.6664	7,209.96	74.4636	7,209.96	62.586	7,209.96	69.1143	7,209.96	63.0127	7,209.96	65.094	7,209.96	67.1754	7,209.96	65.1571	7,209.96	69.882	7,209.96	63.2638	7,209.96	58.9989	7,209.96	58.3393	7,209.96	55.5234	7,209.96	58.1703	7,209.96	51.9416	7,209.96	51.0588	7,209.96	43.3506	7,209.96	39.5338	7,209.96	54.8556	7,209.96	52.3358	7,209.96	41.9706	7,209.96	53.5591
7,464.11	86.0328	7,464.11	84.9645	7,464.11	86.2234	7,464.11	83.9163	7,464.11	84.2332	7,464.11	82.5508	7,464.11	82.1957	7,464.11	80.8716	7,464.11	81.1535	7,464.11	79.3042	7,464.11	79.5436	7,464.11	77.9245	7,464.11	77.1437	7,464.11	76.4209	7,464.11	72.8618	7,464.11	73.9486	7,464.11	67.1083	7,464.11	69.3304	7,464.11	67.4346	7,464.11	66.0952	7,464.11	61.9161	7,464.11	63.2318	7,464.11	66.8727	7,464.11	63.0159	7,464.11	53.3918	7,464.11	53.8125	7,464.11	55.9615	7,464.11	54.3802	7,464.11	51.4602	7,464.11	45.03	7,464.11	49.8365	7,464.11	31.0757	7,464.11	57.4515	7,464.11	52.8897	7,464.11	39.5152	7,464.11	47.6801
7,727.78	84.9489	7,727.78	84.1037	7,727.78	85.4375	7,727.78	83.5671	7,727.78	84.0595	7,727.78	82.0357	7,727.78	82.4494	7,727.78	80.6747	7,727.78	81.0512	7,727.78	79.4084	7,727.78	80.0202	7,727.78	77.3406	7,727.78	77.6481	7,727.78	75.2183	7,727.78	73.9563	7,727.78	71.4669	7,727.78	69.0659	7,727.78	67.5701	7,727.78	67.6769	7,727.78	64.5123	7,727.78	51.5947	7,727.78	60.7257	7,727.78	65.2116	7,727.78	62.7867	7,727.78	53.9285	7,727.78	54.6662	7,727.78	54.0299	7,727.78	55.184	7,727.78	52.4073	7,727.78	46.0213	7,727.78	48.729	7,727.78	35.3455	7,727.78	54.4351	7,727.78	51.9544	7,727.78	47.945	7,727.78	38.6105
8,000.24	84.6841	8,000.24	84.4529	8,000.24	85.0355	8,000.24	83.5729	8,000.24	83.9385	8,000.24	81.9864	8,000.24	82.4057	8,000.24	80.9456	8,000.24	80.8675	8,000.24	78.552	8,000.24	79.6073	8,000.24	77.5203	8,000.24	76.9391	8,000.24	74.714	8,000.24	74.1594	8,000.24	72.3381	8,000.24	68.1002	8,000.24	68.2972	8,000.24	66.7435	8,000.24	63.847	8,000.24	59.2776	8,000.24	61.7138	8,000.24	64.3732	8,000.24	60.9785	8,000.24	58.275	8,000.24	55.0591	8,000.24	49.3141	8,000.24	54.3452	8,000.24	47.1433	8,000.24	50.9978	8,000.24	49.1544	8,000.24	29.7442	8,000.24	54.2161	8,000.24	51.3795	8,000.24	41.7021	8,000.24	44.9121
8,282.23	85.8917	8,282.23	85.827	8,282.23	85.1839	8,282.23	84.1112	8,282.23	83.8243	8,282.23	82.386	8,282.23	81.6924	8,282.23	80.4264	8,282.23	80.2605	8,282.23	78.8884	8,282.23	79.3231	8,282.23	76.9644	8,282.23	77.4592	8,282.23	74.0032	8,282.23	74.7581	8,282.23	71.9661	8,282.23	65.4421	8,282.23	66.5125	8,282.23	62.0037	8,282.23	62.6759	8,282.23	60.6705	8,282.23	58.9906	8,282.23	63.2755	8,282.23	59.4649	8,282.23	61.2402	8,282.23	57.1941	8,282.23	44.8667	8,282.23	54.0543	8,282.23	45.2212	8,282.23	51.0878	8,282.23	45.265	8,282.23	42.802	8,282.23	50.1689	8,282.23	48.402	8,282.23	48.7969	8,282.23	47.4937
8,574.46	87.127	8,574.46	86.5986	8,574.46	86.2208	8,574.46	84.5472	8,574.46	83.9775	8,574.46	82.1054	8,574.46	81.4953	8,574.46	79.9579	8,574.46	79.5331	8,574.46	78.3778	8,574.46	78.2911	8,574.46	75.3914	8,574.46	76.7736	8,574.46	73.6439	8,574.46	74.0556	8,574.46	70.5702	8,574.46	63.6916	8,574.46	66.7362	8,574.46	64.9432	8,574.46	63.5323	8,574.46	62.0797	8,574.46	59.388	8,574.46	66.8305	8,574.46	58.8776	8,574.46	58.1931	8,574.46	51.6937	8,574.46	56.3264	8,574.46	48.0229	8,574.46	52.8312	8,574.46	49.7857	8,574.46	50.1495	8,574.46	39.453	8,574.46	50.1282	8,574.46	46.7553	8,574.46	54.1318	8,574.46	35.733
8,876.22	86.836	8,876.22	86.4049	8,876.22	86.672	8,876.22	84.5641	8,876.22	84.9046	8,876.22	81.7904	8,876.22	81.8484	8,876.22	79.3378	8,876.22	79.2756	8,876.22	76.9807	8,876.22	77.6364	8,876.22	75.3437	8,876.22	75.9761	8,876.22	73.533	8,876.22	72.7182	8,876.22	70.6395	8,876.22	65.4357	8,876.22	65.5621	8,876.22	64.9082	8,876.22	63.4609	8,876.22	58.4696	8,876.22	59.3789	8,876.22	66.3873	8,876.22	58.2784	8,876.22	57.5432	8,876.22	54.0551	8,876.22	56.1977	8,876.22	50.296	8,876.22	52.1482	8,876.22	47.8766	8,876.22	42.7832	8,876.22	45.3634	8,876.22	51.1385	8,876.22	31.8348	8,876.22	52.5548	8,876.22	44.3824
9,189.7	85.7204	9,189.7	85.3589	9,189.7	85.9835	9,189.7	83.9141	9,189.7	84.9097	9,189.7	81.8368	9,189.7	82.4323	9,189.7	78.164	9,189.7	78.6275	9,189.7	75.9937	9,189.7	76.897	9,189.7	73.8088	9,189.7	75.3018	9,189.7	73.4354	9,189.7	70.6321	9,189.7	69.3946	9,189.7	65.7902	9,189.7	64.8014	9,189.7	62.9906	9,189.7	61.5442	9,189.7	53.2734	9,189.7	59.0663	9,189.7	64.3917	9,189.7	57.0741	9,189.7	56.2291	9,189.7	57.6658	9,189.7	59.2899	9,189.7	52.6414	9,189.7	53.9864	9,189.7	51.0415	9,189.7	49.5314	9,189.7	42.6065	9,189.7	50.1448	9,189.7	43.4472	9,189.7	56.27	9,189.7	46.1449
9,513.43	84.0329	9,513.43	83.906	9,513.43	84.7178	9,513.43	83.1053	9,513.43	84.3132	9,513.43	81.2083	9,513.43	82.3085	9,513.43	78.0622	9,513.43	78.9387	9,513.43	75.0821	9,513.43	76.385	9,513.43	74.3838	9,513.43	73.6589	9,513.43	71.9595	9,513.43	69.8577	9,513.43	70.5805	9,513.43	69.3165	9,513.43	66.3572	9,513.43	61.9517	9,513.43	60.8734	9,513.43	52.1955	9,513.43	57.9266	9,513.43	62.5646	9,513.43	54.5531	9,513.43	59.7817	9,513.43	57.2097	9,513.43	54.1792	9,513.43	51.7824	9,513.43	49.0519	9,513.43	52.0999	9,513.43	47.3114	9,513.43	41.9995	9,513.43	35.7441	9,513.43	37.9063	9,513.43	56.2084	9,513.43	43.6201
9,848.88	83.7979	9,848.88	83.9736	9,848.88	83.8274	9,848.88	83.3657	9,848.88	83.767	9,848.88	81.2694	9,848.88	82.0962	9,848.88	77.7585	9,848.88	78.8764	9,848.88	75.808	9,848.88	76.2283	9,848.88	73.5632	9,848.88	74.1738	9,848.88	70.6153	9,848.88	72.7789	9,848.88	68.5824	9,848.88	68.3743	9,848.88	65.2007	9,848.88	61.6824	9,848.88	57.9983	9,848.88	49.7485	9,848.88	51.8565	9,848.88	54.3926	9,848.88	51.8091	9,848.88	56.6121	9,848.88	53.6743	9,848.88	45.311	9,848.88	48.665	9,848.88	48.3982	9,848.88	53.1323	9,848.88	46.5019	9,848.88	37.1476	9,848.88	39.0795	9,848.88	39.6986	9,848.88	54.4203	9,848.88	37.6726
10,196.8	84.2689	10,196.8	84.9077	10,196.8	83.6307	10,196.8	83.5447	10,196.8	83.2289	10,196.8	80.6137	10,196.8	81.3428	10,196.8	78.1541	10,196.8	78.5751	10,196.8	75.8523	10,196.8	75.5306	10,196.8	73.1498	10,196.8	74.6468	10,196.8	70.0481	10,196.8	70.9064	10,196.8	68.2652	10,196.8	65.9964	10,196.8	64.1633	10,196.8	60.6402	10,196.8	58.3887	10,196.8	45.7791	10,196.8	52.2265	10,196.8	55.2322	10,196.8	53.9742	10,196.8	52.2828	10,196.8	45.4222	10,196.8	49.7291	10,196.8	41.619	10,196.8	43.1084	10,196.8	55.6141	10,196.8	49.3983	10,196.8	34.9317	10,196.8	24.0961	10,196.8	50.898	10,196.8	49.4878	10,196.8	31.2718
10,556.4	84.5136	10,556.4	85.161	10,556.4	83.6348	10,556.4	83.1878	10,556.4	82.9727	10,556.4	79.605	10,556.4	80.7766	10,556.4	76.9592	10,556.4	77.5177	10,556.4	74.7031	10,556.4	74.8601	10,556.4	72.5314	10,556.4	73.4263	10,556.4	70.011	10,556.4	66.4454	10,556.4	67.3097	10,556.4	66.1689	10,556.4	63.7034	10,556.4	57.346	10,556.4	58.2565	10,556.4	52.562	10,556.4	51.0223	10,556.4	58.628	10,556.4	53.9072	10,556.4	55.469	10,556.4	45.7349	10,556.4	50.0236	10,556.4	23.9268	10,556.4	41.2408	10,556.4	57.9255	10,556.4	39.194	10,556.4	31.4379	10,556.4	35.9045	10,556.4	51.2328	10,556.4	52.7728	10,556.4	43.8167
10,928.5	84.4227	10,928.5	84.3313	10,928.5	83.7476	10,928.5	81.7146	10,928.5	82.65	10,928.5	78.2429	10,928.5	80.4147	10,928.5	76.3977	10,928.5	76.9417	10,928.5	73.685	10,928.5	74.5371	10,928.5	71.4966	10,928.5	69.4933	10,928.5	68.8425	10,928.5	65.4653	10,928.5	66.0022	10,928.5	65.838	10,928.5	63.2974	10,928.5	59.5869	10,928.5	57.7645	10,928.5	53.5645	10,928.5	50.7376	10,928.5	56.8134	10,928.5	52.4169	10,928.5	52.1965	10,928.5	51.5101	10,928.5	45.1488	10,928.5	43.4594	10,928.5	44.6115	10,928.5	55.5338	10,928.5	36.8813	10,928.5	38.1598	10,928.5	48.9188	10,928.5	54.4599	10,928.5	53.3312	10,928.5	39.7155
11,313.7	83.887	11,313.7	83.4666	11,313.7	83.168	11,313.7	80.4288	11,313.7	82.2436	11,313.7	77.8705	11,313.7	79.8893	11,313.7	75.9198	11,313.7	76.8002	11,313.7	72.9716	11,313.7	72.9717	11,313.7	69.7481	11,313.7	68.0962	11,313.7	67.9798	11,313.7	67.3985	11,313.7	64.294	11,313.7	65.0258	11,313.7	62.7123	11,313.7	61.5318	11,313.7	55.7811	11,313.7	47.0359	11,313.7	50.2696	11,313.7	60.0526	11,313.7	48.1831	11,313.7	46.553	11,313.7	48.6771	11,313.7	45.4759	11,313.7	42.0586	11,313.7	42.3212	11,313.7	52.0906	11,313.7	30.8398	11,313.7	34.6726	11,313.7	47.2254	11,313.7	54.5373	11,313.7	52.3455	11,313.7	47.4421
11,712.9	83.2786	11,712.9	83.1509	11,712.9	82.4472	11,712.9	80.1107	11,712.9	81.3074	11,712.9	78.3014	11,712.9	79.2264	11,712.9	75.6942	11,712.9	76.3162	11,712.9	72.518	11,712.9	72.8	11,712.9	69.3303	11,712.9	71.3377	11,712.9	67.1701	11,712.9	67.7292	11,712.9	65.0682	11,712.9	62.3739	11,712.9	62.8182	11,712.9	56.5706	11,712.9	55.6487	11,712.9	47.407	11,712.9	52.0886	11,712.9	61.5156	11,712.9	45.2205	11,712.9	50.0466	11,712.9	53.1692	11,712.9	52.7212	11,712.9	47.1289	11,712.9	44.9582	11,712.9	54.4331	11,712.9	21.9882	11,712.9	37.4544	11,712.9	51.0133	11,712.9	56.5609	11,712.9	55.7145	11,712.9	48.3152
12,126	83.5053	12,126	82.8665	12,126	81.881	12,126	79.6485	12,126	80.4521	12,126	79.1321	12,126	78.696	12,126	75.8261	12,126	76.4053	12,126	73.1731	12,126	74.1253	12,126	70.387	12,126	72.3383	12,126	68.6714	12,126	66.7355	12,126	66.1152	12,126	66.4594	12,126	63.23	12,126	58.9914	12,126	50.9937	12,126	56.0285	12,126	53.69	12,126	66.1213	12,126	48.3278	12,126	59.9159	12,126	51.5786	12,126	52.6279	12,126	48.6137	12,126	32.3143	12,126	53.8252	12,126	40.0893	12,126	35.6834	12,126	44.9334	12,126	54.8072	12,126	54.6933	12,126	52.0132
12,553.7	84.0419	12,553.7	82.0859	12,553.7	82.4292	12,553.7	80.1028	12,553.7	80.2318	12,553.7	79.2847	12,553.7	78.7759	12,553.7	76.6736	12,553.7	77.3956	12,553.7	73.9438	12,553.7	75.4082	12,553.7	71.8424	12,553.7	73.3148	12,553.7	70.2207	12,553.7	69.0245	12,553.7	66.69	12,553.7	66.5179	12,553.7	62.5571	12,553.7	60.0514	12,553.7	52.3653	12,553.7	58.6012	12,553.7	54.3229	12,553.7	67.7571	12,553.7	51.7255	12,553.7	62.6271	12,553.7	51.5893	12,553.7	42.3753	12,553.7	45.2435	12,553.7	49.9097	12,553.7	54.4482	12,553.7	26.688	12,553.7	25.239	12,553.7	49.9228	12,553.7	52.7865	12,553.7	48.0443	12,553.7	51.9381
12,996.1	84.1272	12,996.1	81.7585	12,996.1	83.021	12,996.1	81.3804	12,996.1	81.0202	12,996.1	79.364	12,996.1	79.597	12,996.1	77.2854	12,996.1	77.7978	12,996.1	75.1149	12,996.1	75.8621	12,996.1	72.1555	12,996.1	72.4655	12,996.1	70.1676	12,996.1	68.6594	12,996.1	66.0446	12,996.1	66.9568	12,996.1	62.7926	12,996.1	59.1824	12,996.1	54.7753	12,996.1	57.6034	12,996.1	54.4687	12,996.1	66.9032	12,996.1	51.6305	12,996.1	61.4382	12,996.1	57.4239	12,996.1	51.5783	12,996.1	48.419	12,996.1	54.8293	12,996.1	55.6057	12,996.1	37.204	12,996.1	39.1879	12,996.1	49.0114	12,996.1	48.1588	12,996.1	45.9131	12,996.1	53.9267
13,454.6	83.5083	13,454.6	82.0848	13,454.6	83.3775	13,454.6	82.1607	13,454.6	81.6675	13,454.6	79.5059	13,454.6	79.5443	13,454.6	77.6425	13,454.6	77.6804	13,454.6	75.4724	13,454.6	75.9084	13,454.6	70.6176	13,454.6	73.4773	13,454.6	69.9693	13,454.6	69.0461	13,454.6	65.1563	13,454.6	67.1127	13,454.6	65.3373	13,454.6	58.4728	13,454.6	54.7357	13,454.6	53.3549	13,454.6	52.9305	13,454.6	65.9639	13,454.6	50.1428	13,454.6	62.3674	13,454.6	58.2492	13,454.6	51.024	13,454.6	51.5236	13,454.6	55.4735	13,454.6	56.2078	13,454.6	46.1679	13,454.6	45.4603	13,454.6	44.7359	13,454.6	49.6817	13,454.6	55.4382	13,454.6	53.4848
13,928.5	82.6316	13,928.5	82.6054	13,928.5	83.0466	13,928.5	82.0098	13,928.5	81.9813	13,928.5	79.527	13,928.5	79.6874	13,928.5	77.3378	13,928.5	77.2013	13,928.5	74.6984	13,928.5	74.6635	13,928.5	68.8986	13,928.5	72.4399	13,928.5	68.7324	13,928.5	65.966	13,928.5	64.4168	13,928.5	66.3326	13,928.5	65.0469	13,928.5	61.6612	13,928.5	49.1332	13,928.5	56.6249	13,928.5	53.1597	13,928.5	68.7118	13,928.5	48.8755	13,928.5	63.8835	13,928.5	56.9866	13,928.5	50.8268	13,928.5	48.1291	13,928.5	48.5684	13,928.5	54.7903	13,928.5	45.9315	13,928.5	49.9239	13,928.5	43.6843	13,928.5	47.7615	13,928.5	54.1937	13,928.5	49.3313
14,419.9	81.7576	14,419.9	82.4175	14,419.9	81.8415	14,419.9	81.4846	14,419.9	81.4576	14,419.9	79.5788	14,419.9	79.5948	14,419.9	77.1694	14,419.9	77.3779	14,419.9	73.6015	14,419.9	73.8337	14,419.9	68.0263	14,419.9	70.6601	14,419.9	68.1515	14,419.9	65.2151	14,419.9	65.5249	14,419.9	66.4164	14,419.9	63.677	14,419.9	61.5584	14,419.9	51.4855	14,419.9	59.4814	14,419.9	52.2665	14,419.9	70.2541	14,419.9	48.8869	14,419.9	65.8077	14,419.9	56.794	14,419.9	48.6834	14,419.9	43.6976	14,419.9	48.3934	14,419.9	52.335	14,419.9	46.441	14,419.9	52.1223	14,419.9	35.308	14,419.9	45.9014	14,419.9	53.0507	14,419.9	50.3277
14,928.2	82.3651	14,928.2	82.518	14,928.2	82.0804	14,928.2	81.4203	14,928.2	81.6169	14,928.2	79.8722	14,928.2	80.2721	14,928.2	77.7021	14,928.2	77.4126	14,928.2	73.8228	14,928.2	74.2358	14,928.2	69.6496	14,928.2	70.6658	14,928.2	69.2817	14,928.2	68.0351	14,928.2	66.5878	14,928.2	64.797	14,928.2	64.7087	14,928.2	62.786	14,928.2	51.4687	14,928.2	60.7435	14,928.2	53.1918	14,928.2	70.6694	14,928.2	49.3903	14,928.2	66.877	14,928.2	60.3636	14,928.2	54.7327	14,928.2	46.62	14,928.2	48.6469	14,928.2	53.6475	14,928.2	44.3093	14,928.2	55.4787	14,928.2	51.9458	14,928.2	44.0885	14,928.2	57.5518	14,928.2	53.8112
15,454.8	82.6548	15,454.8	82.6464	15,454.8	82.6599	15,454.8	81.539	15,454.8	82.338	15,454.8	80.1116	15,454.8	80.4835	15,454.8	77.6365	15,454.8	77.4642	15,454.8	73.6299	15,454.8	74.4064	15,454.8	69.3488	15,454.8	70.1212	15,454.8	69.44	15,454.8	67.0081	15,454.8	65.9904	15,454.8	64.7249	15,454.8	65.9204	15,454.8	63.0042	15,454.8	51.6852	15,454.8	61.4234	15,454.8	50.6832	15,454.8	70.4152	15,454.8	47.4914	15,454.8	67.0422	15,454.8	60.6877	15,454.8	53.3828	15,454.8	45.3513	15,454.8	47.3799	15,454.8	52.8674	15,454.8	46.8131	15,454.8	56.3504	15,454.8	53.7535	15,454.8	41.888	15,454.8	57.9391	15,454.8	55.3541
15,999.8	81.7205	15,999.8	81.8854	15,999.8	81.9718	15,999.8	80.9908	15,999.8	81.9056	15,999.8	79.5991	15,999.8	80.1664	15,999.8	76.4899	15,999.8	76.3484	15,999.8	72.5817	15,999.8	73.1354	15,999.8	67.5724	15,999.8	67.8153	15,999.8	68.2122	15,999.8	66.4957	15,999.8	64.159	15,999.8	64.088	15,999.8	65.2439	15,999.8	62.3454	15,999.8	52.0052	15,999.8	60.7693	15,999.8	43.7817	15,999.8	70.0557	15,999.8	44.2745	15,999.8	66.1045	15,999.8	60.2692	15,999.8	51.9864	15,999.8	41.6593	15,999.8	47.2185	15,999.8	52.0513	15,999.8	41.0597	15,999.8	53.1599	15,999.8	51.0002	15,999.8	47.4682	15,999.8	57.2754	15,999.8	57.245
16,564.5	83.5612	16,564.5	83.8024	16,564.5	83.5147	16,564.5	82.691	16,564.5	83.2058	16,564.5	80.5942	16,564.5	80.9223	16,564.5	76.838	16,564.5	77.12	16,564.5	72.2944	16,564.5	72.5173	16,564.5	65.6087	16,564.5	68.6943	16,564.5	66.8535	16,564.5	65.4339	16,564.5	62.8853	16,564.5	59.4007	16,564.5	63.9134	16,564.5	62.3381	16,564.5	51.2772	16,564.5	61.3874	16,564.5	41.83	16,564.5	70.1156	16,564.5	43.7219	16,564.5	65.1608	16,564.5	58.3263	16,564.5	52.2278	16,564.5	36.7976	16,564.5	53.2234	16,564.5	53.4955	16,564.5	34.5815	16,564.5	46.8043	16,564.5	31.3785	16,564.5	44.1417	16,564.5	56.5159	16,564.5	58.2675
17,148.2	84.9984	17,148.2	84.7241	17,148.2	84.2033	17,148.2	83.1106	17,148.2	83.1384	17,148.2	80.0343	17,148.2	80.7275	17,148.2	76.1763	17,148.2	76.3766	17,148.2	71.118	17,148.2	70.6373	17,148.2	63.7064	17,148.2	66.9804	17,148.2	65.5538	17,148.2	62.8045	17,148.2	62.0714	17,148.2	57.4115	17,148.2	63.7226	17,148.2	58.5617	17,148.2	45.869	17,148.2	60.7301	17,148.2	40.4721	17,148.2	68.3488	17,148.2	41.975	17,148.2	65.1897	17,148.2	57.2938	17,148.2	54.5081	17,148.2	44.4737	17,148.2	56.0299	17,148.2	58.9441	17,148.2	26.4254	17,148.2	49.7561	17,148.2	47.6394	17,148.2	48.4614	17,148.2	60.9972	17,148.2	59.1847
17,753.2	86.1607	17,753.2	85.347	17,753.2	85.1179	17,753.2	82.8056	17,753.2	83.059	17,753.2	78.8182	17,753.2	79.4676	17,753.2	74.0443	17,753.2	73.7366	17,753.2	68.8437	17,753.2	67.6952	17,753.2	58.5251	17,753.2	64.9583	17,753.2	63.748	17,753.2	57.5876	17,753.2	58.1062	17,753.2	58.0981	17,753.2	61.0815	17,753.2	58.2085	17,753.2	43.6455	17,753.2	58.5072	17,753.2	25.9978	17,753.2	66.6108	17,753.2	42.1195	17,753.2	63.2417	17,753.2	53.5489	17,753.2	51.8529	17,753.2	41.3616	17,753.2	51.0236	17,753.2	58.6559	17,753.2	27.8331	17,753.2	49.6328	17,753.2	46.2593	17,753.2	51.5118	17,753.2	60.1376	17,753.2	58.363
18,379.4	86.0347	18,379.4	85.3458	18,379.4	85.3291	18,379.4	82.4333	18,379.4	82.9206	18,379.4	78.0346	18,379.4	78.0215	18,379.4	72.2174	18,379.4	70.9496	18,379.4	65.9077	18,379.4	63.8956	18,379.4	55.886	18,379.4	62.1471	18,379.4	61.0165	18,379.4	47.5259	18,379.4	51.8428	18,379.4	50.5039	18,379.4	55.5698	18,379.4	57.3274	18,379.4	41.5917	18,379.4	59.3204	18,379.4	30.5897	18,379.4	67.2296	18,379.4	43.6815	18,379.4	61.5214	18,379.4	51.4154	18,379.4	52.9557	18,379.4	47.4116	18,379.4	49.6418	18,379.4	57.0256	18,379.4	41.0637	18,379.4	51.7723	18,379.4	43.512	18,379.4	51.2936	18,379.4	57.4762	18,379.4	59.3369
19,027.6	85.0237	19,027.6	84.6977	19,027.6	84.2911	19,027.6	81.5061	19,027.6	81.6817	19,027.6	76.5945	19,027.6	76.4511	19,027.6	70.1695	19,027.6	68.3271	19,027.6	62.9861	19,027.6	58.5562	19,027.6	55.3401	19,027.6	56.7071	19,027.6	56.7982	19,027.6	53.7731	19,027.6	49.6987	19,027.6	54.0911	19,027.6	54.9906	19,027.6	52.4504	19,027.6	31.6549	19,027.6	59.1145	19,027.6	23.514	19,027.6	66.3329	19,027.6	43.907	19,027.6	61.1485	19,027.6	53.7479	19,027.6	54.4699	19,027.6	48.8969	19,027.6	53.0626	19,027.6	57.9483	19,027.6	48.2353	19,027.6	54.8753	19,027.6	51.3637	19,027.6	51.2586	19,027.6	59.9111	19,027.6	58.5984
19,698.5	85.794	19,698.5	84.7192	19,698.5	84.2475	19,698.5	80.2523	19,698.5	80.2464	19,698.5	74.2834	19,698.5	73.3089	19,698.5	67.4179	19,698.5	62.9074	19,698.5	58.1591	19,698.5	50.8271	19,698.5	53.519	19,698.5	56.356	19,698.5	50.9938	19,698.5	53.4349	19,698.5	47.8424	19,698.5	54.9148	19,698.5	54.1077	19,698.5	49.2828	19,698.5	33.9283	19,698.5	56.9242	19,698.5	31.0541	19,698.5	63.5044	19,698.5	44.8378	19,698.5	58.8279	19,698.5	53.5767	19,698.5	54.1764	19,698.5	47.4813	19,698.5	51.5295	19,698.5	56.476	19,698.5	46.2998	19,698.5	54.6494	19,698.5	52.4392	19,698.5	52.1345	19,698.5	58.9894	19,698.5	58.7687
19,999.5	86.2014	19,999.5	84.3794	19,999.5	84.3694	19,999.5	79.2489	19,999.5	79.6962	19,999.5	73.0322	19,999.5	70.6212	19,999.5	64.738	19,999.5	58.4946	19,999.5	56.958	19,999.5	58.0663	19,999.5	55.2518	19,999.5	59.1029	19,999.5	49.0164	19,999.5	53.7587	19,999.5	34.0374	19,999.5	57.0162	19,999.5	53.6908	19,999.5	54.2278	19,999.5	36.8484	19,999.5	59.4275	19,999.5	41.4385	19,999.5	64.4081	19,999.5	41.0224	19,999.5	59.516	19,999.5	50.7312	19,999.5	54.3717	19,999.5	46.5609	19,999.5	49.4663	19,999.5	55.366	19,999.5	41.2179	19,999.5	55.1713	19,999.5	50.2551	19,999.5	52.8845	19,999.5	57.9226	19,999.5	58.3685
