"SPL Vertical"																																																																							
"On-Axis"		"10°"		"-10°"		"20°"		"-20°"		"30°"		"-30°"		"40°"		"-40°"		"50°"		"-50°"		"60°"		"-60°"		"70°"		"-70°"		"80°"		"-80°"		"90°"		"-90°"		"100°"		"-100°"		"110°"		"-110°"		"120°"		"-120°"		"130°"		"-130°"		"140°"		"-140°"		"150°"		"-150°"		"160°"		"-160°"		"170°"		"-170°"		"180°"	
"Frequency [Hz]"	"Sound Pessure Level [dB]  / [2.83V 1m] "	"Frequency [Hz]"	"Sound Pessure Level [dB]  / [2.83V 1m] "	"Frequency [Hz]"	"Sound Pessure Level [dB]  / [2.83V 1m] "	"Frequency [Hz]"	"Sound Pessure Level [dB]  / [2.83V 1m] "	"Frequency [Hz]"	"Sound Pessure Level [dB]  / [2.83V 1m] "	"Frequency [Hz]"	"Sound Pessure Level [dB]  / [2.83V 1m] "	"Frequency [Hz]"	"Sound Pessure Level [dB]  / [2.83V 1m] "	"Frequency [Hz]"	"Sound Pessure Level [dB]  / [2.83V 1m] "	"Frequency [Hz]"	"Sound Pessure Level [dB]  / [2.83V 1m] "	"Frequency [Hz]"	"Sound Pessure Level [dB]  / [2.83V 1m] "	"Frequency [Hz]"	"Sound Pessure Level [dB]  / [2.83V 1m] "	"Frequency [Hz]"	"Sound Pessure Level [dB]  / [2.83V 1m] "	"Frequency [Hz]"	"Sound Pessure Level [dB]  / [2.83V 1m] "	"Frequency [Hz]"	"Sound Pessure Level [dB]  / [2.83V 1m] "	"Frequency [Hz]"	"Sound Pessure Level [dB]  / [2.83V 1m] "	"Frequency [Hz]"	"Sound Pessure Level [dB]  / [2.83V 1m] "	"Frequency [Hz]"	"Sound Pessure Level [dB]  / [2.83V 1m] "	"Frequency [Hz]"	"Sound Pessure Level [dB]  / [2.83V 1m] "	"Frequency [Hz]"	"Sound Pessure Level [dB]  / [2.83V 1m] "	"Frequency [Hz]"	"Sound Pessure Level [dB]  / [2.83V 1m] "	"Frequency [Hz]"	"Sound Pessure Level [dB]  / [2.83V 1m] "	"Frequency [Hz]"	"Sound Pessure Level [dB]  / [2.83V 1m] "	"Frequency [Hz]"	"Sound Pessure Level [dB]  / [2.83V 1m] "	"Frequency [Hz]"	"Sound Pessure Level [dB]  / [2.83V 1m] "	"Frequency [Hz]"	"Sound Pessure Level [dB]  / [2.83V 1m] "	"Frequency [Hz]"	"Sound Pessure Level [dB]  / [2.83V 1m] "	"Frequency [Hz]"	"Sound Pessure Level [dB]  / [2.83V 1m] "	"Frequency [Hz]"	"Sound Pessure Level [dB]  / [2.83V 1m] "	"Frequency [Hz]"	"Sound Pessure Level [dB]  / [2.83V 1m] "	"Frequency [Hz]"	"Sound Pessure Level [dB]  / [2.83V 1m] "	"Frequency [Hz]"	"Sound Pessure Level [dB]  / [2.83V 1m] "	"Frequency [Hz]"	"Sound Pessure Level [dB]  / [2.83V 1m] "	"Frequency [Hz]"	"Sound Pessure Level [dB]  / [2.83V 1m] "	"Frequency [Hz]"	"Sound Pessure Level [dB]  / [2.83V 1m] "	"Frequency [Hz]"	"Sound Pessure Level [dB]  / [2.83V 1m] "	"Frequency [Hz]"	"Sound Pessure Level [dB]  / [2.83V 1m] "
20.5078	50.6146	20.5078	49.5097	20.5078	51.3447	20.5078	47.9519	20.5078	51.7271	20.5078	45.789	20.5078	51.7483	20.5078	42.8025	20.5078	51.3509	20.5078	39.3995	20.5078	50.4126	20.5078	39.7688	20.5078	48.6827	20.5078	43.7644	20.5078	45.5781	20.5078	47.3076	20.5078	39.4363	20.5078	50.0554	20.5078	37.7348	20.5078	52.2385	20.5078	46.0842	20.5078	54.0217	20.5078	50.8096	20.5078	55.5021	20.5078	53.8833	20.5078	56.7351	20.5078	56.0343	20.5078	57.7509	20.5078	57.5633	20.5078	58.5623	20.5078	58.6228	20.5078	59.1706	20.5078	59.3023	20.5078	59.5679	20.5078	59.6604	20.5078	59.7388
21.9727	52.3796	21.9727	51.5863	21.9727	52.9399	21.9727	50.6156	21.9727	53.2357	21.9727	49.603	21.9727	53.2352	21.9727	48.8493	21.9727	52.8963	21.9727	48.7952	21.9727	52.1714	21.9727	49.6497	21.9727	51.0508	21.9727	51.1288	21.9727	49.7608	21.9727	52.8151	21.9727	49.243	21.9727	54.4626	21.9727	50.6084	21.9727	55.9767	21.9727	53.1112	21.9727	57.3319	21.9727	55.5813	21.9727	58.5267	21.9727	57.6399	21.9727	59.5636	21.9727	59.2572	21.9727	60.4434	21.9727	60.477	21.9727	61.1626	21.9727	61.348	21.9727	61.7129	21.9727	61.912	21.9727	62.0816	21.9727	62.2037	21.9727	62.2521
23.4375	54.9085	23.4375	54.1801	23.4375	55.4292	23.4375	53.2759	23.4375	55.7206	23.4375	52.2684	23.4375	55.7582	23.4375	51.3302	23.4375	55.5094	23.4375	50.7865	23.4375	54.9364	23.4375	50.9923	23.4375	54.019	23.4375	51.9822	23.4375	52.8486	23.4375	53.4321	23.4375	51.8975	23.4375	55.0052	23.4375	52.1504	23.4375	56.518	23.4375	53.8651	23.4375	57.8979	23.4375	56.0863	23.4375	59.1229	23.4375	58.1194	23.4375	60.1873	23.4375	59.7719	23.4375	61.0889	23.4375	61.0358	23.4375	61.823	23.4375	61.9456	23.4375	62.3813	23.4375	62.54	23.4375	62.7511	23.4375	62.8534	23.4375	62.9154
24.9023	56.666	24.9023	56.1416	24.9023	57.0616	24.9023	55.5465	24.9023	57.2908	24.9023	54.976	24.9023	57.3257	24.9023	54.575	24.9023	57.1465	24.9023	54.5137	24.9023	56.7525	24.9023	54.9022	24.9023	56.1973	24.9023	55.7092	24.9023	55.6656	24.9023	56.7911	24.9023	55.5425	24.9023	57.991	24.9023	56.2128	24.9023	59.1968	24.9023	57.6034	24.9023	60.3432	24.9023	59.2706	24.9023	61.3956	24.9023	60.8575	24.9023	62.3343	24.9023	62.2051	24.9023	63.1459	24.9023	63.2677	24.9023	63.8181	24.9023	64.0457	24.9023	64.3377	24.9023	64.5556	24.9023	64.6895	24.9023	64.8185	24.9023	64.8562
26.3672	59.1318	26.3672	58.7718	26.3672	59.4206	26.3672	58.3915	26.3672	59.6025	26.3672	58.0618	26.3672	59.6552	26.3672	57.8709	26.3672	59.5711	26.3672	57.9066	26.3672	59.3685	26.3672	58.2227	26.3672	59.115	26.3672	58.8118	26.3672	58.9568	26.3672	59.6114	26.3672	59.1082	26.3672	60.5368	26.3672	59.7312	26.3672	61.5105	26.3672	60.7796	26.3672	62.4744	26.3672	62.0365	26.3672	63.3887	26.3672	63.283	26.3672	64.2258	26.3672	64.3832	26.3672	64.9648	26.3672	65.2741	26.3672	65.5881	26.3672	65.9352	26.3672	66.0787	26.3672	66.3673	26.3672	66.4195	26.3672	66.5815	26.3672	66.5931
27.832	61.3961	27.832	61.1581	27.832	61.6012	27.832	60.9284	27.832	61.7442	27.832	60.758	27.832	61.8086	27.832	60.7034	27.832	61.7945	27.832	60.8145	27.832	61.7278	27.832	61.1195	27.832	61.6723	27.832	61.6147	27.832	61.7362	27.832	62.2665	27.832	62.0451	27.832	63.0255	27.832	62.6707	27.832	63.8401	27.832	63.5688	27.832	64.6655	27.832	64.6059	27.832	65.4659	27.832	65.6388	27.832	66.2132	27.832	66.5639	27.832	66.8843	27.832	67.3225	27.832	67.4591	27.832	67.8886	27.832	67.9188	27.832	68.2561	27.832	68.2454	27.832	68.4298	27.832	68.4213
29.2969	63.9098	29.2969	63.7519	29.2969	64.0636	29.2969	63.6178	29.2969	64.1933	29.2969	63.5402	29.2969	64.2891	29.2969	63.5525	29.2969	64.3552	29.2969	63.6829	29.2969	64.415	29.2969	63.9474	29.2969	64.5147	29.2969	64.346	29.2969	64.7195	29.2969	64.8623	29.2969	65.0929	29.2969	65.469	29.2969	65.663	29.2969	66.1335	29.2969	66.3987	29.2969	66.8232	29.2969	67.2219	29.2969	67.5086	29.2969	68.042	29.2969	68.1633	29.2969	68.7834	29.2969	68.764	29.2969	69.3958	29.2969	69.2894	29.2969	69.8514	29.2969	69.7197	29.2969	70.1394	29.2969	70.0363	29.2969	70.2602	29.2969	70.2216
30.7617	65.939	30.7617	65.7911	30.7617	66.0906	30.7617	65.6728	30.7617	66.2258	30.7617	65.6129	30.7617	66.3319	30.7617	65.6398	30.7617	66.4074	30.7617	65.7764	30.7617	66.466	30.7617	66.035	30.7617	66.5416	30.7617	66.4149	30.7617	66.6894	30.7617	66.902	30.7617	66.9744	30.7617	67.4729	30.7617	67.4431	30.7617	68.0994	30.7617	68.0918	30.7617	68.7524	30.7617	68.8613	30.7617	69.4045	30.7617	69.6632	30.7617	70.0302	30.7617	70.4129	30.7617	70.6062	30.7617	71.0487	30.7617	71.1103	30.7617	71.5337	30.7617	71.5212	30.7617	71.8512	30.7617	71.8187	30.7617	71.9987	30.7617	71.9835
32.2266	68.2933	32.2266	68.1815	32.2266	68.4192	32.2266	68.1013	32.2266	68.5455	32.2266	68.0721	32.2266	68.6641	32.2266	68.1125	32.2266	68.7754	32.2266	68.238	32.2266	68.8909	32.2266	68.4576	32.2266	69.0351	32.2266	68.7723	32.2266	69.244	32.2266	69.175	32.2266	69.5564	32.2266	69.6513	32.2266	69.9968	32.2266	70.1819	32.2266	70.5588	32.2266	70.7449	32.2266	71.2017	32.2266	71.3175	32.2266	71.8641	32.2266	71.8769	32.2266	72.4829	32.2266	72.401	32.2266	73.0077	32.2266	72.868	32.2266	73.4051	32.2266	73.2567	32.2266	73.6578	32.2266	73.5471	32.2266	73.7613	32.2266	73.7206
33.6914	70.5223	33.6914	70.4337	33.6914	70.6315	33.6914	70.3775	33.6914	70.7521	33.6914	70.3666	33.6914	70.8794	33.6914	70.4134	33.6914	71.0145	33.6914	70.5283	33.6914	71.166	33.6914	70.7178	33.6914	71.351	33.6914	70.9837	33.6914	71.5924	33.6914	71.3222	33.6914	71.9129	33.6914	71.7243	33.6914	72.3245	33.6914	72.1769	33.6914	72.8192	33.6914	72.6638	33.6914	73.3665	33.6914	73.1664	33.6914	73.9216	33.6914	73.6653	33.6914	74.4363	33.6914	74.1402	33.6914	74.8699	33.6914	74.5704	33.6914	75.1935	33.6914	74.9358	33.6914	75.3908	33.6914	75.2167	33.6914	75.4568	33.6914	75.3953
35.1563	72.4411	35.1563	72.3569	35.1563	72.5482	35.1563	72.304	35.1563	72.6718	35.1563	72.2915	35.1563	72.8085	35.1563	72.3285	35.1563	72.9592	35.1563	72.4226	35.1563	73.1297	35.1563	72.5792	35.1563	73.3313	35.1563	72.8004	35.1563	73.5786	35.1563	73.0846	35.1563	73.8851	35.1563	73.426	35.1563	74.2571	35.1563	73.8155	35.1563	74.6869	35.1563	74.2404	35.1563	75.1516	35.1563	74.6857	35.1563	75.6171	35.1563	75.1344	35.1563	76.0456	35.1563	75.5681	35.1563	76.4032	35.1563	75.9674	35.1563	76.6646	35.1563	76.313	35.1563	76.8148	35.1563	76.586	35.1563	76.8487	35.1563	76.7693
36.6211	74.1051	36.6211	74.0226	36.6211	74.2119	36.6211	73.9704	36.6211	74.3383	36.6211	73.955	36.6211	74.4818	36.6211	73.9832	36.6211	74.6426	36.6211	74.0605	36.6211	74.8243	36.6211	74.1913	36.6211	75.0339	36.6211	74.3776	36.6211	75.2802	36.6211	74.619	36.6211	75.5711	36.6211	74.9118	36.6211	75.9088	36.6211	75.2496	36.6211	76.2862	36.6211	75.6227	36.6211	76.6853	36.6211	76.019	36.6211	77.0793	36.6211	76.4237	36.6211	77.438	36.6211	76.8205	36.6211	77.7332	36.6211	77.1914	36.6211	77.9431	36.6211	77.518	36.6211	78.0542	36.6211	77.7824	36.6211	78.0617	36.6211	77.9681
38.0859	75.4672	38.0859	75.3869	38.0859	75.5728	38.0859	75.3365	38.0859	75.7005	38.0859	75.3206	38.0859	75.8481	38.0859	75.3441	38.0859	76.0155	38.0859	75.411	38.0859	76.2046	38.0859	75.5247	38.0859	76.4193	38.0859	75.6869	38.0859	76.6646	38.0859	75.8976	38.0859	76.9443	38.0859	76.1546	38.0859	77.258	38.0859	76.4531	38.0859	77.5985	38.0859	76.7857	38.0859	77.9503	38.0859	77.1424	38.0859	78.2916	38.0859	77.5108	38.0859	78.5975	38.0859	77.8762	38.0859	78.8444	38.0859	78.2224	38.0859	79.0136	38.0859	78.532	38.0859	79.0934	38.0859	78.7882	38.0859	79.0796	38.0859	78.975
39.5508	76.5808	39.5508	76.5005	39.5508	76.6876	39.5508	76.45	39.5508	76.8184	39.5508	76.4327	39.5508	76.9712	39.5508	76.4519	39.5508	77.1455	39.5508	76.5108	39.5508	77.3417	39.5508	76.6115	39.5508	77.5615	39.5508	76.7556	39.5508	77.807	39.5508	76.9431	39.5508	78.0788	39.5508	77.1725	39.5508	78.3744	39.5508	77.4401	39.5508	78.6863	39.5508	77.7402	39.5508	79.0007	39.5508	78.0648	39.5508	79.2991	39.5508	78.4031	39.5508	79.5609	39.5508	78.7423	39.5508	79.7663	39.5508	79.0677	39.5508	79.8996	39.5508	79.3633	39.5508	79.9511	39.5508	79.6131	39.5508	79.9175	39.5508	79.802
41.0156	77.5826	41.0156	77.4977	41.0156	77.6928	41.0156	77.4406	41.0156	77.8263	41.0156	77.4135	41.0156	77.9812	41.0156	77.4191	41.0156	78.1564	41.0156	77.4595	41.0156	78.3513	41.0156	77.5368	41.0156	78.5656	41.0156	77.6523	41.0156	78.7991	41.0156	77.8066	41.0156	79.0505	41.0156	77.9991	41.0156	79.3161	41.0156	78.2276	41.0156	79.5886	41.0156	78.4883	41.0156	79.8566	41.0156	78.7747	41.0156	80.1048	41.0156	79.0782	41.0156	80.3164	41.0156	79.3877	41.0156	80.4753	41.0156	79.6899	41.0156	80.5687	41.0156	79.9702	41.0156	80.5886	41.0156	80.2133	41.0156	80.5328	41.0156	80.4049
42.4805	78.2461	42.4805	78.1551	42.4805	78.3626	42.4805	78.0915	42.4805	78.5025	42.4805	78.0574	42.4805	78.6639	42.4805	78.0545	42.4805	78.845	42.4805	78.0848	42.4805	79.044	42.4805	78.1498	42.4805	79.2593	42.4805	78.2506	42.4805	79.4891	42.4805	78.3879	42.4805	79.7305	42.4805	78.5613	42.4805	79.9791	42.4805	78.7691	42.4805	80.2276	42.4805	79.0082	42.4805	80.4659	42.4805	79.2733	42.4805	80.6811	42.4805	79.5568	42.4805	80.8591	42.4805	79.8488	42.4805	80.9863	42.4805	80.1371	42.4805	81.052	42.4805	80.4081	42.4805	81.0498	42.4805	80.6475	42.4805	80.9783	42.4805	80.8414
43.9453	78.7766	43.9453	78.6818	43.9453	78.8965	43.9453	78.6139	43.9453	79.0397	43.9453	78.5745	43.9453	79.204	43.9453	78.5648	43.9453	79.3872	43.9453	78.5862	43.9453	79.5866	43.9453	78.6399	43.9453	79.7995	43.9453	78.7266	43.9453	80.0228	43.9453	78.847	43.9453	80.2526	43.9453	79.0009	43.9453	80.4838	43.9453	79.1872	43.9453	80.7094	43.9453	79.4036	43.9453	80.9203	43.9453	79.6456	43.9453	81.1052	43.9453	79.9071	43.9453	81.2524	43.9453	80.1795	43.9453	81.3506	43.9453	80.4517	43.9453	81.3911	43.9453	80.7114	43.9453	81.369	43.9453	80.945	43.9453	81.2837	43.9453	81.1396
45.4102	79.159	45.4102	79.0598	45.4102	79.2828	45.4102	78.9868	45.4102	79.4294	45.4102	78.9412	45.4102	79.5964	45.4102	78.9241	45.4102	79.781	45.4102	78.9362	45.4102	79.9799	45.4102	78.9786	45.4102	80.1896	45.4102	79.0519	45.4102	80.406	45.4102	79.1565	45.4102	80.6245	45.4102	79.2925	45.4102	80.8394	45.4102	79.4593	45.4102	81.0438	45.4102	79.6551	45.4102	81.2296	45.4102	79.8765	45.4102	81.3871	45.4102	80.1183	45.4102	81.5062	45.4102	80.3729	45.4102	81.578	45.4102	80.6308	45.4102	81.5952	45.4102	80.8805	45.4102	81.5543	45.4102	81.1093	45.4102	81.456	45.4102	81.3048
46.875	79.5088	46.875	79.4035	46.875	79.6378	46.875	79.3232	46.875	79.7886	46.875	79.2692	46.875	79.9585	46.875	79.2422	46.875	80.1443	46.875	79.2428	46.875	80.3422	46.875	79.2718	46.875	80.5477	46.875	79.3297	46.875	80.7561	46.875	79.4172	46.875	80.9621	46.875	79.5344	46.875	81.1598	46.875	79.6812	46.875	81.3425	46.875	79.8564	46.875	81.5028	46.875	80.0575	46.875	81.6324	46.875	80.2803	46.875	81.7232	46.875	80.5184	46.875	81.7679	46.875	80.7633	46.875	81.761	46.875	81.0043	46.875	81.7004	46.875	81.2299	46.875	81.5876	46.875	81.4279
48.3398	79.6701	48.3398	79.5613	48.3398	79.8034	48.3398	79.4784	48.3398	79.9592	48.3398	79.4223	48.3398	80.1347	48.3398	79.3933	48.3398	80.3262	48.3398	79.392	48.3398	80.5293	48.3398	79.4185	48.3398	80.7388	48.3398	79.4731	48.3398	80.9493	48.3398	79.5561	48.3398	81.1546	48.3398	79.6677	48.3398	81.3483	48.3398	79.8075	48.3398	81.5236	48.3398	79.9747	48.3398	81.6732	48.3398	80.1673	48.3398	81.7895	48.3398	80.3815	48.3398	81.8654	48.3398	80.6117	48.3398	81.8947	48.3398	80.8503	48.3398	81.8735	48.3398	81.0874	48.3398	81.8005	48.3398	81.312	48.3398	81.6783	48.3398	81.5125
51.2695	80.1036	51.2695	79.9877	51.2695	80.242	51.2695	79.8956	51.2695	80.4007	51.2695	79.8279	51.2695	80.5764	51.2695	79.7848	51.2695	80.7649	51.2695	79.7662	51.2695	80.9609	51.2695	79.7721	51.2695	81.1585	51.2695	79.8026	51.2695	81.351	51.2695	79.8578	51.2695	81.5319	51.2695	79.9381	51.2695	81.6944	51.2695	80.0437	51.2695	81.8323	51.2695	80.1748	51.2695	81.9395	51.2695	80.3306	51.2695	82.0106	51.2695	80.5092	51.2695	82.041	51.2695	80.7069	51.2695	82.0274	51.2695	80.9181	51.2695	81.9687	51.2695	81.1352	51.2695	81.8661	51.2695	81.3486	51.2695	81.7236	51.2695	81.5482
52.7344	80.161	52.7344	80.0449	52.7344	80.3015	52.7344	79.9545	52.7344	80.464	52.7344	79.8903	52.7344	80.645	52.7344	79.8521	52.7344	80.84	52.7344	79.8397	52.7344	81.0431	52.7344	79.8525	52.7344	81.2479	52.7344	79.8901	52.7344	81.4473	52.7344	79.9523	52.7344	81.6342	52.7344	80.0387	52.7344	81.8015	52.7344	80.1495	52.7344	81.9424	52.7344	80.2842	52.7344	82.0509	52.7344	80.442	52.7344	82.1217	52.7344	80.621	52.7344	82.1506	52.7344	80.8178	52.7344	82.1348	52.7344	81.0271	52.7344	82.0738	52.7344	81.2418	52.7344	81.9695	52.7344	81.4531	52.7344	81.8263	52.7344	81.6513
54.1992	80.1848	54.1992	80.0745	54.1992	80.3178	54.1992	79.9879	54.1992	80.4716	54.1992	79.9252	54.1992	80.6427	54.1992	79.886	54.1992	80.8265	54.1992	79.8695	54.1992	81.0174	54.1992	79.8751	54.1992	81.2085	54.1992	79.9021	54.1992	81.3926	54.1992	79.9503	54.1992	81.5625	54.1992	80.0196	54.1992	81.7111	54.1992	80.1104	54.1992	81.8323	54.1992	80.223	54.1992	81.9207	54.1992	80.3573	54.1992	81.9722	54.1992	80.5124	54.1992	81.9837	54.1992	80.6862	54.1992	81.9538	54.1992	80.8746	54.1992	81.8827	54.1992	81.0716	54.1992	81.7728	54.1992	81.2692	54.1992	81.6289	54.1992	81.4581
55.6641	80.4048	55.6641	80.2881	55.6641	80.5411	55.6641	80.1923	55.6641	80.6946	55.6641	80.1176	55.6641	80.8618	55.6641	80.0638	55.6641	81.0381	55.6641	80.0305	55.6641	81.2173	55.6641	80.017	55.6641	81.3928	55.6641	80.0231	55.6641	81.5574	55.6641	80.0487	55.6641	81.704	55.6641	80.0941	55.6641	81.8262	55.6641	80.1601	55.6641	81.9184	55.6641	80.2476	55.6641	81.9764	55.6641	80.3572	55.6641	81.9973	55.6641	80.489	55.6641	81.9795	55.6641	80.6417	55.6641	81.923	55.6641	80.8123	55.6641	81.8294	55.6641	80.9959	55.6641	81.7025	55.6641	81.1855	55.6641	81.5477	55.6641	81.3724
58.5938	80.6554	58.5938	80.5292	58.5938	80.8001	58.5938	80.4232	58.5938	80.9607	58.5938	80.338	58.5938	81.1329	58.5938	80.2734	58.5938	81.3112	58.5938	80.2289	58.5938	81.4892	58.5938	80.2038	58.5938	81.6596	58.5938	80.1976	58.5938	81.8147	58.5938	80.21	58.5938	81.9474	58.5938	80.2413	58.5938	82.0515	58.5938	80.2923	58.5938	82.122	58.5938	80.3638	58.5938	82.1554	58.5938	80.457	58.5938	82.1501	58.5938	80.5726	58.5938	82.1059	58.5938	80.7102	58.5938	82.0244	58.5938	80.868	58.5938	81.9088	58.5938	81.0423	58.5938	81.764	58.5938	81.2271	58.5938	81.5967	58.5938	81.4148
60.0586	80.6809	60.0586	80.5518	60.0586	80.8279	60.0586	80.4422	60.0586	80.9899	60.0586	80.3528	60.0586	81.1625	60.0586	80.2834	60.0586	81.34	60.0586	80.2336	60.0586	81.5159	60.0586	80.2025	60.0586	81.6827	60.0586	80.1895	60.0586	81.8326	60.0586	80.1945	60.0586	81.9585	60.0586	80.2176	60.0586	82.0541	60.0586	80.2596	60.0586	82.1146	60.0586	80.3216	60.0586	82.1367	60.0586	80.4051	60.0586	82.1192	60.0586	80.5112	60.0586	82.0625	60.0586	80.64	60.0586	81.9688	60.0586	80.7904	60.0586	81.8422	60.0586	80.9592	60.0586	81.6884	60.0586	81.1413	60.0586	81.5146	60.0586	81.3292
62.9883	80.7461	62.9883	80.6116	62.9883	80.8983	62.9883	80.4968	62.9883	81.0653	62.9883	80.4023	62.9883	81.2424	62.9883	80.3278	62.9883	81.4237	62.9883	80.2727	62.9883	81.6022	62.9883	80.236	62.9883	81.77	62.9883	80.217	62.9883	81.9191	62.9883	80.2151	62.9883	82.042	62.9883	80.2306	62.9883	82.132	62.9883	80.2641	62.9883	82.1842	62.9883	80.3169	62.9883	82.1953	62.9883	80.3908	62.9883	82.1642	62.9883	80.4873	62.9883	82.092	62.9883	80.6076	62.9883	81.9819	62.9883	80.7514	62.9883	81.839	62.9883	80.9165	62.9883	81.6703	62.9883	81.0985	62.9883	81.4844	62.9883	81.2906
64.4531	80.8159	64.4531	80.6799	64.4531	80.9706	64.4531	80.5642	64.4531	81.1408	64.4531	80.4695	64.4531	81.3219	64.4531	80.3954	64.4531	81.5079	64.4531	80.3412	64.4531	81.6915	64.4531	80.3057	64.4531	81.8648	64.4531	80.288	64.4531	82.0196	64.4531	80.2875	64.4531	82.1478	64.4531	80.3042	64.4531	82.2426	64.4531	80.3388	64.4531	82.2984	64.4531	80.3925	64.4531	82.3118	64.4531	80.4672	64.4531	82.2812	64.4531	80.5647	64.4531	82.2076	64.4531	80.6862	64.4531	82.0942	64.4531	80.8317	64.4531	81.9467	64.4531	80.9995	64.4531	81.7725	64.4531	81.1851	64.4531	81.5809	64.4531	81.3818
67.3828	80.864	67.3828	80.7195	67.3828	81.0274	67.3828	80.5958	67.3828	81.2062	67.3828	80.4936	67.3828	81.3954	67.3828	80.4125	67.3828	81.5886	67.3828	80.3518	67.3828	81.7781	67.3828	80.3101	67.3828	81.9555	67.3828	80.2863	67.3828	82.1121	67.3828	80.2797	67.3828	82.2396	67.3828	80.2902	67.3828	82.3308	67.3828	80.3184	67.3828	82.3799	67.3828	80.3657	67.3828	82.3833	67.3828	80.4341	67.3828	82.3398	67.3828	80.5259	67.3828	82.2508	67.3828	80.643	67.3828	82.1204	67.3828	80.7861	67.3828	81.9553	67.3828	80.9542	67.3828	81.7645	67.3828	81.1436	67.3828	81.5584	67.3828	81.3479
68.8477	80.8665	68.8477	80.7178	68.8477	81.0337	68.8477	80.5896	68.8477	81.2156	68.8477	80.4829	68.8477	81.4068	68.8477	80.3976	68.8477	81.6007	68.8477	80.3327	68.8477	81.7895	68.8477	80.2871	68.8477	81.9647	68.8477	80.2596	68.8477	82.1177	68.8477	80.2494	68.8477	82.2403	68.8477	80.2562	68.8477	82.3255	68.8477	80.2806	68.8477	82.3678	68.8477	80.324	68.8477	82.3638	68.8477	80.3885	68.8477	82.3125	68.8477	80.4763	68.8477	82.2158	68.8477	80.5896	68.8477	82.0781	68.8477	80.7294	68.8477	81.9065	68.8477	80.8951	68.8477	81.7105	68.8477	81.0834	68.8477	81.5006	68.8477	81.2881
71.7773	80.9891	71.7773	80.8338	71.7773	81.1606	71.7773	80.6974	71.7773	81.344	71.7773	80.5813	71.7773	81.5338	71.7773	80.4858	71.7773	81.7231	71.7773	80.4103	71.7773	81.904	71.7773	80.3537	71.7773	82.0683	71.7773	80.3149	71.7773	82.2076	71.7773	80.2932	71.7773	82.3142	71.7773	80.2881	71.7773	82.3816	71.7773	80.3001	71.7773	82.4049	71.7773	80.3306	71.7773	82.3814	71.7773	80.3817	71.7773	82.311	71.7773	80.4561	71.7773	82.1961	71.7773	80.5563	71.7773	82.0421	71.7773	80.6842	71.7773	81.8572	71.7773	80.8398	71.7773	81.6514	71.7773	81.021	71.7773	81.4359	71.7773	81.2224
74.707	81.2461	74.707	81.0939	74.707	81.4123	74.707	80.9582	74.707	81.5883	74.707	80.8403	74.707	81.7687	74.707	80.7405	74.707	81.9469	74.707	80.6581	74.707	82.115	74.707	80.5923	74.707	82.2651	74.707	80.542	74.707	82.3888	74.707	80.5065	74.707	82.4789	74.707	80.4857	74.707	82.5289	74.707	80.4805	74.707	82.5346	74.707	80.4925	74.707	82.4937	74.707	80.5243	74.707	82.4067	74.707	80.5792	74.707	82.2767	74.707	80.6606	74.707	82.1099	74.707	80.7712	74.707	81.9152	74.707	80.912	74.707	81.7034	74.707	81.0816	74.707	81.4863	74.707	81.2756
77.6367	81.2497	77.6367	81.0893	77.6367	81.4243	77.6367	80.946	77.6367	81.6086	77.6367	80.8214	77.6367	81.7966	77.6367	80.7158	77.6367	81.9809	77.6367	80.6287	77.6367	82.1535	77.6367	80.5589	77.6367	82.3057	77.6367	80.5053	77.6367	82.4292	77.6367	80.467	77.6367	82.5165	77.6367	80.4437	77.6367	82.5612	77.6367	80.436	77.6367	82.5594	77.6367	80.4456	77.6367	82.509	77.6367	80.4748	77.6367	82.4109	77.6367	80.5272	77.6367	82.2692	77.6367	80.6062	77.6367	82.0906	77.6367	80.715	77.6367	81.8847	77.6367	80.855	77.6367	81.6631	77.6367	81.0255	77.6367	81.4383	77.6367	81.2224
79.1016	81.188	79.1016	81.026	79.1016	81.3641	79.1016	80.8814	79.1016	81.5497	79.1016	80.756	79.1016	81.7386	79.1016	80.6501	79.1016	81.9232	79.1016	80.5633	79.1016	82.0955	79.1016	80.4945	79.1016	82.2468	79.1016	80.4423	79.1016	82.369	79.1016	80.4058	79.1016	82.4545	79.1016	80.3844	79.1016	82.4975	79.1016	80.3785	79.1016	82.4939	79.1016	80.3894	79.1016	82.442	79.1016	80.4196	79.1016	82.3428	79.1016	80.4721	79.1016	82.2003	79.1016	80.5505	79.1016	82.0215	79.1016	80.6579	79.1016	81.8161	79.1016	80.796	79.1016	81.5956	79.1016	80.9641	79.1016	81.3725	79.1016	81.1587
82.0313	81.1442	82.0313	80.9777	82.0313	81.3242	82.0313	80.8284	82.0313	81.5126	82.0313	80.6982	82.0313	81.7032	82.0313	80.588	82.0313	81.8882	82.0313	80.4974	82.0313	82.0596	82.0313	80.4255	82.0313	82.2089	82.0313	80.3709	82.0313	82.3279	82.0313	80.3326	82.0313	82.4094	82.0313	80.3098	82.0313	82.4477	82.0313	80.3028	82.0313	82.4387	82.0313	80.3125	82.0313	82.381	82.0313	80.3413	82.0313	82.2758	82.0313	80.392	82.0313	82.1273	82.0313	80.4681	82.0313	81.9429	82.0313	80.573	82.0313	81.7327	82.0313	80.7086	82.0313	81.5085	82.0313	80.8749	82.0313	81.2831	82.0313	81.0687
84.9609	81.1869	84.9609	81.0158	84.9609	81.3696	84.9609	80.8601	84.9609	81.5585	84.9609	80.7222	84.9609	81.7471	84.9609	80.6033	84.9609	81.9279	84.9609	80.5034	84.9609	82.0929	84.9609	80.4219	84.9609	82.2339	84.9609	80.3577	84.9609	82.3432	84.9609	80.31	84.9609	82.414	84.9609	80.2781	84.9609	82.4411	84.9609	80.2624	84.9609	82.4209	84.9609	80.2639	84.9609	82.3523	84.9609	80.2849	84.9609	82.2367	84.9609	80.3286	84.9609	82.0785	84.9609	80.3985	84.9609	81.8851	84.9609	80.4982	84.9609	81.6669	84.9609	80.6302	84.9609	81.4362	84.9609	80.7948	84.9609	81.2061	84.9609	80.989
87.8906	81.2658	87.8906	81.0955	87.8906	81.4455	87.8906	80.9386	87.8906	81.6293	87.8906	80.7975	87.8906	81.8107	87.8906	80.6735	87.8906	81.9826	87.8906	80.5666	87.8906	82.1374	87.8906	80.476	87.8906	82.2676	87.8906	80.4007	87.8906	82.3666	87.8906	80.3399	87.8906	82.4281	87.8906	80.293	87.8906	82.4474	87.8906	80.2608	87.8906	82.4208	87.8906	80.2449	87.8906	82.3465	87.8906	80.2485	87.8906	82.2247	87.8906	80.2757	87.8906	82.0588	87.8906	80.3316	87.8906	81.8555	87.8906	80.4209	87.8906	81.6251	87.8906	80.5475	87.8906	81.3812	87.8906	80.712	87.8906	81.1385	87.8906	80.9116
90.8203	81.1195	90.8203	80.9423	90.8203	81.3058	90.8203	80.7785	90.8203	81.4952	90.8203	80.6311	90.8203	81.6809	90.8203	80.5016	90.8203	81.8553	90.8203	80.3904	90.8203	82.011	90.8203	80.2966	90.8203	82.1406	90.8203	80.2194	90.8203	82.2375	90.8203	80.1575	90.8203	82.296	90.8203	80.1106	90.8203	82.3118	90.8203	80.079	90.8203	82.2815	90.8203	80.0645	90.8203	82.2036	90.8203	80.0698	90.8203	82.0784	90.8203	80.0991	90.8203	81.9092	90.8203	80.1573	90.8203	81.7028	90.8203	80.2492	90.8203	81.4694	90.8203	80.3782	90.8203	81.2225	90.8203	80.5453	90.8203	80.9771	90.8203	80.7475
95.2148	81.1964	95.2148	81.0106	95.2148	81.3858	95.2148	80.8333	95.2148	81.5724	95.2148	80.6681	95.2148	81.7489	95.2148	80.5172	95.2148	81.9077	95.2148	80.3812	95.2148	82.0411	95.2148	80.26	95.2148	82.142	95.2148	80.1529	95.2148	82.2043	95.2148	80.0592	95.2148	82.2234	95.2148	79.9789	95.2148	82.1962	95.2148	79.9128	95.2148	82.1211	95.2148	79.863	95.2148	81.9984	95.2148	79.8333	95.2148	81.8305	95.2148	79.8287	95.2148	81.6224	95.2148	79.8553	95.2148	81.3824	95.2148	79.9191	95.2148	81.1222	95.2148	80.0254	95.2148	80.8565	95.2148	80.1764	95.2148	80.601	95.2148	80.3706
98.1445	81.1512	98.1445	80.9596	98.1445	81.348	98.1445	80.7787	98.1445	81.5431	98.1445	80.6127	98.1445	81.7287	98.1445	80.4639	98.1445	81.8967	98.1445	80.3332	98.1445	82.039	98.1445	80.2203	98.1445	82.1483	98.1445	80.1243	98.1445	82.2184	98.1445	80.044	98.1445	82.2446	98.1445	79.9787	98.1445	82.224	98.1445	79.9286	98.1445	82.1551	98.1445	79.895	98.1445	82.0385	98.1445	79.8807	98.1445	81.8769	98.1445	79.89	98.1445	81.6754	98.1445	79.9281	98.1445	81.4426	98.1445	80.0004	98.1445	81.1898	98.1445	80.1116	98.1445	80.9314	98.1445	80.264	98.1445	80.6823	98.1445	80.4563
101.074	81.1279	101.074	80.9323	101.074	81.326	101.074	80.7451	101.074	81.5197	101.074	80.5706	101.074	81.701	101.074	80.4117	101.074	81.862	101.074	80.2696	101.074	81.9949	101.074	80.1444	101.074	82.0925	101.074	80.0357	101.074	82.1493	101.074	79.9428	101.074	82.1613	101.074	79.8653	101.074	82.1262	101.074	79.8037	101.074	82.0435	101.074	79.7599	101.074	81.9143	101.074	79.7369	101.074	81.7418	101.074	79.739	101.074	81.5313	101.074	79.7714	101.074	81.2912	101.074	79.8397	101.074	81.0329	101.074	79.9484	101.074	80.7705	101.074	80.0995	101.074	80.5189	101.074	80.2917
105.469	81.0275	105.469	80.8161	105.469	81.2429	105.469	80.6156	105.469	81.4543	105.469	80.4311	105.469	81.653	105.469	80.2661	105.469	81.8305	105.469	80.1223	105.469	81.9786	105.469	80	105.469	82.0902	105.469	79.8985	105.469	82.1598	105.469	79.817	105.469	82.1835	105.469	79.7547	105.469	82.1593	105.469	79.7115	105.469	82.0867	105.469	79.6886	105.469	81.9667	105.469	79.688	105.469	81.8021	105.469	79.7132	105.469	81.598	105.469	79.7683	105.469	81.3624	105.469	79.8576	105.469	81.1064	105.469	79.9845	105.469	80.8435	105.469	80.1505	105.469	80.5882	105.469	80.3538
108.398	81.1174	108.398	80.9025	108.398	81.3333	108.398	80.6962	108.398	81.542	108.398	80.5044	108.398	81.7347	108.398	80.3316	108.398	81.9029	108.398	80.18	108.398	82.0389	108.398	80.0507	108.398	82.1366	108.398	79.9432	108.398	82.1912	108.398	79.8568	108.398	82.2002	108.398	79.7905	108.398	82.1624	108.398	79.7442	108.398	82.0782	108.398	79.7184	108.398	81.9494	108.398	79.7151	108.398	81.779	108.398	79.7371	108.398	81.5722	108.398	79.7882	108.398	81.3366	108.398	79.8725	108.398	81.0831	108.398	79.9933	108.398	80.8248	108.398	80.1525	108.398	80.5757	108.398	80.3484
112.793	81.187	112.793	80.9586	112.793	81.4135	112.793	80.7363	112.793	81.6288	112.793	80.5274	112.793	81.8242	112.793	80.3372	112.793	81.9911	112.793	80.1696	112.793	82.1223	112.793	80.0265	112.793	82.2121	112.793	79.9083	112.793	82.2568	112.793	79.8148	112.793	82.2547	112.793	79.7453	112.793	82.206	112.793	79.6993	112.793	82.1123	112.793	79.6771	112.793	81.9759	112.793	79.68	112.793	81.8002	112.793	79.7098	112.793	81.5902	112.793	79.7696	112.793	81.3529	112.793	79.8625	112.793	81.0984	112.793	79.9911	112.793	80.839	112.793	80.1566	112.793	80.5879	112.793	80.3574
117.188	81.3368	117.188	81.0994	117.188	81.5674	117.188	80.8639	117.188	81.7819	117.188	80.6383	117.188	81.9712	117.188	80.4288	117.188	82.1269	117.188	80.2402	117.188	82.2422	117.188	80.0754	117.188	82.3119	117.188	79.9361	117.188	82.3332	117.188	79.8229	117.188	82.3056	117.188	79.7359	117.188	82.2311	117.188	79.6752	117.188	82.1128	117.188	79.6415	117.188	81.955	117.188	79.6359	117.188	81.7623	117.188	79.6602	117.188	81.5402	117.188	79.7168	117.188	81.2958	117.188	79.8081	117.188	81.0381	117.188	79.9357	117.188	80.7783	117.188	80.1003	117.188	80.5285	117.188	80.2996
120.117	81.3768	120.117	81.1379	120.117	81.6083	120.117	80.901	120.117	81.8231	120.117	80.6742	120.117	82.012	120.117	80.4644	120.117	82.1669	120.117	80.2767	120.117	82.2809	120.117	80.1147	120.117	82.3495	120.117	79.9801	120.117	82.3701	120.117	79.8736	120.117	82.3429	120.117	79.7953	120.117	82.2701	120.117	79.745	120.117	82.1555	120.117	79.7229	120.117	82.0035	120.117	79.7294	120.117	81.8189	120.117	79.7654	120.117	81.6071	120.117	79.8321	120.117	81.3744	120.117	79.9309	120.117	81.1293	120.117	80.0627	120.117	80.882	120.117	80.2271	120.117	80.6429	120.117	80.4221
124.512	81.5899	124.512	81.3496	124.512	81.8171	124.512	81.1053	124.512	82.022	124.512	80.8658	124.512	82.1958	124.512	80.6386	124.512	82.3311	124.512	80.4301	124.512	82.4216	124.512	80.2453	124.512	82.4635	124.512	80.0876	124.512	82.4557	124.512	79.9594	124.512	82.3994	124.512	79.8622	124.512	82.2988	124.512	79.797	124.512	82.1596	124.512	79.7644	124.512	81.988	124.512	79.7646	124.512	81.7903	124.512	79.7976	124.512	81.5726	124.512	79.8631	124.512	81.3411	124.512	79.9604	124.512	81.1031	124.512	80.0888	124.512	80.8668	124.512	80.2468	124.512	80.6406	124.512	80.432
128.906	81.5111	128.906	81.2722	128.906	81.736	128.906	81.028	128.906	81.9376	128.906	80.787	128.906	82.1071	128.906	80.5563	128.906	82.2367	128.906	80.3418	128.906	82.3197	128.906	80.1478	128.906	82.3517	128.906	79.9777	128.906	82.3307	128.906	79.8337	128.906	82.2576	128.906	79.7175	128.906	82.1361	128.906	79.6305	128.906	81.9723	128.906	79.5741	128.906	81.7733	128.906	79.5492	128.906	81.5469	128.906	79.557	128.906	81.3013	128.906	79.5982	128.906	81.045	128.906	79.6733	128.906	80.7875	128.906	79.7824	128.906	80.5386	128.906	79.9255	128.906	80.3074	128.906	80.1013
133.301	81.3861	133.301	81.1457	133.301	81.6102	133.301	80.899	133.301	81.8086	133.301	80.6553	133.301	81.9724	133.301	80.4231	133.301	82.0945	133.301	80.2091	133.301	82.1695	133.301	80.0185	133.301	82.1949	133.301	79.8547	133.301	82.1706	133.301	79.7196	133.301	82.0993	133.301	79.6142	133.301	81.9856	133.301	79.5388	133.301	81.835	133.301	79.4936	133.301	81.6526	133.301	79.4789	133.301	81.4433	133.301	79.4947	133.301	81.2124	133.301	79.5413	133.301	80.9671	133.301	79.619	133.301	80.7168	133.301	79.7283	133.301	80.4726	133.301	79.8696	133.301	80.2451	133.301	80.0425
139.16	81.267	139.16	81.0159	139.16	81.497	139.16	80.7539	139.16	81.6961	139.16	80.4913	139.16	81.8555	139.16	80.2377	139.16	81.9684	139.16	80.0012	139.16	82.0301	139.16	79.7887	139.16	82.0387	139.16	79.6053	139.16	81.9953	139.16	79.4545	139.16	81.9038	139.16	79.3385	139.16	81.7702	139.16	79.2585	139.16	81.6014	139.16	79.2147	139.16	81.4038	139.16	79.2063	139.16	81.1833	139.16	79.2319	139.16	80.9459	139.16	79.2894	139.16	80.6992	139.16	79.3765	139.16	80.4523	139.16	79.4914	139.16	80.2153	139.16	79.6332	139.16	79.9966	139.16	79.8018
143.555	81.1944	143.555	80.9364	143.555	81.4271	143.555	80.6636	143.555	81.6247	143.555	80.3866	143.555	81.7785	143.555	80.1154	143.555	81.882	143.555	79.8593	143.555	81.9308	143.555	79.6258	143.555	81.9234	143.555	79.4215	143.555	81.8615	143.555	79.2509	143.555	81.7501	143.555	79.1177	143.555	81.5962	143.555	79.0242	143.555	81.4078	143.555	78.971	143.555	81.1926	143.555	78.9578	143.555	80.9573	143.555	78.9823	143.555	80.7085	143.555	79.0412	143.555	80.4542	143.555	79.1307	143.555	80.2036	143.555	79.2475	143.555	79.9661	143.555	79.3896	143.555	79.7491	143.555	79.5567
147.949	81.1259	147.949	80.8497	147.949	81.3727	147.949	80.5553	147.949	81.5798	147.949	80.2541	147.949	81.7384	147.949	79.9574	147.949	81.8416	147.949	79.6756	147.949	81.8847	147.949	79.4177	147.949	81.8662	147.949	79.1912	147.949	81.7878	147.949	79.002	147.949	81.6548	147.949	78.8539	147.949	81.4753	147.949	78.7495	147.949	81.2587	147.949	78.6893	147.949	81.0146	147.949	78.6719	147.949	80.7515	147.949	78.6945	147.949	80.4778	147.949	78.7527	147.949	80.2026	147.949	78.842	147.949	79.9359	147.949	78.9585	147.949	79.6874	147.949	79.1006	147.949	79.464	147.949	79.2686
153.809	80.9965	153.809	80.7077	153.809	81.2503	153.809	80.394	153.809	81.46	153.809	80.0661	153.809	81.6179	153.809	79.7353	153.809	81.718	153.809	79.413	153.809	81.7564	153.809	79.1106	153.809	81.7318	153.809	78.8389	153.809	81.6456	153.809	78.6076	153.809	81.5025	153.809	78.425	153.809	81.3095	153.809	78.297	153.809	81.0753	153.809	78.2259	153.809	80.8091	153.809	78.2104	153.809	80.5202	153.809	78.2452	153.809	80.2191	153.809	78.3224	153.809	79.9175	153.809	78.4334	153.809	79.6279	153.809	78.5707	153.809	79.361	153.809	78.7307	153.809	79.1227	153.809	78.9136
159.668	81.0399	159.668	80.7557	159.668	81.2843	159.668	80.4413	159.668	81.481	159.668	80.1067	159.668	81.6232	159.668	79.7631	159.668	81.7063	159.668	79.4221	159.668	81.7277	159.668	79.096	159.668	81.688	159.668	78.7974	159.668	81.5903	159.668	78.5387	159.668	81.4408	159.668	78.3312	159.668	81.2472	159.668	78.1839	159.668	81.0173	159.668	78.1015	159.668	80.7585	159.668	78.0834	159.668	80.4772	159.668	78.1235	159.668	80.1811	159.668	78.2117	159.668	79.8806	159.668	78.3362	159.668	79.5882	159.668	78.4874	159.668	79.3157	159.668	78.6596	159.668	79.0703	159.668	78.8528
165.527	81.2125	165.527	80.9289	165.527	81.45	165.527	80.6075	165.527	81.6343	165.527	80.2572	165.527	81.7593	165.527	79.888	165.527	81.8205	165.527	79.511	165.527	81.8162	165.527	79.1397	165.527	81.748	165.527	78.7895	165.527	81.6215	165.527	78.4782	165.527	81.4464	165.527	78.2246	165.527	81.2354	165.527	78.0454	165.527	81.0012	165.527	77.9521	165.527	80.7541	165.527	77.9469	165.527	80.5003	165.527	78.0221	165.527	80.2433	165.527	78.1619	165.527	79.9855	165.527	78.3463	165.527	79.7307	165.527	78.5567	165.527	79.4823	165.527	78.7795	165.527	79.2418	165.527	79.0082
171.387	81.3691	171.387	81.09	171.387	81.601	171.387	80.7713	171.387	81.7781	171.387	80.4203	171.387	81.8934	171.387	80.0446	171.387	81.9408	171.387	79.6527	171.387	81.9161	171.387	79.255	171.387	81.8176	171.387	78.8656	171.387	81.6479	171.387	78.5029	171.387	81.4145	171.387	78.1892	171.387	81.1299	171.387	77.9486	171.387	80.8116	171.387	77.8009	171.387	80.4792	171.387	77.7559	171.387	80.152	171.387	77.8088	171.387	79.8462	171.387	77.9406	171.387	79.5722	171.387	78.1236	171.387	79.3328	171.387	78.33	171.387	79.1224	171.387	78.5381	171.387	78.9287	171.387	78.7373
177.246	81.4319	177.246	81.1653	177.246	81.6521	177.246	80.8586	177.246	81.8195	177.246	80.5172	177.246	81.9276	177.246	80.1461	177.246	81.9709	177.246	79.7504	177.246	81.9444	177.246	79.3367	177.246	81.8452	177.246	78.915	177.246	81.6724	177.246	78.5007	177.246	81.4282	177.246	78.1158	177.246	81.1186	177.246	77.7882	177.246	80.7541	177.246	77.5465	177.246	80.3503	177.246	77.412	177.246	79.9292	177.246	77.39	177.246	79.5176	177.246	77.4665	177.246	79.1432	177.246	77.612	177.246	78.8257	177.246	77.7928	177.246	78.5685	177.246	77.9822	177.246	78.3572	177.246	78.1683
183.105	81.3106	183.105	81.048	183.105	81.5309	183.105	80.7483	183.105	81.7026	183.105	80.4165	183.105	81.8199	183.105	80.056	183.105	81.8773	183.105	79.6702	183.105	81.8702	183.105	79.2632	183.105	81.795	183.105	78.8421	183.105	81.6492	183.105	78.4189	183.105	81.4315	183.105	78.0132	183.105	81.1419	183.105	77.6517	183.105	80.7828	183.105	77.3648	183.105	80.3613	183.105	77.179	183.105	79.8934	183.105	77.1063	183.105	79.4072	183.105	77.138	183.105	78.941	183.105	77.2472	183.105	78.5331	183.105	77.4002	183.105	78.2053	183.105	77.5706	183.105	77.9528	183.105	77.7505
188.965	81.3035	188.965	81.0781	188.965	81.4872	188.965	80.8154	188.965	81.6244	188.965	80.5183	188.965	81.7105	188.965	80.188	188.965	81.7425	188.965	79.8245	188.965	81.7194	188.965	79.4275	188.965	81.6421	188.965	78.999	188.965	81.5126	188.965	78.5457	188.965	81.3317	188.965	78.082	188.965	81.0967	188.965	77.6328	188.965	80.8	188.965	77.2327	188.965	80.4326	188.965	76.92	188.965	79.9906	188.965	76.7256	188.965	79.4851	188.965	76.6602	188.965	78.9473	188.965	76.7097	188.965	78.4244	188.965	76.8447	188.965	77.9615	188.965	77.0381	188.965	77.5818	188.965	77.2802
196.289	81.0915	196.289	80.862	196.289	81.2833	196.289	80.6048	196.289	81.4277	196.289	80.3274	196.289	81.5164	196.289	80.0348	196.289	81.5448	196.289	79.7285	196.289	81.5124	196.289	79.4077	196.289	81.4235	196.289	79.0718	196.289	81.2858	196.289	78.7221	196.289	81.1076	196.289	78.3656	196.289	80.8935	196.289	78.0159	196.289	80.6407	196.289	77.6944	196.289	80.3408	196.289	77.4272	196.289	79.9855	196.289	77.239	196.289	79.5762	196.289	77.1454	196.289	79.1312	196.289	77.148	196.289	78.6831	196.289	77.2366	196.289	78.2682	196.289	77.3973	196.289	77.9117	196.289	77.6222
203.613	81.0115	203.613	80.7754	203.613	81.2009	203.613	80.5044	203.613	81.3325	203.613	80.2095	203.613	81.3982	203.613	79.8985	203.613	81.3944	203.613	79.576	203.613	81.3227	203.613	79.2438	203.613	81.1904	203.613	78.903	203.613	81.0089	203.613	78.557	203.613	80.79	203.613	78.2142	203.613	80.5416	203.613	77.89	203.613	80.263	203.613	77.6057	203.613	79.9467	203.613	77.3843	203.613	79.586	203.613	77.2434	203.613	79.1859	203.613	77.188	203.613	78.7699	203.613	77.2088	203.613	78.3749	203.613	77.2873	203.613	78.0357	203.613	77.4071	203.613	77.7677	203.613	77.5638
210.938	81.1268	210.938	80.8525	210.938	81.3454	210.938	80.5355	210.938	81.4964	210.938	80.1879	210.938	81.5707	210.938	79.82	210.938	81.563	210.938	79.4388	210.938	81.4735	210.938	79.0489	210.938	81.3088	210.938	78.6537	210.938	81.0821	210.938	78.259	210.938	80.8113	210.938	77.8755	210.938	80.5143	210.938	77.5212	210.938	80.2021	210.938	77.2207	210.938	79.8753	210.938	77.0002	210.938	79.5273	210.938	76.8796	210.938	79.1553	210.938	76.8635	210.938	78.769	210.938	76.9392	210.938	78.3911	210.938	77.0826	210.938	78.0461	210.938	77.2707	210.938	77.7469	210.938	77.4914
218.262	80.9466	218.262	80.6784	218.262	81.1612	218.262	80.37	218.262	81.3101	218.262	80.0344	218.262	81.3845	218.262	79.6826	218.262	81.3803	218.262	79.322	218.262	81.2988	218.262	78.9574	218.262	81.1474	218.262	78.5922	218.262	80.9386	218.262	78.231	218.262	80.687	218.262	77.8829	218.262	80.4041	218.262	77.5632	218.262	80.0934	218.262	77.2924	218.262	79.751	218.262	77.0923	218.262	79.3722	218.262	76.9784	218.262	78.9632	218.262	76.9528	218.262	78.5483	218.262	77.0021	218.262	78.1638	218.262	77.1036	218.262	77.8412	218.262	77.2368	218.262	77.5896	218.262	77.3952
225.586	81.0125	225.586	80.7356	225.586	81.2233	225.586	80.4071	225.586	81.3557	225.586	80.0421	225.586	81.4011	225.586	79.6539	225.586	81.3572	225.586	79.2533	225.586	81.2284	225.586	78.8492	225.586	81.0283	225.586	78.4496	225.586	80.7786	225.586	78.0649	225.586	80.5059	225.586	77.7106	225.586	80.2333	225.586	77.408	225.586	79.9698	225.586	77.1819	225.586	79.7071	225.586	77.0528	225.586	79.4273	225.586	77.0284	225.586	79.12	225.586	77.0973	225.586	78.7942	225.586	77.2324	225.586	78.4766	225.586	77.4015	225.586	78.1954	225.586	77.5805	225.586	77.9612	225.586	77.7631
232.91	81.3055	232.91	81.0105	232.91	81.5311	232.91	80.6598	232.91	81.674	232.91	80.266	232.91	81.7231	232.91	79.8389	232.91	81.6712	232.91	79.386	232.91	81.5165	232.91	78.9131	232.91	81.2649	232.91	78.4277	232.91	80.9315	232.91	77.9436	232.91	80.5415	232.91	77.4847	232.91	80.1267	232.91	77.0866	232.91	79.7171	232.91	76.7924	232.91	79.3318	232.91	76.6384	232.91	78.9769	232.91	76.6369	232.91	78.6533	232.91	76.766	232.91	78.3668	232.91	76.9768	232.91	78.1273	232.91	77.2137	232.91	77.9364	232.91	77.4337	232.91	77.777	232.91	77.6187
241.699	81.1712	241.699	80.8885	241.699	81.394	241.699	80.5613	241.699	81.5428	241.699	80.2031	241.699	81.6068	241.699	79.8228	241.699	81.5801	241.699	79.4238	241.699	81.463	241.699	79.0048	241.699	81.2623	241.699	78.5629	241.699	80.9907	241.699	78.0992	241.699	80.6648	241.699	77.6252	241.699	80.3	241.699	77.1677	241.699	79.9058	241.699	76.7699	241.699	79.4848	241.699	76.4828	241.699	79.039	241.699	76.3456	241.699	78.5824	241.699	76.3632	241.699	78.1477	241.699	76.5003	241.699	77.7755	241.699	76.6982	241.699	77.489	241.699	76.9041	241.699	77.2749	241.699	77.0927
250.488	81.0745	250.488	80.7571	250.488	81.314	250.488	80.3802	250.488	81.4604	250.488	79.9623	250.488	81.5041	250.488	79.5187	250.488	81.4422	250.488	79.0593	250.488	81.2801	250.488	78.588	250.488	81.0313	250.488	78.1057	250.488	80.7164	250.488	77.6156	250.488	80.3584	250.488	77.1302	250.488	79.9748	250.488	76.6768	250.488	79.5694	250.488	76.2977	250.488	79.1322	250.488	76.0399	250.488	78.6521	250.488	75.9342	250.488	78.1386	250.488	75.974	250.488	77.6353	250.488	76.1136	250.488	77.2078	250.488	76.2898	250.488	76.9035	250.488	76.4517	250.488	76.714	250.488	76.5837
259.277	81.4968	259.277	81.2066	259.277	81.7092	259.277	80.8538	259.277	81.8306	259.277	80.4535	259.277	81.8525	259.277	80.0177	259.277	81.7723	259.277	79.5528	259.277	81.5948	259.277	79.0602	259.277	81.3331	259.277	78.5387	259.277	81.0084	259.277	77.9894	259.277	80.6476	259.277	77.4233	259.277	80.2753	259.277	76.8684	259.277	79.9025	259.277	76.3737	259.277	79.5204	259.277	76.0026	259.277	79.1086	259.277	75.8093	259.277	78.6551	259.277	75.808	259.277	78.1758	259.277	75.9602	259.277	77.7138	259.277	76.1971	259.277	77.3137	259.277	76.4577	259.277	76.9897	259.277	76.7168
268.066	80.9668	268.066	80.6679	268.066	81.1951	268.066	80.3196	268.066	81.3347	268.066	79.9419	268.066	81.3733	268.066	79.5497	268.066	81.3059	268.066	79.149	268.066	81.136	268.066	78.7374	268.066	80.8767	268.066	78.3079	268.066	80.5504	268.066	77.8561	268.066	80.186	268.066	77.3888	268.066	79.8116	268.066	76.9319	268.066	79.4428	268.066	76.5337	268.066	79.0773	268.066	76.2558	268.066	78.7036	268.066	76.1483	268.066	78.3217	268.066	76.2181	268.066	77.9573	268.066	76.4188	268.066	77.6513	268.066	76.6739	268.066	77.4263	268.066	76.9145	268.066	77.2621	268.066	77.1069
276.855	81.0765	276.855	80.7836	276.855	81.2832	276.855	80.4199	276.855	81.3918	276.855	80.002	276.855	81.3962	276.855	79.5442	276.855	81.2968	276.855	79.0561	276.855	81.1016	276.855	78.5411	276.855	80.8257	276.855	77.9992	276.855	80.4904	276.855	77.4319	276.855	80.1184	276.855	76.8507	276.855	79.7257	276.855	76.2861	276.855	79.3127	276.855	75.7921	276.855	78.8638	276.855	75.4377	276.855	78.3606	276.855	75.2771	276.855	77.8073	276.855	75.3123	276.855	77.2491	276.855	75.4845	276.855	76.7641	276.855	75.7053	276.855	76.4162	276.855	75.9037	276.855	76.2028	276.855	76.0575
287.109	81.119	287.109	80.8608	287.109	81.2952	287.109	80.5392	287.109	81.3733	287.109	80.1709	287.109	81.3434	287.109	79.7659	287.109	81.204	287.109	79.3244	287.109	80.9639	287.109	78.8371	287.109	80.6434	287.109	78.2896	287.109	80.2734	287.109	77.6704	287.109	79.89	287.109	76.9811	287.109	79.5206	287.109	76.25	287.109	79.1673	287.109	75.5462	287.109	78.8028	287.109	74.9805	287.109	78.3882	287.109	74.6693	287.109	77.9053	287.109	74.6604	287.109	77.3807	287.109	74.8903	287.109	76.88	287.109	75.2307	287.109	76.4654	287.109	75.5718	287.109	76.1454	287.109	75.8688
297.363	80.9161	297.363	80.6742	297.363	81.0828	297.363	80.3824	297.363	81.1528	297.363	80.0628	297.363	81.1127	297.363	79.7276	297.363	80.96	297.363	79.3749	297.363	80.7057	297.363	78.9886	297.363	80.3754	297.363	78.5449	297.363	80.008	297.363	78.0209	297.363	79.6471	297.363	77.4055	297.363	79.3221	297.363	76.7115	297.363	79.0286	297.363	75.9902	297.363	78.7278	297.363	75.3414	297.363	78.3713	297.363	74.8968	297.363	77.9373	297.363	74.7535	297.363	77.4524	297.363	74.8989	297.363	76.9795	297.363	75.2191	297.363	76.574	297.363	75.5853	297.363	76.2383	297.363	75.925
307.617	81.2418	307.617	80.9613	307.617	81.4409	307.617	80.6385	307.617	81.5255	307.617	80.3091	307.617	81.4734	307.617	79.9938	307.617	81.2771	307.617	79.6914	307.617	80.9461	307.617	79.3789	307.617	80.5114	307.617	79.0212	307.617	80.0274	307.617	78.5832	307.617	79.5647	307.617	78.0409	307.617	79.1812	307.617	77.3922	307.617	78.8819	307.617	76.6682	307.617	78.606	307.617	75.9471	307.617	78.2671	307.617	75.3527	307.617	77.8142	307.617	75.011	307.617	77.2708	307.617	74.9665	307.617	76.7275	307.617	75.1433	307.617	76.2796	307.617	75.4111	307.617	75.9495	307.617	75.6809
319.336	81.2443	319.336	80.8353	319.336	81.5524	319.336	80.3811	319.336	81.7198	319.336	79.9454	319.336	81.7231	319.336	79.5813	319.336	81.5543	319.336	79.3095	319.336	81.2207	319.336	79.1082	319.336	80.7492	319.336	78.9253	319.336	80.1939	319.336	78.7018	319.336	79.6402	319.336	78.3924	319.336	79.1861	319.336	77.9775	319.336	78.8887	319.336	77.471	319.336	78.7139	319.336	76.9272	319.336	78.5571	319.336	76.4407	319.336	78.322	319.336	76.1189	319.336	77.9812	319.336	76.0239	319.336	77.5811	319.336	76.1284	319.336	77.1981	319.336	76.345	319.336	76.8751	319.336	76.5994
329.59	81.7612	329.59	81.3051	329.59	82.0833	329.59	80.7589	329.59	82.2447	329.59	80.1841	329.59	82.2326	329.59	79.6502	329.59	82.0438	329.59	79.2132	329.59	81.6844	329.59	78.89	329.59	81.1711	329.59	78.6508	329.59	80.5384	329.59	78.437	329.59	79.8494	329.59	78.19	329.59	79.198	329.59	77.8741	329.59	78.6814	329.59	77.4883	329.59	78.3389	329.59	77.0722	329.59	78.1186	329.59	76.7014	329.59	77.9259	329.59	76.4614	329.59	77.7016	329.59	76.3991	329.59	77.452	329.59	76.4892	329.59	77.2174	329.59	76.6575	329.59	77.019	329.59	76.8397
341.309	81.5672	341.309	81.1319	341.309	81.8681	341.309	80.6042	341.309	82.011	341.309	80.0448	341.309	81.9867	341.309	79.5244	341.309	81.7984	341.309	79.1029	341.309	81.4594	341.309	78.8032	341.309	80.9956	341.309	78.6012	341.309	80.4478	341.309	78.4426	341.309	79.8754	341.309	78.2724	341.309	79.3511	341.309	78.0579	341.309	78.938	341.309	77.8	341.309	78.6569	341.309	77.5342	341.309	78.4758	341.309	77.3214	341.309	78.3408	341.309	77.2206	341.309	78.2156	341.309	77.2546	341.309	78.0946	341.309	77.3924	341.309	77.9823	341.309	77.5715	341.309	77.8706	341.309	77.7377
353.027	81.6661	353.027	81.1542	353.027	81.9976	353.027	80.4943	353.027	82.1336	353.027	79.7425	353.027	82.0712	353.027	78.9812	353.027	81.8167	353.027	78.3062	353.027	81.3849	353.027	77.7926	353.027	80.8018	353.027	77.4557	353.027	80.1091	353.027	77.2477	353.027	79.3718	353.027	77.0952	353.027	78.6773	353.027	76.9438	353.027	78.1133	353.027	76.7834	353.027	77.7268	353.027	76.6504	353.027	77.505	353.027	76.6091	353.027	77.4065	353.027	76.7099	353.027	77.4028	353.027	76.9445	353.027	77.476	353.027	77.2405	353.027	77.5875	353.027	77.5004	353.027	77.6686	353.027	77.6504
366.211	81.8057	366.211	81.3232	366.211	82.1082	366.211	80.6855	366.211	82.2192	366.211	79.9352	366.211	82.1377	366.211	79.1351	366.211	81.8722	366.211	78.3649	366.211	81.4402	366.211	77.7005	366.211	80.8702	366.211	77.1842	366.211	80.2029	366.211	76.8057	366.211	79.4903	366.211	76.5182	366.211	78.7886	366.211	76.2759	366.211	78.139	366.211	76.0668	366.211	77.5537	366.211	75.9233	366.211	77.0306	366.211	75.904	366.211	76.5981	366.211	76.045	366.211	76.336	366.211	76.3135	366.211	76.3138	366.211	76.6097	366.211	76.4921	366.211	76.8177	366.211	76.724	366.211	76.8586
379.395	82.1985	379.395	81.7693	379.395	82.4567	379.395	81.1885	379.395	82.5345	379.395	80.4869	379.395	82.4306	379.395	79.7089	379.395	82.1513	379.395	78.9102	379.395	81.71	379.395	78.1486	379.395	81.1269	379.395	77.4672	379.395	80.4302	379.395	76.8785	379.395	79.6594	379.395	76.367	379.395	78.8684	379.395	75.9113	379.395	78.1236	379.395	75.5149	379.395	77.4884	379.395	75.2243	379.395	77.0015	379.395	75.1137	379.395	76.6701	379.395	75.2275	379.395	76.4823	379.395	75.5245	379.395	76.4156	379.395	75.889	379.395	76.4263	379.395	76.1994	379.395	76.4428	379.395	76.3849
392.578	81.6588	392.578	81.2436	392.578	81.9039	392.578	80.682	392.578	81.9689	392.578	80.0125	392.578	81.8568	392.578	79.2863	392.578	81.5828	392.578	78.5607	392.578	81.1729	392.578	77.8861	392.578	80.6608	392.578	77.2893	392.578	80.0824	392.578	76.7676	392.578	79.468	392.578	76.2994	392.578	78.8348	392.578	75.8677	392.578	78.1879	392.578	75.4862	392.578	77.5373	392.578	75.2129	392.578	76.9286	392.578	75.132	392.578	76.4597	392.578	75.2936	392.578	76.2364	392.578	75.653	392.578	76.273	392.578	76.0812	392.578	76.4538	392.578	76.4363	392.578	76.6119	392.578	76.6224
405.762	81.1144	405.762	80.6714	405.762	81.3579	405.762	80.0606	405.762	81.3889	405.762	79.334	405.762	81.2117	405.762	78.5632	405.762	80.849	405.762	77.8294	405.762	80.3427	405.762	77.1998	405.762	79.7528	405.762	76.7004	405.762	79.1488	405.762	76.3094	405.762	78.5879	405.762	75.9819	405.762	78.0864	405.762	75.6882	405.762	77.6119	405.762	75.4437	405.762	77.1189	405.762	75.3159	405.762	76.6193	405.762	75.3905	405.762	76.2305	405.762	75.6994	405.762	76.118	405.762	76.1695	405.762	76.3241	405.762	76.654	405.762	76.6958	405.762	77.0082	405.762	77.0163	405.762	77.138
420.41	81.6603	420.41	81.2211	420.41	81.8853	420.41	80.5893	420.41	81.8877	420.41	79.8024	420.41	81.6715	420.41	78.9148	420.41	81.2537	420.41	77.9963	420.41	80.6649	420.41	77.1181	420.41	79.9498	420.41	76.3288	420.41	79.1639	420.41	75.6335	420.41	78.3635	420.41	75.0009	420.41	77.5848	420.41	74.4038	420.41	76.8259	420.41	73.8754	420.41	76.0628	420.41	73.55	420.41	75.3201	420.41	73.6154	420.41	74.7616	420.41	74.1324	420.41	74.6461	420.41	74.9201	420.41	75.0394	420.41	75.6921	420.41	75.6704	420.41	76.2255	420.41	76.1939	420.41	76.402
435.059	81.3079	435.059	80.8808	435.059	81.5097	435.059	80.262	435.059	81.4721	435.059	79.5061	435.059	81.2022	435.059	78.6868	435.059	80.7311	435.059	77.887	435.059	80.1195	435.059	77.1729	435.059	79.4583	435.059	76.5649	435.059	78.85	435.059	76.0279	435.059	78.3605	435.059	75.4952	435.059	77.9649	435.059	74.9107	435.059	77.5469	435.059	74.2728	435.059	76.9685	435.059	73.6827	435.059	76.172	435.059	73.3598	435.059	75.2846	435.059	73.5143	435.059	74.6571	435.059	74.1018	435.059	74.6057	435.059	74.8251	435.059	75.0031	435.059	75.381	435.059	75.4345	435.059	75.5967
451.172	81.5988	451.172	81.1133	451.172	81.8234	451.172	80.4043	451.172	81.7662	451.172	79.5293	451.172	81.4218	451.172	78.5693	451.172	80.8033	451.172	77.6232	451.172	79.9512	451.172	76.7808	451.172	78.9459	451.172	76.0816	451.172	77.9195	451.172	75.4925	451.172	77.0376	451.172	74.9312	451.172	76.4132	451.172	74.3207	451.172	76.0067	451.172	73.6497	451.172	75.6582	451.172	73.0422	451.172	75.254	451.172	72.7851	451.172	74.8632	451.172	73.1319	451.172	74.7166	451.172	73.9658	451.172	74.9563	451.172	74.8919	451.172	75.423	451.172	75.5858	451.172	75.8116	451.172	75.8979
465.82	81.3864	465.82	80.8839	465.82	81.603	465.82	80.1307	465.82	81.5199	465.82	79.1902	465.82	81.1432	465.82	78.1621	465.82	80.5026	465.82	77.1799	465.82	79.6571	465.82	76.3718	465.82	78.7021	465.82	75.7874	465.82	77.7625	465.82	75.3561	465.82	76.9511	465.82	74.9302	465.82	76.2885	465.82	74.3615	465.82	75.6597	465.82	73.5586	465.82	74.8821	465.82	72.5566	465.82	73.8669	465.82	71.6643	465.82	72.8348	465.82	71.4925	465.82	72.4103	465.82	72.281	465.82	72.9458	465.82	73.453	465.82	73.8973	465.82	74.3853	465.82	74.6107	465.82	74.7949
483.398	81.7033	483.398	81.1642	483.398	81.8904	483.398	80.3072	483.398	81.7115	483.398	79.1986	483.398	81.1723	483.398	77.9584	483.398	80.3056	483.398	76.7753	483.398	79.1926	483.398	75.8644	483.398	77.9948	483.398	75.3314	483.398	76.9565	483.398	75.0745	483.398	76.2808	483.398	74.8676	483.398	75.9078	483.398	74.4949	483.398	75.5068	483.398	73.8011	483.398	74.7137	483.398	72.7128	483.398	73.3448	483.398	71.3611	483.398	71.6911	483.398	70.4032	483.398	70.9444	483.398	70.7668	483.398	71.8257	483.398	72.1129	483.398	73.1472	483.398	73.379	483.398	73.9646	483.398	74.0428
499.512	83.1474	499.512	82.5695	499.512	83.3455	499.512	81.6312	499.512	83.1495	499.512	80.3631	499.512	82.5482	499.512	78.8244	499.512	81.5361	499.512	77.1441	499.512	80.1256	499.512	75.5818	499.512	78.3917	499.512	74.5066	499.512	76.5927	499.512	74.1227	499.512	75.2978	499.512	74.2271	499.512	74.9674	499.512	74.4322	499.512	75.1914	499.512	74.4405	499.512	75.1822	499.512	74.0711	499.512	74.435	499.512	73.2105	499.512	72.6766	499.512	71.8089	499.512	69.7468	499.512	69.978	499.512	66.0318	499.512	68.1985	499.512	64.2774	499.512	67.1166	499.512	65.428	499.512	66.4865
517.09	82.6812	517.09	82.1483	517.09	82.9022	517.09	81.3277	517.09	82.7921	517.09	80.2491	517.09	82.3383	517.09	78.9499	517.09	81.538	517.09	77.4868	517.09	80.4052	517.09	75.9605	517.09	78.9869	517.09	74.5475	517.09	77.4004	517.09	73.4888	517.09	75.8896	517.09	72.9581	517.09	74.8066	517.09	72.9024	517.09	74.3299	517.09	73.093	517.09	74.2098	517.09	73.311	517.09	74.0429	517.09	73.4395	517.09	73.6215	517.09	73.4563	517.09	73.0043	517.09	73.3883	517.09	72.4544	517.09	73.257	517.09	72.249	517.09	73.0488	517.09	72.4162	517.09	72.7474
536.133	81.9591	536.133	81.3936	536.133	82.1519	536.133	80.4891	536.133	81.9502	536.133	79.2973	536.133	81.3426	536.133	77.8988	536.133	80.3339	536.133	76.4174	536.133	78.9668	536.133	75.0268	536.133	77.371	536.133	73.9177	536.133	75.84	536.133	73.204	536.133	74.8027	536.133	72.8444	536.133	74.4547	536.133	72.6861	536.133	74.4719	536.133	72.5818	536.133	74.3861	536.133	72.4728	536.133	73.9874	536.133	72.4204	536.133	73.4259	536.133	72.5641	536.133	73.1196	536.133	72.9763	536.133	73.3206	536.133	73.5417	536.133	73.7982	536.133	74.0354	536.133	74.1833	536.133	74.2752
555.176	82.5453	555.176	81.9381	555.176	82.7571	555.176	80.9762	555.176	82.5394	555.176	79.7122	555.176	81.8606	555.176	78.2211	555.176	80.6916	555.176	76.6161	555.176	79.009	555.176	75.0684	555.176	76.818	555.176	73.7987	555.176	74.2554	555.176	72.9825	555.176	71.9344	555.176	72.6118	555.176	71.0524	555.176	72.4921	555.176	71.5748	555.176	72.387	555.176	72.1369	555.176	72.1428	555.176	72.0063	555.176	71.7604	555.176	71.2097	555.176	71.4467	555.176	70.4847	555.176	71.519	555.176	70.8073	555.176	72.0344	555.176	71.8549	555.176	72.6469	555.176	72.6927	555.176	72.9472
574.219	82.2626	574.219	81.6406	574.219	82.4862	574.219	80.6581	574.219	82.282	574.219	79.3643	574.219	81.628	574.219	77.8233	574.219	80.5119	574.219	76.1225	574.219	78.9383	574.219	74.3944	574.219	76.9489	574.219	72.8589	574.219	74.6775	574.219	71.8227	574.219	72.4818	574.219	71.4988	574.219	71.0218	574.219	71.7601	574.219	70.6587	574.219	72.2449	574.219	70.8377	574.219	72.6483	574.219	70.8973	574.219	72.8407	574.219	70.7116	574.219	72.8655	574.219	70.6426	574.219	72.8854	574.219	71.1162	574.219	73.0286	574.219	72.0009	574.219	73.2151	574.219	72.7977	574.219	73.2036
594.727	81.9847	594.727	81.3977	594.727	82.181	594.727	80.4622	594.727	81.9565	594.727	79.2356	594.727	81.291	594.727	77.7923	594.727	80.1737	594.727	76.2252	594.727	78.6075	594.727	74.6516	594.727	76.6229	594.727	73.2292	594.727	74.3199	594.727	72.1595	594.727	71.9874	594.727	71.6108	594.727	70.2672	594.727	71.5667	594.727	69.7535	594.727	71.8055	594.727	70.0619	594.727	72.0728	594.727	70.3938	594.727	72.2334	594.727	70.4021	594.727	72.309	594.727	70.2264	594.727	72.412	594.727	70.3375	594.727	72.5857	594.727	71.0106	594.727	72.6906	594.727	71.8885	594.727	72.4989
615.234	82.2913	615.234	81.698	615.234	82.4638	615.234	80.73	615.234	82.182	615.234	79.4488	615.234	81.422	615.234	77.9311	615.234	80.1713	615.234	76.2629	615.234	78.4416	615.234	74.5375	615.234	76.3049	615.234	72.8824	615.234	73.9863	615.234	71.5184	615.234	72.0017	615.234	70.7379	615.234	70.9498	615.234	70.6421	615.234	70.687	615.234	70.95	615.234	70.4093	615.234	71.2682	615.234	69.5613	615.234	71.4045	615.234	68.3079	615.234	71.4506	615.234	67.9513	615.234	71.6786	615.234	69.3441	615.234	72.1978	615.234	71.1558	615.234	72.7346	615.234	72.3989	615.234	72.8912
637.207	81.7347	637.207	81.1817	637.207	81.846	637.207	80.2238	637.207	81.4931	637.207	78.9251	637.207	80.6605	637.207	77.3943	637.207	79.3353	637.207	75.7956	637.207	77.5076	637.207	74.3269	637.207	75.1883	637.207	73.1552	637.207	72.4871	637.207	72.3576	637.207	69.8653	637.207	71.9223	637.207	68.4027	637.207	71.7777	637.207	68.6173	637.207	71.8131	637.207	69.4421	637.207	71.9163	637.207	69.9632	637.207	72.0391	637.207	70.0398	637.207	72.236	637.207	70.0848	637.207	72.5904	637.207	70.6804	637.207	73.0511	637.207	71.7794	637.207	73.3918	637.207	72.7995	637.207	73.3566
659.18	82.6543	659.18	82.1586	659.18	82.729	659.18	81.2588	659.18	82.3703	659.18	79.9811	659.18	81.5666	659.18	78.3672	659.18	80.3044	659.18	76.4829	659.18	78.5689	659.18	74.4393	659.18	76.3519	659.18	72.4529	659.18	73.6716	659.18	70.9524	659.18	70.6608	659.18	70.467	659.18	67.9817	659.18	71.0012	659.18	67.2194	659.18	71.9333	659.18	68.2336	659.18	72.7005	659.18	69.0575	659.18	73.0644	659.18	68.856	659.18	73.0625	659.18	68.0545	659.18	72.9627	659.18	68.5154	659.18	73.0623	659.18	70.5603	659.18	73.2884	659.18	72.3381	659.18	73.1931
682.617	82.2694	682.617	81.8069	682.617	82.2614	682.617	80.8934	682.617	81.7774	682.617	79.5746	682.617	80.821	682.617	77.9398	682.617	79.4054	682.617	76.1341	682.617	77.5602	682.617	74.3342	682.617	75.346	682.617	72.6891	682.617	72.8858	682.617	71.3069	682.617	70.4318	682.617	70.366	682.617	68.4777	682.617	70.1616	682.617	67.6566	682.617	70.7608	682.617	67.9429	682.617	71.751	682.617	68.4872	682.617	72.6464	682.617	68.6448	682.617	73.2183	682.617	68.5092	682.617	73.466	682.617	68.9003	682.617	73.4767	682.617	70.213	682.617	73.2703	682.617	71.6891	682.617	72.727
707.52	82.5708	707.52	82.1838	707.52	82.4617	707.52	81.315	707.52	81.8509	707.52	79.9958	707.52	80.7366	707.52	78.2861	707.52	79.1191	707.52	76.2868	707.52	77.0109	707.52	74.1409	707.52	74.4744	707.52	72.0136	707.52	71.7069	707.52	70.0852	707.52	69.1837	707.52	68.6375	707.52	67.6711	707.52	68.1164	707.52	67.5885	707.52	68.691	707.52	68.376	707.52	69.8558	707.52	69.1724	707.52	71.0345	707.52	69.5354	707.52	72.0197	707.52	69.6743	707.52	72.8416	707.52	70.3555	707.52	73.5173	707.52	71.7485	707.52	73.9168	707.52	73.0817	707.52	73.8249
732.422	82.7462	732.422	82.3656	732.422	82.6293	732.422	81.503	732.422	82.0011	732.422	80.1822	732.422	80.8486	732.422	78.4492	732.422	79.1656	732.422	76.3951	732.422	76.9681	732.422	74.1803	732.422	74.319	732.422	72.0318	732.422	71.3572	732.422	70.1832	732.422	68.3575	732.422	68.8107	732.422	65.9994	732.422	68.0918	732.422	65.5692	732.422	68.2499	732.422	66.9762	732.422	69.239	732.422	68.4564	732.422	70.6	732.422	69.0901	732.422	71.8927	732.422	69.0645	732.422	72.9174	732.422	69.5088	732.422	73.6014	732.422	71.0101	732.422	73.8638	732.422	72.5975	732.422	73.5723
757.324	83.0726	757.324	82.6113	757.324	82.9546	757.324	81.6034	757.324	82.2269	757.324	80.091	757.324	80.8648	757.324	78.1477	757.324	78.8656	757.324	75.9203	757.324	76.2837	757.324	73.6747	757.324	73.2844	757.324	71.7614	757.324	70.1662	757.324	70.4015	757.324	67.2153	757.324	69.478	757.324	64.6391	757.324	68.6892	757.324	63.5212	757.324	67.9473	757.324	65.0342	757.324	67.6815	757.324	67.0697	757.324	68.4404	757.324	68.0429	757.324	69.9205	757.324	68.1058	757.324	71.4124	757.324	68.638	757.324	72.5261	757.324	70.3488	757.324	73.0912	757.324	72.0423	757.324	72.9723
785.156	83.0019	785.156	82.5302	785.156	82.8952	785.156	81.525	785.156	82.1743	785.156	80.0468	785.156	80.8109	785.156	78.1842	785.156	78.7874	785.156	76.0694	785.156	76.1067	785.156	73.891	785.156	72.8358	785.156	71.8953	785.156	69.2337	785.156	70.3611	785.156	65.8997	785.156	69.4848	785.156	63.5962	785.156	69.1873	785.156	63.0946	785.156	69.1319	785.156	64.5754	785.156	69.026	785.156	66.5897	785.156	68.9326	785.156	68.0018	785.156	69.3923	785.156	68.9602	785.156	70.7528	785.156	70.3444	785.156	72.4293	785.156	72.1772	785.156	73.6738	785.156	73.5907	785.156	74.1077
811.523	82.5705	811.523	82.133	811.523	82.4391	811.523	81.1815	811.523	81.6959	811.523	79.774	811.523	80.3188	811.523	77.9681	811.523	78.3168	811.523	75.8334	811.523	75.764	811.523	73.4844	811.523	72.882	811.523	71.1497	811.523	70.041	811.523	69.2781	811.523	67.318	811.523	68.3879	811.523	64.1776	811.523	68.4211	811.523	61.4779	811.523	68.8129	811.523	63.5764	811.523	69.2492	811.523	66.6428	811.523	69.7895	811.523	67.9252	811.523	70.5431	811.523	67.6611	811.523	71.4167	811.523	67.468	811.523	72.1644	811.523	69.0835	811.523	72.5215	811.523	71.073	811.523	72.2336
840.82	82.5371	840.82	82.0723	840.82	82.4329	840.82	81.1054	840.82	81.7125	840.82	79.7272	840.82	80.3393	840.82	78.0517	840.82	78.2818	840.82	76.2084	840.82	75.5418	840.82	74.3258	840.82	72.293	840.82	72.5088	840.82	69.1877	840.82	70.8368	840.82	67.0847	840.82	69.3834	840.82	65.7065	840.82	68.2117	840.82	64.3918	840.82	67.3514	840.82	63.6403	840.82	66.8904	840.82	64.0951	840.82	67.1208	840.82	64.8035	840.82	68.2763	840.82	65.5776	840.82	70.0075	840.82	67.6945	840.82	71.6589	840.82	70.4101	840.82	72.7607	840.82	72.2944	840.82	73.0386
870.117	82.0717	870.117	81.6731	870.117	81.9344	870.117	80.7908	870.117	81.2207	870.117	79.4894	870.117	79.8985	870.117	77.8489	870.117	77.9453	870.117	75.9745	870.117	75.3703	870.117	74.0271	870.117	72.2939	870.117	72.2816	870.117	69.0971	870.117	71.1101	870.117	66.3404	870.117	70.6398	870.117	64.2758	870.117	70.5047	870.117	63.6385	870.117	70.2718	870.117	65.3004	870.117	69.8381	870.117	67.317	870.117	69.4133	870.117	68.1338	870.117	69.2686	870.117	67.7679	870.117	69.5272	870.117	67.7696	870.117	70.1543	870.117	69.2855	870.117	70.8867	870.117	70.7481	870.117	71.2391
900.879	82.2258	900.879	81.8377	900.879	82.042	900.879	80.9625	900.879	81.231	900.879	79.7118	900.879	79.7576	900.879	78.1935	900.879	77.6068	900.879	76.4628	900.879	74.8281	900.879	74.501	900.879	71.7363	900.879	72.283	900.879	69.2202	900.879	70.0714	900.879	67.8706	900.879	68.8853	900.879	66.8541	900.879	69.2861	900.879	65.8663	900.879	69.9916	900.879	66.1316	900.879	70.0205	900.879	67.2806	900.879	69.4585	900.879	67.5116	900.879	69.2807	900.879	66.6164	900.879	70.2	900.879	66.7518	900.879	71.4224	900.879	68.9466	900.879	72.1131	900.879	70.956	900.879	71.9951
933.105	82.1109	933.105	81.8909	933.105	81.7761	933.105	81.1623	933.105	80.875	933.105	80.007	933.105	79.4229	933.105	78.5297	933.105	77.4615	933.105	76.8321	933.105	75.0797	933.105	74.9945	933.105	72.4721	933.105	73.0921	933.105	70.0045	933.105	71.2966	933.105	68.0764	933.105	69.9859	933.105	66.7905	933.105	69.4129	933.105	66.2286	933.105	69.2137	933.105	66.6771	933.105	68.9307	933.105	67.6087	933.105	68.69	933.105	68.0249	933.105	69.0142	933.105	67.7341	933.105	69.9024	933.105	67.757	933.105	70.7848	933.105	68.9408	933.105	71.2526	933.105	70.3337	933.105	71.1352
965.332	82.3245	965.332	82.0141	965.332	82.033	965.332	81.1579	965.332	81.1214	965.332	79.878	965.332	79.5922	965.332	78.365	965.332	77.4798	965.332	76.8046	965.332	74.924	965.332	75.2586	965.332	72.3699	965.332	73.6384	965.332	70.5548	965.332	71.825	965.332	69.3704	965.332	69.9963	965.332	67.6106	965.332	69.0299	965.332	65.237	965.332	69.3153	965.332	66.3007	965.332	69.7007	965.332	68.8805	965.332	69.4819	965.332	69.4508	965.332	69.1245	965.332	67.9753	965.332	69.512	965.332	66.1479	965.332	70.3675	965.332	66.9412	965.332	70.7708	965.332	68.9204	965.332	70.2995
1,000.49	82.5205	1,000.49	82.3441	1,000.49	82.0451	1,000.49	81.5488	1,000.49	80.923	1,000.49	80.2222	1,000.49	79.1984	1,000.49	78.5173	1,000.49	76.9844	1,000.49	76.6298	1,000.49	74.5269	1,000.49	74.7223	1,000.49	72.2601	1,000.49	72.8584	1,000.49	70.6181	1,000.49	71.1118	1,000.49	69.4948	1,000.49	69.8812	1,000.49	68.3833	1,000.49	69.6439	1,000.49	67.4401	1,000.49	69.9113	1,000.49	67.6066	1,000.49	69.7779	1,000.49	68.2679	1,000.49	69.0113	1,000.49	67.8916	1,000.49	68.3885	1,000.49	66.0724	1,000.49	69.0028	1,000.49	64.6713	1,000.49	70.2165	1,000.49	66.4527	1,000.49	70.8428	1,000.49	68.9145	1,000.49	70.4344
1,035.64	82.4131	1,035.64	82.2985	1,035.64	81.9222	1,035.64	81.6078	1,035.64	80.8439	1,035.64	80.4305	1,035.64	79.2442	1,035.64	78.9065	1,035.64	77.2454	1,035.64	77.1485	1,035.64	75.0588	1,035.64	75.1295	1,035.64	73.1116	1,035.64	72.6454	1,035.64	71.9903	1,035.64	69.4787	1,035.64	71.5659	1,035.64	66.73	1,035.64	70.8612	1,035.64	67.7338	1,035.64	69.2783	1,035.64	69.9345	1,035.64	68.0348	1,035.64	70.8835	1,035.64	68.872	1,035.64	70.6633	1,035.64	69.4407	1,035.64	70.1849	1,035.64	68.4185	1,035.64	70.4265	1,035.64	67.1369	1,035.64	70.9722	1,035.64	67.5641	1,035.64	70.9097	1,035.64	68.8138	1,035.64	70.0604
1,072.27	82.583	1,072.27	82.7237	1,072.27	81.7146	1,072.27	82.0855	1,072.27	80.2874	1,072.27	80.7308	1,072.27	78.5797	1,072.27	78.8696	1,072.27	76.8648	1,072.27	76.9032	1,072.27	75.2069	1,072.27	75.3216	1,072.27	73.4258	1,072.27	74.3123	1,072.27	71.4315	1,072.27	73.4912	1,072.27	69.7412	1,072.27	72.1887	1,072.27	69.0192	1,072.27	69.874	1,072.27	68.8708	1,072.27	66.7792	1,072.27	69.2416	1,072.27	65.4256	1,072.27	70.0306	1,072.27	66.685	1,072.27	69.8565	1,072.27	68.2064	1,072.27	67.8845	1,072.27	69.5957	1,072.27	65.1772	1,072.27	70.6826	1,072.27	65.5275	1,072.27	70.9616	1,072.27	68.0555	1,072.27	70.0855
1,108.89	82.2526	1,108.89	82.3887	1,108.89	81.5118	1,108.89	81.8061	1,108.89	80.3508	1,108.89	80.5097	1,108.89	78.953	1,108.89	78.6738	1,108.89	77.4293	1,108.89	76.6805	1,108.89	75.8126	1,108.89	75.0067	1,108.89	74.1801	1,108.89	73.8414	1,108.89	72.8019	1,108.89	72.8902	1,108.89	71.7502	1,108.89	71.8411	1,108.89	70.3174	1,108.89	70.8891	1,108.89	68.227	1,108.89	70.3417	1,108.89	68.7491	1,108.89	69.7254	1,108.89	71.1184	1,108.89	68.5458	1,108.89	71.4463	1,108.89	67.8686	1,108.89	69.3445	1,108.89	69.198	1,108.89	66.6388	1,108.89	70.7313	1,108.89	66.4693	1,108.89	70.9101	1,108.89	67.7285	1,108.89	69.61
1,148.44	82.1417	1,148.44	82.5821	1,148.44	81.0812	1,148.44	82.2016	1,148.44	79.7345	1,148.44	80.9753	1,148.44	78.4319	1,148.44	79.1165	1,148.44	77.2363	1,148.44	77.0944	1,148.44	75.9332	1,148.44	75.3981	1,148.44	74.322	1,148.44	74.1735	1,148.44	72.5708	1,148.44	73.1889	1,148.44	71.2224	1,148.44	72.0065	1,148.44	70.2015	1,148.44	70.4494	1,148.44	69.0998	1,148.44	69.2381	1,148.44	69.0566	1,148.44	68.924	1,148.44	70.1293	1,148.44	68.3648	1,148.44	70.0451	1,148.44	67.283	1,148.44	67.8715	1,148.44	68.148	1,148.44	64.8401	1,148.44	70.3163	1,148.44	64.3672	1,148.44	70.9752	1,148.44	66.459	1,148.44	69.4704
1,189.45	81.87	1,189.45	82.3766	1,189.45	80.6013	1,189.45	81.9633	1,189.45	79.0661	1,189.45	80.6941	1,189.45	77.9166	1,189.45	78.8469	1,189.45	77.2243	1,189.45	76.9012	1,189.45	76.4409	1,189.45	75.2601	1,189.45	75.1563	1,189.45	73.9132	1,189.45	73.6176	1,189.45	72.4988	1,189.45	72.4454	1,189.45	70.8848	1,189.45	71.0703	1,189.45	69.9905	1,189.45	68.1289	1,189.45	70.5289	1,189.45	67.2952	1,189.45	70.995	1,189.45	70.6128	1,189.45	70.0972	1,189.45	71.5539	1,189.45	68.1657	1,189.45	69.7559	1,189.45	68.6932	1,189.45	66.288	1,189.45	70.9021	1,189.45	63.3958	1,189.45	71.2256	1,189.45	64.2167	1,189.45	68.8107
1,230.47	82.0778	1,230.47	82.6524	1,230.47	80.4959	1,230.47	82.2154	1,230.47	78.3688	1,230.47	80.9436	1,230.47	76.8597	1,230.47	79.1079	1,230.47	76.5957	1,230.47	77.0084	1,230.47	76.5891	1,230.47	74.8646	1,230.47	75.8486	1,230.47	72.7459	1,230.47	74.2302	1,230.47	70.5364	1,230.47	72.4774	1,230.47	68.1068	1,230.47	71.1462	1,230.47	66.5233	1,230.47	69.4552	1,230.47	67.9485	1,230.47	68.3516	1,230.47	70.0826	1,230.47	69.3704	1,230.47	70.776	1,230.47	69.2822	1,230.47	69.6251	1,230.47	66.5655	1,230.47	67.8928	1,230.47	62.2112	1,230.47	69.5804	1,230.47	61.1957	1,230.47	71.2867	1,230.47	65.7632	1,230.47	70.1049
1,274.41	82.3373	1,274.41	82.9924	1,274.41	80.5925	1,274.41	82.5093	1,274.41	78.3412	1,274.41	81.0636	1,274.41	76.9085	1,274.41	78.9722	1,274.41	76.8576	1,274.41	76.6605	1,274.41	77.0353	1,274.41	74.5285	1,274.41	76.4598	1,274.41	72.9395	1,274.41	74.9837	1,274.41	72.1354	1,274.41	72.9454	1,274.41	71.4802	1,274.41	70.6853	1,274.41	69.5087	1,274.41	69.0815	1,274.41	64.827	1,274.41	69.0533	1,274.41	63.6582	1,274.41	68.7276	1,274.41	67.9524	1,274.41	68.0935	1,274.41	69.2239	1,274.41	66.7132	1,274.41	68.8562	1,274.41	62.7648	1,274.41	70.1838	1,274.41	59.8691	1,274.41	71.486	1,274.41	64.4677	1,274.41	69.8679
1,319.82	82.3583	1,319.82	82.9249	1,319.82	80.409	1,319.82	82.1127	1,319.82	77.8305	1,319.82	80.2782	1,319.82	76.5051	1,319.82	78.1114	1,319.82	76.9711	1,319.82	76.4192	1,319.82	77.3817	1,319.82	75.3037	1,319.82	76.7506	1,319.82	73.7335	1,319.82	75.6504	1,319.82	70.3751	1,319.82	74.4943	1,319.82	67.901	1,319.82	72.1671	1,319.82	71.1309	1,319.82	69.2686	1,319.82	71.6916	1,319.82	70.5027	1,319.82	68.8721	1,319.82	70.7972	1,319.82	68.8957	1,319.82	69.7588	1,319.82	70.6648	1,319.82	68.3263	1,319.82	69.303	1,319.82	63.5633	1,319.82	68.0289	1,319.82	60.3905	1,319.82	70.1463	1,319.82	65.2722	1,319.82	69.9422
1,366.7	81.7344	1,366.7	82.3952	1,366.7	79.8799	1,366.7	81.9876	1,366.7	77.2804	1,366.7	80.6887	1,366.7	75.8789	1,366.7	78.7029	1,366.7	76.8243	1,366.7	76.5192	1,366.7	77.7915	1,366.7	75.352	1,366.7	77.2116	1,366.7	75.6528	1,366.7	75.4524	1,366.7	75.4519	1,366.7	73.9501	1,366.7	72.7734	1,366.7	72.2118	1,366.7	66.7273	1,366.7	67.7978	1,366.7	64.9867	1,366.7	67.5106	1,366.7	64.8921	1,366.7	69.9562	1,366.7	65.6363	1,366.7	68.2025	1,366.7	69.0462	1,366.7	65.4339	1,366.7	69.6443	1,366.7	57.2515	1,366.7	69.348	1,366.7	51.7115	1,366.7	71.2707	1,366.7	65.5092	1,366.7	71.1366
1,413.57	81.3147	1,413.57	81.867	1,413.57	79.2762	1,413.57	81.1017	1,413.57	76.7175	1,413.57	79.603	1,413.57	76.1712	1,413.57	77.9622	1,413.57	77.6732	1,413.57	76.5402	1,413.57	78.4324	1,413.57	75.4348	1,413.57	77.4155	1,413.57	74.972	1,413.57	75.6672	1,413.57	75.0264	1,413.57	75.0703	1,413.57	73.9249	1,413.57	74.2036	1,413.57	71.3277	1,413.57	70.8644	1,413.57	70.0705	1,413.57	66.2699	1,413.57	68.8047	1,413.57	65.3588	1,413.57	63.5492	1,413.57	69.1545	1,413.57	64.5843	1,413.57	69.4056	1,413.57	69.4132	1,413.57	62.174	1,413.57	69.562	1,413.57	51.078	1,413.57	69.638	1,413.57	64.856	1,413.57	69.7886
1,463.38	81.2433	1,463.38	81.7662	1,463.38	79.1225	1,463.38	80.7663	1,463.38	76.2776	1,463.38	78.8679	1,463.38	75.5434	1,463.38	77.188	1,463.38	76.8539	1,463.38	76.1341	1,463.38	77.5443	1,463.38	74.7132	1,463.38	76.8994	1,463.38	72.5246	1,463.38	75.5961	1,463.38	70.7721	1,463.38	74.6849	1,463.38	68.8364	1,463.38	73.4349	1,463.38	66.2429	1,463.38	71.5841	1,463.38	67.0345	1,463.38	70.4051	1,463.38	68.0177	1,463.38	65.729	1,463.38	67.1399	1,463.38	67.2001	1,463.38	64.4611	1,463.38	69.5436	1,463.38	68.7949	1,463.38	63.9144	1,463.38	71.0846	1,463.38	53.8478	1,463.38	71.1438	1,463.38	60.0778	1,463.38	69.169
1,516.11	81.1035	1,516.11	81.5025	1,516.11	79.1285	1,516.11	80.4567	1,516.11	76.1392	1,516.11	78.6567	1,516.11	75.0776	1,516.11	77.0484	1,516.11	76.9344	1,516.11	75.685	1,516.11	78.238	1,516.11	73.7312	1,516.11	77.7778	1,516.11	70.8351	1,516.11	76.3143	1,516.11	68.9596	1,516.11	75.3276	1,516.11	67.9131	1,516.11	73.8701	1,516.11	63.5435	1,516.11	72.1327	1,516.11	53.5038	1,516.11	72.7981	1,516.11	66.6898	1,516.11	70.3723	1,516.11	70.7836	1,516.11	56.1957	1,516.11	69.9502	1,516.11	69.024	1,516.11	70.2458	1,516.11	68.0252	1,516.11	72.1264	1,516.11	62.5446	1,516.11	71.8064	1,516.11	59.0476	1,516.11	68.1379
1,568.85	80.5752	1,568.85	81.1084	1,568.85	78.8715	1,568.85	80.5552	1,568.85	76.425	1,568.85	79.2939	1,568.85	75.4299	1,568.85	77.7691	1,568.85	77.4812	1,568.85	76.3449	1,568.85	78.9301	1,568.85	75.3381	1,568.85	78.2274	1,568.85	74.3215	1,568.85	75.8452	1,568.85	73.0092	1,568.85	73.5196	1,568.85	72.2184	1,568.85	70.8877	1,568.85	71.3315	1,568.85	66.7168	1,568.85	67.4559	1,568.85	71.8695	1,568.85	62.7945	1,568.85	71.995	1,568.85	71.1329	1,568.85	63.1927	1,568.85	71.8032	1,568.85	70.1201	1,568.85	68.192	1,568.85	69.0299	1,568.85	70.0048	1,568.85	62.2844	1,568.85	71.1781	1,568.85	60.7808	1,568.85	67.6749
1,624.51	79.5842	1,624.51	80.6736	1,624.51	77.4948	1,624.51	80.5334	1,624.51	75.3996	1,624.51	79.4706	1,624.51	75.3492	1,624.51	78.1917	1,624.51	76.6897	1,624.51	76.6559	1,624.51	77.1504	1,624.51	74.9007	1,624.51	76.3986	1,624.51	73.9164	1,624.51	74.9324	1,624.51	73.4798	1,624.51	73.233	1,624.51	72.6785	1,624.51	71.9301	1,624.51	71.92	1,624.51	68.8254	1,624.51	71.4427	1,624.51	63.5235	1,624.51	69.1326	1,624.51	70.4332	1,624.51	69.3521	1,624.51	70.1757	1,624.51	72.2811	1,624.51	66.3218	1,624.51	69.871	1,624.51	63.2355	1,624.51	64.5998	1,624.51	57.9134	1,624.51	68.2122	1,624.51	64.0686	1,624.51	68.4581
1,681.64	79.0981	1,681.64	79.3289	1,681.64	76.2776	1,681.64	78.473	1,681.64	71.6669	1,681.64	77.772	1,681.64	72.7998	1,681.64	77.3962	1,681.64	76.8906	1,681.64	76.028	1,681.64	78.4654	1,681.64	73.0011	1,681.64	77.9497	1,681.64	70.3727	1,681.64	76.8268	1,681.64	72.4053	1,681.64	76.0194	1,681.64	74.0847	1,681.64	74.5014	1,681.64	71.8736	1,681.64	71.5572	1,681.64	68.8112	1,681.64	68.9738	1,681.64	70.6751	1,681.64	69.3483	1,681.64	67.8812	1,681.64	70.049	1,681.64	69.3599	1,681.64	66.9636	1,681.64	70.9305	1,681.64	59.2554	1,681.64	66.9435	1,681.64	56.2374	1,681.64	64.6038	1,681.64	64.8078	1,681.64	67.7027
1,741.7	79.6239	1,741.7	79.5711	1,741.7	76.7926	1,741.7	77.5426	1,741.7	73.7883	1,741.7	76.473	1,741.7	74.7657	1,741.7	76.7621	1,741.7	79.148	1,741.7	76.35	1,741.7	80.6993	1,741.7	74.7657	1,741.7	79.6716	1,741.7	70.7448	1,741.7	76.8736	1,741.7	64.9892	1,741.7	74.695	1,741.7	70.2362	1,741.7	73.6405	1,741.7	68.3674	1,741.7	72.4225	1,741.7	65.0195	1,741.7	71.8468	1,741.7	68.9623	1,741.7	72.2987	1,741.7	68.685	1,741.7	69.6433	1,741.7	64.8568	1,741.7	66.6523	1,741.7	67.3332	1,741.7	63.403	1,741.7	68.7607	1,741.7	51.1449	1,741.7	68.8318	1,741.7	55.4895	1,741.7	67.0835
1,803.22	81.497	1,803.22	81.3073	1,803.22	81.0717	1,803.22	81.0438	1,803.22	78.9778	1,803.22	80.5625	1,803.22	77.7897	1,803.22	79.2387	1,803.22	81.0551	1,803.22	77.6834	1,803.22	83.3775	1,803.22	76.4331	1,803.22	82.4029	1,803.22	73.5355	1,803.22	78.2981	1,803.22	63.1032	1,803.22	74.14	1,803.22	65.3175	1,803.22	73.3717	1,803.22	66.6608	1,803.22	73.861	1,803.22	67.8942	1,803.22	75.1118	1,803.22	67.9776	1,803.22	76.3344	1,803.22	66.1675	1,803.22	71.79	1,803.22	70.3568	1,803.22	68.9819	1,803.22	69.8489	1,803.22	70.1037	1,803.22	70.7003	1,803.22	60.7237	1,803.22	71.6952	1,803.22	58.5837	1,803.22	67.984
1,866.21	82.0689	1,866.21	82.808	1,866.21	80.7928	1,866.21	82.576	1,866.21	79.4857	1,866.21	81.5206	1,866.21	79.7562	1,866.21	80.3768	1,866.21	82.3091	1,866.21	80.2164	1,866.21	82.5892	1,866.21	79.9183	1,866.21	80.3969	1,866.21	78.1841	1,866.21	77.6651	1,866.21	75.3548	1,866.21	76.6222	1,866.21	73.1451	1,866.21	75.2981	1,866.21	72.2873	1,866.21	71.5111	1,866.21	70.8891	1,866.21	69.9898	1,866.21	66.7491	1,866.21	74.5666	1,866.21	64.1845	1,866.21	75.8842	1,866.21	71.6994	1,866.21	62.1615	1,866.21	74.1764	1,866.21	67.9599	1,866.21	71.1874	1,866.21	62.344	1,866.21	69.3445	1,866.21	65.394	1,866.21	65.9771
1,932.13	81.3421	1,932.13	80.9743	1,932.13	81.8269	1,932.13	81.8702	1,932.13	80.3664	1,932.13	81.8221	1,932.13	78.6538	1,932.13	80.1283	1,932.13	80.6195	1,932.13	77.5258	1,932.13	82.7614	1,932.13	76.8919	1,932.13	82.153	1,932.13	77.8454	1,932.13	78.0867	1,932.13	76.8635	1,932.13	74.9417	1,932.13	74.7606	1,932.13	75.7785	1,932.13	74.1491	1,932.13	74.752	1,932.13	73.2154	1,932.13	74.0406	1,932.13	71.559	1,932.13	66.8974	1,932.13	71.7888	1,932.13	73.1078	1,932.13	70.0837	1,932.13	71.2735	1,932.13	67.9141	1,932.13	59.5697	1,932.13	63.036	1,932.13	48.1583	1,932.13	64.1871	1,932.13	67.1021	1,932.13	69.5582
1,999.51	81.7304	1,999.51	82.0527	1,999.51	80.2471	1,999.51	81.4197	1,999.51	79.1274	1,999.51	81.2048	1,999.51	79.1478	1,999.51	81.141	1,999.51	80.6118	1,999.51	79.6847	1,999.51	81.4213	1,999.51	76.1527	1,999.51	80.0385	1,999.51	73.7573	1,999.51	76.5323	1,999.51	74.8756	1,999.51	72.3917	1,999.51	74.527	1,999.51	67.3272	1,999.51	74.9864	1,999.51	70.1442	1,999.51	74.0468	1,999.51	74.1813	1,999.51	71.5761	1,999.51	74.1829	1,999.51	69.8815	1,999.51	71.3924	1,999.51	65.5976	1,999.51	67.7648	1,999.51	65.5947	1,999.51	68.8217	1,999.51	70.002	1,999.51	65.9378	1,999.51	71.9917	1,999.51	51.3632	1,999.51	71.3722
2,069.82	80.819	2,069.82	80.6654	2,069.82	80.7715	2,069.82	81.1648	2,069.82	79.5072	2,069.82	80.9752	2,069.82	79.3778	2,069.82	80.3895	2,069.82	81.3221	2,069.82	79.8463	2,069.82	81.2784	2,069.82	76.8333	2,069.82	77.9997	2,069.82	70.397	2,069.82	77.3179	2,069.82	66.5639	2,069.82	77.7813	2,069.82	66.7268	2,069.82	77.9226	2,069.82	68.0156	2,069.82	73.5105	2,069.82	65.0586	2,069.82	65.623	2,069.82	62.1327	2,069.82	72.1043	2,069.82	67.3382	2,069.82	76.3139	2,069.82	71.4806	2,069.82	68.4028	2,069.82	70.4842	2,069.82	61.8108	2,069.82	70.8975	2,069.82	61.1569	2,069.82	69.8611	2,069.82	66.3679	2,069.82	68.5029
2,143.07	80.4135	2,143.07	80.6439	2,143.07	79.8028	2,143.07	80.5191	2,143.07	79.32	2,143.07	80.6131	2,143.07	78.9527	2,143.07	80.5679	2,143.07	79.4342	2,143.07	79.5692	2,143.07	80.2206	2,143.07	77.8959	2,143.07	80.0559	2,143.07	75.8453	2,143.07	78.1574	2,143.07	71.6731	2,143.07	76.3463	2,143.07	64.6573	2,143.07	76.5628	2,143.07	62.6965	2,143.07	74.7428	2,143.07	64.4932	2,143.07	73.7193	2,143.07	62.1376	2,143.07	67.9963	2,143.07	63.2662	2,143.07	70.1547	2,143.07	69.2619	2,143.07	67.3797	2,143.07	69.2312	2,143.07	67.6272	2,143.07	68.8423	2,143.07	65.0304	2,143.07	69.3957	2,143.07	67.4872	2,143.07	70.6867
2,219.24	79.5215	2,219.24	80.3623	2,219.24	79.4379	2,219.24	80.6237	2,219.24	79.459	2,219.24	79.7047	2,219.24	78.6476	2,219.24	79.4043	2,219.24	79.3079	2,219.24	79.7843	2,219.24	80.9584	2,219.24	78.2091	2,219.24	79.7202	2,219.24	76.5716	2,219.24	75.9543	2,219.24	76.8532	2,219.24	72.1971	2,219.24	76.5889	2,219.24	71.7098	2,219.24	74.2551	2,219.24	63.3199	2,219.24	75.0975	2,219.24	72.7264	2,219.24	72.2773	2,219.24	72.2491	2,219.24	68.0045	2,219.24	67.5367	2,219.24	68.6558	2,219.24	57.4027	2,219.24	67.6453	2,219.24	64.2201	2,219.24	69.7312	2,219.24	60.1575	2,219.24	70.501	2,219.24	64.1748	2,219.24	69.4398
2,296.88	78.8724	2,296.88	80.2032	2,296.88	79.1626	2,296.88	80.3792	2,296.88	79.5876	2,296.88	79.1246	2,296.88	77.3421	2,296.88	78.9021	2,296.88	77.3485	2,296.88	78.9249	2,296.88	80.8413	2,296.88	77.4915	2,296.88	80.594	2,296.88	77.1641	2,296.88	76.6976	2,296.88	77.979	2,296.88	73.0028	2,296.88	77.5308	2,296.88	73.001	2,296.88	75.9367	2,296.88	67.3816	2,296.88	73.9736	2,296.88	69.516	2,296.88	72.9441	2,296.88	73.3391	2,296.88	70.8768	2,296.88	70.0348	2,296.88	67.0592	2,296.88	51.8884	2,296.88	67.7911	2,296.88	69.0663	2,296.88	69.2992	2,296.88	67.449	2,296.88	69.5749	2,296.88	54.0901	2,296.88	68.0475
2,378.91	78.8779	2,378.91	79.3523	2,378.91	78.6337	2,378.91	79.5199	2,378.91	78.0639	2,378.91	79.3396	2,378.91	76.7834	2,378.91	78.8496	2,378.91	77.2964	2,378.91	77.3836	2,378.91	78.2211	2,378.91	75.275	2,378.91	79.7869	2,378.91	73.2587	2,378.91	80.6015	2,378.91	75.8776	2,378.91	77.3892	2,378.91	77.0667	2,378.91	78.9219	2,378.91	75.4976	2,378.91	78.7846	2,378.91	71.8736	2,378.91	72.1715	2,378.91	69.1782	2,378.91	64.2334	2,378.91	64.9225	2,378.91	69.1103	2,378.91	66.9961	2,378.91	69.8605	2,378.91	69.0412	2,378.91	61.7773	2,378.91	71.8256	2,378.91	66.8003	2,378.91	69.5853	2,378.91	63.2178	2,378.91	64.8774
2,462.4	79.0774	2,462.4	79.0904	2,462.4	79.142	2,462.4	79.2036	2,462.4	78.3268	2,462.4	78.5017	2,462.4	76.6666	2,462.4	77.0498	2,462.4	75.8625	2,462.4	76.8322	2,462.4	77.6738	2,462.4	76.362	2,462.4	79.6774	2,462.4	73.5294	2,462.4	78.8816	2,462.4	70.4104	2,462.4	74.3623	2,462.4	68.8274	2,462.4	73.6234	2,462.4	66.7227	2,462.4	75.133	2,462.4	65.527	2,462.4	68.2069	2,462.4	63.5215	2,462.4	70.6618	2,462.4	63.5083	2,462.4	68.107	2,462.4	66.6378	2,462.4	65.5282	2,462.4	68.1583	2,462.4	61.8995	2,462.4	68.2035	2,462.4	60.7571	2,462.4	68.3727	2,462.4	59.7992	2,462.4	66.3635
2,548.83	78.4819	2,548.83	79.0955	2,548.83	78.2236	2,548.83	78.5781	2,548.83	77.9523	2,548.83	77.4871	2,548.83	75.9212	2,548.83	77.3643	2,548.83	74.5638	2,548.83	76.8614	2,548.83	77.1163	2,548.83	75.4425	2,548.83	79.4161	2,548.83	73.8969	2,548.83	78.7408	2,548.83	71.4992	2,548.83	74.2538	2,548.83	68.3798	2,548.83	69.1049	2,548.83	65.664	2,548.83	71.782	2,548.83	65.5922	2,548.83	70.8534	2,548.83	64.6639	2,548.83	70.7011	2,548.83	66.4295	2,548.83	69.0116	2,548.83	67.2972	2,548.83	66.4646	2,548.83	68.1488	2,548.83	61.875	2,548.83	68.9633	2,548.83	62.3297	2,548.83	68.1337	2,548.83	62.5354	2,548.83	66.7668
2,639.65	79.4978	2,639.65	79.1796	2,639.65	78.4553	2,639.65	77.2607	2,639.65	77.3278	2,639.65	76.2734	2,639.65	75.0485	2,639.65	76.5472	2,639.65	73.4296	2,639.65	76.2805	2,639.65	76.0819	2,639.65	76.1999	2,639.65	79.239	2,639.65	75.2767	2,639.65	79.2131	2,639.65	72.8969	2,639.65	75.6033	2,639.65	70.9501	2,639.65	71.21	2,639.65	68.0773	2,639.65	70.7296	2,639.65	67.1544	2,639.65	70.1317	2,639.65	65.7711	2,639.65	69.3999	2,639.65	67.1109	2,639.65	68.6843	2,639.65	67.9967	2,639.65	67.6816	2,639.65	67.6725	2,639.65	65.0342	2,639.65	68.2396	2,639.65	62.7325	2,639.65	66.016	2,639.65	57.4172	2,639.65	61.8696
2,731.93	79.4329	2,731.93	79.1358	2,731.93	78.7547	2,731.93	76.9836	2,731.93	77.361	2,731.93	74.584	2,731.93	74.5076	2,731.93	74.8751	2,731.93	71.5487	2,731.93	76.2151	2,731.93	73.1948	2,731.93	76.7147	2,731.93	77.7146	2,731.93	75.0651	2,731.93	78.4086	2,731.93	71.4019	2,731.93	75.3636	2,731.93	68.9922	2,731.93	72.2383	2,731.93	66.6521	2,731.93	71.9156	2,731.93	66.3946	2,731.93	70.9149	2,731.93	65.2036	2,731.93	68.8819	2,731.93	66.9505	2,731.93	64.8705	2,731.93	68.4546	2,731.93	64.1793	2,731.93	67.5046	2,731.93	57.1298	2,731.93	67.7485	2,731.93	58.7948	2,731.93	66.197	2,731.93	62.9218	2,731.93	62.3424
2,828.61	79.0267	2,828.61	79.0401	2,828.61	77.9682	2,828.61	76.0937	2,828.61	77.0761	2,828.61	72.5757	2,828.61	74.3046	2,828.61	73.336	2,828.61	71.957	2,828.61	75.1252	2,828.61	72.1141	2,828.61	75.1742	2,828.61	75.7125	2,828.61	73.8357	2,828.61	76.6762	2,828.61	70.3494	2,828.61	75.4047	2,828.61	66.7931	2,828.61	72.521	2,828.61	65.1354	2,828.61	68.9361	2,828.61	65.4394	2,828.61	71.3327	2,828.61	64.4179	2,828.61	67.5756	2,828.61	66.2085	2,828.61	63.084	2,828.61	68.4368	2,828.61	64.1225	2,828.61	68.3992	2,828.61	57.0351	2,828.61	67.5626	2,828.61	61.6393	2,828.61	63.8438	2,828.61	62.547	2,828.61	56.095
2,928.22	79.8004	2,928.22	79.8401	2,928.22	77.8071	2,928.22	76.0957	2,928.22	76.1974	2,928.22	70.871	2,928.22	73.4847	2,928.22	71.9937	2,928.22	71.6792	2,928.22	75.1535	2,928.22	71.3303	2,928.22	74.7971	2,928.22	74.8162	2,928.22	72.6634	2,928.22	76.4746	2,928.22	71.3322	2,928.22	74.2807	2,928.22	70.5298	2,928.22	72.169	2,928.22	67.8061	2,928.22	66.2162	2,928.22	66.763	2,928.22	67.0348	2,928.22	65.3849	2,928.22	67.1661	2,928.22	65.5246	2,928.22	61.0956	2,928.22	68.1651	2,928.22	61.2979	2,928.22	68.3088	2,928.22	50.6323	2,928.22	66.7388	2,928.22	58.189	2,928.22	64.405	2,928.22	64.912	2,928.22	62.1377
3,030.76	79.5904	3,030.76	79.8344	3,030.76	77.3687	3,030.76	75.8445	3,030.76	75.8798	3,030.76	69.6739	3,030.76	72.8081	3,030.76	70.5994	3,030.76	71.17	3,030.76	74.1922	3,030.76	71.1192	3,030.76	72.735	3,030.76	74.6155	3,030.76	72.1244	3,030.76	76.232	3,030.76	71.139	3,030.76	72.4211	3,030.76	68.0171	3,030.76	68.9634	3,030.76	65.7492	3,030.76	67.8696	3,030.76	64.8372	3,030.76	66.9588	3,030.76	63.244	3,030.76	65.5277	3,030.76	64.9658	3,030.76	62.7308	3,030.76	67.0682	3,030.76	61.3053	3,030.76	68.3919	3,030.76	52.0242	3,030.76	66.7778	3,030.76	61.0743	3,030.76	62.4392	3,030.76	64.1652	3,030.76	59.547
3,137.7	79.9712	3,137.7	79.8647	3,137.7	77.2706	3,137.7	75.4982	3,137.7	75.3137	3,137.7	66.6221	3,137.7	72.127	3,137.7	69.8018	3,137.7	71.0722	3,137.7	72.6443	3,137.7	70.7512	3,137.7	73.1652	3,137.7	75.1789	3,137.7	73.066	3,137.7	77.1899	3,137.7	69.6159	3,137.7	71.8072	3,137.7	70.1932	3,137.7	64.147	3,137.7	68.778	3,137.7	57.4409	3,137.7	67.4979	3,137.7	69.914	3,137.7	65.8087	3,137.7	67.9449	3,137.7	65.2262	3,137.7	64.9091	3,137.7	66.5337	3,137.7	62.0837	3,137.7	68.7992	3,137.7	50.819	3,137.7	66.9342	3,137.7	61.183	3,137.7	62.2427	3,137.7	63.8259	3,137.7	57.7048
3,249.02	80.1565	3,249.02	80.1894	3,249.02	77.5434	3,249.02	75.7235	3,249.02	75.5599	3,249.02	59.9807	3,249.02	72.0197	3,249.02	70.0184	3,249.02	69.2529	3,249.02	73.4306	3,249.02	71.0936	3,249.02	73.8987	3,249.02	75.1263	3,249.02	74.2515	3,249.02	77.7781	3,249.02	74.1079	3,249.02	73.6241	3,249.02	73.5196	3,249.02	62.7263	3,249.02	69.6891	3,249.02	66.5446	3,249.02	67.7273	3,249.02	64.7623	3,249.02	67.5052	3,249.02	68.7564	3,249.02	65.2243	3,249.02	67.1704	3,249.02	66.5753	3,249.02	63.1586	3,249.02	68.7892	3,249.02	53.2202	3,249.02	67.7652	3,249.02	62.2692	3,249.02	63.1046	3,249.02	65.1963	3,249.02	59.8201
3,363.28	80.2515	3,363.28	80.2772	3,363.28	77.906	3,363.28	75.6501	3,363.28	75.7169	3,363.28	62.005	3,363.28	69.7547	3,363.28	71.3191	3,363.28	66.193	3,363.28	73.8552	3,363.28	72.5594	3,363.28	75.6247	3,363.28	76.7954	3,363.28	76.438	3,363.28	79.2745	3,363.28	73.2039	3,363.28	76.3052	3,363.28	69.7543	3,363.28	70.7197	3,363.28	68.9111	3,363.28	69.3259	3,363.28	68.8846	3,363.28	62.4635	3,363.28	67.9526	3,363.28	66.119	3,363.28	66.6802	3,363.28	64.5316	3,363.28	66.6431	3,363.28	65.0638	3,363.28	69.3434	3,363.28	53.2399	3,363.28	67.8451	3,363.28	62.6334	3,363.28	61.7082	3,363.28	65.2331	3,363.28	56.915
3,481.93	80.6087	3,481.93	80.5547	3,481.93	78.205	3,481.93	75.1353	3,481.93	75.7773	3,481.93	67.4889	3,481.93	66.7769	3,481.93	72.5936	3,481.93	68.6418	3,481.93	75.9452	3,481.93	73.6599	3,481.93	77.4377	3,481.93	77.9898	3,481.93	75.7759	3,481.93	81.2722	3,481.93	74.8083	3,481.93	77.9317	3,481.93	74.6471	3,481.93	73.1014	3,481.93	71.1231	3,481.93	74.7919	3,481.93	68.744	3,481.93	59.5093	3,481.93	68.9906	3,481.93	64.4646	3,481.93	67.2492	3,481.93	64.5181	3,481.93	66.8826	3,481.93	63.8515	3,481.93	68.9528	3,481.93	55.6238	3,481.93	68.3066	3,481.93	60.9003	3,481.93	62.0692	3,481.93	65.5072	3,481.93	58.463
3,604.98	81.2873	3,604.98	80.8274	3,604.98	79.216	3,604.98	74.7462	3,604.98	76.9388	3,604.98	72.2515	3,604.98	64.9998	3,604.98	73.5586	3,604.98	72.0323	3,604.98	78.1144	3,604.98	75.8275	3,604.98	77.8822	3,604.98	79.6227	3,604.98	78.0867	3,604.98	81.4265	3,604.98	76.6279	3,604.98	78.5982	3,604.98	71.1371	3,604.98	74.3315	3,604.98	70.2319	3,604.98	74.5245	3,604.98	70.1648	3,604.98	69.3821	3,604.98	68.4116	3,604.98	65.0859	3,604.98	68.0248	3,604.98	63.3922	3,604.98	67.5285	3,604.98	63.2257	3,604.98	68.8398	3,604.98	56.6104	3,604.98	68.4249	3,604.98	62.8468	3,604.98	63.8952	3,604.98	65.3095	3,604.98	57.2454
3,732.42	81.4259	3,732.42	80.2758	3,732.42	79.5448	3,732.42	75.3553	3,732.42	78.2114	3,732.42	72.2423	3,732.42	69.2406	3,732.42	75.6835	3,732.42	73.3868	3,732.42	78.569	3,732.42	76.2421	3,732.42	78.7726	3,732.42	79.4651	3,732.42	77.6204	3,732.42	82.1503	3,732.42	74.1649	3,732.42	80.0857	3,732.42	73.4053	3,732.42	75.9838	3,732.42	71.12	3,732.42	74.0682	3,732.42	68.8918	3,732.42	70.3551	3,732.42	68.5694	3,732.42	66.9495	3,732.42	67.4097	3,732.42	63.6643	3,732.42	66.6464	3,732.42	62.4737	3,732.42	68.5773	3,732.42	53.2646	3,732.42	67.8039	3,732.42	61.7559	3,732.42	60.5219	3,732.42	66.6147	3,732.42	55.0333
3,864.26	81.9306	3,864.26	80.2341	3,864.26	80.1636	3,864.26	75.5742	3,864.26	77.6128	3,864.26	74.4881	3,864.26	72.0891	3,864.26	76.9702	3,864.26	74.2584	3,864.26	79.5664	3,864.26	76.6765	3,864.26	78.9242	3,864.26	78.1503	3,864.26	77.7248	3,864.26	81.162	3,864.26	76.4278	3,864.26	79.6495	3,864.26	72.2456	3,864.26	72.411	3,864.26	70.1296	3,864.26	72.8193	3,864.26	70.1606	3,864.26	69.3935	3,864.26	68.1518	3,864.26	67.6534	3,864.26	66.8801	3,864.26	65.5189	3,864.26	66.7882	3,864.26	64.6155	3,864.26	67.5386	3,864.26	55.8064	3,864.26	67.3832	3,864.26	62.7235	3,864.26	61.414	3,864.26	64.9976	3,864.26	57.6892
4,000.49	81.724	4,000.49	79.3219	4,000.49	80.638	4,000.49	75.9509	4,000.49	78.3686	4,000.49	74.8149	4,000.49	73.4363	4,000.49	78.3377	4,000.49	76.4924	4,000.49	79.2429	4,000.49	77.3925	4,000.49	79.2652	4,000.49	77.2564	4,000.49	77.3871	4,000.49	80.5299	4,000.49	73.0006	4,000.49	79.4772	4,000.49	72.8364	4,000.49	75.0932	4,000.49	70.2413	4,000.49	59.3816	4,000.49	68.5945	4,000.49	68.3377	4,000.49	68.4023	4,000.49	67.4708	4,000.49	66.8685	4,000.49	66.3878	4,000.49	65.7169	4,000.49	64.4698	4,000.49	67.218	4,000.49	55.6756	4,000.49	65.8892	4,000.49	62.7563	4,000.49	62.143	4,000.49	63.9844	4,000.49	55.688
4,141.11	81.6198	4,141.11	79.5104	4,141.11	80.8639	4,141.11	76.5144	4,141.11	78.914	4,141.11	76.1101	4,141.11	75.8791	4,141.11	78.5634	4,141.11	76.3472	4,141.11	79.8781	4,141.11	78.7523	4,141.11	79.0472	4,141.11	76.4928	4,141.11	76.8412	4,141.11	78.8625	4,141.11	75.5054	4,141.11	80.1864	4,141.11	70.6103	4,141.11	75.6633	4,141.11	67.7824	4,141.11	69.2429	4,141.11	68.1838	4,141.11	62.1659	4,141.11	66.0944	4,141.11	65.1127	4,141.11	65.223	4,141.11	64.706	4,141.11	65.3013	4,141.11	62.3387	4,141.11	66.3529	4,141.11	50.0148	4,141.11	65.3366	4,141.11	59.8588	4,141.11	57.8606	4,141.11	62.9729	4,141.11	53.5321
4,287.6	81.6126	4,287.6	79.2312	4,287.6	80.5423	4,287.6	77.2561	4,287.6	78.3906	4,287.6	76.63	4,287.6	77.9428	4,287.6	79.2063	4,287.6	77.1581	4,287.6	79.5269	4,287.6	78.0755	4,287.6	78.7762	4,287.6	77.508	4,287.6	75.5826	4,287.6	77.995	4,287.6	72.8407	4,287.6	78.9585	4,287.6	72.937	4,287.6	76.701	4,287.6	69.7026	4,287.6	68.0541	4,287.6	67.8227	4,287.6	33.7841	4,287.6	66.3318	4,287.6	64.5364	4,287.6	65.2914	4,287.6	63.0691	4,287.6	63.4815	4,287.6	63.3531	4,287.6	65.7351	4,287.6	46.7972	4,287.6	64.9548	4,287.6	59.7052	4,287.6	61.6649	4,287.6	60.6078	4,287.6	51.6595
4,438.48	81.1467	4,438.48	80.0362	4,438.48	81.0083	4,438.48	78.1961	4,438.48	79.1486	4,438.48	78.1956	4,438.48	78.7649	4,438.48	79.5255	4,438.48	77.6156	4,438.48	79.826	4,438.48	77.565	4,438.48	77.7511	4,438.48	77.9193	4,438.48	75.9619	4,438.48	78.5778	4,438.48	73.8496	4,438.48	78.7608	4,438.48	67.9676	4,438.48	73.4413	4,438.48	69.4553	4,438.48	68.41	4,438.48	68.0369	4,438.48	61.6674	4,438.48	66.3875	4,438.48	58.0437	4,438.48	66.1419	4,438.48	62.2781	4,438.48	64.6023	4,438.48	62.1193	4,438.48	66.5524	4,438.48	55.3174	4,438.48	65.3427	4,438.48	58.8486	4,438.48	61.4997	4,438.48	60.8838	4,438.48	57.6377
4,595.21	81.4188	4,595.21	80.2227	4,595.21	80.8813	4,595.21	78.5248	4,595.21	79.5462	4,595.21	79.164	4,595.21	79.9831	4,595.21	80.3244	4,595.21	79.7606	4,595.21	79.651	4,595.21	76.1357	4,595.21	78.9946	4,595.21	75.551	4,595.21	76.2493	4,595.21	79.1805	4,595.21	75.1105	4,595.21	77.8898	4,595.21	72.508	4,595.21	72.7849	4,595.21	68.8839	4,595.21	67.2339	4,595.21	68.256	4,595.21	66.8142	4,595.21	66.6708	4,595.21	65.6366	4,595.21	66.1765	4,595.21	62.6052	4,595.21	65.4022	4,595.21	64.6704	4,595.21	67.0024	4,595.21	60.3625	4,595.21	67.2544	4,595.21	63.7165	4,595.21	62.8682	4,595.21	58.5737	4,595.21	49.6059
4,756.35	81.3691	4,756.35	80.5301	4,756.35	80.8277	4,756.35	79.487	4,756.35	79.9269	4,756.35	80.0956	4,756.35	80.5069	4,756.35	80.2716	4,756.35	80.5476	4,756.35	80.0588	4,756.35	78.5141	4,756.35	78.8562	4,756.35	75.4703	4,756.35	77.2529	4,756.35	78.5271	4,756.35	73.7894	4,756.35	77.9229	4,756.35	71.992	4,756.35	69.5429	4,756.35	70.7308	4,756.35	63.0517	4,756.35	67.8437	4,756.35	66.3382	4,756.35	66.5892	4,756.35	63.0913	4,756.35	66.4716	4,756.35	61.896	4,756.35	65.0208	4,756.35	60.691	4,756.35	66.2208	4,756.35	55.8319	4,756.35	66.6283	4,756.35	61.1372	4,756.35	63.2784	4,756.35	58.3022	4,756.35	57.8688
4,924.8	80.6788	4,924.8	80.5548	4,924.8	80.4512	4,924.8	79.7352	4,924.8	80.4636	4,924.8	80.0258	4,924.8	80.4532	4,924.8	80.1079	4,924.8	80.6652	4,924.8	80.1389	4,924.8	79.363	4,924.8	78.859	4,924.8	76.5781	4,924.8	76.4823	4,924.8	77.1671	4,924.8	74.3352	4,924.8	74.9149	4,924.8	71.1238	4,924.8	68.7218	4,924.8	69.61	4,924.8	65.5157	4,924.8	68.1439	4,924.8	61.1534	4,924.8	65.6217	4,924.8	62.2793	4,924.8	66.2908	4,924.8	55.721	4,924.8	65.2781	4,924.8	58.9856	4,924.8	66.5738	4,924.8	57.6351	4,924.8	67.4686	4,924.8	60.5227	4,924.8	63.9809	4,924.8	59.7335	4,924.8	55.5274
5,097.66	80.8149	5,097.66	80.5067	5,097.66	80.155	5,097.66	79.7675	5,097.66	80.1876	5,097.66	79.7217	5,097.66	81.38	5,097.66	79.975	5,097.66	80.1035	5,097.66	80.147	5,097.66	78.7946	5,097.66	78.7688	5,097.66	77.0176	5,097.66	76.7201	5,097.66	73.7545	5,097.66	74.4519	5,097.66	71.7472	5,097.66	72.3616	5,097.66	68.0477	5,097.66	68.3719	5,097.66	68.4467	5,097.66	67.9495	5,097.66	39.3437	5,097.66	67.1334	5,097.66	63.1739	5,097.66	65.6307	5,097.66	56.1001	5,097.66	64.5882	5,097.66	59.0316	5,097.66	66.1023	5,097.66	63.1988	5,097.66	67.4659	5,097.66	61.59	5,097.66	64.7034	5,097.66	54.3711	5,097.66	54.8636
5,277.83	80.4259	5,277.83	80.5789	5,277.83	79.6567	5,277.83	79.7546	5,277.83	80.0311	5,277.83	79.3865	5,277.83	81.2403	5,277.83	80.1858	5,277.83	80.7697	5,277.83	80.3647	5,277.83	78.9224	5,277.83	78.7011	5,277.83	77.5901	5,277.83	76.4119	5,277.83	74.3186	5,277.83	72.2253	5,277.83	73.0328	5,277.83	71.1771	5,277.83	73.2963	5,277.83	67.8911	5,277.83	66.8838	5,277.83	65.9431	5,277.83	51.8199	5,277.83	65.4055	5,277.83	65.0308	5,277.83	64.8831	5,277.83	57.645	5,277.83	63.3982	5,277.83	54.5674	5,277.83	64.7054	5,277.83	57.773	5,277.83	66.8811	5,277.83	58.4678	5,277.83	63.8657	5,277.83	55.8863	5,277.83	56.7533
5,463.87	80.012	5,463.87	80.2284	5,463.87	78.7044	5,463.87	79.5055	5,463.87	80.0869	5,463.87	79.1543	5,463.87	80.9562	5,463.87	80.6518	5,463.87	80.4145	5,463.87	80.2589	5,463.87	78.0636	5,463.87	78.4005	5,463.87	75.841	5,463.87	74.6036	5,463.87	72.3819	5,463.87	73.1355	5,463.87	72.5866	5,463.87	70.8736	5,463.87	72.7816	5,463.87	67.6183	5,463.87	68.2654	5,463.87	65.7514	5,463.87	60.8638	5,463.87	64.4597	5,463.87	60.361	5,463.87	64.9552	5,463.87	46.358	5,463.87	63.5565	5,463.87	59.5543	5,463.87	64.742	5,463.87	59.4323	5,463.87	66.7614	5,463.87	55.2927	5,463.87	65.0202	5,463.87	51.9061	5,463.87	56.9034
5,657.23	80.1605	5,657.23	80.2287	5,657.23	79.0668	5,657.23	79.0482	5,657.23	79.3863	5,657.23	79.3887	5,657.23	81.2707	5,657.23	80.9907	5,657.23	79.4882	5,657.23	80.0531	5,657.23	77.0777	5,657.23	77.7407	5,657.23	75.0292	5,657.23	74.9894	5,657.23	74.5404	5,657.23	72.3037	5,657.23	76.3352	5,657.23	68.7934	5,657.23	73.3053	5,657.23	66.496	5,657.23	72.0063	5,657.23	64.5778	5,657.23	62.4269	5,657.23	64.4521	5,657.23	58.8979	5,657.23	64.8955	5,657.23	57.8636	5,657.23	62.225	5,657.23	54.4222	5,657.23	64.7093	5,657.23	59.943	5,657.23	65.7119	5,657.23	56.0765	5,657.23	65.0958	5,657.23	49.8568	5,657.23	57.2027
5,856.45	80.5435	5,856.45	80.491	5,856.45	79.1019	5,856.45	78.4302	5,856.45	79.2549	5,856.45	79.7597	5,856.45	80.6134	5,856.45	81.0172	5,856.45	80.1304	5,856.45	79.7509	5,856.45	78.1149	5,856.45	77.0555	5,856.45	76.3771	5,856.45	73.8011	5,856.45	76.2215	5,856.45	71.8962	5,856.45	77.2117	5,856.45	71.0019	5,856.45	71.7707	5,856.45	68.0095	5,856.45	69.5527	5,856.45	64.9913	5,856.45	64.9722	5,856.45	64.2378	5,856.45	56.2734	5,856.45	64.5181	5,856.45	64.5552	5,856.45	62.829	5,856.45	56.126	5,856.45	65.1959	5,856.45	59.6323	5,856.45	65.9718	5,856.45	55.9572	5,856.45	65.9997	5,856.45	44.2261	5,856.45	57.8705
6,062.99	80.9965	6,062.99	80.1538	6,062.99	79.4786	6,062.99	78.0071	6,062.99	79.3822	6,062.99	80.1598	6,062.99	80.452	6,062.99	80.7026	6,062.99	79.3953	6,062.99	79.341	6,062.99	76.7251	6,062.99	76.8814	6,062.99	75.6848	6,062.99	74.9386	6,062.99	75.8171	6,062.99	72.7827	6,062.99	77.8811	6,062.99	71.0274	6,062.99	72.9081	6,062.99	68.6709	6,062.99	67.19	6,062.99	66.4438	6,062.99	64.309	6,062.99	65.4994	6,062.99	58.5747	6,062.99	63.7994	6,062.99	62.1603	6,062.99	62.6612	6,062.99	61.5873	6,062.99	64.8726	6,062.99	58.6381	6,062.99	65.9819	6,062.99	54.7497	6,062.99	66.0007	6,062.99	38.9065	6,062.99	58.8112
6,276.86	81.7623	6,276.86	80.0714	6,276.86	79.8813	6,276.86	78.0861	6,276.86	79.2437	6,276.86	79.8276	6,276.86	80.232	6,276.86	80.0585	6,276.86	79.0909	6,276.86	79.3647	6,276.86	75.7336	6,276.86	77.8421	6,276.86	74.8337	6,276.86	76.1806	6,276.86	75.6075	6,276.86	73.7686	6,276.86	77.4616	6,276.86	71.6038	6,276.86	72.8827	6,276.86	69.1819	6,276.86	67.8906	6,276.86	66.9777	6,276.86	67.0408	6,276.86	65.8217	6,276.86	57.2034	6,276.86	64.34	6,276.86	62.2994	6,276.86	62.5185	6,276.86	57.7292	6,276.86	64.3916	6,276.86	49.686	6,276.86	66.2747	6,276.86	53.6021	6,276.86	66.0011	6,276.86	39.2485	6,276.86	59.3329
6,498.05	82.2327	6,498.05	80.3632	6,498.05	79.9917	6,498.05	78.3211	6,498.05	78.987	6,498.05	79.1728	6,498.05	79.8275	6,498.05	79.6556	6,498.05	79.6037	6,498.05	79.5487	6,498.05	78.1189	6,498.05	78.4739	6,498.05	75.8937	6,498.05	77.1525	6,498.05	75.8977	6,498.05	73.9157	6,498.05	76.2508	6,498.05	71.3846	6,498.05	72.0435	6,498.05	68.2201	6,498.05	68.1848	6,498.05	66.3996	6,498.05	64.3693	6,498.05	65.0092	6,498.05	59.4131	6,498.05	63.5253	6,498.05	61.0923	6,498.05	61.5356	6,498.05	57.2238	6,498.05	62.3009	6,498.05	57.6643	6,498.05	65.5272	6,498.05	56.1378	6,498.05	65.6184	6,498.05	38.2459	6,498.05	58.1961
6,726.56	82.4502	6,726.56	80.7115	6,726.56	80.2918	6,726.56	78.7358	6,726.56	79.2941	6,726.56	78.8112	6,726.56	79.615	6,726.56	79.6439	6,726.56	79.7759	6,726.56	79.4854	6,726.56	78.7035	6,726.56	79.0569	6,726.56	77.1689	6,726.56	76.3437	6,726.56	77.0113	6,726.56	73.0661	6,726.56	75.8639	6,726.56	69.841	6,726.56	69.415	6,726.56	66.7689	6,726.56	66.6582	6,726.56	64.3961	6,726.56	60.4974	6,726.56	63.1896	6,726.56	61.3012	6,726.56	61.7533	6,726.56	58.9288	6,726.56	61.4121	6,726.56	51.825	6,726.56	60.3193	6,726.56	54.1944	6,726.56	64.4523	6,726.56	54.3111	6,726.56	64.3397	6,726.56	47.7176	6,726.56	59.1936
6,963.87	82.5748	6,963.87	80.8981	6,963.87	80.7628	6,963.87	78.8906	6,963.87	79.2337	6,963.87	78.849	6,963.87	79.7168	6,963.87	79.4669	6,963.87	79.4447	6,963.87	79.711	6,963.87	77.9716	6,963.87	78.3656	6,963.87	76.5633	6,963.87	74.7824	6,963.87	77.8109	6,963.87	71.6721	6,963.87	77.5427	6,963.87	68.5784	6,963.87	69.8622	6,963.87	65.8142	6,963.87	61.7215	6,963.87	62.796	6,963.87	60.5538	6,963.87	62.1959	6,963.87	62.9988	6,963.87	60.129	6,963.87	61.5486	6,963.87	61.0547	6,963.87	56.6436	6,963.87	56.2524	6,963.87	56.7992	6,963.87	63.2346	6,963.87	52.9571	6,963.87	63.1001	6,963.87	45.3069	6,963.87	58.7009
7,209.96	82.496	7,209.96	81.2624	7,209.96	80.7455	7,209.96	79.1815	7,209.96	79.3172	7,209.96	78.6456	7,209.96	80.0052	7,209.96	79.315	7,209.96	79.0438	7,209.96	79.7559	7,209.96	77.4368	7,209.96	77.1675	7,209.96	75.8548	7,209.96	74.5731	7,209.96	76.6602	7,209.96	71.6533	7,209.96	77.2367	7,209.96	68.9953	7,209.96	70.7206	7,209.96	66.0278	7,209.96	64.4384	7,209.96	62.7906	7,209.96	58.2542	7,209.96	62.0521	7,209.96	58.135	7,209.96	60.819	7,209.96	55.9919	7,209.96	60.48	7,209.96	56.4554	7,209.96	56.2483	7,209.96	56.5722	7,209.96	61.9159	7,209.96	52.7673	7,209.96	62.146	7,209.96	46.2977	7,209.96	58.0792
7,464.84	82.3488	7,464.84	81.4395	7,464.84	80.9138	7,464.84	79.3017	7,464.84	79.6796	7,464.84	78.7673	7,464.84	79.9969	7,464.84	79.3128	7,464.84	78.6262	7,464.84	78.8789	7,464.84	76.7101	7,464.84	76.0071	7,464.84	74.2191	7,464.84	74.715	7,464.84	75.9047	7,464.84	70.4417	7,464.84	77.3199	7,464.84	68.4448	7,464.84	68.09	7,464.84	65.7419	7,464.84	62.9962	7,464.84	62.4238	7,464.84	59.2143	7,464.84	61.0159	7,464.84	48.0808	7,464.84	59.9209	7,464.84	56.2652	7,464.84	59.7943	7,464.84	52.5683	7,464.84	55.8169	7,464.84	53.2891	7,464.84	60.487	7,464.84	49.5169	7,464.84	61.5793	7,464.84	44.7738	7,464.84	58.6479
7,727.05	82.0545	7,727.05	81.3867	7,727.05	80.5037	7,727.05	79.5413	7,727.05	79.7175	7,727.05	78.9966	7,727.05	80.0918	7,727.05	79.1198	7,727.05	78.7557	7,727.05	77.7203	7,727.05	76.0939	7,727.05	76.1222	7,727.05	72.3685	7,727.05	74.2808	7,727.05	75.2132	7,727.05	71.2594	7,727.05	77.075	7,727.05	68.3747	7,727.05	67.4245	7,727.05	65.245	7,727.05	54.7091	7,727.05	62.4827	7,727.05	55.8244	7,727.05	60.5895	7,727.05	47.5553	7,727.05	59.6955	7,727.05	56.9929	7,727.05	59.7272	7,727.05	51.2498	7,727.05	54.2337	7,727.05	51.3878	7,727.05	59.9211	7,727.05	54.0504	7,727.05	60.6698	7,727.05	47.7393	7,727.05	58.2341
7,999.51	81.7853	7,999.51	81.2321	7,999.51	80.4941	7,999.51	79.8082	7,999.51	79.9818	7,999.51	79.5079	7,999.51	80.1207	7,999.51	78.6274	7,999.51	78.9816	7,999.51	77.3221	7,999.51	76.1565	7,999.51	76.1279	7,999.51	73.3416	7,999.51	74.0057	7,999.51	75.4184	7,999.51	70.8446	7,999.51	74.021	7,999.51	67.3135	7,999.51	68.1447	7,999.51	64.8661	7,999.51	57.5138	7,999.51	61.2821	7,999.51	56.0229	7,999.51	60.7955	7,999.51	56.0284	7,999.51	58.5028	7,999.51	58.84	7,999.51	58.9639	7,999.51	44.4675	7,999.51	54.471	7,999.51	58.4366	7,999.51	58.5659	7,999.51	50.2089	7,999.51	59.1268	7,999.51	34.7463	7,999.51	58.8314
8,282.23	81.279	8,282.23	80.938	8,282.23	80.6954	8,282.23	80.1427	8,282.23	80.1581	8,282.23	79.6649	8,282.23	79.8556	8,282.23	77.8604	8,282.23	79.0833	8,282.23	77.4686	8,282.23	75.9445	8,282.23	75.6315	8,282.23	73.6209	8,282.23	73.5799	8,282.23	75.2745	8,282.23	69.1478	8,282.23	71.0681	8,282.23	65.716	8,282.23	61.8176	8,282.23	62.5899	8,282.23	65.8569	8,282.23	59.2731	8,282.23	53.5013	8,282.23	59.3634	8,282.23	60.0982	8,282.23	57.2421	8,282.23	56.4137	8,282.23	57.4193	8,282.23	47.4585	8,282.23	53.2399	8,282.23	55.393	8,282.23	55.6023	8,282.23	51.225	8,282.23	57.9076	8,282.23	43.7962	8,282.23	57.1502
8,573.73	81.214	8,573.73	81.134	8,573.73	80.5288	8,573.73	80.3407	8,573.73	80.424	8,573.73	79.3656	8,573.73	79.2655	8,573.73	77.7067	8,573.73	78.6821	8,573.73	77.2979	8,573.73	75.9913	8,573.73	74.8981	8,573.73	69.7387	8,573.73	71.4889	8,573.73	72.7533	8,573.73	67.1376	8,573.73	65.876	8,573.73	64.892	8,573.73	58.2738	8,573.73	61.6423	8,573.73	63.3967	8,573.73	58.692	8,573.73	59.2521	8,573.73	58.6713	8,573.73	61.66	8,573.73	57.0621	8,573.73	56.5271	8,573.73	56.064	8,573.73	50.4872	8,573.73	54.2168	8,573.73	55.0742	8,573.73	53.7803	8,573.73	52.1886	8,573.73	55.3733	8,573.73	47.0708	8,573.73	57.2224
8,876.95	80.9585	8,876.95	80.9392	8,876.95	80.4165	8,876.95	80.4367	8,876.95	80.794	8,876.95	78.9676	8,876.95	78.1841	8,876.95	77.6713	8,876.95	77.6521	8,876.95	77.1781	8,876.95	76.287	8,876.95	74.1966	8,876.95	68.9554	8,876.95	70.8691	8,876.95	69.1086	8,876.95	69.3181	8,876.95	63.8744	8,876.95	65.1622	8,876.95	64.3462	8,876.95	63.3123	8,876.95	57.9804	8,876.95	59.3135	8,876.95	61.1914	8,876.95	59.6953	8,876.95	58.6563	8,876.95	57.5144	8,876.95	52.2267	8,876.95	56.6516	8,876.95	51.6814	8,876.95	55.0701	8,876.95	53.7843	8,876.95	53.8355	8,876.95	54.618	8,876.95	54.4478	8,876.95	43.6647	8,876.95	56.5503
9,188.96	81.2276	9,188.96	80.9558	9,188.96	80.4246	9,188.96	80.5948	9,188.96	80.975	9,188.96	78.7232	9,188.96	78.0671	9,188.96	77.583	9,188.96	77.4631	9,188.96	76.5769	9,188.96	76.4723	9,188.96	74.2495	9,188.96	71.9509	9,188.96	72.5042	9,188.96	69.8487	9,188.96	69.7907	9,188.96	68.8064	9,188.96	64.7428	9,188.96	66.7698	9,188.96	63.4758	9,188.96	48.9216	9,188.96	58.4765	9,188.96	57.5762	9,188.96	58.4309	9,188.96	59.3358	9,188.96	56.1877	9,188.96	46.3386	9,188.96	56.1566	9,188.96	53.5187	9,188.96	55.3265	9,188.96	55.4242	9,188.96	53.5694	9,188.96	54.4274	9,188.96	53.324	9,188.96	44.3375	9,188.96	54.6485
9,514.16	81.669	9,514.16	81.0277	9,514.16	81.1651	9,514.16	81.012	9,514.16	81.1378	9,514.16	78.6442	9,514.16	78.3003	9,514.16	77.5642	9,514.16	77.8283	9,514.16	75.9592	9,514.16	76.4702	9,514.16	75.2399	9,514.16	71.6664	9,514.16	72.3031	9,514.16	71.6266	9,514.16	68.7469	9,514.16	70.871	9,514.16	63.7138	9,514.16	66.5032	9,514.16	62.1359	9,514.16	60.4496	9,514.16	56.3924	9,514.16	56.147	9,514.16	57.0175	9,514.16	58.0792	9,514.16	54.3018	9,514.16	39.0667	9,514.16	54.6231	9,514.16	53.2264	9,514.16	55.0357	9,514.16	56.2281	9,514.16	52.8367	9,514.16	53.4785	9,514.16	52.2187	9,514.16	47.1792	9,514.16	52.5068
9,849.61	81.9863	9,849.61	81.2978	9,849.61	81.6279	9,849.61	81.2231	9,849.61	81.4327	9,849.61	78.8223	9,849.61	78.3602	9,849.61	77.2189	9,849.61	77.6666	9,849.61	76.1353	9,849.61	77.3047	9,849.61	75.5297	9,849.61	72.3653	9,849.61	71.159	9,849.61	72.1336	9,849.61	67.7892	9,849.61	69.7928	9,849.61	62.9216	9,849.61	62.0119	9,849.61	61.6245	9,849.61	62.2736	9,849.61	54.7279	9,849.61	48.3149	9,849.61	56.5794	9,849.61	61.2692	9,849.61	54.1391	9,849.61	42.9801	9,849.61	53.2135	9,849.61	49.3503	9,849.61	54.9454	9,849.61	53.1017	9,849.61	52.4501	9,849.61	54.9341	9,849.61	50.24	9,849.61	47.5794	9,849.61	52.8584
10,196.8	81.9761	10,196.8	81.2696	10,196.8	81.7802	10,196.8	81.1712	10,196.8	81.8042	10,196.8	78.7345	10,196.8	79.0773	10,196.8	76.698	10,196.8	76.7323	10,196.8	76.3935	10,196.8	76.7264	10,196.8	74.3839	10,196.8	71.6866	10,196.8	70.8692	10,196.8	70.2807	10,196.8	65.7528	10,196.8	66.8067	10,196.8	62.6811	10,196.8	55.221	10,196.8	59.1881	10,196.8	60.9489	10,196.8	54.7709	10,196.8	55.3575	10,196.8	55.0603	10,196.8	60.9557	10,196.8	52.2124	10,196.8	50.2681	10,196.8	54.4178	10,196.8	46.7729	10,196.8	52.0958	10,196.8	52.2731	10,196.8	52.6652	10,196.8	53.5986	10,196.8	48.6209	10,196.8	46.1938	10,196.8	52.7976
10,555.7	81.8329	10,555.7	81.2437	10,555.7	81.4884	10,555.7	81.1086	10,555.7	81.5254	10,555.7	78.3995	10,555.7	79.2512	10,555.7	76.5326	10,555.7	76.6837	10,555.7	75.9138	10,555.7	76.6278	10,555.7	73.5376	10,555.7	72.2661	10,555.7	69.5375	10,555.7	66.4313	10,555.7	65.4162	10,555.7	64.842	10,555.7	61.9691	10,555.7	60.6418	10,555.7	57.5294	10,555.7	60.6107	10,555.7	54.9256	10,555.7	42.9233	10,555.7	53.2252	10,555.7	59.2158	10,555.7	50.9308	10,555.7	54.2831	10,555.7	53.6187	10,555.7	47.1587	10,555.7	49.7333	10,555.7	49.9781	10,555.7	52.042	10,555.7	52.2901	10,555.7	48.2621	10,555.7	43.8883	10,555.7	51.1128
10,927.7	82.0717	10,927.7	81.2829	10,927.7	81.2286	10,927.7	81.1245	10,927.7	81.4543	10,927.7	78.0377	10,927.7	79.4264	10,927.7	76.5099	10,927.7	76.7897	10,927.7	75.0851	10,927.7	76.4049	10,927.7	72.8998	10,927.7	71.6002	10,927.7	68.1841	10,927.7	65.5816	10,927.7	63.8701	10,927.7	63.0845	10,927.7	58.808	10,927.7	56.8996	10,927.7	55.7445	10,927.7	55.4108	10,927.7	52.3849	10,927.7	35.1319	10,927.7	50.9725	10,927.7	53.3382	10,927.7	48.056	10,927.7	52.8708	10,927.7	50.4482	10,927.7	48.757	10,927.7	47.9961	10,927.7	49.8035	10,927.7	49.9962	10,927.7	49.7705	10,927.7	46.9983	10,927.7	46.7649	10,927.7	47.0167
11,313	82.0958	11,313	81.3209	11,313	80.9069	11,313	81.3128	11,313	80.994	11,313	77.7183	11,313	79.2535	11,313	76.8586	11,313	76.7188	11,313	74.1873	11,313	75.6565	11,313	72.2649	11,313	70.8462	11,313	64.721	11,313	67.3794	11,313	60.9119	11,313	62.7713	11,313	56.9099	11,313	56.4489	11,313	54.1177	11,313	55.4075	11,313	51.5555	11,313	45.3236	11,313	49.2245	11,313	53.4389	11,313	49.1802	11,313	52.0417	11,313	50.949	11,313	51.6427	11,313	48.2454	11,313	36.7501	11,313	49.252	11,313	48.26	11,313	48.4241	11,313	50.8041	11,313	43.013
11,712.9	82.289	11,712.9	81.5351	11,712.9	81.2841	11,712.9	81.2997	11,712.9	80.3683	11,712.9	78.1948	11,712.9	79.1955	11,712.9	76.6049	11,712.9	76.0954	11,712.9	73.7497	11,712.9	75.0566	11,712.9	70.8758	11,712.9	70.9439	11,712.9	65.6147	11,712.9	64.6823	11,712.9	62.4262	11,712.9	58.8444	11,712.9	59.7373	11,712.9	57.9442	11,712.9	53.6612	11,712.9	60.5092	11,712.9	51.7497	11,712.9	50.7562	11,712.9	49.6465	11,712.9	51.2915	11,712.9	48.7954	11,712.9	49.8666	11,712.9	51.3497	11,712.9	51.2258	11,712.9	49.1039	11,712.9	35.9939	11,712.9	50.035	11,712.9	51.2893	11,712.9	49.8967	11,712.9	51.6601	11,712.9	48.1558
12,126	82.4364	12,126	81.9901	12,126	81.8323	12,126	80.9249	12,126	80.1236	12,126	78.7052	12,126	79.0438	12,126	76.0621	12,126	75.381	12,126	73.533	12,126	74.5548	12,126	68.9316	12,126	69.6181	12,126	66.7086	12,126	45.6808	12,126	61.1078	12,126	54.9823	12,126	58.7419	12,126	62.6102	12,126	52.7047	12,126	60.681	12,126	50.9352	12,126	52.3619	12,126	47.9608	12,126	53.8645	12,126	48.3094	12,126	49.1307	12,126	49.4417	12,126	47.7504	12,126	48.4107	12,126	47.2582	12,126	47.9987	12,126	52.7163	12,126	47.8902	12,126	51.9084	12,126	50.8496
12,553.7	82.6144	12,553.7	82.2356	12,553.7	82.1997	12,553.7	80.5862	12,553.7	80.5972	12,553.7	78.7796	12,553.7	78.9547	12,553.7	75.5035	12,553.7	75.3733	12,553.7	72.8583	12,553.7	74.2913	12,553.7	69.184	12,553.7	69.9557	12,553.7	65.2954	12,553.7	59.9652	12,553.7	61.1273	12,553.7	56.8424	12,553.7	56.4741	12,553.7	63.0806	12,553.7	52.5059	12,553.7	58.5855	12,553.7	48.5772	12,553.7	53.9412	12,553.7	46.3416	12,553.7	51.9658	12,553.7	48.3412	12,553.7	47.6591	12,553.7	46.3969	12,553.7	48.1402	12,553.7	50.3418	12,553.7	48.4603	12,553.7	48.6975	12,553.7	51.2273	12,553.7	45.4937	12,553.7	49.7041	12,553.7	51.105
12,996.1	82.9099	12,996.1	82.1584	12,996.1	82.2552	12,996.1	80.3212	12,996.1	80.8794	12,996.1	78.4264	12,996.1	78.6815	12,996.1	74.8355	12,996.1	75.3512	12,996.1	72.4231	12,996.1	72.7315	12,996.1	69.3913	12,996.1	69.0312	12,996.1	64.2971	12,996.1	63.3801	12,996.1	61.5535	12,996.1	58.4585	12,996.1	55.705	12,996.1	61.8939	12,996.1	53.7317	12,996.1	57.1196	12,996.1	47.1787	12,996.1	55.0625	12,996.1	47.1198	12,996.1	50.7812	12,996.1	48.9142	12,996.1	47.5698	12,996.1	43.1733	12,996.1	45.2062	12,996.1	51.4064	12,996.1	48.1442	12,996.1	49.7407	12,996.1	48.224	12,996.1	43.9873	12,996.1	45.257	12,996.1	50.1593
13,454.6	82.9856	13,454.6	81.9865	13,454.6	82.2224	13,454.6	80.3393	13,454.6	81.0586	13,454.6	77.9228	13,454.6	78.5542	13,454.6	74.4995	13,454.6	75.0936	13,454.6	71.6382	13,454.6	71.8912	13,454.6	69.6466	13,454.6	67.5283	13,454.6	63.8545	13,454.6	60.1955	13,454.6	60.6704	13,454.6	56.9305	13,454.6	56.1963	13,454.6	61.025	13,454.6	51.9486	13,454.6	53.1059	13,454.6	45.9193	13,454.6	50.2657	13,454.6	45.5039	13,454.6	51.9693	13,454.6	47.1063	13,454.6	44.1714	13,454.6	41.7868	13,454.6	43.0498	13,454.6	52.0508	13,454.6	46.1975	13,454.6	45.9525	13,454.6	46.299	13,454.6	39.9594	13,454.6	45.5673	13,454.6	47.8817
13,929.2	82.9167	13,929.2	81.989	13,929.2	82.3098	13,929.2	80.3728	13,929.2	81.1948	13,929.2	77.7275	13,929.2	78.5426	13,929.2	74.178	13,929.2	75.3665	13,929.2	71.6732	13,929.2	72.8144	13,929.2	69.0995	13,929.2	70.0784	13,929.2	62.8746	13,929.2	61.7523	13,929.2	58.8336	13,929.2	52.4289	13,929.2	55.9139	13,929.2	60.7927	13,929.2	51.7404	13,929.2	51.6823	13,929.2	47.4663	13,929.2	39.1201	13,929.2	44.9559	13,929.2	53.2598	13,929.2	45.3174	13,929.2	43.0763	13,929.2	45.3158	13,929.2	42.7762	13,929.2	51.484	13,929.2	45.9779	13,929.2	43.8032	13,929.2	46.0277	13,929.2	36.3084	13,929.2	47.667	13,929.2	46.0528
14,419.9	82.7897	14,419.9	82.0153	14,419.9	82.1256	14,419.9	80.4309	14,419.9	81.0971	14,419.9	77.6381	14,419.9	78.4009	14,419.9	73.9472	14,419.9	75.189	14,419.9	71.4418	14,419.9	71.8502	14,419.9	67.92	14,419.9	68.4427	14,419.9	63.3985	14,419.9	59.0632	14,419.9	60.2846	14,419.9	53.847	14,419.9	57.0139	14,419.9	58.3062	14,419.9	52.6207	14,419.9	55.1644	14,419.9	49.6544	14,419.9	41.481	14,419.9	44.9697	14,419.9	50.877	14,419.9	45.572	14,419.9	45.2309	14,419.9	46.5947	14,419.9	45.0257	14,419.9	50.4145	14,419.9	46.9816	14,419.9	45.7599	14,419.9	47.1552	14,419.9	39.5338	14,419.9	47.9009	14,419.9	46.7944
14,928.2	82.8026	14,928.2	82.147	14,928.2	82.0433	14,928.2	80.3997	14,928.2	80.5926	14,928.2	77.3026	14,928.2	77.9706	14,928.2	73.7562	14,928.2	74.3675	14,928.2	70.4066	14,928.2	70.7229	14,928.2	66.6106	14,928.2	68.4534	14,928.2	63.4474	14,928.2	59.1238	14,928.2	58.1991	14,928.2	56.4585	14,928.2	54.8177	14,928.2	57.9502	14,928.2	50.8822	14,928.2	54.3423	14,928.2	48.7378	14,928.2	49.1199	14,928.2	43.1357	14,928.2	54.5417	14,928.2	43.1915	14,928.2	46.3603	14,928.2	44.9707	14,928.2	48.7598	14,928.2	48.6165	14,928.2	49.0322	14,928.2	44.6204	14,928.2	48.2806	14,928.2	38.5244	14,928.2	48.2659	14,928.2	49.1085
15,455.6	82.815	15,455.6	82.2797	15,455.6	82.1088	15,455.6	79.8855	15,455.6	80.0452	15,455.6	76.965	15,455.6	77.3427	15,455.6	73.1271	15,455.6	73.2505	15,455.6	69.3217	15,455.6	70.7857	15,455.6	65.5436	15,455.6	68.1212	15,455.6	62.3205	15,455.6	63.8964	15,455.6	58.2811	15,455.6	55.7998	15,455.6	53.8965	15,455.6	55.4747	15,455.6	49.6635	15,455.6	52.5173	15,455.6	47.4434	15,455.6	49.3186	15,455.6	39.6379	15,455.6	55.7179	15,455.6	45.3871	15,455.6	46.2852	15,455.6	45.7576	15,455.6	51.5155	15,455.6	47.0052	15,455.6	51.4745	15,455.6	45.6137	15,455.6	48.6925	15,455.6	35.557	15,455.6	47.9686	15,455.6	50.6194
16,000.5	82.5996	16,000.5	82.2184	16,000.5	82.0937	16,000.5	79.2585	16,000.5	79.9003	16,000.5	76.5524	16,000.5	77.0111	16,000.5	72.2355	16,000.5	72.6495	16,000.5	68.5316	16,000.5	69.9001	16,000.5	64.7325	16,000.5	65.7416	16,000.5	61.7847	16,000.5	63.0697	16,000.5	56.3578	16,000.5	58.4717	16,000.5	51.1118	16,000.5	53.6199	16,000.5	46.1367	16,000.5	50.4335	16,000.5	43.4285	16,000.5	51.086	16,000.5	37.171	16,000.5	54.6507	16,000.5	44.0926	16,000.5	46.985	16,000.5	45.5387	16,000.5	51.0749	16,000.5	42.4303	16,000.5	50.5277	16,000.5	45.2823	16,000.5	47.9321	16,000.5	36.3145	16,000.5	45.4155	16,000.5	50.2281
16,564.5	82.3725	16,564.5	81.9028	16,564.5	81.8781	16,564.5	78.7778	16,564.5	79.9219	16,564.5	75.8635	16,564.5	76.8203	16,564.5	71.5874	16,564.5	72.16	16,564.5	67.693	16,564.5	67.5192	16,564.5	65.7689	16,564.5	64.2278	16,564.5	59.0608	16,564.5	58.3825	16,564.5	54.7713	16,564.5	62.1383	16,564.5	50.5518	16,564.5	54.9453	16,564.5	45.842	16,564.5	50.6735	16,564.5	43.56	16,564.5	53.6234	16,564.5	38.492	16,564.5	52.3081	16,564.5	42.0942	16,564.5	44.0958	16,564.5	44.5634	16,564.5	51.3755	16,564.5	39.5522	16,564.5	48.8557	16,564.5	42.7186	16,564.5	46.2354	16,564.5	32.9239	16,564.5	41.5726	16,564.5	48.758
17,148.9	82.032	17,148.9	81.5398	17,148.9	81.5096	17,148.9	78.5762	17,148.9	79.8646	17,148.9	75.541	17,148.9	76.4801	17,148.9	70.8517	17,148.9	72.0589	17,148.9	67.6047	17,148.9	66.8786	17,148.9	65.5719	17,148.9	65.937	17,148.9	58.6864	17,148.9	63.5813	17,148.9	55.7687	17,148.9	62.8754	17,148.9	51.1525	17,148.9	52.1001	17,148.9	47.268	17,148.9	49.1086	17,148.9	43.2661	17,148.9	52.6551	17,148.9	39.8477	17,148.9	52.5122	17,148.9	42.6512	17,148.9	48.685	17,148.9	43.9076	17,148.9	50.7905	17,148.9	44.7012	17,148.9	45.1228	17,148.9	41.2625	17,148.9	43.9123	17,148.9	32.7581	17,148.9	41.2961	17,148.9	48.4222
17,752.4	82.0242	17,752.4	81.4972	17,752.4	81.3683	17,752.4	78.6071	17,752.4	79.694	17,752.4	75.3671	17,752.4	75.7479	17,752.4	71.0319	17,752.4	72.1739	17,752.4	66.9329	17,752.4	67.507	17,752.4	65.3231	17,752.4	66.5866	17,752.4	58.8768	17,752.4	64.299	17,752.4	56.2734	17,752.4	59.757	17,752.4	52.3844	17,752.4	49.7179	17,752.4	47.1787	17,752.4	41.9566	17,752.4	43.1037	17,752.4	48.9151	17,752.4	38.4694	17,752.4	49.8196	17,752.4	40.3541	17,752.4	48.5608	17,752.4	41.2522	17,752.4	50.3743	17,752.4	46.7153	17,752.4	42.8623	17,752.4	42.0391	17,752.4	42.51	17,752.4	34.4399	17,752.4	41.9865	17,752.4	48.6513
18,379.4	82.208	18,379.4	81.551	18,379.4	81.3668	18,379.4	78.767	18,379.4	79.4954	18,379.4	75.1582	18,379.4	75.5133	18,379.4	71.5532	18,379.4	72.066	18,379.4	66.431	18,379.4	67.5449	18,379.4	64.9725	18,379.4	65.831	18,379.4	60.3083	18,379.4	62.7354	18,379.4	55.9316	18,379.4	58.8056	18,379.4	51.7856	18,379.4	49.2573	18,379.4	44.8483	18,379.4	33.4935	18,379.4	43.961	18,379.4	47.7173	18,379.4	34.4719	18,379.4	45.9269	18,379.4	41.1352	18,379.4	46.9348	18,379.4	39.2509	18,379.4	49.9601	18,379.4	45.968	18,379.4	44.2729	18,379.4	43.4006	18,379.4	40.7281	18,379.4	42.8692	18,379.4	43.6406	18,379.4	49.5033
19,026.9	82.295	19,026.9	81.4901	19,026.9	81.474	19,026.9	78.7413	19,026.9	79.4775	19,026.9	75.1428	19,026.9	75.7438	19,026.9	71.4508	19,026.9	71.9314	19,026.9	66.0632	19,026.9	66.8643	19,026.9	64.29	19,026.9	64.4049	19,026.9	59.308	19,026.9	61.612	19,026.9	51.6919	19,026.9	58.7705	19,026.9	48.8816	19,026.9	40.8765	19,026.9	41.4557	19,026.9	39.114	19,026.9	39.9753	19,026.9	38.3493	19,026.9	31.7642	19,026.9	41.2097	19,026.9	39.5339	19,026.9	42.961	19,026.9	35.9762	19,026.9	44.9982	19,026.9	43.6204	19,026.9	41.8213	19,026.9	40.9369	19,026.9	36.3623	19,026.9	43.828	19,026.9	42.4754	19,026.9	48.8591
19,697.8	82.0052	19,697.8	81.1973	19,697.8	81.3401	19,697.8	78.4693	19,697.8	79.4073	19,697.8	74.9088	19,697.8	75.5836	19,697.8	70.557	19,697.8	71.2743	19,697.8	65.3248	19,697.8	66.9491	19,697.8	62.4337	19,697.8	62.2872	19,697.8	56.9139	19,697.8	57.553	19,697.8	48.3596	19,697.8	54.5138	19,697.8	45.4393	19,697.8	36.9307	19,697.8	41.1545	19,697.8	46.2827	19,697.8	37.0349	19,697.8	44.8871	19,697.8	30.7934	19,697.8	27.0498	19,697.8	37.1555	19,697.8	35.2166	19,697.8	36.6795	19,697.8	40.0524	19,697.8	40.2994	19,697.8	35.1643	19,697.8	39.0572	19,697.8	37.4821	19,697.8	43.4214	19,697.8	35.9363	19,697.8	46.8307
19,999.5	81.7559	19,999.5	80.9965	19,999.5	80.9947	19,999.5	78.2886	19,999.5	79.4253	19,999.5	74.7276	19,999.5	75.6276	19,999.5	69.6015	19,999.5	70.5544	19,999.5	64.4971	19,999.5	66.8464	19,999.5	60.7772	19,999.5	57.9941	19,999.5	56.2762	19,999.5	52.6909	19,999.5	48.2097	19,999.5	52.8574	19,999.5	44.994	19,999.5	46.4459	19,999.5	31.0144	19,999.5	49.1978	19,999.5	31.3384	19,999.5	46.5153	19,999.5	36.2279	19,999.5	48.8074	19,999.5	45.5122	19,999.5	48.8014	19,999.5	41.4982	19,999.5	42.5302	19,999.5	44.6762	19,999.5	37.8091	19,999.5	34.5008	19,999.5	33.7078	19,999.5	47.4863	19,999.5	32.7281	19,999.5	46.6766
