"SPL Horizontal"																																																																							
"On-Axis"		"10°"		"-10°"		"20°"		"-20°"		"30°"		"-30°"		"40°"		"-40°"		"50°"		"-50°"		"60°"		"-60°"		"70°"		"-70°"		"80°"		"-80°"		"90°"		"-90°"		"100°"		"-100°"		"110°"		"-110°"		"120°"		"-120°"		"130°"		"-130°"		"140°"		"-140°"		"150°"		"-150°"		"160°"		"-160°"		"170°"		"-170°"		"180°"	
"Frequency [Hz]"	"Sound Pessure Level [dB]  / [2.83V 1m] "	"Frequency [Hz]"	"Sound Pessure Level [dB]  / [2.83V 1m] "	"Frequency [Hz]"	"Sound Pessure Level [dB]  / [2.83V 1m] "	"Frequency [Hz]"	"Sound Pessure Level [dB]  / [2.83V 1m] "	"Frequency [Hz]"	"Sound Pessure Level [dB]  / [2.83V 1m] "	"Frequency [Hz]"	"Sound Pessure Level [dB]  / [2.83V 1m] "	"Frequency [Hz]"	"Sound Pessure Level [dB]  / [2.83V 1m] "	"Frequency [Hz]"	"Sound Pessure Level [dB]  / [2.83V 1m] "	"Frequency [Hz]"	"Sound Pessure Level [dB]  / [2.83V 1m] "	"Frequency [Hz]"	"Sound Pessure Level [dB]  / [2.83V 1m] "	"Frequency [Hz]"	"Sound Pessure Level [dB]  / [2.83V 1m] "	"Frequency [Hz]"	"Sound Pessure Level [dB]  / [2.83V 1m] "	"Frequency [Hz]"	"Sound Pessure Level [dB]  / [2.83V 1m] "	"Frequency [Hz]"	"Sound Pessure Level [dB]  / [2.83V 1m] "	"Frequency [Hz]"	"Sound Pessure Level [dB]  / [2.83V 1m] "	"Frequency [Hz]"	"Sound Pessure Level [dB]  / [2.83V 1m] "	"Frequency [Hz]"	"Sound Pessure Level [dB]  / [2.83V 1m] "	"Frequency [Hz]"	"Sound Pessure Level [dB]  / [2.83V 1m] "	"Frequency [Hz]"	"Sound Pessure Level [dB]  / [2.83V 1m] "	"Frequency [Hz]"	"Sound Pessure Level [dB]  / [2.83V 1m] "	"Frequency [Hz]"	"Sound Pessure Level [dB]  / [2.83V 1m] "	"Frequency [Hz]"	"Sound Pessure Level [dB]  / [2.83V 1m] "	"Frequency [Hz]"	"Sound Pessure Level [dB]  / [2.83V 1m] "	"Frequency [Hz]"	"Sound Pessure Level [dB]  / [2.83V 1m] "	"Frequency [Hz]"	"Sound Pessure Level [dB]  / [2.83V 1m] "	"Frequency [Hz]"	"Sound Pessure Level [dB]  / [2.83V 1m] "	"Frequency [Hz]"	"Sound Pessure Level [dB]  / [2.83V 1m] "	"Frequency [Hz]"	"Sound Pessure Level [dB]  / [2.83V 1m] "	"Frequency [Hz]"	"Sound Pessure Level [dB]  / [2.83V 1m] "	"Frequency [Hz]"	"Sound Pessure Level [dB]  / [2.83V 1m] "	"Frequency [Hz]"	"Sound Pessure Level [dB]  / [2.83V 1m] "	"Frequency [Hz]"	"Sound Pessure Level [dB]  / [2.83V 1m] "	"Frequency [Hz]"	"Sound Pessure Level [dB]  / [2.83V 1m] "	"Frequency [Hz]"	"Sound Pessure Level [dB]  / [2.83V 1m] "	"Frequency [Hz]"	"Sound Pessure Level [dB]  / [2.83V 1m] "	"Frequency [Hz]"	"Sound Pessure Level [dB]  / [2.83V 1m] "
20.5078	50.6146	20.5078	50.3434	20.5078	50.5382	20.5078	49.691	20.5078	50.1076	20.5078	48.5687	20.5078	49.2753	20.5078	46.7896	20.5078	47.9378	20.5078	43.9459	20.5078	45.9068	20.5078	39.1479	20.5078	42.9443	20.5078	35.7247	20.5078	39.9813	20.5078	42.3796	20.5078	41.961	20.5078	47.3481	20.5078	46.305	20.5078	50.7427	20.5078	49.806	20.5078	53.2548	20.5078	52.4786	20.5078	55.1914	20.5078	54.5596	20.5078	56.7029	20.5078	56.1972	20.5078	57.8695	20.5078	57.4765	20.5078	58.7361	20.5078	58.4472	20.5078	59.3282	20.5078	59.1381	20.5078	59.6601	20.5078	59.5658	20.5078	59.7388
21.9727	52.3796	21.9727	52.1573	21.9727	52.3391	21.9727	51.6673	21.9727	52.04	21.9727	50.9142	21.9727	51.4906	21.9727	49.9548	21.9727	50.7287	21.9727	49.0135	21.9727	49.8894	21.9727	48.6411	21.9727	49.3254	21.9727	49.4293	21.9727	49.5774	21.9727	51.1983	21.9727	50.8403	21.9727	53.2793	21.9727	52.6827	21.9727	55.2579	21.9727	54.6129	21.9727	56.9965	21.9727	56.389	21.9727	58.4705	21.9727	57.9339	21.9727	59.6869	21.9727	59.2339	21.9727	60.6581	21.9727	60.2933	21.9727	61.3944	21.9727	61.1197	21.9727	61.9028	21.9727	61.7193	21.9727	62.188	21.9727	62.096	21.9727	62.2521
23.4375	54.9085	23.4375	54.706	23.4375	54.8843	23.4375	54.2716	23.4375	54.6361	23.4375	53.603	23.4375	54.1666	23.4375	52.7233	23.4375	53.4917	23.4375	51.7434	23.4375	52.6751	23.4375	50.9881	23.4375	51.9048	23.4375	51.0198	23.4375	51.5708	23.4375	52.1241	23.4375	52.0899	23.4375	53.8927	23.4375	53.4313	23.4375	55.7858	23.4375	55.1548	23.4375	57.5287	23.4375	56.8849	23.4375	59.033	23.4375	58.4467	23.4375	60.2826	23.4375	59.7819	23.4375	61.282	23.4375	60.8775	23.4375	62.0393	23.4375	61.7348	23.4375	62.5613	23.4375	62.358	23.4375	62.8525	23.4375	62.7508	23.4375	62.9154
24.9023	56.666	24.9023	56.5246	24.9023	56.6444	24.9023	56.2283	24.9023	56.4638	24.9023	55.8041	24.9023	56.1418	24.9023	55.3186	24.9023	55.7224	24.9023	54.9086	24.9023	55.3002	24.9023	54.793	24.9023	55.0443	24.9023	55.1867	24.9023	55.1731	24.9023	56.1246	24.9023	55.8236	24.9023	57.4235	24.9023	56.9257	24.9023	58.8451	24.9023	58.2668	24.9023	60.2212	24.9023	59.6455	24.9023	61.4624	24.9023	60.936	24.9023	62.5277	24.9023	62.0742	24.9023	63.3997	24.9023	63.0303	24.9023	64.071	24.9023	63.7911	24.9023	64.5383	24.9023	64.3506	24.9023	64.8003	24.9023	64.7062	24.9023	64.8562
26.3672	59.1318	26.3672	59.0569	26.3672	59.105	26.3672	58.891	26.3672	58.9804	26.3672	58.6638	26.3672	58.7785	26.3672	58.4318	26.3672	58.543	26.3672	58.2863	26.3672	58.3494	26.3672	58.3443	26.3672	58.3063	26.3672	58.7073	26.3672	58.5295	26.3672	59.4001	26.3672	59.0834	26.3672	60.3506	26.3672	59.9358	26.3672	61.4356	26.3672	60.9775	26.3672	62.5388	26.3672	62.084	26.3672	63.5765	26.3672	63.1564	26.3672	64.4962	26.3672	64.1299	26.3672	65.2669	26.3672	64.9654	26.3672	65.8706	26.3672	65.6403	26.3672	66.2964	26.3672	66.1412	26.3672	66.5383	26.3672	66.4602	26.3672	66.5931
27.832	61.3961	27.832	61.3514	27.832	61.3839	27.832	61.2599	27.832	61.3197	27.832	61.1478	27.832	61.2233	27.832	61.0603	27.832	61.1326	27.832	61.0609	27.832	61.1039	27.832	61.2214	27.832	61.2068	27.832	61.5971	27.832	61.5044	27.832	62.1997	27.832	62.0258	27.832	62.9878	27.832	62.749	27.832	63.8866	27.832	63.6095	27.832	64.8158	27.832	64.5277	27.832	65.7082	27.832	65.4316	27.832	66.5148	27.832	66.2661	27.832	67.2022	27.832	66.9927	27.832	67.7482	27.832	67.5855	27.832	68.1385	27.832	68.0276	27.832	68.3644	27.832	68.3082	27.832	68.4213
29.2969	63.9098	29.2969	63.8907	29.2969	63.909	29.2969	63.8594	29.2969	63.8917	29.2969	63.8354	29.2969	63.8731	29.2969	63.8494	29.2969	63.8794	29.2969	63.9407	29.2969	63.9468	29.2969	64.1497	29.2969	64.1155	29.2969	64.5059	29.2969	64.4196	29.2969	65.0149	29.2969	64.8738	29.2969	65.6544	29.2969	65.4662	29.2969	66.3804	29.2969	66.1601	29.2969	67.1399	29.2969	66.9056	29.2969	67.8824	29.2969	67.6514	29.2969	68.5654	29.2969	68.3525	29.2969	69.1562	29.2969	68.9731	29.2969	69.631	29.2969	69.4865	29.2969	69.9731	29.2969	69.8735	29.2969	70.1719	29.2969	70.1211	29.2969	70.2216
30.7617	65.939	30.7617	65.9263	30.7617	65.9377	30.7617	65.906	30.7617	65.9252	30.7617	65.8945	30.7617	65.9141	30.7617	65.917	30.7617	65.9265	30.7617	66.0063	30.7617	65.9927	30.7617	66.1969	30.7617	66.1473	30.7617	66.5159	30.7617	66.4212	30.7617	66.9729	30.7617	66.8314	30.7617	67.5544	30.7617	67.3725	30.7617	68.2263	30.7617	68.017	30.7617	68.9426	30.7617	68.7219	30.7617	69.6555	30.7617	69.439	30.7617	70.322	30.7617	70.1231	30.7617	70.9067	30.7617	70.736	30.7617	71.382	30.7617	71.2476	30.7617	71.7279	30.7617	71.6353	30.7617	71.9309	30.7617	71.8837	30.7617	71.9835
32.2266	68.2933	32.2266	68.2922	32.2266	68.2968	32.2266	68.2982	32.2266	68.305	32.2266	68.3226	32.2266	68.3269	32.2266	68.3829	32.2266	68.3779	32.2266	68.5008	32.2266	68.4784	32.2266	68.6983	32.2266	68.6507	32.2266	68.9928	32.2266	68.9141	32.2266	69.3908	32.2266	69.2792	32.2266	69.8844	32.2266	69.7429	32.2266	70.4511	32.2266	70.2873	32.2266	71.0584	32.2266	70.883	32.2266	71.6692	32.2266	71.4938	32.2266	72.2472	32.2266	72.0831	32.2266	72.7601	32.2266	72.6171	32.2266	73.1812	32.2266	73.0671	32.2266	73.4901	32.2266	73.4108	32.2266	73.6726	32.2266	73.632	32.2266	73.7206
33.6914	70.5223	33.6914	70.5301	33.6914	70.528	33.6914	70.5547	33.6914	70.5488	33.6914	70.6039	33.6914	70.591	33.6914	70.6891	33.6914	70.6649	33.6914	70.8244	33.6914	70.7838	33.6914	71.0237	33.6914	70.9622	33.6914	71.2977	33.6914	71.2122	33.6914	71.6502	33.6914	71.5402	33.6914	72.0758	33.6914	71.944	33.6914	72.5592	33.6914	72.4113	33.6914	73.0769	33.6914	72.921	33.6914	73.6005	33.6914	73.4455	33.6914	74.1001	33.6914	73.9552	33.6914	74.5472	33.6914	74.4208	33.6914	74.9173	33.6914	74.8162	33.6914	75.1905	33.6914	75.1201	33.6914	75.3526	33.6914	75.3165	33.6914	75.3953
35.1563	72.4411	35.1563	72.4508	35.1563	72.4495	35.1563	72.4808	35.1563	72.4772	35.1563	72.5366	35.1563	72.5285	35.1563	72.6259	35.1563	72.6105	35.1563	72.7584	35.1563	72.7322	35.1563	72.9435	35.1563	72.9032	35.1563	73.1886	35.1563	73.1316	35.1563	73.4966	35.1563	73.4219	35.1563	73.8638	35.1563	73.7723	35.1563	74.2794	35.1563	74.1743	35.1563	74.7255	35.1563	74.6119	35.1563	75.1794	35.1563	75.064	35.1563	75.616	35.1563	75.5058	35.1563	76.01	35.1563	75.9122	35.1563	76.3387	35.1563	76.2594	35.1563	76.5832	35.1563	76.5273	35.1563	76.7294	35.1563	76.7006	35.1563	76.7693
36.6211	74.1051	36.6211	74.1176	36.6211	74.1132	36.6211	74.1521	36.6211	74.1425	36.6211	74.2123	36.6211	74.1961	36.6211	74.3036	36.6211	74.2788	36.6211	74.4325	36.6211	74.3968	36.6211	74.6054	36.6211	74.5565	36.6211	74.8274	36.6211	74.7635	36.6211	75.1004	36.6211	75.0209	36.6211	75.4217	36.6211	75.3276	36.6211	75.7832	36.6211	75.6771	36.6211	76.1712	36.6211	76.0576	36.6211	76.5671	36.6211	76.4519	36.6211	76.9497	36.6211	76.8397	36.6211	77.2969	36.6211	77.1988	36.6211	77.5878	36.6211	77.508	36.6211	77.8045	36.6211	77.7483	36.6211	77.934	36.6211	77.9049	36.6211	77.9681
38.0859	75.4672	38.0859	75.4814	38.0859	75.4757	38.0859	75.5194	38.0859	75.5074	38.0859	75.5836	38.0859	75.5642	38.0859	75.6777	38.0859	75.6493	38.0859	75.8057	38.0859	75.7666	38.0859	75.9719	38.0859	75.9204	38.0859	76.1792	38.0859	76.1141	38.0859	76.4284	38.0859	76.3495	38.0859	76.7171	38.0859	76.6254	38.0859	77.0385	38.0859	76.9366	38.0859	77.3817	38.0859	77.2736	38.0859	77.7315	38.0859	77.6225	38.0859	78.0699	38.0859	77.9661	38.0859	78.3778	38.0859	78.2854	38.0859	78.6365	38.0859	78.5614	38.0859	78.8297	38.0859	78.7767	38.0859	78.945	38.0859	78.9176	38.0859	78.975
39.5508	76.5808	39.5508	76.5957	39.5508	76.5904	39.5508	76.6357	39.5508	76.6246	39.5508	76.7022	39.5508	76.6847	39.5508	76.7976	39.5508	76.7725	39.5508	76.9242	39.5508	76.8903	39.5508	77.0843	39.5508	77.0406	39.5508	77.2796	39.5508	77.2251	39.5508	77.51	39.5508	77.4446	39.5508	77.773	39.5508	77.6973	39.5508	78.063	39.5508	77.9789	39.5508	78.3708	39.5508	78.2813	39.5508	78.6839	39.5508	78.5931	39.5508	78.9869	39.5508	78.8998	39.5508	79.2631	39.5508	79.185	39.5508	79.4957	39.5508	79.4318	39.5508	79.67	39.5508	79.6246	39.5508	79.7744	39.5508	79.7509	39.5508	79.802
41.0156	77.5826	41.0156	77.5987	41.0156	77.5896	41.0156	77.6384	41.0156	77.6199	41.0156	77.7023	41.0156	77.6742	41.0156	77.7918	41.0156	77.7534	41.0156	77.9082	41.0156	77.8591	41.0156	78.0528	41.0156	77.9924	41.0156	78.2264	41.0156	78.1546	41.0156	78.4286	41.0156	78.3458	41.0156	78.6574	41.0156	78.5646	41.0156	78.9081	41.0156	78.8076	41.0156	79.1736	41.0156	79.0686	41.0156	79.4435	41.0156	79.3383	41.0156	79.7049	41.0156	79.605	41.0156	79.9435	41.0156	79.8544	41.0156	80.1445	41.0156	80.0718	41.0156	80.2947	41.0156	80.2433	41.0156	80.3836	41.0156	80.3569	41.0156	80.4049
42.4805	78.2461	42.4805	78.2625	42.4805	78.253	42.4805	78.3022	42.4805	78.2832	42.4805	78.3658	42.4805	78.3369	42.4805	78.4536	42.4805	78.4145	42.4805	78.5664	42.4805	78.5167	42.4805	78.7044	42.4805	78.6438	42.4805	78.8677	42.4805	78.7963	42.4805	79.0555	42.4805	78.9736	42.4805	79.2655	42.4805	79.1744	42.4805	79.4938	42.4805	79.3955	42.4805	79.734	42.4805	79.6317	42.4805	79.9774	42.4805	79.8752	42.4805	80.2127	42.4805	80.1157	42.4805	80.4274	42.4805	80.341	42.4805	80.6083	42.4805	80.5378	42.4805	80.7434	42.4805	80.6935	42.4805	80.823	42.4805	80.7972	42.4805	80.8414
43.9453	78.7766	43.9453	78.7952	43.9453	78.7807	43.9453	78.8366	43.9453	78.8076	43.9453	78.9008	43.9453	78.8574	43.9453	78.9875	43.9453	78.9301	43.9453	79.0967	43.9453	79.0257	43.9453	79.228	43.9453	79.144	43.9453	79.3808	43.9453	79.2848	43.9453	79.5537	43.9453	79.4473	43.9453	79.7448	43.9453	79.6299	43.9453	79.9503	43.9453	79.83	43.9453	80.1649	43.9453	80.0428	43.9453	80.3812	43.9453	80.2619	43.9453	80.5896	43.9453	80.4784	43.9453	80.7792	43.9453	80.6816	43.9453	80.9386	43.9453	80.8598	43.9453	81.057	43.9453	81.0017	43.9453	81.1258	43.9453	81.0972	43.9453	81.1396
45.4102	79.159	45.4102	79.178	45.4102	79.1621	45.4102	79.219	45.4102	79.1873	45.4102	79.2816	45.4102	79.2346	45.4102	79.3652	45.4102	79.3036	45.4102	79.4692	45.4102	79.3938	45.4102	79.5926	45.4102	79.5047	45.4102	79.7344	45.4102	79.6354	45.4102	79.893	45.4102	79.7847	45.4102	80.0663	45.4102	79.9511	45.4102	80.2511	45.4102	80.1318	45.4102	80.4428	45.4102	80.323	45.4102	80.635	45.4102	80.519	45.4102	80.8198	45.4102	80.7123	45.4102	80.9876	45.4102	80.8937	45.4102	81.1286	45.4102	81.053	45.4102	81.2331	45.4102	81.1801	45.4102	81.2934	45.4102	81.2661	45.4102	81.3048
46.875	79.5088	46.875	79.5284	46.875	79.5101	46.875	79.5685	46.875	79.5323	46.875	79.6285	46.875	79.5752	46.875	79.7077	46.875	79.6381	46.875	79.8048	46.875	79.7204	46.875	79.9188	46.875	79.8211	46.875	80.0482	46.875	79.9393	46.875	80.1913	46.875	80.0735	46.875	80.346	46.875	80.2222	46.875	80.5097	46.875	80.383	46.875	80.6783	46.875	80.5526	46.875	80.8467	46.875	80.7262	46.875	81.0082	46.875	80.8975	46.875	81.1546	46.875	81.0586	46.875	81.2773	46.875	81.2005	46.875	81.3679	46.875	81.3143	46.875	81.4196	46.875	81.392	46.875	81.4279
48.3398	79.6701	48.3398	79.6883	48.3398	79.6734	48.3398	79.7277	48.3398	79.6983	48.3398	79.7874	48.3398	79.7441	48.3398	79.8662	48.3398	79.8102	48.3398	79.9627	48.3398	79.8953	48.3398	80.0753	48.3398	79.998	48.3398	80.2022	48.3398	80.1167	48.3398	80.3413	48.3398	80.2496	48.3398	80.4904	48.3398	80.3945	48.3398	80.6466	48.3398	80.5491	48.3398	80.8063	48.3398	80.7098	48.3398	80.9648	48.3398	80.8724	48.3398	81.1161	48.3398	81.0312	48.3398	81.2531	48.3398	81.1793	48.3398	81.368	48.3398	81.3089	48.3398	81.4533	48.3398	81.4119	48.3398	81.5028	48.3398	81.4815	48.3398	81.5125
51.2695	80.1036	51.2695	80.1183	51.2695	80.1079	51.2695	80.1514	51.2695	80.1308	51.2695	80.2022	51.2695	80.1717	51.2695	80.2692	51.2695	80.2292	51.2695	80.3507	51.2695	80.302	51.2695	80.4446	51.2695	80.388	51.2695	80.5489	51.2695	80.4854	51.2695	80.6613	51.2695	80.5921	51.2695	80.7796	51.2695	80.7062	51.2695	80.9014	51.2695	80.8255	51.2695	81.0238	51.2695	80.9477	51.2695	81.1437	51.2695	81.07	51.2695	81.2569	51.2695	81.1885	51.2695	81.3585	51.2695	81.2987	51.2695	81.4433	51.2695	81.3951	51.2695	81.5059	51.2695	81.472	51.2695	81.5418	51.2695	81.5243	51.2695	81.5482
52.7344	80.161	52.7344	80.1771	52.7344	80.1657	52.7344	80.2134	52.7344	80.191	52.7344	80.2688	52.7344	80.236	52.7344	80.3416	52.7344	80.2993	52.7344	80.4296	52.7344	80.3791	52.7344	80.5305	52.7344	80.4729	52.7344	80.6415	52.7344	80.5784	52.7344	80.7601	52.7344	80.693	52.7344	80.8834	52.7344	80.8139	52.7344	81.0088	52.7344	80.9385	52.7344	81.1334	52.7344	81.0641	52.7344	81.2537	52.7344	81.1875	52.7344	81.3661	52.7344	81.3052	52.7344	81.466	52.7344	81.413	52.7344	81.5487	52.7344	81.5061	52.7344	81.6095	52.7344	81.5797	52.7344	81.6445	52.7344	81.6291	52.7344	81.6513
54.1992	80.1848	54.1992	80.208	54.1992	80.1809	54.1992	80.2498	54.1992	80.1965	54.1992	80.3087	54.1992	80.2307	54.1992	80.3826	54.1992	80.2823	54.1992	80.4689	54.1992	80.3493	54.1992	80.5648	54.1992	80.4294	54.1992	80.6673	54.1992	80.5199	54.1992	80.7734	54.1992	80.6182	54.1992	80.8804	54.1992	80.7217	54.1992	80.9856	54.1992	80.828	54.1992	81.0868	54.1992	80.9346	54.1992	81.1816	54.1992	81.0395	54.1992	81.2676	54.1992	81.14	54.1992	81.3419	54.1992	81.2331	54.1992	81.4012	54.1992	81.3154	54.1992	81.4421	54.1992	81.3827	54.1992	81.4617	54.1992	81.4313	54.1992	81.4581
55.6641	80.4048	55.6641	80.4304	55.6641	80.395	55.6641	80.471	55.6641	80.4011	55.6641	80.525	55.6641	80.4226	55.6641	80.5904	55.6641	80.4585	55.6641	80.6648	55.6641	80.507	55.6641	80.7452	55.6641	80.5661	55.6641	80.829	55.6641	80.6337	55.6641	80.9134	55.6641	80.7074	55.6641	80.9959	55.6641	80.7852	55.6641	81.0746	55.6641	80.8654	55.6641	81.1477	55.6641	80.9462	55.6641	81.2139	55.6641	81.0263	55.6641	81.2717	55.6641	81.1041	55.6641	81.3196	55.6641	81.1776	55.6641	81.3556	55.6641	81.2441	55.6641	81.3775	55.6641	81.3007	55.6641	81.3835	55.6641	81.3443	55.6641	81.3724
58.5938	80.6554	58.5938	80.662	58.5938	80.663	58.5938	80.6825	58.5938	80.6844	58.5938	80.7158	58.5938	80.7187	58.5938	80.7602	58.5938	80.7643	58.5938	80.8135	58.5938	80.8191	58.5938	80.8732	58.5938	80.8805	58.5938	80.9368	58.5938	80.946	58.5938	81.0015	58.5938	81.0129	58.5938	81.0654	58.5938	81.0789	58.5938	81.1265	58.5938	81.1421	58.5938	81.1837	58.5938	81.201	58.5938	81.2364	58.5938	81.2544	58.5938	81.2839	58.5938	81.3017	58.5938	81.3257	58.5938	81.342	58.5938	81.361	58.5938	81.3745	58.5938	81.3885	58.5938	81.3982	58.5938	81.4068	58.5938	81.4119	58.5938	81.4148
60.0586	80.6809	60.0586	80.6861	60.0586	80.6891	60.0586	80.7043	60.0586	80.7104	60.0586	80.7346	60.0586	80.7436	60.0586	80.7752	60.0586	80.7872	60.0586	80.8239	60.0586	80.8388	60.0586	80.8783	60.0586	80.896	60.0586	80.9355	60.0586	80.956	60.0586	80.9931	60.0586	81.0162	60.0586	81.0489	60.0586	81.0741	60.0586	81.101	60.0586	81.128	60.0586	81.1484	60.0586	81.1764	60.0586	81.1908	60.0586	81.2185	60.0586	81.228	60.0586	81.2541	60.0586	81.26	60.0586	81.2831	60.0586	81.2867	60.0586	81.3054	60.0586	81.3076	60.0586	81.3208	60.0586	81.322	60.0586	81.3288	60.0586	81.3292
62.9883	80.7461	62.9883	80.7527	62.9883	80.7525	62.9883	80.772	62.9883	80.7717	62.9883	80.8027	62.9883	80.8025	62.9883	80.8432	62.9883	80.8432	62.9883	80.891	62.9883	80.8917	62.9883	80.9433	62.9883	80.9451	62.9883	80.9974	62.9883	81.0006	62.9883	81.0502	62.9883	81.0553	62.9883	81.0995	62.9883	81.1066	62.9883	81.1434	62.9883	81.1525	62.9883	81.1808	62.9883	81.1916	62.9883	81.2115	62.9883	81.2234	62.9883	81.236	62.9883	81.2481	62.9883	81.255	62.9883	81.2663	62.9883	81.2695	62.9883	81.2789	62.9883	81.28	62.9883	81.2868	62.9883	81.2871	62.9883	81.2906	62.9883	81.2906
64.4531	80.8159	64.4531	80.8236	64.4531	80.822	64.4531	80.8445	64.4531	80.8414	64.4531	80.8774	64.4531	80.8731	64.4531	80.9205	64.4531	80.9153	64.4531	80.9714	64.4531	80.9657	64.4531	81.027	64.4531	81.0216	64.4531	81.0844	64.4531	81.0798	64.4531	81.1405	64.4531	81.1373	64.4531	81.1926	64.4531	81.1914	64.4531	81.2388	64.4531	81.2397	64.4531	81.2777	64.4531	81.2809	64.4531	81.309	64.4531	81.314	64.4531	81.3332	64.4531	81.3394	64.4531	81.3513	64.4531	81.3578	64.4531	81.3643	64.4531	81.3702	64.4531	81.3734	64.4531	81.3778	64.4531	81.3791	64.4531	81.3815	64.4531	81.3818
67.3828	80.864	67.3828	80.8677	67.3828	80.8736	67.3828	80.8843	67.3828	80.896	67.3828	80.9126	67.3828	80.93	67.3828	80.951	67.3828	80.9739	67.3828	80.997	67.3828	81.0253	67.3828	81.0477	67.3828	81.0812	67.3828	81.1001	67.3828	81.1384	67.3828	81.151	67.3828	81.1937	67.3828	81.1975	67.3828	81.244	67.3828	81.2376	67.3828	81.2868	67.3828	81.2699	67.3828	81.3204	67.3828	81.2942	67.3828	81.3441	67.3828	81.3113	67.3828	81.3584	67.3828	81.3227	67.3828	81.3645	67.3828	81.3304	67.3828	81.3645	67.3828	81.3363	67.3828	81.3604	67.3828	81.3419	67.3828	81.3544	67.3828	81.3479
68.8477	80.8665	68.8477	80.868	68.8477	80.8777	68.8477	80.8817	68.8477	80.9009	68.8477	80.9067	68.8477	80.9351	68.8477	80.9413	68.8477	80.9786	68.8477	80.9832	68.8477	81.0288	68.8477	81.0296	68.8477	81.0829	68.8477	81.0775	68.8477	81.1378	68.8477	81.1238	68.8477	81.19	68.8477	81.1656	68.8477	81.2365	68.8477	81.2009	68.8477	81.2747	68.8477	81.2282	68.8477	81.303	68.8477	81.2476	68.8477	81.3205	68.8477	81.26	68.8477	81.328	68.8477	81.2671	68.8477	81.3269	68.8477	81.2714	68.8477	81.3198	68.8477	81.2752	68.8477	81.3093	68.8477	81.2805	68.8477	81.2981	68.8477	81.2881
71.7773	80.9891	71.7773	80.9829	71.7773	81.0055	71.7773	80.9868	71.7773	81.0316	71.7773	81.0001	71.7773	81.0663	71.7773	81.0216	71.7773	81.1079	71.7773	81.0492	71.7773	81.154	71.7773	81.0807	71.7773	81.202	71.7773	81.1133	71.7773	81.2486	71.7773	81.1441	71.7773	81.2905	71.7773	81.1706	71.7773	81.3247	71.7773	81.1907	71.7773	81.3486	71.7773	81.2034	71.7773	81.3604	71.7773	81.2089	71.7773	81.3597	71.7773	81.2086	71.7773	81.3475	71.7773	81.2052	71.7773	81.3261	71.7773	81.2019	71.7773	81.2989	71.7773	81.2022	71.7773	81.2701	71.7773	81.2085	71.7773	81.2435	71.7773	81.2224
74.707	81.2461	74.707	81.2433	74.707	81.2566	74.707	81.2477	74.707	81.2746	74.707	81.2585	74.707	81.2992	74.707	81.2743	74.707	81.3291	74.707	81.2933	74.707	81.3623	74.707	81.3132	74.707	81.3964	74.707	81.3315	74.707	81.4283	74.707	81.3458	74.707	81.4552	74.707	81.3541	74.707	81.4739	74.707	81.3548	74.707	81.4821	74.707	81.3476	74.707	81.4785	74.707	81.3335	74.707	81.4628	74.707	81.3146	74.707	81.4366	74.707	81.2944	74.707	81.4026	74.707	81.2769	74.707	81.3649	74.707	81.2661	74.707	81.3284	74.707	81.2651	74.707	81.2974	74.707	81.2756
77.6367	81.2497	77.6367	81.2506	77.6367	81.256	77.6367	81.2584	77.6367	81.2695	77.6367	81.272	77.6367	81.2894	77.6367	81.2899	77.6367	81.3145	77.6367	81.3103	77.6367	81.3429	77.6367	81.3307	77.6367	81.3723	77.6367	81.3485	77.6367	81.3997	77.6367	81.361	77.6367	81.4222	77.6367	81.3661	77.6367	81.4369	77.6367	81.3623	77.6367	81.4413	77.6367	81.349	77.6367	81.4339	77.6367	81.3275	77.6367	81.4147	77.6367	81.3001	77.6367	81.3851	77.6367	81.2708	77.6367	81.3482	77.6367	81.2442	77.6367	81.3086	77.6367	81.225	77.6367	81.2712	77.6367	81.217	77.6367	81.2411	77.6367	81.2224
79.1016	81.188	79.1016	81.1888	79.1016	81.1942	79.1016	81.1962	79.1016	81.2073	79.1016	81.2094	79.1016	81.2267	79.1016	81.227	79.1016	81.2512	79.1016	81.247	79.1016	81.2791	79.1016	81.2671	79.1016	81.3079	79.1016	81.2848	79.1016	81.335	79.1016	81.2975	79.1016	81.3573	79.1016	81.3029	79.1016	81.372	79.1016	81.2994	79.1016	81.3765	79.1016	81.2865	79.1016	81.3693	79.1016	81.2652	79.1016	81.3503	79.1016	81.2379	79.1016	81.3209	79.1016	81.2085	79.1016	81.2842	79.1016	81.1816	79.1016	81.2445	79.1016	81.162	79.1016	81.2072	79.1016	81.1536	79.1016	81.1773	79.1016	81.1587
82.0313	81.1442	82.0313	81.146	82.0313	81.1485	82.0313	81.1536	82.0313	81.1589	82.0313	81.1663	82.0313	81.1747	82.0313	81.1829	82.0313	81.1949	82.0313	81.2016	82.0313	81.218	82.0313	81.2202	82.0313	81.2417	82.0313	81.2362	82.0313	81.2637	82.0313	81.2471	82.0313	81.281	82.0313	81.2505	82.0313	81.2909	82.0313	81.2445	82.0313	81.2911	82.0313	81.2287	82.0313	81.2802	82.0313	81.2039	82.0313	81.2582	82.0313	81.1724	82.0313	81.2265	82.0313	81.1382	82.0313	81.1884	82.0313	81.1061	82.0313	81.1485	82.0313	81.0812	82.0313	81.112	82.0313	81.0678	82.0313	81.084	82.0313	81.0687
84.9609	81.1869	84.9609	81.1886	84.9609	81.1894	84.9609	81.1943	84.9609	81.1961	84.9609	81.2031	84.9609	81.2066	84.9609	81.2142	84.9609	81.2202	84.9609	81.226	84.9609	81.2354	84.9609	81.2366	84.9609	81.2505	84.9609	81.2438	84.9609	81.2632	84.9609	81.2452	84.9609	81.271	84.9609	81.2387	84.9609	81.2712	84.9609	81.2228	84.9609	81.2617	84.9609	81.197	84.9609	81.2413	84.9609	81.1624	84.9609	81.21	84.9609	81.1215	84.9609	81.1695	84.9609	81.0785	84.9609	81.1236	84.9609	81.0388	84.9609	81.077	84.9609	81.0077	84.9609	81.0355	84.9609	80.9901	84.9609	81.0048	84.9609	80.989
87.8906	81.2658	87.8906	81.2697	87.8906	81.2638	87.8906	81.2752	87.8906	81.2638	87.8906	81.2819	87.8906	81.2658	87.8906	81.289	87.8906	81.2693	87.8906	81.2953	87.8906	81.2735	87.8906	81.2992	87.8906	81.2772	87.8906	81.2986	87.8906	81.2784	87.8906	81.2913	87.8906	81.2747	87.8906	81.2749	87.8906	81.2638	87.8906	81.2478	87.8906	81.2433	87.8906	81.2094	87.8906	81.2118	87.8906	81.1607	87.8906	81.1696	87.8906	81.1046	87.8906	81.1184	87.8906	81.0459	87.8906	81.0623	87.8906	80.9909	87.8906	81.007	87.8906	80.9466	87.8906	80.9594	87.8906	80.9188	87.8906	80.9259	87.8906	80.9116
90.8203	81.1195	90.8203	81.1218	90.8203	81.1181	90.8203	81.1247	90.8203	81.1177	90.8203	81.128	90.8203	81.1183	90.8203	81.1311	90.8203	81.1198	90.8203	81.1334	90.8203	81.1218	90.8203	81.1333	90.8203	81.1232	90.8203	81.129	90.8203	81.1224	90.8203	81.1185	90.8203	81.1174	90.8203	81.0997	90.8203	81.1057	90.8203	81.0708	90.8203	81.085	90.8203	81.0314	90.8203	81.0539	90.8203	80.9826	90.8203	81.0122	90.8203	80.9272	90.8203	80.9614	90.8203	80.87	90.8203	80.9054	90.8203	80.8174	90.8203	80.8495	90.8203	80.776	90.8203	80.8003	90.8203	80.7514	90.8203	80.7646	90.8203	80.7475
95.2148	81.1964	95.2148	81.2035	95.2148	81.1845	95.2148	81.2059	95.2148	81.1674	95.2148	81.2041	95.2148	81.145	95.2148	81.1979	95.2148	81.1171	95.2148	81.1872	95.2148	81.0838	95.2148	81.1707	95.2148	81.0445	95.2148	81.147	95.2148	80.9989	95.2148	81.1138	95.2148	80.9461	95.2148	81.069	95.2148	80.8857	95.2148	81.0106	95.2148	80.8173	95.2148	80.9379	95.2148	80.7415	95.2148	80.8519	95.2148	80.6605	95.2148	80.7558	95.2148	80.5781	95.2148	80.6553	95.2148	80.5	95.2148	80.558	95.2148	80.4333	95.2148	80.4728	95.2148	80.3855	95.2148	80.4082	95.2148	80.3632	95.2148	80.3706
98.1445	81.1512	98.1445	81.1325	98.1445	81.1655	98.1445	81.1102	98.1445	81.1749	98.1445	81.0852	98.1445	81.1788	98.1445	81.0583	98.1445	81.1769	98.1445	81.03	98.1445	81.1685	98.1445	81.0001	98.1445	81.1529	98.1445	80.968	98.1445	81.1289	98.1445	80.9324	98.1445	81.0953	98.1445	80.8916	98.1445	81.0507	98.1445	80.8442	98.1445	80.9942	98.1445	80.7893	98.1445	80.926	98.1445	80.7275	98.1445	80.8475	98.1445	80.6611	98.1445	80.7624	98.1445	80.5946	98.1445	80.676	98.1445	80.5343	98.1445	80.5951	98.1445	80.487	98.1445	80.5274	98.1445	80.4594	98.1445	80.4795	98.1445	80.4563
101.074	81.1279	101.074	81.1138	101.074	81.1349	101.074	81.093	101.074	81.1349	101.074	81.066	101.074	81.1282	101.074	81.0335	101.074	81.1152	101.074	80.9961	101.074	81.096	101.074	80.954	101.074	81.0703	101.074	80.9073	101.074	81.0375	101.074	80.8553	101.074	80.9962	101.074	80.7972	101.074	80.945	101.074	80.7325	101.074	80.8827	101.074	80.6613	101.074	80.809	101.074	80.5849	101.074	80.7249	101.074	80.5066	101.074	80.6337	101.074	80.4313	101.074	80.5404	101.074	80.3656	101.074	80.452	101.074	80.3166	101.074	80.3765	101.074	80.2905	101.074	80.3212	101.074	80.2917
105.469	81.0275	105.469	81.033	105.469	81.0163	105.469	81.0326	105.469	81	105.469	81.0262	105.469	80.9793	105.469	81.014	105.469	80.9551	105.469	80.996	105.469	80.9284	105.469	80.9718	105.469	80.8994	105.469	80.9408	105.469	80.8681	105.469	80.902	105.469	80.8338	105.469	80.8544	105.469	80.7951	105.469	80.7976	105.469	80.7509	105.469	80.732	105.469	80.7001	105.469	80.6595	105.469	80.6427	105.469	80.5837	105.469	80.5803	105.469	80.5098	105.469	80.5163	105.469	80.4441	105.469	80.4557	105.469	80.393	105.469	80.4045	105.469	80.3619	105.469	80.3689	105.469	80.3538
108.398	81.1174	108.398	81.1079	108.398	81.1185	108.398	81.0904	108.398	81.1116	108.398	81.0656	108.398	81.0973	108.398	81.0345	108.398	81.0764	108.398	80.9981	108.398	81.0499	108.398	80.957	108.398	81.0184	108.398	80.9114	108.398	80.9821	108.398	80.8611	108.398	80.9404	108.398	80.8055	108.398	80.8926	108.398	80.7443	108.398	80.8376	108.398	80.6777	108.398	80.7751	108.398	80.6072	108.398	80.7054	108.398	80.536	108.398	80.6306	108.398	80.4687	108.398	80.5544	108.398	80.4109	108.398	80.482	108.398	80.3687	108.398	80.4197	108.398	80.3468	108.398	80.3736	108.398	80.3484
112.793	81.187	112.793	81.1805	112.793	81.1818	112.793	81.1625	112.793	81.1653	112.793	81.1339	112.793	81.1386	112.793	81.0964	112.793	81.1036	112.793	81.0514	112.793	81.062	112.793	81.0004	112.793	81.0158	112.793	80.9446	112.793	80.9661	112.793	80.8847	112.793	80.9137	112.793	80.8208	112.793	80.8583	112.793	80.7533	112.793	80.7995	112.793	80.6828	112.793	80.737	112.793	80.6109	112.793	80.6708	112.793	80.5403	112.793	80.6023	112.793	80.475	112.793	80.5343	112.793	80.4198	112.793	80.4709	112.793	80.3794	112.793	80.4171	112.793	80.3579	112.793	80.3779	112.793	80.3574
117.188	81.3368	117.188	81.3259	117.188	81.3313	117.188	81.299	117.188	81.3094	117.188	81.2577	117.188	81.2726	117.188	81.2042	117.188	81.2228	117.188	81.141	117.188	81.1626	117.188	81.0704	117.188	81.0947	117.188	80.9945	117.188	81.0214	117.188	80.915	117.188	80.9447	117.188	80.833	117.188	80.8658	117.188	80.7494	117.188	80.7857	117.188	80.6653	117.188	80.705	117.188	80.5826	117.188	80.6246	117.188	80.5037	117.188	80.5462	117.188	80.4324	117.188	80.4724	117.188	80.3726	117.188	80.4069	117.188	80.3285	117.188	80.3537	117.188	80.3035	117.188	80.3169	117.188	80.2996
120.117	81.3768	120.117	81.3702	120.117	81.3665	120.117	81.3474	120.117	81.3398	120.117	81.3099	120.117	81.2982	120.117	81.2601	120.117	81.2438	120.117	81.2008	120.117	81.1795	120.117	81.1345	120.117	81.1081	120.117	81.0638	120.117	81.0326	120.117	80.9906	120.117	80.9553	120.117	80.9161	120.117	80.8779	120.117	80.8413	120.117	80.8019	120.117	80.767	120.117	80.7281	120.117	80.6942	120.117	80.6577	120.117	80.6248	120.117	80.5923	120.117	80.5611	120.117	80.5339	120.117	80.5061	120.117	80.4851	120.117	80.463	120.117	80.4487	120.117	80.4343	120.117	80.4271	120.117	80.4221
124.512	81.5899	124.512	81.5695	124.512	81.5878	124.512	81.5273	124.512	81.5638	124.512	81.465	124.512	81.5196	124.512	81.3857	124.512	81.4581	124.512	81.293	124.512	81.3828	124.512	81.1911	124.512	81.2977	124.512	81.0842	124.512	81.2064	124.512	80.9763	124.512	81.1126	124.512	80.8711	124.512	81.0189	124.512	80.7718	124.512	80.9275	124.512	80.681	124.512	80.8397	124.512	80.601	124.512	80.7569	124.512	80.5339	124.512	80.68	124.512	80.4814	124.512	80.6103	124.512	80.4446	124.512	80.5491	124.512	80.4242	124.512	80.4979	124.512	80.4203	124.512	80.4584	124.512	80.432
128.906	81.5111	128.906	81.5026	128.906	81.496	128.906	81.4707	128.906	81.4579	128.906	81.4166	128.906	81.3987	128.906	81.3425	128.906	81.3211	128.906	81.2511	128.906	81.2285	128.906	81.1457	128.906	81.1248	128.906	81.0298	128.906	81.0137	128.906	80.907	128.906	80.8988	128.906	80.7812	128.906	80.7832	128.906	80.6561	128.906	80.6697	128.906	80.5356	128.906	80.5604	128.906	80.4235	128.906	80.4575	128.906	80.3236	128.906	80.3633	128.906	80.2395	128.906	80.28	128.906	80.1738	128.906	80.2101	128.906	80.1284	128.906	80.1557	128.906	80.1043	128.906	80.1189	128.906	80.1013
133.301	81.3861	133.301	81.3875	133.301	81.3589	133.301	81.3635	133.301	81.307	133.301	81.3157	133.301	81.2325	133.301	81.2465	133.301	81.1391	133.301	81.1593	133.301	81.0312	133.301	81.0578	133.301	80.9141	133.301	80.9458	133.301	80.7932	133.301	80.8274	133.301	80.6735	133.301	80.7064	133.301	80.5592	133.301	80.5866	133.301	80.4534	133.301	80.4718	133.301	80.3581	133.301	80.3654	133.301	80.2745	133.301	80.2709	133.301	80.2032	133.301	80.1911	133.301	80.1443	133.301	80.1278	133.301	80.0984	133.301	80.0821	133.301	80.0656	133.301	80.0539	133.301	80.0467	133.301	80.0425
139.16	81.267	139.16	81.2673	139.16	81.2367	139.16	81.2389	139.16	81.1764	139.16	81.1841	139.16	81.0878	139.16	81.1066	139.16	80.974	139.16	81.0102	139.16	80.8398	139.16	80.8995	139.16	80.691	139.16	80.7788	139.16	80.535	139.16	80.6527	139.16	80.3792	139.16	80.5254	139.16	80.2314	139.16	80.4007	139.16	80.0984	139.16	80.2824	139.16	79.9856	139.16	80.1739	139.16	79.8965	139.16	80.078	139.16	79.8323	139.16	79.9961	139.16	79.7917	139.16	79.9288	139.16	79.772	139.16	79.8751	139.16	79.7693	139.16	79.8332	139.16	79.7802	139.16	79.8018
143.555	81.1944	143.555	81.1808	143.555	81.1741	143.555	81.1349	143.555	81.1192	143.555	81.0601	143.555	81.0308	143.555	80.9605	143.555	80.9116	143.555	80.8412	143.555	80.7657	143.555	80.7081	143.555	80.5991	143.555	80.5668	143.555	80.4192	143.555	80.4232	143.555	80.2348	143.555	80.2827	143.555	80.0554	143.555	80.15	143.555	79.8908	143.555	80.0288	143.555	79.7497	143.555	79.9219	143.555	79.6387	143.555	79.8304	143.555	79.5608	143.555	79.7541	143.555	79.5154	143.555	79.6912	143.555	79.4987	143.555	79.639	143.555	79.5043	143.555	79.5947	143.555	79.5254	143.555	79.5567
147.949	81.1259	147.949	81.0964	147.949	81.1175	147.949	81.0307	147.949	81.071	147.949	80.9318	147.949	80.9875	147.949	80.8043	147.949	80.8699	147.949	80.6538	147.949	80.722	147.949	80.4869	147.949	80.5495	147.949	80.3114	147.949	80.3593	147.949	80.1349	147.949	80.1597	147.949	79.9655	147.949	79.9603	147.949	79.8102	147.949	79.7712	147.949	79.6747	147.949	79.6026	147.949	79.5625	147.949	79.463	147.949	79.4743	147.949	79.3579	147.949	79.408	147.949	79.2887	147.949	79.3591	147.949	79.2524	147.949	79.3224	147.949	79.2422	147.949	79.293	147.949	79.2501	147.949	79.2686
153.809	80.9965	153.809	80.9726	153.809	80.9795	153.809	80.9089	153.809	80.9219	153.809	80.8076	153.809	80.825	153.809	80.6722	153.809	80.6916	153.809	80.5073	153.809	80.526	153.809	80.3189	153.809	80.3339	153.809	80.1144	153.809	80.1229	153.809	79.9026	153.809	79.9021	153.809	79.6935	153.809	79.6823	153.809	79.4977	153.809	79.4753	153.809	79.3253	153.809	79.2923	153.809	79.1841	153.809	79.1426	153.809	79.0781	153.809	79.0317	153.809	79.0059	153.809	78.9595	153.809	78.9619	153.809	78.9208	153.809	78.9373	153.809	78.9065	153.809	78.9233	153.809	78.9068	153.809	78.9136
159.668	81.0399	159.668	81.0122	159.668	81.0247	159.668	80.9428	159.668	80.9664	159.668	80.8342	159.668	80.8662	159.668	80.69	159.668	80.7265	159.668	80.5153	159.668	80.5508	159.668	80.3164	159.668	80.3445	159.668	80.1015	159.668	80.115	159.668	79.88	159.668	79.8719	159.668	79.6628	159.668	79.6273	159.668	79.4612	159.668	79.3952	159.668	79.2855	159.668	79.1903	159.668	79.1437	159.668	79.0253	159.668	79.0386	159.668	78.9078	159.668	78.9678	159.668	78.8386	159.668	78.9237	159.668	78.8109	159.668	78.8959	159.668	78.8126	159.668	78.8744	159.668	78.8303	159.668	78.8528
165.527	81.2125	165.527	81.1752	165.527	81.2026	165.527	81.0919	165.527	81.1455	165.527	80.9646	165.527	81.0424	165.527	80.7968	165.527	80.8954	165.527	80.5935	165.527	80.7083	165.527	80.3618	165.527	80.4866	165.527	80.1112	165.527	80.2382	165.527	79.8544	165.527	79.9741	165.527	79.6067	165.527	79.7088	165.527	79.3851	165.527	79.4597	165.527	79.2054	165.527	79.2451	165.527	79.0783	165.527	79.081	165.527	79.0059	165.527	78.9761	165.527	78.9802	165.527	78.9289	165.527	78.9854	165.527	78.9276	165.527	79.0021	165.527	78.9532	165.527	79.0133	165.527	78.9855	165.527	79.0082
171.387	81.3691	171.387	81.3241	171.387	81.3627	171.387	81.2286	171.387	81.3044	171.387	81.0844	171.387	81.1941	171.387	80.8939	171.387	81.0326	171.387	80.661	171.387	80.8214	171.387	80.3915	171.387	80.5642	171.387	80.0945	171.387	80.267	171.387	79.7832	171.387	79.9408	171.387	79.4757	171.387	79.6021	171.387	79.1944	171.387	79.2743	171.387	78.9624	171.387	78.9852	171.387	78.7978	171.387	78.7621	171.387	78.7071	171.387	78.6231	171.387	78.6811	171.387	78.5695	171.387	78.6977	171.387	78.5841	171.387	78.7284	171.387	78.6372	171.387	78.747	171.387	78.6967	171.387	78.7373
177.246	81.4319	177.246	81.388	177.246	81.4261	177.246	81.293	177.246	81.3723	177.246	81.1453	177.246	81.2715	177.246	80.9438	177.246	81.1246	177.246	80.6882	177.246	80.932	177.246	80.3802	177.246	80.6943	177.246	80.025	177.246	80.413	177.246	79.6335	177.246	80.0926	177.246	79.2244	177.246	79.7425	177.246	78.8261	177.246	79.379	177.246	78.4743	177.246	79.0264	177.246	78.2047	177.246	78.7141	177.246	78.0403	177.246	78.4696	177.246	77.9807	177.246	78.308	177.246	78.0009	177.246	78.2245	177.246	78.0616	177.246	78.1951	177.246	78.1254	177.246	78.1863	177.246	78.1683
183.105	81.3106	183.105	81.3046	183.105	81.2708	183.105	81.2513	183.105	81.1865	183.105	81.1488	183.105	81.0587	183.105	80.9951	183.105	80.8885	183.105	80.7876	183.105	80.6764	183.105	80.5241	183.105	80.4232	183.105	80.2042	183.105	80.1304	183.105	79.831	183.105	79.8018	183.105	79.4144	183.105	79.4457	183.105	78.9748	183.105	79.0774	183.105	78.5444	183.105	78.7193	183.105	78.1646	183.105	78.3998	183.105	77.8759	183.105	78.145	183.105	77.7019	183.105	77.9697	183.105	77.6375	183.105	77.8686	183.105	77.6509	183.105	77.8182	183.105	77.7001	183.105	77.7873	183.105	77.7505
188.965	81.3035	188.965	81.3065	188.965	81.2558	188.965	81.2651	188.965	81.163	188.965	81.1792	188.965	81.0245	188.965	81.0476	188.965	80.8398	188.965	80.8683	188.965	80.6081	188.965	80.6384	188.965	80.329	188.965	80.3546	188.965	80.0028	188.965	80.0156	188.965	79.632	188.965	79.6245	188.965	79.2239	188.965	79.1923	188.965	78.7935	188.965	78.7412	188.965	78.3658	188.965	78.305	188.965	77.9749	188.965	77.924	188.965	77.6566	188.965	77.6325	188.965	77.4358	188.965	77.4438	188.965	77.3143	188.965	77.3439	188.965	77.2696	188.965	77.3003	188.965	77.2675	188.965	77.2802
196.289	81.0915	196.289	81.0583	196.289	81.0821	196.289	80.984	196.289	81.0298	196.289	80.8708	196.289	80.9347	196.289	80.7208	196.289	80.7976	196.289	80.5363	196.289	80.6192	196.289	80.3186	196.289	80.3998	196.289	80.0688	196.289	80.1395	196.289	79.7887	196.289	79.8389	196.289	79.4824	196.289	79.501	196.289	79.1588	196.289	79.1341	196.289	78.8326	196.289	78.7545	196.289	78.5237	196.289	78.3876	196.289	78.2533	196.289	78.0653	196.289	78.0364	196.289	77.8173	196.289	77.8761	196.289	77.6601	196.289	77.7631	196.289	77.5898	196.289	77.682	196.289	77.5857	196.289	77.6222
203.613	81.0115	203.613	80.9756	203.613	80.9982	203.613	80.8916	203.613	80.9355	203.613	80.7617	203.613	80.8241	203.613	80.5886	203.613	80.665	203.613	80.3755	203.613	80.4596	203.613	80.1253	203.613	80.209	203.613	79.8413	203.613	79.915	203.613	79.5282	203.613	79.581	203.613	79.1938	203.613	79.2145	203.613	78.8514	203.613	78.8293	203.613	78.5204	203.613	78.448	203.613	78.2243	203.613	78.1006	203.613	77.985	203.613	77.8192	203.613	77.8139	203.613	77.6269	203.613	77.7066	203.613	77.5277	203.613	77.6442	203.613	77.5041	203.613	77.6025	203.613	77.5257	203.613	77.5638
210.938	81.1268	210.938	81.0827	210.938	81.1177	210.938	80.9849	210.938	81.0566	210.938	80.8336	210.938	80.9456	210.938	80.6297	210.938	80.7873	210.938	80.3745	210.938	80.5844	210.938	80.0701	210.938	80.3392	210.938	79.72	210.938	80.0541	210.938	79.3313	210.938	79.7324	210.938	78.9169	210.938	79.38	210.938	78.4986	210.938	79.0081	210.938	78.1077	210.938	78.6352	210.938	77.7806	210.938	78.287	210.938	77.5482	210.938	77.9919	210.938	77.4219	210.938	77.7718	210.938	77.3872	210.938	77.6321	210.938	77.41	210.938	77.5581	210.938	77.4531	210.938	77.5209	210.938	77.4914
218.262	80.9466	218.262	80.9206	218.262	80.9206	218.262	80.8418	218.262	80.8444	218.262	80.7103	218.262	80.7211	218.262	80.5271	218.262	80.5543	218.262	80.2932	218.262	80.3477	218.262	80.01	218.262	80.1047	218.262	79.6799	218.262	79.8282	218.262	79.308	218.262	79.5212	218.262	78.905	218.262	79.1887	218.262	78.4904	218.262	78.8405	218.262	78.0939	218.262	78.4929	218.262	77.7521	218.262	78.1688	218.262	77.4988	218.262	77.8939	218.262	77.3505	218.262	77.6871	218.262	77.2981	218.262	77.5527	218.262	77.3109	218.262	77.4765	218.262	77.3522	218.262	77.4325	218.262	77.3952
225.586	81.0125	225.586	81.0226	225.586	80.9421	225.586	80.9718	225.586	80.8136	225.586	80.8602	225.586	80.6307	225.586	80.6886	225.586	80.3991	225.586	80.4578	225.586	80.1265	225.586	80.1689	225.586	79.8222	225.586	79.8244	225.586	79.4972	225.586	79.4301	225.586	79.1645	225.586	78.9986	225.586	78.8395	225.586	78.5537	225.586	78.5397	225.586	78.1323	225.586	78.2841	225.586	77.7808	225.586	78.0888	225.586	77.5423	225.586	77.9613	225.586	77.4374	225.586	77.8955	225.586	77.4521	225.586	77.871	225.586	77.5439	225.586	77.8582	225.586	77.6613	225.586	77.8284	225.586	77.7631
232.91	81.3055	232.91	81.3081	232.91	81.2392	232.91	81.2498	232.91	81.1066	232.91	81.1336	232.91	80.9056	232.91	80.9616	232.91	80.635	232.91	80.7347	232.91	80.2945	232.91	80.4528	232.91	79.8855	232.91	80.1159	232.91	79.413	232.91	79.7265	232.91	78.8895	232.91	79.294	232.91	78.3403	232.91	78.8398	232.91	77.8091	232.91	78.3998	232.91	77.3578	232.91	78.0222	232.91	77.0523	232.91	77.7523	232.91	76.9326	232.91	77.6111	232.91	76.9867	232.91	77.5808	232.91	77.1536	232.91	77.6108	232.91	77.3541	232.91	77.64	232.91	77.5216	232.91	77.6187
241.699	81.1712	241.699	81.1257	241.699	81.1587	241.699	81.0252	241.699	81.0864	241.699	80.8729	241.699	80.953	241.699	80.6717	241.699	80.758	241.699	80.4231	241.699	80.5008	241.699	80.1272	241.699	80.1799	241.699	79.783	241.699	79.7937	241.699	79.3913	241.699	79.3414	241.699	78.9586	241.699	78.8284	241.699	78.5033	241.699	78.2723	241.699	78.0596	241.699	77.7119	241.699	77.6748	241.699	77.2103	241.699	77.3943	241.699	76.8422	241.699	77.2382	241.699	76.6613	241.699	77.1854	241.699	76.6648	241.699	77.1814	241.699	76.7918	241.699	77.1647	241.699	76.9575	241.699	77.0927
250.488	81.0745	250.488	81.0242	250.488	81.0594	250.488	80.9104	250.488	80.9783	250.488	80.7353	250.488	80.8319	250.488	80.5013	250.488	80.6211	250.488	80.2103	250.488	80.3473	250.488	79.8628	250.488	80.0117	250.488	79.4585	250.488	79.6145	250.488	78.9978	250.488	79.1575	250.488	78.4868	250.488	78.6462	250.488	77.9437	250.488	78.0974	250.488	77.4063	250.488	77.5455	250.488	76.933	250.488	77.0469	250.488	76.5893	250.488	76.6681	250.488	76.4154	250.488	76.4567	250.488	76.3971	250.488	76.4088	250.488	76.4696	250.488	76.4658	250.488	76.5518	250.488	76.5461	250.488	76.5837
259.277	81.4968	259.277	81.4557	259.277	81.4769	259.277	81.355	259.277	81.3945	259.277	81.1964	259.277	81.2486	259.277	80.9809	259.277	81.0382	259.277	80.7086	259.277	80.7619	259.277	80.378	259.277	80.4177	259.277	79.9876	259.277	80.0034	259.277	79.5377	259.277	79.5188	259.277	79.0351	259.277	78.9693	259.277	78.4982	259.277	78.3725	259.277	77.9618	259.277	77.7664	259.277	77.4767	259.277	77.2131	259.277	77.0974	259.277	76.7873	259.277	76.8589	259.277	76.5441	259.277	76.7548	259.277	76.4826	259.277	76.7375	259.277	76.5429	259.277	76.7422	259.277	76.6424	259.277	76.7168
268.066	80.9668	268.066	80.9063	268.066	80.9665	268.066	80.7878	268.066	80.9031	268.066	80.6145	268.066	80.7751	268.066	80.3892	268.066	80.5808	268.066	80.1133	268.066	80.3181	268.066	79.7861	268.066	79.9844	268.066	79.4063	268.066	79.5774	268.066	78.9746	268.066	79.0979	268.066	78.5011	268.066	78.5544	268.066	78.012	268.066	77.9716	268.066	77.5549	268.066	77.3985	268.066	77.1922	268.066	76.9111	268.066	76.977	268.066	76.5925	268.066	76.9207	268.066	76.4907	268.066	76.98	268.066	76.5809	268.066	77.0776	268.066	76.7763	268.066	77.1366	268.066	76.9763	268.066	77.1069
276.855	81.0765	276.855	81.0217	276.855	81.0774	276.855	80.908	276.855	81.0287	276.855	80.7299	276.855	80.9329	276.855	80.4819	276.855	80.7889	276.855	80.1568	276.855	80.5909	276.855	79.7461	276.855	80.3278	276.855	79.2408	276.855	79.9852	276.855	78.6353	276.855	79.5488	276.855	77.9367	276.855	79.0105	276.855	77.1781	276.855	78.3765	276.855	76.4361	276.855	77.6785	276.855	75.8312	276.855	76.9841	276.855	75.4846	276.855	76.3945	276.855	75.4342	276.855	76.0096	276.855	75.596	276.855	75.8658	276.855	75.825	276.855	75.9034	276.855	75.9991	276.855	76.0042	276.855	76.0575
287.109	81.119	287.109	81.1471	287.109	81.035	287.109	81.12	287.109	80.8974	287.109	81.0391	287.109	80.7121	287.109	80.9042	287.109	80.4867	287.109	80.7096	287.109	80.2259	287.109	80.4432	287.109	79.9273	287.109	80.0862	287.109	79.5778	287.109	79.6164	287.109	79.1567	287.109	79.015	287.109	78.6441	287.109	78.2787	287.109	78.0352	287.109	77.4383	287.109	77.3587	287.109	76.5819	287.109	76.6906	287.109	75.8623	287.109	76.1465	287.109	75.4395	287.109	75.8284	287.109	75.3619	287.109	75.7482	287.109	75.5178	287.109	75.8115	287.109	75.7304	287.109	75.885	287.109	75.8688
297.363	80.9161	297.363	80.9057	297.363	80.8689	297.363	80.8497	297.363	80.7555	297.363	80.7603	297.363	80.5726	297.363	80.6463	297.363	80.3223	297.363	80.5091	297.363	80.012	297.363	80.3393	297.363	79.6495	297.363	80.1166	297.363	79.2383	297.363	79.814	297.363	78.773	297.363	79.4051	297.363	78.2411	297.363	78.8747	297.363	77.6347	297.363	78.2324	297.363	76.9702	297.363	77.5273	297.363	76.3116	297.363	76.8562	297.363	75.7734	297.363	76.3395	297.363	75.474	297.363	76.0533	297.363	75.4462	297.363	75.9664	297.363	75.6008	297.363	75.963	297.363	75.7956	297.363	75.925
307.617	81.2418	307.617	81.1428	307.617	81.2853	307.617	80.9935	307.617	81.2706	307.617	80.8022	307.617	81.1958	307.617	80.5795	307.617	81.0587	307.617	80.3348	307.617	80.8554	307.617	80.0714	307.617	80.58	307.617	79.782	307.617	80.2239	307.617	79.4481	307.617	79.7753	307.617	79.0468	307.617	79.221	307.617	78.5617	307.617	78.5508	307.617	77.9979	307.617	77.7709	307.617	77.3946	307.617	76.9244	307.617	76.8272	307.617	76.1155	307.617	76.3817	307.617	75.5026	307.617	76.1022	307.617	75.2174	307.617	75.9525	307.617	75.2512	307.617	75.8399	307.617	75.4585	307.617	75.6809
319.336	81.2443	319.336	81.1612	319.336	81.2514	319.336	81.0062	319.336	81.1853	319.336	80.7897	319.336	81.0556	319.336	80.5263	319.336	80.8767	319.336	80.2322	319.336	80.6638	319.336	79.92	319.336	80.4268	319.336	79.5937	319.336	80.166	319.336	79.2453	319.336	79.8707	319.336	78.8585	319.336	79.5226	319.336	78.4187	319.336	79.105	319.336	77.9289	319.336	78.6146	319.336	77.4247	319.336	78.073	319.336	76.9773	319.336	77.5351	319.336	76.6664	319.336	77.0801	319.336	76.5278	319.336	76.7769	319.336	76.523	319.336	76.6371	319.336	76.569	319.336	76.605	319.336	76.5994
329.59	81.7612	329.59	81.7281	329.59	81.7112	329.59	81.6148	329.59	81.5793	329.59	81.4267	329.59	81.37	329.59	81.1715	329.59	81.0911	329.59	80.8569	329.59	80.7524	329.59	80.4892	329.59	80.3642	329.59	80.071	329.59	79.9344	329.59	79.602	329.59	79.4678	329.59	79.0816	329.59	78.9679	329.59	78.5168	329.59	78.4427	329.59	77.9326	329.59	77.914	329.59	77.3815	329.59	77.4251	329.59	76.9399	329.59	77.0369	329.59	76.6772	329.59	76.8023	329.59	76.6084	329.59	76.7291	329.59	76.6748	329.59	76.7653	329.59	76.7789	329.59	76.8261	329.59	76.8397
341.309	81.5672	341.309	81.53	341.309	81.5217	341.309	81.4131	341.309	81.3974	341.309	81.2262	341.309	81.2053	341.309	80.983	341.309	80.9618	341.309	80.6989	341.309	80.6854	341.309	80.386	341.309	80.391	341.309	80.0498	341.309	80.0841	341.309	79.6875	341.309	79.7595	341.309	79.2924	341.309	79.4054	341.309	78.8642	341.309	79.0148	341.309	78.4216	341.309	78.599	341.309	78.0101	341.309	78.1963	341.309	77.6945	341.309	77.8668	341.309	77.5279	341.309	77.6662	341.309	77.5132	341.309	77.608	341.309	77.5946	341.309	77.6492	341.309	77.6908	341.309	77.7145	341.309	77.7377
353.027	81.6661	353.027	81.6014	353.027	81.6251	353.027	81.4383	353.027	81.4724	353.027	81.1853	353.027	81.2039	353.027	80.8518	353.027	80.8185	353.027	80.4476	353.027	80.3193	353.027	79.9825	353.027	79.7165	353.027	79.4664	353.027	79.0303	353.027	78.912	353.027	78.2952	353.027	78.3389	353.027	77.565	353.027	77.7813	353.027	76.915	353.027	77.294	353.027	76.4373	353.027	76.9479	353.027	76.2139	353.027	76.8042	353.027	76.271	353.027	76.8736	353.027	76.5511	353.027	77.0956	353.027	76.9366	353.027	77.3646	353.027	77.3031	353.027	77.5745	353.027	77.5576	353.027	77.6504
366.211	81.8057	366.211	81.6605	366.211	81.8617	366.211	81.4316	366.211	81.8258	366.211	81.1279	366.211	81.697	366.211	80.7607	366.211	81.4735	366.211	80.3417	366.211	81.1496	366.211	79.8782	366.211	80.713	366.211	79.3704	366.211	80.1425	366.211	78.8124	366.211	79.4094	366.211	78.2017	366.211	78.4855	366.211	77.558	366.211	77.3655	366.211	76.9443	366.211	76.1169	366.211	76.4717	366.211	74.9649	366.211	76.2534	366.211	74.31	366.211	76.3157	366.211	74.4211	366.211	76.5585	366.211	75.0841	366.211	76.8186	366.211	75.869	366.211	76.9506	366.211	76.4955	366.211	76.8586
379.395	82.1985	379.395	82.1437	379.395	82.1825	379.395	82.0102	379.395	82.1027	379.395	81.7897	379.395	81.9637	379.395	81.4729	379.395	81.7652	379.395	81.0487	379.395	81.4994	379.395	80.5036	379.395	81.1514	379.395	79.824	379.395	80.7002	379.395	79.0018	379.395	80.1237	379.395	78.0484	379.395	79.4048	379.395	77.0204	379.395	78.5428	379.395	76.0546	379.395	77.5726	379.395	75.37	379.395	76.5949	379.395	75.151	379.395	75.7955	379.395	75.3687	379.395	75.3832	379.395	75.7957	379.395	75.4229	379.395	76.1917	379.395	75.7558	379.395	76.4076	379.395	76.1375	379.395	76.3849
392.578	81.6588	392.578	81.6639	392.578	81.5885	392.578	81.6076	392.578	81.4572	392.578	81.4969	392.578	81.2768	392.578	81.3351	392.578	81.0623	392.578	81.1142	392.578	80.8219	392.578	80.8106	392.578	80.5471	392.578	80.3863	392.578	80.2079	392.578	79.7956	392.578	79.7585	392.578	78.9964	392.578	79.152	392.578	77.9722	392.578	78.3633	392.578	76.7753	392.578	77.4234	392.578	75.6031	392.578	76.4675	392.578	74.8329	392.578	75.7532	392.578	74.7701	392.578	75.5239	392.578	75.2715	392.578	75.759	392.578	75.9211	392.578	76.1852	392.578	76.4143	392.578	76.5262	392.578	76.6224
405.762	81.1144	405.762	81.0617	405.762	81.0711	405.762	80.9232	405.762	80.933	405.762	80.719	405.762	80.7126	405.762	80.4718	405.762	80.4302	405.762	80.1972	405.762	80.1062	405.762	79.892	405.762	79.7496	405.762	79.5287	405.762	79.3476	405.762	79.0624	405.762	78.8649	405.762	78.4486	405.762	78.257	405.762	77.6726	405.762	77.4979	405.762	76.7911	405.762	76.6254	405.762	75.9812	405.762	75.8002	405.762	75.5212	405.762	75.3096	405.762	75.5878	405.762	75.3706	405.762	76.0508	405.762	75.8723	405.762	76.6058	405.762	76.4884	405.762	77.0095	405.762	76.9534	405.762	77.138
420.41	81.6603	420.41	81.5433	420.41	81.6815	420.41	81.3396	420.41	81.6056	420.41	81.066	420.41	81.4373	420.41	80.743	420.41	81.1834	420.41	80.3856	420.41	80.8458	420.41	79.9921	420.41	80.4145	420.41	79.5342	420.41	79.8599	420.41	78.9581	420.41	79.13	420.41	78.1973	420.41	78.1529	420.41	77.2029	420.41	76.8523	420.41	76.0022	420.41	75.1977	420.41	74.8115	420.41	73.3735	420.41	74.1103	420.41	72.1301	420.41	74.2754	420.41	72.396	420.41	75.0366	420.41	73.7128	420.41	75.8381	420.41	75.0525	420.41	76.3386	420.41	75.9773	420.41	76.402
435.059	81.3079	435.059	81.224	435.059	81.2994	435.059	81.052	435.059	81.2091	435.059	80.8095	435.059	81.0609	435.059	80.5212	435.059	80.8861	435.059	80.2062	435.059	80.7095	435.059	79.8612	435.059	80.5308	435.059	79.4492	435.059	80.3119	435.059	78.9016	435.059	79.9795	435.059	78.1356	435.059	79.44	435.059	77.084	435.059	78.5978	435.059	75.7505	435.059	77.3753	435.059	74.3366	435.059	75.7632	435.059	73.392	435.059	73.9853	435.059	73.4594	435.059	72.7877	435.059	74.2675	435.059	72.961	435.059	75.1233	435.059	74.0206	435.059	75.6158	435.059	75.0358	435.059	75.5967
451.172	81.5988	451.172	81.5592	451.172	81.5303	451.172	81.4277	451.172	81.3571	451.172	81.2353	451.172	81.1015	451.172	81.0179	451.172	80.8	451.172	80.7967	451.172	80.491	451.172	80.5588	451.172	80.1933	451.172	80.2488	451.172	79.8857	451.172	79.7766	451.172	79.5018	451.172	79.0349	451.172	78.9442	451.172	77.9154	451.172	78.1103	451.172	76.3363	451.172	76.9259	451.172	74.3516	451.172	75.4188	451.172	72.5268	451.172	73.9111	451.172	72.1455	451.172	73.1808	451.172	73.3106	451.172	73.6775	451.172	74.7007	451.172	74.7272	451.172	75.6114	451.172	75.572	451.172	75.8979
465.82	81.3864	465.82	81.2415	465.82	81.3757	465.82	80.9599	465.82	81.2217	465.82	80.5958	465.82	80.9667	465.82	80.2362	465.82	80.6795	465.82	79.9742	465.82	80.4364	465.82	79.8498	465.82	80.2795	465.82	79.8022	465.82	80.1751	465.82	79.6847	465.82	80.0113	465.82	79.3238	465.82	79.6358	465.82	78.5592	465.82	78.8907	465.82	77.2562	465.82	77.6239	465.82	75.3424	465.82	75.7008	465.82	73.0406	465.82	73.14	465.82	71.541	465.82	70.8509	465.82	72.1267	465.82	70.9734	465.82	73.571	465.82	72.7404	465.82	74.5726	465.82	74.1779	465.82	74.7949
483.398	81.7033	483.398	81.5028	483.398	81.6413	483.398	81.0591	483.398	81.3233	483.398	80.4284	483.398	80.7886	483.398	79.7273	483.398	80.1314	483.398	79.1394	483.398	79.5221	483.398	78.8369	483.398	79.1628	483.398	78.8255	483.398	79.1357	483.398	78.904	483.398	79.2949	483.398	78.8012	483.398	79.3682	483.398	78.2898	483.398	79.1048	483.398	77.1991	483.398	78.3135	483.398	75.412	483.398	76.8359	483.398	73.0162	483.398	74.5588	483.398	71.022	483.398	71.7483	483.398	71.2663	483.398	70.2678	483.398	72.7951	483.398	71.5388	483.398	73.8788	483.398	73.2155	483.398	74.0428
499.512	83.1474	499.512	82.9617	499.512	83.063	499.512	82.4957	499.512	82.7078	499.512	81.7325	499.512	82.0726	499.512	80.6645	499.512	81.151	499.512	79.3339	499.512	79.9694	499.512	77.9238	499.512	78.6536	499.512	76.8404	499.512	77.5145	499.512	76.4694	499.512	76.9531	499.512	76.6471	499.512	77.0167	499.512	76.8205	499.512	77.2776	499.512	76.5581	499.512	77.2743	499.512	75.6236	499.512	76.7263	499.512	73.8725	499.512	75.4694	499.512	71.2475	499.512	73.3935	499.512	68.1414	499.512	70.5295	499.512	66.2455	499.512	67.6014	499.512	66.3177	499.512	66.3621	499.512	66.4865
517.09	82.6812	517.09	82.6072	517.09	82.6318	517.09	82.4026	517.09	82.4621	517.09	82.0555	517.09	82.1709	517.09	81.5504	517.09	81.7523	517.09	80.8706	517.09	81.196	517.09	80.0032	517.09	80.4903	517.09	78.9508	517.09	79.6286	517.09	77.75	517.09	78.62	517.09	76.4911	517.09	77.5041	517.09	75.3145	517.09	76.3563	517.09	74.3482	517.09	75.274	517.09	73.6232	517.09	74.3374	517.09	73.0882	517.09	73.5886	517.09	72.7159	517.09	73.0542	517.09	72.5382	517.09	72.7619	517.09	72.5562	517.09	72.6913	517.09	72.6703	517.09	72.7327	517.09	72.7474
536.133	81.9591	536.133	81.8934	536.133	81.8363	536.133	81.6482	536.133	81.5229	536.133	81.2404	536.133	81.0272	536.133	80.6995	536.133	80.3767	536.133	80.0707	536.133	79.6341	536.133	79.4121	536.133	78.9061	536.133	78.7721	536.133	78.3145	536.133	78.1509	536.133	77.9106	536.133	77.4761	536.133	77.6074	536.133	76.6225	536.133	77.2252	536.133	75.4724	536.133	76.5994	536.133	74.0173	536.133	75.6667	536.133	72.5619	536.133	74.5449	536.133	71.863	536.133	73.6112	536.133	72.324	536.133	73.3142	536.133	73.2746	536.133	73.6314	536.133	74.0083	536.133	74.0872	536.133	74.2752
555.176	82.5453	555.176	82.4079	555.176	82.5241	555.176	82.1126	555.176	82.3398	555.176	81.6611	555.176	81.9828	555.176	81.0653	555.176	81.4423	555.176	80.3577	555.176	80.7148	555.176	79.5983	555.176	79.8176	555.176	78.862	555.176	78.8027	555.176	78.1945	555.176	77.7562	555.176	77.5565	555.176	76.7561	555.176	76.8128	555.176	75.7942	555.176	75.7813	555.176	74.7479	555.176	74.3094	555.176	73.4772	555.176	72.4176	555.176	72.044	555.176	70.6908	555.176	71.0027	555.176	70.3661	555.176	71.0806	555.176	71.387	555.176	71.9578	555.176	72.4607	555.176	72.738	555.176	72.9472
574.219	82.2626	574.219	82.1679	574.219	82.222	574.219	81.9449	574.219	82.041	574.219	81.5995	574.219	81.7208	574.219	81.1353	574.219	81.2725	574.219	80.5549	574.219	80.7194	574.219	79.8627	574.219	80.0942	574.219	79.0676	574.219	79.4247	574.219	78.1808	574.219	78.7112	574.219	77.2052	574.219	77.909	574.219	76.1216	574.219	76.9329	574.219	74.895	574.219	75.6859	574.219	73.5356	574.219	74.1175	574.219	72.2489	574.219	72.3684	574.219	71.5391	574.219	71.0454	574.219	71.7505	574.219	70.9628	574.219	72.4749	574.219	71.8485	574.219	73.0751	574.219	72.76	574.219	73.2036
594.727	81.9847	594.727	81.8715	594.727	81.9587	594.727	81.6282	594.727	81.7929	594.727	81.275	594.727	81.4943	594.727	80.8454	594.727	81.0762	594.727	80.3843	594.727	80.5598	594.727	79.9353	594.727	79.9737	594.727	79.5145	594.727	79.3465	594.727	79.0847	594.727	78.6877	594.727	78.5506	594.727	77.9626	594.727	77.78	594.727	77.0808	594.727	76.6308	594.727	75.9148	594.727	74.983	594.727	74.3559	594.727	72.8385	594.727	72.4666	594.727	70.7027	594.727	70.8538	594.727	69.9494	594.727	70.5875	594.727	70.8522	594.727	71.4571	594.727	71.9687	594.727	72.2886	594.727	72.4989
615.234	82.2913	615.234	82.1621	615.234	82.2508	615.234	81.8624	615.234	82.0443	615.234	81.3963	615.234	81.6775	615.234	80.779	615.234	81.1619	615.234	80.0483	615.234	80.5229	615.234	79.2748	615.234	79.8096	615.234	78.5524	615.234	79.0936	615.234	77.9377	615.234	78.4355	615.234	77.3711	615.234	77.8219	615.234	76.6719	615.234	77.1268	615.234	75.623	615.234	76.139	615.234	74.0737	615.234	74.624	615.234	72.1184	615.234	72.4218	615.234	70.556	615.234	69.8968	615.234	70.6238	615.234	69.0164	615.234	71.7872	615.234	70.525	615.234	72.7242	615.234	72.1376	615.234	72.8912
637.207	81.7347	637.207	81.6166	637.207	81.6735	637.207	81.3294	637.207	81.4341	637.207	80.8978	637.207	81.0316	637.207	80.3687	637.207	80.5024	637.207	79.814	637.207	79.9114	637.207	79.3135	637.207	79.3466	637.207	78.9047	637.207	78.8796	637.207	78.5361	637.207	78.5034	637.207	78.0719	637.207	78.1083	637.207	77.344	637.207	77.5264	637.207	76.206	637.207	76.5925	637.207	74.5995	637.207	75.19	637.207	72.744	637.207	73.345	637.207	71.4821	637.207	71.5383	637.207	71.6461	637.207	70.9142	637.207	72.5714	637.207	71.7187	637.207	73.268	637.207	72.7808	637.207	73.3566
659.18	82.6543	659.18	82.546	659.18	82.5951	659.18	82.2658	659.18	82.3687	659.18	81.8084	659.18	81.9696	659.18	81.1725	659.18	81.3886	659.18	80.3728	659.18	80.6235	659.18	79.4608	659.18	79.6997	659.18	78.5433	659.18	78.6974	659.18	77.7532	659.18	77.7488	659.18	77.1315	659.18	76.9498	659.18	76.523	659.18	76.2202	659.18	75.6331	659.18	75.2881	659.18	74.1679	659.18	73.8198	659.18	72.004	659.18	71.5989	659.18	69.8148	659.18	69.1635	659.18	69.7163	659.18	68.9362	659.18	71.412	659.18	70.9037	659.18	72.7855	659.18	72.5549	659.18	73.1931
682.617	82.2694	682.617	82.1443	682.617	82.2032	682.617	81.8337	682.617	81.95	682.617	81.3568	682.617	81.5293	682.617	80.7613	682.617	80.9854	682.617	80.1389	682.617	80.3943	682.617	79.6112	682.617	79.8544	682.617	79.2543	682.617	79.4436	682.617	79.0106	682.617	79.1501	682.617	78.6952	682.617	78.844	682.617	78.0801	682.617	78.3201	682.617	76.9487	682.617	77.3552	682.617	75.1048	682.617	75.7285	682.617	72.4583	682.617	73.2509	682.617	69.7178	682.617	70.145	682.617	69.3892	682.617	68.633	682.617	71.1011	682.617	70.2083	682.617	72.4196	682.617	71.9646	682.617	72.727
707.52	82.5708	707.52	82.4294	707.52	82.491	707.52	82.06	707.52	82.2019	707.52	81.4636	707.52	81.7185	707.52	80.6592	707.52	81.0613	707.52	79.7118	707.52	80.2685	707.52	78.773	707.52	79.4256	707.52	78.0728	707.52	78.6843	707.52	77.7531	707.52	78.1952	707.52	77.6674	707.52	77.9358	707.52	77.4612	707.52	77.6454	707.52	76.7854	707.52	76.9656	707.52	75.3736	707.52	75.5597	707.52	73.1094	707.52	73.1457	707.52	70.6493	707.52	69.8996	707.52	70.4038	707.52	68.6505	707.52	72.1665	707.52	70.9045	707.52	73.53	707.52	72.9588	707.52	73.8249
732.422	82.7462	732.422	82.6644	732.422	82.6379	732.422	82.3788	732.422	82.3387	732.422	81.8653	732.422	81.8395	732.422	81.1054	732.422	81.1378	732.422	80.1169	732.422	80.2589	732.422	78.9997	732.422	79.2841	732.422	77.9668	732.422	78.3705	732.422	77.2485	732.422	77.7028	732.422	76.8405	732.422	77.329	732.422	76.4326	732.422	77.0451	732.422	75.6367	732.422	76.4981	732.422	74.1667	732.422	75.3296	732.422	71.9962	732.422	73.2161	732.422	70.0829	732.422	70.1032	732.422	70.4752	732.422	68.159	732.422	72.2283	732.422	70.1836	732.422	73.4348	732.422	72.4961	732.422	73.5723
757.324	83.0726	757.324	82.9483	757.324	82.964	757.324	82.5916	757.324	82.6171	757.324	81.9934	757.324	82.0262	757.324	81.1385	757.324	81.1918	757.324	80.0378	757.324	80.1429	757.324	78.8193	757.324	78.9955	757.324	77.8394	757.324	78.0282	757.324	77.5014	757.324	77.5924	757.324	77.6805	757.324	77.7078	757.324	77.7757	757.324	77.9385	757.324	77.2585	757.324	77.7831	757.324	75.7637	757.324	76.8637	757.324	72.9337	757.324	74.8241	757.324	68.7225	757.324	71.2084	757.324	67.3976	757.324	66.781	757.324	70.5644	757.324	68.3829	757.324	72.6208	757.324	71.6121	757.324	72.9723
785.156	83.0019	785.156	82.9055	785.156	82.9255	785.156	82.6297	785.156	82.671	785.156	82.1478	785.156	82.2182	785.156	81.4059	785.156	81.5239	785.156	80.3353	785.156	80.5261	785.156	78.9057	785.156	79.1803	785.156	77.2592	785.156	77.5695	785.156	75.9099	785.156	76.1123	785.156	75.4588	785.156	75.4766	785.156	75.6171	785.156	75.6293	785.156	75.5024	785.156	75.729	785.156	74.4765	785.156	75.0739	785.156	72.1512	785.156	73.262	785.156	68.8774	785.156	70.2937	785.156	68.751	785.156	68.6715	785.156	71.6956	785.156	70.9508	785.156	73.6282	785.156	73.2058	785.156	74.1077
811.523	82.5705	811.523	82.4695	811.523	82.4981	811.523	82.1906	811.523	82.2454	811.523	81.7197	811.523	81.7933	811.523	81.033	811.523	81.1152	811.523	80.1039	811.523	80.1937	811.523	78.9442	811.523	79.0575	811.523	77.7082	811.523	77.8495	811.523	76.786	811.523	76.8846	811.523	76.5065	811.523	76.4729	811.523	76.5764	811.523	76.4872	811.523	76.3262	811.523	76.3848	811.523	75.2047	811.523	75.617	811.523	72.7606	811.523	73.7254	811.523	68.6692	811.523	70.2861	811.523	66.0705	811.523	66.5032	811.523	69.1859	811.523	68.2741	811.523	71.6116	811.523	71.1357	811.523	72.2336
840.82	82.5371	840.82	82.441	840.82	82.4771	840.82	82.1887	840.82	82.2619	840.82	81.7737	840.82	81.8843	840.82	81.1632	840.82	81.3106	840.82	80.2822	840.82	80.4681	840.82	79.0242	840.82	79.2538	840.82	77.3394	840.82	77.605	840.82	75.5197	840.82	75.7483	840.82	74.5549	840.82	74.608	840.82	74.9233	840.82	74.879	840.82	75.4241	840.82	75.5121	840.82	74.9385	840.82	75.3314	840.82	72.7862	840.82	73.71	840.82	68.1349	840.82	70.0182	840.82	64.6525	840.82	65.0042	840.82	69.5976	840.82	68.0196	840.82	72.4475	840.82	71.6802	840.82	73.0386
870.117	82.0717	870.117	81.9631	870.117	82.0231	870.117	81.7094	870.117	81.8139	870.117	81.3185	870.117	81.4409	870.117	80.7659	870.117	80.8868	870.117	79.9752	870.117	80.1113	870.117	78.8484	870.117	79.0563	870.117	77.375	870.117	77.6848	870.117	75.8668	870.117	76.1223	870.117	75.0687	870.117	74.9194	870.117	75.2199	870.117	74.7397	870.117	75.4583	870.117	75.1475	870.117	74.9254	870.117	75.0844	870.117	73.0809	870.117	73.8159	870.117	69.4014	870.117	70.6989	870.117	65.1138	870.117	65.3093	870.117	67.5476	870.117	65.6203	870.117	70.5154	870.117	69.7122	870.117	71.2391
900.879	82.2258	900.879	82.0937	900.879	82.1377	900.879	81.7585	900.879	81.8538	900.879	81.2639	900.879	81.4227	900.879	80.6406	900.879	80.8708	900.879	79.86	900.879	80.1572	900.879	78.8193	900.879	79.1733	900.879	77.4073	900.879	77.805	900.879	75.7266	900.879	76.0957	900.879	74.4861	900.879	74.5947	900.879	74.45	900.879	74.2313	900.879	74.8372	900.879	74.6989	900.879	74.402	900.879	74.7263	900.879	72.3796	900.879	73.4365	900.879	68.0123	900.879	70.004	900.879	63.7991	900.879	63.4473	900.879	68.2545	900.879	65.7319	900.879	71.3164	900.879	70.4166	900.879	71.9951
933.105	82.1109	933.105	81.9464	933.105	82.0223	933.105	81.5639	933.105	81.7076	933.105	81.0518	933.105	81.2372	933.105	80.4984	933.105	80.6793	933.105	79.8942	933.105	80.0363	933.105	79.0832	933.105	79.2085	933.105	77.8427	933.105	78.0265	933.105	76.0872	933.105	76.3654	933.105	74.3006	933.105	74.4587	933.105	73.6784	933.105	73.3791	933.105	74.1049	933.105	73.7716	933.105	74.0834	933.105	74.3011	933.105	72.664	933.105	73.7243	933.105	69.2021	933.105	71.3145	933.105	64.6848	933.105	66.3879	933.105	67.3388	933.105	64.9026	933.105	70.4847	933.105	69.3002	933.105	71.1352
965.332	82.3245	965.332	82.1136	965.332	82.2234	965.332	81.6279	965.332	81.832	965.332	80.9604	965.332	81.2226	965.332	80.2238	965.332	80.4919	965.332	79.4615	965.332	79.7072	965.332	78.5604	965.332	78.8398	965.332	77.2813	965.332	77.7476	965.332	75.4508	965.332	76.2719	965.332	73.479	965.332	74.5249	965.332	72.9047	965.332	73.4071	965.332	73.8136	965.332	73.7459	965.332	74.2828	965.332	74.3785	965.332	73.2467	965.332	73.944	965.332	70.0373	965.332	71.6839	965.332	64.4742	965.332	66.7654	965.332	65.9321	965.332	63.4975	965.332	69.5879	965.332	68.1904	965.332	70.2995
1,000.49	82.5205	1,000.49	82.2919	1,000.49	82.4258	1,000.49	81.7736	1,000.49	82.0168	1,000.49	81.0442	1,000.49	81.351	1,000.49	80.2237	1,000.49	80.5363	1,000.49	79.4182	1,000.49	79.6996	1,000.49	78.6068	1,000.49	78.8856	1,000.49	77.5946	1,000.49	77.9561	1,000.49	76.1484	1,000.49	76.6498	1,000.49	74.3416	1,000.49	74.8684	1,000.49	73.0916	1,000.49	73.2774	1,000.49	73.2383	1,000.49	73.1248	1,000.49	73.578	1,000.49	73.6713	1,000.49	72.6777	1,000.49	73.2589	1,000.49	69.5681	1,000.49	70.9221	1,000.49	63.6371	1,000.49	65.5626	1,000.49	65.5706	1,000.49	62.8264	1,000.49	69.6236	1,000.49	68.3027	1,000.49	70.4344
1,035.64	82.4131	1,035.64	82.1981	1,035.64	82.2838	1,035.64	81.6582	1,035.64	81.8285	1,035.64	80.8601	1,035.64	81.1086	1,035.64	79.9367	1,035.64	80.231	1,035.64	79.0447	1,035.64	79.3196	1,035.64	78.2117	1,035.64	78.4365	1,035.64	77.2333	1,035.64	77.4936	1,035.64	75.8151	1,035.64	76.2678	1,035.64	73.928	1,035.64	74.6017	1,035.64	72.4081	1,035.64	72.8935	1,035.64	72.3666	1,035.64	72.3493	1,035.64	72.7811	1,035.64	72.871	1,035.64	72.1496	1,035.64	72.8382	1,035.64	69.6987	1,035.64	71.162	1,035.64	65.4269	1,035.64	67.0425	1,035.64	65.7212	1,035.64	64.0085	1,035.64	69.1363	1,035.64	68.115	1,035.64	70.0604
1,072.27	82.583	1,072.27	82.3231	1,072.27	82.462	1,072.27	81.7184	1,072.27	81.9715	1,072.27	80.8451	1,072.27	81.163	1,072.27	79.8063	1,072.27	80.1353	1,072.27	78.7412	1,072.27	79.0522	1,072.27	77.7853	1,072.27	78.0669	1,072.27	76.8806	1,072.27	77.1277	1,072.27	75.7042	1,072.27	75.9364	1,072.27	74.0662	1,072.27	74.2266	1,072.27	72.6763	1,072.27	72.3854	1,072.27	72.7168	1,072.27	71.9699	1,072.27	73.2575	1,072.27	72.9194	1,072.27	72.7752	1,072.27	73.212	1,072.27	70.485	1,072.27	71.682	1,072.27	66.111	1,072.27	67.5183	1,072.27	65.5178	1,072.27	64.0692	1,072.27	69.0468	1,072.27	68.1716	1,072.27	70.0855
1,108.89	82.2526	1,108.89	82.0461	1,108.89	82.1364	1,108.89	81.5227	1,108.89	81.6943	1,108.89	80.7129	1,108.89	80.9361	1,108.89	79.7005	1,108.89	79.9257	1,108.89	78.6285	1,108.89	78.8039	1,108.89	77.6299	1,108.89	77.7205	1,108.89	76.6513	1,108.89	76.6685	1,108.89	75.3781	1,108.89	75.4069	1,108.89	73.513	1,108.89	73.6486	1,108.89	71.5802	1,108.89	71.6774	1,108.89	71.4291	1,108.89	71.2657	1,108.89	72.4446	1,108.89	72.5128	1,108.89	72.3774	1,108.89	72.9992	1,108.89	70.2987	1,108.89	71.5763	1,108.89	66.5133	1,108.89	67.7719	1,108.89	66.5998	1,108.89	64.3361	1,108.89	69.1946	1,108.89	67.4865	1,108.89	69.61
1,148.44	82.1417	1,148.44	81.9359	1,148.44	82.0006	1,148.44	81.4004	1,148.44	81.5126	1,148.44	80.5712	1,148.44	80.6994	1,148.44	79.515	1,148.44	79.6228	1,148.44	78.3566	1,148.44	78.4091	1,148.44	77.2557	1,148.44	77.2386	1,148.44	76.2397	1,148.44	76.2366	1,148.44	75.0608	1,148.44	75.2949	1,148.44	73.4035	1,148.44	74.0558	1,148.44	71.6026	1,148.44	72.3224	1,148.44	71.3122	1,148.44	71.0536	1,148.44	72.3087	1,148.44	71.494	1,148.44	72.2789	1,148.44	71.8536	1,148.44	69.8861	1,148.44	70.2611	1,148.44	64.7041	1,148.44	65.6169	1,148.44	65.6136	1,148.44	61.9541	1,148.44	69.0606	1,148.44	67.0269	1,148.44	69.4704
1,189.45	81.87	1,189.45	81.6629	1,189.45	81.7249	1,189.45	81.1101	1,189.45	81.2645	1,189.45	80.2648	1,189.45	80.5248	1,189.45	79.1797	1,189.45	79.541	1,189.45	77.9201	1,189.45	78.3989	1,189.45	76.6552	1,189.45	77.2503	1,189.45	75.5525	1,189.45	76.2156	1,189.45	74.425	1,189.45	75.187	1,189.45	72.8267	1,189.45	73.7679	1,189.45	70.8249	1,189.45	71.6851	1,189.45	69.9642	1,189.45	69.985	1,189.45	70.8201	1,189.45	70.5023	1,189.45	71.1674	1,189.45	71.3677	1,189.45	69.5533	1,189.45	70.6277	1,189.45	65.4006	1,189.45	67.5999	1,189.45	64.2633	1,189.45	63.9766	1,189.45	67.9126	1,189.45	66.6441	1,189.45	68.8107
1,230.47	82.0778	1,230.47	81.832	1,230.47	82.028	1,230.47	81.2806	1,230.47	81.6819	1,230.47	80.4426	1,230.47	81.0236	1,230.47	79.3705	1,230.47	80.0534	1,230.47	78.1362	1,230.47	78.8213	1,230.47	76.8912	1,230.47	77.4774	1,230.47	75.8335	1,230.47	76.2681	1,230.47	74.8045	1,230.47	75.2453	1,230.47	73.1944	1,230.47	74.0318	1,230.47	70.7568	1,230.47	72.2439	1,230.47	69.3104	1,230.47	70.3557	1,230.47	70.3716	1,230.47	70.1466	1,230.47	70.8127	1,230.47	71.0241	1,230.47	68.7146	1,230.47	70.5262	1,230.47	63.6849	1,230.47	67.264	1,230.47	65.3188	1,230.47	63.8605	1,230.47	69.2549	1,230.47	67.969	1,230.47	70.1049
1,274.41	82.3373	1,274.41	82.1091	1,274.41	82.297	1,274.41	81.597	1,274.41	81.9618	1,274.41	80.7936	1,274.41	81.2964	1,274.41	79.7334	1,274.41	80.3158	1,274.41	78.4654	1,274.41	79.0691	1,274.41	77.092	1,274.41	77.6269	1,274.41	75.8403	1,274.41	76.189	1,274.41	74.7512	1,274.41	75.0023	1,274.41	73.2993	1,274.41	73.828	1,274.41	70.9812	1,274.41	72.1434	1,274.41	69.286	1,274.41	70.7113	1,274.41	70.625	1,274.41	71.2819	1,274.41	71.6061	1,274.41	71.9782	1,274.41	69.8468	1,274.41	70.6845	1,274.41	64.0417	1,274.41	66.3896	1,274.41	64.4014	1,274.41	63.0978	1,274.41	69.021	1,274.41	67.717	1,274.41	69.8679
1,319.82	82.3583	1,319.82	82.0824	1,319.82	82.3162	1,319.82	81.5349	1,319.82	81.9022	1,319.82	80.7482	1,319.82	81.1175	1,319.82	79.7185	1,319.82	80.0575	1,319.82	78.4315	1,319.82	78.8315	1,319.82	77.054	1,319.82	77.4917	1,319.82	75.8721	1,319.82	76.2022	1,319.82	74.767	1,319.82	75.2861	1,319.82	73.326	1,319.82	74.5236	1,319.82	71.3395	1,319.82	73.1552	1,319.82	69.5456	1,319.82	71.2243	1,319.82	70.5293	1,319.82	70.7362	1,319.82	72.1299	1,319.82	72.0075	1,319.82	71.4003	1,319.82	72.2019	1,319.82	67.4262	1,319.82	69.5473	1,319.82	65.0012	1,319.82	63.9243	1,319.82	68.9869	1,319.82	67.1194	1,319.82	69.9422
1,366.7	81.7344	1,366.7	81.4707	1,366.7	81.6423	1,366.7	80.8273	1,366.7	81.2441	1,366.7	79.8727	1,366.7	80.5476	1,366.7	78.7352	1,366.7	79.5319	1,366.7	77.417	1,366.7	78.2917	1,366.7	75.8473	1,366.7	77.0655	1,366.7	74.4354	1,366.7	75.8558	1,366.7	73.7741	1,366.7	74.416	1,366.7	73.1924	1,366.7	72.805	1,366.7	71.669	1,366.7	71.1089	1,366.7	69.3554	1,366.7	69.4598	1,366.7	69.3569	1,366.7	69.4197	1,366.7	70.9377	1,366.7	70.8442	1,366.7	70.1613	1,366.7	71.2166	1,366.7	66.0367	1,366.7	68.8485	1,366.7	66.1803	1,366.7	64.4469	1,366.7	70.1872	1,366.7	68.5939	1,366.7	71.1366
1,413.57	81.3147	1,413.57	81.1029	1,413.57	81.1577	1,413.57	80.5517	1,413.57	80.6913	1,413.57	79.6813	1,413.57	80.0629	1,413.57	78.5157	1,413.57	79.301	1,413.57	77.1117	1,413.57	78.2401	1,413.57	75.4843	1,413.57	76.8527	1,413.57	73.7639	1,413.57	75.4402	1,413.57	72.5508	1,413.57	74.0845	1,413.57	71.9976	1,413.57	72.5963	1,413.57	70.8179	1,413.57	71.1159	1,413.57	68.0095	1,413.57	69.3406	1,413.57	67.1574	1,413.57	67.9592	1,413.57	69.2624	1,413.57	69.16	1,413.57	68.3884	1,413.57	69.5002	1,413.57	63.0794	1,413.57	66.1139	1,413.57	65.3234	1,413.57	60.0754	1,413.57	69.4367	1,413.57	66.7017	1,413.57	69.7886
1,463.38	81.2433	1,463.38	81.0627	1,463.38	81.0544	1,463.38	80.4967	1,463.38	80.5509	1,463.38	79.6385	1,463.38	79.8299	1,463.38	78.6365	1,463.38	78.9575	1,463.38	77.4662	1,463.38	77.8218	1,463.38	75.961	1,463.38	76.3607	1,463.38	74.0649	1,463.38	74.8984	1,463.38	71.9333	1,463.38	73.6051	1,463.38	70.2	1,463.38	72.1796	1,463.38	69.1628	1,463.38	70.7055	1,463.38	67.7445	1,463.38	68.926	1,463.38	66.9464	1,463.38	66.803	1,463.38	67.883	1,463.38	67.5931	1,463.38	67.0188	1,463.38	68.5744	1,463.38	61.0325	1,463.38	65.5987	1,463.38	61.1205	1,463.38	57.0581	1,463.38	67.8803	1,463.38	66.0624	1,463.38	69.169
1,516.11	81.1035	1,516.11	80.9009	1,516.11	80.9321	1,516.11	80.4191	1,516.11	80.4038	1,516.11	79.7132	1,516.11	79.6603	1,516.11	78.8196	1,516.11	78.7773	1,516.11	77.8783	1,516.11	77.6629	1,516.11	76.8688	1,516.11	76.3047	1,516.11	75.409	1,516.11	75.019	1,516.11	73.4153	1,516.11	73.915	1,516.11	71.3306	1,516.11	72.5842	1,516.11	69.0072	1,516.11	71.2202	1,516.11	66.5771	1,516.11	70.0857	1,516.11	66.759	1,516.11	68.8277	1,516.11	68.8912	1,516.11	68.802	1,516.11	69.1462	1,516.11	69.4156	1,516.11	64.586	1,516.11	67.5812	1,516.11	56.9654	1,516.11	58.7458	1,516.11	66.4307	1,516.11	63.894	1,516.11	68.1379
1,568.85	80.5752	1,568.85	80.387	1,568.85	80.3126	1,568.85	79.8082	1,568.85	79.9946	1,568.85	79.1938	1,568.85	79.7421	1,568.85	78.4586	1,568.85	79.1615	1,568.85	77.331	1,568.85	78.0416	1,568.85	76.1116	1,568.85	76.6587	1,568.85	75.0206	1,568.85	75.4126	1,568.85	73.4703	1,568.85	74.5643	1,568.85	71.544	1,568.85	73.7611	1,568.85	69.8924	1,568.85	72.3734	1,568.85	67.5946	1,568.85	70.7696	1,568.85	65.7795	1,568.85	69.4318	1,568.85	67.5654	1,568.85	68.8932	1,568.85	68.5869	1,568.85	68.9782	1,568.85	65.7616	1,568.85	67.1141	1,568.85	52.8626	1,568.85	59.8753	1,568.85	65.0891	1,568.85	63.2624	1,568.85	67.6749
1,624.51	79.5842	1,624.51	79.2893	1,624.51	79.2992	1,624.51	78.5085	1,624.51	78.9379	1,624.51	77.7408	1,624.51	78.767	1,624.51	77.0681	1,624.51	78.3592	1,624.51	75.9849	1,624.51	77.3716	1,624.51	74.3317	1,624.51	76.2035	1,624.51	73.1763	1,624.51	75.1215	1,624.51	72.5727	1,624.51	73.7154	1,624.51	70.7903	1,624.51	72.2225	1,624.51	68.6826	1,624.51	70.8205	1,624.51	67.3276	1,624.51	69.4101	1,624.51	64.9053	1,624.51	68.494	1,624.51	67.1379	1,624.51	68.4812	1,624.51	69.0789	1,624.51	69.7485	1,624.51	67.6567	1,624.51	69.0494	1,624.51	61.3037	1,624.51	63.774	1,624.51	65.7131	1,624.51	64.5928	1,624.51	68.4581
1,681.64	79.0981	1,681.64	78.7787	1,681.64	79.1795	1,681.64	78.111	1,681.64	78.8693	1,681.64	77.1532	1,681.64	78.1077	1,681.64	76.3761	1,681.64	77.3325	1,681.64	75.8404	1,681.64	76.7254	1,681.64	74.7493	1,681.64	75.9322	1,681.64	73.0638	1,681.64	74.8112	1,681.64	72.5854	1,681.64	73.3014	1,681.64	72.3649	1,681.64	71.7141	1,681.64	70.5956	1,681.64	70.34	1,681.64	69.5011	1,681.64	67.055	1,681.64	67.6629	1,681.64	64.3382	1,681.64	64.9023	1,681.64	66.1725	1,681.64	67.4021	1,681.64	68.4322	1,681.64	65.7465	1,681.64	68.5401	1,681.64	59.2989	1,681.64	63.7946	1,681.64	65.3404	1,681.64	65.1609	1,681.64	67.7027
1,741.7	79.6239	1,741.7	79.3385	1,741.7	79.5549	1,741.7	78.8187	1,741.7	78.9981	1,741.7	78.2551	1,741.7	77.9925	1,741.7	78.0439	1,741.7	76.9607	1,741.7	77.8729	1,741.7	76.2014	1,741.7	76.7307	1,741.7	75.0905	1,741.7	74.4713	1,741.7	73.409	1,741.7	72.838	1,741.7	72.237	1,741.7	72.2814	1,741.7	71.2828	1,741.7	70.4315	1,741.7	70.0794	1,741.7	68.5458	1,741.7	68.191	1,741.7	67.9229	1,741.7	63.9304	1,741.7	66.7299	1,741.7	60.5752	1,741.7	68.1872	1,741.7	64.2083	1,741.7	66.3492	1,741.7	64.2994	1,741.7	54.6992	1,741.7	53.6	1,741.7	63.8839	1,741.7	64.2087	1,741.7	67.0835
1,803.22	81.497	1,803.22	81.4449	1,803.22	81.237	1,803.22	81.0804	1,803.22	80.8955	1,803.22	80.6706	1,803.22	80.6586	1,803.22	80.4142	1,803.22	80.2657	1,803.22	80.0289	1,803.22	79.4724	1,803.22	79.0405	1,803.22	78.6468	1,803.22	77.4596	1,803.22	77.3505	1,803.22	76.0769	1,803.22	75.4659	1,803.22	75.0894	1,803.22	74.8912	1,803.22	73.1747	1,803.22	73.8362	1,803.22	70.8219	1,803.22	71.7086	1,803.22	68.6842	1,803.22	71.5898	1,803.22	66.7273	1,803.22	70.6057	1,803.22	68.3194	1,803.22	69.2506	1,803.22	66.0844	1,803.22	68.5683	1,803.22	59.0311	1,803.22	62.1198	1,803.22	64.8445	1,803.22	60.9473	1,803.22	67.984
1,866.21	82.0689	1,866.21	82.1113	1,866.21	81.8003	1,866.21	81.986	1,866.21	81.4148	1,866.21	81.4625	1,866.21	81.1695	1,866.21	80.8103	1,866.21	80.7627	1,866.21	80.5869	1,866.21	79.7613	1,866.21	80.0007	1,866.21	78.8145	1,866.21	78.3114	1,866.21	78.2086	1,866.21	76.5254	1,866.21	76.6923	1,866.21	75.9913	1,866.21	75.3401	1,866.21	74.7656	1,866.21	74.8792	1,866.21	72.6165	1,866.21	72.584	1,866.21	71.7237	1,866.21	69.6278	1,866.21	68.8152	1,866.21	71.4123	1,866.21	69.2287	1,866.21	72.5294	1,866.21	67.9126	1,866.21	71.6264	1,866.21	59.8672	1,866.21	66.7505	1,866.21	61.7758	1,866.21	56.2928	1,866.21	65.9771
1,932.13	81.3421	1,932.13	81.2509	1,932.13	81.5223	1,932.13	81.1112	1,932.13	81.5474	1,932.13	80.7496	1,932.13	81.2463	1,932.13	80.3134	1,932.13	80.6804	1,932.13	79.804	1,932.13	80.0366	1,932.13	79.129	1,932.13	79.5313	1,932.13	77.8813	1,932.13	78.9794	1,932.13	76.1787	1,932.13	77.5991	1,932.13	75.488	1,932.13	75.9413	1,932.13	74.5329	1,932.13	75.0104	1,932.13	71.2214	1,932.13	72.8518	1,932.13	69.8623	1,932.13	69.196	1,932.13	67.2397	1,932.13	66.1032	1,932.13	69.0475	1,932.13	70.5412	1,932.13	70.2425	1,932.13	73.1	1,932.13	65.4057	1,932.13	70.1945	1,932.13	68.7699	1,932.13	65.5089	1,932.13	69.5582
1,999.51	81.7304	1,999.51	81.843	1,999.51	81.6293	1,999.51	81.6892	1,999.51	81.7401	1,999.51	81.3054	1,999.51	81.8737	1,999.51	81.0494	1,999.51	81.662	1,999.51	80.7078	1,999.51	81.2266	1,999.51	79.5666	1,999.51	80.8109	1,999.51	78.1479	1,999.51	79.8529	1,999.51	77.0501	1,999.51	78.4852	1,999.51	75.924	1,999.51	77.4448	1,999.51	74.2708	1,999.51	76.2422	1,999.51	70.0199	1,999.51	74.2804	1,999.51	68.166	1,999.51	72.2407	1,999.51	68.1236	1,999.51	68.9978	1,999.51	66.2524	1,999.51	62.6797	1,999.51	67.6881	1,999.51	66.0159	1,999.51	60.0995	1,999.51	61.6147	1,999.51	68.7857	1,999.51	67.1361	1,999.51	71.3722
2,069.82	80.819	2,069.82	81.0251	2,069.82	80.6849	2,069.82	81.4331	2,069.82	80.5908	2,069.82	81.6216	2,069.82	80.9246	2,069.82	81.1386	2,069.82	81.0838	2,069.82	80.232	2,069.82	80.1793	2,069.82	79.3268	2,069.82	78.9715	2,069.82	78.4274	2,069.82	78.1126	2,069.82	77.124	2,069.82	76.6105	2,069.82	76.0456	2,069.82	75.699	2,069.82	75.7304	2,069.82	75.1411	2,069.82	73.7062	2,069.82	72.3366	2,069.82	70.8064	2,069.82	71.7904	2,069.82	69.4776	2,069.82	70.7778	2,069.82	68.0415	2,069.82	67.0747	2,069.82	67.0431	2,069.82	69.0564	2,069.82	55.9689	2,069.82	66.1483	2,069.82	65.9552	2,069.82	62.8994	2,069.82	68.5029
2,143.07	80.4135	2,143.07	80.6955	2,143.07	80.3097	2,143.07	80.7099	2,143.07	80.4031	2,143.07	80.7286	2,143.07	80.3542	2,143.07	80.8875	2,143.07	80.3699	2,143.07	80.0999	2,143.07	80.1873	2,143.07	78.4961	2,143.07	78.8832	2,143.07	77.9781	2,143.07	77.34	2,143.07	76.5851	2,143.07	76.5022	2,143.07	74.0431	2,143.07	74.4719	2,143.07	74.4587	2,143.07	73.2693	2,143.07	72.5982	2,143.07	72.4292	2,143.07	70.7005	2,143.07	69.1298	2,143.07	70.3495	2,143.07	70.759	2,143.07	69.2249	2,143.07	67.7854	2,143.07	69.6151	2,143.07	68.1517	2,143.07	55.6757	2,143.07	64.7975	2,143.07	67.4458	2,143.07	64.3822	2,143.07	70.6867
2,219.24	79.5215	2,219.24	79.8647	2,219.24	80.5274	2,219.24	80.683	2,219.24	81.0866	2,219.24	81.0492	2,219.24	81.0194	2,219.24	81.1569	2,219.24	81.4586	2,219.24	80.4975	2,219.24	81.3698	2,219.24	79.0602	2,219.24	79.6974	2,219.24	78.4135	2,219.24	77.9899	2,219.24	77.2589	2,219.24	77.1973	2,219.24	74.0676	2,219.24	75.3058	2,219.24	72.2831	2,219.24	73.2752	2,219.24	72.0666	2,219.24	73.0475	2,219.24	69.9991	2,219.24	72.2921	2,219.24	69.2601	2,219.24	71.2752	2,219.24	67.5431	2,219.24	69.4111	2,219.24	67.1709	2,219.24	68.9151	2,219.24	59.2078	2,219.24	66.4123	2,219.24	65.4695	2,219.24	60.3109	2,219.24	69.4398
2,296.88	78.8724	2,296.88	79.4036	2,296.88	78.8674	2,296.88	80.2054	2,296.88	79.5538	2,296.88	81.2769	2,296.88	80.2686	2,296.88	81.5262	2,296.88	80.1519	2,296.88	80.8753	2,296.88	79.5673	2,296.88	79.6216	2,296.88	78.7433	2,296.88	77.4652	2,296.88	77.5818	2,296.88	75.7627	2,296.88	76.1649	2,296.88	74.3096	2,296.88	73.9444	2,296.88	72.7026	2,296.88	72.0316	2,296.88	71.2305	2,296.88	69.9185	2,296.88	67.2471	2,296.88	66.6748	2,296.88	64.7526	2,296.88	67.8431	2,296.88	67.0968	2,296.88	66.276	2,296.88	68.8998	2,296.88	67.9382	2,296.88	54.6184	2,296.88	62.0393	2,296.88	67.1752	2,296.88	62.0063	2,296.88	68.0475
2,378.91	78.8779	2,378.91	79.6905	2,378.91	79.4129	2,378.91	80.8146	2,378.91	80.4346	2,378.91	81.1753	2,378.91	81.2037	2,378.91	81.177	2,378.91	81.6343	2,378.91	80.434	2,378.91	81.3855	2,378.91	78.9001	2,378.91	79.8794	2,378.91	77.5408	2,378.91	77.438	2,378.91	75.9066	2,378.91	75.9248	2,378.91	73.5775	2,378.91	75.0575	2,378.91	70.6833	2,378.91	73.0496	2,378.91	69.4308	2,378.91	72.7593	2,378.91	69.9216	2,378.91	71.8742	2,378.91	70.7314	2,378.91	69.8785	2,378.91	65.7669	2,378.91	68.4918	2,378.91	67.6909	2,378.91	69.7486	2,378.91	63.2015	2,378.91	70.2516	2,378.91	62.8883	2,378.91	59.4482	2,378.91	64.8774
2,462.4	79.0774	2,462.4	79.8792	2,462.4	79.3665	2,462.4	81.0248	2,462.4	80.5464	2,462.4	81.7157	2,462.4	81.4355	2,462.4	81.596	2,462.4	81.6011	2,462.4	80.9199	2,462.4	81.0172	2,462.4	79.6008	2,462.4	79.9691	2,462.4	77.7135	2,462.4	78.2566	2,462.4	75.8569	2,462.4	76.2274	2,462.4	73.6109	2,462.4	74.3925	2,462.4	72.0843	2,462.4	71.7467	2,462.4	71.2255	2,462.4	71.5715	2,462.4	68.4922	2,462.4	68.87	2,462.4	69.3149	2,462.4	68.7311	2,462.4	67.9689	2,462.4	68.6787	2,462.4	67.9398	2,462.4	67.6734	2,462.4	63.5747	2,462.4	66.0113	2,462.4	61.1588	2,462.4	57.789	2,462.4	66.3635
2,548.83	78.4819	2,548.83	79.1554	2,548.83	78.8979	2,548.83	80.3944	2,548.83	79.6015	2,548.83	81.0179	2,548.83	80.4425	2,548.83	80.9095	2,548.83	80.7093	2,548.83	80.3017	2,548.83	79.7647	2,548.83	79.1786	2,548.83	78.5163	2,548.83	77.0533	2,548.83	77.1886	2,548.83	75.2778	2,548.83	75.3945	2,548.83	73.5487	2,548.83	73.7889	2,548.83	70.9707	2,548.83	70.8835	2,548.83	71.0381	2,548.83	69.7093	2,548.83	68.493	2,548.83	68.3876	2,548.83	68.4935	2,548.83	66.2827	2,548.83	66.98	2,548.83	66.721	2,548.83	67.6212	2,548.83	65.976	2,548.83	64.6018	2,548.83	67.0099	2,548.83	58.6471	2,548.83	54.4974	2,548.83	66.7668
2,639.65	79.4978	2,639.65	80.0022	2,639.65	79.637	2,639.65	80.8099	2,639.65	80.4352	2,639.65	81.3591	2,639.65	81.2518	2,639.65	81.1201	2,639.65	81.3813	2,639.65	80.0191	2,639.65	80.6592	2,639.65	78.6797	2,639.65	79.3548	2,639.65	76.7014	2,639.65	77.6025	2,639.65	74.416	2,639.65	75.4851	2,639.65	72.9342	2,639.65	74.1266	2,639.65	70.4907	2,639.65	71.8659	2,639.65	69.8234	2,639.65	70.098	2,639.65	67.2213	2,639.65	69.0228	2,639.65	67.9077	2,639.65	66.9021	2,639.65	67.1734	2,639.65	68.2683	2,639.65	66.7118	2,639.65	66.1389	2,639.65	64.3296	2,639.65	66.2883	2,639.65	56.8246	2,639.65	55.1533	2,639.65	61.8696
2,731.93	79.4329	2,731.93	79.9547	2,731.93	79.671	2,731.93	80.928	2,731.93	80.533	2,731.93	81.4963	2,731.93	81.2065	2,731.93	81.2854	2,731.93	81.0703	2,731.93	80.2929	2,731.93	80.2175	2,731.93	79.1441	2,731.93	78.875	2,731.93	77.4988	2,731.93	77.3509	2,731.93	74.968	2,731.93	75.0865	2,731.93	73.7098	2,731.93	73.4799	2,731.93	70.8962	2,731.93	71.4802	2,731.93	70.1688	2,731.93	69.4074	2,731.93	68.6722	2,731.93	69.9115	2,731.93	66.4829	2,731.93	67.8858	2,731.93	67.3505	2,731.93	68.6507	2,731.93	67.4691	2,731.93	66.6471	2,731.93	65.8767	2,731.93	67.3031	2,731.93	54.4958	2,731.93	53.1668	2,731.93	62.3424
2,828.61	79.0267	2,828.61	79.7391	2,828.61	79.3297	2,828.61	80.6853	2,828.61	80.2412	2,828.61	81.0584	2,828.61	80.9726	2,828.61	80.714	2,828.61	80.9373	2,828.61	79.631	2,828.61	79.9157	2,828.61	77.973	2,828.61	78.3455	2,828.61	76.6384	2,828.61	76.9383	2,828.61	74.536	2,828.61	75.0009	2,828.61	72.804	2,828.61	73.1613	2,828.61	71.5223	2,828.61	71.6296	2,828.61	69.383	2,828.61	68.7277	2,828.61	68.8164	2,828.61	68.5001	2,828.61	67.9263	2,828.61	64.9325	2,828.61	67.8658	2,828.61	67.6355	2,828.61	66.0273	2,828.61	65.6116	2,828.61	64.84	2,828.61	66.6656	2,828.61	48.3844	2,828.61	57.8711	2,828.61	56.095
2,928.22	79.8004	2,928.22	80.4681	2,928.22	80.0447	2,928.22	81.2219	2,928.22	80.9293	2,928.22	81.5503	2,928.22	81.5272	2,928.22	81.2083	2,928.22	81.3956	2,928.22	80.2426	2,928.22	80.5769	2,928.22	78.5521	2,928.22	78.9712	2,928.22	76.7717	2,928.22	77.2166	2,928.22	74.7964	2,928.22	75.5477	2,928.22	72.7483	2,928.22	73.4448	2,928.22	70.566	2,928.22	71.7858	2,928.22	68.8662	2,928.22	68.986	2,928.22	68.2327	2,928.22	69.2387	2,928.22	65.6155	2,928.22	67.2558	2,928.22	67.2818	2,928.22	67.8463	2,928.22	65.8325	2,928.22	66.2298	2,928.22	66.0059	2,928.22	67.1563	2,928.22	54.9073	2,928.22	58.6838	2,928.22	62.1377
3,030.76	79.5904	3,030.76	80.1737	3,030.76	79.8988	3,030.76	81.1019	3,030.76	80.6075	3,030.76	81.5081	3,030.76	81.315	3,030.76	81.1568	3,030.76	81.18	3,030.76	80.0623	3,030.76	80.3379	3,030.76	78.5544	3,030.76	78.871	3,030.76	76.9771	3,030.76	76.9744	3,030.76	74.9063	3,030.76	75.1903	3,030.76	73.2044	3,030.76	73.1707	3,030.76	71.123	3,030.76	71.6918	3,030.76	69.4028	3,030.76	69.0039	3,030.76	68.7392	3,030.76	68.7651	3,030.76	65.3363	3,030.76	65.2899	3,030.76	68.0618	3,030.76	67.5281	3,030.76	64.9993	3,030.76	66.5672	3,030.76	66.3475	3,030.76	66.7151	3,030.76	49.2438	3,030.76	60.5211	3,030.76	59.547
3,137.7	79.9712	3,137.7	80.4505	3,137.7	80.1268	3,137.7	81.3002	3,137.7	80.7456	3,137.7	81.6282	3,137.7	81.4974	3,137.7	81.1364	3,137.7	81.2913	3,137.7	80.0504	3,137.7	80.3717	3,137.7	78.4629	3,137.7	78.8864	3,137.7	76.7502	3,137.7	77.1128	3,137.7	74.6609	3,137.7	75.5561	3,137.7	72.4013	3,137.7	73.2714	3,137.7	71.2646	3,137.7	71.7741	3,137.7	68.2286	3,137.7	69.0761	3,137.7	69.5201	3,137.7	68.5709	3,137.7	66.7694	3,137.7	67.8189	3,137.7	68.0972	3,137.7	68.3712	3,137.7	65.457	3,137.7	67.2381	3,137.7	66.3056	3,137.7	65.9032	3,137.7	47.2472	3,137.7	59.4952	3,137.7	57.7048
3,249.02	80.1565	3,249.02	80.6174	3,249.02	80.1753	3,249.02	81.2153	3,249.02	81.02	3,249.02	81.7291	3,249.02	81.6536	3,249.02	81.1716	3,249.02	81.4726	3,249.02	80.2156	3,249.02	80.6786	3,249.02	78.9648	3,249.02	79.454	3,249.02	76.9805	3,249.02	77.7064	3,249.02	75.1377	3,249.02	75.6781	3,249.02	73.0543	3,249.02	73.6213	3,249.02	71.1823	3,249.02	71.9806	3,249.02	68.614	3,249.02	69.6433	3,249.02	68.909	3,249.02	68.8038	3,249.02	67.0424	3,249.02	67.9496	3,249.02	69.1054	3,249.02	67.8117	3,249.02	66.3777	3,249.02	67.9384	3,249.02	67.5659	3,249.02	66.4653	3,249.02	53.6081	3,249.02	61.8318	3,249.02	59.8201
3,363.28	80.2515	3,363.28	80.6362	3,363.28	80.3684	3,363.28	81.054	3,363.28	80.7987	3,363.28	81.5902	3,363.28	81.2268	3,363.28	81.2006	3,363.28	81.3366	3,363.28	80.3301	3,363.28	80.604	3,363.28	79.2651	3,363.28	79.5345	3,363.28	77.4525	3,363.28	77.6922	3,363.28	75.4071	3,363.28	75.7581	3,363.28	73.1199	3,363.28	73.9753	3,363.28	71.2728	3,363.28	72.2536	3,363.28	69.5087	3,363.28	70.3553	3,363.28	68.3916	3,363.28	69.1226	3,363.28	66.7368	3,363.28	67.2838	3,363.28	69.8014	3,363.28	68.3955	3,363.28	65.7886	3,363.28	68.4711	3,363.28	66.9522	3,363.28	66.4632	3,363.28	54.6061	3,363.28	62.332	3,363.28	56.915
3,481.93	80.6087	3,481.93	80.5634	3,481.93	80.7377	3,481.93	81.2218	3,481.93	80.5941	3,481.93	81.4299	3,481.93	81.1054	3,481.93	81.3778	3,481.93	81.5577	3,481.93	80.424	3,481.93	80.919	3,481.93	79.2782	3,481.93	79.6507	3,481.93	77.6728	3,481.93	78.0819	3,481.93	75.5646	3,481.93	76.2606	3,481.93	73.5473	3,481.93	73.8366	3,481.93	71.4648	3,481.93	71.8893	3,481.93	69.582	3,481.93	70.1667	3,481.93	69.8415	3,481.93	68.0775	3,481.93	67.2086	3,481.93	67.7666	3,481.93	69.4537	3,481.93	67.7544	3,481.93	67.1365	3,481.93	69.6254	3,481.93	67.6309	3,481.93	66.3568	3,481.93	56.4911	3,481.93	62.9149	3,481.93	58.463
3,604.98	81.2873	3,604.98	81.2578	3,604.98	80.6444	3,604.98	81.3994	3,604.98	81.0223	3,604.98	81.6795	3,604.98	81.6493	3,604.98	81.556	3,604.98	81.6751	3,604.98	81.3582	3,604.98	81.2389	3,604.98	79.8956	3,604.98	80.3628	3,604.98	77.667	3,604.98	78.8573	3,604.98	75.88	3,604.98	76.8088	3,604.98	73.4649	3,604.98	74.4755	3,604.98	71.5558	3,604.98	72.0993	3,604.98	69.4739	3,604.98	70.9064	3,604.98	69.5003	3,604.98	68.6146	3,604.98	68.4753	3,604.98	69.0671	3,604.98	69.012	3,604.98	68.038	3,604.98	68.6179	3,604.98	70.1418	3,604.98	68.0407	3,604.98	67.3398	3,604.98	59.0004	3,604.98	64.9915	3,604.98	57.2454
3,732.42	81.4259	3,732.42	80.9455	3,732.42	81.2476	3,732.42	81.0104	3,732.42	80.8411	3,732.42	81.5584	3,732.42	81.1296	3,732.42	81.9007	3,732.42	81.5885	3,732.42	81.4542	3,732.42	81.2942	3,732.42	80.4436	3,732.42	80.5223	3,732.42	79.04	3,732.42	79.1126	3,732.42	76.9734	3,732.42	76.8863	3,732.42	74.2493	3,732.42	74.3582	3,732.42	71.4109	3,732.42	72.0214	3,732.42	71.0854	3,732.42	70.6408	3,732.42	68.3005	3,732.42	68.5593	3,732.42	68.9002	3,732.42	68.2779	3,732.42	70.0056	3,732.42	66.8376	3,732.42	68.8194	3,732.42	70.0186	3,732.42	67.6911	3,732.42	67.0308	3,732.42	59.6591	3,732.42	64.5209	3,732.42	55.0333
3,864.26	81.9306	3,864.26	81.2318	3,864.26	81.4185	3,864.26	81.032	3,864.26	80.731	3,864.26	81.4684	3,864.26	81.3396	3,864.26	82.1839	3,864.26	81.9369	3,864.26	81.8093	3,864.26	82.2532	3,864.26	80.6344	3,864.26	81.2992	3,864.26	78.973	3,864.26	79.7756	3,864.26	76.7661	3,864.26	77.6094	3,864.26	74.5967	3,864.26	75.2655	3,864.26	72.2961	3,864.26	72.9226	3,864.26	70.8187	3,864.26	70.8676	3,864.26	68.7339	3,864.26	69.3515	3,864.26	67.0706	3,864.26	69.2114	3,864.26	69.4498	3,864.26	66.8503	3,864.26	68.808	3,864.26	70.8753	3,864.26	68.5008	3,864.26	68.4585	3,864.26	60.6547	3,864.26	66.6007	3,864.26	57.6892
4,000.49	81.724	4,000.49	80.76	4,000.49	80.9409	4,000.49	79.8083	4,000.49	80.1838	4,000.49	81.1545	4,000.49	80.273	4,000.49	81.7509	4,000.49	81.5193	4,000.49	81.8462	4,000.49	81.779	4,000.49	80.8366	4,000.49	81.015	4,000.49	78.9147	4,000.49	79.441	4,000.49	76.3544	4,000.49	76.902	4,000.49	74.249	4,000.49	74.8481	4,000.49	71.8591	4,000.49	72.6305	4,000.49	70.4165	4,000.49	71.0539	4,000.49	69.331	4,000.49	68.4828	4,000.49	68.9611	4,000.49	69.361	4,000.49	69.2086	4,000.49	67.6865	4,000.49	69.7858	4,000.49	68.891	4,000.49	68.8191	4,000.49	67.0741	4,000.49	59.9734	4,000.49	64.8938	4,000.49	55.688
4,141.11	81.6198	4,141.11	80.4739	4,141.11	81.1362	4,141.11	79.8202	4,141.11	79.2498	4,141.11	80.2622	4,141.11	79.5917	4,141.11	81.9781	4,141.11	81.2882	4,141.11	81.7926	4,141.11	81.8733	4,141.11	80.6932	4,141.11	80.988	4,141.11	79.179	4,141.11	79.2586	4,141.11	76.5937	4,141.11	77.0679	4,141.11	73.3258	4,141.11	74.8269	4,141.11	70.6973	4,141.11	71.8522	4,141.11	69.2637	4,141.11	70.1176	4,141.11	67.9019	4,141.11	68.1119	4,141.11	67.0017	4,141.11	67.5995	4,141.11	67.6641	4,141.11	67.9082	4,141.11	68.2591	4,141.11	69.1116	4,141.11	67.8885	4,141.11	66.4609	4,141.11	60.3138	4,141.11	64.4237	4,141.11	53.5321
4,287.6	81.6126	4,287.6	80.277	4,287.6	80.114	4,287.6	78.5701	4,287.6	79.2367	4,287.6	80.486	4,287.6	79.4324	4,287.6	81.2475	4,287.6	80.8676	4,287.6	81.6614	4,287.6	81.4234	4,287.6	80.2621	4,287.6	80.5133	4,287.6	77.7583	4,287.6	78.5409	4,287.6	75.1893	4,287.6	76.2946	4,287.6	73.0182	4,287.6	74.0465	4,287.6	71.244	4,287.6	71.0525	4,287.6	69.5824	4,287.6	68.7852	4,287.6	68.7613	4,287.6	67.2514	4,287.6	67.7614	4,287.6	67.0508	4,287.6	67.2193	4,287.6	67.2061	4,287.6	68.9473	4,287.6	68.1028	4,287.6	67.1421	4,287.6	66.3328	4,287.6	61.3118	4,287.6	64.3405	4,287.6	51.6595
4,438.48	81.1467	4,438.48	79.5406	4,438.48	80.8298	4,438.48	78.4558	4,438.48	78.2529	4,438.48	79.2873	4,438.48	78.7978	4,438.48	81.4943	4,438.48	81.0257	4,438.48	81.2407	4,438.48	81.4965	4,438.48	80.3067	4,438.48	80.4446	4,438.48	78.2675	4,438.48	78.6651	4,438.48	75.4456	4,438.48	76.0144	4,438.48	72.7866	4,438.48	73.1277	4,438.48	70.0411	4,438.48	70.4423	4,438.48	68.0334	4,438.48	68.4205	4,438.48	66.4656	4,438.48	66.5914	4,438.48	67.7093	4,438.48	66.4413	4,438.48	66.5762	4,438.48	66.1033	4,438.48	68.9108	4,438.48	68.3457	4,438.48	67.2696	4,438.48	66.2455	4,438.48	57.6173	4,438.48	64.34	4,438.48	57.6377
4,595.21	81.4188	4,595.21	80.329	4,595.21	79.9032	4,595.21	78.7276	4,595.21	78.8607	4,595.21	80.5126	4,595.21	78.9997	4,595.21	81.4134	4,595.21	80.6756	4,595.21	81.636	4,595.21	81.1944	4,595.21	79.9551	4,595.21	80.2522	4,595.21	77.5734	4,595.21	78.2285	4,595.21	75.5318	4,595.21	75.76	4,595.21	72.8008	4,595.21	73.5112	4,595.21	70.4156	4,595.21	70.565	4,595.21	67.9522	4,595.21	68.4791	4,595.21	67.3051	4,595.21	67.267	4,595.21	67.6058	4,595.21	65.8754	4,595.21	67.8313	4,595.21	66.7502	4,595.21	68.8093	4,595.21	68.1674	4,595.21	65.3926	4,595.21	66.5381	4,595.21	59.5357	4,595.21	64.8931	4,595.21	49.6059
4,756.35	81.3691	4,756.35	79.9198	4,756.35	81.012	4,756.35	78.7163	4,756.35	79.0859	4,756.35	78.9486	4,756.35	79.3034	4,756.35	81.049	4,756.35	81.0783	4,756.35	80.6162	4,756.35	81.4725	4,756.35	79.6462	4,756.35	80.0666	4,756.35	77.5119	4,756.35	78.4789	4,756.35	74.9558	4,756.35	76.1323	4,756.35	72.5992	4,756.35	73.2768	4,756.35	70.5774	4,756.35	71.1378	4,756.35	68.8455	4,756.35	68.3419	4,756.35	67.2845	4,756.35	67.0722	4,756.35	66.7994	4,756.35	66.9227	4,756.35	66.671	4,756.35	66.6614	4,756.35	69.5901	4,756.35	68.6775	4,756.35	66.0557	4,756.35	67.4877	4,756.35	55.7879	4,756.35	63.7456	4,756.35	57.8688
4,924.8	80.6788	4,924.8	80.2154	4,924.8	79.8142	4,924.8	79.0528	4,924.8	79.6193	4,924.8	80.0392	4,924.8	78.8559	4,924.8	80.7075	4,924.8	80.0813	4,924.8	80.8714	4,924.8	80.1037	4,924.8	79.2681	4,924.8	79.4216	4,924.8	77.4818	4,924.8	77.8681	4,924.8	75.8327	4,924.8	75.6107	4,924.8	73.0547	4,924.8	73.6021	4,924.8	70.7278	4,924.8	71.1624	4,924.8	66.7932	4,924.8	68.9169	4,924.8	66.9813	4,924.8	67.7325	4,924.8	66.6706	4,924.8	65.1577	4,924.8	64.9993	4,924.8	67.1959	4,924.8	68.6889	4,924.8	68.6702	4,924.8	65.9551	4,924.8	67.1631	4,924.8	58.1753	4,924.8	64.903	4,924.8	55.5274
5,097.66	80.8149	5,097.66	80.4749	5,097.66	80.9847	5,097.66	79.6704	5,097.66	80.0645	5,097.66	79.0252	5,097.66	79.106	5,097.66	80.191	5,097.66	79.8242	5,097.66	80.3773	5,097.66	80.5901	5,097.66	80.0126	5,097.66	79.5949	5,097.66	77.6732	5,097.66	78.1361	5,097.66	75.262	5,097.66	76.0185	5,097.66	72.0832	5,097.66	73.2272	5,097.66	69.7647	5,097.66	70.7434	5,097.66	65.7249	5,097.66	67.7857	5,097.66	65.5746	5,097.66	66.5122	5,097.66	65.1014	5,097.66	66.0119	5,097.66	65.5893	5,097.66	65.1657	5,097.66	68.5639	5,097.66	68.2872	5,097.66	64.7847	5,097.66	67.4042	5,097.66	54.226	5,097.66	64.0858	5,097.66	54.8636
5,277.83	80.4259	5,277.83	80.9975	5,277.83	80.6064	5,277.83	80.4758	5,277.83	80.6941	5,277.83	79.1813	5,277.83	79.0237	5,277.83	79.7918	5,277.83	79.2981	5,277.83	80.2323	5,277.83	79.7844	5,277.83	79.4356	5,277.83	79.8888	5,277.83	77.9219	5,277.83	78.6526	5,277.83	75.6414	5,277.83	76.383	5,277.83	72.3687	5,277.83	73.4401	5,277.83	70.1537	5,277.83	70.8315	5,277.83	67.2312	5,277.83	68.3649	5,277.83	66.3056	5,277.83	65.7105	5,277.83	66.8393	5,277.83	65.2471	5,277.83	65.962	5,277.83	65.5115	5,277.83	68.609	5,277.83	67.3576	5,277.83	64.5969	5,277.83	67.2419	5,277.83	56.5601	5,277.83	62.6866	5,277.83	56.7533
5,463.87	80.012	5,463.87	81.0592	5,463.87	80.9942	5,463.87	80.5086	5,463.87	81.4352	5,463.87	78.4057	5,463.87	79.0069	5,463.87	78.9932	5,463.87	78.9786	5,463.87	80.2577	5,463.87	80.1208	5,463.87	79.8989	5,463.87	80.033	5,463.87	78.2856	5,463.87	78.5615	5,463.87	76.2287	5,463.87	76.3023	5,463.87	72.9857	5,463.87	73.4856	5,463.87	70.3032	5,463.87	70.6337	5,463.87	68.4462	5,463.87	68.4412	5,463.87	66.4859	5,463.87	66.8436	5,463.87	65.909	5,463.87	64.8153	5,463.87	66.201	5,463.87	65.3379	5,463.87	68.5336	5,463.87	67.4011	5,463.87	64.7731	5,463.87	67.2411	5,463.87	52.9363	5,463.87	62.4467	5,463.87	56.9034
5,657.23	80.1605	5,657.23	81.4493	5,657.23	81.3554	5,657.23	81.0792	5,657.23	81.4926	5,657.23	78.6814	5,657.23	79.1844	5,657.23	79.4142	5,657.23	78.2205	5,657.23	80.8859	5,657.23	79.9395	5,657.23	80.6452	5,657.23	80.3003	5,657.23	78.35	5,657.23	78.7413	5,657.23	75.9856	5,657.23	76.4986	5,657.23	73.2186	5,657.23	73.7859	5,657.23	70.1547	5,657.23	70.6655	5,657.23	67.096	5,657.23	68.6103	5,657.23	66.3619	5,657.23	65.7383	5,657.23	64.7737	5,657.23	64.1905	5,657.23	65.0255	5,657.23	65.9144	5,657.23	68.4008	5,657.23	66.703	5,657.23	64.3257	5,657.23	66.4149	5,657.23	44.8145	5,657.23	60.7138	5,657.23	57.2027
5,856.45	80.5435	5,856.45	82.2661	5,856.45	81.4179	5,856.45	81.4582	5,856.45	82.2105	5,856.45	79.1033	5,856.45	79.5988	5,856.45	79.2659	5,856.45	78.6283	5,856.45	81.1347	5,856.45	80.2735	5,856.45	80.7577	5,856.45	80.4611	5,856.45	78.3336	5,856.45	78.8557	5,856.45	75.6183	5,856.45	76.3034	5,856.45	72.0702	5,856.45	73.2754	5,856.45	68.9893	5,856.45	70.0697	5,856.45	66.5953	5,856.45	67.2445	5,856.45	65.4296	5,856.45	64.8279	5,856.45	64.6694	5,856.45	63.9456	5,856.45	65.1749	5,856.45	65.4312	5,856.45	67.8131	5,856.45	66.2246	5,856.45	63.0503	5,856.45	66.1288	5,856.45	29.4237	5,856.45	60.0057	5,856.45	57.8705
6,062.99	80.9965	6,062.99	82.2917	6,062.99	81.8305	6,062.99	81.8052	6,062.99	82.1307	6,062.99	78.9963	6,062.99	79.8841	6,062.99	79.6801	6,062.99	78.87	6,062.99	80.994	6,062.99	80.2312	6,062.99	80.1359	6,062.99	80.2347	6,062.99	78.1167	6,062.99	78.4279	6,062.99	74.9023	6,062.99	76.0091	6,062.99	71.8379	6,062.99	72.7118	6,062.99	68.8909	6,062.99	69.9306	6,062.99	66.1815	6,062.99	67.824	6,062.99	65.8207	6,062.99	64.4967	6,062.99	65.0097	6,062.99	63.4102	6,062.99	66.1959	6,062.99	64.8352	6,062.99	67.2123	6,062.99	65.8454	6,062.99	63.8467	6,062.99	66.3675	6,062.99	37.4978	6,062.99	59.2851	6,062.99	58.8112
6,276.86	81.7623	6,276.86	82.3422	6,276.86	82.4943	6,276.86	81.8939	6,276.86	82.0693	6,276.86	79.6047	6,276.86	80.1713	6,276.86	79.4812	6,276.86	79.0458	6,276.86	80.8905	6,276.86	80.2469	6,276.86	79.8954	6,276.86	80.0932	6,276.86	77.408	6,276.86	77.9208	6,276.86	75.1357	6,276.86	75.599	6,276.86	72.4565	6,276.86	73.0676	6,276.86	68.5671	6,276.86	69.9977	6,276.86	65.813	6,276.86	67.6844	6,276.86	65.2531	6,276.86	64.4443	6,276.86	64.1219	6,276.86	62.9828	6,276.86	66.1074	6,276.86	64.5344	6,276.86	67.0045	6,276.86	65.3844	6,276.86	63.8824	6,276.86	66.1825	6,276.86	39.8847	6,276.86	57.3509	6,276.86	59.3329
6,498.05	82.2327	6,498.05	82.6259	6,498.05	82.5362	6,498.05	81.9279	6,498.05	82.3444	6,498.05	80.4566	6,498.05	80.9142	6,498.05	79.5518	6,498.05	79.4718	6,498.05	80.7502	6,498.05	80.3703	6,498.05	79.9661	6,498.05	79.8702	6,498.05	77.4531	6,498.05	77.9752	6,498.05	75.0943	6,498.05	75.6367	6,498.05	72.1322	6,498.05	72.6869	6,498.05	68.494	6,498.05	69.8996	6,498.05	65.8948	6,498.05	67.3264	6,498.05	64.2739	6,498.05	63.2301	6,498.05	62.563	6,498.05	62.9844	6,498.05	65.4563	6,498.05	64.2675	6,498.05	66.7194	6,498.05	65.4231	6,498.05	63.5257	6,498.05	66.3045	6,498.05	44.4926	6,498.05	56.3302	6,498.05	58.1961
6,726.56	82.4502	6,726.56	82.3669	6,726.56	82.2768	6,726.56	82.0232	6,726.56	82.2421	6,726.56	80.769	6,726.56	81.4519	6,726.56	79.6034	6,726.56	79.5514	6,726.56	80.0514	6,726.56	79.6484	6,726.56	79.2753	6,726.56	79.465	6,726.56	77.7031	6,726.56	78.022	6,726.56	74.7855	6,726.56	75.8598	6,726.56	72.2963	6,726.56	72.553	6,726.56	68.7976	6,726.56	69.2257	6,726.56	65.8691	6,726.56	66.8024	6,726.56	63.0378	6,726.56	62.3393	6,726.56	63.0395	6,726.56	63.1218	6,726.56	65.9689	6,726.56	63.6018	6,726.56	66.7251	6,726.56	65.1572	6,726.56	63.7007	6,726.56	66.4024	6,726.56	44.726	6,726.56	57.8248	6,726.56	59.1936
6,963.87	82.5748	6,963.87	81.647	6,963.87	82.1185	6,963.87	81.9605	6,963.87	81.7035	6,963.87	80.8171	6,963.87	81.6165	6,963.87	79.0208	6,963.87	79.1737	6,963.87	79.5611	6,963.87	78.88	6,963.87	79.1405	6,963.87	79.0926	6,963.87	77.6553	6,963.87	77.9422	6,963.87	74.8132	6,963.87	75.7983	6,963.87	72.053	6,963.87	72.3056	6,963.87	68.613	6,963.87	69.0464	6,963.87	65.9489	6,963.87	66.191	6,963.87	62.0122	6,963.87	62.2943	6,963.87	62.1655	6,963.87	62.7296	6,963.87	65.0849	6,963.87	62.3889	6,963.87	66.0832	6,963.87	64.3081	6,963.87	62.6743	6,963.87	65.6687	6,963.87	36.717	6,963.87	57.4199	6,963.87	58.7009
7,209.96	82.496	7,209.96	81.3117	7,209.96	81.9443	7,209.96	81.9571	7,209.96	81.5104	7,209.96	80.8368	7,209.96	81.6463	7,209.96	78.4323	7,209.96	78.9199	7,209.96	79.113	7,209.96	78.8371	7,209.96	78.8947	7,209.96	79.0574	7,209.96	77.2665	7,209.96	77.7743	7,209.96	74.3912	7,209.96	75.2209	7,209.96	71.0273	7,209.96	71.857	7,209.96	67.6355	7,209.96	68.8248	7,209.96	65.6092	7,209.96	66.0911	7,209.96	61.2847	7,209.96	62.0019	7,209.96	60.556	7,209.96	61.6928	7,209.96	64.3906	7,209.96	61.6469	7,209.96	64.7348	7,209.96	62.361	7,209.96	61.6937	7,209.96	65.1146	7,209.96	42.8138	7,209.96	55.269	7,209.96	58.0792
7,464.84	82.3488	7,464.84	81.1606	7,464.84	81.3904	7,464.84	81.811	7,464.84	81.465	7,464.84	80.5755	7,464.84	81.4368	7,464.84	78.1205	7,464.84	78.641	7,464.84	78.9702	7,464.84	78.3933	7,464.84	78.552	7,464.84	78.633	7,464.84	76.5827	7,464.84	77.1468	7,464.84	73.3993	7,464.84	74.3683	7,464.84	70.0521	7,464.84	70.603	7,464.84	66.1726	7,464.84	68.2564	7,464.84	64.5988	7,464.84	64.8426	7,464.84	60.174	7,464.84	61.0044	7,464.84	60.1999	7,464.84	60.8804	7,464.84	63.6239	7,464.84	60.6657	7,464.84	62.6442	7,464.84	61.9718	7,464.84	61.2675	7,464.84	64.0817	7,464.84	41.7794	7,464.84	55.7523	7,464.84	58.6479
7,727.05	82.0545	7,727.05	81.0326	7,727.05	81.3897	7,727.05	81.4756	7,727.05	81.3384	7,727.05	80.3466	7,727.05	81.0246	7,727.05	77.9701	7,727.05	78.6505	7,727.05	78.7639	7,727.05	78.3039	7,727.05	77.9921	7,727.05	78.1915	7,727.05	75.5643	7,727.05	76.1588	7,727.05	72.9469	7,727.05	73.5049	7,727.05	69.3111	7,727.05	70.4389	7,727.05	65.3201	7,727.05	67.3214	7,727.05	63.564	7,727.05	63.8654	7,727.05	58.8555	7,727.05	60.1639	7,727.05	60.5844	7,727.05	60.0131	7,727.05	62.2451	7,727.05	58.7984	7,727.05	60.9519	7,727.05	61.2526	7,727.05	60.2112	7,727.05	62.6334	7,727.05	45.7813	7,727.05	54.3169	7,727.05	58.2341
7,999.51	81.7853	7,999.51	81.1811	7,999.51	81.4084	7,999.51	81.2986	7,999.51	81.2721	7,999.51	80.0442	7,999.51	80.9318	7,999.51	78.4533	7,999.51	79.042	7,999.51	78.6149	7,999.51	78.3616	7,999.51	77.8114	7,999.51	78.0335	7,999.51	75.5267	7,999.51	75.7564	7,999.51	72.0187	7,999.51	73.7214	7,999.51	69.2539	7,999.51	69.6762	7,999.51	65.3526	7,999.51	67.4842	7,999.51	62.6966	7,999.51	63.604	7,999.51	58.6727	7,999.51	60.3638	7,999.51	59.2231	7,999.51	58.4201	7,999.51	61.6016	7,999.51	58.686	7,999.51	60.3741	7,999.51	61.6826	7,999.51	60.0624	7,999.51	62.2424	7,999.51	46.5708	7,999.51	53.4022	7,999.51	58.8314
8,282.23	81.279	8,282.23	81.2521	8,282.23	81.4176	8,282.23	80.9099	8,282.23	81.0768	8,282.23	80.0582	8,282.23	80.6711	8,282.23	78.7299	8,282.23	79.2549	8,282.23	77.9768	8,282.23	77.7423	8,282.23	77.3904	8,282.23	77.7506	8,282.23	75.8517	8,282.23	76.1977	8,282.23	72.7592	8,282.23	73.7834	8,282.23	69.3362	8,282.23	69.6535	8,282.23	66.1963	8,282.23	67.2648	8,282.23	62.3765	8,282.23	63.229	8,282.23	58.7535	8,282.23	61.2382	8,282.23	60.8935	8,282.23	58.5101	8,282.23	60.816	8,282.23	57.5574	8,282.23	59.1238	8,282.23	61.4297	8,282.23	60.3986	8,282.23	61.7721	8,282.23	41.7428	8,282.23	53.7366	8,282.23	57.1502
8,573.73	81.214	8,573.73	81.3295	8,573.73	81.7056	8,573.73	80.8704	8,573.73	80.7958	8,573.73	80.4202	8,573.73	80.6323	8,573.73	78.7979	8,573.73	79.6174	8,573.73	77.8539	8,573.73	77.621	8,573.73	77.585	8,573.73	77.9764	8,573.73	76.1002	8,573.73	76.5784	8,573.73	73.3295	8,573.73	74.3979	8,573.73	69.663	8,573.73	70.6698	8,573.73	66.5527	8,573.73	67.7499	8,573.73	62.7488	8,573.73	64.0387	8,573.73	59.2593	8,573.73	61.9625	8,573.73	61.5149	8,573.73	58.3004	8,573.73	60.0709	8,573.73	56.2589	8,573.73	57.7363	8,573.73	60.654	8,573.73	59.6148	8,573.73	61.453	8,573.73	27.1879	8,573.73	54.3149	8,573.73	57.2224
8,876.95	80.9585	8,876.95	81.6473	8,876.95	81.5405	8,876.95	80.4242	8,876.95	80.957	8,876.95	80.5498	8,876.95	80.655	8,876.95	78.5827	8,876.95	79.7573	8,876.95	77.899	8,876.95	77.734	8,876.95	77.8	8,876.95	78.2826	8,876.95	76.0705	8,876.95	76.6973	8,876.95	73.0239	8,876.95	74.0139	8,876.95	68.5652	8,876.95	70.388	8,876.95	65.1469	8,876.95	67.1231	8,876.95	61.3734	8,876.95	63.3703	8,876.95	58.2338	8,876.95	61.2534	8,876.95	60.2934	8,876.95	57.105	8,876.95	59.24	8,876.95	55.255	8,876.95	55.9549	8,876.95	60.441	8,876.95	58.0631	8,876.95	60.9462	8,876.95	41.3696	8,876.95	54.075	8,876.95	56.5503
9,188.96	81.2276	9,188.96	81.7387	9,188.96	81.7608	9,188.96	80.7733	9,188.96	81.1018	9,188.96	80.7947	9,188.96	80.8236	9,188.96	78.6484	9,188.96	79.5567	9,188.96	77.7667	9,188.96	77.6627	9,188.96	76.98	9,188.96	77.7142	9,188.96	74.6789	9,188.96	75.5087	9,188.96	71.4271	9,188.96	72.7198	9,188.96	67.7128	9,188.96	69.1373	9,188.96	63.9531	9,188.96	65.583	9,188.96	60.0285	9,188.96	62.4385	9,188.96	59.1143	9,188.96	59.4817	9,188.96	57.9805	9,188.96	53.3591	9,188.96	58.5239	9,188.96	54.0733	9,188.96	58.2094	9,188.96	59.9969	9,188.96	58.0282	9,188.96	59.5684	9,188.96	41.9185	9,188.96	53.8702	9,188.96	54.6485
9,514.16	81.669	9,514.16	81.8957	9,514.16	82.0664	9,514.16	80.9729	9,514.16	81.3051	9,514.16	80.6028	9,514.16	80.8316	9,514.16	78.5366	9,514.16	79.2908	9,514.16	77.6581	9,514.16	77.6733	9,514.16	76.4381	9,514.16	77.2074	9,514.16	73.9044	9,514.16	74.8827	9,514.16	70.1603	9,514.16	71.5633	9,514.16	66.8457	9,514.16	68.0712	9,514.16	62.5958	9,514.16	64.8202	9,514.16	58.3414	9,514.16	61.3298	9,514.16	59.7996	9,514.16	57.7306	9,514.16	56.8381	9,514.16	48.791	9,514.16	56.9375	9,514.16	54.5858	9,514.16	57.9424	9,514.16	60.1385	9,514.16	57.7044	9,514.16	58.4427	9,514.16	41.0389	9,514.16	52.4669	9,514.16	52.5068
9,849.61	81.9863	9,849.61	81.8051	9,849.61	82.2521	9,849.61	81.0511	9,849.61	81.4769	9,849.61	80.1256	9,849.61	80.6996	9,849.61	78.4904	9,849.61	78.8742	9,849.61	77.3392	9,849.61	77.1374	9,849.61	75.7264	9,849.61	76.07	9,849.61	73.6431	9,849.61	74.1142	9,849.61	70.4398	9,849.61	71.1666	9,849.61	67.2981	9,849.61	67.4246	9,849.61	62.9618	9,849.61	64.1039	9,849.61	60.1061	9,849.61	61.7874	9,849.61	58.6289	9,849.61	56.7793	9,849.61	55.8899	9,849.61	49.2345	9,849.61	54.7646	9,849.61	53.1812	9,849.61	58.5011	9,849.61	59.5307	9,849.61	57.4263	9,849.61	56.7314	9,849.61	39.05	9,849.61	54.2426	9,849.61	52.8584
10,196.8	81.9761	10,196.8	81.6565	10,196.8	82.0267	10,196.8	80.7642	10,196.8	81.2552	10,196.8	79.2684	10,196.8	79.9266	10,196.8	77.8994	10,196.8	78.4554	10,196.8	76.2912	10,196.8	76.4886	10,196.8	75.4132	10,196.8	75.2787	10,196.8	73.4537	10,196.8	73.8182	10,196.8	70.3232	10,196.8	70.8821	10,196.8	67.2774	10,196.8	67.2206	10,196.8	62.7431	10,196.8	63.2479	10,196.8	61.3053	10,196.8	61.2318	10,196.8	57.5827	10,196.8	57.4209	10,196.8	55.1459	10,196.8	53.6925	10,196.8	54.1915	10,196.8	53.0493	10,196.8	57.502	10,196.8	58.7213	10,196.8	56.7186	10,196.8	55.4909	10,196.8	40.7727	10,196.8	53.3116	10,196.8	52.7976
10,555.7	81.8329	10,555.7	81.4544	10,555.7	81.9344	10,555.7	80.5896	10,555.7	81.1105	10,555.7	78.9335	10,555.7	79.6487	10,555.7	77.6749	10,555.7	78.2668	10,555.7	75.6767	10,555.7	75.8673	10,555.7	75.3872	10,555.7	75.013	10,555.7	72.8547	10,555.7	73.1279	10,555.7	69.1746	10,555.7	70.7796	10,555.7	65.9936	10,555.7	65.9918	10,555.7	60.8455	10,555.7	62.0387	10,555.7	60.6557	10,555.7	59.5656	10,555.7	55.5603	10,555.7	55.8112	10,555.7	54.082	10,555.7	54.063	10,555.7	52.7125	10,555.7	53.2488	10,555.7	54.8681	10,555.7	57.5065	10,555.7	55.3299	10,555.7	53.976	10,555.7	36.9865	10,555.7	52.3429	10,555.7	51.1128
10,927.7	82.0717	10,927.7	81.6228	10,927.7	82.0342	10,927.7	80.5934	10,927.7	81.1954	10,927.7	78.7335	10,927.7	79.5627	10,927.7	76.8809	10,927.7	78.0566	10,927.7	75.1114	10,927.7	75.5303	10,927.7	74.5804	10,927.7	74.8432	10,927.7	71.5561	10,927.7	71.8722	10,927.7	67.4568	10,927.7	69.5577	10,927.7	63.9168	10,927.7	64.3408	10,927.7	58.8607	10,927.7	61.0545	10,927.7	59.3708	10,927.7	57.12	10,927.7	51.1159	10,927.7	55.4038	10,927.7	51.0614	10,927.7	52.9562	10,927.7	50.4713	10,927.7	53.4164	10,927.7	53.1402	10,927.7	55.5534	10,927.7	52.8944	10,927.7	51.2658	10,927.7	38.2433	10,927.7	50.2658	10,927.7	47.0167
11,313	82.0958	11,313	81.7811	11,313	82.2478	11,313	80.6524	11,313	81.3448	11,313	78.5551	11,313	79.6692	11,313	76.5029	11,313	77.8286	11,313	74.67	11,313	75.119	11,313	73.1613	11,313	74.1992	11,313	70.5921	11,313	71.0481	11,313	66.612	11,313	68.743	11,313	61.7999	11,313	63.4407	11,313	58.2298	11,313	60.0189	11,313	58.2248	11,313	56.5992	11,313	46.6603	11,313	55.3006	11,313	49.4496	11,313	51.3057	11,313	47.7467	11,313	51.6854	11,313	52.8431	11,313	53.6708	11,313	50.5476	11,313	46.3884	11,313	43.5221	11,313	51.9767	11,313	43.013
11,712.9	82.289	11,712.9	81.9037	11,712.9	82.3971	11,712.9	80.6749	11,712.9	81.4299	11,712.9	78.5183	11,712.9	79.7265	11,712.9	76.6265	11,712.9	77.6899	11,712.9	74.4108	11,712.9	75.0122	11,712.9	72.4236	11,712.9	73.4719	11,712.9	70.2584	11,712.9	70.8023	11,712.9	66.8088	11,712.9	68.4268	11,712.9	61.8682	11,712.9	64.0877	11,712.9	58.4214	11,712.9	60.0454	11,712.9	57.2569	11,712.9	56.4274	11,712.9	47.1872	11,712.9	54.6944	11,712.9	45.9959	11,712.9	50.5408	11,712.9	44.5083	11,712.9	50.3221	11,712.9	53.2711	11,712.9	52.7498	11,712.9	48.033	11,712.9	41.029	11,712.9	47.0111	11,712.9	51.6495	11,712.9	48.1558
12,126	82.4364	12,126	82.0246	12,126	82.4797	12,126	80.8947	12,126	81.5067	12,126	78.6208	12,126	79.8148	12,126	76.9522	12,126	77.5678	12,126	74.2689	12,126	74.8955	12,126	72.6478	12,126	73.0837	12,126	70.0896	12,126	70.6996	12,126	66.7099	12,126	67.7994	12,126	61.6718	12,126	63.7388	12,126	58.2413	12,126	59.1297	12,126	56.1311	12,126	55.4632	12,126	47.5185	12,126	53.2261	12,126	47.1717	12,126	50.7164	12,126	42.559	12,126	48.717	12,126	53.1164	12,126	52.2236	12,126	44.0792	12,126	47.0193	12,126	46.8199	12,126	52.8334	12,126	50.8496
12,553.7	82.6144	12,553.7	81.9238	12,553.7	82.7023	12,553.7	81.1891	12,553.7	81.5487	12,553.7	79.0523	12,553.7	79.9194	12,553.7	77.0392	12,553.7	77.3762	12,553.7	74.068	12,553.7	74.6378	12,553.7	72.6832	12,553.7	72.6706	12,553.7	69.1455	12,553.7	69.7284	12,553.7	65.7763	12,553.7	66.7327	12,553.7	60.8529	12,553.7	62.1754	12,553.7	57.4305	12,553.7	58.0076	12,553.7	55.0296	12,553.7	53.653	12,553.7	47.9929	12,553.7	51.4366	12,553.7	45.0144	12,553.7	50.7001	12,553.7	40.4763	12,553.7	47.6668	12,553.7	51.7346	12,553.7	51.0474	12,553.7	45.0685	12,553.7	46.9607	12,553.7	42.5109	12,553.7	51.6859	12,553.7	51.105
12,996.1	82.9099	12,996.1	82.0479	12,996.1	82.8602	12,996.1	81.3004	12,996.1	81.5938	12,996.1	79.0921	12,996.1	79.7995	12,996.1	76.5946	12,996.1	76.8725	12,996.1	73.8119	12,996.1	74.0633	12,996.1	71.7902	12,996.1	71.577	12,996.1	67.9001	12,996.1	67.8498	12,996.1	65.0539	12,996.1	65.7094	12,996.1	59.7646	12,996.1	60.7604	12,996.1	57.349	12,996.1	55.8021	12,996.1	55.1311	12,996.1	52.2966	12,996.1	43.8706	12,996.1	51.1305	12,996.1	44.3028	12,996.1	50.2257	12,996.1	35.395	12,996.1	46.6963	12,996.1	51.3666	12,996.1	49.4628	12,996.1	44.9278	12,996.1	46.2705	12,996.1	40.4591	12,996.1	50.3564	12,996.1	50.1593
13,454.6	82.9856	13,454.6	82.1316	13,454.6	82.8827	13,454.6	81.1223	13,454.6	81.6116	13,454.6	78.6963	13,454.6	79.4721	13,454.6	75.8148	13,454.6	76.3234	13,454.6	72.9849	13,454.6	73.3638	13,454.6	70.1069	13,454.6	69.7843	13,454.6	68.0367	13,454.6	66.6334	13,454.6	65.9235	13,454.6	64.3694	13,454.6	59.6113	13,454.6	60.8018	13,454.6	57.4499	13,454.6	53.787	13,454.6	54.4386	13,454.6	52.6725	13,454.6	48.4576	13,454.6	50.5738	13,454.6	43.3861	13,454.6	48.6137	13,454.6	37.0428	13,454.6	41.2748	13,454.6	50.4892	13,454.6	48.5732	13,454.6	41.4398	13,454.6	43.4396	13,454.6	41.8403	13,454.6	50.0002	13,454.6	47.8817
13,929.2	82.9167	13,929.2	81.9981	13,929.2	82.76	13,929.2	80.8915	13,929.2	81.4977	13,929.2	78.26	13,929.2	79.2322	13,929.2	75.3012	13,929.2	75.9837	13,929.2	71.8207	13,929.2	72.6307	13,929.2	69.0845	13,929.2	68.6224	13,929.2	67.3278	13,929.2	67.2438	13,929.2	65.4343	13,929.2	63.0336	13,929.2	58.921	13,929.2	60.3831	13,929.2	56.8007	13,929.2	54.3213	13,929.2	51.8912	13,929.2	51.6112	13,929.2	50.5385	13,929.2	48.9511	13,929.2	41.3246	13,929.2	46.0285	13,929.2	34.0898	13,929.2	45.1606	13,929.2	49.8236	13,929.2	42.8711	13,929.2	39.4339	13,929.2	40.4338	13,929.2	44.0364	13,929.2	50.2882	13,929.2	46.0528
14,419.9	82.7897	14,419.9	81.9862	14,419.9	82.5319	14,419.9	80.5966	14,419.9	81.2333	14,419.9	77.6438	14,419.9	78.8646	14,419.9	74.725	14,419.9	75.521	14,419.9	70.7642	14,419.9	71.3429	14,419.9	69.3284	14,419.9	67.9261	14,419.9	67.0834	14,419.9	67.1141	14,419.9	65.4903	14,419.9	64.5578	14,419.9	60.1096	14,419.9	61.3293	14,419.9	57.5163	14,419.9	57.3435	14,419.9	53.4272	14,419.9	53.8602	14,419.9	50.0789	14,419.9	49.8469	14,419.9	36.0222	14,419.9	48.8731	14,419.9	36.8413	14,419.9	45.3126	14,419.9	50.6124	14,419.9	34.747	14,419.9	45.6308	14,419.9	36.4468	14,419.9	45.1957	14,419.9	49.4165	14,419.9	46.7944
14,928.2	82.8026	14,928.2	81.8922	14,928.2	82.5334	14,928.2	80.3809	14,928.2	80.8564	14,928.2	77.3531	14,928.2	78.3326	14,928.2	74.1843	14,928.2	74.4738	14,928.2	70.3955	14,928.2	70.305	14,928.2	69.7288	14,928.2	67.6527	14,928.2	68.9486	14,928.2	68.4884	14,928.2	66.3668	14,928.2	66.8425	14,928.2	61.7615	14,928.2	62.7686	14,928.2	59.0948	14,928.2	59.869	14,928.2	55.0513	14,928.2	55.4979	14,928.2	50.5994	14,928.2	53.2422	14,928.2	33.5169	14,928.2	51.71	14,928.2	35.564	14,928.2	45.1966	14,928.2	49.5205	14,928.2	42.8218	14,928.2	50.1142	14,928.2	43.4216	14,928.2	44.9471	14,928.2	51.3664	14,928.2	49.1085
15,455.6	82.815	15,455.6	81.7526	15,455.6	82.5046	15,455.6	80.2954	15,455.6	80.4076	15,455.6	77.3423	15,455.6	77.6828	15,455.6	74.0612	15,455.6	73.6965	15,455.6	70.8156	15,455.6	70.581	15,455.6	70.3464	15,455.6	68.5588	15,455.6	70.509	15,455.6	70.6004	15,455.6	67.7011	15,455.6	67.8479	15,455.6	62.5862	15,455.6	63.3642	15,455.6	59.3263	15,455.6	60.3439	15,455.6	55.3967	15,455.6	55.9707	15,455.6	52.6743	15,455.6	54.3069	15,455.6	27.2996	15,455.6	51.7632	15,455.6	31.5641	15,455.6	46.954	15,455.6	50.1998	15,455.6	48.311	15,455.6	51.189	15,455.6	47.6346	15,455.6	44.1664	15,455.6	52.4753	15,455.6	50.6194
16,000.5	82.5996	16,000.5	81.6037	16,000.5	82.2982	16,000.5	80.1271	16,000.5	80.1316	16,000.5	77.0693	16,000.5	77.009	16,000.5	74.3835	16,000.5	73.8946	16,000.5	71.4882	16,000.5	70.9355	16,000.5	71.0299	16,000.5	69.3707	16,000.5	70.8191	16,000.5	70.5697	16,000.5	68.2416	16,000.5	67.9501	16,000.5	63.2689	16,000.5	64.2291	16,000.5	59.2699	16,000.5	60.5527	16,000.5	55.1871	16,000.5	56.473	16,000.5	53.5361	16,000.5	54.3775	16,000.5	39.5017	16,000.5	51.2725	16,000.5	32.2058	16,000.5	46.163	16,000.5	49.3973	16,000.5	51.4908	16,000.5	51.352	16,000.5	48.8303	16,000.5	41.5755	16,000.5	51.7941	16,000.5	50.2281
16,564.5	82.3725	16,564.5	81.4209	16,564.5	81.9448	16,564.5	79.7553	16,564.5	79.8595	16,564.5	76.5399	16,564.5	76.6618	16,564.5	74.4542	16,564.5	73.9923	16,564.5	71.567	16,564.5	70.7222	16,564.5	70.952	16,564.5	69.48	16,564.5	70.5666	16,564.5	70.149	16,564.5	68.0988	16,564.5	68.0764	16,564.5	63.465	16,564.5	64.4292	16,564.5	58.9225	16,564.5	60.7129	16,564.5	54.8354	16,564.5	56.391	16,564.5	53.0367	16,564.5	53.5225	16,564.5	42.3651	16,564.5	50.1853	16,564.5	34.8026	16,564.5	43.8804	16,564.5	49.1403	16,564.5	53.215	16,564.5	51.122	16,564.5	49.2743	16,564.5	39.2479	16,564.5	50.9525	16,564.5	48.758
17,148.9	82.032	17,148.9	81.2112	17,148.9	81.5027	17,148.9	79.405	17,148.9	79.5229	17,148.9	76.2174	17,148.9	76.5833	17,148.9	74.1895	17,148.9	73.5196	17,148.9	71.302	17,148.9	70.6977	17,148.9	70.1325	17,148.9	69.5492	17,148.9	69.8989	17,148.9	70.077	17,148.9	67.1887	17,148.9	67.2822	17,148.9	62.0529	17,148.9	63.6508	17,148.9	57.5004	17,148.9	58.9556	17,148.9	54.1036	17,148.9	55.1629	17,148.9	53.3118	17,148.9	52.7941	17,148.9	30.9077	17,148.9	48.2339	17,148.9	36.3356	17,148.9	42.4131	17,148.9	48.3163	17,148.9	53.2954	17,148.9	51.0328	17,148.9	48.1673	17,148.9	33.9541	17,148.9	48.6968	17,148.9	48.4222
17,752.4	82.0242	17,752.4	81.0486	17,752.4	81.6484	17,752.4	79.4549	17,752.4	79.5377	17,752.4	76.2756	17,752.4	76.5696	17,752.4	73.9516	17,752.4	73.7388	17,752.4	71.1084	17,752.4	71.4488	17,752.4	69.8008	17,752.4	70.0152	17,752.4	69.178	17,752.4	69.9049	17,752.4	66.9108	17,752.4	66.7331	17,752.4	61.3929	17,752.4	63.7469	17,752.4	56.5466	17,752.4	57.6581	17,752.4	51.3606	17,752.4	54.9673	17,752.4	52.3786	17,752.4	52.5074	17,752.4	27.2031	17,752.4	47.4546	17,752.4	34.6257	17,752.4	43.7456	17,752.4	46.0289	17,752.4	52.5779	17,752.4	48.949	17,752.4	47.6801	17,752.4	34.2183	17,752.4	46.2641	17,752.4	48.6513
18,379.4	82.208	18,379.4	81.1384	18,379.4	81.9271	18,379.4	79.7082	18,379.4	79.7786	18,379.4	76.1996	18,379.4	76.7726	18,379.4	73.8888	18,379.4	74.1206	18,379.4	70.6025	18,379.4	72.0782	18,379.4	69.7672	18,379.4	70.0474	18,379.4	68.257	18,379.4	69.5759	18,379.4	66.2062	18,379.4	66.2612	18,379.4	60.8882	18,379.4	63.3866	18,379.4	55.4314	18,379.4	57.5574	18,379.4	50.826	18,379.4	54.8177	18,379.4	51.8013	18,379.4	50.8	18,379.4	28.4565	18,379.4	45.1922	18,379.4	37.3272	18,379.4	42.6679	18,379.4	45.5528	18,379.4	52.1891	18,379.4	43.9735	18,379.4	47.8633	18,379.4	34.2196	18,379.4	35.4775	18,379.4	49.5033
19,026.9	82.295	19,026.9	81.4506	19,026.9	81.887	19,026.9	79.8272	19,026.9	80.0833	19,026.9	76.6282	19,026.9	77.2556	19,026.9	74.166	19,026.9	74.4504	19,026.9	70.7132	19,026.9	72.3052	19,026.9	69.548	19,026.9	69.843	19,026.9	67.8461	19,026.9	69.359	19,026.9	65.3077	19,026.9	65.3249	19,026.9	60.2292	19,026.9	62.1788	19,026.9	54.71	19,026.9	56.4495	19,026.9	50.6131	19,026.9	53.6783	19,026.9	50.0856	19,026.9	46.6373	19,026.9	31.9928	19,026.9	41.3092	19,026.9	39.0945	19,026.9	42.0858	19,026.9	43.6024	19,026.9	50.9175	19,026.9	38.4897	19,026.9	45.2417	19,026.9	39.2514	19,026.9	35.0806	19,026.9	48.8591
19,697.8	82.0052	19,697.8	81.1717	19,697.8	81.6902	19,697.8	79.6892	19,697.8	80.0837	19,697.8	76.7559	19,697.8	77.4403	19,697.8	73.8787	19,697.8	74.543	19,697.8	70.3359	19,697.8	71.9332	19,697.8	69.2162	19,697.8	68.9466	19,697.8	66.6445	19,697.8	67.5121	19,697.8	64.2895	19,697.8	63.4288	19,697.8	58.7392	19,697.8	59.6743	19,697.8	53.9121	19,697.8	54.9588	19,697.8	49.3754	19,697.8	50.9971	19,697.8	49.1536	19,697.8	42.8468	19,697.8	34.7155	19,697.8	41.8459	19,697.8	39.2363	19,697.8	38.5454	19,697.8	42.8146	19,697.8	47.082	19,697.8	30.7285	19,697.8	40.3418	19,697.8	41.2145	19,697.8	40.5205	19,697.8	46.8307
19,999.5	81.7559	19,999.5	80.7743	19,999.5	81.5495	19,999.5	79.3748	19,999.5	79.9639	19,999.5	76.5341	19,999.5	77.3465	19,999.5	73.5339	19,999.5	74.3632	19,999.5	69.7903	19,999.5	71.7447	19,999.5	68.5485	19,999.5	68.2578	19,999.5	65.3154	19,999.5	66.6773	19,999.5	63.5506	19,999.5	61.9776	19,999.5	59.2291	19,999.5	58.461	19,999.5	54.2935	19,999.5	54.6202	19,999.5	49.9502	19,999.5	46.6994	19,999.5	47.487	19,999.5	32.9777	19,999.5	40.2719	19,999.5	44.9564	19,999.5	45.9093	19,999.5	43.191	19,999.5	50.9178	19,999.5	47.5054	19,999.5	43.7556	19,999.5	45.2256	19,999.5	41.7052	19,999.5	47.0353	19,999.5	46.6766
