"SPL Horizontal"																																																																							
"On-Axis"		"10°"		"-10°"		"20°"		"-20°"		"30°"		"-30°"		"40°"		"-40°"		"50°"		"-50°"		"60°"		"-60°"		"70°"		"-70°"		"80°"		"-80°"		"90°"		"-90°"		"100°"		"-100°"		"110°"		"-110°"		"120°"		"-120°"		"130°"		"-130°"		"140°"		"-140°"		"150°"		"-150°"		"160°"		"-160°"		"170°"		"-170°"		"180°"	
"Frequency [Hz]"	"Sound Pessure Level [dB]  / [2.83V 1m] "	"Frequency [Hz]"	"Sound Pessure Level [dB]  / [2.83V 1m] "	"Frequency [Hz]"	"Sound Pessure Level [dB]  / [2.83V 1m] "	"Frequency [Hz]"	"Sound Pessure Level [dB]  / [2.83V 1m] "	"Frequency [Hz]"	"Sound Pessure Level [dB]  / [2.83V 1m] "	"Frequency [Hz]"	"Sound Pessure Level [dB]  / [2.83V 1m] "	"Frequency [Hz]"	"Sound Pessure Level [dB]  / [2.83V 1m] "	"Frequency [Hz]"	"Sound Pessure Level [dB]  / [2.83V 1m] "	"Frequency [Hz]"	"Sound Pessure Level [dB]  / [2.83V 1m] "	"Frequency [Hz]"	"Sound Pessure Level [dB]  / [2.83V 1m] "	"Frequency [Hz]"	"Sound Pessure Level [dB]  / [2.83V 1m] "	"Frequency [Hz]"	"Sound Pessure Level [dB]  / [2.83V 1m] "	"Frequency [Hz]"	"Sound Pessure Level [dB]  / [2.83V 1m] "	"Frequency [Hz]"	"Sound Pessure Level [dB]  / [2.83V 1m] "	"Frequency [Hz]"	"Sound Pessure Level [dB]  / [2.83V 1m] "	"Frequency [Hz]"	"Sound Pessure Level [dB]  / [2.83V 1m] "	"Frequency [Hz]"	"Sound Pessure Level [dB]  / [2.83V 1m] "	"Frequency [Hz]"	"Sound Pessure Level [dB]  / [2.83V 1m] "	"Frequency [Hz]"	"Sound Pessure Level [dB]  / [2.83V 1m] "	"Frequency [Hz]"	"Sound Pessure Level [dB]  / [2.83V 1m] "	"Frequency [Hz]"	"Sound Pessure Level [dB]  / [2.83V 1m] "	"Frequency [Hz]"	"Sound Pessure Level [dB]  / [2.83V 1m] "	"Frequency [Hz]"	"Sound Pessure Level [dB]  / [2.83V 1m] "	"Frequency [Hz]"	"Sound Pessure Level [dB]  / [2.83V 1m] "	"Frequency [Hz]"	"Sound Pessure Level [dB]  / [2.83V 1m] "	"Frequency [Hz]"	"Sound Pessure Level [dB]  / [2.83V 1m] "	"Frequency [Hz]"	"Sound Pessure Level [dB]  / [2.83V 1m] "	"Frequency [Hz]"	"Sound Pessure Level [dB]  / [2.83V 1m] "	"Frequency [Hz]"	"Sound Pessure Level [dB]  / [2.83V 1m] "	"Frequency [Hz]"	"Sound Pessure Level [dB]  / [2.83V 1m] "	"Frequency [Hz]"	"Sound Pessure Level [dB]  / [2.83V 1m] "	"Frequency [Hz]"	"Sound Pessure Level [dB]  / [2.83V 1m] "	"Frequency [Hz]"	"Sound Pessure Level [dB]  / [2.83V 1m] "	"Frequency [Hz]"	"Sound Pessure Level [dB]  / [2.83V 1m] "	"Frequency [Hz]"	"Sound Pessure Level [dB]  / [2.83V 1m] "	"Frequency [Hz]"	"Sound Pessure Level [dB]  / [2.83V 1m] "
20.5078	55.9023	20.5078	55.8634	20.5078	55.6793	20.5078	55.5613	20.5078	55.1756	20.5078	54.9756	20.5078	54.3467	20.5078	54.0629	20.5078	53.1091	20.5078	52.7524	20.5078	51.3093	20.5078	50.9494	20.5078	48.6601	20.5078	48.6339	20.5078	44.7244	20.5078	46.5079	20.5078	41.4036	20.5078	46.9311	20.5078	45.3535	20.5078	49.7372	20.5078	49.8531	20.5078	52.6149	20.5078	53.0556	20.5078	54.9512	20.5078	55.3929	20.5078	56.7742	20.5078	57.1452	20.5078	58.1734	20.5078	58.4615	20.5078	59.2153	20.5078	59.4237	20.5078	59.9432	20.5078	60.0777	20.5078	60.3832	20.5078	60.4491	20.5078	60.55
21.9727	58.5006	21.9727	58.3953	21.9727	58.4015	21.9727	58.0811	21.9727	58.0935	21.9727	57.5444	21.9727	57.5626	21.9727	56.7636	21.9727	56.7853	21.9727	55.7135	21.9727	55.7302	21.9727	54.3866	21.9727	54.373	21.9727	52.8695	21.9727	52.7587	21.9727	51.5543	21.9727	51.2124	21.9727	51.2821	21.9727	50.635	21.9727	52.4458	21.9727	51.7024	21.9727	54.3078	21.9727	53.6691	21.9727	56.1517	21.9727	55.6514	21.9727	57.7205	21.9727	57.338	21.9727	58.9684	21.9727	58.6819	21.9727	59.9059	21.9727	59.7007	21.9727	60.5519	21.9727	60.4191	21.9727	60.9209	21.9727	60.8556	21.9727	61.0215
23.4375	58.4382	23.4375	58.3477	23.4375	58.2887	23.4375	58.0122	23.4375	57.8889	23.4375	57.4109	23.4375	57.2104	23.4375	56.5051	23.4375	56.2011	23.4375	55.2378	23.4375	54.7749	23.4375	53.5488	23.4375	52.8041	23.4375	51.4907	23.4375	50.1922	23.4375	49.7501	23.4375	47.6159	23.4375	50.0718	23.4375	48.1092	23.4375	52.3915	23.4375	51.3251	23.4375	54.9657	23.4375	54.3882	23.4375	57.14	23.4375	56.7871	23.4375	58.8636	23.4375	58.627	23.4375	60.1911	23.4375	60.0254	23.4375	61.1745	23.4375	61.0596	23.4375	61.8502	23.4375	61.7768	23.4375	62.2406	23.4375	62.2047	23.4375	62.3576
24.9023	58.443	24.9023	58.3571	24.9023	58.2762	24.9023	58.0161	24.9023	57.8441	24.9023	57.4052	24.9023	57.1177	24.9023	56.5005	24.9023	56.0484	24.9023	55.2865	24.9023	54.5729	24.9023	53.8247	24.9023	52.6695	24.9023	52.4711	24.9023	50.6712	24.9023	52.1317	24.9023	50.0429	24.9023	53.3894	24.9023	51.8799	24.9023	55.4748	24.9023	54.5856	24.9023	57.559	24.9023	57.0245	24.9023	59.3561	24.9023	59.012	24.9023	60.8243	24.9023	60.59	24.9023	61.9817	24.9023	61.8182	24.9023	62.8532	24.9023	62.7408	24.9023	63.4583	24.9023	63.3873	24.9023	63.81	24.9023	63.7755	24.9023	63.9152
26.3672	60.7415	26.3672	60.634	26.3672	60.6546	26.3672	60.3294	26.3672	60.3717	26.3672	59.8211	26.3672	59.8872	26.3672	59.1042	26.3672	59.1959	26.3672	58.1904	26.3672	58.3064	26.3672	57.1477	26.3672	57.2751	26.3672	56.1855	26.3672	56.2831	26.3672	55.7259	26.3672	55.7196	26.3672	56.1685	26.3672	56.0139	26.3672	57.4012	26.3672	57.1446	26.3672	58.9488	26.3672	58.6633	26.3672	60.4549	26.3672	60.1846	26.3672	61.7657	26.3672	61.53	26.3672	62.8341	26.3672	62.6408	26.3672	63.6521	26.3672	63.5051	26.3672	64.2237	26.3672	64.1247	26.3672	64.554	26.3672	64.5043	26.3672	64.647
27.832	61.0815	27.832	60.9822	27.832	60.9718	27.832	60.6733	27.832	60.6469	27.832	60.1498	27.832	60.094	27.832	59.4096	27.832	59.2965	27.832	58.4724	27.832	58.2465	27.832	57.4301	27.832	56.9893	27.832	56.5475	27.832	55.7488	27.832	56.3029	27.832	55.1112	27.832	57.0263	27.832	55.713	27.832	58.457	27.832	57.3259	27.832	60.095	27.832	59.2211	27.832	61.6325	27.832	60.977	27.832	62.9519	27.832	62.4644	27.832	64.0214	27.832	63.6645	27.832	64.8382	27.832	64.5874	27.832	65.4066	27.832	65.2466	27.832	65.7309	27.832	65.6529	27.832	65.8131
29.2969	62.0828	29.2969	62.0341	29.2969	61.9596	29.2969	61.8166	29.2969	61.663	29.2969	61.4377	29.2969	61.1955	29.2969	60.9169	29.2969	60.5723	29.2969	60.3031	29.2969	59.842	29.2969	59.7036	29.2969	59.1252	29.2969	59.3107	29.2969	58.6545	29.2969	59.3585	29.2969	58.7192	29.2969	59.9615	29.2969	59.437	29.2969	60.999	29.2969	60.6214	29.2969	62.2298	29.2969	61.9743	29.2969	63.4544	29.2969	63.2833	29.2969	64.5585	29.2969	64.4426	29.2969	65.4879	29.2969	65.4085	29.2969	66.2191	29.2969	66.1654	29.2969	66.7424	29.2969	66.7089	29.2969	67.0542	29.2969	67.038	29.2969	67.1529
30.7617	63.1137	30.7617	63.0293	30.7617	63.0348	30.7617	62.7833	30.7617	62.792	30.7617	62.3813	30.7617	62.3873	30.7617	61.8398	30.7617	61.8313	30.7617	61.2026	30.7617	61.1581	30.7617	60.5687	30.7617	60.453	30.7617	60.1198	30.7617	59.8904	30.7617	60.0883	30.7617	59.7255	30.7617	60.6062	30.7617	60.1482	30.7617	61.5756	30.7617	61.0972	30.7617	62.7607	30.7617	62.32	30.7617	63.9551	30.7617	63.5779	30.7617	65.0371	30.7617	64.7291	30.7617	65.9475	30.7617	65.7069	30.7617	66.6605	30.7617	66.4837	30.7617	67.1655	30.7617	67.0494	30.7617	67.4582	30.7617	67.4007	30.7617	67.5369
32.2266	63.892	32.2266	63.838	32.2266	63.8052	32.2266	63.6477	32.2266	63.578	32.2266	63.3334	32.2266	63.2175	32.2266	62.9215	32.2266	62.7446	32.2266	62.4658	32.2266	62.2073	32.2266	62.0626	32.2266	61.7019	32.2266	61.8541	32.2266	61.3853	32.2266	61.9859	32.2266	61.4376	32.2266	62.5162	32.2266	61.9496	32.2266	63.367	32.2266	62.842	32.2266	64.3818	32.2266	63.931	32.2266	65.4145	32.2266	65.0451	32.2266	66.3661	32.2266	66.0734	32.2266	67.1798	32.2266	66.956	32.2266	67.8253	32.2266	67.6634	32.2266	68.2869	32.2266	68.1817	32.2266	68.5564	32.2266	68.5046	32.2266	68.6296
33.6914	64.9506	33.6914	64.9042	33.6914	64.8737	33.6914	64.7386	33.6914	64.6755	33.6914	64.4656	33.6914	64.3656	33.6914	64.1106	33.6914	63.9667	33.6914	63.7213	33.6914	63.5247	33.6914	63.3791	33.6914	63.122	33.6914	63.1987	33.6914	62.881	33.6914	63.2972	33.6914	62.9348	33.6914	63.7306	33.6914	63.3544	33.6914	64.4518	33.6914	64.094	33.6914	65.3412	33.6914	65.023	33.6914	66.2717	33.6914	66.0018	33.6914	67.1475	33.6914	66.927	33.6914	67.908	33.6914	67.735	33.6914	68.5181	33.6914	68.3904	33.6914	68.958	33.6914	68.8739	33.6914	69.2172	33.6914	69.1754	33.6914	69.2903
35.1563	65.8107	35.1563	65.7625	35.1563	65.7489	35.1563	65.6083	35.1563	65.5799	35.1563	65.3598	35.1563	65.3144	35.1563	65.0421	35.1563	64.9755	35.1563	64.7003	35.1563	64.6067	35.1563	64.4076	35.1563	64.2802	35.1563	64.263	35.1563	64.0971	35.1563	64.3651	35.1563	64.1629	35.1563	64.7622	35.1563	64.5357	35.1563	65.4186	35.1563	65.1859	35.1563	66.2356	35.1563	66.0134	35.1563	67.1013	35.1563	66.9012	35.1563	67.926	35.1563	67.7546	35.1563	68.649	35.1563	68.5098	35.1563	69.2334	35.1563	69.1281	35.1563	69.6574	35.1563	69.5869	35.1563	69.9089	35.1563	69.8735	35.1563	69.9815
36.6211	66.6157	36.6211	66.5644	36.6211	66.5659	36.6211	66.4153	36.6211	66.4178	36.6211	66.18	36.6211	66.1822	36.6211	65.882	36.6211	65.8812	36.6211	65.5631	36.6211	65.5542	36.6211	65.2897	36.6211	65.2649	36.6211	65.15	36.6211	65.1	36.6211	65.2326	36.6211	65.1501	36.6211	65.5844	36.6211	65.4693	36.6211	66.1803	36.6211	66.0414	36.6211	66.9358	36.6211	66.7869	36.6211	67.749	36.6211	67.6033	36.6211	68.5332	36.6211	68.401	36.6211	69.2272	36.6211	69.1156	36.6211	69.7921	36.6211	69.7054	36.6211	70.2043	36.6211	70.1452	36.6211	70.4501	36.6211	70.4203	36.6211	70.5228
38.0859	67.2353	38.0859	67.1901	38.0859	67.1913	38.0859	67.0599	38.0859	67.0609	38.0859	66.8574	38.0859	66.8554	38.0859	66.6075	38.0859	66.5971	38.0859	66.3519	38.0859	66.3247	38.0859	66.1522	38.0859	66.0968	38.0859	66.0851	38.0859	65.9895	38.0859	66.2208	38.0859	66.0781	38.0859	66.5912	38.0859	66.4048	38.0859	67.1696	38.0859	66.9538	38.0859	67.8831	38.0859	67.6572	38.0859	68.6446	38.0859	68.4269	38.0859	69.3783	38.0859	69.1825	38.0859	70.0284	38.0859	69.864	38.0859	70.5578	38.0859	70.4306	38.0859	70.9431	38.0859	70.8567	38.0859	71.1702	38.0859	71.1266	38.0859	71.2321
39.5508	68.2135	39.5508	68.1706	39.5508	68.1805	39.5508	68.0562	39.5508	68.0748	39.5508	67.8828	39.5508	67.9072	39.5508	67.6742	39.5508	67.6993	39.5508	67.4679	39.5508	67.4859	39.5508	67.3172	39.5508	67.3173	39.5508	67.2848	39.5508	67.2555	39.5508	67.4267	39.5508	67.3592	39.5508	67.7679	39.5508	67.661	39.5508	68.2881	39.5508	68.1497	39.5508	68.9293	39.5508	68.773	39.5508	69.6188	39.5508	69.4598	39.5508	70.2896	39.5508	70.1408	39.5508	70.8896	39.5508	70.7608	39.5508	71.3821	39.5508	71.2803	39.5508	71.7429	39.5508	71.6728	39.5508	71.9574	39.5508	71.9217	39.5508	72.0177
41.0156	68.8525	41.0156	68.8134	41.0156	68.825	41.0156	68.7121	41.0156	68.7334	41.0156	68.5612	41.0156	68.5875	41.0156	68.3828	41.0156	68.4067	41.0156	68.2114	41.0156	68.2219	41.0156	68.0938	41.0156	68.0769	41.0156	68.0835	41.0156	68.0249	41.0156	68.2271	41.0156	68.1173	41.0156	68.5456	41.0156	68.3846	41.0156	69.0227	41.0156	68.8218	41.0156	69.6102	41.0156	69.3878	41.0156	70.2452	41.0156	70.0213	41.0156	70.867	41.0156	70.6589	41.0156	71.4261	41.0156	71.247	41.0156	71.8864	41.0156	71.7454	41.0156	72.2231	41.0156	72.1262	41.0156	72.4207	41.0156	72.3714	41.0156	72.4709
42.4805	69.6102	42.4805	69.5805	42.4805	69.5817	42.4805	69.4968	42.4805	69.4974	42.4805	69.3709	42.4805	69.367	42.4805	69.2232	42.4805	69.2087	42.4805	69.0849	42.4805	69.0512	42.4805	68.9969	42.4805	68.9337	42.4805	69.0053	42.4805	68.9031	42.4805	69.1495	42.4805	69.0034	42.4805	69.4478	42.4805	69.2607	42.4805	69.8878	42.4805	69.671	42.4805	70.4293	42.4805	70.1994	42.4805	71.0177	42.4805	70.792	42.4805	71.5978	42.4805	71.3913	42.4805	72.1231	42.4805	71.9471	42.4805	72.558	42.4805	72.4203	42.4805	72.8775	42.4805	72.7833	42.4805	73.0654	42.4805	73.0176	42.4805	73.113
43.9453	70.4705	43.9453	70.4543	43.9453	70.4403	43.9453	70.3957	43.9453	70.366	43.9453	70.3054	43.9453	70.2571	43.9453	70.2022	43.9453	70.1309	43.9453	70.113	43.9453	70.0134	43.9453	70.072	43.9453	69.9394	43.9453	70.116	43.9453	69.948	43.9453	70.2759	43.9453	70.0743	43.9453	70.5653	43.9453	70.338	43.9453	70.9742	43.9453	70.7334	43.9453	71.4703	43.9453	71.2304	43.9453	72.0085	43.9453	71.7829	43.9453	72.5415	43.9453	72.341	43.9453	73.0269	43.9453	72.8594	43.9453	73.4314	43.9453	73.302	43.9453	73.7301	43.9453	73.6422	43.9453	73.9066	43.9453	73.8622	43.9453	73.9515
45.4102	71.5581	45.4102	71.5453	45.4102	71.529	45.4102	71.4937	45.4102	71.4604	45.4102	71.4124	45.4102	71.3604	45.4102	71.3168	45.4102	71.2442	45.4102	71.2295	45.4102	71.134	45.4102	71.1791	45.4102	71.0592	45.4102	71.1976	45.4102	71.0532	45.4102	71.313	45.4102	71.1469	45.4102	71.5414	45.4102	71.3596	45.4102	71.8792	45.4102	71.6905	45.4102	72.3032	45.4102	72.1173	45.4102	72.7756	45.4102	72.6019	45.4102	73.2537	45.4102	73.0997	45.4102	73.6969	45.4102	73.5682	45.4102	74.0712	45.4102	73.9719	45.4102	74.3511	45.4102	74.2836	45.4102	74.5188	45.4102	74.4847	45.4102	74.5644
46.875	71.9929	46.875	71.9766	46.875	71.9687	46.875	71.9227	46.875	71.9066	46.875	71.8399	46.875	71.8149	46.875	71.7431	46.875	71.7083	46.875	71.6544	46.875	71.6084	46.875	71.6019	46.875	71.5432	46.875	71.6171	46.875	71.5444	46.875	71.7281	46.875	71.6411	46.875	71.9511	46.875	71.8511	46.875	72.2835	46.875	72.1739	46.875	72.7025	46.875	72.5886	46.875	73.1711	46.875	73.0589	46.875	73.6466	46.875	73.5424	46.875	74.0885	46.875	73.9979	46.875	74.4627	46.875	74.3906	46.875	74.7435	46.875	74.6935	46.875	74.9135	46.875	74.8878	46.875	74.9625
48.3398	72.3072	48.3398	72.2957	48.3398	72.2939	48.3398	72.2624	48.3398	72.2581	48.3398	72.2162	48.3398	72.2081	48.3398	72.1719	48.3398	72.1578	48.3398	72.1499	48.3398	72.1269	48.3398	72.1745	48.3398	72.1394	48.3398	72.2704	48.3398	72.2201	48.3398	72.4566	48.3398	72.3895	48.3398	72.7405	48.3398	72.6568	48.3398	73.1136	48.3398	73.0163	48.3398	73.5524	48.3398	73.4469	48.3398	74.0238	48.3398	73.9167	48.3398	74.491	48.3398	74.3893	48.3398	74.9193	48.3398	74.8296	48.3398	75.2794	48.3398	75.2071	48.3398	75.5484	48.3398	75.4979	48.3398	75.7106	48.3398	75.6846	48.3398	75.7568
51.2695	74.075	51.2695	74.0695	51.2695	74.0659	51.2695	74.0513	51.2695	74.0439	51.2695	74.0262	51.2695	74.0149	51.2695	74.0038	51.2695	73.9882	51.2695	73.9975	51.2695	73.977	51.2695	74.023	51.2695	73.9968	51.2695	74.0969	51.2695	74.0639	51.2695	74.2328	51.2695	74.1922	51.2695	74.4382	51.2695	74.3896	51.2695	74.7108	51.2695	74.6549	51.2695	75.038	51.2695	74.9765	51.2695	75.398	51.2695	75.334	51.2695	75.7638	51.2695	75.7012	51.2695	76.1068	51.2695	76.0501	51.2695	76.4009	51.2695	76.3542	51.2695	76.6244	51.2695	76.591	51.2695	76.7611	51.2695	76.7438	51.2695	76.8019
52.7344	74.7737	52.7344	74.77	52.7344	74.7658	52.7344	74.7565	52.7344	74.7479	52.7344	74.7386	52.7344	74.7248	52.7344	74.7247	52.7344	74.7046	52.7344	74.7265	52.7344	74.6985	52.7344	74.7575	52.7344	74.72	52.7344	74.832	52.7344	74.7835	52.7344	74.9617	52.7344	74.9014	52.7344	75.1533	52.7344	75.0813	52.7344	75.405	52.7344	75.3231	52.7344	75.7061	52.7344	75.6178	52.7344	76.0376	52.7344	75.9475	52.7344	76.3751	52.7344	76.2887	52.7344	76.6926	52.7344	76.6154	52.7344	76.9652	52.7344	76.9024	52.7344	77.172	52.7344	77.1277	52.7344	77.2976	52.7344	77.2747	52.7344	77.3328
54.1992	75.4978	54.1992	75.5023	54.1992	75.4854	54.1992	75.5003	54.1992	75.4667	54.1992	75.496	54.1992	75.4457	54.1992	75.4962	54.1992	75.4296	54.1992	75.5104	54.1992	75.4279	54.1992	75.5496	54.1992	75.4521	54.1992	75.6251	54.1992	75.514	54.1992	75.7467	54.1992	75.6242	54.1992	75.9202	54.1992	75.7891	54.1992	76.1446	54.1992	76.0089	54.1992	76.4117	54.1992	76.276	54.1992	76.7059	54.1992	76.5756	54.1992	77.0064	54.1992	76.8869	54.1992	77.29	54.1992	77.1868	54.1992	77.5341	54.1992	77.452	54.1992	77.7191	54.1992	77.662	54.1992	77.8301	54.1992	77.8009	54.1992	77.8582
55.6641	76.1328	55.6641	76.1359	55.6641	76.1223	55.6641	76.1326	55.6641	76.106	55.6641	76.1265	55.6641	76.0881	55.6641	76.1234	55.6641	76.075	55.6641	76.1319	55.6641	76.0756	55.6641	76.1621	55.6641	76.1003	55.6641	76.2249	55.6641	76.16	55.6641	76.3302	55.6641	76.2642	55.6641	76.4843	55.6641	76.4189	55.6641	76.6878	55.6641	76.6243	55.6641	76.9341	55.6641	76.8735	55.6641	77.2095	55.6641	77.1529	55.6641	77.4946	55.6641	77.4434	55.6641	77.7671	55.6641	77.7229	55.6641	78.0047	55.6641	77.9694	55.6641	78.1877	55.6641	78.163	55.6641	78.3012	55.6641	78.2885	55.6641	78.3357
58.5938	77.3613	58.5938	77.3593	58.5938	77.3641	58.5938	77.3592	58.5938	77.3684	58.5938	77.3641	58.5938	77.3768	58.5938	77.3788	58.5938	77.3935	58.5938	77.4094	58.5938	77.4245	58.5938	77.4632	58.5938	77.4764	58.5938	77.5473	58.5938	77.5564	58.5938	77.6679	58.5938	77.6706	58.5938	77.8281	58.5938	77.8227	58.5938	78.0267	58.5938	78.0125	58.5938	78.2574	58.5938	78.2349	58.5938	78.5085	58.5938	78.4795	58.5938	78.7643	58.5938	78.7316	58.5938	79.0065	58.5938	78.9739	58.5938	79.2166	58.5938	79.1878	58.5938	79.378	58.5938	79.3566	58.5938	79.4777	58.5938	79.4663	58.5938	79.5079
60.0586	77.9052	60.0586	77.9072	60.0586	77.9061	60.0586	77.913	60.0586	77.9105	60.0586	77.9247	60.0586	77.9206	60.0586	77.9462	60.0586	77.94	60.0586	77.9822	60.0586	77.9734	60.0586	78.0387	60.0586	78.0266	60.0586	78.1212	60.0586	78.1052	60.0586	78.2347	60.0586	78.2143	60.0586	78.382	60.0586	78.3569	60.0586	78.5624	60.0586	78.5328	60.0586	78.7708	60.0586	78.7375	60.0586	78.9976	60.0586	78.962	60.0586	79.2291	60.0586	79.1934	60.0586	79.449	60.0586	79.4158	60.0586	79.6406	60.0586	79.6126	60.0586	79.7884	60.0586	79.7681	60.0586	79.8799	60.0586	79.8693	60.0586	79.9077
62.9883	79.0335	62.9883	79.0382	62.9883	79.0358	62.9883	79.0503	62.9883	79.0457	62.9883	79.0711	62.9883	79.0645	62.9883	79.1027	62.9883	79.0944	62.9883	79.148	62.9883	79.1383	62.9883	79.2103	62.9883	79.1996	62.9883	79.2934	62.9883	79.2817	62.9883	79.4001	62.9883	79.3876	62.9883	79.5322	62.9883	79.5187	62.9883	79.6892	62.9883	79.6745	62.9883	79.8675	62.9883	79.8515	62.9883	80.0599	62.9883	80.0429	62.9883	80.256	62.9883	80.2387	62.9883	80.4429	62.9883	80.4264	62.9883	80.6065	62.9883	80.5922	62.9883	80.7335	62.9883	80.723	62.9883	80.8132	62.9883	80.8076	62.9883	80.8387
64.4531	79.6001	64.4531	79.6047	64.4531	79.6045	64.4531	79.6185	64.4531	79.6183	64.4531	79.6424	64.4531	79.6424	64.4531	79.6778	64.4531	79.6783	64.4531	79.7268	64.4531	79.7281	64.4531	79.7916	64.4531	79.7939	64.4531	79.8751	64.4531	79.8783	64.4531	79.9792	64.4531	79.983	64.4531	80.1052	64.4531	80.1091	64.4531	80.2525	64.4531	80.2558	64.4531	80.4181	64.4531	80.42	64.4531	80.5958	64.4531	80.5958	64.4531	80.7764	64.4531	80.7746	64.4531	80.9486	64.4531	80.9454	64.4531	81.0997	64.4531	81.096	64.4531	81.2176	64.4531	81.2143	64.4531	81.2923	64.4531	81.2904	64.4531	81.3173
67.3828	80.7746	67.3828	80.7789	67.3828	80.7816	67.3828	80.7946	67.3828	80.8001	67.3828	80.8218	67.3828	80.8302	67.3828	80.861	67.3828	80.8723	67.3828	80.9129	67.3828	80.9269	67.3828	80.9782	67.3828	80.9948	67.3828	81.0579	67.3828	81.0767	67.3828	81.1528	67.3828	81.1732	67.3828	81.2635	67.3828	81.2845	67.3828	81.3893	67.3828	81.4098	67.3828	81.5279	67.3828	81.5468	67.3828	81.675	67.3828	81.6913	67.3828	81.8239	67.3828	81.837	67.3828	81.966	67.3828	81.9756	67.3828	82.0911	67.3828	82.0976	67.3828	82.1895	67.3828	82.1933	67.3828	82.2525	67.3828	82.2543	67.3828	82.2747
68.8477	81.329	68.8477	81.3322	68.8477	81.3382	68.8477	81.348	68.8477	81.3599	68.8477	81.3762	68.8477	81.394	68.8477	81.4167	68.8477	81.4402	68.8477	81.4695	68.8477	81.4986	68.8477	81.5348	68.8477	81.5689	68.8477	81.613	68.8477	81.6511	68.8477	81.7042	68.8477	81.7454	68.8477	81.8084	68.8477	81.8512	68.8477	81.9251	68.8477	81.9677	68.8477	82.0523	68.8477	82.093	68.8477	82.1864	68.8477	82.2234	68.8477	82.3218	68.8477	82.3536	68.8477	82.4509	68.8477	82.4768	68.8477	82.565	68.8477	82.5844	68.8477	82.6554	68.8477	82.6682	68.8477	82.7143	68.8477	82.7207	68.8477	82.7367
71.7773	82.3884	71.7773	82.3905	71.7773	82.4	71.7773	82.4063	71.7773	82.4252	71.7773	82.4351	71.7773	82.4632	71.7773	82.4762	71.7773	82.5131	71.7773	82.5286	71.7773	82.5737	71.7773	82.5913	71.7773	82.6438	71.7773	82.6634	71.7773	82.7222	71.7773	82.7442	71.7773	82.8078	71.7773	82.8331	71.7773	82.8997	71.7773	82.9293	71.7773	82.9967	71.7773	83.0316	71.7773	83.0974	71.7773	83.1377	71.7773	83.1994	71.7773	83.2441	71.7773	83.2992	71.7773	83.3456	71.7773	83.392	71.7773	83.4361	71.7773	83.4721	71.7773	83.5088	71.7773	83.5333	71.7773	83.5577	71.7773	83.5701	71.7773	83.5787
74.707	83.3453	74.707	83.3469	74.707	83.3584	74.707	83.3628	74.707	83.3856	74.707	83.3923	74.707	83.4259	74.707	83.4339	74.707	83.4775	74.707	83.486	74.707	83.5386	74.707	83.5467	74.707	83.607	74.707	83.6144	74.707	83.6808	74.707	83.6875	74.707	83.7581	74.707	83.765	74.707	83.8374	74.707	83.8459	74.707	83.9178	74.707	83.9292	74.707	83.998	74.707	84.0135	74.707	84.0766	74.707	84.0965	74.707	84.1518	74.707	84.175	74.707	84.2207	74.707	84.2446	74.707	84.2795	74.707	84.3007	74.707	84.3241	74.707	84.3387	74.707	84.3505	74.707	84.3557
77.6367	84.3193	77.6367	84.3246	77.6367	84.3298	77.6367	84.3455	77.6367	84.3558	77.6367	84.3807	77.6367	84.3957	77.6367	84.4281	77.6367	84.4473	77.6367	84.4851	77.6367	84.508	77.6367	84.549	77.6367	84.5748	77.6367	84.617	77.6367	84.6449	77.6367	84.6866	77.6367	84.7157	77.6367	84.7559	77.6367	84.7852	77.6367	84.8237	77.6367	84.852	77.6367	84.8889	77.6367	84.9154	77.6367	84.9511	77.6367	84.9746	77.6367	85.0093	77.6367	85.0292	77.6367	85.0622	77.6367	85.078	77.6367	85.1078	77.6367	85.1193	77.6367	85.1435	77.6367	85.1509	77.6367	85.1669	77.6367	85.1705	77.6367	85.176
79.1016	84.7347	79.1016	84.7425	79.1016	84.7433	79.1016	84.766	79.1016	84.7676	79.1016	84.8039	79.1016	84.8062	79.1016	84.8538	79.1016	84.8567	79.1016	84.9127	79.1016	84.9162	79.1016	84.9775	79.1016	84.9814	79.1016	85.045	79.1016	85.0491	79.1016	85.1125	79.1016	85.1167	79.1016	85.1777	79.1016	85.1817	79.1016	85.2393	79.1016	85.2429	79.1016	85.2964	79.1016	85.2994	79.1016	85.3488	79.1016	85.3509	79.1016	85.3961	79.1016	85.3972	79.1016	85.4379	79.1016	85.438	79.1016	85.473	79.1016	85.4725	79.1016	85.4998	79.1016	85.499	79.1016	85.5166	79.1016	85.5161	79.1016	85.5221
82.0313	85.4585	82.0313	85.4701	82.0313	85.464	82.0313	85.4982	82.0313	85.4861	82.0313	85.5409	82.0313	85.5232	82.0313	85.5953	82.0313	85.5726	82.0313	85.6581	82.0313	85.631	82.0313	85.7252	82.0313	85.6945	82.0313	85.7929	82.0313	85.7595	82.0313	85.8577	82.0313	85.8226	82.0313	85.9169	82.0313	85.8812	82.0313	85.9688	82.0313	85.9335	82.0313	86.0127	82.0313	85.9788	82.0313	86.0488	82.0313	86.0173	82.0313	86.0777	82.0313	86.0495	82.0313	86.1003	82.0313	86.0762	82.0313	86.1171	82.0313	86.0981	82.0313	86.1284	82.0313	86.1152	82.0313	86.134	82.0313	86.1272	82.0313	86.1336
84.9609	86.0979	84.9609	86.1082	84.9609	86.1054	84.9609	86.1358	84.9609	86.1303	84.9609	86.1785	84.9609	86.1705	84.9609	86.2333	84.9609	86.2231	84.9609	86.2962	84.9609	86.2843	84.9609	86.3628	84.9609	86.3498	84.9609	86.4289	84.9609	86.4153	84.9609	86.4904	84.9609	86.4769	84.9609	86.5442	84.9609	86.5315	84.9609	86.5884	84.9609	86.577	84.9609	86.6222	84.9609	86.6126	84.9609	86.6463	84.9609	86.6385	84.9609	86.6619	84.9609	86.656	84.9609	86.6713	84.9609	86.667	84.9609	86.6764	84.9609	86.6735	84.9609	86.6788	84.9609	86.677	84.9609	86.6797	84.9609	86.6789	84.9609	86.6797
87.8906	86.6235	87.8906	86.634	87.8906	86.6309	87.8906	86.6618	87.8906	86.6557	87.8906	86.7046	87.8906	86.6957	87.8906	86.759	87.8906	86.7478	87.8906	86.8208	87.8906	86.8077	87.8906	86.8852	87.8906	86.8709	87.8906	86.9474	87.8906	86.9326	87.8906	87.0031	87.8906	86.9883	87.8906	87.0487	87.8906	87.0347	87.8906	87.0821	87.8906	87.0694	87.8906	87.1025	87.8906	87.0916	87.8906	87.1109	87.8906	87.102	87.8906	87.1095	87.8906	87.1026	87.8906	87.1015	87.8906	87.0965	87.8906	87.0905	87.8906	87.0871	87.8906	87.0798	87.8906	87.0778	87.8906	87.0722	87.8906	87.0712	87.8906	87.0691
90.8203	87.0134	90.8203	87.0259	90.8203	87.0181	90.8203	87.0547	90.8203	87.0393	90.8203	87.0974	90.8203	87.075	90.8203	87.1506	90.8203	87.1218	90.8203	87.2098	90.8203	87.1757	90.8203	87.2699	90.8203	87.2317	90.8203	87.3258	90.8203	87.2849	90.8203	87.3729	90.8203	87.3309	90.8203	87.4075	90.8203	87.366	90.8203	87.4273	90.8203	87.3878	90.8203	87.4316	90.8203	87.3956	90.8203	87.4219	90.8203	87.3904	90.8203	87.4013	90.8203	87.375	90.8203	87.3741	90.8203	87.3533	90.8203	87.3453	90.8203	87.3301	90.8203	87.32	90.8203	87.3102	90.8203	87.3022	90.8203	87.2973	90.8203	87.2943
95.2148	87.35	95.2148	87.3637	95.2148	87.3536	95.2148	87.3938	95.2148	87.3738	95.2148	87.4377	95.2148	87.4087	95.2148	87.4918	95.2148	87.4547	95.2148	87.5511	95.2148	87.5074	95.2148	87.6105	95.2148	87.5617	95.2148	87.6641	95.2148	87.6122	95.2148	87.7071	95.2148	87.6541	95.2148	87.7353	95.2148	87.6831	95.2148	87.7459	95.2148	87.6965	95.2148	87.7386	95.2148	87.6937	95.2148	87.7148	95.2148	87.6756	95.2148	87.6783	95.2148	87.6457	95.2148	87.6347	95.2148	87.6089	95.2148	87.5904	95.2148	87.5715	95.2148	87.5521	95.2148	87.5398	95.2148	87.5255	95.2148	87.5194	95.2148	87.5142
98.1445	87.4331	98.1445	87.446	98.1445	87.4367	98.1445	87.4746	98.1445	87.4563	98.1445	87.5164	98.1445	87.4899	98.1445	87.5677	98.1445	87.5339	98.1445	87.6236	98.1445	87.5839	98.1445	87.6789	98.1445	87.6348	98.1445	87.7278	98.1445	87.6811	98.1445	87.7651	98.1445	87.7178	98.1445	87.7866	98.1445	87.7406	98.1445	87.7895	98.1445	87.7466	98.1445	87.7734	98.1445	87.7349	98.1445	87.7399	98.1445	87.707	98.1445	87.6931	98.1445	87.6664	98.1445	87.6392	98.1445	87.6187	98.1445	87.5856	98.1445	87.571	98.1445	87.5399	98.1445	87.5307	98.1445	87.5087	98.1445	87.5043	98.1445	87.4964
101.074	87.494	101.074	87.5006	101.074	87.5032	101.074	87.5223	101.074	87.5275	101.074	87.5572	101.074	87.5644	101.074	87.6016	101.074	87.6105	101.074	87.6511	101.074	87.6611	101.074	87.7002	101.074	87.711	101.074	87.7432	101.074	87.7546	101.074	87.7749	101.074	87.7866	101.074	87.7905	101.074	87.8027	101.074	87.7872	101.074	87.7999	101.074	87.7641	101.074	87.7773	101.074	87.723	101.074	87.7365	101.074	87.6682	101.074	87.6817	101.074	87.6064	101.074	87.6192	101.074	87.5461	101.074	87.5571	101.074	87.4958	101.074	87.5039	101.074	87.4631	101.074	87.4674	101.074	87.4531
105.469	87.4187	105.469	87.4273	105.469	87.4246	105.469	87.4496	105.469	87.4441	105.469	87.4837	105.469	87.4751	105.469	87.526	105.469	87.5139	105.469	87.5718	105.469	87.5562	105.469	87.6155	105.469	87.5966	105.469	87.6513	105.469	87.6298	105.469	87.6733	105.469	87.6505	105.469	87.6769	105.469	87.6541	105.469	87.6591	105.469	87.6379	105.469	87.6191	105.469	87.601	105.469	87.5591	105.469	87.5453	105.469	87.4845	105.469	87.4752	105.469	87.4031	105.469	87.398	105.469	87.3247	105.469	87.3229	105.469	87.2596	105.469	87.2595	105.469	87.2166	105.469	87.217	105.469	87.2018
108.398	87.363	108.398	87.3666	108.398	87.3738	108.398	87.3839	108.398	87.3981	108.398	87.413	108.398	87.4338	108.398	87.4506	108.398	87.4773	108.398	87.4921	108.398	87.5241	108.398	87.5322	108.398	87.5687	108.398	87.565	108.398	87.6056	108.398	87.5851	108.398	87.6289	108.398	87.5876	108.398	87.6341	108.398	87.5695	108.398	87.618	108.398	87.53	108.398	87.5794	108.398	87.4712	108.398	87.5201	108.398	87.3981	108.398	87.4448	108.398	87.3188	108.398	87.3609	108.398	87.2432	108.398	87.2781	108.398	87.1816	108.398	87.2067	108.398	87.1433	108.398	87.1564	108.398	87.1343
112.793	87.2066	112.793	87.2116	112.793	87.2148	112.793	87.2292	112.793	87.2356	112.793	87.2572	112.793	87.2674	112.793	87.2925	112.793	87.3068	112.793	87.3308	112.793	87.3497	112.793	87.3669	112.793	87.3908	112.793	87.3953	112.793	87.4244	112.793	87.4104	112.793	87.4448	112.793	87.4076	112.793	87.447	112.793	87.3836	112.793	87.4274	112.793	87.3377	112.793	87.3847	112.793	87.2719	112.793	87.3205	112.793	87.1915	112.793	87.2393	112.793	87.1049	112.793	87.1489	112.793	87.0225	112.793	87.0596	112.793	86.9555	112.793	86.9824	112.793	86.9138	112.793	86.928	112.793	86.904
117.188	86.9904	117.188	86.9964	117.188	86.9967	117.188	87.0137	117.188	87.015	117.188	87.0405	117.188	87.0437	117.188	87.0734	117.188	87.08	117.188	87.1084	117.188	87.12	117.188	87.1401	117.188	87.1586	117.188	87.1632	117.188	87.19	117.188	87.1719	117.188	87.2083	117.188	87.1616	117.188	87.2079	117.188	87.1292	117.188	87.1848	117.188	87.0741	117.188	87.1373	117.188	86.9986	117.188	87.0665	117.188	86.9086	117.188	86.9772	117.188	86.8131	117.188	86.8773	117.188	86.7234	117.188	86.7779	117.188	86.6516	117.188	86.6913	117.188	86.6081	117.188	86.6291	117.188	86.6
120.117	86.9289	120.117	86.9345	120.117	86.9325	120.117	86.9489	120.117	86.9452	120.117	86.9706	120.117	86.9655	120.117	86.997	120.117	86.9914	120.117	87.0247	120.117	87.0198	120.117	87.0492	120.117	87.0463	120.117	87.0654	120.117	87.0661	120.117	87.0681	120.117	87.074	120.117	87.0527	120.117	87.0652	120.117	87.0163	120.117	87.0361	120.117	86.958	120.117	86.985	120.117	86.8802	120.117	86.9131	120.117	86.7885	120.117	86.8249	120.117	86.6915	120.117	86.728	120.117	86.6003	120.117	86.6328	120.117	86.5265	120.117	86.5509	120.117	86.4804	120.117	86.4936	120.117	86.4688
124.512	86.7539	124.512	86.7494	124.512	86.7661	124.512	86.7523	124.512	86.7855	124.512	86.7615	124.512	86.8111	124.512	86.7751	124.512	86.8405	124.512	86.79	124.512	86.8706	124.512	86.8022	124.512	86.8972	124.512	86.8073	124.512	86.9155	124.512	86.8002	124.512	86.92	124.512	86.7766	124.512	86.9059	124.512	86.7335	124.512	86.8694	124.512	86.6702	124.512	86.8089	124.512	86.5888	124.512	86.7256	124.512	86.4951	124.512	86.6243	124.512	86.398	124.512	86.513	124.512	86.3088	124.512	86.4029	124.512	86.2393	124.512	86.3062	124.512	86.2002	124.512	86.235	124.512	86.1983
128.906	86.5	128.906	86.5038	128.906	86.5014	128.906	86.5121	128.906	86.5082	128.906	86.5234	128.906	86.5198	128.906	86.5356	128.906	86.5347	128.906	86.5457	128.906	86.5505	128.906	86.55	128.906	86.5633	128.906	86.5443	128.906	86.5686	128.906	86.5241	128.906	86.5613	128.906	86.4854	128.906	86.5365	128.906	86.4259	128.906	86.4903	128.906	86.3453	128.906	86.4211	128.906	86.2465	128.906	86.3299	128.906	86.1358	128.906	86.2215	128.906	86.0228	128.906	86.1043	128.906	85.9195	128.906	85.9894	128.906	85.8385	128.906	85.8899	128.906	85.7909	128.906	85.8182	128.906	85.7836
133.301	86.2456	133.301	86.26	133.301	86.2363	133.301	86.2787	133.301	86.2321	133.301	86.3004	133.301	86.2329	133.301	86.323	133.301	86.2373	133.301	86.3433	133.301	86.2433	133.301	86.3576	133.301	86.2475	133.301	86.361	133.301	86.2458	133.301	86.3487	133.301	86.2333	133.301	86.3161	133.301	86.2054	133.301	86.2602	133.301	86.1586	133.301	86.1804	133.301	86.0912	133.301	86.0792	133.301	86.0047	133.301	85.9627	133.301	85.9039	133.301	85.8406	133.301	85.7971	133.301	85.7252	133.301	85.6954	133.301	85.6294	133.301	85.6114	133.301	85.5651	133.301	85.5567	133.301	85.5401
139.16	85.9924	139.16	86.0031	139.16	85.9831	139.16	86.015	139.16	85.9752	139.16	86.0274	139.16	85.9685	139.16	86.039	139.16	85.9623	139.16	86.0479	139.16	85.955	139.16	86.0508	139.16	85.9442	139.16	86.0435	139.16	85.9262	139.16	86.0215	139.16	85.8972	139.16	85.9804	139.16	85.853	139.16	85.9169	139.16	85.7907	139.16	85.83	139.16	85.7093	139.16	85.7218	139.16	85.6106	139.16	85.5982	139.16	85.5002	139.16	85.4686	139.16	85.3867	139.16	85.3451	139.16	85.2818	139.16	85.241	139.16	85.1979	139.16	85.1684	139.16	85.1466	139.16	85.1359
143.555	85.7909	143.555	85.7925	143.555	85.7879	143.555	85.7929	143.555	85.7833	143.555	85.792	143.555	85.7767	143.555	85.7896	143.555	85.7677	143.555	85.7843	143.555	85.755	143.555	85.7735	143.555	85.7364	143.555	85.7539	143.555	85.709	143.555	85.721	143.555	85.6691	143.555	85.6705	143.555	85.613	143.555	85.5992	143.555	85.5382	143.555	85.506	143.555	85.4441	143.555	85.3929	143.555	85.333	143.555	85.2656	143.555	85.2106	143.555	85.1337	143.555	85.0862	143.555	85.0093	143.555	84.9715	143.555	84.9057	143.555	84.8795	143.555	84.835	143.555	84.8216	143.555	84.8059
147.949	85.6092	147.949	85.6058	147.949	85.6083	147.949	85.5984	147.949	85.6032	147.949	85.5872	147.949	85.594	147.949	85.5722	147.949	85.5809	147.949	85.5527	147.949	85.563	147.949	85.5268	147.949	85.5391	147.949	85.4917	147.949	85.5062	147.949	85.4435	147.949	85.4611	147.949	85.3787	147.949	85.4	147.949	85.2944	147.949	85.3201	147.949	85.1903	147.949	85.2202	147.949	85.0689	147.949	85.1022	147.949	84.9366	147.949	84.9716	147.949	84.8034	147.949	84.8374	147.949	84.6815	147.949	84.7113	147.949	84.5843	147.949	84.6066	147.949	84.5233	147.949	84.5352	147.949	84.5062
153.809	85.3893	153.809	85.3915	153.809	85.3803	153.809	85.3873	153.809	85.3645	153.809	85.377	153.809	85.3423	153.809	85.361	153.809	85.3139	153.809	85.3386	153.809	85.279	153.809	85.3084	153.809	85.2364	153.809	85.2675	153.809	85.1841	153.809	85.2119	153.809	85.1193	153.809	85.1379	153.809	85.0388	153.809	85.0423	153.809	84.9407	153.809	84.9245	153.809	84.8247	153.809	84.787	153.809	84.6934	153.809	84.6363	153.809	84.5531	153.809	84.4829	153.809	84.4134	153.809	84.3401	153.809	84.2866	153.809	84.2222	153.809	84.186	153.809	84.1419	153.809	84.1237	153.809	84.108
159.668	85.2984	159.668	85.2947	159.668	85.2954	159.668	85.285	159.668	85.2856	159.668	85.2702	159.668	85.2695	159.668	85.251	159.668	85.2474	159.668	85.2276	159.668	85.2191	159.668	85.1986	159.668	85.1833	159.668	85.1614	159.668	85.1378	159.668	85.1124	159.668	85.0793	159.668	85.0473	159.668	85.0045	159.668	84.963	159.668	84.9112	159.668	84.858	159.668	84.7993	159.668	84.7345	159.668	84.6717	159.668	84.598	159.668	84.5351	159.668	84.458	159.668	84.3997	159.668	84.3267	159.668	84.2777	159.668	84.2173	159.668	84.182	159.668	84.142	159.668	84.1235	159.668	84.1095
165.527	85.2208	165.527	85.2141	165.527	85.2195	165.527	85.2002	165.527	85.2101	165.527	85.1804	165.527	85.1936	165.527	85.1566	165.527	85.1709	165.527	85.1298	165.527	85.1428	165.527	85.1001	165.527	85.1089	165.527	85.0657	165.527	85.0676	165.527	85.0237	165.527	85.016	165.527	84.97	165.527	84.9508	165.527	84.9012	165.527	84.8692	165.527	84.8151	165.527	84.7706	165.527	84.7125	165.527	84.6575	165.527	84.5977	165.527	84.5359	165.527	84.4783	165.527	84.4155	165.527	84.3646	165.527	84.308	165.527	84.2682	165.527	84.2251	165.527	84.1999	165.527	84.1765	165.527	84.1679
171.387	85.0875	171.387	85.0679	171.387	85.0922	171.387	85.0352	171.387	85.082	171.387	84.9919	171.387	85.0579	171.387	84.9412	171.387	85.0219	171.387	84.8856	171.387	84.9762	171.387	84.8266	171.387	84.9223	171.387	84.764	171.387	84.8607	171.387	84.6961	171.387	84.7906	171.387	84.6204	171.387	84.7107	171.387	84.5349	171.387	84.6193	171.387	84.4392	171.387	84.5162	171.387	84.3352	171.387	84.4032	171.387	84.2276	171.387	84.2852	171.387	84.1233	171.387	84.1694	171.387	84.0309	171.387	84.065	171.387	83.9588	171.387	83.981	171.387	83.9143	171.387	83.9252	171.387	83.9025
177.246	85.0023	177.246	84.9925	177.246	84.9951	177.246	84.9665	177.246	84.9716	177.246	84.9265	177.246	84.9338	177.246	84.8754	177.246	84.8849	177.246	84.8156	177.246	84.8275	177.246	84.7483	177.246	84.7636	177.246	84.673	177.246	84.6935	177.246	84.588	177.246	84.6164	177.246	84.491	177.246	84.5303	177.246	84.3808	177.246	84.4336	177.246	84.2588	177.246	84.3259	177.246	84.1296	177.246	84.209	177.246	84.0009	177.246	84.0876	177.246	83.8823	177.246	83.9684	177.246	83.7836	177.246	83.8595	177.246	83.7128	177.246	83.7694	177.246	83.6752	177.246	83.7054	177.246	83.6729
183.105	84.7058	183.105	84.7016	183.105	84.6855	183.105	84.6745	183.105	84.6414	183.105	84.6281	183.105	84.5765	183.105	84.5677	183.105	84.4952	183.105	84.4983	183.105	84.4026	183.105	84.4237	183.105	84.3032	183.105	84.3453	183.105	84.2003	183.105	84.2616	183.105	84.0956	183.105	84.1693	183.105	83.9898	183.105	84.0648	183.105	83.883	183.105	83.9468	183.105	83.7761	183.105	83.818	183.105	83.6708	183.105	83.6853	183.105	83.5705	183.105	83.5589	183.105	83.4794	183.105	83.45	183.105	83.4022	183.105	83.3674	183.105	83.3432	183.105	83.3159	183.105	83.3066	183.105	83.2963
188.965	84.4148	188.965	84.4105	188.965	84.3909	188.965	84.3801	188.965	84.3396	188.965	84.328	188.965	84.2642	188.965	84.2604	188.965	84.1697	188.965	84.1837	188.965	84.0617	188.965	84.1025	188.965	83.945	188.965	84.0191	188.965	83.8226	188.965	83.9318	188.965	83.6955	188.965	83.8362	188.965	83.5628	188.965	83.7267	188.965	83.4241	188.965	83.5994	188.965	83.2803	188.965	83.454	188.965	83.1358	188.965	83.2958	188.965	82.9981	188.965	83.1351	188.965	82.8768	188.965	82.9848	188.965	82.7811	188.965	82.8579	188.965	82.7186	188.965	82.7641	188.965	82.6937	188.965	82.7087
196.289	84.5453	196.289	84.5148	196.289	84.5407	196.289	84.4511	196.289	84.5023	196.289	84.359	196.289	84.4343	196.289	84.2457	196.289	84.3435	196.289	84.1206	196.289	84.2381	196.289	83.993	196.289	84.1265	196.289	83.8717	196.289	84.016	196.289	83.7627	196.289	83.911	196.289	83.6688	196.289	83.8127	196.289	83.5893	196.289	83.7194	196.289	83.5208	196.289	83.6283	196.289	83.4588	196.289	83.5374	196.289	83.3995	196.289	83.4474	196.289	83.3416	196.289	83.362	196.289	83.2865	196.289	83.2875	196.289	83.2386	196.289	83.2309	196.289	83.204	196.289	83.1973	196.289	83.1888
203.613	84.6138	203.613	84.5523	203.613	84.6324	203.613	84.4508	203.613	84.6086	203.613	84.3155	203.613	84.5458	203.613	84.1559	203.613	84.4498	203.613	83.9839	203.613	84.3283	203.613	83.8128	203.613	84.1899	203.613	83.6547	203.613	84.0431	203.613	83.5191	203.613	83.8957	203.613	83.411	203.613	83.7536	203.613	83.3308	203.613	83.621	203.613	83.2751	203.613	83.5008	203.613	83.2387	203.613	83.3956	203.613	83.2159	203.613	83.308	203.613	83.2015	203.613	83.2406	203.613	83.1912	203.613	83.1946	203.613	83.1818	203.613	83.1693	203.613	83.1722	203.613	83.1609	203.613	83.1638
210.938	84.5235	210.938	84.4885	210.938	84.5192	210.938	84.4142	210.938	84.4776	210.938	84.303	210.938	84.4028	210.938	84.1592	210.938	84.3002	210.938	83.9894	210.938	84.1759	210.938	83.8016	210.938	84.0364	210.938	83.6049	210.938	83.8877	210.938	83.4092	210.938	83.7352	210.938	83.2244	210.938	83.5837	210.938	83.0597	210.938	83.4371	210.938	82.9224	210.938	83.2991	210.938	82.8173	210.938	83.1728	210.938	82.7455	210.938	83.0612	210.938	82.7045	210.938	82.9662	210.938	82.6893	210.938	82.8881	210.938	82.6936	210.938	82.826	210.938	82.7115	210.938	82.7774	210.938	82.7397
218.262	84.4484	218.262	84.4213	218.262	84.4334	218.262	84.3535	218.262	84.378	218.262	84.2491	218.262	84.2868	218.262	84.1141	218.262	84.167	218.262	83.9562	218.262	84.0271	218.262	83.7831	218.262	83.8762	218.262	83.6026	218.262	83.7224	218.262	83.422	218.262	83.5719	218.262	83.248	218.262	83.4286	218.262	83.0874	218.262	83.2948	218.262	82.9466	218.262	83.1714	218.262	82.8315	218.262	83.0592	218.262	82.7457	218.262	82.9598	218.262	82.6899	218.262	82.8746	218.262	82.6609	218.262	82.8049	218.262	82.6534	218.262	82.7505	218.262	82.6613	218.262	82.7098	218.262	82.6805
225.586	84.5016	225.586	84.5032	225.586	84.444	225.586	84.4511	225.586	84.3323	225.586	84.3513	225.586	84.1735	225.586	84.2128	225.586	83.9793	225.586	84.0467	225.586	83.7654	225.586	83.8646	225.586	83.5501	225.586	83.678	225.586	83.3518	225.586	83.4971	225.586	83.1861	225.586	83.3312	225.586	83.0629	225.586	83.1889	225.586	82.9855	225.586	83.0779	225.586	82.9507	225.586	83.0039	225.586	82.9508	225.586	82.969	225.586	82.9755	225.586	82.9696	225.586	83.0131	225.586	82.996	225.586	83.0526	225.586	83.0347	225.586	83.0839	225.586	83.0714	225.586	83.0994	225.586	83.095
232.91	84.7535	232.91	84.7306	232.91	84.7107	232.91	84.6473	232.91	84.6005	232.91	84.5126	232.91	84.4255	232.91	84.3384	232.91	84.1926	232.91	84.1389	232.91	83.9136	232.91	83.9284	232.91	83.6047	232.91	83.7204	232.91	83.2863	232.91	83.5251	232.91	82.9814	232.91	83.349	232.91	82.7131	232.91	83.196	232.91	82.5009	232.91	83.0683	232.91	82.3579	232.91	82.9678	232.91	82.288	232.91	82.895	232.91	82.2856	232.91	82.8473	232.91	82.3373	232.91	82.8168	232.91	82.4241	232.91	82.7909	232.91	82.5253	232.91	82.7556	232.91	82.6218	232.91	82.7004
241.699	84.5742	241.699	84.497	241.699	84.5816	241.699	84.3551	241.699	84.5179	241.699	84.1578	241.699	84.3862	241.699	83.9184	241.699	84.1938	241.699	83.6535	241.699	83.9522	241.699	83.3816	241.699	83.6775	241.699	83.1213	241.699	83.3891	241.699	82.8879	241.699	83.1085	241.699	82.6922	241.699	82.8566	241.699	82.5387	241.699	82.6506	241.699	82.4273	241.699	82.5011	241.699	82.3553	241.699	82.4104	241.699	82.3191	241.699	82.3723	241.699	82.3142	241.699	82.3733	241.699	82.3339	241.699	82.3955	241.699	82.3681	241.699	82.4208	241.699	82.4037	241.699	82.4344	241.699	82.4285
250.488	84.7018	250.488	84.6395	250.488	84.679	250.488	84.4949	250.488	84.5718	250.488	84.275	250.488	84.3842	250.488	83.9925	250.488	84.1244	250.488	83.6662	250.488	83.8061	250.488	83.3217	250.488	83.4503	250.488	82.9892	250.488	83.0862	250.488	82.6997	250.488	82.7499	250.488	82.4781	250.488	82.478	250.488	82.3375	250.488	82.2975	250.488	82.2765	250.488	82.2172	250.488	82.2816	250.488	82.225	250.488	82.3332	250.488	82.2946	250.488	82.4108	250.488	82.3948	250.488	82.4959	250.488	82.4978	250.488	82.5725	250.488	82.5825	250.488	82.6274	250.488	82.6354	250.488	82.6503
259.277	85.384	259.277	85.3031	259.277	85.3792	259.277	85.1368	259.277	85.2898	259.277	84.8885	259.277	85.118	259.277	84.5651	259.277	84.8677	259.277	84.1797	259.277	84.5449	259.277	83.7535	259.277	84.1599	259.277	83.3178	259.277	83.7304	259.277	82.9132	259.277	83.2852	259.277	82.5842	259.277	82.8657	259.277	82.3673	259.277	82.522	259.277	82.2774	259.277	82.2995	259.277	82.302	259.277	82.2197	259.277	82.4072	259.277	82.269	259.277	82.5511	259.277	82.4044	259.277	82.6959	259.277	82.5731	259.277	82.8129	259.277	82.7289	259.277	82.8827	259.277	82.841	259.277	82.8936
268.066	85.1289	268.066	85.0562	268.066	85.1102	268.066	84.8925	268.066	85.0013	268.066	84.6406	268.066	84.8044	268.066	84.3061	268.066	84.5237	268.066	83.9006	268.066	84.1656	268.066	83.4437	268.066	83.7414	268.066	82.9672	268.066	83.2698	268.066	82.5172	268.066	82.7812	268.066	82.1503	268.066	82.3204	268.066	81.9195	268.066	81.9444	268.066	81.853	268.066	81.7089	268.066	81.9382	268.066	81.6461	268.066	82.1271	268.066	81.7473	268.066	82.3575	268.066	81.9644	268.066	82.5731	268.066	82.2314	268.066	82.7328	268.066	82.4861	268.066	82.8111	268.066	82.683	268.066	82.795
276.855	85.2884	276.855	85.2284	276.855	85.2648	276.855	85.0797	276.855	85.163	276.855	84.8385	276.855	84.9886	276.855	84.5033	276.855	84.7473	276.855	84.0764	276.855	84.4444	276.855	83.5673	276.855	84.0856	276.855	82.9967	276.855	83.6783	276.855	82.4024	276.855	83.2348	276.855	81.8426	276.855	82.7753	276.855	81.3916	276.855	82.3315	276.855	81.1185	276.855	81.9465	276.855	81.0548	276.855	81.6664	276.855	81.1729	276.855	81.5243	276.855	81.3998	276.855	81.5225	276.855	81.6507	276.855	81.6269	276.855	81.857	276.855	81.7796	276.855	81.9768	276.855	81.9187	276.855	81.9946
287.109	85.6205	287.109	85.618	287.109	85.5256	287.109	85.518	287.109	85.3354	287.109	85.3213	287.109	85.0544	287.109	85.0299	287.109	84.6908	287.109	84.6472	287.109	84.2577	287.109	84.1802	287.109	83.7744	287.109	83.6431	287.109	83.2682	287.109	83.0631	287.109	82.7755	287.109	82.486	287.109	82.3406	287.109	81.9785	287.109	82.0089	287.109	81.6159	287.109	81.8142	287.109	81.4521	287.109	81.7645	287.109	81.4882	287.109	81.8363	287.109	81.6688	287.109	81.984	287.109	81.9122	287.109	82.1548	287.109	82.144	287.109	82.302	287.109	82.3142	287.109	82.3906	287.109	82.398
297.363	85.6993	297.363	85.6597	297.363	85.6385	297.363	85.5249	297.363	85.4728	297.363	85.2995	297.363	85.1987	297.363	84.9885	297.363	84.8152	297.363	84.5973	297.363	84.3256	297.363	84.1341	297.363	83.7403	297.363	83.6137	297.363	83.0829	297.363	83.0625	297.363	82.3964	297.363	82.524	297.363	81.7512	297.363	82.0602	297.363	81.2408	297.363	81.7393	297.363	80.9563	297.363	81.6097	297.363	80.9386	297.363	81.6709	297.363	81.1501	297.363	81.8691	297.363	81.496	297.363	82.122	297.363	81.8726	297.363	82.3508	297.363	82.1994	297.363	82.4972	297.363	82.4258	297.363	82.5267
307.617	85.9348	307.617	85.8465	307.617	85.9416	307.617	85.6764	307.617	85.8644	307.617	85.4215	307.617	85.6974	307.617	85.0779	307.617	85.4327	307.617	84.643	307.617	85.0616	307.617	84.119	307.617	84.5779	307.617	83.5192	307.617	83.9819	307.617	82.877	307.617	83.2881	307.617	82.2559	307.617	82.5374	307.617	81.7484	307.617	81.811	307.617	81.4513	307.617	81.2318	307.617	81.4129	307.617	80.9268	307.617	81.5976	307.617	80.95	307.617	81.9063	307.617	81.2377	307.617	82.2292	307.617	81.6549	307.617	82.4807	307.617	82.0706	307.617	82.6068	307.617	82.3952	307.617	82.58
319.336	85.6751	319.336	85.6157	319.336	85.6445	319.336	85.4648	319.336	85.5251	319.336	85.2202	319.336	85.3174	319.336	84.8789	319.336	85.0222	319.336	84.4374	319.336	84.6399	319.336	83.8938	319.336	84.1729	319.336	83.2527	319.336	83.6278	319.336	82.535	319.336	83.0215	319.336	81.7928	319.336	82.3896	319.336	81.1256	319.336	81.797	319.336	80.6735	319.336	81.3377	319.336	80.5556	319.336	81.1086	319.336	80.7778	319.336	81.1525	319.336	81.2191	319.336	81.4198	319.336	81.7153	319.336	81.7945	319.336	82.1372	319.336	82.1541	319.336	82.4097	319.336	82.4075	319.336	82.5005
329.59	85.9363	329.59	85.8859	329.59	85.9073	329.59	85.7538	329.59	85.798	329.59	85.5353	329.59	85.6047	329.59	85.2229	329.59	85.3205	329.59	84.808	329.59	84.9364	329.59	84.2823	329.59	84.443	329.59	83.6417	329.59	83.8336	329.59	82.8945	329.59	83.1115	329.59	82.0753	329.59	82.3023	329.59	81.2671	329.59	81.4732	329.59	80.6144	329.59	80.7507	329.59	80.2842	329.59	80.3031	329.59	80.3527	329.59	80.247	329.59	80.7275	329.59	80.5436	329.59	81.2185	329.59	81.0223	329.59	81.6549	329.59	81.499	329.59	81.9314	329.59	81.8467	329.59	81.9987
341.309	85.6473	341.309	85.5975	341.309	85.6097	341.309	85.4591	341.309	85.4869	341.309	85.2311	341.309	85.2821	341.309	84.9126	341.309	84.9986	341.309	84.502	341.309	84.6394	341.309	83.9991	341.309	84.2073	341.309	83.4088	341.309	83.7072	341.309	82.7475	341.309	83.1513	341.309	82.053	341.309	82.5659	341.309	81.3935	341.309	81.9996	341.309	80.8692	341.309	81.5249	341.309	80.5861	341.309	81.2219	341.309	80.5978	341.309	81.1417	341.309	80.8595	341.309	81.2684	341.309	81.2489	341.309	81.5206	341.309	81.6321	341.309	81.7896	341.309	81.9098	341.309	81.9802	341.309	82.0293
353.027	85.74	353.027	85.7073	353.027	85.6683	353.027	85.5697	353.027	85.4906	353.027	85.325	353.027	85.204	353.027	84.9687	353.027	84.8035	353.027	84.4948	353.027	84.2838	353.027	83.8975	353.027	83.6416	353.027	83.1764	353.027	82.8813	353.027	82.3477	353.027	82.0269	353.027	81.4635	353.027	81.141	353.027	80.6358	353.027	80.3464	353.027	80.039	353.027	79.8202	353.027	79.838	353.027	79.7098	353.027	80.0597	353.027	80.0108	353.027	80.5617	353.027	80.5621	353.027	81.1438	353.027	81.1649	353.027	81.6494	353.027	81.6721	353.027	81.9858	353.027	81.9995	353.027	82.1074
366.211	85.9432	366.211	85.8493	366.211	85.9529	366.211	85.6744	366.211	85.8738	366.211	85.4196	366.211	85.6994	366.211	85.0835	366.211	85.4208	366.211	84.6605	366.211	85.0252	366.211	84.1399	366.211	84.4951	366.211	83.5084	366.211	83.8095	366.211	82.7578	366.211	82.9481	366.211	81.9032	366.211	81.9071	366.211	81.0145	366.211	80.7346	366.211	80.2472	366.211	79.5966	366.211	79.8131	366.211	78.8183	366.211	79.8322	366.211	78.7072	366.211	80.2045	366.211	79.2078	366.211	80.702	366.211	79.9619	366.211	81.1301	366.211	80.6601	366.211	81.3777	366.211	81.1528	366.211	81.3926
379.395	86.6291	379.395	86.5318	379.395	86.6402	379.395	86.3449	379.395	86.5642	379.395	86.0606	379.395	86.3959	379.395	85.6675	379.395	86.1264	379.395	85.1537	379.395	85.7445	379.395	84.5114	379.395	85.2377	379.395	83.744	379.395	84.5969	379.395	82.8772	379.395	83.8228	379.395	81.9735	379.395	82.9368	379.395	81.1466	379.395	81.998	379.395	80.5516	379.395	81.121	379.395	80.3196	379.395	80.4716	379.395	80.4604	379.395	80.2002	379.395	80.8452	379.395	80.33	379.395	81.2944	379.395	80.7295	379.395	81.6614	379.395	81.2075	379.395	81.8563	379.395	81.6085	379.395	81.8386
392.578	86.3262	392.578	86.2837	392.578	86.2942	392.578	86.1602	392.578	86.1922	392.578	85.9465	392.578	86.021	392.578	85.6292	392.578	85.7743	392.578	85.1886	392.578	85.4376	392.578	84.5993	392.578	84.9894	392.578	83.8351	392.578	84.406	392.578	82.8815	392.578	83.6717	392.578	81.7641	392.578	82.7965	392.578	80.6055	392.578	81.8455	392.578	79.6925	392.578	80.9773	392.578	79.3977	392.578	80.438	392.578	79.8182	392.578	80.4149	392.578	80.6396	392.578	80.8466	392.578	81.4873	392.578	81.4793	392.578	82.1491	392.578	82.0735	392.578	82.5441	392.578	82.4875	392.578	82.6541
405.762	85.9961	405.762	85.9731	405.762	85.9208	405.762	85.8493	405.762	85.7514	405.762	85.6227	405.762	85.4936	405.762	85.2893	405.762	85.153	405.762	84.8405	405.762	84.7318	405.762	84.2604	405.762	84.2255	405.762	83.5286	405.762	83.6221	405.762	82.6304	405.762	82.9086	405.762	81.5831	405.762	82.0895	405.762	80.4887	405.762	81.2226	405.762	79.5992	405.762	80.4626	405.762	79.2664	405.762	80.0529	405.762	79.6291	405.762	80.1644	405.762	80.4295	405.762	80.7073	405.762	81.3002	405.762	81.4127	405.762	82.0087	405.762	82.0421	405.762	82.4546	405.762	82.4602	405.762	82.6054
420.41	86.773	420.41	86.7079	420.41	86.7431	420.41	86.55	420.41	86.6125	420.41	86.2969	420.41	86.3722	420.41	85.9396	420.41	86.0092	420.41	85.4616	420.41	85.5059	420.41	84.8378	420.41	84.8403	420.41	84.0367	420.41	83.988	420.41	83.0285	420.41	82.9289	420.41	81.8073	420.41	81.6667	420.41	80.4496	420.41	80.2786	420.41	79.2242	420.41	79.0172	420.41	78.6263	420.41	78.356	420.41	78.9554	420.41	78.6223	420.41	79.8838	420.41	79.5409	420.41	80.8922	420.41	80.5956	420.41	81.6848	420.41	81.4706	420.41	82.1547	420.41	82.0429	420.41	82.2745
435.059	86.6038	435.059	86.5608	435.059	86.5738	435.059	86.4424	435.059	86.4689	435.059	86.2404	435.059	86.2839	435.059	85.9394	435.059	86.0085	435.059	85.5153	435.059	85.6255	435.059	84.9358	435.059	85.1091	435.059	84.1631	435.059	84.4252	435.059	83.1612	435.059	83.5376	435.059	81.9175	435.059	82.4253	435.059	80.5036	435.059	81.1274	435.059	79.2052	435.059	79.8403	435.059	78.5798	435.059	79.0077	435.059	78.9655	435.059	79.0591	435.059	79.9735	435.059	79.8501	435.059	81.0355	435.059	80.8568	435.059	81.8578	435.059	81.7122	435.059	82.3472	435.059	82.2691	435.059	82.4842
451.172	87.0981	451.172	87.0425	451.172	87.0582	451.172	86.8889	451.172	86.9237	451.172	86.6321	451.172	86.6922	451.172	86.2604	451.172	86.3533	451.172	85.7521	451.172	85.8864	451.172	85.0727	451.172	85.2593	451.172	84.1765	451.172	84.4325	451.172	83.0131	451.172	83.3657	451.172	81.5525	451.172	82.0358	451.172	79.8681	451.172	80.49	451.172	78.3619	451.172	78.9937	451.172	77.8947	451.172	78.2035	451.172	78.8012	451.172	78.6733	451.172	80.2821	451.172	79.9707	451.172	81.6313	451.172	81.3406	451.172	82.6097	451.172	82.411	451.172	83.1757	451.172	83.0787	451.172	83.3318
465.82	86.9797	465.82	86.8982	465.82	86.9891	465.82	86.7439	465.82	86.9209	465.82	86.5086	465.82	86.7635	465.82	86.1742	465.82	86.4978	465.82	85.712	465.82	86.0952	465.82	85.0803	465.82	85.5149	465.82	84.2237	465.82	84.7039	465.82	83.0736	465.82	83.602	465.82	81.5614	465.82	82.1568	465.82	79.6825	465.82	80.3793	465.82	77.7495	465.82	78.5266	465.82	76.8351	465.82	77.4137	465.82	77.7501	465.82	77.8466	465.82	79.4753	465.82	79.2581	465.82	81.0111	465.82	80.7117	465.82	82.082	465.82	81.8295	465.82	82.6737	465.82	82.5332	465.82	82.8167
483.398	86.5931	483.398	86.6019	483.398	86.5852	483.398	86.6064	483.398	86.5691	483.398	86.5841	483.398	86.5238	483.398	86.4913	483.398	86.4154	483.398	86.263	483.398	86.1951	483.398	85.8149	483.398	85.7979	483.398	85.042	483.398	85.1391	483.398	83.8073	483.398	84.1066	483.398	81.9075	483.398	82.5434	483.398	78.9921	483.398	80.2202	483.398	74.5022	483.398	76.8849	483.398	70.8306	483.398	73.565	483.398	75.0936	483.398	75.0587	483.398	79.0724	483.398	78.5927	483.398	81.5483	483.398	81.1666	483.398	83.0449	483.398	82.803	483.398	83.8399	483.398	83.7245	483.398	84.056
499.512	86.2942	499.512	86.2856	499.512	86.2965	499.512	86.2818	499.512	86.3001	499.512	86.3056	499.512	86.3211	499.512	86.3657	499.512	86.3625	499.512	86.4305	499.512	86.3956	499.512	86.4205	499.512	86.3558	499.512	86.2237	499.512	86.1503	499.512	85.7125	499.512	85.6667	499.512	84.7428	499.512	84.771	499.512	83.1279	499.512	83.2878	499.512	80.5737	499.512	80.9576	499.512	76.608	499.512	77.4179	499.512	72.18	499.512	73.3696	499.512	74.7306	499.512	74.7361	499.512	78.7217	499.512	78.4784	499.512	81.1373	499.512	80.9478	499.512	82.3872	499.512	82.2889	499.512	82.7441
517.09	87.4189	517.09	87.3413	517.09	87.4221	517.09	87.1975	517.09	87.3602	517.09	87.0091	517.09	87.2555	517.09	86.797	517.09	87.1292	517.09	86.5636	517.09	86.9814	517.09	86.2771	517.09	86.7774	517.09	85.8673	517.09	86.4478	517.09	85.2317	517.09	85.8983	517.09	84.2437	517.09	85.0179	517.09	82.7538	517.09	83.6777	517.09	80.6005	517.09	81.7255	517.09	77.7863	517.09	79.0512	517.09	75.5801	517.09	76.2139	517.09	76.6074	517.09	75.9068	517.09	79.0684	517.09	78.2367	517.09	80.9451	517.09	80.4057	517.09	81.9844	517.09	81.7305	517.09	82.2403
536.133	86.6815	536.133	86.646	536.133	86.5987	536.133	86.5095	536.133	86.4089	536.133	86.3108	536.133	86.1512	536.133	86.0931	536.133	85.8783	536.133	85.8794	536.133	85.6287	536.133	85.6492	536.133	85.3944	536.133	85.328	536.133	85.1072	536.133	84.7966	536.133	84.653	536.133	83.9036	536.133	83.8973	536.133	82.4646	536.133	82.7038	536.133	80.2474	536.133	80.9625	536.133	77.063	536.133	78.7528	536.133	74.1497	536.133	77.0218	536.133	75.6844	536.133	77.5566	536.133	78.8811	536.133	79.5603	536.133	81.1264	536.133	81.3415	536.133	82.3727	536.133	82.4301	536.133	82.7802
555.176	87.5288	555.176	87.429	555.176	87.5125	555.176	87.2265	555.176	87.3856	555.176	86.9528	555.176	87.1683	555.176	86.6506	555.176	86.889	555.176	86.3541	555.176	86.5693	555.176	86.0625	555.176	86.2053	555.176	85.7206	555.176	85.7509	555.176	85.2188	555.176	85.1142	555.176	84.4024	555.176	84.1595	555.176	83.0712	555.176	82.6999	555.176	80.953	555.176	80.4559	555.176	77.6836	555.176	76.9901	555.176	73.6328	555.176	72.4909	555.176	74.1624	555.176	73.4016	555.176	77.877	555.176	77.6079	555.176	80.4406	555.176	80.3388	555.176	81.8184	555.176	81.7858	555.176	82.2453
574.219	87.8426	574.219	87.746	574.219	87.8097	574.219	87.5367	574.219	87.6529	574.219	87.2505	574.219	87.3989	574.219	86.93	574.219	87.0896	574.219	86.6035	574.219	86.7669	574.219	86.2596	574.219	86.4477	574.219	85.8349	574.219	86.0974	574.219	85.2202	574.219	85.6203	574.219	84.2717	574.219	84.8706	574.219	82.8058	574.219	83.6667	574.219	80.5677	574.219	81.7886	574.219	77.2465	574.219	78.9892	574.219	73.6438	574.219	75.4723	574.219	74.8849	574.219	74.5233	574.219	78.3825	574.219	77.3818	574.219	80.7232	574.219	79.9753	574.219	81.9117	574.219	81.5275	574.219	82.1546
594.727	87.5762	594.727	87.4942	594.727	87.5273	594.727	87.2947	594.727	87.3671	594.727	87.0251	594.727	87.1418	594.727	86.7559	594.727	86.9072	594.727	86.5485	594.727	86.6995	594.727	86.4069	594.727	86.5053	594.727	86.2536	594.727	86.2543	594.727	85.9521	594.727	85.8357	594.727	85.3434	594.727	85.1164	594.727	84.258	594.727	83.9405	594.727	82.4917	594.727	82.1076	594.727	79.7477	594.727	79.3571	594.727	75.698	594.727	75.7081	594.727	72.508	594.727	74.1275	594.727	75.4519	594.727	76.8832	594.727	78.7248	594.727	79.4981	594.727	80.58	594.727	80.9226	594.727	81.2685
615.234	87.7397	615.234	87.6271	615.234	87.661	615.234	87.3437	615.234	87.4045	615.234	86.9417	615.234	87.0199	615.234	86.4987	615.234	86.5903	615.234	86.0946	615.234	86.2044	615.234	85.7653	615.234	85.8994	615.234	85.4639	615.234	85.6178	615.234	85.0621	615.234	85.2244	615.234	84.3853	615.234	84.5543	615.234	83.234	615.234	83.4333	615.234	81.3679	615.234	81.6509	615.234	78.4899	615.234	78.9284	615.234	74.8075	615.234	75.297	615.234	74.4221	615.234	74.172	615.234	77.8254	615.234	77.4132	615.234	80.4883	615.234	80.2371	615.234	81.9448	615.234	81.8328	615.234	82.373
637.207	87.7401	637.207	87.6281	637.207	87.6544	637.207	87.3336	637.207	87.3864	637.207	86.9094	637.207	86.9816	637.207	86.4475	637.207	86.5168	637.207	86.055	637.207	86.0902	637.207	85.7862	637.207	85.7756	637.207	85.5785	637.207	85.5549	637.207	85.2604	637.207	85.2956	637.207	84.6138	637.207	84.7945	637.207	83.4074	637.207	83.824	637.207	81.3734	637.207	82.1232	637.207	78.1907	637.207	79.3458	637.207	74.3735	637.207	75.3072	637.207	75.0462	637.207	73.6972	637.207	78.6481	637.207	77.3812	637.207	81.1521	637.207	80.4398	637.207	82.467	637.207	82.1507	637.207	82.7861
659.18	88.2708	659.18	88.1479	659.18	88.1495	659.18	87.7898	659.18	87.7976	659.18	87.2352	659.18	87.2539	659.18	86.5596	659.18	86.5891	659.18	85.8709	659.18	85.9058	659.18	85.2721	659.18	85.3055	659.18	84.7936	659.18	84.8165	659.18	84.3456	659.18	84.3417	659.18	83.7345	659.18	83.6815	659.18	82.703	659.18	82.584	659.18	80.9238	659.18	80.7313	659.18	77.8952	659.18	77.607	659.18	72.9312	659.18	72.356	659.18	71.1634	659.18	70.3769	659.18	76.2939	659.18	75.9886	659.18	79.6422	659.18	79.4852	659.18	81.3397	659.18	81.2673	659.18	81.8399
682.617	87.8021	682.617	87.6683	682.617	87.7137	682.617	87.3311	682.617	87.4098	682.617	86.8376	682.617	86.9323	682.617	86.2753	682.617	86.3707	682.617	85.7645	682.617	85.8503	682.617	85.3965	682.617	85.4699	682.617	85.1449	682.617	85.2171	682.617	84.852	682.617	84.9533	682.617	84.2987	682.617	84.4765	682.617	83.2469	682.617	83.5671	682.617	81.396	682.617	81.963	682.617	78.2115	682.617	79.2416	682.617	72.4472	682.617	74.4794	682.617	68.3239	682.617	67.7962	682.617	75.1997	682.617	73.3985	682.617	78.9646	682.617	78.022	682.617	80.7137	682.617	80.2982	682.617	81.1145
707.52	88.1387	707.52	88.0195	707.52	88.0051	707.52	87.6508	707.52	87.6374	707.52	87.0661	707.52	87.0791	707.52	86.3486	707.52	86.4109	707.52	85.6461	707.52	85.7571	707.52	85.1309	707.52	85.248	707.52	84.8635	707.52	84.9324	707.52	84.6861	707.52	84.7117	707.52	84.2986	707.52	84.3644	707.52	83.3792	707.52	83.6042	707.52	81.5676	707.52	82.0812	707.52	78.2459	707.52	79.256	707.52	71.7496	707.52	73.8953	707.52	68.3382	707.52	66.945	707.52	76.1528	707.52	74.6389	707.52	79.8579	707.52	79.037	707.52	81.5513	707.52	81.1676	707.52	81.9355
732.422	88.5554	732.422	88.3895	732.422	88.4553	732.422	87.9644	732.422	88.0934	732.422	87.304	732.422	87.4911	732.422	86.4713	732.422	86.7064	732.422	85.596	732.422	85.8657	732.422	84.8642	732.422	85.165	732.422	84.4052	732.422	84.7504	732.422	84.1415	732.422	84.5382	732.422	83.7977	732.422	84.2403	732.422	83.0298	732.422	83.5373	732.422	81.4584	732.422	82.1201	732.422	78.4936	732.422	79.5321	732.422	72.5249	732.422	74.6281	732.422	63.8736	732.422	64.9206	732.422	74.5507	732.422	73.3482	732.422	79.0423	732.422	78.5853	732.422	81.1061	732.422	80.9495	732.422	81.6899
757.324	88.5108	757.324	88.3648	757.324	88.3757	757.324	87.9396	757.324	87.9643	757.324	87.2617	757.324	87.2952	757.324	86.4175	757.324	86.4367	757.324	85.5804	757.324	85.5536	757.324	84.9658	757.324	84.8954	757.324	84.672	757.324	84.6177	757.324	84.5621	757.324	84.5875	757.324	84.3451	757.324	84.4757	757.324	83.7047	757.324	83.9561	757.324	82.3015	757.324	82.733	757.324	79.6208	757.324	80.4069	757.324	74.3583	757.324	76.0656	757.324	62.5915	757.324	66.5846	757.324	73.3466	757.324	71.2557	757.324	78.4183	757.324	77.4917	757.324	80.5859	757.324	80.2017	757.324	81.1102
785.156	89.2448	785.156	89.1376	785.156	89.0652	785.156	88.7382	785.156	88.605	785.156	88.0477	785.156	87.8782	785.156	87.0993	785.156	86.9297	785.156	86.0154	785.156	85.877	785.156	85.0671	785.156	84.9387	785.156	84.5617	785.156	84.3533	785.156	84.4917	785.156	84.1586	785.156	84.4739	785.156	84.1037	785.156	84.0755	785.156	83.8119	785.156	82.9371	785.156	82.8969	785.156	80.5901	785.156	80.8757	785.156	75.8353	785.156	76.7223	785.156	61.0424	785.156	65.01	785.156	73.182	785.156	70.9749	785.156	79.1679	785.156	78.278	785.156	81.61	785.156	81.2201	785.156	82.1986
811.523	88.9922	811.523	88.854	811.523	88.8356	811.523	88.4184	811.523	88.376	811.523	87.6731	811.523	87.6096	811.523	86.6256	811.523	86.5664	811.523	85.3799	811.523	85.3655	811.523	84.2449	811.523	84.2892	811.523	83.6637	811.523	83.7216	811.523	83.7298	811.523	83.7698	811.523	83.9948	811.523	84.06	811.523	83.9281	811.523	84.084	811.523	83.1325	811.523	83.4313	811.523	81.194	811.523	81.6934	811.523	77.2688	811.523	78.1276	811.523	67.5963	811.523	69.9419	811.523	68.2656	811.523	66.0316	811.523	76.4928	811.523	75.8528	811.523	79.4044	811.523	79.1541	811.523	80.1461
840.82	89.5229	840.82	89.4268	840.82	89.3237	840.82	89.0191	840.82	88.8294	840.82	88.2817	840.82	88.0188	840.82	87.2187	840.82	86.8675	840.82	85.9023	840.82	85.4216	840.82	84.5721	840.82	83.9833	840.82	83.699	840.82	83.2154	840.82	83.6085	840.82	83.4275	840.82	83.9474	840.82	83.9793	840.82	84.0671	840.82	84.1548	840.82	83.4855	840.82	83.572	840.82	81.7643	840.82	81.9087	840.82	78.0339	840.82	78.4749	840.82	68.5801	840.82	70.4878	840.82	70.2173	840.82	66.3944	840.82	77.9644	840.82	76.6595	840.82	80.742	840.82	80.1713	840.82	81.337
870.117	89.1182	870.117	88.9497	870.117	89.0238	870.117	88.5253	870.117	88.6406	870.117	87.8254	870.117	87.9406	870.117	86.8265	870.117	86.9086	870.117	85.5667	870.117	85.5602	870.117	84.2562	870.117	84.0063	870.117	83.3479	870.117	82.6209	870.117	83.2321	870.117	82.0519	870.117	83.6817	870.117	82.4001	870.117	84.0533	870.117	82.8719	870.117	83.7948	870.117	82.7056	870.117	82.4747	870.117	81.4075	870.117	79.505	870.117	78.3175	870.117	73.1621	870.117	71.1077	870.117	62.1361	870.117	63.8395	870.117	74.7	870.117	75.5235	870.117	78.7218	870.117	79.0766	870.117	79.9381
900.879	88.7727	900.879	88.6728	900.879	88.6344	900.879	88.3127	900.879	88.2531	900.879	87.6563	900.879	87.5817	900.879	86.6567	900.879	86.535	900.879	85.272	900.879	85.0403	900.879	83.5664	900.879	83.1814	900.879	82.0167	900.879	81.5104	900.879	81.5768	900.879	81.0309	900.879	82.2561	900.879	81.7584	900.879	82.9453	900.879	82.6105	900.879	82.896	900.879	82.8159	900.879	81.6991	900.879	81.9343	900.879	78.6998	900.879	79.3999	900.879	71.4298	900.879	73.6286	900.879	64.8946	900.879	65.4073	900.879	76.3444	900.879	75.5433	900.879	79.8439	900.879	79.4913	900.879	80.6936
933.105	88.3057	933.105	88.1773	933.105	88.2821	933.105	87.8953	933.105	88.072	933.105	87.4114	933.105	87.6199	933.105	86.6352	933.105	86.8553	933.105	85.4778	933.105	85.6915	933.105	83.9563	933.105	84.0528	933.105	82.3955	933.105	82.0437	933.105	81.5655	933.105	80.4522	933.105	81.9066	933.105	80.5423	933.105	82.6991	933.105	81.7336	933.105	83.0135	933.105	82.5812	933.105	82.2534	933.105	82.3914	933.105	79.8544	933.105	80.73	933.105	74.7163	933.105	76.9248	933.105	69.3557	933.105	71.4913	933.105	75.7285	933.105	74.895	933.105	79.1091	933.105	78.6757	933.105	79.9409
965.332	87.7971	965.332	87.7333	965.332	87.7047	965.332	87.5066	965.332	87.4678	965.332	87.1097	965.332	87.0759	965.332	86.5038	965.332	86.4686	965.332	85.5853	965.332	85.5394	965.332	84.1901	965.332	84.1641	965.332	82.2124	965.332	82.2678	965.332	80.1285	965.332	80.1747	965.332	79.6999	965.332	79.4011	965.332	81.1408	965.332	80.7073	965.332	82.4793	965.332	82.1911	965.332	82.8021	965.332	82.6841	965.332	81.7597	965.332	81.8356	965.332	78.7876	965.332	79.2502	965.332	72.1423	965.332	73.6991	965.332	64.9104	965.332	61.4275	965.332	72.831	965.332	71.065	965.332	74.2418
1,000.49	88.8033	1,000.49	88.6854	1,000.49	88.6822	1,000.49	88.328	1,000.49	88.3145	1,000.49	87.7115	1,000.49	87.708	1,000.49	86.8205	1,000.49	86.8869	1,000.49	85.6791	1,000.49	85.8697	1,000.49	84.3581	1,000.49	84.656	1,000.49	82.9687	1,000.49	83.2583	1,000.49	81.7316	1,000.49	81.8081	1,000.49	81.0732	1,000.49	80.7215	1,000.49	81.1997	1,000.49	80.4928	1,000.49	81.52	1,000.49	80.8468	1,000.49	81.1927	1,000.49	80.8724	1,000.49	79.5759	1,000.49	79.7945	1,000.49	75.8928	1,000.49	76.8567	1,000.49	68.9001	1,000.49	70.2769	1,000.49	70.5227	1,000.49	66.593	1,000.49	75.1345	1,000.49	73.8812	1,000.49	76.1161
1,035.64	89.2894	1,035.64	89.2169	1,035.64	89.1918	1,035.64	88.9602	1,035.64	88.9261	1,035.64	88.487	1,035.64	88.475	1,035.64	87.7447	1,035.64	87.794	1,035.64	86.6656	1,035.64	86.825	1,035.64	85.178	1,035.64	85.5292	1,035.64	83.266	1,035.64	83.9176	1,035.64	81.2441	1,035.64	82.1328	1,035.64	80.1835	1,035.64	80.7212	1,035.64	80.6275	1,035.64	80.4734	1,035.64	81.285	1,035.64	80.9796	1,035.64	81.0287	1,035.64	81.0091	1,035.64	79.2217	1,035.64	79.7378	1,035.64	74.719	1,035.64	76.3488	1,035.64	64.5357	1,035.64	68.8934	1,035.64	73.0424	1,035.64	70.7456	1,035.64	77.6042	1,035.64	76.633	1,035.64	78.5328
1,072.27	89.5685	1,072.27	89.4969	1,072.27	89.473	1,072.27	89.2552	1,072.27	89.2082	1,072.27	88.8326	1,072.27	88.7657	1,072.27	88.1939	1,072.27	88.1325	1,072.27	87.2672	1,072.27	87.277	1,072.27	85.9764	1,072.27	86.1238	1,072.27	84.3179	1,072.27	84.5926	1,072.27	82.4994	1,072.27	82.8151	1,072.27	81.2027	1,072.27	81.4687	1,072.27	81.1786	1,072.27	81.2285	1,072.27	81.7497	1,072.27	81.4994	1,072.27	81.5856	1,072.27	81.282	1,072.27	79.7664	1,072.27	79.8917	1,072.27	74.9951	1,072.27	76.2988	1,072.27	57.7533	1,072.27	65.7272	1,072.27	71.8027	1,072.27	69.2959	1,072.27	76.9396	1,072.27	76.3668	1,072.27	78.1169
1,108.89	89.4536	1,108.89	89.3391	1,108.89	89.3591	1,108.89	89.0412	1,108.89	89.0804	1,108.89	88.6002	1,108.89	88.6511	1,108.89	88.0113	1,108.89	88.0453	1,108.89	87.2124	1,108.89	87.1719	1,108.89	86.0984	1,108.89	85.9399	1,108.89	84.5394	1,108.89	84.325	1,108.89	82.5359	1,108.89	82.4331	1,108.89	80.7195	1,108.89	80.7499	1,108.89	80.3423	1,108.89	80.2957	1,108.89	81.0537	1,108.89	81.0281	1,108.89	81.38	1,108.89	81.471	1,108.89	80.3873	1,108.89	80.5282	1,108.89	76.9412	1,108.89	77.2145	1,108.89	65.7225	1,108.89	67.8009	1,108.89	70.807	1,108.89	68.8274	1,108.89	77.2518	1,108.89	76.485	1,108.89	78.488
1,148.44	88.1059	1,148.44	88.0114	1,148.44	87.9787	1,148.44	87.7158	1,148.44	87.6189	1,148.44	87.2409	1,148.44	87.0542	1,148.44	86.6095	1,148.44	86.3429	1,148.44	85.8101	1,148.44	85.5137	1,148.44	84.7716	1,148.44	84.5237	1,148.44	83.4112	1,148.44	83.2911	1,148.44	81.7559	1,148.44	81.7969	1,148.44	80.1387	1,148.44	80.2784	1,148.44	79.2365	1,148.44	79.3441	1,148.44	79.2119	1,148.44	79.2507	1,148.44	79.1221	1,148.44	79.2033	1,148.44	77.7838	1,148.44	78.162	1,148.44	73.6785	1,148.44	75.0269	1,148.44	60.2024	1,148.44	66.0072	1,148.44	71.1855	1,148.44	66.4371	1,148.44	76.2675	1,148.44	74.8814	1,148.44	77.1762
1,189.45	87.157	1,189.45	87.0612	1,189.45	87.0858	1,189.45	86.7665	1,189.45	86.8699	1,189.45	86.2464	1,189.45	86.4805	1,189.45	85.4664	1,189.45	85.8452	1,189.45	84.3839	1,189.45	84.9199	1,189.45	82.9941	1,189.45	83.7179	1,189.45	81.4006	1,189.45	82.2927	1,189.45	79.8432	1,189.45	80.7959	1,189.45	78.7139	1,189.45	79.539	1,189.45	78.472	1,189.45	78.8684	1,189.45	78.8815	1,189.45	78.8713	1,189.45	78.9065	1,189.45	78.9543	1,189.45	77.6276	1,189.45	78.1416	1,189.45	74.039	1,189.45	75.4598	1,189.45	63.6599	1,189.45	68.5106	1,189.45	67.2979	1,189.45	61.8986	1,189.45	74.314	1,189.45	72.9947	1,189.45	75.6295
1,230.47	87.1904	1,230.47	87.0438	1,230.47	87.1684	1,230.47	86.7336	1,230.47	86.9812	1,230.47	86.2575	1,230.47	86.657	1,230.47	85.6398	1,230.47	86.2007	1,230.47	84.8899	1,230.47	85.52	1,230.47	83.8557	1,230.47	84.4551	1,230.47	82.3182	1,230.47	82.9321	1,230.47	80.4282	1,230.47	81.1449	1,230.47	78.8208	1,230.47	79.6954	1,230.47	77.8767	1,230.47	79.2053	1,230.47	77.7136	1,230.47	79.3145	1,230.47	77.7778	1,230.47	79.0962	1,230.47	76.5141	1,230.47	77.8521	1,230.47	71.952	1,230.47	74.64	1,230.47	45.6717	1,230.47	66.1471	1,230.47	71.0874	1,230.47	68.3567	1,230.47	75.9479	1,230.47	75.1488	1,230.47	77.0261
1,274.41	87.7021	1,274.41	87.5779	1,274.41	87.6157	1,274.41	87.3167	1,274.41	87.3197	1,274.41	86.9928	1,274.41	86.9142	1,274.41	86.5868	1,274.41	86.4689	1,274.41	85.9533	1,274.41	85.8412	1,274.41	84.8904	1,274.41	84.7517	1,274.41	83.1881	1,274.41	83.0047	1,274.41	80.7288	1,274.41	80.7497	1,274.41	78.1438	1,274.41	79.0697	1,274.41	77.5382	1,274.41	79.1651	1,274.41	78.5974	1,274.41	79.9354	1,274.41	79.033	1,274.41	80.0512	1,274.41	77.8338	1,274.41	78.8232	1,274.41	73.659	1,274.41	75.1355	1,274.41	57.8355	1,274.41	63.6432	1,274.41	73.1028	1,274.41	70.1326	1,274.41	77.9112	1,274.41	76.6738	1,274.41	78.718
1,319.82	88.1445	1,319.82	88.0137	1,319.82	87.9479	1,319.82	87.5931	1,319.82	87.5283	1,319.82	87.0119	1,319.82	87.0178	1,319.82	86.4017	1,319.82	86.4677	1,319.82	85.8448	1,319.82	85.9053	1,319.82	85.2165	1,319.82	85.2671	1,319.82	84.1043	1,319.82	84.1709	1,319.82	81.9611	1,319.82	82.021	1,319.82	78.3839	1,319.82	78.6022	1,319.82	75.7012	1,319.82	76.4269	1,319.82	77.7811	1,319.82	78.3022	1,319.82	79.4622	1,319.82	80.0477	1,319.82	79.2524	1,319.82	79.9406	1,319.82	76.6346	1,319.82	77.2876	1,319.82	69.5112	1,319.82	69.9471	1,319.82	73.5819	1,319.82	71.4952	1,319.82	78.883	1,319.82	78.0446	1,319.82	80.0502
1,366.7	87.9247	1,366.7	87.6828	1,366.7	87.7281	1,366.7	87.1357	1,366.7	87.1246	1,366.7	86.4492	1,366.7	86.3007	1,366.7	85.6565	1,366.7	85.4738	1,366.7	84.7475	1,366.7	84.7063	1,366.7	83.7767	1,366.7	83.8871	1,366.7	82.651	1,366.7	82.7657	1,366.7	81.1392	1,366.7	80.8992	1,366.7	79.2014	1,366.7	78.015	1,366.7	77.1327	1,366.7	75.3656	1,366.7	76.4407	1,366.7	75.9047	1,366.7	77.8626	1,366.7	77.8607	1,366.7	78.5599	1,366.7	78.6416	1,366.7	76.832	1,366.7	77.1488	1,366.7	71.8869	1,366.7	72.0463	1,366.7	72.0113	1,366.7	69.3844	1,366.7	76.6326	1,366.7	75.6413	1,366.7	77.7907
1,413.57	87.1746	1,413.57	86.9525	1,413.57	86.9404	1,413.57	86.362	1,413.57	86.3545	1,413.57	85.5858	1,413.57	85.5932	1,413.57	84.7446	1,413.57	84.7149	1,413.57	83.9313	1,413.57	83.6698	1,413.57	83.1255	1,413.57	82.6039	1,413.57	82.0948	1,413.57	81.7136	1,413.57	80.6776	1,413.57	80.5078	1,413.57	78.581	1,413.57	78.1407	1,413.57	75.5592	1,413.57	74.8638	1,413.57	74.7585	1,413.57	74.0521	1,413.57	76.7667	1,413.57	76.1056	1,413.57	77.5416	1,413.57	77.5277	1,413.57	76.3056	1,413.57	76.7291	1,413.57	72.0123	1,413.57	72.7684	1,413.57	71.8318	1,413.57	70.1388	1,413.57	76.6626	1,413.57	75.2658	1,413.57	77.639
1,463.38	87.2979	1,463.38	87.158	1,463.38	87.131	1,463.38	86.6753	1,463.38	86.6894	1,463.38	86.014	1,463.38	85.9545	1,463.38	85.2236	1,463.38	85.0055	1,463.38	84.0387	1,463.38	83.9333	1,463.38	82.6122	1,463.38	82.9051	1,463.38	81.5937	1,463.38	82.1906	1,463.38	80.7418	1,463.38	81.3745	1,463.38	79.0413	1,463.38	79.4921	1,463.38	75.8583	1,463.38	76.0924	1,463.38	73.8422	1,463.38	73.9952	1,463.38	76.1581	1,463.38	76.7613	1,463.38	77.8909	1,463.38	78.6518	1,463.38	77.9505	1,463.38	78.3137	1,463.38	76.0336	1,463.38	75.981	1,463.38	73.7091	1,463.38	73.0786	1,463.38	75.9199	1,463.38	74.7743	1,463.38	76.8784
1,516.11	87.2491	1,516.11	87.0348	1,516.11	87.1414	1,516.11	86.5198	1,516.11	86.6799	1,516.11	85.9448	1,516.11	85.8536	1,516.11	85.3715	1,516.11	84.976	1,516.11	84.3825	1,516.11	84.2057	1,516.11	82.9391	1,516.11	83.1384	1,516.11	81.6312	1,516.11	81.7888	1,516.11	80.6559	1,516.11	80.7802	1,516.11	79.6382	1,516.11	79.7137	1,516.11	77.5522	1,516.11	77.432	1,516.11	73.684	1,516.11	73.9224	1,516.11	75.1404	1,516.11	75.2362	1,516.11	78.7261	1,516.11	77.9824	1,516.11	79.8703	1,516.11	78.7058	1,516.11	78.7651	1,516.11	77.6706	1,516.11	75.7887	1,516.11	74.3642	1,516.11	72.8156	1,516.11	71.0098	1,516.11	71.6732
1,568.85	86.7032	1,568.85	86.5612	1,568.85	86.4802	1,568.85	86.0865	1,568.85	85.8961	1,568.85	85.2927	1,568.85	84.9556	1,568.85	84.3257	1,568.85	83.9034	1,568.85	83.3373	1,568.85	82.9013	1,568.85	82.1673	1,568.85	81.2065	1,568.85	80.838	1,568.85	78.685	1,568.85	79.9972	1,568.85	77.5626	1,568.85	79.8623	1,568.85	77.9483	1,568.85	78.6614	1,568.85	77.3056	1,568.85	74.1546	1,568.85	72.8462	1,568.85	70.138	1,568.85	64.7129	1,568.85	76.9726	1,568.85	75.3364	1,568.85	79.9466	1,568.85	78.3743	1,568.85	79.728	1,568.85	78.6404	1,568.85	76.5795	1,568.85	76.3453	1,568.85	70.7587	1,568.85	71.2529	1,568.85	67.3981
1,624.51	87.8344	1,624.51	87.632	1,624.51	87.5387	1,624.51	86.9659	1,624.51	86.7246	1,624.51	85.7341	1,624.51	85.5524	1,624.51	84.4449	1,624.51	84.511	1,624.51	83.8303	1,624.51	84.2163	1,624.51	83.1233	1,624.51	83.8168	1,624.51	81.5382	1,624.51	82.1538	1,624.51	78.86	1,624.51	79.4694	1,624.51	77.7997	1,624.51	78.1176	1,624.51	78.7909	1,624.51	78.7931	1,624.51	77.1259	1,624.51	78.4698	1,624.51	70.7613	1,624.51	73.9115	1,624.51	68.9691	1,624.51	59.8088	1,624.51	75.4202	1,624.51	73.6177	1,624.51	78.0981	1,624.51	77.1991	1,624.51	77.713	1,624.51	76.816	1,624.51	75.0104	1,624.51	73.576	1,624.51	72.1731
1,681.64	88.1416	1,681.64	87.8477	1,681.64	88.1905	1,681.64	87.4615	1,681.64	87.8539	1,681.64	86.7835	1,681.64	86.8698	1,681.64	85.4347	1,681.64	85.1048	1,681.64	83.8035	1,681.64	83.9874	1,681.64	82.966	1,681.64	84.2052	1,681.64	82.2459	1,681.64	83.805	1,681.64	79.7887	1,681.64	82.4508	1,681.64	75.6894	1,681.64	80.4993	1,681.64	75.9633	1,681.64	78.561	1,681.64	77.5947	1,681.64	78.8183	1,681.64	76.0747	1,681.64	77.5696	1,681.64	69.9546	1,681.64	73.3287	1,681.64	66.5995	1,681.64	67.6671	1,681.64	71.187	1,681.64	68.3064	1,681.64	72.9587	1,681.64	72.4329	1,681.64	75.2491	1,681.64	72.815	1,681.64	74.9543
1,741.7	88.2512	1,741.7	88.3028	1,741.7	87.9647	1,741.7	87.9692	1,741.7	87.5874	1,741.7	87.0747	1,741.7	87.1224	1,741.7	85.7704	1,741.7	86.0015	1,741.7	84.5151	1,741.7	84.1339	1,741.7	83.4119	1,741.7	83.0678	1,741.7	82.4395	1,741.7	82.7183	1,741.7	81.3728	1,741.7	81.5273	1,741.7	79.1471	1,741.7	80.1033	1,741.7	76.5864	1,741.7	78.5808	1,741.7	75.9367	1,741.7	77.2275	1,741.7	74.5878	1,741.7	76.1084	1,741.7	73.869	1,741.7	75.2822	1,741.7	72.8883	1,741.7	76.2869	1,741.7	69.7306	1,741.7	74.4331	1,741.7	61.034	1,741.7	66.9747	1,741.7	64.6775	1,741.7	56.5452	1,741.7	68.0435
1,803.22	88.5676	1,803.22	88.5154	1,803.22	88.4174	1,803.22	88.3765	1,803.22	87.9887	1,803.22	87.8802	1,803.22	87.2363	1,803.22	86.6473	1,803.22	86.0537	1,803.22	85.0146	1,803.22	84.4795	1,803.22	83.8482	1,803.22	82.9657	1,803.22	82.8268	1,803.22	82.2832	1,803.22	80.9932	1,803.22	81.2493	1,803.22	78.7455	1,803.22	78.563	1,803.22	77.9381	1,803.22	76.7733	1,803.22	77.9641	1,803.22	77.1816	1,803.22	76.6051	1,803.22	75.6538	1,803.22	72.6897	1,803.22	68.8592	1,803.22	71.4126	1,803.22	72.5512	1,803.22	72.2313	1,803.22	74.3308	1,803.22	68.11	1,803.22	69.7385	1,803.22	66.7748	1,803.22	68.8614	1,803.22	70.2515
1,866.21	87.793	1,866.21	87.7825	1,866.21	87.377	1,866.21	87.6316	1,866.21	86.8086	1,866.21	87.2099	1,866.21	86.4595	1,866.21	86.2185	1,866.21	85.5819	1,866.21	84.8028	1,866.21	84.0412	1,866.21	83.2226	1,866.21	82.5471	1,866.21	81.9907	1,866.21	80.7744	1,866.21	81.1063	1,866.21	78.3161	1,866.21	78.7909	1,866.21	75.8397	1,866.21	76.5819	1,866.21	73.5905	1,866.21	77.3646	1,866.21	75.0591	1,866.21	76.611	1,866.21	75.6683	1,866.21	73.4616	1,866.21	72.4885	1,866.21	71.8912	1,866.21	69.8495	1,866.21	72.6708	1,866.21	68.9387	1,866.21	70.3263	1,866.21	64.7601	1,866.21	66.7855	1,866.21	63.129	1,866.21	69.7083
1,932.13	87.153	1,932.13	86.6908	1,932.13	87.1635	1,932.13	86.2735	1,932.13	86.8725	1,932.13	86.2166	1,932.13	86.1552	1,932.13	85.3964	1,932.13	85.1848	1,932.13	83.5088	1,932.13	84.1678	1,932.13	81.9904	1,932.13	82.3878	1,932.13	80.9705	1,932.13	80.4136	1,932.13	78.9281	1,932.13	79.7286	1,932.13	74.8792	1,932.13	78.2831	1,932.13	73.5927	1,932.13	74.7131	1,932.13	76.7821	1,932.13	77.4857	1,932.13	76.9251	1,932.13	78.9909	1,932.13	71.0667	1,932.13	74.4501	1,932.13	68.9715	1,932.13	64.7274	1,932.13	74.3672	1,932.13	72.6653	1,932.13	73.8251	1,932.13	72.8711	1,932.13	69.9917	1,932.13	70.9097	1,932.13	67.3263
1,999.51	87.8732	1,999.51	87.7239	1,999.51	87.6999	1,999.51	87.0931	1,999.51	87.2988	1,999.51	86.5156	1,999.51	86.3679	1,999.51	86.063	1,999.51	85.3932	1,999.51	84.6874	1,999.51	84.5394	1,999.51	82.0208	1,999.51	82.2436	1,999.51	80.3101	1,999.51	79.7149	1,999.51	80.799	1,999.51	80.323	1,999.51	79.4625	1,999.51	79.366	1,999.51	73.4391	1,999.51	73.3401	1,999.51	73.7717	1,999.51	74.981	1,999.51	78.8016	1,999.51	79.9902	1,999.51	77.6743	1,999.51	78.7039	1,999.51	69.8547	1,999.51	70.0363	1,999.51	64.2476	1,999.51	62.3529	1,999.51	72.9704	1,999.51	71.0043	1,999.51	75.5819	1,999.51	75.2433	1,999.51	76.5179
2,069.82	88.0055	2,069.82	87.8939	2,069.82	87.6271	2,069.82	86.9594	2,069.82	86.5142	2,069.82	85.4199	2,069.82	84.6234	2,069.82	84.1941	2,069.82	83.6587	2,069.82	83.6692	2,069.82	83.6107	2,069.82	82.2199	2,069.82	82.396	2,069.82	79.1352	2,069.82	79.7717	2,069.82	78.6625	2,069.82	78.0699	2,069.82	80.1907	2,069.82	78.7361	2,069.82	78.3334	2,069.82	74.7836	2,069.82	72.1802	2,069.82	58.1643	2,069.82	76.6557	2,069.82	75.9082	2,069.82	78.0853	2,069.82	78.3658	2,069.82	74.4554	2,069.82	75.803	2,069.82	66.1818	2,069.82	67.0505	2,069.82	67.1891	2,069.82	60.6744	2,069.82	75.2113	2,069.82	73.3741	2,069.82	76.8892
2,143.07	86.7645	2,143.07	86.775	2,143.07	86.4821	2,143.07	86.1954	2,143.07	85.752	2,143.07	84.9553	2,143.07	84.6529	2,143.07	83.4101	2,143.07	83.2901	2,143.07	82.0509	2,143.07	81.5567	2,143.07	81.4408	2,143.07	80.8649	2,143.07	80.0908	2,143.07	80.7997	2,143.07	76.1879	2,143.07	77.4821	2,143.07	74.3433	2,143.07	71.0899	2,143.07	75.7756	2,143.07	72.7645	2,143.07	72.9294	2,143.07	70.4647	2,143.07	70.7168	2,143.07	66.3617	2,143.07	74.7921	2,143.07	74.7583	2,143.07	74.2499	2,143.07	76.2284	2,143.07	70.1234	2,143.07	73.9546	2,143.07	63.7841	2,143.07	65.7696	2,143.07	68.147	2,143.07	66.9777	2,143.07	69.827
2,219.24	86.5568	2,219.24	86.5102	2,219.24	86.3591	2,219.24	86.1948	2,219.24	85.8266	2,219.24	85.5171	2,219.24	85.1506	2,219.24	84.548	2,219.24	83.8859	2,219.24	82.5277	2,219.24	81.8161	2,219.24	79.7867	2,219.24	79.344	2,219.24	78.7426	2,219.24	78.0452	2,219.24	77.7688	2,219.24	77.418	2,219.24	73.2074	2,219.24	74.4098	2,219.24	65.8865	2,219.24	69.6991	2,219.24	72.2439	2,219.24	71.5529	2,219.24	70.306	2,219.24	69.4888	2,219.24	61.6648	2,219.24	59.912	2,219.24	73.6816	2,219.24	75.0263	2,219.24	76.0942	2,219.24	78.1114	2,219.24	74.3269	2,219.24	76.6872	2,219.24	69.9942	2,219.24	73.0405	2,219.24	69.9367
2,296.88	85.2406	2,296.88	85.4696	2,296.88	84.7944	2,296.88	85.2607	2,296.88	83.5616	2,296.88	83.9217	2,296.88	82.1004	2,296.88	82.043	2,296.88	81.1574	2,296.88	80.7798	2,296.88	79.674	2,296.88	79.1777	2,296.88	77.1849	2,296.88	76.6859	2,296.88	73.6693	2,296.88	74.5537	2,296.88	71.6597	2,296.88	74.5115	2,296.88	73.5277	2,296.88	72.351	2,296.88	72.7329	2,296.88	62.6127	2,296.88	63.8798	2,296.88	71.5136	2,296.88	68.8079	2,296.88	68.389	2,296.88	70.4345	2,296.88	56.3039	2,296.88	60.479	2,296.88	67.9058	2,296.88	64.7738	2,296.88	70.11	2,296.88	68.9902	2,296.88	69.7763	2,296.88	69.2478	2,296.88	69.4241
2,378.91	84.2237	2,378.91	83.719	2,378.91	83.8813	2,378.91	83.1094	2,378.91	83.1649	2,378.91	82.0809	2,378.91	82.378	2,378.91	80.5661	2,378.91	80.238	2,378.91	78.8541	2,378.91	77.9787	2,378.91	75.7429	2,378.91	76.6584	2,378.91	72.6026	2,378.91	72.4998	2,378.91	71.466	2,378.91	69.7816	2,378.91	69.9941	2,378.91	70.979	2,378.91	65.1088	2,378.91	65.6919	2,378.91	65.2074	2,378.91	67.5292	2,378.91	68.5094	2,378.91	67.8034	2,378.91	62.764	2,378.91	64.805	2,378.91	67.4054	2,378.91	67.0995	2,378.91	72.5724	2,378.91	72.1146	2,378.91	70.87	2,378.91	72.6288	2,378.91	66.5064	2,378.91	70.1655	2,378.91	66.9798
2,462.4	85.0987	2,462.4	84.8214	2,462.4	84.9182	2,462.4	84.1349	2,462.4	84.3161	2,462.4	82.7435	2,462.4	83.0794	2,462.4	80.2627	2,462.4	80.9127	2,462.4	77.3752	2,462.4	77.9666	2,462.4	75.5577	2,462.4	75.9938	2,462.4	73.0123	2,462.4	74.5004	2,462.4	66.6186	2,462.4	69.4683	2,462.4	68.7697	2,462.4	68.3616	2,462.4	71.2512	2,462.4	71.7981	2,462.4	66.3676	2,462.4	69.1733	2,462.4	66.4457	2,462.4	58.0574	2,462.4	71.5122	2,462.4	71.8826	2,462.4	70.7006	2,462.4	73.7541	2,462.4	69.4299	2,462.4	71.0641	2,462.4	71.2278	2,462.4	69.5852	2,462.4	71.5579	2,462.4	70.7192	2,462.4	71.2736
2,548.83	86.0598	2,548.83	85.5709	2,548.83	85.6172	2,548.83	84.2799	2,548.83	84.2991	2,548.83	82.5338	2,548.83	82.7558	2,548.83	80.4293	2,548.83	81.1017	2,548.83	77.3141	2,548.83	78.4843	2,548.83	73.4343	2,548.83	74.7913	2,548.83	71.1281	2,548.83	72.4402	2,548.83	68.2491	2,548.83	70.6944	2,548.83	60.1513	2,548.83	64.7521	2,548.83	65.9234	2,548.83	65.5752	2,548.83	68.6482	2,548.83	69.408	2,548.83	61.0581	2,548.83	65.8948	2,548.83	62.3196	2,548.83	55.6479	2,548.83	67.3835	2,548.83	70.0554	2,548.83	66.43	2,548.83	70.2271	2,548.83	64.6739	2,548.83	64.3375	2,548.83	65.1181	2,548.83	60.5851	2,548.83	63.1434
2,639.65	86.86	2,639.65	86.3456	2,639.65	86.6512	2,639.65	85.1441	2,639.65	85.7219	2,639.65	83.1161	2,639.65	84.0372	2,639.65	80.5892	2,639.65	81.8625	2,639.65	77.7105	2,639.65	79.4446	2,639.65	73.2981	2,639.65	76.0736	2,639.65	67.5181	2,639.65	71.2928	2,639.65	63.8476	2,639.65	68.2852	2,639.65	60.8879	2,639.65	66.091	2,639.65	44.3714	2,639.65	59.2754	2,639.65	63.3314	2,639.65	65.1807	2,639.65	65.5939	2,639.65	68.2717	2,639.65	60.7441	2,639.65	62.0156	2,639.65	64.3311	2,639.65	63.3948	2,639.65	68.0457	2,639.65	69.6922	2,639.65	67.4872	2,639.65	69.1487	2,639.65	64.683	2,639.65	65.812	2,639.65	63.282
2,731.93	87.8223	2,731.93	87.2934	2,731.93	87.443	2,731.93	85.9668	2,731.93	86.3077	2,731.93	83.8708	2,731.93	84.5334	2,731.93	80.9557	2,731.93	81.886	2,731.93	77.482	2,731.93	78.3995	2,731.93	73.4892	2,731.93	75.1186	2,731.93	67.2826	2,731.93	70.6491	2,731.93	55.9775	2,731.93	64.106	2,731.93	58.6853	2,731.93	63.9063	2,731.93	63.7604	2,731.93	66.1002	2,731.93	55.629	2,731.93	54.985	2,731.93	66.4291	2,731.93	66.7153	2,731.93	70.6128	2,731.93	71.9442	2,731.93	67.286	2,731.93	68.8911	2,731.93	68.3104	2,731.93	67.7645	2,731.93	70.7423	2,731.93	71.8328	2,731.93	69.4825	2,731.93	72.0375	2,731.93	69.6837
2,828.61	86.9009	2,828.61	86.2894	2,828.61	86.4742	2,828.61	84.4869	2,828.61	84.9778	2,828.61	81.3989	2,828.61	82.5301	2,828.61	77.8628	2,828.61	79.4592	2,828.61	73.2905	2,828.61	75.6674	2,828.61	66.3952	2,828.61	70.1782	2,828.61	61.6211	2,828.61	64.8873	2,828.61	64.0204	2,828.61	63.654	2,828.61	60.9611	2,828.61	61.037	2,828.61	66.7694	2,828.61	65.8297	2,828.61	67.1515	2,828.61	67.2067	2,828.61	59.3496	2,828.61	54.2395	2,828.61	71.4632	2,828.61	71.5327	2,828.61	71.4199	2,828.61	72.5553	2,828.61	67.0995	2,828.61	68.556	2,828.61	69.8504	2,828.61	70.4387	2,828.61	71.8809	2,828.61	73.5536	2,828.61	72.9917
2,928.22	86.4548	2,928.22	86.0975	2,928.22	86.0385	2,928.22	84.8881	2,928.22	84.7349	2,928.22	82.0127	2,928.22	82.1129	2,928.22	77.3072	2,928.22	78.3692	2,928.22	72.9291	2,928.22	74.3359	2,928.22	66.6411	2,928.22	66.0084	2,928.22	61.0778	2,928.22	61.1686	2,928.22	65.9362	2,928.22	63.5081	2,928.22	68.7849	2,928.22	67.4479	2,928.22	62.8668	2,928.22	58.7539	2,928.22	70.9228	2,928.22	68.6335	2,928.22	67.6419	2,928.22	68.5741	2,928.22	69.2645	2,928.22	69.0859	2,928.22	75.6046	2,928.22	76.2041	2,928.22	76.092	2,928.22	76.9408	2,928.22	74.8248	2,928.22	75.6223	2,928.22	76.5736	2,928.22	77.5287	2,928.22	77.8581
3,030.76	85.5945	3,030.76	84.8444	3,030.76	85.0544	3,030.76	83.2144	3,030.76	83.4836	3,030.76	80.5658	3,030.76	80.3423	3,030.76	75.6495	3,030.76	74.0796	3,030.76	66.7994	3,030.76	64.5036	3,030.76	51.9211	3,030.76	52.6462	3,030.76	61.3548	3,030.76	64.1983	3,030.76	64.3182	3,030.76	68.1543	3,030.76	64.6262	3,030.76	69.1571	3,030.76	65.5598	3,030.76	69.798	3,030.76	63.5911	3,030.76	64.8969	3,030.76	68.2765	3,030.76	68.5561	3,030.76	65.0262	3,030.76	65.6868	3,030.76	64.6897	3,030.76	60.0565	3,030.76	73.6936	3,030.76	72.8585	3,030.76	73.2712	3,030.76	74.6437	3,030.76	69.473	3,030.76	71.3215	3,030.76	69.2627
3,137.7	85.2127	3,137.7	84.4347	3,137.7	84.4132	3,137.7	82.1503	3,137.7	81.9171	3,137.7	78.4144	3,137.7	78.0104	3,137.7	72.3744	3,137.7	69.9274	3,137.7	53.489	3,137.7	63.8731	3,137.7	66.1937	3,137.7	70.4312	3,137.7	69.0834	3,137.7	72.2643	3,137.7	69.3218	3,137.7	72.4911	3,137.7	67.9825	3,137.7	70.1352	3,137.7	66.8941	3,137.7	70.8784	3,137.7	64.3691	3,137.7	67.8482	3,137.7	67.4205	3,137.7	67.1792	3,137.7	66.9983	3,137.7	67.5328	3,137.7	60.8879	3,137.7	63.2588	3,137.7	70.1705	3,137.7	70.9761	3,137.7	71.3102	3,137.7	72.1062	3,137.7	59.4602	3,137.7	69.5297	3,137.7	60.5264
3,249.02	85.4924	3,249.02	84.8314	3,249.02	84.7067	3,249.02	82.0749	3,249.02	81.7628	3,249.02	76.674	3,249.02	75.5742	3,249.02	68.1673	3,249.02	68.0112	3,249.02	66.1571	3,249.02	72.4315	3,249.02	71.0427	3,249.02	75.0985	3,249.02	72.4797	3,249.02	75.7897	3,249.02	73.4914	3,249.02	75.2327	3,249.02	72.4714	3,249.02	73.6395	3,249.02	70.4729	3,249.02	73.0447	3,249.02	69.2728	3,249.02	73.2383	3,249.02	58.2111	3,249.02	67.0633	3,249.02	70.6648	3,249.02	72.578	3,249.02	70.0711	3,249.02	72.5829	3,249.02	62.5284	3,249.02	56.9359	3,249.02	73.4889	3,249.02	75.0347	3,249.02	70.9312	3,249.02	77.4501	3,249.02	72.7766
3,363.28	85.8479	3,363.28	85.1488	3,363.28	84.7884	3,363.28	82.5788	3,363.28	81.755	3,363.28	77.1844	3,363.28	76.7302	3,363.28	68.949	3,363.28	72.5428	3,363.28	65.2014	3,363.28	73.575	3,363.28	71.6289	3,363.28	75.7621	3,363.28	73.6594	3,363.28	76.2655	3,363.28	73.3766	3,363.28	77.2273	3,363.28	72.684	3,363.28	75.168	3,363.28	71.6461	3,363.28	71.6944	3,363.28	69.523	3,363.28	70.6657	3,363.28	69.2805	3,363.28	70.2934	3,363.28	59.2566	3,363.28	63.4154	3,363.28	72.8502	3,363.28	73.7615	3,363.28	72.0713	3,363.28	71.7979	3,363.28	56.2419	3,363.28	56.7633	3,363.28	68.2513	3,363.28	73.1085	3,363.28	74.8005
3,481.93	86.6918	3,481.93	85.6763	3,481.93	85.8885	3,481.93	83.2722	3,481.93	83.0912	3,481.93	77.8508	3,481.93	78.4233	3,481.93	65.988	3,481.93	70.6476	3,481.93	71.3601	3,481.93	73.1473	3,481.93	76.3469	3,481.93	77.2548	3,481.93	76.3507	3,481.93	77.6653	3,481.93	76.6487	3,481.93	77.0621	3,481.93	75.0955	3,481.93	77.0934	3,481.93	72.7515	3,481.93	75.92	3,481.93	70.1499	3,481.93	73.3299	3,481.93	70.4418	3,481.93	70.8666	3,481.93	70.2459	3,481.93	69.2657	3,481.93	64.8262	3,481.93	67.5674	3,481.93	73.6027	3,481.93	74.1331	3,481.93	73.3954	3,481.93	73.9147	3,481.93	62.6831	3,481.93	68.6215	3,481.93	71.6572
3,604.98	88.0653	3,604.98	87.2889	3,604.98	87.2977	3,604.98	84.5061	3,604.98	84.862	3,604.98	78.9561	3,604.98	79.6403	3,604.98	61.8448	3,604.98	74.3323	3,604.98	72.772	3,604.98	76.6746	3,604.98	77.0098	3,604.98	78.9266	3,604.98	78.6072	3,604.98	79.9937	3,604.98	78.0522	3,604.98	79.4415	3,604.98	76.9426	3,604.98	78.2075	3,604.98	75.4041	3,604.98	76.3644	3,604.98	73.7519	3,604.98	74.5542	3,604.98	68.0775	3,604.98	72.2916	3,604.98	69.0012	3,604.98	71.1055	3,604.98	69.5141	3,604.98	70.6805	3,604.98	64.5832	3,604.98	68.2689	3,604.98	73.4534	3,604.98	73.7281	3,604.98	62.3057	3,604.98	71.1953	3,604.98	64.6007
3,732.42	89.698	3,732.42	88.6836	3,732.42	88.9352	3,732.42	85.597	3,732.42	85.7733	3,732.42	78.6813	3,732.42	80.3195	3,732.42	48.9361	3,732.42	69.1265	3,732.42	75.9974	3,732.42	75.1324	3,732.42	79.2873	3,732.42	79.1665	3,732.42	79.9443	3,732.42	80.1436	3,732.42	79.7859	3,732.42	80.0075	3,732.42	78.7224	3,732.42	78.9475	3,732.42	77.0503	3,732.42	76.5944	3,732.42	75.9051	3,732.42	75.5102	3,732.42	72.5758	3,732.42	72.8238	3,732.42	69.1949	3,732.42	72.76	3,732.42	72.1556	3,732.42	70.9303	3,732.42	67.6222	3,732.42	70.2397	3,732.42	72.0566	3,732.42	72.0182	3,732.42	57.2944	3,732.42	69.9102	3,732.42	65.4426
3,864.26	90.7661	3,864.26	89.7324	3,864.26	89.7152	3,864.26	86.2805	3,864.26	86.1548	3,864.26	78.6745	3,864.26	78.9174	3,864.26	68.2868	3,864.26	62.6806	3,864.26	78.9459	3,864.26	78.416	3,864.26	81.3769	3,864.26	81.6005	3,864.26	81.6018	3,864.26	82.4047	3,864.26	81.0161	3,864.26	81.5679	3,864.26	79.7367	3,864.26	80.474	3,864.26	77.379	3,864.26	78.5797	3,864.26	75.8334	3,864.26	77.2637	3,864.26	73.5085	3,864.26	73.8989	3,864.26	71.785	3,864.26	67.8107	3,864.26	72.6376	3,864.26	74.4956	3,864.26	71.2995	3,864.26	72.3754	3,864.26	71.5173	3,864.26	73.2559	3,864.26	68.9559	3,864.26	70.6738	3,864.26	70.1682
4,000.49	89.863	4,000.49	88.9535	4,000.49	88.7313	4,000.49	85.3358	4,000.49	85.124	4,000.49	78.1112	4,000.49	76.7489	4,000.49	71.8154	4,000.49	71.817	4,000.49	78.9458	4,000.49	80.2072	4,000.49	81.2671	4,000.49	82.0423	4,000.49	81.6618	4,000.49	82.4485	4,000.49	80.8104	4,000.49	81.8151	4,000.49	79.7984	4,000.49	80.4413	4,000.49	77.6977	4,000.49	77.715	4,000.49	76.1127	4,000.49	76.1457	4,000.49	73.3551	4,000.49	74.9427	4,000.49	72.1984	4,000.49	72.2091	4,000.49	73.113	4,000.49	72.7607	4,000.49	71.6676	4,000.49	73.1549	4,000.49	72.8966	4,000.49	72.8849	4,000.49	65.237	4,000.49	67.4705	4,000.49	67.636
4,141.11	89.1767	4,141.11	88.5162	4,141.11	88.2459	4,141.11	85.524	4,141.11	84.4673	4,141.11	78.7579	4,141.11	75.2835	4,141.11	74.3055	4,141.11	74.1621	4,141.11	79.1055	4,141.11	80.8508	4,141.11	80.9523	4,141.11	82.5087	4,141.11	80.8096	4,141.11	82.4053	4,141.11	80.1998	4,141.11	81.6451	4,141.11	78.9938	4,141.11	80.5015	4,141.11	76.5807	4,141.11	78.5304	4,141.11	74.3832	4,141.11	76.2505	4,141.11	72.1418	4,141.11	74.7185	4,141.11	68.9529	4,141.11	70.3032	4,141.11	71.733	4,141.11	72.3978	4,141.11	70.9108	4,141.11	72.4851	4,141.11	71.7615	4,141.11	71.0973	4,141.11	64.5329	4,141.11	65.1041	4,141.11	67.9487
4,287.6	88.5253	4,287.6	87.8899	4,287.6	87.5693	4,287.6	85.5167	4,287.6	84.0399	4,287.6	80.0365	4,287.6	76.7332	4,287.6	77.4159	4,287.6	76.0779	4,287.6	80.2516	4,287.6	81.0452	4,287.6	80.9956	4,287.6	82.2445	4,287.6	80.7096	4,287.6	82.1875	4,287.6	79.9826	4,287.6	81.2233	4,287.6	78.1318	4,287.6	79.6145	4,287.6	76.4356	4,287.6	78.168	4,287.6	74.7664	4,287.6	75.9072	4,287.6	73.1121	4,287.6	73.6459	4,287.6	69.3419	4,287.6	71.5846	4,287.6	70.9371	4,287.6	70.9796	4,287.6	70.4948	4,287.6	72.0878	4,287.6	71.6355	4,287.6	70.815	4,287.6	62.5537	4,287.6	66.2934	4,287.6	65.724
4,438.48	88.4163	4,438.48	87.8302	4,438.48	87.3688	4,438.48	84.9525	4,438.48	84.7846	4,438.48	81.4876	4,438.48	78.0011	4,438.48	79.9001	4,438.48	76.4141	4,438.48	80.8918	4,438.48	80.7472	4,438.48	81.5564	4,438.48	81.8189	4,438.48	81.2249	4,438.48	81.5132	4,438.48	79.9948	4,438.48	80.3175	4,438.48	78.1068	4,438.48	78.9628	4,438.48	75.9769	4,438.48	76.4505	4,438.48	74.115	4,438.48	74.6041	4,438.48	70.9552	4,438.48	72.8632	4,438.48	70.249	4,438.48	69.3622	4,438.48	68.5383	4,438.48	67.7495	4,438.48	69.8655	4,438.48	71.1013	4,438.48	69.7137	4,438.48	69.9449	4,438.48	62.2367	4,438.48	67.2609	4,438.48	58.8502
4,595.21	88.8223	4,595.21	87.9319	4,595.21	88.3655	4,595.21	85.5507	4,595.21	84.7911	4,595.21	80.0285	4,595.21	78.8626	4,595.21	80.074	4,595.21	76.0014	4,595.21	81.0217	4,595.21	79.6561	4,595.21	79.832	4,595.21	79.9519	4,595.21	78.1448	4,595.21	78.7696	4,595.21	77.4539	4,595.21	77.9875	4,595.21	75.4922	4,595.21	76.3488	4,595.21	72.8025	4,595.21	74.2221	4,595.21	72.0995	4,595.21	71.9736	4,595.21	70.3595	4,595.21	70.2244	4,595.21	69.4433	4,595.21	68.8153	4,595.21	67.1735	4,595.21	67.5782	4,595.21	68.6177	4,595.21	69.1305	4,595.21	68.3004	4,595.21	67.8652	4,595.21	62.5609	4,595.21	65.6903	4,595.21	57.9613
4,756.35	91.419	4,756.35	90.7731	4,756.35	89.924	4,756.35	87.9586	4,756.35	87.4045	4,756.35	83.7234	4,756.35	82.7257	4,756.35	79.1048	4,756.35	79.2024	4,756.35	79.5471	4,756.35	79.566	4,756.35	79.9622	4,756.35	79.888	4,756.35	79.7322	4,756.35	79.5107	4,756.35	77.5461	4,756.35	77.8968	4,756.35	74.8834	4,756.35	76.309	4,756.35	72.837	4,756.35	74.3864	4,756.35	71.8089	4,756.35	72.3184	4,756.35	68.7709	4,756.35	70.1972	4,756.35	67.2364	4,756.35	65.7387	4,756.35	66.6612	4,756.35	67.1676	4,756.35	63.7626	4,756.35	65.1545	4,756.35	65.8057	4,756.35	68.1829	4,756.35	60.9346	4,756.35	67.8178	4,756.35	58.4417
4,924.8	91.731	4,924.8	91.1516	4,924.8	91.1638	4,924.8	88.9778	4,924.8	88.4674	4,924.8	85.6209	4,924.8	83.778	4,924.8	82.9375	4,924.8	81.4231	4,924.8	82.1312	4,924.8	82.4506	4,924.8	81.6222	4,924.8	82.1697	4,924.8	79.794	4,924.8	80.4238	4,924.8	78.0462	4,924.8	79.4538	4,924.8	76.4527	4,924.8	77.132	4,924.8	74.7462	4,924.8	75.0443	4,924.8	71.7221	4,924.8	71.6832	4,924.8	69.493	4,924.8	70.8705	4,924.8	67.4041	4,924.8	67.3402	4,924.8	64.3168	4,924.8	67.1202	4,924.8	66.677	4,924.8	67.1057	4,924.8	67.568	4,924.8	65.974	4,924.8	69.3314	4,924.8	66.8526	4,924.8	65.4873
5,097.66	92.3176	5,097.66	92.1092	5,097.66	91.4543	5,097.66	90.4286	5,097.66	89.6088	5,097.66	87.3866	5,097.66	85.9938	5,097.66	85.4267	5,097.66	83.9553	5,097.66	83.9999	5,097.66	83.7032	5,097.66	82.0202	5,097.66	82.3366	5,097.66	81.2387	5,097.66	81.2184	5,097.66	79.5631	5,097.66	79.4403	5,097.66	76.7636	5,097.66	77.7515	5,097.66	74.3328	5,097.66	74.9393	5,097.66	72.5332	5,097.66	72.7877	5,097.66	69.6811	5,097.66	70.4504	5,097.66	65.0934	5,097.66	69.1478	5,097.66	66.7483	5,097.66	64.9933	5,097.66	65.1686	5,097.66	68.1502	5,097.66	64.4436	5,097.66	69.1083	5,097.66	65.6138	5,097.66	69.3345	5,097.66	54.2813
5,277.83	92.9683	5,277.83	92.4779	5,277.83	91.9673	5,277.83	90.3627	5,277.83	90.0565	5,277.83	87.5861	5,277.83	86.8078	5,277.83	85.1249	5,277.83	84.3848	5,277.83	83.9019	5,277.83	84.7808	5,277.83	82.6806	5,277.83	83.7133	5,277.83	81.0167	5,277.83	81.6359	5,277.83	79.4996	5,277.83	80.2046	5,277.83	77.4692	5,277.83	77.9757	5,277.83	75.7458	5,277.83	75.7329	5,277.83	73.1653	5,277.83	73.879	5,277.83	68.7858	5,277.83	71.6956	5,277.83	68.5546	5,277.83	67.1345	5,277.83	66.8169	5,277.83	67.0129	5,277.83	68.3538	5,277.83	65.878	5,277.83	67.7694	5,277.83	67.0537	5,277.83	68.4103	5,277.83	70.5187	5,277.83	64.6259
5,463.87	92.6821	5,463.87	92.2998	5,463.87	92.4726	5,463.87	90.654	5,463.87	90.5949	5,463.87	87.1218	5,463.87	87.0066	5,463.87	85.5314	5,463.87	85.5525	5,463.87	85.0978	5,463.87	85.3202	5,463.87	83.7952	5,463.87	83.5477	5,463.87	82.9115	5,463.87	82.8066	5,463.87	81.4853	5,463.87	81.4237	5,463.87	79.2982	5,463.87	79.2514	5,463.87	76.6563	5,463.87	76.0815	5,463.87	75.2604	5,463.87	73.9012	5,463.87	72.8033	5,463.87	73.2484	5,463.87	68.5639	5,463.87	69.317	5,463.87	67.551	5,463.87	65.0468	5,463.87	66.9582	5,463.87	68.0348	5,463.87	68.5189	5,463.87	67.6837	5,463.87	70.5577	5,463.87	70.0502	5,463.87	61.9613
5,657.23	93.5102	5,657.23	93.2062	5,657.23	92.8676	5,657.23	91.0213	5,657.23	91.0544	5,657.23	87.5391	5,657.23	87.311	5,657.23	85.3648	5,657.23	84.6996	5,657.23	85.226	5,657.23	85.2521	5,657.23	84.6285	5,657.23	84.8706	5,657.23	83.5481	5,657.23	83.3501	5,657.23	82.0303	5,657.23	82.1575	5,657.23	80.2981	5,657.23	80.3317	5,657.23	77.8316	5,657.23	78.4762	5,657.23	74.6489	5,657.23	76.0147	5,657.23	73.1276	5,657.23	74.0657	5,657.23	69.7847	5,657.23	69.5653	5,657.23	68.3676	5,657.23	65.9952	5,657.23	67.7159	5,657.23	67.9093	5,657.23	67.1768	5,657.23	68.9085	5,657.23	70.5065	5,657.23	70.0054	5,657.23	52.8522
5,856.45	93.3567	5,856.45	92.8934	5,856.45	93.367	5,856.45	91.2642	5,856.45	91.2554	5,856.45	87.2445	5,856.45	87.1769	5,856.45	85.6583	5,856.45	85.3301	5,856.45	85.546	5,856.45	85.6216	5,856.45	85.0087	5,856.45	84.9746	5,856.45	83.9502	5,856.45	84.4536	5,856.45	81.6421	5,856.45	82.8563	5,856.45	80.4269	5,856.45	80.8093	5,856.45	77.6478	5,856.45	77.8985	5,856.45	75.7431	5,856.45	75.8334	5,856.45	73.3705	5,856.45	74.5654	5,856.45	71.1173	5,856.45	71.4302	5,856.45	69.6764	5,856.45	67.5513	5,856.45	70.6664	5,856.45	67.1328	5,856.45	67.0453	5,856.45	68.3457	5,856.45	68.9683	5,856.45	72.8579	5,856.45	64.1614
6,062.99	93.2743	6,062.99	93.167	6,062.99	92.8113	6,062.99	91.0918	6,062.99	91.3205	6,062.99	87.3542	6,062.99	87.6616	6,062.99	85.1081	6,062.99	85.6178	6,062.99	85.5085	6,062.99	85.7737	6,062.99	85.6749	6,062.99	86.1218	6,062.99	84.1443	6,062.99	85.1726	6,062.99	82.2109	6,062.99	83.0804	6,062.99	80.8861	6,062.99	81.2347	6,062.99	77.8192	6,062.99	78.8889	6,062.99	74.2355	6,062.99	77.346	6,062.99	73.4049	6,062.99	74.8423	6,062.99	70.0223	6,062.99	70.8072	6,062.99	68.4446	6,062.99	64.5954	6,062.99	69.7788	6,062.99	67.9946	6,062.99	71.1017	6,062.99	69.0196	6,062.99	71.0176	6,062.99	70.8042	6,062.99	56.0513
6,276.86	92.8521	6,276.86	92.4727	6,276.86	92.8925	6,276.86	91.1168	6,276.86	91.4509	6,276.86	87.5844	6,276.86	88.346	6,276.86	85.877	6,276.86	86.6719	6,276.86	86.0955	6,276.86	87.0548	6,276.86	85.8045	6,276.86	86.8344	6,276.86	84.9335	6,276.86	85.9045	6,276.86	82.9153	6,276.86	83.698	6,276.86	80.0964	6,276.86	81.7758	6,276.86	77.669	6,276.86	78.1892	6,276.86	76.1572	6,276.86	76.1919	6,276.86	72.0544	6,276.86	75.386	6,276.86	70.6642	6,276.86	72.0029	6,276.86	66.9692	6,276.86	68.6539	6,276.86	67.6588	6,276.86	66.3702	6,276.86	69.6452	6,276.86	69.5377	6,276.86	72.001	6,276.86	72.2517	6,276.86	62.1213
6,498.05	92.6585	6,498.05	92.4751	6,498.05	92.7683	6,498.05	91.1915	6,498.05	91.8048	6,498.05	88.2045	6,498.05	89.0775	6,498.05	86.3252	6,498.05	87.6272	6,498.05	86.8631	6,498.05	88.1151	6,498.05	86.7058	6,498.05	87.9534	6,498.05	84.8425	6,498.05	86.3365	6,498.05	82.8022	6,498.05	84.434	6,498.05	80.8011	6,498.05	82.1349	6,498.05	78.0373	6,498.05	80.1245	6,498.05	74.6979	6,498.05	77.3472	6,498.05	72.3727	6,498.05	75.2527	6,498.05	67.1785	6,498.05	71.8044	6,498.05	67.4715	6,498.05	66.8011	6,498.05	65.8555	6,498.05	65.2598	6,498.05	67.1188	6,498.05	68.3725	6,498.05	70.2033	6,498.05	70.9639	6,498.05	63.0333
6,726.56	91.9314	6,726.56	92.1174	6,726.56	92.2343	6,726.56	91.5291	6,726.56	91.6678	6,726.56	88.9264	6,726.56	89.9777	6,726.56	87.6099	6,726.56	88.6524	6,726.56	87.4882	6,726.56	89.0138	6,726.56	86.5365	6,726.56	88.4683	6,726.56	85.1561	6,726.56	86.854	6,726.56	83.0317	6,726.56	84.3214	6,726.56	80.6716	6,726.56	81.9531	6,726.56	77.9106	6,726.56	79.5211	6,726.56	75.6019	6,726.56	77.216	6,726.56	72.3723	6,726.56	75.3012	6,726.56	70.6322	6,726.56	73.6117	6,726.56	67.8652	6,726.56	68.8055	6,726.56	68.0585	6,726.56	65.7535	6,726.56	66.6169	6,726.56	69.2099	6,726.56	66.917	6,726.56	69.5067	6,726.56	57.1654
6,963.87	91.4718	6,963.87	91.7839	6,963.87	91.7221	6,963.87	91.3829	6,963.87	91.5647	6,963.87	89.5305	6,963.87	90.2648	6,963.87	88.0123	6,963.87	89.1584	6,963.87	87.8651	6,963.87	89.1309	6,963.87	86.9931	6,963.87	88.7311	6,963.87	85.056	6,963.87	86.7286	6,963.87	82.6313	6,963.87	84.7186	6,963.87	80.5923	6,963.87	82.4644	6,963.87	77.8568	6,963.87	80.0569	6,963.87	74.9721	6,963.87	77.7406	6,963.87	73.0067	6,963.87	75.0482	6,963.87	71.1781	6,963.87	71.8224	6,963.87	68.7862	6,963.87	69.4466	6,963.87	64.5021	6,963.87	64.6759	6,963.87	63.7587	6,963.87	68.6496	6,963.87	70.8645	6,963.87	70.3535	6,963.87	56.1547
7,209.96	90.4635	7,209.96	91.0169	7,209.96	90.9176	7,209.96	90.932	7,209.96	91.0607	7,209.96	89.7799	7,209.96	90.5218	7,209.96	88.5282	7,209.96	89.7414	7,209.96	87.9403	7,209.96	89.2173	7,209.96	87.2057	7,209.96	88.7889	7,209.96	85.2684	7,209.96	87.1232	7,209.96	82.1581	7,209.96	84.763	7,209.96	80.1182	7,209.96	82.4208	7,209.96	77.4544	7,209.96	79.4255	7,209.96	74.9031	7,209.96	77.4843	7,209.96	73.0346	7,209.96	75.6422	7,209.96	70.6546	7,209.96	72.7719	7,209.96	66.6675	7,209.96	71.0673	7,209.96	62.1193	7,209.96	61.4595	7,209.96	67.1365	7,209.96	67.8035	7,209.96	66.9216	7,209.96	69.5861	7,209.96	56.841
7,464.84	89.2331	7,464.84	89.665	7,464.84	90.3328	7,464.84	90.626	7,464.84	90.5757	7,464.84	89.9558	7,464.84	90.6805	7,464.84	88.823	7,464.84	89.6387	7,464.84	88.0472	7,464.84	89.0204	7,464.84	87.125	7,464.84	88.7157	7,464.84	85.4052	7,464.84	86.9156	7,464.84	82.5001	7,464.84	85.128	7,464.84	80.3775	7,464.84	82.5409	7,464.84	77.9079	7,464.84	79.4972	7,464.84	75.8562	7,464.84	77.1905	7,464.84	72.7133	7,464.84	74.6638	7,464.84	71.7435	7,464.84	72.9941	7,464.84	68.0548	7,464.84	69.6999	7,464.84	60.0034	7,464.84	62.1332	7,464.84	63.3358	7,464.84	68.0088	7,464.84	70.0846	7,464.84	68.5012	7,464.84	53.4421
7,727.05	88.4293	7,727.05	89.3629	7,727.05	88.9147	7,727.05	90.5841	7,727.05	90.1541	7,727.05	90.6689	7,727.05	90.8301	7,727.05	88.9165	7,727.05	89.6764	7,727.05	87.9262	7,727.05	88.8403	7,727.05	87.6113	7,727.05	88.5317	7,727.05	86.4292	7,727.05	86.8217	7,727.05	83.3877	7,727.05	84.3576	7,727.05	80.9454	7,727.05	81.8517	7,727.05	78.2434	7,727.05	79.1415	7,727.05	74.8005	7,727.05	76.9292	7,727.05	73.3716	7,727.05	74.9629	7,727.05	71.9765	7,727.05	71.6416	7,727.05	69.188	7,727.05	69.6296	7,727.05	56.4884	7,727.05	63.6044	7,727.05	64.1337	7,727.05	67.2267	7,727.05	66.7156	7,727.05	68.1327	7,727.05	62.1462
7,999.51	88.1216	7,999.51	88.8678	7,999.51	88.2931	7,999.51	90.7501	7,999.51	89.8408	7,999.51	91.0236	7,999.51	90.8437	7,999.51	88.9476	7,999.51	89.4038	7,999.51	88.1871	7,999.51	88.3428	7,999.51	87.9629	7,999.51	88.344	7,999.51	86.3455	7,999.51	86.8182	7,999.51	83.6781	7,999.51	84.2654	7,999.51	81.8789	7,999.51	81.5977	7,999.51	79.5078	7,999.51	79.2522	7,999.51	76.3441	7,999.51	76.6947	7,999.51	73.8353	7,999.51	73.6781	7,999.51	72.3953	7,999.51	71.3932	7,999.51	69.3154	7,999.51	69.4776	7,999.51	54.3309	7,999.51	59.8113	7,999.51	64.2038	7,999.51	66.9289	7,999.51	69.4912	7,999.51	65.6215	7,999.51	59.8809
8,282.23	87.6806	8,282.23	88.45	8,282.23	88.2985	8,282.23	91.0067	8,282.23	90.188	8,282.23	91.0613	8,282.23	91.0633	8,282.23	88.7888	8,282.23	89.0152	8,282.23	88.0946	8,282.23	87.9068	8,282.23	88.0097	8,282.23	87.6631	8,282.23	86.092	8,282.23	85.9592	8,282.23	82.9509	8,282.23	83.2556	8,282.23	81.4306	8,282.23	80.2248	8,282.23	78.923	8,282.23	77.6583	8,282.23	76.5001	8,282.23	75.7146	8,282.23	73.9634	8,282.23	72.8464	8,282.23	72.8115	8,282.23	70.7955	8,282.23	68.5948	8,282.23	69.1347	8,282.23	57.5904	8,282.23	46.7376	8,282.23	61.9354	8,282.23	65.9631	8,282.23	66.8749	8,282.23	65.1867	8,282.23	62.3566
8,573.73	87.5294	8,573.73	88.6745	8,573.73	88.4809	8,573.73	91.2471	8,573.73	90.8035	8,573.73	91.18	8,573.73	91.338	8,573.73	88.6826	8,573.73	89.1872	8,573.73	87.4402	8,573.73	87.8436	8,573.73	87.1569	8,573.73	87.2825	8,573.73	85.3161	8,573.73	85.5078	8,573.73	82.2788	8,573.73	82.9039	8,573.73	79.5555	8,573.73	80.4807	8,573.73	76.8332	8,573.73	76.9926	8,573.73	74.3052	8,573.73	75.4144	8,573.73	72.1759	8,573.73	73.3894	8,573.73	71.8586	8,573.73	71.7356	8,573.73	67.7279	8,573.73	69.1212	8,573.73	52.1863	8,573.73	54.5442	8,573.73	59.2597	8,573.73	66.9302	8,573.73	66.7599	8,573.73	67.0776	8,573.73	59.8576
8,876.95	88.2491	8,876.95	89.4507	8,876.95	89.1329	8,876.95	91.4428	8,876.95	91.0758	8,876.95	91.2643	8,876.95	91.5639	8,876.95	88.7193	8,876.95	89.4234	8,876.95	86.9693	8,876.95	87.5413	8,876.95	86.3003	8,876.95	87.1431	8,876.95	84.7626	8,876.95	85.7895	8,876.95	82.2705	8,876.95	83.3909	8,876.95	79.3184	8,876.95	81.1695	8,876.95	77.2072	8,876.95	78.0276	8,876.95	74.0044	8,876.95	75.8178	8,876.95	70.6954	8,876.95	73.6823	8,876.95	69.6947	8,876.95	72.2251	8,876.95	65.7102	8,876.95	68.1067	8,876.95	49.9521	8,876.95	56.1177	8,876.95	62.9631	8,876.95	64.643	8,876.95	66.6257	8,876.95	67.4981	8,876.95	55.7442
9,188.96	89.1143	9,188.96	90.521	9,188.96	90.01	9,188.96	91.8855	9,188.96	91.3864	9,188.96	91.4462	9,188.96	91.5801	9,188.96	88.8332	9,188.96	89.4752	9,188.96	86.2918	9,188.96	87.2889	9,188.96	85.5539	9,188.96	86.8286	9,188.96	84.5806	9,188.96	86.0478	9,188.96	81.887	9,188.96	83.9066	9,188.96	79.3682	9,188.96	80.6628	9,188.96	77.6976	9,188.96	78.5658	9,188.96	73.4635	9,188.96	75.946	9,188.96	72.9948	9,188.96	73.4389	9,188.96	70.0018	9,188.96	71.9201	9,188.96	65.3843	9,188.96	67.8507	9,188.96	46.6039	9,188.96	59.3839	9,188.96	62.6195	9,188.96	66.2723	9,188.96	68.09	9,188.96	69.0229	9,188.96	62.9329
9,514.16	89.682	9,514.16	91.2252	9,514.16	91.1395	9,514.16	92.1166	9,514.16	91.9931	9,514.16	91.6864	9,514.16	91.84	9,514.16	89.0683	9,514.16	89.8209	9,514.16	85.4769	9,514.16	86.8174	9,514.16	85.9936	9,514.16	87.2009	9,514.16	85.0958	9,514.16	86.777	9,514.16	82.1428	9,514.16	84.5579	9,514.16	79.4062	9,514.16	81.2472	9,514.16	77.7496	9,514.16	78.7425	9,514.16	73.6953	9,514.16	76.4335	9,514.16	73.7582	9,514.16	73.2889	9,514.16	71.3229	9,514.16	72.6547	9,514.16	63.5067	9,514.16	68.0494	9,514.16	52.7502	9,514.16	58.9593	9,514.16	62.8273	9,514.16	67.0544	9,514.16	68.6732	9,514.16	68.4459	9,514.16	62.1003
9,849.61	90.9454	9,849.61	91.944	9,849.61	92.0048	9,849.61	91.8196	9,849.61	92.2282	9,849.61	91.4854	9,849.61	91.9874	9,849.61	88.1788	9,849.61	89.6953	9,849.61	84.3401	9,849.61	85.489	9,849.61	86.1273	9,849.61	87.1939	9,849.61	85.9559	9,849.61	86.7735	9,849.61	83.5204	9,849.61	85.0505	9,849.61	80.0065	9,849.61	82.0526	9,849.61	78.2859	9,849.61	78.1978	9,849.61	74.0798	9,849.61	76.1263	9,849.61	73.872	9,849.61	73.5785	9,849.61	70.7688	9,849.61	72.1417	9,849.61	62.4945	9,849.61	67.1779	9,849.61	59.7594	9,849.61	56.2239	9,849.61	62.5367	9,849.61	67.4734	9,849.61	68.2526	9,849.61	67.6546	9,849.61	62.7978
10,196.8	91.8564	10,196.8	92.1157	10,196.8	92.5913	10,196.8	91.1839	10,196.8	92.0676	10,196.8	90.7152	10,196.8	91.5468	10,196.8	87.5436	10,196.8	89.5199	10,196.8	84.2313	10,196.8	85.7734	10,196.8	85.2789	10,196.8	87.5963	10,196.8	86.125	10,196.8	87.2475	10,196.8	83.2373	10,196.8	85.4397	10,196.8	80.5443	10,196.8	81.575	10,196.8	77.7187	10,196.8	78.8897	10,196.8	74.3804	10,196.8	76.4199	10,196.8	73.7448	10,196.8	74.3989	10,196.8	69.7613	10,196.8	72.8244	10,196.8	63.0179	10,196.8	67.0522	10,196.8	60.7387	10,196.8	56.6453	10,196.8	60.3473	10,196.8	66.6642	10,196.8	68.2664	10,196.8	69.2994	10,196.8	61.6927
10,555.7	92.6661	10,555.7	91.7473	10,555.7	92.8393	10,555.7	90.0517	10,555.7	91.5989	10,555.7	89.8144	10,555.7	90.8672	10,555.7	88.3198	10,555.7	90.0077	10,555.7	85.7346	10,555.7	87.3389	10,555.7	85.2421	10,555.7	87.744	10,555.7	85.2005	10,555.7	87.4155	10,555.7	80.9773	10,555.7	85.3407	10,555.7	80.2741	10,555.7	81.2552	10,555.7	76.2987	10,555.7	78.2665	10,555.7	73.0656	10,555.7	75.6511	10,555.7	72.6283	10,555.7	73.9927	10,555.7	69.1484	10,555.7	71.5849	10,555.7	61.7014	10,555.7	67.1605	10,555.7	59.1588	10,555.7	55.3075	10,555.7	60.4816	10,555.7	67.2647	10,555.7	68.3027	10,555.7	68.296	10,555.7	59.7208
10,927.7	93.6275	10,927.7	92.1511	10,927.7	92.7806	10,927.7	90.0358	10,927.7	90.7515	10,927.7	90.4362	10,927.7	89.8757	10,927.7	89.9511	10,927.7	89.7183	10,927.7	87.3481	10,927.7	87.4493	10,927.7	85.454	10,927.7	86.6525	10,927.7	85.0144	10,927.7	85.8316	10,927.7	80.9498	10,927.7	83.6436	10,927.7	79.5349	10,927.7	80.125	10,927.7	75.5158	10,927.7	76.2783	10,927.7	72.7805	10,927.7	73.7962	10,927.7	71.2886	10,927.7	71.6494	10,927.7	67.0775	10,927.7	69.3814	10,927.7	59.8425	10,927.7	66.1824	10,927.7	59.8569	10,927.7	48.0721	10,927.7	56.6876	10,927.7	63.0105	10,927.7	68.143	10,927.7	66.0461	10,927.7	55.0708
11,313	94.5058	11,313	92.9517	11,313	93.3036	11,313	90.8183	11,313	90.7944	11,313	90.798	11,313	89.7292	11,313	90.9062	11,313	89.8527	11,313	88.1149	11,313	87.4309	11,313	85.3349	11,313	85.1163	11,313	84.909	11,313	84.0871	11,313	80.8054	11,313	81.5275	11,313	79.1597	11,313	77.8548	11,313	74.5034	11,313	74.497	11,313	71.6653	11,313	72.301	11,313	69.6343	11,313	69.5136	11,313	65.232	11,313	67.4708	11,313	58.6257	11,313	63.4358	11,313	59.0237	11,313	43.2277	11,313	54.5628	11,313	58.7689	11,313	65.3678	11,313	62.9494	11,313	53.6457
11,712.9	95.2744	11,712.9	93.7916	11,712.9	94.2169	11,712.9	91.8129	11,712.9	91.7844	11,712.9	91.1344	11,712.9	90.9245	11,712.9	90.7488	11,712.9	90.6182	11,712.9	87.4625	11,712.9	87.4908	11,712.9	84.6049	11,712.9	84.5471	11,712.9	83.0314	11,712.9	83.3373	11,712.9	78.4543	11,712.9	79.8719	11,712.9	76.9431	11,712.9	76.3463	11,712.9	71.8159	11,712.9	72.5997	11,712.9	69.0485	11,712.9	70.598	11,712.9	67.7284	11,712.9	67.5473	11,712.9	62.3319	11,712.9	65.2786	11,712.9	53.8783	11,712.9	62.8922	11,712.9	58.5492	11,712.9	48.7737	11,712.9	47.7708	11,712.9	57.4221	11,712.9	62.9888	11,712.9	61.3726	11,712.9	52.7753
12,126	95.9231	12,126	94.7308	12,126	95.0375	12,126	92.6562	12,126	92.8336	12,126	91.5504	12,126	91.7298	12,126	90.2874	12,126	90.8447	12,126	86.5893	12,126	87.221	12,126	83.2823	12,126	83.9958	12,126	80.2822	12,126	81.8237	12,126	75.211	12,126	77.4294	12,126	72.3676	12,126	74.5757	12,126	68.9663	12,126	69.8378	12,126	66.0885	12,126	68.8917	12,126	64.6927	12,126	63.7825	12,126	60.2388	12,126	64.1693	12,126	51.6982	12,126	59.0062	12,126	55.4588	12,126	50.3365	12,126	36.9112	12,126	55.3972	12,126	60.5127	12,126	57.4439	12,126	48.6488
12,553.7	96.1718	12,553.7	95.0947	12,553.7	95.3058	12,553.7	93.161	12,553.7	93.1949	12,553.7	91.9449	12,553.7	91.8973	12,553.7	89.9934	12,553.7	90.7233	12,553.7	85.8937	12,553.7	86.8561	12,553.7	81.7975	12,553.7	83.1459	12,553.7	78.3957	12,553.7	80.365	12,553.7	74.225	12,553.7	76.0472	12,553.7	69.4768	12,553.7	72.1524	12,553.7	67.6057	12,553.7	67.6632	12,553.7	65.4743	12,553.7	65.9418	12,553.7	62.4627	12,553.7	62.4989	12,553.7	56.4889	12,553.7	60.0383	12,553.7	51.993	12,553.7	58.7987	12,553.7	53.5227	12,553.7	40.6203	12,553.7	43.196	12,553.7	46.1365	12,553.7	56.3708	12,553.7	51.4188	12,553.7	46.507
12,996.1	95.9804	12,996.1	94.9659	12,996.1	95.0684	12,996.1	93.0807	12,996.1	92.9952	12,996.1	91.7548	12,996.1	91.6946	12,996.1	89.5652	12,996.1	89.802	12,996.1	84.9581	12,996.1	85.4426	12,996.1	80.7972	12,996.1	81.3435	12,996.1	78.5724	12,996.1	77.2013	12,996.1	74.8094	12,996.1	73.035	12,996.1	69.9555	12,996.1	68.8746	12,996.1	67.5247	12,996.1	60.7074	12,996.1	65.6253	12,996.1	60.8672	12,996.1	60.877	12,996.1	58.7091	12,996.1	56.602	12,996.1	53.264	12,996.1	52.2497	12,996.1	53.6298	12,996.1	55.5083	12,996.1	44.491	12,996.1	44.9512	12,996.1	47.8461	12,996.1	54.8599	12,996.1	48.519	12,996.1	45.5416
13,454.6	95.6295	13,454.6	94.7198	13,454.6	94.6992	13,454.6	92.7666	13,454.6	92.8846	13,454.6	91.3499	13,454.6	91.426	13,454.6	88.9652	13,454.6	88.9614	13,454.6	84.0351	13,454.6	83.9425	13,454.6	79.7004	13,454.6	79.0888	13,454.6	78.2616	13,454.6	74.9757	13,454.6	74.4427	13,454.6	70.3054	13,454.6	69.481	13,454.6	64.9589	13,454.6	66.7566	13,454.6	62.1772	13,454.6	64.5384	13,454.6	59.9505	13,454.6	57.4623	13,454.6	58.9285	13,454.6	55.3012	13,454.6	56.0058	13,454.6	47.435	13,454.6	55.241	13,454.6	53.7014	13,454.6	54.1543	13,454.6	44.1831	13,454.6	41.3161	13,454.6	55.2594	13,454.6	44.5894	13,454.6	45.3984
13,929.2	95.4415	13,929.2	94.6213	13,929.2	94.5368	13,929.2	92.6128	13,929.2	92.8514	13,929.2	90.9006	13,929.2	91.2118	13,929.2	88.3531	13,929.2	88.3047	13,929.2	83.4765	13,929.2	82.7359	13,929.2	79.2134	13,929.2	77.9144	13,929.2	77.3161	13,929.2	73.7296	13,929.2	73.2377	13,929.2	67.0584	13,929.2	69.4485	13,929.2	61.7686	13,929.2	66.3513	13,929.2	59.5662	13,929.2	64.0483	13,929.2	59.2562	13,929.2	58.3681	13,929.2	52.9316	13,929.2	53.3466	13,929.2	55.8968	13,929.2	45.1722	13,929.2	55.6012	13,929.2	55.1601	13,929.2	56.2393	13,929.2	50.1969	13,929.2	45.2129	13,929.2	49.6802	13,929.2	48.8893	13,929.2	42.467
14,419.9	95.0618	14,419.9	94.4345	14,419.9	94.1608	14,419.9	92.3463	14,419.9	92.4293	14,419.9	90.354	14,419.9	90.4518	14,419.9	87.7068	14,419.9	87.0177	14,419.9	82.6259	14,419.9	80.831	14,419.9	77.9489	14,419.9	75.6576	14,419.9	75.5642	14,419.9	67.8105	14,419.9	71.7082	14,419.9	64.9377	14,419.9	67.8724	14,419.9	61.2475	14,419.9	64.142	14,419.9	58.5596	14,419.9	61.8953	14,419.9	58.8359	14,419.9	57.7918	14,419.9	58.1085	14,419.9	50.0109	14,419.9	55.7753	14,419.9	31.1563	14,419.9	52.0587	14,419.9	53.2358	14,419.9	56.2371	14,419.9	50.3921	14,419.9	35.6009	14,419.9	34.8095	14,419.9	48.6465	14,419.9	45.1613
14,928.2	94.2458	14,928.2	93.4935	14,928.2	93.2981	14,928.2	91.4153	14,928.2	91.1857	14,928.2	89.0899	14,928.2	89.1051	14,928.2	85.7349	14,928.2	85.3847	14,928.2	79.9659	14,928.2	78.0936	14,928.2	74.5386	14,928.2	71.0057	14,928.2	71.3611	14,928.2	65.7307	14,928.2	65.5539	14,928.2	69.5887	14,928.2	62.2611	14,928.2	65.2368	14,928.2	58.1246	14,928.2	65.6218	14,928.2	55.6114	14,928.2	61.4948	14,928.2	50.6853	14,928.2	61.8154	14,928.2	27.9363	14,928.2	56.6852	14,928.2	42.9877	14,928.2	54.2376	14,928.2	46.7602	14,928.2	54.7713	14,928.2	42.1821	14,928.2	43.5934	14,928.2	32.8595	14,928.2	41.9719	14,928.2	46.4808
15,455.6	92.9911	15,455.6	92.2586	15,455.6	91.8633	15,455.6	90.1279	15,455.6	89.4606	15,455.6	87.5032	15,455.6	87.3016	15,455.6	83.3441	15,455.6	83.4339	15,455.6	76.884	15,455.6	75.1671	15,455.6	70.392	15,455.6	67.7637	15,455.6	67.035	15,455.6	70.9681	15,455.6	60.623	15,455.6	71.848	15,455.6	62.5515	15,455.6	66.9429	15,455.6	58.2912	15,455.6	67.9932	15,455.6	55.7804	15,455.6	63.1473	15,455.6	50.0685	15,455.6	62.5658	15,455.6	45.3155	15,455.6	55.7069	15,455.6	47.2921	15,455.6	56.1568	15,455.6	49.0532	15,455.6	54.0994	15,455.6	33.9014	15,455.6	46.2817	15,455.6	49.0785	15,455.6	44.8682	15,455.6	49.9576
16,000.5	91.4057	16,000.5	90.8926	16,000.5	90.4605	16,000.5	88.9036	16,000.5	88.1174	16,000.5	85.8447	16,000.5	85.623	16,000.5	81.8608	16,000.5	82.0458	16,000.5	75.5001	16,000.5	75.026	16,000.5	67.8679	16,000.5	68.3989	16,000.5	65.8877	16,000.5	68.775	16,000.5	58.4295	16,000.5	67.1657	16,000.5	54.3912	16,000.5	61.9242	16,000.5	36.9988	16,000.5	65.3724	16,000.5	44.7012	16,000.5	60.3853	16,000.5	46.1082	16,000.5	59.615	16,000.5	47.6321	16,000.5	48.6171	16,000.5	47.3625	16,000.5	54.0038	16,000.5	50.9602	16,000.5	50.4331	16,000.5	44.128	16,000.5	44.8722	16,000.5	51.811	16,000.5	46.1257	16,000.5	52.5848
16,564.5	89.3754	16,564.5	88.6539	16,564.5	88.5318	16,564.5	86.7381	16,564.5	86.3781	16,564.5	83.6389	16,564.5	83.4033	16,564.5	77.8906	16,564.5	78.123	16,564.5	70.6682	16,564.5	69.8624	16,564.5	67.6312	16,564.5	60.4588	16,564.5	70.0712	16,564.5	48.3505	16,564.5	71.3876	16,564.5	63.5375	16,564.5	61.7516	16,564.5	63.4879	16,564.5	62.9564	16,564.5	56.8611	16,564.5	59.5051	16,564.5	55.9943	16,564.5	53.2088	16,564.5	51.3983	16,564.5	47.6224	16,564.5	49.1573	16,564.5	46.8102	16,564.5	47.7895	16,564.5	54.5587	16,564.5	48.5372	16,564.5	52.8641	16,564.5	41.0844	16,564.5	52.7555	16,564.5	34.6279	16,564.5	55.5593
17,148.9	87.0901	17,148.9	86.8188	17,148.9	87.0632	17,148.9	84.7668	17,148.9	85.081	17,148.9	81.3254	17,148.9	80.2904	17,148.9	73.4561	17,148.9	73.7026	17,148.9	68.7508	17,148.9	53.3155	17,148.9	71.5703	17,148.9	63.7241	17,148.9	73.48	17,148.9	67.111	17,148.9	73.9291	17,148.9	71.2145	17,148.9	66.4394	17,148.9	67.681	17,148.9	66.5899	17,148.9	61.5027	17,148.9	61.9581	17,148.9	58.6825	17,148.9	54.4935	17,148.9	55.5408	17,148.9	44.1645	17,148.9	53.262	17,148.9	55.1707	17,148.9	47.2918	17,148.9	55.2967	17,148.9	53.0204	17,148.9	56.4242	17,148.9	48.0137	17,148.9	51.8646	17,148.9	46.0653	17,148.9	55.5495
17,752.4	85.5667	17,752.4	86.1342	17,752.4	86.8899	17,752.4	82.9891	17,752.4	84.6339	17,752.4	78.5762	17,752.4	77.02	17,752.4	67.3045	17,752.4	73.9803	17,752.4	74.1698	17,752.4	53.1308	17,752.4	76.3471	17,752.4	66.9539	17,752.4	75.2045	17,752.4	68.5134	17,752.4	75.5413	17,752.4	70.9715	17,752.4	69.2532	17,752.4	67.3241	17,752.4	69.0444	17,752.4	60.4126	17,752.4	62.8823	17,752.4	57.1809	17,752.4	53.2409	17,752.4	54.7196	17,752.4	41.27	17,752.4	53.2134	17,752.4	59.0561	17,752.4	46.576	17,752.4	57.979	17,752.4	54.0784	17,752.4	58.9374	17,752.4	53.3823	17,752.4	53.4951	17,752.4	49.8479	17,752.4	56.4589
18,379.4	84.8187	18,379.4	86.3712	18,379.4	86.4108	18,379.4	82.1348	18,379.4	83.3735	18,379.4	75.5276	18,379.4	75.6481	18,379.4	59.5624	18,379.4	73.0266	18,379.4	76.4317	18,379.4	65.8378	18,379.4	78.4322	18,379.4	65.0658	18,379.4	75.7458	18,379.4	63.2081	18,379.4	76.9816	18,379.4	60.7901	18,379.4	70.7339	18,379.4	62.6928	18,379.4	70.2272	18,379.4	44.2494	18,379.4	63.1318	18,379.4	49.6643	18,379.4	55.1333	18,379.4	57.5469	18,379.4	50.0559	18,379.4	52.748	18,379.4	60.3629	18,379.4	39.4459	18,379.4	58.3731	18,379.4	51.4656	18,379.4	59.0636	18,379.4	56.3733	18,379.4	50.3639	18,379.4	51.6732	18,379.4	58.0166
19,026.9	82.957	19,026.9	85.3953	19,026.9	84.1674	19,026.9	79.5554	19,026.9	80.307	19,026.9	68.5234	19,026.9	74.2825	19,026.9	65.3222	19,026.9	69.5301	19,026.9	77.4974	19,026.9	73.2892	19,026.9	79.096	19,026.9	70.6036	19,026.9	76.3632	19,026.9	71.0173	19,026.9	76.3817	19,026.9	68.1022	19,026.9	69.6087	19,026.9	60.4785	19,026.9	69.5953	19,026.9	63.1819	19,026.9	61.7035	19,026.9	57.1903	19,026.9	54.3896	19,026.9	60.2185	19,026.9	49.6091	19,026.9	50.1898	19,026.9	59.4602	19,026.9	50.937	19,026.9	54.7156	19,026.9	52.9781	19,026.9	57.2737	19,026.9	57.5626	19,026.9	50.3553	19,026.9	55.9319	19,026.9	57.9065
19,697.8	79.729	19,697.8	81.7441	19,697.8	80.0685	19,697.8	71.7067	19,697.8	73.9906	19,697.8	62.6924	19,697.8	69.8058	19,697.8	71.2783	19,697.8	69.4268	19,697.8	77.871	19,697.8	75.3834	19,697.8	78.0967	19,697.8	75.248	19,697.8	75.7037	19,697.8	73.4186	19,697.8	74.8903	19,697.8	71.8445	19,697.8	68.9505	19,697.8	66.4906	19,697.8	68.0061	19,697.8	65.2537	19,697.8	58.4156	19,697.8	60.3992	19,697.8	52.1243	19,697.8	59.8326	19,697.8	48.0558	19,697.8	50.5573	19,697.8	57.9727	19,697.8	52.6206	19,697.8	50.8232	19,697.8	54.0363	19,697.8	55.1489	19,697.8	55.6545	19,697.8	52.1714	19,697.8	56.5687	19,697.8	56.9386
19,999.5	77.9221	19,999.5	78.9404	19,999.5	76.9377	19,999.5	60.3624	19,999.5	67.6672	19,999.5	64.7834	19,999.5	66.9759	19,999.5	73.1947	19,999.5	70.959	19,999.5	77.5947	19,999.5	75.8781	19,999.5	77.3558	19,999.5	76.1824	19,999.5	74.964	19,999.5	73.465	19,999.5	73.9474	19,999.5	72.9479	19,999.5	68.8086	19,999.5	68.5207	19,999.5	66.7629	19,999.5	65.5215	19,999.5	55.4354	19,999.5	61.0992	19,999.5	56.4308	19,999.5	58.3846	19,999.5	38.9852	19,999.5	47.215	19,999.5	54.3804	19,999.5	56.7688	19,999.5	50.8994	19,999.5	52.2539	19,999.5	53.8314	19,999.5	55.1472	19,999.5	51.6117	19,999.5	55.9994	19,999.5	55.4881
