"SPL Vertical"																																																																							
"On-Axis"		"10°"		"-10°"		"20°"		"-20°"		"30°"		"-30°"		"40°"		"-40°"		"50°"		"-50°"		"60°"		"-60°"		"70°"		"-70°"		"80°"		"-80°"		"90°"		"-90°"		"100°"		"-100°"		"110°"		"-110°"		"120°"		"-120°"		"130°"		"-130°"		"140°"		"-140°"		"150°"		"-150°"		"160°"		"-160°"		"170°"		"-170°"		"180°"	
"Frequency [Hz]"	"Sound Pessure Level [dB]  / [2.83V 1m] "	"Frequency [Hz]"	"Sound Pessure Level [dB]  / [2.83V 1m] "	"Frequency [Hz]"	"Sound Pessure Level [dB]  / [2.83V 1m] "	"Frequency [Hz]"	"Sound Pessure Level [dB]  / [2.83V 1m] "	"Frequency [Hz]"	"Sound Pessure Level [dB]  / [2.83V 1m] "	"Frequency [Hz]"	"Sound Pessure Level [dB]  / [2.83V 1m] "	"Frequency [Hz]"	"Sound Pessure Level [dB]  / [2.83V 1m] "	"Frequency [Hz]"	"Sound Pessure Level [dB]  / [2.83V 1m] "	"Frequency [Hz]"	"Sound Pessure Level [dB]  / [2.83V 1m] "	"Frequency [Hz]"	"Sound Pessure Level [dB]  / [2.83V 1m] "	"Frequency [Hz]"	"Sound Pessure Level [dB]  / [2.83V 1m] "	"Frequency [Hz]"	"Sound Pessure Level [dB]  / [2.83V 1m] "	"Frequency [Hz]"	"Sound Pessure Level [dB]  / [2.83V 1m] "	"Frequency [Hz]"	"Sound Pessure Level [dB]  / [2.83V 1m] "	"Frequency [Hz]"	"Sound Pessure Level [dB]  / [2.83V 1m] "	"Frequency [Hz]"	"Sound Pessure Level [dB]  / [2.83V 1m] "	"Frequency [Hz]"	"Sound Pessure Level [dB]  / [2.83V 1m] "	"Frequency [Hz]"	"Sound Pessure Level [dB]  / [2.83V 1m] "	"Frequency [Hz]"	"Sound Pessure Level [dB]  / [2.83V 1m] "	"Frequency [Hz]"	"Sound Pessure Level [dB]  / [2.83V 1m] "	"Frequency [Hz]"	"Sound Pessure Level [dB]  / [2.83V 1m] "	"Frequency [Hz]"	"Sound Pessure Level [dB]  / [2.83V 1m] "	"Frequency [Hz]"	"Sound Pessure Level [dB]  / [2.83V 1m] "	"Frequency [Hz]"	"Sound Pessure Level [dB]  / [2.83V 1m] "	"Frequency [Hz]"	"Sound Pessure Level [dB]  / [2.83V 1m] "	"Frequency [Hz]"	"Sound Pessure Level [dB]  / [2.83V 1m] "	"Frequency [Hz]"	"Sound Pessure Level [dB]  / [2.83V 1m] "	"Frequency [Hz]"	"Sound Pessure Level [dB]  / [2.83V 1m] "	"Frequency [Hz]"	"Sound Pessure Level [dB]  / [2.83V 1m] "	"Frequency [Hz]"	"Sound Pessure Level [dB]  / [2.83V 1m] "	"Frequency [Hz]"	"Sound Pessure Level [dB]  / [2.83V 1m] "	"Frequency [Hz]"	"Sound Pessure Level [dB]  / [2.83V 1m] "	"Frequency [Hz]"	"Sound Pessure Level [dB]  / [2.83V 1m] "	"Frequency [Hz]"	"Sound Pessure Level [dB]  / [2.83V 1m] "	"Frequency [Hz]"	"Sound Pessure Level [dB]  / [2.83V 1m] "	"Frequency [Hz]"	"Sound Pessure Level [dB]  / [2.83V 1m] "
20.5078	55.9023	20.5078	55.7032	20.5078	55.8477	20.5078	55.2607	20.5078	55.5073	20.5078	54.5656	20.5078	54.8212	20.5078	53.5871	20.5078	53.6858	20.5078	52.2665	20.5078	51.9262	20.5078	50.5117	20.5078	49.2762	20.5078	48.2216	20.5078	45.8465	20.5078	45.5842	20.5078	45.5777	20.5078	44.4074	20.5078	49.6795	20.5078	46.6231	20.5078	53.3245	20.5078	49.8101	20.5078	55.9762	20.5078	52.5492	20.5078	57.8912	20.5078	54.755	20.5078	59.2543	20.5078	56.5301	20.5078	60.177	20.5078	57.9575	20.5078	60.7291	20.5078	59.0881	20.5078	60.9562	20.5078	59.9489	20.5078	60.8896	20.5078	60.55
21.9727	58.5006	21.9727	58.3036	21.9727	58.4982	21.9727	57.9164	21.9727	58.2764	21.9727	57.3382	21.9727	57.8025	21.9727	56.5589	21.9727	57.031	21.9727	55.561	21.9727	55.9079	21.9727	54.327	21.9727	54.4068	21.9727	52.868	21.9727	52.6947	21.9727	51.3214	21.9727	51.5953	21.9727	50.171	21.9727	52.3368	21.9727	50.2283	21.9727	54.4173	21.9727	51.6148	21.9727	56.5781	21.9727	53.5482	21.9727	58.3511	21.9727	55.4393	21.9727	59.6811	21.9727	57.0915	21.9727	60.605	21.9727	58.4695	21.9727	61.1681	21.9727	59.579	21.9727	61.4076	21.9727	60.4288	21.9727	61.352	21.9727	61.0215
23.4375	58.4382	23.4375	58.2235	23.4375	58.4178	23.4375	57.7827	23.4375	58.1363	23.4375	57.1088	23.4375	57.546	23.4375	56.1785	23.4375	56.5686	23.4375	54.9504	23.4375	55.0824	23.4375	53.3701	23.4375	52.9274	23.4375	51.415	23.4375	50.1663	23.4375	49.3392	23.4375	48.7637	23.4375	48.3503	23.4375	51.3031	23.4375	49.7374	23.4375	54.7013	23.4375	52.2939	23.4375	57.3945	23.4375	54.7512	23.4375	59.3841	23.4375	56.8221	23.4375	60.8165	23.4375	58.5191	23.4375	61.7995	23.4375	59.8917	23.4375	62.4043	23.4375	60.9773	23.4375	62.6789	23.4375	61.7969	23.4375	62.6559	23.4375	62.3576
24.9023	58.443	24.9023	58.2492	24.9023	58.3885	24.9023	57.8179	24.9023	58.0585	24.9023	57.1461	24.9023	57.4072	24.9023	56.2194	24.9023	56.3687	24.9023	55.0209	24.9023	54.8779	24.9023	53.5645	24.9023	53.0144	24.9023	52.0142	24.9023	51.6106	24.9023	50.959	24.9023	52.4371	24.9023	51.3133	24.9023	55.0158	24.9023	53.0229	24.9023	57.6399	24.9023	55.1618	24.9023	59.7846	24.9023	57.1816	24.9023	61.4344	24.9023	58.937	24.9023	62.6531	24.9023	60.4186	24.9023	63.4999	24.9023	61.6447	24.9023	64.0199	24.9023	62.6318	24.9023	64.2466	24.9023	63.3884	24.9023	64.2055	24.9023	63.9152
26.3672	60.7415	26.3672	60.5674	26.3672	60.7243	26.3672	60.2117	26.3672	60.5001	26.3672	59.679	26.3672	60.0485	26.3672	58.9719	26.3672	59.3515	26.3672	58.0992	26.3672	58.4187	26.3672	57.096	26.3672	57.3594	26.3672	56.0688	26.3672	56.5314	26.3672	55.265	26.3672	56.5511	26.3672	55.0648	26.3672	57.6539	26.3672	55.6962	26.3672	59.3195	26.3672	56.9592	26.3672	60.9858	26.3672	58.4666	26.3672	62.4026	26.3672	59.9512	26.3672	63.5036	26.3672	61.2919	26.3672	64.2886	26.3672	62.444	26.3672	64.7755	26.3672	63.392	26.3672	64.9852	26.3672	64.1288	26.3672	64.9369	26.3672	64.647
27.832	61.0815	27.832	60.9212	27.832	61.0358	27.832	60.5668	27.832	60.7635	27.832	60.0242	27.832	60.2366	27.832	59.2969	27.832	59.4261	27.832	58.3965	27.832	58.3326	27.832	57.3672	27.832	57.0918	27.832	56.3418	27.832	56.219	27.832	55.6194	27.832	56.5646	27.832	55.6135	27.832	58.1763	27.832	56.4786	27.832	60.1966	27.832	57.9103	27.832	62.0451	27.832	59.5072	27.832	63.5481	27.832	61.0348	27.832	64.6881	27.832	62.3981	27.832	65.4877	27.832	63.5658	27.832	65.9754	27.832	64.5282	27.832	66.1778	27.832	65.2798	27.832	66.1174	27.832	65.8131
29.2969	62.0828	29.2969	61.9484	29.2969	62.0501	29.2969	61.659	29.2969	61.8382	29.2969	61.2282	29.2969	61.4405	29.2969	60.6753	29.2969	60.8693	29.2969	60.0357	29.2969	60.1925	29.2969	59.3789	29.2969	59.5997	29.2969	58.8307	29.2969	59.4372	29.2969	58.5739	29.2969	60.009	29.2969	58.7776	29.2969	61.2258	29.2969	59.4723	29.2969	62.7043	29.2969	60.5217	29.2969	64.1268	29.2969	61.7323	29.2969	65.3388	29.2969	62.9535	29.2969	66.2864	29.2969	64.0951	29.2969	66.9603	29.2969	65.1089	29.2969	67.3688	29.2969	65.968	29.2969	67.5262	29.2969	66.6543	29.2969	67.4488	29.2969	67.1529
30.7617	63.1137	30.7617	62.9784	30.7617	63.0886	30.7617	62.6939	30.7617	62.8915	30.7617	62.2724	30.7617	62.5145	30.7617	61.7305	30.7617	61.9647	30.7617	61.0982	30.7617	61.2933	30.7617	60.434	30.7617	60.6521	30.7617	59.8463	30.7617	60.3425	30.7617	59.5007	30.7617	60.6916	30.7617	59.571	30.7617	61.7159	30.7617	60.1252	30.7617	63.0877	30.7617	61.0651	30.7617	64.4684	30.7617	62.207	30.7617	65.6713	30.7617	63.39	30.7617	66.6236	30.7617	64.5114	30.7617	67.3071	30.7617	65.5138	30.7617	67.7261	30.7617	66.3653	30.7617	67.8934	30.7617	67.0451	30.7617	67.825	30.7617	67.5369
32.2266	63.892	32.2266	63.7777	32.2266	63.868	32.2266	63.5358	32.2266	63.6991	32.2266	63.1811	32.2266	63.3881	32.2266	62.7359	32.2266	62.9603	32.2266	62.2371	32.2266	62.49	32.2266	61.7465	32.2266	62.1334	32.2266	61.3605	32.2266	62.1216	32.2266	61.2024	32.2266	62.6289	32.2266	61.3799	32.2266	63.6022	32.2266	61.9214	32.2266	64.8044	32.2266	62.7541	32.2266	66.0026	32.2266	63.7528	32.2266	67.0542	32.2266	64.7993	32.2266	67.8931	32.2266	65.8085	32.2266	68.4961	32.2266	66.7261	32.2266	68.8613	32.2266	67.5174	32.2266	68.9965	32.2266	68.1583	32.2266	68.9143	32.2266	68.6296
33.6914	64.9506	33.6914	64.8347	33.6914	64.9464	33.6914	64.6082	33.6914	64.818	33.6914	64.2851	33.6914	64.5713	33.6914	63.8871	33.6914	64.2327	33.6914	63.4484	33.6914	63.8682	33.6914	63.0233	33.6914	63.6032	33.6914	62.6915	33.6914	63.6115	33.6914	62.5515	33.6914	64.0275	33.6914	62.6902	33.6914	64.8312	33.6914	63.1385	33.6914	65.8569	33.6914	63.8505	33.6914	66.9128	33.6914	64.7307	33.6914	67.8631	33.6914	65.6774	33.6914	68.6338	33.6914	66.6095	33.6914	69.1929	33.6914	67.4705	33.6914	69.5315	33.6914	68.2215	33.6914	69.6533	33.6914	68.8353	33.6914	69.5683	33.6914	69.2903
35.1563	65.8107	35.1563	65.6932	35.1563	65.8213	35.1563	65.4772	35.1563	65.7225	35.1563	65.1768	35.1563	65.5218	35.1563	64.8132	35.1563	65.246	35.1563	64.4194	35.1563	64.9557	35.1563	64.0455	35.1563	64.7583	35.1563	63.7617	35.1563	64.7953	35.1563	63.6517	35.1563	65.1756	35.1563	63.7876	35.1563	65.8902	35.1563	64.1967	35.1563	66.8106	35.1563	64.8445	35.1563	67.7745	35.1563	65.6526	35.1563	68.6555	35.1563	66.5329	35.1563	69.3782	35.1563	67.4101	35.1563	69.9061	35.1563	68.2285	35.1563	70.2262	35.1563	68.9482	35.1563	70.3391	35.1563	69.5402	35.1563	70.2532	35.1563	69.9815
36.6211	66.6157	36.6211	66.5038	36.6211	66.629	36.6211	66.3012	36.6211	66.5415	36.6211	66.0211	36.6211	66.361	36.6211	65.6838	36.6211	66.1131	36.6211	65.3197	36.6211	65.8535	36.6211	64.9741	36.6211	65.6779	36.6211	64.709	36.6211	65.7111	36.6211	64.5977	36.6211	66.0513	36.6211	64.7053	36.6211	66.6982	36.6211	65.0608	36.6211	67.5445	36.6211	65.6414	36.6211	68.4443	36.6211	66.3823	36.6211	69.2763	36.6211	67.2043	36.6211	69.9643	36.6211	68.0354	36.6211	70.4687	36.6211	68.8195	36.6211	70.7739	36.6211	69.515	36.6211	70.8789	36.6211	70.0908	36.6211	70.7909	36.6211	70.5228
38.0859	67.2353	38.0859	67.124	38.0859	67.2602	38.0859	66.9335	38.0859	67.1979	38.0859	66.6773	38.0859	67.0582	38.0859	66.376	38.0859	66.8683	38.0859	66.0601	38.0859	66.6821	38.0859	65.7729	38.0859	66.5855	38.0859	65.5706	38.0859	66.6822	38.0859	65.5158	38.0859	67.0467	38.0859	65.6603	38.0859	67.6718	38.0859	66.0245	38.0859	68.4661	38.0859	66.5858	38.0859	69.3051	38.0859	67.289	38.0859	70.0824	38.0859	68.0657	38.0859	70.7273	38.0859	68.8526	38.0859	71.2009	38.0859	69.5981	38.0859	71.4867	38.0859	70.2625	38.0859	71.5819	38.0859	70.8153	38.0859	71.493	38.0859	71.2321
39.5508	68.2135	39.5508	68.1126	39.5508	68.2411	39.5508	67.9457	39.5508	68.1952	39.5508	67.7257	39.5508	68.0856	39.5508	67.472	39.5508	67.9375	39.5508	67.2124	39.5508	67.799	39.5508	66.9842	39.5508	67.7434	39.5508	66.8335	39.5508	67.8561	39.5508	66.8095	39.5508	68.1976	39.5508	66.9524	39.5508	68.764	39.5508	67.2786	39.5508	69.4817	39.5508	67.7736	39.5508	70.2456	39.5508	68.396	39.5508	70.9601	39.5508	69.0914	39.5508	71.5575	39.5508	69.8053	39.5508	71.9985	39.5508	70.49	39.5508	72.2646	39.5508	71.1068	39.5508	72.3519	39.5508	71.6245	39.5508	72.2656	39.5508	72.0177
41.0156	68.8525	41.0156	68.7559	41.0156	68.8845	41.0156	68.6003	41.0156	68.8527	41.0156	68.3973	41.0156	68.7677	41.0156	68.1647	41.0156	68.6542	41.0156	67.9272	41.0156	68.5565	41.0156	67.7182	41.0156	68.5385	41.0156	67.5786	41.0156	68.6715	41.0156	67.552	41.0156	69.0041	41.0156	67.6752	41.0156	69.5314	41.0156	67.9659	41.0156	70.1914	41.0156	68.4153	41.0156	70.8934	41.0156	68.9897	41.0156	71.5518	41.0156	69.641	41.0156	72.1032	41.0156	70.3185	41.0156	72.5088	41.0156	70.9759	41.0156	72.749	41.0156	71.5741	41.0156	72.8187	41.0156	72.0811	41.0156	72.7223	41.0156	72.4709
42.4805	69.6102	42.4805	69.5132	42.4805	69.6511	42.4805	69.3649	42.4805	69.6375	42.4805	69.176	42.4805	69.5803	42.4805	68.9625	42.4805	69.503	42.4805	68.7476	42.4805	69.4458	42.4805	68.5611	42.4805	69.4642	42.4805	68.4395	42.4805	69.6176	42.4805	68.4215	42.4805	69.9451	42.4805	68.5397	42.4805	70.4411	42.4805	68.8109	42.4805	71.0528	42.4805	69.2291	42.4805	71.7018	42.4805	69.7663	42.4805	72.3112	42.4805	70.3805	42.4805	72.8219	42.4805	71.025	42.4805	73.1962	42.4805	71.6557	42.4805	73.414	42.4805	72.2343	42.4805	73.4691	42.4805	72.7289	42.4805	73.3652	42.4805	73.113
43.9453	70.4705	43.9453	70.3785	43.9453	70.5181	43.9453	70.2464	43.9453	70.5233	43.9453	70.0841	43.9453	70.4967	43.9453	69.9065	43.9453	70.46	43.9453	69.7346	43.9453	70.4485	43.9453	69.5946	43.9453	70.5086	43.9453	69.5175	43.9453	70.688	43.9453	69.5345	43.9453	71.016	43.9453	69.6713	43.9453	71.4861	43.9453	69.9404	43.9453	72.0538	43.9453	70.3362	43.9453	72.6526	43.9453	70.8358	43.9453	73.2154	43.9453	71.404	43.9453	73.6886	43.9453	72.0008	43.9453	74.0362	43.9453	72.5869	43.9453	74.2385	43.9453	73.1269	43.9453	74.2887	43.9453	73.5903	43.9453	74.1896	43.9453	73.9515
45.4102	71.5581	45.4102	71.4607	45.4102	71.6165	45.4102	71.3276	45.4102	71.6379	45.4102	71.167	45.4102	71.6313	45.4102	70.9917	45.4102	71.6146	45.4102	70.8194	45.4102	71.6162	45.4102	70.6731	45.4102	71.6734	45.4102	70.5797	45.4102	71.8249	45.4102	70.5677	45.4102	72.0968	45.4102	70.6617	45.4102	72.4887	45.4102	70.8764	45.4102	72.9691	45.4102	71.2114	45.4102	73.4843	45.4102	71.6496	45.4102	73.9758	45.4102	72.1614	45.4102	74.3929	45.4102	72.71	45.4102	74.6993	45.4102	73.2578	45.4102	74.8736	45.4102	73.7693	45.4102	74.9069	45.4102	74.2135	45.4102	74.8008	45.4102	74.5644
46.875	71.9929	46.875	71.8861	46.875	72.0625	46.875	71.7463	46.875	72.0963	46.875	71.5818	46.875	72.1021	46.875	71.4059	46.875	72.0965	46.875	71.2363	46.875	72.1062	46.875	71.0954	46.875	72.1663	46.875	71.0094	46.875	72.3143	46.875	71.0053	46.875	72.5763	46.875	71.1059	46.875	72.9539	46.875	71.3241	46.875	73.418	46.875	71.6585	46.875	73.9179	46.875	72.0923	46.875	74.3963	46.875	72.5966	46.875	74.8032	46.875	73.1363	46.875	75.1023	46.875	73.6749	46.875	75.2718	46.875	74.1783	46.875	75.3028	46.875	74.6161	46.875	75.1966	46.875	74.9625
48.3398	72.3072	48.3398	72.2126	48.3398	72.3804	48.3398	72.0999	48.3398	72.4343	48.3398	71.9769	48.3398	72.4776	48.3398	71.8556	48.3398	72.5267	48.3398	71.7519	48.3398	72.6062	48.3398	71.6849	48.3398	72.7461	48.3398	71.6756	48.3398	72.975	48.3398	71.7441	48.3398	73.3087	48.3398	71.9057	48.3398	73.7399	48.3398	72.1675	48.3398	74.2368	48.3398	72.5252	48.3398	74.7512	48.3398	72.9637	48.3398	75.2311	48.3398	73.459	48.3398	75.6318	48.3398	73.982	48.3398	75.9211	48.3398	74.5021	48.3398	76.0803	48.3398	74.9893	48.3398	76.1027	48.3398	75.4158	48.3398	75.9913	48.3398	75.7568
51.2695	74.075	51.2695	73.9825	51.2695	74.1557	51.2695	73.8804	51.2695	74.226	51.2695	73.774	51.2695	74.2918	51.2695	73.6714	51.2695	74.3641	51.2695	73.5835	51.2695	74.4586	51.2695	73.5231	51.2695	74.5945	51.2695	73.5047	51.2695	74.7901	51.2695	73.5426	51.2695	75.0561	51.2695	73.6491	51.2695	75.3895	51.2695	73.8324	51.2695	75.7705	51.2695	74.0937	51.2695	76.1654	51.2695	74.4264	51.2695	76.5351	51.2695	74.8163	51.2695	76.8424	51.2695	75.2427	51.2695	77.0585	51.2695	75.6808	51.2695	77.1651	51.2695	76.104	51.2695	77.155	51.2695	76.4859	51.2695	77.0304	51.2695	76.8019
52.7344	74.7737	52.7344	74.6796	52.7344	74.859	52.7344	74.5788	52.7344	74.9369	52.7344	74.4762	52.7344	75.0121	52.7344	74.3791	52.7344	75.094	52.7344	74.297	52.7344	75.1959	52.7344	74.2413	52.7344	75.3341	52.7344	74.2247	52.7344	75.5238	52.7344	74.2599	52.7344	75.7744	52.7344	74.3582	52.7344	76.0831	52.7344	74.5271	52.7344	76.433	52.7344	74.7685	52.7344	76.7947	52.7344	75.0774	52.7344	77.1328	52.7344	75.4414	52.7344	77.4131	52.7344	75.8422	52.7344	77.6082	52.7344	76.2569	52.7344	77.7005	52.7344	76.6603	52.7344	77.6827	52.7344	77.027	52.7344	77.5568	52.7344	77.3328
54.1992	75.4978	54.1992	75.4031	54.1992	75.5876	54.1992	75.3053	54.1992	75.6737	54.1992	75.2083	54.1992	75.76	54.1992	75.1183	54.1992	75.8541	54.1992	75.0433	54.1992	75.9666	54.1992	74.993	54.1992	76.1102	54.1992	74.9781	54.1992	76.2967	54.1992	75.0097	54.1992	76.5327	54.1992	75.0975	54.1992	76.8158	54.1992	75.2487	54.1992	77.1313	54.1992	75.4659	54.1992	77.4544	54.1992	75.7456	54.1992	77.7542	54.1992	76.0781	54.1992	78.0003	54.1992	76.4477	54.1992	78.1677	54.1992	76.834	54.1992	78.2397	54.1992	77.2139	54.1992	78.2095	54.1992	77.563	54.1992	78.0791	54.1992	77.8582
55.6641	76.1328	55.6641	76.0312	55.6641	76.2301	55.6641	75.9271	55.6641	76.3238	55.6641	75.8247	55.6641	76.4171	55.6641	75.7296	55.6641	76.5161	55.6641	75.6496	55.6641	76.63	55.6641	75.5939	55.6641	76.7697	55.6641	75.5726	55.6641	76.9457	55.6641	75.5964	55.6641	77.1645	55.6641	75.6747	55.6641	77.4245	55.6641	75.8147	55.6641	77.7138	55.6641	76.0191	55.6641	78.0102	55.6641	76.285	55.6641	78.2856	55.6641	76.6036	55.6641	78.5113	55.6641	76.9598	55.6641	78.6629	55.6641	77.3341	55.6641	78.7241	55.6641	77.7038	55.6641	78.6876	55.6641	78.0453	55.6641	78.555	55.6641	78.3357
58.5938	77.3613	58.5938	77.2626	58.5938	77.4643	58.5938	77.1699	58.5938	77.5716	58.5938	77.0863	58.5938	77.685	58.5938	77.0161	58.5938	77.8082	58.5938	76.9649	58.5938	77.9467	58.5938	76.9388	58.5938	78.107	58.5938	76.945	58.5938	78.2953	58.5938	76.9904	58.5938	78.5144	58.5938	77.0812	58.5938	78.7615	58.5938	77.2222	58.5938	79.0261	58.5938	77.415	58.5938	79.29	58.5938	77.6577	58.5938	79.53	58.5938	77.9437	58.5938	79.7225	58.5938	78.2618	58.5938	79.847	58.5938	78.5966	58.5938	79.8897	58.5938	78.9295	58.5938	79.8448	58.5938	79.2401	58.5938	79.7144	58.5938	79.5079
60.0586	77.9052	60.0586	77.8055	60.0586	78.0113	60.0586	77.7137	60.0586	78.1234	60.0586	77.6324	60.0586	78.2427	60.0586	77.5653	60.0586	78.3717	60.0586	77.5171	60.0586	78.5145	60.0586	77.4929	60.0586	78.6757	60.0586	77.4988	60.0586	78.8597	60.0586	77.5407	60.0586	79.0683	60.0586	77.6242	60.0586	79.2988	60.0586	77.7535	60.0586	79.5416	60.0586	77.9308	60.0586	79.7808	60.0586	78.1548	60.0586	79.996	60.0586	78.4202	60.0586	80.1655	60.0586	78.7175	60.0586	80.2709	60.0586	79.033	60.0586	80.2993	60.0586	79.3493	60.0586	80.2455	60.0586	79.6474	60.0586	80.1119	60.0586	79.9077
62.9883	79.0335	62.9883	78.9287	62.9883	79.1488	62.9883	78.8359	62.9883	79.2736	62.9883	78.7574	62.9883	79.4074	62.9883	78.6959	62.9883	79.5509	62.9883	78.6546	62.9883	79.7051	62.9883	78.6371	62.9883	79.8718	62.9883	78.6474	62.9883	80.0525	62.9883	78.6896	62.9883	80.2471	62.9883	78.7678	62.9883	80.4526	62.9883	78.8852	62.9883	80.6613	62.9883	79.0435	62.9883	80.8607	62.9883	79.2423	62.9883	81.0348	62.9883	79.4781	62.9883	81.1661	62.9883	79.7436	62.9883	81.2393	62.9883	80.0278	62.9883	81.2439	62.9883	80.3165	62.9883	81.1757	62.9883	80.5927	62.9883	81.0376	62.9883	80.8387
64.4531	79.6001	64.4531	79.4934	64.4531	79.7194	64.4531	79.4008	64.4531	79.8498	64.4531	79.3242	64.4531	79.9905	64.4531	79.2659	64.4531	80.1409	64.4531	79.2283	64.4531	80.301	64.4531	79.2144	64.4531	80.4711	64.4531	79.2271	64.4531	80.6513	64.4531	79.27	64.4531	80.8407	64.4531	79.3461	64.4531	81.0358	64.4531	79.4582	64.4531	81.2296	64.4531	79.6081	64.4531	81.4112	64.4531	79.7954	64.4531	81.5662	64.4531	80.0174	64.4531	81.6793	64.4531	80.2679	64.4531	81.7369	64.4531	80.5373	64.4531	81.7297	64.4531	80.8126	64.4531	81.6543	64.4531	81.0782	64.4531	81.5138	64.4531	81.3173
67.3828	80.7746	67.3828	80.6624	67.3828	80.9018	67.3828	80.567	67.3828	81.0418	67.3828	80.4901	67.3828	81.1926	67.3828	80.4331	67.3828	81.3519	67.3828	80.3977	67.3828	81.5175	67.3828	80.3854	67.3828	81.6877	67.3828	80.3979	67.3828	81.8604	67.3828	80.4374	67.3828	82.0335	67.3828	80.5058	67.3828	82.2036	67.3828	80.6051	67.3828	82.3649	67.3828	80.7365	67.3828	82.5091	67.3828	80.9004	67.3828	82.6256	67.3828	81.095	67.3828	82.7026	67.3828	81.3161	67.3828	82.7296	67.3828	81.5564	67.3828	82.6995	67.3828	81.8053	67.3828	82.6104	67.3828	82.0497	67.3828	82.4659	67.3828	82.2747
68.8477	81.329	68.8477	81.214	68.8477	81.46	68.8477	81.1171	68.8477	81.6047	68.8477	81.0398	68.8477	81.7603	68.8477	80.9836	68.8477	81.9238	68.8477	80.9494	68.8477	82.0921	68.8477	80.9383	68.8477	82.2625	68.8477	80.9516	68.8477	82.4322	68.8477	80.9904	68.8477	82.5986	68.8477	81.0564	68.8477	82.7581	68.8477	81.1508	68.8477	82.9055	68.8477	81.275	68.8477	83.0336	68.8477	81.4291	68.8477	83.1331	68.8477	81.6119	68.8477	83.194	68.8477	81.8199	68.8477	83.2072	68.8477	82.047	68.8477	83.1668	68.8477	82.2838	68.8477	83.0715	68.8477	82.5182	68.8477	82.9252	68.8477	82.7367
71.7773	82.3884	71.7773	82.2732	71.7773	82.5209	71.7773	82.1774	71.7773	82.6678	71.7773	82.1025	71.7773	82.8255	71.7773	82.0492	71.7773	82.9898	71.7773	82.0179	71.7773	83.1564	71.7773	82.0086	71.7773	83.321	71.7773	82.0215	71.7773	83.4796	71.7773	82.0567	71.7773	83.6285	71.7773	82.1148	71.7773	83.7643	71.7773	82.1964	71.7773	83.8828	71.7773	82.3023	71.7773	83.9785	71.7773	82.4331	71.7773	84.0452	71.7773	82.5883	71.7773	84.0757	71.7773	82.7659	71.7773	84.0638	71.7773	82.9619	71.7773	84.0059	71.7773	83.1694	71.7773	83.9021	71.7773	83.3788	71.7773	83.7569	71.7773	83.5787
74.707	83.3453	74.707	83.233	74.707	83.4758	74.707	83.1409	74.707	83.6212	74.707	83.0702	74.707	83.7773	74.707	83.0213	74.707	83.9392	74.707	82.9939	74.707	84.1017	74.707	82.9872	74.707	84.2594	74.707	83.0006	74.707	84.4075	74.707	83.0333	74.707	84.5417	74.707	83.085	74.707	84.6584	74.707	83.1559	74.707	84.7541	74.707	83.2464	74.707	84.8247	74.707	83.3571	74.707	84.8661	74.707	83.4883	74.707	84.8735	74.707	83.6392	74.707	84.8429	74.707	83.8074	74.707	84.7728	74.707	83.9881	74.707	84.6643	74.707	84.174	74.707	84.5225	74.707	84.3557
77.6367	84.3193	77.6367	84.2062	77.6367	84.4518	77.6367	84.1149	77.6367	84.6003	77.6367	84.0462	77.6367	84.7602	77.6367	84	77.6367	84.9257	77.6367	83.9754	77.6367	85.0904	77.6367	83.971	77.6367	85.2478	77.6367	83.9853	77.6367	85.3915	77.6367	84.0167	77.6367	85.5163	77.6367	84.0643	77.6367	85.6178	77.6367	84.1274	77.6367	85.6928	77.6367	84.2061	77.6367	85.7387	77.6367	84.3008	77.6367	85.7533	77.6367	84.4123	77.6367	85.7348	77.6367	84.5407	77.6367	85.6819	77.6367	84.6851	77.6367	85.5953	77.6367	84.8428	77.6367	85.4779	77.6367	85.0089	77.6367	85.3354	77.6367	85.176
79.1016	84.7347	79.1016	84.6211	79.1016	84.8682	79.1016	84.5297	79.1016	85.018	79.1016	84.4613	79.1016	85.179	79.1016	84.4158	79.1016	85.3452	79.1016	84.392	79.1016	85.5098	79.1016	84.3882	79.1016	85.6658	79.1016	84.4025	79.1016	85.8065	79.1016	84.4332	79.1016	85.9263	79.1016	84.4787	79.1016	86.0208	79.1016	84.5383	79.1016	86.0869	79.1016	84.6118	79.1016	86.1225	79.1016	84.6996	79.1016	86.1262	79.1016	84.8026	79.1016	86.0971	79.1016	84.9213	79.1016	86.0352	79.1016	85.0556	79.1016	85.9418	79.1016	85.2036	79.1016	85.8208	79.1016	85.3612	79.1016	85.6783	79.1016	85.5221
82.0313	85.4585	82.0313	85.344	82.0313	85.5938	82.0313	85.2527	82.0313	85.746	82.0313	85.1856	82.0313	85.9096	82.0313	85.1421	82.0313	86.0778	82.0313	85.1207	82.0313	86.2431	82.0313	85.1192	82.0313	86.3977	82.0313	85.135	82.0313	86.5343	82.0313	85.1656	82.0313	86.6465	82.0313	85.209	82.0313	86.7297	82.0313	85.2636	82.0313	86.7809	82.0313	85.329	82.0313	86.7989	82.0313	85.4055	82.0313	86.7835	82.0313	85.4941	82.0313	86.7358	82.0313	85.5961	82.0313	86.6577	82.0313	85.7124	82.0313	86.5526	82.0313	85.8426	82.0313	86.4255	82.0313	85.9845	82.0313	86.2832	82.0313	86.1336
84.9609	86.0979	84.9609	85.9817	84.9609	86.2358	84.9609	85.8899	84.9609	86.3912	84.9609	85.8232	84.9609	86.5581	84.9609	85.7809	84.9609	86.7293	84.9609	85.7613	84.9609	86.8965	84.9609	85.7615	84.9609	87.0513	84.9609	85.7785	84.9609	87.1856	84.9609	85.8092	84.9609	87.2926	84.9609	85.8509	84.9609	87.3672	84.9609	85.9017	84.9609	87.4066	84.9609	85.9608	84.9609	87.4098	84.9609	86.0281	84.9609	87.3779	84.9609	86.105	84.9609	87.3134	84.9609	86.1933	84.9609	87.2201	84.9609	86.2947	84.9609	87.1031	84.9609	86.4104	84.9609	86.9689	84.9609	86.5397	84.9609	86.8251	84.9609	86.6797
87.8906	86.6235	87.8906	86.5061	87.8906	86.7625	87.8906	86.4129	87.8906	86.9185	87.8906	86.345	87.8906	87.0855	87.8906	86.3015	87.8906	87.2557	87.8906	86.2805	87.8906	87.4207	87.8906	86.2789	87.8906	87.5715	87.8906	86.2933	87.8906	87.6997	87.8906	86.3203	87.8906	87.7981	87.8906	86.3566	87.8906	87.8612	87.8906	86.4001	87.8906	87.886	87.8906	86.4494	87.8906	87.8722	87.8906	86.5046	87.8906	87.8217	87.8906	86.5671	87.8906	87.7384	87.8906	86.6393	87.8906	87.6281	87.8906	86.724	87.8906	87.4979	87.8906	86.8235	87.8906	87.3557	87.8906	86.9389	87.8906	87.2102	87.8906	87.0691
90.8203	87.0134	90.8203	86.8941	90.8203	87.1535	90.8203	86.7985	90.8203	87.3096	90.8203	86.7276	90.8203	87.4751	90.8203	86.681	90.8203	87.6422	90.8203	86.6564	90.8203	87.8019	90.8203	86.6508	90.8203	87.9452	90.8203	86.6605	90.8203	88.0632	90.8203	86.6816	90.8203	88.1485	90.8203	86.7107	90.8203	88.1956	90.8203	86.7451	90.8203	88.2019	90.8203	86.7832	90.8203	88.1677	90.8203	86.8251	90.8203	88.0962	90.8203	86.8722	90.8203	87.9929	90.8203	86.9272	90.8203	87.8655	90.8203	86.9939	90.8203	87.7229	90.8203	87.0759	90.8203	87.5743	90.8203	87.1759	90.8203	87.4289	90.8203	87.2943
95.2148	87.35	95.2148	87.2302	95.2148	87.4908	95.2148	87.1344	95.2148	87.6474	95.2148	87.0637	95.2148	87.8132	95.2148	87.0175	95.2148	87.9797	95.2148	86.9935	95.2148	88.1379	95.2148	86.9882	95.2148	88.2781	95.2148	86.9975	95.2148	88.391	95.2148	87.0171	95.2148	88.4687	95.2148	87.0429	95.2148	88.5055	95.2148	87.0718	95.2148	88.4987	95.2148	87.102	95.2148	88.4489	95.2148	87.1332	95.2148	88.3601	95.2148	87.167	95.2148	88.2396	95.2148	87.2066	95.2148	88.0968	95.2148	87.2566	95.2148	87.9426	95.2148	87.322	95.2148	87.7879	95.2148	87.407	95.2148	87.6425	95.2148	87.5142
98.1445	87.4331	98.1445	87.3098	98.1445	87.5769	98.1445	87.2105	98.1445	87.7357	98.1445	87.1367	98.1445	87.9023	98.1445	87.088	98.1445	88.068	98.1445	87.0621	98.1445	88.2233	98.1445	87.0555	98.1445	88.3584	98.1445	87.0637	98.1445	88.4639	98.1445	87.082	98.1445	88.5319	98.1445	87.106	98.1445	88.5569	98.1445	87.132	98.1445	88.5364	98.1445	87.1577	98.1445	88.4716	98.1445	87.1826	98.1445	88.3678	98.1445	87.2079	98.1445	88.2334	98.1445	87.2369	98.1445	88.0793	98.1445	87.2748	98.1445	87.9177	98.1445	87.3272	98.1445	87.7604	98.1445	87.3998	98.1445	87.6176	98.1445	87.4964
101.074	87.494	101.074	87.3686	101.074	87.6392	101.074	87.267	101.074	87.7986	101.074	87.1907	101.074	87.9647	101.074	87.1396	101.074	88.1286	101.074	87.1115	101.074	88.2807	101.074	87.1028	101.074	88.4109	101.074	87.109	101.074	88.5098	101.074	87.125	101.074	88.5691	101.074	87.146	101.074	88.5833	101.074	87.168	101.074	88.5501	101.074	87.1883	101.074	88.4714	101.074	87.206	101.074	88.353	101.074	87.2224	101.074	88.2047	101.074	87.2407	101.074	88.039	101.074	87.2663	101.074	87.8694	101.074	87.3061	101.074	87.7089	101.074	87.3665	101.074	87.5679	101.074	87.4531
105.469	87.4187	105.469	87.2898	105.469	87.566	105.469	87.1834	105.469	87.7257	105.469	87.1016	105.469	87.8902	105.469	87.0443	105.469	88.0506	105.469	87.0096	105.469	88.197	105.469	86.994	105.469	88.3195	105.469	86.9928	105.469	88.4081	105.469	87.0008	105.469	88.4548	105.469	87.0131	105.469	88.4536	105.469	87.0252	105.469	88.4025	105.469	87.0343	105.469	88.3036	105.469	87.0393	105.469	88.1639	105.469	87.0414	105.469	87.9945	105.469	87.0442	105.469	87.8098	105.469	87.0538	105.469	87.6254	105.469	87.0779	105.469	87.4558	105.469	87.1249	105.469	87.3125	105.469	87.2018
108.398	87.363	108.398	87.235	108.398	87.5091	108.398	87.1294	108.398	87.6671	108.398	87.0484	108.398	87.8295	108.398	86.9923	108.398	87.9875	108.398	86.9593	108.398	88.1313	108.398	86.9458	108.398	88.2512	108.398	86.9472	108.398	88.3375	108.398	86.958	108.398	88.3821	108.398	86.9728	108.398	88.3793	108.398	86.9868	108.398	88.3267	108.398	86.9968	108.398	88.2266	108.398	87.0014	108.398	88.0859	108.398	87.0014	108.398	87.9158	108.398	87.0005	108.398	87.7309	108.398	87.005	108.398	87.5472	108.398	87.023	108.398	87.3796	108.398	87.0635	108.398	87.2399	108.398	87.1343
112.793	87.2066	112.793	87.0743	112.793	87.3558	112.793	86.9638	112.793	87.5156	112.793	86.8778	112.793	87.678	112.793	86.8172	112.793	87.8343	112.793	86.7804	112.793	87.9749	112.793	86.7641	112.793	88.0899	112.793	86.7636	112.793	88.17	112.793	86.773	112.793	88.2073	112.793	86.7867	112.793	88.196	112.793	86.7995	112.793	88.1342	112.793	86.8076	112.793	88.0243	112.793	86.8092	112.793	87.8737	112.793	86.8049	112.793	87.6944	112.793	86.7984	112.793	87.5019	112.793	86.7961	112.793	87.3131	112.793	86.8066	112.793	87.1436	112.793	86.8397	112.793	87.0053	112.793	86.904
117.188	86.9904	117.188	86.8544	117.188	87.1421	117.188	86.7393	117.188	87.3027	117.188	86.6483	117.188	87.4645	117.188	86.583	117.188	87.6186	117.188	86.5423	117.188	87.7556	117.188	86.5231	117.188	87.8659	117.188	86.5208	117.188	87.9399	117.188	86.5295	117.188	87.9695	117.188	86.5429	117.188	87.9486	117.188	86.5553	117.188	87.8751	117.188	86.5623	117.188	87.7517	117.188	86.5613	117.188	87.5867	117.188	86.5525	117.188	87.3938	117.188	86.5391	117.188	87.1905	117.188	86.5275	117.188	86.9955	117.188	86.5267	117.188	86.8254	117.188	86.5474	117.188	86.692	117.188	86.6
120.117	86.9289	120.117	86.7881	120.117	87.0831	120.117	86.6665	120.117	87.244	120.117	86.5678	120.117	87.4037	120.117	86.4941	120.117	87.5538	120.117	86.4451	120.117	87.6852	120.117	86.4184	120.117	87.7886	120.117	86.4097	120.117	87.855	120.117	86.4133	120.117	87.8766	120.117	86.4231	120.117	87.8477	120.117	86.4333	120.117	87.7665	120.117	86.4391	120.117	87.6358	120.117	86.4377	120.117	87.4644	120.117	86.4287	120.117	87.2661	120.117	86.415	120.117	87.0588	120.117	86.4025	120.117	86.8615	120.117	86.4002	120.117	86.691	120.117	86.4187	120.117	86.5587	120.117	86.4688
124.512	86.7539	124.512	86.6114	124.512	86.9089	124.512	86.4873	124.512	87.0695	124.512	86.3855	124.512	87.228	124.512	86.3083	124.512	87.376	124.512	86.2555	124.512	87.5044	124.512	86.2247	124.512	87.6041	124.512	86.2115	124.512	87.6658	124.512	86.2103	124.512	87.6816	124.512	86.2147	124.512	87.6458	124.512	86.2188	124.512	87.5561	124.512	86.2178	124.512	87.4156	124.512	86.2089	124.512	87.2333	124.512	86.1919	124.512	87.0236	124.512	86.1699	124.512	86.8056	124.512	86.1492	124.512	86.5993	124.512	86.1394	124.512	86.4225	124.512	86.1519	124.512	86.2874	124.512	86.1983
128.906	86.5	128.906	86.3537	128.906	86.656	128.906	86.2233	128.906	86.8149	128.906	86.1133	128.906	86.9688	128.906	86.0264	128.906	87.1097	128.906	85.9632	128.906	87.2289	128.906	85.9218	128.906	87.3175	128.906	85.8982	128.906	87.3666	128.906	85.8868	128.906	87.3686	128.906	85.8815	128.906	87.3178	128.906	85.8762	128.906	87.2122	128.906	85.866	128.906	87.0554	128.906	85.8478	128.906	86.8569	128.906	85.8214	128.906	86.6322	128.906	85.7896	128.906	86.4015	128.906	85.7592	128.906	86.1861	128.906	85.7399	128.906	86.0046	128.906	85.7439	128.906	85.8691	128.906	85.7836
133.301	86.2456	133.301	86.0965	133.301	86.4045	133.301	85.9635	133.301	86.5656	133.301	85.852	133.301	86.721	133.301	85.7651	133.301	86.8627	133.301	85.7035	133.301	86.9819	133.301	85.6654	133.301	87.07	133.301	85.6465	133.301	87.1184	133.301	85.6409	133.301	87.1193	133.301	85.6415	133.301	87.0672	133.301	85.6418	133.301	86.9602	133.301	85.6361	133.301	86.8018	133.301	85.621	133.301	86.6018	133.301	85.5958	133.301	86.376	133.301	85.5634	133.301	86.1451	133.301	85.5304	133.301	85.9307	133.301	85.507	133.301	85.7518	133.301	85.5058	133.301	85.6204	133.301	85.5401
139.16	85.9924	139.16	85.8355	139.16	86.1551	139.16	85.6915	139.16	86.3158	139.16	85.5667	139.16	86.4666	139.16	85.4654	139.16	86.5999	139.16	85.3895	139.16	86.7077	139.16	85.338	139.16	86.7821	139.16	85.3073	139.16	86.8151	139.16	85.2916	139.16	86.7999	139.16	85.284	139.16	86.7313	139.16	85.2775	139.16	86.6082	139.16	85.2661	139.16	86.4346	139.16	85.246	139.16	86.2207	139.16	85.216	139.16	85.9833	139.16	85.1789	139.16	85.7437	139.16	85.1409	139.16	85.524	139.16	85.1124	139.16	85.3432	139.16	85.1062	139.16	85.213	139.16	85.1359
143.555	85.7909	143.555	85.6303	143.555	85.9549	143.555	85.4808	143.555	86.1143	143.555	85.349	143.555	86.2613	143.555	85.2399	143.555	86.3885	143.555	85.156	143.555	86.4882	143.555	85.0968	143.555	86.5529	143.555	85.0588	143.555	86.575	143.555	85.0361	143.555	86.5478	143.555	85.0218	143.555	86.4664	143.555	85.0084	143.555	86.3298	143.555	84.9899	143.555	86.1426	143.555	84.9623	143.555	85.9156	143.555	84.9245	143.555	85.6664	143.555	84.8791	143.555	85.4174	143.555	84.8328	143.555	85.1915	143.555	84.7961	143.555	85.0081	143.555	84.7824	143.555	84.879	143.555	84.8059
147.949	85.6092	147.949	85.439	147.949	85.7798	147.949	85.2778	147.949	85.9425	147.949	85.1334	147.949	86.0893	147.949	85.0116	147.949	86.2127	147.949	84.9161	147.949	86.3055	147.949	84.8467	147.949	86.3605	147.949	84.8005	147.949	86.3708	147.949	84.7713	147.949	86.3304	147.949	84.7518	147.949	86.2351	147.949	84.7342	147.949	86.0845	147.949	84.712	147.949	85.8838	147.949	84.6806	147.949	85.6446	147.949	84.6391	147.949	85.385	147.949	84.5901	147.949	85.1277	147.949	84.5404	147.949	84.896	147.949	84.5006	147.949	84.7094	147.949	84.4843	147.949	84.5789	147.949	84.5062
153.809	85.3893	153.809	85.2086	153.809	85.5675	153.809	85.0342	153.809	85.7347	153.809	84.8746	153.809	85.883	153.809	84.7367	153.809	86.0051	153.809	84.6252	153.809	86.0935	153.809	84.5413	153.809	86.141	153.809	84.4825	153.809	86.1404	153.809	84.4433	153.809	86.0854	153.809	84.416	153.809	85.9717	153.809	84.3923	153.809	85.7996	153.809	84.3646	153.809	85.5748	153.809	84.328	153.809	85.3106	153.809	84.2804	153.809	85.0273	153.809	84.2243	153.809	84.7498	153.809	84.1665	153.809	84.5036	153.809	84.1178	153.809	84.309	153.809	84.093	153.809	84.177	153.809	84.108
159.668	85.2984	159.668	85.1241	159.668	85.4678	159.668	84.9532	159.668	85.6251	159.668	84.7946	159.668	85.7639	159.668	84.6558	159.668	85.879	159.668	84.5422	159.668	85.9653	159.668	84.4561	159.668	86.0174	159.668	84.3958	159.668	86.0289	159.668	84.3562	159.668	85.9931	159.668	84.3301	159.668	85.9044	159.668	84.3093	159.668	85.7601	159.668	84.2865	159.668	85.5626	159.668	84.2564	159.668	85.3217	159.668	84.2171	159.668	85.055	159.668	84.1711	159.668	84.7857	159.668	84.1249	159.668	84.5393	159.668	84.0896	159.668	84.3373	159.668	84.0794	159.668	84.1932	159.668	84.1095
165.527	85.2208	165.527	85.0394	165.527	85.3953	165.527	84.86	165.527	85.5548	165.527	84.6926	165.527	85.6933	165.527	84.5462	165.527	85.8057	165.527	84.4274	165.527	85.8878	165.527	84.3395	165.527	85.935	165.527	84.2816	165.527	85.9426	165.527	84.2488	165.527	85.9054	165.527	84.2335	165.527	85.8193	165.527	84.2269	165.527	85.6829	165.527	84.2212	165.527	85.4994	165.527	84.2104	165.527	85.2784	165.527	84.1919	165.527	85.036	165.527	84.1671	165.527	84.7926	165.527	84.1417	165.527	84.57	165.527	84.1252	165.527	84.386	165.527	84.1295	165.527	84.2514	165.527	84.1679
171.387	85.0875	171.387	84.8967	171.387	85.263	171.387	84.7001	171.387	85.4161	171.387	84.5087	171.387	85.5417	171.387	84.3339	171.387	85.6368	171.387	84.1851	171.387	85.699	171.387	84.0684	171.387	85.7257	171.387	83.9857	171.387	85.7135	171.387	83.9339	171.387	85.6583	171.387	83.9063	171.387	85.5564	171.387	83.8942	171.387	85.4071	171.387	83.8889	171.387	85.2142	171.387	83.8836	171.387	84.9882	171.387	83.8745	171.387	84.7455	171.387	83.8618	171.387	84.5066	171.387	83.8495	171.387	84.2914	171.387	83.8452	171.387	84.1151	171.387	83.8591	171.387	83.9856	171.387	83.9025
177.246	85.0023	177.246	84.8372	177.246	85.149	177.246	84.6616	177.246	85.2716	177.246	84.4849	177.246	85.367	177.246	84.317	177.246	85.434	177.246	84.1663	177.246	85.4722	177.246	84.0385	177.246	85.4809	177.246	83.9358	177.246	85.4578	177.246	83.8566	177.246	85.3991	177.246	83.7967	177.246	85.3002	177.246	83.7505	177.246	85.1584	177.246	83.7125	177.246	84.975	177.246	83.679	177.246	84.7581	177.246	83.6486	177.246	84.5228	177.246	83.6225	177.246	84.2884	177.246	83.6049	177.246	84.0748	177.246	83.6021	177.246	83.897	177.246	83.6219	177.246	83.7629	177.246	83.6729
183.105	84.7058	183.105	84.5374	183.105	84.8513	183.105	84.3554	183.105	84.9666	183.105	84.1712	183.105	85.0475	183.105	83.9966	183.105	85.0921	183.105	83.8421	183.105	85.0998	183.105	83.7153	183.105	85.071	183.105	83.619	183.105	85.0059	183.105	83.5518	183.105	84.9044	183.105	83.5076	183.105	84.7663	183.105	83.4783	183.105	84.5932	183.105	83.4554	183.105	84.3907	183.105	83.4318	183.105	84.1694	183.105	83.4034	183.105	83.945	183.105	83.3699	183.105	83.7359	183.105	83.3347	183.105	83.5592	183.105	83.3044	183.105	83.4259	183.105	83.2881	183.105	83.3395	183.105	83.2963
188.965	84.4148	188.965	84.2302	188.965	84.5805	188.965	84.0372	188.965	84.7188	188.965	83.8471	188.965	84.823	188.965	83.6708	188.965	84.8886	188.965	83.5167	188.965	84.9122	188.965	83.3894	188.965	84.8909	188.965	83.2889	188.965	84.8222	188.965	83.2108	188.965	84.7042	188.965	83.1476	188.965	84.5366	188.965	83.0909	188.965	84.3231	188.965	83.0336	188.965	84.0725	188.965	82.9713	188.965	83.7997	188.965	82.9034	188.965	83.5246	188.965	82.8336	188.965	83.2684	188.965	82.769	188.965	83.0499	188.965	82.7193	188.965	82.8816	188.965	82.6955	188.965	82.7685	188.965	82.7087
196.289	84.5453	196.289	84.3805	196.289	84.6788	196.289	84.1957	196.289	84.7736	196.289	84.0051	196.289	84.8264	196.289	83.8242	196.289	84.8376	196.289	83.6671	196.289	84.8097	196.289	83.5444	196.289	84.7462	196.289	83.4607	196.289	84.6495	196.289	83.4139	196.289	84.5206	196.289	83.3962	196.289	84.3604	196.289	83.396	196.289	84.1718	196.289	83.4011	196.289	83.9632	196.289	83.4007	196.289	83.7494	196.289	83.3879	196.289	83.5502	196.289	83.3601	196.289	83.3849	196.289	83.3194	196.289	83.2666	196.289	83.2713	196.289	83.1988	196.289	83.2243	196.289	83.1763	196.289	83.1888
203.613	84.6138	203.613	84.4209	203.613	84.7684	203.613	84.2029	203.613	84.876	203.613	83.976	203.613	84.9324	203.613	83.7576	203.613	84.938	203.613	83.564	203.613	84.897	203.613	83.4076	203.613	84.8163	203.613	83.2945	203.613	84.703	203.613	83.2239	203.613	84.5629	203.613	83.1893	203.613	84.4	203.613	83.1803	203.613	84.217	203.613	83.1855	203.613	84.0184	203.613	83.195	203.613	83.8133	203.613	83.2015	203.613	83.6162	203.613	83.2013	203.613	83.4443	203.613	83.1936	203.613	83.3117	203.613	83.1809	203.613	83.2243	203.613	83.1683	203.613	83.1784	203.613	83.1638
210.938	84.5235	210.938	84.3106	210.938	84.695	210.938	84.0694	210.938	84.816	210.938	83.8161	210.938	84.8815	210.938	83.5682	210.938	84.8905	210.938	83.3424	210.938	84.8451	210.938	83.1519	210.938	84.7495	210.938	83.0041	210.938	84.6083	210.938	82.8997	210.938	84.4263	210.938	82.8332	210.938	84.2087	210.938	82.7954	210.938	83.9631	210.938	82.776	210.938	83.7021	210.938	82.7659	210.938	83.4441	210.938	82.759	210.938	83.211	210.938	82.7523	210.938	83.022	210.938	82.7453	210.938	82.8867	210.938	82.7391	210.938	82.8025	210.938	82.7358	210.938	82.7581	210.938	82.7397
218.262	84.4484	218.262	84.2416	218.262	84.6116	218.262	84.0049	218.262	84.7219	218.262	83.7556	218.262	84.7749	218.262	83.5125	218.262	84.7711	218.262	83.2933	218.262	84.7144	218.262	83.1118	218.262	84.6112	218.262	82.9757	218.262	84.4685	218.262	82.8852	218.262	84.2917	218.262	82.8338	218.262	84.0851	218.262	82.8108	218.262	83.8529	218.262	82.8039	218.262	83.603	218.262	82.8019	218.262	83.3498	218.262	82.7969	218.262	83.1143	218.262	82.7844	218.262	82.9193	218.262	82.7632	218.262	82.7808	218.262	82.7352	218.262	82.7023	218.262	82.7049	218.262	82.6742	218.262	82.6805
225.586	84.5016	225.586	84.2686	225.586	84.6766	225.586	83.9937	225.586	84.783	225.586	83.6978	225.586	84.8167	225.586	83.4048	225.586	84.78	225.586	83.1383	225.586	84.6815	225.586	82.9181	225.586	84.5355	225.586	82.7568	225.586	84.3592	225.586	82.6579	225.586	84.1704	225.586	82.6164	225.586	83.9836	225.586	82.6215	225.586	83.8081	225.586	82.6598	225.586	83.6485	225.586	82.719	225.586	83.5077	225.586	82.7889	225.586	83.3886	225.586	82.8618	225.586	83.2939	225.586	82.9323	225.586	83.2237	225.586	82.996	225.586	83.1732	225.586	83.0503	225.586	83.1335	225.586	83.095
232.91	84.7535	232.91	84.4982	232.91	84.946	232.91	84.1967	232.91	85.0642	232.91	83.87	232.91	85.1016	232.91	83.542	232.91	85.0567	232.91	83.2371	232.91	84.933	232.91	82.9763	232.91	84.7378	232.91	82.7738	232.91	84.4827	232.91	82.6347	232.91	84.182	232.91	82.5555	232.91	83.8539	232.91	82.5257	232.91	83.52	232.91	82.5325	232.91	83.2063	232.91	82.5626	232.91	82.941	232.91	82.6049	232.91	82.7483	232.91	82.6496	232.91	82.6392	232.91	82.6884	232.91	82.6058	232.91	82.7135	232.91	82.6241	232.91	82.7184	232.91	82.664	232.91	82.7004
241.699	84.5742	241.699	84.3115	241.699	84.7716	241.699	84.0007	241.699	84.8921	241.699	83.6643	241.699	84.9299	241.699	83.3279	241.699	84.8855	241.699	83.0172	241.699	84.7646	241.699	82.7537	241.699	84.5781	241.699	82.5512	241.699	84.3405	241.699	82.4127	241.699	84.0678	241.699	82.3322	241.699	83.7751	241.699	82.2975	241.699	83.4763	241.699	82.2951	241.699	83.185	241.699	82.3129	241.699	82.9179	241.699	82.3418	241.699	82.6949	241.699	82.3748	241.699	82.534	241.699	82.4056	241.699	82.4422	241.699	82.4278	241.699	82.4098	241.699	82.4358	241.699	82.4137	241.699	82.4285
250.488	84.7018	250.488	84.3775	250.488	84.9429	250.488	83.9886	250.488	85.0891	250.488	83.5612	250.488	85.1349	250.488	83.1287	250.488	85.0807	250.488	82.7283	250.488	84.9331	250.488	82.395	250.488	84.7062	250.488	82.1536	250.488	84.4213	250.488	82.0122	250.488	84.107	250.488	81.9621	250.488	83.7939	250.488	81.9832	250.488	83.5086	250.488	82.0522	250.488	83.2667	250.488	82.1484	250.488	83.0725	250.488	82.2561	250.488	82.9234	250.488	82.3643	250.488	82.8154	250.488	82.4638	250.488	82.7444	250.488	82.5472	250.488	82.7026	250.488	82.6095	250.488	82.6768	250.488	82.6503
259.277	85.384	259.277	85.0922	259.277	85.5843	259.277	84.7188	259.277	85.6882	259.277	84.2809	259.277	85.6952	259.277	83.8037	259.277	85.6078	259.277	83.3207	259.277	85.4309	259.277	82.8717	259.277	85.1717	259.277	82.4963	259.277	84.8415	259.277	82.2254	259.277	84.4575	259.277	82.0724	259.277	84.046	259.277	82.0305	259.277	83.6438	259.277	82.0776	259.277	83.294	259.277	82.1851	259.277	83.0348	259.277	82.3262	259.277	82.8843	259.277	82.4784	259.277	82.8317	259.277	82.6243	259.277	82.8436	259.277	82.7494	259.277	82.879	259.277	82.8419	259.277	82.903	259.277	82.8936
268.066	85.1289	268.066	84.8417	268.066	85.3239	268.066	84.4737	268.066	85.4211	268.066	84.0431	268.066	85.4202	268.066	83.576	268.066	85.3248	268.066	83.1055	268.066	85.142	268.066	82.6695	268.066	84.8815	268.066	82.3048	268.066	84.5557	268.066	82.0394	268.066	84.1803	268.066	81.8854	268.066	83.777	268.066	81.8381	268.066	83.3769	268.066	81.8803	268.066	83.021	268.066	81.9896	268.066	82.7534	268.066	82.1429	268.066	82.6042	268.066	82.318	268.066	82.5728	268.066	82.4924	268.066	82.6253	268.066	82.6431	268.066	82.7099	268.066	82.7491	268.066	82.7775	268.066	82.795
276.855	85.2884	276.855	84.9956	276.855	85.4815	276.855	84.6109	276.855	85.5715	276.855	84.1478	276.855	85.5594	276.855	83.6261	276.855	85.4504	276.855	83.074	276.855	85.2539	276.855	82.5286	276.855	84.9824	276.855	82.0337	276.855	84.6501	276.855	81.6339	276.855	84.2716	276.855	81.3624	276.855	83.8608	276.855	81.2297	276.855	83.4333	276.855	81.2209	276.855	83.0111	276.855	81.3029	276.855	82.6264	276.855	81.438	276.855	82.3179	276.855	81.5927	276.855	82.1144	276.855	81.7414	276.855	82.017	276.855	81.8654	276.855	81.9946	276.855	81.9517	276.855	82.0009	276.855	81.9946
287.109	85.6205	287.109	85.3601	287.109	85.7696	287.109	84.9996	287.109	85.8011	287.109	84.5551	287.109	85.7135	287.109	84.0483	287.109	85.5111	287.109	83.5054	287.109	85.2051	287.109	82.9566	287.109	84.8152	287.109	82.4334	287.109	84.3704	287.109	81.9656	287.109	83.9086	287.109	81.5802	287.109	83.4723	287.109	81.3008	287.109	83.1003	287.109	81.1465	287.109	82.8183	287.109	81.1275	287.109	82.6347	287.109	81.2375	287.109	82.5402	287.109	81.449	287.109	82.5127	287.109	81.7172	287.109	82.5201	287.109	81.9913	287.109	82.5257	287.109	82.2277	287.109	82.4937	287.109	82.398
297.363	85.6993	297.363	85.4297	297.363	85.8601	297.363	85.0613	297.363	85.9058	297.363	84.6082	297.363	85.8332	297.363	84.0899	297.363	85.6429	297.363	83.5323	297.363	85.3395	297.363	82.9686	297.363	84.9329	297.363	82.4373	297.363	84.4402	297.363	81.9778	297.363	83.8885	297.363	81.6231	297.363	83.3196	297.363	81.3932	297.363	82.7921	297.363	81.2936	297.363	82.3764	297.363	81.3171	297.363	82.1328	297.363	81.4472	297.363	82.0795	297.363	81.6581	297.363	82.1756	297.363	81.9146	297.363	82.3397	297.363	82.1736	297.363	82.4878	297.363	82.3903	297.363	82.5595	297.363	82.5267
307.617	85.9348	307.617	85.6501	307.617	86.1211	307.617	85.2774	307.617	86.2003	307.617	84.8286	307.617	86.1656	307.617	84.3179	307.617	86.0122	307.617	83.7628	307.617	85.7388	307.617	83.1857	307.617	85.3487	307.617	82.615	307.617	84.8526	307.617	82.0854	307.617	84.2716	307.617	81.6369	307.617	83.6419	307.617	81.3105	307.617	83.0199	307.617	81.1393	307.617	82.4827	307.617	81.1387	307.617	82.1141	307.617	81.2962	307.617	81.9684	307.617	81.5704	307.617	82.032	307.617	81.8994	307.617	82.2225	307.617	82.2148	307.617	82.431	307.617	82.4562	307.617	82.5674	307.617	82.58
319.336	85.6751	319.336	85.4075	319.336	85.8359	319.336	85.0438	319.336	85.8838	319.336	84.5996	319.336	85.8167	319.336	84.0957	319.336	85.6358	319.336	83.558	319.336	85.3458	319.336	83.0159	319.336	84.9542	319.336	82.5004	319.336	84.4728	319.336	82.0404	319.336	83.9204	319.336	81.6593	319.336	83.3273	319.336	81.3757	319.336	82.7425	319.336	81.2051	319.336	82.2385	319.336	81.1622	319.336	81.9002	319.336	81.2545	319.336	81.788	319.336	81.4705	319.336	81.8908	319.336	81.77	319.336	82.1201	319.336	82.0881	319.336	82.356	319.336	82.352	319.336	82.5002	319.336	82.5005
329.59	85.9363	329.59	85.6552	329.59	86.1125	329.59	85.278	329.59	86.1774	329.59	84.8165	329.59	86.1266	329.59	84.2862	329.59	85.9574	329.59	83.7073	329.59	85.6688	329.59	83.1056	329.59	85.2614	329.59	82.5131	329.59	84.7379	329.59	81.9651	329.59	84.1058	329.59	81.4976	329.59	83.3824	329.59	81.1423	329.59	82.606	329.59	80.9242	329.59	81.854	329.59	80.8593	329.59	81.2514	329.59	80.9479	329.59	80.936	329.59	81.1647	329.59	80.9628	329.59	81.4547	329.59	81.2413	329.59	81.7407	329.59	81.5969	329.59	81.9431	329.59	81.8772	329.59	81.9987
341.309	85.6473	341.309	85.3744	341.309	85.8177	341.309	85.0099	341.309	85.8797	341.309	84.5693	341.309	85.8322	341.309	84.0721	341.309	85.6782	341.309	83.5412	341.309	85.4239	341.309	83.0018	341.309	85.0773	341.309	82.4808	341.309	84.6483	341.309	82.0059	341.309	84.1487	341.309	81.6039	341.309	83.5949	341.309	81.299	341.309	83.0128	341.309	81.1116	341.309	82.4458	341.309	81.0548	341.309	81.9602	341.309	81.1286	341.309	81.6347	341.309	81.3113	341.309	81.5221	341.309	81.5561	341.309	81.6033	341.309	81.7984	341.309	81.786	341.309	81.9722	341.309	81.9561	341.309	82.0293
353.027	85.74	353.027	85.4006	353.027	85.9498	353.027	84.9438	353.027	86.0227	353.027	84.3876	353.027	85.9556	353.027	83.7571	353.027	85.7492	353.027	83.0852	353.027	85.4084	353.027	82.4122	353.027	84.9426	353.027	81.7823	353.027	84.3669	353.027	81.2366	353.027	83.7042	353.027	80.807	353.027	82.9892	353.027	80.5155	353.027	82.2752	353.027	80.3789	353.027	81.6404	353.027	80.4115	353.027	81.1848	353.027	80.6139	353.027	80.9964	353.027	80.9546	353.027	81.0922	353.027	81.3629	353.027	81.3874	353.027	81.7455	353.027	81.7368	353.027	82.014	353.027	82.0053	353.027	82.1074
366.211	85.9432	366.211	85.6518	366.211	86.121	366.211	85.2559	366.211	86.179	366.211	84.7673	366.211	86.1135	366.211	84.2011	366.211	85.9248	366.211	83.5764	366.211	85.6176	366.211	82.9167	366.211	85.2019	366.211	82.2498	366.211	84.6924	366.211	81.6057	366.211	84.1066	366.211	81.0153	366.211	83.4639	366.211	80.5117	366.211	82.7866	366.211	80.1349	366.211	82.1117	366.211	79.9332	366.211	81.5068	366.211	79.9463	366.211	81.0731	366.211	80.1707	366.211	80.8976	366.211	80.5378	366.211	80.9726	366.211	80.9336	366.211	81.1777	366.211	81.2444	366.211	81.3557	366.211	81.3926
379.395	86.6291	379.395	86.3699	379.395	86.7576	379.395	85.9838	379.395	86.7536	379.395	85.4774	379.395	86.6171	379.395	84.8616	379.395	86.3501	379.395	84.1549	379.395	85.9573	379.395	83.3868	379.395	85.448	379.395	82.6016	379.395	84.839	379.395	81.8568	379.395	84.1577	379.395	81.2139	379.395	83.4456	379.395	80.7232	379.395	82.7584	379.395	80.414	379.395	82.1628	379.395	80.2971	379.395	81.7265	379.395	80.3692	379.395	81.4988	379.395	80.6069	379.395	81.4803	379.395	80.9554	379.395	81.6075	379.395	81.3321	379.395	81.7736	379.395	81.6488	379.395	81.8736	379.395	81.8386
392.578	86.3262	392.578	86.057	392.578	86.4879	392.578	85.6868	392.578	86.5372	392.578	85.2243	392.578	86.4695	392.578	84.6808	392.578	86.2792	392.578	84.0711	392.578	85.9596	392.578	83.4141	392.578	85.5053	392.578	82.7348	392.578	84.9165	392.578	82.0656	392.578	84.2077	392.578	81.4468	392.578	83.4194	392.578	80.9287	392.578	82.6288	392.578	80.5724	392.578	81.9513	392.578	80.4428	392.578	81.5154	392.578	80.5813	392.578	81.4056	392.578	80.965	392.578	81.6024	392.578	81.4947	392.578	81.9794	392.578	82.0312	392.578	82.3667	392.578	82.4464	392.578	82.6199	392.578	82.6541
405.762	85.9961	405.762	85.757	405.762	86.1084	405.762	85.395	405.762	86.0959	405.762	84.9196	405.762	85.9655	405.762	84.3465	405.762	85.7275	405.762	83.6984	405.762	85.3919	405.762	83.0072	405.762	84.9654	405.762	82.3147	405.762	84.4492	405.762	81.6704	405.762	83.8431	405.762	81.1251	405.762	83.1562	405.762	80.7231	405.762	82.4267	405.762	80.5009	405.762	81.7448	405.762	80.4877	405.762	81.2561	405.762	80.6956	405.762	81.1018	405.762	81.0947	405.762	81.3055	405.762	81.6003	405.762	81.7342	405.762	82.0923	405.762	82.1894	405.762	82.4548	405.762	82.5096	405.762	82.6054
420.41	86.773	420.41	86.5227	420.41	86.8912	420.41	86.1463	420.41	86.8718	420.41	85.6492	420.41	86.7104	420.41	85.0363	420.41	86.4048	420.41	84.314	420.41	85.9566	420.41	83.4942	420.41	85.3743	420.41	82.6014	420.41	84.6778	420.41	81.6809	420.41	83.9012	420.41	80.8052	420.41	83.0917	420.41	80.0747	420.41	82.303	420.41	79.6047	420.41	81.5922	420.41	79.4921	420.41	81.0365	420.41	79.7612	420.41	80.7492	420.41	80.3272	420.41	80.826	420.41	81.0223	420.41	81.2215	420.41	81.6646	420.41	81.7323	420.41	82.1108	420.41	82.1316	420.41	82.2745
435.059	86.6038	435.059	86.4031	435.059	86.683	435.059	86.0908	435.059	86.6344	435.059	85.6785	435.059	86.4579	435.059	85.1755	435.059	86.1582	435.059	84.5869	435.059	85.7447	435.059	83.9162	435.059	85.2312	435.059	83.1705	435.059	84.6369	435.059	82.3704	435.059	83.9884	435.059	81.5618	435.059	83.3204	435.059	80.8265	435.059	82.6752	435.059	80.2841	435.059	82.104	435.059	80.0614	435.059	81.6721	435.059	80.2189	435.059	81.4558	435.059	80.6896	435.059	81.5036	435.059	81.3073	435.059	81.7739	435.059	81.8921	435.059	82.1294	435.059	82.3089	435.059	82.4064	435.059	82.4842
451.172	87.0981	451.172	86.832	451.172	87.2066	451.172	86.4197	451.172	87.1509	451.172	85.8753	451.172	86.9286	451.172	85.2138	451.172	86.5407	451.172	84.4486	451.172	85.991	451.172	83.5908	451.172	85.2875	451.172	82.652	451.172	84.4483	451.172	81.653	451.172	83.5151	451.172	80.6417	451.172	82.572	451.172	79.7277	451.172	81.7551	451.172	79.1153	451.172	81.2197	451.172	79.0497	451.172	81.0606	451.172	79.6076	451.172	81.2608	451.172	80.574	451.172	81.7208	451.172	81.6211	451.172	82.3037	451.172	82.5037	451.172	82.8562	451.172	83.0905	451.172	83.2346	451.172	83.3318
465.82	86.9797	465.82	86.7778	465.82	87.0383	465.82	86.444	465.82	86.9446	465.82	85.9896	465.82	86.6917	465.82	85.424	465.82	86.2734	465.82	84.7523	465.82	85.683	465.82	83.9743	465.82	84.9154	465.82	83.0864	465.82	83.9764	465.82	82.0856	465.82	82.9062	465.82	80.9847	465.82	81.8154	465.82	79.8519	465.82	80.9059	465.82	78.8882	465.82	80.3987	465.82	78.4608	465.82	80.3681	465.82	78.8417	465.82	80.7001	465.82	79.8326	465.82	81.2303	465.82	80.9728	465.82	81.8261	465.82	81.93	465.82	82.3667	465.82	82.5573	465.82	82.7311	465.82	82.8167
483.398	86.5931	483.398	86.4123	483.398	86.7258	483.398	86.1939	483.398	86.7911	483.398	85.9371	483.398	86.7608	483.398	85.6259	483.398	86.5957	483.398	85.2289	483.398	86.2447	483.398	84.7011	483.398	85.6456	483.398	83.9869	483.398	84.7261	483.398	83.0163	483.398	83.4088	483.398	81.6985	483.398	81.6344	483.398	79.9222	483.398	79.4842	483.398	77.6502	483.398	77.6268	483.398	75.5122	483.398	77.5219	483.398	75.6746	483.398	79.1316	483.398	78.1049	483.398	81.0117	483.398	80.5695	483.398	82.5171	483.398	82.3777	483.398	83.5336	483.398	83.5166	483.398	84.0508	483.398	84.056
499.512	86.2942	499.512	86.0319	499.512	86.4691	499.512	85.7122	499.512	86.5632	499.512	85.3924	499.512	86.6072	499.512	85.1244	499.512	86.6261	499.512	84.9217	499.512	86.6087	499.512	84.7484	499.512	86.4978	499.512	84.5356	499.512	86.2027	499.512	84.2013	499.512	85.6174	499.512	83.6574	499.512	84.6296	499.512	82.8041	499.512	83.1233	499.512	81.5291	499.512	81.0184	499.512	79.7557	499.512	78.549	499.512	77.7348	499.512	77.1725	499.512	76.8365	499.512	78.3661	499.512	78.2391	499.512	80.4253	499.512	80.3564	499.512	81.9748	499.512	81.9417	499.512	82.7534	499.512	82.7441
517.09	87.4189	517.09	87.1531	517.09	87.5154	517.09	86.7395	517.09	87.4546	517.09	86.2287	517.09	87.2785	517.09	85.6845	517.09	87.0436	517.09	85.161	517.09	86.794	517.09	84.682	517.09	86.5332	517.09	84.2343	517.09	86.2132	517.09	83.7742	517.09	85.7469	517.09	83.2361	517.09	85.0303	517.09	82.5383	517.09	83.9609	517.09	81.5978	517.09	82.4686	517.09	80.3861	517.09	80.6321	517.09	79.1027	517.09	79.0336	517.09	78.4405	517.09	78.8357	517.09	79.0627	517.09	80.0221	517.09	80.4278	517.09	81.3536	517.09	81.6269	517.09	82.1491	517.09	82.2403
536.133	86.6815	536.133	86.3652	536.133	86.7426	536.133	85.8415	536.133	86.5536	536.133	85.2096	536.133	86.1738	536.133	84.6026	536.133	85.7131	536.133	84.1377	536.133	85.3046	536.133	83.8549	536.133	85.0357	536.133	83.7004	536.133	84.8846	536.133	83.566	536.133	84.7302	536.133	83.3338	536.133	84.4209	536.133	82.8946	536.133	83.8259	536.133	82.1577	536.133	82.8627	536.133	81.0941	536.133	81.5564	536.133	79.8917	536.133	80.2368	536.133	79.2148	536.133	79.7345	536.133	79.7634	536.133	80.5032	536.133	81.0751	536.133	81.7368	536.133	82.2309	536.133	82.6003	536.133	82.7802
555.176	87.5288	555.176	87.107	555.176	87.6617	555.176	86.4287	555.176	87.4977	555.176	85.5552	555.176	87.0531	555.176	84.5849	555.176	86.3731	555.176	83.6508	555.176	85.5403	555.176	82.8933	555.176	84.6766	555.176	82.3962	555.176	83.9168	555.176	82.1294	555.176	83.3409	555.176	81.9562	555.176	82.905	555.176	81.697	555.176	82.4546	555.176	81.1944	555.176	81.8119	555.176	80.38	555.176	80.8819	555.176	79.4223	555.176	79.812	555.176	78.9383	555.176	79.2159	555.176	79.5403	555.176	79.7369	555.176	80.7887	555.176	80.931	555.176	81.8339	555.176	81.9126	555.176	82.2453
574.219	87.8426	574.219	87.4885	574.219	87.9195	574.219	86.8674	574.219	87.7313	574.219	86.0183	574.219	87.3097	574.219	85.0172	574.219	86.7038	574.219	83.978	574.219	85.9751	574.219	83.0326	574.219	85.1856	574.219	82.283	574.219	84.3806	574.219	81.7525	574.219	83.5793	574.219	81.3768	574.219	82.781	574.219	81.0356	574.219	81.9853	574.219	80.5993	574.219	81.2086	574.219	79.9997	574.219	80.5011	574.219	79.36	574.219	79.9959	574.219	79.1205	574.219	79.9411	574.219	79.6907	574.219	80.4735	574.219	80.773	574.219	81.3135	574.219	81.7209	574.219	81.9821	574.219	82.1546
594.727	87.5762	594.727	87.3071	594.727	87.5833	594.727	86.7868	594.727	87.3408	594.727	86.0518	594.727	86.8813	594.727	85.1682	594.727	86.2542	594.727	84.229	594.727	85.5181	594.727	83.34	594.727	84.7298	594.727	82.5848	594.727	83.9307	594.727	81.9819	594.727	83.1382	594.727	81.464	594.727	82.3463	594.727	80.8969	594.727	81.5397	594.727	80.1289	594.727	80.722	594.727	79.0717	594.727	79.9568	594.727	77.8931	594.727	79.4089	594.727	77.3153	594.727	79.3205	594.727	78.0504	594.727	79.7951	594.727	79.4956	594.727	80.5652	594.727	80.6982	594.727	81.1716	594.727	81.2685
615.234	87.7397	615.234	87.4078	615.234	87.7737	615.234	86.8118	615.234	87.5086	615.234	86.0185	615.234	86.9768	615.234	85.1251	615.234	86.2439	615.234	84.2449	615.234	85.3997	615.234	83.4785	615.234	84.5341	615.234	82.8801	615.234	83.7054	615.234	82.4395	615.234	82.9216	615.234	82.0843	615.234	82.1495	615.234	81.6905	615.234	81.3325	615.234	81.1045	615.234	80.4032	615.234	80.2011	615.234	79.3488	615.234	79.0515	615.234	78.4542	615.234	78.2919	615.234	78.4886	615.234	78.874	615.234	79.7033	615.234	80.4012	615.234	81.1898	615.234	81.7434	615.234	82.1723	615.234	82.373
637.207	87.7401	637.207	87.2986	637.207	87.904	637.207	86.6124	637.207	87.7822	637.207	85.7437	637.207	87.3888	637.207	84.7887	637.207	86.7586	637.207	83.8661	637.207	85.9439	637.207	83.0738	637.207	85.0097	637.207	82.4373	637.207	84.0229	637.207	81.9098	637.207	83.0329	637.207	81.42	637.207	82.0529	637.207	80.9011	637.207	81.0672	637.207	80.2852	637.207	80.0808	637.207	79.5327	637.207	79.2088	637.207	78.7958	637.207	78.777	637.207	78.6384	637.207	79.1922	637.207	79.5516	637.207	80.3721	637.207	81.0242	637.207	81.6861	637.207	82.2358	637.207	82.5794	637.207	82.7861
659.18	88.2708	659.18	87.9666	659.18	88.2716	659.18	87.357	659.18	87.9953	659.18	86.4682	659.18	87.4888	659.18	85.3608	659.18	86.814	659.18	84.1415	659.18	86.0387	659.18	82.9669	659.18	85.2221	659.18	82.009	659.18	84.3983	659.18	81.3579	659.18	83.5634	659.18	80.9361	659.18	82.677	659.18	80.5291	659.18	81.6737	659.18	79.8821	659.18	80.4715	659.18	78.7847	659.18	78.9907	659.18	77.2741	659.18	77.3426	659.18	76.3248	659.18	76.517	659.18	77.4684	659.18	77.7807	659.18	79.6321	659.18	79.8883	659.18	81.2378	659.18	81.3743	659.18	81.8399
682.617	87.8021	682.617	87.5302	682.617	87.7441	682.617	86.9459	682.617	87.3746	682.617	86.1106	682.617	86.7464	682.617	85.1373	682.617	85.9447	682.617	84.1761	682.617	85.0773	682.617	83.3573	682.617	84.2476	682.617	82.7258	682.617	83.516	682.617	82.2456	682.617	82.8728	682.617	81.8524	682.617	82.2561	682.617	81.4627	682.617	81.6052	682.617	80.9324	682.617	80.879	682.617	80.0578	682.617	79.999	682.617	78.7154	682.617	78.8453	682.617	77.3427	682.617	77.6463	682.617	77.4107	682.617	77.5933	682.617	79.0494	682.617	79.0776	682.617	80.5606	682.617	80.5606	682.617	81.1145
707.52	88.1387	707.52	87.7861	707.52	88.147	707.52	87.1032	707.52	87.8226	707.52	86.1428	707.52	87.1995	707.52	85.0169	707.52	86.3378	707.52	83.9039	707.52	85.3255	707.52	82.9915	707.52	84.2649	707.52	82.3503	707.52	83.2401	707.52	81.8881	707.52	82.2875	707.52	81.4604	707.52	81.4043	707.52	80.967	707.52	80.5943	707.52	80.3266	707.52	79.8973	707.52	79.4243	707.52	79.3534	707.52	78.2182	707.52	78.9994	707.52	77.2339	707.52	79.0252	707.52	77.7606	707.52	79.7081	707.52	79.5824	707.52	80.8356	707.52	81.1938	707.52	81.7462	707.52	81.9355
732.422	88.5554	732.422	88.2963	732.422	88.4517	732.422	87.6773	732.422	88.0082	732.422	86.726	732.422	87.2761	732.422	85.5069	732.422	86.3307	732.422	84.16	732.422	85.2598	732.422	82.9471	732.422	84.1496	732.422	82.1766	732.422	83.077	732.422	81.9188	732.422	82.1027	732.422	81.8903	732.422	81.2511	732.422	81.7122	732.422	80.4894	732.422	81.0988	732.422	79.727	732.422	79.8693	732.422	78.8267	732.422	78.0709	732.422	77.7049	732.422	76.702	732.422	76.8178	732.422	77.5958	732.422	77.4605	732.422	79.6964	732.422	79.4025	732.422	81.2218	732.422	81.0435	732.422	81.6899
757.324	88.5108	757.324	88.2853	757.324	88.3074	757.324	87.6094	757.324	87.7276	757.324	86.5036	757.324	86.8549	757.324	85.065	757.324	85.8051	757.324	83.526	757.324	84.7123	757.324	82.264	757.324	83.6902	757.324	81.5917	757.324	82.7853	757.324	81.4745	757.324	81.9571	757.324	81.6254	757.324	81.1283	757.324	81.7494	757.324	80.3047	757.324	81.5918	757.324	79.6318	757.324	80.9186	757.324	79.1349	757.324	79.5944	757.324	78.4385	757.324	78.0152	757.324	77.2542	757.324	77.7964	757.324	76.652	757.324	79.3469	757.324	78.1848	757.324	80.7733	757.324	80.1676	757.324	81.1102
785.156	89.2448	785.156	89.1389	785.156	88.9695	785.156	88.6056	785.156	88.37	785.156	87.6064	785.156	87.522	785.156	86.1253	785.156	86.5214	785.156	84.2411	785.156	85.4763	785.156	82.3004	785.156	84.4848	785.156	81.0012	785.156	83.5799	785.156	80.7139	785.156	82.6388	785.156	80.9342	785.156	81.3616	785.156	81.0591	785.156	79.4426	785.156	80.7561	785.156	77.2627	785.156	79.7674	785.156	76.8764	785.156	77.8939	785.156	78.0721	785.156	76.0068	785.156	78.5213	785.156	77.2934	785.156	78.2431	785.156	80.1811	785.156	79.1024	785.156	81.9485	785.156	81.028	785.156	82.1986
811.523	88.9922	811.523	88.9986	811.523	88.6632	811.523	88.6637	811.523	88.0353	811.523	87.9613	811.523	87.1493	811.523	86.8523	811.523	86.0704	811.523	85.3014	811.523	84.8948	811.523	83.3648	811.523	83.778	811.523	81.4402	811.523	82.9425	811.523	80.4333	811.523	82.4787	811.523	80.676	811.523	82.0702	811.523	81.2365	811.523	81.1134	811.523	81.254	811.523	79.0503	811.523	80.2782	811.523	76.114	811.523	77.9633	811.523	75.5665	811.523	74.4855	811.523	77.515	811.523	74.1564	811.523	78.7221	811.523	77.4118	811.523	79.2536	811.523	79.5214	811.523	79.8102	811.523	80.1461
840.82	89.5229	840.82	89.4961	840.82	89.2414	840.82	89.1113	840.82	88.714	840.82	88.3203	840.82	88.0195	840.82	87.0841	840.82	87.22	840.82	85.4033	840.82	86.3199	840.82	83.3888	840.82	85.3094	840.82	81.4046	840.82	84.2763	840.82	80.1704	840.82	83.3989	840.82	80.1757	840.82	82.6911	840.82	80.8985	840.82	81.8296	840.82	81.4738	840.82	80.4076	840.82	81.3046	840.82	78.3513	840.82	79.9612	840.82	76.2642	840.82	77.2221	840.82	75.2585	840.82	75.2466	840.82	76.2899	840.82	77.8066	840.82	78.7109	840.82	80.409	840.82	80.6819	840.82	81.337
870.117	89.1182	870.117	89.1882	870.117	88.7668	870.117	88.8679	870.117	88.2385	870.117	88.0642	870.117	87.6011	870.117	86.713	870.117	86.8669	870.117	84.8026	870.117	86.0164	870.117	82.4515	870.117	85.0786	870.117	80.1478	870.117	84.2337	870.117	78.9744	870.117	83.761	870.117	79.4538	870.117	83.6184	870.117	80.5706	870.117	83.2349	870.117	81.3265	870.117	81.9194	870.117	81.2415	870.117	79.2475	870.117	80.0556	870.117	75.81	870.117	77.807	870.117	74.1185	870.117	76.2138	870.117	74.3314	870.117	77.7158	870.117	76.1263	870.117	79.5666	870.117	78.6216	870.117	79.9381
900.879	88.7727	900.879	88.8976	900.879	88.4143	900.879	88.6553	900.879	87.9309	900.879	87.9296	900.879	87.3725	900.879	86.6549	900.879	86.719	900.879	84.8311	900.879	85.8983	900.879	82.5059	900.879	84.8471	900.879	79.7208	900.879	83.6472	900.879	76.647	900.879	82.6674	900.879	74.8511	900.879	82.2904	900.879	76.3727	900.879	82.2236	900.879	78.533	900.879	81.7504	900.879	79.4167	900.879	80.4713	900.879	78.5063	900.879	78.5578	900.879	75.2838	900.879	76.6428	900.879	72.3476	900.879	75.6053	900.879	76.7982	900.879	76.9566	900.879	79.9701	900.879	79.4336	900.879	80.6936
933.105	88.3057	933.105	88.4284	933.105	87.9056	933.105	88.1739	933.105	87.3288	933.105	87.4601	933.105	86.6639	933.105	86.2426	933.105	85.9546	933.105	84.5304	933.105	85.1482	933.105	82.3773	933.105	84.1355	933.105	79.8132	933.105	82.9902	933.105	76.8125	933.105	82.2395	933.105	74.162	933.105	82.3478	933.105	75.0095	933.105	82.7016	933.105	77.8371	933.105	82.3251	933.105	79.5367	933.105	80.7587	933.105	79.4007	933.105	78.2791	933.105	76.9467	933.105	75.7	933.105	72.5789	933.105	73.3825	933.105	75.2459	933.105	74.7628	933.105	79.0051	933.105	78.3582	933.105	79.9409
965.332	87.7971	965.332	87.8419	965.332	87.5337	965.332	87.5724	965.332	87.1659	965.332	86.9275	965.332	86.7935	965.332	85.9115	965.332	86.4247	965.332	84.62	965.332	85.9097	965.332	83.21	965.332	84.9623	965.332	81.7627	965.332	83.2462	965.332	80.0742	965.332	80.6379	965.332	77.6551	965.332	78.7308	965.332	74.7823	965.332	80.1661	965.332	75.4082	965.332	81.9309	965.332	78.3079	965.332	82.1264	965.332	79.6933	965.332	80.9055	965.332	78.961	965.332	78.9056	965.332	75.4753	965.332	75.817	965.332	68.5448	965.332	71.0682	965.332	71.6527	965.332	72.326	965.332	74.2418
1,000.49	88.8033	1,000.49	88.6531	1,000.49	88.5658	1,000.49	88.1221	1,000.49	88.0253	1,000.49	87.2481	1,000.49	87.3706	1,000.49	86.0548	1,000.49	86.8007	1,000.49	84.5376	1,000.49	86.3795	1,000.49	82.6782	1,000.49	85.9665	1,000.49	80.5685	1,000.49	85.2739	1,000.49	78.7224	1,000.49	83.9775	1,000.49	77.8213	1,000.49	81.8448	1,000.49	77.3991	1,000.49	79.2592	1,000.49	76.5301	1,000.49	78.1406	1,000.49	75.6117	1,000.49	78.9616	1,000.49	76.2	1,000.49	79.9748	1,000.49	77.5807	1,000.49	80.2709	1,000.49	78.2771	1,000.49	79.1456	1,000.49	78.1301	1,000.49	76.4667	1,000.49	77.4281	1,000.49	74.7881	1,000.49	76.1161
1,035.64	89.2894	1,035.64	89.2003	1,035.64	88.9989	1,035.64	88.7503	1,035.64	88.4037	1,035.64	88.0155	1,035.64	87.6468	1,035.64	87.05	1,035.64	86.8763	1,035.64	85.8218	1,035.64	86.1769	1,035.64	84.202	1,035.64	85.5277	1,035.64	82.0394	1,035.64	84.7946	1,035.64	79.5051	1,035.64	83.802	1,035.64	77.8785	1,035.64	82.4947	1,035.64	78.1265	1,035.64	81.0445	1,035.64	78.5392	1,035.64	79.6727	1,035.64	77.8168	1,035.64	78.7401	1,035.64	75.9104	1,035.64	79.2896	1,035.64	74.8263	1,035.64	80.4924	1,035.64	76.8486	1,035.64	80.3476	1,035.64	79.0357	1,035.64	78.3704	1,035.64	79.6742	1,035.64	76.9223	1,035.64	78.5328
1,072.27	89.5685	1,072.27	89.1322	1,072.27	89.5617	1,072.27	88.3462	1,072.27	89.1438	1,072.27	87.4382	1,072.27	88.4144	1,072.27	86.6562	1,072.27	87.441	1,072.27	86.0479	1,072.27	86.2332	1,072.27	85.4266	1,072.27	84.9573	1,072.27	84.6268	1,072.27	84.0377	1,072.27	83.7679	1,072.27	83.6339	1,072.27	83.1561	1,072.27	83.2832	1,072.27	82.7583	1,072.27	82.3588	1,072.27	82.1621	1,072.27	80.2359	1,072.27	81.0164	1,072.27	76.0316	1,072.27	78.9689	1,072.27	73.812	1,072.27	75.0971	1,072.27	78.3175	1,072.27	66.9081	1,072.27	80.0868	1,072.27	71.4958	1,072.27	79.2812	1,072.27	76.7456	1,072.27	78.1444	1,072.27	78.1169
1,108.89	89.4536	1,108.89	89.6693	1,108.89	88.7351	1,108.89	89.2828	1,108.89	87.8615	1,108.89	88.4378	1,108.89	87.2129	1,108.89	87.4552	1,108.89	86.7988	1,108.89	86.605	1,108.89	86.3315	1,108.89	85.7535	1,108.89	85.5646	1,108.89	84.439	1,108.89	84.3023	1,108.89	82.4152	1,108.89	82.4423	1,108.89	80.3981	1,108.89	80.825	1,108.89	79.9915	1,108.89	81.2701	1,108.89	80.7536	1,108.89	82.2085	1,108.89	81.2743	1,108.89	81.3793	1,108.89	80.9745	1,108.89	78.4747	1,108.89	79.3381	1,108.89	77.168	1,108.89	75.8285	1,108.89	78.1385	1,108.89	74.2561	1,108.89	77.5472	1,108.89	77.4267	1,108.89	77.513	1,108.89	78.488
1,148.44	88.1059	1,148.44	88.4347	1,148.44	87.5677	1,148.44	88.3682	1,148.44	87.1475	1,148.44	87.8537	1,148.44	86.9992	1,148.44	86.9615	1,148.44	86.7934	1,148.44	85.9185	1,148.44	86.1535	1,148.44	84.971	1,148.44	85.0639	1,148.44	83.9975	1,148.44	83.7409	1,148.44	82.6313	1,148.44	82.2798	1,148.44	81.0759	1,148.44	80.6527	1,148.44	80.4075	1,148.44	79.514	1,148.44	80.6922	1,148.44	79.4774	1,148.44	80.7267	1,148.44	79.037	1,148.44	79.8857	1,148.44	77.8509	1,148.44	78.0292	1,148.44	78.2591	1,148.44	75.7165	1,148.44	78.4974	1,148.44	75.6995	1,148.44	76.4609	1,148.44	77.2828	1,148.44	75.4166	1,148.44	77.1762
1,189.45	87.157	1,189.45	87.544	1,189.45	86.7427	1,189.45	87.6499	1,189.45	86.5543	1,189.45	87.3425	1,189.45	86.5094	1,189.45	86.541	1,189.45	86.3433	1,189.45	85.2844	1,189.45	85.9835	1,189.45	83.8792	1,189.45	85.4793	1,189.45	82.5095	1,189.45	84.7039	1,189.45	80.6843	1,189.45	83.272	1,189.45	78.4124	1,189.45	80.8881	1,189.45	78.2622	1,189.45	78.6063	1,189.45	80.0303	1,189.45	78.5009	1,189.45	80.8706	1,189.45	78.353	1,189.45	80.2894	1,189.45	77.1581	1,189.45	78.4357	1,189.45	78.4246	1,189.45	75.6773	1,189.45	79.8764	1,189.45	74.4706	1,189.45	78.4805	1,189.45	75.754	1,189.45	75.4265	1,189.45	75.6295
1,230.47	87.1904	1,230.47	87.3816	1,230.47	86.9616	1,230.47	87.3338	1,230.47	86.9038	1,230.47	86.9897	1,230.47	86.9853	1,230.47	86.3007	1,230.47	86.9072	1,230.47	85.0748	1,230.47	86.3679	1,230.47	83.1689	1,230.47	85.312	1,230.47	80.908	1,230.47	83.8982	1,230.47	78.7077	1,230.47	82.2864	1,230.47	76.0754	1,230.47	80.6263	1,230.47	74.9681	1,230.47	79.3672	1,230.47	78.2818	1,230.47	78.7094	1,230.47	80.61	1,230.47	77.6731	1,230.47	80.5474	1,230.47	76.6356	1,230.47	78.1351	1,230.47	78.2195	1,230.47	75.3693	1,230.47	79.5163	1,230.47	76.8066	1,230.47	78.4676	1,230.47	77.9642	1,230.47	76.4087	1,230.47	77.0261
1,274.41	87.7021	1,274.41	87.8814	1,274.41	87.5644	1,274.41	87.7968	1,274.41	87.635	1,274.41	87.3453	1,274.41	87.7253	1,274.41	86.5858	1,274.41	87.503	1,274.41	85.4512	1,274.41	86.7552	1,274.41	83.7812	1,274.41	85.5144	1,274.41	81.831	1,274.41	84.0899	1,274.41	80.1576	1,274.41	82.8195	1,274.41	77.9134	1,274.41	81.5363	1,274.41	72.4314	1,274.41	80.0158	1,274.41	72.6848	1,274.41	78.4214	1,274.41	78.539	1,274.41	75.878	1,274.41	79.8593	1,274.41	74.1409	1,274.41	77.5565	1,274.41	78.3143	1,274.41	71.5784	1,274.41	80.5845	1,274.41	75.4507	1,274.41	80.1312	1,274.41	78.8302	1,274.41	78.5057	1,274.41	78.718
1,319.82	88.1445	1,319.82	88.6594	1,319.82	88.1053	1,319.82	88.8094	1,319.82	88.4658	1,319.82	88.1132	1,319.82	88.3374	1,319.82	86.5268	1,319.82	87.5391	1,319.82	84.3688	1,319.82	86.652	1,319.82	82.2821	1,319.82	86.0623	1,319.82	80.6438	1,319.82	85.1812	1,319.82	79.7724	1,319.82	83.1905	1,319.82	79.4802	1,319.82	80.8386	1,319.82	77.3109	1,319.82	80.3858	1,319.82	72.2995	1,319.82	79.9172	1,319.82	78.1814	1,319.82	77.41	1,319.82	81.6452	1,319.82	75.5738	1,319.82	81.1171	1,319.82	78.5235	1,319.82	75.6819	1,319.82	80.5136	1,319.82	69.9029	1,319.82	79.7577	1,319.82	78.5313	1,319.82	78.9637	1,319.82	80.0502
1,366.7	87.9247	1,366.7	87.9993	1,366.7	87.9342	1,366.7	88.1043	1,366.7	88.0419	1,366.7	87.9916	1,366.7	88.1293	1,366.7	87.3414	1,366.7	87.8649	1,366.7	85.9029	1,366.7	87.1188	1,366.7	83.5828	1,366.7	86.06	1,366.7	80.5712	1,366.7	84.8353	1,366.7	77.6277	1,366.7	83.1781	1,366.7	76.5006	1,366.7	80.4417	1,366.7	76.326	1,366.7	77.2191	1,366.7	73.0048	1,366.7	77.5475	1,366.7	71.1865	1,366.7	77.6775	1,366.7	79.0348	1,366.7	72.4761	1,366.7	81.3294	1,366.7	75.2215	1,366.7	79.1269	1,366.7	79.8266	1,366.7	71.728	1,366.7	79.0339	1,366.7	75.6126	1,366.7	76.6554	1,366.7	77.7907
1,413.57	87.1746	1,413.57	87.3889	1,413.57	87.693	1,413.57	87.7561	1,413.57	88.3433	1,413.57	87.6874	1,413.57	88.5194	1,413.57	87.0863	1,413.57	88.2034	1,413.57	85.9929	1,413.57	87.438	1,413.57	84.5461	1,413.57	86.1381	1,413.57	82.9749	1,413.57	84.4268	1,413.57	81.3993	1,413.57	82.7701	1,413.57	80.1311	1,413.57	81.0009	1,413.57	79.339	1,413.57	79.1042	1,413.57	76.5669	1,413.57	78.5679	1,413.57	69.1091	1,413.57	77.4833	1,413.57	74.4773	1,413.57	71.501	1,413.57	77.8733	1,413.57	74.7427	1,413.57	76.9271	1,413.57	80.0533	1,413.57	72.7652	1,413.57	79.4591	1,413.57	76.6209	1,413.57	75.6356	1,413.57	77.639
1,463.38	87.2979	1,463.38	86.9465	1,463.38	87.9221	1,463.38	86.9562	1,463.38	88.7462	1,463.38	87.3357	1,463.38	89.116	1,463.38	87.3767	1,463.38	88.6502	1,463.38	86.5901	1,463.38	87.4554	1,463.38	85.375	1,463.38	85.722	1,463.38	84.251	1,463.38	83.8399	1,463.38	82.6768	1,463.38	82.1537	1,463.38	81.2927	1,463.38	79.9417	1,463.38	82.1374	1,463.38	77.4185	1,463.38	81.6901	1,463.38	78.6786	1,463.38	77.6473	1,463.38	80.1296	1,463.38	77.4741	1,463.38	77.2428	1,463.38	81.0711	1,463.38	70.843	1,463.38	79.5518	1,463.38	77.6773	1,463.38	68.8528	1,463.38	78.0584	1,463.38	74.1684	1,463.38	75.0784	1,463.38	76.8784
1,516.11	87.2491	1,516.11	86.8157	1,516.11	88.2475	1,516.11	86.7352	1,516.11	89.2105	1,516.11	86.6349	1,516.11	89.486	1,516.11	86.3389	1,516.11	88.9567	1,516.11	85.4454	1,516.11	87.7437	1,516.11	83.9049	1,516.11	85.6435	1,516.11	82.797	1,516.11	82.5288	1,516.11	82.2082	1,516.11	79.9785	1,516.11	81.1601	1,516.11	78.0541	1,516.11	82.2297	1,516.11	73.7818	1,516.11	83.0491	1,516.11	77.6288	1,516.11	80.0875	1,516.11	82.6299	1,516.11	74.105	1,516.11	81.6222	1,516.11	79.9063	1,516.11	72.6175	1,516.11	82.0134	1,516.11	75.5281	1,516.11	77.8247	1,516.11	76.112	1,516.11	61.391	1,516.11	63.4628	1,516.11	71.6732
1,568.85	86.7032	1,568.85	86.4278	1,568.85	88.4992	1,568.85	87.3594	1,568.85	89.9443	1,568.85	87.6031	1,568.85	89.9855	1,568.85	86.6905	1,568.85	88.7344	1,568.85	85.465	1,568.85	86.9655	1,568.85	84.3682	1,568.85	84.9646	1,568.85	82.6159	1,568.85	82.3408	1,568.85	79.83	1,568.85	80.018	1,568.85	76.1085	1,568.85	79.3301	1,568.85	75.6094	1,568.85	76.4633	1,568.85	79.0146	1,568.85	64.5615	1,568.85	79.3914	1,568.85	78.5089	1,568.85	76.81	1,568.85	80.8715	1,568.85	79.526	1,568.85	76.848	1,568.85	81.7738	1,568.85	74.0471	1,568.85	78.0265	1,568.85	75.4673	1,568.85	57.9381	1,568.85	65.1613	1,568.85	67.3981
1,624.51	87.8344	1,624.51	86.9777	1,624.51	89.3051	1,624.51	87.2328	1,624.51	90.1755	1,624.51	87.6357	1,624.51	89.7116	1,624.51	87.1499	1,624.51	88.3524	1,624.51	86.1287	1,624.51	86.8252	1,624.51	85.3204	1,624.51	84.7989	1,624.51	84.7396	1,624.51	81.6962	1,624.51	83.1799	1,624.51	78.1229	1,624.51	79.3423	1,624.51	77.9649	1,624.51	72.6887	1,624.51	77.4524	1,624.51	74.6644	1,624.51	67.9918	1,624.51	76.4573	1,624.51	74.5878	1,624.51	71.51	1,624.51	80.8972	1,624.51	75.0929	1,624.51	80.8909	1,624.51	80.9727	1,624.51	78.0453	1,624.51	80.2234	1,624.51	77.7361	1,624.51	73.033	1,624.51	75.4804	1,624.51	72.1731
1,681.64	88.1416	1,681.64	86.7722	1,681.64	89.8726	1,681.64	86.5001	1,681.64	90.6824	1,681.64	87.2971	1,681.64	89.9728	1,681.64	88.3636	1,681.64	88.0745	1,681.64	88.3629	1,681.64	85.9285	1,681.64	85.8445	1,681.64	84.2527	1,681.64	81.8839	1,681.64	82.6539	1,681.64	80.5997	1,681.64	79.0177	1,681.64	78.3441	1,681.64	75.6666	1,681.64	72.5051	1,681.64	77.423	1,681.64	72.1167	1,681.64	75.3404	1,681.64	79.632	1,681.64	66.0174	1,681.64	80.3068	1,681.64	74.3045	1,681.64	73.2091	1,681.64	79.6816	1,681.64	75.5398	1,681.64	80.8975	1,681.64	79.4415	1,681.64	80.9729	1,681.64	76.946	1,681.64	79.3941	1,681.64	74.9543
1,741.7	88.2512	1,741.7	86.2741	1,741.7	90.2831	1,741.7	86.3206	1,741.7	90.9676	1,741.7	87.4088	1,741.7	89.8975	1,741.7	88.2803	1,741.7	87.5652	1,741.7	88.3887	1,741.7	85.3862	1,741.7	86.8665	1,741.7	84.2326	1,741.7	83.077	1,741.7	83.5009	1,741.7	78.0362	1,741.7	81.16	1,741.7	79.4922	1,741.7	77.7799	1,741.7	80.954	1,741.7	78.1767	1,741.7	77.6637	1,741.7	76.7364	1,741.7	76.0012	1,741.7	74.8589	1,741.7	79.18	1,741.7	77.0716	1,741.7	79.3311	1,741.7	74.1528	1,741.7	77.3183	1,741.7	78.2389	1,741.7	74.2766	1,741.7	80.6923	1,741.7	72.3804	1,741.7	77.8018	1,741.7	68.0435
1,803.22	88.5676	1,803.22	87.1195	1,803.22	89.8913	1,803.22	85.9624	1,803.22	90.8401	1,803.22	87.1967	1,803.22	90.1508	1,803.22	88.5378	1,803.22	87.7107	1,803.22	87.7368	1,803.22	84.9989	1,803.22	85.1544	1,803.22	83.6744	1,803.22	83.4156	1,803.22	83.1919	1,803.22	82.8726	1,803.22	81.1609	1,803.22	81.7996	1,803.22	77.5309	1,803.22	81.2505	1,803.22	76.437	1,803.22	81.5784	1,803.22	74.0731	1,803.22	80.8694	1,803.22	73.5135	1,803.22	77.7948	1,803.22	78.3992	1,803.22	77.2041	1,803.22	78.1872	1,803.22	79.1175	1,803.22	76.1088	1,803.22	76.6276	1,803.22	77.42	1,803.22	68.1929	1,803.22	76.2318	1,803.22	70.2515
1,866.21	87.793	1,866.21	86.3237	1,866.21	90.143	1,866.21	86.2526	1,866.21	91.2347	1,866.21	87.2502	1,866.21	90.1003	1,866.21	88.7415	1,866.21	87.9622	1,866.21	89.027	1,866.21	86.201	1,866.21	87.3276	1,866.21	84.4184	1,866.21	84.1573	1,866.21	83.2023	1,866.21	80.8412	1,866.21	80.0664	1,866.21	80.7845	1,866.21	74.4756	1,866.21	81.3159	1,866.21	76.276	1,866.21	81.3835	1,866.21	77.29	1,866.21	81.1327	1,866.21	65.2435	1,866.21	78.9279	1,866.21	74.8863	1,866.21	77.3916	1,866.21	76.5881	1,866.21	77.9139	1,866.21	74.9582	1,866.21	75.7386	1,866.21	78.2619	1,866.21	71.9475	1,866.21	75.9082	1,866.21	69.7083
1,932.13	87.153	1,932.13	85.3455	1,932.13	89.4881	1,932.13	86.4364	1,932.13	90.3321	1,932.13	88.3439	1,932.13	89.6054	1,932.13	88.899	1,932.13	88.423	1,932.13	88.2681	1,932.13	85.9132	1,932.13	86.836	1,932.13	82.1075	1,932.13	84.9317	1,932.13	79.2306	1,932.13	83.106	1,932.13	76.8043	1,932.13	79.5886	1,932.13	74.2103	1,932.13	74.0492	1,932.13	75.2724	1,932.13	80.2102	1,932.13	76.2381	1,932.13	82.4747	1,932.13	68.1912	1,932.13	79.2579	1,932.13	74.445	1,932.13	70.9174	1,932.13	80.074	1,932.13	77.1294	1,932.13	75.3044	1,932.13	76.1959	1,932.13	75.5616	1,932.13	69.1533	1,932.13	76.4272	1,932.13	67.3263
1,999.51	87.8732	1,999.51	86.6516	1,999.51	89.3163	1,999.51	86.8555	1,999.51	89.7289	1,999.51	88.4236	1,999.51	88.9155	1,999.51	88.7112	1,999.51	87.6395	1,999.51	87.9854	1,999.51	85.4711	1,999.51	87.3988	1,999.51	82.7869	1,999.51	85.3578	1,999.51	79.742	1,999.51	80.984	1,999.51	77.801	1,999.51	78.5617	1,999.51	76.4921	1,999.51	70.7508	1,999.51	74.8701	1,999.51	70.9593	1,999.51	77.8181	1,999.51	79.74	1,999.51	76.8783	1,999.51	81.8707	1,999.51	69.3035	1,999.51	76.0617	1,999.51	81.1352	1,999.51	68.1661	1,999.51	82.7615	1,999.51	78.085	1,999.51	81.2227	1,999.51	75.1229	1,999.51	81.7725	1,999.51	76.5179
2,069.82	88.0055	2,069.82	87.0332	2,069.82	89.5712	2,069.82	87.5236	2,069.82	89.5241	2,069.82	88.0956	2,069.82	88.8863	2,069.82	88.3318	2,069.82	87.9665	2,069.82	87.706	2,069.82	85.2299	2,069.82	86.3119	2,069.82	81.2996	2,069.82	83.963	2,069.82	77.7317	2,069.82	78.8249	2,069.82	77.9393	2,069.82	71.4043	2,069.82	78.1106	2,069.82	74.6137	2,069.82	72.8434	2,069.82	74.3336	2,069.82	76.4024	2,069.82	68.7878	2,069.82	80.0087	2,069.82	80.6125	2,069.82	72.7809	2,069.82	81.6576	2,069.82	78.1174	2,069.82	75.4681	2,069.82	82.6404	2,069.82	75.3177	2,069.82	81.7578	2,069.82	75.5941	2,069.82	82.0577	2,069.82	76.8892
2,143.07	86.7645	2,143.07	85.8135	2,143.07	88.4225	2,143.07	86.5379	2,143.07	88.628	2,143.07	87.1366	2,143.07	88.6825	2,143.07	88.1716	2,143.07	87.4534	2,143.07	88.2783	2,143.07	84.3277	2,143.07	86.2902	2,143.07	80.9499	2,143.07	82.9146	2,143.07	77.7166	2,143.07	79.3809	2,143.07	75.9139	2,143.07	75.9986	2,143.07	76.0027	2,143.07	77.3645	2,143.07	75.6679	2,143.07	79.0708	2,143.07	71.3751	2,143.07	73.9615	2,143.07	76.2158	2,143.07	74.9303	2,143.07	69.7582	2,143.07	79.8141	2,143.07	61.5868	2,143.07	77.0331	2,143.07	76.2549	2,143.07	69.21	2,143.07	78.686	2,143.07	69.4518	2,143.07	75.8543	2,143.07	69.827
2,219.24	86.5568	2,219.24	84.4014	2,219.24	87.251	2,219.24	85.4107	2,219.24	87.5001	2,219.24	86.8676	2,219.24	87.6809	2,219.24	86.9241	2,219.24	86.1389	2,219.24	86.4582	2,219.24	83.0011	2,219.24	84.2047	2,219.24	78.1519	2,219.24	81.5913	2,219.24	75.4268	2,219.24	80.6503	2,219.24	74.8347	2,219.24	77.66	2,219.24	71.3383	2,219.24	73.8146	2,219.24	73.6079	2,219.24	75.478	2,219.24	71.7563	2,219.24	76.5207	2,219.24	70.456	2,219.24	74.1077	2,219.24	74.4293	2,219.24	75.4325	2,219.24	70.7607	2,219.24	78.0887	2,219.24	69.3884	2,219.24	70.5532	2,219.24	76.5517	2,219.24	68.4164	2,219.24	72.2573	2,219.24	69.9367
2,296.88	85.2406	2,296.88	83.586	2,296.88	86.7951	2,296.88	83.3323	2,296.88	87.4697	2,296.88	85.3541	2,296.88	86.6727	2,296.88	86.5308	2,296.88	84.049	2,296.88	85.9221	2,296.88	80.2843	2,296.88	83.3558	2,296.88	75.9289	2,296.88	79.051	2,296.88	72.2099	2,296.88	76.0879	2,296.88	71.0194	2,296.88	73.6366	2,296.88	73.1578	2,296.88	73.539	2,296.88	74.1358	2,296.88	71.5686	2,296.88	75.8244	2,296.88	71.6368	2,296.88	70.8153	2,296.88	76.4211	2,296.88	66.7095	2,296.88	72.8792	2,296.88	66.9067	2,296.88	71.4355	2,296.88	68.6733	2,296.88	73.7817	2,296.88	65.8675	2,296.88	65.8826	2,296.88	70.0277	2,296.88	69.4241
2,378.91	84.2237	2,378.91	82.8574	2,378.91	86.0277	2,378.91	83.6187	2,378.91	87.4395	2,378.91	85.8382	2,378.91	86.7077	2,378.91	84.8846	2,378.91	84.3556	2,378.91	82.3187	2,378.91	79.7316	2,378.91	81.097	2,378.91	74.5853	2,378.91	77.7182	2,378.91	72.8347	2,378.91	67.0564	2,378.91	72.5227	2,378.91	66.1051	2,378.91	70.393	2,378.91	67.0296	2,378.91	71.5606	2,378.91	71.9156	2,378.91	75.3066	2,378.91	69.5557	2,378.91	66.7897	2,378.91	58.945	2,378.91	72.4582	2,378.91	70.8387	2,378.91	72.9755	2,378.91	71.6972	2,378.91	64.537	2,378.91	62.2308	2,378.91	66.9238	2,378.91	66.2555	2,378.91	68.8214	2,378.91	66.9798
2,462.4	85.0987	2,462.4	83.6038	2,462.4	86.5639	2,462.4	84.095	2,462.4	86.9658	2,462.4	84.7672	2,462.4	86.235	2,462.4	83.7195	2,462.4	83.9337	2,462.4	81.8441	2,462.4	80.4802	2,462.4	78.9167	2,462.4	77.4916	2,462.4	74.3357	2,462.4	74.827	2,462.4	69.2707	2,462.4	72.6665	2,462.4	48.2865	2,462.4	74.407	2,462.4	62.838	2,462.4	73.048	2,462.4	64.8426	2,462.4	73.4046	2,462.4	63.4098	2,462.4	73.8029	2,462.4	69.1863	2,462.4	59.6507	2,462.4	68.7071	2,462.4	73.6515	2,462.4	59.2185	2,462.4	74.4443	2,462.4	71.6424	2,462.4	73.3842	2,462.4	68.9576	2,462.4	73.8954	2,462.4	71.2736
2,548.83	86.0598	2,548.83	84.5398	2,548.83	87.3208	2,548.83	84.4313	2,548.83	87.4809	2,548.83	84.3924	2,548.83	86.6143	2,548.83	83.3061	2,548.83	83.83	2,548.83	80.8405	2,548.83	79.8069	2,548.83	77.4784	2,548.83	76.1245	2,548.83	72.211	2,548.83	74.797	2,548.83	67.1091	2,548.83	74.0425	2,548.83	64.1654	2,548.83	74.0327	2,548.83	57.5994	2,548.83	73.926	2,548.83	54.2405	2,548.83	68.5511	2,548.83	60.354	2,548.83	71.4958	2,548.83	51.0419	2,548.83	67.0639	2,548.83	67.2093	2,548.83	64.9352	2,548.83	65.4469	2,548.83	70.8526	2,548.83	64.3032	2,548.83	71.3415	2,548.83	68.1145	2,548.83	72.3622	2,548.83	63.1434
2,639.65	86.86	2,639.65	85.3349	2,639.65	88.059	2,639.65	85.6407	2,639.65	88.0486	2,639.65	85.6782	2,639.65	86.5901	2,639.65	84.3254	2,639.65	83.4206	2,639.65	81.44	2,639.65	78.7836	2,639.65	76.1411	2,639.65	75.2165	2,639.65	69.0146	2,639.65	73.6474	2,639.65	45.8973	2,639.65	73.0907	2,639.65	33.611	2,639.65	71.5383	2,639.65	62.8041	2,639.65	69.7317	2,639.65	57.1456	2,639.65	63.6748	2,639.65	58.977	2,639.65	68.6631	2,639.65	61.3671	2,639.65	67.7953	2,639.65	59.9806	2,639.65	64.6998	2,639.65	64.0235	2,639.65	65.6006	2,639.65	58.0853	2,639.65	69.2596	2,639.65	68.6232	2,639.65	70.3549	2,639.65	63.282
2,731.93	87.8223	2,731.93	86.5893	2,731.93	89.023	2,731.93	86.678	2,731.93	88.6618	2,731.93	86.6184	2,731.93	86.7187	2,731.93	84.7678	2,731.93	82.974	2,731.93	81.3553	2,731.93	78.1711	2,731.93	75.377	2,731.93	73.8803	2,731.93	68.57	2,731.93	71.7649	2,731.93	65.2004	2,731.93	72.4548	2,731.93	51.3059	2,731.93	74.5256	2,731.93	60.5882	2,731.93	70.9514	2,731.93	62.0396	2,731.93	70.4721	2,731.93	63.7472	2,731.93	57.179	2,731.93	65.5305	2,731.93	68.2006	2,731.93	61.2972	2,731.93	67.5453	2,731.93	65.1674	2,731.93	65.2582	2,731.93	64.9321	2,731.93	68.1768	2,731.93	68.5588	2,731.93	68.259	2,731.93	69.6837
2,828.61	86.9009	2,828.61	86.3897	2,828.61	88.1573	2,828.61	87.1416	2,828.61	88.3087	2,828.61	87.106	2,828.61	86.4509	2,828.61	83.984	2,828.61	81.421	2,828.61	78.3224	2,828.61	73.1707	2,828.61	74.807	2,828.61	69.4887	2,828.61	65.403	2,828.61	69.9506	2,828.61	66.804	2,828.61	67.6007	2,828.61	56.5315	2,828.61	67.6754	2,828.61	66.881	2,828.61	66.4618	2,828.61	57.1629	2,828.61	72.9458	2,828.61	65.451	2,828.61	70.7571	2,828.61	64.9428	2,828.61	63.7574	2,828.61	64.486	2,828.61	66.031	2,828.61	57.5406	2,828.61	68.7342	2,828.61	65.8912	2,828.61	68.4126	2,828.61	67.3021	2,828.61	70.8615	2,828.61	72.9917
2,928.22	86.4548	2,928.22	86.7871	2,928.22	87.7023	2,928.22	87.7779	2,928.22	87.5615	2,928.22	86.375	2,928.22	85.5139	2,928.22	83.9213	2,928.22	79.7825	2,928.22	75.6743	2,928.22	67.5251	2,928.22	72.7376	2,928.22	70.9305	2,928.22	66.9665	2,928.22	71.3726	2,928.22	73.7479	2,928.22	71.5954	2,928.22	70.3551	2,928.22	72.2967	2,928.22	70.8088	2,928.22	67.3034	2,928.22	68.8442	2,928.22	74.972	2,928.22	63.3284	2,928.22	75.9839	2,928.22	67.4083	2,928.22	65.697	2,928.22	61.4965	2,928.22	62.1103	2,928.22	62.7755	2,928.22	72.8762	2,928.22	73.3641	2,928.22	74.0505	2,928.22	74.1054	2,928.22	77.3521	2,928.22	77.8581
3,030.76	85.5945	3,030.76	85.9269	3,030.76	86.6753	3,030.76	86.9826	3,030.76	86.998	3,030.76	85.5856	3,030.76	84.1351	3,030.76	79.3665	3,030.76	74.475	3,030.76	69.4948	3,030.76	71.6551	3,030.76	69.5135	3,030.76	77.7058	3,030.76	72.2333	3,030.76	77.1281	3,030.76	71.5373	3,030.76	74.8828	3,030.76	70.6884	3,030.76	74.3289	3,030.76	64.0189	3,030.76	74.0941	3,030.76	67.9838	3,030.76	67.493	3,030.76	61.5572	3,030.76	68.1636	3,030.76	61.1814	3,030.76	73.2795	3,030.76	54.1159	3,030.76	66.3682	3,030.76	68.1899	3,030.76	66.2579	3,030.76	68.921	3,030.76	71.149	3,030.76	71.9073	3,030.76	72.6746	3,030.76	69.2627
3,137.7	85.2127	3,137.7	86.3854	3,137.7	86.6964	3,137.7	87.3449	3,137.7	87.2226	3,137.7	85.2402	3,137.7	84.1175	3,137.7	77.0341	3,137.7	74.6763	3,137.7	65.2331	3,137.7	79.5197	3,137.7	74.9569	3,137.7	81.1697	3,137.7	76.279	3,137.7	79.1012	3,137.7	69.956	3,137.7	77.3327	3,137.7	66.7018	3,137.7	75.461	3,137.7	66.9053	3,137.7	66.3773	3,137.7	67.9726	3,137.7	67.7033	3,137.7	64.0689	3,137.7	71.857	3,137.7	67.3188	3,137.7	72.7674	3,137.7	63.4263	3,137.7	67.0652	3,137.7	65.9673	3,137.7	69.9915	3,137.7	57.5123	3,137.7	71.2752	3,137.7	67.5374	3,137.7	72.7607	3,137.7	60.5264
3,249.02	85.4924	3,249.02	86.6514	3,249.02	87.3027	3,249.02	87.6842	3,249.02	88.6666	3,249.02	83.1111	3,249.02	85.9878	3,249.02	71.7429	3,249.02	77.877	3,249.02	74.0303	3,249.02	82.5285	3,249.02	78.53	3,249.02	84.6148	3,249.02	76.0316	3,249.02	82.3	3,249.02	75.9813	3,249.02	79.4485	3,249.02	75.309	3,249.02	76.0919	3,249.02	72.6256	3,249.02	56.2245	3,249.02	65.6655	3,249.02	67.0259	3,249.02	66.9813	3,249.02	69.9998	3,249.02	66.4342	3,249.02	76.2545	3,249.02	69.0828	3,249.02	75.1761	3,249.02	68.6427	3,249.02	67.7044	3,249.02	73.5243	3,249.02	71.4319	3,249.02	71.615	3,249.02	72.1859	3,249.02	72.7766
3,363.28	85.8479	3,363.28	87.2702	3,363.28	89.1389	3,363.28	86.9802	3,363.28	90.8119	3,363.28	83.2345	3,363.28	87.4133	3,363.28	74.1181	3,363.28	79.7898	3,363.28	77.8223	3,363.28	83.8608	3,363.28	80.2874	3,363.28	85.207	3,363.28	80.2398	3,363.28	82.0856	3,363.28	78.6047	3,363.28	78.2292	3,363.28	74.2213	3,363.28	75.7581	3,363.28	68.5807	3,363.28	75.6339	3,363.28	70.1115	3,363.28	74.6581	3,363.28	64.6734	3,363.28	64.5737	3,363.28	63.8043	3,363.28	68.4181	3,363.28	70.0848	3,363.28	73.6185	3,363.28	64.7644	3,363.28	69.0669	3,363.28	72.8307	3,363.28	68.2185	3,363.28	59.8315	3,363.28	62.0637	3,363.28	74.8005
3,481.93	86.6918	3,481.93	88.1343	3,481.93	90.4058	3,481.93	87.461	3,481.93	92.151	3,481.93	83.2733	3,481.93	88.3974	3,481.93	78.8289	3,481.93	81.0051	3,481.93	78.68	3,481.93	84.3354	3,481.93	79.4767	3,481.93	85.0968	3,481.93	78.7971	3,481.93	82.5053	3,481.93	73.0202	3,481.93	75.5336	3,481.93	68.0661	3,481.93	75.1334	3,481.93	69.0367	3,481.93	78.7958	3,481.93	67.6025	3,481.93	76.9766	3,481.93	64.4219	3,481.93	68.7865	3,481.93	53.9117	3,481.93	70.2711	3,481.93	67.3018	3,481.93	65.7796	3,481.93	66.9861	3,481.93	72.2183	3,481.93	66.2034	3,481.93	72.1416	3,481.93	65.5783	3,481.93	74.4293	3,481.93	71.6572
3,604.98	88.0653	3,604.98	90.0069	3,604.98	91.5084	3,604.98	89.298	3,604.98	92.9927	3,604.98	85.0316	3,604.98	89.195	3,604.98	76.6334	3,604.98	81.6418	3,604.98	76.8342	3,604.98	84.079	3,604.98	78.1631	3,604.98	84.546	3,604.98	72.9352	3,604.98	81.1916	3,604.98	73.2822	3,604.98	74.7376	3,604.98	69.9671	3,604.98	75.8478	3,604.98	61.6894	3,604.98	78.4134	3,604.98	63.5916	3,604.98	73.8827	3,604.98	55.075	3,604.98	71.5651	3,604.98	56.2906	3,604.98	71.1373	3,604.98	58.1296	3,604.98	62.9609	3,604.98	68.546	3,604.98	67.5138	3,604.98	65.445	3,604.98	63.0899	3,604.98	62.6627	3,604.98	72.1614	3,604.98	64.6007
3,732.42	89.698	3,732.42	91.9751	3,732.42	92.208	3,732.42	90.7943	3,732.42	93.748	3,732.42	85.0099	3,732.42	89.714	3,732.42	72.5377	3,732.42	80.6502	3,732.42	75.769	3,732.42	81.3743	3,732.42	74.251	3,732.42	82.0642	3,732.42	72.2501	3,732.42	79.8086	3,732.42	69.1779	3,732.42	73.0901	3,732.42	65.5253	3,732.42	79.1888	3,732.42	67.4917	3,732.42	79.8982	3,732.42	62.9663	3,732.42	74.2107	3,732.42	63.438	3,732.42	72.3599	3,732.42	55.3438	3,732.42	67.5838	3,732.42	39.1011	3,732.42	63.8538	3,732.42	64.885	3,732.42	67.61	3,732.42	65.7364	3,732.42	66.071	3,732.42	59.7251	3,732.42	70.4376	3,732.42	65.4426
3,864.26	90.7661	3,864.26	93.3079	3,864.26	91.7879	3,864.26	91.3017	3,864.26	93.7947	3,864.26	82.9507	3,864.26	89.7491	3,864.26	67.8045	3,864.26	77.0337	3,864.26	77.4551	3,864.26	77.5696	3,864.26	77.5949	3,864.26	79.7536	3,864.26	73.4167	3,864.26	79.5884	3,864.26	73.1487	3,864.26	76.8536	3,864.26	71.183	3,864.26	80.131	3,864.26	69.4921	3,864.26	76.2871	3,864.26	66.5943	3,864.26	72.1644	3,864.26	67.0506	3,864.26	76.2582	3,864.26	67.7583	3,864.26	69.0214	3,864.26	52.1796	3,864.26	62.9301	3,864.26	61.6873	3,864.26	75.5583	3,864.26	71.3626	3,864.26	71.8783	3,864.26	67.483	3,864.26	65.7617	3,864.26	70.1682
4,000.49	89.863	4,000.49	93.0943	4,000.49	89.8628	4,000.49	89.9965	4,000.49	92.7973	4,000.49	76.4284	4,000.49	88.3714	4,000.49	78.2989	4,000.49	66.7026	4,000.49	80.6575	4,000.49	76.4569	4,000.49	77.9685	4,000.49	76.0701	4,000.49	75.3546	4,000.49	76.7036	4,000.49	74.0435	4,000.49	75.115	4,000.49	70.0804	4,000.49	79.8377	4,000.49	69.745	4,000.49	79.9852	4,000.49	66.7847	4,000.49	78.4653	4,000.49	65.489	4,000.49	74.6254	4,000.49	66.4433	4,000.49	60.6469	4,000.49	64.1059	4,000.49	65.2512	4,000.49	59.1638	4,000.49	66.2395	4,000.49	54.3433	4,000.49	62.7643	4,000.49	61.5656	4,000.49	67.6281	4,000.49	67.636
4,141.11	89.1767	4,141.11	92.6884	4,141.11	88.2352	4,141.11	88.4492	4,141.11	92.0353	4,141.11	67.2075	4,141.11	86.5943	4,141.11	81.2576	4,141.11	70.5658	4,141.11	81.6879	4,141.11	80.6187	4,141.11	79.4573	4,141.11	72.0646	4,141.11	76.2642	4,141.11	75.7065	4,141.11	75.3517	4,141.11	74.7945	4,141.11	73.9252	4,141.11	80.3354	4,141.11	71.8557	4,141.11	81.7839	4,141.11	68.2936	4,141.11	79.4791	4,141.11	66.7557	4,141.11	75.109	4,141.11	67.226	4,141.11	63.0084	4,141.11	63.9424	4,141.11	69.7868	4,141.11	63.5252	4,141.11	70.367	4,141.11	56.0951	4,141.11	68.0739	4,141.11	61.8672	4,141.11	60.4429	4,141.11	67.9487
4,287.6	88.5253	4,287.6	92.2176	4,287.6	87.0843	4,287.6	87.1306	4,287.6	91.7621	4,287.6	75.9328	4,287.6	86.5451	4,287.6	82.846	4,287.6	74.9983	4,287.6	82.1245	4,287.6	82.5228	4,287.6	78.4575	4,287.6	73.6135	4,287.6	77.109	4,287.6	77.8996	4,287.6	75.9062	4,287.6	75.878	4,287.6	69.6731	4,287.6	81.3588	4,287.6	69.3936	4,287.6	82.8844	4,287.6	64.1847	4,287.6	79.3911	4,287.6	67.369	4,287.6	75.1506	4,287.6	66.1812	4,287.6	59.1345	4,287.6	65.3121	4,287.6	69.2555	4,287.6	62.363	4,287.6	63.6069	4,287.6	60.6403	4,287.6	60.8054	4,287.6	53.636	4,287.6	64.1611	4,287.6	65.724
4,438.48	88.4163	4,438.48	91.9073	4,438.48	85.1566	4,438.48	86.6028	4,438.48	92.0041	4,438.48	77.7368	4,438.48	87.2328	4,438.48	84.2891	4,438.48	77.736	4,438.48	82.7276	4,438.48	84.6524	4,438.48	80.2772	4,438.48	77.1417	4,438.48	79.0332	4,438.48	77.9673	4,438.48	77.1726	4,438.48	76.5558	4,438.48	77.045	4,438.48	83.069	4,438.48	73.9573	4,438.48	83.0157	4,438.48	68.7006	4,438.48	78.0316	4,438.48	68.0995	4,438.48	74.8614	4,438.48	68.3918	4,438.48	57.745	4,438.48	69.3181	4,438.48	66.2603	4,438.48	67.4796	4,438.48	51.4918	4,438.48	63.1457	4,438.48	58.763	4,438.48	59.5012	4,438.48	65.8247	4,438.48	58.8502
4,595.21	88.8223	4,595.21	91.9412	4,595.21	85.8187	4,595.21	86.1923	4,595.21	92.3949	4,595.21	78.0816	4,595.21	85.4776	4,595.21	84.5407	4,595.21	82.8349	4,595.21	84.089	4,595.21	86.1422	4,595.21	82.7663	4,595.21	77.3139	4,595.21	82.047	4,595.21	77.0438	4,595.21	80.5358	4,595.21	77.5598	4,595.21	75.4115	4,595.21	83.1997	4,595.21	74.0086	4,595.21	82.3714	4,595.21	69.7579	4,595.21	76.4339	4,595.21	68.2455	4,595.21	72.523	4,595.21	69.059	4,595.21	57.1823	4,595.21	70.813	4,595.21	61.7687	4,595.21	70.8354	4,595.21	65.7298	4,595.21	65.4235	4,595.21	60.558	4,595.21	64.6523	4,595.21	66.9115	4,595.21	57.9613
4,756.35	91.419	4,756.35	93.1901	4,756.35	85.5922	4,756.35	84.6732	4,756.35	93.4003	4,756.35	81.6248	4,756.35	85.4003	4,756.35	85.7708	4,756.35	83.7512	4,756.35	84.8771	4,756.35	85.6644	4,756.35	83.009	4,756.35	74.1793	4,756.35	81.0272	4,756.35	81.4097	4,756.35	78.7825	4,756.35	74.0925	4,756.35	76.7681	4,756.35	83.8459	4,756.35	75.4985	4,756.35	84.4727	4,756.35	66.809	4,756.35	76.835	4,756.35	69.3002	4,756.35	70.7113	4,756.35	66.5909	4,756.35	60.9896	4,756.35	70.1821	4,756.35	51.6039	4,756.35	70.124	4,756.35	66.4484	4,756.35	67.4158	4,756.35	61.3236	4,756.35	65.5988	4,756.35	68.0526	4,756.35	58.4417
4,924.8	91.731	4,924.8	93.0018	4,924.8	85.0611	4,924.8	77.2961	4,924.8	93.3168	4,924.8	85.6307	4,924.8	86.6266	4,924.8	85.7597	4,924.8	79.7118	4,924.8	83.6646	4,924.8	80.9056	4,924.8	81.1487	4,924.8	78.6974	4,924.8	81.3952	4,924.8	85.55	4,924.8	79.6219	4,924.8	76.9242	4,924.8	75.2694	4,924.8	82.0949	4,924.8	76.0381	4,924.8	81.4564	4,924.8	67.5666	4,924.8	74.4605	4,924.8	66.5233	4,924.8	67.3132	4,924.8	67.1882	4,924.8	58.3865	4,924.8	67.7713	4,924.8	65.2905	4,924.8	69.7119	4,924.8	68.461	4,924.8	65.8779	4,924.8	62.7665	4,924.8	60.9271	4,924.8	70.6603	4,924.8	65.4873
5,097.66	92.3176	5,097.66	92.4713	5,097.66	82.5889	5,097.66	67.9144	5,097.66	92.9942	5,097.66	87.4581	5,097.66	86.3181	5,097.66	84.3991	5,097.66	77.288	5,097.66	82.4702	5,097.66	83.3213	5,097.66	80.3244	5,097.66	79.7888	5,097.66	81.546	5,097.66	86.8014	5,097.66	77.3097	5,097.66	80.6234	5,097.66	77.3465	5,097.66	80.0472	5,097.66	75.39	5,097.66	79.2361	5,097.66	68.1535	5,097.66	71.6821	5,097.66	70.442	5,097.66	67.0101	5,097.66	67.1976	5,097.66	62.9493	5,097.66	63.187	5,097.66	69.4914	5,097.66	70.9038	5,097.66	71.2827	5,097.66	66.5117	5,097.66	56.8414	5,097.66	60.6343	5,097.66	64.9828	5,097.66	54.2813
5,277.83	92.9683	5,277.83	91.8988	5,277.83	81.428	5,277.83	80.1919	5,277.83	92.7293	5,277.83	88.0442	5,277.83	87.28	5,277.83	81.0775	5,277.83	80.7763	5,277.83	83.4025	5,277.83	83.0671	5,277.83	80.9554	5,277.83	77.4536	5,277.83	83.2574	5,277.83	86.6357	5,277.83	77.7167	5,277.83	78.9176	5,277.83	77.6925	5,277.83	73.8948	5,277.83	74.5618	5,277.83	81.5625	5,277.83	70.589	5,277.83	71.9825	5,277.83	70.1758	5,277.83	72.0204	5,277.83	68.5827	5,277.83	63.3411	5,277.83	64.8512	5,277.83	70.9709	5,277.83	71.2233	5,277.83	69.3174	5,277.83	69.4774	5,277.83	64.6276	5,277.83	62.8901	5,277.83	71.1992	5,277.83	64.6259
5,463.87	92.6821	5,463.87	91.0079	5,463.87	80.6756	5,463.87	84.0033	5,463.87	92.7744	5,463.87	87.7121	5,463.87	88.0005	5,463.87	80.0379	5,463.87	76.373	5,463.87	85.0671	5,463.87	83.7036	5,463.87	82.6253	5,463.87	73.5801	5,463.87	83.1407	5,463.87	86.0506	5,463.87	77.0155	5,463.87	78.865	5,463.87	79.8004	5,463.87	70.2204	5,463.87	73.1078	5,463.87	82.5292	5,463.87	71.42	5,463.87	74.4732	5,463.87	70.6256	5,463.87	72.3927	5,463.87	66.9918	5,463.87	59.2115	5,463.87	66.7531	5,463.87	68.9023	5,463.87	72.3521	5,463.87	73.2573	5,463.87	68.2238	5,463.87	65.5498	5,463.87	60.4714	5,463.87	72.0964	5,463.87	61.9613
5,657.23	93.5102	5,657.23	90.9784	5,657.23	78.1218	5,657.23	85.8974	5,657.23	91.957	5,657.23	87.0846	5,657.23	89.2806	5,657.23	81.5196	5,657.23	78.0685	5,657.23	86.1559	5,657.23	86.237	5,657.23	82.9065	5,657.23	76.148	5,657.23	82.2502	5,657.23	85.5116	5,657.23	74.7922	5,657.23	81.9	5,657.23	79.0509	5,657.23	59.0501	5,657.23	71.1389	5,657.23	82.0374	5,657.23	73.3071	5,657.23	70.0719	5,657.23	70.3421	5,657.23	74.5032	5,657.23	63.935	5,657.23	61.6705	5,657.23	66.1555	5,657.23	70.981	5,657.23	71.4855	5,657.23	72.6195	5,657.23	69.8207	5,657.23	66.2896	5,657.23	61.0667	5,657.23	71.3483	5,657.23	52.8522
5,856.45	93.3567	5,856.45	90.3298	5,856.45	81.2419	5,856.45	86.902	5,856.45	90.8028	5,856.45	86.2384	5,856.45	90.0154	5,856.45	84.117	5,856.45	81.793	5,856.45	86.9466	5,856.45	86.26	5,856.45	82.6012	5,856.45	81.1287	5,856.45	82.5162	5,856.45	83.876	5,856.45	79.2126	5,856.45	83.7991	5,856.45	78.7548	5,856.45	71.1333	5,856.45	72.0822	5,856.45	78.2193	5,856.45	74.5326	5,856.45	66.7045	5,856.45	69.7028	5,856.45	73.7082	5,856.45	65.7735	5,856.45	68.5701	5,856.45	69.4964	5,856.45	72.4645	5,856.45	71.5684	5,856.45	74.0114	5,856.45	71.6884	5,856.45	57.3725	5,856.45	63.7716	5,856.45	71.1873	5,856.45	64.1614
6,062.99	93.2743	6,062.99	89.386	6,062.99	85.1152	6,062.99	87.8033	6,062.99	89.1369	6,062.99	85.5112	6,062.99	89.1666	6,062.99	85.8368	6,062.99	82.591	6,062.99	87.1997	6,062.99	86.7186	6,062.99	83.8422	6,062.99	82.444	6,062.99	83.4412	6,062.99	82.9539	6,062.99	79.871	6,062.99	85.495	6,062.99	79.4553	6,062.99	78.0696	6,062.99	73.4096	6,062.99	77.7329	6,062.99	74.1684	6,062.99	56.3418	6,062.99	70.1571	6,062.99	70.4892	6,062.99	67.6376	6,062.99	65.5353	6,062.99	70.8809	6,062.99	74.7938	6,062.99	70.8158	6,062.99	72.8877	6,062.99	72.5155	6,062.99	59.5241	6,062.99	65.7519	6,062.99	69.8639	6,062.99	56.0513
6,276.86	92.8521	6,276.86	88.8448	6,276.86	87.5084	6,276.86	88.2147	6,276.86	88.2284	6,276.86	85.8012	6,276.86	89.4682	6,276.86	86.6055	6,276.86	85.2987	6,276.86	86.9226	6,276.86	86.9465	6,276.86	85.1727	6,276.86	84.5091	6,276.86	83.6394	6,276.86	82.0572	6,276.86	80.4327	6,276.86	86.1617	6,276.86	79.4227	6,276.86	79.5987	6,276.86	74.4905	6,276.86	77.7818	6,276.86	74.5202	6,276.86	65.1582	6,276.86	69.3709	6,276.86	72.3534	6,276.86	68.8067	6,276.86	34.8117	6,276.86	71.5222	6,276.86	72.6942	6,276.86	71.5141	6,276.86	73.885	6,276.86	74.3841	6,276.86	57.7249	6,276.86	67.1062	6,276.86	67.9886	6,276.86	62.1213
6,498.05	92.6585	6,498.05	89.5099	6,498.05	88.3695	6,498.05	88.5871	6,498.05	87.9556	6,498.05	86.1489	6,498.05	88.7042	6,498.05	86.9502	6,498.05	85.6139	6,498.05	87.4223	6,498.05	87.6323	6,498.05	85.6087	6,498.05	85.9323	6,498.05	84.6134	6,498.05	82.1713	6,498.05	82.3091	6,498.05	87.0812	6,498.05	79.1141	6,498.05	82.1429	6,498.05	75.0039	6,498.05	80.6386	6,498.05	74.3982	6,498.05	66.9944	6,498.05	68.9985	6,498.05	70.1393	6,498.05	68.3363	6,498.05	59.8132	6,498.05	70.9042	6,498.05	72.0233	6,498.05	71.5293	6,498.05	72.9772	6,498.05	73.1407	6,498.05	54.8374	6,498.05	65.6217	6,498.05	66.5224	6,498.05	63.0333
6,726.56	91.9314	6,726.56	89.598	6,726.56	89.4451	6,726.56	89.155	6,726.56	88.0246	6,726.56	87.2808	6,726.56	88.396	6,726.56	87.8386	6,726.56	86.8611	6,726.56	87.3876	6,726.56	88.6775	6,726.56	86.6023	6,726.56	86.3339	6,726.56	85.1785	6,726.56	83.0717	6,726.56	82.3238	6,726.56	86.0095	6,726.56	79.0312	6,726.56	79.5301	6,726.56	75.0428	6,726.56	79.8621	6,726.56	73.3994	6,726.56	71.3219	6,726.56	69.9968	6,726.56	67.8933	6,726.56	65.9753	6,726.56	65.6165	6,726.56	70.3917	6,726.56	68.8764	6,726.56	72.2688	6,726.56	71.466	6,726.56	72.8258	6,726.56	58.6167	6,726.56	65.6976	6,726.56	66.69	6,726.56	57.1654
6,963.87	91.4718	6,963.87	89.1723	6,963.87	89.8515	6,963.87	89.5068	6,963.87	88.857	6,963.87	88.5207	6,963.87	88.2199	6,963.87	87.8592	6,963.87	87.037	6,963.87	87.2771	6,963.87	88.8376	6,963.87	87.2933	6,963.87	87.3163	6,963.87	85.0941	6,963.87	82.1651	6,963.87	82.3015	6,963.87	80.9764	6,963.87	79.4065	6,963.87	69.9343	6,963.87	75.1158	6,963.87	78.7873	6,963.87	73.2299	6,963.87	73.3277	6,963.87	68.6517	6,963.87	72.2355	6,963.87	67.952	6,963.87	59.4717	6,963.87	69.9273	6,963.87	69.599	6,963.87	71.4644	6,963.87	74.0595	6,963.87	72.4231	6,963.87	56.5736	6,963.87	67.0509	6,963.87	64.0708	6,963.87	56.1547
7,209.96	90.4635	7,209.96	88.7622	7,209.96	90.214	7,209.96	90.2332	7,209.96	89.8239	7,209.96	89.069	7,209.96	88.9468	7,209.96	87.6514	7,209.96	86.9657	7,209.96	87.3811	7,209.96	89.2888	7,209.96	87.32	7,209.96	86.9719	7,209.96	84.9693	7,209.96	80.193	7,209.96	81.777	7,209.96	81.4152	7,209.96	77.8334	7,209.96	78.1696	7,209.96	73.6753	7,209.96	66.9382	7,209.96	72.3405	7,209.96	65.1112	7,209.96	66.6318	7,209.96	71.836	7,209.96	66.7551	7,209.96	51.2175	7,209.96	66.7238	7,209.96	71.4579	7,209.96	70.9384	7,209.96	70.3786	7,209.96	72.9763	7,209.96	53.2951	7,209.96	62.6142	7,209.96	64.9852	7,209.96	56.841
7,464.84	89.2331	7,464.84	88.596	7,464.84	90.2213	7,464.84	90.6666	7,464.84	90.319	7,464.84	89.1783	7,464.84	89.3232	7,464.84	88.1619	7,464.84	86.5051	7,464.84	87.497	7,464.84	87.7467	7,464.84	86.9975	7,464.84	86.1188	7,464.84	84.0663	7,464.84	80.7673	7,464.84	80.7782	7,464.84	81.9974	7,464.84	76.7635	7,464.84	81.8928	7,464.84	73.1146	7,464.84	77.538	7,464.84	71.3973	7,464.84	63.8105	7,464.84	66.2499	7,464.84	69.8293	7,464.84	66.05	7,464.84	56.9917	7,464.84	66.0093	7,464.84	71.1428	7,464.84	69.5675	7,464.84	65.3914	7,464.84	70.894	7,464.84	56.4688	7,464.84	62.2054	7,464.84	65.0636	7,464.84	53.4421
7,727.05	88.4293	7,727.05	89.1189	7,727.05	90.3268	7,727.05	90.7763	7,727.05	91.2052	7,727.05	90.1043	7,727.05	90.1517	7,727.05	88.4453	7,727.05	87.9785	7,727.05	87.1711	7,727.05	87.8449	7,727.05	86.3018	7,727.05	85.7621	7,727.05	83.7631	7,727.05	81.7088	7,727.05	81.2781	7,727.05	84.9411	7,727.05	75.8915	7,727.05	81.0597	7,727.05	72.3055	7,727.05	74.6315	7,727.05	70.71	7,727.05	67.7685	7,727.05	65.0069	7,727.05	60.7027	7,727.05	67.6837	7,727.05	61.5646	7,727.05	63.3281	7,727.05	68.1381	7,727.05	69.9204	7,727.05	69.4601	7,727.05	70.3889	7,727.05	60.3548	7,727.05	63.0944	7,727.05	60.8624	7,727.05	62.1462
7,999.51	88.1216	7,999.51	89.3603	7,999.51	90.1256	7,999.51	90.9425	7,999.51	91.5204	7,999.51	90.6459	7,999.51	90.0949	7,999.51	88.2874	7,999.51	88.675	7,999.51	86.8537	7,999.51	88.5266	7,999.51	85.4446	7,999.51	84.0197	7,999.51	82.7665	7,999.51	81.1525	7,999.51	79.9652	7,999.51	86.0557	7,999.51	76.0244	7,999.51	80.9392	7,999.51	72.278	7,999.51	62.2041	7,999.51	69.3491	7,999.51	68.0022	7,999.51	63.5416	7,999.51	62.1194	7,999.51	66.2474	7,999.51	67.0074	7,999.51	64.8841	7,999.51	70.7546	7,999.51	68.3346	7,999.51	60.9785	7,999.51	70.7921	7,999.51	59.8548	7,999.51	63.2543	7,999.51	46.8783	7,999.51	59.8809
8,282.23	87.6806	8,282.23	89.1904	8,282.23	90.243	8,282.23	91.48	8,282.23	92.2684	8,282.23	90.6155	8,282.23	90.6959	8,282.23	88.1167	8,282.23	88.1123	8,282.23	86.5212	8,282.23	88.6982	8,282.23	84.1013	8,282.23	82.9639	8,282.23	82.3121	8,282.23	81.0905	8,282.23	80.1983	8,282.23	84.8649	8,282.23	76.5273	8,282.23	77.0374	8,282.23	72.5661	8,282.23	66.3435	8,282.23	69.4257	8,282.23	61.3509	8,282.23	64.368	8,282.23	56.3689	8,282.23	62.4908	8,282.23	61.7808	8,282.23	64.1487	8,282.23	69.3407	8,282.23	68.4407	8,282.23	65.3622	8,282.23	69.3035	8,282.23	60.9787	8,282.23	60.4035	8,282.23	58.0891	8,282.23	62.3566
8,573.73	87.5294	8,573.73	89.8572	8,573.73	90.2824	8,573.73	91.9524	8,573.73	92.3726	8,573.73	90.5033	8,573.73	90.9453	8,573.73	88.3936	8,573.73	88.4398	8,573.73	85.9775	8,573.73	88.3879	8,573.73	83.3978	8,573.73	83.2529	8,573.73	82.3272	8,573.73	80.3969	8,573.73	79.8925	8,573.73	82.4621	8,573.73	77.1081	8,573.73	79.9158	8,573.73	72.9984	8,573.73	72.4954	8,573.73	70.001	8,573.73	62.3993	8,573.73	65.8145	8,573.73	60.8792	8,573.73	59.7614	8,573.73	60.413	8,573.73	66.7846	8,573.73	61.7537	8,573.73	67.4916	8,573.73	59.7474	8,573.73	69.7235	8,573.73	59.2993	8,573.73	62.551	8,573.73	62.2371	8,573.73	59.8576
8,876.95	88.2491	8,876.95	90.2448	8,876.95	90.0815	8,876.95	92.276	8,876.95	92.7911	8,876.95	91.1431	8,876.95	91.7172	8,876.95	88.1108	8,876.95	88.0275	8,876.95	85.1958	8,876.95	87.1447	8,876.95	82.9281	8,876.95	83.4417	8,876.95	82.8773	8,876.95	79.1279	8,876.95	80.9842	8,876.95	78.8451	8,876.95	78.0517	8,876.95	79.6752	8,876.95	73.4823	8,876.95	74.1741	8,876.95	70.2592	8,876.95	63.7688	8,876.95	66.1572	8,876.95	63.0222	8,876.95	59.3806	8,876.95	61.9678	8,876.95	66.9554	8,876.95	65.1137	8,876.95	66.8553	8,876.95	66.9973	8,876.95	69.9995	8,876.95	63.8005	8,876.95	64.7407	8,876.95	63.0983	8,876.95	55.7442
9,188.96	89.1143	9,188.96	90.4438	9,188.96	89.8038	9,188.96	92.7651	9,188.96	92.7847	9,188.96	91.2004	9,188.96	92.3099	9,188.96	88.1259	9,188.96	88.3816	9,188.96	85.3756	9,188.96	85.4455	9,188.96	84.1483	9,188.96	83.8804	9,188.96	83.9706	9,188.96	76.4788	9,188.96	80.947	9,188.96	68.8355	9,188.96	78.5039	9,188.96	77.9001	9,188.96	73.286	9,188.96	72.9182	9,188.96	71.0146	9,188.96	70.6354	9,188.96	66.6685	9,188.96	52.0443	9,188.96	61.909	9,188.96	60.8578	9,188.96	67.9637	9,188.96	63.8004	9,188.96	65.1969	9,188.96	61.188	9,188.96	69.4665	9,188.96	62.0048	9,188.96	65.1227	9,188.96	58.0075	9,188.96	62.9329
9,514.16	89.682	9,514.16	90.6027	9,514.16	89.4127	9,514.16	92.4253	9,514.16	92.3772	9,514.16	91.4464	9,514.16	92.5376	9,514.16	88.625	9,514.16	88.4011	9,514.16	85.7587	9,514.16	84.5198	9,514.16	85.5804	9,514.16	83.7971	9,514.16	83.9171	9,514.16	77.0112	9,514.16	81.3304	9,514.16	76.5245	9,514.16	77.8696	9,514.16	78.5993	9,514.16	72.9759	9,514.16	75.1812	9,514.16	69.9997	9,514.16	70.8554	9,514.16	64.9239	9,514.16	57.4749	9,514.16	64.5405	9,514.16	52.763	9,514.16	68.5215	9,514.16	57.9772	9,514.16	63.9341	9,514.16	60.9426	9,514.16	69.9662	9,514.16	65.8722	9,514.16	62.9175	9,514.16	61.8389	9,514.16	62.1003
9,849.61	90.9454	9,849.61	90.4074	9,849.61	89.4414	9,849.61	91.7142	9,849.61	92.2517	9,849.61	91.4022	9,849.61	92.0285	9,849.61	88.2704	9,849.61	88.1318	9,849.61	87.1779	9,849.61	84.8904	9,849.61	85.7118	9,849.61	83.4146	9,849.61	83.3525	9,849.61	80.2646	9,849.61	79.3261	9,849.61	80.5195	9,849.61	76.0402	9,849.61	79.0681	9,849.61	72.2643	9,849.61	71.2766	9,849.61	67.0701	9,849.61	71.576	9,849.61	64.1764	9,849.61	62.9226	9,849.61	63.7454	9,849.61	60.2181	9,849.61	66.8155	9,849.61	57.6085	9,849.61	62.221	9,849.61	53.2674	9,849.61	69.4297	9,849.61	64.1126	9,849.61	62.7298	9,849.61	60.1195	9,849.61	62.7978
10,196.8	91.8564	10,196.8	90.5636	10,196.8	89.8043	10,196.8	90.6578	10,196.8	91.5232	10,196.8	89.7511	10,196.8	91.5589	10,196.8	88.3248	10,196.8	88.2214	10,196.8	87.0886	10,196.8	85.2667	10,196.8	85.3496	10,196.8	83.861	10,196.8	82.6732	10,196.8	80.1361	10,196.8	79.0221	10,196.8	81.6125	10,196.8	76.3481	10,196.8	79.4827	10,196.8	72.0501	10,196.8	72.3682	10,196.8	66.9708	10,196.8	68.2672	10,196.8	62.5222	10,196.8	63.6647	10,196.8	64.4856	10,196.8	58.5595	10,196.8	66.0375	10,196.8	53.0228	10,196.8	58.5081	10,196.8	44.8169	10,196.8	69.9602	10,196.8	65.6582	10,196.8	61.8511	10,196.8	59.527	10,196.8	61.6927
10,555.7	92.6661	10,555.7	90.8121	10,555.7	90.6316	10,555.7	88.9079	10,555.7	90.0082	10,555.7	88.7265	10,555.7	90.1649	10,555.7	87.934	10,555.7	88.9395	10,555.7	86.2836	10,555.7	86.4621	10,555.7	84.5928	10,555.7	82.7586	10,555.7	81.9837	10,555.7	77.2596	10,555.7	78.1194	10,555.7	79.1198	10,555.7	75.3077	10,555.7	76.2146	10,555.7	71.3655	10,555.7	67.8667	10,555.7	66.3	10,555.7	69.7882	10,555.7	62.2595	10,555.7	59.8732	10,555.7	63.4872	10,555.7	56.2416	10,555.7	65.1109	10,555.7	60.4391	10,555.7	58.365	10,555.7	55.2436	10,555.7	68.791	10,555.7	62.3597	10,555.7	63.0988	10,555.7	59.966	10,555.7	59.7208
10,927.7	93.6275	10,927.7	91.5566	10,927.7	91.9265	10,927.7	88.941	10,927.7	88.8638	10,927.7	88.552	10,927.7	89.0358	10,927.7	88.0372	10,927.7	89.0348	10,927.7	85.0781	10,927.7	86.8734	10,927.7	83.5511	10,927.7	81.8313	10,927.7	81.1231	10,927.7	75.4585	10,927.7	77.8808	10,927.7	74.8746	10,927.7	74.772	10,927.7	72.8514	10,927.7	70.2724	10,927.7	65.96	10,927.7	65.5058	10,927.7	68.9405	10,927.7	62.4876	10,927.7	63.3293	10,927.7	62.7629	10,927.7	51.5733	10,927.7	62.716	10,927.7	41.2219	10,927.7	57.9694	10,927.7	55.6008	10,927.7	69.0033	10,927.7	63.6767	10,927.7	61.0847	10,927.7	62.0993	10,927.7	55.0708
11,313	94.5058	11,313	92.7642	11,313	93.1922	11,313	89.8866	11,313	89.7954	11,313	89.4255	11,313	89.6953	11,313	88.2374	11,313	88.8594	11,313	83.7634	11,313	86.2236	11,313	82.3703	11,313	83.4632	11,313	79.3002	11,313	78.4383	11,313	75.8654	11,313	70.4583	11,313	71.6718	11,313	70.6556	11,313	68.3681	11,313	65.7316	11,313	62.6333	11,313	54.3112	11,313	60.7274	11,313	52.9602	11,313	60.206	11,313	61.5797	11,313	56.6179	11,313	59.0563	11,313	59.1401	11,313	54.2842	11,313	67.0274	11,313	59.0044	11,313	61.2327	11,313	57.3424	11,313	53.6457
11,712.9	95.2744	11,712.9	93.5371	11,712.9	94.092	11,712.9	91.2133	11,712.9	90.7834	11,712.9	90.5506	11,712.9	90.4646	11,712.9	88.9448	11,712.9	89.0344	11,712.9	84.2963	11,712.9	86.3661	11,712.9	81.9994	11,712.9	81.6216	11,712.9	79.3912	11,712.9	76.1669	11,712.9	75.5098	11,712.9	72.4935	11,712.9	71.5596	11,712.9	69.3532	11,712.9	66.006	11,712.9	65.5381	11,712.9	61.7618	11,712.9	58.5006	11,712.9	62.0617	11,712.9	56.6279	11,712.9	53.8451	11,712.9	62.0365	11,712.9	54.8424	11,712.9	53.3043	11,712.9	58.6025	11,712.9	57.2427	11,712.9	66.7594	11,712.9	50.8243	11,712.9	59.8842	11,712.9	55.5111	11,712.9	52.7753
12,126	95.9231	12,126	94.2442	12,126	94.7399	12,126	91.9471	12,126	91.7088	12,126	90.947	12,126	91.0927	12,126	89.3503	12,126	89.1716	12,126	84.5085	12,126	86.5733	12,126	81.4883	12,126	79.9791	12,126	78.5992	12,126	77.5095	12,126	74.3866	12,126	74.4439	12,126	69.4477	12,126	71.216	12,126	64.4433	12,126	62.9812	12,126	58.9401	12,126	60.4648	12,126	59.862	12,126	59.7629	12,126	51.0293	12,126	53.0895	12,126	49.5618	12,126	50.8069	12,126	59.3602	12,126	51.3141	12,126	64.5001	12,126	50.3451	12,126	56.1175	12,126	54.781	12,126	48.6488
12,553.7	96.1718	12,553.7	94.6123	12,553.7	95.2636	12,553.7	92.5289	12,553.7	92.6136	12,553.7	91.0617	12,553.7	91.3762	12,553.7	89.1297	12,553.7	89.0352	12,553.7	84.3506	12,553.7	86.393	12,553.7	80.9959	12,553.7	80.951	12,553.7	77.5046	12,553.7	77.7542	12,553.7	71.9607	12,553.7	70.3502	12,553.7	66.6919	12,553.7	70.3148	12,553.7	60.5421	12,553.7	59.54	12,553.7	57.318	12,553.7	59.265	12,553.7	58.1228	12,553.7	59.4664	12,553.7	45.7346	12,553.7	47.4791	12,553.7	32.3372	12,553.7	54.3928	12,553.7	57.7005	12,553.7	37.2863	12,553.7	62.6942	12,553.7	47.6723	12,553.7	52.0249	12,553.7	51.6217	12,553.7	46.507
12,996.1	95.9804	12,996.1	94.4798	12,996.1	95.2411	12,996.1	92.6133	12,996.1	92.9108	12,996.1	90.8209	12,996.1	91.3575	12,996.1	88.734	12,996.1	88.4852	12,996.1	84.3692	12,996.1	85.1565	12,996.1	79.7776	12,996.1	80.0316	12,996.1	76.1018	12,996.1	77.0278	12,996.1	70.0963	12,996.1	61.7019	12,996.1	63.8811	12,996.1	67.7811	12,996.1	59.191	12,996.1	54.6292	12,996.1	55.968	12,996.1	57.1413	12,996.1	55.4783	12,996.1	55.5213	12,996.1	45.713	12,996.1	56.5506	12,996.1	47.0908	12,996.1	54.2034	12,996.1	57.3433	12,996.1	49.3657	12,996.1	60.3655	12,996.1	48.5632	12,996.1	51.8054	12,996.1	49.3335	12,996.1	45.5416
13,454.6	95.6295	13,454.6	94.4949	13,454.6	94.7424	13,454.6	92.6358	13,454.6	92.7313	13,454.6	90.4379	13,454.6	90.8948	13,454.6	88.4356	13,454.6	87.2054	13,454.6	83.7848	13,454.6	82.2602	13,454.6	78.8719	13,454.6	77.2141	13,454.6	75.6905	13,454.6	72.6658	13,454.6	68.2333	13,454.6	63.1152	13,454.6	62.8818	13,454.6	65.3703	13,454.6	56.3778	13,454.6	53.3413	13,454.6	55.5214	13,454.6	54.3219	13,454.6	50.4039	13,454.6	55.7484	13,454.6	44.5638	13,454.6	59.3349	13,454.6	49.2285	13,454.6	51.0257	13,454.6	55.1638	13,454.6	53.3751	13,454.6	59.7672	13,454.6	49.7762	13,454.6	43.2234	13,454.6	42.5467	13,454.6	45.3984
13,929.2	95.4415	13,929.2	94.6753	13,929.2	94.2015	13,929.2	92.6576	13,929.2	92.4236	13,929.2	90.366	13,929.2	90.2422	13,929.2	88.1128	13,929.2	85.7193	13,929.2	83.1691	13,929.2	80.167	13,929.2	78.4003	13,929.2	73.9452	13,929.2	74.2156	13,929.2	66.0685	13,929.2	65.9386	13,929.2	60.3977	13,929.2	57.4897	13,929.2	57.8039	13,929.2	55.6886	13,929.2	48.9354	13,929.2	53.2153	13,929.2	33.9444	13,929.2	46.7776	13,929.2	54.7406	13,929.2	45.5192	13,929.2	57.9012	13,929.2	48.0103	13,929.2	46.8164	13,929.2	46.8986	13,929.2	46.86	13,929.2	58.733	13,929.2	46.3264	13,929.2	29.8177	13,929.2	47.7636	13,929.2	42.467
14,419.9	95.0618	14,419.9	94.3677	14,419.9	93.4504	14,419.9	92.5116	14,419.9	91.4746	14,419.9	89.8851	14,419.9	89.442	14,419.9	87.1261	14,419.9	84.0212	14,419.9	81.9015	14,419.9	76.3446	14,419.9	75.2788	14,419.9	66.7199	14,419.9	69.7331	14,419.9	58.722	14,419.9	59.8566	14,419.9	48.5748	14,419.9	52.6266	14,419.9	49.5643	14,419.9	53.7491	14,419.9	58.5894	14,419.9	44.8785	14,419.9	34.7162	14,419.9	37.5135	14,419.9	47.9454	14,419.9	42.4789	14,419.9	55.6266	14,419.9	44.1588	14,419.9	42.4204	14,419.9	45.6727	14,419.9	48.4934	14,419.9	54.9497	14,419.9	41.4467	14,419.9	30.2751	14,419.9	46.2306	14,419.9	45.1613
14,928.2	94.2458	14,928.2	93.0888	14,928.2	92.5086	14,928.2	91.5284	14,928.2	89.6059	14,928.2	88.7694	14,928.2	87.8364	14,928.2	85.5059	14,928.2	82.264	14,928.2	78.9526	14,928.2	73.1343	14,928.2	70.7846	14,928.2	64.966	14,928.2	63.582	14,928.2	65.0827	14,928.2	50.8183	14,928.2	57.3484	14,928.2	44.4461	14,928.2	51.5354	14,928.2	48.7158	14,928.2	59.9004	14,928.2	40.1979	14,928.2	47.822	14,928.2	37.2723	14,928.2	49.7323	14,928.2	31.9731	14,928.2	50.744	14,928.2	40.5223	14,928.2	41.8974	14,928.2	48.1753	14,928.2	48.1866	14,928.2	48.4202	14,928.2	42.5512	14,928.2	35.1773	14,928.2	41.7402	14,928.2	46.4808
15,455.6	92.9911	15,455.6	91.238	15,455.6	91.4174	15,455.6	89.6334	15,455.6	87.9677	15,455.6	86.9859	15,455.6	85.8045	15,455.6	82.7223	15,455.6	80.8889	15,455.6	74.4333	15,455.6	72.3877	15,455.6	67.1818	15,455.6	64.5318	15,455.6	60.863	15,455.6	58.4748	15,455.6	58.4885	15,455.6	59.1748	15,455.6	55.124	15,455.6	49.0409	15,455.6	43.1446	15,455.6	58.3995	15,455.6	44.4564	15,455.6	38.7286	15,455.6	42.4192	15,455.6	52.3266	15,455.6	45.2962	15,455.6	43.7742	15,455.6	38.0621	15,455.6	47.8269	15,455.6	44.5535	15,455.6	43.1251	15,455.6	51.5217	15,455.6	47.3543	15,455.6	36.4761	15,455.6	46.5515	15,455.6	49.9576
16,000.5	91.4057	16,000.5	89.3681	16,000.5	90.2644	16,000.5	87.0659	16,000.5	87.312	16,000.5	84.2495	16,000.5	84.2224	16,000.5	76.7145	16,000.5	79.4544	16,000.5	64.1781	16,000.5	74.7667	16,000.5	65.2239	16,000.5	69.9675	16,000.5	69.3173	16,000.5	65.6308	16,000.5	67.4803	16,000.5	65.664	16,000.5	64.2485	16,000.5	49.7982	16,000.5	56.6859	16,000.5	62.8125	16,000.5	53.9935	16,000.5	46.9819	16,000.5	37.7683	16,000.5	52.3936	16,000.5	52.2046	16,000.5	52.0703	16,000.5	43.1884	16,000.5	50.5804	16,000.5	47.4281	16,000.5	49.1493	16,000.5	58.2913	16,000.5	49.7781	16,000.5	31.2454	16,000.5	50.7323	16,000.5	52.5848
16,564.5	89.3754	16,564.5	88.0247	16,564.5	89.1573	16,564.5	83.915	16,564.5	87.2588	16,564.5	80.0693	16,564.5	82.5563	16,564.5	69.3491	16,564.5	78.8211	16,564.5	68.9492	16,564.5	77.3324	16,564.5	71.0214	16,564.5	69.5258	16,564.5	72.5829	16,564.5	65.823	16,564.5	70.3885	16,564.5	65.8535	16,564.5	65.848	16,564.5	44.2774	16,564.5	60.7016	16,564.5	63.5986	16,564.5	56.6822	16,564.5	49.9982	16,564.5	40.099	16,564.5	50.5919	16,564.5	55.8405	16,564.5	54.866	16,564.5	46.2791	16,564.5	54.0153	16,564.5	52.82	16,564.5	55.3892	16,564.5	58.7461	16,564.5	53.2567	16,564.5	40.4419	16,564.5	54.6741	16,564.5	55.5593
17,148.9	87.0901	17,148.9	86.9268	17,148.9	88.0251	17,148.9	82.3068	17,148.9	86.722	17,148.9	74.9499	17,148.9	81.7455	17,148.9	73.4538	17,148.9	78.4878	17,148.9	71.4845	17,148.9	74.9591	17,148.9	73.5785	17,148.9	66.515	17,148.9	72.6678	17,148.9	60.7374	17,148.9	70.4046	17,148.9	62.8543	17,148.9	64.3895	17,148.9	42.7591	17,148.9	60.2193	17,148.9	60.3283	17,148.9	54.474	17,148.9	50.9618	17,148.9	46.7605	17,148.9	44.6092	17,148.9	55.7761	17,148.9	54.3881	17,148.9	46.3937	17,148.9	53.7854	17,148.9	54.4732	17,148.9	57.6926	17,148.9	57.1343	17,148.9	53.5747	17,148.9	46.8418	17,148.9	56.8356	17,148.9	55.5495
17,752.4	85.5667	17,752.4	86.3079	17,752.4	87.186	17,752.4	82.5737	17,752.4	85.635	17,752.4	74.9412	17,752.4	81.4718	17,752.4	74.3257	17,752.4	77.7306	17,752.4	73.5297	17,752.4	71.9249	17,752.4	73.5992	17,752.4	62.4395	17,752.4	71.1853	17,752.4	52.1675	17,752.4	68.6395	17,752.4	56.3008	17,752.4	62.7772	17,752.4	44.4602	17,752.4	58.1623	17,752.4	53.1161	17,752.4	48.7589	17,752.4	45.1984	17,752.4	47.2834	17,752.4	33.7053	17,752.4	54.8014	17,752.4	51.3496	17,752.4	45.8692	17,752.4	48.5065	17,752.4	53.525	17,752.4	56.8381	17,752.4	56.9472	17,752.4	53.4515	17,752.4	48.1466	17,752.4	58.2335	17,752.4	56.4589
18,379.4	84.8187	18,379.4	85.8211	18,379.4	86.3883	18,379.4	82.8696	18,379.4	83.6198	18,379.4	76.1069	18,379.4	79.9284	18,379.4	73.5516	18,379.4	75.0442	18,379.4	73.783	18,379.4	66.3085	18,379.4	72.1667	18,379.4	60.865	18,379.4	69.4956	18,379.4	55.1497	18,379.4	67.0204	18,379.4	51.172	18,379.4	62.2171	18,379.4	49.1607	18,379.4	56.6976	18,379.4	54.2451	18,379.4	42.8371	18,379.4	47.201	18,379.4	50.5552	18,379.4	41.5652	18,379.4	55.1779	18,379.4	47.747	18,379.4	47.3685	18,379.4	43.5224	18,379.4	52.7162	18,379.4	56.3784	18,379.4	57.0871	18,379.4	55.0712	18,379.4	48.4609	18,379.4	58.8392	18,379.4	58.0166
19,026.9	82.957	19,026.9	83.6904	19,026.9	84.5007	19,026.9	81.0547	19,026.9	80.4644	19,026.9	76.6515	19,026.9	77.1327	19,026.9	73.9162	19,026.9	70.7552	19,026.9	75.0538	19,026.9	60.8651	19,026.9	72.6179	19,026.9	65.7008	19,026.9	68.7143	19,026.9	64.4843	19,026.9	65.8732	19,026.9	46.9774	19,026.9	61.2561	19,026.9	49.9999	19,026.9	54.9356	19,026.9	58.2042	19,026.9	42.4598	19,026.9	52.0764	19,026.9	52.0288	19,026.9	45.671	19,026.9	55.6937	19,026.9	45.5415	19,026.9	48.1549	19,026.9	51.0744	19,026.9	51.5945	19,026.9	57.7417	19,026.9	55.5639	19,026.9	55.9039	19,026.9	52.4007	19,026.9	58.4036	19,026.9	57.9065
19,697.8	79.729	19,697.8	80.2964	19,697.8	79.8495	19,697.8	79.3716	19,697.8	75.363	19,697.8	77.4404	19,697.8	72.7285	19,697.8	75.3195	19,697.8	66.8521	19,697.8	74.5393	19,697.8	60.4679	19,697.8	71.1504	19,697.8	65.6377	19,697.8	65.2788	19,697.8	66.4048	19,697.8	63.4273	19,697.8	56.6831	19,697.8	59.0951	19,697.8	52.5964	19,697.8	49.7824	19,697.8	60.057	19,697.8	47.0301	19,697.8	54.2671	19,697.8	51.0234	19,697.8	45.8859	19,697.8	53.9603	19,697.8	40.3659	19,697.8	48.0543	19,697.8	49.3776	19,697.8	51.0976	19,697.8	57.3847	19,697.8	55.7848	19,697.8	56.0859	19,697.8	51.4349	19,697.8	57.9353	19,697.8	56.9386
19,999.5	77.9221	19,999.5	78.8242	19,999.5	75.798	19,999.5	79.1767	19,999.5	70.6595	19,999.5	77.5716	19,999.5	69.8611	19,999.5	75.5771	19,999.5	67.7533	19,999.5	73.7304	19,999.5	61.672	19,999.5	70.4299	19,999.5	64.1017	19,999.5	63.7844	19,999.5	64.9913	19,999.5	62.9494	19,999.5	55.8959	19,999.5	57.5182	19,999.5	52.3648	19,999.5	46.0195	19,999.5	58.377	19,999.5	47.8872	19,999.5	54.0487	19,999.5	50.2461	19,999.5	50.0505	19,999.5	54.2706	19,999.5	46.0423	19,999.5	49.6113	19,999.5	56.8299	19,999.5	51.9892	19,999.5	52.6168	19,999.5	56.2428	19,999.5	55.227	19,999.5	50.9028	19,999.5	58.1254	19,999.5	55.4881
