"SPL Horizontal"																																																																							
"On-Axis"		"10°"		"-10°"		"20°"		"-20°"		"30°"		"-30°"		"40°"		"-40°"		"50°"		"-50°"		"60°"		"-60°"		"70°"		"-70°"		"80°"		"-80°"		"90°"		"-90°"		"100°"		"-100°"		"110°"		"-110°"		"120°"		"-120°"		"130°"		"-130°"		"140°"		"-140°"		"150°"		"-150°"		"160°"		"-160°"		"170°"		"-170°"		"180°"	
"Frequency [Hz]"	"Sound Pessure Level [dB]  / [2.83V 1m] "	"Frequency [Hz]"	"Sound Pessure Level [dB]  / [2.83V 1m] "	"Frequency [Hz]"	"Sound Pessure Level [dB]  / [2.83V 1m] "	"Frequency [Hz]"	"Sound Pessure Level [dB]  / [2.83V 1m] "	"Frequency [Hz]"	"Sound Pessure Level [dB]  / [2.83V 1m] "	"Frequency [Hz]"	"Sound Pessure Level [dB]  / [2.83V 1m] "	"Frequency [Hz]"	"Sound Pessure Level [dB]  / [2.83V 1m] "	"Frequency [Hz]"	"Sound Pessure Level [dB]  / [2.83V 1m] "	"Frequency [Hz]"	"Sound Pessure Level [dB]  / [2.83V 1m] "	"Frequency [Hz]"	"Sound Pessure Level [dB]  / [2.83V 1m] "	"Frequency [Hz]"	"Sound Pessure Level [dB]  / [2.83V 1m] "	"Frequency [Hz]"	"Sound Pessure Level [dB]  / [2.83V 1m] "	"Frequency [Hz]"	"Sound Pessure Level [dB]  / [2.83V 1m] "	"Frequency [Hz]"	"Sound Pessure Level [dB]  / [2.83V 1m] "	"Frequency [Hz]"	"Sound Pessure Level [dB]  / [2.83V 1m] "	"Frequency [Hz]"	"Sound Pessure Level [dB]  / [2.83V 1m] "	"Frequency [Hz]"	"Sound Pessure Level [dB]  / [2.83V 1m] "	"Frequency [Hz]"	"Sound Pessure Level [dB]  / [2.83V 1m] "	"Frequency [Hz]"	"Sound Pessure Level [dB]  / [2.83V 1m] "	"Frequency [Hz]"	"Sound Pessure Level [dB]  / [2.83V 1m] "	"Frequency [Hz]"	"Sound Pessure Level [dB]  / [2.83V 1m] "	"Frequency [Hz]"	"Sound Pessure Level [dB]  / [2.83V 1m] "	"Frequency [Hz]"	"Sound Pessure Level [dB]  / [2.83V 1m] "	"Frequency [Hz]"	"Sound Pessure Level [dB]  / [2.83V 1m] "	"Frequency [Hz]"	"Sound Pessure Level [dB]  / [2.83V 1m] "	"Frequency [Hz]"	"Sound Pessure Level [dB]  / [2.83V 1m] "	"Frequency [Hz]"	"Sound Pessure Level [dB]  / [2.83V 1m] "	"Frequency [Hz]"	"Sound Pessure Level [dB]  / [2.83V 1m] "	"Frequency [Hz]"	"Sound Pessure Level [dB]  / [2.83V 1m] "	"Frequency [Hz]"	"Sound Pessure Level [dB]  / [2.83V 1m] "	"Frequency [Hz]"	"Sound Pessure Level [dB]  / [2.83V 1m] "	"Frequency [Hz]"	"Sound Pessure Level [dB]  / [2.83V 1m] "	"Frequency [Hz]"	"Sound Pessure Level [dB]  / [2.83V 1m] "	"Frequency [Hz]"	"Sound Pessure Level [dB]  / [2.83V 1m] "	"Frequency [Hz]"	"Sound Pessure Level [dB]  / [2.83V 1m] "	"Frequency [Hz]"	"Sound Pessure Level [dB]  / [2.83V 1m] "
20.5078	51.4009	20.5078	51.3177	20.5078	51.381	20.5078	51.143	20.5078	51.2566	20.5078	50.9022	20.5078	51.0366	20.5078	50.6424	20.5078	50.744	20.5078	50.4403	20.5078	50.4257	20.5078	50.4005	20.5078	50.1623	20.5078	50.6268	20.5078	50.0703	20.5078	51.1686	20.5078	50.2707	20.5078	51.9854	20.5078	50.8241	20.5078	52.9709	20.5078	51.6841	20.5078	54.0071	20.5078	52.7272	20.5078	55.0004	20.5078	53.8205	20.5078	55.8874	20.5078	54.8629	20.5078	56.6286	20.5078	55.7894	20.5078	57.1996	20.5078	56.5614	20.5078	57.5852	20.5078	57.1563	20.5078	57.7764	20.5078	57.5611	20.5078	57.7687
21.9727	54.2028	21.9727	54.1066	21.9727	54.1819	21.9727	53.8963	21.9727	54.0428	21.9727	53.5789	21.9727	53.7862	21.9727	53.1695	21.9727	53.4167	21.9727	52.7003	21.9727	52.948	21.9727	52.232	21.9727	52.4123	21.9727	51.8649	21.9727	51.8765	21.9727	51.7287	21.9727	51.4563	21.9727	51.9296	21.9727	51.306	21.9727	52.4782	21.9727	51.5485	21.9727	53.2753	21.9727	52.1816	21.9727	54.1752	21.9727	53.0733	21.9727	55.0515	21.9727	54.0528	21.9727	55.8186	21.9727	54.9854	21.9727	56.4252	21.9727	55.7875	21.9727	56.8425	21.9727	56.4133	21.9727	57.0547	21.9727	56.8393	21.9727	57.0543
23.4375	52.898	23.4375	52.7368	23.4375	52.8701	23.4375	52.3822	23.4375	52.6511	23.4375	51.826	23.4375	52.2333	23.4375	51.0613	23.4375	51.604	23.4375	50.099	23.4375	50.7521	23.4375	49.0138	23.4375	49.6872	23.4375	48.0407	23.4375	48.4972	23.4375	47.6492	23.4375	47.4769	23.4375	48.2364	23.4375	47.1988	23.4375	49.6058	23.4375	48.0365	23.4375	51.236	23.4375	49.6155	23.4375	52.7807	23.4375	51.3482	23.4375	54.1031	23.4375	52.9235	23.4375	55.1643	23.4375	54.2405	23.4375	55.9592	23.4375	55.2797	23.4375	56.4916	23.4375	56.0449	23.4375	56.7655	23.4375	56.544	23.4375	56.7831
24.9023	53.0125	24.9023	52.8801	24.9023	52.9912	24.9023	52.6067	24.9023	52.8161	24.9023	52.2263	24.9023	52.5006	24.9023	51.8124	24.9023	52.0812	24.9023	51.5014	24.9023	51.6396	24.9023	51.4892	24.9023	51.3273	24.9023	51.9435	24.9023	51.3553	24.9023	52.8702	24.9023	51.8862	24.9023	54.1055	24.9023	52.8946	24.9023	55.447	24.9023	54.1889	24.9023	56.748	24.9023	55.561	24.9023	57.9256	24.9023	56.8709	24.9023	58.9382	24.9023	58.0436	24.9023	59.7652	24.9023	59.0429	24.9023	60.3959	24.9023	59.8513	24.9023	60.824	24.9023	60.4597	24.9023	61.0456	24.9023	60.8631	24.9023	61.0588
26.3672	56.9995	26.3672	56.9196	26.3672	56.9843	26.3672	56.7541	26.3672	56.8747	26.3672	56.5252	26.3672	56.6811	26.3672	56.2743	26.3672	56.4282	26.3672	56.0686	26.3672	56.1616	26.3672	56.0009	26.3672	55.9548	26.3672	56.1674	26.3672	55.9066	26.3672	56.6235	26.3672	56.114	26.3672	57.3476	26.3672	56.6234	26.3672	58.2519	26.3672	57.398	26.3672	59.2273	26.3672	58.3385	26.3672	60.1806	26.3672	59.333	26.3672	61.0452	26.3672	60.2903	26.3672	61.7776	26.3672	61.1476	26.3672	62.3501	26.3672	61.8646	26.3672	62.7453	26.3672	62.4161	26.3672	62.9525	26.3672	62.7863	26.3672	62.9664
27.832	58.668	27.832	58.5885	27.832	58.6496	27.832	58.4178	27.832	58.5339	27.832	58.1722	27.832	58.3292	27.832	57.883	27.832	58.0544	27.832	57.6042	27.832	57.7457	27.832	57.4167	27.832	57.4639	27.832	57.4183	27.832	57.298	27.832	57.6886	27.832	57.3488	27.832	58.2434	27.832	57.6874	27.832	59.0211	27.832	58.3107	27.832	59.9165	27.832	59.1395	27.832	60.8259	27.832	60.0619	27.832	61.6695	27.832	60.9765	27.832	62.394	27.832	61.8092	27.832	62.9654	27.832	62.5117	27.832	63.3627	27.832	63.0539	27.832	63.5736	27.832	63.4174	27.832	63.5922
29.2969	60.1917	29.2969	60.1171	29.2969	60.1815	29.2969	59.9643	29.2969	60.0874	29.2969	59.7492	29.2969	59.9179	29.2969	59.5017	29.2969	59.6917	29.2969	59.2706	29.2969	59.4423	29.2969	59.1263	29.2969	59.2232	29.2969	59.1504	29.2969	59.1082	29.2969	59.4084	29.2969	59.1782	29.2969	59.9151	29.2969	59.4903	29.2969	60.6222	29.2969	60.0454	29.2969	61.4424	29.2969	60.7844	29.2969	62.2841	29.2969	61.6165	29.2969	63.0728	29.2969	62.4528	29.2969	63.7556	29.2969	63.2234	29.2969	64.2974	29.2969	63.8795	29.2969	64.6759	29.2969	64.3892	29.2969	64.8779	29.2969	64.7322	29.2969	64.8969
30.7617	61.8006	30.7617	61.7303	30.7617	61.7951	30.7617	61.59	30.7617	61.7147	30.7617	61.394	30.7617	61.5671	30.7617	61.1684	30.7617	61.3689	30.7617	60.955	30.7617	61.1494	30.7617	60.8132	30.7617	60.9536	30.7617	60.8127	30.7617	60.843	30.7617	61.0129	30.7617	60.886	30.7617	61.4348	30.7617	61.1345	30.7617	62.0472	30.7617	61.5984	30.7617	62.779	30.7617	62.2371	30.7617	63.548	30.7617	62.9764	30.7617	64.2817	30.7617	63.7361	30.7617	64.9253	30.7617	64.448	30.7617	65.441	30.7617	65.0613	30.7617	65.8041	30.7617	65.5414	30.7617	65.9995	30.7617	65.8655	30.7617	66.0202
32.2266	63.3523	32.2266	63.2913	32.2266	63.3479	32.2266	63.1702	32.2266	63.2786	32.2266	63.0019	32.2266	63.1515	32.2266	62.8088	32.2266	62.9809	32.2266	62.626	32.2266	62.7916	32.2266	62.502	32.2266	62.6211	32.2266	62.4938	32.2266	62.5195	32.2266	62.6513	32.2266	62.5427	32.2266	62.9974	32.2266	62.7364	32.2266	63.5142	32.2266	63.1159	32.2266	64.1481	32.2266	63.6559	32.2266	64.8297	32.2266	64.2994	32.2266	65.4922	32.2266	64.977	32.2266	66.0815	32.2266	65.6246	32.2266	66.5582	32.2266	66.1913	32.2266	66.8954	32.2266	66.6399	32.2266	67.0765	32.2266	66.9456	32.2266	67.0934
33.6914	64.6047	33.6914	64.5499	33.6914	64.5998	33.6914	64.4407	33.6914	64.5359	33.6914	64.289	33.6914	64.4194	33.6914	64.1156	33.6914	64.2638	33.6914	63.9521	33.6914	64.0919	33.6914	63.8414	33.6914	63.9373	33.6914	63.8334	33.6914	63.8446	33.6914	63.9722	33.6914	63.8633	33.6914	64.2798	33.6914	64.0343	33.6914	64.7437	33.6914	64.3735	33.6914	65.3193	33.6914	64.8616	33.6914	65.9455	33.6914	65.4499	33.6914	66.5604	33.6914	66.0762	33.6914	67.112	33.6914	66.6805	33.6914	67.5608	33.6914	67.213	33.6914	67.8797	33.6914	67.6369	33.6914	68.0514	33.6914	67.9268	33.6914	68.0673
35.1563	65.9973	35.1563	65.9531	35.1563	65.9917	35.1563	65.8642	35.1563	65.9372	35.1563	65.7414	35.1563	65.84	35.1563	65.6035	35.1563	65.7126	35.1563	65.4781	35.1563	65.5758	35.1563	65.4014	35.1563	65.4591	35.1563	65.4142	35.1563	65.4001	35.1563	65.5527	35.1563	65.4391	35.1563	65.8351	35.1563	65.6092	35.1563	66.2529	35.1563	65.923	35.1563	66.771	35.1563	66.3658	35.1563	67.3383	35.1563	66.8982	35.1563	67.9006	35.1563	67.4677	35.1563	68.4096	35.1563	68.021	35.1563	68.8273	35.1563	68.512	35.1563	69.126	35.1563	68.9049	35.1563	69.2881	35.1563	69.1743	35.1563	69.3045
36.6211	67.5581	36.6211	67.5215	36.6211	67.555	36.6211	67.4494	36.6211	67.5126	36.6211	67.3515	36.6211	67.4367	36.6211	67.2441	36.6211	67.3384	36.6211	67.1501	36.6211	67.2352	36.6211	67.0993	36.6211	67.1517	36.6211	67.1246	36.6211	67.1184	36.6211	67.255	36.6211	67.1677	36.6211	67.5064	36.6211	67.326	36.6211	67.874	36.6211	67.6048	36.6211	68.3315	36.6211	67.9943	36.6211	68.8374	36.6211	68.4644	36.6211	69.3447	36.6211	68.9719	36.6211	69.8093	36.6211	69.4702	36.6211	70.1945	36.6211	69.9165	36.6211	70.4724	36.6211	70.2761	36.6211	70.6249	36.6211	70.5234	36.6211	70.6422
38.0859	69.1066	38.0859	69.0763	38.0859	69.1037	38.0859	69.0165	38.0859	69.0681	38.0859	68.9354	38.0859	69.0047	38.0859	68.8465	38.0859	68.923	38.0859	68.7692	38.0859	68.8378	38.0859	68.7277	38.0859	68.7694	38.0859	68.7495	38.0859	68.7429	38.0859	68.8593	38.0859	68.785	38.0859	69.072	38.0859	68.9186	38.0859	69.3868	38.0859	69.1553	38.0859	69.7843	38.0859	69.4901	38.0859	70.2308	38.0859	69.9002	38.0859	70.6853	38.0859	70.3499	38.0859	71.1069	38.0859	70.7978	38.0859	71.46	38.0859	71.2041	38.0859	71.7166	38.0859	71.5346	38.0859	71.858	38.0859	71.7635	38.0859	71.874
39.5508	70.4243	39.5508	70.3974	39.5508	70.4235	39.5508	70.3459	39.5508	70.3955	39.5508	70.2766	39.5508	70.3445	39.5508	70.2006	39.5508	70.278	39.5508	70.1334	39.5508	70.2082	39.5508	70.095	39.5508	70.1514	39.5508	70.1075	39.5508	70.1277	39.5508	70.1918	39.5508	70.1588	39.5508	70.3621	39.5508	70.2641	39.5508	70.6203	39.5508	70.4551	39.5508	70.9534	39.5508	70.7305	39.5508	71.3354	39.5508	71.0743	39.5508	71.7313	39.5508	71.4584	39.5508	72.1045	39.5508	71.8473	39.5508	72.4212	39.5508	72.2047	39.5508	72.654	39.5508	72.4982	39.5508	72.7838	39.5508	72.7025	39.5508	72.8003
41.0156	71.4848	41.0156	71.458	41.0156	71.486	41.0156	71.4082	41.0156	71.4616	41.0156	71.3415	41.0156	71.4149	41.0156	71.2676	41.0156	71.3526	41.0156	71.2	41.0156	71.2844	41.0156	71.1559	41.0156	71.2244	41.0156	71.1548	41.0156	71.1895	41.0156	71.2152	41.0156	71.1988	41.0156	71.3506	41.0156	71.2701	41.0156	71.5644	41.0156	71.4154	41.0156	71.8473	41.0156	71.6368	41.0156	72.1776	41.0156	71.9236	41.0156	72.5249	41.0156	72.2531	41.0156	72.8553	41.0156	72.5945	41.0156	73.137	41.0156	72.9146	41.0156	73.3437	41.0156	73.1822	41.0156	73.4568	41.0156	73.372	41.0156	73.4664
42.4805	72.2349	42.4805	72.2147	42.4805	72.2303	42.4805	72.1723	42.4805	72.201	42.4805	72.1131	42.4805	72.1501	42.4805	72.0457	42.4805	72.0836	42.4805	71.9822	42.4805	72.0106	42.4805	71.9379	42.4805	71.944	42.4805	71.9301	42.4805	71.9001	42.4805	71.9761	42.4805	71.8969	42.4805	72.089	42.4805	71.952	42.4805	72.2737	42.4805	72.0778	42.4805	72.5238	42.4805	72.2776	42.4805	72.8213	42.4805	72.5427	42.4805	73.1389	42.4805	72.8522	42.4805	73.4452	42.4805	73.1769	42.4805	73.7092	42.4805	73.4839	42.4805	73.9042	42.4805	73.7422	42.4805	74.0109	42.4805	73.9263	42.4805	74.0187
43.9453	73.134	43.9453	73.119	43.9453	73.1273	43.9453	73.0845	43.9453	73.0992	43.9453	73.0351	43.9453	73.0526	43.9453	72.9783	43.9453	72.9928	43.9453	72.9246	43.9453	72.9284	43.9453	72.887	43.9453	72.8707	43.9453	72.8809	43.9453	72.8339	43.9453	72.9211	43.9453	72.8341	43.9453	73.0195	43.9453	72.8862	43.9453	73.1814	43.9453	73.0011	43.9453	73.4021	43.9453	73.182	43.9453	73.6667	43.9453	73.4211	43.9453	73.9518	43.9453	73.7004	43.9453	74.2289	43.9453	73.9939	43.9453	74.4694	43.9453	74.2721	43.9453	74.6485	43.9453	74.5065	43.9453	74.7476	43.9453	74.6734	43.9453	74.7563
45.4102	73.9131	45.4102	73.9008	45.4102	73.9078	45.4102	73.8726	45.4102	73.8852	45.4102	73.8327	45.4102	73.8479	45.4102	73.7879	45.4102	73.8011	45.4102	73.7475	45.4102	73.7522	45.4102	73.7232	45.4102	73.7116	45.4102	73.7281	45.4102	73.6916	45.4102	73.7755	45.4102	73.7057	45.4102	73.8754	45.4102	73.7666	45.4102	74.0321	45.4102	73.8831	45.4102	74.2414	45.4102	74.0573	45.4102	74.4901	45.4102	74.2822	45.4102	74.7569	45.4102	74.5419	45.4102	75.0162	45.4102	74.8133	45.4102	75.2417	45.4102	75.0699	45.4102	75.4102	45.4102	75.2858	45.4102	75.5044	45.4102	75.4391	45.4102	75.5144
46.875	74.8405	46.875	74.8314	46.875	74.8358	46.875	74.8101	46.875	74.8178	46.875	74.7801	46.875	74.7886	46.875	74.7471	46.875	74.7525	46.875	74.7187	46.875	74.7158	46.875	74.7047	46.875	74.6871	46.875	74.7159	46.875	74.6765	46.875	74.7633	46.875	74.6954	46.875	74.8553	46.875	74.7543	46.875	74.9962	46.875	74.8607	46.875	75.1828	46.875	75.0169	46.875	75.4044	46.875	75.2176	46.875	75.6431	46.875	75.4495	46.875	75.8763	46.875	75.693	46.875	76.0803	46.875	75.9244	46.875	76.2334	46.875	76.1201	46.875	76.3193	46.875	76.2597	46.875	76.3284
48.3398	75.5428	48.3398	75.5343	48.3398	75.5396	48.3398	75.5153	48.3398	75.525	48.3398	75.489	48.3398	75.501	48.3398	75.4603	48.3398	75.4716	48.3398	75.4361	48.3398	75.4425	48.3398	75.4251	48.3398	75.4211	48.3398	75.4373	48.3398	75.4167	48.3398	75.4826	48.3398	75.4392	48.3398	75.5693	48.3398	75.498	48.3398	75.7015	48.3398	75.6002	48.3398	75.8771	48.3398	75.7479	48.3398	76.0866	48.3398	75.9366	48.3398	76.3135	48.3398	76.1544	48.3398	76.5368	48.3398	76.3833	48.3398	76.7334	48.3398	76.6012	48.3398	76.8824	48.3398	76.7854	48.3398	76.9674	48.3398	76.9161	48.3398	76.9791
51.2695	76.9056	51.2695	76.9034	51.2695	76.9032	51.2695	76.8976	51.2695	76.8964	51.2695	76.8903	51.2695	76.8865	51.2695	76.8845	51.2695	76.8759	51.2695	76.8847	51.2695	76.8683	51.2695	76.8966	51.2695	76.8684	51.2695	76.9264	51.2695	76.8822	51.2695	76.9805	51.2695	76.9163	51.2695	77.0644	51.2695	76.9771	51.2695	77.1809	51.2695	77.0695	51.2695	77.3286	51.2695	77.1955	51.2695	77.5011	51.2695	77.3525	51.2695	77.6865	51.2695	77.5324	51.2695	77.8685	51.2695	77.7216	51.2695	78.0289	51.2695	77.9031	51.2695	78.1502	51.2695	78.058	51.2695	78.2183	51.2695	78.1696	51.2695	78.2251
52.7344	77.4566	52.7344	77.4554	52.7344	77.4547	52.7344	77.452	52.7344	77.45	52.7344	77.4479	52.7344	77.4435	52.7344	77.4458	52.7344	77.4372	52.7344	77.4492	52.7344	77.4341	52.7344	77.4628	52.7344	77.4383	52.7344	77.4919	52.7344	77.4546	52.7344	77.542	52.7344	77.4885	52.7344	77.6179	52.7344	77.5456	52.7344	77.7223	52.7344	77.6301	52.7344	77.8544	52.7344	77.7439	52.7344	78.0089	52.7344	77.8848	52.7344	78.1756	52.7344	78.046	52.7344	78.3402	52.7344	78.2158	52.7344	78.486	52.7344	78.3788	52.7344	78.597	52.7344	78.5182	52.7344	78.6601	52.7344	78.6184	52.7344	78.6676
54.1992	77.8169	54.1992	77.8173	54.1992	77.8152	54.1992	77.8168	54.1992	77.8123	54.1992	77.8168	54.1992	77.809	54.1992	77.8192	54.1992	77.8069	54.1992	77.8269	54.1992	77.8083	54.1992	77.8436	54.1992	77.8164	54.1992	77.8736	54.1992	77.8352	54.1992	77.9215	54.1992	77.8691	54.1992	77.9911	54.1992	77.9225	54.1992	78.085	54.1992	77.9992	54.1992	78.2025	54.1992	78.1008	54.1992	78.3394	54.1992	78.2257	54.1992	78.4869	54.1992	78.3683	54.1992	78.6326	54.1992	78.5186	54.1992	78.7618	54.1992	78.6633	54.1992	78.8601	54.1992	78.7875	54.1992	78.9158	54.1992	78.8772	54.1992	78.9218
55.6641	78.15	55.6641	78.1537	55.6641	78.1461	55.6641	78.1576	55.6641	78.1421	55.6641	78.1625	55.6641	78.1388	55.6641	78.1698	55.6641	78.1372	55.6641	78.1817	55.6641	78.1393	55.6641	78.2011	55.6641	78.1476	55.6641	78.2311	55.6641	78.1651	55.6641	78.2756	55.6641	78.1955	55.6641	78.3377	55.6641	78.2427	55.6641	78.4194	55.6641	78.3096	55.6641	78.5206	55.6641	78.3979	55.6641	78.6378	55.6641	78.5066	55.6641	78.7638	55.6641	78.6312	55.6641	78.888	55.6641	78.7633	55.6641	78.9977	55.6641	78.8916	55.6641	79.0804	55.6641	79.0028	55.6641	79.1256	55.6641	79.0846	55.6641	79.1272
58.5938	79.0142	58.5938	79.0191	58.5938	79.0122	58.5938	79.027	58.5938	79.0132	58.5938	79.0381	58.5938	79.0175	58.5938	79.0529	58.5938	79.0253	58.5938	79.0722	58.5938	79.0373	58.5938	79.0971	58.5938	79.0545	58.5938	79.1293	58.5938	79.0784	58.5938	79.1709	58.5938	79.1109	58.5938	79.2239	58.5938	79.1541	58.5938	79.2897	58.5938	79.2102	58.5938	79.3686	58.5938	79.2803	58.5938	79.4585	58.5938	79.3642	58.5938	79.5547	58.5938	79.4591	58.5938	79.6497	58.5938	79.5594	58.5938	79.7343	58.5938	79.6569	58.5938	79.7986	58.5938	79.7417	58.5938	79.8342	58.5938	79.804	58.5938	79.8362
60.0586	79.4151	60.0586	79.4201	60.0586	79.4143	60.0586	79.4291	60.0586	79.4175	60.0586	79.442	60.0586	79.4249	60.0586	79.459	60.0586	79.4365	60.0586	79.4803	60.0586	79.4524	60.0586	79.5064	60.0586	79.473	60.0586	79.5384	60.0586	79.4993	60.0586	79.5779	60.0586	79.5324	60.0586	79.6263	60.0586	79.5739	60.0586	79.685	60.0586	79.6255	60.0586	79.7544	60.0586	79.6882	60.0586	79.8332	60.0586	79.762	60.0586	79.9178	60.0586	79.8448	60.0586	80.0018	60.0586	79.932	60.0586	80.0771	60.0586	80.0168	60.0586	80.1351	60.0586	80.0904	60.0586	80.168	60.0586	80.1442	60.0586	80.1713
62.9883	80.0833	62.9883	80.0904	62.9883	80.0829	62.9883	80.1041	62.9883	80.0893	62.9883	80.1236	62.9883	80.1024	62.9883	80.1485	62.9883	80.1216	62.9883	80.178	62.9883	80.1464	62.9883	80.2117	62.9883	80.1765	62.9883	80.2496	62.9883	80.2114	62.9883	80.2921	62.9883	80.2514	62.9883	80.3399	62.9883	80.2969	62.9883	80.3939	62.9883	80.3485	62.9883	80.4544	62.9883	80.4067	62.9883	80.521	62.9883	80.4715	62.9883	80.5912	62.9883	80.5416	62.9883	80.6607	62.9883	80.6138	62.9883	80.7234	62.9883	80.6828	62.9883	80.7722	62.9883	80.742	62.9883	80.8008	62.9883	80.7847	62.9883	80.8053
64.4531	80.3105	64.4531	80.3182	64.4531	80.3112	64.4531	80.3337	64.4531	80.3202	64.4531	80.3565	64.4531	80.3372	64.4531	80.3854	64.4531	80.3614	64.4531	80.4195	64.4531	80.3919	64.4531	80.4577	64.4531	80.4277	64.4531	80.4995	64.4531	80.4681	64.4531	80.5448	64.4531	80.5125	64.4531	80.5938	64.4531	80.5607	64.4531	80.647	64.4531	80.613	64.4531	80.7049	64.4531	80.6697	64.4531	80.767	64.4531	80.7308	64.4531	80.8316	64.4531	80.7951	64.4531	80.8952	64.4531	80.8602	64.4531	80.9524	64.4531	80.9218	64.4531	80.9972	64.4531	80.9743	64.4531	81.024	64.4531	81.0117	64.4531	81.029
67.3828	80.6493	67.3828	80.6535	67.3828	80.655	67.3828	80.667	67.3828	80.6703	67.3828	80.689	67.3828	80.6945	67.3828	80.7181	67.3828	80.7263	67.3828	80.7526	67.3828	80.7642	67.3828	80.7911	67.3828	80.8065	67.3828	80.8321	67.3828	80.8514	67.3828	80.8748	67.3828	80.8976	67.3828	80.9186	67.3828	80.9442	67.3828	80.9639	67.3828	80.9908	67.3828	81.0109	67.3828	81.0374	67.3828	81.0598	67.3828	81.084	67.3828	81.1102	67.3828	81.1303	67.3828	81.16	67.3828	81.1752	67.3828	81.2059	67.3828	81.2161	67.3828	81.2435	67.3828	81.2495	67.3828	81.2686	67.3828	81.2713	67.3828	81.2782
68.8477	80.8533	68.8477	80.8549	68.8477	80.8616	68.8477	80.866	68.8477	80.8795	68.8477	80.8855	68.8477	80.9061	68.8477	80.9121	68.8477	80.94	68.8477	80.9438	68.8477	80.9793	68.8477	80.979	68.8477	81.0219	68.8477	81.0159	68.8477	81.066	68.8477	81.0534	68.8477	81.1098	68.8477	81.0909	68.8477	81.1521	68.8477	81.1286	68.8477	81.1922	68.8477	81.1668	68.8477	81.2302	68.8477	81.2061	68.8477	81.2661	68.8477	81.2467	68.8477	81.3003	68.8477	81.2873	68.8477	81.332	68.8477	81.3257	68.8477	81.3599	68.8477	81.3585	68.8477	81.3814	68.8477	81.3822	68.8477	81.3937	68.8477	81.3943
71.7773	81.4539	71.7773	81.4562	71.7773	81.4621	71.7773	81.4683	71.7773	81.4804	71.7773	81.4889	71.7773	81.5079	71.7773	81.5161	71.7773	81.5429	71.7773	81.5476	71.7773	81.5831	71.7773	81.5811	71.7773	81.626	71.7773	81.6142	71.7773	81.6689	71.7773	81.6452	71.7773	81.7095	71.7773	81.673	71.7773	81.7458	71.7773	81.6973	71.7773	81.7766	71.7773	81.7187	71.7773	81.8015	71.7773	81.7383	71.7773	81.8206	71.7773	81.7575	71.7773	81.8347	71.7773	81.7768	71.7773	81.8446	71.7773	81.7962	71.7773	81.8506	71.7773	81.8147	71.7773	81.8526	71.7773	81.8308	71.7773	81.8502	71.7773	81.8429
74.707	81.9729	74.707	81.9734	74.707	81.9845	74.707	81.9854	74.707	82.0078	74.707	82.0073	74.707	82.0416	74.707	82.0368	74.707	82.0837	74.707	82.0711	74.707	82.1312	74.707	82.1072	74.707	82.181	74.707	82.1421	74.707	82.2296	74.707	82.1733	74.707	82.2737	74.707	82.1991	74.707	82.3106	74.707	82.2186	74.707	82.3383	74.707	82.2325	74.707	82.3561	74.707	82.2419	74.707	82.3641	74.707	82.249	74.707	82.3635	74.707	82.2557	74.707	82.3564	74.707	82.2638	74.707	82.3449	74.707	82.274	74.707	82.3308	74.707	82.2864	74.707	82.3156	74.707	82.3006
77.6367	82.1396	77.6367	82.1377	77.6367	82.1543	77.6367	82.1482	77.6367	82.1814	77.6367	82.1692	77.6367	82.2194	77.6367	82.1985	77.6367	82.266	77.6367	82.233	77.6367	82.3177	77.6367	82.2692	77.6367	82.3711	77.6367	82.3038	77.6367	82.422	77.6367	82.3337	77.6367	82.4666	77.6367	82.3567	77.6367	82.5018	77.6367	82.3718	77.6367	82.525	77.6367	82.379	77.6367	82.5352	77.6367	82.3799	77.6367	82.5328	77.6367	82.377	77.6367	82.5193	77.6367	82.3732	77.6367	82.4977	77.6367	82.3715	77.6367	82.4714	77.6367	82.3743	77.6367	82.4441	77.6367	82.3829	77.6367	82.4188	77.6367	82.3979
79.1016	82.2713	79.1016	82.2744	79.1016	82.2809	79.1016	82.2893	79.1016	82.303	79.1016	82.3145	79.1016	82.336	79.1016	82.3472	79.1016	82.3778	79.1016	82.3842	79.1016	82.4252	79.1016	82.4219	79.1016	82.4745	79.1016	82.4568	79.1016	82.5216	79.1016	82.4857	79.1016	82.5626	79.1016	82.506	79.1016	82.5941	79.1016	82.5166	79.1016	82.6136	79.1016	82.5175	79.1016	82.62	79.1016	82.5101	79.1016	82.6134	79.1016	82.4974	79.1016	82.5959	79.1016	82.4828	79.1016	82.5706	79.1016	82.4701	79.1016	82.5415	79.1016	82.4625	79.1016	82.513	79.1016	82.4626	79.1016	82.4886	79.1016	82.4713
82.0313	82.9202	82.0313	82.9365	82.0313	82.9139	82.0313	82.9616	82.0313	82.9179	82.0313	82.9935	82.0313	82.931	82.0313	83.0292	82.0313	82.9515	82.0313	83.0651	82.0313	82.9767	82.0313	83.0972	82.0313	83.003	82.0313	83.1218	82.0313	83.0267	82.0313	83.1351	82.0313	83.0441	82.0313	83.1346	82.0313	83.0518	82.0313	83.1189	82.0313	83.0475	82.0313	83.0882	82.0313	83.0301	82.0313	83.0448	82.0313	83.0005	82.0313	82.9927	82.0313	82.9614	82.0313	82.9375	82.0313	82.9171	82.0313	82.8855	82.0313	82.8735	82.0313	82.843	82.0313	82.8368	82.0313	82.815	82.0313	82.8124	82.0313	82.8045
84.9609	83.4405	84.9609	83.4553	84.9609	83.4322	84.9609	83.4755	84.9609	83.4305	84.9609	83.499	84.9609	83.4344	84.9609	83.5227	84.9609	83.442	84.9609	83.5429	84.9609	83.4505	84.9609	83.5557	84.9609	83.4565	84.9609	83.5568	84.9609	83.4562	84.9609	83.5428	84.9609	83.446	84.9609	83.5112	84.9609	83.4229	84.9609	83.4609	84.9609	83.385	84.9609	83.393	84.9609	83.3319	84.9609	83.311	84.9609	83.2655	84.9609	83.2205	84.9609	83.1898	84.9609	83.1294	84.9609	83.1112	84.9609	83.0464	84.9609	83.0373	84.9609	82.9801	84.9609	82.9766	84.9609	82.9373	84.9609	82.9364	84.9609	82.9225
87.8906	83.3069	87.8906	83.3032	87.8906	83.3234	87.8906	83.3117	87.8906	83.3523	87.8906	83.3303	87.8906	83.3917	87.8906	83.3562	87.8906	83.439	87.8906	83.3854	87.8906	83.4902	87.8906	83.4137	87.8906	83.5409	87.8906	83.4369	87.8906	83.5863	87.8906	83.4508	87.8906	83.6216	87.8906	83.4527	87.8906	83.6427	87.8906	83.4411	87.8906	83.6464	87.8906	83.4166	87.8906	83.6314	87.8906	83.3817	87.8906	83.598	87.8906	83.3412	87.8906	83.5489	87.8906	83.3015	87.8906	83.4887	87.8906	83.2691	87.8906	83.4237	87.8906	83.2505	87.8906	83.361	87.8906	83.25	87.8906	83.3077	87.8906	83.2694
90.8203	83.1063	90.8203	83.0942	90.8203	83.1429	90.8203	83.1062	90.8203	83.2031	90.8203	83.1404	90.8203	83.2847	90.8203	83.1937	90.8203	83.3838	90.8203	83.2618	90.8203	83.4957	90.8203	83.3396	90.8203	83.6145	90.8203	83.4215	90.8203	83.7335	90.8203	83.502	90.8203	83.846	90.8203	83.5762	90.8203	83.9455	90.8203	83.6404	90.8203	84.0263	90.8203	83.6927	90.8203	84.084	90.8203	83.7332	90.8203	84.1164	90.8203	83.7642	90.8203	84.1233	90.8203	83.7898	90.8203	84.1073	90.8203	83.8148	90.8203	84.0729	90.8203	83.8439	90.8203	84.0265	90.8203	83.8803	90.8203	83.975	90.8203	83.9247
95.2148	84.0539	95.2148	84.0621	95.2148	84.0537	95.2148	84.0771	95.2148	84.0614	95.2148	84.0971	95.2148	84.0761	95.2148	84.1191	95.2148	84.0959	95.2148	84.1395	95.2148	84.1177	95.2148	84.1542	95.2148	84.1377	95.2148	84.1586	95.2148	84.1515	95.2148	84.1485	95.2148	84.1544	95.2148	84.1207	95.2148	84.142	95.2148	84.073	95.2148	84.1111	95.2148	84.0058	95.2148	84.0597	95.2148	83.922	95.2148	83.9888	95.2148	83.8275	95.2148	83.9019	95.2148	83.7312	95.2148	83.8058	95.2148	83.6435	95.2148	83.7101	95.2148	83.5756	95.2148	83.6257	95.2148	83.5367	95.2148	83.5637	95.2148	83.5325
98.1445	84.0494	98.1445	84.0584	98.1445	84.0508	98.1445	84.0769	98.1445	84.0625	98.1445	84.1026	98.1445	84.0835	98.1445	84.1327	98.1445	84.1116	98.1445	84.1634	98.1445	84.1435	98.1445	84.1899	98.1445	84.175	98.1445	84.2074	98.1445	84.2013	98.1445	84.2111	98.1445	84.2171	98.1445	84.197	98.1445	84.2175	98.1445	84.1623	98.1445	84.1987	98.1445	84.1069	98.1445	84.1586	98.1445	84.0332	98.1445	84.0976	98.1445	83.947	98.1445	84.0192	98.1445	83.857	98.1445	83.9301	98.1445	83.774	98.1445	83.8396	98.1445	83.7093	98.1445	83.759	98.1445	83.6722	98.1445	83.699	98.1445	83.6686
101.074	84.221	101.074	84.2228	101.074	84.2292	101.074	84.2337	101.074	84.2475	101.074	84.252	101.074	84.275	101.074	84.2751	101.074	84.3097	101.074	84.2997	101.074	84.3488	101.074	84.3218	101.074	84.3884	101.074	84.3369	101.074	84.4236	101.074	84.3406	101.074	84.4494	101.074	84.3292	101.074	84.4605	101.074	84.3002	101.074	84.4526	101.074	84.2533	101.074	84.4229	101.074	84.191	101.074	84.3711	101.074	84.1187	101.074	84.2996	101.074	84.0448	101.074	84.2142	101.074	83.9793	101.074	84.1235	101.074	83.9326	101.074	84.0382	101.074	83.9132	101.074	83.9691	101.074	83.9256
105.469	84.2788	105.469	84.2833	105.469	84.2807	105.469	84.2931	105.469	84.2893	105.469	84.3068	105.469	84.3041	105.469	84.3219	105.469	84.3241	105.469	84.3356	105.469	84.3474	105.469	84.3441	105.469	84.3712	105.469	84.3435	105.469	84.3918	105.469	84.3301	105.469	84.405	105.469	84.3008	105.469	84.4063	105.469	84.2543	105.469	84.3916	105.469	84.1913	105.469	84.3579	105.469	84.1152	105.469	84.3042	105.469	84.0327	105.469	84.232	105.469	83.9525	105.469	84.1461	105.469	83.8851	105.469	84.054	105.469	83.8401	105.469	83.9657	105.469	83.8251	105.469	83.8922	105.469	83.8431
108.398	84.4638	108.398	84.4688	108.398	84.4631	108.398	84.4774	108.398	84.4666	108.398	84.4883	108.398	84.474	108.398	84.4995	108.398	84.484	108.398	84.5083	108.398	84.4949	108.398	84.5111	108.398	84.5039	108.398	84.504	108.398	84.5078	108.398	84.4832	108.398	84.5028	108.398	84.4455	108.398	84.4849	108.398	84.389	108.398	84.4508	108.398	84.3142	108.398	84.3985	108.398	84.2245	108.398	84.3278	108.398	84.1263	108.398	84.2414	108.398	84.0287	108.398	84.1451	108.398	83.9428	108.398	84.0473	108.398	83.8794	108.398	83.9586	108.398	83.8473	108.398	83.8901	108.398	83.8511
112.793	84.909	112.793	84.9183	112.793	84.9011	112.793	84.9281	112.793	84.8945	112.793	84.9376	112.793	84.8889	112.793	84.9448	112.793	84.8835	112.793	84.9473	112.793	84.8767	112.793	84.9416	112.793	84.8662	112.793	84.924	112.793	84.849	112.793	84.8905	112.793	84.8216	112.793	84.8378	112.793	84.7804	112.793	84.7639	112.793	84.7228	112.793	84.6693	112.793	84.6473	112.793	84.5572	112.793	84.5549	112.793	84.4345	112.793	84.4494	112.793	84.3111	112.793	84.3378	112.793	84.1991	112.793	84.23	112.793	84.111	112.793	84.1378	112.793	84.0572	112.793	84.0727	112.793	84.0442
117.188	84.9799	117.188	84.9593	117.188	85.0006	117.188	84.9391	117.188	85.021	117.188	84.9189	117.188	85.0404	117.188	84.8979	117.188	85.0576	117.188	84.8747	117.188	85.0708	117.188	84.8469	117.188	85.0777	117.188	84.8117	117.188	85.0752	117.188	84.7661	117.188	85.0598	117.188	84.7073	117.188	85.0277	117.188	84.6342	117.188	84.9759	117.188	84.5474	117.188	84.9025	117.188	84.4507	117.188	84.8077	117.188	84.3508	117.188	84.6944	117.188	84.2572	117.188	84.5688	117.188	84.1812	117.188	84.44	117.188	84.1335	117.188	84.3198	117.188	84.1226	117.188	84.2202	117.188	84.1521
120.117	85.0503	120.117	85.03	120.117	85.07	120.117	85.0087	120.117	85.0891	120.117	84.9857	120.117	85.1073	120.117	84.9599	120.117	85.1237	120.117	84.9297	120.117	85.1366	120.117	84.8927	120.117	85.1435	120.117	84.8465	120.117	85.141	120.117	84.7883	120.117	85.1251	120.117	84.7162	120.117	85.0916	120.117	84.6295	120.117	85.0369	120.117	84.53	120.117	84.959	120.117	84.4224	120.117	84.8578	120.117	84.3145	120.117	84.7362	120.117	84.2167	120.117	84.6005	120.117	84.1407	120.117	84.4603	120.117	84.0973	120.117	84.3275	120.117	84.0943	120.117	84.215	120.117	84.1346
124.512	85.1116	124.512	85.1117	124.512	85.1115	124.512	85.1105	124.512	85.1121	124.512	85.107	124.512	85.1143	124.512	85.0993	124.512	85.1179	124.512	85.0855	124.512	85.1221	124.512	85.063	124.512	85.1247	124.512	85.0285	124.512	85.1223	124.512	84.979	124.512	85.1104	124.512	84.9121	124.512	85.084	124.512	84.8268	124.512	85.0386	124.512	84.7248	124.512	84.9712	124.512	84.6108	124.512	84.8811	124.512	84.493	124.512	84.771	124.512	84.3825	124.512	84.6472	124.512	84.2918	124.512	84.5195	124.512	84.2325	124.512	84.4002	124.512	84.2132	124.512	84.3023	124.512	84.2373
128.906	85.0492	128.906	85.0648	128.906	85.0267	128.906	85.0722	128.906	84.9985	128.906	85.0708	128.906	84.9661	128.906	85.0594	128.906	84.9309	128.906	85.0368	128.906	84.8936	128.906	85.0013	128.906	84.8541	128.906	84.9503	128.906	84.8108	128.906	84.8814	128.906	84.761	128.906	84.7923	128.906	84.7012	128.906	84.6823	128.906	84.6279	128.906	84.5529	128.906	84.5387	128.906	84.4088	128.906	84.4334	128.906	84.2586	128.906	84.3148	128.906	84.114	128.906	84.1895	128.906	83.9883	128.906	84.0672	128.906	83.8948	128.906	83.9598	128.906	83.8434	128.906	83.8801	128.906	83.8389
133.301	85.2407	133.301	85.2584	133.301	85.2141	133.301	85.267	133.301	85.1787	133.301	85.2661	133.301	85.1351	133.301	85.2551	133.301	85.0837	133.301	85.2324	133.301	85.0248	133.301	85.1958	133.301	84.9581	133.301	85.1424	133.301	84.8829	133.301	85.0686	133.301	84.7977	133.301	84.9717	133.301	84.7008	133.301	84.8499	133.301	84.5908	133.301	84.7042	133.301	84.4673	133.301	84.5386	133.301	84.3325	133.301	84.3613	133.301	84.1913	133.301	84.1841	133.301	84.0524	133.301	84.0214	133.301	83.927	133.301	83.888	133.301	83.828	133.301	83.7969	133.301	83.7679	133.301	83.7561
139.16	85.0191	139.16	85.0118	139.16	85.0211	139.16	84.9996	139.16	85.0173	139.16	84.9832	139.16	85.008	139.16	84.963	139.16	84.993	139.16	84.9384	139.16	84.9724	139.16	84.9079	139.16	84.9451	139.16	84.8689	139.16	84.9093	139.16	84.8177	139.16	84.8625	139.16	84.751	139.16	84.8015	139.16	84.6663	139.16	84.7239	139.16	84.5634	139.16	84.6283	139.16	84.4449	139.16	84.516	139.16	84.3175	139.16	84.3912	139.16	84.1909	139.16	84.262	139.16	84.0772	139.16	84.1391	139.16	83.9889	139.16	84.0349	139.16	83.9366	139.16	83.9611	139.16	83.9269
143.555	84.8852	143.555	84.8656	143.555	84.8974	143.555	84.8395	143.555	84.9019	143.555	84.808	143.555	84.8994	143.555	84.7728	143.555	84.8906	143.555	84.7347	143.555	84.8759	143.555	84.6937	143.555	84.8551	143.555	84.6487	143.555	84.8269	143.555	84.5973	143.555	84.7889	143.555	84.5369	143.555	84.738	143.555	84.4654	143.555	84.6713	143.555	84.3822	143.555	84.5873	143.555	84.2892	143.555	84.4866	143.555	84.1913	143.555	84.3731	143.555	84.0959	143.555	84.2538	143.555	84.0125	143.555	84.1387	143.555	83.9509	143.555	84.0388	143.555	83.9194	143.555	83.9645	143.555	83.9235
147.949	84.8779	147.949	84.8545	147.949	84.8869	147.949	84.817	147.949	84.8822	147.949	84.767	147.949	84.8656	147.949	84.7064	147.949	84.8397	147.949	84.6373	147.949	84.8071	147.949	84.5614	147.949	84.7694	147.949	84.4794	147.949	84.7275	147.949	84.3917	147.949	84.68	147.949	84.2983	147.949	84.6246	147.949	84.1998	147.949	84.558	147.949	84.0982	147.949	84.4776	147.949	83.9974	147.949	84.3822	147.949	83.9034	147.949	84.2735	147.949	83.8233	147.949	84.1562	147.949	83.7647	147.949	84.038	147.949	83.734	147.949	83.9282	147.949	83.7354	147.949	83.8363	147.949	83.7702
153.809	85.0736	153.809	85.0643	153.809	85.0613	153.809	85.0337	153.809	85.0281	153.809	84.983	153.809	84.9755	153.809	84.9135	153.809	84.9059	153.809	84.8263	153.809	84.8219	153.809	84.7225	153.809	84.726	153.809	84.6021	153.809	84.6203	153.809	84.4651	153.809	84.5058	153.809	84.3121	153.809	84.3827	153.809	84.1449	153.809	84.2509	153.809	83.9679	153.809	84.1104	153.809	83.7889	153.809	83.9625	153.809	83.618	153.809	83.8107	153.809	83.4672	153.809	83.6607	153.809	83.3481	153.809	83.5205	153.809	83.2696	153.809	83.3991	153.809	83.2367	153.809	83.3062	153.809	83.25
159.668	85.2154	159.668	85.2064	159.668	85.2041	159.668	85.1783	159.668	85.1728	159.668	85.1324	159.668	85.122	159.668	85.0704	159.668	85.0533	159.668	84.9936	159.668	84.9684	159.668	84.9025	159.668	84.8689	159.668	84.7965	159.668	84.7561	159.668	84.6745	159.668	84.6306	159.668	84.5354	159.668	84.4928	159.668	84.3792	159.668	84.3434	159.668	84.2083	159.668	84.1845	159.668	84.0284	159.668	84.0195	159.668	83.8488	159.668	83.8546	159.668	83.6811	159.668	83.6982	159.668	83.5377	159.668	83.5598	159.668	83.4296	159.668	83.4496	159.668	83.3647	159.668	83.3765	159.668	83.347
165.527	85.0544	165.527	85.0433	165.527	85.0474	165.527	85.0153	165.527	85.0222	165.527	84.9726	165.527	84.9797	165.527	84.9173	165.527	84.9216	165.527	84.8514	165.527	84.8499	165.527	84.7756	165.527	84.7663	165.527	84.6895	165.527	84.672	165.527	84.5915	165.527	84.5672	165.527	84.48	165.527	84.4521	165.527	84.3542	165.527	84.3268	165.527	84.2155	165.527	84.1928	165.527	84.0685	165.527	84.0534	165.527	83.9207	165.527	83.9144	165.527	83.7821	165.527	83.7832	165.527	83.663	165.527	83.6686	165.527	83.5724	165.527	83.5788	165.527	83.5168	165.527	83.5209	165.527	83.4995
171.387	84.9326	171.387	84.8992	171.387	84.9429	171.387	84.8444	171.387	84.93	171.387	84.7713	171.387	84.8953	171.387	84.684	171.387	84.8413	171.387	84.5868	171.387	84.7707	171.387	84.4831	171.387	84.6861	171.387	84.3753	171.387	84.5894	171.387	84.2642	171.387	84.4814	171.387	84.1498	171.387	84.3624	171.387	84.0317	171.387	84.2333	171.387	83.9112	171.387	84.0957	171.387	83.7911	171.387	83.9538	171.387	83.6765	171.387	83.8134	171.387	83.5738	171.387	83.6825	171.387	83.4893	171.387	83.5692	171.387	83.4286	171.387	83.4804	171.387	83.3954	171.387	83.4208	171.387	83.3924
177.246	84.7992	177.246	84.772	177.246	84.7999	177.246	84.7187	177.246	84.7757	177.246	84.6413	177.246	84.7297	177.246	84.5432	177.246	84.666	177.246	84.4287	177.246	84.5889	177.246	84.3021	177.246	84.502	177.246	84.1676	177.246	84.4077	177.246	84.0284	177.246	84.3065	177.246	83.8873	177.246	84.1976	177.246	83.7472	177.246	84.0802	177.246	83.6121	177.246	83.954	177.246	83.4868	177.246	83.821	177.246	83.3771	177.246	83.6859	177.246	83.2888	177.246	83.5552	177.246	83.2264	177.246	83.4366	177.246	83.1923	177.246	83.3367	177.246	83.187	177.246	83.2602	177.246	83.2099
183.105	84.6496	183.105	84.6409	183.105	84.6261	183.105	84.6	183.105	84.5728	183.105	84.5285	183.105	84.4943	183.105	84.4299	183.105	84.3966	183.105	84.3087	183.105	84.2863	183.105	84.1697	183.105	84.1698	183.105	84.0178	183.105	84.052	183.105	83.8579	183.105	83.9352	183.105	83.6949	183.105	83.8195	183.105	83.5342	183.105	83.7037	183.105	83.382	183.105	83.5862	183.105	83.2453	183.105	83.4673	183.105	83.1304	183.105	83.3496	183.105	83.0421	183.105	83.2382	183.105	82.9821	183.105	83.1391	183.105	82.9498	183.105	83.0578	183.105	82.9427	183.105	82.9973	183.105	82.9588
188.965	84.707	188.965	84.7032	188.965	84.6715	188.965	84.6614	188.965	84.5973	188.965	84.5842	188.965	84.4873	188.965	84.4755	188.965	84.3464	188.965	84.3394	188.965	84.1813	188.965	84.18	188.965	84.0002	188.965	84.0015	188.965	83.812	188.965	83.8081	188.965	83.6248	188.965	83.6048	188.965	83.4457	188.965	83.3987	188.965	83.2797	188.965	83.1992	188.965	83.1302	188.965	83.0171	188.965	82.9987	188.965	82.8635	188.965	82.8864	188.965	82.7459	188.965	82.7938	188.965	82.6667	188.965	82.721	188.965	82.6222	188.965	82.6671	188.965	82.6056	188.965	82.6305	188.965	82.6097
196.289	84.7694	196.289	84.7372	196.289	84.7635	196.289	84.6696	196.289	84.7188	196.289	84.5711	196.289	84.6371	196.289	84.4476	196.289	84.5216	196.289	84.3051	196.289	84.3774	196.289	84.1496	196.289	84.2104	196.289	83.9858	196.289	84.0273	196.289	83.8174	196.289	83.8346	196.289	83.6475	196.289	83.6393	196.289	83.4794	196.289	83.4481	196.289	83.3173	196.289	83.2679	196.289	83.1671	196.289	83.1059	196.289	83.0349	196.289	82.9683	196.289	82.9255	196.289	82.86	196.289	82.8411	196.289	82.7833	196.289	82.7805	196.289	82.737	196.289	82.7408	196.289	82.7173	196.289	82.7197
203.613	84.669	203.613	84.6137	203.613	84.6755	203.613	84.5117	203.613	84.6333	203.613	84.3676	203.613	84.5449	203.613	84.1882	203.613	84.4149	203.613	83.9818	203.613	84.2497	203.613	83.7575	203.613	84.0568	203.613	83.5252	203.613	83.8446	203.613	83.2945	203.613	83.6219	203.613	83.0751	203.613	83.398	203.613	82.8769	203.613	83.1823	203.613	82.7087	203.613	82.984	203.613	82.5777	203.613	82.8113	203.613	82.4869	203.613	82.6708	203.613	82.4339	203.613	82.5656	203.613	82.4106	203.613	82.4946	203.613	82.4062	203.613	82.4522	203.613	82.4105	203.613	82.4298	203.613	82.418
210.938	84.6955	210.938	84.6409	210.938	84.7003	210.938	84.5368	210.938	84.6568	210.938	84.3854	210.938	84.5684	210.938	84.1906	210.938	84.4398	210.938	83.9581	210.938	84.2766	210.938	83.6946	210.938	84.0849	210.938	83.4086	210.938	83.8705	210.938	83.1106	210.938	83.6392	210.938	82.8132	210.938	83.3972	210.938	82.532	210.938	83.1519	210.938	82.2846	210.938	82.9129	210.938	82.0879	210.938	82.6909	210.938	81.9535	210.938	82.4967	210.938	81.8836	210.938	82.3378	210.938	81.8693	210.938	82.2154	210.938	81.8939	210.938	82.1241	210.938	81.9396	210.938	82.0538	210.938	81.994
218.262	84.5705	218.262	84.5404	218.262	84.5508	218.262	84.4608	218.262	84.4833	218.262	84.3339	218.262	84.3718	218.262	84.1632	218.262	84.2223	218.262	83.9532	218.262	84.0421	218.262	83.7093	218.262	83.8396	218.262	83.4382	218.262	83.6233	218.262	83.1487	218.262	83.4011	218.262	82.8531	218.262	83.1806	218.262	82.5681	218.262	82.9688	218.262	82.3145	218.262	82.7725	218.262	82.1131	218.262	82.5981	218.262	81.9789	218.262	82.4506	218.262	81.9147	218.262	82.3322	218.262	81.9098	218.262	82.2408	218.262	81.9443	218.262	82.1702	218.262	81.9974	218.262	82.1109	218.262	82.0546
225.586	84.6359	225.586	84.6255	225.586	84.5875	225.586	84.5575	225.586	84.4809	225.586	84.4355	225.586	84.3197	225.586	84.2639	225.586	84.1104	225.586	84.048	225.586	83.8622	225.586	83.7936	225.586	83.5871	225.586	83.5072	225.586	83.2994	225.586	83.1975	225.586	83.0149	225.586	82.8773	225.586	82.7502	225.586	82.5653	225.586	82.5207	225.586	82.2867	225.586	82.3388	225.586	82.0686	225.586	82.2117	225.586	81.9317	225.586	82.1385	225.586	81.8805	225.586	82.1098	225.586	81.8998	225.586	82.1092	225.586	81.9603	225.586	82.1164	225.586	82.0299	225.586	82.1124	225.586	82.0843
232.91	84.949	232.91	84.919	232.91	84.9192	232.91	84.8324	232.91	84.8281	232.91	84.6939	232.91	84.6759	232.91	84.5089	232.91	84.4648	232.91	84.2832	232.91	84.1983	232.91	84.0223	232.91	83.8819	232.91	83.7312	232.91	83.5233	232.91	83.416	232.91	83.134	232.91	83.0847	232.91	82.7312	232.91	82.7509	232.91	82.3398	232.91	82.4345	232.91	81.9918	232.91	82.1605	232.91	81.7206	232.91	81.9523	232.91	81.5505	232.91	81.8212	232.91	81.4852	232.91	81.7589	232.91	81.5041	232.91	81.7393	232.91	81.5704	232.91	81.729	232.91	81.6453	232.91	81.7012
241.699	84.6357	241.699	84.5729	241.699	84.6372	241.699	84.4512	241.699	84.5773	241.699	84.2755	241.699	84.4586	241.699	84.0526	241.699	84.2856	241.699	83.7899	241.699	84.0641	241.699	83.4955	241.699	83.8007	241.699	83.1775	241.699	83.5017	241.699	82.8449	241.699	83.1737	241.699	82.509	241.699	82.8253	241.699	82.1865	241.699	82.4696	241.699	81.8995	241.699	82.1271	241.699	81.6725	241.699	81.8253	241.699	81.5244	241.699	81.5935	241.699	81.4572	241.699	81.4514	241.699	81.4524	241.699	81.3985	241.699	81.4764	241.699	81.4112	241.699	81.4953	241.699	81.4527	241.699	81.4876
250.488	84.6913	250.488	84.6298	250.488	84.6849	250.488	84.5033	250.488	84.6094	250.488	84.3165	250.488	84.4655	250.488	84.0747	250.488	84.256	250.488	83.7841	250.488	83.9858	250.488	83.4511	250.488	83.662	250.488	83.0825	250.488	83.2939	250.488	82.686	250.488	82.8937	250.488	82.2727	250.488	82.4775	250.488	81.86	250.488	82.0667	250.488	81.4746	250.488	81.6885	250.488	81.1511	250.488	81.3736	250.488	80.9239	250.488	81.1475	250.488	80.811	250.488	81.0197	250.488	80.8011	250.488	80.9756	250.488	80.8561	250.488	80.9803	250.488	80.9278	250.488	80.9919	250.488	80.9781
259.277	84.8879	259.277	84.828	259.277	84.8872	259.277	84.7098	259.277	84.8252	259.277	84.5371	259.277	84.7026	259.277	84.315	259.277	84.5218	259.277	84.0493	259.277	84.2862	259.277	83.7468	259.277	84.0004	259.277	83.4147	259.277	83.6701	259.277	83.062	259.277	83.3025	259.277	82.7001	259.277	82.9075	259.277	82.3444	259.277	82.4998	259.277	82.014	259.277	82.1013	259.277	81.7302	259.277	81.7417	259.277	81.5112	259.277	81.4538	259.277	81.3654	259.277	81.262	259.277	81.2859	259.277	81.1695	259.277	81.2514	259.277	81.1544	259.277	81.2339	259.277	81.1797	259.277	81.2117
268.066	84.397	268.066	84.305	268.066	84.418	268.066	84.1459	268.066	84.3668	268.066	83.9261	268.066	84.2436	268.066	83.655	268.066	84.0507	268.066	83.3446	268.066	83.792	268.066	83.0084	268.066	83.4736	268.066	82.6608	268.066	83.1046	268.066	82.3154	268.066	82.6978	268.066	81.9852	268.066	82.271	268.066	81.684	268.066	81.8477	268.066	81.4271	268.066	81.4566	268.066	81.2297	268.066	81.1294	268.066	81.1016	268.066	80.8946	268.066	81.0398	268.066	80.7686	268.066	81.0247	268.066	80.7462	268.066	81.0253	268.066	80.7989	268.066	81.011	268.066	80.8847	268.066	80.9634
276.855	84.6505	276.855	84.6049	276.855	84.6256	276.855	84.4802	276.855	84.5403	276.855	84.2712	276.855	84.4042	276.855	83.9768	276.855	84.2239	276.855	83.6008	276.855	84.0022	276.855	83.1529	276.855	83.7383	276.855	82.6501	276.855	83.4299	276.855	82.1205	276.855	83.0774	276.855	81.6056	276.855	82.6884	276.855	81.1586	276.855	82.2823	276.855	80.833	276.855	81.8913	276.855	80.6619	276.855	81.5551	276.855	80.6411	276.855	81.3086	276.855	80.73	276.855	81.1669	276.855	80.8707	276.855	81.1176	276.855	81.009	276.855	81.1267	276.855	81.1082	276.855	81.1514	276.855	81.1536
287.109	84.771	287.109	84.7651	287.109	84.6961	287.109	84.6764	287.109	84.5452	287.109	84.5053	287.109	84.327	287.109	84.2533	287.109	84.0527	287.109	83.9223	287.109	83.7343	287.109	83.5156	287.109	83.3822	287.109	83.0402	287.109	83.0044	287.109	82.511	287.109	82.6082	287.109	81.9572	287.109	82.2047	287.109	81.4271	287.109	81.8136	287.109	80.9861	287.109	81.4668	287.109	80.6995	287.109	81.2026	287.109	80.6003	287.109	81.0504	287.109	80.6672	287.109	81.0139	287.109	80.8334	287.109	81.0645	287.109	81.02	287.109	81.1517	287.109	81.1646	287.109	81.2219	287.109	81.2333
297.363	84.9395	297.363	84.8634	297.363	84.929	297.363	84.7142	297.363	84.8205	297.363	84.5045	297.363	84.6079	297.363	84.2432	297.363	84.2918	297.363	83.9331	297.363	83.8798	297.363	83.5704	297.363	83.3855	297.363	83.1471	297.363	82.826	297.363	82.6561	297.363	82.2208	297.363	82.1004	297.363	81.5949	297.363	81.5063	297.363	80.9863	297.363	80.9363	297.363	80.4552	297.363	80.4862	297.363	80.08	297.363	80.248	297.363	79.9257	297.363	80.2455	297.363	79.9973	297.363	80.4095	297.363	80.224	297.363	80.622	297.363	80.4958	297.363	80.7782	297.363	80.7138	297.363	80.8151
307.617	84.8317	307.617	84.7189	307.617	84.8759	307.617	84.5413	307.617	84.8478	307.617	84.3038	307.617	84.7434	307.617	84.0131	307.617	84.5588	307.617	83.6771	307.617	84.2912	307.617	83.3036	307.617	83.9401	307.617	82.8992	307.617	83.5087	307.617	82.4697	307.617	83.0033	307.617	82.0225	307.617	82.4351	307.617	81.5715	307.617	81.8237	307.617	81.1431	307.617	81.2045	307.617	80.7775	307.617	80.6368	307.617	80.519	307.617	80.2006	307.617	80.3919	307.617	79.9665	307.617	80.3781	307.617	79.9471	307.617	80.418	307.617	80.0776	307.617	80.4391	307.617	80.254	307.617	80.3882
319.336	84.8397	319.336	84.7588	319.336	84.8395	319.336	84.5955	319.336	84.7612	319.336	84.3504	319.336	84.608	319.336	84.0262	319.336	84.3828	319.336	83.6278	319.336	84.0876	319.336	83.162	319.336	83.7244	319.336	82.6392	319.336	83.298	319.336	82.077	319.336	82.8195	319.336	81.5057	319.336	82.3092	319.336	80.9737	319.336	81.7995	319.336	80.5457	319.336	81.334	319.336	80.2849	319.336	80.9619	319.336	80.2207	319.336	80.7248	319.336	80.326	319.336	80.6385	319.336	80.5273	319.336	80.6796	319.336	80.7377	319.336	80.7897	319.336	80.8879	319.336	80.8973	319.336	80.9413
329.59	84.8819	329.59	84.8054	329.59	84.876	329.59	84.6449	329.59	84.7907	329.59	84.4004	329.59	84.6291	329.59	84.0727	329.59	84.3933	329.59	83.6635	329.59	84.0824	329.59	83.1747	329.59	83.6923	329.59	82.6099	329.59	83.2169	329.59	81.979	329.59	82.654	329.59	81.3077	329.59	82.0141	329.59	80.6506	329.59	81.3331	329.59	80.0999	329.59	80.6833	329.59	79.7651	329.59	80.1687	329.59	79.7105	329.59	79.8881	329.59	79.8977	329.59	79.8736	329.59	80.2043	329.59	80.063	329.59	80.4962	329.59	80.3372	329.59	80.6785	329.59	80.579	329.59	80.7063
341.309	84.3375	341.309	84.3186	341.309	84.2785	341.309	84.2183	341.309	84.148	341.309	84.0356	341.309	83.9556	341.309	83.7701	341.309	83.7124	341.309	83.4201	341.309	83.4274	341.309	82.9823	341.309	83.1046	341.309	82.4537	341.309	82.741	341.309	81.8374	341.309	82.3286	341.309	81.1529	341.309	81.8621	341.309	80.4517	341.309	81.3526	341.309	79.8299	341.309	80.8424	341.309	79.4163	341.309	80.4083	341.309	79.3091	341.309	80.1387	341.309	79.4949	341.309	80.0789	341.309	79.8478	341.309	80.193	341.309	80.2128	341.309	80.383	341.309	80.4767	341.309	80.541	341.309	80.5863
353.027	84.6856	353.027	84.6289	353.027	84.6466	353.027	84.4847	353.027	84.5068	353.027	84.2621	353.027	84.2649	353.027	83.9678	353.027	83.9236	353.027	83.6028	353.027	83.4882	353.027	83.1612	353.027	82.9647	353.027	82.6315	353.027	82.3579	353.027	82.0024	353.027	81.6727	353.027	81.2756	353.027	80.9198	353.027	80.4847	353.027	80.1308	353.027	79.7205	353.027	79.3816	353.027	79.1378	353.027	78.8059	353.027	78.8945	353.027	78.554	353.027	79.0241	353.027	78.6807	353.027	79.3887	353.027	79.0773	353.027	79.7841	353.027	79.5482	353.027	80.0506	353.027	79.924	353.027	80.1038
366.211	85.1567	366.211	85.0145	366.211	85.1944	366.211	84.7746	366.211	85.1267	366.211	84.4492	366.211	84.9574	366.211	84.054	366.211	84.6933	366.211	83.6025	366.211	84.3426	366.211	83.0995	366.211	83.9114	366.211	82.5345	366.211	83.3995	366.211	81.8828	366.211	82.7967	366.211	81.1176	366.211	82.0815	366.211	80.2346	366.211	81.2292	366.211	79.2931	366.211	80.2353	366.211	78.4569	366.211	79.1624	366.211	77.9656	366.211	78.2022	366.211	77.9511	366.211	77.6563	366.211	78.2797	366.211	77.6903	366.211	78.6752	366.211	78.118	366.211	78.917	366.211	78.5985	366.211	78.8957
379.395	85.4326	379.395	85.3882	379.395	85.4008	379.395	85.2657	379.395	85.2944	379.395	85.0635	379.395	85.1155	379.395	84.7795	379.395	84.8668	379.395	84.4122	379.395	84.5515	379.395	83.9608	379.395	84.1737	379.395	83.4258	379.395	83.7391	379.395	82.8096	379.395	83.2558	379.395	82.1208	379.395	82.7349	379.395	81.3831	379.395	82.191	379.395	80.6508	379.395	81.6431	379.395	80.0202	379.395	81.1189	379.395	79.61	379.395	80.6593	379.395	79.49	379.395	80.3161	379.395	79.6133	379.395	80.1284	379.395	79.8415	379.395	80.0862	379.395	80.0365	379.395	80.1182	379.395	80.1259
392.578	85.2035	392.578	85.1352	392.578	85.172	392.578	84.9762	392.578	85.0408	392.578	84.7425	392.578	84.8186	392.578	84.4522	392.578	84.5203	392.578	84.119	392.578	84.1628	392.578	83.7448	392.578	83.7596	392.578	83.3178	392.578	83.3145	392.578	82.8166	392.578	82.8192	392.578	82.2208	392.578	82.2578	392.578	81.5293	392.578	81.6224	392.578	80.7874	392.578	80.9371	392.578	80.1123	392.578	80.285	392.578	79.6766	392.578	79.8082	392.578	79.5994	392.578	79.6376	392.578	79.8242	392.578	79.7763	392.578	80.1592	392.578	80.08	392.578	80.4179	392.578	80.3632	392.578	80.4937
405.762	85.2355	405.762	85.1246	405.762	85.1879	405.762	84.8643	405.762	84.9824	405.762	84.4742	405.762	84.6286	405.762	83.9861	405.762	84.1478	405.762	83.442	405.762	83.5744	405.762	82.8856	405.762	82.9552	405.762	82.3469	405.762	82.341	405.762	81.8288	405.762	81.7698	405.762	81.3098	405.762	81.2511	405.762	80.7666	405.762	80.7654	405.762	80.2069	405.762	80.2898	405.762	79.6979	405.762	79.8355	405.762	79.3603	405.762	79.4728	405.762	79.2945	405.762	79.3055	405.762	79.4792	405.762	79.3836	405.762	79.7679	405.762	79.6335	405.762	79.9911	405.762	79.8996	405.762	80.0415
420.41	86.6215	420.41	86.5117	420.41	86.5928	420.41	86.2643	420.41	86.4236	420.41	85.8797	420.41	86.1104	420.41	85.3604	420.41	85.6502	420.41	84.7138	420.41	85.0429	420.41	83.9561	420.41	84.2962	420.41	83.1164	420.41	83.431	420.41	82.2377	420.41	82.4869	420.41	81.3745	420.41	81.522	420.41	80.5855	420.41	80.6037	420.41	79.9282	420.41	79.7949	420.41	79.4555	420.41	79.1501	420.41	79.2064	420.41	78.727	420.41	79.1796	420.41	78.5777	420.41	79.3098	420.41	78.6981	420.41	79.4815	420.41	78.991	420.41	79.5778	420.41	79.3078	420.41	79.5236
435.059	86.1317	435.059	86.0273	435.059	86.1292	435.059	85.8143	435.059	86.0161	435.059	85.4844	435.059	85.7851	435.059	85.0235	435.059	85.4266	435.059	84.4156	435.059	84.9312	435.059	83.6513	435.059	84.2925	435.059	82.7425	435.059	83.5131	435.059	81.7424	435.059	82.6147	435.059	80.7658	435.059	81.655	435.059	79.981	435.059	80.744	435.059	79.5412	435.059	80.0354	435.059	79.4833	435.059	79.6591	435.059	79.7094	435.059	79.6299	435.059	80.0688	435.059	79.8424	435.059	80.4323	435.059	80.1592	435.059	80.7131	435.059	80.4754	435.059	80.8623	435.059	80.7247	435.059	80.8631
451.172	86.7805	451.172	86.6999	451.172	86.7717	451.172	86.5266	451.172	86.6725	451.172	86.2531	451.172	86.4761	451.172	85.8661	451.172	86.1683	451.172	85.3435	451.172	85.728	451.172	84.6535	451.172	85.1289	451.172	83.7565	451.172	84.3429	451.172	82.614	451.172	83.3463	451.172	81.2147	451.172	82.1336	451.172	79.6485	451.172	80.7516	451.172	78.2588	451.172	79.3746	451.172	77.6655	451.172	78.3799	451.172	78.1234	451.172	78.1743	451.172	79.116	451.172	78.7212	451.172	80.0814	451.172	79.5791	451.172	80.7784	451.172	80.3737	451.172	81.15	451.172	80.9324	451.172	81.1975
465.82	86.3016	465.82	86.227	465.82	86.3056	465.82	86.0779	465.82	86.2402	465.82	85.8486	465.82	86.1022	465.82	85.5296	465.82	85.8809	465.82	85.1052	465.82	85.5567	465.82	84.5524	465.82	85.1006	465.82	83.844	465.82	84.4766	465.82	82.9565	465.82	83.6477	465.82	81.8822	465.82	82.5872	465.82	80.6529	465.82	81.3048	465.82	79.3912	465.82	79.9054	465.82	78.3832	465.82	78.6807	465.82	78.0164	465.82	78.0774	465.82	78.3924	465.82	78.2872	465.82	79.1553	465.82	78.9835	465.82	79.8852	465.82	79.7253	465.82	80.353	465.82	80.2586	465.82	80.4797
483.398	85.85	483.398	85.7893	483.398	85.848	483.398	85.6709	483.398	85.7775	483.398	85.4928	483.398	85.6331	483.398	85.2407	483.398	85.4078	483.398	84.8829	483.398	85.0888	483.398	84.3705	483.398	84.6525	483.398	83.6407	483.398	84.0625	483.398	82.6258	483.398	83.2714	483.398	81.2745	483.398	82.2277	483.398	79.617	483.398	80.8989	483.398	77.9483	483.398	79.3459	483.398	77.0327	483.398	77.906	483.398	77.4379	483.398	77.3	483.398	78.5953	483.398	77.8873	483.398	79.7462	483.398	79.0491	483.398	80.5872	483.398	80.1178	483.398	81.0548	483.398	80.831	483.398	81.1401
499.512	85.9753	499.512	85.8943	499.512	85.9832	499.512	85.7479	499.512	85.9178	499.512	85.5483	499.512	85.784	499.512	85.3029	499.512	85.5847	499.512	85.002	499.512	85.3139	499.512	84.6113	499.512	84.9504	499.512	84.0739	499.512	84.4568	499.512	83.3219	499.512	83.7819	499.512	82.2932	499.512	82.8662	499.512	80.9602	499.512	81.6524	499.512	79.4005	499.512	80.1191	499.512	77.9568	499.512	78.3927	499.512	77.2989	499.512	76.9983	499.512	77.7478	499.512	76.7729	499.512	78.7452	499.512	77.694	499.512	79.6515	499.512	78.887	499.512	80.1759	499.512	79.7892	499.512	80.2284
517.09	86.2273	517.09	86.1453	517.09	86.2305	517.09	85.985	517.09	86.1601	517.09	85.7504	517.09	86.0259	517.09	85.4417	517.09	85.8354	517.09	85.0482	517.09	85.5846	517.09	84.5409	517.09	85.25	517.09	83.8708	517.09	84.7868	517.09	82.9751	517.09	84.1355	517.09	81.7948	517.09	83.2323	517.09	80.3195	517.09	82.0269	517.09	78.707	517.09	80.5257	517.09	77.4886	517.09	78.9135	517.09	77.3714	517.09	77.7524	517.09	78.2511	517.09	77.7111	517.09	79.3733	517.09	78.5943	517.09	80.2574	517.09	79.648	517.09	80.7461	517.09	80.4298	517.09	80.8045
536.133	85.1786	536.133	85.1147	536.133	85.1594	536.133	84.9881	536.133	85.0499	536.133	84.8207	536.133	84.8575	536.133	84.6198	536.133	84.5976	536.133	84.3628	536.133	84.28	536.133	83.9928	536.133	83.8954	536.133	83.4241	536.133	83.4077	536.133	82.5539	536.133	82.7576	536.133	81.2768	536.133	81.8755	536.133	79.5264	536.133	80.7075	536.133	77.4517	536.133	79.2798	536.133	75.922	536.133	77.8623	536.133	76.2342	536.133	77.132	536.133	77.8072	536.133	77.599	536.133	79.3545	536.133	78.7758	536.133	80.4396	536.133	79.9361	536.133	81.0183	536.133	80.7462	536.133	81.1143
555.176	86.0168	555.176	85.9124	555.176	86.0105	555.176	85.7116	555.176	85.9042	555.176	85.4512	555.176	85.7279	555.176	85.1748	555.176	85.5171	555.176	84.9021	555.176	85.2916	555.176	84.6005	555.176	85.0329	555.176	84.1796	555.176	84.6755	555.176	83.5101	555.176	84.1168	555.176	82.4398	555.176	83.2315	555.176	80.797	555.176	81.8737	555.176	78.4075	555.176	79.865	555.176	75.3819	555.176	77.0242	555.176	73.6275	555.176	73.7586	555.176	75.3139	555.176	73.2147	555.176	77.6933	555.176	75.8437	555.176	79.3144	555.176	78.2005	555.176	80.1335	555.176	79.6252	555.176	80.2366
574.219	86.3916	574.219	86.2907	574.219	86.3726	574.219	86.091	574.219	86.235	574.219	85.8321	574.219	86.0033	574.219	85.5595	574.219	85.7199	574.219	85.3018	574.219	85.4305	574.219	85.0439	574.219	85.1582	574.219	84.7124	574.219	84.8794	574.219	84.1831	574.219	84.5153	574.219	83.2984	574.219	83.945	574.219	81.8787	574.219	83.0254	574.219	79.7303	574.219	81.6072	574.219	76.7791	574.219	79.5685	574.219	74.1238	574.219	77.0168	574.219	74.8026	574.219	75.115	574.219	77.2123	574.219	75.7358	574.219	78.9942	574.219	77.6302	574.219	79.8645	574.219	79.1404	574.219	79.8979
594.727	85.7016	594.727	85.5022	594.727	85.7444	594.727	85.1754	594.727	85.6317	594.727	84.7867	594.727	85.3924	594.727	84.4318	594.727	85.0835	594.727	84.1946	594.727	84.7788	594.727	84.0803	594.727	84.531	594.727	83.9872	594.727	84.3218	594.727	83.7532	594.727	84.0489	594.727	83.2135	594.727	83.5624	594.727	82.221	594.727	82.7059	594.727	80.6514	594.727	81.334	594.727	78.4943	594.727	79.3493	594.727	76.3563	594.727	76.9702	594.727	76.0373	594.727	75.5927	594.727	77.6226	594.727	76.6358	594.727	79.2548	594.727	78.4886	594.727	80.2077	594.727	79.8223	594.727	80.3966
615.234	86.1474	615.234	85.9712	615.234	86.1366	615.234	85.6286	615.234	85.9449	615.234	85.1674	615.234	85.6063	615.234	84.6619	615.234	85.1818	615.234	84.1974	615.234	84.7451	615.234	83.8275	615.234	84.3547	615.234	83.521	615.234	84.0194	615.234	83.1498	615.234	83.6803	615.234	82.5301	615.234	83.2202	615.234	81.47	615.234	82.493	615.234	79.7983	615.234	81.3565	615.234	77.4528	615.234	79.7195	615.234	75.0418	615.234	77.7017	615.234	74.7268	615.234	76.1212	615.234	76.5856	615.234	76.3054	615.234	78.3882	615.234	77.7268	615.234	79.4076	615.234	79.0009	615.234	79.5987
637.207	86.6826	637.207	86.5081	637.207	86.6279	637.207	86.1224	637.207	86.3574	637.207	85.5809	637.207	85.9153	637.207	84.9812	637.207	85.3809	637.207	84.4468	637.207	84.8639	637.207	84.0693	637.207	84.4674	637.207	83.8287	637.207	84.2161	637.207	83.5725	637.207	84.0157	637.207	83.0758	637.207	83.6921	637.207	82.1029	637.207	83.057	637.207	80.4352	637.207	81.9395	637.207	77.973	637.207	80.2159	637.207	75.51	637.207	78.0142	637.207	75.742	637.207	76.4802	637.207	78.0297	637.207	77.2468	637.207	79.9284	637.207	79.0933	637.207	80.9527	637.207	80.5051	637.207	81.1346
659.18	86.4951	659.18	86.297	659.18	86.4702	659.18	85.882	659.18	86.2313	659.18	85.2847	659.18	85.8001	659.18	84.5845	659.18	85.2203	659.18	83.9038	659.18	84.5715	659.18	83.3567	659.18	83.9621	659.18	82.9611	659.18	83.4751	659.18	82.601	659.18	83.0913	659.18	82.0827	659.18	82.677	659.18	81.2052	659.18	82.0483	659.18	79.7949	659.18	81.033	659.18	77.7776	659.18	79.5072	659.18	75.628	659.18	77.5381	659.18	75.2098	659.18	75.9639	659.18	76.9838	659.18	76.3649	659.18	78.8811	659.18	78.106	659.18	80.0035	659.18	79.5723	659.18	80.2317
682.617	86.3884	682.617	86.1523	682.617	86.3788	682.617	85.693	682.617	86.1113	682.617	85.0472	682.617	85.5938	682.617	84.2857	682.617	84.8737	682.617	83.5321	682.617	84.0575	682.617	82.9335	682.617	83.3051	682.617	82.5503	682.617	82.7594	682.617	82.2697	682.617	82.4205	682.617	81.8623	682.617	82.1042	682.617	81.0898	682.617	81.546	682.617	79.75	682.617	80.521	682.617	77.7509	682.617	78.9245	682.617	75.654	682.617	77.0182	682.617	75.5833	682.617	76.0599	682.617	77.6568	682.617	77.1853	682.617	79.6366	682.617	79.0648	682.617	80.7831	682.617	80.4584	682.617	81.0483
707.52	86.7831	707.52	86.5409	707.52	86.7558	707.52	86.0448	707.52	86.4582	707.52	85.3341	707.52	85.9061	707.52	84.4853	707.52	85.1452	707.52	83.6206	707.52	84.2715	707.52	82.8852	707.52	83.4325	707.52	82.3624	707.52	82.7688	707.52	81.9674	707.52	82.3026	707.52	81.4368	707.52	81.8785	707.52	80.4135	707.52	81.2119	707.52	78.4921	707.52	79.9533	707.52	75.247	707.52	77.7162	707.52	71.7544	707.52	74.3859	707.52	73.937	707.52	72.9034	707.52	77.6837	707.52	75.9942	707.52	80.0336	707.52	78.9283	707.52	81.1929	707.52	80.6626	707.52	81.3838
732.422	86.2124	732.422	86.0248	732.422	86.1705	732.422	85.6064	732.422	85.91	732.422	84.9724	732.422	85.4465	732.422	84.1631	732.422	84.8014	732.422	83.2617	732.422	84.0186	732.422	82.4081	732.422	83.1882	732.422	81.7533	732.422	82.4381	732.422	81.3182	732.422	81.8469	732.422	80.8958	732.422	81.3394	732.422	80.1291	732.422	80.6961	732.422	78.6029	732.422	79.629	732.422	75.8031	732.422	77.7873	732.422	71.4237	732.422	74.7349	732.422	70.8128	732.422	71.0483	732.422	75.1574	732.422	72.4519	732.422	78.0148	732.422	76.1896	732.422	79.3499	732.422	78.5045	732.422	79.4944
757.324	85.5684	757.324	85.3665	757.324	85.5488	757.324	84.9381	757.324	85.3057	757.324	84.2928	757.324	84.8377	757.324	83.4986	757.324	84.174	757.324	82.7216	757.324	83.4085	757.324	82.1795	757.324	82.7026	757.324	81.953	757.324	82.211	757.324	81.8584	757.324	81.9475	757.324	81.581	757.324	81.7292	757.324	80.8304	757.324	81.2604	757.324	79.3253	757.324	80.2236	757.324	76.6627	757.324	78.2722	757.324	72.2661	757.324	74.945	757.324	69.0908	757.324	70.2799	757.324	73.2365	757.324	70.7288	757.324	76.5336	757.324	74.8355	757.324	78.094	757.324	77.3205	757.324	78.3305
785.156	85.8412	785.156	85.6324	785.156	85.8069	785.156	85.181	785.156	85.5286	785.156	84.4905	785.156	85.0071	785.156	83.5853	785.156	84.2508	785.156	82.5554	785.156	83.2964	785.156	81.607	785.156	82.2498	785.156	81.0076	785.156	81.3193	785.156	80.8085	785.156	80.7261	785.156	80.6758	785.156	80.4551	785.156	80.1273	785.156	80.1821	785.156	78.7391	785.156	79.4875	785.156	76.0706	785.156	77.9675	785.156	71.5538	785.156	75.106	785.156	68.6297	785.156	70.3213	785.156	73.2612	785.156	69.2713	785.156	76.7224	785.156	74.2141	785.156	78.3513	785.156	77.2518	785.156	78.5192
811.523	85.3836	811.523	85.1324	811.523	85.3778	811.523	84.6505	811.523	85.1008	811.523	83.9635	811.523	84.5637	811.523	83.097	811.523	83.8077	811.523	82.1083	811.523	82.9061	811.523	81.1479	811.523	81.9739	811.523	80.4702	811.523	81.1725	811.523	80.2192	811.523	80.6451	811.523	80.175	811.523	80.3693	811.523	79.8845	811.523	80.1061	811.523	78.8898	811.523	79.508	811.523	76.7038	811.523	78.1857	811.523	72.6879	811.523	75.6515	811.523	68.6022	811.523	71.5278	811.523	72.3067	811.523	70.1389	811.523	75.8921	811.523	74.1638	811.523	77.6279	811.523	76.8948	811.523	77.9487
840.82	85.57	840.82	85.394	840.82	85.5087	840.82	84.9294	840.82	85.2421	840.82	84.1415	840.82	84.7551	840.82	83.0469	840.82	83.9953	840.82	81.7588	840.82	82.9342	840.82	80.5605	840.82	81.6722	840.82	79.8798	840.82	80.5417	840.82	79.8805	840.82	79.9705	840.82	80.153	840.82	79.9658	840.82	80.1168	840.82	80.0395	840.82	79.3299	840.82	79.6908	840.82	77.3747	840.82	78.5525	840.82	73.5642	840.82	76.2482	840.82	67.7789	840.82	72.4874	840.82	70.8232	840.82	70.4952	840.82	75.3788	840.82	74.0362	840.82	77.5357	840.82	76.8686	840.82	77.9794
870.117	85.4659	870.117	85.2351	870.117	85.4665	870.117	84.8011	870.117	85.2113	870.117	84.1699	870.117	84.6973	870.117	83.3172	870.117	83.9569	870.117	82.2219	870.117	83.0496	870.117	80.9698	870.117	82.0355	870.117	79.8801	870.117	80.9989	870.117	79.372	870.117	80.1647	870.117	79.4136	870.117	79.8291	870.117	79.4473	870.117	79.8639	870.117	78.8798	870.117	79.6562	870.117	77.175	870.117	78.6014	870.117	73.5173	870.117	76.2047	870.117	66.9515	870.117	71.9318	870.117	70.0397	870.117	68.3211	870.117	75.0192	870.117	72.3314	870.117	77.103	870.117	75.7604	870.117	77.2715
900.879	85.8189	900.879	85.5977	900.879	85.7794	900.879	85.1063	900.879	85.4941	900.879	84.3522	900.879	84.9593	900.879	83.3493	900.879	84.1441	900.879	82.1049	900.879	83.024	900.879	80.6781	900.879	81.6658	900.879	79.3831	900.879	80.3479	900.879	78.8326	900.879	79.5458	900.879	79.1189	900.879	79.4779	900.879	79.4805	900.879	79.7618	900.879	79.2008	900.879	79.8151	900.879	77.7995	900.879	79.1514	900.879	74.603	900.879	77.2706	900.879	68.2324	900.879	73.4206	900.879	68.496	900.879	68.5428	900.879	74.325	900.879	72.3329	900.879	76.8959	900.879	76.0319	900.879	77.3919
933.105	85.9052	933.105	85.7464	933.105	85.874	933.105	85.387	933.105	85.6522	933.105	84.8038	933.105	85.2266	933.105	83.9586	933.105	84.5743	933.105	82.819	933.105	83.6659	933.105	81.4364	933.105	82.4859	933.105	80.08	933.105	81.125	933.105	79.2414	933.105	79.9245	933.105	79.1203	933.105	79.3203	933.105	79.2168	933.105	79.222	933.105	78.8256	933.105	79.0482	933.105	77.3648	933.105	78.2664	933.105	74.1398	933.105	76.4009	933.105	67.9828	933.105	72.8708	933.105	68.0907	933.105	69.3509	933.105	73.8839	933.105	72.715	933.105	76.6325	933.105	76.0488	933.105	77.2809
965.332	86.2125	965.332	86.0068	965.332	86.1932	965.332	85.5886	965.332	85.9402	965.332	84.9691	965.332	85.4489	965.332	84.1448	965.332	84.709	965.332	83.0784	965.332	83.7033	965.332	81.7153	965.332	82.4369	965.332	80.1469	965.332	81.0038	965.332	78.9288	965.332	79.6825	965.332	78.7111	965.332	78.9091	965.332	78.9984	965.332	78.8154	965.332	78.8205	965.332	78.8858	965.332	77.653	965.332	78.4143	965.332	75.0719	965.332	76.8247	965.332	70.2944	965.332	73.6012	965.332	68.2425	965.332	70.0268	965.332	73.655	965.332	72.6622	965.332	76.6116	965.332	75.9898	965.332	77.2841
1,000.49	86.0696	1,000.49	85.8857	1,000.49	86.06	1,000.49	85.502	1,000.49	85.8427	1,000.49	84.8916	1,000.49	85.3801	1,000.49	84.001	1,000.49	84.6294	1,000.49	82.7716	1,000.49	83.5726	1,000.49	81.2243	1,000.49	82.2373	1,000.49	79.6302	1,000.49	80.7389	1,000.49	78.6215	1,000.49	79.4067	1,000.49	78.6311	1,000.49	78.7573	1,000.49	79.1674	1,000.49	78.845	1,000.49	79.367	1,000.49	78.9973	1,000.49	78.5241	1,000.49	78.4974	1,000.49	75.933	1,000.49	76.7928	1,000.49	70.5074	1,000.49	73.1798	1,000.49	67.8461	1,000.49	68.4003	1,000.49	73.514	1,000.49	72.0498	1,000.49	76.4029	1,000.49	75.8423	1,000.49	77.1244
1,035.64	86.2027	1,035.64	85.9931	1,035.64	86.1956	1,035.64	85.5893	1,035.64	85.954	1,035.64	84.9909	1,035.64	85.4503	1,035.64	84.1491	1,035.64	84.6272	1,035.64	82.9782	1,035.64	83.447	1,035.64	81.3952	1,035.64	81.9733	1,035.64	79.4187	1,035.64	80.3608	1,035.64	77.4601	1,035.64	78.8176	1,035.64	76.5693	1,035.64	77.805	1,035.64	77.0504	1,035.64	77.8229	1,035.64	77.6977	1,035.64	78.235	1,035.64	77.5242	1,035.64	77.9196	1,035.64	75.9175	1,035.64	76.3163	1,035.64	72.0677	1,035.64	73.1948	1,035.64	67.8952	1,035.64	69.1555	1,035.64	72.58	1,035.64	70.5244	1,035.64	75.8069	1,035.64	74.4875	1,035.64	76.323
1,072.27	86.3072	1,072.27	86.1276	1,072.27	86.2406	1,072.27	85.7306	1,072.27	85.9134	1,072.27	85.1094	1,072.27	85.3628	1,072.27	84.2123	1,072.27	84.6312	1,072.27	82.9813	1,072.27	83.6636	1,072.27	81.4195	1,072.27	82.3209	1,072.27	79.6513	1,072.27	80.5755	1,072.27	77.9584	1,072.27	78.7486	1,072.27	76.7633	1,072.27	77.4288	1,072.27	76.3682	1,072.27	76.8222	1,072.27	76.4652	1,072.27	76.5984	1,072.27	76.2597	1,072.27	76.2313	1,072.27	75.0002	1,072.27	75.0324	1,072.27	72.4058	1,072.27	72.4075	1,072.27	71.0755	1,072.27	69.5646	1,072.27	73.6767	1,072.27	71.4212	1,072.27	75.7179	1,072.27	74.4446	1,072.27	75.9421
1,108.89	86.2193	1,108.89	86.0165	1,108.89	86.1982	1,108.89	85.5843	1,108.89	85.9448	1,108.89	84.9201	1,108.89	85.4387	1,108.89	84.0001	1,108.89	84.694	1,108.89	82.7755	1,108.89	83.7413	1,108.89	81.2493	1,108.89	82.5291	1,108.89	79.5541	1,108.89	80.9434	1,108.89	77.9388	1,108.89	79.0587	1,108.89	76.725	1,108.89	77.3573	1,108.89	76.143	1,108.89	76.2866	1,108.89	75.8892	1,108.89	75.8055	1,108.89	75.3391	1,108.89	75.7001	1,108.89	74.1437	1,108.89	75.2358	1,108.89	72.3429	1,108.89	73.3009	1,108.89	71.5185	1,108.89	69.8083	1,108.89	73.6395	1,108.89	70.9071	1,108.89	75.6919	1,108.89	74.4599	1,108.89	76.0363
1,148.44	86.2064	1,148.44	85.947	1,148.44	86.2409	1,148.44	85.495	1,148.44	86.0247	1,148.44	84.8619	1,148.44	85.5558	1,148.44	84.003	1,148.44	84.8402	1,148.44	82.8345	1,148.44	83.8361	1,148.44	81.3453	1,148.44	82.4618	1,148.44	79.7361	1,148.44	80.7817	1,148.44	78.399	1,148.44	79.2348	1,148.44	77.5425	1,148.44	78.2645	1,148.44	76.8404	1,148.44	77.5978	1,148.44	75.6498	1,148.44	76.711	1,148.44	73.4381	1,148.44	75.4291	1,148.44	70.6158	1,148.44	73.7066	1,148.44	70.3891	1,148.44	71.6048	1,148.44	73.0849	1,148.44	71.3992	1,148.44	75.7328	1,148.44	74.3403	1,148.44	77.4223	1,148.44	76.8404	1,148.44	77.8485
1,189.45	86.8254	1,189.45	86.6751	1,189.45	86.812	1,189.45	86.2751	1,189.45	86.6266	1,189.45	85.6158	1,189.45	86.2015	1,189.45	84.786	1,189.45	85.5097	1,189.45	83.6731	1,189.45	84.5014	1,189.45	81.8906	1,189.45	83.0389	1,189.45	79.3341	1,189.45	81.0329	1,189.45	77.2109	1,189.45	78.7706	1,189.45	76.8997	1,189.45	77.3189	1,189.45	76.9076	1,189.45	77.3509	1,189.45	76.0568	1,189.45	77.4723	1,189.45	74.1542	1,189.45	76.3773	1,189.45	70.6195	1,189.45	73.6151	1,189.45	68.5833	1,189.45	69.7348	1,189.45	73.5281	1,189.45	69.728	1,189.45	76.87	1,189.45	73.9518	1,189.45	78.3477	1,189.45	77.0942	1,189.45	78.4635
1,230.47	87.1935	1,230.47	86.9494	1,230.47	87.1809	1,230.47	86.4313	1,230.47	86.9371	1,230.47	85.7638	1,230.47	86.4463	1,230.47	85.0694	1,230.47	85.7609	1,230.47	84.1534	1,230.47	84.9268	1,230.47	82.5606	1,230.47	83.734	1,230.47	79.9826	1,230.47	81.795	1,230.47	77.3202	1,230.47	79.0754	1,230.47	77.4165	1,230.47	77.2869	1,230.47	78.6503	1,230.47	78.0884	1,230.47	78.2858	1,230.47	78.7475	1,230.47	75.307	1,230.47	77.6375	1,230.47	67.0302	1,230.47	73.7416	1,230.47	64.8135	1,230.47	61.4606	1,230.47	74.5345	1,230.47	70.8215	1,230.47	78.5031	1,230.47	76.9036	1,230.47	80.2811	1,230.47	79.5026	1,230.47	80.5314
1,274.41	87.1081	1,274.41	86.9235	1,274.41	86.9693	1,274.41	86.3416	1,274.41	86.5367	1,274.41	85.4821	1,274.41	85.8053	1,274.41	84.7175	1,274.41	84.9396	1,274.41	84.1436	1,274.41	84.2167	1,274.41	83.19	1,274.41	83.5329	1,274.41	81.0767	1,274.41	82.2185	1,274.41	77.1094	1,274.41	79.4089	1,274.41	73.5081	1,274.41	75.01	1,274.41	76.6952	1,274.41	75.2835	1,274.41	78.8785	1,274.41	78.4165	1,274.41	78.3263	1,274.41	79.3389	1,274.41	74.5418	1,274.41	77.7133	1,274.41	66.115	1,274.41	71.8546	1,274.41	74.0538	1,274.41	65.7016	1,274.41	79.1013	1,274.41	76.467	1,274.41	81.2035	1,274.41	80.2779	1,274.41	81.5639
1,319.82	86.0037	1,319.82	85.7017	1,319.82	85.8632	1,319.82	84.9531	1,319.82	85.3533	1,319.82	83.8946	1,319.82	84.509	1,319.82	82.8674	1,319.82	83.3877	1,319.82	82.261	1,319.82	82.3652	1,319.82	81.8842	1,319.82	81.9014	1,319.82	80.9414	1,319.82	81.5305	1,319.82	78.483	1,319.82	80.11	1,319.82	73.387	1,319.82	76.4856	1,319.82	72.155	1,319.82	71.5746	1,319.82	76.8152	1,319.82	75.0415	1,319.82	78.3074	1,319.82	78.1807	1,319.82	76.8042	1,319.82	78.5077	1,319.82	71.7454	1,319.82	75.7633	1,319.82	70.8616	1,319.82	69.4849	1,319.82	76.7645	1,319.82	73.6046	1,319.82	79.4257	1,319.82	78.1681	1,319.82	79.8192
1,366.7	84.6042	1,366.7	84.3287	1,366.7	84.5613	1,366.7	83.7488	1,366.7	84.214	1,366.7	82.8329	1,366.7	83.5599	1,366.7	81.5497	1,366.7	82.5477	1,366.7	80.2115	1,366.7	81.235	1,366.7	79.3621	1,366.7	80.0362	1,366.7	78.7495	1,366.7	79.3738	1,366.7	77.346	1,366.7	78.6491	1,366.7	74.1162	1,366.7	76.6391	1,366.7	70.0192	1,366.7	72.4775	1,366.7	72.9666	1,366.7	71.2361	1,366.7	76.1592	1,366.7	75.3602	1,366.7	76.5333	1,366.7	77.1635	1,366.7	73.7788	1,366.7	76.1763	1,366.7	68.6841	1,366.7	71.5849	1,366.7	71.6771	1,366.7	67.0493	1,366.7	75.0055	1,366.7	73.2681	1,366.7	75.5968
1,413.57	83.8264	1,413.57	83.4852	1,413.57	83.8127	1,413.57	82.8826	1,413.57	83.4318	1,413.57	82.0333	1,413.57	82.785	1,413.57	80.8392	1,413.57	81.9364	1,413.57	79.3566	1,413.57	80.8635	1,413.57	78.1168	1,413.57	79.658	1,413.57	77.4927	1,413.57	78.5758	1,413.57	76.5553	1,413.57	77.5743	1,413.57	74.0784	1,413.57	76.0193	1,413.57	70.1996	1,413.57	73.1851	1,413.57	70.6579	1,413.57	70.3913	1,413.57	73.6665	1,413.57	72.6113	1,413.57	74.5763	1,413.57	74.9731	1,413.57	72.6012	1,413.57	74.8232	1,413.57	64.7033	1,413.57	71.2716	1,413.57	63.3913	1,413.57	55.5114	1,413.57	71.1526	1,413.57	67.5988	1,413.57	72.0026
1,463.38	83.2485	1,463.38	83.0512	1,463.38	83.2366	1,463.38	82.5458	1,463.38	83.0738	1,463.38	81.6507	1,463.38	82.7113	1,463.38	80.3844	1,463.38	81.9769	1,463.38	78.9163	1,463.38	80.7881	1,463.38	77.614	1,463.38	79.3955	1,463.38	76.7781	1,463.38	78.1822	1,463.38	76.0047	1,463.38	77.0703	1,463.38	74.3885	1,463.38	75.5698	1,463.38	71.24	1,463.38	73.07	1,463.38	68.3828	1,463.38	69.7717	1,463.38	70.7598	1,463.38	71.1241	1,463.38	72.4945	1,463.38	73.8743	1,463.38	71.3809	1,463.38	73.5666	1,463.38	64.9603	1,463.38	69.777	1,463.38	61.0469	1,463.38	58.5303	1,463.38	70.5937	1,463.38	64.9428	1,463.38	70.9349
1,516.11	83.2232	1,516.11	83.0948	1,516.11	83.1517	1,516.11	82.7373	1,516.11	82.7165	1,516.11	81.9661	1,516.11	82.0398	1,516.11	80.8425	1,516.11	81.3987	1,516.11	79.6037	1,516.11	80.6251	1,516.11	78.4874	1,516.11	79.481	1,516.11	77.5859	1,516.11	78.088	1,516.11	76.4392	1,516.11	76.4566	1,516.11	74.4281	1,516.11	74.5149	1,516.11	71.6736	1,516.11	72.5302	1,516.11	69.0733	1,516.11	70.6255	1,516.11	69.0054	1,516.11	70.5958	1,516.11	70.8587	1,516.11	72.7105	1,516.11	70.4511	1,516.11	72.9916	1,516.11	64.3545	1,516.11	69.7363	1,516.11	60.118	1,516.11	61.8466	1,516.11	68.1266	1,516.11	65.8435	1,516.11	68.9892
1,568.85	83.291	1,568.85	83.468	1,568.85	83.1496	1,568.85	83.0148	1,568.85	83.2717	1,568.85	82.0337	1,568.85	82.9069	1,568.85	81.0703	1,568.85	81.6628	1,568.85	80.1223	1,568.85	80.0636	1,568.85	79.0065	1,568.85	78.6935	1,568.85	78.0616	1,568.85	77.5965	1,568.85	77.0747	1,568.85	76.4082	1,568.85	75.0975	1,568.85	74.5475	1,568.85	72.3008	1,568.85	71.8647	1,568.85	70.4499	1,568.85	70.2001	1,568.85	71.1498	1,568.85	70.5868	1,568.85	72.0153	1,568.85	71.2418	1,568.85	69.5705	1,568.85	71.6395	1,568.85	65.2802	1,568.85	69.3924	1,568.85	64.9581	1,568.85	62.4972	1,568.85	67.9608	1,568.85	68.8053	1,568.85	70.9294
1,624.51	83.2267	1,624.51	83.0835	1,624.51	83.1007	1,624.51	82.8596	1,624.51	82.8578	1,624.51	82.2752	1,624.51	82.6185	1,624.51	80.9794	1,624.51	81.6673	1,624.51	79.6338	1,624.51	79.9831	1,624.51	78.8662	1,624.51	78.296	1,624.51	77.9935	1,624.51	77.0333	1,624.51	76.672	1,624.51	76.3924	1,624.51	75.0874	1,624.51	76.0296	1,624.51	72.9734	1,624.51	74.1428	1,624.51	70.7396	1,624.51	71.1682	1,624.51	71.3884	1,624.51	70.803	1,624.51	73.029	1,624.51	69.505	1,624.51	70.8526	1,624.51	70.0253	1,624.51	58.1566	1,624.51	69.5587	1,624.51	65.0019	1,624.51	55.7071	1,624.51	69.0102	1,624.51	69.301	1,624.51	71.1939
1,681.64	83.8754	1,681.64	83.3949	1,681.64	83.8657	1,681.64	82.8701	1,681.64	82.9316	1,681.64	82.3921	1,681.64	81.578	1,681.64	81.6844	1,681.64	80.9375	1,681.64	80.3781	1,681.64	80.746	1,681.64	78.9251	1,681.64	79.9064	1,681.64	78.1177	1,681.64	78.1553	1,681.64	76.991	1,681.64	76.2514	1,681.64	74.6989	1,681.64	75.2499	1,681.64	72.8307	1,681.64	73.8731	1,681.64	71.7144	1,681.64	69.8433	1,681.64	70.7533	1,681.64	66.8908	1,681.64	72.5366	1,681.64	68.7085	1,681.64	72.3598	1,681.64	69.4248	1,681.64	67.3481	1,681.64	69.1292	1,681.64	61.777	1,681.64	61.9929	1,681.64	71.7055	1,681.64	66.3401	1,681.64	72.7695
1,741.7	84.1351	1,741.7	84.0122	1,741.7	83.9125	1,741.7	83.5973	1,741.7	83.5257	1,741.7	82.6619	1,741.7	83.0393	1,741.7	81.1505	1,741.7	82.0713	1,741.7	79.7532	1,741.7	80.7633	1,741.7	78.8844	1,741.7	79.7033	1,741.7	78.0997	1,741.7	78.6475	1,741.7	76.9812	1,741.7	77.2326	1,741.7	75.1422	1,741.7	75.6576	1,741.7	72.4118	1,741.7	73.4218	1,741.7	70.0266	1,741.7	70.1435	1,741.7	68.8787	1,741.7	67.8772	1,741.7	69.8825	1,741.7	68.9749	1,741.7	70.6045	1,741.7	70.925	1,741.7	67.3446	1,741.7	70.0088	1,741.7	65.6826	1,741.7	63.5328	1,741.7	69.7381	1,741.7	61.1822	1,741.7	68.9749
1,803.22	85.0706	1,803.22	84.6943	1,803.22	85.166	1,803.22	84.1655	1,803.22	84.5561	1,803.22	83.409	1,803.22	83.4235	1,803.22	82.4921	1,803.22	82.5153	1,803.22	81.0691	1,803.22	81.7535	1,803.22	79.1774	1,803.22	80.3869	1,803.22	78.3182	1,803.22	78.6523	1,803.22	77.737	1,803.22	77.6061	1,803.22	75.558	1,803.22	76.8111	1,803.22	72.8865	1,803.22	74.5124	1,803.22	70.504	1,803.22	70.7564	1,803.22	67.4041	1,803.22	69.2951	1,803.22	69.1314	1,803.22	69.8045	1,803.22	68.9393	1,803.22	71.7575	1,803.22	65.073	1,803.22	72.4359	1,803.22	58.3797	1,803.22	67.7762	1,803.22	64.6703	1,803.22	63.4656	1,803.22	67.7528
1,866.21	85.0286	1,866.21	84.9905	1,866.21	84.9626	1,866.21	84.8861	1,866.21	84.5049	1,866.21	84.2691	1,866.21	83.8655	1,866.21	83.2388	1,866.21	82.9593	1,866.21	82.0002	1,866.21	81.1182	1,866.21	80.172	1,866.21	78.6866	1,866.21	78.4655	1,866.21	77.1801	1,866.21	78.2503	1,866.21	75.9871	1,866.21	77.1146	1,866.21	74.4676	1,866.21	74.0493	1,866.21	72.9332	1,866.21	71.7343	1,866.21	70.2554	1,866.21	68.9457	1,866.21	69.1013	1,866.21	68.4875	1,866.21	69.0739	1,866.21	70.2197	1,866.21	67.4878	1,866.21	67.2846	1,866.21	71.428	1,866.21	67.7867	1,866.21	69.9883	1,866.21	70.7916	1,866.21	66.0706	1,866.21	70.8231
1,932.13	84.6984	1,932.13	84.212	1,932.13	84.5335	1,932.13	83.323	1,932.13	83.7988	1,932.13	83.0245	1,932.13	82.6969	1,932.13	82.8668	1,932.13	82.0555	1,932.13	81.8717	1,932.13	81.2359	1,932.13	80.3831	1,932.13	79.2479	1,932.13	78.7694	1,932.13	77.3104	1,932.13	76.2615	1,932.13	76.5132	1,932.13	73.674	1,932.13	75.21	1,932.13	72.7199	1,932.13	72.8921	1,932.13	72.7242	1,932.13	71.4243	1,932.13	72.432	1,932.13	70.0601	1,932.13	69.5996	1,932.13	68.4703	1,932.13	69.0542	1,932.13	65.0544	1,932.13	69.5098	1,932.13	61.7766	1,932.13	67.6074	1,932.13	68.3085	1,932.13	71.7773	1,932.13	68.5098	1,932.13	70.7228
1,999.51	85.2076	1,999.51	85.0046	1,999.51	84.8276	1,999.51	84.0035	1,999.51	84.5829	1,999.51	83.0454	1,999.51	84.125	1,999.51	82.3878	1,999.51	82.8319	1,999.51	80.9817	1,999.51	81.2035	1,999.51	78.9081	1,999.51	80.2018	1,999.51	77.636	1,999.51	79.2495	1,999.51	76.2869	1,999.51	78.1716	1,999.51	73.3847	1,999.51	77.3853	1,999.51	69.9461	1,999.51	75.4031	1,999.51	69.6891	1,999.51	72.3261	1,999.51	71.3512	1,999.51	70.6999	1,999.51	69.5688	1,999.51	69.937	1,999.51	67.5257	1,999.51	69.6872	1,999.51	68.44	1,999.51	66.2998	1,999.51	65.764	1,999.51	64.9864	1,999.51	70.7566	1,999.51	68.2736	1,999.51	71.3154
2,069.82	86.1322	2,069.82	85.9278	2,069.82	85.7952	2,069.82	85.1797	2,069.82	85.2925	2,069.82	84.2016	2,069.82	84.6536	2,069.82	82.9412	2,069.82	83.4648	2,069.82	81.8974	2,069.82	82.8133	2,069.82	80.839	2,069.82	82.645	2,069.82	77.9787	2,069.82	80.1326	2,069.82	76.4263	2,069.82	77.0655	2,069.82	76.9485	2,069.82	76.9009	2,069.82	74.1988	2,069.82	75.7609	2,069.82	70.1404	2,069.82	71.7287	2,069.82	67.3227	2,069.82	67.0648	2,069.82	67.4153	2,069.82	72.0101	2,069.82	69.6513	2,069.82	73.3474	2,069.82	69.2607	2,069.82	72.7793	2,069.82	66.6089	2,069.82	71.6191	2,069.82	69.7361	2,069.82	70.6351	2,069.82	72.4383
2,143.07	85.1403	2,143.07	85.3153	2,143.07	85.3995	2,143.07	85.2883	2,143.07	84.8094	2,143.07	84.1933	2,143.07	83.6418	2,143.07	82.6864	2,143.07	83.3016	2,143.07	82.004	2,143.07	83.0114	2,143.07	81.2761	2,143.07	81.4222	2,143.07	78.355	2,143.07	78.7095	2,143.07	76.878	2,143.07	76.2862	2,143.07	78.2867	2,143.07	74.8508	2,143.07	73.9892	2,143.07	72.5767	2,143.07	66.5726	2,143.07	70.7609	2,143.07	68.4429	2,143.07	70.9435	2,143.07	67.525	2,143.07	67.4186	2,143.07	71.4618	2,143.07	68.6059	2,143.07	71.3017	2,143.07	66.822	2,143.07	69.104	2,143.07	66.9276	2,143.07	70.3208	2,143.07	71.0993	2,143.07	69.3178
2,219.24	85.0541	2,219.24	84.9724	2,219.24	84.7892	2,219.24	84.3259	2,219.24	84.5408	2,219.24	83.5299	2,219.24	83.7628	2,219.24	82.8374	2,219.24	82.3675	2,219.24	82.5871	2,219.24	81.1711	2,219.24	81.613	2,219.24	80.1586	2,219.24	78.9698	2,219.24	79.0057	2,219.24	76.4104	2,219.24	77.6513	2,219.24	75.2496	2,219.24	75.2724	2,219.24	73.0162	2,219.24	73.6794	2,219.24	68.6888	2,219.24	72.7986	2,219.24	61.7537	2,219.24	67.747	2,219.24	68.9148	2,219.24	67.1223	2,219.24	71.6013	2,219.24	65.4052	2,219.24	69.5476	2,219.24	68.3369	2,219.24	65.3567	2,219.24	64.7222	2,219.24	66.5799	2,219.24	66.1577	2,219.24	67.9331
2,296.88	84.8712	2,296.88	84.8389	2,296.88	85.2483	2,296.88	84.8648	2,296.88	84.966	2,296.88	84.2535	2,296.88	84.3418	2,296.88	82.6439	2,296.88	83.8504	2,296.88	80.8811	2,296.88	82.5848	2,296.88	79.8623	2,296.88	81.1036	2,296.88	78.0964	2,296.88	79.843	2,296.88	75.2773	2,296.88	77.8364	2,296.88	73.3355	2,296.88	75.6133	2,296.88	71.0409	2,296.88	73.7523	2,296.88	68.3095	2,296.88	70.6843	2,296.88	68.4276	2,296.88	68.003	2,296.88	66.3375	2,296.88	67.6354	2,296.88	67.5215	2,296.88	66.0723	2,296.88	65.5139	2,296.88	68.2462	2,296.88	58.0995	2,296.88	67.7698	2,296.88	64.2413	2,296.88	59.9857	2,296.88	66.6277
2,378.91	85.6669	2,378.91	85.5051	2,378.91	85.4315	2,378.91	85.2806	2,378.91	85.0717	2,378.91	84.8725	2,378.91	84.8573	2,378.91	83.7911	2,378.91	84.4678	2,378.91	82.1758	2,378.91	83.6487	2,378.91	80.4671	2,378.91	82.0415	2,378.91	78.5521	2,378.91	80.2586	2,378.91	76.3974	2,378.91	78.5364	2,378.91	75.4323	2,378.91	75.0591	2,378.91	73.9524	2,378.91	72.9908	2,378.91	68.8874	2,378.91	71.9824	2,378.91	64.9267	2,378.91	66.3984	2,378.91	67.2635	2,378.91	68.7035	2,378.91	65.3322	2,378.91	67.9923	2,378.91	67.4935	2,378.91	66.1578	2,378.91	57.2188	2,378.91	67.1187	2,378.91	67.4657	2,378.91	65.112	2,378.91	69.4106
2,462.4	84.9128	2,462.4	84.9535	2,462.4	84.6308	2,462.4	84.8359	2,462.4	84.4409	2,462.4	84.5773	2,462.4	84.3515	2,462.4	83.6916	2,462.4	83.6561	2,462.4	82.1714	2,462.4	82.3569	2,462.4	80.5666	2,462.4	80.7587	2,462.4	78.5676	2,462.4	79.0398	2,462.4	76.2531	2,462.4	76.9445	2,462.4	74.3832	2,462.4	73.9495	2,462.4	72.6817	2,462.4	72.3005	2,462.4	70.7451	2,462.4	70.837	2,462.4	68.5942	2,462.4	67.8729	2,462.4	67.2003	2,462.4	67.227	2,462.4	68.2972	2,462.4	65.9802	2,462.4	68.4009	2,462.4	65.8326	2,462.4	63.2922	2,462.4	64.3715	2,462.4	61.7013	2,462.4	55.2194	2,462.4	66.0294
2,548.83	84.5436	2,548.83	84.6848	2,548.83	84.3265	2,548.83	84.6238	2,548.83	84.3232	2,548.83	84.1761	2,548.83	84.1759	2,548.83	83.2334	2,548.83	83.441	2,548.83	81.8671	2,548.83	82.2904	2,548.83	79.8362	2,548.83	80.6146	2,548.83	77.4495	2,548.83	78.5709	2,548.83	75.3127	2,548.83	76.4246	2,548.83	73.2698	2,548.83	73.8661	2,548.83	71.5024	2,548.83	71.4571	2,548.83	69.5254	2,548.83	69.357	2,548.83	68.8329	2,548.83	67.1378	2,548.83	66.6998	2,548.83	66.5174	2,548.83	65.2239	2,548.83	65.3203	2,548.83	68.277	2,548.83	66.5588	2,548.83	62.9496	2,548.83	66.6861	2,548.83	62.546	2,548.83	54.514	2,548.83	63.0208
2,639.65	84.7098	2,639.65	84.8613	2,639.65	84.5734	2,639.65	84.9551	2,639.65	84.529	2,639.65	84.6078	2,639.65	84.4585	2,639.65	83.609	2,639.65	83.7427	2,639.65	81.9718	2,639.65	82.3403	2,639.65	79.8161	2,639.65	80.5609	2,639.65	77.3628	2,639.65	78.3925	2,639.65	74.7947	2,639.65	75.9929	2,639.65	72.5749	2,639.65	73.7371	2,639.65	70.5662	2,639.65	71.6682	2,639.65	68.1288	2,639.65	68.6695	2,639.65	67.5332	2,639.65	66.2766	2,639.65	67.0517	2,639.65	66.6895	2,639.65	66.4104	2,639.65	63.8781	2,639.65	68.7394	2,639.65	66.3461	2,639.65	64.3945	2,639.65	67.538	2,639.65	43.3363	2,639.65	58.8892	2,639.65	53.8003
2,731.93	84.3516	2,731.93	84.6502	2,731.93	84.1626	2,731.93	84.8621	2,731.93	84.1683	2,731.93	84.6512	2,731.93	84.1286	2,731.93	83.5934	2,731.93	83.4807	2,731.93	81.7585	2,731.93	81.9297	2,731.93	79.665	2,731.93	79.7976	2,731.93	77.2513	2,731.93	77.5571	2,731.93	74.4228	2,731.93	75.1689	2,731.93	72.1713	2,731.93	72.4468	2,731.93	70.8119	2,731.93	70.5281	2,731.93	67.9693	2,731.93	67.6932	2,731.93	67.4776	2,731.93	63.3623	2,731.93	67.0018	2,731.93	66.533	2,731.93	63.6302	2,731.93	62.9232	2,731.93	68.6873	2,731.93	63.3171	2,731.93	66.7103	2,731.93	68.2493	2,731.93	57.7502	2,731.93	62.7866	2,731.93	54.0807
2,828.61	83.9969	2,828.61	84.309	2,828.61	83.9292	2,828.61	84.4412	2,828.61	83.9958	2,828.61	84.0079	2,828.61	83.8134	2,828.61	82.9606	2,828.61	83.086	2,828.61	81.0955	2,828.61	81.7219	2,828.61	78.5499	2,828.61	79.3983	2,828.61	76.118	2,828.61	76.5549	2,828.61	73.4675	2,828.61	74.2842	2,828.61	69.8866	2,828.61	71.0988	2,828.61	68.8832	2,828.61	68.1849	2,828.61	66.4517	2,828.61	67.7559	2,828.61	64.6868	2,828.61	62.3885	2,828.61	67.6321	2,828.61	65.3796	2,828.61	61.0213	2,828.61	66.5272	2,828.61	66.8291	2,828.61	58.6875	2,828.61	66.6295	2,828.61	66.9204	2,828.61	58.9851	2,828.61	64.4016	2,828.61	57.3939
2,928.22	83.3365	2,928.22	83.6849	2,928.22	83.1672	2,928.22	83.8504	2,928.22	83.2816	2,928.22	83.4963	2,928.22	83.1203	2,928.22	82.301	2,928.22	82.1905	2,928.22	80.2906	2,928.22	80.5213	2,928.22	77.7746	2,928.22	78.2077	2,928.22	75.2246	2,928.22	75.2963	2,928.22	73.1452	2,928.22	72.9557	2,928.22	70.2445	2,928.22	70.123	2,928.22	68.3619	2,928.22	66.2133	2,928.22	67.4752	2,928.22	66.8009	2,928.22	61.6688	2,928.22	64.0257	2,928.22	67.0989	2,928.22	62.1788	2,928.22	64.5238	2,928.22	66.1264	2,928.22	65.2588	2,928.22	60.2521	2,928.22	67.1765	2,928.22	65.5913	2,928.22	63.7919	2,928.22	63.599	2,928.22	62.3772
3,030.76	81.8025	3,030.76	82.2482	3,030.76	81.8287	3,030.76	82.5099	3,030.76	82.0483	3,030.76	82.0571	3,030.76	81.9783	3,030.76	80.7928	3,030.76	81.0836	3,030.76	78.9801	3,030.76	79.2954	3,030.76	76.8875	3,030.76	77.309	3,030.76	74.8318	3,030.76	74.8689	3,030.76	73.0548	3,030.76	72.8638	3,030.76	70.7272	3,030.76	71.4011	3,030.76	68.7168	3,030.76	68.9505	3,030.76	68.7953	3,030.76	66.502	3,030.76	63.9131	3,030.76	65.4962	3,030.76	67.5348	3,030.76	60.3025	3,030.76	66.9716	3,030.76	66.0411	3,030.76	65.9182	3,030.76	62.6367	3,030.76	66.5369	3,030.76	66.1096	3,030.76	63.3524	3,030.76	64.8431	3,030.76	63.4289
3,137.7	81.7032	3,137.7	81.8953	3,137.7	81.6101	3,137.7	82.1531	3,137.7	81.698	3,137.7	82.0025	3,137.7	81.757	3,137.7	80.9404	3,137.7	80.9641	3,137.7	79.3813	3,137.7	79.463	3,137.7	77.8546	3,137.7	77.9196	3,137.7	76.0137	3,137.7	76.0496	3,137.7	74.4593	3,137.7	74.2245	3,137.7	71.9665	3,137.7	72.7994	3,137.7	68.5627	3,137.7	70.7139	3,137.7	68.8836	3,137.7	68.2148	3,137.7	64.4742	3,137.7	67.0575	3,137.7	65.6873	3,137.7	62.9029	3,137.7	64.7473	3,137.7	66.5071	3,137.7	65.8149	3,137.7	64.4403	3,137.7	67.61	3,137.7	67.4874	3,137.7	65.4267	3,137.7	65.8603	3,137.7	64.2501
3,249.02	81.8123	3,249.02	81.6812	3,249.02	81.6145	3,249.02	81.8382	3,249.02	81.4165	3,249.02	81.8955	3,249.02	81.3141	3,249.02	80.952	3,249.02	80.6509	3,249.02	79.787	3,249.02	79.5515	3,249.02	78.4742	3,249.02	78.4182	3,249.02	76.6813	3,249.02	76.8164	3,249.02	74.8058	3,249.02	74.8566	3,249.02	72.9824	3,249.02	73.1013	3,249.02	70.1589	3,249.02	71.1012	3,249.02	68.933	3,249.02	68.6534	3,249.02	65.288	3,249.02	67.5813	3,249.02	65.645	3,249.02	63.2542	3,249.02	66.1775	3,249.02	66.9533	3,249.02	66.065	3,249.02	65.2031	3,249.02	68.5127	3,249.02	66.6647	3,249.02	64.7609	3,249.02	66.3775	3,249.02	64.7365
3,363.28	82.064	3,363.28	81.7676	3,363.28	81.8383	3,363.28	81.5133	3,363.28	81.366	3,363.28	81.5057	3,363.28	80.8735	3,363.28	80.9956	3,363.28	80.4858	3,363.28	80.1698	3,363.28	79.8199	3,363.28	78.756	3,363.28	78.6403	3,363.28	76.717	3,363.28	77.1422	3,363.28	74.2723	3,363.28	75.6686	3,363.28	72.8629	3,363.28	73.8395	3,363.28	69.9087	3,363.28	71.4311	3,363.28	67.8777	3,363.28	68.13	3,363.28	64.3695	3,363.28	67.1784	3,363.28	65.7319	3,363.28	63.1134	3,363.28	67.2253	3,363.28	66.3175	3,363.28	65.374	3,363.28	65.205	3,363.28	68.5434	3,363.28	67.0294	3,363.28	64.4486	3,363.28	67.6074	3,363.28	64.1777
3,481.93	82.372	3,481.93	81.7633	3,481.93	82.2825	3,481.93	81.3812	3,481.93	81.0699	3,481.93	80.8519	3,481.93	80.4226	3,481.93	80.9679	3,481.93	80.0901	3,481.93	80.4381	3,481.93	79.9445	3,481.93	79.001	3,481.93	79.4817	3,481.93	76.9945	3,481.93	78.2882	3,481.93	75.007	3,481.93	76.0933	3,481.93	72.4026	3,481.93	74.2156	3,481.93	69.1649	3,481.93	72.5716	3,481.93	68.4084	3,481.93	69.199	3,481.93	65.5226	3,481.93	67.9873	3,481.93	62.9021	3,481.93	64.0965	3,481.93	67.3957	3,481.93	66.0312	3,481.93	65.4751	3,481.93	67.3803	3,481.93	68.3915	3,481.93	66.9659	3,481.93	64.801	3,481.93	68.0768	3,481.93	64.476
3,604.98	83.2199	3,604.98	82.0798	3,604.98	82.9825	3,604.98	81.106	3,604.98	81.6831	3,604.98	81.2747	3,604.98	80.6533	3,604.98	81.446	3,604.98	80.601	3,604.98	80.7853	3,604.98	80.5645	3,604.98	79.6993	3,604.98	80.0055	3,604.98	78.3249	3,604.98	78.8077	3,604.98	76.0231	3,604.98	76.7489	3,604.98	73.2646	3,604.98	75.1337	3,604.98	71.2631	3,604.98	72.6952	3,604.98	69.1166	3,604.98	70.0736	3,604.98	66.7005	3,604.98	68.9564	3,604.98	63.3068	3,604.98	66.1356	3,604.98	67.4753	3,604.98	66.8285	3,604.98	66.6015	3,604.98	68.1518	3,604.98	69.8703	3,604.98	67.5233	3,604.98	65.1747	3,604.98	68.7411	3,604.98	65.4869
3,732.42	83.5019	3,732.42	81.8042	3,732.42	83.3188	3,732.42	80.1913	3,732.42	81.6954	3,732.42	80.389	3,732.42	80.178	3,732.42	80.9368	3,732.42	80.7016	3,732.42	80.8462	3,732.42	81.4009	3,732.42	79.9377	3,732.42	80.8651	3,732.42	77.7183	3,732.42	79.1392	3,732.42	74.8524	3,732.42	77.6215	3,732.42	73.9921	3,732.42	74.6853	3,732.42	71.2689	3,732.42	72.1678	3,732.42	68.6328	3,732.42	69.9986	3,732.42	66.7395	3,732.42	68.3246	3,732.42	64.7972	3,732.42	66.61	3,732.42	68.1683	3,732.42	64.9871	3,732.42	67.6719	3,732.42	66.9764	3,732.42	69.5516	3,732.42	67.3139	3,732.42	64.4308	3,732.42	69.0296	3,732.42	64.2859
3,864.26	83.8762	3,864.26	82.5066	3,864.26	83.6163	3,864.26	80.5152	3,864.26	81.4773	3,864.26	79.9527	3,864.26	80.1039	3,864.26	81.4477	3,864.26	80.4599	3,864.26	81.2969	3,864.26	81.1363	3,864.26	80.0432	3,864.26	80.73	3,864.26	77.7749	3,864.26	79.4432	3,864.26	75.8512	3,864.26	77.4704	3,864.26	73.7494	3,864.26	75.018	3,864.26	71.4228	3,864.26	72.8461	3,864.26	67.8562	3,864.26	69.9969	3,864.26	67.0565	3,864.26	67.8618	3,864.26	62.6234	3,864.26	66.0586	3,864.26	69.0958	3,864.26	64.2409	3,864.26	67.1908	3,864.26	67.7991	3,864.26	69.085	3,864.26	67.0357	3,864.26	63.5932	3,864.26	67.8383	3,864.26	63.3485
4,000.49	83.915	4,000.49	82.3408	4,000.49	83.403	4,000.49	80.029	4,000.49	81.4128	4,000.49	80.521	4,000.49	79.4586	4,000.49	81.6632	4,000.49	80.202	4,000.49	81.2275	4,000.49	81.206	4,000.49	80.21	4,000.49	80.438	4,000.49	78.9836	4,000.49	79.0244	4,000.49	76.6407	4,000.49	77.213	4,000.49	73.0541	4,000.49	74.611	4,000.49	71.1008	4,000.49	71.9052	4,000.49	69.0219	4,000.49	70.0096	4,000.49	68.1044	4,000.49	66.5709	4,000.49	65.3714	4,000.49	66.4616	4,000.49	68.0179	4,000.49	63.066	4,000.49	67.6761	4,000.49	66.9554	4,000.49	69.1368	4,000.49	67.407	4,000.49	62.4435	4,000.49	68.0588	4,000.49	63.0761
4,141.11	84.1109	4,141.11	81.9925	4,141.11	83.7694	4,141.11	79.9655	4,141.11	81.4306	4,141.11	80.4066	4,141.11	79.4516	4,141.11	81.5786	4,141.11	80.3792	4,141.11	81.9526	4,141.11	81.1303	4,141.11	81.392	4,141.11	80.4097	4,141.11	79.197	4,141.11	78.5069	4,141.11	76.4585	4,141.11	77.1076	4,141.11	74.5667	4,141.11	74.2763	4,141.11	71.9948	4,141.11	71.4592	4,141.11	69.4253	4,141.11	68.9384	4,141.11	67.9566	4,141.11	65.0454	4,141.11	64.5412	4,141.11	65.4293	4,141.11	66.4831	4,141.11	62.6692	4,141.11	67.5038	4,141.11	65.4196	4,141.11	68.7306	4,141.11	67.6659	4,141.11	61.653	4,141.11	67.9622	4,141.11	62.3062
4,287.6	84.2208	4,287.6	83.2983	4,287.6	83.7881	4,287.6	81.5618	4,287.6	81.9419	4,287.6	80.7544	4,287.6	80.7841	4,287.6	82.0157	4,287.6	80.6604	4,287.6	81.7975	4,287.6	81.3768	4,287.6	79.935	4,287.6	80.9645	4,287.6	77.4675	4,287.6	79.2899	4,287.6	75.4106	4,287.6	76.8093	4,287.6	72.8084	4,287.6	74.2963	4,287.6	71.941	4,287.6	72.1662	4,287.6	68.5242	4,287.6	69.9456	4,287.6	67.2568	4,287.6	65.2263	4,287.6	65.8533	4,287.6	66.1132	4,287.6	68.2256	4,287.6	64.9634	4,287.6	67.7381	4,287.6	67.3027	4,287.6	68.7063	4,287.6	67.6796	4,287.6	56.5851	4,287.6	68.6843	4,287.6	56.8025
4,438.48	84.0351	4,438.48	83.1548	4,438.48	83.4061	4,438.48	81.096	4,438.48	82.3419	4,438.48	81.0112	4,438.48	80.2705	4,438.48	81.9297	4,438.48	80.468	4,438.48	81.6981	4,438.48	81.1608	4,438.48	81.287	4,438.48	80.4928	4,438.48	80.0538	4,438.48	79.047	4,438.48	77.2722	4,438.48	77.4787	4,438.48	74.0325	4,438.48	74.8997	4,438.48	69.8123	4,438.48	72.5046	4,438.48	68.4443	4,438.48	70.2734	4,438.48	65.9912	4,438.48	65.6179	4,438.48	64.3359	4,438.48	65.1825	4,438.48	65.3225	4,438.48	64.8525	4,438.48	68.3147	4,438.48	66.5329	4,438.48	68.8329	4,438.48	68.7065	4,438.48	61.4273	4,438.48	68.752	4,438.48	61.4704
4,595.21	84.4858	4,595.21	83.9668	4,595.21	84.808	4,595.21	82.9447	4,595.21	83.5575	4,595.21	80.835	4,595.21	82.431	4,595.21	81.0926	4,595.21	81.6992	4,595.21	81.462	4,595.21	81.5632	4,595.21	80.6213	4,595.21	80.8881	4,595.21	78.324	4,595.21	79.2776	4,595.21	76.5638	4,595.21	77.5309	4,595.21	74.0925	4,595.21	75.5071	4,595.21	72.6308	4,595.21	72.8758	4,595.21	69.9059	4,595.21	70.9857	4,595.21	68.4989	4,595.21	67.2746	4,595.21	67.3651	4,595.21	65.3448	4,595.21	67.2984	4,595.21	63.135	4,595.21	68.3506	4,595.21	67.1733	4,595.21	69.5428	4,595.21	68.1567	4,595.21	60.043	4,595.21	69.8654	4,595.21	59.2076
4,756.35	84.5673	4,756.35	85.0351	4,756.35	83.8137	4,756.35	83.3146	4,756.35	84.2776	4,756.35	82.0645	4,756.35	82.2411	4,756.35	81.9748	4,756.35	80.1167	4,756.35	81.3883	4,756.35	80.2595	4,756.35	80.8536	4,756.35	80.585	4,756.35	80.0071	4,756.35	80.0367	4,756.35	77.6579	4,756.35	78.8522	4,756.35	75.3176	4,756.35	75.947	4,756.35	72.2163	4,756.35	73.1993	4,756.35	71.2272	4,756.35	71.2035	4,756.35	65.354	4,756.35	67.4179	4,756.35	63.6494	4,756.35	63.8819	4,756.35	65.2092	4,756.35	64.3569	4,756.35	68.3528	4,756.35	66.5208	4,756.35	68.7089	4,756.35	68.2392	4,756.35	57.2707	4,756.35	68.8765	4,756.35	57.5431
4,924.8	84.6239	4,924.8	85.1744	4,924.8	85.1465	4,924.8	84.8738	4,924.8	85.052	4,924.8	82.0816	4,924.8	83.4349	4,924.8	80.621	4,924.8	81.4568	4,924.8	81.5648	4,924.8	81.2503	4,924.8	81.7214	4,924.8	81.6111	4,924.8	79.8577	4,924.8	80.745	4,924.8	77.1731	4,924.8	78.5006	4,924.8	75.2254	4,924.8	76.4316	4,924.8	72.2522	4,924.8	73.5211	4,924.8	68.1242	4,924.8	70.533	4,924.8	67.4015	4,924.8	68.3458	4,924.8	65.3223	4,924.8	63.9094	4,924.8	65.3241	4,924.8	60.9936	4,924.8	68.6079	4,924.8	67.1136	4,924.8	68.9619	4,924.8	68.3991	4,924.8	61.6309	4,924.8	68.9476	4,924.8	59.6886
5,097.66	84.5858	5,097.66	86.0076	5,097.66	84.5951	5,097.66	84.6738	5,097.66	85.5223	5,097.66	81.9906	5,097.66	83.5046	5,097.66	81.3741	5,097.66	80.9221	5,097.66	82.1192	5,097.66	80.5167	5,097.66	81.6847	5,097.66	81.044	5,097.66	80.2271	5,097.66	80.4596	5,097.66	77.9893	5,097.66	78.9849	5,097.66	76.0114	5,097.66	76.566	5,097.66	72.435	5,097.66	73.6522	5,097.66	70.4077	5,097.66	70.7694	5,097.66	64.0268	5,097.66	67.66	5,097.66	62.8716	5,097.66	64.4077	5,097.66	62.7661	5,097.66	62.3351	5,097.66	68.467	5,097.66	65.771	5,097.66	69.1524	5,097.66	68.985	5,097.66	56.3575	5,097.66	68.4029	5,097.66	55.0432
5,277.83	84.8171	5,277.83	86.1462	5,277.83	85.236	5,277.83	85.7266	5,277.83	85.5512	5,277.83	83.3208	5,277.83	83.6439	5,277.83	82.0507	5,277.83	81.4933	5,277.83	82.087	5,277.83	81.4644	5,277.83	82.0307	5,277.83	81.7609	5,277.83	80.3466	5,277.83	80.2983	5,277.83	77.1524	5,277.83	77.7929	5,277.83	74.8948	5,277.83	75.2566	5,277.83	71.0873	5,277.83	71.3711	5,277.83	67.292	5,277.83	68.1455	5,277.83	66.9969	5,277.83	67.1681	5,277.83	62.7084	5,277.83	63.2948	5,277.83	63.3669	5,277.83	63.1661	5,277.83	66.6455	5,277.83	65.302	5,277.83	67.5898	5,277.83	66.736	5,277.83	60.5869	5,277.83	67.4812	5,277.83	48.0631
5,463.87	85.2428	5,463.87	86.4608	5,463.87	85.3499	5,463.87	85.1393	5,463.87	85.94	5,463.87	82.4577	5,463.87	84.0496	5,463.87	81.2935	5,463.87	82.3567	5,463.87	81.9035	5,463.87	81.9921	5,463.87	81.3082	5,463.87	81.5719	5,463.87	78.9061	5,463.87	79.9618	5,463.87	76.2199	5,463.87	77.7036	5,463.87	74.1188	5,463.87	74.9811	5,463.87	70.6414	5,463.87	72.1026	5,463.87	69.7482	5,463.87	68.7285	5,463.87	65.2294	5,463.87	66.1894	5,463.87	65.5314	5,463.87	62.049	5,463.87	61.7034	5,463.87	58.472	5,463.87	68.2389	5,463.87	64.6006	5,463.87	67.4958	5,463.87	66.9295	5,463.87	57.3711	5,463.87	67.3817	5,463.87	52.2121
5,657.23	85.311	5,657.23	86.1422	5,657.23	85.5688	5,657.23	85.3269	5,657.23	85.4709	5,657.23	83.4553	5,657.23	83.6331	5,657.23	82.7446	5,657.23	82.5658	5,657.23	82.7836	5,657.23	82.2414	5,657.23	81.8544	5,657.23	81.2729	5,657.23	79.8992	5,657.23	79.1396	5,657.23	77.8322	5,657.23	76.333	5,657.23	75.0914	5,657.23	73.5423	5,657.23	71.5764	5,657.23	70.5219	5,657.23	68.8429	5,657.23	67.7744	5,657.23	64.9491	5,657.23	65.924	5,657.23	55.8311	5,657.23	61.0338	5,657.23	58.7002	5,657.23	58.744	5,657.23	65.8656	5,657.23	62.6724	5,657.23	66.668	5,657.23	64.727	5,657.23	59.1324	5,657.23	65.8863	5,657.23	52.0308
5,856.45	86.3016	5,856.45	86.3819	5,856.45	86.1471	5,856.45	85.1945	5,856.45	85.4501	5,856.45	84.3192	5,856.45	83.8634	5,856.45	83.974	5,856.45	83.4272	5,856.45	83.5169	5,856.45	82.9901	5,856.45	82.2459	5,856.45	81.8045	5,856.45	79.686	5,856.45	79.9173	5,856.45	76.4005	5,856.45	76.9586	5,856.45	74.1567	5,856.45	74.1068	5,856.45	70.4114	5,856.45	72.0351	5,856.45	67.3948	5,856.45	69.5961	5,856.45	63.2065	5,856.45	66.5845	5,856.45	61.2014	5,856.45	58.1128	5,856.45	58.9869	5,856.45	58.2472	5,856.45	66.1834	5,856.45	54.3789	5,856.45	65.7462	5,856.45	61.9078	5,856.45	53.1879	5,856.45	65.8688	5,856.45	47.3649
6,062.99	86.9695	6,062.99	86.6941	6,062.99	86.9907	6,062.99	85.9552	6,062.99	85.9933	6,062.99	85.5589	6,062.99	85.027	6,062.99	84.6397	6,062.99	84.6502	6,062.99	83.5197	6,062.99	83.5535	6,062.99	81.7018	6,062.99	82.0929	6,062.99	79.6424	6,062.99	80.148	6,062.99	76.9401	6,062.99	77.3751	6,062.99	74.263	6,062.99	74.7654	6,062.99	71.4818	6,062.99	71.1588	6,062.99	67.9629	6,062.99	68.9245	6,062.99	67.2902	6,062.99	67.1313	6,062.99	62.6322	6,062.99	62.2375	6,062.99	58.4645	6,062.99	61.5992	6,062.99	63.2543	6,062.99	58.2008	6,062.99	65.7418	6,062.99	63.3069	6,062.99	58.3972	6,062.99	66.4192	6,062.99	53.1956
6,276.86	86.8924	6,276.86	86.6064	6,276.86	86.7064	6,276.86	86.3784	6,276.86	86.3021	6,276.86	85.8732	6,276.86	86.4826	6,276.86	84.4109	6,276.86	85.4109	6,276.86	83.3888	6,276.86	83.3077	6,276.86	82.5597	6,276.86	81.6402	6,276.86	80.2073	6,276.86	80.5469	6,276.86	77.2152	6,276.86	78.7444	6,276.86	75.6582	6,276.86	75.8271	6,276.86	73.0692	6,276.86	73.3758	6,276.86	69.6556	6,276.86	71.208	6,276.86	67.4103	6,276.86	67.8533	6,276.86	66.6423	6,276.86	62.7872	6,276.86	58.8166	6,276.86	62.2201	6,276.86	65.8221	6,276.86	56.296	6,276.86	66.7141	6,276.86	64.8482	6,276.86	59.6684	6,276.86	66.5585	6,276.86	53.8614
6,498.05	86.9092	6,498.05	86.9035	6,498.05	86.6188	6,498.05	87.1523	6,498.05	86.7516	6,498.05	86.6215	6,498.05	86.9296	6,498.05	84.5933	6,498.05	85.2299	6,498.05	83.41	6,498.05	82.6904	6,498.05	82.6488	6,498.05	82.0482	6,498.05	81.0943	6,498.05	81.6362	6,498.05	78.4606	6,498.05	79.0532	6,498.05	75.6312	6,498.05	75.7824	6,498.05	72.9245	6,498.05	73.4045	6,498.05	69.7717	6,498.05	71.1272	6,498.05	66.5132	6,498.05	67.5724	6,498.05	64.5664	6,498.05	63.385	6,498.05	57.3991	6,498.05	63.0027	6,498.05	66.2508	6,498.05	57.9867	6,498.05	65.9579	6,498.05	64.4507	6,498.05	57.2809	6,498.05	67.3907	6,498.05	44.2623
6,726.56	86.6759	6,726.56	86.481	6,726.56	86.2608	6,726.56	87.2448	6,726.56	86.55	6,726.56	86.4954	6,726.56	87.0811	6,726.56	84.2699	6,726.56	85.0203	6,726.56	82.8619	6,726.56	82.4554	6,726.56	82.7022	6,726.56	82.3122	6,726.56	80.6282	6,726.56	81.2416	6,726.56	77.7086	6,726.56	79.1562	6,726.56	75.2562	6,726.56	76.2669	6,726.56	72.8804	6,726.56	73.4967	6,726.56	68.9649	6,726.56	71.4123	6,726.56	67.3267	6,726.56	68.0198	6,726.56	66.3811	6,726.56	62.5806	6,726.56	59.2769	6,726.56	61.3843	6,726.56	66.174	6,726.56	55.3845	6,726.56	65.9362	6,726.56	64.427	6,726.56	56.4426	6,726.56	67.2263	6,726.56	45.8696
6,963.87	86.0961	6,963.87	86.0049	6,963.87	85.9346	6,963.87	86.8078	6,963.87	86.1137	6,963.87	85.6282	6,963.87	86.3634	6,963.87	83.6929	6,963.87	84.0883	6,963.87	82.9162	6,963.87	82.3687	6,963.87	82.4326	6,963.87	82.1553	6,963.87	79.9374	6,963.87	80.886	6,963.87	77.0638	6,963.87	78.33	6,963.87	74.4083	6,963.87	74.8918	6,963.87	72.0224	6,963.87	72.9913	6,963.87	69.0061	6,963.87	70.239	6,963.87	67.5439	6,963.87	66.5653	6,963.87	64.3976	6,963.87	64.6003	6,963.87	57.1074	6,963.87	61.2143	6,963.87	64.4579	6,963.87	57.5642	6,963.87	64.0683	6,963.87	63.1791	6,963.87	55.5094	6,963.87	67.9164	6,963.87	47.9979
7,209.96	85.5018	7,209.96	85.3944	7,209.96	85.4131	7,209.96	86.1661	7,209.96	85.6082	7,209.96	84.6654	7,209.96	85.4625	7,209.96	83.3232	7,209.96	83.1238	7,209.96	82.2836	7,209.96	82.6117	7,209.96	81.9348	7,209.96	82.0504	7,209.96	79.1284	7,209.96	80.28	7,209.96	76.9881	7,209.96	77.3406	7,209.96	73.4147	7,209.96	73.8151	7,209.96	70.8037	7,209.96	72.3033	7,209.96	66.9372	7,209.96	68.623	7,209.96	66.1437	7,209.96	65.7251	7,209.96	63.3209	7,209.96	62.5438	7,209.96	56.7585	7,209.96	62.2554	7,209.96	64.8356	7,209.96	51.9533	7,209.96	63.2978	7,209.96	60.2187	7,209.96	48.5031	7,209.96	66.1006	7,209.96	35.6715
7,464.84	84.6919	7,464.84	84.842	7,464.84	84.4412	7,464.84	84.9992	7,464.84	84.7476	7,464.84	83.6048	7,464.84	83.9266	7,464.84	82.7989	7,464.84	82.3852	7,464.84	81.441	7,464.84	81.9404	7,464.84	80.4719	7,464.84	81.0943	7,464.84	78.2327	7,464.84	79.2614	7,464.84	76.3338	7,464.84	76.7226	7,464.84	72.4714	7,464.84	73.6441	7,464.84	70.2837	7,464.84	71.4482	7,464.84	66.0798	7,464.84	68.5606	7,464.84	66.1594	7,464.84	65.0954	7,464.84	63.0349	7,464.84	62.8855	7,464.84	52.8809	7,464.84	60.4457	7,464.84	64.3924	7,464.84	53.8283	7,464.84	63.0233	7,464.84	59.5421	7,464.84	47.3295	7,464.84	65.9816	7,464.84	39.5759
7,727.05	84.2274	7,727.05	84.1862	7,727.05	84.468	7,727.05	84.2362	7,727.05	84.1641	7,727.05	83.2424	7,727.05	83.057	7,727.05	82.5472	7,727.05	82.3749	7,727.05	80.6022	7,727.05	81.3162	7,727.05	79.7073	7,727.05	80.3085	7,727.05	78.1041	7,727.05	78.9506	7,727.05	75.506	7,727.05	76.8943	7,727.05	71.7118	7,727.05	72.9528	7,727.05	69.4138	7,727.05	70.5463	7,727.05	65.8807	7,727.05	67.1479	7,727.05	65.5985	7,727.05	64.788	7,727.05	61.7787	7,727.05	61.394	7,727.05	54.9166	7,727.05	61.4085	7,727.05	63.4111	7,727.05	50.1111	7,727.05	61.6599	7,727.05	58.1267	7,727.05	52.5313	7,727.05	65.7656	7,727.05	44.8708
7,999.51	84.5841	7,999.51	84.2003	7,999.51	84.8395	7,999.51	83.7693	7,999.51	83.9583	7,999.51	83.0421	7,999.51	83.0452	7,999.51	81.9611	7,999.51	82.8164	7,999.51	79.9826	7,999.51	81.136	7,999.51	79.4743	7,999.51	80.5907	7,999.51	77.896	7,999.51	79.0392	7,999.51	75.2186	7,999.51	76.6747	7,999.51	70.3118	7,999.51	72.1393	7,999.51	68.2563	7,999.51	69.9955	7,999.51	65.8623	7,999.51	66.7186	7,999.51	65.6615	7,999.51	63.0675	7,999.51	59.4481	7,999.51	61.7718	7,999.51	54.7586	7,999.51	58.9628	7,999.51	62.4758	7,999.51	46.5448	7,999.51	60.9467	7,999.51	58.2624	7,999.51	51.4687	7,999.51	64.3068	7,999.51	38.395
8,282.23	84.8945	8,282.23	84.4304	8,282.23	85.0075	8,282.23	83.6851	8,282.23	84.0104	8,282.23	83.1835	8,282.23	83.3735	8,282.23	81.5582	8,282.23	83.0433	8,282.23	79.6265	8,282.23	81.2688	8,282.23	78.8906	8,282.23	80.8116	8,282.23	77.4022	8,282.23	78.5378	8,282.23	74.466	8,282.23	76.3397	8,282.23	69.5938	8,282.23	72.3954	8,282.23	67.8485	8,282.23	69.1486	8,282.23	64.7732	8,282.23	66.8181	8,282.23	64.7115	8,282.23	63.1649	8,282.23	59.3783	8,282.23	63.1398	8,282.23	54.8206	8,282.23	55.7981	8,282.23	62.0834	8,282.23	48.0842	8,282.23	59.2021	8,282.23	59.7498	8,282.23	43.0277	8,282.23	62.9639	8,282.23	47.0852
8,573.73	85.1879	8,573.73	84.4294	8,573.73	85.2115	8,573.73	83.4798	8,573.73	84.1091	8,573.73	82.9468	8,573.73	83.7016	8,573.73	80.6098	8,573.73	82.9587	8,573.73	79.1487	8,573.73	81.2577	8,573.73	77.4204	8,573.73	80.3519	8,573.73	75.8984	8,573.73	77.4472	8,573.73	72.4374	8,573.73	75.9896	8,573.73	68.5417	8,573.73	72.2663	8,573.73	66.5853	8,573.73	68.7693	8,573.73	64.0346	8,573.73	66.9206	8,573.73	61.8909	8,573.73	62.6866	8,573.73	58.5719	8,573.73	63.1746	8,573.73	53.5394	8,573.73	53.9518	8,573.73	60.1088	8,573.73	47.1199	8,573.73	58.5803	8,573.73	60.1292	8,573.73	50.5595	8,573.73	62.6651	8,573.73	50.987
8,876.95	85.3946	8,876.95	84.3215	8,876.95	85.3457	8,876.95	83.1975	8,876.95	84.0028	8,876.95	82.075	8,876.95	83.4769	8,876.95	79.5583	8,876.95	82.4751	8,876.95	78.3103	8,876.95	81.1619	8,876.95	75.9011	8,876.95	79.2295	8,876.95	74.2311	8,876.95	76.5416	8,876.95	70.4345	8,876.95	75.7924	8,876.95	66.6811	8,876.95	72.5931	8,876.95	64.4754	8,876.95	68.6431	8,876.95	63.1441	8,876.95	67.0114	8,876.95	58.9095	8,876.95	63.3101	8,876.95	57.8024	8,876.95	62.6326	8,876.95	50.6049	8,876.95	54.0429	8,876.95	59.3253	8,876.95	43.9884	8,876.95	58.9616	8,876.95	59.1972	8,876.95	53.2317	8,876.95	63.2314	8,876.95	53.4146
9,188.96	85.5002	9,188.96	84.3819	9,188.96	85.3208	9,188.96	82.9414	9,188.96	83.9878	9,188.96	81.2348	9,188.96	83.1482	9,188.96	78.9516	9,188.96	81.9253	9,188.96	77.1853	9,188.96	81.0891	9,188.96	74.8911	9,188.96	78.2624	9,188.96	72.8597	9,188.96	76.8707	9,188.96	69.7048	9,188.96	76.0175	9,188.96	65.149	9,188.96	72.419	9,188.96	63.6185	9,188.96	68.0759	9,188.96	62.4411	9,188.96	66.2167	9,188.96	57.821	9,188.96	63.137	9,188.96	56.0243	9,188.96	61.0194	9,188.96	49.7574	9,188.96	53.7015	9,188.96	58.6151	9,188.96	48.7852	9,188.96	58.4266	9,188.96	58.0554	9,188.96	52.4557	9,188.96	63.1658	9,188.96	53.5072
9,514.16	85.4955	9,514.16	84.319	9,514.16	85.2167	9,514.16	82.7003	9,514.16	84.0769	9,514.16	80.7926	9,514.16	83.0183	9,514.16	78.589	9,514.16	81.6857	9,514.16	76.6249	9,514.16	80.5112	9,514.16	74.8942	9,514.16	77.595	9,514.16	72.4048	9,514.16	77.4603	9,514.16	68.8802	9,514.16	75.6917	9,514.16	64.6726	9,514.16	71.8483	9,514.16	62.4812	9,514.16	67.5614	9,514.16	61.1063	9,514.16	64.4396	9,514.16	57.7964	9,514.16	62.2955	9,514.16	51.0187	9,514.16	59.5483	9,514.16	50.2056	9,514.16	51.4847	9,514.16	57.901	9,514.16	48.37	9,514.16	56.567	9,514.16	57.1233	9,514.16	52.1275	9,514.16	61.6713	9,514.16	51.4372
9,849.61	85.4525	9,849.61	84.2838	9,849.61	85.2883	9,849.61	82.776	9,849.61	84.3201	9,849.61	80.6321	9,849.61	83.1028	9,849.61	78.5386	9,849.61	81.7867	9,849.61	76.6759	9,849.61	80.0924	9,849.61	74.987	9,849.61	77.6819	9,849.61	71.3441	9,849.61	77.1304	9,849.61	67.3722	9,849.61	74.2864	9,849.61	62.8212	9,849.61	70.3579	9,849.61	59.2673	9,849.61	66.7245	9,849.61	59.161	9,849.61	62.9064	9,849.61	56.8013	9,849.61	61.0008	9,849.61	50.4867	9,849.61	59.2215	9,849.61	52.1458	9,849.61	42.9709	9,849.61	57.1969	9,849.61	46.8356	9,849.61	54.6104	9,849.61	55.8161	9,849.61	50.4305	9,849.61	59.8186	9,849.61	49.2918
10,196.8	85.3923	10,196.8	84.4101	10,196.8	85.5043	10,196.8	82.9678	10,196.8	84.7029	10,196.8	80.7408	10,196.8	83.4324	10,196.8	78.7278	10,196.8	82.0368	10,196.8	76.8055	10,196.8	79.907	10,196.8	74.2818	10,196.8	77.945	10,196.8	69.8034	10,196.8	76.5077	10,196.8	67.0786	10,196.8	73.1098	10,196.8	61.9384	10,196.8	69.4442	10,196.8	58.1757	10,196.8	66.4312	10,196.8	58.0688	10,196.8	62.0959	10,196.8	55.0352	10,196.8	59.1352	10,196.8	51.1814	10,196.8	59.1064	10,196.8	53.214	10,196.8	42.5893	10,196.8	53.5152	10,196.8	45.1144	10,196.8	51.3532	10,196.8	54.5176	10,196.8	48.7298	10,196.8	57.1533	10,196.8	45.4816
10,555.7	85.6673	10,555.7	84.646	10,555.7	85.9201	10,555.7	83.1503	10,555.7	85.0833	10,555.7	80.9832	10,555.7	83.7821	10,555.7	78.783	10,555.7	82.2078	10,555.7	76.7032	10,555.7	79.8626	10,555.7	72.8937	10,555.7	77.9189	10,555.7	69.6129	10,555.7	75.9172	10,555.7	66.6478	10,555.7	72.9378	10,555.7	61.5984	10,555.7	70.111	10,555.7	59.4214	10,555.7	65.6194	10,555.7	57.0129	10,555.7	60.7187	10,555.7	53.4592	10,555.7	59.4565	10,555.7	52.0384	10,555.7	59.4314	10,555.7	52.724	10,555.7	37.7356	10,555.7	46.4746	10,555.7	44.8713	10,555.7	49.038	10,555.7	52.5858	10,555.7	44.6463	10,555.7	56.2031	10,555.7	43.0912
10,927.7	85.9079	10,927.7	84.8039	10,927.7	86.1824	10,927.7	83.1163	10,927.7	85.4044	10,927.7	80.7117	10,927.7	84.0279	10,927.7	78.6599	10,927.7	82.1833	10,927.7	75.4464	10,927.7	79.6552	10,927.7	71.3237	10,927.7	77.4063	10,927.7	68.5302	10,927.7	75.4011	10,927.7	64.5241	10,927.7	72.9212	10,927.7	59.395	10,927.7	70.0115	10,927.7	56.5716	10,927.7	64.9084	10,927.7	55.7201	10,927.7	61.0174	10,927.7	52.2393	10,927.7	59.1533	10,927.7	53.288	10,927.7	59.3773	10,927.7	52.4155	10,927.7	39.6177	10,927.7	39.5116	10,927.7	44.7126	10,927.7	46.5882	10,927.7	51.5852	10,927.7	42.8124	10,927.7	55.7391	10,927.7	40.5119
11,313	86.09	11,313	84.9511	11,313	86.3642	11,313	82.9743	11,313	85.6091	11,313	80.5586	11,313	84.0656	11,313	77.7861	11,313	82.0346	11,313	73.1313	11,313	79.0231	11,313	69.4647	11,313	76.6496	11,313	65.2898	11,313	74.5094	11,313	60.1906	11,313	71.5703	11,313	54.0515	11,313	68.2122	11,313	51.1868	11,313	63.0066	11,313	50.0245	11,313	58.8089	11,313	47.5737	11,313	57.6609	11,313	49.9075	11,313	57.4657	11,313	49.8963	11,313	37.8132	11,313	45	11,313	42.4056	11,313	44.8701	11,313	49.7491	11,313	42.8884	11,313	54.2747	11,313	37.7125
11,712.9	86.3491	11,712.9	85.1732	11,712.9	86.5856	11,712.9	83.1081	11,712.9	85.7205	11,712.9	80.4615	11,712.9	83.9635	11,712.9	76.4193	11,712.9	81.674	11,712.9	71.0873	11,712.9	78.4828	11,712.9	65.7018	11,712.9	75.6374	11,712.9	58.5641	11,712.9	72.5161	11,712.9	48.9836	11,712.9	68.6961	11,712.9	44.546	11,712.9	65.4599	11,712.9	41.4775	11,712.9	59.7878	11,712.9	31.6383	11,712.9	56.6018	11,712.9	42.5303	11,712.9	54.2042	11,712.9	45.0892	11,712.9	54.3576	11,712.9	47.7397	11,712.9	40.5221	11,712.9	46.0489	11,712.9	37.5677	11,712.9	42.7168	11,712.9	48.9447	11,712.9	45.1315	11,712.9	51.5366	11,712.9	38.5844
12,126	86.8155	12,126	85.6929	12,126	87.0074	12,126	83.546	12,126	86.0717	12,126	80.6249	12,126	84.1884	12,126	75.9424	12,126	81.731	12,126	70.2927	12,126	78.4502	12,126	62.0542	12,126	74.5969	12,126	22.8158	12,126	70.8718	12,126	50.4128	12,126	66.0293	12,126	48.185	12,126	62.179	12,126	47.2006	12,126	56.8233	12,126	47.2727	12,126	52.887	12,126	45.5563	12,126	50.7123	12,126	36.8185	12,126	49.8476	12,126	44.0097	12,126	44.3394	12,126	44.2251	12,126	37.5161	12,126	39.4825	12,126	46.449	12,126	44.5608	12,126	47.5678	12,126	40.8515
12,553.7	87.5961	12,553.7	86.3901	12,553.7	87.7073	12,553.7	84.1014	12,553.7	86.7764	12,553.7	80.7634	12,553.7	84.6312	12,553.7	75.8194	12,553.7	82.0744	12,553.7	69.3332	12,553.7	78.225	12,553.7	58.0187	12,553.7	73.664	12,553.7	53.5007	12,553.7	68.5667	12,553.7	57.3933	12,553.7	61.4735	12,553.7	54.0289	12,553.7	57.0755	12,553.7	50.9053	12,553.7	51.1807	12,553.7	49.6301	12,553.7	46.455	12,553.7	48.2875	12,553.7	44.1049	12,553.7	34.1382	12,553.7	40.4802	12,553.7	43.7429	12,553.7	44.4624	12,553.7	45.4265	12,553.7	40.5454	12,553.7	39.6056	12,553.7	43.0514	12,553.7	34.8545	12,553.7	43.1153	12,553.7	41.4637
12,996.1	87.9888	12,996.1	86.7029	12,996.1	88.0712	12,996.1	84.1407	12,996.1	87.0461	12,996.1	80.3793	12,996.1	84.634	12,996.1	75.2665	12,996.1	81.9208	12,996.1	67.0774	12,996.1	76.9748	12,996.1	51.2735	12,996.1	72.2235	12,996.1	59.7246	12,996.1	63.8348	12,996.1	61.1578	12,996.1	52.941	12,996.1	58.2074	12,996.1	49.7991	12,996.1	53.9869	12,996.1	36.0158	12,996.1	53.067	12,996.1	35.0528	12,996.1	52.0395	12,996.1	32.0408	12,996.1	41.1588	12,996.1	30.9841	12,996.1	47.6567	12,996.1	46.3259	12,996.1	49.5195	12,996.1	44.113	12,996.1	43.5355	12,996.1	39.4809	12,996.1	33.2631	12,996.1	41.9847	12,996.1	41.63
13,454.6	88.3139	13,454.6	86.9257	13,454.6	88.41	13,454.6	84.1428	13,454.6	87.0664	13,454.6	80.0272	13,454.6	84.4563	13,454.6	73.9747	13,454.6	81.1383	13,454.6	63.1101	13,454.6	75.3437	13,454.6	57.5267	13,454.6	69.5625	13,454.6	63.3839	13,454.6	57.9255	13,454.6	62.9634	13,454.6	52.6522	13,454.6	61.6756	13,454.6	57.9092	13,454.6	55.4855	13,454.6	51.418	13,454.6	57.0421	13,454.6	47.2691	13,454.6	51.9199	13,454.6	48.7952	13,454.6	42.8239	13,454.6	40.3938	13,454.6	49.8456	13,454.6	47.5263	13,454.6	51.539	13,454.6	46.509	13,454.6	46.9788	13,454.6	41.8837	13,454.6	36.0136	13,454.6	43.3803	13,454.6	38.835
13,929.2	88.3482	13,929.2	86.9124	13,929.2	88.4689	13,929.2	84.0848	13,929.2	86.8655	13,929.2	79.658	13,929.2	84.0418	13,929.2	71.944	13,929.2	79.8098	13,929.2	51.0998	13,929.2	73.9551	13,929.2	61.2292	13,929.2	65.1345	13,929.2	65.8824	13,929.2	55.2997	13,929.2	64.3665	13,929.2	63.2861	13,929.2	63.4811	13,929.2	64.2482	13,929.2	55.8874	13,929.2	58.1646	13,929.2	58.6482	13,929.2	54.7239	13,929.2	51.9022	13,929.2	53.8257	13,929.2	44.5891	13,929.2	49.7056	13,929.2	51.1734	13,929.2	47.0774	13,929.2	50.8945	13,929.2	46.1486	13,929.2	48.8101	13,929.2	45.2699	13,929.2	43.5097	13,929.2	46.0774	13,929.2	41.3638
14,419.9	88.2165	14,419.9	86.7004	14,419.9	88.3429	14,419.9	83.6611	14,419.9	86.7029	14,419.9	78.4677	14,419.9	83.5715	14,419.9	67.8699	14,419.9	78.8803	14,419.9	57.4495	14,419.9	71.9524	14,419.9	65.8732	14,419.9	59.6338	14,419.9	67.5553	14,419.9	64.4099	14,419.9	64.6737	14,419.9	66.4755	14,419.9	63.0247	14,419.9	64.5703	14,419.9	56.1458	14,419.9	59.5024	14,419.9	57.4897	14,419.9	53.7252	14,419.9	51.8663	14,419.9	54.5826	14,419.9	43.5001	14,419.9	51.259	14,419.9	47.577	14,419.9	45.7908	14,419.9	44.6906	14,419.9	37.2297	14,419.9	50.4413	14,419.9	45.7603	14,419.9	49.1654	14,419.9	45.8746	14,419.9	44.7287
14,928.2	88.183	14,928.2	86.6776	14,928.2	88.1791	14,928.2	83.2484	14,928.2	86.4899	14,928.2	77.1146	14,928.2	83.0818	14,928.2	65.1364	14,928.2	77.8374	14,928.2	62.7823	14,928.2	69.2927	14,928.2	67.578	14,928.2	56.0757	14,928.2	67.0277	14,928.2	67.2405	14,928.2	64.6411	14,928.2	64.0006	14,928.2	63.3208	14,928.2	61.184	14,928.2	54.5382	14,928.2	54.8019	14,928.2	58.078	14,928.2	43.3102	14,928.2	52.0752	14,928.2	53.2166	14,928.2	43.6553	14,928.2	49.037	14,928.2	47.8581	14,928.2	44.4991	14,928.2	43.5314	14,928.2	43.7946	14,928.2	50.5921	14,928.2	42.5289	14,928.2	51.5895	14,928.2	47.4423	14,928.2	45.6258
15,455.6	88.255	15,455.6	86.744	15,455.6	88.0795	15,455.6	83.0479	15,455.6	86.3765	15,455.6	75.8757	15,455.6	82.5788	15,455.6	61.7693	15,455.6	76.2552	15,455.6	65.8263	15,455.6	64.6896	15,455.6	67.48	15,455.6	64.1626	15,455.6	67.8178	15,455.6	62.9996	15,455.6	65.2997	15,455.6	60.3756	15,455.6	64.3976	15,455.6	62.4496	15,455.6	56.22	15,455.6	58.9412	15,455.6	59.4441	15,455.6	52.851	15,455.6	49.9794	15,455.6	54.183	15,455.6	44.4415	15,455.6	42.7951	15,455.6	46.6686	15,455.6	46.7986	15,455.6	45.5738	15,455.6	44.7786	15,455.6	49.4801	15,455.6	40.9955	15,455.6	51.8214	15,455.6	46.4585	15,455.6	43.5347
16,000.5	87.9599	16,000.5	86.419	16,000.5	87.7638	16,000.5	82.537	16,000.5	86.1459	16,000.5	73.9594	16,000.5	81.9738	16,000.5	58.8269	16,000.5	74.8927	16,000.5	67.1107	16,000.5	33.6115	16,000.5	68.5452	16,000.5	63.8059	16,000.5	68.3022	16,000.5	58.5232	16,000.5	65.1551	16,000.5	63.9719	16,000.5	63.6257	16,000.5	62.2749	16,000.5	54.7729	16,000.5	57.6531	16,000.5	57.7787	16,000.5	48.5161	16,000.5	47.7951	16,000.5	53.6828	16,000.5	43.4473	16,000.5	43.6048	16,000.5	44.5056	16,000.5	42.6197	16,000.5	42.6927	16,000.5	45.7646	16,000.5	48.1668	16,000.5	36.3287	16,000.5	50.8539	16,000.5	40.3767	16,000.5	43.9816
16,564.5	87.6599	16,564.5	86.0569	16,564.5	87.6036	16,564.5	81.6987	16,564.5	85.8959	16,564.5	71.6184	16,564.5	81.2124	16,564.5	63.8701	16,564.5	72.9795	16,564.5	67.3964	16,564.5	60.1832	16,564.5	69.3915	16,564.5	44.4359	16,564.5	67.317	16,564.5	62.6842	16,564.5	63.4077	16,564.5	59.9035	16,564.5	63.5409	16,564.5	57.6786	16,564.5	53.7593	16,564.5	52.2857	16,564.5	57.5089	16,564.5	46.3204	16,564.5	47.4549	16,564.5	50.3349	16,564.5	45.6425	16,564.5	41.915	16,564.5	40.9618	16,564.5	37.0207	16,564.5	42.4453	16,564.5	45.4038	16,564.5	48.1269	16,564.5	39.1473	16,564.5	52.3071	16,564.5	39.9043	16,564.5	46.2592
17,148.9	87.5528	17,148.9	85.8376	17,148.9	87.6374	17,148.9	80.9396	17,148.9	85.7363	17,148.9	69.103	17,148.9	80.3444	17,148.9	66.9951	17,148.9	70.1934	17,148.9	66.9463	17,148.9	60.0946	17,148.9	69.7091	17,148.9	61.7981	17,148.9	67.5283	17,148.9	60.8037	17,148.9	64.2819	17,148.9	60.5769	17,148.9	62.5642	17,148.9	60.9758	17,148.9	52.3769	17,148.9	53.53	17,148.9	56.7053	17,148.9	49.0444	17,148.9	49.4533	17,148.9	51.4378	17,148.9	41.6261	17,148.9	45.5007	17,148.9	30.3503	17,148.9	44.1973	17,148.9	46.5075	17,148.9	45.2188	17,148.9	48.8398	17,148.9	33.611	17,148.9	53.7742	17,148.9	35.1302	17,148.9	47.8206
17,752.4	87.4868	17,752.4	85.3989	17,752.4	87.5294	17,752.4	79.9853	17,752.4	85.4874	17,752.4	65.3644	17,752.4	79.8816	17,752.4	67.0043	17,752.4	69.4757	17,752.4	68.2722	17,752.4	59.8619	17,752.4	70.573	17,752.4	64.0261	17,752.4	68.1415	17,752.4	65.4348	17,752.4	63.2397	17,752.4	60.124	17,752.4	61.3158	17,752.4	58.687	17,752.4	47.5555	17,752.4	55.8566	17,752.4	57.5836	17,752.4	53.4902	17,752.4	51.3501	17,752.4	52.4559	17,752.4	40.5012	17,752.4	43.0184	17,752.4	45.6824	17,752.4	50.9479	17,752.4	50.7847	17,752.4	48.7983	17,752.4	50.1222	17,752.4	39.3147	17,752.4	56.1446	17,752.4	46.0728	17,752.4	50.8071
18,379.4	87.063	18,379.4	84.4465	18,379.4	86.9511	18,379.4	77.9935	18,379.4	84.8136	18,379.4	62.3501	18,379.4	78.6143	18,379.4	67.8061	18,379.4	68.3398	18,379.4	69.0443	18,379.4	65.0856	18,379.4	71.1402	18,379.4	65.6058	18,379.4	67.0899	18,379.4	64.7209	18,379.4	62.1838	18,379.4	63.1794	18,379.4	62.392	18,379.4	63.731	18,379.4	53.2796	18,379.4	58.4365	18,379.4	59.5063	18,379.4	58.1076	18,379.4	51.735	18,379.4	54.0609	18,379.4	46.7827	18,379.4	37.7093	18,379.4	48.5165	18,379.4	54.1224	18,379.4	52.2384	18,379.4	52.1864	18,379.4	51.344	18,379.4	46.77	18,379.4	57.3695	18,379.4	51.3242	18,379.4	53.6266
19,026.9	86.7679	19,026.9	83.5666	19,026.9	86.5041	19,026.9	75.9717	19,026.9	84.0981	19,026.9	64.4876	19,026.9	76.6357	19,026.9	68.7528	19,026.9	66.6048	19,026.9	69.2528	19,026.9	67.1485	19,026.9	69.3283	19,026.9	65.6135	19,026.9	66.4627	19,026.9	65.1426	19,026.9	61.0829	19,026.9	65.0429	19,026.9	60.5427	19,026.9	63.6787	19,026.9	53.1527	19,026.9	55.9529	19,026.9	58.5278	19,026.9	56.3373	19,026.9	50.9978	19,026.9	51.4401	19,026.9	47.4068	19,026.9	38.4801	19,026.9	47.432	19,026.9	54.4997	19,026.9	50.8842	19,026.9	52.7426	19,026.9	51.1852	19,026.9	45.5221	19,026.9	56.8838	19,026.9	50.1808	19,026.9	54.0011
19,697.8	86.978	19,697.8	83.4568	19,697.8	86.5069	19,697.8	74.7558	19,697.8	83.7172	19,697.8	67.4449	19,697.8	75.0038	19,697.8	69.2612	19,697.8	67.2618	19,697.8	68.8223	19,697.8	68.0974	19,697.8	68.2591	19,697.8	67.3355	19,697.8	63.7308	19,697.8	66.7387	19,697.8	58.2567	19,697.8	62.2086	19,697.8	58.8565	19,697.8	61.0102	19,697.8	54.6596	19,697.8	53.6861	19,697.8	57.3317	19,697.8	56.3179	19,697.8	51.5333	19,697.8	50.7463	19,697.8	46.8067	19,697.8	41.1329	19,697.8	47.1606	19,697.8	54.5675	19,697.8	51.9888	19,697.8	54.0089	19,697.8	50.4275	19,697.8	47.0747	19,697.8	58.3406	19,697.8	51.514	19,697.8	54.2621
19,999.5	86.9774	19,999.5	83.3287	19,999.5	86.4084	19,999.5	74.3552	19,999.5	83.3563	19,999.5	67.8453	19,999.5	74.2611	19,999.5	69.7752	19,999.5	68.0005	19,999.5	68.9095	19,999.5	68.2915	19,999.5	67.2996	19,999.5	68.4739	19,999.5	62.1325	19,999.5	66.0224	19,999.5	56.9033	19,999.5	61.8435	19,999.5	59.998	19,999.5	59.8056	19,999.5	55.5206	19,999.5	51.1239	19,999.5	58.0717	19,999.5	55.0265	19,999.5	54.0347	19,999.5	51.4113	19,999.5	48.5885	19,999.5	50.4462	19,999.5	48.2198	19,999.5	56.3992	19,999.5	52.3611	19,999.5	53.7202	19,999.5	52.9385	19,999.5	48.3762	19,999.5	59.3443	19,999.5	53.2845	19,999.5	55.6474
