"SPL Vertical"																																																																							
"On-Axis"		"10°"		"-10°"		"20°"		"-20°"		"30°"		"-30°"		"40°"		"-40°"		"50°"		"-50°"		"60°"		"-60°"		"70°"		"-70°"		"80°"		"-80°"		"90°"		"-90°"		"100°"		"-100°"		"110°"		"-110°"		"120°"		"-120°"		"130°"		"-130°"		"140°"		"-140°"		"150°"		"-150°"		"160°"		"-160°"		"170°"		"-170°"		"180°"	
"Frequency [Hz]"	"Sound Pessure Level [dB]  / [2.83V 1m] "	"Frequency [Hz]"	"Sound Pessure Level [dB]  / [2.83V 1m] "	"Frequency [Hz]"	"Sound Pessure Level [dB]  / [2.83V 1m] "	"Frequency [Hz]"	"Sound Pessure Level [dB]  / [2.83V 1m] "	"Frequency [Hz]"	"Sound Pessure Level [dB]  / [2.83V 1m] "	"Frequency [Hz]"	"Sound Pessure Level [dB]  / [2.83V 1m] "	"Frequency [Hz]"	"Sound Pessure Level [dB]  / [2.83V 1m] "	"Frequency [Hz]"	"Sound Pessure Level [dB]  / [2.83V 1m] "	"Frequency [Hz]"	"Sound Pessure Level [dB]  / [2.83V 1m] "	"Frequency [Hz]"	"Sound Pessure Level [dB]  / [2.83V 1m] "	"Frequency [Hz]"	"Sound Pessure Level [dB]  / [2.83V 1m] "	"Frequency [Hz]"	"Sound Pessure Level [dB]  / [2.83V 1m] "	"Frequency [Hz]"	"Sound Pessure Level [dB]  / [2.83V 1m] "	"Frequency [Hz]"	"Sound Pessure Level [dB]  / [2.83V 1m] "	"Frequency [Hz]"	"Sound Pessure Level [dB]  / [2.83V 1m] "	"Frequency [Hz]"	"Sound Pessure Level [dB]  / [2.83V 1m] "	"Frequency [Hz]"	"Sound Pessure Level [dB]  / [2.83V 1m] "	"Frequency [Hz]"	"Sound Pessure Level [dB]  / [2.83V 1m] "	"Frequency [Hz]"	"Sound Pessure Level [dB]  / [2.83V 1m] "	"Frequency [Hz]"	"Sound Pessure Level [dB]  / [2.83V 1m] "	"Frequency [Hz]"	"Sound Pessure Level [dB]  / [2.83V 1m] "	"Frequency [Hz]"	"Sound Pessure Level [dB]  / [2.83V 1m] "	"Frequency [Hz]"	"Sound Pessure Level [dB]  / [2.83V 1m] "	"Frequency [Hz]"	"Sound Pessure Level [dB]  / [2.83V 1m] "	"Frequency [Hz]"	"Sound Pessure Level [dB]  / [2.83V 1m] "	"Frequency [Hz]"	"Sound Pessure Level [dB]  / [2.83V 1m] "	"Frequency [Hz]"	"Sound Pessure Level [dB]  / [2.83V 1m] "	"Frequency [Hz]"	"Sound Pessure Level [dB]  / [2.83V 1m] "	"Frequency [Hz]"	"Sound Pessure Level [dB]  / [2.83V 1m] "	"Frequency [Hz]"	"Sound Pessure Level [dB]  / [2.83V 1m] "	"Frequency [Hz]"	"Sound Pessure Level [dB]  / [2.83V 1m] "	"Frequency [Hz]"	"Sound Pessure Level [dB]  / [2.83V 1m] "	"Frequency [Hz]"	"Sound Pessure Level [dB]  / [2.83V 1m] "	"Frequency [Hz]"	"Sound Pessure Level [dB]  / [2.83V 1m] "	"Frequency [Hz]"	"Sound Pessure Level [dB]  / [2.83V 1m] "	"Frequency [Hz]"	"Sound Pessure Level [dB]  / [2.83V 1m] "
20.5078	51.4009	20.5078	51.0568	20.5078	51.6598	20.5078	50.6576	20.5078	51.8132	20.5078	50.2476	20.5078	51.8485	20.5078	49.8905	20.5078	51.7634	20.5078	49.6686	20.5078	51.5751	20.5078	49.6679	20.5078	51.3373	20.5078	49.9467	20.5078	51.1628	20.5078	50.5051	20.5078	51.2223	20.5078	51.2854	20.5078	51.6691	20.5078	52.202	20.5078	52.5137	20.5078	53.1728	20.5078	53.6031	20.5078	54.1338	20.5078	54.7375	20.5078	55.0393	20.5078	55.7685	20.5078	55.8562	20.5078	56.6141	20.5078	56.5588	20.5078	57.2394	20.5078	57.1253	20.5078	57.6355	20.5078	57.5351	20.5078	57.8077	20.5078	57.7687
21.9727	54.2028	21.9727	53.7942	21.9727	54.5058	21.9727	53.293	21.9727	54.6921	21.9727	52.7171	21.9727	54.7508	21.9727	52.0948	21.9727	54.6727	21.9727	51.4735	21.9727	54.4538	21.9727	50.9294	21.9727	54.104	21.9727	50.5677	21.9727	53.6634	21.9727	50.4987	21.9727	53.2265	21.9727	50.7839	21.9727	52.9539	21.9727	51.3943	21.9727	53.023	21.9727	52.2276	21.9727	53.4995	21.9727	53.1633	21.9727	54.269	21.9727	54.1023	21.9727	55.1301	21.9727	54.9753	21.9727	55.9158	21.9727	55.736	21.9727	56.5296	21.9727	56.352	21.9727	56.9288	21.9727	56.7984	21.9727	57.1021	21.9727	57.0543
23.4375	52.898	23.4375	52.3176	23.4375	53.299	23.4375	51.5595	23.4375	53.5138	23.4375	50.6258	23.4375	53.5288	23.4375	49.5325	23.4375	53.3225	23.4375	48.3431	23.4375	52.8665	23.4375	47.2408	23.4375	52.131	23.4375	46.5989	23.4375	51.1076	23.4375	46.8171	23.4375	49.8852	23.4375	47.8789	23.4375	48.838	23.4375	49.3714	23.4375	48.714	23.4375	50.9274	23.4375	49.8429	23.4375	52.3683	23.4375	51.5775	23.4375	53.6296	23.4375	53.26	23.4375	54.6915	23.4375	54.6357	23.4375	55.5466	23.4375	55.6559	23.4375	56.1881	23.4375	56.3349	23.4375	56.6054	23.4375	56.7012	23.4375	56.7831
24.9023	53.0125	24.9023	52.5892	24.9023	53.3109	24.9023	52.0883	24.9023	53.4537	24.9023	51.5863	24.9023	53.419	24.9023	51.201	24.9023	53.1951	24.9023	51.0806	24.9023	52.7931	24.9023	51.3467	24.9023	52.2822	24.9023	52.016	24.9023	51.8563	24.9023	52.99	24.9023	51.8648	24.9023	54.1258	24.9023	52.6031	24.9023	55.3037	24.9023	53.968	24.9023	56.4459	24.9023	55.5748	24.9023	57.5075	24.9023	57.1122	24.9023	58.4623	24.9023	58.431	24.9023	59.2923	24.9023	59.481	24.9023	59.9828	24.9023	60.2553	24.9023	60.5187	24.9023	60.7645	24.9023	60.8833	24.9023	61.0259	24.9023	61.0588
26.3672	56.9995	26.3672	56.6971	26.3672	57.2246	26.3672	56.347	26.3672	57.3525	26.3672	55.9908	26.3672	57.3705	26.3672	55.6862	26.3672	57.2762	26.3672	55.5048	26.3672	57.0846	26.3672	55.5192	26.3672	56.8436	26.3672	55.7783	26.3672	56.6524	26.3672	56.2842	26.3672	56.6645	26.3672	56.9914	26.3672	57.0283	26.3672	57.8283	26.3672	57.776	26.3672	58.7222	26.3672	58.7853	26.3672	59.6134	26.3672	59.8703	26.3672	60.4569	26.3672	60.8797	26.3672	61.219	26.3672	61.7237	26.3672	61.8731	26.3672	62.3605	26.3672	62.3962	26.3672	62.7767	26.3672	62.7673	26.3672	62.9749	26.3672	62.9664
27.832	58.668	27.832	58.3492	27.832	58.9044	27.832	57.972	27.832	59.0415	27.832	57.5701	27.832	59.0681	27.832	57.1921	27.832	58.9798	27.832	56.9026	27.832	58.7853	27.832	56.7759	27.832	58.5187	27.832	56.8767	27.832	58.2562	27.832	57.232	27.832	58.1277	27.832	57.8178	27.832	58.2853	27.832	58.5699	27.832	58.8108	27.832	59.4116	27.832	59.64	27.832	60.2736	27.832	60.6083	27.832	61.1021	27.832	61.5528	27.832	61.8568	27.832	62.3649	27.832	62.507	27.832	62.9879	27.832	63.0274	27.832	63.3998	27.832	63.3958	27.832	63.5984	27.832	63.5922
29.2969	60.1917	29.2969	59.8999	29.2969	60.4129	29.2969	59.5604	29.2969	60.5474	29.2969	59.2051	29.2969	60.585	29.2969	58.8778	29.2969	60.5231	29.2969	58.6346	29.2969	60.3719	29.2969	58.5378	29.2969	60.164	29.2969	58.6398	29.2969	59.9677	29.2969	58.9636	29.2969	59.8918	29.2969	59.4918	29.2969	60.0587	29.2969	60.1738	29.2969	60.5351	29.2969	60.945	29.2969	61.2746	29.2969	61.7441	29.2969	62.1456	29.2969	62.5202	29.2969	63.0071	29.2969	63.2334	29.2969	63.7571	29.2969	63.8523	29.2969	64.3375	29.2969	64.3506	29.2969	64.7227	29.2969	64.7056	29.2969	64.907	29.2969	64.8969
30.7617	61.8006	30.7617	61.5254	30.7617	62.0137	30.7617	61.2086	30.7617	62.1497	30.7617	60.8787	30.7617	62.1993	30.7617	60.5732	30.7617	62.1598	30.7617	60.3395	30.7617	62.0402	30.7617	60.2302	30.7617	61.8684	30.7617	60.2915	30.7617	61.7013	30.7617	60.5484	30.7617	61.6284	30.7617	60.9935	30.7617	61.7525	30.7617	61.5897	30.7617	62.1374	30.7617	62.283	30.7617	62.7598	30.7617	63.017	30.7617	63.518	30.7617	63.742	30.7617	64.2886	30.7617	64.4168	30.7617	64.9728	30.7617	65.008	30.7617	65.5089	30.7617	65.4877	30.7617	65.8663	30.7617	65.8319	30.7617	66.0356	30.7617	66.0202
32.2266	63.3523	32.2266	63.1043	32.2266	63.5466	32.2266	62.8206	32.2266	63.6743	32.2266	62.5254	32.2266	63.7272	32.2266	62.2503	32.2266	63.7037	32.2266	62.0342	32.2266	63.6122	32.2266	61.9202	32.2266	63.4769	32.2266	61.948	32.2266	63.345	32.2266	62.1425	32.2266	63.2883	32.2266	62.5047	32.2266	63.389	32.2266	63.0102	32.2266	63.7029	32.2266	63.6168	32.2266	64.2209	32.2266	64.2756	32.2266	64.8683	32.2266	64.9393	32.2266	65.5428	32.2266	65.5669	32.2266	66.1535	32.2266	66.1233	32.2266	66.6384	32.2266	66.5791	32.2266	66.9633	32.2266	66.9095	32.2266	67.1147	32.2266	67.0934
33.6914	64.6047	33.6914	64.367	33.6914	64.7939	33.6914	64.0978	33.6914	64.9223	33.6914	63.8194	33.6914	64.9825	33.6914	63.5607	33.6914	64.9726	33.6914	63.3567	33.6914	64.9002	33.6914	63.2458	33.6914	64.7869	33.6914	63.2636	33.6914	64.674	33.6914	63.4334	33.6914	64.6238	33.6914	63.7579	33.6914	64.7081	33.6914	64.2179	33.6914	64.9782	33.6914	64.7768	33.6914	65.4326	33.6914	65.3904	33.6914	66.0115	33.6914	66.0143	33.6914	66.6254	33.6914	66.6084	33.6914	67.1892	33.6914	67.138	33.6914	67.6417	33.6914	67.5737	33.6914	67.9469	33.6914	67.8903	33.6914	68.0891	33.6914	68.0673
35.1563	65.9973	35.1563	65.7822	35.1563	66.1727	35.1563	65.543	35.1563	66.2969	35.1563	65.3002	35.1563	66.3632	35.1563	65.079	35.1563	66.3703	35.1563	64.9094	35.1563	66.3257	35.1563	64.8234	35.1563	66.2492	35.1563	64.8499	35.1563	66.177	35.1563	65.0082	35.1563	66.162	35.1563	65.3016	35.1563	66.2631	35.1563	65.7159	35.1563	66.5216	35.1563	66.2219	35.1563	66.9363	35.1563	66.7825	35.1563	67.4585	35.1563	67.3583	35.1563	68.0125	35.1563	67.9123	35.1563	68.5234	35.1563	68.411	35.1563	68.9341	35.1563	68.8252	35.1563	69.2097	35.1563	69.1299	35.1563	69.3338	35.1563	69.3045
36.6211	67.5581	36.6211	67.3663	36.6211	67.7186	36.6211	67.1569	36.6211	67.838	36.6211	66.9473	36.6211	67.9103	36.6211	66.7589	36.6211	67.9351	36.6211	66.6161	36.6211	67.9193	36.6211	66.545	36.6211	67.8803	36.6211	66.5693	36.6211	67.8486	36.6211	66.7055	36.6211	67.8669	36.6211	66.9587	36.6211	67.9811	36.6211	67.3197	36.6211	68.2233	36.6211	67.767	36.6211	68.5927	36.6211	68.2703	36.6211	69.0512	36.6211	68.7953	36.6211	69.5372	36.6211	69.3078	36.6211	69.9862	36.6211	69.7758	36.6211	70.3466	36.6211	70.1701	36.6211	70.5849	36.6211	70.4658	36.6211	70.6843	36.6211	70.6422
38.0859	69.1066	38.0859	68.9259	38.0859	69.2615	38.0859	68.7311	38.0859	69.3819	38.0859	68.5371	38.0859	69.4629	38.0859	68.3619	38.0859	69.5042	38.0859	68.2262	38.0859	69.5115	38.0859	68.152	38.0859	69.4994	38.0859	68.1598	38.0859	69.4925	38.0859	68.2652	38.0859	69.5249	38.0859	68.4749	38.0859	69.6332	38.0859	68.7842	38.0859	69.8436	38.0859	69.1769	38.0859	70.1577	38.0859	69.6282	38.0859	70.5473	38.0859	70.108	38.0859	70.9626	38.0859	70.5842	38.0859	71.3483	38.0859	71.0258	38.0859	71.6574	38.0859	71.404	38.0859	71.8572	38.0859	71.6935	38.0859	71.9307	38.0859	71.874
39.5508	70.4243	39.5508	70.2487	39.5508	70.5789	39.5508	70.0624	39.5508	70.7052	39.5508	69.8779	39.5508	70.7987	39.5508	69.7103	39.5508	70.8583	39.5508	69.5765	39.5508	70.8885	39.5508	69.4951	39.5508	70.8999	39.5508	69.4835	39.5508	70.9115	39.5508	69.556	39.5508	70.9491	39.5508	69.7203	39.5508	71.0413	39.5508	69.9752	39.5508	71.2101	39.5508	70.3097	39.5508	71.4598	39.5508	70.7043	39.5508	71.7716	39.5508	71.1332	39.5508	72.1076	39.5508	71.5675	39.5508	72.4219	39.5508	71.9776	39.5508	72.6726	39.5508	72.3356	39.5508	72.8287	39.5508	72.6166	39.5508	72.8729	39.5508	72.8003
41.0156	71.4848	41.0156	71.3096	41.0156	71.6413	41.0156	71.1248	41.0156	71.7718	41.0156	70.9418	41.0156	71.8716	41.0156	70.7737	41.0156	71.9391	41.0156	70.6355	41.0156	71.9768	41.0156	70.5432	41.0156	71.993	41.0156	70.5125	41.0156	72.0025	41.0156	70.5564	41.0156	72.0268	41.0156	70.6832	41.0156	72.0904	41.0156	70.8936	41.0156	72.2139	41.0156	71.1801	41.0156	72.4049	41.0156	71.5266	41.0156	72.6517	41.0156	71.9109	41.0156	72.9244	41.0156	72.3063	41.0156	73.1839	41.0156	72.6851	41.0156	73.3918	41.0156	73.0201	41.0156	73.5181	41.0156	73.2871	41.0156	73.545	41.0156	73.4664
42.4805	72.2349	42.4805	72.0679	42.4805	72.3833	42.4805	71.8905	42.4805	72.5067	42.4805	71.713	42.4805	72.6008	42.4805	71.5471	42.4805	72.6641	42.4805	71.4067	42.4805	72.6989	42.4805	71.3064	42.4805	72.7125	42.4805	71.2613	42.4805	72.7181	42.4805	71.2847	42.4805	72.7351	42.4805	71.3859	42.4805	72.7862	42.4805	71.5678	42.4805	72.8912	42.4805	71.8253	42.4805	73.059	42.4805	72.1449	42.4805	73.2807	42.4805	72.5061	42.4805	73.5301	42.4805	72.8836	42.4805	73.7701	42.4805	73.2495	42.4805	73.9634	42.4805	73.5765	42.4805	74.0797	42.4805	73.8396	42.4805	74.1002	42.4805	74.0187
43.9453	73.134	43.9453	72.9768	43.9453	73.2753	43.9453	72.8113	43.9453	73.3949	43.9453	72.6464	43.9453	73.4889	43.9453	72.4928	43.9453	73.5556	43.9453	72.3625	43.9453	73.5968	43.9453	72.2687	43.9453	73.6184	43.9453	72.2246	43.9453	73.6316	43.9453	72.2424	43.9453	73.6526	43.9453	72.3305	43.9453	73.7007	43.9453	72.4924	43.9453	73.7931	43.9453	72.7241	43.9453	73.9383	43.9453	73.0145	43.9453	74.13	43.9453	73.3452	43.9453	74.3465	43.9453	73.6933	43.9453	74.5558	43.9453	74.033	43.9453	74.7244	43.9453	74.3384	43.9453	74.8241	43.9453	74.5859	43.9453	74.837	43.9453	74.7563
45.4102	73.9131	45.4102	73.7638	45.4102	74.0502	45.4102	73.6091	45.4102	74.1694	45.4102	73.4575	45.4102	74.2671	45.4102	73.3185	45.4102	74.3415	45.4102	73.2031	45.4102	74.394	45.4102	73.1229	45.4102	74.4296	45.4102	73.0896	45.4102	74.4581	45.4102	73.1135	45.4102	74.4933	45.4102	73.2021	45.4102	74.5517	45.4102	73.358	45.4102	74.6478	45.4102	73.5781	45.4102	74.7885	45.4102	73.8523	45.4102	74.9681	45.4102	74.1645	45.4102	75.1672	45.4102	74.4937	45.4102	75.3574	45.4102	74.8164	45.4102	75.5082	45.4102	75.1084	45.4102	75.5939	45.4102	75.3472	45.4102	75.598	45.4102	75.5144
46.875	74.8405	46.875	74.7001	46.875	74.9718	46.875	74.5569	46.875	75.0894	46.875	74.4178	46.875	75.1896	46.875	74.2913	46.875	75.271	46.875	74.1865	46.875	75.3344	46.875	74.1133	46.875	75.3834	46.875	74.0818	46.875	75.4258	46.875	74.1011	46.875	75.4723	46.875	74.1779	46.875	75.536	46.875	74.3156	46.875	75.6286	46.875	74.5122	46.875	75.7556	46.875	74.7599	46.875	75.9124	46.875	75.0452	46.875	76.0832	46.875	75.3499	46.875	76.2436	46.875	75.6523	46.875	76.367	46.875	75.9299	46.875	76.4307	46.875	76.1612	46.875	76.4196	46.875	76.3284
48.3398	75.5428	48.3398	75.4047	48.3398	75.6736	48.3398	75.2646	48.3398	75.7927	48.3398	75.129	48.3398	75.8969	48.3398	75.0056	48.3398	75.9848	48.3398	74.9028	48.3398	76.0568	48.3398	74.8298	48.3398	76.1161	48.3398	74.796	48.3398	76.1689	48.3398	74.8102	48.3398	76.2246	48.3398	74.8795	48.3398	76.294	48.3398	75.0073	48.3398	76.3869	48.3398	75.1926	48.3398	76.5081	48.3398	75.4288	48.3398	76.6532	48.3398	75.7037	48.3398	76.8081	48.3398	76	48.3398	76.9506	48.3398	76.297	48.3398	77.0563	48.3398	76.5727	48.3398	77.1041	48.3398	76.806	48.3398	77.0799	48.3398	76.9791
51.2695	76.9056	51.2695	76.775	51.2695	77.0356	51.2695	76.6484	51.2695	77.1615	51.2695	76.5304	51.2695	77.28	51.2695	76.4265	51.2695	77.3892	51.2695	76.3428	51.2695	77.4878	51.2695	76.2857	51.2695	77.5766	51.2695	76.262	51.2695	77.658	51.2695	76.2779	51.2695	77.7367	51.2695	76.3388	51.2695	77.8186	51.2695	76.448	51.2695	77.9093	51.2695	76.6055	51.2695	78.0116	51.2695	76.8073	51.2695	78.1227	51.2695	77.045	51.2695	78.2328	51.2695	77.3056	51.2695	78.3263	51.2695	77.5723	51.2695	78.3854	51.2695	77.8266	51.2695	78.394	51.2695	78.0496	51.2695	78.3415	51.2695	78.2251
52.7344	77.4566	52.7344	77.329	52.7344	77.585	52.7344	77.2063	52.7344	77.711	52.7344	77.0927	52.7344	77.8314	52.7344	76.993	52.7344	77.9439	52.7344	76.9123	52.7344	78.047	52.7344	76.8565	52.7344	78.1406	52.7344	76.8312	52.7344	78.226	52.7344	76.8423	52.7344	78.3066	52.7344	76.8948	52.7344	78.3868	52.7344	76.9918	52.7344	78.4711	52.7344	77.134	52.7344	78.5616	52.7344	77.3185	52.7344	78.656	52.7344	77.5381	52.7344	78.7463	52.7344	77.7814	52.7344	78.8191	52.7344	78.0332	52.7344	78.859	52.7344	78.2763	52.7344	78.852	52.7344	78.493	52.7344	78.7889	52.7344	78.6676
54.1992	77.8169	54.1992	77.6933	54.1992	77.9431	54.1992	77.5755	54.1992	78.0684	54.1992	77.4674	54.1992	78.19	54.1992	77.3731	54.1992	78.3053	54.1992	77.2968	54.1992	78.4124	54.1992	77.2436	54.1992	78.5103	54.1992	77.2184	54.1992	78.5995	54.1992	77.2263	54.1992	78.6817	54.1992	77.2718	54.1992	78.76	54.1992	77.3579	54.1992	78.8377	54.1992	77.4856	54.1992	78.9164	54.1992	77.6528	54.1992	78.9943	54.1992	77.8537	54.1992	79.065	54.1992	78.0783	54.1992	79.1177	54.1992	78.3133	54.1992	79.1392	54.1992	78.5428	54.1992	79.1178	54.1992	78.7505	54.1992	79.0459	54.1992	78.9218
55.6641	78.15	55.6641	78.0307	55.6641	78.2727	55.6641	77.9178	55.6641	78.3957	55.6641	77.8145	55.6641	78.5163	55.6641	77.7243	55.6641	78.6318	55.6641	77.6509	55.6641	78.74	55.6641	77.5985	55.6641	78.8391	55.6641	77.5714	55.6641	78.9287	55.6641	77.574	55.6641	79.0095	55.6641	77.6104	55.6641	79.0832	55.6641	77.6838	55.6641	79.1523	55.6641	77.7954	55.6641	79.218	55.6641	77.9441	55.6641	79.2791	55.6641	78.1251	55.6641	79.3306	55.6641	78.3301	55.6641	79.3637	55.6641	78.5472	55.6641	79.3678	55.6641	78.7622	55.6641	79.3331	55.6641	78.9602	55.6641	79.2532	55.6641	79.1272
58.5938	79.0142	58.5938	78.9001	58.5938	79.1344	58.5938	78.7945	58.5938	79.2584	58.5938	78.6997	58.5938	79.3832	58.5938	78.6179	58.5938	79.5058	58.5938	78.5515	58.5938	79.6231	58.5938	78.5033	58.5938	79.7322	58.5938	78.4764	58.5938	79.8306	58.5938	78.474	58.5938	79.9167	58.5938	78.4994	58.5938	79.99	58.5938	78.5557	58.5938	80.0508	58.5938	78.6447	58.5938	80.0997	58.5938	78.7665	58.5938	80.136	58.5938	78.9186	58.5938	80.1568	58.5938	79.0951	58.5938	80.1571	58.5938	79.2873	58.5938	80.1299	58.5938	79.4833	58.5938	80.0691	58.5938	79.6704	58.5938	79.971	58.5938	79.8362
60.0586	79.4151	60.0586	79.3022	60.0586	79.5355	60.0586	79.1985	60.0586	79.6607	60.0586	79.1061	60.0586	79.7882	60.0586	79.0265	60.0586	79.9147	60.0586	78.9618	60.0586	80.0366	60.0586	78.9141	60.0586	80.1504	60.0586	78.8859	60.0586	80.2529	60.0586	78.8802	60.0586	80.3415	60.0586	78.9001	60.0586	80.4149	60.0586	78.9486	60.0586	80.4726	60.0586	79.0278	60.0586	80.5147	60.0586	79.1385	60.0586	80.5407	60.0586	79.279	60.0586	80.5487	60.0586	79.4449	60.0586	80.5347	60.0586	79.6282	60.0586	80.4934	60.0586	79.8185	60.0586	80.42	60.0586	80.0035	60.0586	80.3121	60.0586	80.1713
62.9883	80.0833	62.9883	79.9736	62.9883	80.2029	62.9883	79.8753	62.9883	80.3304	62.9883	79.7895	62.9883	80.4631	62.9883	79.7171	62.9883	80.5975	62.9883	79.6592	62.9883	80.7297	62.9883	79.6171	62.9883	80.855	62.9883	79.5925	62.9883	80.9692	62.9883	79.5875	62.9883	81.0681	62.9883	79.6048	62.9883	81.1487	62.9883	79.6471	62.9883	81.2091	62.9883	79.7169	62.9883	81.2484	62.9883	79.8157	62.9883	81.2658	62.9883	79.9429	62.9883	81.2598	62.9883	80.0957	62.9883	81.2284	62.9883	80.2681	62.9883	81.1684	62.9883	80.4511	62.9883	81.0775	62.9883	80.6339	62.9883	80.9554	62.9883	80.8053
64.4531	80.3105	64.4531	80.2015	64.4531	80.4309	64.4531	80.1052	64.4531	80.5606	64.4531	80.0224	64.4531	80.6971	64.4531	79.9536	64.4531	80.8367	64.4531	79.8996	64.4531	80.9751	64.4531	79.861	64.4531	81.1072	64.4531	79.8393	64.4531	81.2281	64.4531	79.8363	64.4531	81.333	64.4531	79.8541	64.4531	81.418	64.4531	79.8953	64.4531	81.4807	64.4531	79.9624	64.4531	81.5193	64.4531	80.057	64.4531	81.5329	64.4531	80.1792	64.4531	81.5207	64.4531	80.3267	64.4531	81.4809	64.4531	80.4944	64.4531	81.4119	64.4531	80.6742	64.4531	81.3125	64.4531	80.856	64.4531	81.1836	64.4531	81.029
67.3828	80.6493	67.3828	80.5362	67.3828	80.7756	67.3828	80.4374	67.3828	80.913	67.3828	80.3534	67.3828	81.0585	67.3828	80.2843	67.3828	81.2081	67.3828	80.2302	67.3828	81.3566	67.3828	80.1913	67.3828	81.4983	67.3828	80.168	67.3828	81.627	67.3828	80.1615	67.3828	81.7368	67.3828	80.1736	67.3828	81.8226	67.3828	80.2065	67.3828	81.8807	67.3828	80.2627	67.3828	81.909	67.3828	80.3444	67.3828	81.9065	67.3828	80.4528	67.3828	81.8733	67.3828	80.5871	67.3828	81.8094	67.3828	80.7441	67.3828	81.7157	67.3828	80.9176	67.3828	81.5934	67.3828	81.0989	67.3828	81.4457	67.3828	81.2782
68.8477	80.8533	68.8477	80.7365	68.8477	80.9834	68.8477	80.6341	68.8477	81.1247	68.8477	80.5467	68.8477	81.2739	68.8477	80.4742	68.8477	81.4266	68.8477	80.4165	68.8477	81.5775	68.8477	80.3736	68.8477	81.7204	68.8477	80.3457	68.8477	81.8488	68.8477	80.3339	68.8477	81.9564	68.8477	80.3397	68.8477	82.0378	68.8477	80.3654	68.8477	82.0892	68.8477	80.4136	68.8477	82.1081	68.8477	80.4867	68.8477	82.0938	68.8477	80.5864	68.8477	82.0469	68.8477	80.7127	68.8477	81.9686	68.8477	80.8631	68.8477	81.8606	68.8477	81.0323	68.8477	81.7257	68.8477	81.2125	68.8477	81.5681	68.8477	81.3943
71.7773	81.4539	71.7773	81.3408	71.7773	81.5804	71.7773	81.242	71.7773	81.718	71.7773	81.1576	71.7773	81.8638	71.7773	81.0874	71.7773	82.0132	71.7773	81.0309	71.7773	82.1609	71.7773	80.9875	71.7773	82.3005	71.7773	80.9571	71.7773	82.4249	71.7773	80.9402	71.7773	82.5273	71.7773	80.9379	71.7773	82.6015	71.7773	80.9521	71.7773	82.6428	71.7773	80.9853	71.7773	82.6485	71.7773	81.0403	71.7773	82.6178	71.7773	81.1194	71.7773	82.5521	71.7773	81.2238	71.7773	82.4545	71.7773	81.3527	71.7773	82.329	71.7773	81.503	71.7773	82.1808	71.7773	81.669	71.7773	82.0163	71.7773	81.8429
74.707	81.9729	74.707	81.8637	74.707	82.097	74.707	81.7699	74.707	82.2341	74.707	81.6913	74.707	82.3812	74.707	81.6271	74.707	82.5337	74.707	81.5762	74.707	82.6857	74.707	81.5374	74.707	82.8303	74.707	81.5101	74.707	82.9596	74.707	81.494	74.707	83.0656	74.707	81.4898	74.707	83.1412	74.707	81.499	74.707	83.1805	74.707	81.5239	74.707	83.1803	74.707	81.5675	74.707	83.1398	74.707	81.6326	74.707	83.0612	74.707	81.7218	74.707	82.9488	74.707	81.8357	74.707	82.8088	74.707	81.9732	74.707	82.6486	74.707	82.1302	74.707	82.4762	74.707	82.3006
77.6367	82.1396	77.6367	82.0287	77.6367	82.2666	77.6367	81.9347	77.6367	82.4078	77.6367	81.8571	77.6367	82.5597	77.6367	81.7948	77.6367	82.7173	77.6367	81.7462	77.6367	82.8741	77.6367	81.7095	77.6367	83.0226	77.6367	81.6834	77.6367	83.1543	77.6367	81.667	77.6367	83.2607	77.6367	81.6606	77.6367	83.3342	77.6367	81.6651	77.6367	83.3685	77.6367	81.6827	77.6367	83.3601	77.6367	81.7165	77.6367	83.3085	77.6367	81.7701	77.6367	83.2161	77.6367	81.8469	77.6367	83.0886	77.6367	81.9491	77.6367	82.9335	77.6367	82.077	77.6367	82.7601	77.6367	82.2283	77.6367	82.5783	77.6367	82.3979
79.1016	82.2713	79.1016	82.1609	79.1016	82.3977	79.1016	82.0673	79.1016	82.5378	79.1016	81.99	79.1016	82.6882	79.1016	81.928	79.1016	82.8438	79.1016	81.8795	79.1016	82.9981	79.1016	81.8427	79.1016	83.1435	79.1016	81.8159	79.1016	83.2717	79.1016	81.7982	79.1016	83.3743	79.1016	81.7894	79.1016	83.4436	79.1016	81.7904	79.1016	83.4733	79.1016	81.8031	79.1016	83.4599	79.1016	81.8308	79.1016	83.4026	79.1016	81.877	79.1016	83.3044	79.1016	81.9457	79.1016	83.171	79.1016	82.0397	79.1016	83.0108	79.1016	82.1601	79.1016	82.8338	79.1016	82.3055	79.1016	82.6505	79.1016	82.4713
82.0313	82.9202	82.0313	82.8095	82.0313	83.0438	82.0313	82.7126	82.0313	83.1783	82.0313	82.6293	82.0313	83.3203	82.0313	82.5583	82.0313	83.465	82.0313	82.4981	82.0313	83.6062	82.0313	82.4468	82.0313	83.7367	82.0313	82.4027	82.0313	83.8484	82.0313	82.3648	82.0313	83.9327	82.0313	82.3328	82.0313	83.9817	82.0313	82.3078	82.0313	83.9889	82.0313	82.292	82.0313	83.9504	82.0313	82.2893	82.0313	83.8657	82.0313	82.3046	82.0313	83.7383	82.0313	82.3434	82.0313	83.5756	82.0313	82.4108	82.0313	83.3882	82.0313	82.5102	82.0313	83.1886	82.0313	82.6424	82.0313	82.9899	82.0313	82.8045
84.9609	83.4405	84.9609	83.3286	84.9609	83.5619	84.9609	83.2269	84.9609	83.6912	84.9609	83.1345	84.9609	83.8252	84.9609	83.05	84.9609	83.9594	84.9609	82.9717	84.9609	84.0876	84.9609	82.8975	84.9609	84.2023	84.9609	82.826	84.9609	84.2952	84.9609	82.7564	84.9609	84.3575	84.9609	82.6889	84.9609	84.3809	84.9609	82.6256	84.9609	84.3587	84.9609	82.5699	84.9609	84.2872	84.9609	82.5274	84.9609	84.1663	84.9609	82.5049	84.9609	84.0008	84.9609	82.5101	84.9609	83.7998	84.9609	82.5506	84.9609	83.5762	84.9609	82.632	84.9609	83.3451	84.9609	82.7567	84.9609	83.1224	84.9609	82.9225
87.8906	83.3069	87.8906	83.1941	87.8906	83.436	87.8906	83.098	87.8906	83.5796	87.8906	83.0175	87.8906	83.7342	87.8906	82.951	87.8906	83.8945	87.8906	82.8958	87.8906	84.0537	87.8906	82.8496	87.8906	84.2035	87.8906	82.8101	87.8906	84.3344	87.8906	82.776	87.8906	84.4368	87.8906	82.747	87.8906	84.5011	87.8906	82.7241	87.8906	84.5197	87.8906	82.7101	87.8906	84.4877	87.8906	82.7093	87.8906	84.404	87.8906	82.7271	87.8906	84.2721	87.8906	82.7697	87.8906	84.1001	87.8906	82.8429	87.8906	83.8996	87.8906	82.9506	87.8906	83.6847	87.8906	83.0938	87.8906	83.47	87.8906	83.2694
90.8203	83.1063	90.8203	82.9941	90.8203	83.2465	90.8203	82.911	90.8203	83.4121	90.8203	82.856	90.8203	83.5988	90.8203	82.827	90.8203	83.8003	90.8203	82.8208	90.8203	84.0089	90.8203	82.8336	90.8203	84.2154	90.8203	82.8613	90.8203	84.4094	90.8203	82.9004	90.8203	84.5799	90.8203	82.9482	90.8203	84.7159	90.8203	83.0033	90.8203	84.8078	90.8203	83.0657	90.8203	84.8483	90.8203	83.137	90.8203	84.8341	90.8203	83.2202	90.8203	84.766	90.8203	83.3193	90.8203	84.6495	90.8203	83.438	90.8203	84.4943	90.8203	83.579	90.8203	84.3126	90.8203	83.7424	90.8203	84.1184	90.8203	83.9247
95.2148	84.0539	95.2148	83.9322	95.2148	84.1869	95.2148	83.8229	95.2148	84.3286	95.2148	83.7261	95.2148	84.4753	95.2148	83.6406	95.2148	84.6222	95.2148	83.5643	95.2148	84.7631	95.2148	83.495	95.2148	84.8907	95.2148	83.43	95.2148	84.9965	95.2148	83.3676	95.2148	85.0713	95.2148	83.3068	95.2148	85.1055	95.2148	83.2483	95.2148	85.091	95.2148	83.1948	95.2148	85.0218	95.2148	83.151	95.2148	84.8963	95.2148	83.1241	95.2148	84.7184	95.2148	83.1227	95.2148	84.4978	95.2148	83.1563	95.2148	84.2499	95.2148	83.2332	95.2148	83.9935	95.2148	83.3586	95.2148	83.7485	95.2148	83.5325
98.1445	84.0494	98.1445	83.9299	98.1445	84.1822	98.1445	83.825	98.1445	84.3256	98.1445	83.7347	98.1445	84.476	98.1445	83.6579	98.1445	84.6283	98.1445	83.5924	98.1445	84.7764	98.1445	83.5353	98.1445	84.9128	98.1445	83.4838	98.1445	85.0287	98.1445	83.4355	98.1445	85.1146	98.1445	83.3888	98.1445	85.1605	98.1445	83.344	98.1445	85.1577	98.1445	83.3031	98.1445	85.0999	98.1445	83.2704	98.1445	84.9851	98.1445	83.2526	98.1445	84.8172	98.1445	83.258	98.1445	84.6058	98.1445	83.2956	98.1445	84.3663	98.1445	83.3739	98.1445	84.1176	98.1445	83.4982	98.1445	83.8792	98.1445	83.6686
101.074	84.221	101.074	84.0953	101.074	84.3604	101.074	83.9853	101.074	84.5104	101.074	83.8913	101.074	84.667	101.074	83.8128	101.074	84.825	101.074	83.7479	101.074	84.9782	101.074	83.6939	101.074	85.1194	101.074	83.6479	101.074	85.2401	101.074	83.6072	101.074	85.3309	101.074	83.5701	101.074	85.3822	101.074	83.5362	101.074	85.3849	101.074	83.507	101.074	85.3329	101.074	83.4861	101.074	85.2238	101.074	83.4796	101.074	85.061	101.074	83.495	101.074	84.8543	101.074	83.541	101.074	84.6186	101.074	83.6254	101.074	84.3727	101.074	83.7535	101.074	84.136	101.074	83.9256
105.469	84.2788	105.469	84.1469	105.469	84.4196	105.469	84.0266	105.469	84.5655	105.469	83.9199	105.469	84.7122	105.469	83.8275	105.469	84.855	105.469	83.7486	105.469	84.9886	105.469	83.6818	105.469	85.1072	105.469	83.6248	105.469	85.2042	105.469	83.5753	105.469	85.2718	105.469	83.5318	105.469	85.302	105.469	83.4935	105.469	85.2874	105.469	83.4617	105.469	85.2225	105.469	83.4391	105.469	85.1054	105.469	83.4308	105.469	84.9398	105.469	83.4436	105.469	84.7347	105.469	83.4852	105.469	84.5048	105.469	83.5628	105.469	84.2678	105.469	83.6818	105.469	84.042	105.469	83.8431
108.398	84.4638	108.398	84.3281	108.398	84.6052	108.398	84.2009	108.398	84.7486	108.398	84.0845	108.398	84.89	108.398	83.9799	108.398	85.0249	108.398	83.8874	108.398	85.1486	108.398	83.806	108.398	85.2553	108.398	83.7342	108.398	85.3388	108.398	83.6705	108.398	85.3917	108.398	83.6134	108.398	85.4064	108.398	83.5628	108.398	85.3757	108.398	83.5196	108.398	85.2948	108.398	83.4868	108.398	85.1622	108.398	83.4691	108.398	84.9822	108.398	83.4732	108.398	84.7646	108.398	83.507	108.398	84.5245	108.398	83.5781	108.398	84.2803	108.398	83.6923	108.398	84.0506	108.398	83.8511
112.793	84.909	112.793	84.777	112.793	85.0452	112.793	84.6517	112.793	85.182	112.793	84.5349	112.793	85.3157	112.793	84.4273	112.793	85.4419	112.793	84.3285	112.793	85.5559	112.793	84.2374	112.793	85.6522	112.793	84.1522	112.793	85.7241	112.793	84.0711	112.793	85.7642	112.793	83.993	112.793	85.7644	112.793	83.9181	112.793	85.7173	112.793	83.8481	112.793	85.6174	112.793	83.787	112.793	85.4637	112.793	83.741	112.793	85.2607	112.793	83.7187	112.793	85.0194	112.793	83.7296	112.793	84.7568	112.793	83.7834	112.793	84.4934	112.793	83.8874	112.793	84.25	112.793	84.0442
117.188	84.9799	117.188	84.8467	117.188	85.1167	117.188	84.7204	117.188	85.2535	117.188	84.6031	117.188	85.3863	117.188	84.4961	117.188	85.5107	117.188	84.3993	117.188	85.6219	117.188	84.3117	117.188	85.7147	117.188	84.2317	117.188	85.7829	117.188	84.1573	117.188	85.8194	117.188	84.0871	117.188	85.8165	117.188	84.0207	117.188	85.7674	117.188	83.9592	117.188	85.667	117.188	83.9059	117.188	85.5148	117.188	83.8661	117.188	85.3158	117.188	83.8474	117.188	85.0812	117.188	83.8586	117.188	84.828	117.188	83.9089	117.188	84.5762	117.188	84.0056	117.188	84.3455	117.188	84.1521
120.117	85.0503	120.117	84.9144	120.117	85.1896	120.117	84.785	120.117	85.3285	120.117	84.6644	120.117	85.4631	120.117	84.5536	120.117	85.589	120.117	84.4528	120.117	85.7013	120.117	84.3607	120.117	85.7947	120.117	84.2758	120.117	85.8624	120.117	84.1961	120.117	85.8971	120.117	84.1201	120.117	85.8906	120.117	84.0475	120.117	85.8352	120.117	83.9795	120.117	85.7259	120.117	83.9191	120.117	85.5621	120.117	83.8721	120.117	85.3493	120.117	83.8461	120.117	85.1002	120.117	83.8505	120.117	84.8332	120.117	83.8952	120.117	84.57	120.117	83.9884	120.117	84.3316	120.117	84.1346
124.512	85.1116	124.512	84.9718	124.512	85.2544	124.512	84.8389	124.512	85.3959	124.512	84.7158	124.512	85.5317	124.512	84.6039	124.512	85.6576	124.512	84.5033	124.512	85.7695	124.512	84.4128	124.512	85.8628	124.512	84.3303	124.512	85.9324	124.512	84.2533	124.512	85.9715	124.512	84.18	124.512	85.9724	124.512	84.1098	124.512	85.927	124.512	84.0437	124.512	85.8288	124.512	83.9853	124.512	85.6755	124.512	83.9406	124.512	85.4709	124.512	83.918	124.512	85.226	124.512	83.9275	124.512	84.9587	124.512	83.9791	124.512	84.6907	124.512	84.0812	124.512	84.4442	124.512	84.2373
128.906	85.0492	128.906	84.9046	128.906	85.1901	128.906	84.7607	128.906	85.3226	128.906	84.6213	128.906	85.4426	128.906	84.489	128.906	85.5465	128.906	84.3651	128.906	85.6312	128.906	84.2493	128.906	85.6934	128.906	84.1403	128.906	85.7295	128.906	84.0366	128.906	85.7343	128.906	83.9367	128.906	85.7015	128.906	83.8407	128.906	85.6245	128.906	83.7501	128.906	85.498	128.906	83.6691	128.906	85.3203	128.906	83.6041	128.906	85.096	128.906	83.5638	128.906	84.8366	128.906	83.5583	128.906	84.5599	128.906	83.5977	128.906	84.2878	128.906	83.69	128.906	84.0417	128.906	83.8389
133.301	85.2407	133.301	85.094	133.301	85.3829	133.301	84.9465	133.301	85.5167	133.301	84.8013	133.301	85.6383	133.301	84.6605	133.301	85.7442	133.301	84.5248	133.301	85.831	133.301	84.3939	133.301	85.8944	133.301	84.2666	133.301	85.9295	133.301	84.1415	133.301	85.9294	133.301	84.0179	133.301	85.8862	133.301	83.8963	133.301	85.7917	133.301	83.7792	133.301	85.6399	133.301	83.6715	133.301	85.4297	133.301	83.5808	133.301	85.1672	133.301	83.5172	133.301	84.8669	133.301	83.4921	133.301	84.5508	133.301	83.5175	133.301	84.2446	133.301	83.6037	133.301	83.9733	133.301	83.7561
139.16	85.0191	139.16	84.8702	139.16	85.1676	139.16	84.7256	139.16	85.3105	139.16	84.5893	139.16	85.4437	139.16	84.4638	139.16	85.5636	139.16	84.3497	139.16	85.6673	139.16	84.2458	139.16	85.7519	139.16	84.1496	139.16	85.8133	139.16	84.0581	139.16	85.8455	139.16	83.969	139.16	85.84	139.16	83.8814	139.16	85.7873	139.16	83.7966	139.16	85.6788	139.16	83.7191	139.16	85.5102	139.16	83.656	139.16	85.2844	139.16	83.6172	139.16	85.0134	139.16	83.6143	139.16	84.7172	139.16	83.6594	139.16	84.421	139.16	83.762	139.16	84.1507	139.16	83.9269
143.555	84.8852	143.555	84.7237	143.555	85.044	143.555	84.566	143.555	85.1939	143.555	84.4178	143.555	85.33	143.555	84.2836	143.555	85.4489	143.555	84.1653	143.555	85.5484	143.555	84.0627	143.555	85.6269	143.555	83.9733	143.555	85.6823	143.555	83.894	143.555	85.7104	143.555	83.8216	143.555	85.7046	143.555	83.754	143.555	85.6566	143.555	83.6916	143.555	85.5582	143.555	83.6372	143.555	85.4048	143.555	83.5966	143.555	85.1981	143.555	83.5785	143.555	84.9483	143.555	83.593	143.555	84.6732	143.555	83.6505	143.555	84.3958	143.555	83.7594	143.555	84.1396	143.555	83.9235
147.949	84.8779	147.949	84.6938	147.949	85.0511	147.949	84.5062	147.949	85.2068	147.949	84.323	147.949	85.3404	147.949	84.1511	147.949	85.4492	147.949	83.9953	147.949	85.5324	147.949	83.8583	147.949	85.59	147.949	83.7401	147.949	85.6218	147.949	83.6393	147.949	85.6255	147.949	83.5538	147.949	85.5967	147.949	83.482	147.949	85.5286	147.949	83.4235	147.949	85.4145	147.949	83.3805	147.949	85.2505	147.949	83.3573	147.949	85.0387	147.949	83.36	147.949	84.7885	147.949	83.3962	147.949	84.5164	147.949	83.4733	147.949	84.243	147.949	83.5973	147.949	83.9888	147.949	83.7702
153.809	85.0736	153.809	84.8923	153.809	85.2354	153.809	84.6983	153.809	85.372	153.809	84.4987	153.809	85.4795	153.809	84.2999	153.809	85.5557	153.809	84.1069	153.809	85.6001	153.809	83.9232	153.809	85.613	153.809	83.7502	153.809	85.5945	153.809	83.5882	153.809	85.5434	153.809	83.4374	153.809	85.456	153.809	83.2982	153.809	85.3271	153.809	83.1731	153.809	85.1518	153.809	83.0666	153.809	84.928	153.809	82.9852	153.809	84.6602	153.809	82.9375	153.809	84.3605	153.809	82.9327	153.809	84.0479	153.809	82.9795	153.809	83.745	153.809	83.0844	153.809	83.4734	153.809	83.25
159.668	85.2154	159.668	85.0282	159.668	85.3855	159.668	84.8312	159.668	85.5326	159.668	84.6314	159.668	85.6518	159.668	84.4351	159.668	85.7401	159.668	84.247	159.668	85.7958	159.668	84.0696	159.668	85.8179	159.668	83.9036	159.668	85.8053	159.668	83.7484	159.668	85.7551	159.668	83.6027	159.668	85.6631	159.668	83.4665	159.668	85.5237	159.668	83.3412	159.668	85.3325	159.668	83.2309	159.668	85.0892	159.668	83.1421	159.668	84.8005	159.668	83.0838	159.668	84.4812	159.668	83.0659	159.668	84.153	159.668	83.0988	159.668	83.8405	159.668	83.1909	159.668	83.5663	159.668	83.347
165.527	85.0544	165.527	84.8789	165.527	85.2125	165.527	84.6932	165.527	85.3477	165.527	84.5045	165.527	85.4564	165.527	84.3197	165.527	85.537	165.527	84.1438	165.527	85.5902	165.527	83.98	165.527	85.6174	165.527	83.8292	165.527	85.619	165.527	83.6912	165.527	85.593	165.527	83.5651	165.527	85.5342	165.527	83.4508	165.527	85.4347	165.527	83.3497	165.527	85.2868	165.527	83.2655	165.527	85.0871	165.527	83.2042	165.527	84.8396	165.527	83.1731	165.527	84.5572	165.527	83.1804	165.527	84.2601	165.527	83.2338	165.527	83.9716	165.527	83.3392	165.527	83.713	165.527	83.4995
171.387	84.9326	171.387	84.7503	171.387	85.0942	171.387	84.5554	171.387	85.2286	171.387	84.3566	171.387	85.3319	171.387	84.1617	171.387	85.403	171.387	83.9767	171.387	85.4432	171.387	83.8053	171.387	85.4553	171.387	83.6492	171.387	85.4418	171.387	83.5081	171.387	85.4027	171.387	83.3819	171.387	85.3344	171.387	83.2706	171.387	85.2304	171.387	83.1762	171.387	85.0837	171.387	83.1023	171.387	84.8906	171.387	83.0543	171.387	84.6548	171.387	83.0381	171.387	84.3882	171.387	83.0598	171.387	84.1094	171.387	83.1241	171.387	83.8393	171.387	83.2345	171.387	83.5961	171.387	83.3924
177.246	84.7992	177.246	84.617	177.246	84.9581	177.246	84.4203	177.246	85.087	177.246	84.2187	177.246	85.1821	177.246	84.0212	177.246	85.2429	177.246	83.8345	177.246	85.2719	177.246	83.6627	177.246	85.2733	177.246	83.507	177.246	85.2506	177.246	83.3667	177.246	85.2048	177.246	83.2408	177.246	85.1325	177.246	83.1288	177.246	85.0266	177.246	83.0324	177.246	84.879	177.246	82.9554	177.246	84.6852	177.246	82.9034	177.246	84.4488	177.246	82.8829	177.246	84.1823	177.246	82.8995	177.246	83.9055	177.246	82.9577	177.246	83.6403	177.246	83.0607	177.246	83.4047	177.246	83.2099
183.105	84.6496	183.105	84.4539	183.105	84.816	183.105	84.239	183.105	84.9461	183.105	84.0165	183.105	85.0365	183.105	83.7977	183.105	85.0876	183.105	83.5924	183.105	85.1029	183.105	83.4068	183.105	85.0879	183.105	83.2435	183.105	85.048	183.105	83.102	183.105	84.9855	183.105	82.9797	183.105	84.8984	183.105	82.8745	183.105	84.7806	183.105	82.7857	183.105	84.6245	183.105	82.715	183.105	84.4254	183.105	82.6667	183.105	84.1866	183.105	82.6467	183.105	83.92	183.105	82.6612	183.105	83.6448	183.105	82.7156	183.105	83.3822	183.105	82.814	183.105	83.1498	183.105	82.9588
188.965	84.707	188.965	84.4899	188.965	84.8836	188.965	84.2412	188.965	85.0136	188.965	83.9723	188.965	85.0946	188.965	83.6954	188.965	85.1276	188.965	83.4225	188.965	85.117	188.965	83.164	188.965	85.0694	188.965	82.928	188.965	84.9915	188.965	82.7197	188.965	84.888	188.965	82.5421	188.965	84.7593	188.965	82.397	188.965	84.6017	188.965	82.2859	188.965	84.4094	188.965	82.2109	188.965	84.1795	188.965	82.1742	188.965	83.9158	188.965	82.178	188.965	83.6303	188.965	82.2235	188.965	83.3408	188.965	82.311	188.965	83.0657	188.965	82.4399	188.965	82.8194	188.965	82.6097
196.289	84.7694	196.289	84.5685	196.289	84.9319	196.289	84.3386	196.289	85.0497	196.289	84.0903	196.289	85.1194	196.289	83.8345	196.289	85.142	196.289	83.5813	196.289	85.1214	196.289	83.3388	196.289	85.0645	196.289	83.1131	196.289	84.9781	196.289	82.9086	196.289	84.8671	196.289	82.7285	196.289	84.7323	196.289	82.5759	196.289	84.5705	196.289	82.4546	196.289	84.3776	196.289	82.3688	196.289	84.1528	196.289	82.3229	196.289	83.9016	196.289	82.3199	196.289	83.6365	196.289	82.3606	196.289	83.3738	196.289	82.443	196.289	83.1279	196.289	82.5638	196.289	82.9083	196.289	82.7197
203.613	84.669	203.613	84.4565	203.613	84.8336	203.613	84.2065	203.613	84.943	203.613	83.9322	203.613	84.9942	203.613	83.6472	203.613	84.9889	203.613	83.3645	203.613	84.9334	203.613	83.0954	203.613	84.8372	203.613	82.8484	203.613	84.7108	203.613	82.6294	203.613	84.5622	203.613	82.4425	203.613	84.3941	203.613	82.2907	203.613	84.2036	203.613	82.1769	203.613	83.986	203.613	82.1032	203.613	83.7406	203.613	82.0708	203.613	83.476	203.613	82.0786	203.613	83.2093	203.613	82.1227	203.613	82.9608	203.613	82.1972	203.613	82.7448	203.613	82.2963	203.613	82.5653	203.613	82.418
210.938	84.6955	210.938	84.4703	210.938	84.8705	210.938	84.2049	210.938	84.9881	210.938	83.9109	210.938	85.0445	210.938	83.6002	210.938	85.0403	210.938	83.284	210.938	84.98	210.938	82.9723	210.938	84.8715	210.938	82.673	210.938	84.7243	210.938	82.3938	210.938	84.5463	210.938	82.142	210.938	84.3417	210.938	81.9256	210.938	84.1098	210.938	81.7537	210.938	83.8482	210.938	81.6346	210.938	83.5578	210.938	81.5739	210.938	83.248	210.938	81.5718	210.938	82.9369	210.938	81.6225	210.938	82.6458	210.938	81.716	210.938	82.3902	210.938	81.8417	210.938	82.1746	210.938	81.994
218.262	84.5705	218.262	84.3429	218.262	84.7475	218.262	84.0764	218.262	84.8655	218.262	83.7843	218.262	84.9204	218.262	83.4799	218.262	84.9134	218.262	83.1751	218.262	84.8501	218.262	82.8793	218.262	84.7404	218.262	82.5997	218.262	84.5956	218.262	82.3419	218.262	84.4253	218.262	82.1112	218.262	84.234	218.262	81.9141	218.262	84.0204	218.262	81.7585	218.262	83.781	218.262	81.6525	218.262	83.5154	218.262	81.6022	218.262	83.2315	218.262	81.6089	218.262	82.9458	218.262	81.6675	218.262	82.677	218.262	81.7682	218.262	82.4383	218.262	81.8997	218.262	82.2324	218.262	82.0546
225.586	84.6359	225.586	84.3947	225.586	84.8128	225.586	84.1018	225.586	84.917	225.586	83.7734	225.586	84.9454	225.586	83.4267	225.586	84.9008	225.586	83.0784	225.586	84.7915	225.586	82.7431	225.586	84.6306	225.586	82.4321	225.586	84.4334	225.586	82.1546	225.586	84.2138	225.586	81.918	225.586	83.9807	225.586	81.7299	225.586	83.7365	225.586	81.598	225.586	83.4808	225.586	81.5287	225.586	83.2171	225.586	81.5243	225.586	82.9571	225.586	81.5798	225.586	82.7187	225.586	81.682	225.586	82.5166	225.586	81.8119	225.586	82.3526	225.586	81.9501	225.586	82.2144	225.586	82.0843
232.91	84.949	232.91	84.7199	232.91	85.1144	232.91	84.4382	232.91	85.2086	232.91	84.1167	232.91	85.2279	232.91	83.7694	232.91	85.1728	232.91	83.4095	232.91	85.0486	232.91	83.049	232.91	84.8651	232.91	82.6981	232.91	84.6346	232.91	82.3664	232.91	84.3693	232.91	82.064	232.91	84.0776	232.91	81.8027	232.91	83.7621	232.91	81.5954	232.91	83.4232	232.91	81.454	232.91	83.0663	232.91	81.3846	232.91	82.7099	232.91	81.3834	232.91	82.3847	232.91	81.4354	232.91	82.1207	232.91	81.518	232.91	81.9302	232.91	81.61	232.91	81.7998	232.91	81.7012
241.699	84.6357	241.699	84.3885	241.699	84.8231	241.699	84.0954	241.699	84.9404	241.699	83.772	241.699	84.9823	241.699	83.4338	241.699	84.9489	241.699	83.0939	241.699	84.8452	241.699	82.761	241.699	84.6812	241.699	82.4405	241.699	84.4692	241.699	82.136	241.699	84.2205	241.699	81.8526	241.699	83.9419	241.699	81.5995	241.699	83.6344	241.699	81.3904	241.699	83.2972	241.699	81.2407	241.699	82.9356	241.699	81.1618	241.699	82.5687	241.699	81.1542	241.699	82.2285	241.699	81.2047	241.699	81.9477	241.699	81.2903	241.699	81.7409	241.699	81.3882	241.699	81.5968	241.699	81.4876
250.488	84.6913	250.488	84.3899	250.488	84.9164	250.488	84.0272	250.488	85.0558	250.488	83.6228	250.488	85.1062	250.488	83.1993	250.488	85.0695	250.488	82.7786	250.488	84.953	250.488	82.3791	250.488	84.7678	250.488	82.0119	250.488	84.5268	250.488	81.6814	250.488	84.2414	250.488	81.3877	250.488	83.9176	250.488	81.1316	250.488	83.556	250.488	80.9184	250.488	83.1554	250.488	80.7591	250.488	82.7221	250.488	80.666	250.488	82.2788	250.488	80.6441	250.488	81.8649	250.488	80.6854	250.488	81.5223	250.488	80.7688	250.488	81.272	250.488	80.8704	250.488	81.1018	250.488	80.9781
259.277	84.8879	259.277	84.6494	259.277	85.0516	259.277	84.3463	259.277	85.1353	259.277	83.9927	259.277	85.1389	259.277	83.6056	259.277	85.0676	259.277	83.2028	259.277	84.9316	259.277	82.8011	259.277	84.7453	259.277	82.4149	259.277	84.5243	259.277	82.0552	259.277	84.2808	259.277	81.7305	259.277	84.0189	259.277	81.4483	259.277	83.7326	259.277	81.2166	259.277	83.4098	259.277	81.0444	259.277	83.0439	259.277	80.9395	259.277	82.6441	259.277	80.9034	259.277	82.2407	259.277	80.9278	259.277	81.8755	259.277	80.9963	259.277	81.5818	259.277	81.0926	259.277	81.3666	259.277	81.2117
268.066	84.397	268.066	84.1119	268.066	84.6081	268.066	83.7695	268.066	84.7344	268.066	83.3903	268.066	84.7723	268.066	82.9965	268.066	84.725	268.066	82.6081	268.066	84.6029	268.066	82.2404	268.066	84.4214	268.066	81.9033	268.066	84.1974	268.066	81.6017	268.066	83.9432	268.066	81.3385	268.066	83.6621	268.066	81.1169	268.066	83.3474	268.066	80.9416	268.066	82.9896	268.066	80.8187	268.066	82.5892	268.066	80.7522	268.066	82.1676	268.066	80.7399	268.066	81.7675	268.066	80.7708	268.066	81.4368	268.066	80.8271	268.066	81.2022	268.066	80.8927	268.066	81.0555	268.066	80.9634
276.855	84.6505	276.855	84.3794	276.855	84.8213	276.855	84.0188	276.855	84.8888	276.855	83.587	276.855	84.8579	276.855	83.1083	276.855	84.7414	276.855	82.6108	276.855	84.5594	276.855	82.1223	276.855	84.3373	276.855	81.6672	276.855	84.1004	276.855	81.2648	276.855	83.8654	276.855	80.9306	276.855	83.6329	276.855	80.678	276.855	83.3875	276.855	80.5182	276.855	83.1082	276.855	80.456	276.855	82.7837	276.855	80.4848	276.855	82.4249	276.855	80.5839	276.855	82.0647	276.855	80.7235	276.855	81.744	276.855	80.8742	276.855	81.4897	276.855	81.0176	276.855	81.3009	276.855	81.1536
287.109	84.771	287.109	84.5105	287.109	84.9261	287.109	84.1564	287.109	84.9696	287.109	83.7255	287.109	84.9021	287.109	83.2389	287.109	84.7319	287.109	82.7202	287.109	84.4761	287.109	82.1938	287.109	84.161	287.109	81.682	287.109	83.8201	287.109	81.2045	287.109	83.4866	287.109	80.78	287.109	83.1827	287.109	80.4303	287.109	82.9119	287.109	80.182	287.109	82.6613	287.109	80.0626	287.109	82.4157	287.109	80.0864	287.109	82.1715	287.109	80.2408	287.109	81.9403	287.109	80.4838	287.109	81.7377	287.109	80.7591	287.109	81.5663	287.109	81.0177	287.109	81.4082	287.109	81.2333
297.363	84.9395	297.363	84.6753	297.363	85.0982	297.363	84.3161	297.363	85.1455	297.363	83.878	297.363	85.0804	297.363	83.3809	297.363	84.9071	297.363	82.8479	297.363	84.6357	297.363	82.3013	297.363	84.2839	297.363	81.7605	297.363	83.877	297.363	81.2394	297.363	83.4443	297.363	80.7488	297.363	83.012	297.363	80.3031	297.363	82.5961	297.363	79.9285	297.363	82.2048	297.363	79.6661	297.363	81.8507	297.363	79.5614	297.363	81.5587	297.363	79.6376	297.363	81.3521	297.363	79.8719	297.363	81.2253	297.363	80.1976	297.363	81.1326	297.363	80.5337	297.363	81.0114	297.363	80.8151
307.617	84.8317	307.617	84.5669	307.617	85.0022	307.617	84.2164	307.617	85.0738	307.617	83.7926	307.617	85.0465	307.617	83.3118	307.617	84.9253	307.617	82.794	307.617	84.7207	307.617	82.2628	307.617	84.4485	307.617	81.7441	307.617	84.1267	307.617	81.2637	307.617	83.7693	307.617	80.8432	307.617	83.3792	307.617	80.4983	307.617	82.9449	307.617	80.2386	307.617	82.4509	307.617	80.0702	307.617	81.901	307.617	79.9958	307.617	81.3436	307.617	80.0108	307.617	80.8701	307.617	80.096	307.617	80.565	307.617	80.2154	307.617	80.436	307.617	80.3241	307.617	80.408	307.617	80.3882
319.336	84.8397	319.336	84.5939	319.336	84.9761	319.336	84.2498	319.336	84.9979	319.336	83.8232	319.336	84.9073	319.336	83.3333	319.336	84.7136	319.336	82.801	319.336	84.4342	319.336	82.248	319.336	84.0941	319.336	81.697	319.336	83.7233	319.336	81.1731	319.336	83.3504	319.336	80.705	319.336	82.9934	319.336	80.3265	319.336	82.6518	319.336	80.0726	319.336	82.3107	319.336	79.9697	319.336	81.958	319.336	80.0209	319.336	81.606	319.336	80.196	319.336	81.2988	319.336	80.436	319.336	81.0894	319.336	80.6722	319.336	80.9939	319.336	80.8487	319.336	80.9695	319.336	80.9413
329.59	84.8819	329.59	84.6305	329.59	85.0248	329.59	84.2832	329.59	85.0529	329.59	83.8568	329.59	84.9667	329.59	83.37	329.59	84.7744	329.59	82.8411	329.59	84.492	329.59	82.2864	329.59	84.1426	329.59	81.721	329.59	83.7519	329.59	81.1617	329.59	83.3408	329.59	80.6326	329.59	82.9163	329.59	80.1697	329.59	82.4698	329.59	79.8227	329.59	81.9916	329.59	79.6427	329.59	81.4962	329.59	79.6569	329.59	81.0422	329.59	79.8423	329.59	80.7175	329.59	80.1256	329.59	80.5801	329.59	80.4118	329.59	80.6008	329.59	80.6199	329.59	80.6787	329.59	80.7063
341.309	84.3375	341.309	84.0753	341.309	84.4932	341.309	83.7254	341.309	84.5325	341.309	83.3126	341.309	84.4556	341.309	82.8633	341.309	84.2732	341.309	82.3985	341.309	84.007	341.309	81.9301	341.309	83.6883	341.309	81.461	341.309	83.3526	341.309	80.9907	341.309	83.026	341.309	80.5256	341.309	82.7106	341.309	80.0892	341.309	82.3798	341.309	79.7293	341.309	81.9968	341.309	79.5099	341.309	81.5499	341.309	79.483	341.309	81.0851	341.309	79.6485	341.309	80.7054	341.309	79.9394	341.309	80.5081	341.309	80.2505	341.309	80.4953	341.309	80.4844	341.309	80.5639	341.309	80.5863
353.027	84.6856	353.027	84.3679	353.027	84.8576	353.027	83.9189	353.027	84.8797	353.027	83.3641	353.027	84.757	353.027	82.7397	353.027	84.5034	353.027	82.0884	353.027	84.1422	353.027	81.4522	353.027	83.7065	353.027	80.8623	353.027	83.2374	353.027	80.332	353.027	82.7732	353.027	79.8613	353.027	82.3329	353.027	79.4521	353.027	81.9033	353.027	79.1279	353.027	81.4501	353.027	78.9397	353.027	80.9534	353.027	78.9424	353.027	80.4488	353.027	79.1447	353.027	80.0401	353.027	79.4763	353.027	79.8421	353.027	79.8145	353.027	79.8713	353.027	80.0441	353.027	80.0115	353.027	80.1038
366.211	85.1567	366.211	84.8368	366.211	85.3237	366.211	84.3768	366.211	85.3332	366.211	83.7981	366.211	85.1881	366.211	83.1311	366.211	84.9003	366.211	82.4141	366.211	84.4935	366.211	81.6892	366.211	84.0067	366.211	80.9941	366.211	83.4928	366.211	80.3531	366.211	83.0049	366.211	79.7733	366.211	82.5681	366.211	79.2531	366.211	82.1546	366.211	78.8014	366.211	81.6914	366.211	78.456	366.211	81.1068	366.211	78.2764	366.211	80.3912	366.211	78.2989	366.211	79.6464	366.211	78.4835	366.211	79.0698	366.211	78.7169	366.211	78.8126	366.211	78.8755	366.211	78.8207	366.211	78.8957
379.395	85.4326	379.395	85.1695	379.395	85.5603	379.395	84.7815	379.395	85.5494	379.395	84.2862	379.395	85.4034	379.395	83.7078	379.395	85.1329	379.395	83.0747	379.395	84.7573	379.395	82.4176	379.395	84.3078	379.395	81.7652	379.395	83.8274	379.395	81.1414	379.395	83.3624	379.395	80.5639	379.395	82.9417	379.395	80.0482	379.395	82.5577	379.395	79.618	379.395	82.1722	379.395	79.3114	379.395	81.751	379.395	79.1722	379.395	81.3026	379.395	79.2191	379.395	80.8852	379.395	79.4173	379.395	80.5686	379.395	79.6856	379.395	80.3738	379.395	79.9386	379.395	80.2524	379.395	80.1259
392.578	85.2035	392.578	84.9455	392.578	85.3274	392.578	84.5625	392.578	85.3166	392.578	84.0715	392.578	85.1767	392.578	83.4963	392.578	84.9199	392.578	82.8641	392.578	84.5669	392.578	82.2011	392.578	84.1496	392.578	81.5305	392.578	83.7107	392.578	80.8716	392.578	83.2937	392.578	80.2437	392.578	82.9186	392.578	79.6743	392.578	82.5623	392.578	79.2107	392.578	82.1665	392.578	78.9247	392.578	81.6841	392.578	78.888	392.578	81.1389	392.578	79.1155	392.578	80.6562	392.578	79.5269	392.578	80.3932	392.578	79.9777	392.578	80.3813	392.578	80.3278	392.578	80.4766	392.578	80.4937
405.762	85.2355	405.762	84.8556	405.762	85.4409	405.762	84.32	405.762	85.4642	405.762	83.6614	405.762	85.3081	405.762	82.9296	405.762	84.9885	405.762	82.1881	405.762	84.5407	405.762	81.5	405.762	84.0252	405.762	80.9052	405.762	83.5231	405.762	80.4038	405.762	83.1082	405.762	79.964	405.762	82.7973	405.762	79.5511	405.762	82.5247	405.762	79.163	405.762	82.1782	405.762	78.8533	405.762	81.675	405.762	78.7202	405.762	81.0305	405.762	78.8383	405.762	80.3932	405.762	79.1749	405.762	79.9828	405.762	79.587	405.762	79.895	405.762	79.9097	405.762	79.9902	405.762	80.0415
420.41	86.6215	420.41	86.2832	420.41	86.7857	420.41	85.7762	420.41	86.7714	420.41	85.1071	420.41	86.5778	420.41	84.2858	420.41	86.2092	420.41	83.335	420.41	85.68	420.41	82.3035	420.41	85.0234	420.41	81.2799	420.41	84.3053	420.41	80.3836	420.41	83.627	420.41	79.7152	420.41	83.087	420.41	79.2932	420.41	82.6992	420.41	79.0529	420.41	82.3532	420.41	78.9182	420.41	81.8893	420.41	78.8645	420.41	81.2194	420.41	78.9176	420.41	80.418	420.41	79.0911	420.41	79.7339	420.41	79.3244	420.41	79.4143	420.41	79.4988	420.41	79.4293	420.41	79.5236
435.059	86.1317	435.059	85.907	435.059	86.197	435.059	85.5328	435.059	86.1017	435.059	85.0253	435.059	85.8517	435.059	84.4032	435.059	85.4586	435.059	83.6844	435.059	84.9402	435.059	82.8888	435.059	84.3283	435.059	82.0492	435.059	83.6834	435.059	81.2256	435.059	83.1034	435.059	80.5095	435.059	82.6931	435.059	80.0007	435.059	82.4842	435.059	79.7575	435.059	82.3865	435.059	79.7633	435.059	82.2492	435.059	79.9453	435.059	81.9719	435.059	80.2167	435.059	81.5703	435.059	80.4987	435.059	81.1692	435.059	80.7242	435.059	80.914	435.059	80.8463	435.059	80.8435	435.059	80.8631
451.172	86.7805	451.172	86.5971	451.172	86.7821	451.172	86.2316	451.172	86.6069	451.172	85.6892	451.172	86.2629	451.172	84.9815	451.172	85.7596	451.172	84.1264	451.172	85.1092	451.172	83.151	451.172	84.3322	451.172	82.0961	451.172	83.4714	451.172	81.0247	451.172	82.6111	451.172	80.0326	451.172	81.8782	451.172	79.254	451.172	81.3836	451.172	78.8362	451.172	81.1184	451.172	78.8626	451.172	80.9501	451.172	79.2745	451.172	80.7591	451.172	79.8924	451.172	80.5638	451.172	80.515	451.172	80.5032	451.172	80.9886	451.172	80.6674	451.172	81.224	451.172	80.9632	451.172	81.1975
465.82	86.3016	465.82	86.1814	465.82	86.2595	465.82	85.9018	465.82	86.0597	465.82	85.4714	465.82	85.7137	465.82	84.9008	465.82	85.238	465.82	84.1999	465.82	84.6502	465.82	83.3799	465.82	83.969	465.82	82.4603	465.82	83.2221	465.82	81.4798	465.82	82.4609	465.82	80.506	465.82	81.7671	465.82	79.6424	465.82	81.223	465.82	79.0216	465.82	80.8512	465.82	78.7658	465.82	80.5904	465.82	78.9092	465.82	80.3596	465.82	79.3451	465.82	80.1455	465.82	79.8735	465.82	80.0245	465.82	80.3024	465.82	80.0804	465.82	80.5124	465.82	80.2826	465.82	80.4797
483.398	85.85	483.398	85.7404	483.398	85.8192	483.398	85.4947	483.398	85.6534	483.398	85.1207	483.398	85.3679	483.398	84.6243	483.398	84.9819	483.398	84.0066	483.398	84.5099	483.398	83.2665	483.398	83.9588	483.398	82.4072	483.398	83.3347	483.398	81.4439	483.398	82.6571	483.398	80.4143	483.398	81.9665	483.398	79.4002	483.398	81.3126	483.398	78.5626	483.398	80.7239	483.398	78.1449	483.398	80.2043	483.398	78.328	483.398	79.7965	483.398	79.013	483.398	79.6392	483.398	79.8775	483.398	79.8575	483.398	80.6202	483.398	80.3573	483.398	81.0643	483.398	80.8647	483.398	81.1401
499.512	85.9753	499.512	85.8077	499.512	85.9896	499.512	85.5036	499.512	85.8469	499.512	85.0861	499.512	85.5566	499.512	84.5738	499.512	85.1353	499.512	83.9744	499.512	84.6025	499.512	83.2875	499.512	83.982	499.512	82.5136	499.512	83.3069	499.512	81.6642	499.512	82.6242	499.512	80.7671	499.512	81.9886	499.512	79.8736	499.512	81.4412	499.512	79.0763	499.512	80.9786	499.512	78.5286	499.512	80.5477	499.512	78.4038	499.512	80.0974	499.512	78.7404	499.512	79.6705	499.512	79.3454	499.512	79.4427	499.512	79.9233	499.512	79.5646	499.512	80.2483	499.512	79.9251	499.512	80.2284
517.09	86.2273	517.09	86.0905	517.09	86.1941	517.09	85.8123	517.09	85.984	517.09	85.4296	517.09	85.6158	517.09	84.9678	517.09	85.1294	517.09	84.4283	517.09	84.5773	517.09	83.7927	517.09	84.0146	517.09	83.0416	517.09	83.4853	517.09	82.1704	517.09	83.004	517.09	81.198	517.09	82.537	517.09	80.1716	517.09	82.0068	517.09	79.1918	517.09	81.3335	517.09	78.4595	517.09	80.5091	517.09	78.2523	517.09	79.6893	517.09	78.6763	517.09	79.2117	517.09	79.4728	517.09	79.3333	517.09	80.2471	517.09	79.8909	517.09	80.7287	517.09	80.4813	517.09	80.8045
536.133	85.1786	536.133	85.0521	536.133	85.076	536.133	84.7396	536.133	84.7424	536.133	84.32	536.133	84.209	536.133	83.8806	536.133	83.5287	536.133	83.4744	536.133	82.7772	536.133	83.0932	536.133	82.0697	536.133	82.6842	536.133	81.5612	536.133	82.1894	536.133	81.3682	536.133	81.5756	536.133	81.4454	536.133	80.8503	536.133	81.5865	536.133	80.0849	536.133	81.5579	536.133	79.4539	536.133	81.2099	536.133	79.2197	536.133	80.5408	536.133	79.53	536.133	79.7902	536.133	80.2019	536.133	79.4592	536.133	80.864	536.133	79.8418	536.133	81.2174	536.133	80.5705	536.133	81.1143
555.176	86.0168	555.176	85.7907	555.176	85.9648	555.176	85.3059	555.176	85.6543	555.176	84.6305	555.176	85.1225	555.176	83.8721	555.176	84.3998	555.176	83.1401	555.176	83.4999	555.176	82.4931	555.176	82.4426	555.176	81.9191	555.176	81.3177	555.176	81.3673	555.176	80.3566	555.176	80.7926	555.176	79.8638	555.176	80.181	555.176	79.8939	555.176	79.5721	555.176	80.1192	555.176	79.0983	555.176	80.1493	555.176	78.977	555.176	79.7795	555.176	79.3266	555.176	79.0681	555.176	79.9571	555.176	78.4515	555.176	80.4943	555.176	78.5708	555.176	80.6332	555.176	79.3948	555.176	80.2366
574.219	86.3916	574.219	86.2166	574.219	86.3049	574.219	85.7693	574.219	85.985	574.219	85.0768	574.219	85.4609	574.219	84.2129	574.219	84.7506	574.219	83.2899	574.219	83.8656	574.219	82.4164	574.219	82.8293	574.219	81.6398	574.219	81.7197	574.219	80.929	574.219	80.7293	574.219	80.2197	574.219	80.1391	574.219	79.4792	574.219	80.056	574.219	78.7592	574.219	80.2243	574.219	78.2356	574.219	80.2761	574.219	78.1631	574.219	80.0038	574.219	78.6282	574.219	79.43	574.219	79.3676	574.219	78.8544	574.219	79.9806	574.219	78.7637	574.219	80.1866	574.219	79.2699	574.219	79.8979
594.727	85.7016	594.727	85.5882	594.727	85.6085	594.727	85.264	594.727	85.3273	594.727	84.75	594.727	84.8733	594.727	84.0873	594.727	84.2475	594.727	83.3203	594.727	83.439	594.727	82.4816	594.727	82.4455	594.727	81.5937	594.727	81.3268	594.727	80.6785	594.727	80.2842	594.727	79.7571	594.727	79.6354	594.727	78.8475	594.727	79.4994	594.727	78.0044	594.727	79.6023	594.727	77.4145	594.727	79.62	594.727	77.3926	594.727	79.4783	594.727	78.0428	594.727	79.3241	594.727	79.0229	594.727	79.3537	594.727	79.884	594.727	79.6464	594.727	80.3636	594.727	80.0805	594.727	80.3966
615.234	86.1474	615.234	85.9008	615.234	86.1105	615.234	85.3743	615.234	85.8212	615.234	84.6203	615.234	85.3273	615.234	83.7458	615.234	84.6683	615.234	82.8872	615.234	83.8431	615.234	82.1473	615.234	82.796	615.234	81.5412	615.234	81.4615	615.234	81.0049	615.234	79.9087	615.234	80.4444	615.234	78.6102	615.234	79.7721	615.234	78.3359	615.234	78.9446	615.234	78.9849	615.234	78.051	615.234	79.6533	615.234	77.4503	615.234	79.8021	615.234	77.616	615.234	79.3867	615.234	78.4571	615.234	78.7562	615.234	79.3362	615.234	78.5519	615.234	79.7657	615.234	79.0117	615.234	79.5987
637.207	86.6826	637.207	86.3213	637.207	86.7271	637.207	85.6311	637.207	86.5004	637.207	84.6516	637.207	86.0643	637.207	83.4876	637.207	85.471	637.207	82.3034	637.207	84.7353	637.207	81.2714	637.207	83.8182	637.207	80.4927	637.207	82.6397	637.207	79.964	637.207	81.126	637.207	79.611	637.207	79.3294	637.207	79.3317	637.207	77.7269	637.207	79.0449	637.207	77.2874	637.207	78.7763	637.207	78.0832	637.207	78.7337	637.207	79.0724	637.207	79.1643	637.207	79.6635	637.207	79.9843	637.207	79.9135	637.207	80.7859	637.207	80.1879	637.207	81.2121	637.207	80.6787	637.207	81.1346
659.18	86.4951	659.18	86.4454	659.18	86.2466	659.18	86.0384	659.18	85.7983	659.18	85.2638	659.18	85.258	659.18	84.1635	659.18	84.6901	659.18	82.8375	659.18	84.082	659.18	81.4415	659.18	83.3674	659.18	80.1567	659.18	82.4782	659.18	79.1171	659.18	81.3749	659.18	78.338	659.18	80.0493	659.18	77.7315	659.18	78.5391	659.18	77.2315	659.18	77.0602	659.18	76.953	659.18	76.2664	659.18	77.1935	659.18	76.712	659.18	78.0465	659.18	77.7554	659.18	79.1381	659.18	78.6106	659.18	79.9991	659.18	79.2053	659.18	80.3725	659.18	79.7556	659.18	80.2317
682.617	86.3884	682.617	86.2635	682.617	86.2193	682.617	85.8092	682.617	85.8204	682.617	85.0226	682.617	85.2759	682.617	83.9402	682.617	84.6596	682.617	82.6366	682.617	83.9926	682.617	81.2105	682.617	83.2442	682.617	79.7745	682.617	82.3886	682.617	78.4639	682.617	81.4446	682.617	77.4252	682.617	80.4471	682.617	76.7194	682.617	79.4029	682.617	76.2788	682.617	78.3482	682.617	76.103	682.617	77.5089	682.617	76.4633	682.617	77.2351	682.617	77.5855	682.617	77.572	682.617	79.1055	682.617	78.3131	682.617	80.4005	682.617	79.3261	682.617	81.0874	682.617	80.3671	682.617	81.0483
707.52	86.7831	707.52	86.5657	707.52	86.6911	707.52	86.0182	707.52	86.3628	707.52	85.1853	707.52	85.878	707.52	84.1631	707.52	85.267	707.52	83.0515	707.52	84.5051	707.52	81.8912	707.52	83.5717	707.52	80.6446	707.52	82.5117	707.52	79.2589	707.52	81.4447	707.52	77.7506	707.52	80.4675	707.52	76.2378	707.52	79.4693	707.52	74.9312	707.52	78.1504	707.52	74.2512	707.52	76.4569	707.52	74.8897	707.52	75.3228	707.52	76.7967	707.52	75.9622	707.52	78.9259	707.52	77.6179	707.52	80.5319	707.52	79.3041	707.52	81.3653	707.52	80.6431	707.52	81.3838
732.422	86.2124	732.422	86.3372	732.422	85.7886	732.422	86.0725	732.422	85.215	732.422	85.4087	732.422	84.6365	732.422	84.4209	732.422	84.1039	732.422	83.2559	732.422	83.5408	732.422	82.0743	732.422	82.808	732.422	80.9634	732.422	81.8155	732.422	79.9199	732.422	80.6351	732.422	78.9202	732.422	79.5434	732.422	77.9343	732.422	78.7558	732.422	76.8464	732.422	78.0281	732.422	75.5244	732.422	76.9313	732.422	74.424	732.422	75.4668	732.422	75.0407	732.422	74.2766	732.422	77.1473	732.422	74.2935	732.422	78.9806	732.422	75.9148	732.422	79.8138	732.422	78.0548	732.422	79.4944
757.324	85.5684	757.324	85.769	757.324	85.1184	757.324	85.6084	757.324	84.5999	757.324	85.0614	757.324	84.1634	757.324	84.1724	757.324	83.8028	757.324	83.0388	757.324	83.371	757.324	81.8023	757.324	82.7194	757.324	80.6364	757.324	81.8081	757.324	79.696	757.324	80.7498	757.324	79.0109	757.324	79.7661	757.324	78.411	757.324	78.9831	757.324	77.6038	757.324	78.2871	757.324	76.399	757.324	77.5825	757.324	75.1936	757.324	77.0045	757.324	75.3494	757.324	76.5026	757.324	76.9681	757.324	75.7908	757.324	78.4571	757.324	75.5207	757.324	78.977	757.324	76.7613	757.324	78.3305
785.156	85.8412	785.156	86.0955	785.156	85.4008	785.156	86.0191	785.156	84.9532	785.156	85.5429	785.156	84.6056	785.156	84.69	785.156	84.2925	785.156	83.5865	785.156	83.8235	785.156	82.4103	785.156	83.0181	785.156	81.2627	785.156	81.8016	785.156	80.1142	785.156	80.2965	785.156	78.9239	785.156	78.9051	785.156	77.7309	785.156	77.9663	785.156	76.5504	785.156	77.1445	785.156	75.2854	785.156	75.9272	785.156	74.1297	785.156	74.4616	785.156	74.2402	785.156	73.394	785.156	76.0097	785.156	73.3035	785.156	77.8639	785.156	74.827	785.156	78.7921	785.156	77.0435	785.156	78.5192
811.523	85.3836	811.523	85.6797	811.523	84.9678	811.523	85.6928	811.523	84.5996	811.523	85.343	811.523	84.3481	811.523	84.6533	811.523	84.1481	811.523	83.7252	811.523	83.839	811.523	82.6731	811.523	83.2279	811.523	81.551	811.523	82.1592	811.523	80.3649	811.523	80.6252	811.523	79.1736	811.523	78.9868	811.523	78.0999	811.523	77.9392	811.523	77.1355	811.523	77.3926	811.523	76.0451	811.523	76.3497	811.523	74.802	811.523	74.5617	811.523	74.4287	811.523	73.6544	811.523	75.8375	811.523	74.3752	811.523	77.5723	811.523	75.3621	811.523	78.3667	811.523	76.6571	811.523	77.9487
840.82	85.57	840.82	86.0191	840.82	84.965	840.82	86.0725	840.82	84.4775	840.82	85.6137	840.82	84.2661	840.82	84.6998	840.82	84.2649	840.82	83.5913	840.82	84.238	840.82	82.63	840.82	83.9427	840.82	81.9008	840.82	83.2329	840.82	81.1756	840.82	82.0655	840.82	80.2704	840.82	80.4811	840.82	79.2531	840.82	78.6023	840.82	78.3103	840.82	76.7094	840.82	77.4124	840.82	75.5078	840.82	76.3814	840.82	75.5218	840.82	75.6428	840.82	75.6613	840.82	76.1896	840.82	74.9765	840.82	77.5325	840.82	74.7148	840.82	78.347	840.82	76.3693	840.82	77.9794
870.117	85.4659	870.117	86.1831	870.117	84.7388	870.117	86.527	870.117	84.33	870.117	86.2646	870.117	84.2461	870.117	85.3038	870.117	84.2079	870.117	83.7259	870.117	83.9629	870.117	81.916	870.117	83.4179	870.117	80.5598	870.117	82.6082	870.117	79.9668	870.117	81.6984	870.117	79.6888	870.117	80.9674	870.117	79.2346	870.117	80.4537	870.117	78.3876	870.117	79.6202	870.117	77.1427	870.117	77.8547	870.117	75.9497	870.117	75.6897	870.117	75.9711	870.117	75.2106	870.117	77.3437	870.117	75.1674	870.117	78.6043	870.117	73.9867	870.117	78.7314	870.117	74.6182	870.117	77.2715
900.879	85.8189	900.879	86.3372	900.879	85.3151	900.879	86.6055	900.879	85.0686	900.879	86.4231	900.879	85.0937	900.879	85.67	900.879	85.1533	900.879	84.3448	900.879	84.9889	900.879	82.6064	900.879	84.443	900.879	80.7486	900.879	83.45	900.879	79.0775	900.879	82.0854	900.879	77.8629	900.879	80.6744	900.879	77.3064	900.879	79.586	900.879	77.171	900.879	78.6134	900.879	76.7642	900.879	77.3588	900.879	75.554	900.879	76.5863	900.879	74.1341	900.879	76.9389	900.879	74.9284	900.879	76.8809	900.879	77.0363	900.879	75.9174	900.879	78.0151	900.879	75.962	900.879	77.3919
933.105	85.9052	933.105	86.5407	933.105	85.3771	933.105	86.8774	933.105	85.2035	933.105	86.638	933.105	85.2267	933.105	85.7057	933.105	85.1453	933.105	84.1203	933.105	84.7708	933.105	82.142	933.105	84.0223	933.105	80.263	933.105	82.9283	933.105	78.9205	933.105	81.7578	933.105	78.2019	933.105	81.0477	933.105	77.9903	933.105	80.8369	933.105	77.9853	933.105	80.1618	933.105	77.6948	933.105	78.0795	933.105	76.862	933.105	75.5726	933.105	76.2093	933.105	76.3323	933.105	76.9858	933.105	77.2737	933.105	78.2528	933.105	76.3258	933.105	78.502	933.105	75.6715	933.105	77.2809
965.332	86.2125	965.332	86.5423	965.332	85.8849	965.332	86.5992	965.332	85.7846	965.332	86.2123	965.332	85.8979	965.332	85.3312	965.332	85.9622	965.332	84.0153	965.332	85.6744	965.332	82.4815	965.332	84.865	965.332	81.037	965.332	83.4899	965.332	79.7542	965.332	81.6184	965.332	78.4052	965.332	79.7362	965.332	77.0624	965.332	78.8493	965.332	76.5061	965.332	78.6138	965.332	76.6778	965.332	77.4971	965.332	76.3178	965.332	75.8257	965.332	75.0398	965.332	76.3926	965.332	74.2804	965.332	77.4148	965.332	75.5713	965.332	77.1208	965.332	77.0324	965.332	76.8414	965.332	77.2841
1,000.49	86.0696	1,000.49	86.4956	1,000.49	85.8121	1,000.49	86.7092	1,000.49	85.8475	1,000.49	86.382	1,000.49	85.9352	1,000.49	85.3127	1,000.49	85.8029	1,000.49	83.443	1,000.49	85.3389	1,000.49	81.0262	1,000.49	84.5326	1,000.49	78.9311	1,000.49	83.373	1,000.49	77.9892	1,000.49	81.8683	1,000.49	77.7065	1,000.49	80.3852	1,000.49	77.5229	1,000.49	79.7505	1,000.49	77.4762	1,000.49	79.5345	1,000.49	77.4117	1,000.49	77.8773	1,000.49	76.9561	1,000.49	73.5109	1,000.49	76.1849	1,000.49	72.8829	1,000.49	76.1931	1,000.49	75.6244	1,000.49	77.3689	1,000.49	75.4118	1,000.49	78.035	1,000.49	75.2911	1,000.49	77.1244
1,035.64	86.2027	1,035.64	86.5988	1,035.64	86.1977	1,035.64	86.9216	1,035.64	86.5673	1,035.64	86.8227	1,035.64	86.8209	1,035.64	86.1544	1,035.64	86.6253	1,035.64	84.78	1,035.64	85.9589	1,035.64	82.4935	1,035.64	84.9067	1,035.64	79.025	1,035.64	83.4771	1,035.64	74.2516	1,035.64	81.7198	1,035.64	70.9887	1,035.64	80.2326	1,035.64	73.3378	1,035.64	80.0216	1,035.64	75.9936	1,035.64	80.375	1,035.64	77.5046	1,035.64	79.4265	1,035.64	77.8877	1,035.64	76.2059	1,035.64	77.5552	1,035.64	75.2266	1,035.64	77.66	1,035.64	77.8257	1,035.64	78.3477	1,035.64	77.6578	1,035.64	78.1568	1,035.64	75.5258	1,035.64	76.323
1,072.27	86.3072	1,072.27	86.5491	1,072.27	86.3503	1,072.27	86.796	1,072.27	86.6266	1,072.27	86.7276	1,072.27	86.795	1,072.27	86.1351	1,072.27	86.5673	1,072.27	84.9045	1,072.27	85.8753	1,072.27	83.063	1,072.27	84.7551	1,072.27	80.9208	1,072.27	83.1623	1,072.27	78.9573	1,072.27	81.0812	1,072.27	77.1273	1,072.27	79.0749	1,072.27	74.6893	1,072.27	78.4287	1,072.27	71.8773	1,072.27	78.8722	1,072.27	72.8198	1,072.27	78.4456	1,072.27	75.2372	1,072.27	75.8726	1,072.27	76.1306	1,072.27	74.0792	1,072.27	76.1517	1,072.27	76.8097	1,072.27	76.2499	1,072.27	77.6957	1,072.27	76.273	1,072.27	76.5722	1,072.27	75.9421
1,108.89	86.2193	1,108.89	86.5329	1,108.89	86.4031	1,108.89	86.7964	1,108.89	86.8816	1,108.89	86.5729	1,108.89	87.1199	1,108.89	85.8736	1,108.89	86.9084	1,108.89	84.8054	1,108.89	86.2454	1,108.89	83.3665	1,108.89	85.1345	1,108.89	81.6587	1,108.89	83.5145	1,108.89	79.9825	1,108.89	81.3522	1,108.89	78.4394	1,108.89	79.1806	1,108.89	76.6049	1,108.89	78.3932	1,108.89	74.3365	1,108.89	78.6429	1,108.89	73.3526	1,108.89	78.0211	1,108.89	74.0631	1,108.89	76.0766	1,108.89	74.6521	1,108.89	75.6431	1,108.89	75.2295	1,108.89	77.9218	1,108.89	75.9987	1,108.89	78.8211	1,108.89	76.1558	1,108.89	77.5328	1,108.89	76.0363
1,148.44	86.2064	1,148.44	86.4449	1,148.44	86.4999	1,148.44	86.7265	1,148.44	86.9312	1,148.44	86.4523	1,148.44	87.0244	1,148.44	85.5456	1,148.44	86.7664	1,148.44	84.2884	1,148.44	86.2777	1,148.44	83.0141	1,148.44	85.4595	1,148.44	81.8975	1,148.44	83.974	1,148.44	80.9179	1,148.44	81.4416	1,148.44	79.8668	1,148.44	77.9877	1,148.44	78.4618	1,148.44	77.1359	1,148.44	76.6949	1,148.44	79.4962	1,148.44	75.0808	1,148.44	79.5545	1,148.44	74.0926	1,148.44	75.6218	1,148.44	73.904	1,148.44	74.5092	1,148.44	74.8742	1,148.44	78.7325	1,148.44	76.3228	1,148.44	79.8522	1,148.44	77.215	1,148.44	79.0235	1,148.44	77.8485
1,189.45	86.8254	1,189.45	86.5166	1,189.45	87.3627	1,189.45	86.7902	1,189.45	87.3779	1,189.45	86.7618	1,189.45	86.7655	1,189.45	85.6048	1,189.45	85.8858	1,189.45	83.3777	1,189.45	85.0752	1,189.45	81.4192	1,189.45	84.3869	1,189.45	80.9675	1,189.45	83.5504	1,189.45	80.6036	1,189.45	82.0423	1,189.45	78.9486	1,189.45	79.4542	1,189.45	76.467	1,189.45	77.1592	1,189.45	75.9145	1,189.45	78.742	1,189.45	76.6528	1,189.45	79.2431	1,189.45	76.6181	1,189.45	74.3879	1,189.45	75.9725	1,189.45	71.9977	1,189.45	75.7755	1,189.45	79.1177	1,189.45	76.651	1,189.45	80.9799	1,189.45	77.4887	1,189.45	80.2047	1,189.45	78.4635
1,230.47	87.1935	1,230.47	86.3525	1,230.47	87.6657	1,230.47	86.1303	1,230.47	87.4351	1,230.47	86.2958	1,230.47	86.6573	1,230.47	85.5534	1,230.47	85.4987	1,230.47	83.3617	1,230.47	84.2726	1,230.47	80.2547	1,230.47	83.5203	1,230.47	79.0459	1,230.47	83.1392	1,230.47	79.7741	1,230.47	82.1615	1,230.47	79.0097	1,230.47	79.402	1,230.47	75.76	1,230.47	74.964	1,230.47	73.4294	1,230.47	78.6876	1,230.47	76.4569	1,230.47	80.9985	1,230.47	78.7234	1,230.47	77.6206	1,230.47	79.3883	1,230.47	62.5262	1,230.47	79.1673	1,230.47	78.6416	1,230.47	79.1171	1,230.47	82.0503	1,230.47	79.512	1,230.47	81.9733	1,230.47	80.5314
1,274.41	87.1081	1,274.41	86.123	1,274.41	87.4854	1,274.41	84.7542	1,274.41	87.4192	1,274.41	84.3306	1,274.41	86.781	1,274.41	84.5484	1,274.41	85.534	1,274.41	83.7047	1,274.41	83.889	1,274.41	80.9458	1,274.41	82.3882	1,274.41	76.4589	1,274.41	81.8923	1,274.41	75.6293	1,274.41	81.8978	1,274.41	76.778	1,274.41	80.6125	1,274.41	74.3784	1,274.41	76.2748	1,274.41	63.8296	1,274.41	76.7388	1,274.41	69.7175	1,274.41	81.4975	1,274.41	75.8407	1,274.41	80.8082	1,274.41	78.3423	1,274.41	71.4307	1,274.41	79.5664	1,274.41	75.8176	1,274.41	80.435	1,274.41	81.1743	1,274.41	81.1049	1,274.41	81.9921	1,274.41	81.5639
1,319.82	86.0037	1,319.82	85.4198	1,319.82	86.5418	1,319.82	84.0962	1,319.82	86.9095	1,319.82	82.3394	1,319.82	86.5882	1,319.82	81.8458	1,319.82	85.6284	1,319.82	82.1139	1,319.82	84.0654	1,319.82	81.2178	1,319.82	81.8036	1,319.82	78.1805	1,319.82	79.7521	1,319.82	74.8944	1,319.82	79.5	1,319.82	76.0961	1,319.82	79.1507	1,319.82	76.3021	1,319.82	75.5856	1,319.82	73.3931	1,319.82	70.3473	1,319.82	63.9436	1,319.82	78.9435	1,319.82	66.7444	1,319.82	80.5377	1,319.82	74.4654	1,319.82	75.7719	1,319.82	77.5684	1,319.82	63.2689	1,319.82	79.3016	1,319.82	76.92	1,319.82	80.0348	1,319.82	79.2892	1,319.82	79.8192
1,366.7	84.6042	1,366.7	84.2622	1,366.7	85.2875	1,366.7	84.0419	1,366.7	85.4523	1,366.7	83.1551	1,366.7	84.9413	1,366.7	82.0325	1,366.7	84.0928	1,366.7	81.4086	1,366.7	82.9502	1,366.7	80.2373	1,366.7	81.3674	1,366.7	76.8878	1,366.7	79.3016	1,366.7	70.668	1,366.7	78.0213	1,366.7	71.4525	1,366.7	78.1995	1,366.7	74.5553	1,366.7	77.4003	1,366.7	74.3244	1,366.7	70.1686	1,366.7	71.3909	1,366.7	73.8348	1,366.7	67.8038	1,366.7	79.2712	1,366.7	69.6816	1,366.7	76.8007	1,366.7	73.376	1,366.7	60.8814	1,366.7	76.063	1,366.7	72.5836	1,366.7	76.7547	1,366.7	74.9282	1,366.7	75.5968
1,413.57	83.8264	1,413.57	83.1127	1,413.57	84.3156	1,413.57	83.1192	1,413.57	83.9069	1,413.57	82.7532	1,413.57	83.1727	1,413.57	81.4265	1,413.57	82.6289	1,413.57	80.2051	1,413.57	82.1606	1,413.57	79.4369	1,413.57	81.1753	1,413.57	77.7205	1,413.57	79.0624	1,413.57	74.2936	1,413.57	76.6641	1,413.57	70.4237	1,413.57	76.4943	1,413.57	68.7097	1,413.57	77.0642	1,413.57	67.1651	1,413.57	73.5028	1,413.57	66.4312	1,413.57	70.7918	1,413.57	69.1176	1,413.57	76.2116	1,413.57	71.0863	1,413.57	73.9128	1,413.57	71.9008	1,413.57	64.181	1,413.57	72.6146	1,413.57	70.9424	1,413.57	72.1455	1,413.57	73.1239	1,413.57	72.0026
1,463.38	83.2485	1,463.38	82.3235	1,463.38	83.5738	1,463.38	81.6702	1,463.38	82.9565	1,463.38	81.5514	1,463.38	81.8638	1,463.38	80.6923	1,463.38	81.4157	1,463.38	78.8285	1,463.38	81.1995	1,463.38	77.4124	1,463.38	80.2155	1,463.38	75.9736	1,463.38	78.5094	1,463.38	72.8416	1,463.38	76.5364	1,463.38	69.1302	1,463.38	75.2976	1,463.38	70.7477	1,463.38	75.7621	1,463.38	71.4947	1,463.38	74.9077	1,463.38	68.6907	1,463.38	68.9541	1,463.38	68.2398	1,463.38	73.4218	1,463.38	70.3544	1,463.38	74.1281	1,463.38	69.4911	1,463.38	66.863	1,463.38	68.5408	1,463.38	70.5373	1,463.38	69.8674	1,463.38	71.5415	1,463.38	70.9349
1,516.11	83.2232	1,516.11	82.0271	1,516.11	83.3686	1,516.11	80.5142	1,516.11	82.4088	1,516.11	79.8452	1,516.11	81.6358	1,516.11	79.8414	1,516.11	81.4874	1,516.11	78.8985	1,516.11	80.8717	1,516.11	77.0464	1,516.11	79.6084	1,516.11	75.5188	1,516.11	77.9717	1,516.11	74.0785	1,516.11	76.4696	1,516.11	72.3856	1,516.11	75.4996	1,516.11	72.0498	1,516.11	75.1155	1,516.11	71.8188	1,516.11	73.9827	1,516.11	69.4371	1,516.11	70.1364	1,516.11	66.6638	1,516.11	71.576	1,516.11	67.8837	1,516.11	72.3676	1,516.11	69.039	1,516.11	65.7292	1,516.11	69.7073	1,516.11	70.0153	1,516.11	69.4879	1,516.11	71.5844	1,516.11	68.9892
1,568.85	83.291	1,568.85	82.0695	1,568.85	83.4445	1,568.85	80.0148	1,568.85	82.8871	1,568.85	78.6239	1,568.85	82.1694	1,568.85	78.736	1,568.85	81.7626	1,568.85	78.783	1,568.85	81.295	1,568.85	77.685	1,568.85	80.3981	1,568.85	75.7261	1,568.85	79.0868	1,568.85	73.2389	1,568.85	76.9125	1,568.85	70.7671	1,568.85	74.4884	1,568.85	71.5004	1,568.85	74.974	1,568.85	72.5494	1,568.85	74.7644	1,568.85	70.9997	1,568.85	72.0654	1,568.85	68.0528	1,568.85	71.9402	1,568.85	69.7842	1,568.85	69.7744	1,568.85	72.101	1,568.85	68.8628	1,568.85	71.6183	1,568.85	69.4664	1,568.85	68.8902	1,568.85	73.4574	1,568.85	70.9294
1,624.51	83.2267	1,624.51	82.6883	1,624.51	83.2337	1,624.51	81.2648	1,624.51	82.4768	1,624.51	80.027	1,624.51	81.7981	1,624.51	79.8768	1,624.51	81.9546	1,624.51	78.918	1,624.51	81.3443	1,624.51	77.4429	1,624.51	79.8377	1,624.51	76.4257	1,624.51	78.1874	1,624.51	74.8396	1,624.51	76.6727	1,624.51	72.0515	1,624.51	75.6297	1,624.51	69.7797	1,624.51	75.8003	1,624.51	68.491	1,624.51	74.1187	1,624.51	68.1533	1,624.51	69.4738	1,624.51	69.9827	1,624.51	71.1882	1,624.51	71.1558	1,624.51	64.8901	1,624.51	71.335	1,624.51	66.7992	1,624.51	71.2109	1,624.51	69.8806	1,624.51	68.9221	1,624.51	73.6892	1,624.51	71.1939
1,681.64	83.8754	1,681.64	83.1469	1,681.64	83.0845	1,681.64	81.637	1,681.64	82.059	1,681.64	80.3088	1,681.64	82.2357	1,681.64	80.5085	1,681.64	82.195	1,681.64	80.3948	1,681.64	81.3692	1,681.64	78.8922	1,681.64	79.6467	1,681.64	76.8238	1,681.64	77.4833	1,681.64	74.4355	1,681.64	75.5238	1,681.64	71.0527	1,681.64	74.4226	1,681.64	69.8936	1,681.64	75.4207	1,681.64	69.7255	1,681.64	75.4792	1,681.64	67.9634	1,681.64	71.4081	1,681.64	68.4163	1,681.64	71.5313	1,681.64	70.0994	1,681.64	71.8168	1,681.64	69.5795	1,681.64	62.7747	1,681.64	68.3699	1,681.64	66.9643	1,681.64	67.751	1,681.64	72.6087	1,681.64	72.7695
1,741.7	84.1351	1,741.7	83.2414	1,741.7	83.7932	1,741.7	81.0792	1,741.7	82.6595	1,741.7	79.2519	1,741.7	82.6648	1,741.7	78.6397	1,741.7	83.0664	1,741.7	78.4283	1,741.7	82.1528	1,741.7	78.219	1,741.7	80.3564	1,741.7	76.9016	1,741.7	78.3844	1,741.7	73.9731	1,741.7	76.725	1,741.7	71.5934	1,741.7	74.7925	1,741.7	70.6087	1,741.7	73.9844	1,741.7	67.8912	1,741.7	74.4308	1,741.7	61.7422	1,741.7	72.6038	1,741.7	70.2514	1,741.7	71.6677	1,741.7	72.4059	1,741.7	73.1682	1,741.7	69.2906	1,741.7	69.9855	1,741.7	65.8598	1,741.7	65.6165	1,741.7	66.8444	1,741.7	70.9541	1,741.7	68.9749
1,803.22	85.0706	1,803.22	84.0504	1,803.22	84.323	1,803.22	80.9308	1,803.22	83.0733	1,803.22	78.2873	1,803.22	83.4089	1,803.22	79.1158	1,803.22	83.2917	1,803.22	79.0388	1,803.22	81.7917	1,803.22	77.6776	1,803.22	79.63	1,803.22	76.3259	1,803.22	77.5056	1,803.22	73.8271	1,803.22	76.3713	1,803.22	69.5402	1,803.22	75.8197	1,803.22	70.9443	1,803.22	75.2181	1,803.22	73.4368	1,803.22	73.0957	1,803.22	70.5714	1,803.22	70.5367	1,803.22	66.2288	1,803.22	70.6708	1,803.22	70.307	1,803.22	72.8689	1,803.22	69.5385	1,803.22	71.2803	1,803.22	67.1663	1,803.22	69.176	1,803.22	64.2654	1,803.22	73.8208	1,803.22	67.7528
1,866.21	85.0286	1,866.21	84.2869	1,866.21	84.0207	1,866.21	81.0145	1,866.21	83.4201	1,866.21	76.8361	1,866.21	83.7814	1,866.21	77.284	1,866.21	83.4302	1,866.21	78.8022	1,866.21	82.3784	1,866.21	78.0885	1,866.21	80.0435	1,866.21	76.09	1,866.21	76.5757	1,866.21	75.1109	1,866.21	74.3002	1,866.21	73.7514	1,866.21	73.9922	1,866.21	72.6906	1,866.21	73.9388	1,866.21	74.8124	1,866.21	73.5629	1,866.21	72.6456	1,866.21	69.6979	1,866.21	66.0652	1,866.21	71.1364	1,866.21	69.2963	1,866.21	69.278	1,866.21	71.4368	1,866.21	69.237	1,866.21	69.483	1,866.21	62.1528	1,866.21	58.6945	1,866.21	74.1277	1,866.21	70.8231
1,932.13	84.6984	1,932.13	83.8797	1,932.13	83.7447	1,932.13	80.2194	1,932.13	83.144	1,932.13	76.5245	1,932.13	83.3046	1,932.13	78.9158	1,932.13	83.5176	1,932.13	80.6876	1,932.13	82.654	1,932.13	79.9801	1,932.13	80.4414	1,932.13	77.7849	1,932.13	76.9395	1,932.13	76.7582	1,932.13	72.2738	1,932.13	75.6118	1,932.13	71.6066	1,932.13	70.7033	1,932.13	73.4265	1,932.13	68.8404	1,932.13	70.7041	1,932.13	71.3349	1,932.13	70.6957	1,932.13	69.1746	1,932.13	71.6579	1,932.13	66.9439	1,932.13	70.5329	1,932.13	71.9775	1,932.13	69.8673	1,932.13	72.0817	1,932.13	68.0001	1,932.13	63.0999	1,932.13	67.0363	1,932.13	70.7228
1,999.51	85.2076	1,999.51	84.3146	1,999.51	83.9455	1,999.51	80.9267	1,999.51	83.2544	1,999.51	77.5807	1,999.51	83.3401	1,999.51	78.4741	1,999.51	83.3844	1,999.51	81.2042	1,999.51	82.5266	1,999.51	81.2703	1,999.51	80.5582	1,999.51	79.3469	1,999.51	78.4206	1,999.51	77.8185	1,999.51	74.6629	1,999.51	76.8607	1,999.51	70.9737	1,999.51	74.196	1,999.51	74.7988	1,999.51	71.6103	1,999.51	72.4652	1,999.51	72.4079	1,999.51	66.0787	1,999.51	72.6842	1,999.51	71.0671	1,999.51	71.4199	1,999.51	70.5774	1,999.51	69.4171	1,999.51	70.1173	1,999.51	67.5878	1,999.51	70.6813	1,999.51	61.9464	1,999.51	70.2533	1,999.51	71.3154
2,069.82	86.1322	2,069.82	84.8521	2,069.82	84.2463	2,069.82	81.2751	2,069.82	84.2418	2,069.82	79.0609	2,069.82	83.8349	2,069.82	79.706	2,069.82	83.554	2,069.82	81.829	2,069.82	82.7275	2,069.82	81.866	2,069.82	80.513	2,069.82	79.9104	2,069.82	78.1015	2,069.82	76.3417	2,069.82	74.6874	2,069.82	73.1391	2,069.82	71.5999	2,069.82	71.5193	2,069.82	76.0718	2,069.82	66.8591	2,069.82	72.4992	2,069.82	46.5745	2,069.82	71.1765	2,069.82	71.7059	2,069.82	69.1558	2,069.82	74.3168	2,069.82	70.3884	2,069.82	69.1459	2,069.82	70.4233	2,069.82	67.5141	2,069.82	69.8379	2,069.82	66.2343	2,069.82	75.5259	2,069.82	72.4383
2,143.07	85.1403	2,143.07	85.0289	2,143.07	83.518	2,143.07	81.8755	2,143.07	83.0285	2,143.07	78.7105	2,143.07	82.583	2,143.07	80.9739	2,143.07	82.7722	2,143.07	82.5593	2,143.07	80.5929	2,143.07	82.5933	2,143.07	78.1496	2,143.07	79.5327	2,143.07	77.8862	2,143.07	72.1711	2,143.07	75.0121	2,143.07	67.0261	2,143.07	72.0036	2,143.07	69.046	2,143.07	77.8142	2,143.07	66.4216	2,143.07	76.1555	2,143.07	65.7131	2,143.07	72.7358	2,143.07	59.5602	2,143.07	69.6306	2,143.07	68.6769	2,143.07	73.2545	2,143.07	63.9025	2,143.07	66.6049	2,143.07	64.6582	2,143.07	68.8335	2,143.07	62.1856	2,143.07	70.4802	2,143.07	69.3178
2,219.24	85.0541	2,219.24	84.8959	2,219.24	83.4381	2,219.24	81.9448	2,219.24	82.6555	2,219.24	77.831	2,219.24	82.1954	2,219.24	81.4146	2,219.24	81.9162	2,219.24	82.1377	2,219.24	81.1702	2,219.24	79.9527	2,219.24	79.8892	2,219.24	76.955	2,219.24	76.9459	2,219.24	72.6991	2,219.24	73.9168	2,219.24	69.2921	2,219.24	69.8922	2,219.24	71.4463	2,219.24	74.4709	2,219.24	70.9536	2,219.24	75.3823	2,219.24	69.4622	2,219.24	73.2704	2,219.24	59.1601	2,219.24	69.6447	2,219.24	67.5079	2,219.24	70.4227	2,219.24	69.1531	2,219.24	59.7982	2,219.24	65.3144	2,219.24	70.9057	2,219.24	54.2841	2,219.24	69.538	2,219.24	67.9331
2,296.88	84.8712	2,296.88	83.8641	2,296.88	83.4998	2,296.88	81.4772	2,296.88	82.351	2,296.88	77.5794	2,296.88	81.8775	2,296.88	80.6806	2,296.88	82.7588	2,296.88	82.2181	2,296.88	82.4615	2,296.88	79.3095	2,296.88	80.3125	2,296.88	74.691	2,296.88	77.3631	2,296.88	72.7079	2,296.88	73.1954	2,296.88	66.9813	2,296.88	71.9289	2,296.88	63.2399	2,296.88	75.163	2,296.88	71.5953	2,296.88	72.922	2,296.88	69.9354	2,296.88	71.2587	2,296.88	67.0216	2,296.88	71.5682	2,296.88	63.2688	2,296.88	66.8974	2,296.88	66.6985	2,296.88	58.6374	2,296.88	58.1764	2,296.88	64.584	2,296.88	54.5286	2,296.88	70.379	2,296.88	66.6277
2,378.91	85.6669	2,378.91	84.1064	2,378.91	83.6402	2,378.91	80.3762	2,378.91	81.9295	2,378.91	79.4291	2,378.91	81.3437	2,378.91	81.6052	2,378.91	82.0207	2,378.91	81.2616	2,378.91	80.7832	2,378.91	79.7225	2,378.91	78.6184	2,378.91	77.8986	2,378.91	75.7255	2,378.91	74.8382	2,378.91	70.1432	2,378.91	71.5928	2,378.91	72.9775	2,378.91	68.9924	2,378.91	77.6554	2,378.91	68.5928	2,378.91	72.6194	2,378.91	66.7161	2,378.91	69.5984	2,378.91	64.9207	2,378.91	68.3164	2,378.91	68.6004	2,378.91	72.6188	2,378.91	68.9331	2,378.91	68.4418	2,378.91	67.4533	2,378.91	50.6825	2,378.91	62.5276	2,378.91	69.4273	2,378.91	69.4106
2,462.4	84.9128	2,462.4	84.1579	2,462.4	83.1815	2,462.4	79.9152	2,462.4	80.4972	2,462.4	79.8059	2,462.4	81.7604	2,462.4	81.8087	2,462.4	82.6651	2,462.4	80.8561	2,462.4	80.7877	2,462.4	78.4004	2,462.4	77.7292	2,462.4	75.0103	2,462.4	74.5058	2,462.4	69.224	2,462.4	69.9973	2,462.4	60.934	2,462.4	66.7003	2,462.4	55.3871	2,462.4	75.7443	2,462.4	53.5736	2,462.4	71.3792	2,462.4	36.024	2,462.4	71.4075	2,462.4	55.916	2,462.4	68.6984	2,462.4	62.3244	2,462.4	68.7641	2,462.4	63.5598	2,462.4	60.3885	2,462.4	62.0692	2,462.4	60.019	2,462.4	53.3601	2,462.4	68.9351	2,462.4	66.0294
2,548.83	84.5436	2,548.83	82.9309	2,548.83	82.8932	2,548.83	79.1065	2,548.83	80.0437	2,548.83	80.2315	2,548.83	81.9774	2,548.83	81.9873	2,548.83	82.9025	2,548.83	79.7991	2,548.83	80.6857	2,548.83	75.2237	2,548.83	76.6527	2,548.83	71.1542	2,548.83	74.2917	2,548.83	64.4176	2,548.83	71.4001	2,548.83	46.425	2,548.83	68.0744	2,548.83	51.4616	2,548.83	75.0677	2,548.83	56.5891	2,548.83	70.0117	2,548.83	53.7897	2,548.83	69.8813	2,548.83	53.3581	2,548.83	66.4086	2,548.83	56.8669	2,548.83	69.1933	2,548.83	59.56	2,548.83	58.1983	2,548.83	60.8381	2,548.83	56.5285	2,548.83	58.3328	2,548.83	67.8833	2,548.83	63.0208
2,639.65	84.7098	2,639.65	82.1525	2,639.65	82.8263	2,639.65	77.555	2,639.65	79.8338	2,639.65	81.0859	2,639.65	82.2921	2,639.65	81.6949	2,639.65	83.3441	2,639.65	79.0164	2,639.65	80.8672	2,639.65	73.4147	2,639.65	76.2919	2,639.65	66.1642	2,639.65	73.7046	2,639.65	53.0411	2,639.65	67.6236	2,639.65	62.7562	2,639.65	72.5683	2,639.65	59.8517	2,639.65	75.3306	2,639.65	57.9162	2,639.65	71.1716	2,639.65	60.7731	2,639.65	68.3584	2,639.65	59.2984	2,639.65	64.0017	2,639.65	52.9957	2,639.65	67.1125	2,639.65	47.8327	2,639.65	60.9647	2,639.65	57.1288	2,639.65	43.4742	2,639.65	59.2138	2,639.65	65.0274	2,639.65	53.8003
2,731.93	84.3516	2,731.93	81.4773	2,731.93	82.6145	2,731.93	76.561	2,731.93	79.0293	2,731.93	81.8761	2,731.93	82.3038	2,731.93	81.7555	2,731.93	83.5234	2,731.93	77.4046	2,731.93	80.8186	2,731.93	69.5692	2,731.93	74.6236	2,731.93	53.1953	2,731.93	70.6132	2,731.93	61.8218	2,731.93	64.0014	2,731.93	64.1563	2,731.93	74.1023	2,731.93	63.4338	2,731.93	75.4488	2,731.93	62.6402	2,731.93	71.2829	2,731.93	63.3206	2,731.93	67.8465	2,731.93	63.7245	2,731.93	64.9402	2,731.93	55.5285	2,731.93	64.915	2,731.93	55.7665	2,731.93	60.8821	2,731.93	46.5352	2,731.93	45.6693	2,731.93	59.2404	2,731.93	64.4853	2,731.93	54.0807
2,828.61	83.9969	2,828.61	79.7724	2,828.61	82.326	2,828.61	76.9615	2,828.61	78.1432	2,828.61	82.2665	2,828.61	82.0694	2,828.61	81.5848	2,828.61	83.4272	2,828.61	75.3379	2,828.61	80.3027	2,828.61	63.0177	2,828.61	73.7619	2,828.61	65.8518	2,828.61	69.2131	2,828.61	67.3705	2,828.61	63.7847	2,828.61	67.7358	2,828.61	75.235	2,828.61	67.6794	2,828.61	75.8945	2,828.61	65.5757	2,828.61	70.2018	2,828.61	64.0824	2,828.61	66.2989	2,828.61	65.8321	2,828.61	64.9572	2,828.61	60.1412	2,828.61	65.5563	2,828.61	57.6024	2,828.61	58.8455	2,828.61	48.4649	2,828.61	42.5857	2,828.61	60.134	2,828.61	64.0058	2,828.61	57.3939
2,928.22	83.3365	2,928.22	77.7645	2,928.22	81.9779	2,928.22	77.3286	2,928.22	75.9652	2,928.22	82.1223	2,928.22	81.3332	2,928.22	80.3626	2,928.22	83.0343	2,928.22	74.9587	2,928.22	79.3812	2,928.22	68.9875	2,928.22	71.7384	2,928.22	69.9021	2,928.22	68.7936	2,928.22	69.1486	2,928.22	65.7225	2,928.22	67.8188	2,928.22	74.9064	2,928.22	66.2288	2,928.22	75.4589	2,928.22	65.8879	2,928.22	66.6794	2,928.22	61.9433	2,928.22	63.686	2,928.22	65.1707	2,928.22	64.3527	2,928.22	62.8429	2,928.22	64.0585	2,928.22	56.4741	2,928.22	57.2595	2,928.22	54.3227	2,928.22	46.2466	2,928.22	59.542	2,928.22	63.1832	2,928.22	62.3772
3,030.76	81.8025	3,030.76	73.2717	3,030.76	80.7018	3,030.76	77.379	3,030.76	72.1206	3,030.76	81.9963	3,030.76	81.2241	3,030.76	80.0183	3,030.76	82.8585	3,030.76	74.1019	3,030.76	77.9757	3,030.76	71.6629	3,030.76	70.2492	3,030.76	71.8307	3,030.76	70.7997	3,030.76	68.9931	3,030.76	66.7265	3,030.76	69.7192	3,030.76	75.194	3,030.76	67.2653	3,030.76	74.7659	3,030.76	66.5921	3,030.76	57.3101	3,030.76	63.5504	3,030.76	60.437	3,030.76	63.5695	3,030.76	63.5253	3,030.76	63.4119	3,030.76	62.6101	3,030.76	56.8909	3,030.76	58.2505	3,030.76	56.3357	3,030.76	55.4076	3,030.76	57.043	3,030.76	62.2196	3,030.76	63.4289
3,137.7	81.7032	3,137.7	72.4472	3,137.7	80.2603	3,137.7	77.7712	3,137.7	68.9928	3,137.7	82.0573	3,137.7	81.7748	3,137.7	79.4155	3,137.7	82.7542	3,137.7	74.0952	3,137.7	76.7926	3,137.7	73.0304	3,137.7	72.1601	3,137.7	71.7243	3,137.7	73.6986	3,137.7	71.6472	3,137.7	67.987	3,137.7	69.8762	3,137.7	75.4248	3,137.7	65.301	3,137.7	75.0292	3,137.7	66.9394	3,137.7	54.661	3,137.7	64.5566	3,137.7	53.7547	3,137.7	63.3193	3,137.7	64.8334	3,137.7	64.8193	3,137.7	64.4308	3,137.7	59.8223	3,137.7	57.4867	3,137.7	57.1212	3,137.7	55.9492	3,137.7	48.8823	3,137.7	59.0234	3,137.7	64.2501
3,249.02	81.8123	3,249.02	71.6021	3,249.02	80.1764	3,249.02	78.7975	3,249.02	68.0517	3,249.02	82.5411	3,249.02	82.4208	3,249.02	79.2361	3,249.02	82.7534	3,249.02	74.6103	3,249.02	75.2772	3,249.02	74.6269	3,249.02	74.7116	3,249.02	74.0108	3,249.02	75.7319	3,249.02	69.6189	3,249.02	70.8657	3,249.02	68.8222	3,249.02	75.031	3,249.02	67.9259	3,249.02	73.9498	3,249.02	68.2382	3,249.02	56.9508	3,249.02	65.0276	3,249.02	56.3454	3,249.02	64.5906	3,249.02	64.2909	3,249.02	66.024	3,249.02	63.1844	3,249.02	62.2306	3,249.02	59.6474	3,249.02	57.0583	3,249.02	50.4936	3,249.02	53.2036	3,249.02	63.2362	3,249.02	64.7365
3,363.28	82.064	3,363.28	71.8932	3,363.28	80.3863	3,363.28	79.7268	3,363.28	68.2828	3,363.28	82.4985	3,363.28	82.8727	3,363.28	78.6639	3,363.28	82.5809	3,363.28	76.128	3,363.28	73.7163	3,363.28	76.0617	3,363.28	76.1962	3,363.28	73.0162	3,363.28	76.868	3,363.28	72.4622	3,363.28	73.3212	3,363.28	72.6605	3,363.28	76.0766	3,363.28	67.9875	3,363.28	72.676	3,363.28	68.074	3,363.28	59.6724	3,363.28	65.6425	3,363.28	57.7442	3,363.28	63.4993	3,363.28	66.421	3,363.28	66.7647	3,363.28	62.5251	3,363.28	63.7934	3,363.28	63.4558	3,363.28	59.4958	3,363.28	56.8241	3,363.28	44.1054	3,363.28	63.9452	3,363.28	64.1777
3,481.93	82.372	3,481.93	73.7928	3,481.93	80.345	3,481.93	80.512	3,481.93	71.6107	3,481.93	82.4625	3,481.93	83.5494	3,481.93	78.3631	3,481.93	82.3576	3,481.93	77.4957	3,481.93	73.8834	3,481.93	75.8679	3,481.93	77.6978	3,481.93	75.3754	3,481.93	77.1593	3,481.93	74.1767	3,481.93	73.8211	3,481.93	71.375	3,481.93	75.0124	3,481.93	69.0101	3,481.93	68.6994	3,481.93	70.3256	3,481.93	59.8924	3,481.93	67.8342	3,481.93	54.0985	3,481.93	64.4546	3,481.93	64.4355	3,481.93	67.7982	3,481.93	60.4568	3,481.93	65.4878	3,481.93	64.3484	3,481.93	62.4005	3,481.93	60.0025	3,481.93	47.8342	3,481.93	64.2786	3,481.93	64.476
3,604.98	83.2199	3,604.98	75.3481	3,604.98	81.208	3,604.98	81.3907	3,604.98	72.8185	3,604.98	82.5794	3,604.98	83.3441	3,604.98	79.2499	3,604.98	81.417	3,604.98	78.2313	3,604.98	73.5605	3,604.98	76.577	3,604.98	79.0229	3,604.98	77.3241	3,604.98	77.406	3,604.98	73.7577	3,604.98	72.0276	3,604.98	74.2614	3,604.98	73.4429	3,604.98	71.3257	3,604.98	68.3338	3,604.98	69.439	3,604.98	59.1853	3,604.98	68.5645	3,604.98	60.0143	3,604.98	65.3634	3,604.98	61.6696	3,604.98	68.5434	3,604.98	61.7332	3,604.98	67.0001	3,604.98	64.4067	3,604.98	61.369	3,604.98	62.958	3,604.98	48.93	3,604.98	64.9856	3,604.98	65.4869
3,732.42	83.5019	3,732.42	76.6311	3,732.42	81.5577	3,732.42	81.8115	3,732.42	74.0109	3,732.42	82.7906	3,732.42	83.5348	3,732.42	79.8679	3,732.42	80.9746	3,732.42	77.367	3,732.42	72.0118	3,732.42	79.3013	3,732.42	79.3251	3,732.42	78.3248	3,732.42	77.7429	3,732.42	76.1413	3,732.42	67.9309	3,732.42	74.7246	3,732.42	69.6523	3,732.42	69.5368	3,732.42	65.1721	3,732.42	70.3055	3,732.42	67.7177	3,732.42	67.5943	3,732.42	63.0892	3,732.42	65.3628	3,732.42	63.1376	3,732.42	68.2007	3,732.42	62.4061	3,732.42	66.9903	3,732.42	63.7237	3,732.42	62.4328	3,732.42	60.5121	3,732.42	53.9058	3,732.42	64.0402	3,732.42	64.2859
3,864.26	83.8762	3,864.26	78.0639	3,864.26	81.5982	3,864.26	82.4193	3,864.26	76.0385	3,864.26	83.0296	3,864.26	83.4964	3,864.26	78.4245	3,864.26	80.3722	3,864.26	78.693	3,864.26	72.9616	3,864.26	80.1518	3,864.26	79.2458	3,864.26	79.0712	3,864.26	76.9766	3,864.26	75.1096	3,864.26	67.2146	3,864.26	72.5755	3,864.26	68.8164	3,864.26	70.013	3,864.26	66.0591	3,864.26	69.8189	3,864.26	64.8599	3,864.26	67.5853	3,864.26	68.8999	3,864.26	66.0582	3,864.26	62.1227	3,864.26	68.2491	3,864.26	63.5734	3,864.26	67.1468	3,864.26	63.8471	3,864.26	62.321	3,864.26	61.1131	3,864.26	55.5341	3,864.26	62.9522	3,864.26	63.3485
4,000.49	83.915	4,000.49	78.179	4,000.49	81.9133	4,000.49	83.0131	4,000.49	76.3222	4,000.49	82.6609	4,000.49	82.6563	4,000.49	77.7564	4,000.49	79.769	4,000.49	79.7715	4,000.49	75.34	4,000.49	80.5699	4,000.49	79.3552	4,000.49	78.7377	4,000.49	77.3372	4,000.49	75.1406	4,000.49	66.7125	4,000.49	74.6095	4,000.49	67.024	4,000.49	69.9655	4,000.49	58.3889	4,000.49	69.1918	4,000.49	64.9429	4,000.49	66.3046	4,000.49	69.8473	4,000.49	64.2196	4,000.49	61.2939	4,000.49	67.4589	4,000.49	66.1315	4,000.49	67.2806	4,000.49	63.9244	4,000.49	60.8719	4,000.49	61.7626	4,000.49	55.4452	4,000.49	63.5619	4,000.49	63.0761
4,141.11	84.1109	4,141.11	79.6464	4,141.11	82.57	4,141.11	83.5957	4,141.11	75.8529	4,141.11	82.0687	4,141.11	81.9175	4,141.11	78.4766	4,141.11	79.6153	4,141.11	80.832	4,141.11	75.1233	4,141.11	80.5376	4,141.11	80.9839	4,141.11	78.6125	4,141.11	79.9311	4,141.11	74.6964	4,141.11	69.0406	4,141.11	71.3743	4,141.11	57.0011	4,141.11	68.6417	4,141.11	52.7694	4,141.11	68.8133	4,141.11	67.4772	4,141.11	65.7851	4,141.11	70.1628	4,141.11	65.2399	4,141.11	62.9957	4,141.11	66.8347	4,141.11	66.4999	4,141.11	68.0732	4,141.11	63.2686	4,141.11	62.5495	4,141.11	62.0562	4,141.11	56.8819	4,141.11	64.7221	4,141.11	62.3062
4,287.6	84.2208	4,287.6	81.0884	4,287.6	83.5137	4,287.6	84.3437	4,287.6	78.3235	4,287.6	81.5755	4,287.6	82.1366	4,287.6	80.8169	4,287.6	79.2331	4,287.6	81.4687	4,287.6	74.8353	4,287.6	80.7066	4,287.6	81.0269	4,287.6	78.3053	4,287.6	80.2349	4,287.6	74.5057	4,287.6	70.5555	4,287.6	74.629	4,287.6	66.3699	4,287.6	68.6126	4,287.6	64.1485	4,287.6	67.7979	4,287.6	64.8074	4,287.6	65.8677	4,287.6	71.4911	4,287.6	65.6356	4,287.6	64.1408	4,287.6	66.328	4,287.6	65.0862	4,287.6	67.4628	4,287.6	62.0824	4,287.6	64.2755	4,287.6	59.5894	4,287.6	58.5465	4,287.6	60.66	4,287.6	56.8025
4,438.48	84.0351	4,438.48	82.8711	4,438.48	83.8732	4,438.48	84.407	4,438.48	80.2211	4,438.48	81.3358	4,438.48	82.0501	4,438.48	82.0409	4,438.48	81.6119	4,438.48	81.8017	4,438.48	75.9067	4,438.48	80.8354	4,438.48	79.7692	4,438.48	77.8327	4,438.48	78.7333	4,438.48	75.0093	4,438.48	73.1461	4,438.48	71.9932	4,438.48	70.7016	4,438.48	70.7352	4,438.48	65.8613	4,438.48	68.0511	4,438.48	43.0212	4,438.48	66.6276	4,438.48	70.3029	4,438.48	67.7262	4,438.48	64.264	4,438.48	66.2496	4,438.48	65.3328	4,438.48	68.3009	4,438.48	61.3372	4,438.48	65.4507	4,438.48	60.8933	4,438.48	60.1102	4,438.48	65.2773	4,438.48	61.4704
4,595.21	84.4858	4,595.21	83.4471	4,595.21	83.8229	4,595.21	84.034	4,595.21	80.8869	4,595.21	82.2709	4,595.21	83.4044	4,595.21	82.974	4,595.21	82.7546	4,595.21	81.9522	4,595.21	79.7347	4,595.21	80.8424	4,595.21	79.5588	4,595.21	77.8644	4,595.21	76.1738	4,595.21	76.309	4,595.21	75.825	4,595.21	74.0372	4,595.21	73.2484	4,595.21	69.8342	4,595.21	64.5516	4,595.21	69.1395	4,595.21	64.0023	4,595.21	66.8133	4,595.21	66.6141	4,595.21	66.5193	4,595.21	58.3195	4,595.21	66.9198	4,595.21	60.4307	4,595.21	68.5936	4,595.21	62.7753	4,595.21	66.7742	4,595.21	61.9334	4,595.21	60.7747	4,595.21	64.8207	4,595.21	59.2076
4,756.35	84.5673	4,756.35	83.5694	4,756.35	84.6114	4,756.35	84.0489	4,756.35	82.0259	4,756.35	82.6827	4,756.35	82.049	4,756.35	83.1414	4,756.35	82.5862	4,756.35	82.2003	4,756.35	81.5139	4,756.35	80.6496	4,756.35	79.105	4,756.35	78.046	4,756.35	77.2449	4,756.35	75.5262	4,756.35	77.2257	4,756.35	72.9745	4,756.35	74.5133	4,756.35	71.5005	4,756.35	65.8441	4,756.35	68.1683	4,756.35	65.5399	4,756.35	66.3863	4,756.35	62.5261	4,756.35	66.0268	4,756.35	62.9091	4,756.35	66.6481	4,756.35	59.0732	4,756.35	69.0783	4,756.35	63.3855	4,756.35	66.293	4,756.35	58.4235	4,756.35	61.566	4,756.35	60.547	4,756.35	57.5431
4,924.8	84.6239	4,924.8	83.8901	4,924.8	84.4285	4,924.8	83.7279	4,924.8	82.5346	4,924.8	83.2734	4,924.8	82.2079	4,924.8	83.7339	4,924.8	81.7701	4,924.8	82.2644	4,924.8	78.9506	4,924.8	81.1035	4,924.8	79.3664	4,924.8	78.1821	4,924.8	80.0821	4,924.8	76.6176	4,924.8	78.6083	4,924.8	73.4209	4,924.8	74.3959	4,924.8	71.2171	4,924.8	64.5077	4,924.8	68.7055	4,924.8	64.8632	4,924.8	66.6999	4,924.8	58.5628	4,924.8	65.2769	4,924.8	63.0436	4,924.8	64.9219	4,924.8	61.1551	4,924.8	68.0292	4,924.8	64.7068	4,924.8	68.0923	4,924.8	56.2821	4,924.8	63.2671	4,924.8	63.3503	4,924.8	59.6886
5,097.66	84.5858	5,097.66	83.7068	5,097.66	84.4816	5,097.66	83.5084	5,097.66	83.6245	5,097.66	83.3569	5,097.66	83.4585	5,097.66	83.8163	5,097.66	81.2355	5,097.66	82.8438	5,097.66	79.4723	5,097.66	81.3434	5,097.66	80.4404	5,097.66	79.0585	5,097.66	80.2049	5,097.66	76.1499	5,097.66	78.3041	5,097.66	74.2238	5,097.66	72.9353	5,097.66	72.5515	5,097.66	55.3042	5,097.66	68.651	5,097.66	64.4435	5,097.66	68.2311	5,097.66	60.5497	5,097.66	66.9352	5,097.66	63.8211	5,097.66	65.4245	5,097.66	59.5437	5,097.66	69.4637	5,097.66	63.2967	5,097.66	68.1778	5,097.66	58.3151	5,097.66	62.8745	5,097.66	63.6352	5,097.66	55.0432
5,277.83	84.8171	5,277.83	83.6395	5,277.83	84.6966	5,277.83	83.5116	5,277.83	82.8043	5,277.83	83.3934	5,277.83	82.5019	5,277.83	84.0716	5,277.83	82.9212	5,277.83	83.4175	5,277.83	81.4267	5,277.83	81.5255	5,277.83	80.4059	5,277.83	79.6421	5,277.83	79.7471	5,277.83	77.9487	5,277.83	77.955	5,277.83	74.2268	5,277.83	72.2129	5,277.83	71.9602	5,277.83	58.7849	5,277.83	69.1675	5,277.83	55.1136	5,277.83	67.5334	5,277.83	60.4748	5,277.83	65.9516	5,277.83	64.6657	5,277.83	64.0696	5,277.83	53.6971	5,277.83	69.1729	5,277.83	61.2698	5,277.83	68.3947	5,277.83	58.3741	5,277.83	62.6472	5,277.83	61.9956	5,277.83	48.0631
5,463.87	85.2428	5,463.87	83.6609	5,463.87	85.0592	5,463.87	83.1617	5,463.87	83.1772	5,463.87	83.1703	5,463.87	83.1745	5,463.87	84.4045	5,463.87	83.3083	5,463.87	83.9784	5,463.87	80.3438	5,463.87	82.3651	5,463.87	79.542	5,463.87	79.9679	5,463.87	78.7306	5,463.87	77.4621	5,463.87	78.4995	5,463.87	74.9739	5,463.87	69.8923	5,463.87	71.4864	5,463.87	57.2397	5,463.87	69.2736	5,463.87	57.628	5,463.87	66.751	5,463.87	55.1676	5,463.87	66.9426	5,463.87	67.3296	5,463.87	63.4717	5,463.87	39.3267	5,463.87	68.6026	5,463.87	49.1412	5,463.87	66.837	5,463.87	55.0898	5,463.87	63.8599	5,463.87	61.7031	5,463.87	52.2121
5,657.23	85.311	5,657.23	83.9372	5,657.23	85.5435	5,657.23	82.9997	5,657.23	83.4954	5,657.23	83.0808	5,657.23	82.028	5,657.23	84.7277	5,657.23	81.3865	5,657.23	84.3472	5,657.23	79.9039	5,657.23	83.067	5,657.23	79.3185	5,657.23	80.2106	5,657.23	79.02	5,657.23	76.8203	5,657.23	78.2512	5,657.23	74.0009	5,657.23	67.4841	5,657.23	71.7213	5,657.23	65.3087	5,657.23	70.1222	5,657.23	59.5591	5,657.23	67.4561	5,657.23	51.921	5,657.23	66.7992	5,657.23	67.4084	5,657.23	64.233	5,657.23	50.6252	5,657.23	68.8179	5,657.23	50.2001	5,657.23	68.0442	5,657.23	62.3162	5,657.23	62.8769	5,657.23	63.2408	5,657.23	52.0308
5,856.45	86.3016	5,856.45	85.2968	5,856.45	85.5828	5,856.45	82.5302	5,856.45	83.0021	5,856.45	82.9117	5,856.45	81.9237	5,856.45	84.7447	5,856.45	83.172	5,856.45	84.7768	5,856.45	81.9858	5,856.45	83.566	5,856.45	79.8374	5,856.45	80.4997	5,856.45	79.2389	5,856.45	77.9912	5,856.45	78.8067	5,856.45	74.8766	5,856.45	71.7015	5,856.45	71.4862	5,856.45	68.5753	5,856.45	69.8677	5,856.45	56.6014	5,856.45	68.4487	5,856.45	46.356	5,856.45	65.3861	5,856.45	61.7335	5,856.45	65.3935	5,856.45	41.9838	5,856.45	68.109	5,856.45	56.6516	5,856.45	68.4313	5,856.45	62.3957	5,856.45	65.1899	5,856.45	55.6176	5,856.45	47.3649
6,062.99	86.9695	6,062.99	85.9859	6,062.99	85.8555	6,062.99	83.6703	6,062.99	83.4088	6,062.99	82.9903	6,062.99	82.7681	6,062.99	83.8707	6,062.99	84.3727	6,062.99	84.5787	6,062.99	82.5488	6,062.99	83.5181	6,062.99	77.852	6,062.99	81.1348	6,062.99	78.2689	6,062.99	77.2359	6,062.99	78.2646	6,062.99	75.2278	6,062.99	72.9138	6,062.99	71.7119	6,062.99	71.6851	6,062.99	71.3884	6,062.99	59.6993	6,062.99	69.2895	6,062.99	60.534	6,062.99	67.4992	6,062.99	67.8065	6,062.99	66.8183	6,062.99	54.6572	6,062.99	69.2302	6,062.99	45.2409	6,062.99	69.0564	6,062.99	59.1168	6,062.99	67.3195	6,062.99	61.8339	6,062.99	53.1956
6,276.86	86.8924	6,276.86	86.8456	6,276.86	85.9592	6,276.86	84.6753	6,276.86	84.5169	6,276.86	83.5432	6,276.86	82.9852	6,276.86	83.3716	6,276.86	83.3143	6,276.86	84.0379	6,276.86	81.7869	6,276.86	82.7919	6,276.86	80.0801	6,276.86	80.798	6,276.86	78.6729	6,276.86	77.0418	6,276.86	75.6492	6,276.86	75.7725	6,276.86	71.9759	6,276.86	71.7848	6,276.86	72.3734	6,276.86	70.8342	6,276.86	68.6076	6,276.86	68.8615	6,276.86	60.4465	6,276.86	66.9763	6,276.86	64.4626	6,276.86	66.4276	6,276.86	58.8244	6,276.86	68.4707	6,276.86	59.5478	6,276.86	69.7641	6,276.86	56.532	6,276.86	66.5538	6,276.86	61.6013	6,276.86	53.8614
6,498.05	86.9092	6,498.05	86.6633	6,498.05	86.6302	6,498.05	85.6106	6,498.05	85.8868	6,498.05	84.2077	6,498.05	83.8681	6,498.05	83.3167	6,498.05	83.2371	6,498.05	83.0717	6,498.05	82.6472	6,498.05	81.7185	6,498.05	82.3667	6,498.05	80.4473	6,498.05	78.7082	6,498.05	77.8628	6,498.05	72.0538	6,498.05	74.5247	6,498.05	70.7704	6,498.05	70.7145	6,498.05	70.7064	6,498.05	68.7983	6,498.05	68.9967	6,498.05	66.8975	6,498.05	60.2202	6,498.05	66.1145	6,498.05	59.1014	6,498.05	64.8755	6,498.05	58.9257	6,498.05	66.8462	6,498.05	59.8695	6,498.05	68.9899	6,498.05	53.1982	6,498.05	64.9936	6,498.05	61.9653	6,498.05	44.2623
6,726.56	86.6759	6,726.56	86.6688	6,726.56	87.1568	6,726.56	86.1652	6,726.56	86.2073	6,726.56	84.6922	6,726.56	83.7322	6,726.56	83.062	6,726.56	82.9576	6,726.56	82.2816	6,726.56	83.7677	6,726.56	81.2933	6,726.56	83.3161	6,726.56	79.8182	6,726.56	76.0168	6,726.56	76.6335	6,726.56	74.0763	6,726.56	74.3131	6,726.56	71.648	6,726.56	70.0683	6,726.56	67.5692	6,726.56	68.3435	6,726.56	66.6455	6,726.56	65.5077	6,726.56	58.4508	6,726.56	63.96	6,726.56	61.2913	6,726.56	64.2879	6,726.56	59.1901	6,726.56	66.0493	6,726.56	58.6029	6,726.56	68.3351	6,726.56	49.4664	6,726.56	63.7716	6,726.56	59.5776	6,726.56	45.8696
6,963.87	86.0961	6,963.87	86.0839	6,963.87	86.8774	6,963.87	86.3736	6,963.87	86.5603	6,963.87	84.9789	6,963.87	83.4699	6,963.87	82.6727	6,963.87	81.0077	6,963.87	81.7623	6,963.87	83.0287	6,963.87	81.008	6,963.87	82.1503	6,963.87	78.8442	6,963.87	78.1809	6,963.87	76.0569	6,963.87	78.2069	6,963.87	73.3247	6,963.87	70.8279	6,963.87	68.9507	6,963.87	64.3064	6,963.87	67.7275	6,963.87	64.2388	6,963.87	64.6861	6,963.87	61.8006	6,963.87	63.726	6,963.87	51.6199	6,963.87	63.4347	6,963.87	60.6055	6,963.87	64.3479	6,963.87	54.3007	6,963.87	67.0954	6,963.87	44.6995	6,963.87	63.4002	6,963.87	59.9812	6,963.87	47.9979
7,209.96	85.5018	7,209.96	85.596	7,209.96	86.5258	7,209.96	86.2999	7,209.96	86.2862	7,209.96	84.4857	7,209.96	83.8414	7,209.96	82.2648	7,209.96	80.5098	7,209.96	81.6069	7,209.96	79.8983	7,209.96	80.9362	7,209.96	78.7875	7,209.96	77.6442	7,209.96	79.1655	7,209.96	74.2753	7,209.96	79.431	7,209.96	71.6016	7,209.96	70.5084	7,209.96	69.1344	7,209.96	61.9005	7,209.96	67.5361	7,209.96	63.6515	7,209.96	65.4513	7,209.96	61.7655	7,209.96	61.444	7,209.96	60.4483	7,209.96	61.7661	7,209.96	59.6208	7,209.96	64.9653	7,209.96	55.1442	7,209.96	65.5848	7,209.96	50.4195	7,209.96	62.1031	7,209.96	59.3089	7,209.96	35.6715
7,464.84	84.6919	7,464.84	85.5446	7,464.84	85.8682	7,464.84	86.0258	7,464.84	85.36	7,464.84	83.7347	7,464.84	82.7678	7,464.84	82.1983	7,464.84	81.2699	7,464.84	82.2485	7,464.84	79.813	7,464.84	80.6322	7,464.84	77.0187	7,464.84	77.4185	7,464.84	79.3683	7,464.84	75.8821	7,464.84	77.468	7,464.84	73.844	7,464.84	70.6031	7,464.84	70.0741	7,464.84	59.1275	7,464.84	68.1674	7,464.84	59.7391	7,464.84	66.7637	7,464.84	52.3301	7,464.84	63.207	7,464.84	57.8088	7,464.84	62.9359	7,464.84	59.8842	7,464.84	64.7543	7,464.84	37.8615	7,464.84	65.3155	7,464.84	35.726	7,464.84	63.2106	7,464.84	58.036	7,464.84	39.5759
7,727.05	84.2274	7,727.05	85.0364	7,727.05	85.3622	7,727.05	85.75	7,727.05	84.1505	7,727.05	83.4361	7,727.05	82.2201	7,727.05	82.4686	7,727.05	80.9187	7,727.05	81.8199	7,727.05	78.7039	7,727.05	79.7027	7,727.05	76.0531	7,727.05	78.1229	7,727.05	76.5924	7,727.05	75.6434	7,727.05	74.5092	7,727.05	72.6015	7,727.05	68.7574	7,727.05	68.7033	7,727.05	56.559	7,727.05	66.3766	7,727.05	50.9909	7,727.05	64.287	7,727.05	46.8705	7,727.05	60.8376	7,727.05	57.8023	7,727.05	62.0075	7,727.05	55.5661	7,727.05	63.1744	7,727.05	49.9066	7,727.05	65.2742	7,727.05	41.8715	7,727.05	62.7284	7,727.05	57.3881	7,727.05	44.8708
7,999.51	84.5841	7,999.51	85.1229	7,999.51	84.9487	7,999.51	85.2513	7,999.51	83.019	7,999.51	83.0291	7,999.51	81.4562	7,999.51	82.7672	7,999.51	80.7625	7,999.51	80.575	7,999.51	77.8167	7,999.51	79.8213	7,999.51	74.5919	7,999.51	77.5961	7,999.51	73.4559	7,999.51	74.1729	7,999.51	69.456	7,999.51	70.8041	7,999.51	64.2848	7,999.51	66.5841	7,999.51	57.4953	7,999.51	64.3518	7,999.51	52.3246	7,999.51	61.2486	7,999.51	45.6526	7,999.51	58.4732	7,999.51	55.2177	7,999.51	60.8452	7,999.51	53.9401	7,999.51	62.4227	7,999.51	52.5172	7,999.51	62.8926	7,999.51	49.009	7,999.51	61.044	7,999.51	55.8917	7,999.51	38.395
8,282.23	84.8945	8,282.23	85.5658	8,282.23	84.8369	8,282.23	84.6231	8,282.23	82.8904	8,282.23	83.2834	8,282.23	81.375	8,282.23	82.4846	8,282.23	79.5216	8,282.23	79.7591	8,282.23	76.4071	8,282.23	79.7084	8,282.23	73.4783	8,282.23	76.1883	8,282.23	70.044	8,282.23	71.7781	8,282.23	64.9687	8,282.23	67.1196	8,282.23	64.0388	8,282.23	62.8476	8,282.23	54.744	8,282.23	62.9248	8,282.23	53.4341	8,282.23	59.1869	8,282.23	48.9906	8,282.23	56.4999	8,282.23	56.3788	8,282.23	59.7183	8,282.23	54.689	8,282.23	59.1158	8,282.23	53.8511	8,282.23	60.1981	8,282.23	52.7504	8,282.23	59.668	8,282.23	55.5302	8,282.23	47.0852
8,573.73	85.1879	8,573.73	85.5767	8,573.73	84.9188	8,573.73	84.2467	8,573.73	83.1426	8,573.73	83.6093	8,573.73	81.2429	8,573.73	81.3735	8,573.73	78.0456	8,573.73	80.1054	8,573.73	75.9489	8,573.73	79.773	8,573.73	71.7685	8,573.73	75.3797	8,573.73	62.0197	8,573.73	71.4523	8,573.73	46.4078	8,573.73	68.6407	8,573.73	62.9632	8,573.73	65.3655	8,573.73	45.4541	8,573.73	64.6967	8,573.73	54.349	8,573.73	61.2215	8,573.73	51.1785	8,573.73	58.2112	8,573.73	61.7911	8,573.73	59.5811	8,573.73	56.4996	8,573.73	59.1456	8,573.73	56.2261	8,573.73	60.3123	8,573.73	53.5744	8,573.73	61.0134	8,573.73	57.1209	8,573.73	50.987
8,876.95	85.3946	8,876.95	85.4031	8,876.95	84.3438	8,876.95	84.1037	8,876.95	83.2302	8,876.95	83.7915	8,876.95	81.2475	8,876.95	79.8788	8,876.95	77.0485	8,876.95	80.7739	8,876.95	75.7278	8,876.95	78.877	8,876.95	72.4418	8,876.95	76.202	8,876.95	69.4081	8,876.95	74.0954	8,876.95	65.2936	8,876.95	69.9843	8,876.95	65.3871	8,876.95	66.2764	8,876.95	41.6674	8,876.95	64.0379	8,876.95	59.3019	8,876.95	60.746	8,876.95	55.8006	8,876.95	59.825	8,876.95	62.6852	8,876.95	60.0018	8,876.95	56.2515	8,876.95	59.3353	8,876.95	58.4071	8,876.95	61.3468	8,876.95	55.5549	8,876.95	61.5465	8,876.95	58.6131	8,876.95	53.4146
9,188.96	85.5002	9,188.96	85.0593	9,188.96	83.9393	9,188.96	84.0622	9,188.96	83.6258	9,188.96	83.5084	9,188.96	81.184	9,188.96	79.6758	9,188.96	77.0602	9,188.96	80.4787	9,188.96	75.286	9,188.96	77.2868	9,188.96	74.1847	9,188.96	76.6462	9,188.96	72.635	9,188.96	73.9755	9,188.96	67.3419	9,188.96	68.4122	9,188.96	64.3647	9,188.96	65.2216	9,188.96	40.4799	9,188.96	60.3938	9,188.96	58.6062	9,188.96	58.9902	9,188.96	57.8132	9,188.96	58.6057	9,188.96	61.0823	9,188.96	59.1457	9,188.96	58.5102	9,188.96	58.9425	9,188.96	57.9209	9,188.96	60.4658	9,188.96	55.1224	9,188.96	60.8014	9,188.96	57.8921	9,188.96	53.5072
9,514.16	85.4955	9,514.16	84.9196	9,514.16	84.0908	9,514.16	84.1807	9,514.16	83.8165	9,514.16	83.0985	9,514.16	81.3066	9,514.16	80.7401	9,514.16	78.7396	9,514.16	79.4732	9,514.16	76.6072	9,514.16	76.5766	9,514.16	74.5605	9,514.16	75.6896	9,514.16	72.9126	9,514.16	71.1718	9,514.16	66.6831	9,514.16	65.1309	9,514.16	60.2085	9,514.16	62.8597	9,514.16	44.1274	9,514.16	58.0379	9,514.16	59.0287	9,514.16	56.0611	9,514.16	57.3711	9,514.16	55.8462	9,514.16	59.2009	9,514.16	59.4872	9,514.16	57.9844	9,514.16	58.2899	9,514.16	54.6153	9,514.16	58.5818	9,514.16	48.671	9,514.16	58.0186	9,514.16	56.0151	9,514.16	51.4372
9,849.61	85.4525	9,849.61	85.2571	9,849.61	84.2673	9,849.61	84.2541	9,849.61	84.0842	9,849.61	82.8519	9,849.61	81.3372	9,849.61	80.8469	9,849.61	79.3176	9,849.61	78.5772	9,849.61	76.2593	9,849.61	77.4478	9,849.61	73.7988	9,849.61	74.009	9,849.61	72.7887	9,849.61	70.0425	9,849.61	64.9141	9,849.61	65.2101	9,849.61	49.2908	9,849.61	63.34	9,849.61	52.6169	9,849.61	58.7001	9,849.61	57.8067	9,849.61	54.148	9,849.61	57.041	9,849.61	54.6107	9,849.61	54.974	9,849.61	60.2163	9,849.61	57.7199	9,849.61	57.8757	9,849.61	55.3062	9,849.61	59.9219	9,849.61	45.6353	9,849.61	56.6058	9,849.61	52.8628	9,849.61	49.2918
10,196.8	85.3923	10,196.8	85.5262	10,196.8	84.4778	10,196.8	84.3756	10,196.8	84.0504	10,196.8	82.616	10,196.8	81.3635	10,196.8	80.1548	10,196.8	80.1221	10,196.8	78.5968	10,196.8	75.4914	10,196.8	77.8017	10,196.8	73.9581	10,196.8	73.384	10,196.8	71.5639	10,196.8	71.5041	10,196.8	61.9753	10,196.8	66.8045	10,196.8	59.9443	10,196.8	63.359	10,196.8	52.149	10,196.8	58.9684	10,196.8	58.9475	10,196.8	54.2652	10,196.8	51.6927	10,196.8	56.0733	10,196.8	48.3824	10,196.8	60.3312	10,196.8	57.5304	10,196.8	58.2169	10,196.8	50.4075	10,196.8	59.6815	10,196.8	38.869	10,196.8	55.7336	10,196.8	49.0073	10,196.8	45.4816
10,555.7	85.6673	10,555.7	85.4153	10,555.7	85.0658	10,555.7	84.3633	10,555.7	83.7811	10,555.7	82.5167	10,555.7	81.5799	10,555.7	79.7543	10,555.7	80.5484	10,555.7	78.851	10,555.7	76.0724	10,555.7	76.8764	10,555.7	75.5985	10,555.7	73.0974	10,555.7	70.6268	10,555.7	71.0688	10,555.7	59.924	10,555.7	65.1465	10,555.7	60.0993	10,555.7	61.3631	10,555.7	46.4782	10,555.7	56.0242	10,555.7	59.6563	10,555.7	54.3391	10,555.7	47.6988	10,555.7	55.1206	10,555.7	38.0549	10,555.7	57.9453	10,555.7	57.3609	10,555.7	56.434	10,555.7	48.2392	10,555.7	58.0128	10,555.7	37.3123	10,555.7	54.253	10,555.7	41.7165	10,555.7	43.0912
10,927.7	85.9079	10,927.7	85.2979	10,927.7	85.5875	10,927.7	84.5925	10,927.7	83.8619	10,927.7	82.8687	10,927.7	82.0173	10,927.7	80.2267	10,927.7	80.3007	10,927.7	78.6884	10,927.7	76.1054	10,927.7	75.6577	10,927.7	74.2545	10,927.7	72.4737	10,927.7	68.236	10,927.7	68.5565	10,927.7	60.8871	10,927.7	61.8101	10,927.7	59.7266	10,927.7	57.7859	10,927.7	53.8088	10,927.7	54.139	10,927.7	58.4628	10,927.7	52.3159	10,927.7	50.7082	10,927.7	53.2044	10,927.7	46.0569	10,927.7	54.0239	10,927.7	51.6128	10,927.7	53.1227	10,927.7	41.4724	10,927.7	55.7622	10,927.7	42.9551	10,927.7	54.2424	10,927.7	43.4417	10,927.7	40.5119
11,313	86.09	11,313	85.4194	11,313	85.8271	11,313	85.2054	11,313	83.8408	11,313	83.5412	11,313	82.4604	11,313	80.8577	11,313	79.679	11,313	78.4265	11,313	76.0018	11,313	75.4604	11,313	73.6377	11,313	71.5422	11,313	66.3399	11,313	67.2289	11,313	61.0354	11,313	61.2097	11,313	56.2056	11,313	57.6109	11,313	54.7188	11,313	56.4316	11,313	56.1786	11,313	49.8392	11,313	47.5117	11,313	53.9124	11,313	42.2424	11,313	52.157	11,313	51.5798	11,313	52.2683	11,313	41.7069	11,313	55.7459	11,313	39.6482	11,313	54.2615	11,313	43.3652	11,313	37.7125
11,712.9	86.3491	11,712.9	85.7999	11,712.9	85.613	11,712.9	85.6509	11,712.9	83.7391	11,712.9	83.8971	11,712.9	82.4361	11,712.9	80.9637	11,712.9	78.951	11,712.9	78.0258	11,712.9	75.8963	11,712.9	75.0957	11,712.9	71.3656	11,712.9	70.801	11,712.9	62.3915	11,712.9	67.2747	11,712.9	60.9952	11,712.9	60.7754	11,712.9	51.1587	11,712.9	57.971	11,712.9	58.2764	11,712.9	55.4049	11,712.9	56.7068	11,712.9	47.6337	11,712.9	42.0105	11,712.9	54.5465	11,712.9	45.9051	11,712.9	51.6988	11,712.9	52.9687	11,712.9	50.5519	11,712.9	46.0032	11,712.9	55.704	11,712.9	44.3733	11,712.9	54.4346	11,712.9	40.41	11,712.9	38.5844
12,126	86.8155	12,126	86.3964	12,126	85.4789	12,126	85.6305	12,126	84.0598	12,126	83.8428	12,126	82.1223	12,126	80.7091	12,126	78.2568	12,126	77.3831	12,126	74.9972	12,126	73.8838	12,126	66.6748	12,126	69.1638	12,126	65.5941	12,126	65.8473	12,126	58.032	12,126	58.1638	12,126	51.5029	12,126	54.9485	12,126	57.5121	12,126	52.6389	12,126	54.9318	12,126	47.64	12,126	45.4907	12,126	53.36	12,126	46.2667	12,126	48.5486	12,126	51.9954	12,126	48.1542	12,126	46.9345	12,126	53.6296	12,126	44.7539	12,126	52.1265	12,126	42.2148	12,126	40.8515
12,553.7	87.5961	12,553.7	86.9812	12,553.7	86.2577	12,553.7	85.814	12,553.7	84.5533	12,553.7	83.8487	12,553.7	81.5798	12,553.7	80.4008	12,553.7	77.7355	12,553.7	76.6498	12,553.7	73.3173	12,553.7	71.998	12,553.7	66.0524	12,553.7	66.8882	12,553.7	63.7818	12,553.7	61.8098	12,553.7	56.0389	12,553.7	54.1682	12,553.7	47.948	12,553.7	48.8057	12,553.7	54.2161	12,553.7	49.4166	12,553.7	49.5827	12,553.7	48.0731	12,553.7	39.3474	12,553.7	49.5863	12,553.7	39.4169	12,553.7	44.3772	12,553.7	47.4121	12,553.7	46.7327	12,553.7	41.1823	12,553.7	48.8666	12,553.7	44.3858	12,553.7	45.2619	12,553.7	42.2772	12,553.7	41.4637
12,996.1	87.9888	12,996.1	87.2998	12,996.1	87.0317	12,996.1	85.9647	12,996.1	84.8129	12,996.1	83.4114	12,996.1	81.0164	12,996.1	79.8042	12,996.1	76.8124	12,996.1	75.4366	12,996.1	70.9927	12,996.1	70.3251	12,996.1	64.6955	12,996.1	62.8543	12,996.1	60.3179	12,996.1	58.2957	12,996.1	53.7788	12,996.1	49.642	12,996.1	43.5939	12,996.1	41.5175	12,996.1	52.2925	12,996.1	40.5892	12,996.1	46.8413	12,996.1	44.5143	12,996.1	33.9034	12,996.1	43.0574	12,996.1	35.7919	12,996.1	39.3845	12,996.1	39.0657	12,996.1	42.7832	12,996.1	37.6445	12,996.1	43.356	12,996.1	42.911	12,996.1	33.5459	12,996.1	43.2754	12,996.1	41.63
13,454.6	88.3139	13,454.6	87.7158	13,454.6	87.3762	13,454.6	85.9405	13,454.6	84.728	13,454.6	82.8	13,454.6	80.5846	13,454.6	78.7498	13,454.6	75.1086	13,454.6	73.9427	13,454.6	67.9029	13,454.6	67.293	13,454.6	62.7641	13,454.6	57.493	13,454.6	56.4067	13,454.6	52.2531	13,454.6	55.5705	13,454.6	35.5472	13,454.6	42.6179	13,454.6	29.074	13,454.6	56.2897	13,454.6	36.3817	13,454.6	49.5884	13,454.6	27.1415	13,454.6	38.1877	13,454.6	30.5921	13,454.6	29.3928	13,454.6	30.333	13,454.6	37.6322	13,454.6	34.0433	13,454.6	40.2191	13,454.6	27.386	13,454.6	43.0226	13,454.6	31.8086	13,454.6	42.632	13,454.6	38.835
13,929.2	88.3482	13,929.2	87.8185	13,929.2	87.1152	13,929.2	85.7466	13,929.2	84.3658	13,929.2	82.354	13,929.2	80.1111	13,929.2	77.5514	13,929.2	74.4755	13,929.2	71.8662	13,929.2	66.4917	13,929.2	63.5587	13,929.2	60.0637	13,929.2	53.2827	13,929.2	57.5748	13,929.2	43.5012	13,929.2	56.3679	13,929.2	36.4443	13,929.2	43.4486	13,929.2	38.9731	13,929.2	58.2363	13,929.2	34.4759	13,929.2	47.4445	13,929.2	37.4496	13,929.2	44.6174	13,929.2	23.2364	13,929.2	36.6951	13,929.2	27.1982	13,929.2	41.0802	13,929.2	17.0891	13,929.2	44.8948	13,929.2	39.3134	13,929.2	45.3754	13,929.2	39.2718	13,929.2	43.0526	13,929.2	41.3638
14,419.9	88.2165	14,419.9	87.5825	14,419.9	86.7578	14,419.9	85.3916	14,419.9	83.8897	14,419.9	82.039	14,419.9	79.6254	14,419.9	76.5616	14,419.9	73.7925	14,419.9	68.9748	14,419.9	64.5622	14,419.9	60.3781	14,419.9	58.6293	14,419.9	50.9287	14,419.9	61.8376	14,419.9	46.1938	14,419.9	57.4958	14,419.9	41.9568	14,419.9	52.2195	14,419.9	45.3379	14,419.9	57.7483	14,419.9	36.8512	14,419.9	43.0035	14,419.9	34.8712	14,419.9	47.6981	14,419.9	36.8966	14,419.9	45.9611	14,419.9	38.6429	14,419.9	44.772	14,419.9	28.0842	14,419.9	45.9695	14,419.9	40.0465	14,419.9	47.1513	14,419.9	48.7094	14,419.9	46.2205	14,419.9	44.7287
14,928.2	88.183	14,928.2	87.3805	14,928.2	86.7502	14,928.2	84.958	14,928.2	83.5946	14,928.2	81.5401	14,928.2	78.8793	14,928.2	75.2852	14,928.2	71.2919	14,928.2	66.2655	14,928.2	63.016	14,928.2	53.5749	14,928.2	62.2567	14,928.2	52.2459	14,928.2	63.6843	14,928.2	52.5214	14,928.2	61.2499	14,928.2	45.5178	14,928.2	55.009	14,928.2	46.1185	14,928.2	55.1708	14,928.2	44.1389	14,928.2	48.5693	14,928.2	35.1856	14,928.2	50.9004	14,928.2	43.75	14,928.2	50.757	14,928.2	38.8686	14,928.2	42.537	14,928.2	36.8813	14,928.2	47.6358	14,928.2	37.9886	14,928.2	46.1567	14,928.2	51.8374	14,928.2	46.463	14,928.2	45.6258
15,455.6	88.255	15,455.6	87.3532	15,455.6	86.821	15,455.6	84.7672	15,455.6	83.2681	15,455.6	81.011	15,455.6	77.5788	15,455.6	73.3487	15,455.6	67.0606	15,455.6	64.6025	15,455.6	60.6492	15,455.6	34.3374	15,455.6	62.3811	15,455.6	53.5334	15,455.6	60.9241	15,455.6	52.9919	15,455.6	62.4273	15,455.6	47.4598	15,455.6	50.8654	15,455.6	42.0948	15,455.6	59.0813	15,455.6	42.5129	15,455.6	46.6083	15,455.6	40.0629	15,455.6	46.9295	15,455.6	44.6122	15,455.6	51.367	15,455.6	35.3455	15,455.6	50.4109	15,455.6	33.6382	15,455.6	48.5374	15,455.6	47.8662	15,455.6	46.6487	15,455.6	50.9528	15,455.6	45.3849	15,455.6	43.5347
16,000.5	87.9599	16,000.5	87.0784	16,000.5	86.542	16,000.5	84.6455	16,000.5	82.6703	16,000.5	80.1399	16,000.5	76.1296	16,000.5	71.3447	16,000.5	60.782	16,000.5	61.6798	16,000.5	61.6923	16,000.5	35.4982	16,000.5	64.2528	16,000.5	55.48	16,000.5	64.8975	16,000.5	52.4548	16,000.5	59.4382	16,000.5	42.9682	16,000.5	46.5603	16,000.5	41.7032	16,000.5	59.9836	16,000.5	45.2677	16,000.5	45.2412	16,000.5	41.4057	16,000.5	48.7685	16,000.5	45.7302	16,000.5	52.7761	16,000.5	27.1087	16,000.5	53.0871	16,000.5	40.31	16,000.5	48.8727	16,000.5	51.2943	16,000.5	47.727	16,000.5	48.8724	16,000.5	47.0678	16,000.5	43.9816
16,564.5	87.6599	16,564.5	86.8452	16,564.5	86.0047	16,564.5	84.2916	16,564.5	81.9065	16,564.5	79.018	16,564.5	74.4673	16,564.5	70.0876	16,564.5	59.3281	16,564.5	56.7257	16,564.5	63.5967	16,564.5	44.2984	16,564.5	64.5241	16,564.5	54.3933	16,564.5	61.0005	16,564.5	52.8202	16,564.5	61.9716	16,564.5	41.9698	16,564.5	50.9527	16,564.5	35.7314	16,564.5	58.0751	16,564.5	44.4041	16,564.5	43.0404	16,564.5	39.5936	16,564.5	47.2627	16,564.5	46.17	16,564.5	52.1211	16,564.5	29.5849	16,564.5	52.5885	16,564.5	41.4103	16,564.5	48.7179	16,564.5	54.5927	16,564.5	48.9281	16,564.5	47.8445	16,564.5	44.6654	16,564.5	46.2592
17,148.9	87.5528	17,148.9	86.6724	17,148.9	85.6285	17,148.9	84.0042	17,148.9	80.9503	17,148.9	78.101	17,148.9	70.8181	17,148.9	68.1232	17,148.9	61.0925	17,148.9	52.7945	17,148.9	66.9018	17,148.9	49.8394	17,148.9	63.4593	17,148.9	53.1056	17,148.9	60.8003	17,148.9	51.9972	17,148.9	62.6706	17,148.9	49.5472	17,148.9	48.7957	17,148.9	36.9592	17,148.9	58.098	17,148.9	44.7152	17,148.9	48.1384	17,148.9	40.3719	17,148.9	47.5411	17,148.9	46.2618	17,148.9	50.386	17,148.9	38.4524	17,148.9	52.177	17,148.9	41.8387	17,148.9	49.9483	17,148.9	55.3491	17,148.9	49.6186	17,148.9	50.2114	17,148.9	41.7878	17,148.9	47.8206
17,752.4	87.4868	17,752.4	86.6162	17,752.4	85.5166	17,752.4	83.7503	17,752.4	80.1391	17,752.4	76.7254	17,752.4	65.0029	17,752.4	65.6707	17,752.4	63.4952	17,752.4	54.4105	17,752.4	66.7097	17,752.4	55.2875	17,752.4	63.1607	17,752.4	54.6809	17,752.4	62.2118	17,752.4	53.696	17,752.4	60.3983	17,752.4	52.7487	17,752.4	51.1011	17,752.4	47.184	17,752.4	59.9318	17,752.4	44.9641	17,752.4	47.6273	17,752.4	45.8794	17,752.4	44.2869	17,752.4	49.217	17,752.4	51.8541	17,752.4	43.1374	17,752.4	54.8155	17,752.4	48.0762	17,752.4	50.5457	17,752.4	56.9451	17,752.4	52.6114	17,752.4	52.3084	17,752.4	36.584	17,752.4	50.8071
18,379.4	87.063	18,379.4	86.5123	18,379.4	85.1296	18,379.4	83.1824	18,379.4	78.315	18,379.4	74.6149	18,379.4	54.1061	18,379.4	64.3666	18,379.4	65.2981	18,379.4	57.9098	18,379.4	67.7472	18,379.4	57.4789	18,379.4	62.1018	18,379.4	56.8291	18,379.4	59.1223	18,379.4	54.2303	18,379.4	59.2202	18,379.4	54.1926	18,379.4	56.4887	18,379.4	49.9929	18,379.4	60.9585	18,379.4	44.9665	18,379.4	43.651	18,379.4	45.1652	18,379.4	44.4611	18,379.4	48.9034	18,379.4	51.0323	18,379.4	46.4134	18,379.4	55.4623	18,379.4	49.7742	18,379.4	50.8524	18,379.4	57.103	18,379.4	53.6513	18,379.4	52.8226	18,379.4	42.2859	18,379.4	53.6266
19,026.9	86.7679	19,026.9	86.1636	19,026.9	84.3369	19,026.9	82.2133	19,026.9	76.0425	19,026.9	73.2619	19,026.9	55.8133	19,026.9	64.3768	19,026.9	63.2945	19,026.9	61.3873	19,026.9	67.3238	19,026.9	59.5317	19,026.9	57.5017	19,026.9	56.9857	19,026.9	59.9874	19,026.9	54.9921	19,026.9	58.3581	19,026.9	51.0854	19,026.9	56.0443	19,026.9	48.3292	19,026.9	59.8711	19,026.9	44.9177	19,026.9	36.9526	19,026.9	41.943	19,026.9	46.5426	19,026.9	45.2589	19,026.9	52.253	19,026.9	46.0007	19,026.9	54.6473	19,026.9	48.0582	19,026.9	50.1351	19,026.9	55.7014	19,026.9	50.7163	19,026.9	50.7221	19,026.9	46.68	19,026.9	54.0011
19,697.8	86.978	19,697.8	85.7327	19,697.8	84.1711	19,697.8	81.0071	19,697.8	75.0285	19,697.8	71.3066	19,697.8	59.862	19,697.8	65.2977	19,697.8	62.5119	19,697.8	62.3918	19,697.8	66.2848	19,697.8	59.9617	19,697.8	58.9107	19,697.8	56.5876	19,697.8	57.794	19,697.8	52.3933	19,697.8	56.2803	19,697.8	51.0413	19,697.8	55.083	19,697.8	48.1338	19,697.8	60.1037	19,697.8	44.6547	19,697.8	48.1267	19,697.8	43.6765	19,697.8	44.8341	19,697.8	46.3708	19,697.8	53.1171	19,697.8	43.2482	19,697.8	52.2787	19,697.8	48.0004	19,697.8	47.73	19,697.8	55.8978	19,697.8	48.7573	19,697.8	49.971	19,697.8	46.288	19,697.8	54.2621
19,999.5	86.9774	19,999.5	85.5152	19,999.5	84.0541	19,999.5	80.3455	19,999.5	74.6121	19,999.5	69.9091	19,999.5	58.8532	19,999.5	66.056	19,999.5	63.4809	19,999.5	62.0466	19,999.5	66.697	19,999.5	60.3665	19,999.5	60.2543	19,999.5	56.9523	19,999.5	58.601	19,999.5	49.5811	19,999.5	58.8357	19,999.5	50.9282	19,999.5	55.2345	19,999.5	49.4243	19,999.5	60.1633	19,999.5	44.4385	19,999.5	51.5467	19,999.5	44.8002	19,999.5	49.0148	19,999.5	43.2914	19,999.5	53.2543	19,999.5	25.7591	19,999.5	50.473	19,999.5	55.0486	19,999.5	43.5698	19,999.5	56.2898	19,999.5	53.218	19,999.5	49.4338	19,999.5	48.1086	19,999.5	55.6474
