"SPL Vertical"																																																																							
"On-Axis"		"10°"		"-10°"		"20°"		"-20°"		"30°"		"-30°"		"40°"		"-40°"		"50°"		"-50°"		"60°"		"-60°"		"70°"		"-70°"		"80°"		"-80°"		"90°"		"-90°"		"100°"		"-100°"		"110°"		"-110°"		"120°"		"-120°"		"130°"		"-130°"		"140°"		"-140°"		"150°"		"-150°"		"160°"		"-160°"		"170°"		"-170°"		"180°"	
"Frequency [Hz]"	"Sound Pessure Level [dB]  / [2.83V 1m] "	"Frequency [Hz]"	"Sound Pessure Level [dB]  / [2.83V 1m] "	"Frequency [Hz]"	"Sound Pessure Level [dB]  / [2.83V 1m] "	"Frequency [Hz]"	"Sound Pessure Level [dB]  / [2.83V 1m] "	"Frequency [Hz]"	"Sound Pessure Level [dB]  / [2.83V 1m] "	"Frequency [Hz]"	"Sound Pessure Level [dB]  / [2.83V 1m] "	"Frequency [Hz]"	"Sound Pessure Level [dB]  / [2.83V 1m] "	"Frequency [Hz]"	"Sound Pessure Level [dB]  / [2.83V 1m] "	"Frequency [Hz]"	"Sound Pessure Level [dB]  / [2.83V 1m] "	"Frequency [Hz]"	"Sound Pessure Level [dB]  / [2.83V 1m] "	"Frequency [Hz]"	"Sound Pessure Level [dB]  / [2.83V 1m] "	"Frequency [Hz]"	"Sound Pessure Level [dB]  / [2.83V 1m] "	"Frequency [Hz]"	"Sound Pessure Level [dB]  / [2.83V 1m] "	"Frequency [Hz]"	"Sound Pessure Level [dB]  / [2.83V 1m] "	"Frequency [Hz]"	"Sound Pessure Level [dB]  / [2.83V 1m] "	"Frequency [Hz]"	"Sound Pessure Level [dB]  / [2.83V 1m] "	"Frequency [Hz]"	"Sound Pessure Level [dB]  / [2.83V 1m] "	"Frequency [Hz]"	"Sound Pessure Level [dB]  / [2.83V 1m] "	"Frequency [Hz]"	"Sound Pessure Level [dB]  / [2.83V 1m] "	"Frequency [Hz]"	"Sound Pessure Level [dB]  / [2.83V 1m] "	"Frequency [Hz]"	"Sound Pessure Level [dB]  / [2.83V 1m] "	"Frequency [Hz]"	"Sound Pessure Level [dB]  / [2.83V 1m] "	"Frequency [Hz]"	"Sound Pessure Level [dB]  / [2.83V 1m] "	"Frequency [Hz]"	"Sound Pessure Level [dB]  / [2.83V 1m] "	"Frequency [Hz]"	"Sound Pessure Level [dB]  / [2.83V 1m] "	"Frequency [Hz]"	"Sound Pessure Level [dB]  / [2.83V 1m] "	"Frequency [Hz]"	"Sound Pessure Level [dB]  / [2.83V 1m] "	"Frequency [Hz]"	"Sound Pessure Level [dB]  / [2.83V 1m] "	"Frequency [Hz]"	"Sound Pessure Level [dB]  / [2.83V 1m] "	"Frequency [Hz]"	"Sound Pessure Level [dB]  / [2.83V 1m] "	"Frequency [Hz]"	"Sound Pessure Level [dB]  / [2.83V 1m] "	"Frequency [Hz]"	"Sound Pessure Level [dB]  / [2.83V 1m] "	"Frequency [Hz]"	"Sound Pessure Level [dB]  / [2.83V 1m] "	"Frequency [Hz]"	"Sound Pessure Level [dB]  / [2.83V 1m] "	"Frequency [Hz]"	"Sound Pessure Level [dB]  / [2.83V 1m] "	"Frequency [Hz]"	"Sound Pessure Level [dB]  / [2.83V 1m] "
20.5078	59.8835	20.5078	59.7921	20.5078	59.9689	20.5078	59.6977	20.5078	60.0454	20.5078	59.6026	20.5078	60.1102	20.5078	59.5093	20.5078	60.16	20.5078	59.4198	20.5078	60.1923	20.5078	59.3361	20.5078	60.2044	20.5078	59.2597	20.5078	60.1946	20.5078	59.1921	20.5078	60.162	20.5078	59.1346	20.5078	60.1069	20.5078	59.0881	20.5078	60.031	20.5078	59.0536	20.5078	59.9372	20.5078	59.0317	20.5078	59.83	20.5078	59.0231	20.5078	59.7147	20.5078	59.0284	20.5078	59.597	20.5078	59.0481	20.5078	59.4825	20.5078	59.0829	20.5078	59.3758	20.5078	59.1333	20.5078	59.2806	20.5078	59.1993
21.2402	59.9979	21.2402	59.8964	21.2402	60.0936	21.2402	59.7924	21.2402	60.18	21.2402	59.6887	21.2402	60.2537	21.2402	59.588	21.2402	60.3112	21.2402	59.4924	21.2402	60.3494	21.2402	59.4039	21.2402	60.3655	21.2402	59.324	21.2402	60.3576	21.2402	59.2538	21.2402	60.3248	21.2402	59.1945	21.2402	60.2674	21.2402	59.1469	21.2402	60.1871	21.2402	59.1118	21.2402	60.0871	21.2402	59.0898	21.2402	59.972	21.2402	59.0817	21.2402	59.8471	21.2402	59.0883	21.2402	59.7187	21.2402	59.1106	21.2402	59.5928	21.2402	59.1493	21.2402	59.4749	21.2402	59.2053	21.2402	59.3692	21.2402	59.2788
21.9727	61.004	21.9727	60.9077	21.9727	61.0944	21.9727	60.8085	21.9727	61.1758	21.9727	60.7092	21.9727	61.2451	21.9727	60.6124	21.9727	61.2996	21.9727	60.5204	21.9727	61.3364	21.9727	60.4355	21.9727	61.3535	21.9727	60.3595	21.9727	61.3496	21.9727	60.294	21.9727	61.324	21.9727	60.2406	21.9727	61.2772	21.9727	60.2002	21.9727	61.2109	21.9727	60.174	21.9727	61.1276	21.9727	60.1624	21.9727	61.031	21.9727	60.166	21.9727	60.9252	21.9727	60.1849	21.9727	60.8148	21.9727	60.2191	21.9727	60.7042	21.9727	60.2682	21.9727	60.5976	21.9727	60.3318	21.9727	60.4982	21.9727	60.409
22.7051	61.2256	22.7051	61.1331	22.7051	61.3112	22.7051	61.0362	22.7051	61.3868	22.7051	60.9378	22.7051	61.4496	22.7051	60.8403	22.7051	61.4969	22.7051	60.7461	22.7051	61.5263	22.7051	60.6573	22.7051	61.5358	22.7051	60.5759	22.7051	61.5239	22.7051	60.5036	22.7051	61.4904	22.7051	60.4421	22.7051	61.4357	22.7051	60.3927	22.7051	61.3618	22.7051	60.3567	22.7051	61.2714	22.7051	60.335	22.7051	61.1686	22.7051	60.3286	22.7051	61.0577	22.7051	60.3382	22.7051	60.9435	22.7051	60.364	22.7051	60.8305	22.7051	60.4061	22.7051	60.723	22.7051	60.4641	22.7051	60.6243	22.7051	60.5374
23.4375	62.1686	23.4375	62.0728	23.4375	62.2585	23.4375	61.9742	23.4375	62.3396	23.4375	61.8754	23.4375	62.4087	23.4375	61.779	23.4375	62.4628	23.4375	61.6872	23.4375	62.4993	23.4375	61.6022	23.4375	62.5159	23.4375	61.5256	23.4375	62.5109	23.4375	61.4592	23.4375	62.4837	23.4375	61.4043	23.4375	62.4348	23.4375	61.3621	23.4375	62.3657	23.4375	61.3334	23.4375	62.2794	23.4375	61.3191	23.4375	62.1797	23.4375	61.3197	23.4375	62.071	23.4375	61.3356	23.4375	61.9582	23.4375	61.3668	23.4375	61.846	23.4375	61.4134	23.4375	61.7384	23.4375	61.4749	23.4375	61.6391	23.4375	61.5506
24.1699	62.6689	24.1699	62.5743	24.1699	62.7583	24.1699	62.4775	24.1699	62.8395	24.1699	62.3811	24.1699	62.9095	24.1699	62.2876	24.1699	62.9652	24.1699	62.1993	24.1699	63.0039	24.1699	62.1181	24.1699	63.0233	24.1699	62.0458	24.1699	63.022	24.1699	61.9839	24.1699	62.9991	24.1699	61.9336	24.1699	62.9551	24.1699	61.8961	24.1699	62.8916	24.1699	61.872	24.1699	62.8112	24.1699	61.8622	24.1699	62.7175	24.1699	61.867	24.1699	62.6146	24.1699	61.8865	24.1699	62.507	24.1699	61.921	24.1699	62.399	24.1699	61.97	24.1699	62.2946	24.1699	62.0331	24.1699	62.1971	24.1699	62.1093
25.6348	63.4692	25.6348	63.3733	25.6348	63.5591	25.6348	63.2744	25.6348	63.6401	25.6348	63.1753	25.6348	63.709	25.6348	63.0787	25.6348	63.763	25.6348	62.9869	25.6348	63.7993	25.6348	62.9021	25.6348	63.8159	25.6348	62.8261	25.6348	63.8113	25.6348	62.7606	25.6348	63.7852	25.6348	62.7071	25.6348	63.7382	25.6348	62.6667	25.6348	63.6719	25.6348	62.6404	25.6348	63.5892	25.6348	62.6289	25.6348	63.4937	25.6348	62.6327	25.6348	63.3894	25.6348	62.652	25.6348	63.2806	25.6348	62.6867	25.6348	63.1716	25.6348	62.7366	25.6348	63.0662	25.6348	62.8008	25.6348	62.9675	25.6348	62.8783
26.3672	63.9666	26.3672	63.8698	26.3672	64.0572	26.3672	63.7698	26.3672	64.1386	26.3672	63.6695	26.3672	64.2076	26.3672	63.5716	26.3672	64.2612	26.3672	63.4783	26.3672	64.2968	26.3672	63.3918	26.3672	64.3121	26.3672	63.314	26.3672	64.3057	26.3672	63.2464	26.3672	64.2772	26.3672	63.1906	26.3672	64.2271	26.3672	63.1475	26.3672	64.1571	26.3672	63.1183	26.3672	64.0702	26.3672	63.1035	26.3672	63.9701	26.3672	63.1039	26.3672	63.8612	26.3672	63.1197	26.3672	63.7481	26.3672	63.1513	26.3672	63.6354	26.3672	63.1984	26.3672	63.5271	26.3672	63.2607	26.3672	63.4268	26.3672	63.3373
27.0996	64.5002	27.0996	64.4056	27.0996	64.5893	27.0996	64.3085	27.0996	64.6699	27.0996	64.2117	27.0996	64.739	27.0996	64.1177	27.0996	64.7935	27.0996	64.0289	27.0996	64.831	27.0996	63.9472	27.0996	64.8492	27.0996	63.8746	27.0996	64.8468	27.0996	63.8125	27.0996	64.8233	27.0996	63.7622	27.0996	64.7792	27.0996	63.7248	27.0996	64.7161	27.0996	63.7012	27.0996	64.6367	27.0996	63.6918	27.0996	64.5444	27.0996	63.6972	27.0996	64.4432	27.0996	63.7174	27.0996	64.3371	27.0996	63.7526	27.0996	64.2305	27.0996	63.8022	27.0996	64.1271	27.0996	63.8658	27.0996	64.0301	27.0996	63.9423
27.832	64.9408	27.832	64.8437	27.832	65.0325	27.832	64.7443	27.832	65.1157	27.832	64.6456	27.832	65.1872	27.832	64.55	27.832	65.2442	27.832	64.4602	27.832	65.2839	27.832	64.3781	27.832	65.3041	27.832	64.3057	27.832	65.3036	27.832	64.2445	27.832	65.2816	27.832	64.1959	27.832	65.2389	27.832	64.1608	27.832	65.1771	27.832	64.1399	27.832	65.0986	27.832	64.1337	27.832	65.007	27.832	64.1425	27.832	64.9062	27.832	64.1662	27.832	64.8004	27.832	64.2046	27.832	64.6935	27.832	64.2573	27.832	64.5894	27.832	64.3235	27.832	64.4914	27.832	64.4021
29.2969	65.7137	29.2969	65.6152	29.2969	65.806	29.2969	65.5136	29.2969	65.8891	29.2969	65.4118	29.2969	65.9598	29.2969	65.3126	29.2969	66.0152	29.2969	65.2183	29.2969	66.0528	29.2969	65.1314	29.2969	66.0705	29.2969	65.0538	29.2969	66.0669	29.2969	64.9874	29.2969	66.0417	29.2969	64.9337	29.2969	65.9955	29.2969	64.8938	29.2969	65.93	29.2969	64.8688	29.2969	65.848	29.2969	64.8594	29.2969	65.753	29.2969	64.8659	29.2969	65.6488	29.2969	64.8884	29.2969	65.5397	29.2969	64.9267	29.2969	65.4297	29.2969	64.9803	29.2969	65.3225	29.2969	65.0483	29.2969	65.2214	29.2969	65.1292
30.0293	66.1276	30.0293	66.0307	30.0293	66.2181	30.0293	65.9304	30.0293	66.2993	30.0293	65.8297	30.0293	66.3681	30.0293	65.7313	30.0293	66.4217	30.0293	65.6375	30.0293	66.4576	30.0293	65.5507	30.0293	66.4738	30.0293	65.473	30.0293	66.469	30.0293	65.406	30.0293	66.443	30.0293	65.3514	30.0293	66.3964	30.0293	65.3105	30.0293	66.3309	30.0293	65.2842	30.0293	66.2493	30.0293	65.2733	30.0293	66.1548	30.0293	65.2784	30.0293	66.0515	30.0293	65.2995	30.0293	65.9433	30.0293	65.3366	30.0293	65.8343	30.0293	65.3892	30.0293	65.7279	30.0293	65.4562	30.0293	65.6277	30.0293	65.5363
31.4941	67.0738	31.4941	66.9789	31.4941	67.163	31.4941	66.8813	31.4941	67.2434	31.4941	66.7837	31.4941	67.3118	31.4941	66.689	31.4941	67.3655	31.4941	66.5993	31.4941	67.4017	31.4941	66.517	31.4941	67.4185	31.4941	66.4438	31.4941	67.4147	31.4941	66.3814	31.4941	67.3898	31.4941	66.3311	31.4941	67.3447	31.4941	66.2941	31.4941	67.281	31.4941	66.271	31.4941	67.2016	31.4941	66.2626	31.4941	67.1099	31.4941	66.2691	31.4941	67.0097	31.4941	66.2904	31.4941	66.9052	31.4941	66.3265	31.4941	66.8004	31.4941	66.3767	31.4941	66.6986	31.4941	66.4404	31.4941	66.6031	31.4941	66.5164
32.2266	67.4551	32.2266	67.3568	32.2266	67.5477	32.2266	67.2559	32.2266	67.6314	32.2266	67.1555	32.2266	67.7031	32.2266	67.0581	32.2266	67.7597	32.2266	66.9664	32.2266	67.7986	32.2266	66.8826	32.2266	67.8176	32.2266	66.8084	32.2266	67.8157	32.2266	66.7457	32.2266	67.7923	32.2266	66.6957	32.2266	67.7484	32.2266	66.6596	32.2266	67.6855	32.2266	66.6382	32.2266	67.6066	32.2266	66.6319	32.2266	67.5148	32.2266	66.6411	32.2266	67.4141	32.2266	66.6657	32.2266	67.3084	32.2266	66.7055	32.2266	67.2016	32.2266	66.7597	32.2266	67.0971	32.2266	66.8276	32.2266	66.9983	32.2266	66.9077
33.6914	68.1347	33.6914	68.0406	33.6914	68.2229	33.6914	67.9436	33.6914	68.3023	33.6914	67.8466	33.6914	68.3697	33.6914	67.7523	33.6914	68.4224	33.6914	67.663	33.6914	68.458	33.6914	67.581	33.6914	68.4745	33.6914	67.5081	33.6914	68.4708	33.6914	67.4461	33.6914	68.4466	33.6914	67.3962	33.6914	68.4028	33.6914	67.3595	33.6914	68.341	33.6914	67.337	33.6914	68.2638	33.6914	67.329	33.6914	68.1746	33.6914	67.3361	33.6914	68.0769	33.6914	67.3582	33.6914	67.9746	33.6914	67.3952	33.6914	67.8713	33.6914	67.4465	33.6914	67.7705	33.6914	67.5111	33.6914	67.6751	33.6914	67.588
34.4238	68.6258	34.4238	68.5322	34.4238	68.7135	34.4238	68.436	34.4238	68.7924	34.4238	68.3401	34.4238	68.8594	34.4238	68.2471	34.4238	68.9118	34.4238	68.1597	34.4238	68.947	34.4238	68.0799	34.4238	68.9633	34.4238	68.0098	34.4238	68.9598	34.4238	67.951	34.4238	68.9362	34.4238	67.9047	34.4238	68.8934	34.4238	67.8719	34.4238	68.8333	34.4238	67.8532	34.4238	68.7585	34.4238	67.849	34.4238	68.6722	34.4238	67.8591	34.4238	68.5782	34.4238	67.8834	34.4238	68.4799	34.4238	67.9215	34.4238	68.3811	34.4238	67.9726	34.4238	68.2847	34.4238	68.0358	34.4238	68.1935	34.4238	68.1099
35.8887	69.2193	35.8887	69.1218	35.8887	69.3113	35.8887	69.0221	35.8887	69.3948	35.8887	68.923	35.8887	69.4666	35.8887	68.8275	35.8887	69.5238	35.8887	68.7382	35.8887	69.564	35.8887	68.6573	35.8887	69.5853	35.8887	68.587	35.8887	69.5864	35.8887	68.5289	35.8887	69.5672	35.8887	68.4845	35.8887	69.5284	35.8887	68.4546	35.8887	69.4716	35.8887	68.4399	35.8887	69.3995	35.8887	68.4407	35.8887	69.3151	35.8887	68.4568	35.8887	69.2221	35.8887	68.4878	35.8887	69.1238	35.8887	68.5329	35.8887	69.0237	35.8887	68.5911	35.8887	68.9248	35.8887	68.661	35.8887	68.8298	35.8887	68.7412
37.3535	70.0319	37.3535	69.9318	37.3535	70.1253	37.3535	69.8282	37.3535	70.2088	37.3535	69.7243	37.3535	70.2792	37.3535	69.6229	37.3535	70.3335	37.3535	69.5266	37.3535	70.3692	37.3535	69.438	37.3535	70.3843	37.3535	69.3591	37.3535	70.3778	37.3535	69.2917	37.3535	70.3494	37.3535	69.2375	37.3535	70.3001	37.3535	69.1975	37.3535	70.2319	37.3535	69.1727	37.3535	70.1478	37.3535	69.1636	37.3535	70.0514	37.3535	69.1705	37.3535	69.9466	37.3535	69.1933	37.3535	69.8377	37.3535	69.2317	37.3535	69.7285	37.3535	69.285	37.3535	69.6226	37.3535	69.3522	37.3535	69.5229	37.3535	69.4321
38.8184	70.6119	38.8184	70.51	38.8184	70.7075	38.8184	70.405	38.8184	70.7935	38.8184	70.2999	38.8184	70.8669	38.8184	70.1978	38.8184	70.9246	38.8184	70.1013	38.8184	70.9642	38.8184	70.0129	38.8184	70.9838	38.8184	69.9347	38.8184	70.9823	38.8184	69.8687	38.8184	70.9595	38.8184	69.8162	38.8184	70.916	38.8184	69.7787	38.8184	70.8536	38.8184	69.7568	38.8184	70.7746	38.8184	69.7513	38.8184	70.6822	38.8184	69.7623	38.8184	70.58	38.8184	69.7899	38.8184	70.4716	38.8184	69.8335	38.8184	70.3611	38.8184	69.8925	38.8184	70.252	38.8184	69.9657	38.8184	70.1478	38.8184	70.0515
39.5508	70.9308	39.5508	70.8305	39.5508	71.0248	39.5508	70.727	39.5508	71.1092	39.5508	70.6233	39.5508	71.1812	39.5508	70.5225	39.5508	71.2378	39.5508	70.4272	39.5508	71.2769	39.5508	70.3401	39.5508	71.2966	39.5508	70.2633	39.5508	71.296	39.5508	70.1988	39.5508	71.2748	39.5508	70.148	39.5508	71.2337	39.5508	70.1123	39.5508	71.1744	39.5508	70.0924	39.5508	71.0992	39.5508	70.0889	39.5508	71.0109	39.5508	70.1019	39.5508	70.9128	39.5508	70.1313	39.5508	70.8083	39.5508	70.1765	39.5508	70.701	39.5508	70.2367	39.5508	70.5945	39.5508	70.3106	39.5508	70.4919	39.5508	70.3964
41.0156	71.5852	41.0156	71.485	41.0156	71.6792	41.0156	71.3818	41.0156	71.7637	41.0156	71.2787	41.0156	71.8357	41.0156	71.1786	41.0156	71.8921	41.0156	71.0844	41.0156	71.9307	41.0156	70.9985	41.0156	71.9496	41.0156	70.9231	41.0156	71.9478	41.0156	70.86	41.0156	71.9251	41.0156	70.8107	41.0156	71.8825	41.0156	70.7763	41.0156	71.8217	41.0156	70.7576	41.0156	71.7454	41.0156	70.7549	41.0156	71.6567	41.0156	70.7684	41.0156	71.559	41.0156	70.7976	41.0156	71.4559	41.0156	70.842	41.0156	71.3509	41.0156	70.9007	41.0156	71.2472	41.0156	70.9723	41.0156	71.1477	41.0156	71.0553
42.4805	72.303	42.4805	72.2023	42.4805	72.3977	42.4805	72.0987	42.4805	72.4829	42.4805	71.9955	42.4805	72.5556	42.4805	71.8956	42.4805	72.6129	42.4805	71.8019	42.4805	72.6524	42.4805	71.7169	42.4805	72.6722	42.4805	71.6427	42.4805	72.6713	42.4805	71.5813	42.4805	72.6497	42.4805	71.534	42.4805	72.608	42.4805	71.5019	42.4805	72.5482	42.4805	71.4855	42.4805	72.4729	42.4805	71.485	42.4805	72.3851	42.4805	71.5005	42.4805	72.2883	42.4805	71.5312	42.4805	72.1862	42.4805	71.5766	42.4805	72.0822	42.4805	71.6357	42.4805	71.9795	42.4805	71.7072	42.4805	71.8811	42.4805	71.7896
43.9453	73.002	43.9453	72.8998	43.9453	73.0981	43.9453	72.7949	43.9453	73.1848	43.9453	72.6907	43.9453	73.259	43.9453	72.5902	43.9453	73.3177	43.9453	72.4965	43.9453	73.3587	43.9453	72.4121	43.9453	73.38	43.9453	72.3394	43.9453	73.3809	43.9453	72.2803	43.9453	73.3614	43.9453	72.2361	43.9453	73.3223	43.9453	72.208	43.9453	73.2655	43.9453	72.1962	43.9453	73.1935	43.9453	72.201	43.9453	73.1094	43.9453	72.2217	43.9453	73.0164	43.9453	72.2577	43.9453	72.9178	43.9453	72.3077	43.9453	72.8169	43.9453	72.3706	43.9453	72.7167	43.9453	72.4446	43.9453	72.6197	43.9453	72.5283
45.4102	73.513	45.4102	73.4122	45.4102	73.6069	45.4102	73.3077	45.4102	73.6907	45.4102	73.2028	45.4102	73.7614	45.4102	73.1006	45.4102	73.8162	45.4102	73.0039	45.4102	73.853	45.4102	72.9154	45.4102	73.87	45.4102	72.8375	45.4102	73.8666	45.4102	72.7723	45.4102	73.8429	45.4102	72.7213	45.4102	73.7998	45.4102	72.6857	45.4102	73.7392	45.4102	72.6666	45.4102	73.6636	45.4102	72.6641	45.4102	73.5758	45.4102	72.6784	45.4102	73.4792	45.4102	72.709	45.4102	73.3769	45.4102	72.7552	45.4102	73.2722	45.4102	72.8158	45.4102	73.1682	45.4102	72.8895	45.4102	73.068	45.4102	72.9742
47.6074	74.5055	47.6074	74.4032	47.6074	74.6006	47.6074	74.2973	47.6074	74.6854	47.6074	74.1911	47.6074	74.7568	47.6074	74.0877	47.6074	74.812	47.6074	73.9902	47.6074	74.8488	47.6074	73.9014	47.6074	74.8656	47.6074	73.8238	47.6074	74.8618	47.6074	73.7593	47.6074	74.8376	47.6074	73.7096	47.6074	74.794	47.6074	73.676	47.6074	74.7333	47.6074	73.6592	47.6074	74.658	47.6074	73.6595	47.6074	74.5713	47.6074	73.6767	47.6074	74.4763	47.6074	73.7101	47.6074	74.3762	47.6074	73.7588	47.6074	74.2739	47.6074	73.8214	47.6074	74.1723	47.6074	73.8961	47.6074	74.0738	47.6074	73.981
49.0723	75.2084	49.0723	75.1075	49.0723	75.3005	49.0723	75.0009	49.0723	75.3805	49.0723	74.8921	49.0723	75.4454	49.0723	74.7842	49.0723	75.4925	49.0723	74.6803	49.0723	75.5198	49.0723	74.5832	49.0723	75.5259	49.0723	74.4954	49.0723	75.5101	49.0723	74.4193	49.0723	75.473	49.0723	74.3568	49.0723	75.416	49.0723	74.3093	49.0723	75.3414	49.0723	74.2781	49.0723	75.2522	49.0723	74.2638	49.0723	75.1521	49.0723	74.2668	49.0723	75.0449	49.0723	74.287	49.0723	74.9342	49.0723	74.3238	49.0723	74.8237	49.0723	74.3765	49.0723	74.7167	49.0723	74.4438	49.0723	74.616	49.0723	74.5243
50.5371	75.6753	50.5371	75.5721	50.5371	75.7705	50.5371	75.4645	50.5371	75.8545	50.5371	75.3556	50.5371	75.9242	50.5371	75.2487	50.5371	75.9768	50.5371	75.1468	50.5371	76.0099	50.5371	75.0526	50.5371	76.022	50.5371	74.9685	50.5371	76.0124	50.5371	74.8967	50.5371	75.9812	50.5371	74.8389	50.5371	75.9296	50.5371	74.7965	50.5371	75.8599	50.5371	74.7703	50.5371	75.7747	50.5371	74.761	50.5371	75.6775	50.5371	74.7688	50.5371	75.572	50.5371	74.7933	50.5371	75.4619	50.5371	74.8342	50.5371	75.3508	50.5371	74.8906	50.5371	75.2422	50.5371	74.9614	50.5371	75.1394	50.5371	75.0449
52.7344	76.5181	52.7344	76.4184	52.7344	76.6098	52.7344	76.3139	52.7344	76.6904	52.7344	76.2079	52.7344	76.7568	52.7344	76.1036	52.7344	76.8066	52.7344	76.0038	52.7344	76.8376	52.7344	75.9114	52.7344	76.8484	52.7344	75.8288	52.7344	76.8385	52.7344	75.7583	52.7344	76.8083	52.7344	75.7017	52.7344	76.7589	52.7344	75.6602	52.7344	76.6924	52.7344	75.635	52.7344	76.6115	52.7344	75.6266	52.7344	76.5194	52.7344	75.6352	52.7344	76.4192	52.7344	75.6605	52.7344	76.3143	52.7344	75.702	52.7344	76.208	52.7344	75.7586	52.7344	76.1035	52.7344	75.8289	52.7344	76.0037	52.7344	75.9114
54.1992	77.0234	54.1992	76.9221	54.1992	77.117	54.1992	76.8163	54.1992	77.1995	54.1992	76.7094	54.1992	77.2679	54.1992	76.6046	54.1992	77.3196	54.1992	76.505	54.1992	77.3522	54.1992	76.4134	54.1992	77.3644	54.1992	76.3321	54.1992	77.3556	54.1992	76.2635	54.1992	77.3261	54.1992	76.2091	54.1992	77.2773	54.1992	76.1702	54.1992	77.2111	54.1992	76.1478	54.1992	77.1304	54.1992	76.1421	54.1992	77.0384	54.1992	76.1533	54.1992	76.9386	54.1992	76.1808	54.1992	76.8342	54.1992	76.2239	54.1992	76.7287	54.1992	76.2815	54.1992	76.6251	54.1992	76.3522	54.1992	76.5261	54.1992	76.4344
56.3965	77.8554	56.3965	77.7529	56.3965	77.95	56.3965	77.6458	56.3965	78.0332	56.3965	77.5376	56.3965	78.1021	56.3965	77.4319	56.3965	78.154	56.3965	77.3318	56.3965	78.187	56.3965	77.2404	56.3965	78.1999	56.3965	77.1603	56.3965	78.1923	56.3965	77.0938	56.3965	78.1648	56.3965	77.0426	56.3965	78.1188	56.3965	77.0081	56.3965	78.0566	56.3965	76.9908	56.3965	77.9807	56.3965	76.9909	56.3965	77.8942	56.3965	77.0082	56.3965	77.8	56.3965	77.0419	56.3965	77.7011	56.3965	77.0906	56.3965	77.6003	56.3965	77.1529	56.3965	77.5	56.3965	77.2271	56.3965	77.4028	56.3965	77.3111
58.5938	78.6362	58.5938	78.5344	58.5938	78.7298	58.5938	78.4279	58.5938	78.8117	58.5938	78.3202	58.5938	78.8789	58.5938	78.2147	58.5938	78.9288	58.5938	78.1148	58.5938	78.9594	58.5938	78.0233	58.5938	78.9694	58.5938	77.9428	58.5938	78.9586	58.5938	77.8756	58.5938	78.9276	58.5938	77.8232	58.5938	78.8778	58.5938	77.7867	58.5938	78.8116	58.5938	77.767	58.5938	78.7319	58.5938	77.764	58.5938	78.6418	58.5938	77.7775	58.5938	78.5446	58.5938	77.8068	58.5938	78.4436	58.5938	77.8509	58.5938	78.3419	58.5938	77.9084	58.5938	78.2421	58.5938	77.978	58.5938	78.1467	58.5938	78.058
60.0586	79.1518	60.0586	79.0505	60.0586	79.2442	60.0586	78.9438	60.0586	79.3242	60.0586	78.8354	60.0586	79.3888	60.0586	78.7291	60.0586	79.4355	60.0586	78.6281	60.0586	79.4625	60.0586	78.5357	60.0586	79.4687	60.0586	78.4545	60.0586	79.4543	60.0586	78.3867	60.0586	79.42	60.0586	78.334	60.0586	79.3676	60.0586	78.2975	60.0586	79.2997	60.0586	78.2777	60.0586	79.2192	60.0586	78.2746	60.0586	79.1292	60.0586	78.2876	60.0586	79.0331	60.0586	78.3161	60.0586	78.934	60.0586	78.3588	60.0586	78.8345	60.0586	78.4144	60.0586	78.7374	60.0586	78.4817	60.0586	78.6449	60.0586	78.5591
62.2559	79.8834	62.2559	79.7819	62.2559	79.9754	62.2559	79.6743	62.2559	80.0546	62.2559	79.5642	62.2559	80.118	62.2559	79.4553	62.2559	80.1631	62.2559	79.3509	62.2559	80.1881	62.2559	79.2545	62.2559	80.1922	62.2559	79.1688	62.2559	80.1753	62.2559	79.0965	62.2559	80.1383	62.2559	79.0396	62.2559	80.0833	62.2559	78.9994	62.2559	80.0129	62.2559	78.9769	62.2559	79.9304	62.2559	78.9722	62.2559	79.8391	62.2559	78.985	62.2559	79.7422	62.2559	79.0142	62.2559	79.6428	62.2559	79.0586	62.2559	79.5433	62.2559	79.1166	62.2559	79.446	62.2559	79.1862	62.2559	79.3527	62.2559	79.2655
64.4531	80.6583	64.4531	80.5514	64.4531	80.7551	64.4531	80.4383	64.4531	80.8384	64.4531	80.3226	64.4531	80.9052	64.4531	80.208	64.4531	80.9527	64.4531	80.0982	64.4531	80.9792	64.4531	79.9964	64.4531	80.9836	64.4531	79.9058	64.4531	80.9656	64.4531	79.8287	64.4531	80.9263	64.4531	79.7674	64.4531	80.8674	64.4531	79.7231	64.4531	80.7916	64.4531	79.6968	64.4531	80.7021	64.4531	79.6887	64.4531	80.6024	64.4531	79.6984	64.4531	80.4961	64.4531	79.7253	64.4531	80.3867	64.4531	79.7682	64.4531	80.2776	64.4531	79.8258	64.4531	80.1716	64.4531	79.8966	64.4531	80.0713	64.4531	79.979
66.6504	81.2132	66.6504	81.107	66.6504	81.3091	66.6504	80.9941	66.6504	81.3913	66.6504	80.8784	66.6504	81.4568	66.6504	80.7637	66.6504	81.5033	66.6504	80.6538	66.6504	81.5291	66.6504	80.5522	66.6504	81.5335	66.6504	80.462	66.6504	81.5168	66.6504	80.386	66.6504	81.48	66.6504	80.3264	66.6504	81.4252	66.6504	80.2847	66.6504	81.355	66.6504	80.2618	66.6504	81.2723	66.6504	80.2579	66.6504	81.1801	66.6504	80.2727	66.6504	81.0814	66.6504	80.3051	66.6504	80.9788	66.6504	80.3537	66.6504	80.8748	66.6504	80.4169	66.6504	80.7718	66.6504	80.4924	66.6504	80.6722	66.6504	80.5783
69.5801	82.2092	69.5801	82.096	69.5801	82.311	69.5801	81.9753	69.5801	82.3977	69.5801	81.8512	69.5801	82.4661	69.5801	81.7277	69.5801	82.5135	69.5801	81.6086	69.5801	82.5382	69.5801	81.4978	69.5801	82.539	69.5801	81.3984	69.5801	82.5163	69.5801	81.3132	69.5801	82.471	69.5801	81.2446	69.5801	82.4052	69.5801	81.1942	69.5801	82.3219	69.5801	81.1629	69.5801	82.2246	69.5801	81.1512	69.5801	82.1169	69.5801	81.1589	69.5801	82.0028	69.5801	81.1852	69.5801	81.8857	69.5801	81.2291	69.5801	81.7691	69.5801	81.2892	69.5801	81.6561	69.5801	81.3638	69.5801	81.5492	69.5801	81.4511
71.7773	82.6832	71.7773	82.5721	71.7773	82.783	71.7773	82.4534	71.7773	82.8679	71.7773	82.3309	71.7773	82.9352	71.7773	82.2087	71.7773	82.9823	71.7773	82.0907	71.7773	83.0078	71.7773	81.9805	71.7773	83.0109	71.7773	81.8815	71.7773	82.9917	71.7773	81.7968	71.7773	82.9513	71.7773	81.7288	71.7773	82.8917	71.7773	81.6793	71.7773	82.8154	71.7773	81.6496	71.7773	82.7253	71.7773	81.6401	71.7773	82.6245	71.7773	81.6508	71.7773	82.5162	71.7773	81.681	71.7773	82.4034	71.7773	81.7294	71.7773	82.2892	71.7773	81.7945	71.7773	82.1763	71.7773	81.8741	71.7773	82.0676	71.7773	81.966
73.9746	83.2288	73.9746	83.1206	73.9746	83.3277	73.9746	83.0066	73.9746	83.4138	73.9746	82.8909	73.9746	83.4841	73.9746	82.7771	73.9746	83.5361	73.9746	82.669	73.9746	83.5682	73.9746	82.57	73.9746	83.5794	73.9746	82.4831	73.9746	83.5696	73.9746	82.4108	73.9746	83.5397	73.9746	82.3551	73.9746	83.4913	73.9746	82.3172	73.9746	83.4264	73.9746	82.298	73.9746	83.3475	73.9746	82.2976	73.9746	83.2574	73.9746	82.3154	73.9746	83.1587	73.9746	82.3508	73.9746	83.0543	73.9746	82.4024	73.9746	82.9471	73.9746	82.4686	73.9746	82.84	73.9746	82.5478	73.9746	82.7359	73.9746	82.6376
76.9043	83.719	76.9043	83.6083	76.9043	83.8207	76.9043	83.4925	76.9043	83.9094	76.9043	83.3763	76.9043	83.9822	76.9043	83.2639	76.9043	84.0367	76.9043	83.1599	76.9043	84.0715	76.9043	83.0681	76.9043	84.0864	76.9043	82.992	76.9043	84.0821	76.9043	82.9343	76.9043	84.0603	76.9043	82.8969	76.9043	84.0235	76.9043	82.8807	76.9043	83.9745	76.9043	82.8856	76.9043	83.9159	76.9043	82.9106	76.9043	83.8495	76.9043	82.9538	76.9043	83.7769	76.9043	83.0129	76.9043	83.6989	76.9043	83.0847	76.9043	83.6158	76.9043	83.1663	76.9043	83.5285	76.9043	83.2543	76.9043	83.4379	76.9043	83.3458
79.834	84.3686	79.834	84.2523	79.834	84.4717	79.834	84.1275	79.834	84.5579	79.834	83.999	79.834	84.6238	79.834	83.8721	79.834	84.6673	79.834	83.7519	79.834	84.6874	79.834	83.6431	79.834	84.6842	79.834	83.5502	79.834	84.6591	79.834	83.4766	79.834	84.6147	79.834	83.4249	79.834	84.5544	79.834	83.3965	79.834	84.4824	79.834	83.3914	79.834	84.4025	79.834	83.4085	79.834	84.3183	79.834	83.4454	79.834	84.2324	79.834	83.499	79.834	84.1465	79.834	83.5655	79.834	84.061	79.834	83.641	79.834	83.9759	79.834	83.7221	79.834	83.8909	79.834	83.806
82.7637	85.013	82.7637	84.9067	82.7637	85.1021	82.7637	84.7867	82.7637	85.171	82.7637	84.6573	82.7637	85.2174	82.7637	84.5228	82.7637	85.2398	82.7637	84.3879	82.7637	85.2377	82.7637	84.2576	82.7637	85.2115	82.7637	84.1365	82.7637	85.1628	82.7637	84.0292	82.7637	85.094	82.7637	83.9396	82.7637	85.0086	82.7637	83.8709	82.7637	84.9106	82.7637	83.8249	82.7637	84.8041	82.7637	83.8026	82.7637	84.6929	82.7637	83.8033	82.7637	84.5806	82.7637	83.8255	82.7637	84.4699	82.7637	83.8666	82.7637	84.3626	82.7637	83.9237	82.7637	84.2602	82.7637	83.9938	82.7637	84.1638	82.7637	84.0745
85.6934	85.2889	85.6934	85.1799	85.6934	85.3814	85.6934	85.058	85.6934	85.4544	85.6934	84.9265	85.6934	85.505	85.6934	84.7891	85.6934	85.5309	85.6934	84.6495	85.6934	85.5306	85.6934	84.5111	85.6934	85.5035	85.6934	84.3777	85.6934	85.4498	85.6934	84.2527	85.6934	85.3711	85.6934	84.1398	85.6934	85.2701	85.6934	84.0421	85.6934	85.1502	85.6934	83.9629	85.6934	85.016	85.6934	83.9049	85.6934	84.872	85.6934	83.8702	85.6934	84.7233	85.6934	83.8602	85.6934	84.5746	85.6934	83.8757	85.6934	84.4306	85.6934	83.9163	85.6934	84.2955	85.6934	83.9808	85.6934	84.1732	85.6934	84.0673
88.623	85.3111	88.623	85.1971	88.623	85.4153	88.623	85.0777	88.623	85.5059	88.623	84.9569	88.623	85.5793	88.623	84.8387	88.623	85.6325	88.623	84.7266	88.623	85.6631	88.623	84.6234	88.623	85.6698	88.623	84.5312	88.623	85.6519	88.623	84.4515	88.623	85.6097	88.623	84.3852	88.623	85.5442	88.623	84.3326	88.623	85.4572	88.623	84.2941	88.623	85.3513	88.623	84.2697	88.623	85.23	88.623	84.2602	88.623	85.0979	88.623	84.2664	88.623	84.9605	88.623	84.2897	88.623	84.8237	88.623	84.3315	88.623	84.6937	88.623	84.3932	88.623	84.576	88.623	84.475
91.5527	84.4633	91.5527	84.3495	91.5527	84.5775	91.5527	84.241	91.5527	84.6885	91.5527	84.1438	91.5527	84.7943	91.5527	84.0645	91.5527	84.8941	91.5527	84.01	91.5527	84.9887	91.5527	83.9863	91.5527	85.0796	91.5527	83.998	91.5527	85.1686	91.5527	84.0473	91.5527	85.2571	91.5527	84.1339	91.5527	85.3451	91.5527	84.2543	91.5527	85.431	91.5527	84.4026	91.5527	85.5112	91.5527	84.5707	91.5527	85.5808	91.5527	84.7496	91.5527	85.6341	91.5527	84.9301	91.5527	85.6659	91.5527	85.1033	91.5527	85.6717	91.5527	85.2618	91.5527	85.6486	91.5527	85.3994	91.5527	85.5952	91.5527	85.5116
94.4824	86.0125	94.4824	85.9021	94.4824	86.0995	94.4824	85.7718	94.4824	86.1605	94.4824	85.6253	94.4824	86.1936	94.4824	85.4672	94.4824	86.1979	94.4824	85.3025	94.4824	86.1738	94.4824	85.1367	94.4824	86.1228	94.4824	84.9761	94.4824	86.0483	94.4824	84.827	94.4824	85.955	94.4824	84.6963	94.4824	85.8485	94.4824	84.5901	94.4824	85.7351	94.4824	84.5139	94.4824	85.6202	94.4824	84.4716	94.4824	85.5071	94.4824	84.4648	94.4824	85.3972	94.4824	84.4925	94.4824	85.2895	94.4824	84.5509	94.4824	85.1816	94.4824	84.634	94.4824	85.0716	94.4824	84.7345	94.4824	84.9587	94.4824	84.8449
98.1445	85.5093	98.1445	85.3886	98.1445	85.613	98.1445	85.2557	98.1445	85.6959	98.1445	85.1158	98.1445	85.7553	98.1445	84.9746	98.1445	85.7896	98.1445	84.8377	98.1445	85.7987	98.1445	84.7106	98.1445	85.7838	98.1445	84.5981	98.1445	85.7473	98.1445	84.5044	98.1445	85.6927	98.1445	84.4325	98.1445	85.6238	98.1445	84.3845	98.1445	85.5445	98.1445	84.3613	98.1445	85.458	98.1445	84.3625	98.1445	85.3665	98.1445	84.3869	98.1445	85.2712	98.1445	84.4325	98.1445	85.1729	98.1445	84.4963	98.1445	85.0718	98.1445	84.575	98.1445	84.9688	98.1445	84.6651	98.1445	84.8651	98.1445	84.7629
101.807	85.5075	101.807	85.3904	101.807	85.6066	101.807	85.2599	101.807	85.6841	101.807	85.1208	101.807	85.7376	101.807	84.9786	101.807	85.7656	101.807	84.8388	101.807	85.7681	101.807	84.7069	101.807	85.7464	101.807	84.5878	101.807	85.7032	101.807	84.4859	101.807	85.642	101.807	84.4048	101.807	85.5669	101.807	84.3468	101.807	85.4819	101.807	84.3134	101.807	85.3904	101.807	84.3047	101.807	85.2944	101.807	84.32	101.807	85.1951	101.807	84.3576	101.807	85.0929	101.807	84.4149	101.807	84.9883	101.807	84.489	101.807	84.8822	101.807	84.5763	101.807	84.7764	101.807	84.6733
105.469	85.4069	105.469	85.283	105.469	85.5137	105.469	85.1473	105.469	85.5993	105.469	85.0054	105.469	85.6606	105.469	84.8636	105.469	85.6959	105.469	84.728	105.469	85.705	105.469	84.6045	105.469	85.6892	105.469	84.4983	105.469	85.6512	105.469	84.4134	105.469	85.5951	105.469	84.3527	105.469	85.5257	105.469	84.3177	105.469	85.4476	105.469	84.3084	105.469	85.3651	105.469	84.3235	105.469	85.2809	105.469	84.3606	105.469	85.1962	105.469	84.4166	105.469	85.111	105.469	84.4877	105.469	85.0244	105.469	84.5698	105.469	84.9356	105.469	84.6589	105.469	84.8443	105.469	84.7514
109.131	85.2725	109.131	85.1443	109.131	85.3817	109.131	85.0023	109.131	85.4676	109.131	84.8529	109.131	85.5275	109.131	84.7027	109.131	85.56	109.131	84.5588	109.131	85.5652	109.131	84.4282	109.131	85.5452	109.131	84.3172	109.131	85.5035	109.131	84.231	109.131	85.4449	109.131	84.1732	109.131	85.375	109.131	84.1456	109.131	85.2994	109.131	84.148	109.131	85.2227	109.131	84.1783	109.131	85.1476	109.131	84.2325	109.131	85.0748	109.131	84.3059	109.131	85.003	109.131	84.3927	109.131	84.9298	109.131	84.4872	109.131	84.8523	109.131	84.5841	109.131	84.7689	109.131	84.679
112.793	85.3113	112.793	85.1815	112.793	85.4182	112.793	85.0338	112.793	85.4985	112.793	84.8742	112.793	85.5495	112.793	84.7093	112.793	85.5701	112.793	84.5464	112.793	85.5608	112.793	84.3927	112.793	85.5235	112.793	84.2553	112.793	85.4618	112.793	84.1405	112.793	85.3807	112.793	84.0533	112.793	85.2859	112.793	83.9971	112.793	85.1835	112.793	83.9729	112.793	85.0791	112.793	83.9798	112.793	84.9769	112.793	84.0148	112.793	84.8793	112.793	84.0732	112.793	84.7864	112.793	84.1492	112.793	84.6967	112.793	84.2366	112.793	84.6077	112.793	84.3299	112.793	84.5173	112.793	84.4244
116.455	85.2778	116.455	85.1698	116.455	85.3643	116.455	85.0443	116.455	85.4264	116.455	84.9062	116.455	85.4626	116.455	84.7614	116.455	85.4724	116.455	84.6159	116.455	85.4569	116.455	84.4763	116.455	85.4186	116.455	84.3489	116.455	85.3608	116.455	84.2396	116.455	85.2878	116.455	84.1532	116.455	85.2044	116.455	84.0932	116.455	85.1151	116.455	84.0614	116.455	85.0238	116.455	84.0576	116.455	84.9334	116.455	84.0799	116.455	84.8456	116.455	84.1245	116.455	84.7606	116.455	84.1866	116.455	84.6774	116.455	84.2609	116.455	84.5947	116.455	84.3424	116.455	84.5112	116.455	84.4267
120.85	85.1404	120.85	85.0322	120.85	85.2275	120.85	84.9068	120.85	85.2909	120.85	84.7696	120.85	85.3297	120.85	84.6267	120.85	85.3445	120.85	84.4853	120.85	85.3372	120.85	84.3526	120.85	85.3114	120.85	84.2357	120.85	85.2708	120.85	84.1407	120.85	85.22	120.85	84.0724	120.85	85.1627	120.85	84.0335	120.85	85.1018	120.85	84.0247	120.85	85.039	120.85	84.0446	120.85	84.9745	120.85	84.0898	120.85	84.908	120.85	84.1553	120.85	84.8384	120.85	84.2357	120.85	84.7645	120.85	84.3252	120.85	84.6855	120.85	84.4186	120.85	84.601	120.85	84.5115
125.244	84.7501	125.244	84.6345	125.244	84.8395	125.244	84.4968	125.244	84.8999	125.244	84.3425	125.244	84.9298	125.244	84.1776	125.244	84.9296	125.244	84.0092	125.244	84.9016	125.244	83.845	125.244	84.8498	125.244	83.6927	125.244	84.7799	125.244	83.5603	125.244	84.6988	125.244	83.4548	125.244	84.6127	125.244	83.3822	125.244	84.5271	125.244	83.3458	125.244	84.445	125.244	83.3465	125.244	84.3669	125.244	83.3819	125.244	84.2912	125.244	83.4469	125.244	84.215	125.244	83.5344	125.244	84.135	125.244	83.636	125.244	84.0484	125.244	83.744	125.244	83.9538	125.244	83.8515
129.639	84.1775	129.639	84.0832	129.639	84.2479	129.639	83.9693	129.639	84.291	129.639	83.841	129.639	84.3049	129.639	83.7037	129.639	84.2897	129.639	83.5628	129.639	84.2473	129.639	83.4239	129.639	84.1823	129.639	83.2921	129.639	84.101	129.639	83.1726	129.639	84.0113	129.639	83.0699	129.639	83.921	129.639	82.9885	129.639	83.8365	129.639	82.9322	129.639	83.7611	129.639	82.9037	129.639	83.6946	129.639	82.9044	129.639	83.6332	129.639	82.9337	129.639	83.5715	129.639	82.9885	129.639	83.5039	129.639	83.0637	129.639	83.427	129.639	83.1525	129.639	83.3405	129.639	83.2472
134.033	84.3	134.033	84.1813	134.033	84.3964	134.033	84.0456	134.033	84.4666	134.033	83.8989	134.033	84.5077	134.033	83.748	134.033	84.5187	134.033	83.5997	134.033	84.5001	134.033	83.4605	134.033	84.4542	134.033	83.3365	134.033	84.3852	134.033	83.2326	134.033	84.2984	134.033	83.152	134.033	84.2001	134.033	83.0969	134.033	84.0968	134.033	83.0676	134.033	83.9939	134.033	83.0631	134.033	83.8953	134.033	83.0816	134.033	83.8029	134.033	83.1201	134.033	83.7165	134.033	83.1748	134.033	83.6344	134.033	83.2415	134.033	83.5543	134.033	83.3162	134.033	83.4746	134.033	83.3948
138.428	84.1105	138.428	83.9928	138.428	84.205	138.428	83.8571	138.428	84.2723	138.428	83.7097	138.428	84.3104	138.428	83.5577	138.428	84.3192	138.428	83.4086	138.428	84.3005	138.428	83.2699	138.428	84.258	138.428	83.148	138.428	84.1971	138.428	83.0487	138.428	84.1241	138.428	82.9759	138.428	84.0451	138.428	82.932	138.428	83.9654	138.428	82.9173	138.428	83.8885	138.428	82.9304	138.428	83.8157	138.428	82.9684	138.428	83.7461	138.428	83.0271	138.428	83.6775	138.428	83.1015	138.428	83.607	138.428	83.1862	138.428	83.5322	138.428	83.2757	138.428	83.4515	138.428	83.3653
143.555	83.9342	143.555	83.8165	143.555	84.0265	143.555	83.6789	143.555	84.09	143.555	83.5281	143.555	84.1232	143.555	83.3719	143.555	84.1272	143.555	83.2185	143.555	84.1052	143.555	83.0763	143.555	84.0627	143.555	82.9527	143.555	84.0065	143.555	82.8541	143.555	83.9439	143.555	82.7849	143.555	83.8806	143.555	82.7476	143.555	83.8204	143.555	82.742	143.555	83.7638	143.555	82.766	143.555	83.7087	143.555	82.8157	143.555	83.6518	143.555	82.8859	143.555	83.5895	143.555	82.9708	143.555	83.5195	143.555	83.0647	143.555	83.4407	143.555	83.1626	143.555	83.3536	143.555	83.2601
148.682	83.6736	148.682	83.5472	148.682	83.7707	148.682	83.3977	148.682	83.8344	148.682	83.2331	148.682	83.863	148.682	83.0626	148.682	83.8576	148.682	82.896	148.682	83.8224	148.682	82.7432	148.682	83.7646	148.682	82.6135	148.682	83.6938	148.682	82.5143	148.682	83.6206	148.682	82.4512	148.682	83.5549	148.682	82.4268	148.682	83.5031	148.682	82.4409	148.682	83.467	148.682	82.4903	148.682	83.4432	148.682	82.5696	148.682	83.4241	148.682	82.6718	148.682	83.4008	148.682	82.7884	148.682	83.365	148.682	82.9109	148.682	83.3108	148.682	83.0311	148.682	83.2359	148.682	83.1414
153.809	83.598	153.809	83.4657	153.809	83.6908	153.809	83.3002	153.809	83.74	153.809	83.1095	153.809	83.7434	153.809	82.9029	153.809	83.7019	153.809	82.6911	153.809	83.6192	153.809	82.485	153.809	83.5027	153.809	82.2958	153.809	83.3635	153.809	82.1338	153.809	83.2156	153.809	82.0078	153.809	83.0742	153.809	81.924	153.809	82.953	153.809	81.8853	153.809	82.8606	153.809	81.8912	153.809	82.7975	153.809	81.938	153.809	82.7567	153.809	82.0184	153.809	82.7256	153.809	82.1231	153.809	82.6903	153.809	82.2413	153.809	82.6395	153.809	82.3614	153.809	82.5671	153.809	82.4728
159.668	83.5824	159.668	83.4439	159.668	83.6916	159.668	83.2814	159.668	83.7673	159.668	83.1015	159.668	83.8068	159.668	82.9115	159.668	83.8088	159.668	82.7196	159.668	83.7738	159.668	82.5344	159.668	83.7039	159.668	82.3646	159.668	83.6036	159.668	82.2181	159.668	83.4791	159.668	82.1017	159.668	83.3386	159.668	82.0201	159.668	83.1917	159.668	81.9754	159.668	83.0479	159.668	81.9669	159.668	82.9154	159.668	81.991	159.668	82.7991	159.668	82.042	159.668	82.6992	159.668	82.1126	159.668	82.612	159.668	82.195	159.668	82.5315	159.668	82.2823	159.668	82.4517	159.668	82.3688
164.795	83.2379	164.795	83.1295	164.795	83.3187	164.795	82.9978	164.795	83.3698	164.795	82.8488	164.795	83.3915	164.795	82.6901	164.795	83.387	164.795	82.5299	164.795	83.3613	164.795	82.3771	164.795	83.3214	164.795	82.2403	164.795	83.2742	164.795	82.1276	164.795	83.2256	164.795	82.0455	164.795	83.179	164.795	81.9987	164.795	83.135	164.795	81.9891	164.795	83.092	164.795	82.016	164.795	83.0473	164.795	82.0757	164.795	82.9981	164.795	82.1621	164.795	82.9418	164.795	82.2671	164.795	82.8764	164.795	82.3821	164.795	82.7998	164.795	82.4986	164.795	82.7109	164.795	82.6098
170.654	82.7875	170.654	82.6975	170.654	82.8446	170.654	82.5808	170.654	82.8655	170.654	82.4454	170.654	82.8499	170.654	82.3009	170.654	82.8015	170.654	82.1573	170.654	82.7284	170.654	82.0249	170.654	82.6429	170.654	81.9135	170.654	82.5601	170.654	81.8314	170.654	82.4957	170.654	81.7852	170.654	82.4625	170.654	81.7786	170.654	82.4665	170.654	81.8125	170.654	82.5049	170.654	81.8842	170.654	82.5669	170.654	81.9879	170.654	82.6366	170.654	82.1148	170.654	82.6969	170.654	82.2541	170.654	82.7332	170.654	82.3938	170.654	82.7357	170.654	82.5217	170.654	82.6998	170.654	82.6267
176.514	82.6293	176.514	82.5042	176.514	82.7155	176.514	82.3489	176.514	82.7572	176.514	82.1744	176.514	82.7527	176.514	81.9937	176.514	82.7047	176.514	81.8206	176.514	82.6208	176.514	81.6686	176.514	82.5136	176.514	81.5499	176.514	82.4002	176.514	81.4737	176.514	82.299	176.514	81.4452	176.514	82.227	176.514	81.4654	176.514	82.1946	176.514	81.5306	176.514	82.2035	176.514	81.6333	176.514	82.2462	176.514	81.763	176.514	82.3084	176.514	81.9077	176.514	82.3733	176.514	82.0546	176.514	82.4245	176.514	82.1913	176.514	82.4493	176.514	82.3064	176.514	82.4392	176.514	82.391
183.105	82.7627	183.105	82.5955	183.105	82.8755	183.105	82.3816	183.105	82.9291	183.105	82.1314	183.105	82.922	183.105	81.858	183.105	82.8565	183.105	81.5769	183.105	82.7395	183.105	81.3064	183.105	82.5836	183.105	81.0659	183.105	82.4064	183.105	80.8752	183.105	82.2297	183.105	80.7512	183.105	82.0762	183.105	80.7048	183.105	81.9642	183.105	80.7385	183.105	81.9029	183.105	80.8445	183.105	81.89	183.105	81.0063	183.105	81.9121	183.105	81.2016	183.105	81.9499	183.105	81.4067	183.105	81.9821	183.105	81.5997	183.105	81.9902	183.105	81.7631	183.105	81.9605	183.105	81.8852
189.697	82.7715	189.697	82.6174	189.697	82.8729	189.697	82.4183	189.697	82.9161	189.697	82.1838	189.697	82.8983	189.697	81.9247	189.697	82.8206	189.697	81.6532	189.697	82.6888	189.697	81.3826	189.697	82.5137	189.697	81.1274	189.697	82.3122	189.697	80.9025	189.697	82.1058	189.697	80.7234	189.697	81.918	189.697	80.6037	189.697	81.7698	189.697	80.5531	189.697	81.6734	189.697	80.5748	189.697	81.6288	189.697	80.6634	189.697	81.6236	189.697	80.8048	189.697	81.6368	189.697	80.9787	189.697	81.6451	189.697	81.162	189.697	81.6283	189.697	81.3327	189.697	81.5728	189.697	81.4733
196.289	82.7663	196.289	82.6304	196.289	82.8536	196.289	82.4536	196.289	82.8865	196.289	82.2453	196.289	82.8623	196.289	82.0159	196.289	82.7817	196.289	81.7765	196.289	82.6499	196.289	81.5387	196.289	82.4771	196.289	81.3143	196.289	82.2787	196.289	81.115	196.289	82.0742	196.289	80.9527	196.289	81.8851	196.289	80.8377	196.289	81.7308	196.289	80.7781	196.289	81.6234	196.289	80.777	196.289	81.5648	196.289	80.8313	196.289	81.546	196.289	80.931	196.289	81.5502	196.289	81.0603	196.289	81.5572	196.289	81.1998	196.289	81.5484	196.289	81.3307	196.289	81.5106	196.289	81.4374
202.881	82.5829	202.881	82.4351	202.881	82.6756	202.881	82.2403	202.881	82.7081	202.881	82.0088	202.881	82.6787	202.881	81.7532	202.881	82.5896	202.881	81.4874	202.881	82.4478	202.881	81.2265	202.881	82.2651	202.881	80.9859	202.881	82.0584	202.881	80.7808	202.881	81.8486	202.881	80.6244	202.881	81.6574	202.881	80.5268	202.881	81.5033	202.881	80.493	202.881	81.3975	202.881	80.5215	202.881	81.3411	202.881	80.604	202.881	81.325	202.881	80.7261	202.881	81.3328	202.881	80.8697	202.881	81.3449	202.881	81.0154	202.881	81.343	202.881	81.1458	202.881	81.313	202.881	81.2473
210.205	82.4475	210.205	82.3032	210.205	82.536	210.205	82.1104	210.205	82.5634	210.205	81.8784	210.205	82.5269	210.205	81.6178	210.205	82.4278	210.205	81.3407	210.205	82.2719	210.205	81.0607	210.205	82.071	210.205	80.7932	210.205	81.843	210.205	80.555	210.205	81.6114	210.205	80.3632	210.205	81.4021	210.205	80.2331	210.205	81.238	210.205	80.175	210.205	81.1326	210.205	80.1914	210.205	81.0857	210.205	80.2749	210.205	81.0837	210.205	80.4094	210.205	81.1051	210.205	80.5727	210.205	81.1261	210.205	80.741	210.205	81.126	210.205	80.893	210.205	81.0904	210.205	81.0124
217.529	82.2995	217.529	82.1557	217.529	82.3892	217.529	81.9659	217.529	82.4192	217.529	81.7399	217.529	82.3866	217.529	81.4886	217.529	82.2922	217.529	81.2239	217.529	82.141	217.529	80.9578	217.529	81.943	217.529	80.7032	217.529	81.7138	217.529	80.4731	217.529	81.4739	217.529	80.2809	217.529	81.2475	217.529	80.1393	217.529	81.058	217.529	80.0581	217.529	80.9222	217.529	80.0421	217.529	80.8455	217.529	80.0889	217.529	80.8191	217.529	80.1874	217.529	80.8233	217.529	80.3202	217.529	80.8338	217.529	80.4659	217.529	80.8282	217.529	80.6033	217.529	80.7909	217.529	80.7152
225.586	82.1004	225.586	81.9438	225.586	82.1978	225.586	81.7366	225.586	82.2307	225.586	81.4902	225.586	82.1972	225.586	81.2184	225.586	82.1	225.586	80.9371	225.586	81.9464	225.586	80.6638	225.586	81.7492	225.586	80.4164	225.586	81.5257	225.586	80.2117	225.586	81.297	225.586	80.0637	225.586	81.0855	225.586	79.9811	225.586	80.912	225.586	79.9662	225.586	80.7915	225.586	80.0139	225.586	80.7293	225.586	80.1128	225.586	80.7195	225.586	80.2464	225.586	80.7451	225.586	80.3958	225.586	80.7825	225.586	80.5414	225.586	80.8078	225.586	80.6656	225.586	80.802	225.586	80.7549
232.91	82.1399	232.91	81.9998	232.91	82.2149	232.91	81.8037	232.91	82.2185	232.91	81.5633	232.91	82.1489	232.91	81.2918	232.91	82.0096	232.91	81.0036	232.91	81.8102	232.91	80.7144	232.91	81.567	232.91	80.4408	232.91	81.3026	232.91	80.2008	232.91	81.0438	232.91	80.0125	232.91	80.8178	232.91	79.8923	232.91	80.6474	232.91	79.8511	232.91	80.5465	232.91	79.8903	232.91	80.5168	232.91	79.9996	232.91	80.5473	232.91	80.1578	232.91	80.6161	232.91	80.3373	232.91	80.6949	232.91	80.5095	232.91	80.7556	232.91	80.6498	232.91	80.7754	232.91	80.741
241.699	82.0047	241.699	81.8422	241.699	82.1046	241.699	81.627	241.699	82.1349	241.699	81.3708	241.699	82.0921	241.699	81.0866	241.699	81.9782	241.699	80.7883	241.699	81.8008	241.699	80.4906	241.699	81.5749	241.699	80.2091	241.699	81.3213	241.699	79.96	241.699	81.0651	241.699	79.7592	241.699	80.8307	241.699	79.6211	241.699	80.6374	241.699	79.5554	241.699	80.4961	241.699	79.5646	241.699	80.4087	241.699	79.6421	241.699	80.3697	241.699	79.7716	241.699	80.3669	241.699	79.9296	241.699	80.3823	241.699	80.0899	241.699	80.394	241.699	80.2281	241.699	80.3809	241.699	80.3273
249.756	81.9627	249.756	81.7456	249.756	82.1037	249.756	81.4656	249.756	82.1593	249.756	81.1391	249.756	82.1249	249.756	80.7857	249.756	82.002	249.756	80.4267	249.756	81.7992	249.756	80.0844	249.756	81.5338	249.756	79.78	249.756	81.2323	249.756	79.5318	249.756	80.9281	249.756	79.3536	249.756	80.657	249.756	79.2533	249.756	80.4495	249.756	79.2331	249.756	80.3228	249.756	79.2893	249.756	80.2769	249.756	79.4121	249.756	80.2949	249.756	79.5857	249.756	80.348	249.756	79.7883	249.756	80.4028	249.756	79.9948	249.756	80.4291	249.756	80.1795	249.756	80.405	249.756	80.3209
258.545	82.2899	258.545	82.0893	258.545	82.4133	258.545	81.8228	258.545	82.4515	258.545	81.5042	258.545	82.4009	258.545	81.1499	258.545	82.2631	258.545	80.7782	258.545	82.0468	258.545	80.4092	258.545	81.7687	258.545	80.0645	258.545	81.4536	258.545	79.7658	258.545	81.1326	258.545	79.5321	258.545	80.838	258.545	79.3769	258.545	80.5966	258.545	79.3063	258.545	80.4233	258.545	79.3175	258.545	80.3204	258.545	79.4004	258.545	80.2781	258.545	79.5387	258.545	80.2778	258.545	79.7111	258.545	80.2942	258.545	79.8929	258.545	80.2992	258.545	80.0593	258.545	80.2686	258.545	80.1887
268.066	81.813	268.066	81.5865	268.066	81.9608	268.066	81.2941	268.066	82.0208	268.066	80.9525	268.066	81.9887	268.066	80.5817	268.066	81.8657	268.066	80.2048	268.066	81.6595	268.066	79.8462	268.066	81.3868	268.066	79.5307	268.066	81.0741	268.066	79.2803	268.066	80.7567	268.066	79.1115	268.066	80.4742	268.066	79.0326	268.066	80.2606	268.066	79.043	268.066	80.1335	268.066	79.1334	268.066	80.0902	268.066	79.2875	268.066	80.1107	268.066	79.4837	268.066	80.1664	268.066	79.6973	268.066	80.2271	268.066	79.9023	268.066	80.2656	268.066	80.075	268.066	80.26	268.066	80.1973
277.588	81.9538	277.588	81.7373	277.588	82.0815	277.588	81.4416	277.588	82.1146	277.588	81.081	277.588	82.0514	277.588	80.6742	277.588	81.8946	277.588	80.2441	277.588	81.6517	277.588	79.8168	277.588	81.3377	277.588	79.4202	277.588	80.9769	277.588	79.0812	277.588	80.6045	277.588	78.8227	277.588	80.2643	277.588	78.6605	277.588	79.9988	277.588	78.6006	277.588	79.8344	277.588	78.6388	277.588	79.7699	277.588	78.7606	277.588	79.7791	277.588	78.9435	277.588	79.823	277.588	79.1601	277.588	79.8641	277.588	79.381	277.588	79.8736	277.588	79.5794	277.588	79.8329	277.588	79.7341
287.109	82.1798	287.109	81.9856	287.109	82.2786	287.109	81.7049	287.109	82.2776	287.109	81.3509	287.109	82.1767	287.109	80.9412	287.109	81.981	287.109	80.4989	287.109	81.7011	287.109	80.0528	287.109	81.3537	287.109	79.6356	287.109	80.9632	287.109	79.2801	287.109	80.5624	287.109	79.0128	287.109	80.1918	287.109	78.8477	287.109	79.8954	287.109	78.7848	287.109	79.7079	287.109	78.813	287.109	79.64	287.109	78.9153	287.109	79.6707	287.109	79.0725	287.109	79.7547	287.109	79.2634	287.109	79.8411	287.109	79.4639	287.109	79.8889	287.109	79.648	287.109	79.8743	287.109	79.7912
297.363	82.2583	297.363	82.0825	297.363	82.3364	297.363	81.8147	297.363	82.3139	297.363	81.4633	297.363	82.192	297.363	81.0388	297.363	81.9769	297.363	80.5556	297.363	81.6807	297.363	80.0346	297.363	81.3219	297.363	79.5073	297.363	80.9252	297.363	79.0183	297.363	80.5213	297.363	78.6219	297.363	80.1464	297.363	78.3692	297.363	79.8407	297.363	78.2882	297.363	79.6413	297.363	78.3707	297.363	79.5684	297.363	78.5771	297.363	79.6112	297.363	78.8551	297.363	79.7259	297.363	79.1559	297.363	79.8518	297.363	79.4408	297.363	79.9342	297.363	79.6804	297.363	79.9381	297.363	79.8516
307.617	82.2245	307.617	82.0208	307.617	82.339	307.617	81.7437	307.617	82.3505	307.617	81.41	307.617	82.2499	307.617	81.0357	307.617	82.0353	307.617	80.6353	307.617	81.7144	307.617	80.2217	307.617	81.3085	307.617	79.8086	307.617	80.8538	307.617	79.4131	307.617	80.3997	307.617	79.0603	307.617	80	307.617	78.7849	307.617	79.7005	307.617	78.6272	307.617	79.5279	307.617	78.6184	307.617	79.4871	307.617	78.7625	307.617	79.5621	307.617	79.0272	307.617	79.7172	307.617	79.3533	307.617	79.9004	307.617	79.674	307.617	80.0536	307.617	79.932	307.617	80.1266	307.617	80.0885
318.604	82.0205	318.604	81.7886	318.604	82.1576	318.604	81.4769	318.604	82.189	318.604	81.1037	318.604	82.1075	318.604	80.6906	318.604	81.9104	318.604	80.2614	318.604	81.601	318.604	79.8406	318.604	81.1911	318.604	79.452	318.604	80.7055	318.604	79.1172	318.604	80.1863	318.604	78.8546	318.604	79.6938	318.604	78.6786	318.604	79.298	318.604	78.6004	318.604	79.0578	318.604	78.6257	318.604	78.9957	318.604	78.751	318.604	79.0872	318.604	78.9577	318.604	79.2746	318.604	79.2101	318.604	79.4899	318.604	79.4605	318.604	79.6716	318.604	79.6603	318.604	79.7739	318.604	79.7712
329.59	82.1256	329.59	81.9066	329.59	82.2402	329.59	81.5922	329.59	82.2452	329.59	81.1961	329.59	82.1393	329.59	80.7361	329.59	81.9249	329.59	80.2348	329.59	81.6097	329.59	79.7189	329.59	81.2079	329.59	79.2198	329.59	80.7431	329.59	78.7727	329.59	80.2493	329.59	78.4146	329.59	79.771	329.59	78.1797	329.59	79.3597	329.59	78.0913	329.59	79.0655	329.59	78.1536	329.59	78.9236	329.59	78.3459	329.59	78.9383	329.59	78.6257	329.59	79.0749	329.59	78.9377	329.59	79.2689	329.59	79.226	329.59	79.4489	329.59	79.4434	329.59	79.5566	329.59	79.5579
341.309	81.9194	341.309	81.697	341.309	82.0402	341.309	81.3854	341.309	82.0503	341.309	80.9999	341.309	81.9448	341.309	80.5587	341.309	81.7242	341.309	80.0826	341.309	81.3965	341.309	79.5948	341.309	80.9804	341.309	79.1208	341.309	80.5079	341.309	78.6878	341.309	80.0251	341.309	78.3253	341.309	79.5867	341.309	78.0639	341.309	79.245	341.309	77.9333	341.309	79.0363	341.309	77.954	341.309	78.9721	341.309	78.1254	341.309	79.0386	341.309	78.4172	341.309	79.1977	341.309	78.7727	341.309	79.3922	341.309	79.1244	341.309	79.5564	341.309	79.4105	341.309	79.6331	341.309	79.5868
353.76	82.1635	353.76	81.9281	353.76	82.2784	353.76	81.5824	353.76	82.2653	353.76	81.139	353.76	82.1203	353.76	80.6135	353.76	81.8427	353.76	80.0248	353.76	81.4363	353.76	79.3988	353.76	80.9119	353.76	78.7712	353.76	80.2924	353.76	78.1889	353.76	79.621	353.76	77.7047	353.76	78.9686	353.76	77.367	353.76	78.4303	353.76	77.2065	353.76	78.0977	353.76	77.2304	353.76	78.0125	353.76	77.421	353.76	78.141	353.76	77.7379	353.76	78.3961	353.76	78.121	353.76	78.6796	353.76	78.4995	353.76	78.9079	353.76	78.8058	353.76	79.0215	353.76	78.9885
366.211	82.1819	366.211	81.9564	366.211	82.2965	366.211	81.6311	366.211	82.2923	366.211	81.2187	366.211	82.164	366.211	80.733	366.211	81.91	366.211	80.1888	366.211	81.5328	366.211	79.6032	366.211	81.0412	366.211	78.9997	366.211	80.454	366.211	78.4117	366.211	79.8059	366.211	77.8842	366.211	79.1513	366.211	77.4685	366.211	78.5634	366.211	77.2098	366.211	78.1202	366.211	77.1326	366.211	77.8784	366.211	77.2314	366.211	77.8482	366.211	77.4696	366.211	77.9857	366.211	77.7874	366.211	78.2079	366.211	78.114	366.211	78.4203	366.211	78.3803	366.211	78.5437	366.211	78.5327
378.662	82.3808	378.662	82.1719	378.662	82.482	378.662	81.8661	378.662	82.4683	378.662	81.4768	378.662	82.3361	378.662	81.0193	378.662	82.0867	378.662	80.5096	378.662	81.727	378.662	79.9649	378.662	81.2709	378.662	79.4053	378.662	80.7409	378.662	78.8572	378.662	80.1694	378.662	78.3559	378.662	79.6012	378.662	77.945	378.662	79.0938	378.662	77.6692	378.662	78.7095	378.662	77.5613	378.662	78.4957	378.662	77.6278	378.662	78.46	378.662	77.8407	378.662	78.5614	378.662	78.1427	378.662	78.7263	378.662	78.4619	378.662	78.8756	378.662	78.7308	378.662	78.9458	378.662	78.8999
392.578	81.9678	392.578	81.7555	392.578	82.0708	392.578	81.4439	392.578	82.0579	392.578	81.0468	392.578	81.926	392.578	80.5799	392.578	81.676	392.578	80.0607	392.578	81.3144	392.578	79.508	392.578	80.8545	392.578	78.9447	392.578	80.3187	392.578	78.4022	392.578	79.7397	392.578	77.9231	392.578	79.1616	392.578	77.5588	392.578	78.6415	392.578	77.3571	392.578	78.2466	392.578	77.3441	392.578	78.0401	392.578	77.5105	392.578	78.0501	392.578	77.8114	392.578	78.2425	392.578	78.1786	392.578	78.5268	392.578	78.5368	392.578	78.7943	392.578	78.8171	392.578	78.9567	392.578	78.9664
405.762	81.5397	405.762	81.3176	405.762	81.6423	405.762	80.9888	405.762	81.6182	405.762	80.571	405.762	81.4645	405.762	80.0874	405.762	81.183	405.762	79.5647	405.762	80.7816	405.762	79.0316	405.762	80.2766	405.762	78.5179	405.762	79.6965	405.762	78.054	405.762	79.0849	405.762	77.6706	405.762	78.5006	405.762	77.3997	405.762	78.0143	405.762	77.2724	405.762	77.6994	405.762	77.3132	405.762	77.6141	405.762	77.5269	405.762	77.7728	405.762	77.8844	405.762	78.1223	405.762	78.3187	405.762	78.552	405.762	78.7413	405.762	78.9365	405.762	79.0647	405.762	79.1771	405.762	79.2217
420.41	82.3479	420.41	82.1339	420.41	82.4321	420.41	81.7975	420.41	82.3832	420.41	81.3487	420.41	82.2021	420.41	80.7995	420.41	81.8932	420.41	80.1641	420.41	81.464	420.41	79.4622	420.41	80.9242	420.41	78.7259	420.41	80.2861	420.41	78.006	420.41	79.5686	420.41	77.3713	420.41	78.807	420.41	76.8941	420.41	78.068	420.41	76.627	420.41	77.4562	420.41	76.5876	420.41	77.0878	420.41	76.7588	420.41	77.0258	420.41	77.0943	420.41	77.2343	420.41	77.5189	420.41	77.5993	420.41	77.9339	420.41	77.9828	420.41	78.2385	420.41	78.2629	420.41	78.3575
435.059	82.3789	435.059	82.1834	435.059	82.4586	435.059	81.8796	435.059	82.419	435.059	81.4797	435.059	82.2595	435.059	81.0014	435.059	81.9834	435.059	80.466	435.059	81.6001	435.059	79.8958	435.059	81.1285	435.059	79.3152	435.059	80.5978	435.059	78.7551	435.059	80.0443	435.059	78.2592	435.059	79.5044	435.059	77.8815	435.059	79.0099	435.059	77.6716	435.059	78.5944	435.059	77.6528	435.059	78.3083	435.059	77.8102	435.059	78.2112	435.059	78.0964	435.059	78.3245	435.059	78.4448	435.059	78.5874	435.059	78.7809	435.059	78.8798	435.059	79.0325	435.059	79.0877	435.059	79.1437
450.439	83.1078	450.439	82.8757	450.439	83.2006	450.439	82.5118	450.439	83.1484	450.439	82.026	450.439	82.9485	450.439	81.4295	450.439	82.6027	450.439	80.7358	450.439	82.1202	450.439	79.9623	450.439	81.5198	450.439	79.1368	450.439	80.8321	450.439	78.3086	450.439	80.1005	450.439	77.5607	450.439	79.3829	450.439	77.0091	450.439	78.748	450.439	76.7665	450.439	78.2654	450.439	76.8753	450.439	77.9936	450.439	77.2713	450.439	77.9672	450.439	77.822	450.439	78.176	450.439	78.3913	450.439	78.5414	450.439	78.8733	450.439	78.9316	450.439	79.1957	450.439	79.217	450.439	79.3147
466.553	83.0331	466.553	82.8317	466.553	83.1066	466.553	82.5163	466.553	83.0443	466.553	82.1032	466.553	82.8465	466.553	81.6073	466.553	82.5214	466.553	81.0388	466.553	82.0826	466.553	80.4037	466.553	81.5459	466.553	79.7095	466.553	80.9261	466.553	78.9777	466.553	80.2392	466.553	78.2561	466.553	79.5127	466.553	77.6265	466.553	78.8024	466.553	77.1913	466.553	78.2061	466.553	77.0345	466.553	77.8448	466.553	77.1769	466.553	77.7972	466.553	77.561	466.553	78.0367	466.553	78.0744	466.553	78.439	466.553	78.5864	466.553	78.8444	466.553	78.9791	466.553	79.1154	466.553	79.1676
482.666	83.0364	482.666	82.8123	482.666	83.1137	482.666	82.4497	482.666	83.0444	482.666	81.9656	482.666	82.8356	482.666	81.3836	482.666	82.4985	482.666	80.7295	482.666	82.0462	482.666	80.0255	482.666	81.4929	482.666	79.2856	482.666	80.855	482.666	78.5187	482.666	80.1556	482.666	77.7439	482.666	79.4304	482.666	77.02	482.666	78.7363	482.666	76.4734	482.666	78.1566	482.666	76.2775	482.666	77.7905	482.666	76.5342	482.666	77.7155	482.666	77.1562	482.666	77.936	482.666	77.9198	482.666	78.3579	482.666	78.608	482.666	78.8208	482.666	79.0794	482.666	79.1621	482.666	79.2662
500.244	82.7935	500.244	82.5966	500.244	82.8719	500.244	82.2952	500.244	82.8224	500.244	81.905	500.244	82.6416	500.244	81.4378	500.244	82.332	500.244	80.8983	500.244	81.9037	500.244	80.286	500.244	81.376	500.244	79.602	500.244	80.7746	500.244	78.8586	500.244	80.1236	500.244	78.0888	500.244	79.4399	500.244	77.3529	500.244	78.7464	500.244	76.7434	500.244	78.1053	500.244	76.3769	500.244	77.6414	500.244	76.3535	500.244	77.4869	500.244	76.6827	500.244	77.6586	500.244	77.2467	500.244	78.0219	500.244	77.8583	500.244	78.3908	500.244	78.3485	500.244	78.6173	500.244	78.6128
517.822	82.6649	517.822	82.4459	517.822	82.7607	517.822	82.1312	517.822	82.7179	517.822	81.7531	517.822	82.5347	517.822	81.3385	517.822	82.2242	517.822	80.8976	517.822	81.8109	517.822	80.4204	517.822	81.3238	517.822	79.8855	517.822	80.786	517.822	79.2745	517.822	80.2038	517.822	78.587	517.822	79.565	517.822	77.8541	517.822	78.8585	517.822	77.1572	517.822	78.1246	517.822	76.6413	517.822	77.5248	517.822	76.4792	517.822	77.3219	517.822	76.749	517.822	77.6314	517.822	77.3417	517.822	78.23	517.822	78.0374	517.822	78.7763	517.822	78.6357	517.822	79.0557	517.822	79.0013
536.133	82.3378	536.133	82.0211	536.133	82.4498	536.133	81.5443	536.133	82.3455	536.133	80.9795	536.133	82.0444	536.133	80.4082	536.133	81.5916	536.133	79.8917	536.133	81.0506	536.133	79.4467	536.133	80.4967	536.133	79.0478	536.133	80.0015	536.133	78.6527	536.133	79.6012	536.133	78.2307	536.133	79.2651	536.133	77.7825	536.133	78.9003	536.133	77.3565	536.133	78.4173	536.133	77.0601	536.133	77.8377	536.133	77.0372	536.133	77.4006	536.133	77.3735	536.133	77.4637	536.133	77.9948	536.133	78.0657	536.133	78.6943	536.133	78.8217	536.133	79.2504	536.133	79.3544	536.133	79.4996
554.443	82.9242	554.443	82.5683	554.443	83.0478	554.443	82.0029	554.443	82.9356	554.443	81.2771	554.443	82.597	554.443	80.465	554.443	82.0521	554.443	79.6504	554.443	81.3388	554.443	78.8951	554.443	80.5209	554.443	78.2148	554.443	79.6883	554.443	77.5881	554.443	78.937	554.443	76.9932	554.443	78.3303	554.443	76.445	554.443	77.8671	554.443	76.013	554.443	77.485	554.443	75.8129	554.443	77.1148	554.443	75.9549	554.443	76.7773	554.443	76.4534	554.443	76.6559	554.443	77.1721	554.443	76.9556	554.443	77.8825	554.443	77.5844	554.443	78.3681	554.443	78.1898	554.443	78.4847
574.219	83.019	574.219	82.7341	574.219	83.1116	574.219	82.2719	574.219	83.0067	574.219	81.6654	574.219	82.7034	574.219	80.9681	574.219	82.2074	574.219	80.2422	574.219	81.5395	574.219	79.5319	574.219	80.7482	574.219	78.8412	574.219	79.918	574.219	78.14	574.219	79.1541	574.219	77.3991	574.219	78.526	574.219	76.6332	574.219	78.0122	574.219	75.9322	574.219	77.5304	574.219	75.4583	574.219	77.0451	574.219	75.3714	574.219	76.644	574.219	75.7008	574.219	76.4995	574.219	76.2996	574.219	76.6985	574.219	76.9377	574.219	77.11	574.219	77.4145	574.219	77.4792	574.219	77.6062
594.727	82.4839	594.727	82.2262	594.727	82.575	594.727	81.8104	594.727	82.49	594.727	81.2538	594.727	82.2186	594.727	80.5928	594.727	81.7577	594.727	79.883	594.727	81.1251	594.727	79.1838	594.727	80.3715	594.727	78.5366	594.727	79.5854	594.727	77.9484	594.727	78.8714	594.727	77.3902	594.727	78.2902	594.727	76.8153	594.727	77.807	594.727	76.2041	594.727	77.3379	594.727	75.635	594.727	76.8779	594.727	75.3295	594.727	76.5821	594.727	75.5232	594.727	76.6545	594.727	76.1868	594.727	77.0913	594.727	77.0178	594.727	77.6417	594.727	77.7043	594.727	78.0225	594.727	78.0601
615.234	82.937	615.234	82.5833	615.234	83.0249	615.234	81.9896	615.234	82.8419	615.234	81.2107	615.234	82.3972	615.234	80.337	615.234	81.716	615.234	79.4841	615.234	80.8438	615.234	78.7601	615.234	79.8527	615.234	78.2172	615.234	78.8522	615.234	77.8222	615.234	77.9872	615.234	77.478	615.234	77.3796	615.234	77.0832	615.234	77.0201	615.234	76.6044	615.234	76.7625	615.234	76.1416	615.234	76.473	615.234	75.9343	615.234	76.1875	615.234	76.1872	615.234	76.1312	615.234	76.8189	615.234	76.4962	615.234	77.5185	615.234	77.159	615.234	77.9977	615.234	77.7817	615.234	78.0965
637.207	83.0565	637.207	82.7223	637.207	83.1832	637.207	82.1795	637.207	83.1052	637.207	81.4446	637.207	82.8204	637.207	80.5674	637.207	82.3234	637.207	79.633	637.207	81.6141	637.207	78.7457	637.207	80.7146	637.207	77.9937	637.207	79.6956	637.207	77.4036	637.207	78.6922	637.207	76.9111	637.207	77.8538	637.207	76.3867	637.207	77.2223	637.207	75.7282	637.207	76.7014	637.207	74.9989	637.207	76.2352	637.207	74.5478	637.207	75.976	637.207	74.8062	637.207	76.152	637.207	75.7033	637.207	76.7231	637.207	76.7368	637.207	77.3794	637.207	77.5198	637.207	77.8249	637.207	77.892
659.912	83.318	659.912	82.9371	659.912	83.428	659.912	82.3128	659.912	83.2625	659.912	81.5016	659.912	82.8345	659.912	80.5908	659.912	82.1731	659.912	79.6825	659.912	81.3222	659.912	78.8538	659.912	80.3447	659.912	78.1259	659.912	79.3344	659.912	77.4763	659.912	78.4222	659.912	76.8759	659.912	77.7274	659.912	76.3001	659.912	77.2376	659.912	75.7158	659.912	76.7724	659.912	75.1176	659.912	76.1716	659.912	74.6444	659.912	75.5835	659.912	74.6251	659.912	75.5214	659.912	75.2583	659.912	76.2037	659.912	76.2706	659.912	77.1135	659.912	77.198	659.912	77.6944	659.912	77.7221
683.35	83.4098	683.35	82.9827	683.35	83.5177	683.35	82.2643	683.35	83.3027	683.35	81.3171	683.35	82.7844	683.35	80.2506	683.35	82.0094	683.35	79.2095	683.35	81.0541	683.35	78.323	683.35	80.0293	683.35	77.6477	683.35	79.0856	683.35	77.1651	683.35	78.3735	683.35	76.8151	683.35	77.9346	683.35	76.5092	683.35	77.6399	683.35	76.1417	683.35	77.2866	683.35	75.6681	683.35	76.7549	683.35	75.2554	683.35	76.1353	683.35	75.32	683.35	75.8194	683.35	76.0804	683.35	76.2325	683.35	77.1555	683.35	77.1739	683.35	78.0077	683.35	78.01	683.35	78.3247
706.787	83.8645	706.787	83.4156	706.787	84.0075	706.787	82.6695	706.787	83.8541	706.787	81.6747	706.787	83.4157	706.787	80.5328	706.787	82.703	706.787	79.3906	706.787	81.7388	706.787	78.3961	706.787	80.5717	706.787	77.6339	706.787	79.2909	706.787	77.0969	706.787	78.0616	706.787	76.7117	706.787	77.1557	706.787	76.3703	706.787	76.7716	706.787	75.9634	706.787	76.7059	706.787	75.4658	706.787	76.5316	706.787	75.0726	706.787	76.1121	706.787	75.1833	706.787	75.8674	706.787	75.9568	706.787	76.3755	706.787	77.0353	706.787	77.3883	706.787	77.946	706.787	78.1821	706.787	78.3791
731.689	84.3081	731.689	83.9733	731.689	84.3461	731.689	83.3608	731.689	84.0851	731.689	82.5132	731.689	83.5386	731.689	81.504	731.689	82.7397	731.689	80.4334	731.689	81.7397	731.689	79.4163	731.689	80.6048	731.689	78.5663	731.689	79.4317	731.689	77.964	731.689	78.3747	731.689	77.5962	731.689	77.6024	731.689	77.3117	731.689	77.1437	731.689	76.877	731.689	76.8208	731.689	76.1117	731.689	76.4073	731.689	75.0707	731.689	75.8361	731.689	74.3117	731.689	75.3905	731.689	74.7005	731.689	75.661	731.689	76.0518	731.689	76.6718	731.689	77.3304	731.689	77.6309	731.689	77.9107
758.057	84.6511	758.057	84.2972	758.057	84.7062	758.057	83.6713	758.057	84.4432	758.057	82.8078	758.057	83.8687	758.057	81.7695	758.057	83.029	758.057	80.6697	758.057	81.9911	758.057	79.6544	758.057	80.8135	758.057	78.8287	758.057	79.5773	758.057	78.2247	758.057	78.4718	758.057	77.8453	758.057	77.7527	758.057	77.6277	758.057	77.4779	758.057	77.3714	758.057	77.4128	758.057	76.8546	758.057	77.2545	758.057	76.1035	758.057	76.8124	758.057	75.618	758.057	76.217	758.057	76.0209	758.057	76.1711	758.057	77.1027	758.057	77.0805	758.057	78.1066	758.057	78.1178	758.057	78.5127
784.424	85.2722	784.424	84.9719	784.424	85.3375	784.424	84.4616	784.424	85.1581	784.424	83.7591	784.424	84.742	784.424	82.8743	784.424	84.0872	784.424	81.8547	784.424	83.1629	784.424	80.8305	784.424	81.9375	784.424	79.9489	784.424	80.451	784.424	79.2054	784.424	78.9083	784.424	78.4473	784.424	77.6898	784.424	77.5877	784.424	77.0132	784.424	76.7185	784.424	76.6526	784.424	75.9855	784.424	76.3536	784.424	75.433	784.424	76.0728	784.424	75.1631	784.424	75.8163	784.424	75.5396	784.424	75.9026	784.424	76.6644	784.424	76.8285	784.424	77.8779	784.424	77.9905	784.424	78.428
812.256	85.506	812.256	85.3176	812.256	85.4682	812.256	84.8835	812.256	85.2077	812.256	84.1994	812.256	84.7081	812.256	83.3052	812.256	83.9583	812.256	82.2828	812.256	82.966	812.256	81.2142	812.256	81.7337	812.256	80.1532	812.256	80.2441	812.256	79.1745	812.256	78.5571	812.256	78.419	812.256	77.0553	812.256	77.9652	812.256	76.3787	812.256	77.6469	812.256	76.4527	812.256	77.1759	812.256	76.4737	812.256	76.4797	812.256	76.0249	812.256	75.9469	812.256	75.5051	812.256	76.1984	812.256	75.8333	812.256	77.1507	812.256	76.9689	812.256	78.0572	812.256	77.9944	812.256	78.3917
840.82	86.0539	840.82	85.8903	840.82	85.9982	840.82	85.4772	840.82	85.7182	840.82	84.7597	840.82	85.2121	840.82	83.7206	840.82	84.5127	840.82	82.4604	840.82	83.6582	840.82	81.2116	840.82	82.6301	840.82	80.1796	840.82	81.3548	840.82	79.358	840.82	79.7954	840.82	78.6517	840.82	78.092	840.82	78.0715	840.82	76.6621	840.82	77.6098	840.82	75.9406	840.82	77.0798	840.82	75.8526	840.82	76.3504	840.82	75.948	840.82	75.7244	840.82	75.9255	840.82	75.9038	840.82	76.0585	840.82	76.9843	840.82	76.9193	840.82	78.1148	840.82	78.0543	840.82	78.554
870.85	85.9418	870.85	85.8085	870.85	85.799	870.85	85.395	870.85	85.3931	870.85	84.6807	870.85	84.7558	870.85	83.6337	870.85	83.9172	870.85	82.2947	870.85	82.8833	870.85	80.9081	870.85	81.6407	870.85	79.8408	870.85	80.2091	870.85	79.1376	870.85	78.7784	870.85	78.4888	870.85	77.8012	870.85	77.7212	870.85	77.5294	870.85	76.9292	870.85	77.5396	870.85	76.2111	870.85	77.303	870.85	75.5395	870.85	76.5674	870.85	75.1228	870.85	75.3741	870.85	75.5511	870.85	74.633	870.85	76.7822	870.85	75.6759	870.85	77.9021	870.85	77.3473	870.85	78.183
901.611	86.4103	901.611	86.3277	901.611	86.1651	901.611	85.9157	901.611	85.6113	901.611	85.1444	901.611	84.824	901.611	83.945	901.611	83.9248	901.611	82.2666	901.611	83.0073	901.611	80.2258	901.611	82.0474	901.611	78.3389	901.611	80.8992	901.611	77.3682	901.611	79.3869	901.611	77.3278	901.611	77.4695	901.611	77.5494	901.611	75.6056	901.611	77.6334	901.611	74.9509	901.611	77.4749	901.611	75.6534	901.611	77.0021	901.611	76.4137	901.611	76.2855	901.611	76.468	901.611	76.043	901.611	76.133	901.611	77.0768	901.611	76.7341	901.611	78.4551	901.611	78.1755	901.611	78.939
933.105	86.0044	933.105	85.9237	933.105	85.6732	933.105	85.4352	933.105	84.9931	933.105	84.5869	933.105	84.0781	933.105	83.4159	933.105	83.0505	933.105	81.9151	933.105	81.9772	933.105	80.0932	933.105	80.8232	933.105	78.1393	933.105	79.5113	933.105	76.5532	933.105	78.1081	933.105	75.7761	933.105	76.9277	933.105	75.5765	933.105	76.1782	933.105	75.4705	933.105	75.6753	933.105	75.2819	933.105	75.4151	933.105	75.0636	933.105	75.5351	933.105	75.0128	933.105	75.4623	933.105	75.4963	933.105	74.8336	933.105	76.5618	933.105	75.0668	933.105	77.5446	933.105	76.6437	933.105	77.6863
966.064	85.44	966.064	85.277	966.064	85.1379	966.064	84.677	966.064	84.4353	966.064	83.7387	966.064	83.4807	966.064	82.5659	966.064	82.4346	966.064	81.2074	966.064	81.3356	966.064	79.7141	966.064	80.0837	966.064	78.2613	966.064	78.6009	966.064	77.0716	966.064	76.9325	966.064	76.1457	966.064	75.2002	966.064	75.3621	966.064	73.6178	966.064	74.8652	966.064	72.7792	966.064	74.7654	966.064	73.3682	966.064	74.6752	966.064	74.5805	966.064	74.1869	966.064	75.0497	966.064	73.6709	966.064	74.573	966.064	74.5633	966.064	74.8016	966.064	76.3531	966.064	76.3608	966.064	77.153
999.756	84.1667	999.756	83.9825	999.756	83.8616	999.756	83.3822	999.756	83.0355	999.756	82.388	999.756	81.8228	999.756	81.0089	999.756	80.5051	999.756	79.3663	999.756	79.2797	999.756	77.7017	999.756	78.095	999.756	76.1595	999.756	76.7753	999.756	74.739	999.756	75.2441	999.756	73.6258	999.756	73.7843	999.756	73.1149	999.756	73.0011	999.756	73.0109	999.756	72.7494	999.756	72.9585	999.756	72.2598	999.756	72.972	999.756	71.4176	999.756	73.2194	999.756	70.6068	999.756	73.6939	999.756	70.4567	999.756	74.2955	999.756	71.9906	999.756	74.8446	999.756	73.9438	999.756	74.8955
1,034.91	82.2401	1,034.91	82.3557	1,034.91	81.79	1,034.91	82.1268	1,034.91	81.0473	1,034.91	81.5164	1,034.91	80.0952	1,034.91	80.4246	1,034.91	79.0213	1,034.91	78.7151	1,034.91	77.9094	1,034.91	76.3329	1,034.91	76.7997	1,034.91	73.5816	1,034.91	75.6093	1,034.91	71.5832	1,034.91	74.2763	1,034.91	71.3961	1,034.91	73.0435	1,034.91	72.1393	1,034.91	72.1963	1,034.91	72.6911	1,034.91	71.4844	1,034.91	72.6259	1,034.91	70.827	1,034.91	71.9196	1,034.91	70.8473	1,034.91	71.1425	1,034.91	70.9619	1,034.91	71.5689	1,034.91	69.8112	1,034.91	73.1917	1,034.91	69.3723	1,034.91	74.4349	1,034.91	72.2005	1,034.91	74.2518
1,071.53	80.7956	1,071.53	80.9697	1,071.53	80.2756	1,071.53	80.8229	1,071.53	79.4371	1,071.53	80.3056	1,071.53	78.4765	1,071.53	79.2908	1,071.53	77.6233	1,071.53	77.6838	1,071.53	76.8759	1,071.53	75.6131	1,071.53	76.0283	1,071.53	73.6554	1,071.53	74.843	1,071.53	72.6464	1,071.53	73.1764	1,071.53	72.3456	1,071.53	71.3375	1,071.53	71.4866	1,071.53	70.2889	1,071.53	69.7394	1,071.53	70.164	1,071.53	69.0503	1,071.53	70.3193	1,071.53	70.2887	1,071.53	70.82	1,071.53	71.3151	1,071.53	71.1503	1,071.53	71.6497	1,071.53	70.3715	1,071.53	72.1072	1,071.53	69.6419	1,071.53	72.8444	1,071.53	71.2228	1,071.53	72.7553
1,109.62	80.999	1,109.62	81.2583	1,109.62	80.4746	1,109.62	81.1309	1,109.62	79.8679	1,109.62	80.5952	1,109.62	79.3425	1,109.62	79.7024	1,109.62	78.8727	1,109.62	78.462	1,109.62	78.2608	1,109.62	76.8497	1,109.62	77.3931	1,109.62	74.9718	1,109.62	76.2478	1,109.62	73.3322	1,109.62	74.6825	1,109.62	72.6952	1,109.62	72.6517	1,109.62	72.5167	1,109.62	70.9606	1,109.62	71.8308	1,109.62	70.6525	1,109.62	70.8519	1,109.62	71.1989	1,109.62	70.1786	1,109.62	72.0487	1,109.62	69.8195	1,109.62	72.4946	1,109.62	70.2796	1,109.62	71.4287	1,109.62	72.1781	1,109.62	69.9162	1,109.62	73.818	1,109.62	71.7549	1,109.62	73.7712
1,148.44	81.1378	1,148.44	81.3486	1,148.44	80.7508	1,148.44	81.2248	1,148.44	80.3237	1,148.44	80.638	1,148.44	79.8877	1,148.44	79.6276	1,148.44	79.3977	1,148.44	78.5068	1,148.44	78.8464	1,148.44	77.5551	1,148.44	78.1196	1,148.44	76.5388	1,148.44	76.8138	1,148.44	75.0882	1,148.44	74.5196	1,148.44	73.7165	1,148.44	71.826	1,148.44	73.0512	1,148.44	71.402	1,148.44	72.2554	1,148.44	72.3951	1,148.44	70.8151	1,148.44	72.0349	1,148.44	69.524	1,148.44	71.3747	1,148.44	69.8562	1,148.44	72.5585	1,148.44	71.1148	1,148.44	72.7846	1,148.44	72.3012	1,148.44	70.94	1,148.44	73.1351	1,148.44	70.9423	1,148.44	72.7929
1,189.45	82.0892	1,189.45	82.1867	1,189.45	81.622	1,189.45	81.7198	1,189.45	80.9438	1,189.45	80.7057	1,189.45	80.0978	1,189.45	79.4071	1,189.45	79.2112	1,189.45	78.1451	1,189.45	78.4891	1,189.45	77.0519	1,189.45	77.9373	1,189.45	76.0206	1,189.45	77.1581	1,189.45	74.8574	1,189.45	75.4899	1,189.45	73.6551	1,189.45	72.7752	1,189.45	73.0799	1,189.45	71.4364	1,189.45	73.1433	1,189.45	71.7481	1,189.45	72.8341	1,189.45	70.3796	1,189.45	71.3702	1,189.45	69.3584	1,189.45	68.8575	1,189.45	71.5719	1,189.45	68.3955	1,189.45	71.9462	1,189.45	70.787	1,189.45	71.0882	1,189.45	72.5604	1,189.45	72.0654	1,189.45	72.9808
1,231.2	82.6861	1,231.2	82.5223	1,231.2	82.0385	1,231.2	81.5436	1,231.2	81.0193	1,231.2	80.2976	1,231.2	80.1267	1,231.2	79.4452	1,231.2	79.4244	1,231.2	78.8572	1,231.2	78.8926	1,231.2	77.8726	1,231.2	78.5957	1,231.2	76.2096	1,231.2	78.0767	1,231.2	74.1441	1,231.2	76.413	1,231.2	72.3452	1,231.2	72.8131	1,231.2	72.1959	1,231.2	69.6193	1,231.2	73.4185	1,231.2	71.3157	1,231.2	74.2644	1,231.2	71.6825	1,231.2	73.8024	1,231.2	71.13	1,231.2	71.7108	1,231.2	71.9964	1,231.2	69.7013	1,231.2	71.2235	1,231.2	70.5019	1,231.2	70.3299	1,231.2	72.1397	1,231.2	72.3964	1,231.2	73.0965
1,274.41	82.5193	1,274.41	82.6615	1,274.41	81.963	1,274.41	82.0892	1,274.41	81.3997	1,274.41	81.045	1,274.41	80.8152	1,274.41	80.0885	1,274.41	80.0013	1,274.41	79.1795	1,274.41	79.0428	1,274.41	77.6453	1,274.41	78.2493	1,274.41	75.3441	1,274.41	77.6186	1,274.41	72.9617	1,274.41	76.5848	1,274.41	70.1795	1,274.41	74.414	1,274.41	66.5412	1,274.41	71.4824	1,274.41	69.1309	1,274.41	71.6334	1,274.41	73.2818	1,274.41	72.2925	1,274.41	74.3225	1,274.41	70.6702	1,274.41	72.0691	1,274.41	70.6631	1,274.41	67.914	1,274.41	71.5153	1,274.41	69.682	1,274.41	69.4062	1,274.41	72.7402	1,274.41	70.7778	1,274.41	73.2281
1,319.82	82.3629	1,319.82	82.673	1,319.82	82.0594	1,319.82	82.2725	1,319.82	82.0063	1,319.82	80.7542	1,319.82	81.7274	1,319.82	78.5642	1,319.82	80.7901	1,319.82	77.0689	1,319.82	79.352	1,319.82	76.4365	1,319.82	78.0823	1,319.82	75.347	1,319.82	77.4809	1,319.82	73.8509	1,319.82	76.876	1,319.82	72.632	1,319.82	74.8315	1,319.82	70.736	1,319.82	70.9275	1,319.82	69.1078	1,319.82	69.992	1,319.82	71.595	1,319.82	71.4543	1,319.82	73.4753	1,319.82	71.1769	1,319.82	72.5229	1,319.82	72.2746	1,319.82	68.6941	1,319.82	73.3286	1,319.82	67.1558	1,319.82	71.2657	1,319.82	71.4268	1,319.82	71.1507	1,319.82	72.8513
1,365.97	82.4106	1,365.97	82.7907	1,365.97	82.0808	1,365.97	82.4935	1,365.97	82.0341	1,365.97	81.3846	1,365.97	81.679	1,365.97	79.9332	1,365.97	80.7153	1,365.97	78.3282	1,365.97	79.4456	1,365.97	76.1823	1,365.97	78.3031	1,365.97	73.4155	1,365.97	77.7017	1,365.97	71.3174	1,365.97	77.1649	1,365.97	70.517	1,365.97	75.3199	1,365.97	68.6748	1,365.97	71.4838	1,365.97	64.6378	1,365.97	67.9213	1,365.97	66.9133	1,365.97	69.9366	1,365.97	71.8482	1,365.97	72.0336	1,365.97	72.949	1,365.97	72.4675	1,365.97	70.9698	1,365.97	72.594	1,365.97	67.9329	1,365.97	70.8666	1,365.97	70.0366	1,365.97	69.2607	1,365.97	71.2201
1,414.31	82.2802	1,414.31	82.2177	1,414.31	81.8484	1,414.31	81.6076	1,414.31	81.217	1,414.31	80.9097	1,414.31	80.7975	1,414.31	80.4943	1,414.31	80.5572	1,414.31	79.491	1,414.31	79.9045	1,414.31	76.6593	1,414.31	78.6304	1,414.31	72.0134	1,414.31	77.2492	1,414.31	68.8773	1,414.31	75.9208	1,414.31	69.6643	1,414.31	73.6549	1,414.31	69.9846	1,414.31	70.2418	1,414.31	67.0059	1,414.31	69.8509	1,414.31	67.7796	1,414.31	71.0333	1,414.31	72.8225	1,414.31	68.3939	1,414.31	74.1428	1,414.31	69.9997	1,414.31	72.4998	1,414.31	71.8838	1,414.31	70.0954	1,414.31	70.4108	1,414.31	70.4515	1,414.31	69.1609	1,414.31	70.4259
1,464.11	81.7762	1,464.11	81.349	1,464.11	82.1087	1,464.11	81.2063	1,464.11	81.8624	1,464.11	80.8206	1,464.11	81.2609	1,464.11	79.5643	1,464.11	80.6201	1,464.11	77.6907	1,464.11	79.5709	1,464.11	76.0997	1,464.11	78.124	1,464.11	74.3453	1,464.11	77.2684	1,464.11	71.8416	1,464.11	76.6992	1,464.11	70.1489	1,464.11	74.8842	1,464.11	72.1028	1,464.11	71.3415	1,464.11	71.9578	1,464.11	69.6914	1,464.11	67.7151	1,464.11	70.5329	1,464.11	67.2257	1,464.11	67.1628	1,464.11	70.5209	1,464.11	69.3219	1,464.11	70.6953	1,464.11	71.7595	1,464.11	68.8731	1,464.11	70.7116	1,464.11	68.2699	1,464.11	69.3997	1,464.11	69.202
1,515.38	82.4569	1,515.38	81.7097	1,515.38	82.5784	1,515.38	81.182	1,515.38	81.9398	1,515.38	80.8821	1,515.38	81.187	1,515.38	79.9788	1,515.38	80.626	1,515.38	78.2638	1,515.38	79.5991	1,515.38	76.4057	1,515.38	77.7672	1,515.38	74.7852	1,515.38	76.2867	1,515.38	72.7226	1,515.38	75.8199	1,515.38	72.1556	1,515.38	75.1167	1,515.38	73.5878	1,515.38	72.6914	1,515.38	72.5177	1,515.38	68.6683	1,515.38	68.079	1,515.38	70.581	1,515.38	63.9904	1,515.38	69.661	1,515.38	66.3089	1,515.38	66.0274	1,515.38	67.8072	1,515.38	70.7182	1,515.38	67.8554	1,515.38	70.7986	1,515.38	68.3726	1,515.38	68.3285	1,515.38	68.2451
1,568.85	82.7501	1,568.85	82.2175	1,568.85	82.7002	1,568.85	81.1797	1,568.85	82.1073	1,568.85	79.9197	1,568.85	81.3646	1,568.85	78.9947	1,568.85	80.3795	1,568.85	78.0989	1,568.85	78.4591	1,568.85	76.7875	1,568.85	76.1774	1,568.85	74.8995	1,568.85	74.6065	1,568.85	71.5298	1,568.85	74.5502	1,568.85	69.2032	1,568.85	74.6058	1,568.85	71.1587	1,568.85	72.5366	1,568.85	72.0187	1,568.85	69.4675	1,568.85	70.6144	1,568.85	67.7264	1,568.85	67.265	1,568.85	69.8595	1,568.85	67.4517	1,568.85	71.085	1,568.85	67.8689	1,568.85	69.4214	1,568.85	66.3798	1,568.85	71.2708	1,568.85	68.3271	1,568.85	71.2675	1,568.85	69.3593
1,624.51	82.312	1,624.51	82.1011	1,624.51	82.2482	1,624.51	81.3459	1,624.51	82.0338	1,624.51	79.7035	1,624.51	81.2949	1,624.51	77.547	1,624.51	79.7691	1,624.51	76.3558	1,624.51	78.0753	1,624.51	76.2397	1,624.51	76.7303	1,624.51	75.0577	1,624.51	74.9189	1,624.51	71.6299	1,624.51	75.5508	1,624.51	65.0102	1,624.51	76.3115	1,624.51	50.5132	1,624.51	73.1157	1,624.51	62.9221	1,624.51	69.7008	1,624.51	66.0164	1,624.51	70.9968	1,624.51	66.2513	1,624.51	66.6583	1,624.51	69.5704	1,624.51	69.4915	1,624.51	70.6013	1,624.51	70.242	1,624.51	67.1705	1,624.51	69.4848	1,624.51	66.0879	1,624.51	70.3518	1,624.51	68.0805
1,681.64	81.108	1,681.64	80.4742	1,681.64	82.2944	1,681.64	80.8838	1,681.64	82.0703	1,681.64	79.7904	1,681.64	81.1802	1,681.64	77.6933	1,681.64	80.141	1,681.64	77.0912	1,681.64	78.9076	1,681.64	75.8786	1,681.64	77.0096	1,681.64	72.6477	1,681.64	74.0774	1,681.64	71.5903	1,681.64	72.2766	1,681.64	69.1672	1,681.64	72.0456	1,681.64	59.6601	1,681.64	72.0097	1,681.64	66.0878	1,681.64	72.2756	1,681.64	70.1282	1,681.64	71.4202	1,681.64	68.9547	1,681.64	68.897	1,681.64	68.0459	1,681.64	67.4181	1,681.64	68.8072	1,681.64	63.3893	1,681.64	67.8526	1,681.64	67.8645	1,681.64	66.6174	1,681.64	66.5374	1,681.64	66.3342
1,740.97	81.346	1,740.97	80.482	1,740.97	81.5023	1,740.97	80.0856	1,740.97	81.1763	1,740.97	79.6508	1,740.97	80.8731	1,740.97	77.6095	1,740.97	80.1203	1,740.97	75.964	1,740.97	78.5996	1,740.97	76.1223	1,740.97	75.7021	1,740.97	73.6689	1,740.97	72.1173	1,740.97	69.1807	1,740.97	71.1409	1,740.97	68.0648	1,740.97	71.5948	1,740.97	67.832	1,740.97	69.0121	1,740.97	62.0584	1,740.97	69.4612	1,740.97	60.9319	1,740.97	71.544	1,740.97	67.9001	1,740.97	66.6176	1,740.97	69.5736	1,740.97	67.2699	1,740.97	70.0778	1,740.97	69.4253	1,740.97	67.3859	1,740.97	70.4827	1,740.97	63.2991	1,740.97	68.9995	1,740.97	65.4615
1,802.49	81.8312	1,802.49	80.6959	1,802.49	82.0775	1,802.49	79.7743	1,802.49	81.3502	1,802.49	79.3541	1,802.49	79.9253	1,802.49	77.6765	1,802.49	77.6116	1,802.49	75.4113	1,802.49	75.7346	1,802.49	74.9392	1,802.49	74.2583	1,802.49	74.0592	1,802.49	72.673	1,802.49	69.0641	1,802.49	71.4278	1,802.49	65.2499	1,802.49	71.7473	1,802.49	68.8369	1,802.49	68.9892	1,802.49	71.3945	1,802.49	60.1775	1,802.49	70.0533	1,802.49	63.5212	1,802.49	68.0754	1,802.49	66.8492	1,802.49	68.1163	1,802.49	68.209	1,802.49	68.7667	1,802.49	65.2856	1,802.49	68.6844	1,802.49	71.2926	1,802.49	65.7275	1,802.49	68.6932	1,802.49	61.2854
1,866.21	81.2374	1,866.21	81.0717	1,866.21	81.2728	1,866.21	78.6746	1,866.21	81.5336	1,866.21	76.564	1,866.21	79.3388	1,866.21	76.4285	1,866.21	76.1178	1,866.21	75.2493	1,866.21	75.1098	1,866.21	71.5425	1,866.21	74.1593	1,866.21	68.0862	1,866.21	73.3727	1,866.21	68.8158	1,866.21	71.3596	1,866.21	70.5036	1,866.21	69.4728	1,866.21	72.4211	1,866.21	67.7248	1,866.21	73.575	1,866.21	64.3842	1,866.21	73.0658	1,866.21	66.7919	1,866.21	71.1222	1,866.21	63.4049	1,866.21	69.5673	1,866.21	56.2434	1,866.21	69.6186	1,866.21	64.7932	1,866.21	65.8078	1,866.21	64.1729	1,866.21	54.9689	1,866.21	64.9819	1,866.21	59.7679
1,932.13	80.221	1,932.13	80.0608	1,932.13	81.1999	1,932.13	78.8307	1,932.13	81.2594	1,932.13	75.5132	1,932.13	78.8442	1,932.13	74.2946	1,932.13	76.3783	1,932.13	74.1231	1,932.13	74.2191	1,932.13	70.3006	1,932.13	71.7362	1,932.13	68.5278	1,932.13	70.7848	1,932.13	71.1986	1,932.13	69.939	1,932.13	68.6787	1,932.13	67.2456	1,932.13	66.1267	1,932.13	68.3907	1,932.13	71.2294	1,932.13	64.6297	1,932.13	71.4664	1,932.13	64.7323	1,932.13	69.045	1,932.13	67.586	1,932.13	68.6336	1,932.13	62.5651	1,932.13	68.9061	1,932.13	66.7482	1,932.13	67.3554	1,932.13	68.5215	1,932.13	62.5928	1,932.13	64.3704	1,932.13	57.3376
2,000.24	80.6273	2,000.24	79.5018	2,000.24	80.7794	2,000.24	77.9609	2,000.24	79.8213	2,000.24	76.3967	2,000.24	77.8496	2,000.24	76.114	2,000.24	74.9873	2,000.24	75.6024	2,000.24	70.8658	2,000.24	72.9141	2,000.24	67.8347	2,000.24	70.492	2,000.24	70.8918	2,000.24	71.1333	2,000.24	71.775	2,000.24	69.3952	2,000.24	68.1562	2,000.24	61.6702	2,000.24	66.7868	2,000.24	65.0909	2,000.24	67.6524	2,000.24	67.3478	2,000.24	61.8336	2,000.24	63.755	2,000.24	63.4881	2,000.24	63.8374	2,000.24	64.689	2,000.24	66.8484	2,000.24	58.2374	2,000.24	65.7121	2,000.24	68.0084	2,000.24	60.3274	2,000.24	68.3944	2,000.24	62.563
2,070.56	82.0617	2,070.56	79.9892	2,070.56	82.1441	2,070.56	77.5094	2,070.56	80.4056	2,070.56	75.8206	2,070.56	77.0694	2,070.56	75.5573	2,070.56	73.1111	2,070.56	75.4979	2,070.56	69.7114	2,070.56	73.514	2,070.56	67.8251	2,070.56	70.8153	2,070.56	70.42	2,070.56	70.6313	2,070.56	71.3255	2,070.56	70.213	2,070.56	69.9857	2,070.56	65.1422	2,070.56	69.644	2,070.56	54.0016	2,070.56	68.8382	2,070.56	64.7842	2,070.56	64.1655	2,070.56	63.787	2,070.56	58.2022	2,070.56	53.6516	2,070.56	62.9288	2,070.56	62.4168	2,070.56	62.6696	2,070.56	63.9509	2,070.56	67.9156	2,070.56	57.9298	2,070.56	68.2079	2,070.56	62.9276
2,143.8	81.606	2,143.8	79.3283	2,143.8	82.0142	2,143.8	76.4188	2,143.8	80.84	2,143.8	74.8505	2,143.8	77.2721	2,143.8	74.7694	2,143.8	71.7537	2,143.8	74.2215	2,143.8	66.0846	2,143.8	72.9692	2,143.8	66.7408	2,143.8	71.9584	2,143.8	70.04	2,143.8	70.4831	2,143.8	69.8817	2,143.8	70.2962	2,143.8	69.6508	2,143.8	70.7756	2,143.8	68.5858	2,143.8	68.5259	2,143.8	65.742	2,143.8	70.2086	2,143.8	62.961	2,143.8	69.8713	2,143.8	56.0119	2,143.8	66.0796	2,143.8	65.0486	2,143.8	62.232	2,143.8	63.502	2,143.8	55.4761	2,143.8	69.972	2,143.8	49.826	2,143.8	67.8293	2,143.8	51.7963
2,219.24	80.7063	2,219.24	78.0642	2,219.24	81.2708	2,219.24	75.1616	2,219.24	79.5316	2,219.24	71.8057	2,219.24	77.202	2,219.24	73.0291	2,219.24	71.8317	2,219.24	73.9356	2,219.24	69.6141	2,219.24	73.2625	2,219.24	69.584	2,219.24	73.8437	2,219.24	69.4389	2,219.24	71.8037	2,219.24	70.7035	2,219.24	69.3444	2,219.24	71.566	2,219.24	72.1963	2,219.24	69.6108	2,219.24	70.3144	2,219.24	68.5633	2,219.24	65.9522	2,219.24	70.1	2,219.24	68.9596	2,219.24	64.5631	2,219.24	67.4386	2,219.24	65.5868	2,219.24	65.652	2,219.24	63.2485	2,219.24	67.2579	2,219.24	68.0271	2,219.24	57.4998	2,219.24	65.8239	2,219.24	57.4822
2,297.61	81.6656	2,297.61	78.7389	2,297.61	81.4259	2,297.61	74.686	2,297.61	79.1154	2,297.61	72.0612	2,297.61	75.8574	2,297.61	73.6801	2,297.61	71.2758	2,297.61	73.5597	2,297.61	70.1331	2,297.61	73.4008	2,297.61	69.5211	2,297.61	73.4431	2,297.61	68.2562	2,297.61	71.4401	2,297.61	69.385	2,297.61	66.9038	2,297.61	71.4796	2,297.61	68.2941	2,297.61	65.4024	2,297.61	69.6043	2,297.61	66.6612	2,297.61	67.4638	2,297.61	70.0397	2,297.61	69.0253	2,297.61	63.2952	2,297.61	69.4724	2,297.61	60.9703	2,297.61	68.0822	2,297.61	63.2035	2,297.61	67.7365	2,297.61	61.0064	2,297.61	58.6616	2,297.61	63.187	2,297.61	63.4986
2,378.17	81.8988	2,378.17	78.2175	2,378.17	82.5265	2,378.17	71.8365	2,378.17	79.8831	2,378.17	68.5884	2,378.17	74.433	2,378.17	72.1289	2,378.17	66.5669	2,378.17	75.0152	2,378.17	65.7953	2,378.17	77.0546	2,378.17	73.9466	2,378.17	75.7118	2,378.17	73.5703	2,378.17	71.1996	2,378.17	70.2645	2,378.17	70.9964	2,378.17	70.4505	2,378.17	71.55	2,378.17	67.8927	2,378.17	69.4528	2,378.17	64.9864	2,378.17	66.828	2,378.17	68.8296	2,378.17	64.9556	2,378.17	64.4303	2,378.17	64.6892	2,378.17	56.263	2,378.17	64.8973	2,378.17	51.0262	2,378.17	65.6196	2,378.17	61.3202	2,378.17	64.7244	2,378.17	66.3219	2,378.17	55.4574
2,462.4	81.1484	2,462.4	78.0316	2,462.4	82.0218	2,462.4	71.9676	2,462.4	79.8059	2,462.4	67.7719	2,462.4	73.161	2,462.4	74.7199	2,462.4	63.0853	2,462.4	76.4558	2,462.4	67.7387	2,462.4	74.8349	2,462.4	70.6873	2,462.4	73.0735	2,462.4	70.8738	2,462.4	73.3098	2,462.4	68.8414	2,462.4	71.4179	2,462.4	68.9184	2,462.4	68.6878	2,462.4	67.2573	2,462.4	68.2693	2,462.4	60.1516	2,462.4	67.2489	2,462.4	69.2034	2,462.4	67.1618	2,462.4	67.4357	2,462.4	67.2558	2,462.4	59.8577	2,462.4	65.5294	2,462.4	52.7812	2,462.4	62.6767	2,462.4	63.9475	2,462.4	50.487	2,462.4	66.8014	2,462.4	62.2889
2,548.83	80.0409	2,548.83	77.6232	2,548.83	80.9804	2,548.83	72.3028	2,548.83	79.2594	2,548.83	69.85	2,548.83	73.734	2,548.83	75.9333	2,548.83	68.2816	2,548.83	76.231	2,548.83	71.7668	2,548.83	75.5205	2,548.83	70.0791	2,548.83	74.201	2,548.83	69.4135	2,548.83	71.3202	2,548.83	71.5615	2,548.83	70.2849	2,548.83	69.0283	2,548.83	69.3492	2,548.83	66.834	2,548.83	67.2684	2,548.83	65.8712	2,548.83	66.9116	2,548.83	67.8124	2,548.83	66.5571	2,548.83	69.3387	2,548.83	67.5382	2,548.83	54.6927	2,548.83	66.8674	2,548.83	58.0164	2,548.83	61.1688	2,548.83	64.4794	2,548.83	52.3673	2,548.83	67.7727	2,548.83	61.3178
2,638.92	80.6688	2,638.92	78.1301	2,638.92	80.7873	2,638.92	69.7937	2,638.92	78.8871	2,638.92	70.4974	2,638.92	73.6325	2,638.92	75.9391	2,638.92	68.2095	2,638.92	76.6898	2,638.92	71.5871	2,638.92	76.4682	2,638.92	71.7249	2,638.92	75.1211	2,638.92	71.0967	2,638.92	72.9803	2,638.92	70.2665	2,638.92	71.4685	2,638.92	67.0892	2,638.92	68.8032	2,638.92	67.2877	2,638.92	65.0307	2,638.92	68.5916	2,638.92	65.8761	2,638.92	65.2335	2,638.92	67.4468	2,638.92	69.2352	2,638.92	67.1514	2,638.92	53.5201	2,638.92	66.9774	2,638.92	56.3188	2,638.92	63.2131	2,638.92	63.6945	2,638.92	54.7445	2,638.92	68.7707	2,638.92	63.0939
2,731.93	80.8388	2,731.93	77.752	2,731.93	81.1195	2,731.93	65.5645	2,731.93	79.1507	2,731.93	71.8507	2,731.93	73.6507	2,731.93	76.3876	2,731.93	66.917	2,731.93	77.5895	2,731.93	72.3186	2,731.93	77.2077	2,731.93	73.165	2,731.93	74.5334	2,731.93	72.3786	2,731.93	70.6655	2,731.93	68.2186	2,731.93	68.7826	2,731.93	63.9844	2,731.93	68.7075	2,731.93	68.4852	2,731.93	67.3035	2,731.93	69.3607	2,731.93	65.6464	2,731.93	65.9566	2,731.93	66.3284	2,731.93	68.2264	2,731.93	67.2661	2,731.93	59.049	2,731.93	67.1061	2,731.93	56.1689	2,731.93	63.5079	2,731.93	62.1413	2,731.93	56.0498	2,731.93	68.4363	2,731.93	62.6719
2,828.61	80.2848	2,828.61	76.3746	2,828.61	80.893	2,828.61	53.7837	2,828.61	79.0618	2,828.61	74.0705	2,828.61	74.0075	2,828.61	78.0477	2,828.61	65.0251	2,828.61	79.046	2,828.61	70.5948	2,828.61	77.4984	2,828.61	73.956	2,828.61	74.9162	2,828.61	74.5518	2,828.61	72.6302	2,828.61	69.9479	2,828.61	70.032	2,828.61	65.3608	2,828.61	70.0127	2,828.61	70.0675	2,828.61	68.3146	2,828.61	69.9426	2,828.61	65.3734	2,828.61	65.2994	2,828.61	66.2395	2,828.61	67.7352	2,828.61	66.057	2,828.61	52.3539	2,828.61	66.3389	2,828.61	58.6638	2,828.61	63.7943	2,828.61	64.9896	2,828.61	57.7081	2,828.61	69.9039	2,828.61	62.7117
2,928.22	78.5424	2,928.22	73.0449	2,928.22	79.6534	2,928.22	63.404	2,928.22	78.2919	2,928.22	75.5446	2,928.22	73.8112	2,928.22	78.591	2,928.22	57.2576	2,928.22	78.7134	2,928.22	69.1269	2,928.22	76.7114	2,928.22	73.8706	2,928.22	74.3239	2,928.22	73.7713	2,928.22	72.9175	2,928.22	69.5224	2,928.22	70.5006	2,928.22	68.6771	2,928.22	67.2213	2,928.22	70.3397	2,928.22	65.41	2,928.22	70.5038	2,928.22	63.4337	2,928.22	64.3877	2,928.22	62.8794	2,928.22	67.4513	2,928.22	64.8204	2,928.22	61.1919	2,928.22	66.0104	2,928.22	53.1565	2,928.22	63.8579	2,928.22	66.483	2,928.22	59.8559	2,928.22	68.0274	2,928.22	56.9
3,031.49	76.4478	3,031.49	72.2325	3,031.49	77.5078	3,031.49	69.7676	3,031.49	76.3097	3,031.49	75.7497	3,031.49	72.1101	3,031.49	77.7103	3,031.49	64.8152	3,031.49	77.5067	3,031.49	70.6625	3,031.49	75.5624	3,031.49	73.8841	3,031.49	73.2252	3,031.49	72.7625	3,031.49	70.1057	3,031.49	69.4765	3,031.49	65.65	3,031.49	68.2593	3,031.49	65.5133	3,031.49	69.472	3,031.49	64.6054	3,031.49	69.9408	3,031.49	63.0242	3,031.49	66.5507	3,031.49	61.8775	3,031.49	67.4863	3,031.49	62.4634	3,031.49	64.4211	3,031.49	62.0133	3,031.49	51.2367	3,031.49	60.0814	3,031.49	61.729	3,031.49	59.7039	3,031.49	65.9818	3,031.49	60.0395
3,138.43	76.6909	3,138.43	73.3225	3,138.43	77.0974	3,138.43	70.7922	3,138.43	75.1229	3,138.43	75.2346	3,138.43	70.9029	3,138.43	77.1597	3,138.43	69.6617	3,138.43	76.4919	3,138.43	74.3139	3,138.43	75.0273	3,138.43	75.7674	3,138.43	72.3343	3,138.43	73.8314	3,138.43	66.7263	3,138.43	70.0644	3,138.43	67.8568	3,138.43	68.3847	3,138.43	68.1578	3,138.43	69.5975	3,138.43	64.6018	3,138.43	70.2768	3,138.43	62.8286	3,138.43	65.9986	3,138.43	62.1081	3,138.43	67.4244	3,138.43	60.3886	3,138.43	63.937	3,138.43	60.7859	3,138.43	55.6177	3,138.43	56.2811	3,138.43	61.941	3,138.43	58.6132	3,138.43	64.7496	3,138.43	59.3816
3,249.02	76.8597	3,249.02	73.6108	3,249.02	76.9608	3,249.02	72.1323	3,249.02	74.4514	3,249.02	75.8554	3,249.02	69.7577	3,249.02	76.9547	3,249.02	70.2669	3,249.02	75.8419	3,249.02	74.9905	3,249.02	73.4146	3,249.02	76.8758	3,249.02	70.006	3,249.02	75.9488	3,249.02	69.8787	3,249.02	71.2117	3,249.02	69.5113	3,249.02	68.438	3,249.02	66.5619	3,249.02	70.1757	3,249.02	64.7335	3,249.02	70.9497	3,249.02	63.0468	3,249.02	65.6988	3,249.02	62.3541	3,249.02	65.6131	3,249.02	62.2445	3,249.02	62.5978	3,249.02	61.8545	3,249.02	48.684	3,249.02	55.6827	3,249.02	62.0263	3,249.02	55.7357	3,249.02	66.3142	3,249.02	59.5948
3,363.28	77.2575	3,363.28	75.171	3,363.28	76.9347	3,363.28	73.0974	3,363.28	75.0711	3,363.28	75.9528	3,363.28	70.823	3,363.28	77.0553	3,363.28	71.7467	3,363.28	75.9823	3,363.28	75.8192	3,363.28	74.2532	3,363.28	78.2327	3,363.28	72.9026	3,363.28	77.6378	3,363.28	70.129	3,363.28	74.0044	3,363.28	65.7791	3,363.28	70.9841	3,363.28	66.9899	3,363.28	70.7847	3,363.28	67.0721	3,363.28	69.626	3,363.28	64.2256	3,363.28	67.561	3,363.28	63.9785	3,363.28	63.3768	3,363.28	63.3996	3,363.28	64.0298	3,363.28	62.4628	3,363.28	48.6154	3,363.28	58.3823	3,363.28	63.8459	3,363.28	53.2005	3,363.28	65.8868	3,363.28	56.1482
3,481.93	77.9147	3,481.93	76.1393	3,481.93	77.5239	3,481.93	73.9241	3,481.93	75.37	3,481.93	76.8075	3,481.93	71.6934	3,481.93	77.3439	3,481.93	73.1549	3,481.93	75.79	3,481.93	77.0954	3,481.93	74.9194	3,481.93	78.7268	3,481.93	72.9817	3,481.93	77.0528	3,481.93	70.059	3,481.93	74.2432	3,481.93	70.7903	3,481.93	70.7491	3,481.93	69.2586	3,481.93	68.3634	3,481.93	66.2186	3,481.93	68.3903	3,481.93	65.0742	3,481.93	66.6266	3,481.93	64.256	3,481.93	63.6105	3,481.93	64.8065	3,481.93	61.3153	3,481.93	63.1515	3,481.93	48.5568	3,481.93	59.7939	3,481.93	61.4691	3,481.93	47.6173	3,481.93	64.0133	3,481.93	59.0763
3,604.98	78.8781	3,604.98	76.2679	3,604.98	77.5197	3,604.98	73.4246	3,604.98	74.5969	3,604.98	77.0986	3,604.98	72.2569	3,604.98	76.9488	3,604.98	73.8598	3,604.98	76.7344	3,604.98	77.9542	3,604.98	76.4474	3,604.98	79.0937	3,604.98	73.9549	3,604.98	76.8721	3,604.98	73.1004	3,604.98	73.4325	3,604.98	70.4394	3,604.98	69.6734	3,604.98	67.8326	3,604.98	64.8365	3,604.98	68.0433	3,604.98	64.9299	3,604.98	65.8659	3,604.98	67.0995	3,604.98	63.7338	3,604.98	64.2616	3,604.98	64.6355	3,604.98	62.8999	3,604.98	64.5949	3,604.98	54.1974	3,604.98	60.7352	3,604.98	61.0509	3,604.98	52.5778	3,604.98	64.1975	3,604.98	59.2739
3,732.42	79.6475	3,732.42	76.8197	3,732.42	78.127	3,732.42	75.4056	3,732.42	74.9341	3,732.42	77.3208	3,732.42	73.7054	3,732.42	77.3202	3,732.42	73.8204	3,732.42	78.3325	3,732.42	77.3766	3,732.42	76.1119	3,732.42	79.2551	3,732.42	74.5645	3,732.42	77.1899	3,732.42	71.9608	3,732.42	71.8288	3,732.42	69.348	3,732.42	60.4253	3,732.42	69.5111	3,732.42	58.9508	3,732.42	67.5634	3,732.42	65.9206	3,732.42	65.8234	3,732.42	68.1267	3,732.42	65.1599	3,732.42	68.4512	3,732.42	66.0858	3,732.42	63.4781	3,732.42	65.0248	3,732.42	53.761	3,732.42	62.0187	3,732.42	59.8203	3,732.42	49.1198	3,732.42	62.8206	3,732.42	59.1603
3,863.53	80.2617	3,863.53	77.0758	3,863.53	80.0778	3,863.53	76.7185	3,863.53	75.7395	3,863.53	77.5133	3,863.53	74.2461	3,863.53	78.7315	3,863.53	74.5503	3,863.53	78.0897	3,863.53	75.4739	3,863.53	75.6774	3,863.53	77.254	3,863.53	74.5796	3,863.53	75.9508	3,863.53	72.0069	3,863.53	74.6551	3,863.53	72.5378	3,863.53	70.6855	3,863.53	70.1472	3,863.53	61.9068	3,863.53	68.3871	3,863.53	65.9398	3,863.53	67.538	3,863.53	66.6152	3,863.53	65.1201	3,863.53	68.1849	3,863.53	66.691	3,863.53	60.8608	3,863.53	65.8359	3,863.53	51.488	3,863.53	62.0143	3,863.53	60.7682	3,863.53	46.441	3,863.53	62.2062	3,863.53	61.839
3,999.76	80.6181	3,999.76	77.7151	3,999.76	80.7481	3,999.76	75.8972	3,999.76	77.605	3,999.76	78.0797	3,999.76	75.5305	3,999.76	79.6448	3,999.76	75.4318	3,999.76	77.5495	3,999.76	75.7298	3,999.76	76.2253	3,999.76	76.4481	3,999.76	77.3216	3,999.76	76.3534	3,999.76	75.9574	3,999.76	74.056	3,999.76	72.7461	3,999.76	69.4654	3,999.76	70.6133	3,999.76	65.6602	3,999.76	70.0467	3,999.76	66.0954	3,999.76	67.8733	3,999.76	65.878	3,999.76	66.8063	3,999.76	66.4254	3,999.76	66.8611	3,999.76	65.0854	3,999.76	68.3966	3,999.76	58.8695	3,999.76	64.6872	3,999.76	62.6128	3,999.76	49.3307	3,999.76	64.2605	3,999.76	61.2348
4,141.11	81.5891	4,141.11	78.4475	4,141.11	80.2343	4,141.11	76.0131	4,141.11	77.8411	4,141.11	80.1045	4,141.11	76.924	4,141.11	80.2672	4,141.11	74.8044	4,141.11	77.8193	4,141.11	76.4546	4,141.11	78.9615	4,141.11	78.4509	4,141.11	78.4368	4,141.11	77.5221	4,141.11	74.4545	4,141.11	71.5846	4,141.11	73.6927	4,141.11	70.2554	4,141.11	72.1041	4,141.11	67.02	4,141.11	70.2317	4,141.11	67.774	4,141.11	68.526	4,141.11	69.1094	4,141.11	67.7462	4,141.11	64.8108	4,141.11	66.9484	4,141.11	65.4803	4,141.11	66.9486	4,141.11	53.9152	4,141.11	64.7633	4,141.11	59.6455	4,141.11	46.3405	4,141.11	65.9331	4,141.11	60.0653
4,286.87	81.9799	4,286.87	77.2537	4,286.87	81.6527	4,286.87	77.8822	4,286.87	78.7194	4,286.87	81.9555	4,286.87	77.3481	4,286.87	80.1051	4,286.87	74.5684	4,286.87	78.2712	4,286.87	75.1179	4,286.87	79.8475	4,286.87	78.4208	4,286.87	78.4783	4,286.87	78.213	4,286.87	77.3413	4,286.87	73.5174	4,286.87	74.2515	4,286.87	72.9433	4,286.87	69.1286	4,286.87	69.1335	4,286.87	70.1557	4,286.87	66.5525	4,286.87	67.674	4,286.87	68.1874	4,286.87	66.1918	4,286.87	65.2581	4,286.87	67.7077	4,286.87	64.8076	4,286.87	67.2118	4,286.87	50.3216	4,286.87	65.6555	4,286.87	63.2242	4,286.87	55.3143	4,286.87	66.2418	4,286.87	53.4687
4,438.48	82.8198	4,438.48	77.3259	4,438.48	82.6028	4,438.48	79.6915	4,438.48	79.993	4,438.48	81.1626	4,438.48	79.3095	4,438.48	79.118	4,438.48	75.1766	4,438.48	80.0605	4,438.48	72.8789	4,438.48	79.5963	4,438.48	78.9561	4,438.48	78.0567	4,438.48	78.8102	4,438.48	74.524	4,438.48	75.9348	4,438.48	72.4214	4,438.48	75.4556	4,438.48	70.9475	4,438.48	70.9487	4,438.48	69.171	4,438.48	62.0385	4,438.48	67.3679	4,438.48	68.4227	4,438.48	65.8263	4,438.48	64.1572	4,438.48	66.5052	4,438.48	65.8991	4,438.48	67.5696	4,438.48	50.6044	4,438.48	67.2143	4,438.48	63.2337	4,438.48	48.9256	4,438.48	68.0269	4,438.48	63.3033
4,594.48	82.6036	4,594.48	78.0654	4,594.48	82.0482	4,594.48	81.6025	4,594.48	79.5594	4,594.48	82.3267	4,594.48	80.2021	4,594.48	80.4815	4,594.48	76.6069	4,594.48	80.4494	4,594.48	65.3826	4,594.48	79.0104	4,594.48	77.2906	4,594.48	76.5566	4,594.48	76.9577	4,594.48	74.5381	4,594.48	78.3339	4,594.48	73.1068	4,594.48	76.5048	4,594.48	68.313	4,594.48	67.8076	4,594.48	68.374	4,594.48	57.9404	4,594.48	65.6512	4,594.48	62.1513	4,594.48	63.4372	4,594.48	63.4078	4,594.48	67.5242	4,594.48	60.9666	4,594.48	64.582	4,594.48	58.769	4,594.48	65.3067	4,594.48	57.8459	4,594.48	58.184	4,594.48	66.6332	4,594.48	61.7333
4,757.08	82.2764	4,757.08	77.5566	4,757.08	83.5171	4,757.08	82.4939	4,757.08	79.8866	4,757.08	81.3466	4,757.08	80.9125	4,757.08	80.7715	4,757.08	78.8763	4,757.08	80.318	4,757.08	67.6247	4,757.08	77.8569	4,757.08	75.3493	4,757.08	77.5168	4,757.08	75.5473	4,757.08	74.048	4,757.08	79.5366	4,757.08	72.4565	4,757.08	75.226	4,757.08	70.6393	4,757.08	66.0514	4,757.08	69.413	4,757.08	50.4165	4,757.08	65.8189	4,757.08	57.2075	4,757.08	66.2909	4,757.08	64.1216	4,757.08	66.2282	4,757.08	56.4689	4,757.08	66.4343	4,757.08	63.3719	4,757.08	64.2068	4,757.08	58.745	4,757.08	60.0523	4,757.08	56.7633	4,757.08	58.8568
4,924.8	82.6164	4,924.8	79.6464	4,924.8	83.7199	4,924.8	82.9785	4,924.8	80.8767	4,924.8	81.7211	4,924.8	81.7197	4,924.8	82.2511	4,924.8	80.3794	4,924.8	80.0934	4,924.8	73.9422	4,924.8	78.8899	4,924.8	70.3808	4,924.8	76.5507	4,924.8	78.6555	4,924.8	74.9145	4,924.8	80.2517	4,924.8	73.1347	4,924.8	70.9906	4,924.8	68.7277	4,924.8	65.6673	4,924.8	69.9565	4,924.8	56.7658	4,924.8	66.1448	4,924.8	64.1417	4,924.8	66.013	4,924.8	63.8168	4,924.8	65.9757	4,924.8	62.0771	4,924.8	65.7797	4,924.8	60.7784	4,924.8	65.9645	4,924.8	63.8298	4,924.8	51.3416	4,924.8	62.0344	4,924.8	59.9644
5,098.39	80.743	5,098.39	80.2252	5,098.39	82.9681	5,098.39	82.7027	5,098.39	81.4654	5,098.39	81.9315	5,098.39	81.3322	5,098.39	82.1816	5,098.39	81.9066	5,098.39	79.778	5,098.39	76.4176	5,098.39	79.65	5,098.39	70.365	5,098.39	76.6739	5,098.39	80.3577	5,098.39	75.0992	5,098.39	79.2916	5,098.39	71.8018	5,098.39	70.3757	5,098.39	69.8262	5,098.39	68.1452	5,098.39	69.5254	5,098.39	63.9574	5,098.39	67.6563	5,098.39	68.1396	5,098.39	67.5677	5,098.39	60.5472	5,098.39	66.1851	5,098.39	64.0059	5,098.39	67.3041	5,098.39	58.1526	5,098.39	66.3575	5,098.39	64.8014	5,098.39	57.0492	5,098.39	62.5102	5,098.39	61.6408
5,277.83	81.644	5,277.83	81.3431	5,277.83	82.6628	5,277.83	82.491	5,277.83	81.2863	5,277.83	82.0942	5,277.83	81.8396	5,277.83	82.3206	5,277.83	81.9802	5,277.83	81.0205	5,277.83	78.2429	5,277.83	79.5683	5,277.83	76.2006	5,277.83	75.7459	5,277.83	79.6668	5,277.83	75.9318	5,277.83	77.6948	5,277.83	72.9108	5,277.83	71.4776	5,277.83	69.4974	5,277.83	69.5287	5,277.83	68.1376	5,277.83	57.8756	5,277.83	66.7	5,277.83	64.8141	5,277.83	66.5727	5,277.83	48.58	5,277.83	66.6612	5,277.83	65.375	5,277.83	66.8071	5,277.83	59.1457	5,277.83	65.3681	5,277.83	60.7353	5,277.83	56.7162	5,277.83	58.2478	5,277.83	48.9249
5,463.87	81.2167	5,463.87	80.9852	5,463.87	82.3151	5,463.87	82.4351	5,463.87	81.892	5,463.87	82.6581	5,463.87	82.2783	5,463.87	82.6283	5,463.87	81.7	5,463.87	80.9053	5,463.87	78.8668	5,463.87	79.3017	5,463.87	77.3761	5,463.87	76.6355	5,463.87	78.9061	5,463.87	74.6647	5,463.87	75.5955	5,463.87	70.5707	5,463.87	64.1962	5,463.87	69.7484	5,463.87	59.8481	5,463.87	68.3489	5,463.87	60.2275	5,463.87	66.4111	5,463.87	65.3349	5,463.87	66.3961	5,463.87	58.2092	5,463.87	66.0476	5,463.87	66.1552	5,463.87	66.1176	5,463.87	58.3262	5,463.87	65.7973	5,463.87	56.9687	5,463.87	56.8598	5,463.87	57.9017	5,463.87	52.9364
5,656.49	80.3741	5,656.49	81.0837	5,656.49	81.5229	5,656.49	82.3705	5,656.49	81.5972	5,656.49	82.6711	5,656.49	81.843	5,656.49	82.7322	5,656.49	81.5713	5,656.49	81.328	5,656.49	78.9978	5,656.49	79.4973	5,656.49	77.756	5,656.49	76.4197	5,656.49	78.8036	5,656.49	75.4981	5,656.49	74.5176	5,656.49	71.4945	5,656.49	67.4541	5,656.49	69.7918	5,656.49	62.4099	5,656.49	68.6042	5,656.49	60.7742	5,656.49	67.4852	5,656.49	65.2223	5,656.49	65.1076	5,656.49	54.1512	5,656.49	65.8194	5,656.49	65.3546	5,656.49	66.9578	5,656.49	59.9796	5,656.49	66.3455	5,656.49	61.4237	5,656.49	59.8663	5,656.49	63.3678	5,656.49	56.8925
5,856.45	81.3325	5,856.45	81.0809	5,856.45	81.6644	5,856.45	82.3057	5,856.45	81.6021	5,856.45	83.132	5,856.45	82.2648	5,856.45	82.6857	5,856.45	81.4214	5,856.45	81.2955	5,856.45	78.0211	5,856.45	80.1013	5,856.45	77.0959	5,856.45	77.509	5,856.45	77.4598	5,856.45	74.5196	5,856.45	74.1134	5,856.45	71.9429	5,856.45	71.3456	5,856.45	70.35	5,856.45	68.906	5,856.45	68.7177	5,856.45	56.4245	5,856.45	68.6965	5,856.45	65.4729	5,856.45	65.2497	5,856.45	45.822	5,856.45	65.9913	5,856.45	58.9923	5,856.45	68.5727	5,856.45	52.7728	5,856.45	67.7855	5,856.45	58.9678	5,856.45	59.4607	5,856.45	60.9052	5,856.45	54.2933
6,062.99	80.9833	6,062.99	80.4736	6,062.99	82.2781	6,062.99	82.3264	6,062.99	82.6586	6,062.99	82.493	6,062.99	82.9694	6,062.99	81.6812	6,062.99	80.6497	6,062.99	81.6591	6,062.99	76.0973	6,062.99	80.2252	6,062.99	75.5247	6,062.99	77.9587	6,062.99	77.4091	6,062.99	76.1891	6,062.99	73.7439	6,062.99	72.6349	6,062.99	70.879	6,062.99	69.9549	6,062.99	66.7702	6,062.99	68.0378	6,062.99	61.4101	6,062.99	68.1531	6,062.99	67.6897	6,062.99	65.794	6,062.99	48.678	6,062.99	67.3006	6,062.99	56.5522	6,062.99	69.4572	6,062.99	41.1684	6,062.99	68.0399	6,062.99	60.0177	6,062.99	60.7568	6,062.99	59.194	6,062.99	51.0589
6,276.86	81.966	6,276.86	81.3952	6,276.86	82.7423	6,276.86	82.3613	6,276.86	81.8315	6,276.86	81.3939	6,276.86	82.226	6,276.86	81.2832	6,276.86	80.6613	6,276.86	80.9613	6,276.86	75.5449	6,276.86	79.7603	6,276.86	73.5362	6,276.86	78.3133	6,276.86	75.2499	6,276.86	76.5953	6,276.86	71.9693	6,276.86	74.2186	6,276.86	70.5139	6,276.86	71.137	6,276.86	62.6169	6,276.86	68.3862	6,276.86	60.3223	6,276.86	68.167	6,276.86	65.5502	6,276.86	66.7058	6,276.86	55.1824	6,276.86	65.8054	6,276.86	56.5773	6,276.86	69.0554	6,276.86	57.1902	6,276.86	68.0167	6,276.86	56.7404	6,276.86	62.5623	6,276.86	57.2626	6,276.86	53.118
6,498.05	82.6104	6,498.05	82.4836	6,498.05	83.1072	6,498.05	82.2608	6,498.05	81.3728	6,498.05	80.2773	6,498.05	81.1547	6,498.05	80.8915	6,498.05	79.4663	6,498.05	79.4033	6,498.05	76.7044	6,498.05	79.2286	6,498.05	72.6244	6,498.05	77.8021	6,498.05	71.7325	6,498.05	75.3682	6,498.05	70.5121	6,498.05	72.074	6,498.05	68.4128	6,498.05	70.1896	6,498.05	64.2893	6,498.05	67.5182	6,498.05	51.6584	6,498.05	67.8309	6,498.05	64.421	6,498.05	65.6305	6,498.05	52.9355	6,498.05	64.4206	6,498.05	60.9658	6,498.05	67.5422	6,498.05	57.8002	6,498.05	67.365	6,498.05	59.0953	6,498.05	59.4196	6,498.05	54.8471	6,498.05	51.4002
6,727.29	82.8957	6,727.29	83.1816	6,727.29	82.7274	6,727.29	81.9085	6,727.29	81.0206	6,727.29	80.6694	6,727.29	80.409	6,727.29	80.2055	6,727.29	80.3946	6,727.29	78.8267	6,727.29	80.0023	6,727.29	79.0884	6,727.29	73.6976	6,727.29	76.0422	6,727.29	67.2687	6,727.29	75.7013	6,727.29	72.3934	6,727.29	72.4277	6,727.29	69.0555	6,727.29	69.5498	6,727.29	56.9134	6,727.29	66.7312	6,727.29	50.7249	6,727.29	68.0309	6,727.29	64.0468	6,727.29	64.8084	6,727.29	48.1385	6,727.29	63.9807	6,727.29	62.7432	6,727.29	67.4754	6,727.29	56.3934	6,727.29	66.9844	6,727.29	60.5104	6,727.29	60.2941	6,727.29	51.4855	6,727.29	54.8092
6,964.6	82.8206	6,964.6	82.7296	6,964.6	82.2537	6,964.6	81.618	6,964.6	80.944	6,964.6	81.1582	6,964.6	79.5842	6,964.6	79.6583	6,964.6	80.1522	6,964.6	79.3127	6,964.6	79.8148	6,964.6	78.6734	6,964.6	74.9769	6,964.6	77.2519	6,964.6	70.0108	6,964.6	75.2814	6,964.6	72.8045	6,964.6	72.2367	6,964.6	71.0833	6,964.6	69.1235	6,964.6	61.1111	6,964.6	66.9097	6,964.6	59.5422	6,964.6	67.364	6,964.6	65.3244	6,964.6	64.6353	6,964.6	60.428	6,964.6	64.0455	6,964.6	63.5092	6,964.6	66.5272	6,964.6	54.4047	6,964.6	66.3419	6,964.6	57.0576	6,964.6	58.8345	6,964.6	56.376	6,964.6	56.0121
7,209.96	82.5605	7,209.96	82.8222	7,209.96	82.2848	7,209.96	81.7195	7,209.96	81.5038	7,209.96	80.4234	7,209.96	80.0189	7,209.96	79.665	7,209.96	80.1307	7,209.96	79.7703	7,209.96	79.1248	7,209.96	78.6031	7,209.96	76.2922	7,209.96	77.1718	7,209.96	74.1912	7,209.96	74.1826	7,209.96	74.9375	7,209.96	71.2127	7,209.96	70.646	7,209.96	67.8793	7,209.96	59.6643	7,209.96	66.0983	7,209.96	58.3788	7,209.96	65.5094	7,209.96	60.9453	7,209.96	63.6623	7,209.96	52.2677	7,209.96	63.2839	7,209.96	61.8335	7,209.96	65.1174	7,209.96	47.1359	7,209.96	65.7062	7,209.96	53.1121	7,209.96	59.9696	7,209.96	57.2819	7,209.96	54.8805
7,464.11	82.3718	7,464.11	82.8387	7,464.11	81.7985	7,464.11	81.5122	7,464.11	81.5408	7,464.11	80.4496	7,464.11	80.5731	7,464.11	80.237	7,464.11	80.1978	7,464.11	79.764	7,464.11	78.3452	7,464.11	78.2973	7,464.11	76.7966	7,464.11	76.169	7,464.11	76.3344	7,464.11	74.1184	7,464.11	76.3086	7,464.11	70.5739	7,464.11	72.3146	7,464.11	67.064	7,464.11	63.2844	7,464.11	64.5564	7,464.11	52.0524	7,464.11	64.1388	7,464.11	62.6533	7,464.11	63.1595	7,464.11	58.9718	7,464.11	62.1408	7,464.11	58.7711	7,464.11	64.1366	7,464.11	47.1693	7,464.11	64.602	7,464.11	53.3985	7,464.11	59.6811	7,464.11	55.4366	7,464.11	55.6299
7,727.78	83.1117	7,727.78	83.0637	7,727.78	82.1162	7,727.78	81.6138	7,727.78	81.4697	7,727.78	80.8721	7,727.78	81.3695	7,727.78	80.5581	7,727.78	79.839	7,727.78	79.8197	7,727.78	77.2034	7,727.78	78.5983	7,727.78	75.2222	7,727.78	75.7854	7,727.78	74.366	7,727.78	73.6902	7,727.78	74.5671	7,727.78	70.522	7,727.78	70.2622	7,727.78	66.2055	7,727.78	65.8376	7,727.78	63.5	7,727.78	55.2684	7,727.78	65.0111	7,727.78	59.1288	7,727.78	63.2066	7,727.78	52.0149	7,727.78	61.5313	7,727.78	55.5173	7,727.78	64.1531	7,727.78	48.7353	7,727.78	64.3257	7,727.78	54.6657	7,727.78	59.5549	7,727.78	54.8804	7,727.78	50.8707
8,000.24	83.7949	8,000.24	83.441	8,000.24	82.3952	8,000.24	82.0955	8,000.24	81.2428	8,000.24	81.4456	8,000.24	80.9783	8,000.24	80.4233	8,000.24	80.576	8,000.24	80.1086	8,000.24	77.3517	8,000.24	78.4531	8,000.24	72.4417	8,000.24	75.3331	8,000.24	72.373	8,000.24	72.9637	8,000.24	70.4528	8,000.24	70.1486	8,000.24	68.1912	8,000.24	66.177	8,000.24	61.0235	8,000.24	62.9256	8,000.24	54.393	8,000.24	64.0105	8,000.24	59.7126	8,000.24	63.5878	8,000.24	55.3073	8,000.24	60.7794	8,000.24	46.554	8,000.24	63.6135	8,000.24	42.128	8,000.24	63.9498	8,000.24	54.4844	8,000.24	59.2544	8,000.24	51.4473	8,000.24	51.9142
8,282.23	84.3086	8,282.23	83.9546	8,282.23	83.1552	8,282.23	82.7009	8,282.23	81.6879	8,282.23	81.2104	8,282.23	81.157	8,282.23	80.1214	8,282.23	80.0937	8,282.23	79.9339	8,282.23	75.8279	8,282.23	77.5265	8,282.23	72.6772	8,282.23	75.2124	8,282.23	68.8773	8,282.23	71.6011	8,282.23	63.0624	8,282.23	67.4928	8,282.23	66.3168	8,282.23	63.9839	8,282.23	61.6219	8,282.23	63.1099	8,282.23	57.3145	8,282.23	62.1219	8,282.23	54.1278	8,282.23	61.5281	8,282.23	56.8353	8,282.23	59.1518	8,282.23	54.3965	8,282.23	61.2963	8,282.23	49.3594	8,282.23	61.533	8,282.23	53.5401	8,282.23	57.1482	8,282.23	49.5909	8,282.23	52.0497
8,574.46	84.6309	8,574.46	84.2032	8,574.46	83.364	8,574.46	82.241	8,574.46	81.8462	8,574.46	80.8515	8,574.46	80.6159	8,574.46	80.3203	8,574.46	79.4104	8,574.46	78.9795	8,574.46	75.3879	8,574.46	76.853	8,574.46	73.2712	8,574.46	73.7085	8,574.46	55.4314	8,574.46	69.7926	8,574.46	64.7461	8,574.46	64.7192	8,574.46	64.7937	8,574.46	61.7116	8,574.46	63.9828	8,574.46	61.8847	8,574.46	59.7309	8,574.46	59.8938	8,574.46	59.8442	8,574.46	61.6328	8,574.46	59.8975	8,574.46	57.1583	8,574.46	55.5341	8,574.46	60.1904	8,574.46	49.4683	8,574.46	59.6769	8,574.46	47.6357	8,574.46	58.5869	8,574.46	38.3115	8,574.46	53.476
8,876.22	84.7032	8,876.22	84.0409	8,876.22	83.6764	8,876.22	81.9939	8,876.22	82.1415	8,876.22	81.2227	8,876.22	80.4098	8,876.22	79.7153	8,876.22	78.0246	8,876.22	78.1443	8,876.22	75.8088	8,876.22	75.7021	8,876.22	74.4689	8,876.22	72.106	8,876.22	62.3884	8,876.22	69.8927	8,876.22	71.53	8,876.22	63.7595	8,876.22	66.697	8,876.22	60.7816	8,876.22	62.4773	8,876.22	60.5638	8,876.22	57.3792	8,876.22	58.4021	8,876.22	57.2883	8,876.22	59.7768	8,876.22	56.3099	8,876.22	56.9717	8,876.22	49.9952	8,876.22	58.1415	8,876.22	44.86	8,876.22	57.7015	8,876.22	57.0722	8,876.22	56.5116	8,876.22	52.3782	8,876.22	51.784
9,189.7	84.661	9,189.7	83.6926	9,189.7	83.9534	9,189.7	82.6941	9,189.7	82.3235	9,189.7	81.6323	9,189.7	80.6808	9,189.7	79.5374	9,189.7	77.8942	9,189.7	78.0145	9,189.7	76.8432	9,189.7	74.0973	9,189.7	72.7048	9,189.7	71.7827	9,189.7	66.7966	9,189.7	68.0444	9,189.7	71.8967	9,189.7	63.7355	9,189.7	65.3388	9,189.7	58.781	9,189.7	61.6639	9,189.7	58.7692	9,189.7	56.5717	9,189.7	56.9698	9,189.7	51.9371	9,189.7	54.9004	9,189.7	54.4642	9,189.7	56.5561	9,189.7	49.655	9,189.7	55.645	9,189.7	46.7175	9,189.7	55.5988	9,189.7	42.2984	9,189.7	54.3309	9,189.7	42.2841	9,189.7	45.5465
9,513.43	84.3827	9,513.43	83.6816	9,513.43	83.8813	9,513.43	82.6608	9,513.43	82.3797	9,513.43	81.4203	9,513.43	79.8444	9,513.43	80.1223	9,513.43	77.0412	9,513.43	77.6355	9,513.43	75.3249	9,513.43	73.8482	9,513.43	67.3457	9,513.43	70.6563	9,513.43	66.9614	9,513.43	68.0736	9,513.43	68.441	9,513.43	64.8613	9,513.43	58.7186	9,513.43	60.1609	9,513.43	57.0633	9,513.43	58.796	9,513.43	53.6697	9,513.43	58.3917	9,513.43	54.9846	9,513.43	56.6583	9,513.43	59.7878	9,513.43	57.4158	9,513.43	55.5725	9,513.43	55.2516	9,513.43	46.4124	9,513.43	54.6782	9,513.43	53.9788	9,513.43	54.2676	9,513.43	46.2039	9,513.43	39.8731
9,848.88	84.4286	9,848.88	83.9898	9,848.88	83.505	9,848.88	82.5027	9,848.88	82.227	9,848.88	81.5752	9,848.88	79.7877	9,848.88	79.7935	9,848.88	77.6165	9,848.88	77.2197	9,848.88	73.5959	9,848.88	73.3486	9,848.88	67.1456	9,848.88	70.9314	9,848.88	67.0339	9,848.88	68.5619	9,848.88	65.0483	9,848.88	65.5549	9,848.88	59.6284	9,848.88	60.8752	9,848.88	58.7372	9,848.88	58.8647	9,848.88	49.8018	9,848.88	58.9942	9,848.88	54.3344	9,848.88	57.9271	9,848.88	59.2281	9,848.88	57.4562	9,848.88	53.9905	9,848.88	55.1398	9,848.88	50.775	9,848.88	55.6618	9,848.88	54.1724	9,848.88	54.0535	9,848.88	39.304	9,848.88	45.1557
10,196.8	84.5673	10,196.8	84.0552	10,196.8	83.5152	10,196.8	82.5428	10,196.8	82.0524	10,196.8	81.1085	10,196.8	79.941	10,196.8	78.7625	10,196.8	77.2462	10,196.8	76.7381	10,196.8	74.2616	10,196.8	72.5433	10,196.8	69.592	10,196.8	71.4199	10,196.8	68.3428	10,196.8	67.5438	10,196.8	64.3665	10,196.8	64.9732	10,196.8	58.124	10,196.8	60.5298	10,196.8	56.9216	10,196.8	60.2248	10,196.8	55.6482	10,196.8	58.7145	10,196.8	56.1466	10,196.8	58.0211	10,196.8	56.3473	10,196.8	57.7382	10,196.8	51.9018	10,196.8	56.0112	10,196.8	41.3756	10,196.8	55.3438	10,196.8	55.4608	10,196.8	53.9478	10,196.8	40.2727	10,196.8	49.0265
10,556.4	84.7189	10,556.4	84.1955	10,556.4	83.7076	10,556.4	82.5622	10,556.4	82.1479	10,556.4	80.4554	10,556.4	79.9735	10,556.4	78.0544	10,556.4	77.6228	10,556.4	75.7347	10,556.4	75.9683	10,556.4	72.7494	10,556.4	69.4554	10,556.4	71.2605	10,556.4	68.974	10,556.4	67.7396	10,556.4	63.9149	10,556.4	64.9063	10,556.4	60.8237	10,556.4	60.7533	10,556.4	55.0093	10,556.4	59.4827	10,556.4	55.2714	10,556.4	57.8716	10,556.4	53.2281	10,556.4	59.3696	10,556.4	49.8897	10,556.4	57.3508	10,556.4	50.0934	10,556.4	55.9028	10,556.4	45.102	10,556.4	55.1724	10,556.4	55.2094	10,556.4	53.4248	10,556.4	38.1644	10,556.4	42.414
10,928.5	84.664	10,928.5	83.9978	10,928.5	83.7995	10,928.5	82.4953	10,928.5	82.0442	10,928.5	80.4127	10,928.5	79.9464	10,928.5	77.364	10,928.5	78.0294	10,928.5	74.9608	10,928.5	76.0851	10,928.5	72.8102	10,928.5	67.014	10,928.5	71.0469	10,928.5	68.138	10,928.5	67.7696	10,928.5	54.1121	10,928.5	63.5702	10,928.5	60.8243	10,928.5	58.9669	10,928.5	46.5024	10,928.5	57.7065	10,928.5	54.5463	10,928.5	57.0397	10,928.5	53.0712	10,928.5	60.6849	10,928.5	52.2169	10,928.5	56.0007	10,928.5	53.2021	10,928.5	54.0582	10,928.5	49.3907	10,928.5	53.3534	10,928.5	55.6305	10,928.5	51.1655	10,928.5	43.5406	10,928.5	46.8891
11,313.7	84.3656	11,313.7	83.6618	11,313.7	83.7136	11,313.7	82.7864	11,313.7	81.8358	11,313.7	80.3405	11,313.7	79.3695	11,313.7	76.4831	11,313.7	77.6152	11,313.7	74.6129	11,313.7	73.696	11,313.7	72.2832	11,313.7	68.1202	11,313.7	70.7852	11,313.7	66.683	11,313.7	66.9807	11,313.7	54.1317	11,313.7	61.9629	11,313.7	59.8421	11,313.7	59.6088	11,313.7	52.334	11,313.7	58.1694	11,313.7	52.3369	11,313.7	55.3371	11,313.7	52.4592	11,313.7	60.4423	11,313.7	57.3132	11,313.7	56.1895	11,313.7	55.1647	11,313.7	50.7781	11,313.7	46.4173	11,313.7	49.9001	11,313.7	54.2	11,313.7	48.9686	11,313.7	39.5566	11,313.7	50.3431
11,712.9	83.66	11,712.9	83.6541	11,712.9	83.0092	11,712.9	82.7333	11,712.9	81.438	11,712.9	79.6432	11,712.9	78.8849	11,712.9	75.9202	11,712.9	76.4393	11,712.9	74.1167	11,712.9	71.48	11,712.9	72.2124	11,712.9	70.4038	11,712.9	70.5368	11,712.9	64.6117	11,712.9	66.8521	11,712.9	59.9229	11,712.9	60.8267	11,712.9	56.0306	11,712.9	59.6649	11,712.9	50.1495	11,712.9	56.6449	11,712.9	58.8703	11,712.9	55.4601	11,712.9	55.5724	11,712.9	58.681	11,712.9	55.7548	11,712.9	56.2082	11,712.9	58.3031	11,712.9	49.9612	11,712.9	32.3725	11,712.9	47.9366	11,712.9	54.6885	11,712.9	50.7053	11,712.9	46.4275	11,712.9	50.5461
12,126	83.1943	12,126	83.4511	12,126	82.1421	12,126	81.8011	12,126	80.9027	12,126	78.857	12,126	78.2026	12,126	75.1444	12,126	75.4038	12,126	74.5448	12,126	71.9686	12,126	72.2855	12,126	69.3956	12,126	69.5321	12,126	66.3999	12,126	66.5215	12,126	57.6309	12,126	61.537	12,126	56.4777	12,126	59.4499	12,126	55.1885	12,126	52.641	12,126	62.1049	12,126	56.2739	12,126	54.0521	12,126	56.1872	12,126	54.4766	12,126	56.4804	12,126	56.1178	12,126	48.4225	12,126	44.773	12,126	52.703	12,126	52.8685	12,126	49.7877	12,126	47.3839	12,126	49.5185
12,553.7	83.0759	12,553.7	83.0497	12,553.7	82.0953	12,553.7	81.2313	12,553.7	80.5144	12,553.7	78.0119	12,553.7	76.7415	12,553.7	75.3097	12,553.7	74.7689	12,553.7	74.9752	12,553.7	70.6739	12,553.7	71.9021	12,553.7	69.411	12,553.7	69.3273	12,553.7	68.5325	12,553.7	66.208	12,553.7	61.3165	12,553.7	62.2503	12,553.7	59.5656	12,553.7	59.2767	12,553.7	56.5009	12,553.7	53.4978	12,553.7	62.4328	12,553.7	57.0374	12,553.7	48.0467	12,553.7	55.0998	12,553.7	49.3205	12,553.7	56.3588	12,553.7	56.3245	12,553.7	49.4579	12,553.7	49.0434	12,553.7	52.8953	12,553.7	56.3061	12,553.7	50.027	12,553.7	49.0916	12,553.7	46.8471
12,996.1	82.4679	12,996.1	82.6752	12,996.1	81.8973	12,996.1	80.5977	12,996.1	80.1255	12,996.1	77.7145	12,996.1	76.3655	12,996.1	75.6263	12,996.1	73.9376	12,996.1	74.8464	12,996.1	71.7114	12,996.1	71.2433	12,996.1	72.3142	12,996.1	69.1695	12,996.1	67.8522	12,996.1	66.2122	12,996.1	60.5137	12,996.1	62.6048	12,996.1	56.1235	12,996.1	58.9207	12,996.1	60.3893	12,996.1	54.3242	12,996.1	64.0053	12,996.1	55.9726	12,996.1	49.9168	12,996.1	52.1595	12,996.1	56.2208	12,996.1	56.205	12,996.1	58.8759	12,996.1	53.4296	12,996.1	48.5935	12,996.1	53.3624	12,996.1	54.5012	12,996.1	52.2439	12,996.1	52.179	12,996.1	51.4394
13,454.6	82.2329	13,454.6	82.5489	13,454.6	81.4204	13,454.6	79.8041	13,454.6	79.7208	13,454.6	78.0701	13,454.6	76.9354	13,454.6	75.4545	13,454.6	74.5213	13,454.6	74.921	13,454.6	72.8984	13,454.6	69.7977	13,454.6	72.2974	13,454.6	69.4619	13,454.6	64.3717	13,454.6	65.9841	13,454.6	62.9436	13,454.6	63.4715	13,454.6	60.3826	13,454.6	58.4078	13,454.6	61.8847	13,454.6	53.3228	13,454.6	64.32	13,454.6	56.3097	13,454.6	52.2284	13,454.6	51.3823	13,454.6	56.408	13,454.6	55.8645	13,454.6	59.1412	13,454.6	54.3164	13,454.6	48.991	13,454.6	51.975	13,454.6	52.9293	13,454.6	51.2933	13,454.6	53.2081	13,454.6	50.1921
13,928.5	82.2729	13,928.5	82.599	13,928.5	80.8926	13,928.5	79.7849	13,928.5	79.9665	13,928.5	78.4982	13,928.5	78.3222	13,928.5	75.4078	13,928.5	74.5196	13,928.5	73.8042	13,928.5	75.0928	13,928.5	69.3873	13,928.5	68.5493	13,928.5	68.8909	13,928.5	65.7756	13,928.5	65.2991	13,928.5	61.6127	13,928.5	63.0314	13,928.5	61.2853	13,928.5	57.4387	13,928.5	63.4704	13,928.5	53.4918	13,928.5	66.3189	13,928.5	55.2186	13,928.5	49.6695	13,928.5	52.218	13,928.5	55.9665	13,928.5	53.7076	13,928.5	56.2137	13,928.5	53.4753	13,928.5	46.8425	13,928.5	47.0406	13,928.5	48.4974	13,928.5	50.0092	13,928.5	52.1148	13,928.5	48.0191
14,419.9	82.5376	14,419.9	82.2397	14,419.9	80.9372	14,419.9	79.8585	14,419.9	80.2018	14,419.9	78.8793	14,419.9	78.8108	14,419.9	75.2279	14,419.9	75.4264	14,419.9	73.1761	14,419.9	75.2481	14,419.9	68.9876	14,419.9	66.1322	14,419.9	67.9804	14,419.9	66.0489	14,419.9	63.8546	14,419.9	60.9112	14,419.9	61.732	14,419.9	59.0697	14,419.9	56.2308	14,419.9	62.5833	14,419.9	51.5358	14,419.9	65.7282	14,419.9	53.8725	14,419.9	44.5635	14,419.9	51.0195	14,419.9	54.875	14,419.9	51.8129	14,419.9	50.9559	14,419.9	51.6275	14,419.9	26.0957	14,419.9	44.2885	14,419.9	50.8648	14,419.9	50.3869	14,419.9	47.9054	14,419.9	49.3689
14,928.2	82.8685	14,928.2	82.1478	14,928.2	81.4846	14,928.2	80.2079	14,928.2	80.3112	14,928.2	78.8021	14,928.2	77.9648	14,928.2	74.6953	14,928.2	74.8529	14,928.2	72.362	14,928.2	73.4572	14,928.2	68.551	14,928.2	60.9157	14,928.2	66.2797	14,928.2	65.9079	14,928.2	62.1132	14,928.2	62.0307	14,928.2	59.952	14,928.2	57.7823	14,928.2	53.3654	14,928.2	62.5159	14,928.2	50.6249	14,928.2	63.9172	14,928.2	52.2046	14,928.2	46.0243	14,928.2	49.9923	14,928.2	54.9588	14,928.2	50.4244	14,928.2	45.8905	14,928.2	51.3075	14,928.2	38.2858	14,928.2	39.9848	14,928.2	50.5161	14,928.2	48.1457	14,928.2	43.9175	14,928.2	46.8387
15,454.8	83.2066	15,454.8	82.3158	15,454.8	81.9505	15,454.8	80.4942	15,454.8	80.4609	15,454.8	78.6392	15,454.8	77.3916	15,454.8	74.0415	15,454.8	73.9538	15,454.8	71.8707	15,454.8	71.8126	15,454.8	67.1935	15,454.8	63.0721	15,454.8	64.5653	15,454.8	64.0372	15,454.8	59.6414	15,454.8	62.3272	15,454.8	57.3758	15,454.8	53.5437	15,454.8	48.6653	15,454.8	62.1077	15,454.8	46.9509	15,454.8	64.0833	15,454.8	49.5313	15,454.8	46.304	15,454.8	42.9173	15,454.8	54.0273	15,454.8	49.893	15,454.8	50.8033	15,454.8	50.1683	15,454.8	37.9798	15,454.8	35.7269	15,454.8	45.8058	15,454.8	47.4417	15,454.8	44.3585	15,454.8	46.9598
15,999.8	83.2431	15,999.8	82.3501	15,999.8	82.1166	15,999.8	80.7413	15,999.8	80.5067	15,999.8	78.4855	15,999.8	76.9436	15,999.8	73.7373	15,999.8	74.0631	15,999.8	71.0848	15,999.8	70.4458	15,999.8	65.7159	15,999.8	61.0211	15,999.8	61.6437	15,999.8	62.1069	15,999.8	57.1744	15,999.8	59.2614	15,999.8	56.0236	15,999.8	52.6613	15,999.8	44.0516	15,999.8	62.0016	15,999.8	46.3215	15,999.8	64.0636	15,999.8	48.6874	15,999.8	40.502	15,999.8	44.111	15,999.8	53.3259	15,999.8	47.8739	15,999.8	49.543	15,999.8	49.6173	15,999.8	40.4433	15,999.8	39.0568	15,999.8	41.8441	15,999.8	46.0355	15,999.8	40.6659	15,999.8	45.4829
16,564.5	83.1322	16,564.5	82.3125	16,564.5	82.0181	16,564.5	80.7629	16,564.5	80.4439	16,564.5	78.0122	16,564.5	76.7872	16,564.5	73.177	16,564.5	73.4173	16,564.5	69.8743	16,564.5	67.2327	16,564.5	63.0663	16,564.5	59.2249	16,564.5	58.4453	16,564.5	61.408	16,564.5	54.9617	16,564.5	58.503	16,564.5	54.5453	16,564.5	50.0832	16,564.5	42.2461	16,564.5	62.1273	16,564.5	44.298	16,564.5	64.0811	16,564.5	47.4208	16,564.5	42.4629	16,564.5	42.2136	16,564.5	53.1559	16,564.5	46.5487	16,564.5	50.0418	16,564.5	49.0039	16,564.5	36.15	16,564.5	43.276	16,564.5	45.0717	16,564.5	43.7449	16,564.5	42.7442	16,564.5	44.4538
17,148.2	83.195	17,148.2	82.3371	17,148.2	82.0804	17,148.2	80.7456	17,148.2	80.2038	17,148.2	77.4542	17,148.2	76.4675	17,148.2	72.6141	17,148.2	72.5057	17,148.2	68.2673	17,148.2	65.1241	17,148.2	59.1471	17,148.2	63.5622	17,148.2	57.0822	17,148.2	58.6981	17,148.2	56.1626	17,148.2	58.3048	17,148.2	54.7596	17,148.2	42.368	17,148.2	44.6045	17,148.2	61.228	17,148.2	44.6485	17,148.2	64.0747	17,148.2	46.067	17,148.2	44.8231	17,148.2	47.3085	17,148.2	53.7925	17,148.2	48.1239	17,148.2	53.5637	17,148.2	50.8656	17,148.2	34.4836	17,148.2	45.3543	17,148.2	46.7665	17,148.2	46.4555	17,148.2	46.2392	17,148.2	45.6238
17,753.2	83.3189	17,753.2	82.384	17,753.2	82.2128	17,753.2	80.4561	17,753.2	80.0267	17,753.2	76.7738	17,753.2	75.806	17,753.2	71.7299	17,753.2	71.0734	17,753.2	66.596	17,753.2	64.1215	17,753.2	58.0041	17,753.2	59.8643	17,753.2	56.9023	17,753.2	53.7017	17,753.2	56.5847	17,753.2	58.7045	17,753.2	54.3676	17,753.2	44.9998	17,753.2	48.437	17,753.2	60.8387	17,753.2	45.6541	17,753.2	63.6767	17,753.2	46.0163	17,753.2	43.7066	17,753.2	48.2977	17,753.2	53.2997	17,753.2	48.967	17,753.2	52.6134	17,753.2	50.0516	17,753.2	38.1902	17,753.2	43.8537	17,753.2	42.7553	17,753.2	47.0089	17,753.2	48.6034	17,753.2	43.7064
18,379.4	83.0631	18,379.4	82.2343	18,379.4	82.0376	18,379.4	80.0148	18,379.4	79.7435	18,379.4	75.9844	18,379.4	74.9838	18,379.4	70.4607	18,379.4	69.592	18,379.4	64.006	18,379.4	61.4069	18,379.4	56.8098	18,379.4	60.6693	18,379.4	56.6187	18,379.4	53.9222	18,379.4	55.9601	18,379.4	56.4531	18,379.4	53.3767	18,379.4	39.4966	18,379.4	50.3098	18,379.4	59.0519	18,379.4	44.4433	18,379.4	63.3994	18,379.4	43.0973	18,379.4	46.9655	18,379.4	48.7111	18,379.4	52.9772	18,379.4	48.5444	18,379.4	52.2368	18,379.4	48.3103	18,379.4	37.9867	18,379.4	43.6341	18,379.4	41.3946	18,379.4	45.7436	18,379.4	48.9582	18,379.4	40.1367
19,027.6	82.4748	19,027.6	81.8004	19,027.6	81.4666	19,027.6	79.3671	19,027.6	78.865	19,027.6	75.5338	19,027.6	73.9135	19,027.6	69.2406	19,027.6	68.7991	19,027.6	62.4205	19,027.6	62.3294	19,027.6	58.1356	19,027.6	60.7533	19,027.6	56.7473	19,027.6	49.1832	19,027.6	56.0038	19,027.6	57.3762	19,027.6	51.4387	19,027.6	38.602	19,027.6	52.0619	19,027.6	57.6303	19,027.6	43.5916	19,027.6	62.889	19,027.6	41.6938	19,027.6	46.6895	19,027.6	47.2283	19,027.6	51.5265	19,027.6	48.3318	19,027.6	49.6441	19,027.6	48.792	19,027.6	36.3689	19,027.6	40.5265	19,027.6	42.6275	19,027.6	41.7546	19,027.6	50.5798	19,027.6	42.6819
19,698.5	82.3768	19,698.5	81.4993	19,698.5	81.1956	19,698.5	78.5585	19,698.5	78.3673	19,698.5	74.7674	19,698.5	73.2326	19,698.5	66.6943	19,698.5	68.4923	19,698.5	62.5223	19,698.5	61.5007	19,698.5	57.7054	19,698.5	59.3172	19,698.5	55.1689	19,698.5	47.4235	19,698.5	55.219	19,698.5	56.8542	19,698.5	50.5377	19,698.5	30.0858	19,698.5	53.0402	19,698.5	57.3483	19,698.5	41.4061	19,698.5	61.9465	19,698.5	42.5287	19,698.5	41.7184	19,698.5	44.1386	19,698.5	48.4096	19,698.5	48.3995	19,698.5	46.0985	19,698.5	48.6094	19,698.5	31.4708	19,698.5	29.9802	19,698.5	39.9081	19,698.5	41.8793	19,698.5	50.7621	19,698.5	45.5916
19,999.5	82.1739	19,999.5	81.3717	19,999.5	80.9563	19,999.5	78.1523	19,999.5	78.2942	19,999.5	74.3227	19,999.5	73.509	19,999.5	65.9974	19,999.5	67.9436	19,999.5	62.3878	19,999.5	62.9943	19,999.5	56.2563	19,999.5	59.0185	19,999.5	55.1813	19,999.5	51.4421	19,999.5	53.6503	19,999.5	56.4551	19,999.5	49.4869	19,999.5	46.5489	19,999.5	52.2911	19,999.5	55.5546	19,999.5	44.4936	19,999.5	61.9837	19,999.5	48.1975	19,999.5	34.0655	19,999.5	43.7513	19,999.5	47.2525	19,999.5	48.5432	19,999.5	44.567	19,999.5	45.9535	19,999.5	37.9794	19,999.5	25.027	19,999.5	44.6305	19,999.5	42.0746	19,999.5	50.6325	19,999.5	43.8077
