"SPL Horizontal"																																																																							
"On-Axis"		"10°"		"-10°"		"20°"		"-20°"		"30°"		"-30°"		"40°"		"-40°"		"50°"		"-50°"		"60°"		"-60°"		"70°"		"-70°"		"80°"		"-80°"		"90°"		"-90°"		"100°"		"-100°"		"110°"		"-110°"		"120°"		"-120°"		"130°"		"-130°"		"140°"		"-140°"		"150°"		"-150°"		"160°"		"-160°"		"170°"		"-170°"		"180°"	
"Frequency [Hz]"	"Sound Pessure Level [dB]  / [2.83V 1m] "	"Frequency [Hz]"	"Sound Pessure Level [dB]  / [2.83V 1m] "	"Frequency [Hz]"	"Sound Pessure Level [dB]  / [2.83V 1m] "	"Frequency [Hz]"	"Sound Pessure Level [dB]  / [2.83V 1m] "	"Frequency [Hz]"	"Sound Pessure Level [dB]  / [2.83V 1m] "	"Frequency [Hz]"	"Sound Pessure Level [dB]  / [2.83V 1m] "	"Frequency [Hz]"	"Sound Pessure Level [dB]  / [2.83V 1m] "	"Frequency [Hz]"	"Sound Pessure Level [dB]  / [2.83V 1m] "	"Frequency [Hz]"	"Sound Pessure Level [dB]  / [2.83V 1m] "	"Frequency [Hz]"	"Sound Pessure Level [dB]  / [2.83V 1m] "	"Frequency [Hz]"	"Sound Pessure Level [dB]  / [2.83V 1m] "	"Frequency [Hz]"	"Sound Pessure Level [dB]  / [2.83V 1m] "	"Frequency [Hz]"	"Sound Pessure Level [dB]  / [2.83V 1m] "	"Frequency [Hz]"	"Sound Pessure Level [dB]  / [2.83V 1m] "	"Frequency [Hz]"	"Sound Pessure Level [dB]  / [2.83V 1m] "	"Frequency [Hz]"	"Sound Pessure Level [dB]  / [2.83V 1m] "	"Frequency [Hz]"	"Sound Pessure Level [dB]  / [2.83V 1m] "	"Frequency [Hz]"	"Sound Pessure Level [dB]  / [2.83V 1m] "	"Frequency [Hz]"	"Sound Pessure Level [dB]  / [2.83V 1m] "	"Frequency [Hz]"	"Sound Pessure Level [dB]  / [2.83V 1m] "	"Frequency [Hz]"	"Sound Pessure Level [dB]  / [2.83V 1m] "	"Frequency [Hz]"	"Sound Pessure Level [dB]  / [2.83V 1m] "	"Frequency [Hz]"	"Sound Pessure Level [dB]  / [2.83V 1m] "	"Frequency [Hz]"	"Sound Pessure Level [dB]  / [2.83V 1m] "	"Frequency [Hz]"	"Sound Pessure Level [dB]  / [2.83V 1m] "	"Frequency [Hz]"	"Sound Pessure Level [dB]  / [2.83V 1m] "	"Frequency [Hz]"	"Sound Pessure Level [dB]  / [2.83V 1m] "	"Frequency [Hz]"	"Sound Pessure Level [dB]  / [2.83V 1m] "	"Frequency [Hz]"	"Sound Pessure Level [dB]  / [2.83V 1m] "	"Frequency [Hz]"	"Sound Pessure Level [dB]  / [2.83V 1m] "	"Frequency [Hz]"	"Sound Pessure Level [dB]  / [2.83V 1m] "	"Frequency [Hz]"	"Sound Pessure Level [dB]  / [2.83V 1m] "	"Frequency [Hz]"	"Sound Pessure Level [dB]  / [2.83V 1m] "	"Frequency [Hz]"	"Sound Pessure Level [dB]  / [2.83V 1m] "	"Frequency [Hz]"	"Sound Pessure Level [dB]  / [2.83V 1m] "	"Frequency [Hz]"	"Sound Pessure Level [dB]  / [2.83V 1m] "
20.5078	59.8835	20.5078	59.8838	20.5078	59.8754	20.5078	59.8762	20.5078	59.8597	20.5078	59.8606	20.5078	59.8368	20.5078	59.8372	20.5078	59.8069	20.5078	59.8063	20.5078	59.7704	20.5078	59.7684	20.5078	59.7279	20.5078	59.7242	20.5078	59.6799	20.5078	59.6746	20.5078	59.6271	20.5078	59.6209	20.5078	59.5704	20.5078	59.5641	20.5078	59.5109	20.5078	59.5056	20.5078	59.4501	20.5078	59.4467	20.5078	59.3899	20.5078	59.3891	20.5078	59.3328	20.5078	59.3348	20.5078	59.2821	20.5078	59.286	20.5078	59.2409	20.5078	59.2453	20.5078	59.2121	20.5078	59.2157	20.5078	59.198	20.5078	59.1993
21.2402	59.9979	21.2402	59.992	21.2402	59.9958	21.2402	59.9781	21.2402	59.9855	21.2402	59.9565	21.2402	59.9671	21.2402	59.9277	21.2402	59.9407	21.2402	59.8921	21.2402	59.9065	21.2402	59.8504	21.2402	59.865	21.2402	59.8033	21.2402	59.8167	21.2402	59.7515	21.2402	59.7627	21.2402	59.696	21.2402	59.7038	21.2402	59.6376	21.2402	59.6415	21.2402	59.5774	21.2402	59.5773	21.2402	59.5167	21.2402	59.5129	21.2402	59.4574	21.2402	59.4508	21.2402	59.402	21.2402	59.3938	21.2402	59.3533	21.2402	59.345	21.2402	59.3146	21.2402	59.3079	21.2402	59.2889	21.2402	59.2852	21.2402	59.2788
21.9727	61.004	21.9727	61.0047	21.9727	60.9957	21.9727	60.9976	21.9727	60.98	21.9727	60.9825	21.9727	60.9573	21.9727	60.9596	21.9727	60.928	21.9727	60.9291	21.9727	60.8927	21.9727	60.8918	21.9727	60.8519	21.9727	60.8486	21.9727	60.8064	21.9727	60.8009	21.9727	60.7572	21.9727	60.7501	21.9727	60.7054	21.9727	60.698	21.9727	60.6526	21.9727	60.6462	21.9727	60.6005	21.9727	60.5962	21.9727	60.5509	21.9727	60.5496	21.9727	60.5059	21.9727	60.5075	21.9727	60.4675	21.9727	60.4711	21.9727	60.4375	21.9727	60.4417	21.9727	60.4173	21.9727	60.4206	21.9727	60.4078	21.9727	60.409
22.7051	61.2256	22.7051	61.2207	22.7051	61.2219	22.7051	61.2072	22.7051	61.2095	22.7051	61.1853	22.7051	61.1886	22.7051	61.1553	22.7051	61.1596	22.7051	61.1179	22.7051	61.1229	22.7051	61.0739	22.7051	61.0792	22.7051	61.0242	22.7051	61.0291	22.7051	60.97	22.7051	60.9739	22.7051	60.9126	22.7051	60.9148	22.7051	60.8536	22.7051	60.8536	22.7051	60.7947	22.7051	60.7921	22.7051	60.7376	22.7051	60.7326	22.7051	60.6843	22.7051	60.6773	22.7051	60.6367	22.7051	60.6287	22.7051	60.5964	22.7051	60.5887	22.7051	60.5655	22.7051	60.5594	22.7051	60.5454	22.7051	60.542	22.7051	60.5374
23.4375	62.1686	23.4375	62.1595	23.4375	62.1704	23.4375	62.1433	23.4375	62.1651	23.4375	62.1199	23.4375	62.1527	23.4375	62.0895	23.4375	62.1336	23.4375	62.0526	23.4375	62.1079	23.4375	62.0097	23.4375	62.076	23.4375	61.9617	23.4375	62.0384	23.4375	61.9097	23.4375	61.9955	23.4375	61.855	23.4375	61.9482	23.4375	61.7994	23.4375	61.8971	23.4375	61.7446	23.4375	61.8436	23.4375	61.6927	23.4375	61.7888	23.4375	61.6456	23.4375	61.7345	23.4375	61.6055	23.4375	61.6828	23.4375	61.5744	23.4375	61.6362	23.4375	61.5541	23.4375	61.5971	23.4375	61.5459	23.4375	61.568	23.4375	61.5506
24.1699	62.6689	24.1699	62.6623	24.1699	62.6689	24.1699	62.6492	24.1699	62.6623	24.1699	62.6298	24.1699	62.6492	24.1699	62.6042	24.1699	62.6298	24.1699	62.573	24.1699	62.6043	24.1699	62.5365	24.1699	62.573	24.1699	62.4956	24.1699	62.5363	24.1699	62.4512	24.1699	62.4948	24.1699	62.4043	24.1699	62.4492	24.1699	62.3562	24.1699	62.4005	24.1699	62.3083	24.1699	62.3501	24.1699	62.262	24.1699	62.2995	24.1699	62.219	24.1699	62.2507	24.1699	62.1808	24.1699	62.2059	24.1699	62.1492	24.1699	62.1675	24.1699	62.1258	24.1699	62.1376	24.1699	62.1121	24.1699	62.1178	24.1699	62.1093
25.6348	63.4692	25.6348	63.4651	25.6348	63.4659	25.6348	63.4537	25.6348	63.4554	25.6348	63.4351	25.6348	63.4378	25.6348	63.4095	25.6348	63.4135	25.6348	63.3774	25.6348	63.3829	25.6348	63.3393	25.6348	63.3465	25.6348	63.2962	25.6348	63.3051	25.6348	63.249	25.6348	63.2594	25.6348	63.1989	25.6348	63.2105	25.6348	63.1474	25.6348	63.1595	25.6348	63.096	25.6348	63.108	25.6348	63.0463	25.6348	63.0575	25.6348	63.0001	25.6348	63.0097	25.6348	62.9589	25.6348	62.9666	25.6348	62.9247	25.6348	62.9303	25.6348	62.899	25.6348	62.9025	25.6348	62.8832	25.6348	62.8849	25.6348	62.8783
26.3672	63.9666	26.3672	63.962	26.3672	63.9635	26.3672	63.9497	26.3672	63.9529	26.3672	63.9299	26.3672	63.935	26.3672	63.9027	26.3672	63.9099	26.3672	63.8687	26.3672	63.8782	26.3672	63.8284	26.3672	63.8403	26.3672	63.7827	26.3672	63.7969	26.3672	63.7327	26.3672	63.7487	26.3672	63.6795	26.3672	63.6967	26.3672	63.6248	26.3672	63.6423	26.3672	63.5701	26.3672	63.5868	26.3672	63.5171	26.3672	63.5321	26.3672	63.4676	26.3672	63.4802	26.3672	63.4235	26.3672	63.4334	26.3672	63.3868	26.3672	63.3938	26.3672	63.3593	26.3672	63.3636	26.3672	63.3424	26.3672	63.3445	26.3672	63.3373
27.0996	64.5002	27.0996	64.4967	27.0996	64.497	27.0996	64.4864	27.0996	64.4872	27.0996	64.4695	27.0996	64.4709	27.0996	64.446	27.0996	64.4483	27.0996	64.4165	27.0996	64.4199	27.0996	64.3813	27.0996	64.386	27.0996	64.3412	27.0996	64.3471	27.0996	64.2971	27.0996	64.3041	27.0996	64.2502	27.0996	64.2577	27.0996	64.2016	27.0996	64.2092	27.0996	64.1529	27.0996	64.1599	27.0996	64.1056	27.0996	64.1115	27.0996	64.0614	27.0996	64.0657	27.0996	64.0218	27.0996	64.0246	27.0996	63.9886	27.0996	63.9901	27.0996	63.9634	27.0996	63.964	27.0996	63.9477	27.0996	63.9478	27.0996	63.9423
27.832	64.9408	27.832	64.9372	27.832	64.9376	27.832	64.927	27.832	64.9278	27.832	64.9104	27.832	64.9114	27.832	64.8875	27.832	64.8889	27.832	64.8588	27.832	64.8604	27.832	64.8248	27.832	64.8266	27.832	64.7864	27.832	64.7879	27.832	64.7444	27.832	64.7453	27.832	64.6998	27.832	64.6998	27.832	64.6538	27.832	64.6523	27.832	64.6077	27.832	64.6045	27.832	64.5628	27.832	64.5578	27.832	64.5206	27.832	64.5141	27.832	64.4825	27.832	64.4753	27.832	64.4502	27.832	64.4432	27.832	64.4251	27.832	64.4196	27.832	64.4087	27.832	64.4057	27.832	64.4021
29.2969	65.7137	29.2969	65.7091	29.2969	65.7104	29.2969	65.6968	29.2969	65.6994	29.2969	65.6769	29.2969	65.6807	29.2969	65.6499	29.2969	65.6549	29.2969	65.6164	29.2969	65.6224	29.2969	65.577	29.2969	65.5838	29.2969	65.5329	29.2969	65.5402	29.2969	65.4852	29.2969	65.4926	29.2969	65.4352	29.2969	65.4424	29.2969	65.3845	29.2969	65.3909	29.2969	65.3346	29.2969	65.3399	29.2969	65.2869	29.2969	65.2909	29.2969	65.2432	29.2969	65.2458	29.2969	65.2047	29.2969	65.2061	29.2969	65.173	29.2969	65.1735	29.2969	65.1492	29.2969	65.1492	29.2969	65.1343	29.2969	65.1342	29.2969	65.1292
30.0293	66.1276	30.0293	66.1244	30.0293	66.1228	30.0293	66.1133	30.0293	66.1104	30.0293	66.0946	30.0293	66.0904	30.0293	66.0684	30.0293	66.0633	30.0293	66.0353	30.0293	66.0296	30.0293	65.996	30.0293	65.9901	30.0293	65.9516	30.0293	65.9456	30.0293	65.9031	30.0293	65.8973	30.0293	65.8521	30.0293	65.8464	30.0293	65.8	30.0293	65.7944	30.0293	65.7486	30.0293	65.7431	30.0293	65.6994	30.0293	65.694	30.0293	65.6543	30.0293	65.6491	30.0293	65.6147	30.0293	65.6099	30.0293	65.5821	30.0293	65.578	30.0293	65.5576	30.0293	65.5546	30.0293	65.5421	30.0293	65.5405	30.0293	65.5363
31.4941	67.0738	31.4941	67.0665	31.4941	67.074	31.4941	67.0522	31.4941	67.067	31.4941	67.0312	31.4941	67.0528	31.4941	67.0038	31.4941	67.0318	31.4941	66.9706	31.4941	67.0041	31.4941	66.9322	31.4941	66.9702	31.4941	66.8895	31.4941	66.9309	31.4941	66.8436	31.4941	66.887	31.4941	66.7957	31.4941	66.8396	31.4941	66.7472	31.4941	66.7901	31.4941	66.6995	31.4941	66.74	31.4941	66.6543	31.4941	66.6911	31.4941	66.6132	31.4941	66.6453	31.4941	66.5777	31.4941	66.6042	31.4941	66.5492	31.4941	66.5696	31.4941	66.5289	31.4941	66.5427	31.4941	66.5178	31.4941	66.5248	31.4941	66.5164
32.2266	67.4551	32.2266	67.4479	32.2266	67.4552	32.2266	67.4337	32.2266	67.4483	32.2266	67.4128	32.2266	67.4345	32.2266	67.3854	32.2266	67.414	32.2266	67.352	32.2266	67.3872	32.2266	67.3133	32.2266	67.3546	32.2266	67.2702	32.2266	67.3167	32.2266	67.2238	32.2266	67.2745	32.2266	67.1753	32.2266	67.2291	32.2266	67.1264	32.2266	67.1815	32.2266	67.0787	32.2266	67.1334	32.2266	67.0339	32.2266	67.0862	32.2266	66.9936	32.2266	67.0416	32.2266	66.9595	32.2266	67.001	32.2266	66.933	32.2266	66.9661	32.2266	66.915	32.2266	66.9381	32.2266	66.9065	32.2266	66.9184	32.2266	66.9077
33.6914	68.1347	33.6914	68.1318	33.6914	68.1302	33.6914	68.1216	33.6914	68.1185	33.6914	68.1042	33.6914	68.0998	33.6914	68.0801	33.6914	68.0745	33.6914	68.0497	33.6914	68.0431	33.6914	68.0137	33.6914	68.0063	33.6914	67.9729	33.6914	67.9649	33.6914	67.9285	33.6914	67.9201	33.6914	67.8816	33.6914	67.8731	33.6914	67.8336	33.6914	67.8251	33.6914	67.7861	33.6914	67.7777	33.6914	67.7406	33.6914	67.7326	33.6914	67.6987	33.6914	67.6912	33.6914	67.6618	33.6914	67.6551	33.6914	67.6313	33.6914	67.6257	33.6914	67.6083	33.6914	67.6043	33.6914	67.5936	33.6914	67.5915	33.6914	67.588
34.4238	68.6258	34.4238	68.6209	34.4238	68.6236	34.4238	68.6091	34.4238	68.6144	34.4238	68.5906	34.4238	68.5986	34.4238	68.5657	34.4238	68.5763	34.4238	68.5351	34.4238	68.5481	34.4238	68.4995	34.4238	68.5146	34.4238	68.4597	34.4238	68.4766	34.4238	68.417	34.4238	68.435	34.4238	68.3724	34.4238	68.391	34.4238	68.3274	34.4238	68.3457	34.4238	68.2835	34.4238	68.3006	34.4238	68.2418	34.4238	68.2571	34.4238	68.204	34.4238	68.2169	34.4238	68.1711	34.4238	68.1813	34.4238	68.1444	34.4238	68.1518	34.4238	68.1248	34.4238	68.1296	34.4238	68.1131	34.4238	68.1155	34.4238	68.1099
35.8887	69.2193	35.8887	69.2132	35.8887	69.2184	35.8887	69.2004	35.8887	69.2105	35.8887	69.1809	35.8887	69.196	35.8887	69.1553	35.8887	69.1751	35.8887	69.1243	35.8887	69.1485	35.8887	69.0886	35.8887	69.1169	35.8887	69.0493	35.8887	69.0813	35.8887	69.0075	35.8887	69.0426	35.8887	68.9646	35.8887	69.002	35.8887	68.9219	35.8887	68.9609	35.8887	68.8809	35.8887	68.9204	35.8887	68.8431	35.8887	68.8816	35.8887	68.8097	35.8887	68.8458	35.8887	68.782	35.8887	68.8138	35.8887	68.7607	35.8887	68.7866	35.8887	68.7467	35.8887	68.765	35.8887	68.7402	35.8887	68.7497	35.8887	68.7412
37.3535	70.0319	37.3535	70.0298	37.3535	70.0257	37.3535	70.0196	37.3535	70.0114	37.3535	70.0013	37.3535	69.9893	37.3535	69.9754	37.3535	69.9599	37.3535	69.9424	37.3535	69.9239	37.3535	69.903	37.3535	69.8821	37.3535	69.8583	37.3535	69.8357	37.3535	69.8093	37.3535	69.7859	37.3535	69.7574	37.3535	69.7343	37.3535	69.7042	37.3535	69.6822	37.3535	69.6514	37.3535	69.6314	37.3535	69.6008	37.3535	69.5834	37.3535	69.5543	37.3535	69.5398	37.3535	69.5134	37.3535	69.502	37.3535	69.4797	37.3535	69.4714	37.3535	69.4544	37.3535	69.449	37.3535	69.4384	37.3535	69.4357	37.3535	69.4321
38.8184	70.6119	38.8184	70.6033	38.8184	70.6129	38.8184	70.5872	38.8184	70.6061	38.8184	70.5639	38.8184	70.5918	38.8184	70.5339	38.8184	70.5704	38.8184	70.4979	38.8184	70.5423	38.8184	70.4567	38.8184	70.5082	38.8184	70.4114	38.8184	70.4689	38.8184	70.3633	38.8184	70.4255	38.8184	70.3136	38.8184	70.3791	38.8184	70.264	38.8184	70.3308	38.8184	70.2161	38.8184	70.2822	38.8184	70.1715	38.8184	70.2346	38.8184	70.1318	38.8184	70.1895	38.8184	70.0987	38.8184	70.1484	38.8184	70.0732	38.8184	70.1128	38.8184	70.0565	38.8184	70.084	38.8184	70.0492	38.8184	70.0633	38.8184	70.0515
39.5508	70.9308	39.5508	70.9208	39.5508	70.9332	39.5508	70.9034	39.5508	70.928	39.5508	70.8788	39.5508	70.9155	39.5508	70.8477	39.5508	70.8959	39.5508	70.8107	39.5508	70.87	39.5508	70.7691	39.5508	70.8382	39.5508	70.7238	39.5508	70.8015	39.5508	70.6763	39.5508	70.7608	39.5508	70.6281	39.5508	70.717	39.5508	70.5807	39.5508	70.6715	39.5508	70.5357	39.5508	70.6253	39.5508	70.4946	39.5508	70.5798	39.5508	70.4588	39.5508	70.5364	39.5508	70.4297	39.5508	70.4964	39.5508	70.4083	39.5508	70.4612	39.5508	70.3953	39.5508	70.4321	39.5508	70.3913	39.5508	70.4102	39.5508	70.3964
41.0156	71.5852	41.0156	71.5814	41.0156	71.5811	41.0156	71.5696	41.0156	71.5692	41.0156	71.5502	41.0156	71.5498	41.0156	71.5237	41.0156	71.5235	41.0156	71.4908	41.0156	71.4909	41.0156	71.4525	41.0156	71.4531	41.0156	71.41	41.0156	71.4111	41.0156	71.3646	41.0156	71.3663	41.0156	71.3177	41.0156	71.3198	41.0156	71.2711	41.0156	71.2734	41.0156	71.2261	41.0156	71.2284	41.0156	71.1841	41.0156	71.1864	41.0156	71.1466	41.0156	71.1486	41.0156	71.1146	41.0156	71.1163	41.0156	71.0889	41.0156	71.0902	41.0156	71.0702	41.0156	71.0711	41.0156	71.059	41.0156	71.0594	41.0156	71.0553
42.4805	72.303	42.4805	72.2968	42.4805	72.3017	42.4805	72.2832	42.4805	72.2927	42.4805	72.2627	42.4805	72.2764	42.4805	72.2357	42.4805	72.253	42.4805	72.2029	42.4805	72.2233	42.4805	72.1654	42.4805	72.188	42.4805	72.1241	42.4805	72.1482	42.4805	72.0804	42.4805	72.105	42.4805	72.0355	42.4805	72.0599	42.4805	71.9909	42.4805	72.0143	42.4805	71.9479	42.4805	71.9697	42.4805	71.908	42.4805	71.9276	42.4805	71.8725	42.4805	71.8893	42.4805	71.8423	42.4805	71.8561	42.4805	71.8184	42.4805	71.8289	42.4805	71.8014	42.4805	71.8084	42.4805	71.7917	42.4805	71.7952	42.4805	71.7896
43.9453	73.002	43.9453	72.9933	43.9453	73.0031	43.9453	72.9775	43.9453	72.9967	43.9453	72.9548	43.9453	72.9832	43.9453	72.9259	43.9453	72.9628	43.9453	72.8917	43.9453	72.9363	43.9453	72.8532	43.9453	72.9045	43.9453	72.8116	43.9453	72.8685	43.9453	72.7683	43.9453	72.8295	43.9453	72.7248	43.9453	72.7887	43.9453	72.6826	43.9453	72.7477	43.9453	72.6432	43.9453	72.7075	43.9453	72.6079	43.9453	72.6694	43.9453	72.578	43.9453	72.6343	43.9453	72.5542	43.9453	72.6031	43.9453	72.5372	43.9453	72.5765	43.9453	72.5273	43.9453	72.5548	43.9453	72.5244	43.9453	72.5386	43.9453	72.5283
45.4102	73.513	45.4102	73.5083	45.4102	73.5093	45.4102	73.4955	45.4102	73.4975	45.4102	73.4748	45.4102	73.4778	45.4102	73.4469	45.4102	73.4509	45.4102	73.4125	45.4102	73.4175	45.4102	73.3728	45.4102	73.3786	45.4102	73.3289	45.4102	73.3355	45.4102	73.2822	45.4102	73.2896	45.4102	73.2343	45.4102	73.2424	45.4102	73.1867	45.4102	73.1954	45.4102	73.141	45.4102	73.1501	45.4102	73.0987	45.4102	73.108	45.4102	73.0612	45.4102	73.0703	45.4102	73.0294	45.4102	73.0379	45.4102	73.0044	45.4102	73.0116	45.4102	72.9867	45.4102	72.992	45.4102	72.9766	45.4102	72.9794	45.4102	72.9742
47.6074	74.5055	47.6074	74.5006	47.6074	74.5017	47.6074	74.4872	47.6074	74.4895	47.6074	74.4656	47.6074	74.4692	47.6074	74.4365	47.6074	74.4416	47.6074	74.4009	47.6074	74.4077	47.6074	74.36	47.6074	74.3686	47.6074	74.3152	47.6074	74.3256	47.6074	74.2681	47.6074	74.2803	47.6074	74.2205	47.6074	74.2341	47.6074	74.174	47.6074	74.1886	47.6074	74.1302	47.6074	74.1452	47.6074	74.0906	47.6074	74.1052	47.6074	74.0563	47.6074	74.0698	47.6074	74.0279	47.6074	74.0396	47.6074	74.0061	47.6074	74.0154	47.6074	73.991	47.6074	73.9974	47.6074	73.9826	47.6074	73.9859	47.6074	73.981
49.0723	75.2084	49.0723	75.2077	49.0723	75.1988	49.0723	75.1967	49.0723	75.179	49.0723	75.1758	49.0723	75.1496	49.0723	75.1454	49.0723	75.1114	49.0723	75.1065	49.0723	75.0655	49.0723	75.0602	49.0723	75.0133	49.0723	75.008	49.0723	74.9562	49.0723	74.9515	49.0723	74.8962	49.0723	74.8924	49.0723	74.8351	49.0723	74.8326	49.0723	74.7749	49.0723	74.7741	49.0723	74.7177	49.0723	74.7186	49.0723	74.6652	49.0723	74.6677	49.0723	74.6192	49.0723	74.6229	49.0723	74.581	49.0723	74.5853	49.0723	74.5519	49.0723	74.5558	49.0723	74.5325	49.0723	74.5353	49.0723	74.5233	49.0723	74.5243
50.5371	75.6753	50.5371	75.6694	50.5371	75.6716	50.5371	75.6541	50.5371	75.6583	50.5371	75.6298	50.5371	75.6358	50.5371	75.5974	50.5371	75.6048	50.5371	75.5577	50.5371	75.5659	50.5371	75.5121	50.5371	75.5205	50.5371	75.4618	50.5371	75.4697	50.5371	75.4085	50.5371	75.4154	50.5371	75.3539	50.5371	75.3591	50.5371	75.2996	50.5371	75.3028	50.5371	75.2474	50.5371	75.2484	50.5371	75.1988	50.5371	75.1977	50.5371	75.1552	50.5371	75.1524	50.5371	75.1177	50.5371	75.1139	50.5371	75.0873	50.5371	75.0833	50.5371	75.0647	50.5371	75.0614	50.5371	75.0504	50.5371	75.0486	50.5371	75.0449
52.7344	76.5181	52.7344	76.5142	52.7344	76.5125	52.7344	76.5008	52.7344	76.4976	52.7344	76.4785	52.7344	76.4736	52.7344	76.4479	52.7344	76.4414	52.7344	76.41	52.7344	76.402	52.7344	76.366	52.7344	76.3564	52.7344	76.3174	52.7344	76.3063	52.7344	76.2656	52.7344	76.2532	52.7344	76.2126	52.7344	76.1988	52.7344	76.1599	52.7344	76.1451	52.7344	76.1093	52.7344	76.0938	52.7344	76.0622	52.7344	76.0466	52.7344	76.02	52.7344	76.005	52.7344	75.9838	52.7344	75.9701	52.7344	75.9543	52.7344	75.9429	52.7344	75.9321	52.7344	75.9239	52.7344	75.9177	52.7344	75.9134	52.7344	75.9114
54.1992	77.0234	54.1992	77.0164	54.1992	77.021	54.1992	77.0002	54.1992	77.009	54.1992	76.9753	54.1992	76.9878	54.1992	76.9427	54.1992	76.958	54.1992	76.9035	54.1992	76.9207	54.1992	76.8591	54.1992	76.8768	54.1992	76.8108	54.1992	76.828	54.1992	76.7604	54.1992	76.7759	54.1992	76.7095	54.1992	76.7223	54.1992	76.6596	54.1992	76.6691	54.1992	76.6123	54.1992	76.6182	54.1992	76.5689	54.1992	76.5713	54.1992	76.5303	54.1992	76.5299	54.1992	76.4974	54.1992	76.4952	54.1992	76.471	54.1992	76.468	54.1992	76.4514	54.1992	76.4487	54.1992	76.4391	54.1992	76.4375	54.1992	76.4344
56.3965	77.8554	56.3965	77.8474	56.3965	77.854	56.3965	77.8302	56.3965	77.8431	56.3965	77.8042	56.3965	77.8233	56.3965	77.7704	56.3965	77.7954	56.3965	77.73	56.3965	77.7604	56.3965	77.6844	56.3965	77.7196	56.3965	77.6354	56.3965	77.6745	56.3965	77.5848	56.3965	77.6267	56.3965	77.5346	56.3965	77.5781	56.3965	77.4866	56.3965	77.5303	56.3965	77.4425	56.3965	77.4849	56.3965	77.4037	56.3965	77.4434	56.3965	77.3712	56.3965	77.4066	56.3965	77.3456	56.3965	77.3755	56.3965	77.327	56.3965	77.3503	56.3965	77.3153	56.3965	77.3312	56.3965	77.3101	56.3965	77.3182	56.3965	77.3111
58.5938	78.6362	58.5938	78.6243	58.5938	78.6386	58.5938	78.6033	58.5938	78.6316	58.5938	78.5738	58.5938	78.6155	58.5938	78.5368	58.5938	78.5908	58.5938	78.4934	58.5938	78.5585	58.5938	78.4452	58.5938	78.5196	58.5938	78.3939	58.5938	78.4754	58.5938	78.3414	58.5938	78.4273	58.5938	78.2894	58.5938	78.3769	58.5938	78.2397	58.5938	78.3258	58.5938	78.194	58.5938	78.2755	58.5938	78.1536	58.5938	78.2276	58.5938	78.1195	58.5938	78.1836	58.5938	78.0924	58.5938	78.1447	58.5938	78.0726	58.5938	78.112	58.5938	78.0602	58.5938	78.0864	58.5938	78.0553	58.5938	78.0684	58.5938	78.058
60.0586	79.1518	60.0586	79.1425	60.0586	79.1509	60.0586	79.1232	60.0586	79.1401	60.0586	79.0944	60.0586	79.1199	60.0586	79.057	60.0586	79.0913	60.0586	79.0124	60.0586	79.0555	60.0586	78.9621	60.0586	79.0139	60.0586	78.9081	60.0586	78.968	60.0586	78.8525	60.0586	78.9195	60.0586	78.7973	60.0586	78.8699	60.0586	78.7446	60.0586	78.8205	60.0586	78.6962	60.0586	78.7726	60.0586	78.6537	60.0586	78.7273	60.0586	78.6182	60.0586	78.6855	60.0586	78.5903	60.0586	78.6481	60.0586	78.5705	60.0586	78.616	60.0586	78.5587	60.0586	78.5901	60.0586	78.5549	60.0586	78.5709	60.0586	78.5591
62.2559	79.8834	62.2559	79.8777	62.2559	79.8776	62.2559	79.8608	62.2559	79.8605	62.2559	79.8333	62.2559	79.8327	62.2559	79.7963	62.2559	79.7953	62.2559	79.7514	62.2559	79.7498	62.2559	79.7003	62.2559	79.698	62.2559	79.6451	62.2559	79.6422	62.2559	79.5881	62.2559	79.5845	62.2559	79.5314	62.2559	79.5274	62.2559	79.4772	62.2559	79.4732	62.2559	79.4274	62.2559	79.4236	62.2559	79.3834	62.2559	79.3801	62.2559	79.3463	62.2559	79.3436	62.2559	79.3163	62.2559	79.3143	62.2559	79.2937	62.2559	79.2923	62.2559	79.2779	62.2559	79.2771	62.2559	79.2687	62.2559	79.2683	62.2559	79.2655
64.4531	80.6583	64.4531	80.6528	64.4531	80.6518	64.4531	80.6357	64.4531	80.6336	64.4531	80.6077	64.4531	80.6041	64.4531	80.5698	64.4531	80.5644	64.4531	80.5237	64.4531	80.5159	64.4531	80.4711	64.4531	80.4603	64.4531	80.4141	64.4531	80.3996	64.4531	80.3549	64.4531	80.3362	64.4531	80.2956	64.4531	80.2723	64.4531	80.2385	64.4531	80.2105	64.4531	80.185	64.4531	80.153	64.4531	80.1366	64.4531	80.1017	64.4531	80.094	64.4531	80.0584	64.4531	80.0578	64.4531	80.024	64.4531	80.0281	64.4531	79.9991	64.4531	80.0049	64.4531	79.9836	64.4531	79.9885	64.4531	79.9772	64.4531	79.979
66.6504	81.2132	66.6504	81.2056	66.6504	81.2087	66.6504	81.1863	66.6504	81.1923	66.6504	81.1561	66.6504	81.1644	66.6504	81.1162	66.6504	81.1264	66.6504	81.0684	66.6504	81.0795	66.6504	81.0146	66.6504	81.0259	66.6504	80.957	66.6504	80.9678	66.6504	80.8981	66.6504	80.9075	66.6504	80.8402	66.6504	80.8478	66.6504	80.7855	66.6504	80.7909	66.6504	80.7358	66.6504	80.739	66.6504	80.6925	66.6504	80.6936	66.6504	80.6563	66.6504	80.6558	66.6504	80.6275	66.6504	80.6259	66.6504	80.6058	66.6504	80.6038	66.6504	80.5907	66.6504	80.5889	66.6504	80.5816	66.6504	80.5806	66.6504	80.5783
69.5801	82.2092	69.5801	82.1984	69.5801	82.2068	69.5801	82.1748	69.5801	82.1912	69.5801	82.1395	69.5801	82.1627	69.5801	82.0937	69.5801	82.1223	69.5801	82.0395	69.5801	82.0714	69.5801	81.9788	69.5801	82.0117	69.5801	81.9142	69.5801	81.9454	69.5801	81.8479	69.5801	81.875	69.5801	81.7826	69.5801	81.8032	69.5801	81.7203	69.5801	81.7327	69.5801	81.6627	69.5801	81.6663	69.5801	81.6112	69.5801	81.6063	69.5801	81.5664	69.5801	81.5547	69.5801	81.5287	69.5801	81.5131	69.5801	81.4983	69.5801	81.482	69.5801	81.475	69.5801	81.4617	69.5801	81.4591	69.5801	81.4517	69.5801	81.4511
71.7773	82.6832	71.7773	82.6701	71.7773	82.6833	71.7773	82.6442	71.7773	82.6704	71.7773	82.6065	71.7773	82.645	71.7773	82.5584	71.7773	82.6082	71.7773	82.5016	71.7773	82.5614	71.7773	82.4384	71.7773	82.5066	71.7773	82.3713	71.7773	82.4458	71.7773	82.303	71.7773	82.3815	71.7773	82.2363	71.7773	82.3163	71.7773	82.1737	71.7773	82.2526	71.7773	82.1174	71.7773	82.1925	71.7773	82.0691	71.7773	82.1381	71.7773	82.0298	71.7773	82.0905	71.7773	81.9998	71.7773	82.0504	71.7773	81.9791	71.7773	82.0182	71.7773	81.9669	71.7773	81.9936	71.7773	81.9628	71.7773	81.9763	71.7773	81.966
73.9746	83.2288	73.9746	83.2134	73.9746	83.2331	73.9746	83.1872	73.9746	83.226	73.9746	83.1513	73.9746	83.2082	73.9746	83.107	73.9746	83.1803	73.9746	83.0563	73.9746	83.1437	73.9746	83.0013	73.9746	83.0998	73.9746	82.9442	73.9746	83.0505	73.9746	82.8877	73.9746	82.9977	73.9746	82.8338	73.9746	82.9434	73.9746	82.7847	73.9746	82.8898	73.9746	82.7417	73.9746	82.8387	73.9746	82.7058	73.9746	82.7917	73.9746	82.6774	73.9746	82.7502	73.9746	82.6563	73.9746	82.7148	73.9746	82.6423	73.9746	82.686	73.9746	82.6348	73.9746	82.6637	73.9746	82.6333	73.9746	82.6477	73.9746	82.6376
76.9043	83.719	76.9043	83.6995	76.9043	83.7271	76.9043	83.669	76.9043	83.724	76.9043	83.6287	76.9043	83.7106	76.9043	83.5806	76.9043	83.6882	76.9043	83.5271	76.9043	83.659	76.9043	83.4712	76.9043	83.625	76.9043	83.4163	76.9043	83.5888	76.9043	83.3658	76.9043	83.5528	76.9043	83.3226	76.9043	83.5189	76.9043	83.2893	76.9043	83.4887	76.9043	83.2674	76.9043	83.463	76.9043	83.2572	76.9043	83.4417	76.9043	83.2579	76.9043	83.4242	76.9043	83.2677	76.9043	83.4092	76.9043	83.284	76.9043	83.3952	76.9043	83.3041	76.9043	83.3806	76.9043	83.3253	76.9043	83.3643	76.9043	83.3458
79.834	84.3686	79.834	84.3652	79.834	84.3573	79.834	84.3473	79.834	84.3319	79.834	84.3157	79.834	84.294	79.834	84.2717	79.834	84.2454	79.834	84.2178	79.834	84.1888	79.834	84.1568	79.834	84.1273	79.834	84.0921	79.834	84.0643	79.834	84.0273	79.834	84.0035	79.834	83.9663	79.834	83.948	79.834	83.9123	79.834	83.9007	79.834	83.868	79.834	83.8633	79.834	83.835	79.834	83.8366	79.834	83.8134	79.834	83.8198	79.834	83.8019	79.834	83.8112	79.834	83.7984	79.834	83.8081	79.834	83.7997	79.834	83.8077	79.834	83.803	79.834	83.8075	79.834	83.806
82.7637	85.013	82.7637	85.0145	82.7637	84.9924	82.7637	84.9973	82.7637	84.9534	82.7637	84.9623	82.7637	84.897	82.7637	84.9111	82.7637	84.8253	82.7637	84.8461	82.7637	84.7411	82.7637	84.7701	82.7637	84.6477	82.7637	84.6865	82.7637	84.5493	82.7637	84.5992	82.7637	84.4504	82.7637	84.5119	82.7637	84.3558	82.7637	84.4284	82.7637	84.27	82.7637	84.352	82.7637	84.1966	82.7637	84.2847	82.7637	84.1382	82.7637	84.228	82.7637	84.096	82.7637	84.1816	82.7637	84.0694	82.7637	84.1447	82.7637	84.0565	82.7637	84.1155	82.7637	84.0549	82.7637	84.0925	82.7637	84.0616	82.7637	84.0745
85.6934	85.2889	85.6934	85.2852	85.6934	85.2738	85.6934	85.2633	85.6934	85.2399	85.6934	85.2238	85.6934	85.1878	85.6934	85.1683	85.6934	85.1185	85.6934	85.0983	85.6934	85.0336	85.6934	85.0158	85.6934	84.9354	85.6934	84.9235	85.6934	84.827	85.6934	84.824	85.6934	84.7121	85.6934	84.7205	85.6934	84.595	85.6934	84.6163	85.6934	84.4803	85.6934	84.5145	85.6934	84.3729	85.6934	84.4183	85.6934	84.277	85.6934	84.3302	85.6934	84.1964	85.6934	84.2522	85.6934	84.1335	85.6934	84.186	85.6934	84.0895	85.6934	84.1325	85.6934	84.0644	85.6934	84.0927	85.6934	84.0574	85.6934	84.0673
88.623	85.3111	88.623	85.2989	88.623	85.3124	88.623	85.2768	88.623	85.3024	88.623	85.2456	88.623	85.281	88.623	85.2065	88.623	85.248	88.623	85.1608	88.623	85.2038	88.623	85.1098	88.623	85.149	88.623	85.0548	88.623	85.0844	88.623	84.9968	88.623	85.0115	88.623	84.9367	88.623	84.9322	88.623	84.8753	88.623	84.8491	88.623	84.8133	88.623	84.7655	88.623	84.7514	88.623	84.6854	88.623	84.6907	88.623	84.6129	88.623	84.6328	88.623	84.5521	88.623	84.5796	88.623	84.5064	88.623	84.5336	88.623	84.478	88.623	84.4978	88.623	84.4678	88.623	84.475
91.5527	84.4633	91.5527	84.4061	91.5527	84.5187	91.5527	84.3491	91.5527	84.5721	91.5527	84.2956	91.5527	84.6244	91.5527	84.2508	91.5527	84.6779	91.5527	84.2207	91.5527	84.7351	91.5527	84.2118	91.5527	84.7984	91.5527	84.23	91.5527	84.8699	91.5527	84.2795	91.5527	84.9501	91.5527	84.3619	91.5527	85.0384	91.5527	84.475	91.5527	85.1322	91.5527	84.6134	91.5527	85.2278	91.5527	84.7685	91.5527	85.3201	91.5527	84.9303	91.5527	85.4035	91.5527	85.0878	91.5527	85.4725	91.5527	85.2314	91.5527	85.5218	91.5527	85.3532	91.5527	85.5469	91.5527	85.4476	91.5527	85.5444	91.5527	85.5116
94.4824	86.0125	94.4824	86.0065	94.4824	85.9934	94.4824	85.9753	94.4824	85.9504	94.4824	85.9194	94.4824	85.8853	94.4824	85.8402	94.4824	85.801	94.4824	85.7401	94.4824	85.7015	94.4824	85.6226	94.4824	85.5914	94.4824	85.4925	94.4824	85.4766	94.4824	85.3558	94.4824	85.3631	94.4824	85.2196	94.4824	85.257	94.4824	85.092	94.4824	85.1634	94.4824	84.9807	94.4824	85.0858	94.4824	84.8921	94.4824	85.0253	94.4824	84.8304	94.4824	84.9803	94.4824	84.7962	94.4824	84.9472	94.4824	84.7868	94.4824	84.9211	94.4824	84.7964	94.4824	84.8972	94.4824	84.818	94.4824	84.872	94.4824	84.8449
98.1445	85.5093	98.1445	85.5098	98.1445	85.4913	98.1445	85.4936	98.1445	85.456	98.1445	85.4622	98.1445	85.4046	98.1445	85.4179	98.1445	85.3388	98.1445	85.3636	98.1445	85.2614	98.1445	85.3028	98.1445	85.1758	98.1445	85.2389	98.1445	85.0862	98.1445	85.1753	98.1445	84.9968	98.1445	85.1149	98.1445	84.9125	98.1445	85.0599	98.1445	84.8375	98.1445	85.011	98.1445	84.7756	98.1445	84.9682	98.1445	84.7296	98.1445	84.9303	98.1445	84.7007	98.1445	84.8956	98.1445	84.6887	98.1445	84.8623	98.1445	84.692	98.1445	84.8292	98.1445	84.7078	98.1445	84.7958	98.1445	84.7326	98.1445	84.7629
101.807	85.5075	101.807	85.5011	101.807	85.4938	101.807	85.4754	101.807	85.4606	101.807	85.4317	101.807	85.4092	101.807	85.3725	101.807	85.342	101.807	85.301	101.807	85.2622	101.807	85.2211	101.807	85.1739	101.807	85.1372	101.807	85.0817	101.807	85.054	101.807	84.9906	101.807	84.9758	101.807	84.9054	101.807	84.9061	101.807	84.8301	101.807	84.8471	101.807	84.7678	101.807	84.7996	101.807	84.72	101.807	84.7629	101.807	84.6869	101.807	84.7352	101.807	84.6672	101.807	84.7144	101.807	84.6586	101.807	84.6982	101.807	84.6585	101.807	84.6847	101.807	84.6642	101.807	84.6733
105.469	85.4069	105.469	85.3981	105.469	85.3973	105.469	85.372	105.469	85.3695	105.469	85.3301	105.469	85.3244	105.469	85.2749	105.469	85.2641	105.469	85.2094	105.469	85.1915	105.469	85.1373	105.469	85.1107	105.469	85.0626	105.469	85.0266	105.469	84.9897	105.469	84.9443	105.469	84.9227	105.469	84.8694	105.469	84.8652	105.469	84.8063	105.469	84.8198	105.469	84.7585	105.469	84.7877	105.469	84.7274	105.469	84.7681	105.469	84.7124	105.469	84.7589	105.469	84.7108	105.469	84.7564	105.469	84.7185	105.469	84.7566	105.469	84.7305	105.469	84.7558	105.469	84.7425	105.469	84.7514
109.131	85.2725	109.131	85.2526	109.131	85.2722	109.131	85.2139	109.131	85.2514	109.131	85.1588	109.131	85.211	109.131	85.091	109.131	85.1532	109.131	85.0146	109.131	85.0813	109.131	84.9348	109.131	84.9998	109.131	84.8566	109.131	84.9143	109.131	84.7851	109.131	84.8306	109.131	84.7247	109.131	84.7551	109.131	84.6787	109.131	84.6931	109.131	84.6487	109.131	84.6485	109.131	84.6344	109.131	84.623	109.131	84.6337	109.131	84.6154	109.131	84.6427	109.131	84.6222	109.131	84.6565	109.131	84.6377	109.131	84.6699	109.131	84.6558	109.131	84.6784	109.131	84.6709	109.131	84.679
112.793	85.3113	112.793	85.2991	112.793	85.2996	112.793	85.2641	112.793	85.2642	112.793	85.2088	112.793	85.2063	112.793	85.1364	112.793	85.1285	112.793	85.0516	112.793	85.0347	112.793	84.9592	112.793	84.9297	112.793	84.865	112.793	84.8194	112.793	84.7744	112.793	84.7103	112.793	84.6921	112.793	84.6088	112.793	84.622	112.793	84.5211	112.793	84.5661	112.793	84.4518	112.793	84.5245	112.793	84.4036	112.793	84.4957	112.793	84.3764	112.793	84.4766	112.793	84.368	112.793	84.4633	112.793	84.3737	112.793	84.452	112.793	84.3883	112.793	84.4396	112.793	84.4065	112.793	84.4244
116.455	85.2778	116.455	85.2488	116.455	85.2831	116.455	85.1979	116.455	85.2644	116.455	85.1278	116.455	85.2223	116.455	85.0427	116.455	85.1587	116.455	84.9474	116.455	85.0768	116.455	84.8478	116.455	84.9808	116.455	84.7503	116.455	84.876	116.455	84.6608	116.455	84.7685	116.455	84.5845	116.455	84.665	116.455	84.5251	116.455	84.5717	116.455	84.4837	116.455	84.4943	116.455	84.4593	116.455	84.4364	116.455	84.4483	116.455	84.3997	116.455	84.4458	116.455	84.383	116.455	84.4464	116.455	84.3829	116.455	84.4451	116.455	84.394	116.455	84.4389	116.455	84.4105	116.455	84.4267
120.85	85.1404	120.85	85.1044	120.85	85.1536	120.85	85.0463	120.85	85.1446	120.85	84.9682	120.85	85.1152	120.85	84.8735	120.85	85.0685	120.85	84.7673	120.85	85.0082	120.85	84.6559	120.85	84.9393	120.85	84.5466	120.85	84.8667	120.85	84.4474	120.85	84.7959	120.85	84.3657	120.85	84.7315	120.85	84.3074	120.85	84.6773	120.85	84.2761	120.85	84.6354	120.85	84.2717	120.85	84.6061	120.85	84.2912	120.85	84.5876	120.85	84.3287	120.85	84.5763	120.85	84.3765	120.85	84.5677	120.85	84.427	120.85	84.5568	120.85	84.4735	120.85	84.539	120.85	84.5115
125.244	84.7501	125.244	84.7288	125.244	84.7439	125.244	84.6808	125.244	84.7109	125.244	84.6079	125.244	84.6529	125.244	84.5133	125.244	84.5732	125.244	84.4016	125.244	84.4763	125.244	84.2786	125.244	84.3681	125.244	84.151	125.244	84.2557	125.244	84.0267	125.244	84.1469	125.244	83.9138	125.244	84.0494	125.244	83.8198	125.244	83.97	125.244	83.7508	125.244	83.9131	125.244	83.7102	125.244	83.8796	125.244	83.6979	125.244	83.8666	125.244	83.7103	125.244	83.8676	125.244	83.7406	125.244	83.8742	125.244	83.7801	125.244	83.8776	125.244	83.8196	125.244	83.8711	125.244	83.8515
129.639	84.1775	129.639	84.1833	129.639	84.1484	129.639	84.1661	129.639	84.0967	129.639	84.1275	129.639	84.0244	129.639	84.0702	129.639	83.9345	129.639	83.998	129.639	83.8307	129.639	83.9154	129.639	83.7178	129.639	83.8276	129.639	83.6012	129.639	83.7393	129.639	83.4869	129.639	83.6549	129.639	83.3812	129.639	83.5779	129.639	83.2904	129.639	83.5103	129.639	83.2196	129.639	83.453	129.639	83.1721	129.639	83.4056	129.639	83.1485	129.639	83.3667	129.639	83.1465	129.639	83.334	129.639	83.1612	129.639	83.3048	129.639	83.1865	129.639	83.2765	129.639	83.2165	129.639	83.2472
134.033	84.3	134.033	84.3151	134.033	84.2571	134.033	84.3032	134.033	84.1871	134.033	84.2667	134.033	84.0923	134.033	84.2093	134.033	83.9767	134.033	84.136	134.033	83.8457	134.033	84.0528	134.033	83.706	134.033	83.9665	134.033	83.5655	134.033	83.8834	134.033	83.4325	134.033	83.8089	134.033	83.3153	134.033	83.7467	134.033	83.221	134.033	83.6973	134.033	83.155	134.033	83.6587	134.033	83.1203	134.033	83.6265	134.033	83.1169	134.033	83.5952	134.033	83.1419	134.033	83.5593	134.033	83.1898	134.033	83.5147	134.033	83.2532	134.033	83.4595	134.033	83.324	134.033	83.3948
138.428	84.1105	138.428	84.0786	138.428	84.1168	138.428	84.0232	138.428	84.0965	138.428	83.948	138.428	84.0502	138.428	83.8578	138.428	83.9802	138.428	83.7587	138.428	83.8902	138.428	83.6573	138.428	83.7857	138.428	83.5606	138.428	83.6734	138.428	83.4753	138.428	83.5614	138.428	83.4069	138.428	83.4581	138.428	83.359	138.428	83.3711	138.428	83.3325	138.428	83.3065	138.428	83.3253	138.428	83.2674	138.428	83.3328	138.428	83.2536	138.428	83.3483	138.428	83.2613	138.428	83.3648	138.428	83.2839	138.428	83.3758	138.428	83.3138	138.428	83.3766	138.428	83.343	138.428	83.3653
143.555	83.9342	143.555	83.8862	143.555	83.9538	143.555	83.812	143.555	83.9449	143.555	83.7152	143.555	83.9088	143.555	83.6018	143.555	83.8485	143.555	83.4792	143.555	83.7683	143.555	83.3566	143.555	83.6737	143.555	83.2439	143.555	83.5714	143.555	83.1503	143.555	83.4687	143.555	83.0834	143.555	83.3732	143.555	83.0473	143.555	83.2921	143.555	83.0419	143.555	83.231	143.555	83.0627	143.555	83.1934	143.555	83.1018	143.555	83.1791	143.555	83.1495	143.555	83.1849	143.555	83.196	143.555	83.2041	143.555	83.233	143.555	83.2286	143.555	83.255	143.555	83.2497	143.555	83.2601
148.682	83.6736	148.682	83.6371	148.682	83.6799	148.682	83.5712	148.682	83.6573	148.682	83.4785	148.682	83.6091	148.682	83.3641	148.682	83.54	148.682	83.2352	148.682	83.4562	148.682	83.1013	148.682	83.3648	148.682	82.9734	148.682	83.2737	148.682	82.8635	148.682	83.1905	148.682	82.7823	148.682	83.122	148.682	82.7379	148.682	83.0732	148.682	82.7332	148.682	83.0467	148.682	82.7655	148.682	83.0421	148.682	82.8265	148.682	83.0561	148.682	82.904	148.682	83.0822	148.682	82.9846	148.682	83.1123	148.682	83.0564	148.682	83.1375	148.682	83.1102	148.682	83.1494	148.682	83.1414
153.809	83.598	153.809	83.5957	153.809	83.5619	153.809	83.5559	153.809	83.4888	153.809	83.4807	153.809	83.3817	153.809	83.3746	153.809	83.2459	153.809	83.2438	153.809	83.0887	153.809	83.0963	153.809	82.9197	153.809	82.9423	153.809	82.7501	153.809	82.7928	153.809	82.592	153.809	82.659	153.809	82.4572	153.809	82.5506	153.809	82.3551	153.809	82.4741	153.809	82.2912	153.809	82.4312	153.809	82.2661	153.809	82.4185	153.809	82.2751	153.809	82.428	153.809	82.3093	153.809	82.4487	153.809	82.3572	153.809	82.4691	153.809	82.4068	153.809	82.4793	153.809	82.4477	153.809	82.4728
159.668	83.5824	159.668	83.5661	159.668	83.5648	159.668	83.5179	159.668	83.5127	159.668	83.4411	159.668	83.4273	159.668	83.3405	159.668	83.3113	159.668	83.2223	159.668	83.1692	159.668	83.094	159.668	83.0077	159.668	82.9637	159.668	82.8357	159.668	82.8399	159.668	82.6638	159.668	82.7302	159.668	82.5038	159.668	82.64	159.668	82.3674	159.668	82.5721	159.668	82.264	159.668	82.5253	159.668	82.1993	159.668	82.4955	159.668	82.1736	159.668	82.4761	159.668	82.1821	159.668	82.4596	159.668	82.2162	159.668	82.4389	159.668	82.2653	159.668	82.4093	159.668	82.319	159.668	82.3688
164.795	83.2379	164.795	83.2123	164.795	83.2349	164.795	83.161	164.795	83.2027	164.795	83.0883	164.795	83.1422	164.795	83.0003	164.795	83.0567	164.795	82.9043	164.795	82.9512	164.795	82.8086	164.795	82.8326	164.795	82.7217	164.795	82.7089	164.795	82.6514	164.795	82.5895	164.795	82.6033	164.795	82.4835	164.795	82.5801	164.795	82.3995	164.795	82.5801	164.795	82.344	164.795	82.598	164.795	82.3206	164.795	82.6251	164.795	82.329	164.795	82.6519	164.795	82.3651	164.795	82.669	164.795	82.421	164.795	82.6696	164.795	82.4872	164.795	82.6498	164.795	82.5532	164.795	82.6098
170.654	82.7875	170.654	82.7345	170.654	82.8044	170.654	82.6487	170.654	82.7845	170.654	82.5362	170.654	82.7301	170.654	82.4058	170.654	82.6463	170.654	82.2692	170.654	82.5415	170.654	82.1405	170.654	82.4271	170.654	82.0343	170.654	82.317	170.654	81.9641	170.654	82.2256	170.654	81.9392	170.654	82.1656	170.654	81.9624	170.654	82.1452	170.654	82.0293	170.654	82.1661	170.654	82.1289	170.654	82.223	170.654	82.2463	170.654	82.3049	170.654	82.3657	170.654	82.3978	170.654	82.4727	170.654	82.4874	170.654	82.5561	170.654	82.5613	170.654	82.6087	170.654	82.6099	170.654	82.6267
176.514	82.6293	176.514	82.5613	176.514	82.6526	176.514	82.4497	176.514	82.6328	176.514	82.2991	176.514	82.574	176.514	82.1182	176.514	82.4825	176.514	81.9207	176.514	82.3668	176.514	81.7248	176.514	82.2379	176.514	81.5528	176.514	82.1092	176.514	81.4276	176.514	81.9955	176.514	81.3681	176.514	81.912	176.514	81.3837	176.514	81.8708	176.514	81.4708	176.514	81.8784	176.514	81.6135	176.514	81.9326	176.514	81.788	176.514	82.0228	176.514	81.9687	176.514	82.1316	176.514	82.1331	176.514	82.2393	176.514	82.2645	176.514	82.3274	176.514	82.3521	176.514	82.3812	176.514	82.391
183.105	82.7627	183.105	82.7142	183.105	82.7554	183.105	82.6104	183.105	82.6941	183.105	82.4542	183.105	82.5831	183.105	82.2516	183.105	82.4291	183.105	82.0126	183.105	82.2421	183.105	81.7522	183.105	82.0355	183.105	81.4913	183.105	81.8267	183.105	81.2557	183.105	81.6359	183.105	81.0735	183.105	81.4841	183.105	80.9694	183.105	81.3892	183.105	80.9569	183.105	81.3611	183.105	81.0329	183.105	81.3982	183.105	81.1776	183.105	81.487	183.105	81.3604	183.105	81.605	183.105	81.5476	183.105	81.7261	183.105	81.7102	183.105	81.8254	183.105	81.8267	183.105	81.8829	183.105	81.8852
189.697	82.7715	189.697	82.7403	189.697	82.7502	189.697	82.6573	189.697	82.6769	189.697	82.525	189.697	82.5541	189.697	82.3478	189.697	82.3863	189.697	82.1328	189.697	82.1808	189.697	81.8907	189.697	81.9488	189.697	81.6368	189.697	81.7054	189.697	81.391	189.697	81.4702	189.697	81.1771	189.697	81.2656	189.697	81.0185	189.697	81.1136	189.697	80.9332	189.697	81.0301	189.697	80.927	189.697	81.0201	189.697	80.9908	189.697	81.0744	189.697	81.1024	189.697	81.1723	189.697	81.2325	189.697	81.286	189.697	81.352	189.697	81.3879	189.697	81.4372	189.697	81.4552	189.697	81.4733
196.289	82.7663	196.289	82.7193	196.289	82.7628	196.289	82.6244	196.289	82.7078	196.289	82.4861	196.289	82.6019	196.289	82.311	196.289	82.4479	196.289	82.108	196.289	82.2513	196.289	81.8888	196.289	82.0211	196.289	81.6682	196.289	81.7708	196.289	81.4633	196.289	81.519	196.289	81.2921	196.289	81.2887	196.289	81.1705	196.289	81.1044	196.289	81.1083	196.289	80.9868	196.289	81.1061	196.289	80.9466	196.289	81.154	196.289	80.9796	196.289	81.2337	196.289	81.0677	196.289	81.3222	196.289	81.1836	196.289	81.3969	196.289	81.2986	196.289	81.4392	196.289	81.3885	196.289	81.4374
202.881	82.5829	202.881	82.5141	202.881	82.5948	202.881	82.3908	202.881	82.5497	202.881	82.2179	202.881	82.4495	202.881	82.0032	202.881	82.2983	202.881	81.7586	202.881	82.1029	202.881	81.5002	202.881	81.8734	202.881	81.248	202.881	81.6239	202.881	81.0254	202.881	81.3728	202.881	80.855	202.881	81.1424	202.881	80.7541	202.881	80.9562	202.881	80.7291	202.881	80.8341	202.881	80.7734	202.881	80.7866	202.881	80.868	202.881	80.8108	202.881	80.9872	202.881	80.8902	202.881	81.1043	202.881	80.9994	202.881	81.1961	202.881	81.1104	202.881	81.2465	202.881	81.1989	202.881	81.2473
210.205	82.4475	210.205	82.3797	210.205	82.4567	210.205	82.2545	210.205	82.4076	210.205	82.0749	210.205	82.3025	210.205	81.8468	210.205	82.1451	210.205	81.5798	210.205	81.942	210.205	81.2885	210.205	81.7032	210.205	80.9934	210.205	81.4431	210.205	80.721	210.205	81.1813	210.205	80.5006	210.205	80.9415	210.205	80.3588	210.205	80.7492	210.205	80.3104	210.205	80.6253	210.205	80.3531	210.205	80.5804	210.205	80.4661	210.205	80.6093	210.205	80.6173	210.205	80.6927	210.205	80.7723	210.205	80.8021	210.205	80.9016	210.205	80.9075	210.205	80.985	210.205	80.9836	210.205	81.0124
217.529	82.2995	217.529	82.2248	217.529	82.318	217.529	82.0957	217.529	82.2804	217.529	81.9156	217.529	82.1881	217.529	81.6905	217.529	82.0443	217.529	81.4299	217.529	81.854	217.529	81.1475	217.529	81.6257	217.529	80.8621	217.529	81.3718	217.529	80.5969	217.529	81.1093	217.529	80.3773	217.529	80.8603	217.529	80.226	217.529	80.6491	217.529	80.1564	217.529	80.4979	217.529	80.1683	217.529	80.42	217.529	80.2466	217.529	80.4146	217.529	80.3656	217.529	80.4662	217.529	80.4955	217.529	80.5489	217.529	80.6091	217.529	80.6336	217.529	80.6861	217.529	80.6949	217.529	80.7152
225.586	82.1004	225.586	82.0308	225.586	82.1093	225.586	81.8996	225.586	82.0597	225.586	81.7085	225.586	81.955	225.586	81.4622	225.586	81.8005	225.586	81.1705	225.586	81.6031	225.586	80.85	225.586	81.3733	225.586	80.5255	225.586	81.126	225.586	80.2297	225.586	80.8816	225.586	79.9984	225.586	80.6645	225.586	79.8616	225.586	80.4997	225.586	79.833	225.586	80.4059	225.586	79.9047	225.586	80.3884	225.586	80.0497	225.586	80.4365	225.586	80.2323	225.586	80.5262	225.586	80.4175	225.586	80.6276	225.586	80.5776	225.586	80.7126	225.586	80.6935	225.586	80.7595	225.586	80.7549
232.91	82.1399	232.91	82.0888	232.91	82.1273	232.91	81.9748	232.91	82.0518	232.91	81.8006	232.91	81.9165	232.91	81.5716	232.91	81.7259	232.91	81.2966	232.91	81.4868	232.91	80.9896	232.91	81.209	232.91	80.6719	232.91	80.9068	232.91	80.3733	232.91	80.6012	232.91	80.1301	232.91	80.321	232.91	79.9777	232.91	80.1004	232.91	79.9374	232.91	79.9706	232.91	80.0065	232.91	79.9486	232.91	80.1567	232.91	80.0275	232.91	80.3447	232.91	80.1784	232.91	80.5261	232.91	80.3609	232.91	80.6655	232.91	80.5349	232.91	80.7404	232.91	80.6688	232.91	80.741
241.699	82.0047	241.699	81.9274	241.699	82.0164	241.699	81.7853	241.699	81.9634	241.699	81.5811	241.699	81.8485	241.699	81.3201	241.699	81.6771	241.699	81.0108	241.699	81.4568	241.699	80.6674	241.699	81.198	241.699	80.3117	241.699	80.9141	241.699	79.9742	241.699	80.6226	241.699	79.692	241.699	80.3454	241.699	79.5019	241.699	80.1085	241.699	79.4287	241.699	79.9385	241.699	79.4741	241.699	79.8549	241.699	79.6143	241.699	79.862	241.699	79.8081	241.699	79.944	241.699	80.0097	241.699	80.0685	241.699	80.1795	241.699	80.1965	241.699	80.29	241.699	80.2916	241.699	80.3273
249.756	81.9627	249.756	81.9084	249.756	81.9408	249.756	81.7791	249.756	81.8431	249.756	81.5777	249.756	81.6724	249.756	81.3086	249.756	81.4351	249.756	80.9801	249.756	81.1419	249.756	80.6064	249.756	80.8093	249.756	80.2118	249.756	80.4599	249.756	79.8326	249.756	80.1228	249.756	79.5162	249.756	79.8316	249.756	79.3101	249.756	79.6199	249.756	79.2455	249.756	79.5131	249.756	79.3208	249.756	79.5192	249.756	79.5016	249.756	79.6242	249.756	79.7349	249.756	79.7946	249.756	79.9676	249.756	79.9869	249.756	80.1585	249.756	80.1588	249.756	80.2807	249.756	80.2771	249.756	80.3209
258.545	82.2899	258.545	82.2111	258.545	82.3006	258.545	82.0682	258.545	82.2395	258.545	81.8656	258.545	82.1044	258.545	81.6082	258.545	81.8955	258.545	81.3025	258.545	81.6168	258.545	80.9579	258.545	81.2784	258.545	80.5889	258.545	80.8981	258.545	80.218	258.545	80.5034	258.545	79.8767	258.545	80.1321	258.545	79.6034	258.545	79.8278	258.545	79.4348	258.545	79.6301	258.545	79.3915	258.545	79.5602	258.545	79.4669	258.545	79.6095	258.545	79.6267	258.545	79.7426	258.545	79.8217	258.545	79.9097	258.545	80.003	258.545	80.0622	258.545	80.133	258.545	80.1627	258.545	80.1887
268.066	81.813	268.066	81.707	268.066	81.8422	268.066	81.5282	268.066	81.7918	268.066	81.2826	268.066	81.6606	268.066	80.9791	268.066	81.4502	268.066	80.6311	268.066	81.1656	268.066	80.258	268.066	80.8183	268.066	79.8866	268.066	80.4283	268.066	79.5502	268.066	80.027	268.066	79.2849	268.066	79.6586	268.066	79.1221	268.066	79.3748	268.066	79.0803	268.066	79.2216	268.066	79.1574	268.066	79.2198	268.066	79.3302	268.066	79.3521	268.066	79.5591	268.066	79.569	268.066	79.7983	268.066	79.8088	268.066	80.0048	268.066	80.0162	268.066	80.145	268.066	80.1527	268.066	80.1973
277.588	81.9538	277.588	81.8821	277.588	81.9556	277.588	81.7305	277.588	81.8961	277.588	81.4902	277.588	81.7801	277.588	81.1575	277.588	81.6086	277.588	80.7374	277.588	81.3799	277.588	80.2483	277.588	81.0932	277.588	79.7263	277.588	80.7533	277.588	79.2279	277.588	80.3755	277.588	78.8218	277.588	79.9897	277.588	78.5686	277.588	79.6414	277.588	78.4933	277.588	79.3836	277.588	78.5757	277.588	79.2571	277.588	78.7657	277.588	79.2682	277.588	79.0078	277.588	79.3812	277.588	79.256	277.588	79.5351	277.588	79.4759	277.588	79.6697	277.588	79.6417	277.588	79.7428	277.588	79.7341
287.109	82.1798	287.109	82.1679	287.109	82.106	287.109	82.0668	287.109	81.9532	287.109	81.8746	287.109	81.7311	287.109	81.5915	287.109	81.4515	287.109	81.22	287.109	81.1269	287.109	80.7696	287.109	80.769	287.109	80.2635	287.109	80.3893	287.109	79.7468	287.109	80.0025	287.109	79.2886	287.109	79.6306	287.109	78.9682	287.109	79.3063	287.109	78.8396	287.109	79.0696	287.109	78.8997	287.109	78.9548	287.109	79.0901	287.109	78.9734	287.109	79.3321	287.109	79.1046	287.109	79.5585	287.109	79.3025	287.109	79.7245	287.109	79.5128	287.109	79.8051	287.109	79.6873	287.109	79.7912
297.363	82.2583	297.363	82.1701	297.363	82.2445	297.363	81.9927	297.363	82.12	297.363	81.7398	297.363	81.883	297.363	81.4226	297.363	81.5403	297.363	81.0482	297.363	81.1076	297.363	80.6207	297.363	80.6096	297.363	80.1472	297.363	80.0795	297.363	79.648	297.363	79.5587	297.363	79.1683	297.363	79.096	297.363	78.7827	297.363	78.7434	297.363	78.5758	297.363	78.5459	297.363	78.5942	297.363	78.5259	297.363	78.8086	297.363	78.6698	297.363	79.1278	297.363	78.9292	297.363	79.4501	297.363	79.2362	297.363	79.7008	297.363	79.5241	297.363	79.8394	297.363	79.7406	297.363	79.8516
307.617	82.2245	307.617	82.1099	307.617	82.2613	307.617	81.9186	307.617	82.216	307.617	81.6503	307.617	82.0817	307.617	81.3062	307.617	81.8509	307.617	80.8933	307.617	81.5187	307.617	80.4281	307.617	81.087	307.617	79.9409	307.617	80.5682	307.617	79.4785	307.617	79.9919	307.617	79.1008	307.617	79.4117	307.617	78.8677	307.617	78.9079	307.617	78.8151	307.617	78.5751	307.617	78.9358	307.617	78.4827	307.617	79.181	307.617	78.6319	307.617	79.4807	307.617	78.9502	307.617	79.7664	307.617	79.3322	307.617	79.9844	307.617	79.6852	307.617	80.0985	307.617	79.9476	307.617	80.0885
318.604	82.0205	318.604	81.9441	318.604	82.0185	318.604	81.7873	318.604	81.9385	318.604	81.5467	318.604	81.7801	318.604	81.2176	318.604	81.5429	318.604	80.7961	318.604	81.2277	318.604	80.2836	318.604	80.8384	318.604	79.6947	318.604	80.3858	318.604	79.0692	318.604	79.8916	318.604	78.4833	318.604	79.3945	318.604	78.0471	318.604	78.9526	318.604	77.8649	318.604	78.6376	318.604	77.9699	318.604	78.5117	318.604	78.2968	318.604	78.5935	318.604	78.7271	318.604	78.8394	318.604	79.1504	318.604	79.1626	318.604	79.4911	318.604	79.4692	318.604	79.7051	318.604	79.6867	318.604	79.7712
329.59	82.1256	329.59	82.0524	329.59	82.1131	329.59	81.8924	329.59	82.0153	329.59	81.6443	329.59	81.8317	329.59	81.3074	329.59	81.5611	329.59	80.8828	329.59	81.2025	329.59	80.3757	329.59	80.7572	329.59	79.8012	329.59	80.2335	329.59	79.1926	329.59	79.6538	329.59	78.6129	329.59	79.0636	329.59	78.158	329.59	78.5377	329.59	77.9313	329.59	78.1693	329.59	77.9848	329.59	78.0329	329.59	78.2736	329.59	78.1388	329.59	78.6805	329.59	78.424	329.59	79.0814	329.59	78.7894	329.59	79.3876	329.59	79.142	329.59	79.5517	329.59	79.4131	329.59	79.5579
341.309	81.9194	341.309	81.8632	341.309	81.885	341.309	81.7128	341.309	81.7641	341.309	81.4646	341.309	81.5618	341.309	81.1155	341.309	81.2832	341.309	80.6636	341.309	80.9335	341.309	80.1121	341.309	80.5175	341.309	79.4775	341.309	80.0419	341.309	78.8019	341.309	79.5217	341.309	78.1665	341.309	78.9908	341.309	77.6901	341.309	78.5135	341.309	77.4892	341.309	78.1807	341.309	77.6056	341.309	78.0746	341.309	77.9712	341.309	78.2127	341.309	78.453	341.309	78.5272	341.309	78.9238	341.309	78.9067	341.309	79.2962	341.309	79.2501	341.309	79.5231	341.309	79.4897	341.309	79.5868
353.76	82.1635	353.76	82.0854	353.76	82.1494	353.76	81.918	353.76	82.0377	353.76	81.6613	353.76	81.8219	353.76	81.3105	353.76	81.4959	353.76	80.8577	353.76	81.055	353.76	80.294	353.76	80.4983	353.76	79.6185	353.76	79.8318	353.76	78.8522	353.76	79.0752	353.76	78.0608	353.76	78.2731	353.76	77.3746	353.76	77.5133	353.76	76.9665	353.76	76.9361	353.76	76.9517	353.76	76.6956	353.76	77.2857	353.76	76.854	353.76	77.7995	353.76	77.3152	353.76	78.319	353.76	77.8936	353.76	78.727	353.76	78.4241	353.76	78.96	353.76	78.805	353.76	78.9885
366.211	82.1819	366.211	82.0752	366.211	82.2007	366.211	81.8844	366.211	82.1288	366.211	81.6128	366.211	81.963	366.211	81.2616	366.211	81.6992	366.211	80.827	366.211	81.3312	366.211	80.2991	366.211	80.8515	366.211	79.6667	366.211	80.2548	366.211	78.9316	366.211	79.545	366.211	78.1348	366.211	78.7466	366.211	77.3882	366.211	77.9232	366.211	76.875	366.211	77.1954	366.211	76.7534	366.211	76.7277	366.211	77.0148	366.211	76.646	366.211	77.4866	366.211	76.9289	366.211	77.9739	366.211	77.4163	366.211	78.3474	366.211	77.9228	366.211	78.5423	366.211	78.3177	366.211	78.5327
378.662	82.3808	378.662	82.2912	378.662	82.3925	378.662	82.1185	378.662	82.3285	378.662	81.855	378.662	82.188	378.662	81.4932	378.662	81.9675	378.662	81.0287	378.662	81.6609	378.662	80.4638	378.662	81.2609	378.662	79.8114	378.662	80.7617	378.662	79.0998	378.662	80.1666	378.662	78.3819	378.662	79.5003	378.662	77.7463	378.662	78.8232	378.662	77.3147	378.662	78.236	378.662	77.1937	378.662	77.8543	378.662	77.3934	378.662	77.748	378.662	77.8029	378.662	77.8921	378.662	78.2617	378.662	78.1854	378.662	78.6387	378.662	78.51	378.662	78.8597	378.662	78.7703	378.662	78.8999
392.578	81.9678	392.578	81.9332	392.578	81.9355	392.578	81.829	392.578	81.8347	392.578	81.6479	392.578	81.6607	392.578	81.3777	392.578	81.4065	392.578	81.0033	392.578	81.0643	392.578	80.5111	392.578	80.6268	392.578	79.8959	392.578	80.0882	392.578	79.1745	392.578	79.4497	392.578	78.4041	392.578	78.7314	392.578	77.7001	392.578	77.9967	392.578	77.2242	392.578	77.3761	392.578	77.1039	392.578	77.0465	392.578	77.3306	392.578	77.1163	392.578	77.7649	392.578	77.5141	392.578	78.2411	392.578	78.0426	392.578	78.6398	392.578	78.52	392.578	78.8934	392.578	78.8411	392.578	78.9664
405.762	81.5397	405.762	81.4686	405.762	81.5136	405.762	81.3033	405.762	81.3899	405.762	81.046	405.762	81.1709	405.762	80.695	405.762	80.8606	405.762	80.2417	405.762	80.4634	405.762	79.6726	405.762	79.983	405.762	78.9794	405.762	79.4231	405.762	78.1823	405.762	78.7918	405.762	77.3641	405.762	78.1145	405.762	76.6993	405.762	77.4566	405.762	76.4078	405.762	76.9449	405.762	76.5933	405.762	76.7421	405.762	77.1371	405.762	76.9359	405.762	77.8126	405.762	77.4433	405.762	78.4371	405.762	78.0697	405.762	78.9082	405.762	78.6369	405.762	79.1769	405.762	79.0371	405.762	79.2217
420.41	82.3479	420.41	82.245	420.41	82.3507	420.41	82.0437	420.41	82.2529	420.41	81.7475	420.41	82.0527	420.41	81.3602	420.41	81.7447	420.41	80.8811	420.41	81.32	420.41	80.2987	420.41	80.768	420.41	79.5871	420.41	80.0805	420.41	78.7148	420.41	79.2567	420.41	77.6759	420.41	78.3134	420.41	76.5623	420.41	77.3054	420.41	75.6634	420.41	76.3655	420.41	75.4021	420.41	75.7283	420.41	75.89	420.41	75.626	420.41	76.7505	420.41	76.0579	420.41	77.5678	420.41	76.7698	420.41	78.1357	420.41	77.4861	420.41	78.3974	420.41	78.041	420.41	78.3575
435.059	82.3789	435.059	82.3147	435.059	82.3705	435.059	82.1742	435.059	82.2916	435.059	81.9501	435.059	82.142	435.059	81.6309	435.059	81.9183	435.059	81.203	435.059	81.609	435.059	80.6534	435.059	81.1927	435.059	79.9757	435.059	80.6413	435.059	79.179	435.059	79.9326	435.059	78.3061	435.059	79.0737	435.059	77.4641	435.059	78.137	435.059	76.8441	435.059	77.298	435.059	76.6529	435.059	76.8109	435.059	76.9409	435.059	76.8407	435.059	77.5373	435.059	77.2982	435.059	78.1982	435.059	77.934	435.059	78.7426	435.059	78.5293	435.059	79.0717	435.059	78.9542	435.059	79.1437
450.439	83.1078	450.439	83.0588	450.439	83.0772	450.439	82.9268	450.439	82.9674	450.439	82.7044	450.439	82.7775	450.439	82.377	450.439	82.5056	450.439	81.921	450.439	82.1476	450.439	81.3032	450.439	81.6951	450.439	80.4853	450.439	81.1317	450.439	79.4345	450.439	80.4328	450.439	78.1561	450.439	79.5756	450.439	76.7798	450.439	78.5687	450.439	75.7071	450.439	77.5151	450.439	75.5154	450.439	76.6895	450.439	76.2566	450.439	76.4573	450.439	77.3512	450.439	76.9006	450.439	78.318	450.439	77.6919	450.439	78.9777	450.439	78.465	450.439	79.3041	450.439	79.0278	450.439	79.3147
466.553	83.0331	466.553	82.9689	466.553	83.0207	466.553	82.8318	466.553	82.93	466.553	82.6257	466.553	82.759	466.553	82.3506	466.553	82.5023	466.553	81.997	466.553	82.1476	466.553	81.5442	466.553	81.6763	466.553	80.9641	466.553	81.0661	466.553	80.2305	466.553	80.2995	466.553	79.3366	466.553	79.3775	466.553	78.3243	466.553	78.3467	466.553	77.3329	466.553	77.3439	466.553	76.6357	466.553	76.6302	466.553	76.5259	466.553	76.4877	466.553	77.0175	466.553	76.9424	466.553	77.7991	466.553	77.7072	466.553	78.5317	466.553	78.4515	466.553	79.0157	466.553	78.9697	466.553	79.1676
482.666	83.0364	482.666	82.9465	482.666	83.0421	482.666	82.7834	482.666	82.9539	482.666	82.5541	482.666	82.7664	482.666	82.2546	482.666	82.4792	482.666	81.8635	482.666	82.0941	482.666	81.338	482.666	81.6075	482.666	80.6162	482.666	81.0025	482.666	79.629	482.666	80.2443	482.666	78.3327	482.666	79.2896	482.666	76.8022	482.666	78.1217	482.666	75.4401	482.666	76.837	482.666	75.0142	482.666	75.7918	482.666	75.7479	482.666	75.553	482.666	76.9422	482.666	76.2488	482.666	78.013	482.666	77.343	482.666	78.7715	482.666	78.3254	482.666	79.1908	482.666	78.9817	482.666	79.2662
500.244	82.7935	500.244	82.7345	500.244	82.7823	500.244	82.6016	500.244	82.7047	500.244	82.395	500.244	82.5601	500.244	82.1173	500.244	82.3397	500.244	81.7668	500.244	82.028	500.244	81.33	500.244	81.6054	500.244	80.7784	500.244	81.0508	500.244	80.0707	500.244	80.3427	500.244	79.1634	500.244	79.4612	500.244	78.0416	500.244	78.4048	500.244	76.799	500.244	77.2399	500.244	75.7784	500.244	76.1961	500.244	75.5275	500.244	75.6849	500.244	76.1741	500.244	75.9575	500.244	77.1873	500.244	76.754	500.244	78.0503	500.244	77.6256	500.244	78.5411	500.244	78.2879	500.244	78.6128
517.822	82.6649	517.822	82.5826	517.822	82.6688	517.822	82.4216	517.822	82.6017	517.822	82.1866	517.822	82.4748	517.822	81.8826	517.822	82.2965	517.822	81.5066	517.822	82.063	517.822	81.0391	517.822	81.753	517.822	80.4422	517.822	81.3284	517.822	79.6714	517.822	80.7405	517.822	78.7057	517.822	79.9416	517.822	77.6051	517.822	78.9067	517.822	76.5962	517.822	77.691	517.822	76.0784	517.822	76.5469	517.822	76.3048	517.822	75.977	517.822	77.0514	517.822	76.3018	517.822	77.8962	517.822	77.1808	517.822	78.5656	517.822	78.0779	517.822	78.9471	517.822	78.7109	517.822	79.0013
536.133	82.3378	536.133	82.2809	536.133	82.2735	536.133	82.1158	536.133	82.0892	536.133	81.8624	536.133	81.8019	536.133	81.535	536.133	81.4369	536.133	81.1292	536.133	81.0153	536.133	80.6155	536.133	80.5388	536.133	79.9403	536.133	79.9814	536.133	79.0362	536.133	79.296	536.133	77.8475	536.133	78.4376	536.133	76.4014	536.133	77.4057	536.133	74.9888	536.133	76.3249	536.133	74.3394	536.133	75.5513	536.133	74.9669	536.133	75.556	536.133	76.3251	536.133	76.375	536.133	77.6808	536.133	77.5226	536.133	78.7119	536.133	78.5475	536.133	79.3259	536.133	79.2326	536.133	79.4996
554.443	82.9242	554.443	82.7776	554.443	82.9621	554.443	82.5366	554.443	82.8875	554.443	82.222	554.443	82.7073	554.443	81.8522	554.443	82.4338	554.443	81.4308	554.443	82.0729	554.443	80.9322	554.443	81.6111	554.443	80.2916	554.443	81.0045	554.443	79.4087	554.443	80.1785	554.443	78.1649	554.443	79.0331	554.443	76.4679	554.443	77.4515	554.443	74.4243	554.443	75.3407	554.443	72.869	554.443	72.9051	554.443	73.207	554.443	71.6051	554.443	74.9033	554.443	72.9762	554.443	76.5694	554.443	75.2306	554.443	77.7401	554.443	76.9843	554.443	78.3742	554.443	78.0457	554.443	78.4847
574.219	83.019	574.219	82.9844	574.219	82.9813	574.219	82.8684	574.219	82.881	574.219	82.6662	574.219	82.7242	574.219	82.3779	574.219	82.51	574.219	82.002	574.219	82.229	574.219	81.5231	574.219	81.8613	574.219	80.8995	574.219	81.3753	574.219	80.0595	574.219	80.7261	574.219	78.9045	574.219	79.8534	574.219	77.3241	574.219	78.6889	574.219	75.263	574.219	77.192	574.219	73.0649	574.219	75.4665	574.219	72.2325	574.219	74.0141	574.219	73.6441	574.219	73.7007	574.219	75.5811	574.219	74.6173	574.219	76.9636	574.219	75.923	574.219	77.6219	574.219	77.0016	574.219	77.6062
594.727	82.4839	594.727	82.3712	594.727	82.4894	594.727	82.1747	594.727	82.3816	594.727	81.9268	594.727	82.1796	594.727	81.658	594.727	81.9259	594.727	81.3836	594.727	81.6654	594.727	81.0891	594.727	81.4067	594.727	80.7193	594.727	81.0979	594.727	80.1805	594.727	80.6416	594.727	79.359	594.727	79.9314	594.727	78.1594	594.727	78.8755	594.727	76.5873	594.727	77.4212	594.727	74.9534	594.727	75.6613	594.727	74.1029	594.727	74.1722	594.727	74.655	594.727	74.0497	594.727	75.9504	594.727	75.2642	594.727	77.1439	594.727	76.6726	594.727	77.8811	594.727	77.6536	594.727	78.0601
615.234	82.937	615.234	82.8254	615.234	82.9219	615.234	82.5981	615.234	82.7835	615.234	82.2786	615.234	82.5371	615.234	81.8943	615.234	82.2047	615.234	81.4608	615.234	81.8078	615.234	80.9603	615.234	81.3553	615.234	80.3292	615.234	80.828	615.234	79.465	615.234	80.1679	615.234	78.2503	615.234	79.2815	615.234	76.5892	615.234	78.0647	615.234	74.5145	615.234	76.4636	615.234	72.5992	615.234	74.65	615.234	72.3333	615.234	73.389	615.234	73.9098	615.234	73.6846	615.234	75.7825	615.234	75.1113	615.234	77.1781	615.234	76.5905	615.234	77.9509	615.234	77.6306	615.234	78.0965
637.207	83.0565	637.207	82.9266	637.207	83.0667	637.207	82.71	637.207	82.9511	637.207	82.4555	637.207	82.7311	637.207	82.2048	637.207	82.4511	637.207	81.9647	637.207	82.1618	637.207	81.6949	637.207	81.8908	637.207	81.3177	637.207	81.6097	637.207	80.7291	637.207	81.2267	637.207	79.796	637.207	80.6109	637.207	78.3468	637.207	79.6208	637.207	76.1906	637.207	78.1222	637.207	73.3551	637.207	76.0503	637.207	71.3805	637.207	73.7908	637.207	72.7106	637.207	72.9906	637.207	75.0874	637.207	74.408	637.207	76.7917	637.207	76.2011	637.207	77.698	637.207	77.4007	637.207	77.892
659.912	83.318	659.912	83.1771	659.912	83.299	659.912	82.8777	659.912	83.1432	659.912	82.4602	659.912	82.8825	659.912	82.0038	659.912	82.5505	659.912	81.5972	659.912	82.1802	659.912	81.2786	659.912	81.7967	659.912	80.9843	659.912	81.3976	659.912	80.5588	659.912	80.9298	659.912	79.8135	659.912	80.2817	659.912	78.583	659.912	79.2991	659.912	76.7734	659.912	77.8213	659.912	74.5276	659.912	75.7699	659.912	72.7936	659.912	73.5266	659.912	73.1307	659.912	72.7051	659.912	74.8703	659.912	74.1115	659.912	76.4896	659.912	75.9573	659.912	77.4718	659.912	77.2181	659.912	77.7221
683.35	83.4098	683.35	83.2527	683.35	83.3934	683.35	82.9453	683.35	83.1929	683.35	82.5216	683.35	82.8241	683.35	82.036	683.35	82.3423	683.35	81.5655	683.35	81.839	683.35	81.1701	683.35	81.4012	683.35	80.8287	683.35	81.0428	683.35	80.4198	683.35	80.6745	683.35	79.7675	683.35	80.1458	683.35	78.6873	683.35	79.3017	683.35	77.0125	683.35	78.0042	683.35	74.7482	683.35	76.1699	683.35	72.8838	683.35	74.0572	683.35	73.5322	683.35	73.0736	683.35	75.6364	683.35	74.3717	683.35	77.3192	683.35	76.3128	683.35	78.2056	683.35	77.6971	683.35	78.3247
706.787	83.8645	706.787	83.688	706.787	83.8607	706.787	83.3592	706.787	83.6673	706.787	82.9237	706.787	83.2996	706.787	82.4478	706.787	82.8078	706.787	82.0076	706.787	82.2772	706.787	81.6495	706.787	81.8051	706.787	81.34	706.787	81.4472	706.787	80.9487	706.787	81.1576	706.787	80.2743	706.787	80.7702	706.787	79.0783	706.787	80.034	706.787	77.1052	706.787	78.6662	706.787	74.1832	706.787	76.4197	706.787	71.2865	706.787	73.4665	706.787	72.1302	706.787	72.0344	706.787	75.0309	706.787	73.9	706.787	77.1494	706.787	76.1822	706.787	78.2256	706.787	77.6943	706.787	78.3791
731.689	84.3081	731.689	84.1063	731.689	84.2586	731.689	83.6779	731.689	83.976	731.689	83.0983	731.689	83.5056	731.689	82.4809	731.689	82.912	731.689	81.9344	731.689	82.2861	731.689	81.5048	731.689	81.7404	731.689	81.1465	731.689	81.346	731.689	80.7355	731.689	81.0498	731.689	80.0944	731.689	80.6829	731.689	79.0172	731.689	80.0352	731.689	77.2943	731.689	78.8761	731.689	74.7897	731.689	76.9186	731.689	72.0589	731.689	73.9082	731.689	71.7953	731.689	71.1116	731.689	74.1512	731.689	72.6589	731.689	76.3262	731.689	75.5322	731.689	77.5865	731.689	77.2762	731.689	77.9107
758.057	84.6511	758.057	84.5147	758.057	84.577	758.057	84.1432	758.057	84.3165	758.057	83.5444	758.057	83.8818	758.057	82.8054	758.057	83.2893	758.057	82.1211	758.057	82.605	758.057	81.7091	758.057	81.9759	758.057	81.5985	758.057	81.5531	758.057	81.5563	758.057	81.3235	758.057	81.2548	758.057	81.0784	758.057	80.4003	758.057	80.5563	758.057	78.72	758.057	79.5173	758.057	75.953	758.057	77.6971	758.057	72.5021	758.057	74.8361	758.057	72.085	758.057	71.8724	758.057	74.8302	758.057	73.0159	758.057	77.0292	758.057	75.9809	758.057	78.2239	758.057	77.8344	758.057	78.5127
784.424	85.2722	784.424	85.0872	784.424	85.2154	784.424	84.6642	784.424	84.9207	784.424	84.0232	784.424	84.4052	784.424	83.2248	784.424	83.7069	784.424	82.3964	784.424	82.893	784.424	81.7336	784.424	82.0782	784.424	81.4031	784.424	81.4421	784.424	81.3416	784.424	81.1312	784.424	81.2101	784.424	81.039	784.424	80.599	784.424	80.8051	784.424	79.191	784.424	80.0681	784.424	76.7899	784.424	78.5864	784.424	73.5443	784.424	76.1835	784.424	71.6428	784.424	72.9974	784.424	73.744	784.424	71.8542	784.424	76.4873	784.424	74.7141	784.424	78.1268	784.424	77.3002	784.424	78.428
812.256	85.506	812.256	85.2839	812.256	85.4805	812.256	84.8354	812.256	85.1895	812.256	84.1702	812.256	84.6486	812.256	83.3227	812.256	83.9219	812.256	82.4293	812.256	83.1109	812.256	81.7295	812.256	82.3304	812.256	81.3609	812.256	81.6832	812.256	81.1752	812.256	81.2132	812.256	80.8806	812.256	80.8432	812.256	80.2214	812.256	80.3666	812.256	78.9495	812.256	79.495	812.256	76.7354	812.256	77.895	812.256	73.4399	812.256	75.2796	812.256	71.8308	812.256	72.3697	812.256	74.5907	812.256	72.9008	812.256	77.0815	812.256	75.6454	812.256	78.2659	812.256	77.5568	812.256	78.3917
840.82	86.0539	840.82	85.848	840.82	85.9936	840.82	85.3489	840.82	85.6872	840.82	84.5543	840.82	85.1275	840.82	83.5189	840.82	84.2939	840.82	82.3933	840.82	83.2125	840.82	81.4612	840.82	82.0534	840.82	81.0259	840.82	81.1715	840.82	81.0644	840.82	80.8433	840.82	81.1612	840.82	80.8744	840.82	80.8486	840.82	80.7863	840.82	79.7627	840.82	80.192	840.82	77.5748	840.82	78.8031	840.82	74.1064	840.82	76.3047	840.82	71.4821	840.82	72.8006	840.82	73.705	840.82	72.2295	840.82	76.4967	840.82	75.4558	840.82	78.112	840.82	77.7402	840.82	78.554
870.85	85.9418	870.85	85.6977	870.85	85.9431	870.85	85.2196	870.85	85.6587	870.85	84.4826	870.85	85.0502	870.85	83.4639	870.85	84.1358	870.85	82.2026	870.85	83.0203	870.85	80.8903	870.85	81.876	870.85	79.9324	870.85	80.8857	870.85	79.6804	870.85	80.2066	870.85	79.9156	870.85	79.9106	870.85	80.0128	870.85	79.8154	870.85	79.4337	870.85	79.4805	870.85	77.813	870.85	78.4627	870.85	75.0198	870.85	76.481	870.85	72.6493	870.85	73.7196	870.85	74.2739	870.85	72.4845	870.85	76.8235	870.85	74.6222	870.85	78.1569	870.85	76.9625	870.85	78.183
901.611	86.4103	901.611	86.2021	901.611	86.353	901.611	85.7455	901.611	86.0308	901.611	85.043	901.611	85.4586	901.611	84.0757	901.611	84.6302	901.611	82.8609	901.611	83.5295	901.611	81.5592	901.611	82.238	901.611	80.5476	901.611	81.0588	901.611	80.1457	901.611	80.3646	901.611	80.1023	901.611	80.1107	901.611	79.8128	901.611	79.8471	901.611	78.7942	901.611	79.1607	901.611	76.6717	901.611	77.7645	901.611	73.0626	901.611	75.3791	901.611	69.6413	901.611	72.103	901.611	72.6891	901.611	71.6545	901.611	76.4077	901.611	75.2096	901.611	78.4482	901.611	77.8897	901.611	78.939
933.105	86.0044	933.105	85.8091	933.105	85.9422	933.105	85.3688	933.105	85.6185	933.105	84.7009	933.105	85.0304	933.105	83.8059	933.105	84.1697	933.105	82.6686	933.105	83.0356	933.105	81.3575	933.105	81.6997	933.105	80.2	933.105	80.4115	933.105	79.6877	933.105	79.568	933.105	79.8257	933.105	79.329	933.105	79.975	933.105	79.3522	933.105	79.4517	933.105	79.0947	933.105	77.7141	933.105	78.0612	933.105	74.1645	933.105	75.7488	933.105	69.3081	933.105	71.7845	933.105	71.4471	933.105	70.1001	933.105	75.285	933.105	73.9709	933.105	77.231	933.105	76.6951	933.105	77.6863
966.064	85.44	966.064	85.3336	966.064	85.2803	966.064	84.9292	966.064	84.8918	966.064	84.2348	966.064	84.2766	966.064	83.2919	966.064	83.3973	966.064	82.1443	966.064	82.2154	966.064	80.8521	966.064	80.7609	966.064	79.6163	966.064	79.2557	966.064	78.8407	966.064	78.2212	966.064	78.6814	966.064	78.0395	966.064	78.6796	966.064	78.2421	966.064	78.2524	966.064	78.0391	966.064	76.9251	966.064	76.8885	966.064	74.059	966.064	74.2783	966.064	69.2854	966.064	69.5799	966.064	70.424	966.064	67.7581	966.064	74.8603	966.064	72.6571	966.064	76.9353	966.064	75.8002	966.064	77.153
999.756	84.1667	999.756	83.954	999.756	84.1073	999.756	83.5289	999.756	83.7335	999.756	82.8996	999.756	83.0582	999.756	82.0011	999.756	82.1032	999.756	80.7582	999.756	80.832	999.756	79.2397	999.756	79.1945	999.756	77.8594	999.756	77.3365	999.756	77.2348	999.756	75.8972	999.756	77.3886	999.756	75.7123	999.756	77.706	999.756	76.4712	999.756	77.6065	999.756	77.0237	999.756	76.5862	999.756	76.5102	999.756	74.0579	999.756	74.275	999.756	69.8069	999.756	69.3767	999.756	69.0238	999.756	64.9739	999.756	72.5523	999.756	70.3599	999.756	74.5707	999.756	73.6449	999.756	74.8955
1,034.91	82.2401	1,034.91	82.0713	1,034.91	82.1543	1,034.91	81.6804	1,034.91	81.8042	1,034.91	81.088	1,034.91	81.2046	1,034.91	80.2597	1,034.91	80.3701	1,034.91	79.1078	1,034.91	79.2904	1,034.91	77.5786	1,034.91	77.9317	1,034.91	75.8636	1,034.91	76.2811	1,034.91	74.6514	1,034.91	74.5505	1,034.91	74.5803	1,034.91	73.5656	1,034.91	75.0536	1,034.91	73.9265	1,034.91	75.0547	1,034.91	74.6359	1,034.91	73.9985	1,034.91	74.5784	1,034.91	71.5078	1,034.91	73.0931	1,034.91	68.0185	1,034.91	69.2812	1,034.91	68.8097	1,034.91	62.745	1,034.91	72.2933	1,034.91	67.8102	1,034.91	74.1657	1,034.91	72.4275	1,034.91	74.2518
1,071.53	80.7956	1,071.53	80.5985	1,071.53	80.7274	1,071.53	80.1529	1,071.53	80.3734	1,071.53	79.4439	1,071.53	79.7836	1,071.53	78.4811	1,071.53	79.0344	1,071.53	77.2924	1,071.53	78.1056	1,071.53	75.8525	1,071.53	76.8876	1,071.53	74.2169	1,071.53	75.3396	1,071.53	72.9903	1,071.53	73.6633	1,071.53	73.0554	1,071.53	72.3991	1,071.53	73.8295	1,071.53	72.2354	1,071.53	74.0226	1,071.53	72.9953	1,071.53	72.9058	1,071.53	73.4234	1,071.53	70.0237	1,071.53	72.3449	1,071.53	65.6494	1,071.53	68.8186	1,071.53	66.4695	1,071.53	63.7884	1,071.53	70.5187	1,071.53	67.3451	1,071.53	72.6048	1,071.53	71.1195	1,071.53	72.7553
1,109.62	80.999	1,109.62	80.8958	1,109.62	80.8976	1,109.62	80.5147	1,109.62	80.612	1,109.62	79.7772	1,109.62	80.1271	1,109.62	78.6883	1,109.62	79.4511	1,109.62	77.382	1,109.62	78.6005	1,109.62	75.9721	1,109.62	77.5072	1,109.62	74.316	1,109.62	76.0411	1,109.62	72.4909	1,109.62	74.1974	1,109.62	71.9966	1,109.62	72.3779	1,109.62	73.1881	1,109.62	71.6445	1,109.62	73.8599	1,109.62	72.3753	1,109.62	72.8831	1,109.62	73.1231	1,109.62	69.6717	1,109.62	72.5184	1,109.62	64.0657	1,109.62	69.3419	1,109.62	66.3724	1,109.62	61.5678	1,109.62	71.1454	1,109.62	67.0319	1,109.62	73.4178	1,109.62	72.0831	1,109.62	73.7712
1,148.44	81.1378	1,148.44	80.7857	1,148.44	81.2548	1,148.44	80.3311	1,148.44	81.0443	1,148.44	79.8055	1,148.44	80.5261	1,148.44	79.0921	1,148.44	79.8045	1,148.44	78.0335	1,148.44	78.9885	1,148.44	76.5471	1,148.44	78.073	1,148.44	74.673	1,148.44	76.8788	1,148.44	72.701	1,148.44	75.228	1,148.44	71.6671	1,148.44	73.4351	1,148.44	72.3738	1,148.44	72.6048	1,148.44	73.2386	1,148.44	72.956	1,148.44	72.6282	1,148.44	73.2869	1,148.44	69.5562	1,148.44	72.6397	1,148.44	62.48	1,148.44	70.0799	1,148.44	63.274	1,148.44	63.2597	1,148.44	69.4426	1,148.44	63.5262	1,148.44	72.2759	1,148.44	70.5796	1,148.44	72.7929
1,189.45	82.0892	1,189.45	81.7593	1,189.45	82.133	1,189.45	81.1673	1,189.45	81.8219	1,189.45	80.3574	1,189.45	81.1521	1,189.45	79.412	1,189.45	80.3015	1,189.45	78.3141	1,189.45	79.4621	1,189.45	76.8789	1,189.45	78.5751	1,189.45	74.8897	1,189.45	77.4048	1,189.45	72.5159	1,189.45	75.809	1,189.45	71.2226	1,189.45	74.0386	1,189.45	72.0279	1,189.45	73.1562	1,189.45	73.0883	1,189.45	73.7347	1,189.45	73.124	1,189.45	74.4197	1,189.45	71.4121	1,189.45	73.9308	1,189.45	65.9844	1,189.45	71.322	1,189.45	58.3518	1,189.45	64.719	1,189.45	69.3975	1,189.45	63.9592	1,189.45	72.724	1,189.45	70.6122	1,189.45	72.9808
1,231.2	82.6861	1,231.2	82.2591	1,231.2	82.6872	1,231.2	81.5597	1,231.2	82.2424	1,231.2	80.7355	1,231.2	81.4825	1,231.2	79.8008	1,231.2	80.6143	1,231.2	78.7189	1,231.2	79.753	1,231.2	77.4799	1,231.2	78.8194	1,231.2	75.9766	1,231.2	77.713	1,231.2	74.0562	1,231.2	76.4251	1,231.2	72.2232	1,231.2	74.9623	1,231.2	71.9586	1,231.2	73.8139	1,231.2	72.7762	1,231.2	73.9793	1,231.2	72.797	1,231.2	74.698	1,231.2	70.8957	1,231.2	74.1807	1,231.2	65.3334	1,231.2	71.149	1,231.2	58.6923	1,231.2	64.5319	1,231.2	68.2654	1,231.2	66.2498	1,231.2	72.1469	1,231.2	71.3865	1,231.2	73.0965
1,274.41	82.5193	1,274.41	82.131	1,274.41	82.6321	1,274.41	81.6178	1,274.41	82.3809	1,274.41	81.055	1,274.41	81.7317	1,274.41	80.3195	1,274.41	80.7566	1,274.41	79.2726	1,274.41	79.7018	1,274.41	77.9808	1,274.41	78.7386	1,274.41	76.5444	1,274.41	77.6251	1,274.41	74.7039	1,274.41	76.0075	1,274.41	72.106	1,274.41	74.0059	1,274.41	70.3908	1,274.41	72.5163	1,274.41	72.0413	1,274.41	72.8611	1,274.41	73.4501	1,274.41	74.3369	1,274.41	72.4345	1,274.41	74.6899	1,274.41	67.7254	1,274.41	72.4259	1,274.41	53.9905	1,274.41	65.2413	1,274.41	67.3483	1,274.41	63.711	1,274.41	72.0913	1,274.41	71.2325	1,274.41	73.2281
1,319.82	82.3629	1,319.82	82.139	1,319.82	82.3138	1,319.82	81.6798	1,319.82	82.0178	1,319.82	81.0836	1,319.82	81.4174	1,319.82	80.27	1,319.82	80.515	1,319.82	79.0526	1,319.82	79.5289	1,319.82	77.644	1,319.82	78.5043	1,319.82	76.406	1,319.82	77.0939	1,319.82	74.9004	1,319.82	75.0908	1,319.82	72.311	1,319.82	72.7909	1,319.82	70.3037	1,319.82	71.0711	1,319.82	71.4201	1,319.82	71.561	1,319.82	72.1517	1,319.82	73.4121	1,319.82	71.0487	1,319.82	73.7607	1,319.82	67.654	1,319.82	71.2496	1,319.82	58.9456	1,319.82	63.8926	1,319.82	67.7923	1,319.82	60.5645	1,319.82	72.6392	1,319.82	69.5708	1,319.82	72.8513
1,365.97	82.4106	1,365.97	82.1909	1,365.97	82.249	1,365.97	81.5373	1,365.97	81.8338	1,365.97	80.4824	1,365.97	81.2482	1,365.97	79.3737	1,365.97	80.3185	1,365.97	78.5294	1,365.97	78.979	1,365.97	77.6369	1,365.97	77.6358	1,365.97	76.2099	1,365.97	76.5679	1,365.97	74.5436	1,365.97	75.1994	1,365.97	73.0506	1,365.97	73.3391	1,365.97	71.4632	1,365.97	71.8539	1,365.97	70.9722	1,365.97	71.2786	1,365.97	71.9473	1,365.97	71.6993	1,365.97	71.3443	1,365.97	72.402	1,365.97	67.1719	1,365.97	71.1704	1,365.97	53.4577	1,365.97	64.9183	1,365.97	66.8058	1,365.97	57.2621	1,365.97	70.9057	1,365.97	68.6082	1,365.97	71.2201
1,414.31	82.2802	1,414.31	81.9157	1,414.31	82.4009	1,414.31	81.3538	1,414.31	81.9807	1,414.31	80.1866	1,414.31	81.2541	1,414.31	78.5187	1,414.31	80.5851	1,414.31	77.1991	1,414.31	79.6675	1,414.31	76.3267	1,414.31	78.2157	1,414.31	74.9105	1,414.31	76.7976	1,414.31	72.8021	1,414.31	75.6639	1,414.31	70.9429	1,414.31	73.9165	1,414.31	69.9714	1,414.31	71.4887	1,414.31	70.7607	1,414.31	70.463	1,414.31	72.1611	1,414.31	70.766	1,414.31	71.9197	1,414.31	70.6531	1,414.31	68.2157	1,414.31	69.4405	1,414.31	51.11	1,414.31	64.5474	1,414.31	66.8756	1,414.31	54.6394	1,414.31	70.7545	1,414.31	66.9806	1,414.31	70.4259
1,464.11	81.7762	1,464.11	81.6456	1,464.11	81.9259	1,464.11	81.3105	1,464.11	81.8266	1,464.11	80.4998	1,464.11	81.1111	1,464.11	79.3572	1,464.11	79.9556	1,464.11	78.2385	1,464.11	78.9475	1,464.11	77.0406	1,464.11	78.1491	1,464.11	75.4507	1,464.11	77.0757	1,464.11	73.6631	1,464.11	75.5385	1,464.11	71.688	1,464.11	73.7308	1,464.11	69.1908	1,464.11	71.9411	1,464.11	69.3723	1,464.11	71.0218	1,464.11	71.5617	1,464.11	71.5471	1,464.11	71.5198	1,464.11	72.4952	1,464.11	68.6571	1,464.11	72.3286	1,464.11	59.7545	1,464.11	69.1483	1,464.11	60.9275	1,464.11	57.3159	1,464.11	68.6919	1,464.11	63.2169	1,464.11	69.202
1,515.38	82.4569	1,515.38	82.3426	1,515.38	82.3683	1,515.38	81.7443	1,515.38	82.0637	1,515.38	80.5959	1,515.38	81.2402	1,515.38	79.3001	1,515.38	79.9998	1,515.38	78.4311	1,515.38	78.8709	1,515.38	77.7376	1,515.38	77.8589	1,515.38	76.3823	1,515.38	76.6835	1,515.38	74.4226	1,515.38	75.7486	1,515.38	72.688	1,515.38	75.2859	1,515.38	70.803	1,515.38	74.2126	1,515.38	68.4194	1,515.38	72.16	1,515.38	69.1617	1,515.38	71.4467	1,515.38	70.4246	1,515.38	71.8339	1,515.38	69.0955	1,515.38	71.0642	1,515.38	62.28	1,515.38	67.7709	1,515.38	58.8074	1,515.38	58.9202	1,515.38	68.057	1,515.38	61.4219	1,515.38	68.2451
1,568.85	82.7501	1,568.85	82.2245	1,568.85	82.5255	1,568.85	81.585	1,568.85	81.8007	1,568.85	80.9581	1,568.85	81.1168	1,568.85	79.7256	1,568.85	80.2322	1,568.85	78.2042	1,568.85	78.9656	1,568.85	77.3618	1,568.85	77.6963	1,568.85	76.6489	1,568.85	76.6035	1,568.85	75.1428	1,568.85	75.4072	1,568.85	73.4408	1,568.85	73.7602	1,568.85	70.9855	1,568.85	72.0803	1,568.85	67.0988	1,568.85	71.8018	1,568.85	67.8	1,568.85	72.6046	1,568.85	70.04	1,568.85	72.6202	1,568.85	68.735	1,568.85	71.3619	1,568.85	60.4023	1,568.85	67.8041	1,568.85	61.8369	1,568.85	56.057	1,568.85	68.7113	1,568.85	64.8698	1,568.85	69.3593
1,624.51	82.312	1,624.51	82.243	1,624.51	81.8461	1,624.51	81.1072	1,624.51	81.2438	1,624.51	79.8391	1,624.51	80.2519	1,624.51	79.1377	1,624.51	79.1261	1,624.51	78.1553	1,624.51	78.3307	1,624.51	77.0962	1,624.51	77.5558	1,624.51	75.8344	1,624.51	76.1643	1,624.51	73.7463	1,624.51	73.7254	1,624.51	72.3883	1,624.51	70.7007	1,624.51	70.8572	1,624.51	68.4121	1,624.51	68.5357	1,624.51	66.6537	1,624.51	70.7012	1,624.51	67.4478	1,624.51	72.1725	1,624.51	68.8148	1,624.51	70.1971	1,624.51	69.4473	1,624.51	61.5962	1,624.51	67.1969	1,624.51	61.1058	1,624.51	51.7581	1,624.51	67.0346	1,624.51	65.6742	1,624.51	68.0805
1,681.64	81.108	1,681.64	81.1453	1,681.64	81.1991	1,681.64	80.5726	1,681.64	80.7972	1,681.64	79.2188	1,681.64	79.6339	1,681.64	77.8707	1,681.64	78.3788	1,681.64	76.6232	1,681.64	77.2223	1,681.64	75.2571	1,681.64	76.0074	1,681.64	74.2031	1,681.64	74.3322	1,681.64	73.7682	1,681.64	72.2535	1,681.64	73.4434	1,681.64	70.8045	1,681.64	72.067	1,681.64	69.603	1,681.64	69.2992	1,681.64	66.982	1,681.64	70.0594	1,681.64	65.1057	1,681.64	71.6165	1,681.64	67.1651	1,681.64	69.7757	1,681.64	70.0356	1,681.64	65.9601	1,681.64	68.7596	1,681.64	59.4821	1,681.64	59.1453	1,681.64	63.5789	1,681.64	62.6341	1,681.64	66.3342
1,740.97	81.346	1,740.97	81.2194	1,740.97	81.0851	1,740.97	80.3099	1,740.97	80.7207	1,740.97	79.2798	1,740.97	79.9969	1,740.97	78.4258	1,740.97	78.9205	1,740.97	76.8114	1,740.97	77.9381	1,740.97	74.3396	1,740.97	76.9841	1,740.97	72.8075	1,740.97	75.188	1,740.97	72.713	1,740.97	72.5363	1,740.97	72.4598	1,740.97	70.73	1,740.97	71.278	1,740.97	70.121	1,740.97	68.5488	1,740.97	68.5116	1,740.97	67.3287	1,740.97	65.9787	1,740.97	70.1955	1,740.97	66.9002	1,740.97	70.0801	1,740.97	68.7335	1,740.97	67.069	1,740.97	67.7257	1,740.97	58.0082	1,740.97	61.2184	1,740.97	62.3977	1,740.97	58.0427	1,740.97	65.4615
1,802.49	81.8312	1,802.49	81.5351	1,802.49	81.3593	1,802.49	80.3587	1,802.49	80.8012	1,802.49	79.093	1,802.49	80.4648	1,802.49	78.1171	1,802.49	79.6667	1,802.49	76.841	1,802.49	78.3708	1,802.49	75.2163	1,802.49	77.0844	1,802.49	73.6511	1,802.49	75.3149	1,802.49	72.9485	1,802.49	72.7804	1,802.49	72.0812	1,802.49	71.5899	1,802.49	69.3931	1,802.49	71.3629	1,802.49	67.3795	1,802.49	68.0801	1,802.49	67.2757	1,802.49	64.7108	1,802.49	68.2012	1,802.49	68.4822	1,802.49	70.5272	1,802.49	71.0865	1,802.49	67.9431	1,802.49	69.8196	1,802.49	35.1189	1,802.49	61.5385	1,802.49	62.4399	1,802.49	58.2725	1,802.49	61.2854
1,866.21	81.2374	1,866.21	81.2101	1,866.21	80.8966	1,866.21	80.3348	1,866.21	80.431	1,866.21	78.8903	1,866.21	79.1499	1,866.21	77.6436	1,866.21	77.3521	1,866.21	77.1337	1,866.21	76.478	1,866.21	75.7238	1,866.21	75.5604	1,866.21	72.5978	1,866.21	74.1758	1,866.21	70.6148	1,866.21	73.1849	1,866.21	70.827	1,866.21	72.0954	1,866.21	71.8534	1,866.21	70.5122	1,866.21	70.9042	1,866.21	69.3587	1,866.21	67.5135	1,866.21	69.7284	1,866.21	66.7651	1,866.21	69.8628	1,866.21	68.356	1,866.21	69.9289	1,866.21	68.1902	1,866.21	68.0738	1,866.21	60.1639	1,866.21	64.7968	1,866.21	60.7795	1,866.21	57.3918	1,866.21	59.7679
1,932.13	80.221	1,932.13	80.18	1,932.13	79.9388	1,932.13	79.7656	1,932.13	79.8433	1,932.13	78.4179	1,932.13	79.6026	1,932.13	76.5805	1,932.13	78.5595	1,932.13	75.5133	1,932.13	76.4109	1,932.13	74.2714	1,932.13	73.503	1,932.13	72.6106	1,932.13	72.6117	1,932.13	71.1118	1,932.13	72.3156	1,932.13	67.852	1,932.13	70.6514	1,932.13	67.2303	1,932.13	69.8156	1,932.13	70.4522	1,932.13	69.6854	1,932.13	69.134	1,932.13	68.895	1,932.13	66.905	1,932.13	67.7995	1,932.13	66.9155	1,932.13	67.7147	1,932.13	64.6058	1,932.13	68.4496	1,932.13	61.6942	1,932.13	66.6697	1,932.13	56.8943	1,932.13	57.8496	1,932.13	57.3376
2,000.24	80.6273	2,000.24	80.3144	2,000.24	81.0136	2,000.24	79.4841	2,000.24	80.8062	2,000.24	78.1992	2,000.24	79.8672	2,000.24	77.5262	2,000.24	78.9872	2,000.24	76.3609	2,000.24	77.8112	2,000.24	74.4621	2,000.24	76.0411	2,000.24	73.6126	2,000.24	74.6848	2,000.24	72.7962	2,000.24	73.9788	2,000.24	70.814	2,000.24	72.6357	2,000.24	69.013	2,000.24	70.1355	2,000.24	67.6912	2,000.24	69.4137	2,000.24	64.6874	2,000.24	68.7138	2,000.24	62.8059	2,000.24	67.0112	2,000.24	66.1069	2,000.24	68.3369	2,000.24	64.1817	2,000.24	69.2814	2,000.24	45.1489	2,000.24	66.7059	2,000.24	61.8861	2,000.24	59.8988	2,000.24	62.563
2,070.56	82.0617	2,070.56	81.5124	2,070.56	82.0422	2,070.56	80.3812	2,070.56	81.3677	2,070.56	79.6543	2,070.56	80.6769	2,070.56	79.2506	2,070.56	79.9913	2,070.56	77.7412	2,070.56	78.2133	2,070.56	75.7292	2,070.56	76.0945	2,070.56	74.5446	2,070.56	75.0394	2,070.56	73.4786	2,070.56	74.2	2,070.56	71.1359	2,070.56	73.0956	2,070.56	68.017	2,070.56	70.0136	2,070.56	66.9319	2,070.56	64.7107	2,070.56	68.2732	2,070.56	66.6265	2,070.56	66.9342	2,070.56	67.3889	2,070.56	66.8127	2,070.56	67.4059	2,070.56	68.077	2,070.56	67.8141	2,070.56	61.1009	2,070.56	63.7679	2,070.56	64.0341	2,070.56	59.6128	2,070.56	62.9276
2,143.8	81.606	2,143.8	81.2245	2,143.8	81.6828	2,143.8	80.5701	2,143.8	81.2378	2,143.8	80.2791	2,143.8	80.3091	2,143.8	79.6415	2,143.8	79.2971	2,143.8	78.6074	2,143.8	78.0763	2,143.8	77.0149	2,143.8	77.0088	2,143.8	75.107	2,143.8	75.4331	2,143.8	73.6632	2,143.8	72.736	2,143.8	71.8501	2,143.8	72.099	2,143.8	70.3941	2,143.8	71.7877	2,143.8	67.8011	2,143.8	68.9036	2,143.8	67.8082	2,143.8	67.5613	2,143.8	70.9466	2,143.8	66.6713	2,143.8	72.087	2,143.8	67.2785	2,143.8	72.1808	2,143.8	69.1175	2,143.8	68.104	2,143.8	64.9022	2,143.8	54.4077	2,143.8	36.0706	2,143.8	51.7963
2,219.24	80.7063	2,219.24	80.2551	2,219.24	80.4928	2,219.24	80.0639	2,219.24	79.7413	2,219.24	79.9956	2,219.24	79.1829	2,219.24	78.5928	2,219.24	79.0479	2,219.24	77.3018	2,219.24	77.9742	2,219.24	76.4747	2,219.24	76.604	2,219.24	74.6071	2,219.24	75.467	2,219.24	73.3206	2,219.24	73.1792	2,219.24	72.4631	2,219.24	71.724	2,219.24	69.6105	2,219.24	71.4073	2,219.24	68.4696	2,219.24	69.6025	2,219.24	69.1549	2,219.24	67.7027	2,219.24	66.0927	2,219.24	66.5912	2,219.24	70.4005	2,219.24	65.6434	2,219.24	69.7817	2,219.24	68.2805	2,219.24	65.8771	2,219.24	66.396	2,219.24	63.9541	2,219.24	59.5033	2,219.24	57.4822
2,297.61	81.6656	2,297.61	81.2096	2,297.61	81.5613	2,297.61	80.3409	2,297.61	80.934	2,297.61	79.4375	2,297.61	79.9885	2,297.61	78.5004	2,297.61	79.0709	2,297.61	77.6533	2,297.61	77.4639	2,297.61	76.0518	2,297.61	76.6187	2,297.61	73.8635	2,297.61	75.5623	2,297.61	72.7591	2,297.61	73.2437	2,297.61	72.6383	2,297.61	72.7593	2,297.61	70.4025	2,297.61	73.107	2,297.61	67.1398	2,297.61	71.2693	2,297.61	68.2002	2,297.61	69.5667	2,297.61	65.3394	2,297.61	68.0878	2,297.61	65.4942	2,297.61	67.0308	2,297.61	66.378	2,297.61	68.8372	2,297.61	62.2813	2,297.61	66.8965	2,297.61	64.5577	2,297.61	61.7502	2,297.61	63.4986
2,378.17	81.8988	2,378.17	81.6714	2,378.17	81.7552	2,378.17	81.4921	2,378.17	80.9804	2,378.17	80.7902	2,378.17	80.9097	2,378.17	79.8553	2,378.17	80.4466	2,378.17	78.3633	2,378.17	78.5407	2,378.17	76.3454	2,378.17	77.4863	2,378.17	74.2488	2,378.17	76.4354	2,378.17	71.5968	2,378.17	73.8925	2,378.17	71.0475	2,378.17	71.6224	2,378.17	70.3979	2,378.17	70.2414	2,378.17	66.1823	2,378.17	67.1977	2,378.17	67.4932	2,378.17	65.9428	2,378.17	69.3797	2,378.17	66.4887	2,378.17	66.6677	2,378.17	65.069	2,378.17	65.0463	2,378.17	67.639	2,378.17	60.4418	2,378.17	66.3854	2,378.17	56.0088	2,378.17	57.8412	2,378.17	55.4574
2,462.4	81.1484	2,462.4	81.0554	2,462.4	80.9515	2,462.4	80.8044	2,462.4	80.7199	2,462.4	80.3523	2,462.4	80.3111	2,462.4	79.538	2,462.4	79.5521	2,462.4	78.6271	2,462.4	78.4542	2,462.4	77.2012	2,462.4	77.0515	2,462.4	75.0982	2,462.4	75.4832	2,462.4	73.1543	2,462.4	73.1756	2,462.4	72.1078	2,462.4	71.5864	2,462.4	70.8624	2,462.4	71.1861	2,462.4	69.0541	2,462.4	69.1275	2,462.4	68.8776	2,462.4	67.0804	2,462.4	67.942	2,462.4	66.8768	2,462.4	66.3709	2,462.4	66.8545	2,462.4	66.8953	2,462.4	68.8819	2,462.4	63.1469	2,462.4	67.5555	2,462.4	60.8002	2,462.4	62.298	2,462.4	62.2889
2,548.83	80.0409	2,548.83	80.1318	2,548.83	80.2044	2,548.83	80.1828	2,548.83	80.0854	2,548.83	79.5791	2,548.83	79.8571	2,548.83	78.5918	2,548.83	79.4861	2,548.83	77.3804	2,548.83	78.3591	2,548.83	76.3479	2,548.83	77.0813	2,548.83	74.7638	2,548.83	75.5568	2,548.83	71.7551	2,548.83	73.6093	2,548.83	70.994	2,548.83	71.7096	2,548.83	70.5733	2,548.83	70.8904	2,548.83	67.8215	2,548.83	69.0251	2,548.83	67.8081	2,548.83	66.1728	2,548.83	66.7647	2,548.83	65.8308	2,548.83	66.6139	2,548.83	63.5343	2,548.83	67.4162	2,548.83	66.1726	2,548.83	62.9295	2,548.83	66.4045	2,548.83	58.4021	2,548.83	61.4901	2,548.83	61.3178
2,638.92	80.6688	2,638.92	80.7269	2,638.92	80.6281	2,638.92	80.4488	2,638.92	80.8358	2,638.92	80.0703	2,638.92	80.789	2,638.92	79.309	2,638.92	80.0645	2,638.92	77.8066	2,638.92	78.9598	2,638.92	76.2136	2,638.92	77.5959	2,638.92	74.5986	2,638.92	76.2911	2,638.92	72.4036	2,638.92	74.3891	2,638.92	70.9505	2,638.92	71.7453	2,638.92	70.3371	2,638.92	70.9539	2,638.92	67.7061	2,638.92	69.7306	2,638.92	67.0271	2,638.92	67.6372	2,638.92	67.256	2,638.92	68.2828	2,638.92	66.7186	2,638.92	66.7231	2,638.92	68.5251	2,638.92	66.683	2,638.92	64.726	2,638.92	66.7967	2,638.92	63.7025	2,638.92	60.8454	2,638.92	63.0939
2,731.93	80.8388	2,731.93	80.8193	2,731.93	80.7829	2,731.93	80.6496	2,731.93	80.7397	2,731.93	80.2773	2,731.93	80.6497	2,731.93	79.384	2,731.93	80.3139	2,731.93	77.8659	2,731.93	79.2437	2,731.93	76.4971	2,731.93	77.5626	2,731.93	75.3477	2,731.93	75.8915	2,731.93	73.037	2,731.93	74.0779	2,731.93	70.8125	2,731.93	71.5599	2,731.93	70.2226	2,731.93	70.0255	2,731.93	67.7071	2,731.93	69.3855	2,731.93	65.5614	2,731.93	67.6342	2,731.93	66.2599	2,731.93	67.1878	2,731.93	65.6508	2,731.93	64.7923	2,731.93	67.3678	2,731.93	65.2259	2,731.93	62.5838	2,731.93	66.9302	2,731.93	58.792	2,731.93	62.2144	2,731.93	62.6719
2,828.61	80.2848	2,828.61	80.2467	2,828.61	80.409	2,828.61	80.1994	2,828.61	80.6509	2,828.61	80.0873	2,828.61	80.593	2,828.61	79.5605	2,828.61	80.1754	2,828.61	78.1121	2,828.61	79.3364	2,828.61	75.944	2,828.61	77.6885	2,828.61	74.3705	2,828.61	76.0932	2,828.61	72.9115	2,828.61	74.5623	2,828.61	70.5609	2,828.61	72.2105	2,828.61	69.187	2,828.61	70.3777	2,828.61	68.1806	2,828.61	70.0677	2,828.61	67.265	2,828.61	68.0242	2,828.61	68.8281	2,828.61	66.832	2,828.61	67.9971	2,828.61	66.235	2,828.61	68.2993	2,828.61	65.7323	2,828.61	64.7868	2,828.61	67.377	2,828.61	61.4884	2,828.61	60.5287	2,828.61	62.7117
2,928.22	78.5424	2,928.22	78.7507	2,928.22	78.8955	2,928.22	79.206	2,928.22	79.2025	2,928.22	79.1777	2,928.22	79.331	2,928.22	78.6385	2,928.22	79.0722	2,928.22	77.5595	2,928.22	78.1444	2,928.22	75.8695	2,928.22	76.5852	2,928.22	73.9289	2,928.22	74.8191	2,928.22	72.0811	2,928.22	73.3374	2,928.22	70.4245	2,928.22	71.4657	2,928.22	69.2973	2,928.22	69.6479	2,928.22	68.227	2,928.22	68.7856	2,928.22	66.746	2,928.22	66.8717	2,928.22	65.7653	2,928.22	66.3693	2,928.22	63.2983	2,928.22	66.3048	2,928.22	65.4981	2,928.22	65.9	2,928.22	63.7206	2,928.22	66.6196	2,928.22	56.2235	2,928.22	61.3024	2,928.22	56.9
3,031.49	76.4478	3,031.49	76.7938	3,031.49	76.7326	3,031.49	77.3157	3,031.49	77.5949	3,031.49	77.4064	3,031.49	78.0156	3,031.49	77.0281	3,031.49	77.7543	3,031.49	75.9183	3,031.49	77.1328	3,031.49	73.8558	3,031.49	75.6763	3,031.49	71.52	3,031.49	73.7377	3,031.49	69.4611	3,031.49	72.0284	3,031.49	67.4928	3,031.49	70.5461	3,031.49	67.1636	3,031.49	68.77	3,031.49	66.7158	3,031.49	67.9512	3,031.49	63.4923	3,031.49	65.6085	3,031.49	64.0928	3,031.49	63.9372	3,031.49	63.2063	3,031.49	64.8336	3,031.49	63.6019	3,031.49	63.3871	3,031.49	61.9385	3,031.49	65.3974	3,031.49	59.8205	3,031.49	61.4704	3,031.49	60.0395
3,138.43	76.6909	3,138.43	77.029	3,138.43	77.0833	3,138.43	77.7259	3,138.43	78.0532	3,138.43	77.8687	3,138.43	78.6149	3,138.43	77.2321	3,138.43	78.3578	3,138.43	75.9158	3,138.43	77.6053	3,138.43	74.0613	3,138.43	76.1822	3,138.43	71.7085	3,138.43	73.8485	3,138.43	69.285	3,138.43	71.8114	3,138.43	67.3409	3,138.43	70.4733	3,138.43	66.161	3,138.43	68.2246	3,138.43	66.0014	3,138.43	66.9425	3,138.43	65.1276	3,138.43	65.8238	3,138.43	64.3154	3,138.43	64.9712	3,138.43	63.5195	3,138.43	65.6193	3,138.43	63.9802	3,138.43	64.4657	3,138.43	61.8156	3,138.43	65.1884	3,138.43	57.3107	3,138.43	61.8873	3,138.43	59.3816
3,249.02	76.8597	3,249.02	77.2504	3,249.02	77.3728	3,249.02	77.9703	3,249.02	78.0902	3,249.02	77.7084	3,249.02	78.7967	3,249.02	77.0305	3,249.02	78.5771	3,249.02	75.8968	3,249.02	77.2751	3,249.02	74.0881	3,249.02	75.7196	3,249.02	71.9072	3,249.02	73.9028	3,249.02	69.6112	3,249.02	72.2569	3,249.02	66.5962	3,249.02	70.1587	3,249.02	65.3224	3,249.02	67.1639	3,249.02	65.2033	3,249.02	66.7613	3,249.02	62.887	3,249.02	65.8095	3,249.02	64.5802	3,249.02	64.2245	3,249.02	65.3782	3,249.02	66.3517	3,249.02	65.1622	3,249.02	65.1467	3,249.02	62.1662	3,249.02	65.8597	3,249.02	57.552	3,249.02	60.7037	3,249.02	59.5948
3,363.28	77.2575	3,363.28	77.8074	3,363.28	77.5835	3,363.28	78.6287	3,363.28	78.2617	3,363.28	78.4426	3,363.28	79.0473	3,363.28	77.3916	3,363.28	78.8165	3,363.28	75.6999	3,363.28	77.6685	3,363.28	73.791	3,363.28	76.1383	3,363.28	71.5727	3,363.28	74.3359	3,363.28	69.6728	3,363.28	72.1291	3,363.28	67.2829	3,363.28	69.9137	3,363.28	65.5482	3,363.28	68.038	3,363.28	65.6755	3,363.28	67.4613	3,363.28	65.181	3,363.28	66.3006	3,363.28	66.7052	3,363.28	63.5623	3,363.28	65.2402	3,363.28	65.8715	3,363.28	65.5496	3,363.28	65.1842	3,363.28	64.2786	3,363.28	65.9641	3,363.28	57.5213	3,363.28	63.512	3,363.28	56.1482
3,481.93	77.9147	3,481.93	78.3692	3,481.93	77.6264	3,481.93	78.8726	3,481.93	78.8744	3,481.93	79.2751	3,481.93	79.5461	3,481.93	78.0919	3,481.93	78.811	3,481.93	75.9357	3,481.93	77.744	3,481.93	73.8145	3,481.93	75.9135	3,481.93	71.2173	3,481.93	74.0501	3,481.93	69.5313	3,481.93	72.6993	3,481.93	67.935	3,481.93	71.4822	3,481.93	65.0459	3,481.93	68.4054	3,481.93	64.9162	3,481.93	66.2598	3,481.93	62.6836	3,481.93	66.1122	3,481.93	63.4011	3,481.93	63.9971	3,481.93	63.0929	3,481.93	65.2469	3,481.93	64.2307	3,481.93	65.7648	3,481.93	65.8072	3,481.93	65.929	3,481.93	56.2648	3,481.93	66.0135	3,481.93	59.0763
3,604.98	78.8781	3,604.98	78.7445	3,604.98	79.4687	3,604.98	78.8939	3,604.98	79.5775	3,604.98	78.5706	3,604.98	79.4302	3,604.98	77.9067	3,604.98	79.3923	3,604.98	76.5812	3,604.98	78.2886	3,604.98	74.2821	3,604.98	76.4783	3,604.98	72.0978	3,604.98	74.4773	3,604.98	70.2947	3,604.98	72.8869	3,604.98	68.193	3,604.98	70.9216	3,604.98	64.4512	3,604.98	67.5862	3,604.98	63.2587	3,604.98	66.3596	3,604.98	64.241	3,604.98	66.2972	3,604.98	63.9523	3,604.98	66.005	3,604.98	65.5095	3,604.98	67.0518	3,604.98	65.4376	3,604.98	65.9169	3,604.98	65.0071	3,604.98	66.6451	3,604.98	52.9755	3,604.98	65.5422	3,604.98	59.2739
3,732.42	79.6475	3,732.42	79.8455	3,732.42	80.0088	3,732.42	80.0737	3,732.42	79.9389	3,732.42	79.2318	3,732.42	80.1026	3,732.42	78.1025	3,732.42	79.7289	3,732.42	76.8638	3,732.42	78.3554	3,732.42	75.7946	3,732.42	77.0233	3,732.42	73.8912	3,732.42	75.2774	3,732.42	71.4692	3,732.42	73.1272	3,732.42	68.6953	3,732.42	70.9463	3,732.42	66.719	3,732.42	68.9758	3,732.42	65.6955	3,732.42	66.6235	3,732.42	64.5734	3,732.42	65.6351	3,732.42	65.3867	3,732.42	65.3798	3,732.42	65.763	3,732.42	68.4632	3,732.42	66.0448	3,732.42	67.857	3,732.42	66.3617	3,732.42	66.5152	3,732.42	58.4954	3,732.42	64.6071	3,732.42	59.1603
3,863.53	80.2617	3,863.53	80.7279	3,863.53	79.8529	3,863.53	80.8572	3,863.53	80.5063	3,863.53	80.7934	3,863.53	80.7017	3,863.53	79.529	3,863.53	79.9527	3,863.53	77.5425	3,863.53	79.1601	3,863.53	76.2939	3,863.53	77.7724	3,863.53	74.7609	3,863.53	75.9909	3,863.53	72.3015	3,863.53	74.1289	3,863.53	70.2074	3,863.53	72.8225	3,863.53	67.9361	3,863.53	70.4393	3,863.53	64.7603	3,863.53	67.1273	3,863.53	63.0517	3,863.53	66.0013	3,863.53	65.0847	3,863.53	65.5689	3,863.53	66.4292	3,863.53	68.596	3,863.53	65.6579	3,863.53	68.1495	3,863.53	67.5615	3,863.53	66.6942	3,863.53	60.4024	3,863.53	65.8922	3,863.53	61.839
3,999.76	80.6181	3,999.76	80.8325	3,999.76	80.2895	3,999.76	80.3261	3,999.76	80.9978	3,999.76	80.4823	3,999.76	81.1418	3,999.76	79.8123	3,999.76	80.6637	3,999.76	78.1204	3,999.76	79.8326	3,999.76	75.8223	3,999.76	78.8186	3,999.76	73.6112	3,999.76	77.0598	3,999.76	71.9628	3,999.76	75.5768	3,999.76	70.3799	3,999.76	73.5767	3,999.76	67.5983	3,999.76	70.8246	3,999.76	66.3725	3,999.76	69.5843	3,999.76	67.6465	3,999.76	68.3112	3,999.76	67.6741	3,999.76	65.0298	3,999.76	67.9959	3,999.76	66.6031	3,999.76	64.7399	3,999.76	67.0409	3,999.76	66.5507	3,999.76	66.405	3,999.76	56.4582	3,999.76	65.7642	3,999.76	61.2348
4,141.11	81.5891	4,141.11	81.0639	4,141.11	82.6515	4,141.11	81.369	4,141.11	81.8094	4,141.11	79.9812	4,141.11	81.3176	4,141.11	79.4162	4,141.11	81.2907	4,141.11	79.4984	4,141.11	80.6449	4,141.11	77.9359	4,141.11	79.2753	4,141.11	75.5742	4,141.11	77.6359	4,141.11	74.1396	4,141.11	76.0109	4,141.11	72.1205	4,141.11	74.0121	4,141.11	69.0296	4,141.11	72.3893	4,141.11	67.1607	4,141.11	67.7381	4,141.11	64.7567	4,141.11	67.8603	4,141.11	65.9818	4,141.11	67.4995	4,141.11	68.5196	4,141.11	67.0541	4,141.11	67.4008	4,141.11	68.0888	4,141.11	68.0769	4,141.11	68.8261	4,141.11	56.7585	4,141.11	67.18	4,141.11	60.0653
4,286.87	81.9799	4,286.87	82.0194	4,286.87	81.9153	4,286.87	80.9362	4,286.87	81.9427	4,286.87	80.1603	4,286.87	81.563	4,286.87	79.8273	4,286.87	81.2805	4,286.87	78.6666	4,286.87	80.6896	4,286.87	78.4114	4,286.87	79.969	4,286.87	77.565	4,286.87	79.229	4,286.87	75.0084	4,286.87	77.0117	4,286.87	72.2744	4,286.87	74.8197	4,286.87	70.6181	4,286.87	72.5912	4,286.87	68.5049	4,286.87	70.288	4,286.87	67.5355	4,286.87	70.0518	4,286.87	65.104	4,286.87	69.3934	4,286.87	68.1192	4,286.87	67.9456	4,286.87	67.3314	4,286.87	70.5045	4,286.87	68.7858	4,286.87	68.4154	4,286.87	59.8101	4,286.87	67.6727	4,286.87	53.4687
4,438.48	82.8198	4,438.48	82.0351	4,438.48	81.2427	4,438.48	80.554	4,438.48	80.7268	4,438.48	81.4442	4,438.48	81.1633	4,438.48	80.6886	4,438.48	81.0016	4,438.48	79.6698	4,438.48	80.9956	4,438.48	78.7723	4,438.48	80.8734	4,438.48	77.5306	4,438.48	79.4815	4,438.48	74.7148	4,438.48	78.1039	4,438.48	72.1294	4,438.48	75.4816	4,438.48	68.8112	4,438.48	72.4011	4,438.48	63.9035	4,438.48	70.6112	4,438.48	66.5309	4,438.48	68.5705	4,438.48	68.3423	4,438.48	68.799	4,438.48	69.5969	4,438.48	69.1786	4,438.48	68.5183	4,438.48	69.6597	4,438.48	69.5019	4,438.48	69.8811	4,438.48	57.4435	4,438.48	69.5076	4,438.48	63.3033
4,594.48	82.6036	4,594.48	80.618	4,594.48	83.3941	4,594.48	79.9875	4,594.48	81.5618	4,594.48	79.3632	4,594.48	80.598	4,594.48	79.9715	4,594.48	81.394	4,594.48	80.6832	4,594.48	82.1028	4,594.48	79.6723	4,594.48	81.4167	4,594.48	77.4542	4,594.48	80.0903	4,594.48	75.0509	4,594.48	77.8957	4,594.48	73.1285	4,594.48	74.6986	4,594.48	71.4226	4,594.48	72.996	4,594.48	68.8471	4,594.48	70.2409	4,594.48	65.2209	4,594.48	69.4	4,594.48	66.5453	4,594.48	67.208	4,594.48	70.7067	4,594.48	66.7337	4,594.48	68.0378	4,594.48	68.4843	4,594.48	70.0403	4,594.48	69.2058	4,594.48	59.0836	4,594.48	68.8451	4,594.48	61.7333
4,757.08	82.2764	4,757.08	82.1303	4,757.08	81.0819	4,757.08	79.7015	4,757.08	80.6058	4,757.08	79.8634	4,757.08	80.25	4,757.08	81.5543	4,757.08	81.5283	4,757.08	81.7049	4,757.08	82.0304	4,757.08	80.4214	4,757.08	80.9966	4,757.08	78.5206	4,757.08	79.5819	4,757.08	75.8447	4,757.08	77.5252	4,757.08	74.011	4,757.08	75.6701	4,757.08	71.9258	4,757.08	73.3682	4,757.08	69.9326	4,757.08	71.0192	4,757.08	69.4803	4,757.08	69.7605	4,757.08	62.799	4,757.08	69.8322	4,757.08	67.9517	4,757.08	68.0617	4,757.08	67.2397	4,757.08	71.0018	4,757.08	69.9426	4,757.08	68.025	4,757.08	62.9269	4,757.08	67.1451	4,757.08	58.8568
4,924.8	82.6164	4,924.8	80.6612	4,924.8	81.9054	4,924.8	79.0439	4,924.8	79.7184	4,924.8	80.2648	4,924.8	79.8601	4,924.8	81.0585	4,924.8	81.4494	4,924.8	80.3857	4,924.8	81.9556	4,924.8	78.6678	4,924.8	81.8671	4,924.8	77.3003	4,924.8	79.8104	4,924.8	74.8215	4,924.8	77.8861	4,924.8	72.5357	4,924.8	75.0012	4,924.8	70.2615	4,924.8	72.8939	4,924.8	67.604	4,924.8	70.3992	4,924.8	68.4348	4,924.8	67.6386	4,924.8	66.1821	4,924.8	68.1486	4,924.8	69.9708	4,924.8	66.0817	4,924.8	69.0832	4,924.8	69.5346	4,924.8	68.6797	4,924.8	69.9022	4,924.8	59.171	4,924.8	69.5009	4,924.8	59.9644
5,098.39	80.743	5,098.39	79.1366	5,098.39	81.29	5,098.39	78.1767	5,098.39	79.4213	5,098.39	78.7411	5,098.39	78.8457	5,098.39	80.2293	5,098.39	81.0046	5,098.39	80.1814	5,098.39	82.3603	5,098.39	78.8482	5,098.39	81.5331	5,098.39	76.9017	5,098.39	79.6704	5,098.39	74.7446	5,098.39	77.0359	5,098.39	71.2541	5,098.39	74.0885	5,098.39	67.5425	5,098.39	72.7505	5,098.39	65.743	5,098.39	69.2841	5,098.39	66.634	5,098.39	67.6746	5,098.39	64.5418	5,098.39	70.0769	5,098.39	68.337	5,098.39	68.5714	5,098.39	67.5123	5,098.39	69.832	5,098.39	63.5912	5,098.39	69.7606	5,098.39	39.8962	5,098.39	65.2915	5,098.39	61.6408
5,277.83	81.644	5,277.83	80.4442	5,277.83	80.7274	5,277.83	78.4936	5,277.83	79.4073	5,277.83	79.1478	5,277.83	79.8136	5,277.83	80.7515	5,277.83	81.2302	5,277.83	80.7514	5,277.83	81.66	5,277.83	78.997	5,277.83	80.8635	5,277.83	76.401	5,277.83	79.302	5,277.83	71.549	5,277.83	77.8092	5,277.83	68.7979	5,277.83	75.6904	5,277.83	69.5634	5,277.83	72.9075	5,277.83	68.4099	5,277.83	70.8292	5,277.83	65.555	5,277.83	68.8721	5,277.83	64.3697	5,277.83	68.4712	5,277.83	64.162	5,277.83	67.5709	5,277.83	66.894	5,277.83	68.9507	5,277.83	68.0215	5,277.83	67.8196	5,277.83	53.3029	5,277.83	65.8168	5,277.83	48.9249
5,463.87	81.2167	5,463.87	79.8971	5,463.87	81.4514	5,463.87	79.5197	5,463.87	80.8671	5,463.87	79.8924	5,463.87	80.4261	5,463.87	80.2958	5,463.87	80.7805	5,463.87	79.0604	5,463.87	81.4144	5,463.87	77.3402	5,463.87	80.7905	5,463.87	75.1774	5,463.87	79.0708	5,463.87	73.0742	5,463.87	77.2957	5,463.87	71.5459	5,463.87	74.4707	5,463.87	68.6229	5,463.87	72.2127	5,463.87	66.7886	5,463.87	69.7952	5,463.87	66.1067	5,463.87	67.9184	5,463.87	63.018	5,463.87	67.6786	5,463.87	68.5532	5,463.87	66.6853	5,463.87	67.3563	5,463.87	69.2166	5,463.87	67.8371	5,463.87	68.3639	5,463.87	50.2952	5,463.87	67.1043	5,463.87	52.9364
5,656.49	80.3741	5,656.49	80.6428	5,656.49	80.6815	5,656.49	79.9386	5,656.49	80.923	5,656.49	79.7921	5,656.49	80.0658	5,656.49	79.8939	5,656.49	80.5357	5,656.49	79.3411	5,656.49	81.1036	5,656.49	78.2886	5,656.49	79.9023	5,656.49	76.6515	5,656.49	78.5425	5,656.49	73.876	5,656.49	76.6696	5,656.49	71.4216	5,656.49	74.4349	5,656.49	69.8767	5,656.49	71.9417	5,656.49	64.1573	5,656.49	69.369	5,656.49	64.469	5,656.49	66.3405	5,656.49	64.355	5,656.49	67.0467	5,656.49	66.1691	5,656.49	64.5081	5,656.49	64.169	5,656.49	68.3427	5,656.49	63.3653	5,656.49	67.7749	5,656.49	52.0666	5,656.49	64.1311	5,656.49	56.8925
5,856.45	81.3325	5,856.45	81.1829	5,856.45	81.5765	5,856.45	81.2465	5,856.45	81.9915	5,856.45	81.0886	5,856.45	81.3977	5,856.45	80.2686	5,856.45	81.0015	5,856.45	79.1226	5,856.45	80.3408	5,856.45	77.6399	5,856.45	79.2657	5,856.45	75.9429	5,856.45	78.5871	5,856.45	73.2467	5,856.45	77.1487	5,856.45	71.6336	5,856.45	74.004	5,856.45	68.5629	5,856.45	70.4039	5,856.45	65.7262	5,856.45	70.6285	5,856.45	63.662	5,856.45	67.206	5,856.45	63.6698	5,856.45	65.3903	5,856.45	65.7199	5,856.45	65.4934	5,856.45	65.987	5,856.45	67.9759	5,856.45	64.2814	5,856.45	66.6587	5,856.45	46.5508	5,856.45	64.647	5,856.45	54.2933
6,062.99	80.9833	6,062.99	82.1248	6,062.99	81.6188	6,062.99	81.7275	6,062.99	82.4587	6,062.99	80.168	6,062.99	81.5929	6,062.99	79.4325	6,062.99	80.5979	6,062.99	78.4882	6,062.99	80.4081	6,062.99	78.0433	6,062.99	80.7012	6,062.99	76.9841	6,062.99	79.2867	6,062.99	75.3977	6,062.99	77.6126	6,062.99	72.9533	6,062.99	74.1548	6,062.99	69.7459	6,062.99	72.1549	6,062.99	66.3117	6,062.99	68.9761	6,062.99	64.6263	6,062.99	64.5622	6,062.99	64.7296	6,062.99	63.9145	6,062.99	65.4822	6,062.99	64.6176	6,062.99	65.2111	6,062.99	69.3485	6,062.99	62.8655	6,062.99	67.7302	6,062.99	50.6153	6,062.99	66.2037	6,062.99	51.0589
6,276.86	81.966	6,276.86	82.216	6,276.86	82.1042	6,276.86	81.1544	6,276.86	82.3163	6,276.86	79.863	6,276.86	81.1032	6,276.86	79.8707	6,276.86	80.7313	6,276.86	80.1554	6,276.86	81.7456	6,276.86	79.6594	6,276.86	81.1669	6,276.86	77.6257	6,276.86	79.725	6,276.86	75.4131	6,276.86	77.2917	6,276.86	71.7355	6,276.86	74.5421	6,276.86	67.5451	6,276.86	72.1245	6,276.86	67.3903	6,276.86	69.1102	6,276.86	63.2825	6,276.86	65.6275	6,276.86	62.2474	6,276.86	65.5234	6,276.86	65.9489	6,276.86	64.1225	6,276.86	65.995	6,276.86	67.9963	6,276.86	62.2723	6,276.86	67.446	6,276.86	53.9729	6,276.86	64.3498	6,276.86	53.118
6,498.05	82.6104	6,498.05	82.725	6,498.05	82.8122	6,498.05	81.1051	6,498.05	82.3839	6,498.05	79.9724	6,498.05	80.7764	6,498.05	80.8697	6,498.05	81.1384	6,498.05	81.1749	6,498.05	81.8289	6,498.05	79.8782	6,498.05	81.5426	6,498.05	77.0209	6,498.05	79.7698	6,498.05	74.5516	6,498.05	77.0098	6,498.05	70.6436	6,498.05	73.6934	6,498.05	67.4244	6,498.05	70.2044	6,498.05	66.0317	6,498.05	67.2357	6,498.05	62.1741	6,498.05	65.5546	6,498.05	59.7822	6,498.05	63.043	6,498.05	65.1048	6,498.05	62.5477	6,498.05	66.2789	6,498.05	67.5023	6,498.05	62.1081	6,498.05	65.8932	6,498.05	55.7967	6,498.05	62.904	6,498.05	51.4002
6,727.29	82.8957	6,727.29	82.8015	6,727.29	83.2278	6,727.29	81.1729	6,727.29	82.8446	6,727.29	79.7639	6,727.29	81.0099	6,727.29	80.4093	6,727.29	81.076	6,727.29	80.936	6,727.29	82.2442	6,727.29	79.4746	6,727.29	81.4529	6,727.29	76.7697	6,727.29	79.0993	6,727.29	73.4766	6,727.29	76.1662	6,727.29	69.4577	6,727.29	73.576	6,727.29	65.7784	6,727.29	70.6805	6,727.29	64.3299	6,727.29	68.5859	6,727.29	59.3513	6,727.29	66.0003	6,727.29	61.6937	6,727.29	63.9762	6,727.29	59.0132	6,727.29	61.6797	6,727.29	66.3358	6,727.29	67.3665	6,727.29	58.5992	6,727.29	67.3267	6,727.29	52.0943	6,727.29	61.1964	6,727.29	54.8092
6,964.6	82.8206	6,964.6	82.8381	6,964.6	83.0498	6,964.6	81.2293	6,964.6	82.9211	6,964.6	79.9504	6,964.6	81.4484	6,964.6	80.2554	6,964.6	81.1177	6,964.6	80.2632	6,964.6	81.3312	6,964.6	78.5154	6,964.6	80.6723	6,964.6	75.6201	6,964.6	78.8403	6,964.6	72.3952	6,964.6	76.5362	6,964.6	69.0972	6,964.6	73.3948	6,964.6	65.597	6,964.6	68.8315	6,964.6	63.2105	6,964.6	67.7039	6,964.6	57.1052	6,964.6	65.3798	6,964.6	61.5591	6,964.6	62.3534	6,964.6	62.2107	6,964.6	62.9943	6,964.6	65.4377	6,964.6	66.5105	6,964.6	60.8668	6,964.6	67.3013	6,964.6	56.4343	6,964.6	59.8893	6,964.6	56.0121
7,209.96	82.5605	7,209.96	82.4904	7,209.96	82.846	7,209.96	81.1626	7,209.96	82.8453	7,209.96	80.3024	7,209.96	81.6351	7,209.96	80.1103	7,209.96	80.9104	7,209.96	79.5791	7,209.96	81.0947	7,209.96	77.4103	7,209.96	80.3524	7,209.96	74.8597	7,209.96	77.9645	7,209.96	71.421	7,209.96	75.8741	7,209.96	68.7726	7,209.96	72.2374	7,209.96	64.7475	7,209.96	68.7324	7,209.96	62.1322	7,209.96	67.2344	7,209.96	56.6408	7,209.96	64.193	7,209.96	59.2873	7,209.96	60.008	7,209.96	59.2852	7,209.96	62.3982	7,209.96	64.3641	7,209.96	64.3093	7,209.96	60.4852	7,209.96	66.133	7,209.96	56.2582	7,209.96	59.0325	7,209.96	54.8805
7,464.11	82.3718	7,464.11	82.5442	7,464.11	82.4335	7,464.11	81.4283	7,464.11	82.9397	7,464.11	80.536	7,464.11	81.9539	7,464.11	79.698	7,464.11	80.701	7,464.11	78.0559	7,464.11	80.1926	7,464.11	76.5212	7,464.11	79.2616	7,464.11	74.1152	7,464.11	77.7289	7,464.11	72.3301	7,464.11	75.1197	7,464.11	69.3559	7,464.11	71.3789	7,464.11	64.8483	7,464.11	68.7898	7,464.11	62.4439	7,464.11	66.0948	7,464.11	56.3901	7,464.11	63.8474	7,464.11	56.3191	7,464.11	57.6741	7,464.11	61.8934	7,464.11	61.2081	7,464.11	64.4423	7,464.11	62.2681	7,464.11	58.1625	7,464.11	65.7043	7,464.11	51.1996	7,464.11	59.0533	7,464.11	55.6299
7,727.78	83.1117	7,727.78	82.8629	7,727.78	83.0266	7,727.78	81.7372	7,727.78	83.1716	7,727.78	80.5212	7,727.78	82.0969	7,727.78	78.8889	7,727.78	80.4534	7,727.78	78.2086	7,727.78	79.7135	7,727.78	77.4332	7,727.78	79.1463	7,727.78	75.6369	7,727.78	77.7463	7,727.78	72.7054	7,727.78	74.8577	7,727.78	69.1908	7,727.78	72.034	7,727.78	65.5221	7,727.78	70.2445	7,727.78	63.2345	7,727.78	65.3369	7,727.78	59.2749	7,727.78	62.093	7,727.78	50.9306	7,727.78	57.5475	7,727.78	58.6745	7,727.78	62.5832	7,727.78	63.5958	7,727.78	63.5269	7,727.78	55.4447	7,727.78	64.5341	7,727.78	51.0065	7,727.78	56.6967	7,727.78	50.8707
8,000.24	83.7949	8,000.24	83.3821	8,000.24	83.7053	8,000.24	82.553	8,000.24	83.5106	8,000.24	80.9693	8,000.24	82.5284	8,000.24	78.9459	8,000.24	80.7888	8,000.24	78.546	8,000.24	79.7204	8,000.24	77.9726	8,000.24	79.2649	8,000.24	75.0577	8,000.24	77.6369	8,000.24	71.6249	8,000.24	74.2031	8,000.24	67.6728	8,000.24	72.2884	8,000.24	66.0549	8,000.24	68.1921	8,000.24	61.4107	8,000.24	64.0091	8,000.24	61.6858	8,000.24	62.8717	8,000.24	51.7842	8,000.24	54.0371	8,000.24	59.4187	8,000.24	60.4917	8,000.24	63.6974	8,000.24	59.9981	8,000.24	55.8338	8,000.24	65.1237	8,000.24	48.388	8,000.24	56.8683	8,000.24	51.9142
8,282.23	84.3086	8,282.23	83.7695	8,282.23	84.3819	8,282.23	83.3338	8,282.23	84.1177	8,282.23	81.7585	8,282.23	83.1628	8,282.23	79.7301	8,282.23	81.2677	8,282.23	78.868	8,282.23	79.9731	8,282.23	77.9638	8,282.23	79.3986	8,282.23	75.1046	8,282.23	77.7005	8,282.23	70.7278	8,282.23	74.6062	8,282.23	67.2934	8,282.23	71.4878	8,282.23	65.6711	8,282.23	67.035	8,282.23	60.8414	8,282.23	64.7425	8,282.23	60.0899	8,282.23	62.935	8,282.23	57.1946	8,282.23	55.7823	8,282.23	57.2413	8,282.23	59.4921	8,282.23	62.9793	8,282.23	60.4056	8,282.23	53.9075	8,282.23	64.7798	8,282.23	51.9073	8,282.23	51.7841	8,282.23	52.0497
8,574.46	84.6309	8,574.46	84.0056	8,574.46	84.621	8,574.46	83.3645	8,574.46	84.2772	8,574.46	81.7882	8,574.46	83.2914	8,574.46	79.8147	8,574.46	81.1461	8,574.46	78.7621	8,574.46	80.0431	8,574.46	77.8072	8,574.46	79.4886	8,574.46	74.1442	8,574.46	77.4956	8,574.46	70.722	8,574.46	74.7006	8,574.46	66.2903	8,574.46	70.6509	8,574.46	64.9334	8,574.46	65.788	8,574.46	59.9017	8,574.46	63.9582	8,574.46	61.4385	8,574.46	60.5205	8,574.46	57.8576	8,574.46	56.0235	8,574.46	57.0694	8,574.46	59.4747	8,574.46	62.5156	8,574.46	59.0795	8,574.46	52.9584	8,574.46	65.0272	8,574.46	51.5965	8,574.46	52.5506	8,574.46	53.476
8,876.22	84.7032	8,876.22	83.9733	8,876.22	84.5798	8,876.22	83.2959	8,876.22	84.1075	8,876.22	81.749	8,876.22	83.152	8,876.22	79.6993	8,876.22	81.1099	8,876.22	78.544	8,876.22	79.8527	8,876.22	77.0002	8,876.22	78.8914	8,876.22	73.5585	8,876.22	76.8424	8,876.22	70.5572	8,876.22	73.4313	8,876.22	65.654	8,876.22	68.8393	8,876.22	64.2748	8,876.22	65.5689	8,876.22	59.9484	8,876.22	64.1302	8,876.22	58.5758	8,876.22	60.2527	8,876.22	53.3215	8,876.22	56.4337	8,876.22	56.1136	8,876.22	57.2441	8,876.22	59.6496	8,876.22	55.502	8,876.22	45.9435	8,876.22	63.3588	8,876.22	47.397	8,876.22	53.9677	8,876.22	51.784
9,189.7	84.661	9,189.7	84.0002	9,189.7	84.3964	9,189.7	83.0753	9,189.7	83.8727	9,189.7	81.1549	9,189.7	82.7106	9,189.7	79.4179	9,189.7	80.679	9,189.7	78.0648	9,189.7	79.6242	9,189.7	76.1557	9,189.7	78.1336	9,189.7	73.5536	9,189.7	76.0172	9,189.7	70.3349	9,189.7	72.5909	9,189.7	66.1017	9,189.7	68.8791	9,189.7	63.8045	9,189.7	65.3292	9,189.7	59.7178	9,189.7	63.3449	9,189.7	60.4947	9,189.7	59.8791	9,189.7	56.7478	9,189.7	58.0839	9,189.7	54.5332	9,189.7	58.5299	9,189.7	59.6434	9,189.7	51.3105	9,189.7	37.3865	9,189.7	62.0929	9,189.7	45.8568	9,189.7	49.7463	9,189.7	45.5465
9,513.43	84.3827	9,513.43	83.8133	9,513.43	84.1282	9,513.43	82.8628	9,513.43	83.6971	9,513.43	80.8686	9,513.43	82.6496	9,513.43	79.1428	9,513.43	80.6723	9,513.43	77.1011	9,513.43	79.2211	9,513.43	75.28	9,513.43	77.3215	9,513.43	72.4311	9,513.43	75.0131	9,513.43	69.3174	9,513.43	72.7661	9,513.43	65.9272	9,513.43	69.6622	9,513.43	63.7383	9,513.43	64.5024	9,513.43	58.8914	9,513.43	63.9014	9,513.43	58.2745	9,513.43	60.2759	9,513.43	56.2411	9,513.43	57.4055	9,513.43	48.1488	9,513.43	56.7626	9,513.43	57.9847	9,513.43	53.2953	9,513.43	51.0052	9,513.43	61.4789	9,513.43	48.1931	9,513.43	50.2648	9,513.43	39.8731
9,848.88	84.4286	9,848.88	83.7989	9,848.88	84.4262	9,848.88	82.7595	9,848.88	83.8276	9,848.88	81.072	9,848.88	82.2607	9,848.88	79.4326	9,848.88	80.4325	9,848.88	76.5806	9,848.88	78.6705	9,848.88	74.9536	9,848.88	76.3039	9,848.88	71.8881	9,848.88	75.132	9,848.88	69.8887	9,848.88	73.3865	9,848.88	66.6822	9,848.88	69.152	9,848.88	62.1538	9,848.88	64.8209	9,848.88	60.006	9,848.88	62.4581	9,848.88	59.191	9,848.88	59.2676	9,848.88	58.9545	9,848.88	56.6088	9,848.88	38.4248	9,848.88	56.3052	9,848.88	57.0896	9,848.88	53.5488	9,848.88	38.3907	9,848.88	59.9245	9,848.88	47.6373	9,848.88	49.9851	9,848.88	45.1557
10,196.8	84.5673	10,196.8	84.0446	10,196.8	84.5872	10,196.8	82.8277	10,196.8	83.9665	10,196.8	81.2796	10,196.8	82.2121	10,196.8	79.3021	10,196.8	80.5003	10,196.8	76.3089	10,196.8	78.4796	10,196.8	75.3	10,196.8	76.4638	10,196.8	72.4807	10,196.8	75.3159	10,196.8	70.6263	10,196.8	72.806	10,196.8	66.6619	10,196.8	68.2363	10,196.8	61.9083	10,196.8	65.3584	10,196.8	59.8981	10,196.8	60.2794	10,196.8	56.6456	10,196.8	57.2049	10,196.8	58.2013	10,196.8	56.328	10,196.8	46.9187	10,196.8	56.2668	10,196.8	56.8705	10,196.8	49.6664	10,196.8	40.5879	10,196.8	59.7529	10,196.8	47.7874	10,196.8	48.6691	10,196.8	49.0265
10,556.4	84.7189	10,556.4	84.1906	10,556.4	84.5322	10,556.4	82.8181	10,556.4	83.904	10,556.4	81.1469	10,556.4	82.3469	10,556.4	78.6195	10,556.4	80.4355	10,556.4	76.0076	10,556.4	77.9094	10,556.4	75.2124	10,556.4	76.2772	10,556.4	72.0551	10,556.4	74.7689	10,556.4	70.3877	10,556.4	71.8044	10,556.4	66.0889	10,556.4	68.7494	10,556.4	62.4603	10,556.4	65.1807	10,556.4	59.8573	10,556.4	61.7972	10,556.4	56.4434	10,556.4	58.8706	10,556.4	55.8308	10,556.4	56.5791	10,556.4	40.8636	10,556.4	54.3472	10,556.4	57.6063	10,556.4	50.5275	10,556.4	49.3715	10,556.4	58.5195	10,556.4	43.1152	10,556.4	51.2582	10,556.4	42.414
10,928.5	84.664	10,928.5	84.1529	10,928.5	84.3515	10,928.5	82.4946	10,928.5	83.6352	10,928.5	80.6576	10,928.5	81.9885	10,928.5	77.736	10,928.5	79.8256	10,928.5	75.7101	10,928.5	77.3415	10,928.5	74.7555	10,928.5	75.9922	10,928.5	71.27	10,928.5	73.8087	10,928.5	70.1542	10,928.5	71.0969	10,928.5	66.3453	10,928.5	69.4154	10,928.5	62.9283	10,928.5	65.0623	10,928.5	61.1304	10,928.5	62.1365	10,928.5	56.9816	10,928.5	59.5678	10,928.5	55.905	10,928.5	55.8441	10,928.5	49.1254	10,928.5	55.5686	10,928.5	57.2002	10,928.5	50.3946	10,928.5	53.1135	10,928.5	58.1452	10,928.5	44.1241	10,928.5	46.4263	10,928.5	46.8891
11,313.7	84.3656	11,313.7	83.7154	11,313.7	84.0494	11,313.7	81.9305	11,313.7	83.2807	11,313.7	80.121	11,313.7	81.3392	11,313.7	77.2166	11,313.7	79.0683	11,313.7	75.5267	11,313.7	77.1542	11,313.7	74.1233	11,313.7	75.3661	11,313.7	70.6994	11,313.7	73.659	11,313.7	70.9041	11,313.7	72.1289	11,313.7	66.1872	11,313.7	69.8723	11,313.7	63.5406	11,313.7	66.1698	11,313.7	61.4436	11,313.7	61.6838	11,313.7	57.2794	11,313.7	59.346	11,313.7	56.9566	11,313.7	57.0819	11,313.7	54.4395	11,313.7	56.3653	11,313.7	57.2439	11,313.7	49.1812	11,313.7	55.7648	11,313.7	59.0048	11,313.7	42.2656	11,313.7	47.1255	11,313.7	50.3431
11,712.9	83.66	11,712.9	83.0305	11,712.9	83.3762	11,712.9	81.2329	11,712.9	82.6284	11,712.9	78.9448	11,712.9	80.4713	11,712.9	76.3879	11,712.9	78.1556	11,712.9	74.299	11,712.9	76.5284	11,712.9	73.8915	11,712.9	74.6923	11,712.9	71.2554	11,712.9	74.1593	11,712.9	71.6798	11,712.9	72.3451	11,712.9	66.1851	11,712.9	69.709	11,712.9	63.2662	11,712.9	66.4935	11,712.9	61.2435	11,712.9	61.3859	11,712.9	57.0054	11,712.9	58.6615	11,712.9	59.4477	11,712.9	59.0096	11,712.9	54.5791	11,712.9	55.451	11,712.9	56.996	11,712.9	49.2331	11,712.9	57.905	11,712.9	59.4165	11,712.9	30.1778	11,712.9	48.2123	11,712.9	50.5461
12,126	83.1943	12,126	82.5586	12,126	82.7016	12,126	80.3707	12,126	81.8563	12,126	77.8011	12,126	79.4816	12,126	75.7351	12,126	76.9755	12,126	73.1334	12,126	75.5141	12,126	73.9467	12,126	74.3278	12,126	71.5352	12,126	74.1642	12,126	71.3031	12,126	72.1376	12,126	66.0963	12,126	69.6645	12,126	62.6335	12,126	65.9557	12,126	60.9986	12,126	60.7977	12,126	54.5058	12,126	58.205	12,126	57.1317	12,126	58.8141	12,126	51.6348	12,126	54.9153	12,126	56.6306	12,126	51.2045	12,126	57.8232	12,126	57.7683	12,126	37.983	12,126	50.4275	12,126	49.5185
12,553.7	83.0759	12,553.7	82.1817	12,553.7	82.538	12,553.7	79.839	12,553.7	81.6407	12,553.7	77.6296	12,553.7	79.0453	12,553.7	75.3672	12,553.7	76.8431	12,553.7	73.3632	12,553.7	75.223	12,553.7	73.8903	12,553.7	74.7412	12,553.7	70.852	12,553.7	73.5578	12,553.7	70.5873	12,553.7	72.2184	12,553.7	65.4948	12,553.7	69.7539	12,553.7	62.0213	12,553.7	65.3817	12,553.7	60.3739	12,553.7	60.2751	12,553.7	53.2159	12,553.7	59.318	12,553.7	57.0938	12,553.7	56.904	12,553.7	54.5055	12,553.7	55.1148	12,553.7	55.9442	12,553.7	52.279	12,553.7	58.5101	12,553.7	56.3165	12,553.7	45.1286	12,553.7	50.8812	12,553.7	46.8471
12,996.1	82.4679	12,996.1	81.6745	12,996.1	82.1069	12,996.1	79.3344	12,996.1	81.2411	12,996.1	77.3436	12,996.1	78.6068	12,996.1	75.079	12,996.1	76.9837	12,996.1	74.1395	12,996.1	75.5262	12,996.1	73.7978	12,996.1	74.8561	12,996.1	71.0855	12,996.1	73.2289	12,996.1	70.2367	12,996.1	72.2514	12,996.1	65.3123	12,996.1	69.5266	12,996.1	61.4791	12,996.1	64.8375	12,996.1	60.1218	12,996.1	59.7081	12,996.1	51.5414	12,996.1	58.6427	12,996.1	58.0216	12,996.1	56.4334	12,996.1	56.0096	12,996.1	54.8809	12,996.1	55.1099	12,996.1	56.3257	12,996.1	57.4886	12,996.1	54.6578	12,996.1	44.9398	12,996.1	51.5615	12,996.1	51.4394
13,454.6	82.2329	13,454.6	81.3429	13,454.6	81.9316	13,454.6	79.0139	13,454.6	80.8783	13,454.6	77.2495	13,454.6	78.2739	13,454.6	74.8941	13,454.6	76.5969	13,454.6	73.8567	13,454.6	75.2184	13,454.6	73.2832	13,454.6	73.9755	13,454.6	70.9523	13,454.6	72.6837	13,454.6	69.4534	13,454.6	71.6939	13,454.6	65.4004	13,454.6	68.3918	13,454.6	59.0551	13,454.6	63.6175	13,454.6	59.0204	13,454.6	57.6116	13,454.6	43.6612	13,454.6	57.0202	13,454.6	56.3879	13,454.6	56.0544	13,454.6	55.7351	13,454.6	52.8999	13,454.6	52.9772	13,454.6	56.3198	13,454.6	55.8001	13,454.6	53.5095	13,454.6	47.3837	13,454.6	47.8773	13,454.6	50.1921
13,928.5	82.2729	13,928.5	81.3599	13,928.5	81.8687	13,928.5	79.1257	13,928.5	80.7754	13,928.5	77.2934	13,928.5	78.0433	13,928.5	74.9552	13,928.5	76.2118	13,928.5	73.943	13,928.5	74.7644	13,928.5	72.9122	13,928.5	73.6104	13,928.5	70.3396	13,928.5	72.2324	13,928.5	68.9441	13,928.5	71.5627	13,928.5	65.1855	13,928.5	66.7772	13,928.5	55.8797	13,928.5	62.5661	13,928.5	57.9234	13,928.5	53.2684	13,928.5	42.4841	13,928.5	54.7829	13,928.5	52.9123	13,928.5	54.4515	13,928.5	53.0516	13,928.5	50.9897	13,928.5	50.3078	13,928.5	55.4437	13,928.5	54.348	13,928.5	53.4243	13,928.5	47.491	13,928.5	45.5008	13,928.5	48.0191
14,419.9	82.5376	14,419.9	81.526	14,419.9	82.1337	14,419.9	79.2838	14,419.9	81.0318	14,419.9	77.3606	14,419.9	78.4351	14,419.9	75.2397	14,419.9	76.8027	14,419.9	73.4921	14,419.9	74.6455	14,419.9	72.0017	14,419.9	73.0417	14,419.9	68.9548	14,419.9	71.0106	14,419.9	67.42	14,419.9	70.0247	14,419.9	63.9873	14,419.9	63.9708	14,419.9	52.855	14,419.9	61.3946	14,419.9	56.5766	14,419.9	50.2572	14,419.9	39.7445	14,419.9	53.1953	14,419.9	52.331	14,419.9	50.1848	14,419.9	50.8865	14,419.9	46.518	14,419.9	48.3473	14,419.9	51.5299	14,419.9	51.6251	14,419.9	50.4825	14,419.9	44.9277	14,419.9	41.2241	14,419.9	49.3689
14,928.2	82.8685	14,928.2	81.8176	14,928.2	82.4906	14,928.2	79.5495	14,928.2	81.3446	14,928.2	77.7609	14,928.2	78.9287	14,928.2	75.1108	14,928.2	77.0488	14,928.2	72.8944	14,928.2	74.2539	14,928.2	70.7542	14,928.2	72.3317	14,928.2	67.2593	14,928.2	70.0274	14,928.2	66.1964	14,928.2	68.7439	14,928.2	63.0018	14,928.2	62.8294	14,928.2	49.0317	14,928.2	61.5933	14,928.2	56.0271	14,928.2	48.2356	14,928.2	46.2983	14,928.2	52.9908	14,928.2	49.2612	14,928.2	48.4947	14,928.2	49.4362	14,928.2	48.1909	14,928.2	45.0797	14,928.2	51.1788	14,928.2	51.2243	14,928.2	50.8062	14,928.2	44.7884	14,928.2	42.4933	14,928.2	46.8387
15,454.8	83.2066	15,454.8	82.0448	15,454.8	82.9528	15,454.8	79.8868	15,454.8	81.7345	15,454.8	78.1762	15,454.8	79.223	15,454.8	74.8223	15,454.8	76.8867	15,454.8	72.6306	15,454.8	73.9459	15,454.8	69.2867	15,454.8	71.3929	15,454.8	66.4715	15,454.8	68.9288	15,454.8	66.0485	15,454.8	67.5594	15,454.8	61.958	15,454.8	60.9748	15,454.8	51.3112	15,454.8	61.0116	15,454.8	55.1189	15,454.8	45.95	15,454.8	46.6747	15,454.8	51.931	15,454.8	46.8163	15,454.8	46.6329	15,454.8	47.7312	15,454.8	41.7917	15,454.8	41.1781	15,454.8	51.3649	15,454.8	52.3104	15,454.8	50.3565	15,454.8	47.757	15,454.8	40.2273	15,454.8	46.9598
15,999.8	83.2431	15,999.8	82.0946	15,999.8	82.9742	15,999.8	80.0622	15,999.8	81.7096	15,999.8	78.1614	15,999.8	79.084	15,999.8	74.59	15,999.8	76.5966	15,999.8	71.7548	15,999.8	72.9343	15,999.8	68.3375	15,999.8	69.8861	15,999.8	65.4102	15,999.8	67.6962	15,999.8	65.4547	15,999.8	65.4937	15,999.8	60.5761	15,999.8	59.3508	15,999.8	53.0839	15,999.8	60.6176	15,999.8	54.0582	15,999.8	42.0587	15,999.8	46.2735	15,999.8	50.4716	15,999.8	46.5847	15,999.8	45.5938	15,999.8	45.7566	15,999.8	36.578	15,999.8	39.4247	15,999.8	46.2302	15,999.8	51.1723	15,999.8	49.2856	15,999.8	48.9049	15,999.8	26.7682	15,999.8	45.4829
16,564.5	83.1322	16,564.5	82.0047	16,564.5	82.8671	16,564.5	79.9723	16,564.5	81.4787	16,564.5	77.8964	16,564.5	78.8118	16,564.5	73.6434	16,564.5	75.965	16,564.5	70.3312	16,564.5	71.4338	16,564.5	66.9554	16,564.5	68.5171	16,564.5	62.7097	16,564.5	65.9564	16,564.5	64.0612	16,564.5	62.3696	16,564.5	58.1711	16,564.5	60.126	16,564.5	53.8886	16,564.5	60.2881	16,564.5	52.2976	16,564.5	44.84	16,564.5	46.1948	16,564.5	50.7423	16,564.5	43.6254	16,564.5	47.1952	16,564.5	45.7775	16,564.5	33.0159	16,564.5	34.7414	16,564.5	47.1694	16,564.5	51.9162	16,564.5	48.1369	16,564.5	49.1647	16,564.5	38.7177	16,564.5	44.4538
17,148.2	83.195	17,148.2	82.088	17,148.2	82.9348	17,148.2	80.0334	17,148.2	81.4879	17,148.2	77.5196	17,148.2	78.7145	17,148.2	72.5903	17,148.2	75.4121	17,148.2	69.2363	17,148.2	70.2824	17,148.2	64.6904	17,148.2	67.54	17,148.2	61.8585	17,148.2	64.2411	17,148.2	63.676	17,148.2	61.8351	17,148.2	57.3082	17,148.2	62.2773	17,148.2	54.6494	17,148.2	60.3397	17,148.2	50.6771	17,148.2	50.5377	17,148.2	44.7556	17,148.2	51.3957	17,148.2	39.0605	17,148.2	49.5201	17,148.2	44.8688	17,148.2	11.6759	17,148.2	35.7381	17,148.2	48.8372	17,148.2	51.563	17,148.2	47.2927	17,148.2	51.5786	17,148.2	40.4622	17,148.2	45.6238
17,753.2	83.3189	17,753.2	82.1802	17,753.2	83.0244	17,753.2	80.0176	17,753.2	81.4053	17,753.2	77.1605	17,753.2	78.4632	17,753.2	71.8749	17,753.2	74.6911	17,753.2	68.3075	17,753.2	69.4191	17,753.2	63.5668	17,753.2	66.4373	17,753.2	62.231	17,753.2	64.3596	17,753.2	63.2574	17,753.2	62.1471	17,753.2	56.3065	17,753.2	62.8109	17,753.2	53.5622	17,753.2	60.163	17,753.2	49.5106	17,753.2	51.652	17,753.2	43.7311	17,753.2	50.9811	17,753.2	33.0434	17,753.2	48.9901	17,753.2	42.2781	17,753.2	39.6113	17,753.2	39.4972	17,753.2	50.0591	17,753.2	49.6727	17,753.2	45.805	17,753.2	51.2021	17,753.2	34.882	17,753.2	43.7064
18,379.4	83.0631	18,379.4	81.9162	18,379.4	82.6304	18,379.4	79.5931	18,379.4	80.8809	18,379.4	76.3855	18,379.4	77.8488	18,379.4	70.8733	18,379.4	73.7514	18,379.4	66.8303	18,379.4	68.6169	18,379.4	63.0154	18,379.4	66.1481	18,379.4	61.4254	18,379.4	64.8186	18,379.4	62.3107	18,379.4	62.8279	18,379.4	55.5637	18,379.4	63.5486	18,379.4	54.0343	18,379.4	60.2768	18,379.4	46.7893	18,379.4	52.3048	18,379.4	43.9281	18,379.4	49.7717	18,379.4	37.2938	18,379.4	48.0043	18,379.4	36.111	18,379.4	41.4448	18,379.4	41.0601	18,379.4	51.4969	18,379.4	47.7179	18,379.4	44.9468	18,379.4	51.0445	18,379.4	31.152	18,379.4	40.1367
19,027.6	82.4748	19,027.6	81.2107	19,027.6	82.0728	19,027.6	78.8044	19,027.6	80.2816	19,027.6	75.3891	19,027.6	77.0369	19,027.6	69.7976	19,027.6	72.8176	19,027.6	66.3049	19,027.6	68.6654	19,027.6	63.2638	19,027.6	66.6139	19,027.6	61.3469	19,027.6	65.2366	19,027.6	62.7381	19,027.6	63.9641	19,027.6	56.3861	19,027.6	63.6104	19,027.6	54.8804	19,027.6	60.9536	19,027.6	46.4695	19,027.6	53.6093	19,027.6	43.6502	19,027.6	49.3462	19,027.6	39.6397	19,027.6	49.201	19,027.6	29.9302	19,027.6	42.7826	19,027.6	42.6423	19,027.6	52.6708	19,027.6	45.6362	19,027.6	41.5385	19,027.6	49.6781	19,027.6	38.5409	19,027.6	42.6819
19,698.5	82.3768	19,698.5	81.0858	19,698.5	81.8566	19,698.5	78.4689	19,698.5	79.9954	19,698.5	74.991	19,698.5	76.6129	19,698.5	69.4867	19,698.5	72.9272	19,698.5	66.3631	19,698.5	69.2888	19,698.5	62.6682	19,698.5	66.7379	19,698.5	60.6556	19,698.5	65.8594	19,698.5	62.0994	19,698.5	63.8968	19,698.5	55.3952	19,698.5	63.3086	19,698.5	53.9981	19,698.5	60.5946	19,698.5	45.6457	19,698.5	53.4367	19,698.5	45.2825	19,698.5	49.5774	19,698.5	34.5567	19,698.5	49.3509	19,698.5	31.333	19,698.5	44.2218	19,698.5	40.9667	19,698.5	53.1587	19,698.5	40.8205	19,698.5	35.7782	19,698.5	50.2918	19,698.5	38.9913	19,698.5	45.5916
19,999.5	82.1739	19,999.5	80.9195	19,999.5	81.7742	19,999.5	78.4158	19,999.5	80.061	19,999.5	74.8234	19,999.5	76.4853	19,999.5	69.5031	19,999.5	72.9383	19,999.5	66.2189	19,999.5	69.6983	19,999.5	62.5056	19,999.5	66.693	19,999.5	61.1349	19,999.5	66.1259	19,999.5	62.0296	19,999.5	63.9657	19,999.5	54.382	19,999.5	62.9033	19,999.5	51.7945	19,999.5	61.0406	19,999.5	43.6787	19,999.5	54.0383	19,999.5	46.1375	19,999.5	49.9558	19,999.5	27.1343	19,999.5	52.8043	19,999.5	45.3627	19,999.5	49.8374	19,999.5	35.987	19,999.5	55.3833	19,999.5	41.3897	19,999.5	43.0351	19,999.5	50.581	19,999.5	43.5515	19,999.5	43.8077
