"Vertical Reflections"					
"Floor Reflection"		"Ceiling Reflection"		"Total Vertical Reflection"	
"Frequency [Hz]"	"Sound Pessure Level [dB]  / [2.83V 1m] "	"Frequency [Hz]"	"Sound Pessure Level [dB]  / [2.83V 1m] "	"Frequency [Hz]"	"Sound Pessure Level [dB]  / [2.83V 1m] "
20.5078	60.1055	20.5078	59.4223	20.5078	59.7773
21.2402	60.2487	21.2402	59.4954	21.2402	59.8883
21.9727	61.2405	21.9727	60.5233	21.9727	60.8967
22.7051	61.4447	22.7051	60.7485	22.7051	61.1105
23.4375	62.404	23.4375	61.69	23.4375	62.0617
24.1699	62.905	24.1699	62.2022	24.1699	62.5678
25.6348	63.7043	25.6348	62.9899	25.6348	63.3618
26.3672	64.2028	26.3672	63.4812	26.3672	63.8569
27.0996	64.7344	27.0996	64.0318	27.0996	64.3973
27.832	65.1827	27.832	64.4633	27.832	64.8379
29.2969	65.955	29.2969	65.2214	29.2969	65.6037
30.0293	66.3633	30.0293	65.6404	30.0293	66.0169
31.4941	67.3072	31.4941	66.6023	31.4941	66.969
32.2266	67.6984	32.2266	66.9696	32.2266	67.3493
33.6914	68.3651	33.6914	67.666	33.6914	68.0296
34.4238	68.8548	34.4238	68.1628	34.4238	68.5226
35.8887	69.462	35.8887	68.7416	35.8887	69.1167
37.3535	70.2741	37.3535	69.5298	37.3535	69.9179
38.8184	70.862	38.8184	70.1047	38.8184	70.4998
39.5508	71.1764	39.5508	70.4306	39.5508	70.8195
41.0156	71.8308	41.0156	71.0878	41.0156	71.4752
42.4805	72.5508	42.4805	71.8054	42.4805	72.1941
43.9453	73.2542	43.9453	72.5002	43.9453	72.8935
45.4102	73.7564	45.4102	73.0073	45.4102	73.398
47.6074	74.7517	47.6074	73.9938	47.6074	74.3893
49.0723	75.4397	49.0723	74.6833	49.0723	75.078
50.5371	75.9188	50.5371	75.1501	50.5371	75.5514
52.7344	76.7515	52.7344	76.0069	52.7344	76.3952
54.1992	77.2626	54.1992	76.5084	54.1992	76.9018
56.3965	78.0967	56.3965	77.3354	56.3965	77.7327
58.5938	78.8734	58.5938	78.1183	58.5938	78.5122
60.0586	79.3831	60.0586	78.6317	60.0586	79.0236
62.2559	80.1121	62.2559	79.3543	62.2559	79.7497
64.4531	80.899	64.4531	80.1017	64.4531	80.5186
66.6504	81.4507	66.6504	80.6574	66.6504	81.0721
69.5801	82.4594	69.5801	81.6124	69.5801	82.0565
71.7773	82.9287	71.7773	82.0943	71.7773	82.5315
73.9746	83.4783	73.9746	82.6729	73.9746	83.0942
76.9043	83.9764	76.9043	83.1647	76.9043	83.5895
79.834	84.6165	79.834	83.7567	79.834	84.2079
82.7637	85.2095	82.7637	84.3908	82.7637	84.8194
85.6934	85.4969	85.6934	84.6514	85.6934	85.0947
88.623	85.5729	88.623	84.7305	88.623	85.1721
91.5527	84.7931	91.5527	84.0204	91.5527	84.4239
94.4824	86.184	94.4824	85.3042	94.4824	85.7664
98.1445	85.7471	98.1445	84.8423	98.1445	85.3182
101.807	85.7292	101.807	84.8429	101.807	85.3086
105.469	85.6521	105.469	84.7333	105.469	85.217
109.131	85.5185	109.131	84.5647	109.131	85.0677
112.793	85.5395	112.793	84.5514	112.793	85.0734
116.455	85.4538	116.455	84.6194	116.455	85.0566
120.85	85.3217	120.85	84.4896	120.85	84.9256
125.244	84.9198	125.244	84.0127	125.244	84.4899
129.639	84.2952	129.639	83.5649	129.639	83.9454
134.033	84.4977	134.033	83.6043	134.033	84.0739
138.428	84.3007	138.428	83.4137	138.428	83.8798
143.555	84.1135	143.555	83.2239	143.555	83.6914
148.682	83.8517	148.682	82.9026	148.682	83.403
153.809	83.7285	153.809	82.6963	153.809	83.243
159.668	83.7944	159.668	82.7245	159.668	83.2923
164.795	83.3828	164.795	82.5342	164.795	82.9792
170.654	82.839	170.654	82.1625	170.654	82.5139
176.514	82.7383	176.514	81.8297	176.514	82.3077
183.105	82.9026	183.105	81.5863	183.105	82.2942
189.697	82.8785	189.697	81.6591	189.697	82.3115
196.289	82.8437	196.289	81.7814	196.289	82.345
202.881	82.6591	202.881	81.4944	202.881	82.1157
210.205	82.5064	210.205	81.3457	210.205	81.9647
217.529	82.3663	217.529	81.2288	217.529	81.8347
225.586	82.1763	225.586	80.9457	225.586	81.6044
232.91	82.1266	232.91	81.0097	232.91	81.6039
241.699	82.0689	241.699	80.7953	241.699	81.4786
249.756	82.0959	249.756	80.4417	249.756	81.3471
258.545	82.3726	258.545	80.7896	258.545	81.6528
268.066	81.9589	268.066	80.2213	268.066	81.1764
277.588	82.0212	277.588	80.2591	277.588	81.2289
287.109	82.1468	287.109	80.5128	287.109	81.4062
297.363	82.1632	297.363	80.5623	297.363	81.4361
307.617	82.2139	307.617	80.6436	307.617	81.4993
318.604	82.0705	318.604	80.2781	318.604	81.2661
329.59	82.1052	329.59	80.2497	329.59	81.2758
341.309	81.9085	341.309	80.0965	341.309	81.0963
353.76	82.0797	353.76	80.0406	353.76	81.1787
366.211	82.125	366.211	80.1994	366.211	81.2681
378.662	82.2999	378.662	80.5192	378.662	81.5002
392.578	81.8895	392.578	80.0715	392.578	81.075
405.762	81.4256	405.762	79.5826	405.762	80.6011
420.41	82.1642	420.41	80.1761	420.41	81.2829
435.059	82.2243	435.059	80.4778	435.059	81.4383
450.439	82.9057	450.439	80.7503	450.439	81.9604
466.553	82.8094	466.553	81.0443	466.553	82.0159
482.666	82.7986	482.666	80.7481	482.666	81.8933
500.244	82.6033	500.244	80.8994	500.244	81.8344
517.822	82.497	517.822	80.9017	517.822	81.7722
536.133	82.0048	536.133	79.9334	536.133	81.0914
554.443	82.5434	554.443	79.7175	554.443	81.3563
574.219	82.6516	574.219	80.2869	574.219	81.6282
594.727	82.1659	594.727	79.9245	594.727	81.1882
615.234	82.3428	615.234	79.575	615.234	81.1757
637.207	82.7616	637.207	79.7123	637.207	81.4992
659.912	82.7796	659.912	79.7669	659.912	81.5294
683.35	82.731	683.35	79.3326	683.35	81.3561
706.787	83.3499	706.787	79.5276	706.787	81.8463
731.689	83.4892	731.689	80.5347	731.689	82.2585
758.057	83.8186	758.057	80.7836	758.057	82.561
784.424	84.6846	784.424	81.9329	784.424	83.5231
812.256	84.6547	812.256	82.3507	812.256	83.6537
840.82	85.1755	840.82	82.5842	840.82	84.0703
870.85	84.7303	870.85	82.42	870.85	83.727
901.611	84.8409	901.611	82.4045	901.611	83.7914
933.105	84.1124	933.105	82.0155	933.105	83.1893
966.064	83.5265	966.064	81.3165	966.064	82.5606
999.756	81.9094	999.756	79.5662	999.756	80.8939
1,034.91	80.1328	1,034.91	78.8013	1,034.91	79.5179
1,071.53	78.5755	1,071.53	77.7819	1,071.53	78.1968
1,109.62	79.3801	1,109.62	78.4915	1,109.62	78.9585
1,148.44	79.8862	1,148.44	78.6459	1,148.44	79.3102
1,189.45	80.1416	1,189.45	78.3081	1,189.45	79.3209
1,231.2	80.2394	1,231.2	78.7726	1,231.2	79.5676
1,274.41	80.7762	1,274.41	79.0847	1,274.41	80.0123
1,319.82	81.5384	1,319.82	77.4504	1,319.82	79.9586
1,365.97	81.511	1,365.97	78.4102	1,365.97	80.2317
1,414.31	80.8659	1,414.31	79.1616	1,414.31	80.0968
1,464.11	81.2773	1,464.11	78.0152	1,464.11	79.9456
1,515.38	81.2845	1,515.38	78.4565	1,515.38	80.0967
1,568.85	81.3407	1,568.85	78.053	1,568.85	80.0008
1,624.51	81.1315	1,624.51	76.7555	1,624.51	79.4728
1,681.64	81.2014	1,681.64	76.9516	1,681.64	79.5768
1,740.97	80.7455	1,740.97	76.6307	1,740.97	79.1582
1,802.49	79.8894	1,802.49	76.181	1,802.49	78.4196
1,866.21	79.5285	1,866.21	74.8522	1,866.21	77.7915
1,932.13	79.2721	1,932.13	73.2524	1,932.13	77.2311
2,000.24	77.9807	2,000.24	75.0857	2,000.24	76.7701
2,070.56	77.81	2,070.56	74.9543	2,070.56	76.6128
2,143.8	78.0088	2,143.8	74.0502	2,143.8	76.4658
2,219.24	77.2023	2,219.24	73.4263	2,219.24	75.7124
2,297.61	76.484	2,297.61	73.5484	2,297.61	75.2596
2,378.17	76.3559	2,378.17	75.1769	2,378.17	75.8063
2,462.4	75.9612	2,462.4	75.4119	2,462.4	75.6952
2,548.83	75.8237	2,548.83	75.9046	2,548.83	75.8643
2,638.92	75.5266	2,638.92	76.377	2,638.92	75.9726
2,731.93	75.6558	2,731.93	77.0901	2,731.93	76.4319
2,828.61	75.5996	2,828.61	78.2452	2,828.61	77.1208
2,928.22	74.8697	2,928.22	78.0967	2,928.22	76.7763
3,031.49	73.1555	3,031.49	77.0283	3,031.49	75.51
3,138.43	72.5601	3,138.43	76.3145	3,138.43	74.831
3,249.02	72.0377	3,249.02	75.6403	3,249.02	74.2023
3,363.28	72.9507	3,363.28	75.912	3,363.28	74.679
3,481.93	73.6723	3,481.93	76.1357	3,481.93	75.0764
3,604.98	73.677	3,604.98	76.7151	3,604.98	75.4564
3,732.42	74.1896	3,732.42	77.3485	3,732.42	76.0501
3,863.53	74.8944	3,863.53	77.685	3,863.53	76.5101
3,999.76	76.3101	3,999.76	78.0381	3,999.76	77.2595
4,141.11	76.6996	4,141.11	79.1311	4,141.11	78.0834
4,286.87	77.1987	4,286.87	79.4802	4,286.87	78.4876
4,438.48	78.6148	4,438.48	79.6086	4,438.48	79.1401
4,594.48	79.0471	4,594.48	80.0324	4,594.48	79.5676
4,757.08	79.9711	4,757.08	79.824	4,757.08	79.8982
4,924.8	81.0275	4,924.8	80.6389	4,924.8	80.8375
5,098.39	81.5751	5,098.39	80.7007	5,098.39	81.1599
5,277.83	81.7122	5,277.83	81.1133	5,277.83	81.4231
5,463.87	81.9635	5,463.87	81.1559	5,463.87	81.5784
5,656.49	81.6722	5,656.49	81.3823	5,656.49	81.5297
5,856.45	81.7782	5,856.45	81.4893	5,856.45	81.6361
6,062.99	82.2072	6,062.99	81.2398	6,062.99	81.7504
6,276.86	81.6223	6,276.86	80.7161	6,276.86	81.1928
6,498.05	80.7442	6,498.05	79.9074	6,498.05	80.3459
6,727.29	80.618	6,727.29	79.4157	6,727.29	80.0583
6,964.6	80.2628	6,964.6	79.2337	6,964.6	79.7787
7,209.96	80.6053	7,209.96	79.3772	7,209.96	80.0345
7,464.11	80.8081	7,464.11	79.5083	7,464.11	80.2066
7,727.78	80.9541	7,727.78	79.7322	7,727.78	80.386
8,000.24	80.941	8,000.24	79.7437	8,000.24	80.3834
8,282.23	81.029	8,282.23	79.3434	8,282.23	80.2674
8,574.46	80.7374	8,574.46	78.9425	8,574.46	79.932
8,876.22	80.5062	8,876.22	78.1525	8,876.22	79.4869
9,189.7	80.6607	9,189.7	77.7547	9,189.7	79.4464
9,513.43	80.2809	9,513.43	77.9035	9,513.43	79.2529
9,848.88	80.2801	9,848.88	77.5255	9,848.88	79.1176
10,196.8	80.1718	10,196.8	76.701	10,196.8	78.7743
10,556.4	80.2968	10,556.4	76.027	10,556.4	78.6667
10,928.5	80.3128	10,928.5	75.4381	10,928.5	78.5263
11,313.7	79.954	11,313.7	74.7875	11,313.7	78.0976
11,712.9	79.3895	11,712.9	74.3421	11,712.9	77.5611
12,126	78.7297	12,126	74.155	12,126	77.0187
12,553.7	78.0113	12,553.7	74.3082	12,553.7	76.543
12,996.1	77.5587	12,996.1	74.2795	12,996.1	76.2215
13,454.6	77.5708	13,454.6	74.0203	13,454.6	76.1487
13,928.5	78.1402	13,928.5	73.5175	13,928.5	76.4169
14,419.9	78.5671	14,419.9	73.1545	14,419.9	76.6545
14,928.2	78.2517	14,928.2	72.5423	14,928.2	76.2746
15,454.8	78.0368	15,454.8	71.8549	15,454.8	75.9638
15,999.8	77.9549	15,999.8	71.2722	15,999.8	75.7891
16,564.5	77.7923	16,564.5	70.3507	16,564.5	75.5017
17,148.2	77.4546	17,148.2	69.343	17,148.2	75.0681
17,753.2	77.0327	17,753.2	68.2589	17,753.2	74.5632
18,379.4	76.5281	18,379.4	66.7253	18,379.4	73.95
19,027.6	75.6114	19,027.6	65.5601	19,027.6	73.0103
19,698.5	75.0867	19,698.5	63.7096	19,698.5	72.3817
19,999.5	75.0597	19,999.5	63.1062	19,999.5	72.3179
