"SPL Horizontal"																																																																							
"On-Axis"		"10°"		"-10°"		"20°"		"-20°"		"30°"		"-30°"		"40°"		"-40°"		"50°"		"-50°"		"60°"		"-60°"		"70°"		"-70°"		"80°"		"-80°"		"90°"		"-90°"		"100°"		"-100°"		"110°"		"-110°"		"120°"		"-120°"		"130°"		"-130°"		"140°"		"-140°"		"150°"		"-150°"		"160°"		"-160°"		"170°"		"-170°"		"180°"	
"Frequency [Hz]"	"Sound Pessure Level [dB]  / [2.83V 1m] "	"Frequency [Hz]"	"Sound Pessure Level [dB]  / [2.83V 1m] "	"Frequency [Hz]"	"Sound Pessure Level [dB]  / [2.83V 1m] "	"Frequency [Hz]"	"Sound Pessure Level [dB]  / [2.83V 1m] "	"Frequency [Hz]"	"Sound Pessure Level [dB]  / [2.83V 1m] "	"Frequency [Hz]"	"Sound Pessure Level [dB]  / [2.83V 1m] "	"Frequency [Hz]"	"Sound Pessure Level [dB]  / [2.83V 1m] "	"Frequency [Hz]"	"Sound Pessure Level [dB]  / [2.83V 1m] "	"Frequency [Hz]"	"Sound Pessure Level [dB]  / [2.83V 1m] "	"Frequency [Hz]"	"Sound Pessure Level [dB]  / [2.83V 1m] "	"Frequency [Hz]"	"Sound Pessure Level [dB]  / [2.83V 1m] "	"Frequency [Hz]"	"Sound Pessure Level [dB]  / [2.83V 1m] "	"Frequency [Hz]"	"Sound Pessure Level [dB]  / [2.83V 1m] "	"Frequency [Hz]"	"Sound Pessure Level [dB]  / [2.83V 1m] "	"Frequency [Hz]"	"Sound Pessure Level [dB]  / [2.83V 1m] "	"Frequency [Hz]"	"Sound Pessure Level [dB]  / [2.83V 1m] "	"Frequency [Hz]"	"Sound Pessure Level [dB]  / [2.83V 1m] "	"Frequency [Hz]"	"Sound Pessure Level [dB]  / [2.83V 1m] "	"Frequency [Hz]"	"Sound Pessure Level [dB]  / [2.83V 1m] "	"Frequency [Hz]"	"Sound Pessure Level [dB]  / [2.83V 1m] "	"Frequency [Hz]"	"Sound Pessure Level [dB]  / [2.83V 1m] "	"Frequency [Hz]"	"Sound Pessure Level [dB]  / [2.83V 1m] "	"Frequency [Hz]"	"Sound Pessure Level [dB]  / [2.83V 1m] "	"Frequency [Hz]"	"Sound Pessure Level [dB]  / [2.83V 1m] "	"Frequency [Hz]"	"Sound Pessure Level [dB]  / [2.83V 1m] "	"Frequency [Hz]"	"Sound Pessure Level [dB]  / [2.83V 1m] "	"Frequency [Hz]"	"Sound Pessure Level [dB]  / [2.83V 1m] "	"Frequency [Hz]"	"Sound Pessure Level [dB]  / [2.83V 1m] "	"Frequency [Hz]"	"Sound Pessure Level [dB]  / [2.83V 1m] "	"Frequency [Hz]"	"Sound Pessure Level [dB]  / [2.83V 1m] "	"Frequency [Hz]"	"Sound Pessure Level [dB]  / [2.83V 1m] "	"Frequency [Hz]"	"Sound Pessure Level [dB]  / [2.83V 1m] "	"Frequency [Hz]"	"Sound Pessure Level [dB]  / [2.83V 1m] "	"Frequency [Hz]"	"Sound Pessure Level [dB]  / [2.83V 1m] "	"Frequency [Hz]"	"Sound Pessure Level [dB]  / [2.83V 1m] "	"Frequency [Hz]"	"Sound Pessure Level [dB]  / [2.83V 1m] "
20.5078	70.5646	20.5078	70.5809	20.5078	70.5763	20.5078	70.6263	20.5078	70.6163	20.5078	70.7035	20.5078	70.6863	20.5078	70.8166	20.5078	70.7895	20.5078	70.9706	20.5078	70.9302	20.5078	71.1709	20.5078	71.1133	20.5078	71.4224	20.5078	71.3437	20.5078	71.7276	20.5078	71.6247	20.5078	72.0852	20.5078	71.957	20.5078	72.4884	20.5078	72.3366	20.5078	72.924	20.5078	72.7539	20.5078	73.3724	20.5078	73.1927	20.5078	73.8092	20.5078	73.6316	20.5078	74.2078	20.5078	74.0452	20.5078	74.5424	20.5078	74.4074	20.5078	74.7906	20.5078	74.694	20.5078	74.9356	20.5078	74.8853	20.5078	74.9678
23.4375	70.7483	23.4375	70.7413	23.4375	70.7512	23.4375	70.7309	23.4375	70.7504	23.4375	70.7195	23.4375	70.7472	23.4375	70.7106	23.4375	70.7448	23.4375	70.7096	23.4375	70.7473	23.4375	70.7237	23.4375	70.7607	23.4375	70.7616	23.4375	70.7926	23.4375	70.833	23.4375	70.8516	23.4375	70.9469	23.4375	70.9466	23.4375	71.1091	23.4375	71.0847	23.4375	71.3193	23.4375	71.2686	23.4375	71.5688	23.4375	71.4944	23.4375	71.8401	23.4375	71.7495	23.4375	72.1094	23.4375	72.0139	23.4375	72.3495	23.4375	72.2625	23.4375	72.5354	23.4375	72.4693	23.4375	72.6473	23.4375	72.6116	23.4375	72.6734
26.3672	60.3536	26.3672	60.2654	26.3672	60.3126	26.3672	60.0482	26.3672	60.1426	26.3672	59.7035	26.3672	59.8442	26.3672	59.239	26.3672	59.4212	26.3672	58.6786	26.3672	58.8878	26.3672	58.08	26.3672	58.282	26.3672	57.5605	26.3672	57.6887	26.3672	57.3032	26.3672	57.2617	26.3672	57.4888	26.3672	57.2014	26.3672	58.1557	26.3672	57.6366	26.3672	59.1559	26.3672	58.5049	26.3672	60.2749	26.3672	59.6031	26.3672	61.346	26.3672	60.73	26.3672	62.2716	26.3672	61.7536	26.3672	63.0022	26.3672	62.6033	26.3672	63.5143	26.3672	63.2446	26.3672	63.7972	26.3672	63.6614	26.3672	63.8465
29.2969	68.5205	29.2969	68.5467	29.2969	68.5339	29.2969	68.616	29.2969	68.5882	29.2969	68.7355	29.2969	68.6884	29.2969	68.9154	29.2969	68.8433	29.2969	69.1669	29.2969	69.0633	29.2969	69.4994	29.2969	69.3585	29.2969	69.9174	29.2969	69.7358	29.2969	70.4176	29.2969	70.1957	29.2969	70.9875	29.2969	70.7305	29.2969	71.606	29.2969	71.3237	29.2969	72.2453	29.2969	71.9512	29.2969	72.8745	29.2969	72.5842	29.2969	73.4622	29.2969	73.1915	29.2969	73.9791	29.2969	73.7429	29.2969	74.4001	29.2969	74.2111	29.2969	74.7049	29.2969	74.5732	29.2969	74.8793	29.2969	74.8118	29.2969	74.9155
32.2266	73.1952	32.2266	73.213	32.2266	73.1999	32.2266	73.2552	32.2266	73.2277	32.2266	73.3262	32.2266	73.2816	32.2266	73.4323	32.2266	73.3666	32.2266	73.5812	32.2266	73.4899	32.2266	73.7812	32.2266	73.6595	32.2266	74.039	32.2266	73.8831	32.2266	74.358	32.2266	74.1663	32.2266	74.7361	32.2266	74.5106	32.2266	75.1641	32.2266	74.9109	32.2266	75.6253	32.2266	75.3549	32.2266	76.0967	32.2266	75.8233	32.2266	76.5516	32.2266	76.2911	32.2266	76.9622	32.2266	76.7308	32.2266	77.3026	32.2266	77.115	32.2266	77.5513	32.2266	77.4193	32.2266	77.6925	32.2266	77.6244	32.2266	77.7174
35.1563	73.4112	35.1563	73.426	35.1563	73.409	35.1563	73.4552	35.1563	73.4201	35.1563	73.5022	35.1563	73.4472	35.1563	73.5729	35.1563	73.495	35.1563	73.6744	35.1563	73.5703	35.1563	73.8153	35.1563	73.681	35.1563	74.0033	35.1563	73.8358	35.1563	74.2443	35.1563	74.0421	35.1563	74.5397	35.1563	74.3045	35.1563	74.8845	35.1563	74.622	35.1563	75.2664	35.1563	74.9864	35.1563	75.6658	35.1563	75.3823	35.1563	76.0583	35.1563	75.7876	35.1563	76.4173	35.1563	76.1762	35.1563	76.7175	35.1563	76.5214	35.1563	76.9371	35.1563	76.7989	35.1563	77.0602	35.1563	76.9889	35.1563	77.078
38.0859	73.6883	38.0859	73.7036	38.0859	73.6884	38.0859	73.7357	38.0859	73.7045	38.0859	73.7877	38.0859	73.7385	38.0859	73.8642	38.0859	73.7943	38.0859	73.9713	38.0859	73.8773	38.0859	74.1155	38.0859	73.9939	38.0859	74.3032	38.0859	74.1509	38.0859	74.5386	38.0859	74.3542	38.0859	74.8223	38.0859	74.6071	38.0859	75.1493	38.0859	74.9084	38.0859	75.5084	38.0859	75.2509	38.0859	75.8821	38.0859	75.6208	38.0859	76.2485	38.0859	75.9984	38.0859	76.5835	38.0859	76.3603	38.0859	76.8637	38.0859	76.6819	38.0859	77.0689	38.0859	76.9406	38.0859	77.1842	38.0859	77.1179	38.0859	77.201
41.0156	76.6665	41.0156	76.6897	41.0156	76.6649	41.0156	76.7352	41.0156	76.6854	41.0156	76.8043	41.0156	76.7292	41.0156	76.8992	41.0156	76.7987	41.0156	77.0229	41.0156	76.8967	41.0156	77.1784	41.0156	77.0269	41.0156	77.3685	41.0156	77.1928	41.0156	77.595	41.0156	77.3972	41.0156	77.8571	41.0156	77.641	41.0156	78.1509	41.0156	77.9221	41.0156	78.468	41.0156	78.234	41.0156	78.7951	41.0156	78.5655	41.0156	79.1153	41.0156	78.9007	41.0156	79.4088	41.0156	79.2203	41.0156	79.6555	41.0156	79.5037	41.0156	79.8377	41.0156	79.7311	41.0156	79.9412	41.0156	79.8863	41.0156	79.958
43.9453	78.7546	43.9453	78.7729	43.9453	78.757	43.9453	78.8124	43.9453	78.7804	43.9453	78.8737	43.9453	78.8252	43.9453	78.9578	43.9453	78.8923	43.9453	79.0662	43.9453	78.9829	43.9453	79.2005	43.9453	79.0985	43.9453	79.3623	43.9453	79.241	43.9453	79.5527	43.9453	79.4118	43.9453	79.7713	43.9453	79.6117	43.9453	80.0153	43.9453	79.8398	43.9453	80.2788	43.9453	80.0921	43.9453	80.5516	43.9453	80.3614	43.9453	80.8199	43.9453	80.6361	43.9453	81.0672	43.9453	80.9011	43.9453	81.2759	43.9453	81.139	43.9453	81.4302	43.9453	81.3325	43.9453	81.5172	43.9453	81.4664	43.9453	81.5296
46.875	79.402	46.875	79.4249	46.875	79.4	46.875	79.4685	46.875	79.419	46.875	79.5327	46.875	79.4591	46.875	79.6174	46.875	79.5204	46.875	79.7225	46.875	79.6031	46.875	79.8482	46.875	79.7074	46.875	79.9945	46.875	79.8339	46.875	80.1615	46.875	79.9831	46.875	80.3484	46.875	80.1551	46.875	80.5532	46.875	80.349	46.875	80.7714	46.875	80.562	46.875	80.9956	46.875	80.7887	46.875	81.2156	46.875	81.0203	46.875	81.4181	46.875	81.2446	46.875	81.5888	46.875	81.4475	46.875	81.7141	46.875	81.6142	46.875	81.783	46.875	81.7312	46.875	81.7891
49.8047	79.8029	49.8047	79.8248	49.8047	79.7998	49.8047	79.8649	49.8047	79.8153	49.8047	79.9226	49.8047	79.8493	49.8047	79.9971	49.8047	79.9012	49.8047	80.0875	49.8047	79.9705	49.8047	80.193	49.8047	80.0564	49.8047	80.313	49.8047	80.1587	49.8047	80.4467	49.8047	80.277	49.8047	80.5933	49.8047	80.411	49.8047	80.7515	49.8047	80.5601	49.8047	80.9183	49.8047	80.7229	49.8047	81.0888	49.8047	80.8959	49.8047	81.2557	49.8047	81.0735	49.8047	81.4092	49.8047	81.247	49.8047	81.5384	49.8047	81.4059	49.8047	81.6324	49.8047	81.5383	49.8047	81.6822	49.8047	81.6334	49.8047	81.6828
52.7344	80.6511	52.7344	80.6724	52.7344	80.6462	52.7344	80.7096	52.7344	80.6578	52.7344	80.7618	52.7344	80.6853	52.7344	80.8274	52.7344	80.7279	52.7344	80.9051	52.7344	80.7843	52.7344	80.9932	52.7344	80.8533	52.7344	81.0903	52.7344	80.9338	52.7344	81.1953	52.7344	81.025	52.7344	81.3073	52.7344	81.1262	52.7344	81.4252	52.7344	81.237	52.7344	81.5473	52.7344	81.3569	52.7344	81.6707	52.7344	81.4842	52.7344	81.7907	52.7344	81.6155	52.7344	81.9008	52.7344	81.7453	52.7344	81.9928	52.7344	81.8661	52.7344	82.0586	52.7344	81.9688	52.7344	82.0913	52.7344	82.0446	52.7344	82.0867
55.6641	81.597	55.6641	81.6169	55.6641	81.5945	55.6641	81.6534	55.6641	81.6091	55.6641	81.7053	55.6641	81.6402	55.6641	81.7708	55.6641	81.6863	55.6641	81.8478	55.6641	81.7458	55.6641	81.934	55.6641	81.8165	55.6641	82.0275	55.6641	81.8968	55.6641	82.1264	55.6641	81.985	55.6641	82.2295	55.6641	82.08	55.6641	82.3355	55.6641	82.181	55.6641	82.4432	55.6641	82.2874	55.6641	82.5504	55.6641	82.3982	55.6641	82.6538	55.6641	82.5109	55.6641	82.7482	55.6641	82.6215	55.6641	82.8274	55.6641	82.7239	55.6641	82.8843	55.6641	82.8109	55.6641	82.913	55.6641	82.8749	55.6641	82.91
58.5938	82.0563	58.5938	82.0755	58.5938	82.0565	58.5938	82.1135	58.5938	82.076	58.5938	82.1685	58.5938	82.1136	58.5938	82.2384	58.5938	82.1675	58.5938	82.3204	58.5938	82.2354	58.5938	82.4116	58.5938	82.3145	58.5938	82.5091	58.5938	82.4022	58.5938	82.6103	58.5938	82.4958	58.5938	82.7132	58.5938	82.5935	58.5938	82.816	58.5938	82.6936	58.5938	82.9173	58.5938	82.7952	58.5938	83.0155	58.5938	82.8971	58.5938	83.1081	58.5938	82.9976	58.5938	83.1913	58.5938	83.0937	58.5938	83.2604	58.5938	83.181	58.5938	83.3102	58.5938	83.2539	58.5938	83.3361	58.5938	83.3068	58.5938	83.335
61.5234	82.1607	61.5234	82.1789	61.5234	82.1619	61.5234	82.2157	61.5234	82.1822	61.5234	82.2694	61.5234	82.2204	61.5234	82.3374	61.5234	82.2747	61.5234	82.4168	61.5234	82.3422	61.5234	82.5042	61.5234	82.42	61.5234	82.5964	61.5234	82.5048	61.5234	82.6901	61.5234	82.5936	61.5234	82.783	61.5234	82.6839	61.5234	82.8732	61.5234	82.7738	61.5234	82.9592	61.5234	82.8618	61.5234	83.0399	61.5234	82.947	61.5234	83.1137	61.5234	83.0283	61.5234	83.1787	61.5234	83.1039	61.5234	83.2318	61.5234	83.1713	61.5234	83.2697	61.5234	83.227	61.5234	83.2892	61.5234	83.2671	61.5234	83.2884
64.4531	82.2283	64.4531	82.2457	64.4531	82.2272	64.4531	82.2785	64.4531	82.2422	64.4531	82.3249	64.4531	82.2723	64.4531	82.3824	64.4531	82.3155	64.4531	82.4479	64.4531	82.3693	64.4531	82.5179	64.4531	82.4303	64.4531	82.589	64.4531	82.4954	64.4531	82.6582	64.4531	82.5615	64.4531	82.7229	64.4531	82.6259	64.4531	82.7815	64.4531	82.6867	64.4531	82.8333	64.4531	82.7428	64.4531	82.8781	64.4531	82.7939	64.4531	82.916	64.4531	82.8404	64.4531	82.947	64.4531	82.8822	64.4531	82.9707	64.4531	82.919	64.4531	82.986	64.4531	82.9499	64.4531	82.9919	64.4531	82.9733	64.4531	82.9876
67.3828	82.5209	67.3828	82.5349	67.3828	82.5189	67.3828	82.5603	67.3828	82.529	67.3828	82.5953	67.3828	82.5501	67.3828	82.6375	67.3828	82.5802	67.3828	82.6837	67.3828	82.6168	67.3828	82.7307	67.3828	82.6569	67.3828	82.7751	67.3828	82.6972	67.3828	82.8138	67.3828	82.7348	67.3828	82.8447	67.3828	82.7671	67.3828	82.8664	67.3828	82.7926	67.3828	82.8789	67.3828	82.8107	67.3828	82.8834	67.3828	82.8221	67.3828	82.8817	67.3828	82.8285	67.3828	82.876	67.3828	82.8318	67.3828	82.8684	67.3828	82.834	67.3828	82.8603	67.3828	82.8368	67.3828	82.8527	67.3828	82.8407	67.3828	82.8461
70.3125	82.814	70.3125	82.8213	70.3125	82.8199	70.3125	82.8413	70.3125	82.8389	70.3125	82.872	70.3125	82.8696	70.3125	82.9108	70.3125	82.9097	70.3125	82.9543	70.3125	82.9559	70.3125	82.9988	70.3125	83.0047	70.3125	83.0408	70.3125	83.0521	70.3125	83.0769	70.3125	83.0946	70.3125	83.1047	70.3125	83.129	70.3125	83.123	70.3125	83.1534	70.3125	83.1319	70.3125	83.1669	70.3125	83.133	70.3125	83.1702	70.3125	83.1287	70.3125	83.1654	70.3125	83.122	70.3125	83.1553	70.3125	83.1154	70.3125	83.1427	70.3125	83.1112	70.3125	83.1304	70.3125	83.1103	70.3125	83.1202	70.3125	83.1133
73.2422	82.9568	73.2422	82.968	73.2422	82.9624	73.2422	82.9948	73.2422	82.9843	73.2422	83.0354	73.2422	83.0211	73.2422	83.0864	73.2422	83.0701	73.2422	83.1441	73.2422	83.1276	73.2422	83.2041	73.2422	83.1895	73.2422	83.2619	73.2422	83.2511	73.2422	83.3135	73.2422	83.308	73.2422	83.3557	73.2422	83.3563	73.2422	83.3864	73.2422	83.3931	73.2422	83.4052	73.2422	83.4171	73.2422	83.4131	73.2422	83.4287	73.2422	83.4125	73.2422	83.4297	73.2422	83.4066	73.2422	83.4231	73.2422	83.3987	73.2422	83.4126	73.2422	83.3917	73.2422	83.4016	73.2422	83.3877	73.2422	83.3929	73.2422	83.388
76.1719	83.1416	76.1719	83.1526	76.1719	83.1487	76.1719	83.1806	76.1719	83.1735	76.1719	83.2236	76.1719	83.2143	76.1719	83.2784	76.1719	83.2682	76.1719	83.3409	76.1719	83.3316	76.1719	83.4065	76.1719	83.3997	76.1719	83.4704	76.1719	83.4676	76.1719	83.5282	76.1719	83.5306	76.1719	83.5763	76.1719	83.5843	76.1719	83.6122	76.1719	83.6256	76.1719	83.6352	76.1719	83.6529	76.1719	83.6462	76.1719	83.6665	76.1719	83.6474	76.1719	83.6683	76.1719	83.6422	76.1719	83.6616	76.1719	83.6342	76.1719	83.6502	76.1719	83.6268	76.1719	83.6381	76.1719	83.6226	76.1719	83.6284	76.1719	83.6229
79.1016	83.0785	79.1016	83.0904	79.1016	83.0873	79.1016	83.1219	79.1016	83.1164	79.1016	83.171	79.1016	83.1642	79.1016	83.2345	79.1016	83.2278	79.1016	83.3082	79.1016	83.3034	79.1016	83.3876	79.1016	83.3862	79.1016	83.4674	79.1016	83.4711	79.1016	83.5431	79.1016	83.5528	79.1016	83.6103	79.1016	83.6263	79.1016	83.666	79.1016	83.6879	79.1016	83.7087	79.1016	83.7352	79.1016	83.7385	79.1016	83.7675	79.1016	83.757	79.1016	83.7861	79.1016	83.7668	79.1016	83.7935	79.1016	83.7711	79.1016	83.7931	79.1016	83.773	79.1016	83.7886	79.1016	83.7748	79.1016	83.7829	79.1016	83.778
82.0313	83.0379	82.0313	83.0606	82.0313	83.0332	82.0313	83.1002	82.0313	83.0467	82.0313	83.1545	82.0313	83.0776	82.0313	83.2206	82.0313	83.1237	82.0313	83.2944	82.0313	83.182	82.0313	83.3718	82.0313	83.2487	82.0313	83.4479	82.0313	83.3191	82.0313	83.5181	82.0313	83.3885	82.0313	83.5783	82.0313	83.4522	82.0313	83.6253	82.0313	83.5065	82.0313	83.6576	82.0313	83.549	82.0313	83.6752	82.0313	83.5788	82.0313	83.6796	82.0313	83.597	82.0313	83.6738	82.0313	83.6063	82.0313	83.6617	82.0313	83.61	82.0313	83.647	82.0313	83.612	82.0313	83.6331	82.0313	83.6154	82.0313	83.6222
84.9609	83.0685	84.9609	83.0994	84.9609	83.0505	84.9609	83.1417	84.9609	83.0457	84.9609	83.1936	84.9609	83.0537	84.9609	83.2519	84.9609	83.0731	84.9609	83.3133	84.9609	83.1017	84.9609	83.3736	84.9609	83.1364	84.9609	83.4283	84.9609	83.1737	84.9609	83.4732	84.9609	83.2096	84.9609	83.5046	84.9609	83.2403	84.9609	83.5196	84.9609	83.2628	84.9609	83.5174	84.9609	83.2754	84.9609	83.4985	84.9609	83.2781	84.9609	83.4658	84.9609	83.2726	84.9609	83.4235	84.9609	83.2626	84.9609	83.3772	84.9609	83.2527	84.9609	83.3326	84.9609	83.2476	84.9609	83.2946	84.9609	83.2516	84.9609	83.2671
87.8906	82.8551	87.8906	82.8679	87.8906	82.8564	87.8906	82.8942	87.8906	82.8715	87.8906	82.9323	87.8906	82.8993	87.8906	82.9795	87.8906	82.9375	87.8906	83.0325	87.8906	82.9831	87.8906	83.0872	87.8906	83.0324	87.8906	83.139	87.8906	83.0813	87.8906	83.1835	87.8906	83.1255	87.8906	83.217	87.8906	83.1613	87.8906	83.2368	87.8906	83.1856	87.8906	83.2418	87.8906	83.197	87.8906	83.2328	87.8906	83.1954	87.8906	83.2124	87.8906	83.1829	87.8906	83.1851	87.8906	83.163	87.8906	83.1558	87.8906	83.1405	87.8906	83.1298	87.8906	83.1204	87.8906	83.1115	87.8906	83.107	87.8906	83.1036
90.8203	82.4707	90.8203	82.4688	90.8203	82.4915	90.8203	82.4855	90.8203	82.5308	90.8203	82.5195	90.8203	82.587	90.8203	82.5687	90.8203	82.6575	90.8203	82.6299	90.8203	82.7389	90.8203	82.6993	90.8203	82.8269	90.8203	82.7724	90.8203	82.9164	90.8203	82.8445	90.8203	83.002	90.8203	82.9111	90.8203	83.0786	90.8203	82.9687	90.8203	83.1417	90.8203	83.0148	90.8203	83.1882	90.8203	83.049	90.8203	83.2166	90.8203	83.0723	90.8203	83.2274	90.8203	83.0875	90.8203	83.223	90.8203	83.0983	90.8203	83.2074	90.8203	83.1087	90.8203	83.1852	90.8203	83.1219	90.8203	83.1614	90.8203	83.1395
93.75	83.1489	93.75	83.1648	93.75	83.1362	93.75	83.1825	93.75	83.1274	93.75	83.2002	93.75	83.123	93.75	83.2158	93.75	83.1227	93.75	83.2268	93.75	83.1252	93.75	83.2306	93.75	83.1287	93.75	83.2241	93.75	83.1304	93.75	83.2047	93.75	83.1269	93.75	83.1704	93.75	83.1145	93.75	83.1204	93.75	83.0902	93.75	83.0555	93.75	83.052	93.75	82.9788	93.75	82.9995	93.75	82.8957	93.75	82.9349	93.75	82.8135	93.75	82.8628	93.75	82.7408	93.75	82.7902	93.75	82.6858	93.75	82.7255	93.75	82.6551	93.75	82.6772	93.75	82.6523
96.6797	83.3359	96.6797	83.3621	96.6797	83.3142	96.6797	83.3919	96.6797	83.2969	96.6797	83.4236	96.6797	83.283	96.6797	83.4544	96.6797	83.2706	96.6797	83.4806	96.6797	83.2574	96.6797	83.4979	96.6797	83.2401	96.6797	83.5013	96.6797	83.2151	96.6797	83.4862	96.6797	83.1791	96.6797	83.4483	96.6797	83.1291	96.6797	83.3852	96.6797	83.0635	96.6797	83.2963	96.6797	82.9825	96.6797	83.1843	96.6797	82.889	96.6797	83.0551	96.6797	82.7888	96.6797	82.9178	96.6797	82.6904	96.6797	82.784	96.6797	82.6045	96.6797	82.6666	96.6797	82.5424	96.6797	82.5773	96.6797	82.5138	96.6797	82.5249
102.539	83.3048	102.539	83.3177	102.539	83.3048	102.539	83.3424	102.539	83.3175	102.539	83.3771	102.539	83.3417	102.539	83.4185	102.539	83.3749	102.539	83.4626	102.539	83.4135	102.539	83.5044	102.539	83.4529	102.539	83.5384	102.539	83.4879	102.539	83.5589	102.539	83.5129	102.539	83.5612	102.539	83.5227	102.539	83.5418	102.539	83.5133	102.539	83.4997	102.539	83.4826	102.539	83.437	102.539	83.4312	102.539	83.359	102.539	83.3631	102.539	83.274	102.539	83.2851	102.539	83.1926	102.539	83.2066	102.539	83.1259	102.539	83.1385	102.539	83.0834	102.539	83.0908	102.539	83.0712
105.469	83.2201	105.469	83.2363	105.469	83.2185	105.469	83.2658	105.469	83.2316	105.469	83.3064	105.469	83.2587	105.469	83.355	105.469	83.2978	105.469	83.4075	105.469	83.3457	105.469	83.459	105.469	83.398	105.469	83.5038	105.469	83.4491	105.469	83.5365	105.469	83.493	105.469	83.5522	105.469	83.5239	105.469	83.5476	105.469	83.5369	105.469	83.5214	105.469	83.5287	105.469	83.4756	105.469	83.4991	105.469	83.415	105.469	83.4505	105.469	83.3475	105.469	83.3889	105.469	83.2827	105.469	83.3228	105.469	83.2307	105.469	83.2623	105.469	83.1997	105.469	83.2172	105.469	83.195
108.398	83.1153	108.398	83.1387	108.398	83.1057	108.398	83.1745	108.398	83.1103	108.398	83.2211	108.398	83.1288	108.398	83.2758	108.398	83.1601	108.398	83.335	108.398	83.2019	108.398	83.3944	108.398	83.2506	108.398	83.4488	108.398	83.3016	108.398	83.493	108.398	83.3494	108.398	83.5219	108.398	83.3885	108.398	83.5317	108.398	83.4138	108.398	83.5208	108.398	83.4219	108.398	83.49	108.398	83.4117	108.398	83.4431	108.398	83.385	108.398	83.3866	108.398	83.3465	108.398	83.3288	108.398	83.3036	108.398	83.2789	108.398	83.2647	108.398	83.2444	108.398	83.2382	108.398	83.2304
111.328	83.0311	111.328	83.0541	111.328	83.0195	111.328	83.0876	111.328	83.0193	111.328	83.1307	111.328	83.0305	111.328	83.1815	111.328	83.0523	111.328	83.2372	111.328	83.0829	111.328	83.2942	111.328	83.1199	111.328	83.3478	111.328	83.1596	111.328	83.3928	111.328	83.1974	111.328	83.4241	111.328	83.2287	111.328	83.4376	111.328	83.249	111.328	83.4308	111.328	83.2553	111.328	83.4038	111.328	83.2467	111.328	83.3594	111.328	83.2247	111.328	83.3033	111.328	83.1939	111.328	83.2435	111.328	83.1608	111.328	83.1885	111.328	83.1332	111.328	83.1462	111.328	83.1186	111.328	83.1223
117.188	83.0955	117.188	83.0861	117.188	83.1096	117.188	83.082	117.188	83.1281	117.188	83.0835	117.188	83.1506	117.188	83.0904	117.188	83.1762	117.188	83.1021	117.188	83.2039	117.188	83.1167	117.188	83.2319	117.188	83.1315	117.188	83.2575	117.188	83.1431	117.188	83.2772	117.188	83.1477	117.188	83.2875	117.188	83.1421	117.188	83.2849	117.188	83.1244	117.188	83.2671	117.188	83.0948	117.188	83.2335	117.188	83.0561	117.188	83.1858	117.188	83.0133	117.188	83.1282	117.188	82.9733	117.188	83.0671	117.188	82.9434	117.188	83.01	117.188	82.9299	117.188	82.9646	117.188	82.9369
120.117	83.1109	120.117	83.0858	120.117	83.1385	120.117	83.0634	120.117	83.1683	120.117	83.0442	120.117	83.2001	120.117	83.0286	120.117	83.2336	120.117	83.0164	120.117	83.2675	120.117	83.007	120.117	83.3	120.117	82.999	120.117	83.3285	120.117	82.9903	120.117	83.3493	120.117	82.9785	120.117	83.3586	120.117	82.9617	120.117	83.3528	120.117	82.9388	120.117	83.3292	120.117	82.9105	120.117	83.2869	120.117	82.8795	120.117	83.2273	120.117	82.8507	120.117	83.1544	120.117	82.83	120.117	83.0744	120.117	82.8235	120.117	82.9951	120.117	82.8362	120.117	82.9248	120.117	82.8703
125.977	83.327	125.977	83.3403	125.977	83.3107	125.977	83.3496	125.977	83.2926	125.977	83.3536	125.977	83.2737	125.977	83.3513	125.977	83.2548	125.977	83.3412	125.977	83.2362	125.977	83.3216	125.977	83.2171	125.977	83.2905	125.977	83.196	125.977	83.2461	125.977	83.1702	125.977	83.187	125.977	83.1367	125.977	83.1127	125.977	83.0925	125.977	83.0249	125.977	83.0357	125.977	82.9272	125.977	82.966	125.977	82.8257	125.977	82.8854	125.977	82.7283	125.977	82.7987	125.977	82.6444	125.977	82.713	125.977	82.5827	125.977	82.637	125.977	82.5499	125.977	82.5799	125.977	82.5492
128.906	83.3859	128.906	83.4132	128.906	83.3539	128.906	83.4349	128.906	83.3179	128.906	83.4498	128.906	83.2783	128.906	83.4562	128.906	83.2352	128.906	83.4517	128.906	83.1884	128.906	83.4333	128.906	83.1368	128.906	83.3977	128.906	83.0788	128.906	83.3416	128.906	83.0124	128.906	83.2621	128.906	82.9356	128.906	83.1582	128.906	82.8467	128.906	83.0311	128.906	82.7458	128.906	82.8848	128.906	82.6348	128.906	82.7272	128.906	82.5185	128.906	82.5688	128.906	82.4043	128.906	82.4224	128.906	82.3022	128.906	82.3011	128.906	82.2233	128.906	82.2161	128.906	82.178	128.906	82.1745
134.766	82.9796	134.766	82.991	134.766	82.9688	134.766	83.0034	134.766	82.9582	134.766	83.0168	134.766	82.9469	134.766	83.0304	134.766	82.9338	134.766	83.0424	134.766	82.9175	134.766	83.0499	134.766	82.8958	134.766	83.0488	134.766	82.8662	134.766	83.0344	134.766	82.826	134.766	83.0021	134.766	82.7725	134.766	82.9484	134.766	82.7045	134.766	82.8715	134.766	82.6222	134.766	82.7726	134.766	82.5284	134.766	82.6566	134.766	82.4287	134.766	82.5314	134.766	82.3314	134.766	82.408	134.766	82.2467	134.766	82.2987	134.766	82.1855	134.766	82.2152	134.766	82.1568	134.766	82.1664
137.695	82.9741	137.695	82.9732	137.695	82.9748	137.695	82.9726	137.695	82.9749	137.695	82.9728	137.695	82.9741	137.695	82.9742	137.695	82.9722	137.695	82.9762	137.695	82.9683	137.695	82.9773	137.695	82.9611	137.695	82.9749	137.695	82.9484	137.695	82.9656	137.695	82.9277	137.695	82.9454	137.695	82.8962	137.695	82.9111	137.695	82.852	137.695	82.8607	137.695	82.7945	137.695	82.7948	137.695	82.7253	137.695	82.7165	137.695	82.6483	137.695	82.632	137.695	82.5699	137.695	82.5496	137.695	82.4982	137.695	82.4786	137.695	82.4419	137.695	82.4278	137.695	82.4086	137.695	82.4035
143.555	83.0523	143.555	83.0406	143.555	83.0564	143.555	83.0216	143.555	83.0527	143.555	82.9963	143.555	83.0414	143.555	82.9655	143.555	83.0229	143.555	82.9297	143.555	82.9971	143.555	82.8891	143.555	82.9636	143.555	82.8429	143.555	82.9212	143.555	82.7897	143.555	82.8684	143.555	82.7279	143.555	82.8036	143.555	82.6564	143.555	82.7261	143.555	82.575	143.555	82.6364	143.555	82.4855	143.555	82.5368	143.555	82.3917	143.555	82.4323	143.555	82.2995	143.555	82.3297	143.555	82.2164	143.555	82.237	143.555	82.1502	143.555	82.1628	143.555	82.1082	143.555	82.114	143.555	82.0954
149.414	83.0089	149.414	82.9932	149.414	83.0156	149.414	82.9691	149.414	83.0135	149.414	82.9375	149.414	83.0033	149.414	82.8995	149.414	82.9857	149.414	82.8563	149.414	82.9612	149.414	82.8085	149.414	82.9295	149.414	82.7557	149.414	82.8899	149.414	82.6971	149.414	82.8406	149.414	82.6315	149.414	82.7801	149.414	82.558	149.414	82.7069	149.414	82.4768	149.414	82.6212	149.414	82.3899	149.414	82.5248	149.414	82.3013	149.414	82.4221	149.414	82.2169	149.414	82.3191	149.414	82.1437	149.414	82.2238	149.414	82.0891	149.414	82.1441	149.414	82.0593	149.414	82.0873	149.414	82.0583
155.273	83.0945	155.273	83.0815	155.273	83.0923	155.273	83.0536	155.273	83.0756	155.273	83.0114	155.273	83.0454	155.273	82.9561	155.273	83.0031	155.273	82.889	155.273	82.9499	155.273	82.8111	155.273	82.8867	155.273	82.7233	155.273	82.8136	155.273	82.6262	155.273	82.7302	155.273	82.5203	155.273	82.636	155.273	82.4071	155.273	82.5309	155.273	82.2888	155.273	82.416	155.273	82.1692	155.273	82.2941	155.273	82.0539	155.273	82.1701	155.273	81.9492	155.273	82.0506	155.273	81.8622	155.273	81.9433	155.273	81.7993	155.273	81.8557	155.273	81.7654	155.273	81.7943	155.273	81.7635
158.203	83.2057	158.203	83.1926	158.203	83.2025	158.203	83.1633	158.203	83.1835	158.203	83.1186	158.203	83.1496	158.203	83.0597	158.203	83.1022	158.203	82.9878	158.203	83.0427	158.203	82.904	158.203	82.972	158.203	82.809	158.203	82.8906	158.203	82.7034	158.203	82.7983	158.203	82.5881	158.203	82.695	158.203	82.4646	158.203	82.581	158.203	82.3358	158.203	82.4577	158.203	82.2061	158.203	82.3282	158.203	82.0814	158.203	82.1976	158.203	81.969	158.203	82.0724	158.203	81.8763	158.203	81.9604	158.203	81.8097	158.203	81.8691	158.203	81.7742	158.203	81.805	158.203	81.7726
164.063	83.5239	164.063	83.5255	164.063	83.5027	164.063	83.5073	164.063	83.4628	164.063	83.4693	164.063	83.4055	164.063	83.412	164.063	83.3326	164.063	83.336	164.063	83.2455	164.063	83.2421	164.063	83.146	164.063	83.131	164.063	83.0353	164.063	83.0039	164.063	82.9146	164.063	82.8627	164.063	82.7852	164.063	82.7107	164.063	82.6491	164.063	82.5526	164.063	82.5092	164.063	82.3951	164.063	82.3699	164.063	82.2458	164.063	82.2365	164.063	82.113	164.063	82.1153	164.063	82.0038	164.063	82.0123	164.063	81.9238	164.063	81.9332	164.063	81.8764	164.063	81.8823	164.063	81.8627
169.922	82.9525	169.922	82.9402	169.922	82.9532	169.922	82.9178	169.922	82.9414	169.922	82.887	169.922	82.9169	169.922	82.85	169.922	82.8795	169.922	82.8079	169.922	82.8294	169.922	82.7611	169.922	82.7663	169.922	82.7089	169.922	82.6899	169.922	82.6492	169.922	82.5997	169.922	82.58	169.922	82.4963	169.922	82.4993	169.922	82.3814	169.922	82.4066	169.922	82.2587	169.922	82.3033	169.922	82.1341	169.922	82.1932	169.922	82.0153	169.922	82.0821	169.922	81.911	169.922	81.977	169.922	81.8295	169.922	81.8855	169.922	81.7769	169.922	81.8146	169.922	81.757	169.922	81.7703
175.781	82.9323	175.781	82.901	175.781	82.9443	175.781	82.8505	175.781	82.9382	175.781	82.7824	175.781	82.9162	175.781	82.6995	175.781	82.8812	175.781	82.6056	175.781	82.8356	175.781	82.5046	175.781	82.7815	175.781	82.4006	175.781	82.7196	175.781	82.2974	175.781	82.65	175.781	82.1981	175.781	82.5722	175.781	82.1057	175.781	82.4861	175.781	82.023	175.781	82.3928	175.781	81.9524	175.781	82.2947	175.781	81.8958	175.781	82.196	175.781	81.8548	175.781	82.1018	175.781	81.8299	175.781	82.0171	175.781	81.821	175.781	81.9459	175.781	81.8281	175.781	81.8903	175.781	81.8511
181.641	83.0139	181.641	83.0111	181.641	82.99	181.641	82.9809	181.641	82.9417	181.641	82.9239	181.641	82.8726	181.641	82.842	181.641	82.7872	181.641	82.7383	181.641	82.6902	181.641	82.6164	181.641	82.5859	181.641	82.4806	181.641	82.478	181.641	82.3357	181.641	82.3687	181.641	82.187	181.641	82.2597	181.641	82.0407	181.641	82.1519	181.641	81.9032	181.641	82.0466	181.641	81.7813	181.641	81.9454	181.641	81.6806	181.641	81.8507	181.641	81.6051	181.641	81.7651	181.641	81.556	181.641	81.6907	181.641	81.5322	181.641	81.629	181.641	81.5305	181.641	81.5811	181.641	81.5477
190.43	83.0095	190.43	83.0109	190.43	82.984	190.43	82.9896	190.43	82.934	190.43	82.948	190.43	82.8601	190.43	82.8883	190.43	82.764	190.43	82.8128	190.43	82.6478	190.43	82.7228	190.43	82.5142	190.43	82.6187	190.43	82.3663	190.43	82.5007	190.43	82.2078	190.43	82.3688	190.43	82.043	190.43	82.2245	190.43	81.8779	190.43	82.0714	190.43	81.7194	190.43	81.9153	190.43	81.5755	190.43	81.7637	190.43	81.4538	190.43	81.6247	190.43	81.3604	190.43	81.5048	190.43	81.2981	190.43	81.408	190.43	81.2668	190.43	81.3357	190.43	81.2642	190.43	81.2877
196.289	82.922	196.289	82.8878	196.289	82.9264	196.289	82.826	196.289	82.9011	196.289	82.7408	196.289	82.8485	196.289	82.6387	196.289	82.7722	196.289	82.5271	196.289	82.6763	196.289	82.4135	196.289	82.5647	196.289	82.3043	196.289	82.4408	196.289	82.2038	196.289	82.3075	196.289	82.1137	196.289	82.1676	196.289	82.0336	196.289	82.025	196.289	81.9613	196.289	81.8851	196.289	81.8939	196.289	81.7556	196.289	81.8291	196.289	81.6451	196.289	81.7653	196.289	81.5614	196.289	81.702	196.289	81.5098	196.289	81.6403	196.289	81.4909	196.289	81.5829	196.289	81.5013	196.289	81.5344
202.148	83.026	202.148	82.9803	202.148	83.0333	202.148	82.8972	202.148	83.0036	202.148	82.7802	202.148	82.94	202.148	82.6347	202.148	82.8477	202.148	82.4683	202.148	82.7326	202.148	82.2902	202.148	82.6009	202.148	82.11	202.148	82.458	202.148	81.9377	202.148	82.3087	202.148	81.782	202.148	82.1569	202.148	81.6497	202.148	82.0059	202.148	81.5446	202.148	81.8598	202.148	81.4671	202.148	81.7235	202.148	81.4142	202.148	81.6026	202.148	81.3807	202.148	81.5027	202.148	81.3603	202.148	81.4277	202.148	81.348	202.148	81.3782	202.148	81.3412	202.148	81.3511	202.148	81.3407
210.938	83.0628	210.938	83.0304	210.938	83.0575	210.938	82.9596	210.938	83.0174	210.938	82.8509	210.938	82.9464	210.938	82.7067	210.938	82.8495	210.938	82.5312	210.938	82.7318	210.938	82.3299	210.938	82.5979	210.938	82.1102	210.938	82.452	210.938	81.8814	210.938	82.297	210.938	81.6551	210.938	82.136	210.938	81.4444	210.938	81.9722	210.938	81.2627	210.938	81.8101	210.938	81.1215	210.938	81.6552	210.938	81.0274	210.938	81.5138	210.938	80.9801	210.938	81.3911	210.938	80.9728	210.938	81.2892	210.938	80.9944	210.938	81.2069	210.938	81.0336	210.938	81.1398	210.938	81.0829
216.797	82.9439	216.797	82.9192	216.797	82.9308	216.797	82.8562	216.797	82.8827	216.797	82.7565	216.797	82.8048	216.797	82.6238	216.797	82.7037	216.797	82.4632	216.797	82.5868	216.797	82.281	216.797	82.4612	216.797	82.0848	216.797	82.3325	216.797	81.8832	216.797	82.204	216.797	81.6858	216.797	82.0772	216.797	81.5029	216.797	81.952	216.797	81.3449	216.797	81.8289	216.797	81.2204	216.797	81.7088	216.797	81.1351	216.797	81.5945	216.797	81.0895	216.797	81.489	216.797	81.0793	216.797	81.3951	216.797	81.097	216.797	81.3136	216.797	81.1339	216.797	81.2437	216.797	81.1838
225.586	83.152	225.586	83.161	225.586	83.0947	225.586	83.1214	225.586	82.9915	225.586	83.0347	225.586	82.847	225.586	82.9035	225.586	82.6686	225.586	82.7316	225.586	82.4659	225.586	82.524	225.586	82.2502	225.586	82.2877	225.586	82.0339	225.586	82.0323	225.586	81.8288	225.586	81.7707	225.586	81.6452	225.586	81.5196	225.586	81.4905	225.586	81.2976	225.586	81.3686	225.586	81.1224	225.586	81.2797	225.586	81.0059	225.586	81.2201	225.586	80.9501	225.586	81.1829	225.586	80.9462	225.586	81.1588	225.586	80.9774	225.586	81.1374	225.586	81.0246	225.586	81.11	225.586	81.0718
234.375	83.2198	234.375	83.2103	234.375	83.1853	234.375	83.1618	234.375	83.1032	234.375	83.0806	234.375	82.9722	234.375	82.9726	234.375	82.7935	234.375	82.8428	234.375	82.5712	234.375	82.6943	234.375	82.3123	234.375	82.5281	234.375	82.0267	234.375	82.3444	234.375	81.7277	234.375	82.1437	234.375	81.4318	234.375	81.929	234.375	81.1572	234.375	81.7071	234.375	80.9224	234.375	81.4889	234.375	80.7425	234.375	81.2872	234.375	80.6258	234.375	81.1137	234.375	80.5709	234.375	80.974	234.375	80.5672	234.375	80.8664	234.375	80.5991	234.375	80.7825	234.375	80.651	234.375	80.7127
240.234	83.0369	240.234	82.9604	240.234	83.0654	240.234	82.84	240.234	83.0438	240.234	82.6829	240.234	82.9727	240.234	82.4985	240.234	82.854	240.234	82.2983	240.234	82.6915	240.234	82.0945	240.234	82.4904	240.234	81.8985	240.234	82.2575	240.234	81.72	240.234	82.0021	240.234	81.5653	240.234	81.7364	240.234	81.4374	240.234	81.4759	240.234	81.3364	240.234	81.2386	240.234	81.2596	240.234	81.0431	240.234	81.2021	240.234	80.9041	240.234	81.1574	240.234	80.8284	240.234	81.1177	240.234	80.8119	240.234	81.0749	240.234	80.8411	240.234	81.0235	240.234	80.8973	240.234	80.9624
249.023	83.0909	249.023	83.0445	249.023	83.0854	249.023	82.9459	249.023	83.0294	249.023	82.7967	249.023	82.926	249.023	82.5998	249.023	82.7787	249.023	82.3602	249.023	82.5914	249.023	82.0841	249.023	82.368	249.023	81.7803	249.023	82.1131	249.023	81.4609	249.023	81.8325	249.023	81.1418	249.023	81.5352	249.023	80.8435	249.023	81.2346	249.023	80.5884	249.023	80.9491	249.023	80.3966	249.023	80.7	249.023	80.279	249.023	80.5071	249.023	80.2317	249.023	80.3812	249.023	80.2364	249.023	80.319	249.023	80.2664	249.023	80.3032	249.023	80.2963	249.023	80.3083	249.023	80.3106
257.813	83.4112	257.813	83.3542	257.813	83.4183	257.813	83.2486	257.813	83.3761	257.813	83.0976	257.813	83.2869	257.813	82.9058	257.813	83.1546	257.813	82.6785	257.813	82.9834	257.813	82.422	257.813	82.7784	257.813	82.1428	257.813	82.5443	257.813	81.8486	257.813	82.2867	257.813	81.5495	257.813	82.0122	257.813	81.2586	257.813	81.7301	257.813	80.9927	257.813	81.453	257.813	80.77	257.813	81.1962	257.813	80.6053	257.813	80.9755	257.813	80.5047	257.813	80.8026	257.813	80.4621	257.813	80.6804	257.813	80.4616	257.813	80.6016	257.813	80.4838	257.813	80.5514	257.813	80.5149
266.602	82.976	266.602	82.9181	266.602	82.9835	266.602	82.8107	266.602	82.9417	266.602	82.657	266.602	82.8529	266.602	82.4624	266.602	82.7198	266.602	82.234	266.602	82.5447	266.602	81.9802	266.602	82.3296	266.602	81.7105	266.602	82.0768	266.602	81.4348	266.602	81.7905	266.602	81.1649	266.602	81.4794	266.602	80.9138	266.602	81.1587	266.602	80.6957	266.602	80.8508	266.602	80.5238	266.602	80.5828	266.602	80.4059	266.602	80.3802	266.602	80.3404	266.602	80.2571	266.602	80.3151	266.602	80.2097	266.602	80.3101	266.602	80.2176	266.602	80.3047	266.602	80.2514	266.602	80.2853
278.32	83.0103	278.32	83.0155	278.32	82.9408	278.32	82.9527	278.32	82.8162	278.32	82.8233	278.32	82.6515	278.32	82.6324	278.32	82.4653	278.32	82.3876	278.32	82.2767	278.32	82.0984	278.32	82.1007	278.32	81.776	278.32	81.9444	278.32	81.4341	278.32	81.8057	278.32	81.0904	278.32	81.6757	278.32	80.7672	278.32	81.5439	278.32	80.491	278.32	81.4034	278.32	80.2874	278.32	81.2539	278.32	80.174	278.32	81.1024	278.32	80.1521	278.32	80.9595	278.32	80.2045	278.32	80.8336	278.32	80.3021	278.32	80.7253	278.32	80.4157	278.32	80.6264	278.32	80.5255
287.109	83.3279	287.109	83.3035	287.109	83.2835	287.109	83.2143	287.109	83.1691	287.109	83.0657	287.109	82.9882	287.109	82.863	287.109	82.7503	287.109	82.6105	287.109	82.4714	287.109	82.3125	287.109	82.1727	287.109	81.9744	287.109	81.8774	287.109	81.6055	287.109	81.6061	287.109	81.2218	287.109	81.3726	287.109	80.8489	287.109	81.1817	287.109	80.5204	287.109	81.0306	287.109	80.272	287.109	80.913	287.109	80.1296	287.109	80.8221	287.109	80.0972	287.109	80.7516	287.109	80.1534	287.109	80.6943	287.109	80.2613	287.109	80.64	287.109	80.3829	287.109	80.576	287.109	80.4914
295.898	83.3274	295.898	83.2755	295.898	83.3163	295.898	83.1688	295.898	83.235	295.898	83.0154	295.898	83.077	295.898	82.8231	295.898	82.8383	295.898	82.5986	295.898	82.5183	295.898	82.3463	295.898	82.1223	295.898	82.0685	295.898	81.6645	295.898	81.7663	295.898	81.1705	295.898	81.4427	295.898	80.6791	295.898	81.1061	295.898	80.2392	295.898	80.7736	295.898	79.8998	295.898	80.4716	295.898	79.6936	295.898	80.2299	295.898	79.6234	295.898	80.0702	295.898	79.6602	295.898	79.9942	295.898	79.7566	295.898	79.9797	295.898	79.864	295.898	79.9895	295.898	79.9462	295.898	79.9865
307.617	83.3882	307.617	83.2861	307.617	83.4271	307.617	83.1193	307.617	83.4079	307.617	82.8914	307.617	83.3374	307.617	82.6115	307.617	83.2217	307.617	82.2941	307.617	83.064	307.617	81.9582	307.617	82.864	307.617	81.626	307.617	82.6183	307.617	81.3205	307.617	82.324	307.617	81.0624	307.617	81.9829	307.617	80.8669	307.617	81.6066	307.617	80.7401	307.617	81.2205	307.617	80.6785	307.617	80.8647	307.617	80.6689	307.617	80.5858	307.617	80.6904	307.617	80.4205	307.617	80.7182	307.617	80.377	307.617	80.7276	307.617	80.4291	307.617	80.7004	307.617	80.5293	307.617	80.6304
319.336	83.4861	319.336	83.4394	319.336	83.4549	319.336	83.3079	319.336	83.356	319.336	83.0867	319.336	83.2022	319.336	82.7734	319.336	83.0085	319.336	82.3686	319.336	82.7901	319.336	81.8777	319.336	82.5595	319.336	81.3154	319.336	82.3244	319.336	80.711	319.336	82.0865	319.336	80.1156	319.336	81.844	319.336	79.6036	319.336	81.5954	319.336	79.2585	319.336	81.3444	319.336	79.1375	319.336	81.1031	319.336	79.2351	319.336	80.8905	319.336	79.4829	319.336	80.7254	319.336	79.7873	319.336	80.616	319.336	80.0696	319.336	80.5507	319.336	80.2848	319.336	80.4994	319.336	80.4223
331.055	83.3344	331.055	83.3704	331.055	83.2262	331.055	83.3284	331.055	83.0548	331.055	83.205	331.055	82.8331	331.055	82.9975	331.055	82.578	331.055	82.7038	331.055	82.3087	331.055	82.3226	331.055	82.0438	331.055	81.8555	331.055	81.7981	331.055	81.3121	331.055	81.5799	331.055	80.7171	331.055	81.3907	331.055	80.1196	331.055	81.2272	331.055	79.5972	331.055	81.0855	331.055	79.2423	331.055	80.9639	331.055	79.1211	331.055	80.8623	331.055	79.2301	331.055	80.7795	331.055	79.4959	331.055	80.7081	331.055	79.8193	331.055	80.6309	331.055	80.1207	331.055	80.5227	331.055	80.3577
342.773	83.329	342.773	83.3922	342.773	83.1735	342.773	83.3713	342.773	82.9186	342.773	83.2728	342.773	82.5605	342.773	83.0996	342.773	82.1034	342.773	82.8506	342.773	81.5636	342.773	82.5212	342.773	80.9762	342.773	82.1066	342.773	80.4008	342.773	81.6074	342.773	79.9198	342.773	81.0378	342.773	79.6189	342.773	80.4375	342.773	79.5497	342.773	79.8815	342.773	79.6987	342.773	79.4745	342.773	79.994	342.773	79.3123	342.773	80.3427	342.773	79.4214	342.773	80.6634	342.773	79.7359	342.773	80.8984	342.773	80.1398	342.773	81.0126	342.773	80.5256	342.773	80.9879	342.773	80.821
354.492	83.682	354.492	83.7017	354.492	83.5876	354.492	83.6594	354.492	83.4066	354.492	83.5659	354.492	83.1283	354.492	83.427	354.492	82.7436	354.492	83.2415	354.492	82.246	354.492	82.9996	354.492	81.6329	354.492	82.6851	354.492	80.9118	354.492	82.2802	354.492	80.1106	354.492	81.7733	354.492	79.2962	354.492	81.1703	354.492	78.5907	354.492	80.5101	354.492	78.1563	354.492	79.8805	354.492	78.1108	354.492	79.4123	354.492	78.4259	354.492	79.2231	354.492	78.9406	354.492	79.3266	354.492	79.4696	354.492	79.6103	354.492	79.8787	354.492	79.9116	354.492	80.0957	354.492	80.0986
366.211	83.9874	366.211	83.8289	366.211	84.0685	366.211	83.6083	366.211	84.0585	366.211	83.343	366.211	83.9442	366.211	83.0512	366.211	83.7121	366.211	82.7488	366.211	83.3469	366.211	82.4458	366.211	82.8319	366.211	82.1434	366.211	82.1506	366.211	81.8346	366.211	81.2917	366.211	81.5083	366.211	80.2613	366.211	81.1571	366.211	79.11	366.211	80.7861	366.211	77.9817	366.211	80.4184	366.211	77.1471	366.211	80.0935	366.211	76.8877	366.211	79.8517	366.211	77.2194	366.211	79.7078	366.211	77.8646	366.211	79.6306	366.211	78.5271	366.211	79.5487	366.211	79.0457	366.211	79.3768
377.93	83.9444	377.93	83.7711	377.93	84.0539	377.93	83.5383	377.93	84.0984	377.93	83.2544	377.93	84.0775	377.93	82.9304	377.93	83.9879	377.93	82.5767	377.93	83.8211	377.93	82.1998	377.93	83.5631	377.93	81.8024	377.93	83.1957	377.93	81.3858	377.93	82.701	377.93	80.958	377.93	82.068	377.93	80.5421	377.93	81.3043	377.93	80.1811	377.93	80.4551	377.93	79.9298	377.93	79.6267	377.93	79.8277	377.93	78.9909	377.93	79.8671	377.93	78.7152	377.93	79.9844	377.93	78.8304	377.93	80.0855	377.93	79.1941	377.93	80.0834	377.93	79.6071	377.93	79.9249
392.578	83.5962	392.578	83.4937	392.578	83.6104	392.578	83.3051	392.578	83.5415	392.578	83.0401	392.578	83.3992	392.578	82.7135	392.578	83.1935	392.578	82.3407	392.578	82.9302	392.578	81.9322	392.578	82.6082	392.578	81.4904	392.578	82.2196	392.578	81.011	392.578	81.7546	392.578	80.4921	392.578	81.2094	392.578	79.9505	392.578	80.5987	392.578	79.4398	392.578	79.9708	392.578	79.0563	392.578	79.4183	392.578	78.9035	392.578	79.0638	392.578	79.0165	392.578	78.9947	392.578	79.3155	392.578	79.1869	392.578	79.6514	392.578	79.5078	392.578	79.8871	392.578	79.7979	392.578	79.9412
407.227	83.6701	407.227	83.5725	407.227	83.6408	407.227	83.3638	407.227	83.4823	407.227	83.0697	407.227	83.2073	407.227	82.7189	407.227	82.8416	407.227	82.334	407.227	82.4179	407.227	81.9227	407.227	81.9672	407.227	81.4744	407.227	81.5096	407.227	80.9649	407.227	81.0495	407.227	80.3715	407.227	80.583	407.227	79.6968	407.227	80.1155	407.227	79.002	407.227	79.6835	407.227	78.4381	407.227	79.3666	407.227	78.2146	407.227	79.2617	407.227	78.4431	407.227	79.4114	407.227	79.0028	407.227	79.7467	407.227	79.6384	407.227	80.1161	407.227	80.1367	407.227	80.365	407.227	80.3868
421.875	84.6032	421.875	84.4363	421.875	84.6265	421.875	84.1393	421.875	84.509	421.875	83.7446	421.875	84.2652	421.875	83.3015	421.875	83.917	421.875	82.8653	421.875	83.4871	421.875	82.4745	421.875	82.9921	421.875	82.127	421.875	82.4361	421.875	81.7735	421.875	81.8074	421.875	81.335	421.875	81.0829	421.875	80.7317	421.875	80.2418	421.875	79.9148	421.875	79.2922	421.875	78.9091	421.875	78.3144	421.875	77.8788	421.875	77.5012	421.875	77.1563	421.875	77.1035	421.875	77.026	421.875	77.2038	421.875	77.3728	421.875	77.5865	421.875	77.8058	421.875	77.9325	421.875	78.0265
436.523	85.1378	436.523	84.9448	436.523	85.1664	436.523	84.586	436.523	85.0369	436.523	84.0699	436.523	84.7574	436.523	83.4233	436.523	84.3378	436.523	82.7007	436.523	83.789	436.523	81.9865	436.523	83.1226	436.523	81.3768	436.523	82.3502	436.523	80.9318	436.523	81.4829	436.523	80.633	436.523	80.5348	436.523	80.3923	436.523	79.5355	436.523	80.1073	436.523	78.557	436.523	79.7154	436.523	77.7419	436.523	79.2272	436.523	77.2806	436.523	78.7394	436.523	77.2744	436.523	78.4004	436.523	77.6074	436.523	78.2998	436.523	78.0289	436.523	78.3683	436.523	78.3309	436.523	78.429
451.172	86.1339	451.172	85.942	451.172	86.1494	451.172	85.5716	451.172	85.9954	451.172	85.0271	451.172	85.6833	451.172	84.3233	451.172	85.2281	451.172	83.4924	451.172	84.6475	451.172	82.5917	451.172	83.9586	451.172	81.707	451.172	83.1735	451.172	80.9344	451.172	82.2933	451.172	80.335	451.172	81.3043	451.172	79.8912	451.172	80.18	451.172	79.5151	451.172	78.898	451.172	79.1052	451.172	77.4844	451.172	78.6045	451.172	76.103	451.172	78.0304	451.172	75.1282	451.172	77.4708	451.172	74.9103	451.172	77.0216	451.172	75.3128	451.172	76.6858	451.172	75.8853	451.172	76.3487
465.82	85.8872	465.82	85.6178	465.82	86.0486	465.82	85.2311	465.82	86.1035	465.82	84.7129	465.82	86.0459	465.82	84.0486	465.82	85.8644	465.82	83.232	465.82	85.5443	465.82	82.2798	465.82	85.0703	465.82	81.2564	465.82	84.4282	465.82	80.301	465.82	83.6061	465.82	79.619	465.82	82.5975	465.82	79.369	465.82	81.4091	465.82	79.5151	465.82	80.0809	465.82	79.8515	465.82	78.7259	465.82	80.1636	465.82	77.5788	465.82	80.3192	465.82	76.9523	465.82	80.2663	465.82	76.9937	465.82	80.0035	465.82	77.5238	465.82	79.5546	465.82	78.2441	465.82	78.9526
483.398	85.7092	483.398	85.8108	483.398	85.4878	483.398	85.761	483.398	85.1854	483.398	85.5325	483.398	84.8464	483.398	85.0991	483.398	84.5128	483.398	84.4325	483.398	84.211	483.398	83.5007	483.398	83.9396	483.398	82.2693	483.398	83.6669	483.398	80.7111	483.398	83.3412	483.398	78.8461	483.398	82.9061	483.398	76.8763	483.398	82.3149	483.398	75.4367	483.398	81.5419	483.398	75.3129	483.398	80.6013	483.398	76.2583	483.398	79.5845	483.398	77.4111	483.398	78.6988	483.398	78.3136	483.398	78.2131	483.398	78.8499	483.398	78.2293	483.398	79.0244	483.398	78.5536	483.398	78.889
500.977	85.6798	500.977	85.7277	500.977	85.5583	500.977	85.7011	500.977	85.3622	500.977	85.5916	500.977	85.0943	500.977	85.38	500.977	84.7615	500.977	85.0356	500.977	84.3715	500.977	84.5192	500.977	83.9254	500.977	83.7857	500.977	83.4118	500.977	82.788	500.977	82.8059	500.977	81.4875	500.977	82.0753	500.977	79.8898	500.977	81.1952	500.977	78.1565	500.977	80.1763	500.977	76.811	500.977	79.1132	500.977	76.5657	500.977	78.2339	500.977	77.3363	500.977	77.8369	500.977	78.3591	500.977	78.0262	500.977	79.1383	500.977	78.573	500.977	79.5212	500.977	79.1439	500.977	79.5027
518.555	85.8222	518.555	85.7774	518.555	85.7209	518.555	85.6029	518.555	85.4799	518.555	85.3318	518.555	85.1303	518.555	85.0018	518.555	84.7227	518.555	84.6381	518.555	84.3145	518.555	84.239	518.555	83.9476	518.555	83.7694	518.555	83.6286	518.555	83.1688	518.555	83.3222	518.555	82.3667	518.555	82.9637	518.555	81.3063	518.555	82.4808	518.555	79.9885	518.555	81.8183	518.555	78.5784	518.555	80.9716	518.555	77.5617	518.555	80.0414	518.555	77.517	518.555	79.2873	518.555	78.3028	518.555	79.0254	518.555	79.2295	518.555	79.2877	518.555	79.8385	518.555	79.7351	518.555	79.9902
536.133	86.6057	536.133	86.5811	536.133	86.5036	536.133	86.433	536.133	86.2689	536.133	86.1643	536.133	85.8926	536.133	85.7793	536.133	85.3654	536.133	85.2826	536.133	84.6836	536.133	84.6735	536.133	83.8551	536.133	83.9378	536.133	82.9051	536.133	83.0409	536.133	81.8787	536.133	81.9251	536.133	80.841	536.133	80.5199	536.133	79.8749	536.133	78.7923	536.133	79.0835	536.133	76.9382	536.133	78.5934	536.133	75.8035	536.133	78.5263	536.133	76.3708	536.133	78.9036	536.133	77.9633	536.133	79.5724	536.133	79.4537	536.133	80.2712	536.133	80.4307	536.133	80.7539	536.133	80.8446
553.711	86.5437	553.711	86.4282	553.711	86.5184	553.711	86.1837	553.711	86.357	553.711	85.8318	553.711	86.082	553.711	85.3953	553.711	85.7277	553.711	84.8877	553.711	85.3261	553.711	84.3044	553.711	84.8871	553.711	83.6176	553.711	84.385	553.711	82.776	553.711	83.7573	553.711	81.7105	553.711	82.9132	553.711	80.3487	553.711	81.7439	553.711	78.6623	553.711	80.1391	553.711	76.824	553.711	78.0552	553.711	75.5285	553.711	75.8277	553.711	75.655	553.711	74.7724	553.711	76.8134	553.711	75.7229	553.711	78.0001	553.711	77.2773	553.711	78.7367	553.711	78.4031	553.711	78.887
574.219	86.9019	574.219	86.8172	574.219	86.8416	574.219	86.6014	574.219	86.6343	574.219	86.2805	574.219	86.2943	574.219	85.8915	574.219	85.8588	574.219	85.4748	574.219	85.3868	574.219	85.0537	574.219	84.9403	574.219	84.6085	574.219	84.5462	574.219	84.0647	574.219	84.1641	574.219	83.2998	574.219	83.6879	574.219	82.1544	574.219	82.9741	574.219	80.4274	574.219	81.8669	574.219	77.8625	574.219	80.2104	574.219	74.3655	574.219	77.9103	574.219	72.1338	574.219	75.3672	574.219	74.4017	574.219	74.5361	574.219	77.0591	574.219	76.145	574.219	78.4872	574.219	77.8885	574.219	78.7293
594.727	86.724	594.727	86.7262	594.727	86.549	594.727	86.5747	594.727	86.189	594.727	86.2937	594.727	85.6509	594.727	85.9145	594.727	84.9808	594.727	85.4759	594.727	84.2897	594.727	85.0165	594.727	83.7471	594.727	84.5521	594.727	83.4899	594.727	84.048	594.727	83.4898	594.727	83.4088	594.727	83.5533	594.727	82.4923	594.727	83.4506	594.727	81.137	594.727	83.0047	594.727	79.2111	594.727	82.1053	594.727	76.8242	594.727	80.7233	594.727	75.0686	594.727	79.0141	594.727	75.5419	594.727	77.5654	594.727	77.0609	594.727	77.2137	594.727	78.0803	594.727	77.7739	594.727	78.2629
615.234	87.0006	615.234	86.7597	615.234	87.0869	615.234	86.3956	615.234	86.986	615.234	85.9416	615.234	86.6682	615.234	85.4398	615.234	86.1157	615.234	84.9428	615.234	85.3357	615.234	84.4978	615.234	84.3753	615.234	84.114	615.234	83.3315	615.234	83.7364	615.234	82.3358	615.234	83.2526	615.234	81.4887	615.234	82.5179	615.234	80.7819	615.234	81.3724	615.234	80.1144	615.234	79.6498	615.234	79.4104	615.234	77.2628	615.234	78.7444	615.234	74.7917	615.234	78.3679	615.234	74.4697	615.234	78.4812	615.234	76.3437	615.234	78.91	615.234	78.0891	615.234	79.2182	615.234	79.0253
638.672	87.5298	638.672	87.3514	638.672	87.5175	638.672	86.9645	638.672	87.3331	638.672	86.3694	638.672	86.9885	638.672	85.6086	638.672	86.493	638.672	84.792	638.672	85.8674	638.672	84.0916	638.672	85.1601	638.672	83.6503	638.672	84.4459	638.672	83.4423	638.672	83.7864	638.672	83.2588	638.672	83.164	638.672	82.8316	638.672	82.4545	638.672	81.9269	638.672	81.4709	638.672	80.373	638.672	80.0467	638.672	78.1835	638.672	78.2157	638.672	76.2337	638.672	76.7609	638.672	76.5383	638.672	77.1284	638.672	78.4011	638.672	78.7264	638.672	79.8826	638.672	80.0147	638.672	80.4354
659.18	87.4544	659.18	87.3126	659.18	87.4139	659.18	86.9777	659.18	87.1982	659.18	86.4431	659.18	86.8109	659.18	85.7214	659.18	86.2596	659.18	84.8665	659.18	85.5742	659.18	83.9943	659.18	84.8256	659.18	83.2609	659.18	84.1204	659.18	82.7546	659.18	83.5386	659.18	82.3802	659.18	83.0424	659.18	81.8923	659.18	82.457	659.18	81.024	659.18	81.5411	659.18	79.5709	659.18	80.0614	659.18	77.5167	659.18	77.8977	659.18	75.5946	659.18	75.5779	659.18	75.6163	659.18	75.1942	659.18	77.2338	659.18	76.9152	659.18	78.5988	659.18	78.4669	659.18	79.0499
682.617	87.6991	682.617	87.5488	682.617	87.6724	682.617	87.2271	682.617	87.449	682.617	86.7266	682.617	87.0047	682.617	86.0417	682.617	86.3284	682.617	85.1973	682.617	85.4497	682.617	84.285	682.617	84.4726	682.617	83.4661	682.617	83.5823	682.617	82.8744	682.617	82.9505	682.617	82.4569	682.617	82.5585	682.617	81.96	682.617	82.1664	682.617	81.0758	682.617	81.4706	682.617	79.5755	682.617	80.2335	682.617	77.534	682.617	78.402	682.617	76.1218	682.617	76.598	682.617	76.9967	682.617	76.5352	682.617	78.8112	682.617	78.1389	682.617	80.0237	682.617	79.6292	682.617	80.2986
706.055	87.8177	706.055	87.7111	706.055	87.7239	706.055	87.3878	706.055	87.4463	706.055	86.836	706.055	86.9894	706.055	86.0492	706.055	86.3361	706.055	85.0463	706.055	85.4626	706.055	83.9274	706.055	84.3895	706.055	82.9425	706.055	83.2617	706.055	82.3984	706.055	82.367	706.055	82.2873	706.055	81.9051	706.055	82.1729	706.055	81.6735	706.055	81.5307	706.055	81.2037	706.055	79.9213	706.055	80.0772	706.055	76.9836	706.055	78.0591	706.055	73.5746	706.055	75.5973	706.055	74.7029	706.055	75.1489	706.055	77.7571	706.055	77.1771	706.055	79.4634	706.055	79.0149	706.055	79.8215
732.422	87.2685	732.422	87.1952	732.422	87.1993	732.422	86.9781	732.422	86.9733	732.422	86.5946	732.422	86.569	732.422	86.0067	732.422	85.9656	732.422	85.1841	732.422	85.1588	732.422	84.1469	732.422	84.1947	732.422	83.0219	732.422	83.2162	732.422	82.055	732.422	82.4486	732.422	81.4346	732.422	82.0082	732.422	81.0103	732.422	81.6898	732.422	80.3315	732.422	81.0635	732.422	78.9063	732.422	79.6758	732.422	76.3733	732.422	77.09	732.422	73.5315	732.422	73.3621	732.422	74.3956	732.422	72.8002	732.422	77.2483	732.422	76.1724	732.422	79.0095	732.422	78.5303	732.422	79.429
758.789	87.3979	758.789	87.291	758.789	87.3288	758.789	87.0014	758.789	87.0943	758.789	86.5208	758.789	86.6979	758.789	85.8327	758.789	86.1182	758.789	84.9308	758.789	85.3184	758.789	83.8799	758.789	84.3026	758.789	82.8939	758.789	83.2072	758.789	82.2725	758.789	82.328	758.789	82.0451	758.789	81.8657	758.789	81.8026	758.789	81.5805	758.789	81.0108	758.789	80.9458	758.789	79.1921	758.789	79.4667	758.789	75.9034	758.789	76.7656	758.789	72.3092	758.789	73.3926	758.789	74.3657	758.789	73.7833	758.789	77.654	758.789	76.8654	758.789	79.3725	758.789	78.9361	758.789	79.7474
785.156	87.0047	785.156	86.9021	785.156	86.9262	785.156	86.6214	785.156	86.6812	785.156	86.1698	785.156	86.2952	785.156	85.5455	785.156	85.7745	785.156	84.742	785.156	85.0804	785.156	83.7827	785.156	84.1529	785.156	82.7847	785.156	83.0117	785.156	81.9827	785.156	81.9097	785.156	81.5403	785.156	81.2835	785.156	81.2462	785.156	81.1654	785.156	80.5813	785.156	80.9537	785.156	78.9573	785.156	79.9707	785.156	75.6326	785.156	77.5903	785.156	69.8907	785.156	72.8001	785.156	70.8936	785.156	67.6019	785.156	75.7281	785.156	73.389	785.156	77.9923	785.156	77.0535	785.156	78.3873
811.523	87.0735	811.523	86.9405	811.523	87.0316	811.523	86.6371	811.523	86.8068	811.523	86.1508	811.523	86.3923	811.523	85.439	811.523	85.773	811.523	84.4352	811.523	84.9067	811.523	83.1115	811.523	83.7321	811.523	81.6541	811.523	82.2624	811.523	80.6769	811.523	80.8164	811.523	80.7109	811.523	80.1096	811.523	81.1961	811.523	80.3363	811.523	81.1781	811.523	80.6362	811.523	80.0559	811.523	80.1537	811.523	77.4402	811.523	78.356	811.523	73.6378	811.523	74.9501	811.523	73.3692	811.523	72.3467	811.523	76.3993	811.523	74.9993	811.523	78.2538	811.523	77.6055	811.523	78.6397
840.82	87.1159	840.82	86.9772	840.82	87.0353	840.82	86.6571	840.82	86.7466	840.82	86.2042	840.82	86.3073	840.82	85.6195	840.82	85.7656	840.82	84.8205	840.82	85.0868	840.82	83.6728	840.82	84.151	840.82	82.119	840.82	82.8617	840.82	80.4796	840.82	81.3622	840.82	79.6436	840.82	80.2554	840.82	79.8315	840.82	80.0644	840.82	79.9315	840.82	80.2058	840.82	78.9441	840.82	79.6928	840.82	76.1151	840.82	77.8007	840.82	70.88	840.82	73.8275	840.82	71.3974	840.82	70.2645	840.82	76.0629	840.82	74.422	840.82	78.3276	840.82	77.6171	840.82	78.786
870.117	87.2123	870.117	87.0633	870.117	87.1101	870.117	86.6741	870.117	86.7886	870.117	86.093	870.117	86.3045	870.117	85.3673	870.117	85.7013	870.117	84.4812	870.117	84.9565	870.117	83.3448	870.117	83.9667	870.117	81.9083	870.117	82.6345	870.117	80.4397	870.117	81.1059	870.117	79.7054	870.117	80.0616	870.117	79.9642	870.117	80.0799	870.117	80.2204	870.117	80.42	870.117	79.4498	870.117	79.9792	870.117	76.8539	870.117	78.0166	870.117	71.4701	870.117	73.819	870.117	70.8125	870.117	69.7702	870.117	76.0216	870.117	74.0111	870.117	78.4084	870.117	77.3846	870.117	78.7503
902.344	87.5353	902.344	87.34	902.344	87.4426	902.344	86.918	902.344	87.062	902.344	86.3791	902.344	86.469	902.344	85.8223	902.344	85.8025	902.344	85.2163	902.344	85.1575	902.344	84.347	902.344	84.4406	902.344	82.9276	902.344	83.39	902.344	80.8544	902.344	81.7821	902.344	78.8717	902.344	79.8444	902.344	78.6512	902.344	78.7787	902.344	79.4053	902.344	79.0641	902.344	79.1402	902.344	79.0806	902.344	76.774	902.344	77.5223	902.344	71.015	902.344	73.4378	902.344	70.041	902.344	69.5663	902.344	75.9458	902.344	74.6954	902.344	78.59	902.344	78.0522	902.344	79.1882
931.641	87.8666	931.641	87.6801	931.641	87.7174	931.641	87.1778	931.641	87.2499	931.641	86.4401	931.641	86.5336	931.641	85.6128	931.641	85.7153	931.641	84.7999	931.641	84.9489	931.641	83.9178	931.641	84.202	931.641	82.7597	931.641	83.2169	931.641	81.3062	931.641	81.8036	931.641	80.1524	931.641	80.3428	931.641	80.0886	931.641	79.8847	931.641	80.4566	931.641	80.3353	931.641	79.9506	931.641	80.3184	931.641	77.5976	931.641	78.8633	931.641	71.7088	931.641	75.0606	931.641	65.9117	931.641	68.4433	931.641	74.5504	931.641	72.7807	931.641	77.917	931.641	77.1574	931.641	78.6276
966.797	88.4602	966.797	88.2212	966.797	88.3029	966.797	87.6142	966.797	87.7535	966.797	86.7214	966.797	86.8713	966.797	85.7223	966.797	85.8173	966.797	84.8431	966.797	84.8367	966.797	84.0911	966.797	84.0512	966.797	83.1257	966.797	83.2424	966.797	81.607	966.797	82.0315	966.797	79.8088	966.797	80.3396	966.797	79.0781	966.797	78.9717	966.797	79.5544	966.797	78.9517	966.797	79.3851	966.797	79.2175	966.797	77.1982	966.797	78.1049	966.797	71.1341	966.797	74.0358	966.797	67.7217	966.797	66.8998	966.797	75.6569	966.797	74.7693	966.797	78.9394	966.797	78.7928	966.797	79.8769
999.023	88.4219	999.023	88.2587	999.023	88.2831	999.023	87.7651	999.023	87.8266	999.023	86.9121	999.023	87.0103	999.023	85.7423	999.023	85.8433	999.023	84.4133	999.023	84.4702	999.023	83.1016	999.023	83.1312	999.023	81.7845	999.023	81.8974	999.023	80.3275	999.023	80.57	999.023	79.0942	999.023	79.1548	999.023	79.0249	999.023	78.3591	999.023	79.7023	999.023	78.6264	999.023	79.6048	999.023	78.839	999.023	77.5737	999.023	77.575	999.023	71.5021	999.023	73.1384	999.023	61.9035	999.023	62.3739	999.023	74.8187	999.023	73.546	999.023	78.5648	999.023	78.077	999.023	79.433
1,034.18	88.2828	1,034.18	88.0719	1,034.18	88.17	1,034.18	87.5668	1,034.18	87.7022	1,034.18	86.7838	1,034.18	86.8831	1,034.18	85.7761	1,034.18	85.7798	1,034.18	84.6851	1,034.18	84.528	1,034.18	83.5996	1,034.18	83.2499	1,034.18	82.2921	1,034.18	81.8696	1,034.18	80.3124	1,034.18	80.0827	1,034.18	77.718	1,034.18	77.8375	1,034.18	76.8905	1,034.18	76.7756	1,034.18	78.6603	1,034.18	78.1672	1,034.18	79.7029	1,034.18	79.2497	1,034.18	78.6291	1,034.18	78.3568	1,034.18	74.1641	1,034.18	74.2771	1,034.18	61.0539	1,034.18	60.2034	1,034.18	72.2024	1,034.18	70.65	1,034.18	76.4002	1,034.18	75.8073	1,034.18	77.2326
1,072.27	88.224	1,072.27	88.0215	1,072.27	88.0828	1,072.27	87.4786	1,072.27	87.5714	1,072.27	86.5776	1,072.27	86.6541	1,072.27	85.3479	1,072.27	85.3366	1,072.27	83.9945	1,072.27	83.8029	1,072.27	82.8052	1,072.27	82.478	1,072.27	81.6372	1,072.27	81.5316	1,072.27	79.8112	1,072.27	80.3419	1,072.27	76.8898	1,072.27	77.9892	1,072.27	75.5015	1,072.27	74.7994	1,072.27	77.9114	1,072.27	75.7641	1,072.27	79.3478	1,072.27	78.2523	1,072.27	78.2452	1,072.27	78.4329	1,072.27	73.3491	1,072.27	75.609	1,072.27	54.3613	1,072.27	66.2391	1,072.27	72.2038	1,072.27	67.4158	1,072.27	76.4223	1,072.27	75.1269	1,072.27	77.1703
1,110.35	87.9419	1,110.35	87.6652	1,110.35	87.838	1,110.35	87.0435	1,110.35	87.3426	1,110.35	86.0643	1,110.35	86.4603	1,110.35	84.6572	1,110.35	85.1775	1,110.35	82.9235	1,110.35	83.5589	1,110.35	81.4521	1,110.35	82.0087	1,110.35	80.6967	1,110.35	81.1026	1,110.35	79.8303	1,110.35	80.4269	1,110.35	77.6169	1,110.35	78.7472	1,110.35	74.263	1,110.35	75.2205	1,110.35	75.4379	1,110.35	72.9516	1,110.35	78.1062	1,110.35	76.0189	1,110.35	78.172	1,110.35	77.6965	1,110.35	74.8271	1,110.35	76.4492	1,110.35	63.3657	1,110.35	70.4769	1,110.35	68.6361	1,110.35	58.9888	1,110.35	74.3731	1,110.35	72.7125	1,110.35	75.3372
1,148.44	87.7192	1,148.44	87.5167	1,148.44	87.5933	1,148.44	86.9552	1,148.44	87.1945	1,148.44	86.0055	1,148.44	86.544	1,148.44	84.6162	1,148.44	85.5439	1,148.44	82.8493	1,148.44	84.0321	1,148.44	81.1853	1,148.44	82.1003	1,148.44	80.2595	1,148.44	80.4881	1,148.44	79.5841	1,148.44	79.6847	1,148.44	77.8358	1,148.44	78.6481	1,148.44	74.3755	1,148.44	76.1911	1,148.44	73.6165	1,148.44	73.1569	1,148.44	76.3854	1,148.44	74.8991	1,148.44	76.7053	1,148.44	77.0928	1,148.44	73.0996	1,148.44	76.1717	1,148.44	58.187	1,148.44	69.8139	1,148.44	69.8768	1,148.44	63.1069	1,148.44	74.7986	1,148.44	73.6615	1,148.44	75.8074
1,189.45	87.836	1,189.45	87.6452	1,189.45	87.7453	1,189.45	87.1819	1,189.45	87.3783	1,189.45	86.4003	1,189.45	86.7535	1,189.45	85.1798	1,189.45	85.8191	1,189.45	83.4628	1,189.45	84.4313	1,189.45	81.5446	1,189.45	82.5501	1,189.45	80.1558	1,189.45	80.5978	1,189.45	79.3386	1,189.45	79.2811	1,189.45	77.8425	1,189.45	78.2543	1,189.45	74.4772	1,189.45	76.301	1,189.45	71.6465	1,189.45	73.5587	1,189.45	74.8076	1,189.45	74.2879	1,189.45	76.4057	1,189.45	76.1852	1,189.45	74.3412	1,189.45	75.4467	1,189.45	65.7667	1,189.45	70.4295	1,189.45	66.6881	1,189.45	58.4922	1,189.45	72.6639	1,189.45	70.348	1,189.45	73.3593
1,230.47	87.769	1,230.47	87.5479	1,230.47	87.6888	1,230.47	87.0385	1,230.47	87.3081	1,230.47	86.2502	1,230.47	86.6335	1,230.47	85.1531	1,230.47	85.6416	1,230.47	83.6772	1,230.47	84.2621	1,230.47	81.8491	1,230.47	82.4946	1,230.47	80.0602	1,230.47	80.6659	1,230.47	78.7575	1,230.47	79.3558	1,230.47	77.3906	1,230.47	78.3175	1,230.47	75.1296	1,230.47	76.5049	1,230.47	73.4545	1,230.47	74.1435	1,230.47	75.0309	1,230.47	74.3912	1,230.47	76.0513	1,230.47	75.8025	1,230.47	73.9657	1,230.47	75.1417	1,230.47	64.7806	1,230.47	70.5699	1,230.47	65.8663	1,230.47	55.2654	1,230.47	72.9954	1,230.47	70.3004	1,230.47	73.7985
1,274.41	87.5545	1,274.41	87.4389	1,274.41	87.3638	1,274.41	87.0134	1,274.41	86.8902	1,274.41	86.3127	1,274.41	86.1533	1,274.41	85.3196	1,274.41	85.154	1,274.41	83.888	1,274.41	83.825	1,274.41	81.9372	1,274.41	82.0818	1,274.41	79.9562	1,274.41	80.1521	1,274.41	78.901	1,274.41	78.7876	1,274.41	78.1251	1,274.41	77.9069	1,274.41	75.8589	1,274.41	76.0865	1,274.41	71.9151	1,274.41	72.5067	1,274.41	73.2477	1,274.41	72.22	1,274.41	75.7461	1,274.41	75.4476	1,274.41	74.6529	1,274.41	75.7819	1,274.41	68.1578	1,274.41	71.7593	1,274.41	65.3577	1,274.41	60.435	1,274.41	72.412	1,274.41	70.914	1,274.41	73.7824
1,318.36	86.8357	1,318.36	86.7468	1,318.36	86.6212	1,318.36	86.3098	1,318.36	86.1438	1,318.36	85.5857	1,318.36	85.4183	1,318.36	84.6713	1,318.36	84.4596	1,318.36	83.468	1,318.36	83.1823	1,318.36	81.7677	1,318.36	81.3948	1,318.36	79.8109	1,318.36	79.1589	1,318.36	78.5401	1,318.36	77.3299	1,318.36	77.7771	1,318.36	76.5996	1,318.36	75.7662	1,318.36	75.604	1,318.36	71.9064	1,318.36	73.0496	1,318.36	72.4645	1,318.36	71.9151	1,318.36	74.9883	1,318.36	74.2193	1,318.36	74.1925	1,318.36	74.4612	1,318.36	67.9664	1,318.36	70.4449	1,318.36	61.4479	1,318.36	52.8811	1,318.36	71.2928	1,318.36	69.2779	1,318.36	72.7267
1,365.23	86.2399	1,365.23	86.0774	1,365.23	85.9866	1,365.23	85.5705	1,365.23	85.4009	1,365.23	84.8296	1,365.23	84.6616	1,365.23	83.8986	1,365.23	83.8469	1,365.23	82.7619	1,365.23	82.7864	1,365.23	81.2965	1,365.23	81.1778	1,365.23	79.3273	1,365.23	78.9485	1,365.23	77.129	1,365.23	76.7271	1,365.23	75.5058	1,365.23	75.5671	1,365.23	74.071	1,365.23	74.6544	1,365.23	71.8259	1,365.23	72.4301	1,365.23	71.7601	1,365.23	70.3484	1,365.23	74.0044	1,365.23	71.7869	1,365.23	73.3585	1,365.23	72.5838	1,365.23	66.8065	1,365.23	69.6651	1,365.23	61.0796	1,365.23	54.242	1,365.23	69.8689	1,365.23	66.5929	1,365.23	70.7967
1,415.04	86.0808	1,415.04	85.8776	1,415.04	85.8706	1,415.04	85.3014	1,415.04	85.2364	1,415.04	84.3989	1,415.04	84.2426	1,415.04	83.2614	1,415.04	83.1112	1,415.04	81.9922	1,415.04	82.0499	1,415.04	80.454	1,415.04	80.8183	1,415.04	78.3498	1,415.04	78.9434	1,415.04	76.1028	1,415.04	76.6226	1,415.04	74.9257	1,415.04	75.3229	1,415.04	73.7338	1,415.04	74.4595	1,415.04	70.3655	1,415.04	71.3877	1,415.04	69.9783	1,415.04	66.6705	1,415.04	73.8161	1,415.04	71.1878	1,415.04	73.859	1,415.04	73.8587	1,415.04	69.1617	1,415.04	72.0676	1,415.04	62.0113	1,415.04	62.4092	1,415.04	68.9969	1,415.04	66.7142	1,415.04	70.8028
1,464.84	86.2267	1,464.84	86.023	1,464.84	85.9378	1,464.84	85.2816	1,464.84	85.2558	1,464.84	84.1367	1,464.84	84.2711	1,464.84	82.9143	1,464.84	83.0847	1,464.84	81.7366	1,464.84	81.8965	1,464.84	80.2096	1,464.84	80.7166	1,464.84	78.024	1,464.84	79.0299	1,464.84	76.0298	1,464.84	76.5559	1,464.84	75.5606	1,464.84	74.9413	1,464.84	74.867	1,464.84	74.9004	1,464.84	71.4521	1,464.84	73.3501	1,464.84	67.6256	1,464.84	68.7121	1,464.84	72.3583	1,464.84	70.4336	1,464.84	73.7366	1,464.84	73.3906	1,464.84	69.8264	1,464.84	71.4739	1,464.84	58.7638	1,464.84	63.166	1,464.84	68.8352	1,464.84	63.5737	1,464.84	69.6419
1,514.65	86.4173	1,514.65	86.1514	1,514.65	86.1817	1,514.65	85.4752	1,514.65	85.4281	1,514.65	84.4444	1,514.65	84.3024	1,514.65	83.186	1,514.65	83.0034	1,514.65	81.8798	1,514.65	81.7508	1,514.65	80.4289	1,514.65	80.6252	1,514.65	78.4747	1,514.65	79.1767	1,514.65	76.1135	1,514.65	76.7795	1,514.65	74.6119	1,514.65	73.9918	1,514.65	74.1055	1,514.65	73.2353	1,514.65	72.1117	1,514.65	72.9651	1,514.65	67.9671	1,514.65	70.7538	1,514.65	70.5421	1,514.65	69.6169	1,514.65	72.6135	1,514.65	72.2671	1,514.65	69.6169	1,514.65	71.9487	1,514.65	60.0735	1,514.65	65.928	1,514.65	68.2792	1,514.65	62.6963	1,514.65	69.4559
1,570.31	86.633	1,570.31	86.3515	1,570.31	86.4541	1,570.31	85.5667	1,570.31	85.8671	1,570.31	84.4458	1,570.31	84.6383	1,570.31	83.0727	1,570.31	82.7619	1,570.31	81.6443	1,570.31	80.9485	1,570.31	80.5381	1,570.31	79.7469	1,570.31	79.2436	1,570.31	78.496	1,570.31	76.6858	1,570.31	76.3012	1,570.31	73.8878	1,570.31	73.1847	1,570.31	73.5224	1,570.31	72.5131	1,570.31	72.2402	1,570.31	73.3731	1,570.31	68.3258	1,570.31	71.4299	1,570.31	69.7141	1,570.31	68.0689	1,570.31	71.5195	1,570.31	71.5918	1,570.31	69.0938	1,570.31	71.5335	1,570.31	63.9358	1,570.31	66.4195	1,570.31	69.6664	1,570.31	68.1186	1,570.31	71.7011
1,623.05	85.7226	1,623.05	85.5838	1,623.05	85.4108	1,623.05	84.7747	1,623.05	84.8621	1,623.05	83.5198	1,623.05	84.0105	1,623.05	82.229	1,623.05	82.6274	1,623.05	80.8896	1,623.05	80.674	1,623.05	79.4925	1,623.05	78.7985	1,623.05	78.2762	1,623.05	77.9631	1,623.05	76.5373	1,623.05	76.8615	1,623.05	73.6046	1,623.05	73.6333	1,623.05	72.534	1,623.05	69.3992	1,623.05	72.5124	1,623.05	70.4171	1,623.05	69.6584	1,623.05	70.1659	1,623.05	69.7721	1,623.05	65.8171	1,623.05	71.567	1,623.05	67.1392	1,623.05	68.2985	1,623.05	67.1929	1,623.05	62.9917	1,623.05	59.1885	1,623.05	68.6183	1,623.05	68.0208	1,623.05	71.2712
1,681.64	85.6364	1,681.64	85.4008	1,681.64	85.4497	1,681.64	84.7834	1,681.64	84.8766	1,681.64	83.7712	1,681.64	83.9645	1,681.64	82.2435	1,681.64	82.7949	1,681.64	80.3752	1,681.64	81.433	1,681.64	78.8968	1,681.64	79.837	1,681.64	78.0424	1,681.64	78.1496	1,681.64	76.7354	1,681.64	76.7289	1,681.64	74.229	1,681.64	75.1056	1,681.64	71.8117	1,681.64	72.2132	1,681.64	71.0714	1,681.64	69.1706	1,681.64	69.0521	1,681.64	67.9652	1,681.64	68.4553	1,681.64	66.523	1,681.64	70.2587	1,681.64	67.6716	1,681.64	67.5575	1,681.64	68.1523	1,681.64	55.1881	1,681.64	61.5704	1,681.64	68.3528	1,681.64	64.9107	1,681.64	69.6793
1,740.23	86.6503	1,740.23	86.4179	1,740.23	86.4245	1,740.23	85.5824	1,740.23	85.8887	1,740.23	84.2713	1,740.23	84.9669	1,740.23	82.7302	1,740.23	83.5814	1,740.23	80.9818	1,740.23	81.8643	1,740.23	79.0378	1,740.23	80.1078	1,740.23	77.4792	1,740.23	78.7035	1,740.23	76.3923	1,740.23	77.7447	1,740.23	74.8045	1,740.23	76.4361	1,740.23	73.0275	1,740.23	73.9698	1,740.23	71.5248	1,740.23	71.3539	1,740.23	67.1922	1,740.23	69.7657	1,740.23	65.2728	1,740.23	67.553	1,740.23	69.6796	1,740.23	69.0332	1,740.23	68.5886	1,740.23	69.8659	1,740.23	57.0125	1,740.23	63.7839	1,740.23	69.5649	1,740.23	66.458	1,740.23	71.7892
1,801.76	87.0938	1,801.76	86.7452	1,801.76	87.0998	1,801.76	86.4113	1,801.76	86.4218	1,801.76	85.8167	1,801.76	85.3872	1,801.76	84.6188	1,801.76	84.3034	1,801.76	82.8012	1,801.76	82.8503	1,801.76	80.5577	1,801.76	80.7003	1,801.76	78.685	1,801.76	78.4456	1,801.76	77.5243	1,801.76	77.6768	1,801.76	75.6532	1,801.76	77.2664	1,801.76	73.2091	1,801.76	74.9173	1,801.76	72.2855	1,801.76	71.7769	1,801.76	70.1078	1,801.76	71.3959	1,801.76	67.4688	1,801.76	69.6556	1,801.76	70.2089	1,801.76	69.4774	1,801.76	68.6952	1,801.76	71.6196	1,801.76	57.0539	1,801.76	66.0175	1,801.76	65.7702	1,801.76	67.2324	1,801.76	70.8275
1,866.21	87.3307	1,866.21	87.074	1,866.21	86.7807	1,866.21	86.2638	1,866.21	85.7584	1,866.21	85.2768	1,866.21	84.9056	1,866.21	84.2445	1,866.21	84.1445	1,866.21	83.0396	1,866.21	82.8638	1,866.21	81.43	1,866.21	81.0033	1,866.21	79.603	1,866.21	79.1079	1,866.21	78.3412	1,866.21	77.315	1,866.21	76.962	1,866.21	75.7185	1,866.21	74.1854	1,866.21	74.3646	1,866.21	72.5743	1,866.21	72.6646	1,866.21	72.1382	1,866.21	71.6327	1,866.21	67.7034	1,866.21	70.7798	1,866.21	72.2692	1,866.21	69.5038	1,866.21	73.1945	1,866.21	70.7868	1,866.21	65.8166	1,866.21	65.7504	1,866.21	69.6132	1,866.21	67.2285	1,866.21	71.3844
1,930.66	85.8065	1,930.66	85.2423	1,930.66	85.9404	1,930.66	84.5262	1,930.66	85.5253	1,930.66	83.8681	1,930.66	84.4765	1,930.66	83.1684	1,930.66	83.3028	1,930.66	82.1037	1,930.66	82.583	1,930.66	80.2507	1,930.66	81.5307	1,930.66	78.1536	1,930.66	79.3346	1,930.66	77.1426	1,930.66	76.9559	1,930.66	76.5869	1,930.66	75.7338	1,930.66	75.2202	1,930.66	74.3318	1,930.66	73.6847	1,930.66	72.5309	1,930.66	72.4994	1,930.66	70.5139	1,930.66	69.8803	1,930.66	67.027	1,930.66	71.1159	1,930.66	66.978	1,930.66	71.7828	1,930.66	69.5865	1,930.66	65.1255	1,930.66	65.5008	1,930.66	70.7648	1,930.66	63.8757	1,930.66	71.8537
2,000.98	86.3979	2,000.98	86.1688	2,000.98	86.3685	2,000.98	85.5232	2,000.98	86.1011	2,000.98	84.321	2,000.98	85.4317	2,000.98	83.0319	2,000.98	84.2602	2,000.98	82.1671	2,000.98	83.0303	2,000.98	81.1522	2,000.98	82.1028	2,000.98	79.2216	2,000.98	80.7919	2,000.98	76.7	2,000.98	78.8495	2,000.98	75.1992	2,000.98	77.0435	2,000.98	74.0876	2,000.98	74.8082	2,000.98	72.598	2,000.98	72.2064	2,000.98	70.8296	2,000.98	72.6871	2,000.98	68.9541	2,000.98	71.7887	2,000.98	71.0724	2,000.98	69.274	2,000.98	70.0823	2,000.98	71.0167	2,000.98	62.548	2,000.98	66.9504	2,000.98	69.0234	2,000.98	67.2098	2,000.98	71.6949
2,071.29	87.0933	2,071.29	87.0546	2,071.29	86.7949	2,071.29	86.3535	2,071.29	86.5518	2,071.29	85.5547	2,071.29	85.8941	2,071.29	84.7453	2,071.29	84.9643	2,071.29	83.4886	2,071.29	84.1593	2,071.29	82.0548	2,071.29	82.6999	2,071.29	80.5488	2,071.29	80.726	2,071.29	78.3224	2,071.29	79.5523	2,071.29	76.5817	2,071.29	78.1066	2,071.29	75.0495	2,071.29	74.9169	2,071.29	72.7126	2,071.29	71.9312	2,071.29	72.6918	2,071.29	71.3292	2,071.29	67.0572	2,071.29	69.4607	2,071.29	68.7986	2,071.29	67.3845	2,071.29	72.1346	2,071.29	70.7656	2,071.29	64.2723	2,071.29	69.9619	2,071.29	69.1907	2,071.29	67.2738	2,071.29	70.8877
2,144.53	86.3986	2,144.53	86.3217	2,144.53	86.4063	2,144.53	85.9896	2,144.53	86.0564	2,144.53	85.7249	2,144.53	84.9414	2,144.53	85.1482	2,144.53	83.8651	2,144.53	83.8361	2,144.53	82.9622	2,144.53	82.5556	2,144.53	81.4484	2,144.53	81.3046	2,144.53	79.7436	2,144.53	78.9609	2,144.53	77.7677	2,144.53	76.4684	2,144.53	75.7064	2,144.53	75.0801	2,144.53	74.7619	2,144.53	74.1644	2,144.53	72.0473	2,144.53	73.0178	2,144.53	70.3313	2,144.53	68.6616	2,144.53	71.164	2,144.53	69.3583	2,144.53	67.8109	2,144.53	70.7581	2,144.53	69.9874	2,144.53	67.9378	2,144.53	66.2589	2,144.53	68.5795	2,144.53	68.9372	2,144.53	71.5365
2,217.77	84.9869	2,217.77	85.0369	2,217.77	84.7856	2,217.77	85.0756	2,217.77	84.7902	2,217.77	84.6796	2,217.77	84.7548	2,217.77	83.8967	2,217.77	83.874	2,217.77	83.0654	2,217.77	82.2578	2,217.77	82.0406	2,217.77	80.8475	2,217.77	80.3135	2,217.77	80.1271	2,217.77	77.4403	2,217.77	78.4157	2,217.77	75.24	2,217.77	75.2369	2,217.77	73.8956	2,217.77	73.9225	2,217.77	72.9633	2,217.77	72.8179	2,217.77	72.2518	2,217.77	69.9609	2,217.77	68.3665	2,217.77	69.7773	2,217.77	69.3856	2,217.77	64.9823	2,217.77	72.1655	2,217.77	68.61	2,217.77	68.4791	2,217.77	67.4781	2,217.77	70.808	2,217.77	63.5259	2,217.77	72.3865
2,296.88	85.2469	2,296.88	85.2008	2,296.88	85.3814	2,296.88	85.3633	2,296.88	85.2943	2,296.88	85.3238	2,296.88	85.1902	2,296.88	84.451	2,296.88	84.9005	2,296.88	82.6798	2,296.88	83.6755	2,296.88	81.0323	2,296.88	81.7695	2,296.88	79.6462	2,296.88	80.2281	2,296.88	77.1352	2,296.88	78.5093	2,296.88	74.4509	2,296.88	76.366	2,296.88	72.6564	2,296.88	75.3276	2,296.88	70.5341	2,296.88	73.6857	2,296.88	72.2197	2,296.88	70.3983	2,296.88	70.2267	2,296.88	70.1401	2,296.88	65.348	2,296.88	67.3651	2,296.88	69.8969	2,296.88	68.7034	2,296.88	65.0493	2,296.88	72.2077	2,296.88	71.1797	2,296.88	69.2611	2,296.88	71.3901
2,378.91	85.9667	2,378.91	85.9905	2,378.91	85.995	2,378.91	85.9957	2,378.91	86.0404	2,378.91	85.9894	2,378.91	85.8257	2,378.91	85.4208	2,378.91	85.3905	2,378.91	84.1048	2,378.91	84.3461	2,378.91	82.5708	2,378.91	82.3153	2,378.91	80.8633	2,378.91	80.503	2,378.91	78.6798	2,378.91	78.9286	2,378.91	76.4373	2,378.91	76.2198	2,378.91	74.8316	2,378.91	74.0086	2,378.91	71.9168	2,378.91	72.7049	2,378.91	68.983	2,378.91	70.7059	2,378.91	68.6826	2,378.91	70.3528	2,378.91	65.8213	2,378.91	66.8036	2,378.91	70.1776	2,378.91	66.3521	2,378.91	66.9893	2,378.91	69.5241	2,378.91	67.4362	2,378.91	69.0851	2,378.91	71.2921
2,460.94	85.5136	2,460.94	85.6024	2,460.94	85.4436	2,460.94	85.6937	2,460.94	85.1945	2,460.94	85.5013	2,460.94	84.8384	2,460.94	84.8775	2,460.94	84.4218	2,460.94	83.7881	2,460.94	83.4084	2,460.94	82.1682	2,460.94	81.7852	2,460.94	80.3217	2,460.94	80.0052	2,460.94	78.454	2,460.94	78.0137	2,460.94	76.241	2,460.94	75.573	2,460.94	74.4689	2,460.94	73.0386	2,460.94	73.0707	2,460.94	71.1911	2,460.94	71.068	2,460.94	69.2582	2,460.94	70.2349	2,460.94	68.5593	2,460.94	67.5885	2,460.94	68.1018	2,460.94	70.7822	2,460.94	68.1773	2,460.94	69.2085	2,460.94	68.5591	2,460.94	70.542	2,460.94	68.0566	2,460.94	71.9764
2,548.83	84.6348	2,548.83	84.8843	2,548.83	84.588	2,548.83	85.1776	2,548.83	84.7065	2,548.83	85.1703	2,548.83	84.8289	2,548.83	84.637	2,548.83	84.4877	2,548.83	83.4303	2,548.83	83.5424	2,548.83	81.6759	2,548.83	81.91	2,548.83	79.5498	2,548.83	79.857	2,548.83	77.518	2,548.83	77.9663	2,548.83	75.3964	2,548.83	75.7154	2,548.83	72.5605	2,548.83	73.9557	2,548.83	70.8995	2,548.83	72.2974	2,548.83	70.5761	2,548.83	69.5017	2,548.83	69.2441	2,548.83	69.0725	2,548.83	69.1665	2,548.83	66.6515	2,548.83	71.0531	2,548.83	68.8501	2,548.83	68.8221	2,548.83	68.681	2,548.83	69.7429	2,548.83	67.0413	2,548.83	72.1693
2,639.65	84.5754	2,639.65	84.969	2,639.65	84.5854	2,639.65	85.2893	2,639.65	84.7924	2,639.65	85.3032	2,639.65	84.9701	2,639.65	84.8159	2,639.65	84.7797	2,639.65	83.506	2,639.65	83.8052	2,639.65	81.5974	2,639.65	81.9913	2,639.65	79.6323	2,639.65	80.1279	2,639.65	77.5478	2,639.65	78.3368	2,639.65	75.2919	2,639.65	75.9314	2,639.65	73.2871	2,639.65	73.5548	2,639.65	70.4534	2,639.65	71.7403	2,639.65	69.7584	2,639.65	69.6555	2,639.65	68.5023	2,639.65	69.1472	2,639.65	66.2143	2,639.65	67.5513	2,639.65	71.0526	2,639.65	69.1337	2,639.65	70.032	2,639.65	70.5836	2,639.65	71.1795	2,639.65	67.626	2,639.65	72.8624
2,733.4	83.9761	2,733.4	84.4994	2,733.4	84.0623	2,733.4	84.9895	2,733.4	84.5227	2,733.4	85.0995	2,733.4	84.5818	2,733.4	84.6486	2,733.4	84.3867	2,733.4	83.5352	2,733.4	83.6432	2,733.4	81.7321	2,733.4	81.7596	2,733.4	79.7774	2,733.4	79.5457	2,733.4	77.7535	2,733.4	77.6514	2,733.4	75.4093	2,733.4	75.1088	2,733.4	73.6276	2,733.4	72.3033	2,733.4	70.8632	2,733.4	70.9758	2,733.4	68.5526	2,733.4	68.3581	2,733.4	67.9757	2,733.4	68.5657	2,733.4	66.723	2,733.4	66.153	2,733.4	71.3237	2,733.4	66.7213	2,733.4	68.7856	2,733.4	70.618	2,733.4	69.103	2,733.4	67.2496	2,733.4	71.6036
2,827.15	83.8867	2,827.15	84.2894	2,827.15	83.9744	2,827.15	84.8867	2,827.15	84.5537	2,827.15	85.0684	2,827.15	84.806	2,827.15	84.5121	2,827.15	84.3343	2,827.15	83.3222	2,827.15	83.5995	2,827.15	81.5096	2,827.15	82.237	2,827.15	79.287	2,827.15	79.8055	2,827.15	77.2078	2,827.15	77.4489	2,827.15	74.8857	2,827.15	75.4767	2,827.15	72.8199	2,827.15	72.8146	2,827.15	71.1405	2,827.15	71.2018	2,827.15	69.0733	2,827.15	70.0937	2,827.15	69.765	2,827.15	68.6046	2,827.15	65.0144	2,827.15	68.6062	2,827.15	70.9995	2,827.15	68.7116	2,827.15	69.6868	2,827.15	70.8201	2,827.15	69.5896	2,827.15	67.2582	2,827.15	71.4217
2,926.76	83.4935	2,926.76	84.012	2,926.76	83.6004	2,926.76	84.7251	2,926.76	84.1895	2,926.76	84.8028	2,926.76	84.5286	2,926.76	84.0999	2,926.76	84.0915	2,926.76	83.1135	2,926.76	83.1767	2,926.76	81.7235	2,926.76	81.7239	2,926.76	79.6178	2,926.76	79.6407	2,926.76	77.426	2,926.76	77.6793	2,926.76	74.936	2,926.76	75.6552	2,926.76	72.2787	2,926.76	72.5734	2,926.76	71.489	2,926.76	70.4299	2,926.76	69.6186	2,926.76	68.913	2,926.76	68.6813	2,926.76	67.9779	2,926.76	65.6131	2,926.76	66.3743	2,926.76	70.267	2,926.76	67.1987	2,926.76	70.0104	2,926.76	70.6326	2,926.76	65.9655	2,926.76	64.7262	2,926.76	69.859
3,032.23	83.0047	3,032.23	83.5056	3,032.23	83.246	3,032.23	84.2254	3,032.23	83.9323	3,032.23	84.4595	3,032.23	84.3696	3,032.23	83.7051	3,032.23	83.8784	3,032.23	82.2524	3,032.23	82.5882	3,032.23	80.5238	3,032.23	81.1694	3,032.23	78.3529	3,032.23	79.4324	3,032.23	76.2384	3,032.23	76.7551	3,032.23	74.677	3,032.23	74.1618	3,032.23	72.1241	3,032.23	72.3986	3,032.23	69.1816	3,032.23	69.7966	3,032.23	68.2235	3,032.23	68.6111	3,032.23	69.6568	3,032.23	68.4576	3,032.23	68.701	3,032.23	67.417	3,032.23	69.1869	3,032.23	67.0282	3,032.23	69.1921	3,032.23	69.8701	3,032.23	65.4963	3,032.23	66.4617	3,032.23	69.0628
3,137.7	83.0309	3,137.7	83.4797	3,137.7	83.2969	3,137.7	84.1491	3,137.7	83.9175	3,137.7	84.4868	3,137.7	84.3142	3,137.7	83.8083	3,137.7	83.9654	3,137.7	82.2474	3,137.7	82.724	3,137.7	80.4795	3,137.7	81.0916	3,137.7	78.64	3,137.7	79.4189	3,137.7	76.2353	3,137.7	77.3086	3,137.7	74.1071	3,137.7	75.1819	3,137.7	72.3465	3,137.7	72.8725	3,137.7	69.3292	3,137.7	70.9957	3,137.7	67.0449	3,137.7	69.4757	3,137.7	66.1137	3,137.7	66.4689	3,137.7	66.6921	3,137.7	67.8901	3,137.7	70.2595	3,137.7	68.532	3,137.7	70.5758	3,137.7	72.2238	3,137.7	66.6544	3,137.7	66.5277	3,137.7	69.0836
3,249.02	82.9173	3,249.02	83.2957	3,249.02	83.0596	3,249.02	83.8336	3,249.02	83.6186	3,249.02	84.0725	3,249.02	83.8961	3,249.02	83.5805	3,249.02	83.6626	3,249.02	82.4722	3,249.02	82.6744	3,249.02	80.6226	3,249.02	80.9697	3,249.02	78.3788	3,249.02	79.278	3,249.02	76.5548	3,249.02	77.4412	3,249.02	74.497	3,249.02	75.1303	3,249.02	72.0017	3,249.02	72.2662	3,249.02	70.1902	3,249.02	69.6207	3,249.02	67.6541	3,249.02	68.4864	3,249.02	67.1284	3,249.02	67.8132	3,249.02	65.3944	3,249.02	66.2614	3,249.02	69.7211	3,249.02	67.2545	3,249.02	70.6712	3,249.02	70.6128	3,249.02	66.733	3,249.02	66.7929	3,249.02	69.7258
3,363.28	83.0176	3,363.28	83.2682	3,363.28	83.0223	3,363.28	83.7067	3,363.28	83.3706	3,363.28	83.8332	3,363.28	83.4175	3,363.28	83.106	3,363.28	83.0388	3,363.28	81.9259	3,363.28	82.1844	3,363.28	80.3515	3,363.28	80.7467	3,363.28	78.3325	3,363.28	78.9815	3,363.28	76.3506	3,363.28	76.7159	3,363.28	74.6203	3,363.28	74.6748	3,363.28	72.2992	3,363.28	73.0745	3,363.28	69.4307	3,363.28	70.2847	3,363.28	67.2779	3,363.28	66.7643	3,363.28	67.7117	3,363.28	64.3969	3,363.28	65.0627	3,363.28	65.4024	3,363.28	68.5013	3,363.28	65.6596	3,363.28	70.0912	3,363.28	70.5725	3,363.28	67.7972	3,363.28	66.047	3,363.28	69.6685
3,483.4	83.3445	3,483.4	83.2979	3,483.4	83.406	3,483.4	83.4524	3,483.4	83.3634	3,483.4	83.2764	3,483.4	83.5885	3,483.4	82.8343	3,483.4	83.3826	3,483.4	81.6635	3,483.4	82.5318	3,483.4	80.2459	3,483.4	81.1372	3,483.4	79.0875	3,483.4	79.5552	3,483.4	76.8411	3,483.4	77.6939	3,483.4	74.1463	3,483.4	75.555	3,483.4	72.8526	3,483.4	72.6866	3,483.4	69.8935	3,483.4	71.3542	3,483.4	66.146	3,483.4	70.9521	3,483.4	64.8085	3,483.4	67.0126	3,483.4	66.2339	3,483.4	68.1811	3,483.4	65.9682	3,483.4	67.9765	3,483.4	70.0252	3,483.4	70.9861	3,483.4	67.1155	3,483.4	65.9703	3,483.4	69.4946
3,606.45	83.6716	3,606.45	83.3824	3,606.45	83.3878	3,606.45	83.2702	3,606.45	83.224	3,606.45	83.5176	3,606.45	83.1247	3,606.45	83.0283	3,606.45	82.7465	3,606.45	82.1005	3,606.45	82.1278	3,606.45	80.5029	3,606.45	81.0922	3,606.45	78.1716	3,606.45	79.4992	3,606.45	76.3361	3,606.45	77.6239	3,606.45	74.8665	3,606.45	75.4956	3,606.45	71.8776	3,606.45	72.736	3,606.45	69.5388	3,606.45	69.663	3,606.45	68.1928	3,606.45	68.0408	3,606.45	65.1886	3,606.45	67.5094	3,606.45	64.1995	3,606.45	66.3244	3,606.45	66.6802	3,606.45	64.5675	3,606.45	68.9722	3,606.45	68.7569	3,606.45	65.7888	3,606.45	66.2833	3,606.45	69.6033
3,732.42	83.5736	3,732.42	83.1717	3,732.42	83.3368	3,732.42	82.7333	3,732.42	82.9702	3,732.42	82.635	3,732.42	82.5297	3,732.42	82.424	3,732.42	82.3575	3,732.42	82.0669	3,732.42	81.9838	3,732.42	80.8187	3,732.42	80.9301	3,732.42	78.7669	3,732.42	79.453	3,732.42	76.449	3,732.42	77.2499	3,732.42	74.2578	3,732.42	75.1892	3,732.42	71.4061	3,732.42	74.0464	3,732.42	69.4379	3,732.42	70.9067	3,732.42	68.4577	3,732.42	67.0385	3,732.42	67.5647	3,732.42	64.6197	3,732.42	65.5726	3,732.42	65.9307	3,732.42	67.3653	3,732.42	63.2301	3,732.42	68.5117	3,732.42	68.8465	3,732.42	66.8458	3,732.42	65.188	3,732.42	68.5521
3,864.26	84.3071	3,864.26	83.5905	3,864.26	84.0115	3,864.26	82.9346	3,864.26	82.8645	3,864.26	82.622	3,864.26	82.6442	3,864.26	82.7789	3,864.26	82.9216	3,864.26	82.213	3,864.26	82.695	3,864.26	81.4939	3,864.26	81.6147	3,864.26	80.4014	3,864.26	80.0986	3,864.26	78.0497	3,864.26	77.964	3,864.26	74.5601	3,864.26	75.5794	3,864.26	72.8191	3,864.26	73.0448	3,864.26	70.082	3,864.26	71.2483	3,864.26	67.5504	3,864.26	70.5402	3,864.26	66.4309	3,864.26	68.1731	3,864.26	66.8322	3,864.26	66.5472	3,864.26	66.479	3,864.26	67.0455	3,864.26	70.489	3,864.26	69.1123	3,864.26	66.5141	3,864.26	66.2904	3,864.26	69.0504
3,999.02	84.6437	3,999.02	83.7073	3,999.02	83.805	3,999.02	82.5284	3,999.02	82.7024	3,999.02	82.9379	3,999.02	82.5487	3,999.02	83.1057	3,999.02	82.7466	3,999.02	82.8955	3,999.02	82.7296	3,999.02	81.432	3,999.02	81.9414	3,999.02	78.8164	3,999.02	80.3398	3,999.02	76.9127	3,999.02	78.099	3,999.02	75.3635	3,999.02	76.2703	3,999.02	72.1985	3,999.02	73.5556	3,999.02	70.294	3,999.02	70.9832	3,999.02	69.2021	3,999.02	68.5668	3,999.02	66.7214	3,999.02	68.0422	3,999.02	65.3064	3,999.02	67.6528	3,999.02	66.6914	3,999.02	64.8212	3,999.02	70.1329	3,999.02	69.5121	3,999.02	65.9006	3,999.02	68.2709	3,999.02	69.0901
4,139.65	84.8595	4,139.65	84.0012	4,139.65	84.4461	4,139.65	83.0054	4,139.65	83.1304	4,139.65	82.62	4,139.65	82.1491	4,139.65	83.5628	4,139.65	82.6837	4,139.65	83.9643	4,139.65	82.9365	4,139.65	82.6275	4,139.65	82.1063	4,139.65	80.8276	4,139.65	80.7758	4,139.65	78.006	4,139.65	78.4966	4,139.65	75.0332	4,139.65	75.4562	4,139.65	73.3872	4,139.65	73.702	4,139.65	70.1319	4,139.65	70.5077	4,139.65	67.9506	4,139.65	68.5331	4,139.65	66.0408	4,139.65	67.2509	4,139.65	66.5406	4,139.65	67.6451	4,139.65	65.5166	4,139.65	64.1656	4,139.65	69.5992	4,139.65	69.4977	4,139.65	66.1869	4,139.65	66.4358	4,139.65	68.6059
4,286.13	85.5325	4,286.13	84.3779	4,286.13	85.0741	4,286.13	83.2621	4,286.13	83.0821	4,286.13	83.2225	4,286.13	83.0163	4,286.13	83.4468	4,286.13	83.8344	4,286.13	82.9554	4,286.13	84.1572	4,286.13	82.4355	4,286.13	83.5642	4,286.13	80.0511	4,286.13	81.4843	4,286.13	77.0401	4,286.13	79.051	4,286.13	74.685	4,286.13	76.9915	4,286.13	73.0378	4,286.13	74.1702	4,286.13	70.613	4,286.13	72.1177	4,286.13	68.7628	4,286.13	67.9459	4,286.13	68.4866	4,286.13	66.0018	4,286.13	66.8746	4,286.13	64.1761	4,286.13	67.3533	4,286.13	63.5792	4,286.13	71.055	4,286.13	67.6603	4,286.13	67.8873	4,286.13	69.8335	4,286.13	70.9945
4,438.48	85.2871	4,438.48	84.162	4,438.48	84.0302	4,438.48	82.5424	4,438.48	82.8808	4,438.48	83.528	4,438.48	82.0319	4,438.48	84.2683	4,438.48	82.9432	4,438.48	84.1859	4,438.48	83.9623	4,438.48	81.7679	4,438.48	82.784	4,438.48	79.4802	4,438.48	80.8761	4,438.48	77.8365	4,438.48	78.5275	4,438.48	75.7298	4,438.48	75.493	4,438.48	72.3546	4,438.48	73.7808	4,438.48	70.3501	4,438.48	71.0515	4,438.48	68.7767	4,438.48	68.6968	4,438.48	66.1077	4,438.48	66.5393	4,438.48	64.7475	4,438.48	66.0094	4,438.48	66.4224	4,438.48	65.1832	4,438.48	68.0913	4,438.48	68.9846	4,438.48	63.0181	4,438.48	66.1698	4,438.48	67.752
4,593.75	85.3254	4,593.75	84.5369	4,593.75	85.449	4,593.75	83.9358	4,593.75	83.7301	4,593.75	83.18	4,593.75	83.5592	4,593.75	83.6802	4,593.75	84.2702	4,593.75	83.0869	4,593.75	83.4958	4,593.75	82.0431	4,593.75	82.5182	4,593.75	79.5826	4,593.75	80.9708	4,593.75	76.5178	4,593.75	77.7721	4,593.75	73.7133	4,593.75	75.4569	4,593.75	72.4009	4,593.75	73.0944	4,593.75	68.9991	4,593.75	71.5496	4,593.75	64.9957	4,593.75	67.7688	4,593.75	65.8128	4,593.75	65.5585	4,593.75	61.9242	4,593.75	65.5609	4,593.75	64.3383	4,593.75	60.5063	4,593.75	69.4813	4,593.75	68.4334	4,593.75	66.5676	4,593.75	68.0014	4,593.75	69.5142
4,757.81	85.4371	4,757.81	84.5985	4,757.81	83.8738	4,757.81	82.8605	4,757.81	83.0568	4,757.81	83.2339	4,757.81	82.2158	4,757.81	83.1447	4,757.81	82.4085	4,757.81	83.0037	4,757.81	83.4574	4,757.81	80.7602	4,757.81	82.254	4,757.81	78.1246	4,757.81	79.6865	4,757.81	77.0024	4,757.81	77.7268	4,757.81	74.7634	4,757.81	74.5098	4,757.81	70.9312	4,757.81	72.5987	4,757.81	69.3492	4,757.81	70.1481	4,757.81	66.1342	4,757.81	68.8849	4,757.81	66.856	4,757.81	67.8752	4,757.81	64.4154	4,757.81	62.9134	4,757.81	63.2527	4,757.81	63.6431	4,757.81	67.78	4,757.81	67.14	4,757.81	64.0181	4,757.81	66.4286	4,757.81	68.5276
4,924.8	85.0797	4,924.8	84.3094	4,924.8	85.2389	4,924.8	83.8801	4,924.8	83.5048	4,924.8	82.7324	4,924.8	82.8448	4,924.8	82.9858	4,924.8	83.4091	4,924.8	81.7217	4,924.8	82.4189	4,924.8	79.911	4,924.8	80.51	4,924.8	78.3952	4,924.8	79.3132	4,924.8	76.2556	4,924.8	76.7748	4,924.8	73.1555	4,924.8	74.4396	4,924.8	70.2038	4,924.8	71.7105	4,924.8	68.2038	4,924.8	70.5301	4,924.8	66.2383	4,924.8	67.2318	4,924.8	65.3333	4,924.8	65.7009	4,924.8	66.341	4,924.8	62.2561	4,924.8	61.6096	4,924.8	59.7357	4,924.8	66.7046	4,924.8	66.127	4,924.8	62.0428	4,924.8	64.8881	4,924.8	64.9282
5,097.66	85.0445	5,097.66	84.863	5,097.66	84.0687	5,097.66	83.425	5,097.66	83.851	5,097.66	82.7672	5,097.66	82.8578	5,097.66	82.0873	5,097.66	82.2418	5,097.66	81.4919	5,097.66	82.0305	5,097.66	80.1652	5,097.66	81.0364	5,097.66	78.7652	5,097.66	79.0746	5,097.66	76.7563	5,097.66	77.3174	5,097.66	73.7827	5,097.66	74.7383	5,097.66	71.5446	5,097.66	72.9722	5,097.66	69.6195	5,097.66	70.367	5,097.66	64.9161	5,097.66	66.6863	5,097.66	62.5132	5,097.66	66.5895	5,097.66	61.0597	5,097.66	62.6348	5,097.66	63.9223	5,097.66	59.4253	5,097.66	66.4456	5,097.66	65.1908	5,097.66	61.3322	5,097.66	66.8587	5,097.66	66.6747
5,279.3	84.5308	5,279.3	84.2521	5,279.3	84.6821	5,279.3	83.8214	5,279.3	83.6061	5,279.3	82.53	5,279.3	82.3363	5,279.3	82.3795	5,279.3	82.091	5,279.3	81.7464	5,279.3	81.2277	5,279.3	80.3611	5,279.3	80.0027	5,279.3	78.6302	5,279.3	78.8254	5,279.3	76.1879	5,279.3	76.3748	5,279.3	73.469	5,279.3	73.6506	5,279.3	70.3343	5,279.3	70.9908	5,279.3	67.362	5,279.3	69.8528	5,279.3	65.1468	5,279.3	66.1452	5,279.3	62.0681	5,279.3	64.3525	5,279.3	61.5144	5,279.3	59.1329	5,279.3	61.8499	5,279.3	62.6764	5,279.3	66.4262	5,279.3	64.4179	5,279.3	62.1032	5,279.3	64.2118	5,279.3	64.2501
5,463.87	84.7127	5,463.87	84.9609	5,463.87	84.4222	5,463.87	83.8443	5,463.87	84.3063	5,463.87	82.2422	5,463.87	82.8133	5,463.87	81.0943	5,463.87	81.521	5,463.87	80.6994	5,463.87	81.2783	5,463.87	79.9318	5,463.87	80.8212	5,463.87	78.3251	5,463.87	78.9902	5,463.87	75.3869	5,463.87	76.821	5,463.87	73.1612	5,463.87	74.4554	5,463.87	70.928	5,463.87	72.1465	5,463.87	68.5849	5,463.87	69.7272	5,463.87	65.8791	5,463.87	67.2566	5,463.87	64.3268	5,463.87	63.921	5,463.87	60.4984	5,463.87	60.5681	5,463.87	62.8258	5,463.87	51.1889	5,463.87	64.8187	5,463.87	63.0599	5,463.87	59.2182	5,463.87	64.9637	5,463.87	63.4195
5,657.23	83.6152	5,657.23	83.7805	5,657.23	84.1657	5,657.23	83.4087	5,657.23	83.9251	5,657.23	81.6063	5,657.23	82.0188	5,657.23	80.9466	5,657.23	80.9412	5,657.23	80.9259	5,657.23	80.8115	5,657.23	79.9721	5,657.23	80.2618	5,657.23	78.3667	5,657.23	78.6988	5,657.23	76.4054	5,657.23	76.5635	5,657.23	73.5087	5,657.23	73.6789	5,657.23	70.4001	5,657.23	70.5512	5,657.23	68.5344	5,657.23	68.9879	5,657.23	64.9293	5,657.23	66.6556	5,657.23	61.3919	5,657.23	65.0629	5,657.23	55.6281	5,657.23	59.9958	5,657.23	58.4225	5,657.23	62.157	5,657.23	63.7723	5,657.23	60.7341	5,657.23	56.9652	5,657.23	63.4916	5,657.23	62.6269
5,856.45	83.8163	5,856.45	84.6237	5,856.45	83.8483	5,856.45	83.8397	5,856.45	83.9461	5,856.45	81.821	5,856.45	81.987	5,856.45	80.8007	5,856.45	80.509	5,856.45	80.9482	5,856.45	80.8659	5,856.45	80.2833	5,856.45	80.6955	5,856.45	78.4505	5,856.45	78.8901	5,856.45	74.8511	5,856.45	76.6634	5,856.45	71.6662	5,856.45	74.095	5,856.45	68.394	5,856.45	71.8169	5,856.45	66.0745	5,856.45	69.1902	5,856.45	63.8458	5,856.45	65.6861	5,856.45	61.756	5,856.45	64.7175	5,856.45	58.4561	5,856.45	60.5041	5,856.45	59.4367	5,856.45	55.9763	5,856.45	63.4972	5,856.45	60.0453	5,856.45	57.2631	5,856.45	62.7516	5,856.45	61.1314
6,061.52	83.8665	6,061.52	84.3682	6,061.52	84.3778	6,061.52	83.7657	6,061.52	84.1552	6,061.52	81.5422	6,061.52	82.0981	6,061.52	80.7905	6,061.52	81.0098	6,061.52	80.6811	6,061.52	81.1342	6,061.52	79.2405	6,061.52	80.4496	6,061.52	76.7771	6,061.52	78.895	6,061.52	74.0456	6,061.52	76.4235	6,061.52	71.5842	6,061.52	73.349	6,061.52	69.1368	6,061.52	70.4433	6,061.52	68.0057	6,061.52	68.2019	6,061.52	63.7855	6,061.52	65.4872	6,061.52	60.9166	6,061.52	63.0481	6,061.52	56.0827	6,061.52	61.3309	6,061.52	59.1914	6,061.52	60.6728	6,061.52	63.4655	6,061.52	59.6303	6,061.52	59.1922	6,061.52	64.3221	6,061.52	59.681
6,275.39	84.4296	6,275.39	84.8348	6,275.39	84.5955	6,275.39	83.6018	6,275.39	84.3381	6,275.39	81.393	6,275.39	82.3273	6,275.39	80.7189	6,275.39	81.3291	6,275.39	80.5461	6,275.39	81.2314	6,275.39	79.2626	6,275.39	80.7824	6,275.39	76.8943	6,275.39	78.965	6,275.39	74.5386	6,275.39	76.7152	6,275.39	71.204	6,275.39	73.6833	6,275.39	68.1742	6,275.39	70.7799	6,275.39	66.1551	6,275.39	68.9164	6,275.39	62.8125	6,275.39	66.2645	6,275.39	60.355	6,275.39	62.2077	6,275.39	58.1181	6,275.39	57.6545	6,275.39	57.6581	6,275.39	59.3384	6,275.39	62.104	6,275.39	56.5678	6,275.39	54.8098	6,275.39	64.0775	6,275.39	59.9653
6,498.05	84.3197	6,498.05	84.6672	6,498.05	84.7231	6,498.05	83.6174	6,498.05	84.3733	6,498.05	81.7622	6,498.05	82.3618	6,498.05	81.0595	6,498.05	81.5632	6,498.05	80.521	6,498.05	81.4497	6,498.05	79.0792	6,498.05	80.5286	6,498.05	76.9211	6,498.05	78.8714	6,498.05	74.3269	6,498.05	76.2533	6,498.05	71.2176	6,498.05	73.4039	6,498.05	68.172	6,498.05	69.4458	6,498.05	65.298	6,498.05	68.2245	6,498.05	63.3546	6,498.05	66.3996	6,498.05	58.9353	6,498.05	62.784	6,498.05	58.888	6,498.05	61.1334	6,498.05	57.1578	6,498.05	61.056	6,498.05	62.2492	6,498.05	58.0123	6,498.05	57.9845	6,498.05	64.961	6,498.05	58.4968
6,726.56	84.7646	6,726.56	84.8026	6,726.56	84.8622	6,726.56	83.8452	6,726.56	84.3327	6,726.56	82.3486	6,726.56	82.5147	6,726.56	81.2814	6,726.56	81.5413	6,726.56	80.6088	6,726.56	80.9988	6,726.56	79.3104	6,726.56	80.3224	6,726.56	77.4679	6,726.56	78.5329	6,726.56	74.4869	6,726.56	76.3663	6,726.56	71.1079	6,726.56	73.4324	6,726.56	68.2098	6,726.56	69.4855	6,726.56	64.558	6,726.56	67.8589	6,726.56	64.5154	6,726.56	65.9213	6,726.56	60.9052	6,726.56	60.4772	6,726.56	59.1111	6,726.56	58.8427	6,726.56	54.6348	6,726.56	59.8034	6,726.56	61.1221	6,726.56	55.2735	6,726.56	57.966	6,726.56	63.4858	6,726.56	57.7273
6,963.87	85.0417	6,963.87	84.7895	6,963.87	85.3606	6,963.87	83.9187	6,963.87	84.4757	6,963.87	82.5372	6,963.87	83.0729	6,963.87	81.0526	6,963.87	81.9954	6,963.87	80.0981	6,963.87	80.9495	6,963.87	79.0125	6,963.87	80.4008	6,963.87	77.3627	6,963.87	78.5054	6,963.87	73.6599	6,963.87	75.7495	6,963.87	71.2366	6,963.87	72.9948	6,963.87	68.0009	6,963.87	68.5363	6,963.87	64.3321	6,963.87	67.2191	6,963.87	64.0788	6,963.87	65.5078	6,963.87	61.0517	6,963.87	60.2781	6,963.87	56.4747	6,963.87	61.5433	6,963.87	55.8439	6,963.87	57.0987	6,963.87	58.6162	6,963.87	56.7646	6,963.87	59.5948	6,963.87	63.0907	6,963.87	54.2864
7,209.96	85.2415	7,209.96	84.5207	7,209.96	85.0663	7,209.96	83.6694	7,209.96	84.1192	7,209.96	82.4196	7,209.96	83.1439	7,209.96	80.6668	7,209.96	81.422	7,209.96	80.0659	7,209.96	80.5903	7,209.96	79.2385	7,209.96	79.976	7,209.96	77.1402	7,209.96	78.2939	7,209.96	73.6173	7,209.96	75.0885	7,209.96	70.6227	7,209.96	71.7616	7,209.96	66.9796	7,209.96	68.4169	7,209.96	64.0324	7,209.96	66.8224	7,209.96	62.5914	7,209.96	64.9762	7,209.96	58.3711	7,209.96	60.6046	7,209.96	58.0344	7,209.96	61.2206	7,209.96	56.3987	7,209.96	53.0558	7,209.96	57.4132	7,209.96	50.512	7,209.96	56.9158	7,209.96	59.6844	7,209.96	56.8129
7,464.84	84.9919	7,464.84	84.1492	7,464.84	84.6275	7,464.84	83.4428	7,464.84	83.8419	7,464.84	82.3023	7,464.84	83.1033	7,464.84	80.3654	7,464.84	81.2479	7,464.84	79.9191	7,464.84	80.1528	7,464.84	78.9213	7,464.84	79.9992	7,464.84	76.9287	7,464.84	77.5862	7,464.84	72.7274	7,464.84	74.3468	7,464.84	68.6498	7,464.84	71.3552	7,464.84	67.324	7,464.84	67.3988	7,464.84	63.3627	7,464.84	65.8849	7,464.84	61.5771	7,464.84	64.6155	7,464.84	58.1162	7,464.84	59.2542	7,464.84	59.306	7,464.84	60.1176	7,464.84	57.178	7,464.84	54.2702	7,464.84	54.55	7,464.84	46.6863	7,464.84	56.6971	7,464.84	58.4763	7,464.84	55.4044
7,728.52	84.9919	7,728.52	83.9833	7,728.52	84.8008	7,728.52	83.6299	7,728.52	83.9086	7,728.52	82.2345	7,728.52	83.1878	7,728.52	80.8732	7,728.52	80.9329	7,728.52	79.9866	7,728.52	79.9716	7,728.52	78.5735	7,728.52	79.346	7,728.52	76.4495	7,728.52	77.2249	7,728.52	71.776	7,728.52	73.8775	7,728.52	68.7026	7,728.52	70.8565	7,728.52	65.2576	7,728.52	66.9691	7,728.52	62.2309	7,728.52	64.6557	7,728.52	61.5075	7,728.52	62.4333	7,728.52	56.8287	7,728.52	58.0993	7,728.52	57.387	7,728.52	60.8663	7,728.52	55.8939	7,728.52	53.8151	7,728.52	54.3962	7,728.52	43.3527	7,728.52	56.85	7,728.52	57.6756	7,728.52	49.4169
8,000.98	85.6515	8,000.98	84.7191	8,000.98	85.3294	8,000.98	84.4362	8,000.98	84.3507	8,000.98	82.8824	8,000.98	83.6922	8,000.98	81.3407	8,000.98	81.4293	8,000.98	79.9711	8,000.98	80.2797	8,000.98	78.0799	8,000.98	79.0299	8,000.98	74.6536	8,000.98	76.6337	8,000.98	70.5776	8,000.98	72.9654	8,000.98	67.7139	8,000.98	69.8087	8,000.98	65.1735	8,000.98	66.4214	8,000.98	62.3453	8,000.98	62.7563	8,000.98	59.4714	8,000.98	60.4346	8,000.98	54.1006	8,000.98	56.4148	8,000.98	57.069	8,000.98	61.346	8,000.98	55.2388	8,000.98	53.1437	8,000.98	53.0803	8,000.98	42.5195	8,000.98	57.0292	8,000.98	57.538	8,000.98	43.3475
8,282.23	86.0631	8,282.23	85.2781	8,282.23	85.8977	8,282.23	85.0224	8,282.23	84.8781	8,282.23	83.3168	8,282.23	84.0403	8,282.23	81.6105	8,282.23	81.9528	8,282.23	79.656	8,282.23	80.4387	8,282.23	77.509	8,282.23	78.7396	8,282.23	74.1971	8,282.23	75.9	8,282.23	71.0733	8,282.23	71.9239	8,282.23	66.5254	8,282.23	69.1727	8,282.23	66.076	8,282.23	65.3882	8,282.23	61.9979	8,282.23	61.2729	8,282.23	59.2154	8,282.23	60.1888	8,282.23	55.3603	8,282.23	57.9788	8,282.23	58.8487	8,282.23	60.0952	8,282.23	53.731	8,282.23	52.2285	8,282.23	52.7144	8,282.23	43.775	8,282.23	56.0479	8,282.23	55.5555	8,282.23	46.5948
8,575.2	85.805	8,575.2	85.4343	8,575.2	85.7739	8,575.2	85.0542	8,575.2	85.0801	8,575.2	83.3562	8,575.2	84.0749	8,575.2	81.3274	8,575.2	81.7081	8,575.2	79.2485	8,575.2	79.9413	8,575.2	77.0688	8,575.2	77.705	8,575.2	74.9556	8,575.2	74.8702	8,575.2	71.2785	8,575.2	71.724	8,575.2	66.4496	8,575.2	68.432	8,575.2	65.0652	8,575.2	64.699	8,575.2	61.3478	8,575.2	59.3847	8,575.2	59.4452	8,575.2	60.6926	8,575.2	56.4262	8,575.2	58.6298	8,575.2	58.2874	8,575.2	58.1282	8,575.2	51.7414	8,575.2	52.1006	8,575.2	53.3786	8,575.2	50.6903	8,575.2	55.109	8,575.2	54.4419	8,575.2	37.7025
8,876.95	85.3773	8,876.95	85.1507	8,876.95	85.2976	8,876.95	84.9036	8,876.95	84.7796	8,876.95	83.1084	8,876.95	83.7133	8,876.95	80.912	8,876.95	81.1822	8,876.95	78.5567	8,876.95	78.8501	8,876.95	76.2593	8,876.95	76.2207	8,876.95	73.6733	8,876.95	74.0693	8,876.95	70.5781	8,876.95	70.364	8,876.95	66.3842	8,876.95	66.4543	8,876.95	64.3644	8,876.95	63.1725	8,876.95	61.774	8,876.95	59.6465	8,876.95	57.1844	8,876.95	58.6007	8,876.95	56.0624	8,876.95	58.5945	8,876.95	57.2455	8,876.95	57.2304	8,876.95	46.5943	8,876.95	48.7245	8,876.95	50.2648	8,876.95	44.7541	8,876.95	57.781	8,876.95	53.0465	8,876.95	47.1497
9,190.43	85.0353	9,190.43	85.0342	9,190.43	85.073	9,190.43	84.7352	9,190.43	84.5485	9,190.43	82.835	9,190.43	83.2884	9,190.43	80.4008	9,190.43	80.6355	9,190.43	77.6662	9,190.43	77.6302	9,190.43	75.5591	9,190.43	75.0936	9,190.43	72.1549	9,190.43	73.0305	9,190.43	70.7721	9,190.43	68.9849	9,190.43	64.262	9,190.43	65.1848	9,190.43	63.6898	9,190.43	61.6326	9,190.43	60.9006	9,190.43	59.462	9,190.43	55.3012	9,190.43	56.0596	9,190.43	57.2175	9,190.43	56.1653	9,190.43	54.7366	9,190.43	56.8879	9,190.43	48.5431	9,190.43	50.0165	9,190.43	51.2357	9,190.43	40.629	9,190.43	56.6958	9,190.43	54.4424	9,190.43	48.0111
9,512.7	84.8765	9,512.7	85.1588	9,512.7	85.1584	9,512.7	84.8538	9,512.7	84.753	9,512.7	82.8088	9,512.7	83.2463	9,512.7	79.8235	9,512.7	80.1411	9,512.7	77.0755	9,512.7	76.4496	9,512.7	75.0373	9,512.7	74.257	9,512.7	72.6623	9,512.7	71.9197	9,512.7	70.468	9,512.7	68.1852	9,512.7	64.1415	9,512.7	64.1863	9,512.7	62.7948	9,512.7	60.2155	9,512.7	59.0911	9,512.7	58.0365	9,512.7	56.5683	9,512.7	54.6564	9,512.7	56.051	9,512.7	53.926	9,512.7	55.6095	9,512.7	53.7877	9,512.7	49.7575	9,512.7	48.9876	9,512.7	51.8066	9,512.7	42.6788	9,512.7	52.9549	9,512.7	54.9676	9,512.7	48.2428
9,849.61	85.2327	9,849.61	85.5735	9,849.61	85.4824	9,849.61	85.0819	9,849.61	85.1332	9,849.61	82.6604	9,849.61	83.4431	9,849.61	79.0741	9,849.61	79.8102	9,849.61	76.6604	9,849.61	76.0131	9,849.61	74.6671	9,849.61	73.8766	9,849.61	72.5292	9,849.61	71.6063	9,849.61	69.7474	9,849.61	68.2775	9,849.61	64.7247	9,849.61	63.8255	9,849.61	60.7748	9,849.61	59.4561	9,849.61	56.2843	9,849.61	58.6308	9,849.61	56.0474	9,849.61	55.8394	9,849.61	55.562	9,849.61	56.5801	9,849.61	54.8722	9,849.61	49.1861	9,849.61	43.5268	9,849.61	45.7778	9,849.61	50.9891	9,849.61	45.2946	9,849.61	52.8607	9,849.61	54.3877	9,849.61	51.814
10,195.3	85.5796	10,195.3	86.0481	10,195.3	85.7814	10,195.3	85.3314	10,195.3	85.4971	10,195.3	82.4673	10,195.3	83.5106	10,195.3	79.071	10,195.3	79.5583	10,195.3	76.6823	10,195.3	76.183	10,195.3	74.8872	10,195.3	73.6802	10,195.3	71.6998	10,195.3	71.7449	10,195.3	68.9498	10,195.3	67.974	10,195.3	63.7858	10,195.3	63.9589	10,195.3	59.8575	10,195.3	59.6766	10,195.3	57.621	10,195.3	58.8308	10,195.3	56.0744	10,195.3	55.3271	10,195.3	53.9843	10,195.3	57.9275	10,195.3	54.2828	10,195.3	48.4129	10,195.3	40.3627	10,195.3	45.565	10,195.3	50.7626	10,195.3	18.4735	10,195.3	51.2661	10,195.3	54.7913	10,195.3	55.7275
10,555.7	85.9967	10,555.7	86.3387	10,555.7	86.0493	10,555.7	85.378	10,555.7	85.6515	10,555.7	82.2784	10,555.7	83.2705	10,555.7	79.1874	10,555.7	79.1893	10,555.7	76.8986	10,555.7	76.2533	10,555.7	74.5974	10,555.7	73.1882	10,555.7	70.8961	10,555.7	70.9085	10,555.7	68.7325	10,555.7	67.0142	10,555.7	64.5446	10,555.7	62.5667	10,555.7	59.2236	10,555.7	59.2955	10,555.7	57.9176	10,555.7	57.0421	10,555.7	55.1986	10,555.7	54.2353	10,555.7	54.5667	10,555.7	55.1671	10,555.7	52.6083	10,555.7	49.5834	10,555.7	45.1679	10,555.7	43.527	10,555.7	50.0144	10,555.7	43.9178	10,555.7	49.0654	10,555.7	52.787	10,555.7	53.5275
10,927.7	86.2053	10,927.7	86.3488	10,927.7	86.1041	10,927.7	84.9642	10,927.7	85.4945	10,927.7	81.6971	10,927.7	82.652	10,927.7	79.0575	10,927.7	78.7228	10,927.7	76.5503	10,927.7	75.8595	10,927.7	73.2602	10,927.7	71.8926	10,927.7	69.3553	10,927.7	69.0767	10,927.7	67.7533	10,927.7	64.9157	10,927.7	64.3893	10,927.7	61.5841	10,927.7	58.0027	10,927.7	59.322	10,927.7	57.405	10,927.7	55.2214	10,927.7	52.8488	10,927.7	53.8428	10,927.7	55.1404	10,927.7	53.9256	10,927.7	50.0927	10,927.7	47.6666	10,927.7	45.1782	10,927.7	41.9244	10,927.7	47.8276	10,927.7	44.0556	10,927.7	43.3569	10,927.7	50.9806	10,927.7	51.1782
11,314.5	86.4773	11,314.5	86.3059	11,314.5	86.0824	11,314.5	84.3498	11,314.5	85.0379	11,314.5	81.1114	11,314.5	81.7044	11,314.5	78.9946	11,314.5	78.1867	11,314.5	75.5255	11,314.5	74.8373	11,314.5	71.3905	11,314.5	69.7627	11,314.5	68.0596	11,314.5	66.9623	11,314.5	67.9083	11,314.5	65.4166	11,314.5	65.6997	11,314.5	63.6976	11,314.5	58.6616	11,314.5	60.3405	11,314.5	57.4714	11,314.5	56.9412	11,314.5	54.0114	11,314.5	54.5117	11,314.5	54.1849	11,314.5	53.6494	11,314.5	50.184	11,314.5	49.0515	11,314.5	44.3244	11,314.5	39.0764	11,314.5	47.9405	11,314.5	45.7286	11,314.5	46.9065	11,314.5	50.6065	11,314.5	48.6497
11,712.9	86.7072	11,712.9	85.7616	11,712.9	85.8501	11,712.9	83.4151	11,712.9	83.9779	11,712.9	81.182	11,712.9	81.1111	11,712.9	78.9786	11,712.9	78.1996	11,712.9	74.3405	11,712.9	73.1955	11,712.9	69.6627	11,712.9	67.3683	11,712.9	70.3221	11,712.9	67.8644	11,712.9	69.3082	11,712.9	68.5984	11,712.9	68.105	11,712.9	66.3688	11,712.9	59.2157	11,712.9	62.4135	11,712.9	58.1313	11,712.9	59.123	11,712.9	57.9928	11,712.9	56.6471	11,712.9	55.848	11,712.9	53.8753	11,712.9	48.927	11,712.9	51.149	11,712.9	43.5847	11,712.9	43.8177	11,712.9	47.9395	11,712.9	46.3082	11,712.9	49.7349	11,712.9	51.6323	11,712.9	45.7904
12,126	87.1995	12,126	85.3038	12,126	85.8943	12,126	82.7909	12,126	82.9436	12,126	81.6249	12,126	81.4593	12,126	78.114	12,126	78.2395	12,126	73.4715	12,126	72.2758	12,126	72.3126	12,126	69.9636	12,126	72.3798	12,126	70.9678	12,126	69.8141	12,126	69.9736	12,126	67.9076	12,126	67.3322	12,126	59.1351	12,126	62.6721	12,126	57.7882	12,126	59.9149	12,126	57.996	12,126	57.5016	12,126	53.9494	12,126	53.4189	12,126	39.5717	12,126	52.1399	12,126	42.4418	12,126	46.0521	12,126	42.8921	12,126	45.5423	12,126	50.2963	12,126	50.3039	12,126	43.8831
12,553.7	87.3827	12,553.7	85.0524	12,553.7	86.0042	12,553.7	82.9964	12,553.7	82.6922	12,553.7	81.3812	12,553.7	81.6615	12,553.7	76.8389	12,553.7	77.6938	12,553.7	74.4514	12,553.7	73.3409	12,553.7	74.4484	12,553.7	72.7556	12,553.7	72.3601	12,553.7	72.0526	12,553.7	68.8903	12,553.7	69.0734	12,553.7	66.1412	12,553.7	66.5985	12,553.7	59.8233	12,553.7	61.3823	12,553.7	57.5851	12,553.7	58.2722	12,553.7	56.8812	12,553.7	56.2067	12,553.7	47.918	12,553.7	51.1432	12,553.7	45.5805	12,553.7	51.6467	12,553.7	42.4485	12,553.7	46.4256	12,553.7	21.6369	12,553.7	47.7915	12,553.7	47.2519	12,553.7	48.0166	12,553.7	43.2736
12,996.1	86.861	12,996.1	84.6058	12,996.1	85.7426	12,996.1	82.9862	12,996.1	82.7169	12,996.1	80.4638	12,996.1	81.1387	12,996.1	76.5177	12,996.1	76.8677	12,996.1	75.5961	12,996.1	74.7507	12,996.1	74.3373	12,996.1	73.5389	12,996.1	71.4461	12,996.1	71.4181	12,996.1	67.8545	12,996.1	67.2996	12,996.1	64.8188	12,996.1	65.3679	12,996.1	58.6721	12,996.1	62.0529	12,996.1	57.8518	12,996.1	56.1723	12,996.1	53.7366	12,996.1	55.5959	12,996.1	46.9613	12,996.1	51.9144	12,996.1	50.6184	12,996.1	51.4869	12,996.1	46.7808	12,996.1	46.9363	12,996.1	43.5095	12,996.1	49.5907	12,996.1	47.2558	12,996.1	47.0078	12,996.1	47.8627
13,453.1	86.1041	13,453.1	84.3698	13,453.1	85.2564	13,453.1	82.9458	13,453.1	82.5284	13,453.1	79.7879	13,453.1	80.1405	13,453.1	76.6492	13,453.1	76.5902	13,453.1	75.3245	13,453.1	74.8872	13,453.1	73.051	13,453.1	72.896	13,453.1	70.2535	13,453.1	70.0671	13,453.1	68.0686	13,453.1	66.9141	13,453.1	65.3827	13,453.1	65.188	13,453.1	57.2648	13,453.1	62.6474	13,453.1	57.8783	13,453.1	55.1642	13,453.1	49.8835	13,453.1	55.331	13,453.1	48.6257	13,453.1	52.1182	13,453.1	49.7833	13,453.1	49.7978	13,453.1	45.0145	13,453.1	46.4297	13,453.1	48.065	13,453.1	47.9616	13,453.1	47.0354	13,453.1	45.0765	13,453.1	47.9902
13,927.7	85.3735	13,927.7	84.1155	13,927.7	84.9843	13,927.7	82.6976	13,927.7	82.4611	13,927.7	79.2452	13,927.7	79.5668	13,927.7	76.4973	13,927.7	76.2819	13,927.7	74.5039	13,927.7	74.3578	13,927.7	71.3	13,927.7	71.5639	13,927.7	69.818	13,927.7	69.8292	13,927.7	67.9157	13,927.7	67.5112	13,927.7	65.3861	13,927.7	65.2723	13,927.7	55.1093	13,927.7	62.3004	13,927.7	57.1053	13,927.7	55.3247	13,927.7	50.2581	13,927.7	55.1041	13,927.7	49.1901	13,927.7	52.9828	13,927.7	49.0332	13,927.7	47.6998	13,927.7	40.8123	13,927.7	44.9638	13,927.7	50.8142	13,927.7	47.7204	13,927.7	46.1839	13,927.7	47.8822	13,927.7	46.6216
14,419.9	84.7745	14,419.9	83.914	14,419.9	84.7457	14,419.9	82.1988	14,419.9	82.342	14,419.9	78.741	14,419.9	79.1335	14,419.9	75.834	14,419.9	75.9824	14,419.9	73.1979	14,419.9	73.8499	14,419.9	70.4345	14,419.9	71.7826	14,419.9	69.6818	14,419.9	70.6783	14,419.9	67.301	14,419.9	68.6696	14,419.9	64.9551	14,419.9	65.4585	14,419.9	54.4289	14,419.9	62.5102	14,419.9	56.1932	14,419.9	55.3702	14,419.9	48.507	14,419.9	55.8018	14,419.9	48.2606	14,419.9	51.9815	14,419.9	49.8487	14,419.9	46.0731	14,419.9	41.7454	14,419.9	45.2616	14,419.9	52.2816	14,419.9	44.919	14,419.9	48.3517	14,419.9	49.1917	14,419.9	49.1034
14,929.7	84.1901	14,929.7	83.7038	14,929.7	84.5604	14,929.7	81.7363	14,929.7	82.2933	14,929.7	78.4432	14,929.7	78.707	14,929.7	75.6482	14,929.7	75.6082	14,929.7	72.1557	14,929.7	73.6339	14,929.7	70.4373	14,929.7	72.4934	14,929.7	68.9608	14,929.7	70.8932	14,929.7	65.1424	14,929.7	68.9136	14,929.7	64.5149	14,929.7	65.9546	14,929.7	51.9012	14,929.7	61.4862	14,929.7	53.8463	14,929.7	56.0678	14,929.7	42.5731	14,929.7	57.1337	14,929.7	48.2118	14,929.7	51.3048	14,929.7	49.0481	14,929.7	40.4801	14,929.7	37.6785	14,929.7	44.3203	14,929.7	52.4598	14,929.7	43.1561	14,929.7	47.941	14,929.7	50.0512	14,929.7	49.659
15,454.1	84.0416	15,454.1	83.948	15,454.1	84.4036	15,454.1	81.7654	15,454.1	82.1625	15,454.1	78.6632	15,454.1	78.2825	15,454.1	75.1706	15,454.1	75.2651	15,454.1	71.4822	15,454.1	73.3235	15,454.1	69.1891	15,454.1	72.5075	15,454.1	66.6605	15,454.1	70.7113	15,454.1	63.1943	15,454.1	68.2788	15,454.1	62.5164	15,454.1	65.7743	15,454.1	45.9543	15,454.1	60.553	15,454.1	51.8971	15,454.1	55.5155	15,454.1	36.4491	15,454.1	56.6127	15,454.1	51.2784	15,454.1	50.7612	15,454.1	53.4047	15,454.1	42.7351	15,454.1	37.7966	15,454.1	37.5593	15,454.1	51.522	15,454.1	43.9772	15,454.1	52.1707	15,454.1	52.644	15,454.1	50.6039
15,999	83.5864	15,999	83.9137	15,999	83.6204	15,999	81.6371	15,999	81.1206	15,999	78.3986	15,999	76.7865	15,999	74.1088	15,999	73.7351	15,999	70.5855	15,999	72.3575	15,999	68.2404	15,999	71.9378	15,999	65.4406	15,999	69.8149	15,999	63.4896	15,999	66.3784	15,999	63.8841	15,999	64.8627	15,999	48.0639	15,999	59.5117	15,999	52.6216	15,999	53.7029	15,999	50.0959	15,999	55.5073	15,999	55.1605	15,999	50.4713	15,999	57.0121	15,999	45.7964	15,999	44.2283	15,999	40.2452	15,999	50.7563	15,999	48.3097	15,999	53.8181	15,999	54.8769	15,999	56.1556
16,564.5	82.9956	16,564.5	83.432	16,564.5	82.3794	16,564.5	81.7019	16,564.5	80.1045	16,564.5	78.893	16,564.5	77.4885	16,564.5	74.4428	16,564.5	74.0777	16,564.5	70.8054	16,564.5	72.856	16,564.5	67.7208	16,564.5	70.6991	16,564.5	64.6515	16,564.5	67.2934	16,564.5	63.0259	16,564.5	62.6538	16,564.5	63.8056	16,564.5	62.2049	16,564.5	51.0761	16,564.5	56.6297	16,564.5	50.8312	16,564.5	50.7108	16,564.5	52.0858	16,564.5	51.4592	16,564.5	55.657	16,564.5	49.9574	16,564.5	58.1609	16,564.5	47.9918	16,564.5	47.2871	16,564.5	45.6277	16,564.5	47.3871	16,564.5	49.5435	16,564.5	54.0135	16,564.5	55.5854	16,564.5	57.4538
17,147.5	86.539	17,147.5	86.4614	17,147.5	85.2936	17,147.5	83.5262	17,147.5	82.5233	17,147.5	78.7551	17,147.5	78.0329	17,147.5	70.8345	17,147.5	71.6359	17,147.5	65.1687	17,147.5	70.0868	17,147.5	64.7512	17,147.5	65.6262	17,147.5	64.6101	17,147.5	58.6304	17,147.5	64.2352	17,147.5	53.4137	17,147.5	67.4842	17,147.5	56.4403	17,147.5	59.6293	17,147.5	58.9548	17,147.5	43.9896	17,147.5	45.3148	17,147.5	57.7107	17,147.5	53.3348	17,147.5	58.7744	17,147.5	53.8006	17,147.5	59.5002	17,147.5	49.9565	17,147.5	45.0815	17,147.5	47.3251	17,147.5	53.131	17,147.5	45.2412	17,147.5	57.2868	17,147.5	56.7793	17,147.5	59.9883
17,753.9	86.0749	17,753.9	85.6347	17,753.9	84.2317	17,753.9	82.1037	17,753.9	81.527	17,753.9	75.4347	17,753.9	76.293	17,753.9	67.6352	17,753.9	71.0506	17,753.9	65.1708	17,753.9	71.0366	17,753.9	67.3247	17,753.9	67.2928	17,753.9	67.1389	17,753.9	64.4168	17,753.9	65.9823	17,753.9	61.4034	17,753.9	68.8727	17,753.9	62.2355	17,753.9	62.527	17,753.9	63.015	17,753.9	32.3962	17,753.9	46.5566	17,753.9	59.8085	17,753.9	57.0371	17,753.9	60.605	17,753.9	55.3681	17,753.9	60.3318	17,753.9	51.9664	17,753.9	44.2089	17,753.9	50.3262	17,753.9	56.8427	17,753.9	50.313	17,753.9	58.1321	17,753.9	57.9496	17,753.9	61.0667
18,377.9	85.3902	18,377.9	84.4698	18,377.9	83.0687	18,377.9	80.5631	18,377.9	80.5696	18,377.9	71.6861	18,377.9	74.9744	18,377.9	67.445	18,377.9	72.2141	18,377.9	64.0199	18,377.9	71.444	18,377.9	68.4077	18,377.9	68.7407	18,377.9	67.6003	18,377.9	66.1349	18,377.9	64.9524	18,377.9	61.3171	18,377.9	69.2049	18,377.9	63.3291	18,377.9	64.0723	18,377.9	63.1726	18,377.9	44.2241	18,377.9	49.1616	18,377.9	61.2778	18,377.9	57.7621	18,377.9	60.8138	18,377.9	55.5343	18,377.9	60.4962	18,377.9	51.708	18,377.9	48.5181	18,377.9	51.9082	18,377.9	58.341	18,377.9	53.3624	18,377.9	59.0176	18,377.9	58.8304	18,377.9	60.6513
19,028.3	84.7254	19,028.3	83.3739	19,028.3	82.2194	19,028.3	78.7681	19,028.3	79.9232	19,028.3	69.629	19,028.3	74.5005	19,028.3	67.0632	19,028.3	73.0983	19,028.3	64.5091	19,028.3	71.4918	19,028.3	68.3033	19,028.3	68.8178	19,028.3	66.9396	19,028.3	65.1702	19,028.3	62.5831	19,028.3	59.1724	19,028.3	69.4175	19,028.3	63.0732	19,028.3	64.9885	19,028.3	62.9701	19,028.3	50.3722	19,028.3	51.1167	19,028.3	61.9879	19,028.3	58.1109	19,028.3	60.5571	19,028.3	56.1235	19,028.3	60.4154	19,028.3	52.147	19,028.3	49.6782	19,028.3	51.7255	19,028.3	59.7576	19,028.3	54.0997	19,028.3	59.2208	19,028.3	59.7163	19,028.3	60.4265
19,699.2	84.1592	19,699.2	82.5888	19,699.2	81.4457	19,699.2	77.4107	19,699.2	79.2702	19,699.2	69.6177	19,699.2	74.2762	19,699.2	65.8934	19,699.2	72.9287	19,699.2	65.0441	19,699.2	71.4475	19,699.2	66.5671	19,699.2	68.4458	19,699.2	65.4244	19,699.2	64.3059	19,699.2	59.2009	19,699.2	58.7317	19,699.2	68.9226	19,699.2	62.8317	19,699.2	65.483	19,699.2	63.4359	19,699.2	55.5329	19,699.2	53.0928	19,699.2	62.2337	19,699.2	58.2395	19,699.2	59.846	19,699.2	56.228	19,699.2	60.3503	19,699.2	52.837	19,699.2	51.1045	19,699.2	52.1548	19,699.2	60.0711	19,699.2	55.1654	19,699.2	59.6238	19,699.2	60.603	19,699.2	60.6663
19,998	83.5881	19,998	82.1548	19,998	80.9191	19,998	76.7869	19,998	78.8306	19,998	69.3883	19,998	74.0959	19,998	64.9102	19,998	72.6825	19,998	64.357	19,998	71.7018	19,998	65.6255	19,998	67.6538	19,998	64.8031	19,998	63.4749	19,998	55.5131	19,998	57.6763	19,998	68.1672	19,998	62.0473	19,998	65.2398	19,998	63.8332	19,998	56.0237	19,998	53.7609	19,998	62.3644	19,998	58.4149	19,998	58.6454	19,998	55.8419	19,998	59.9414	19,998	54.3859	19,998	54.2704	19,998	53.2364	19,998	61.1187	19,998	53.5525	19,998	61.4281	19,998	61.2339	19,998	61.0363
