"SPL Vertical"																																																																							
"On-Axis"		"10°"		"-10°"		"20°"		"-20°"		"30°"		"-30°"		"40°"		"-40°"		"50°"		"-50°"		"60°"		"-60°"		"70°"		"-70°"		"80°"		"-80°"		"90°"		"-90°"		"100°"		"-100°"		"110°"		"-110°"		"120°"		"-120°"		"130°"		"-130°"		"140°"		"-140°"		"150°"		"-150°"		"160°"		"-160°"		"170°"		"-170°"		"180°"	
"Frequency [Hz]"	"Sound Pessure Level [dB]  / [2.83V 1m] "	"Frequency [Hz]"	"Sound Pessure Level [dB]  / [2.83V 1m] "	"Frequency [Hz]"	"Sound Pessure Level [dB]  / [2.83V 1m] "	"Frequency [Hz]"	"Sound Pessure Level [dB]  / [2.83V 1m] "	"Frequency [Hz]"	"Sound Pessure Level [dB]  / [2.83V 1m] "	"Frequency [Hz]"	"Sound Pessure Level [dB]  / [2.83V 1m] "	"Frequency [Hz]"	"Sound Pessure Level [dB]  / [2.83V 1m] "	"Frequency [Hz]"	"Sound Pessure Level [dB]  / [2.83V 1m] "	"Frequency [Hz]"	"Sound Pessure Level [dB]  / [2.83V 1m] "	"Frequency [Hz]"	"Sound Pessure Level [dB]  / [2.83V 1m] "	"Frequency [Hz]"	"Sound Pessure Level [dB]  / [2.83V 1m] "	"Frequency [Hz]"	"Sound Pessure Level [dB]  / [2.83V 1m] "	"Frequency [Hz]"	"Sound Pessure Level [dB]  / [2.83V 1m] "	"Frequency [Hz]"	"Sound Pessure Level [dB]  / [2.83V 1m] "	"Frequency [Hz]"	"Sound Pessure Level [dB]  / [2.83V 1m] "	"Frequency [Hz]"	"Sound Pessure Level [dB]  / [2.83V 1m] "	"Frequency [Hz]"	"Sound Pessure Level [dB]  / [2.83V 1m] "	"Frequency [Hz]"	"Sound Pessure Level [dB]  / [2.83V 1m] "	"Frequency [Hz]"	"Sound Pessure Level [dB]  / [2.83V 1m] "	"Frequency [Hz]"	"Sound Pessure Level [dB]  / [2.83V 1m] "	"Frequency [Hz]"	"Sound Pessure Level [dB]  / [2.83V 1m] "	"Frequency [Hz]"	"Sound Pessure Level [dB]  / [2.83V 1m] "	"Frequency [Hz]"	"Sound Pessure Level [dB]  / [2.83V 1m] "	"Frequency [Hz]"	"Sound Pessure Level [dB]  / [2.83V 1m] "	"Frequency [Hz]"	"Sound Pessure Level [dB]  / [2.83V 1m] "	"Frequency [Hz]"	"Sound Pessure Level [dB]  / [2.83V 1m] "	"Frequency [Hz]"	"Sound Pessure Level [dB]  / [2.83V 1m] "	"Frequency [Hz]"	"Sound Pessure Level [dB]  / [2.83V 1m] "	"Frequency [Hz]"	"Sound Pessure Level [dB]  / [2.83V 1m] "	"Frequency [Hz]"	"Sound Pessure Level [dB]  / [2.83V 1m] "	"Frequency [Hz]"	"Sound Pessure Level [dB]  / [2.83V 1m] "	"Frequency [Hz]"	"Sound Pessure Level [dB]  / [2.83V 1m] "	"Frequency [Hz]"	"Sound Pessure Level [dB]  / [2.83V 1m] "	"Frequency [Hz]"	"Sound Pessure Level [dB]  / [2.83V 1m] "	"Frequency [Hz]"	"Sound Pessure Level [dB]  / [2.83V 1m] "	"Frequency [Hz]"	"Sound Pessure Level [dB]  / [2.83V 1m] "
20.5078	70.5646	20.5078	70.5465	20.5078	70.6143	20.5078	70.5643	20.5078	70.6922	20.5078	70.623	20.5078	70.7963	20.5078	70.7276	20.5078	70.9261	20.5078	70.8829	20.5078	71.083	20.5078	71.0922	20.5078	71.2705	20.5078	71.3569	20.5078	71.4937	20.5078	71.6754	20.5078	71.7587	20.5078	72.0428	20.5078	72.0706	20.5078	72.4497	20.5078	72.4308	20.5078	72.8829	20.5078	72.8336	20.5078	73.3248	20.5078	73.2641	20.5078	73.7549	20.5078	73.6987	20.5078	74.1507	20.5078	74.1083	20.5078	74.4893	20.5078	74.4629	20.5078	74.7493	20.5078	74.736	20.5078	74.913	20.5078	74.908	20.5078	74.9678
23.4375	70.7483	23.4375	70.6242	23.4375	70.8729	23.4375	70.5065	23.4375	70.9928	23.4375	70.402	23.4375	71.1041	23.4375	70.3181	23.4375	71.2036	23.4375	70.2633	23.4375	71.2901	23.4375	70.2464	23.4375	71.3643	23.4375	70.2759	23.4375	71.4297	23.4375	70.3593	23.4375	71.4936	23.4375	70.501	23.4375	71.5657	23.4375	70.7012	23.4375	71.6575	23.4375	70.9541	23.4375	71.7786	23.4375	71.2476	23.4375	71.9323	23.4375	71.5631	23.4375	72.1123	23.4375	71.878	23.4375	72.3017	23.4375	72.1675	23.4375	72.4766	23.4375	72.4083	23.4375	72.6107	23.4375	72.5811	23.4375	72.6814	23.4375	72.6734
26.3672	60.3536	26.3672	59.8281	26.3672	60.7549	26.3672	59.1915	26.3672	61.0237	26.3672	58.4696	26.3672	61.1521	26.3672	57.7165	26.3672	61.131	26.3672	57.0359	26.3672	60.9509	26.3672	56.5921	26.3672	60.6043	26.3672	56.5656	26.3672	60.0946	26.3672	57.0355	26.3672	59.4557	26.3672	57.9076	26.3672	58.789	26.3672	58.992	26.3672	58.3059	26.3672	60.1181	26.3672	58.2871	26.3672	61.1756	26.3672	58.8671	26.3672	62.1024	26.3672	59.8774	26.3672	62.8628	26.3672	61.0174	26.3672	63.4341	26.3672	62.0642	26.3672	63.7986	26.3672	62.9069	26.3672	63.9408	26.3672	63.5038	26.3672	63.8465
29.2969	68.5205	29.2969	68.5666	29.2969	68.5205	29.2969	68.6686	29.2969	68.5594	29.2969	68.8366	29.2969	68.6339	29.2969	69.0789	29.2969	68.7458	29.2969	69.4001	29.2969	68.903	29.2969	69.7993	29.2969	69.1188	29.2969	70.2697	29.2969	69.4104	29.2969	70.7992	29.2969	69.7942	29.2969	71.3711	29.2969	70.2795	29.2969	71.9659	29.2969	70.8613	29.2969	72.5618	29.2969	71.5172	29.2969	73.1364	29.2969	72.2099	29.2969	73.6666	29.2969	72.8943	29.2969	74.1298	29.2969	73.5259	29.2969	74.5044	29.2969	74.0668	29.2969	74.7707	29.2969	74.4889	29.2969	74.9119	29.2969	74.7745	29.2969	74.9155
32.2266	73.1952	32.2266	73.1692	32.2266	73.2478	32.2266	73.1768	32.2266	73.322	32.2266	73.2259	32.2266	73.415	32.2266	73.3247	32.2266	73.5267	32.2266	73.4804	32.2266	73.6605	32.2266	73.6979	32.2266	73.8227	32.2266	73.9789	32.2266	74.0231	32.2266	74.3205	32.2266	74.2725	32.2266	74.7152	32.2266	74.5804	32.2266	75.1507	32.2266	74.9505	32.2266	75.6103	32.2266	75.3762	32.2266	76.0741	32.2266	75.839	32.2266	76.5198	32.2266	76.3104	32.2266	76.9242	32.2266	76.7565	32.2266	77.2649	32.2266	77.144	32.2266	77.5212	32.2266	77.445	32.2266	77.676	32.2266	77.6397	32.2266	77.7174
35.1563	73.4112	35.1563	73.3443	35.1563	73.4954	35.1563	73.3017	35.1563	73.5916	35.1563	73.2917	35.1563	73.6962	35.1563	73.3232	35.1563	73.8082	35.1563	73.4049	35.1563	73.9292	35.1563	73.5437	35.1563	74.0637	35.1563	73.7442	35.1563	74.219	35.1563	74.0068	35.1563	74.4048	35.1563	74.3269	35.1563	74.6309	35.1563	74.6949	35.1563	74.9041	35.1563	75.0958	35.1563	75.2241	35.1563	75.5109	35.1563	75.5804	35.1563	75.9181	35.1563	75.952	35.1563	76.2944	35.1563	76.3108	35.1563	76.617	35.1563	76.6266	35.1563	76.8653	35.1563	76.872	35.1563	77.0228	35.1563	77.0266	35.1563	77.078
38.0859	73.6883	38.0859	73.639	38.0859	73.7566	38.0859	73.6146	38.0859	73.8393	38.0859	73.6221	38.0859	73.9337	38.0859	73.6686	38.0859	74.0386	38.0859	73.7611	38.0859	74.1553	38.0859	73.9055	38.0859	74.2872	38.0859	74.105	38.0859	74.4401	38.0859	74.3596	38.0859	74.6216	38.0859	74.665	38.0859	74.8399	38.0859	75.0125	38.0859	75.1006	38.0859	75.3885	38.0859	75.4036	38.0859	75.7757	38.0859	75.7404	38.0859	76.1541	38.0859	76.0929	38.0859	76.5021	38.0859	76.4359	38.0859	76.7981	38.0859	76.7412	38.0859	77.0229	38.0859	76.9828	38.0859	77.1606	38.0859	77.1403	38.0859	77.201
41.0156	76.6665	41.0156	76.6412	41.0156	76.7151	41.0156	76.6426	41.0156	76.7844	41.0156	76.6748	41.0156	76.8724	41.0156	76.7417	41.0156	76.9784	41.0156	76.8473	41.0156	77.1025	41.0156	76.9947	41.0156	77.2461	41.0156	77.1855	41.0156	77.4122	41.0156	77.4195	41.0156	77.6044	41.0156	77.6934	41.0156	77.8266	41.0156	78.0009	41.0156	78.0813	41.0156	78.332	41.0156	78.3668	41.0156	78.6731	41.0156	78.6752	41.0156	79.0078	41.0156	78.9919	41.0156	79.3176	41.0156	79.296	41.0156	79.5837	41.0156	79.5644	41.0156	79.7881	41.0156	79.7749	41.0156	79.9163	41.0156	79.9097	41.0156	79.958
43.9453	78.7546	43.9453	78.7171	43.9453	78.8137	43.9453	78.7036	43.9453	78.8927	43.9453	78.7165	43.9453	78.99	43.9453	78.7586	43.9453	79.1046	43.9453	78.8326	43.9453	79.2357	43.9453	78.9413	43.9453	79.3829	43.9453	79.0864	43.9453	79.5465	43.9453	79.2686	43.9453	79.7273	43.9453	79.4869	43.9453	79.9262	43.9453	79.7374	43.9453	80.1435	43.9453	80.0134	43.9453	80.3771	43.9453	80.3047	43.9453	80.6214	43.9453	80.5979	43.9453	80.8656	43.9453	80.877	43.9453	81.0948	43.9453	81.1248	43.9453	81.2914	43.9453	81.3249	43.9453	81.4381	43.9453	81.4631	43.9453	81.5205	43.9453	81.5296
46.875	79.402	46.875	79.3597	46.875	79.466	46.875	79.3403	46.875	79.5504	46.875	79.3454	46.875	79.6538	46.875	79.3763	46.875	79.7745	46.875	79.4346	46.875	79.9108	46.875	79.522	46.875	80.0607	46.875	79.6398	46.875	80.2224	46.875	79.7888	46.875	80.3943	46.875	79.9685	46.875	80.5752	46.875	80.1768	46.875	80.7639	46.875	80.4091	46.875	80.958	46.875	80.6579	46.875	81.1534	46.875	80.9125	46.875	81.3428	46.875	81.1597	46.875	81.5154	46.875	81.3847	46.875	81.6585	46.875	81.5725	46.875	81.7587	46.875	81.7104	46.875	81.8046	46.875	81.7891
49.8047	79.8029	49.8047	79.756	49.8047	79.8689	49.8047	79.7288	49.8047	79.9528	49.8047	79.7219	49.8047	80.0535	49.8047	79.7361	49.8047	80.1691	49.8047	79.7721	49.8047	80.2971	49.8047	79.8311	49.8047	80.4348	49.8047	79.9143	49.8047	80.579	49.8047	80.0225	49.8047	80.7271	49.8047	80.1562	49.8047	80.8764	49.8047	80.3148	49.8047	81.0251	49.8047	80.4956	49.8047	81.1712	49.8047	80.6937	49.8047	81.312	49.8047	80.9012	49.8047	81.4434	49.8047	81.1078	49.8047	81.5585	49.8047	81.3011	49.8047	81.6488	49.8047	81.4684	49.8047	81.7047	49.8047	81.5983	49.8047	81.7179	49.8047	81.6828
52.7344	80.6511	52.7344	80.6021	52.7344	80.7165	52.7344	80.5698	52.7344	80.7976	52.7344	80.5544	52.7344	80.893	52.7344	80.556	52.7344	81.0008	52.7344	80.5748	52.7344	81.1181	52.7344	80.6115	52.7344	81.2414	52.7344	80.6668	52.7344	81.3671	52.7344	80.7418	52.7344	81.4914	52.7344	80.8372	52.7344	81.6113	52.7344	80.9533	52.7344	81.7245	52.7344	81.0892	52.7344	81.8295	52.7344	81.2419	52.7344	81.9249	52.7344	81.4062	52.7344	82.0087	52.7344	81.5742	52.7344	82.0773	52.7344	81.7363	52.7344	82.1254	52.7344	81.8819	52.7344	82.1467	52.7344	82.0011	52.7344	82.1351	52.7344	82.0867
55.6641	81.597	55.6641	81.5499	55.6641	81.6611	55.6641	81.5195	55.6641	81.7419	55.6641	81.5054	55.6641	81.8383	55.6641	81.5071	55.6641	81.9481	55.6641	81.524	55.6641	82.0684	55.6641	81.5562	55.6641	82.1951	55.6641	81.6039	55.6641	82.3238	55.6641	81.6678	55.6641	82.4501	55.6641	81.749	55.6641	82.5696	55.6641	81.848	55.6641	82.6792	55.6641	81.9651	55.6641	82.7766	55.6641	82.0986	55.6641	82.86	55.6641	82.2452	55.6641	82.9275	55.6641	82.3988	55.6641	82.9765	55.6641	82.5512	55.6641	83.0033	55.6641	82.6931	55.6641	83.0035	55.6641	82.8152	55.6641	82.9731	55.6641	82.91
58.5938	82.0563	58.5938	82.0081	58.5938	82.1235	58.5938	81.9783	58.5938	82.2095	58.5938	81.9657	58.5938	82.3134	58.5938	81.9692	58.5938	82.4329	58.5938	81.9877	58.5938	82.5646	58.5938	82.0203	58.5938	82.7039	58.5938	82.0667	58.5938	82.8453	58.5938	82.1273	58.5938	82.9832	58.5938	82.2026	58.5938	83.112	58.5938	82.2935	58.5938	83.2269	58.5938	82.4006	58.5938	83.3243	58.5938	82.5235	58.5938	83.4014	58.5938	82.66	58.5938	83.4563	58.5938	82.8057	58.5938	83.4872	58.5938	82.9543	58.5938	83.4921	58.5938	83.0975	58.5938	83.4691	58.5938	83.2269	58.5938	83.4166	58.5938	83.335
61.5234	82.1607	61.5234	82.1142	61.5234	82.2262	61.5234	82.0859	61.5234	82.3109	61.5234	82.0742	61.5234	82.4135	61.5234	82.0775	61.5234	82.5321	61.5234	82.0942	61.5234	82.6628	61.5234	82.123	61.5234	82.8008	61.5234	82.163	61.5234	82.9405	61.5234	82.2141	61.5234	83.0754	61.5234	82.2767	61.5234	83.1994	61.5234	82.3517	61.5234	83.307	61.5234	82.4402	61.5234	83.3939	61.5234	82.5427	61.5234	83.457	61.5234	82.6585	61.5234	83.4947	61.5234	82.7852	61.5234	83.5059	61.5234	82.9181	61.5234	83.4904	61.5234	83.0511	61.5234	83.4482	61.5234	83.1768	61.5234	83.3801	61.5234	83.2884
64.4531	82.2283	64.4531	82.1741	64.4531	82.2984	64.4531	82.135	64.4531	82.3844	64.4531	82.1096	64.4531	82.4853	64.4531	82.0961	64.4531	82.5986	64.4531	82.093	64.4531	82.7207	64.4531	82.0987	64.4531	82.8468	64.4531	82.1124	64.4531	82.9709	64.4531	82.1341	64.4531	83.0868	64.4531	82.1644	64.4531	83.1881	64.4531	82.2049	64.4531	83.2692	64.4531	82.2577	64.4531	83.3256	64.4531	82.325	64.4531	83.3545	64.4531	82.408	64.4531	83.355	64.4531	82.5068	64.4531	83.3276	64.4531	82.6191	64.4531	83.2739	64.4531	82.7407	64.4531	83.1968	64.4531	82.8657	64.4531	83.0998	64.4531	82.9876
67.3828	82.5209	67.3828	82.4601	67.3828	82.5934	67.3828	82.4104	67.3828	82.6776	67.3828	82.3702	67.3828	82.7726	67.3828	82.3379	67.3828	82.876	67.3828	82.3118	67.3828	82.9841	67.3828	82.2906	67.3828	83.0923	67.3828	82.2735	67.3828	83.1946	67.3828	82.2608	67.3828	83.2848	67.3828	82.2538	67.3828	83.3565	67.3828	82.2547	67.3828	83.4042	67.3828	82.267	67.3828	83.4237	67.3828	82.2942	67.3828	83.413	67.3828	82.3398	67.3828	83.372	67.3828	82.4061	67.3828	83.3031	67.3828	82.493	67.3828	83.2103	67.3828	82.5985	67.3828	83.099	67.3828	82.7182	67.3828	82.9753	67.3828	82.8461
70.3125	82.814	70.3125	82.7521	70.3125	82.8891	70.3125	82.7025	70.3125	82.9775	70.3125	82.6635	70.3125	83.0777	70.3125	82.6331	70.3125	83.187	70.3125	82.6092	70.3125	83.3012	70.3125	82.59	70.3125	83.4148	70.3125	82.5745	70.3125	83.5211	70.3125	82.5625	70.3125	83.6132	70.3125	82.555	70.3125	83.6843	70.3125	82.5541	70.3125	83.7287	70.3125	82.5631	70.3125	83.7423	70.3125	82.5859	70.3125	83.7235	70.3125	82.626	70.3125	83.6732	70.3125	82.6863	70.3125	83.5946	70.3125	82.7677	70.3125	83.4928	70.3125	82.8687	70.3125	83.3739	70.3125	82.9857	70.3125	83.2451	70.3125	83.1133
73.2422	82.9568	73.2422	82.9003	73.2422	83.0293	73.2422	82.8584	73.2422	83.1178	73.2422	82.8293	73.2422	83.2211	73.2422	82.8103	73.2422	83.3367	73.2422	82.7989	73.2422	83.4602	73.2422	82.7927	73.2422	83.586	73.2422	82.7901	73.2422	83.7073	73.2422	82.7901	73.2422	83.8163	73.2422	82.7932	73.2422	83.9054	73.2422	82.8011	73.2422	83.9676	73.2422	82.8167	73.2422	83.9978	73.2422	82.8438	73.2422	83.9928	73.2422	82.8866	73.2422	83.9525	73.2422	82.9486	73.2422	83.8795	73.2422	83.0315	73.2422	83.7791	73.2422	83.1349	73.2422	83.6582	73.2422	83.2555	73.2422	83.525	73.2422	83.388
76.1719	83.1416	76.1719	83.0912	76.1719	83.2093	76.1719	83.0567	76.1719	83.2946	76.1719	83.0357	76.1719	83.3963	76.1719	83.0255	76.1719	83.5119	76.1719	83.023	76.1719	83.6372	76.1719	83.0254	76.1719	83.7663	76.1719	83.0305	76.1719	83.8923	76.1719	83.0371	76.1719	84.0072	76.1719	83.045	76.1719	84.103	76.1719	83.0556	76.1719	84.1723	76.1719	83.0719	76.1719	84.2092	76.1719	83.0978	76.1719	84.2104	76.1719	83.1379	76.1719	84.1753	76.1719	83.1962	76.1719	84.1064	76.1719	83.2751	76.1719	84.0089	76.1719	83.3749	76.1719	83.89	76.1719	83.4926	76.1719	83.7583	76.1719	83.6229
79.1016	83.0785	79.1016	83.0335	79.1016	83.1436	79.1016	83.007	79.1016	83.2293	79.1016	82.9963	79.1016	83.3347	79.1016	82.9983	79.1016	83.4572	79.1016	83.0096	79.1016	83.5928	79.1016	83.0269	79.1016	83.7357	79.1016	83.0475	79.1016	83.8789	79.1016	83.0697	79.1016	84.0141	79.1016	83.0931	79.1016	84.1326	79.1016	83.1189	79.1016	84.2261	79.1016	83.1497	79.1016	84.2875	79.1016	83.1894	79.1016	84.3121	79.1016	83.2425	79.1016	84.2977	79.1016	83.3131	79.1016	84.2455	79.1016	83.4037	79.1016	84.1597	79.1016	83.5141	79.1016	84.0471	79.1016	83.6409	79.1016	83.9166	79.1016	83.778
82.0313	83.0379	82.0313	82.9924	82.0313	83.1012	82.0313	82.9635	82.0313	83.1827	82.0313	82.949	82.0313	83.2814	82.0313	82.9459	82.0313	83.3949	82.0313	82.951	82.0313	83.5198	82.0313	82.961	82.0313	83.6511	82.0313	82.9734	82.0313	83.7826	82.0313	82.9866	82.0313	83.9071	82.0313	83.0002	82.0313	84.0166	82.0313	83.0155	82.0313	84.1029	82.0313	83.0355	82.0313	84.1589	82.0313	83.0646	82.0313	84.1792	82.0313	83.1077	82.0313	84.161	82.0313	83.1696	82.0313	84.1049	82.0313	83.2534	82.0313	84.0149	82.0313	83.3593	82.0313	83.898	82.0313	83.4844	82.0313	83.7636	82.0313	83.6222
84.9609	83.0685	84.9609	83.0141	84.9609	83.1358	84.9609	82.9718	84.9609	83.2156	84.9609	82.9401	84.9609	83.3068	84.9609	82.9166	84.9609	83.4072	84.9609	82.8987	84.9609	83.5132	84.9609	82.8838	84.9609	83.6207	84.9609	82.8696	84.9609	83.7243	84.9609	82.8548	84.9609	83.8174	84.9609	82.8394	84.9609	83.8933	84.9609	82.825	84.9609	83.9448	84.9609	82.815	84.9609	83.9658	84.9609	82.8144	84.9609	83.9519	84.9609	82.829	84.9609	83.9013	84.9609	82.8648	84.9609	83.8156	84.9609	82.9264	84.9609	83.7	84.9609	83.0157	84.9609	83.5628	84.9609	83.1311	84.9609	83.4146	84.9609	83.2671
87.8906	82.8551	87.8906	82.802	87.8906	82.9222	87.8906	82.7619	87.8906	83.0032	87.8906	82.733	87.8906	83.0971	87.8906	82.7128	87.8906	83.2014	87.8906	82.6984	87.8906	83.3127	87.8906	82.687	87.8906	83.4264	87.8906	82.6763	87.8906	83.5366	87.8906	82.6648	87.8906	83.6366	87.8906	82.6525	87.8906	83.7189	87.8906	82.641	87.8906	83.7761	87.8906	82.6337	87.8906	83.8018	87.8906	82.6354	87.8906	83.7914	87.8906	82.6524	87.8906	83.743	87.8906	82.6905	87.8906	83.6583	87.8906	82.7546	87.8906	83.5425	87.8906	82.8466	87.8906	83.4041	87.8906	82.9648	87.8906	83.2538	87.8906	83.1036
90.8203	82.4707	90.8203	82.4098	90.8203	82.5509	90.8203	82.3677	90.8203	82.6497	90.8203	82.3429	90.8203	82.7654	90.8203	82.333	90.8203	82.895	90.8203	82.3349	90.8203	83.0346	90.8203	82.3452	90.8203	83.1793	90.8203	82.3612	90.8203	83.3231	90.8203	82.3806	90.8203	83.4586	90.8203	82.4027	90.8203	83.5779	90.8203	82.4281	90.8203	83.6724	90.8203	82.4591	90.8203	83.7345	90.8203	82.4997	90.8203	83.7578	90.8203	82.5545	90.8203	83.7389	90.8203	82.6284	90.8203	83.6777	90.8203	82.7249	90.8203	83.5782	90.8203	82.8447	90.8203	83.4481	90.8203	82.9852	90.8203	83.2978	90.8203	83.1395
93.75	83.1489	93.75	83.0778	93.75	83.2233	93.75	83.0095	93.75	83.3007	93.75	82.9431	93.75	83.3804	93.75	82.8775	93.75	83.4611	93.75	82.8109	93.75	83.5406	93.75	82.7419	93.75	83.6158	93.75	82.6695	93.75	83.6825	93.75	82.5935	93.75	83.7353	93.75	82.5152	93.75	83.7675	93.75	82.4376	93.75	83.7722	93.75	82.3657	93.75	83.7427	93.75	82.3067	93.75	83.6742	93.75	82.2692	93.75	83.5648	93.75	82.2625	93.75	83.4173	93.75	82.2947	93.75	83.2388	93.75	82.3712	93.75	83.0414	93.75	82.4922	93.75	82.8404	93.75	82.6523
96.6797	83.3359	96.6797	83.2639	96.6797	83.4121	96.6797	83.1951	96.6797	83.4926	96.6797	83.1275	96.6797	83.5761	96.6797	83.0587	96.6797	83.6605	96.6797	82.9856	96.6797	83.7425	96.6797	82.9055	96.6797	83.8176	96.6797	82.8164	96.6797	83.8802	96.6797	82.7175	96.6797	83.9235	96.6797	82.6101	96.6797	83.9401	96.6797	82.4979	96.6797	83.9224	96.6797	82.3872	96.6797	83.8641	96.6797	82.2876	96.6797	83.7609	96.6797	82.2107	96.6797	83.6125	96.6797	82.1692	96.6797	83.4235	96.6797	82.1749	96.6797	83.2037	96.6797	82.2359	96.6797	82.9682	96.6797	82.3543	96.6797	82.7354	96.6797	82.5249
102.539	83.3048	102.539	83.2499	102.539	83.3728	102.539	83.2067	102.539	83.4539	102.539	83.1723	102.539	83.547	102.539	83.1433	102.539	83.6497	102.539	83.1153	102.539	83.7581	102.539	83.084	102.539	83.8673	102.539	83.0458	102.539	83.9706	102.539	82.9986	102.539	84.06	102.539	82.9419	102.539	84.1266	102.539	82.8781	102.539	84.161	102.539	82.8123	102.539	84.1549	102.539	82.7526	102.539	84.1026	102.539	82.7096	102.539	84.0021	102.539	82.6948	102.539	83.8567	102.539	82.7191	102.539	83.6754	102.539	82.7899	102.539	83.4721	102.539	82.9091	102.539	83.2645	102.539	83.0712
105.469	83.2201	105.469	83.1703	105.469	83.2847	105.469	83.1339	105.469	83.3639	105.469	83.1085	105.469	83.4566	105.469	83.0903	105.469	83.5606	105.469	83.075	105.469	83.6726	105.469	83.058	105.469	83.7879	105.469	83.0353	105.469	83.9007	105.469	83.0043	105.469	84.0032	105.469	82.9644	105.469	84.0865	105.469	82.9174	105.469	84.141	105.469	82.8681	105.469	84.1574	105.469	82.8244	105.469	84.1289	105.469	82.7963	105.469	84.0522	105.469	82.7951	105.469	83.9292	105.469	82.8307	105.469	83.7674	105.469	82.9098	105.469	83.5797	105.469	83.0332	105.469	83.3828	105.469	83.195
108.398	83.1153	108.398	83.0657	108.398	83.1795	108.398	83.0301	108.398	83.2576	108.398	83.0068	108.398	83.3482	108.398	82.9926	108.398	83.4491	108.398	82.9837	108.398	83.5578	108.398	82.9754	108.398	83.6705	108.398	82.9639	108.398	83.7826	108.398	82.9462	108.398	83.8874	108.398	82.921	108.398	83.9769	108.398	82.8899	108.398	84.0416	108.398	82.8569	108.398	84.0723	108.398	82.8289	108.398	84.0613	108.398	82.8151	108.398	84.0043	108.398	82.8255	108.398	83.9016	108.398	82.8693	108.398	83.7596	108.398	82.9522	108.398	83.5897	108.398	83.0746	108.398	83.4075	108.398	83.2304
111.328	83.0311	111.328	82.9745	111.328	83.1002	111.328	82.9306	111.328	83.1805	111.328	82.8982	111.328	83.2705	111.328	82.8752	111.328	83.368	111.328	82.8582	111.328	83.4708	111.328	82.8433	111.328	83.5761	111.328	82.8268	111.328	83.68	111.328	82.806	111.328	83.7771	111.328	82.7799	111.328	83.8604	111.328	82.7497	111.328	83.9212	111.328	82.7194	111.328	83.9504	111.328	82.6956	111.328	83.9401	111.328	82.6869	111.328	83.8853	111.328	82.7028	111.328	83.786	111.328	82.7518	111.328	83.6473	111.328	82.8392	111.328	83.4801	111.328	82.9648	111.328	83.2994	111.328	83.1223
117.188	83.0955	117.188	83.0226	117.188	83.1752	117.188	82.9584	117.188	83.2592	117.188	82.9035	117.188	83.3451	117.188	82.8572	117.188	83.4305	117.188	82.8174	117.188	83.5135	117.188	82.7813	117.188	83.5924	117.188	82.7458	117.188	83.6652	117.188	82.7085	117.188	83.7287	117.188	82.6683	117.188	83.7782	117.188	82.6263	117.188	83.8076	117.188	82.5863	117.188	83.8096	117.188	82.5542	117.188	83.7775	117.188	82.5381	117.188	83.7069	117.188	82.5469	117.188	83.5974	117.188	82.5887	117.188	83.4538	117.188	82.6685	117.188	83.2861	117.188	82.7864	117.188	83.1084	117.188	82.9369
120.117	83.1109	120.117	83.0306	120.117	83.1958	120.117	82.9571	120.117	83.2826	120.117	82.8916	120.117	83.3687	120.117	82.8341	120.117	83.4519	120.117	82.7832	120.117	83.5303	120.117	82.7369	120.117	83.6024	120.117	82.6928	120.117	83.6664	120.117	82.649	120.117	83.7197	120.117	82.6048	120.117	83.7583	120.117	82.5612	120.117	83.7766	120.117	82.5215	120.117	83.7679	120.117	82.4908	120.117	83.7264	120.117	82.4766	120.117	83.648	120.117	82.4867	120.117	83.5327	120.117	82.5286	120.117	83.3856	120.117	82.607	120.117	83.2166	120.117	82.7226	120.117	83.0397	120.117	82.8703
125.977	83.327	125.977	83.2417	125.977	83.4102	125.977	83.1556	125.977	83.4894	125.977	83.0696	125.977	83.5627	125.977	82.9832	125.977	83.6287	125.977	82.8954	125.977	83.6865	125.977	82.8046	125.977	83.735	125.977	82.7097	125.977	83.7732	125.977	82.6104	125.977	83.7985	125.977	82.5079	125.977	83.807	125.977	82.4059	125.977	83.7925	125.977	82.3103	125.977	83.7481	125.977	82.2295	125.977	83.6672	125.977	82.1734	125.977	83.5458	125.977	82.1527	125.977	83.3843	125.977	82.1767	125.977	83.1893	125.977	82.2514	125.977	82.9733	125.977	82.3776	125.977	82.7536	125.977	82.5492
128.906	83.3859	128.906	83.305	128.906	83.4621	128.906	83.2201	128.906	83.5323	128.906	83.1311	128.906	83.5948	128.906	83.0365	128.906	83.6483	128.906	82.9343	128.906	83.6915	128.906	82.8223	128.906	83.7232	128.906	82.6988	128.906	83.7419	128.906	82.5636	128.906	83.7448	128.906	82.4187	128.906	83.7276	128.906	82.2691	128.906	83.6842	128.906	82.1228	128.906	83.6075	128.906	81.9909	128.906	83.4915	128.906	81.8869	128.906	83.3326	128.906	81.8249	128.906	83.1324	128.906	81.8175	128.906	82.8993	128.906	81.8733	128.906	82.6481	128.906	81.9944	128.906	82.3991	128.906	82.1745
134.766	82.9796	134.766	82.9013	134.766	83.0606	134.766	82.8265	134.766	83.1428	134.766	82.7542	134.766	83.2239	134.766	82.6822	134.766	83.3019	134.766	82.6067	134.766	83.3749	134.766	82.524	134.766	83.441	134.766	82.4307	134.766	83.4978	134.766	82.3254	134.766	83.5416	134.766	82.209	134.766	83.5665	134.766	82.0861	134.766	83.5646	134.766	81.9646	134.766	83.5269	134.766	81.8559	134.766	83.445	134.766	81.774	134.766	83.3136	134.766	81.7337	134.766	83.1329	134.766	81.7481	134.766	82.9103	134.766	81.8258	134.766	82.6605	134.766	81.9679	134.766	82.4047	134.766	82.1664
137.695	82.9741	137.695	82.8785	137.695	83.0727	137.695	82.7885	137.695	83.1708	137.695	82.7053	137.695	83.2648	137.695	82.6281	137.695	83.3519	137.695	82.5545	137.695	83.4302	137.695	82.481	137.695	83.4987	137.695	82.4043	137.695	83.5564	137.695	82.3225	137.695	83.6014	137.695	82.2357	137.695	83.6299	137.695	82.147	137.695	83.6355	137.695	82.0625	137.695	83.6102	137.695	81.9916	137.695	83.5457	137.695	81.9455	137.695	83.4361	137.695	81.9363	137.695	83.2804	137.695	81.9744	137.695	83.0842	137.695	82.0663	137.695	82.86	137.695	82.2119	137.695	82.6261	137.695	82.4035
143.555	83.0523	143.555	82.9438	143.555	83.1565	143.555	82.8345	143.555	83.2523	143.555	82.7267	143.555	83.336	143.555	82.6207	143.555	83.4048	143.555	82.5154	143.555	83.4575	143.555	82.4085	143.555	83.4938	143.555	82.2979	143.555	83.5144	143.555	82.1827	143.555	83.5189	143.555	82.0639	143.555	83.5058	143.555	81.9458	143.555	83.4709	143.555	81.8354	143.555	83.4083	143.555	81.7428	143.555	83.3113	143.555	81.6793	143.555	83.1749	143.555	81.6566	143.555	82.9985	143.555	81.6844	143.555	82.7878	143.555	81.7682	143.555	82.5548	143.555	81.9076	143.555	82.3174	143.555	82.0954
149.414	83.0089	149.414	82.8905	149.414	83.12	149.414	82.769	149.414	83.2195	149.414	82.6477	149.414	83.304	149.414	82.5282	149.414	83.3714	149.414	82.4104	149.414	83.4217	149.414	82.2929	149.414	83.4558	149.414	82.1746	149.414	83.4754	149.414	82.0548	149.414	83.4808	149.414	81.9355	149.414	83.4705	149.414	81.8208	149.414	83.4398	149.414	81.7179	149.414	83.3816	149.414	81.6361	149.414	83.2882	149.414	81.5859	149.414	83.1538	149.414	81.5774	149.414	82.9774	149.414	81.6187	149.414	82.7646	149.414	81.7142	149.414	82.5282	149.414	81.8632	149.414	82.2861	149.414	82.0583
155.273	83.0945	155.273	82.9697	155.273	83.2045	155.273	82.8341	155.273	83.296	155.273	82.6906	155.273	83.3665	155.273	82.5412	155.273	83.4147	155.273	82.3866	155.273	83.4414	155.273	82.227	155.273	83.4489	155.273	82.0626	155.273	83.44	155.273	81.8953	155.273	83.4168	155.273	81.7291	155.273	83.3792	155.273	81.5711	155.273	83.3237	155.273	81.431	155.273	83.2432	155.273	81.3204	155.273	83.1293	155.273	81.2513	155.273	82.975	155.273	81.2342	155.273	82.7778	155.273	81.2767	155.273	82.5426	155.273	81.382	155.273	82.2821	155.273	81.5473	155.273	82.0152	155.273	81.7635
158.203	83.2057	158.203	83.0772	158.203	83.319	158.203	82.9371	158.203	83.4129	158.203	82.7885	158.203	83.4846	158.203	82.6329	158.203	83.5324	158.203	82.4709	158.203	83.5567	158.203	82.3022	158.203	83.5594	158.203	82.1273	158.203	83.5436	158.203	81.948	158.203	83.5119	158.203	81.7689	158.203	83.4646	158.203	81.5979	158.203	83.399	158.203	81.4456	158.203	83.309	158.203	81.3247	158.203	83.1864	158.203	81.2481	158.203	83.024	158.203	81.227	158.203	82.8192	158.203	81.2693	158.203	82.5764	158.203	81.3776	158.203	82.3079	158.203	81.5487	158.203	82.0326	158.203	81.7726
164.063	83.5239	164.063	83.395	164.063	83.6349	164.063	83.2521	164.063	83.724	164.063	83.0978	164.063	83.7878	164.063	82.9335	164.063	83.8241	164.063	82.7594	164.063	83.8329	164.063	82.5755	164.063	83.8156	164.063	82.3823	164.063	83.7753	164.063	82.1828	164.063	83.7149	164.063	81.9824	164.063	83.6365	164.063	81.7904	164.063	83.5393	164.063	81.6188	164.063	83.4198	164.063	81.4813	164.063	83.2727	164.063	81.3914	164.063	83.0931	164.063	81.3597	164.063	82.8793	164.063	81.3928	164.063	82.6359	164.063	81.4916	164.063	82.3738	164.063	81.6517	164.063	82.1096	164.063	81.8627
169.922	82.9525	169.922	82.8523	169.922	83.0427	169.922	82.745	169.922	83.1192	169.922	82.632	169.922	83.1791	169.922	82.5128	169.922	83.2211	169.922	82.3854	169.922	83.2461	169.922	82.2471	169.922	83.2565	169.922	82.0969	169.922	83.2559	169.922	81.9361	169.922	83.2463	169.922	81.7697	169.922	83.2272	169.922	81.6068	169.922	83.1937	169.922	81.4599	169.922	83.137	169.922	81.343	169.922	83.0467	169.922	81.2697	169.922	82.9141	169.922	81.2508	169.922	82.7359	169.922	81.2929	169.922	82.5168	169.922	81.3972	169.922	82.2697	169.922	81.5597	169.922	82.0137	169.922	81.7703
175.781	82.9323	175.781	82.8111	175.781	83.0384	175.781	82.6807	175.781	83.1233	175.781	82.5457	175.781	83.1828	175.781	82.4084	175.781	83.2157	175.781	82.2685	175.781	83.2238	175.781	82.1246	175.781	83.2124	175.781	81.9759	175.781	83.1886	175.781	81.8237	175.781	83.1587	175.781	81.6728	175.781	83.1263	175.781	81.5317	175.781	83.0893	175.781	81.4122	175.781	83.0401	175.781	81.3266	175.781	82.9674	175.781	81.286	175.781	82.8599	175.781	81.2976	175.781	82.7115	175.781	81.3639	175.781	82.5238	175.781	81.483	175.781	82.3067	175.781	81.6487	175.781	82.0762	175.781	81.8511
181.641	83.0139	181.641	82.8717	181.641	83.1323	181.641	82.7124	181.641	83.221	181.641	82.5415	181.641	83.2763	181.641	82.3632	181.641	83.2974	181.641	82.1791	181.641	83.2871	181.641	81.9899	181.641	83.2517	181.641	81.7964	181.641	83.1992	181.641	81.6017	181.641	83.1379	181.641	81.4121	181.641	83.0728	181.641	81.2378	181.641	83.0035	181.641	81.0919	181.641	82.9235	181.641	80.9881	181.641	82.8212	181.641	80.9377	181.641	82.6852	181.641	80.9474	181.641	82.5087	181.641	81.0184	181.641	82.2933	181.641	81.1474	181.641	82.0494	181.641	81.3273	181.641	81.7944	181.641	81.5477
190.43	83.0095	190.43	82.8765	190.43	83.1199	190.43	82.7271	190.43	83.2011	190.43	82.5657	190.43	83.2481	190.43	82.394	190.43	83.2589	190.43	82.2112	190.43	83.2351	190.43	82.0154	190.43	83.1826	190.43	81.806	190.43	83.11	190.43	81.5853	190.43	83.0267	190.43	81.3608	190.43	82.94	190.43	81.1452	190.43	82.8512	190.43	80.9551	190.43	82.7544	190.43	80.8086	190.43	82.6381	190.43	80.7216	190.43	82.4895	190.43	80.7037	190.43	82.3005	190.43	80.7575	190.43	82.0718	190.43	80.8792	190.43	81.8142	190.43	81.0601	190.43	81.5457	190.43	81.2877
196.289	82.922	196.289	82.7786	196.289	83.0399	196.289	82.6184	196.289	83.1244	196.289	82.4491	196.289	83.1705	196.289	82.2757	196.289	83.1769	196.289	82.1004	196.289	83.1475	196.289	81.9235	196.289	83.0903	196.289	81.7449	196.289	83.0166	196.289	81.5669	196.289	82.9385	196.289	81.395	196.289	82.8644	196.289	81.2389	196.289	82.796	196.289	81.1106	196.289	82.7263	196.289	81.0224	196.289	82.6422	196.289	80.9834	196.289	82.5294	196.289	80.998	196.289	82.379	196.289	81.0656	196.289	82.1913	196.289	81.1819	196.289	81.9765	196.289	81.3408	196.289	81.7515	196.289	81.5344
202.148	83.026	202.148	82.8858	202.148	83.1309	202.148	82.718	202.148	83.1935	202.148	82.53	202.148	83.21	202.148	82.3272	202.148	83.1807	202.148	82.1131	202.148	83.1114	202.148	81.89	202.148	83.0126	202.148	81.6614	202.148	82.8993	202.148	81.4333	202.148	82.7872	202.148	81.2158	202.148	82.6884	202.148	81.023	202.148	82.6064	202.148	80.8704	202.148	82.5335	202.148	80.7713	202.148	82.4531	202.148	80.7336	202.148	82.3466	202.148	80.7577	202.148	82.201	202.148	80.8383	202.148	82.0144	202.148	80.9677	202.148	81.7966	202.148	81.1378	202.148	81.5656	202.148	81.3407
210.938	83.0628	210.938	82.9332	210.938	83.1589	210.938	82.7764	210.938	83.2153	210.938	82.5966	210.938	83.2275	210.938	82.3952	210.938	83.1949	210.938	82.1714	210.938	83.1219	210.938	81.924	210.938	83.0183	210.938	81.6544	210.938	82.8988	210.938	81.3694	210.938	82.7794	210.938	81.0828	210.938	82.6728	210.938	80.8157	210.938	82.5827	210.938	80.593	210.938	82.5006	210.938	80.4381	210.938	82.4076	210.938	80.3661	210.938	82.2825	210.938	80.38	210.938	82.1105	210.938	80.4718	210.938	81.8893	210.938	80.6284	210.938	81.6302	210.938	80.8363	210.938	81.3539	210.938	81.0829
216.797	82.9439	216.797	82.8099	216.797	83.0469	216.797	82.6553	216.797	83.1084	216.797	82.4874	216.797	83.121	216.797	82.3089	216.797	83.0823	216.797	82.1183	216.797	82.9973	216.797	81.9115	216.797	82.8782	216.797	81.6861	216.797	82.744	216.797	81.4442	216.797	82.6167	216.797	81.1953	216.797	82.5145	216.797	80.9565	216.797	82.4442	216.797	80.7501	216.797	82.3961	216.797	80.599	216.797	82.3464	216.797	80.5203	216.797	82.2669	216.797	80.5212	216.797	82.1362	216.797	80.5987	216.797	81.9476	216.797	80.7434	216.797	81.7108	216.797	80.9431	216.797	81.4476	216.797	81.1838
225.586	83.152	225.586	82.9915	225.586	83.2669	225.586	82.7968	225.586	83.3257	225.586	82.5775	225.586	83.3218	225.586	82.3397	225.586	83.2536	225.586	82.0857	225.586	83.1271	225.586	81.8159	225.586	82.9556	225.586	81.5317	225.586	82.7602	225.586	81.2401	225.586	82.5664	225.586	80.9553	225.586	82.3988	225.586	80.6991	225.586	82.2714	225.586	80.497	225.586	82.1807	225.586	80.3712	225.586	82.1066	225.586	80.3327	225.586	82.0206	225.586	80.3779	225.586	81.8995	225.586	80.4916	225.586	81.7336	225.586	80.6551	225.586	81.5291	225.586	80.8524	225.586	81.3023	225.586	81.0718
234.375	83.2198	234.375	83.0807	234.375	83.3203	234.375	82.9134	234.375	83.3707	234.375	82.7253	234.375	83.3624	234.375	82.5182	234.375	83.2916	234.375	82.289	234.375	83.161	234.375	82.0322	234.375	82.9814	234.375	81.7438	234.375	82.7718	234.375	81.4259	234.375	82.5578	234.375	81.0903	234.375	82.3658	234.375	80.7591	234.375	82.2133	234.375	80.4631	234.375	82.0991	234.375	80.2346	234.375	82.0021	234.375	80.0984	234.375	81.8899	234.375	80.0637	234.375	81.7348	234.375	80.1239	234.375	81.525	234.375	80.2634	234.375	81.2686	234.375	80.4649	234.375	80.9886	234.375	80.7127
240.234	83.0369	240.234	82.8741	240.234	83.1661	240.234	82.6922	240.234	83.2468	240.234	82.5012	240.234	83.2671	240.234	82.3045	240.234	83.2208	240.234	82.099	240.234	83.1094	240.234	81.8779	240.234	82.9429	240.234	81.6359	240.234	82.7403	240.234	81.3737	240.234	82.5282	240.234	81.1013	240.234	82.3352	240.234	80.8385	240.234	82.1823	240.234	80.6117	240.234	82.0729	240.234	80.4472	240.234	81.9895	240.234	80.3627	240.234	81.9025	240.234	80.3622	240.234	81.7843	240.234	80.4369	240.234	81.6213	240.234	80.5716	240.234	81.4177	240.234	80.7512	240.234	81.1908	240.234	80.9624
249.023	83.0909	249.023	82.8722	249.023	83.2605	249.023	82.6213	249.023	83.3647	249.023	82.3515	249.023	83.3923	249.023	82.0686	249.023	83.3391	249.023	81.7708	249.023	83.2097	249.023	81.4522	249.023	83.0178	249.023	81.1086	249.023	82.7857	249.023	80.7444	249.023	82.5419	249.023	80.3768	249.023	82.3148	249.023	80.0362	249.023	82.122	249.023	79.7606	249.023	81.9615	249.023	79.5832	249.023	81.8115	249.023	79.5195	249.023	81.6416	249.023	79.5607	249.023	81.4288	249.023	79.6818	249.023	81.1691	249.023	79.8559	249.023	80.8788	249.023	80.067	249.023	80.5849	249.023	80.3106
257.813	83.4112	257.813	83.2061	257.813	83.5683	257.813	82.9713	257.813	83.6605	257.813	82.7213	257.813	83.6763	257.813	82.4623	257.813	83.6112	257.813	82.1908	257.813	83.4688	257.813	81.8964	257.813	83.2616	257.813	81.5683	257.813	83.0111	257.813	81.203	257.813	82.747	257.813	80.8103	257.813	82.502	257.813	80.4163	257.813	82.3015	257.813	80.0617	257.813	82.1501	257.813	79.7924	257.813	82.0272	257.813	79.6443	257.813	81.8954	257.813	79.6296	257.813	81.719	257.813	79.7354	257.813	81.4797	257.813	79.9352	257.813	81.1824	257.813	80.2024	257.813	80.8507	257.813	80.5149
266.602	82.976	266.602	82.7142	266.602	83.1884	266.602	82.4278	266.602	83.331	266.602	82.1392	266.602	83.3907	266.602	81.8617	266.602	83.3636	266.602	81.5954	266.602	83.2542	266.602	81.3295	266.602	83.0756	266.602	81.0492	266.602	82.8483	266.602	80.7455	266.602	82.5989	266.602	80.4225	266.602	82.3553	266.602	80.1009	266.602	82.1382	266.602	79.8158	266.602	81.9514	266.602	79.607	266.602	81.7799	266.602	79.5048	266.602	81.5976	266.602	79.5167	266.602	81.3829	266.602	79.6265	266.602	81.1297	266.602	79.8062	266.602	80.8492	266.602	80.0307	266.602	80.5617	266.602	80.2853
278.32	83.0103	278.32	82.8495	278.32	83.1061	278.32	82.6354	278.32	83.1272	278.32	82.3783	278.32	83.07	278.32	82.0843	278.32	82.9398	278.32	81.7554	278.32	82.7537	278.32	81.3922	278.32	82.5411	278.32	80.9993	278.32	82.342	278.32	80.5912	278.32	82.1975	278.32	80.196	278.32	82.1337	278.32	79.8544	278.32	82.1437	278.32	79.6099	278.32	82.1844	278.32	79.4924	278.32	82.1933	278.32	79.5032	278.32	82.1143	278.32	79.6151	278.32	81.9186	278.32	79.7897	278.32	81.6146	278.32	79.9996	278.32	81.2444	278.32	80.2403	278.32	80.8657	278.32	80.5255
287.109	83.3279	287.109	83.1705	287.109	83.4183	287.109	82.9635	287.109	83.4241	287.109	82.719	287.109	83.3339	287.109	82.4386	287.109	83.1459	287.109	82.114	287.109	82.8716	287.109	81.7322	287.109	82.5393	287.109	81.2841	287.109	82.1973	287.109	80.7747	287.109	81.9105	287.109	80.2312	287.109	81.742	287.109	79.7085	287.109	81.7179	287.109	79.2829	287.109	81.8032	287.109	79.0277	287.109	81.9139	287.109	78.9786	287.109	81.9596	287.109	79.1146	287.109	81.8793	287.109	79.378	287.109	81.6571	287.109	79.7128	287.109	81.318	287.109	80.0875	287.109	80.9123	287.109	80.4914
295.898	83.3274	295.898	83.1368	295.898	83.456	295.898	82.9121	295.898	83.4954	295.898	82.673	295.898	83.4255	295.898	82.4227	295.898	83.2367	295.898	82.1469	295.898	82.9321	295.898	81.82	295.898	82.5324	295.898	81.4164	295.898	82.0831	295.898	80.9224	295.898	81.6604	295.898	80.3462	295.898	81.3593	295.898	79.7263	295.898	81.2487	295.898	79.1365	295.898	81.3159	295.898	78.6756	295.898	81.4629	295.898	78.4331	295.898	81.5648	295.898	78.4421	295.898	81.5297	295.898	78.6661	295.898	81.3222	295.898	79.0349	295.898	80.9596	295.898	79.4882	295.898	80.4938	295.898	79.9865
307.617	83.3882	307.617	83.1452	307.617	83.5745	307.617	82.883	307.617	83.6706	307.617	82.6331	307.617	83.6524	307.617	82.4102	307.617	83.5058	307.617	82.2069	307.617	83.2271	307.617	81.9991	307.617	82.8236	307.617	81.7586	307.617	82.321	307.617	81.4659	307.617	81.7739	307.617	81.1196	307.617	81.2734	307.617	80.7406	307.617	80.9295	307.617	80.3704	307.617	80.8115	307.617	80.0641	307.617	80.8897	307.617	79.8725	307.617	81.0524	307.617	79.8231	307.617	81.1801	307.617	79.9093	307.617	81.2003	307.617	80.0994	307.617	81.0966	307.617	80.3528	307.617	80.8928	307.617	80.6304
319.336	83.4861	319.336	83.1675	319.336	83.7242	319.336	82.8055	319.336	83.8535	319.336	82.4379	319.336	83.8566	319.336	82.0919	319.336	83.7263	319.336	81.7753	319.336	83.4633	319.336	81.4763	319.336	83.0762	319.336	81.1755	319.336	82.5848	319.336	80.8597	319.336	82.0277	319.336	80.5338	319.336	81.4701	319.336	80.2243	319.336	80.9994	319.336	79.9729	319.336	80.6921	319.336	79.8202	319.336	80.5661	319.336	79.7854	319.336	80.5664	319.336	79.8548	319.336	80.6077	319.336	79.9897	319.336	80.6258	319.336	80.1465	319.336	80.5966	319.336	80.295	319.336	80.5248	319.336	80.4223
331.055	83.3344	331.055	83.0121	331.055	83.5765	331.055	82.6484	331.055	83.7106	331.055	82.2843	331.055	83.7221	331.055	81.9485	331.055	83.6071	331.055	81.646	331.055	83.3703	331.055	81.3579	331.055	83.0239	331.055	81.0558	331.055	82.5906	331.055	80.7205	331.055	82.1095	331.055	80.356	331.055	81.6402	331.055	79.9946	331.055	81.2542	331.055	79.6909	331.055	81.0048	331.055	79.5018	331.055	80.892	331.055	79.4588	331.055	80.8616	331.055	79.5504	331.055	80.8424	331.055	79.7308	331.055	80.7862	331.055	79.9468	331.055	80.6796	331.055	80.1612	331.055	80.5325	331.055	80.3577
342.773	83.329	342.773	82.9297	342.773	83.6215	342.773	82.4671	342.773	83.7796	342.773	81.9953	342.773	83.7904	342.773	81.5638	342.773	83.6524	342.773	81.1993	342.773	83.3728	342.773	80.8961	342.773	82.9671	342.773	80.6268	342.773	82.463	342.773	80.3656	342.773	81.9083	342.773	80.1082	342.773	81.3768	342.773	79.8795	342.773	80.9583	342.773	79.7248	342.773	80.7197	342.773	79.6878	342.773	80.6617	342.773	79.7833	342.773	80.7193	342.773	79.9851	342.773	80.8114	342.773	80.2386	342.773	80.883	342.773	80.4857	342.773	80.9123	342.773	80.6856	342.773	80.8937	342.773	80.821
354.492	83.682	354.492	83.3056	354.492	83.9293	354.492	82.8311	354.492	84.0292	354.492	82.2991	354.492	83.9754	354.492	81.752	354.492	83.7705	354.492	81.2217	354.492	83.4242	354.492	80.7224	354.492	82.9532	354.492	80.2543	354.492	82.3852	354.492	79.8196	354.492	81.7667	354.492	79.4383	354.492	81.169	354.492	79.1536	354.492	80.6755	354.492	79.0168	354.492	80.3429	354.492	79.0558	354.492	80.1624	354.492	79.2481	354.492	80.0732	354.492	79.5246	354.492	80.0191	354.492	79.7997	354.492	79.9872	354.492	80.0032	354.492	79.9943	354.492	80.1003	354.492	80.0436	354.492	80.0986
366.211	83.9874	366.211	83.636	366.211	84.1924	366.211	83.1556	366.211	84.2413	366.211	82.5694	366.211	84.1329	366.211	81.9019	366.211	83.8727	366.211	81.1742	366.211	83.4722	366.211	80.4032	366.211	82.9489	366.211	79.6092	366.211	82.3322	366.211	78.8321	366.211	81.6737	366.211	78.1501	366.211	81.0562	366.211	77.6778	366.211	80.5773	366.211	77.5175	366.211	80.2929	366.211	77.6805	366.211	80.165	366.211	78.0644	366.211	80.0869	366.211	78.5163	366.211	79.9658	366.211	78.9093	366.211	79.7822	366.211	79.1761	366.211	79.5877	366.211	79.3139	366.211	79.4485	366.211	79.3768
377.93	83.9444	377.93	83.6742	377.93	84.1169	377.93	83.3367	377.93	84.1672	377.93	82.9574	377.93	84.0807	377.93	82.5444	377.93	83.8531	377.93	82.0823	377.93	83.4866	377.93	81.5379	377.93	82.99	377.93	80.8784	377.93	82.3829	377.93	80.0918	377.93	81.7111	377.93	79.212	377.93	81.0649	377.93	78.3449	377.93	80.5757	377.93	77.675	377.93	80.3489	377.93	77.3957	377.93	80.3695	377.93	77.5599	377.93	80.5031	377.93	78.0291	377.93	80.6009	377.93	78.6	377.93	80.5824	377.93	79.132	377.93	80.4423	377.93	79.5718	377.93	80.214	377.93	79.9249
392.578	83.5962	392.578	83.2616	392.578	83.8131	392.578	82.8456	392.578	83.892	392.578	82.3941	392.578	83.8259	392.578	81.948	392.578	83.6176	392.578	81.5215	392.578	83.2749	392.578	81.093	392.578	82.8083	392.578	80.619	392.578	82.2328	392.578	80.0627	392.578	81.5776	392.578	79.4238	392.578	80.9013	392.578	78.7621	392.578	80.2988	392.578	78.2074	392.578	79.8738	392.578	77.9232	392.578	79.6759	392.578	78.0021	392.578	79.666	392.578	78.3812	392.578	79.757	392.578	78.8923	392.578	79.8743	392.578	79.3753	392.578	79.9705	392.578	79.7353	392.578	80.007	392.578	79.9412
407.227	83.6701	407.227	83.2548	407.227	83.9348	407.227	82.7261	407.227	84.0265	407.227	82.1325	407.227	83.9384	407.227	81.5207	407.227	83.6747	407.227	80.9177	407.227	83.2467	407.227	80.3209	407.227	82.6689	407.227	79.7079	407.227	81.9622	407.227	79.0665	407.227	81.1679	407.227	78.4317	407.227	80.3685	407.227	77.9114	407.227	79.6903	407.227	77.6666	407.227	79.2496	407.227	77.8128	407.227	79.0699	407.227	78.3094	407.227	79.0857	407.227	78.9806	407.227	79.2336	407.227	79.6321	407.227	79.4938	407.227	80.1247	407.227	79.8368	407.227	80.3827	407.227	80.1742	407.227	80.3868
421.875	84.6032	421.875	84.2114	421.875	84.8279	421.875	83.6806	421.875	84.8779	421.875	83.0569	421.875	84.7617	421.875	82.3919	421.875	84.4976	421.875	81.719	421.875	84.106	421.875	81.0342	421.875	83.6054	421.875	80.2981	421.875	83.0126	421.875	79.4621	421.875	82.3495	421.875	78.5071	421.875	81.6471	421.875	77.4906	421.875	80.9349	421.875	76.5997	421.875	80.2135	421.875	76.1362	421.875	79.4398	421.875	76.2908	421.875	78.5747	421.875	76.9004	421.875	77.698	421.875	77.6021	421.875	77.0985	421.875	78.1048	421.875	77.0777	421.875	78.2566	421.875	77.5274	421.875	78.0265
436.523	85.1378	436.523	84.8637	436.523	85.2531	436.523	84.4556	436.523	85.1965	436.523	83.9455	436.523	84.9664	436.523	83.3629	436.523	84.5708	436.523	82.7186	436.523	84.025	436.523	81.9963	436.523	83.3541	436.523	81.1587	436.523	82.6052	436.523	80.1715	436.523	81.8697	436.523	79.0403	436.523	81.287	436.523	77.8678	436.523	80.9693	436.523	76.9184	436.523	80.8714	436.523	76.549	436.523	80.7843	436.523	76.8648	436.523	80.4839	436.523	77.5553	436.523	79.8728	436.523	78.2191	436.523	79.0641	436.523	78.6116	436.523	78.4015	436.523	78.6542	436.523	78.2177	436.523	78.429
451.172	86.1339	451.172	85.7876	451.172	86.3182	451.172	85.3187	451.172	86.3155	451.172	84.7748	451.172	86.114	451.172	84.1981	451.172	85.7115	451.172	83.606	451.172	85.108	451.172	82.9797	451.172	84.3043	451.172	82.2711	451.172	83.314	451.172	81.4227	451.172	82.2033	451.172	80.3911	451.172	81.15	451.172	79.1731	451.172	80.4203	451.172	77.8485	451.172	80.1234	451.172	76.6473	451.172	80.0125	451.172	75.9309	451.172	79.7063	451.172	75.883	451.172	78.9762	451.172	76.2363	451.172	77.8627	451.172	76.5554	451.172	76.7578	451.172	76.5829	451.172	76.2349	451.172	76.3487
465.82	85.8872	465.82	85.5295	465.82	86.1292	465.82	85.111	465.82	86.2102	465.82	84.6772	465.82	86.1039	465.82	84.2415	465.82	85.8017	465.82	83.7743	465.82	85.3062	465.82	83.2153	465.82	84.6225	465.82	82.5016	465.82	83.7561	465.82	81.594	465.82	82.7345	465.82	80.5031	465.82	81.6667	465.82	79.3246	465.82	80.8111	465.82	78.2783	465.82	80.467	465.82	77.662	465.82	80.6171	465.82	77.6152	465.82	80.8853	465.82	77.9495	465.82	80.9182	465.82	78.3501	465.82	80.588	465.82	78.6244	465.82	79.9857	465.82	78.7709	465.82	79.3608	465.82	78.9526
483.398	85.7092	483.398	85.2454	483.398	85.9935	483.398	84.6626	483.398	86.0807	483.398	84.0603	483.398	85.9836	483.398	83.54	483.398	85.7299	483.398	83.1386	483.398	85.3438	483.398	82.7933	483.398	84.8319	483.398	82.3827	483.398	84.184	483.398	81.7932	483.398	83.3943	483.398	80.9582	483.398	82.5028	483.398	79.8751	483.398	81.6378	483.398	78.642	483.398	80.9842	483.398	77.5276	483.398	80.6167	483.398	76.9482	483.398	80.3905	483.398	77.1067	483.398	80.0985	483.398	77.7099	483.398	79.6811	483.398	78.3232	483.398	79.2645	483.398	78.716	483.398	79.0077	483.398	78.889
500.977	85.6798	500.977	85.1667	500.977	86.0406	500.977	84.5836	500.977	86.2043	500.977	84.0327	500.977	86.1594	500.977	83.5824	500.977	85.916	500.977	83.2129	500.977	85.4907	500.977	82.8195	500.977	84.8924	500.977	82.2732	500.977	84.1172	500.977	81.4742	500.977	83.1675	500.977	80.3753	500.977	82.1115	500.977	79.0095	500.977	81.1692	500.977	77.5665	500.977	80.67	500.977	76.4931	500.977	80.7053	500.977	76.2843	500.977	80.9558	500.977	76.8747	500.977	81.0537	500.977	77.7394	500.977	80.8558	500.977	78.5021	500.977	80.4302	500.977	79.0651	500.977	79.9431	500.977	79.5027
518.555	85.8222	518.555	85.1503	518.555	86.216	518.555	84.2607	518.555	86.3407	518.555	83.3277	518.555	86.242	518.555	82.6282	518.555	85.982	518.555	82.3527	518.555	85.6193	518.555	82.3954	518.555	85.1894	518.555	82.4703	518.555	84.6939	518.555	82.3496	518.555	84.1045	518.555	81.928	518.555	83.3777	518.555	81.1883	518.555	82.4743	518.555	80.1791	518.555	81.3868	518.555	79.0405	518.555	80.1968	518.555	78.0682	518.555	79.1702	518.555	77.6744	518.555	78.726	518.555	78.0275	518.555	78.9954	518.555	78.8087	518.555	79.573	518.555	79.5601	518.555	79.9832	518.555	79.9902
536.133	86.6057	536.133	86.144	536.133	86.7322	536.133	85.3324	536.133	86.5511	536.133	84.2123	536.133	86.0854	536.133	82.9605	536.133	85.3498	536.133	81.9514	536.133	84.3649	536.133	81.5595	536.133	83.2	536.133	81.7278	536.133	82.0625	536.133	82.0457	536.133	81.3676	536.133	82.1753	536.133	81.4546	536.133	81.9693	536.133	82.0645	536.133	81.4173	536.133	82.5722	536.133	80.631	536.133	82.5137	536.133	79.882	536.133	81.6933	536.133	79.5562	536.133	80.2642	536.133	79.8305	536.133	79.0947	536.133	80.4235	536.133	79.2711	536.133	80.8741	536.133	80.2095	536.133	80.8446
553.711	86.5437	553.711	86.1912	553.711	86.6661	553.711	85.5902	553.711	86.5731	553.711	84.7329	553.711	86.2688	553.711	83.6514	553.711	85.7423	553.711	82.4674	553.711	84.9681	553.711	81.4258	553.711	83.9085	553.711	80.7883	553.711	82.5267	553.711	80.5802	553.711	80.8549	553.711	80.5574	553.711	79.2413	553.711	80.4603	553.711	78.5851	553.711	80.1768	553.711	79.2124	553.711	79.7537	553.711	80.0687	553.711	79.3646	553.711	80.2758	553.711	79.2131	553.711	79.5971	553.711	79.3392	553.711	78.3267	553.711	79.5263	553.711	77.5036	553.711	79.4501	553.711	77.9582	553.711	78.887
574.219	86.9019	574.219	86.513	574.219	86.9939	574.219	85.8436	574.219	86.8016	574.219	84.9682	574.219	86.3474	574.219	84.0382	574.219	85.6566	574.219	83.2438	574.219	84.7591	574.219	82.6875	574.219	83.6929	574.219	82.2898	574.219	82.5068	574.219	81.8653	574.219	81.2804	574.219	81.257	574.219	80.1864	574.219	80.402	574.219	79.4986	574.219	79.3691	574.219	79.3116	574.219	78.4266	574.219	79.266	574.219	78.0154	574.219	78.8424	574.219	78.3323	574.219	77.7732	574.219	79.0074	574.219	76.4145	574.219	79.5063	574.219	76.1155	574.219	79.4728	574.219	77.3473	574.219	78.7293
594.727	86.724	594.727	86.4814	594.727	86.6843	594.727	85.93	594.727	86.3878	594.727	85.0531	594.727	85.8622	594.727	83.8815	594.727	85.1384	594.727	82.5664	594.727	84.2455	594.727	81.4343	594.727	83.2094	594.727	80.8202	594.727	82.0732	594.727	80.6902	594.727	80.9562	594.727	80.6765	594.727	80.1118	594.727	80.4613	594.727	79.8151	594.727	79.9242	594.727	80.0294	594.727	79.131	594.727	80.3737	594.727	78.3383	594.727	80.4725	594.727	77.915	594.727	80.1464	594.727	77.9905	594.727	79.4377	594.727	78.2648	594.727	78.6492	594.727	78.377	594.727	78.227	594.727	78.2629
615.234	87.0006	615.234	86.8334	615.234	86.8295	615.234	86.2927	615.234	86.3773	615.234	85.3711	615.234	85.7153	615.234	84.1145	615.234	84.9042	615.234	82.6873	615.234	83.96	615.234	81.4363	615.234	82.8456	615.234	80.741	615.234	81.517	615.234	80.6031	615.234	80.0381	615.234	80.6458	615.234	78.7955	615.234	80.5267	615.234	78.5132	615.234	80.1109	615.234	79.2977	615.234	79.4659	615.234	80.3012	615.234	78.8703	615.234	80.8188	615.234	78.6954	615.234	80.6045	615.234	78.9906	615.234	79.7621	615.234	79.3627	615.234	78.8331	615.234	79.4067	615.234	78.5959	615.234	79.0253
638.672	87.5298	638.672	87.219	638.672	87.5782	638.672	86.6193	638.672	87.3715	638.672	85.6775	638.672	86.9136	638.672	84.3369	638.672	86.2085	638.672	82.6166	638.672	85.2469	638.672	80.8075	638.672	83.9935	638.672	79.6562	638.672	82.3992	638.672	79.6612	638.672	80.4803	638.672	80.1974	638.672	78.6041	638.672	80.4843	638.672	77.8463	638.672	80.2125	638.672	78.6328	638.672	79.4129	638.672	79.6978	638.672	78.4632	638.672	80.1289	638.672	78.1154	638.672	79.8561	638.672	78.7279	638.672	79.3898	638.672	79.6918	638.672	79.4445	638.672	80.3471	638.672	80.003	638.672	80.4354
659.18	87.4544	659.18	87.2846	659.18	87.2949	659.18	86.7626	659.18	86.8623	659.18	85.9066	659.18	86.2179	659.18	84.762	659.18	85.4017	659.18	83.3843	659.18	84.4328	659.18	81.8591	659.18	83.331	659.18	80.3891	659.18	82.1343	659.18	79.3437	659.18	80.8959	659.18	78.9582	659.18	79.6723	659.18	78.9578	659.18	78.559	659.18	78.8676	659.18	77.8397	659.18	78.4565	659.18	77.9042	659.18	77.8661	659.18	78.5408	659.18	77.5847	659.18	78.9999	659.18	77.9733	659.18	78.9086	659.18	78.69	659.18	78.5932	659.18	79.1366	659.18	78.6696	659.18	79.0499
682.617	87.6991	682.617	87.5005	682.617	87.5634	682.617	86.9827	682.617	87.1093	682.617	86.1689	682.617	86.3934	682.617	85.068	682.617	85.4968	682.617	83.6781	682.617	84.482	682.617	82.0508	682.617	83.3633	682.617	80.4405	682.617	82.1456	682.617	79.3622	682.617	80.8985	682.617	79.0713	682.617	79.7751	682.617	79.1162	682.617	78.9635	682.617	78.9516	682.617	78.6703	682.617	78.4184	682.617	78.9838	682.617	77.8157	682.617	79.5294	682.617	77.8226	682.617	79.6953	682.617	78.7071	682.617	79.3028	682.617	79.8201	682.617	79.0051	682.617	80.4522	682.617	79.5373	682.617	80.2986
706.055	87.8177	706.055	87.5993	706.055	87.6877	706.055	87.0221	706.055	87.2704	706.055	86.1271	706.055	86.6466	706.055	84.9934	706.055	85.8621	706.055	83.7157	706.055	84.9038	706.055	82.3819	706.055	83.738	706.055	81.0867	706.055	82.372	706.055	79.9908	706.055	80.8986	706.055	79.2961	706.055	79.5142	706.055	79.0193	706.055	78.4817	706.055	78.8875	706.055	78.07	706.055	78.5904	706.055	78.3887	706.055	78.0757	706.055	79.0322	706.055	77.7634	706.055	79.3006	706.055	78.2587	706.055	78.9222	706.055	79.287	706.055	78.5315	706.055	79.9682	706.055	79.0234	706.055	79.8215
732.422	87.2685	732.422	87.2514	732.422	86.9838	732.422	86.8845	732.422	86.4753	732.422	86.1676	732.422	85.8253	732.422	85.1634	732.422	85.0818	732.422	83.991	732.422	84.2288	732.422	82.7776	732.422	83.1888	732.422	81.6128	732.422	81.8584	732.422	80.5936	732.422	80.1745	732.422	79.8721	732.422	78.2958	732.422	79.4976	732.422	76.9913	732.422	79.2283	732.422	77.1848	732.422	78.6937	732.422	78.1632	732.422	77.738	732.422	78.7021	732.422	76.8263	732.422	78.4222	732.422	77.0407	732.422	77.7579	732.422	78.2789	732.422	77.7919	732.422	79.2906	732.422	78.7075	732.422	79.429
758.789	87.3979	758.789	87.4994	758.789	87.0248	758.789	87.2248	758.789	86.5129	758.789	86.5258	758.789	85.9732	758.789	85.4311	758.789	85.4315	758.789	84.0581	758.789	84.815	758.789	82.5871	758.789	84.0069	758.789	81.2101	758.789	82.9214	758.789	80.144	758.789	81.5459	758.789	79.6157	758.789	79.913	758.789	79.5882	758.789	78.0663	758.789	79.6535	758.789	76.5428	758.789	79.4001	758.789	77.0689	758.789	78.7357	758.789	79.0938	758.789	78.113	758.789	80.3087	758.789	78.3503	758.789	80.0438	758.789	79.3216	758.789	78.9744	758.789	79.9952	758.789	78.8956	758.789	79.7474
785.156	87.0047	785.156	87.1746	785.156	86.6853	785.156	87.0549	785.156	86.3176	785.156	86.5356	785.156	85.9214	785.156	85.5973	785.156	85.4606	785.156	84.3583	785.156	84.8805	785.156	83.0496	785.156	84.1012	785.156	81.8419	785.156	83.0245	785.156	80.7139	785.156	81.611	785.156	79.6513	785.156	79.9614	785.156	78.8766	785.156	78.241	785.156	78.5856	785.156	76.5122	785.156	78.503	785.156	75.3345	785.156	78.1537	785.156	76.0397	785.156	77.4409	785.156	77.3669	785.156	77.044	785.156	77.5337	785.156	77.685	785.156	76.925	785.156	78.5042	785.156	77.353	785.156	78.3873
811.523	87.0735	811.523	87.3365	811.523	86.5879	811.523	87.2174	811.523	85.9961	811.523	86.5782	811.523	85.3583	811.523	85.3774	811.523	84.7151	811.523	83.7548	811.523	84.0907	811.523	82.1032	811.523	83.4471	811.523	80.8869	811.523	82.6722	811.523	80.1885	811.523	81.6518	811.523	79.7771	811.523	80.3881	811.523	79.5269	811.523	79.0726	811.523	79.3947	811.523	77.8777	811.523	79.2297	811.523	76.5472	811.523	78.8563	811.523	74.9634	811.523	78.3526	811.523	74.6319	811.523	78.1532	811.523	75.9884	811.523	78.473	811.523	77.1992	811.523	78.8073	811.523	78.016	811.523	78.6397
840.82	87.1159	840.82	87.4539	840.82	86.6144	840.82	87.4858	840.82	86.0378	840.82	87.049	840.82	85.4317	840.82	86.0225	840.82	84.8221	840.82	84.413	840.82	84.2087	840.82	82.4887	840.82	83.5655	840.82	80.851	840.82	82.8665	840.82	79.9791	840.82	82.0701	840.82	79.6686	840.82	81.0322	840.82	79.5021	840.82	79.4471	840.82	79.2882	840.82	77.1007	840.82	78.9476	840.82	75.354	840.82	78.4482	840.82	76.3597	840.82	77.9797	840.82	77.3243	840.82	78.0168	840.82	76.6512	840.82	78.6594	840.82	75.8539	840.82	79.1822	840.82	77.2222	840.82	78.786
870.117	87.2123	870.117	87.424	870.117	86.6775	870.117	87.3012	870.117	85.9134	870.117	86.8302	870.117	85.0813	870.117	85.9143	870.117	84.2978	870.117	84.3879	870.117	83.5539	870.117	82.1139	870.117	82.7439	870.117	79.2657	870.117	81.8	870.117	77.1531	870.117	80.9209	870.117	77.3364	870.117	80.5696	870.117	78.3943	870.117	80.6927	870.117	78.9713	870.117	80.4538	870.117	78.9157	870.117	79.114	870.117	78.537	870.117	76.9197	870.117	78.4272	870.117	75.9798	870.117	78.9848	870.117	76.1781	870.117	79.7369	870.117	75.9063	870.117	79.835	870.117	76.793	870.117	78.7503
902.344	87.5353	902.344	87.8469	902.344	86.9006	902.344	87.7779	902.344	86.074	902.344	87.2663	902.344	85.2721	902.344	86.232	902.344	84.6637	902.344	84.6685	902.344	84.2051	902.344	82.75	902.344	83.6536	902.344	80.7823	902.344	82.7259	902.344	78.9056	902.344	81.2547	902.344	77.1239	902.344	79.4066	902.344	76.1311	902.344	77.9958	902.344	76.7999	902.344	77.7498	902.344	78.0194	902.344	78.0527	902.344	78.4658	902.344	78.4092	902.344	77.8815	902.344	78.6932	902.344	77.2596	902.344	78.2691	902.344	78.0509	902.344	77.4099	902.344	79.1841	902.344	78.0099	902.344	79.1882
931.641	87.8666	931.641	88.0205	931.641	87.2659	931.641	87.683	931.641	86.4013	931.641	86.9191	931.641	85.4941	931.641	85.7803	931.641	84.6552	931.641	84.2274	931.641	83.8441	931.641	82.2246	931.641	82.9588	931.641	79.9419	931.641	81.9398	931.641	77.8744	931.641	80.8596	931.641	76.5711	931.641	79.9779	931.641	76.2368	931.641	79.4456	931.641	76.7427	931.641	78.8437	931.641	77.5844	931.641	77.7518	931.641	78.1856	931.641	77.031	931.641	78.4402	931.641	77.4523	931.641	78.766	931.641	77.3036	931.641	79.3491	931.641	76.2061	931.641	79.5483	931.641	76.7431	931.641	78.6276
966.797	88.4602	966.797	88.619	966.797	87.8427	966.797	88.2488	966.797	87.0212	966.797	87.3838	966.797	86.2956	966.797	86.0354	966.797	85.6939	966.797	84.1377	966.797	84.9976	966.797	81.6721	966.797	84.0077	966.797	79.1167	966.797	82.609	966.797	77.7541	966.797	80.8114	966.797	77.6007	966.797	78.9581	966.797	77.2112	966.797	77.6688	966.797	76.332	966.797	77.1215	966.797	76.1048	966.797	77.3859	966.797	76.776	966.797	78.4228	966.797	77.2831	966.797	78.8204	966.797	77.6342	966.797	77.7251	966.797	78.5578	966.797	77.0291	966.797	79.6744	966.797	78.6446	966.797	79.8769
999.023	88.4219	999.023	88.3947	999.023	88.0287	999.023	87.9144	999.023	87.3686	999.023	87.1316	999.023	86.5563	999.023	86.1629	999.023	85.673	999.023	84.8411	999.023	84.7801	999.023	82.8427	999.023	83.8146	999.023	80.0684	999.023	82.5746	999.023	77.1457	999.023	80.8144	999.023	75.3863	999.023	78.6443	999.023	74.8452	999.023	77.5228	999.023	75.0372	999.023	77.8984	999.023	75.9055	999.023	77.1153	999.023	76.7811	999.023	74.5929	999.023	77.0502	999.023	74.8808	999.023	77.1512	999.023	75.1708	999.023	78.3164	999.023	73.2038	999.023	79.6881	999.023	76.4741	999.023	79.433
1,034.18	88.2828	1,034.18	88.5933	1,034.18	87.6259	1,034.18	88.2917	1,034.18	86.9473	1,034.18	87.3887	1,034.18	86.357	1,034.18	86.142	1,034.18	85.8211	1,034.18	84.7542	1,034.18	85.2726	1,034.18	83.0412	1,034.18	84.5131	1,034.18	80.5767	1,034.18	83.2867	1,034.18	77.0469	1,034.18	81.5578	1,034.18	72.694	1,034.18	79.8655	1,034.18	70.0337	1,034.18	78.9479	1,034.18	71.7911	1,034.18	78.303	1,034.18	74.7079	1,034.18	77.7215	1,034.18	76.7839	1,034.18	78.4422	1,034.18	77.6474	1,034.18	78.961	1,034.18	77.8014	1,034.18	77.3479	1,034.18	78.1874	1,034.18	74.2279	1,034.18	78.405	1,034.18	74.5723	1,034.18	77.2326
1,072.27	88.224	1,072.27	88.4519	1,072.27	87.6344	1,072.27	88.1164	1,072.27	86.9374	1,072.27	87.2318	1,072.27	86.3087	1,072.27	86.0829	1,072.27	85.7497	1,072.27	84.8821	1,072.27	85.0987	1,072.27	83.3613	1,072.27	84.1821	1,072.27	81.1654	1,072.27	82.8092	1,072.27	78.6475	1,072.27	80.7046	1,072.27	77.1305	1,072.27	78.0308	1,072.27	76.5324	1,072.27	76.865	1,072.27	75.2931	1,072.27	77.7826	1,072.27	73.8841	1,072.27	77.7447	1,072.27	75.2045	1,072.27	76.4358	1,072.27	77.121	1,072.27	76.7677	1,072.27	77.8478	1,072.27	76.8612	1,072.27	78.166	1,072.27	73.9928	1,072.27	78.3986	1,072.27	73.5538	1,072.27	77.1703
1,110.35	87.9419	1,110.35	88.3052	1,110.35	87.2723	1,110.35	88.0679	1,110.35	86.5346	1,110.35	87.0526	1,110.35	85.8719	1,110.35	85.4387	1,110.35	85.283	1,110.35	83.8177	1,110.35	84.6938	1,110.35	82.5682	1,110.35	84.0588	1,110.35	81.3685	1,110.35	83.1628	1,110.35	79.9463	1,110.35	81.5399	1,110.35	78.6198	1,110.35	78.9255	1,110.35	77.6018	1,110.35	76.4698	1,110.35	76.2511	1,110.35	76.0804	1,110.35	74.5009	1,110.35	76.2215	1,110.35	73.911	1,110.35	77.7801	1,110.35	74.4073	1,110.35	79.6481	1,110.35	74.8002	1,110.35	78.5783	1,110.35	75.3666	1,110.35	74.5331	1,110.35	75.8918	1,110.35	73.4883	1,110.35	75.3372
1,148.44	87.7192	1,148.44	88.0199	1,148.44	87.0861	1,148.44	87.7482	1,148.44	86.4212	1,148.44	86.8105	1,148.44	85.8335	1,148.44	85.3127	1,148.44	85.1784	1,148.44	83.5882	1,148.44	84.323	1,148.44	81.8782	1,148.44	83.3475	1,148.44	80.0755	1,148.44	82.3467	1,148.44	78.4378	1,148.44	80.9283	1,148.44	77.879	1,148.44	78.1911	1,148.44	77.896	1,148.44	74.3515	1,148.44	77.2669	1,148.44	76.3115	1,148.44	75.703	1,148.44	78.3733	1,148.44	73.7289	1,148.44	76.7128	1,148.44	72.729	1,148.44	77.1152	1,148.44	73.9173	1,148.44	79.0867	1,148.44	76.142	1,148.44	76.9144	1,148.44	77.211	1,148.44	73.0277	1,148.44	75.8074
1,189.45	87.836	1,189.45	88.009	1,189.45	87.2485	1,189.45	87.5229	1,189.45	86.602	1,189.45	86.3678	1,189.45	85.9533	1,189.45	84.6756	1,189.45	85.0812	1,189.45	82.6719	1,189.45	83.8291	1,189.45	80.6256	1,189.45	82.4205	1,189.45	78.7824	1,189.45	81.5129	1,189.45	77.285	1,189.45	80.9017	1,189.45	76.2864	1,189.45	79.2143	1,189.45	76.0812	1,189.45	75.2215	1,189.45	76.2877	1,189.45	72.4769	1,189.45	76.0287	1,189.45	74.3161	1,189.45	74.9985	1,189.45	73.6909	1,189.45	73.7862	1,189.45	76.3604	1,189.45	73.578	1,189.45	77.3436	1,189.45	74.3202	1,189.45	75.2308	1,189.45	74.3761	1,189.45	73.3827	1,189.45	73.3593
1,230.47	87.769	1,230.47	87.9385	1,230.47	87.1254	1,230.47	87.4063	1,230.47	86.4566	1,230.47	86.2399	1,230.47	85.9252	1,230.47	84.644	1,230.47	85.1723	1,230.47	82.7864	1,230.47	83.9505	1,230.47	80.6987	1,230.47	82.4912	1,230.47	78.2243	1,230.47	81.2693	1,230.47	75.1809	1,230.47	80.4317	1,230.47	72.7578	1,230.47	79.1788	1,230.47	73.2875	1,230.47	76.2845	1,230.47	74.882	1,230.47	72.7634	1,230.47	75.9741	1,230.47	75.3777	1,230.47	76.3704	1,230.47	76.4685	1,230.47	75.7248	1,230.47	75.9143	1,230.47	73.83	1,230.47	76.4614	1,230.47	72.9509	1,230.47	75.657	1,230.47	73.9532	1,230.47	73.9232	1,230.47	73.7985
1,274.41	87.5545	1,274.41	87.7684	1,274.41	86.8243	1,274.41	87.1708	1,274.41	86.0539	1,274.41	85.863	1,274.41	85.3237	1,274.41	84.2036	1,274.41	84.4991	1,274.41	82.5366	1,274.41	83.4969	1,274.41	80.6406	1,274.41	82.1287	1,274.41	77.7918	1,274.41	80.5868	1,274.41	74.2953	1,274.41	79.6049	1,274.41	72.3971	1,274.41	78.9691	1,274.41	71.0926	1,274.41	77.1664	1,274.41	69.0977	1,274.41	73.8596	1,274.41	71.4348	1,274.41	74.9657	1,274.41	74.9981	1,274.41	75.4977	1,274.41	75.8562	1,274.41	73.6009	1,274.41	73.8794	1,274.41	75.3964	1,274.41	71.7533	1,274.41	75.0655	1,274.41	72.93	1,274.41	73.7703	1,274.41	73.7824
1,318.36	86.8357	1,318.36	87.1563	1,318.36	86.3513	1,318.36	86.8368	1,318.36	85.8219	1,318.36	85.6326	1,318.36	85.0661	1,318.36	83.6071	1,318.36	84.1999	1,318.36	81.2707	1,318.36	83.0765	1,318.36	79.1929	1,318.36	81.4923	1,318.36	76.3005	1,318.36	79.7774	1,318.36	71.501	1,318.36	78.4131	1,318.36	69.818	1,318.36	77.3059	1,318.36	71.295	1,318.36	76.1568	1,318.36	70.9837	1,318.36	74.7389	1,318.36	70.6554	1,318.36	72.9219	1,318.36	73.63	1,318.36	74.5536	1,318.36	75.1961	1,318.36	76.4108	1,318.36	74.2296	1,318.36	75.3601	1,318.36	72.0052	1,318.36	73.9405	1,318.36	72.3294	1,318.36	72.7212	1,318.36	72.7267
1,365.23	86.2399	1,365.23	86.6705	1,365.23	85.6787	1,365.23	86.6144	1,365.23	85.1198	1,365.23	85.748	1,365.23	84.6047	1,365.23	83.8362	1,365.23	83.9531	1,365.23	80.9238	1,365.23	82.9991	1,365.23	78.394	1,365.23	81.677	1,365.23	76.3304	1,365.23	79.9638	1,365.23	71.5878	1,365.23	78.7805	1,365.23	53.0817	1,365.23	78.521	1,365.23	68.6666	1,365.23	77.2503	1,365.23	71.7883	1,365.23	72.7652	1,365.23	69.915	1,365.23	70.523	1,365.23	71.075	1,365.23	74.3429	1,365.23	74.6709	1,365.23	74.397	1,365.23	75.0622	1,365.23	73.1798	1,365.23	71.7728	1,365.23	74.2718	1,365.23	70.21	1,365.23	72.5974	1,365.23	70.7967
1,415.04	86.0808	1,415.04	86.1871	1,415.04	85.4812	1,415.04	85.812	1,415.04	84.5074	1,415.04	84.9171	1,415.04	83.6593	1,415.04	83.4139	1,415.04	83.1766	1,415.04	80.9885	1,415.04	82.6127	1,415.04	78.0298	1,415.04	81.4566	1,415.04	76.2254	1,415.04	79.5384	1,415.04	74.5984	1,415.04	77.9135	1,415.04	71.2901	1,415.04	77.8796	1,415.04	66.5792	1,415.04	77.0792	1,415.04	66.0955	1,415.04	74.0538	1,415.04	63.9893	1,415.04	73.3277	1,415.04	65.9824	1,415.04	71.6804	1,415.04	72.3946	1,415.04	71.7056	1,415.04	73.6718	1,415.04	73.2012	1,415.04	71.5933	1,415.04	70.9838	1,415.04	69.2444	1,415.04	72.4114	1,415.04	70.8028
1,464.84	86.2267	1,464.84	85.9117	1,464.84	85.644	1,464.84	85.0106	1,464.84	84.2316	1,464.84	84.0164	1,464.84	82.7017	1,464.84	82.8382	1,464.84	82.1643	1,464.84	80.4556	1,464.84	82.1283	1,464.84	76.7066	1,464.84	81.6807	1,464.84	74.9064	1,464.84	80.3496	1,464.84	75.1254	1,464.84	77.9048	1,464.84	73.4826	1,464.84	76.1324	1,464.84	70.0416	1,464.84	76.4912	1,464.84	70.5835	1,464.84	76.0822	1,464.84	69.9447	1,464.84	72.9883	1,464.84	66.2298	1,464.84	68.3181	1,464.84	69.9722	1,464.84	72.7247	1,464.84	73.1083	1,464.84	72.5352	1,464.84	72.7811	1,464.84	70.3328	1,464.84	70.1066	1,464.84	71.8124	1,464.84	69.6419
1,514.65	86.4173	1,514.65	86.1058	1,514.65	85.7541	1,514.65	84.832	1,514.65	84.2463	1,514.65	83.0372	1,514.65	82.7366	1,514.65	81.6202	1,514.65	82.0742	1,514.65	79.6584	1,514.65	81.8184	1,514.65	75.4899	1,514.65	81.4781	1,514.65	72.5171	1,514.65	80.433	1,514.65	74.7202	1,514.65	78.5072	1,514.65	74.3632	1,514.65	76.49	1,514.65	71.7838	1,514.65	75.5022	1,514.65	72.7711	1,514.65	76.0105	1,514.65	73.3496	1,514.65	74.3056	1,514.65	70.0544	1,514.65	71.5122	1,514.65	65.4127	1,514.65	71.0532	1,514.65	67.6527	1,514.65	68.6531	1,514.65	69.8052	1,514.65	68.4456	1,514.65	69.6739	1,514.65	69.2153	1,514.65	69.4559
1,570.31	86.633	1,570.31	86.3479	1,570.31	85.584	1,570.31	84.9737	1,570.31	83.9275	1,570.31	83.0341	1,570.31	82.5715	1,570.31	80.2724	1,570.31	82.1378	1,570.31	77.5922	1,570.31	82.1085	1,570.31	75.6995	1,570.31	81.6054	1,570.31	72.2055	1,570.31	80.4171	1,570.31	68.7718	1,570.31	78.5552	1,570.31	71.6133	1,570.31	77.0499	1,570.31	70.4095	1,570.31	76.5174	1,570.31	70.3876	1,570.31	76.1073	1,570.31	72.2917	1,570.31	75.4377	1,570.31	71.0549	1,570.31	73.7422	1,570.31	67.5103	1,570.31	71.1929	1,570.31	65.7647	1,570.31	67.9006	1,570.31	67.0506	1,570.31	71.2582	1,570.31	69.5385	1,570.31	72.3807	1,570.31	71.7011
1,623.05	85.7226	1,623.05	86.1416	1,623.05	84.73	1,623.05	85.4033	1,623.05	83.1001	1,623.05	83.1752	1,623.05	81.6492	1,623.05	79.3272	1,623.05	81.9123	1,623.05	74.4404	1,623.05	82.1066	1,623.05	74.5795	1,623.05	81.5324	1,623.05	75.3436	1,623.05	80.3568	1,623.05	70.0571	1,623.05	79.2809	1,623.05	67.0883	1,623.05	78.9587	1,623.05	70.1662	1,623.05	78.0099	1,623.05	63.8271	1,623.05	75.8798	1,623.05	61.2915	1,623.05	76.8034	1,623.05	68.229	1,623.05	74.369	1,623.05	67.9346	1,623.05	69.6787	1,623.05	63.6626	1,623.05	69.3445	1,623.05	63.9809	1,623.05	63.4338	1,623.05	69.2554	1,623.05	70.9679	1,623.05	71.2712
1,681.64	85.6364	1,681.64	85.4486	1,681.64	84.56	1,681.64	84.477	1,681.64	82.192	1,681.64	81.9539	1,681.64	81.7356	1,681.64	78.4056	1,681.64	83.1619	1,681.64	75.8054	1,681.64	83.7976	1,681.64	74.2976	1,681.64	82.8211	1,681.64	74.7595	1,681.64	80.6387	1,681.64	72.4011	1,681.64	78.413	1,681.64	60.34	1,681.64	77.7595	1,681.64	65.8717	1,681.64	77.4093	1,681.64	67.8918	1,681.64	74.9707	1,681.64	65.0201	1,681.64	76.9116	1,681.64	61.3299	1,681.64	77.2676	1,681.64	64.4459	1,681.64	73.0699	1,681.64	67.0077	1,681.64	73.0851	1,681.64	64.8084	1,681.64	62.0984	1,681.64	64.9137	1,681.64	69.4127	1,681.64	69.6793
1,740.23	86.6503	1,740.23	85.7786	1,740.23	85.0502	1,740.23	83.4557	1,740.23	81.8344	1,740.23	81.5045	1,740.23	81.6106	1,740.23	79.7712	1,740.23	83.5276	1,740.23	75.799	1,740.23	84.1398	1,740.23	72.9556	1,740.23	83.0563	1,740.23	75.8657	1,740.23	80.7392	1,740.23	73.5182	1,740.23	78.1421	1,740.23	67.9361	1,740.23	77.2554	1,740.23	66.8438	1,740.23	77.1573	1,740.23	68.75	1,740.23	74.7599	1,740.23	66.1251	1,740.23	73.9787	1,740.23	64.5949	1,740.23	76.3758	1,740.23	68.4827	1,740.23	74.6484	1,740.23	69.7111	1,740.23	71.7872	1,740.23	70.1302	1,740.23	67.9164	1,740.23	70.4194	1,740.23	68.224	1,740.23	71.7892
1,801.76	87.0938	1,801.76	86.4951	1,801.76	84.9706	1,801.76	83.3093	1,801.76	81.9442	1,801.76	79.6088	1,801.76	82.0968	1,801.76	78.405	1,801.76	83.6511	1,801.76	77.7033	1,801.76	84.0033	1,801.76	72.4693	1,801.76	82.8436	1,801.76	69.1851	1,801.76	80.7931	1,801.76	73.5814	1,801.76	78.8463	1,801.76	73.3541	1,801.76	78.3924	1,801.76	70.4484	1,801.76	77.7955	1,801.76	73.8892	1,801.76	74.3566	1,801.76	73.7906	1,801.76	73.6242	1,801.76	69.2174	1,801.76	74.3434	1,801.76	71.0269	1,801.76	74.792	1,801.76	72.239	1,801.76	74.0088	1,801.76	69.4624	1,801.76	69.3439	1,801.76	67.3575	1,801.76	68.9539	1,801.76	70.8275
1,866.21	87.3307	1,866.21	86.9129	1,866.21	85.4206	1,866.21	84.2326	1,866.21	82.0379	1,866.21	80.2154	1,866.21	82.6333	1,866.21	77.1252	1,866.21	84.9259	1,866.21	75.599	1,866.21	84.9557	1,866.21	75.438	1,866.21	83.3713	1,866.21	73.4594	1,866.21	81.0029	1,866.21	73.011	1,866.21	78.1392	1,866.21	76.0739	1,866.21	77.1905	1,866.21	75.9894	1,866.21	78.7895	1,866.21	76.0517	1,866.21	76.7164	1,866.21	74.8911	1,866.21	74.6217	1,866.21	65.9263	1,866.21	78.2467	1,866.21	68.4891	1,866.21	74.8534	1,866.21	70.9272	1,866.21	72.7852	1,866.21	66.3716	1,866.21	66.2168	1,866.21	64.5947	1,866.21	71.6741	1,866.21	71.3844
1,930.66	85.8065	1,930.66	85.8391	1,930.66	84.0656	1,930.66	84.4813	1,930.66	80.3483	1,930.66	80.6291	1,930.66	82.8756	1,930.66	78.0003	1,930.66	85.2657	1,930.66	77.615	1,930.66	85.3274	1,930.66	76.5943	1,930.66	84.0901	1,930.66	77.5701	1,930.66	81.9477	1,930.66	77.4259	1,930.66	78.2118	1,930.66	75.1129	1,930.66	74.3614	1,930.66	72.354	1,930.66	76.9653	1,930.66	72.6054	1,930.66	76.5728	1,930.66	73.9144	1,930.66	72.2459	1,930.66	72.8277	1,930.66	77.4567	1,930.66	69.3199	1,930.66	75.7697	1,930.66	48.4971	1,930.66	71.8414	1,930.66	63.0205	1,930.66	67.6235	1,930.66	61.7863	1,930.66	68.7801	1,930.66	71.8537
2,000.98	86.3979	2,000.98	86.2799	2,000.98	83.6097	2,000.98	84.269	2,000.98	78.7181	2,000.98	79.6286	2,000.98	81.9902	2,000.98	76.1046	2,000.98	84.6928	2,000.98	77.6097	2,000.98	85.3111	2,000.98	77.6073	2,000.98	84.3255	2,000.98	77.9153	2,000.98	82.0012	2,000.98	77.7154	2,000.98	78.144	2,000.98	75.3063	2,000.98	74.7973	2,000.98	71.5346	2,000.98	75.2892	2,000.98	70.8148	2,000.98	74.5704	2,000.98	72.1503	2,000.98	71.5547	2,000.98	73.037	2,000.98	73.2336	2,000.98	72.0322	2,000.98	74.6508	2,000.98	64.6081	2,000.98	72.9593	2,000.98	62.6872	2,000.98	67.302	2,000.98	65.2877	2,000.98	72.023	2,000.98	71.6949
2,071.29	87.0933	2,071.29	87.083	2,071.29	83.5231	2,071.29	84.0226	2,071.29	77.8353	2,071.29	78.1558	2,071.29	81.467	2,071.29	76.0449	2,071.29	84.4463	2,071.29	78.8361	2,071.29	84.7683	2,071.29	79.0569	2,071.29	83.3278	2,071.29	78.2505	2,071.29	80.6959	2,071.29	75.9818	2,071.29	78.1164	2,071.29	73.1609	2,071.29	76.4212	2,071.29	73.1915	2,071.29	75.1791	2,071.29	72.0921	2,071.29	75.2478	2,071.29	67.576	2,071.29	72.7315	2,071.29	69.6058	2,071.29	74.2461	2,071.29	72.577	2,071.29	74.7977	2,071.29	69.3143	2,071.29	64.8339	2,071.29	65.155	2,071.29	62.5602	2,071.29	69.0916	2,071.29	71.4536	2,071.29	70.8877
2,144.53	86.3986	2,144.53	86.9184	2,144.53	82.4287	2,144.53	83.5547	2,144.53	76.2963	2,144.53	73.0866	2,144.53	81.1167	2,144.53	71.8542	2,144.53	83.5575	2,144.53	78.1045	2,144.53	83.9704	2,144.53	79.2947	2,144.53	82.9531	2,144.53	78.054	2,144.53	80.6453	2,144.53	75.5464	2,144.53	77.3156	2,144.53	73.3857	2,144.53	74.5566	2,144.53	73.3766	2,144.53	74.1138	2,144.53	74.4577	2,144.53	74.3154	2,144.53	73.9289	2,144.53	74.8219	2,144.53	70.5529	2,144.53	72.6456	2,144.53	69.4812	2,144.53	74.436	2,144.53	68.5596	2,144.53	62.0323	2,144.53	51.6597	2,144.53	58.891	2,144.53	70.1094	2,144.53	71.0697	2,144.53	71.5365
2,217.77	84.9869	2,217.77	85.7043	2,217.77	80.9703	2,217.77	83.1299	2,217.77	73.5398	2,217.77	71.0605	2,217.77	81.4686	2,217.77	76.2477	2,217.77	84.5264	2,217.77	81.1915	2,217.77	84.3947	2,217.77	80.8142	2,217.77	82.4089	2,217.77	78.4555	2,217.77	80.1152	2,217.77	78.1268	2,217.77	76.7693	2,217.77	77.1109	2,217.77	70.6574	2,217.77	74.997	2,217.77	68.1803	2,217.77	74.7277	2,217.77	71.3624	2,217.77	72.8738	2,217.77	73.2668	2,217.77	72.7122	2,217.77	72.6556	2,217.77	72.3242	2,217.77	69.4193	2,217.77	70.4481	2,217.77	62.9949	2,217.77	65.2272	2,217.77	59.9739	2,217.77	68.0247	2,217.77	70.6307	2,217.77	72.3865
2,296.88	85.2469	2,296.88	85.9889	2,296.88	80.0855	2,296.88	82.948	2,296.88	72.9179	2,296.88	71.886	2,296.88	80.3282	2,296.88	76.9784	2,296.88	83.7097	2,296.88	82.0592	2,296.88	84.2235	2,296.88	80.7945	2,296.88	83.0653	2,296.88	77.7793	2,296.88	80.3016	2,296.88	77.316	2,296.88	74.9545	2,296.88	77.1242	2,296.88	69.332	2,296.88	74.1494	2,296.88	68.0874	2,296.88	70.2963	2,296.88	67.6397	2,296.88	68.6677	2,296.88	73.7297	2,296.88	70.0308	2,296.88	71.3173	2,296.88	69.9503	2,296.88	72.994	2,296.88	64.5537	2,296.88	64.9552	2,296.88	68.3426	2,296.88	65.9532	2,296.88	68.6046	2,296.88	72.2676	2,296.88	71.3901
2,378.91	85.9667	2,378.91	86.4462	2,378.91	80.6022	2,378.91	81.3788	2,378.91	69.9019	2,378.91	65.3091	2,378.91	80.1383	2,378.91	78.6019	2,378.91	83.4287	2,378.91	80.8223	2,378.91	83.5397	2,378.91	80.9843	2,378.91	82.0841	2,378.91	79.9826	2,378.91	79.8881	2,378.91	76.8683	2,378.91	76.085	2,378.91	72.5182	2,378.91	71.8023	2,378.91	70.8061	2,378.91	68.9882	2,378.91	70.5879	2,378.91	61.8249	2,378.91	68.6256	2,378.91	72.4675	2,378.91	68.5747	2,378.91	72.2351	2,378.91	71.179	2,378.91	73.0466	2,378.91	68.2141	2,378.91	66.933	2,378.91	65.7561	2,378.91	63.4098	2,378.91	71.8097	2,378.91	69.4118	2,378.91	71.2921
2,460.94	85.5136	2,460.94	86.3212	2,460.94	79.2896	2,460.94	81.5949	2,460.94	67.5257	2,460.94	71.0651	2,460.94	79.8486	2,460.94	78.2956	2,460.94	82.6827	2,460.94	82.0585	2,460.94	82.9788	2,460.94	81.8011	2,460.94	81.3296	2,460.94	78.8441	2,460.94	77.62	2,460.94	77.7109	2,460.94	72.0115	2,460.94	75.465	2,460.94	70.6621	2,460.94	71.8041	2,460.94	67.8384	2,460.94	71.6632	2,460.94	63.5747	2,460.94	70.4688	2,460.94	71.156	2,460.94	69.7699	2,460.94	68.8267	2,460.94	70.6173	2,460.94	70.3025	2,460.94	68.6863	2,460.94	66.386	2,460.94	64.6032	2,460.94	64.091	2,460.94	71.4296	2,460.94	69.1587	2,460.94	71.9764
2,548.83	84.6348	2,548.83	84.7556	2,548.83	79.0609	2,548.83	80.8699	2,548.83	69.3478	2,548.83	71.1794	2,548.83	80.7128	2,548.83	81.2002	2,548.83	83.0605	2,548.83	82.6985	2,548.83	82.5704	2,548.83	81.3758	2,548.83	81.2999	2,548.83	79.4463	2,548.83	78.3105	2,548.83	76.4381	2,548.83	74.2799	2,548.83	74.5264	2,548.83	73.7626	2,548.83	72.9562	2,548.83	67.6716	2,548.83	72.14	2,548.83	52.4428	2,548.83	69.8896	2,548.83	67.1506	2,548.83	69.3411	2,548.83	69.3185	2,548.83	70.6286	2,548.83	68.8646	2,548.83	69.3164	2,548.83	66.2967	2,548.83	66.4249	2,548.83	63.3155	2,548.83	71.158	2,548.83	68.2579	2,548.83	72.1693
2,639.65	84.5754	2,639.65	84.4633	2,639.65	79.3445	2,639.65	79.0793	2,639.65	67.6476	2,639.65	72.9795	2,639.65	81.6789	2,639.65	81.9199	2,639.65	83.4284	2,639.65	82.9353	2,639.65	81.8877	2,639.65	82.1594	2,639.65	80.6429	2,639.65	79.9577	2,639.65	78.1259	2,639.65	76.7259	2,639.65	74.1327	2,639.65	74.2601	2,639.65	73.273	2,639.65	71.0806	2,639.65	64.6578	2,639.65	70.314	2,639.65	60.7425	2,639.65	68.5733	2,639.65	64.6133	2,639.65	68.4096	2,639.65	67.984	2,639.65	70.7364	2,639.65	66.749	2,639.65	68.8207	2,639.65	66.4509	2,639.65	67.4119	2,639.65	65.1616	2,639.65	70.1609	2,639.65	67.8595	2,639.65	72.8624
2,733.4	83.9761	2,733.4	84.2984	2,733.4	78.6491	2,733.4	78.6233	2,733.4	68.6995	2,733.4	76.8087	2,733.4	82.0234	2,733.4	81.8521	2,733.4	83.9753	2,733.4	82.9348	2,733.4	82.0633	2,733.4	81.4578	2,733.4	80.2068	2,733.4	78.1249	2,733.4	79.0904	2,733.4	75.3026	2,733.4	76.1977	2,733.4	71.289	2,733.4	74.0711	2,733.4	68.9824	2,733.4	67.3186	2,733.4	68.6083	2,733.4	60.654	2,733.4	67.1055	2,733.4	69.9239	2,733.4	66.6139	2,733.4	67.503	2,733.4	69.5217	2,733.4	64.396	2,733.4	67.8619	2,733.4	61.5362	2,733.4	67.7772	2,733.4	65.5749	2,733.4	70.3734	2,733.4	68.516	2,733.4	71.6036
2,827.15	83.8867	2,827.15	83.3106	2,827.15	78.6847	2,827.15	77.9142	2,827.15	70.7918	2,827.15	78.1605	2,827.15	82.5849	2,827.15	82.7998	2,827.15	83.8589	2,827.15	82.8204	2,827.15	82.0417	2,827.15	80.7122	2,827.15	80.8047	2,827.15	77.5485	2,827.15	79.2635	2,827.15	74.4033	2,827.15	76.7471	2,827.15	73.1944	2,827.15	74.2637	2,827.15	70.7778	2,827.15	70.1434	2,827.15	69.2623	2,827.15	57.1642	2,827.15	66.4798	2,827.15	69.4736	2,827.15	63.5394	2,827.15	69.6777	2,827.15	68.7138	2,827.15	68.8118	2,827.15	67.8583	2,827.15	67.76	2,827.15	65.6476	2,827.15	66.534	2,827.15	68.8285	2,827.15	69.6237	2,827.15	71.4217
2,926.76	83.4935	2,926.76	82.4078	2,926.76	79.0469	2,926.76	76.9187	2,926.76	73.3312	2,926.76	79.0461	2,926.76	83.1585	2,926.76	83.1003	2,926.76	83.681	2,926.76	82.3122	2,926.76	81.1264	2,926.76	78.6356	2,926.76	80.9439	2,926.76	75.4945	2,926.76	78.6822	2,926.76	74.0851	2,926.76	74.972	2,926.76	71.0314	2,926.76	76.7217	2,926.76	69.0344	2,926.76	73.0298	2,926.76	67.2959	2,926.76	62.1527	2,926.76	65.45	2,926.76	67.8061	2,926.76	61.2336	2,926.76	70.7486	2,926.76	65.8776	2,926.76	68.8945	2,926.76	64.7519	2,926.76	66.1171	2,926.76	63.9002	2,926.76	63.7185	2,926.76	68.467	2,926.76	69.0488	2,926.76	69.859
3,032.23	83.0047	3,032.23	81.5844	3,032.23	78.4328	3,032.23	76.6214	3,032.23	75.0017	3,032.23	79.6991	3,032.23	83.8048	3,032.23	83.346	3,032.23	83.2009	3,032.23	80.9774	3,032.23	79.9573	3,032.23	77.6895	3,032.23	81.4608	3,032.23	75.9099	3,032.23	79.4449	3,032.23	71.4818	3,032.23	75.9594	3,032.23	71.9416	3,032.23	78.7624	3,032.23	72.3809	3,032.23	73.6499	3,032.23	69.3229	3,032.23	64.0469	3,032.23	68.4021	3,032.23	68.3787	3,032.23	64.0275	3,032.23	70.4979	3,032.23	64.0844	3,032.23	67.9569	3,032.23	65.4409	3,032.23	67.0225	3,032.23	62.8101	3,032.23	63.7313	3,032.23	67.2727	3,032.23	69.3553	3,032.23	69.0628
3,137.7	83.0309	3,137.7	81.7873	3,137.7	79.1792	3,137.7	77.2193	3,137.7	75.9093	3,137.7	80.6009	3,137.7	84.3406	3,137.7	82.7069	3,137.7	83.5102	3,137.7	80.4018	3,137.7	78.6195	3,137.7	78.1396	3,137.7	81.7292	3,137.7	75.1722	3,137.7	80.8823	3,137.7	76.7269	3,137.7	77.7497	3,137.7	74.0811	3,137.7	79.4039	3,137.7	70.4803	3,137.7	73.7578	3,137.7	69.1465	3,137.7	62.7281	3,137.7	68.4732	3,137.7	66.2514	3,137.7	65.8153	3,137.7	71.535	3,137.7	64.7409	3,137.7	66.7278	3,137.7	65.531	3,137.7	67.043	3,137.7	62.5831	3,137.7	62.2095	3,137.7	66.2601	3,137.7	68.3346	3,137.7	69.0836
3,249.02	82.9173	3,249.02	81.0108	3,249.02	79.4696	3,249.02	77.2347	3,249.02	76.8287	3,249.02	81.3125	3,249.02	84.4143	3,249.02	81.8844	3,249.02	83.4573	3,249.02	80.2448	3,249.02	77.9236	3,249.02	79.2694	3,249.02	81.9128	3,249.02	78.7397	3,249.02	82.0615	3,249.02	74.1966	3,249.02	79.155	3,249.02	69.698	3,249.02	79.0732	3,249.02	71.3996	3,249.02	72.3824	3,249.02	68.5926	3,249.02	68.2957	3,249.02	69.0705	3,249.02	66.6318	3,249.02	65.9714	3,249.02	71.1767	3,249.02	66.6171	3,249.02	67.9656	3,249.02	63.8615	3,249.02	66.9876	3,249.02	64.8531	3,249.02	62.2655	3,249.02	65.2421	3,249.02	67.0532	3,249.02	69.7258
3,363.28	83.0176	3,363.28	80.7	3,363.28	79.842	3,363.28	78.2266	3,363.28	78.6206	3,363.28	81.2707	3,363.28	84.4727	3,363.28	81.4598	3,363.28	82.9856	3,363.28	80.7887	3,363.28	77.2791	3,363.28	79.8274	3,363.28	81.1414	3,363.28	77.0515	3,363.28	81.9259	3,363.28	74.3229	3,363.28	79.4161	3,363.28	74.9732	3,363.28	78.6157	3,363.28	72.3974	3,363.28	72.5079	3,363.28	68.2348	3,363.28	64.8326	3,363.28	68.8016	3,363.28	67.5098	3,363.28	65.5842	3,363.28	67.7721	3,363.28	66.4384	3,363.28	66.0243	3,363.28	64.9498	3,363.28	66.3887	3,363.28	64.1961	3,363.28	62.9962	3,363.28	64.6065	3,363.28	67.5222	3,363.28	69.6685
3,483.4	83.3445	3,483.4	80.5944	3,483.4	80.3266	3,483.4	78.7789	3,483.4	78.7619	3,483.4	81.3019	3,483.4	84.5458	3,483.4	81.7143	3,483.4	82.539	3,483.4	81.5242	3,483.4	76.5665	3,483.4	79.431	3,483.4	80.8452	3,483.4	77.8451	3,483.4	81.2077	3,483.4	76.8757	3,483.4	78.7934	3,483.4	71.4293	3,483.4	76.7598	3,483.4	70.4781	3,483.4	64.9258	3,483.4	69.1911	3,483.4	68.8052	3,483.4	68.2734	3,483.4	67.0642	3,483.4	66.9598	3,483.4	66.8498	3,483.4	65.5583	3,483.4	63.6261	3,483.4	64.9087	3,483.4	66.7716	3,483.4	63.0187	3,483.4	62.0213	3,483.4	64.7508	3,483.4	67.4385	3,483.4	69.4946
3,606.45	83.6716	3,606.45	80.9583	3,606.45	81.6807	3,606.45	79.8384	3,606.45	79.8214	3,606.45	80.9056	3,606.45	84.3646	3,606.45	82.1974	3,606.45	82.4886	3,606.45	81.7775	3,606.45	75.3856	3,606.45	79.1135	3,606.45	80.3528	3,606.45	78.9691	3,606.45	81.5763	3,606.45	73.8779	3,606.45	77.81	3,606.45	74.1108	3,606.45	72.9892	3,606.45	72.4485	3,606.45	53.7612	3,606.45	68.8489	3,606.45	68.3128	3,606.45	68.4952	3,606.45	65.7483	3,606.45	66.5272	3,606.45	64.7192	3,606.45	66.0718	3,606.45	59.8189	3,606.45	64.546	3,606.45	66.5337	3,606.45	60.8768	3,606.45	63.1028	3,606.45	64.6756	3,606.45	67.6658	3,606.45	69.6033
3,732.42	83.5736	3,732.42	81.6102	3,732.42	81.7176	3,732.42	79.6756	3,732.42	80.2009	3,732.42	81.4647	3,732.42	84.2811	3,732.42	82.9218	3,732.42	82.6885	3,732.42	80.3687	3,732.42	76.7785	3,732.42	80.6174	3,732.42	79.8142	3,732.42	77.8175	3,732.42	81.3107	3,732.42	76.9715	3,732.42	77.924	3,732.42	73.7823	3,732.42	70.5958	3,732.42	70.3088	3,732.42	65.7225	3,732.42	69.5732	3,732.42	62.5075	3,732.42	67.1975	3,732.42	66.2741	3,732.42	66.6295	3,732.42	66.4312	3,732.42	65.5965	3,732.42	64.0564	3,732.42	63.4443	3,732.42	67.6021	3,732.42	62.0472	3,732.42	63.8169	3,732.42	64.5081	3,732.42	66.6348	3,732.42	68.5521
3,864.26	84.3071	3,864.26	82.2408	3,864.26	82.7055	3,864.26	79.1307	3,864.26	80.7932	3,864.26	82.6783	3,864.26	83.37	3,864.26	82.6109	3,864.26	82.5156	3,864.26	80.8713	3,864.26	77.7387	3,864.26	79.3379	3,864.26	79.3976	3,864.26	78.889	3,864.26	79.8392	3,864.26	75.4924	3,864.26	76.4743	3,864.26	70.8031	3,864.26	73.0299	3,864.26	71.4361	3,864.26	72.4189	3,864.26	68.2906	3,864.26	54.7793	3,864.26	68.5136	3,864.26	65.8064	3,864.26	67.1752	3,864.26	67.9622	3,864.26	64.346	3,864.26	59.1214	3,864.26	63.4362	3,864.26	67.7214	3,864.26	61.0849	3,864.26	62.6273	3,864.26	62.4005	3,864.26	65.5139	3,864.26	69.0504
3,999.02	84.6437	3,999.02	82.4226	3,999.02	83.5933	3,999.02	80.5691	3,999.02	82.2379	3,999.02	83.0371	3,999.02	82.5084	3,999.02	82.0292	3,999.02	81.4903	3,999.02	80.9696	3,999.02	78.5473	3,999.02	80.3724	3,999.02	79.0964	3,999.02	78.7027	3,999.02	79.8069	3,999.02	76.9174	3,999.02	75.5135	3,999.02	76.0702	3,999.02	69.1371	3,999.02	72.1459	3,999.02	71.2818	3,999.02	69.9238	3,999.02	55.6914	3,999.02	67.731	3,999.02	66.7866	3,999.02	67.604	3,999.02	65.6817	3,999.02	65.2471	3,999.02	51.2871	3,999.02	63.9032	3,999.02	67.1788	3,999.02	58.1375	3,999.02	64.0492	3,999.02	61.6451	3,999.02	65.1738	3,999.02	69.0901
4,139.65	84.8595	4,139.65	82.9059	4,139.65	83.5704	4,139.65	81.045	4,139.65	83.1574	4,139.65	83.5945	4,139.65	82.4127	4,139.65	81.4961	4,139.65	80.4393	4,139.65	81.2154	4,139.65	78.6487	4,139.65	80.0226	4,139.65	81.0013	4,139.65	80.4409	4,139.65	81.0379	4,139.65	77.522	4,139.65	75.7741	4,139.65	70.889	4,139.65	72.1295	4,139.65	70.1432	4,139.65	69.9714	4,139.65	69.7376	4,139.65	63.3944	4,139.65	67.6812	4,139.65	68.5888	4,139.65	67.6727	4,139.65	60.5065	4,139.65	65.2577	4,139.65	56.2247	4,139.65	64.5664	4,139.65	67.5466	4,139.65	61.9986	4,139.65	61.955	4,139.65	62.0758	4,139.65	63.2882	4,139.65	68.6059
4,286.13	85.5325	4,286.13	83.2851	4,286.13	84.0116	4,286.13	81.9555	4,286.13	83.7345	4,286.13	83.3146	4,286.13	83.1798	4,286.13	81.7877	4,286.13	81.061	4,286.13	81.2535	4,286.13	78.7071	4,286.13	81.7166	4,286.13	80.521	4,286.13	79.6583	4,286.13	79.8715	4,286.13	73.8465	4,286.13	78.8825	4,286.13	75.8897	4,286.13	76.1077	4,286.13	69.3841	4,286.13	71.3214	4,286.13	69.3081	4,286.13	65.0787	4,286.13	66.3833	4,286.13	68.8801	4,286.13	62.5907	4,286.13	64.4362	4,286.13	65.2387	4,286.13	63.7778	4,286.13	59.6019	4,286.13	67.4064	4,286.13	60.7651	4,286.13	62.5751	4,286.13	63.573	4,286.13	64.1012	4,286.13	70.9945
4,438.48	85.2871	4,438.48	83.681	4,438.48	84.738	4,438.48	83.2631	4,438.48	83.8699	4,438.48	83.8543	4,438.48	83.0112	4,438.48	80.9193	4,438.48	82.2276	4,438.48	82.2456	4,438.48	79.1603	4,438.48	80.1364	4,438.48	76.3072	4,438.48	77.9486	4,438.48	79.5587	4,438.48	73.9402	4,438.48	81.5462	4,438.48	69.2771	4,438.48	77.961	4,438.48	69.2486	4,438.48	71.4401	4,438.48	68.0851	4,438.48	64.6121	4,438.48	65.2423	4,438.48	67.5194	4,438.48	65.4243	4,438.48	65.7877	4,438.48	63.3379	4,438.48	66.1072	4,438.48	61.9748	4,438.48	63.7586	4,438.48	59.1283	4,438.48	64.495	4,438.48	59.3612	4,438.48	61.217	4,438.48	67.752
4,593.75	85.3254	4,593.75	83.7783	4,593.75	83.8586	4,593.75	83.3115	4,593.75	84.7598	4,593.75	83.6768	4,593.75	82.5016	4,593.75	81.7025	4,593.75	80.3669	4,593.75	81.9671	4,593.75	77.9025	4,593.75	79.5442	4,593.75	77.0228	4,593.75	76.0588	4,593.75	80.7386	4,593.75	74.2535	4,593.75	82.1909	4,593.75	74.1794	4,593.75	78.8262	4,593.75	66.6513	4,593.75	68.9051	4,593.75	70.8868	4,593.75	66.384	4,593.75	66.373	4,593.75	65.4081	4,593.75	65.4933	4,593.75	62.9889	4,593.75	63.2215	4,593.75	67.5639	4,593.75	59.6783	4,593.75	66.0718	4,593.75	57.2619	4,593.75	65.2513	4,593.75	62.0364	4,593.75	60.4738	4,593.75	69.5142
4,757.81	85.4371	4,757.81	84.1917	4,757.81	84.8269	4,757.81	84.1642	4,757.81	85.1433	4,757.81	83.2584	4,757.81	84.0114	4,757.81	82.8052	4,757.81	80.7526	4,757.81	81.8918	4,757.81	79.7751	4,757.81	78.0208	4,757.81	80.2938	4,757.81	76.5939	4,757.81	79.2426	4,757.81	74.3863	4,757.81	81.3461	4,757.81	71.1542	4,757.81	78.2173	4,757.81	70.175	4,757.81	62.8186	4,757.81	69.1098	4,757.81	57.2322	4,757.81	68.048	4,757.81	65.6286	4,757.81	66.8557	4,757.81	58.5867	4,757.81	62.2297	4,757.81	64.1868	4,757.81	63.9378	4,757.81	63.2177	4,757.81	58.8548	4,757.81	63.0742	4,757.81	59.626	4,757.81	60.2185	4,757.81	68.5276
4,924.8	85.0797	4,924.8	84.1519	4,924.8	84.0167	4,924.8	83.4622	4,924.8	84.7819	4,924.8	83.377	4,924.8	84.147	4,924.8	83.4047	4,924.8	82.4868	4,924.8	80.7775	4,924.8	82.0669	4,924.8	79.2442	4,924.8	80.4281	4,924.8	75.7134	4,924.8	80.0245	4,924.8	76.3587	4,924.8	80.4669	4,924.8	71.509	4,924.8	76.9776	4,924.8	69.7176	4,924.8	63.078	4,924.8	69.4182	4,924.8	58.842	4,924.8	66.4972	4,924.8	61.9595	4,924.8	67.642	4,924.8	63.3849	4,924.8	64.0371	4,924.8	63.7498	4,924.8	63.1362	4,924.8	63.5604	4,924.8	60.7286	4,924.8	62.3602	4,924.8	57.1709	4,924.8	56.7253	4,924.8	64.9282
5,097.66	85.0445	5,097.66	84.1896	5,097.66	84.2115	5,097.66	83.2872	5,097.66	84.6815	5,097.66	84.0521	5,097.66	83.8006	5,097.66	83.209	5,097.66	81.8369	5,097.66	80.9685	5,097.66	80.215	5,097.66	78.9051	5,097.66	81.3332	5,097.66	77.3726	5,097.66	80.2764	5,097.66	75.4211	5,097.66	78.6197	5,097.66	72.765	5,097.66	75.2746	5,097.66	70.8888	5,097.66	65.8804	5,097.66	68.5312	5,097.66	57.3469	5,097.66	67.3815	5,097.66	48.9984	5,097.66	67.6283	5,097.66	62.3984	5,097.66	65.012	5,097.66	60.054	5,097.66	66.4761	5,097.66	62.3658	5,097.66	60.3384	5,097.66	62.2887	5,097.66	54.8887	5,097.66	61.1635	5,097.66	66.6747
5,279.3	84.5308	5,279.3	83.788	5,279.3	83.7797	5,279.3	83.3294	5,279.3	84.5538	5,279.3	83.6845	5,279.3	83.9567	5,279.3	82.4947	5,279.3	81.5545	5,279.3	81.3503	5,279.3	80.7269	5,279.3	79.724	5,279.3	81.127	5,279.3	78.2616	5,279.3	79.0374	5,279.3	76.7977	5,279.3	77.2142	5,279.3	72.5303	5,279.3	72.6364	5,279.3	70.4699	5,279.3	66.2206	5,279.3	69.2213	5,279.3	65.3735	5,279.3	66.7716	5,279.3	59.3527	5,279.3	66.6897	5,279.3	51.9425	5,279.3	65.315	5,279.3	58.6115	5,279.3	65.5949	5,279.3	65.6322	5,279.3	62.4153	5,279.3	62.0587	5,279.3	55.3202	5,279.3	58.3122	5,279.3	64.2501
5,463.87	84.7127	5,463.87	83.6488	5,463.87	83.4807	5,463.87	83.4397	5,463.87	83.7178	5,463.87	83.1819	5,463.87	83.5165	5,463.87	82.3864	5,463.87	82.6407	5,463.87	81.5503	5,463.87	81.424	5,463.87	80.3659	5,463.87	78.8487	5,463.87	78.3599	5,463.87	75.125	5,463.87	75.5852	5,463.87	73.9965	5,463.87	73.5201	5,463.87	71.9348	5,463.87	69.4293	5,463.87	61.2643	5,463.87	68.0654	5,463.87	66.2516	5,463.87	66.7991	5,463.87	65.1461	5,463.87	65.8498	5,463.87	60.7072	5,463.87	65.1771	5,463.87	62.8476	5,463.87	63.8776	5,463.87	63.5318	5,463.87	61.2859	5,463.87	59.9194	5,463.87	53.2189	5,463.87	53.4188	5,463.87	63.4195
5,657.23	83.6152	5,657.23	83.5834	5,657.23	83.1461	5,657.23	83.5671	5,657.23	83.3543	5,657.23	82.2636	5,657.23	83.143	5,657.23	82.303	5,657.23	82.0218	5,657.23	81.3601	5,657.23	80.5918	5,657.23	80.6942	5,657.23	77.4898	5,657.23	77.6036	5,657.23	72.5014	5,657.23	74.8683	5,657.23	72.6808	5,657.23	70.6614	5,657.23	72.375	5,657.23	69.4747	5,657.23	53.3621	5,657.23	67.1986	5,657.23	63.696	5,657.23	65.8571	5,657.23	65.4079	5,657.23	64.2057	5,657.23	59.1759	5,657.23	65.2502	5,657.23	61.9751	5,657.23	63.5314	5,657.23	60.9009	5,657.23	61.555	5,657.23	60.4687	5,657.23	54.1516	5,657.23	58.3217	5,657.23	62.6269
5,856.45	83.8163	5,856.45	84.2508	5,856.45	82.9169	5,856.45	83.2578	5,856.45	82.754	5,856.45	81.7804	5,856.45	81.8535	5,856.45	82.3129	5,856.45	80.9043	5,856.45	80.9368	5,856.45	80.2139	5,856.45	80.7862	5,856.45	76.4609	5,856.45	77.0304	5,856.45	72.6071	5,856.45	75.8001	5,856.45	74.7453	5,856.45	70.7508	5,856.45	75.2159	5,856.45	69.8236	5,856.45	62.1558	5,856.45	66.1277	5,856.45	59.9274	5,856.45	66.4538	5,856.45	60.2901	5,856.45	64.0494	5,856.45	60.9267	5,856.45	64.4732	5,856.45	62.5302	5,856.45	63.9031	5,856.45	62.1175	5,856.45	62.2768	5,856.45	56.2116	5,856.45	53.6184	5,856.45	55.9152	5,856.45	61.1314
6,061.52	83.8665	6,061.52	84.708	6,061.52	82.8956	6,061.52	82.771	6,061.52	82.5677	6,061.52	81.7727	6,061.52	81.5528	6,061.52	81.4959	6,061.52	81.4061	6,061.52	81.1107	6,061.52	80.5449	6,061.52	80.4234	6,061.52	77.2541	6,061.52	77.7289	6,061.52	74.0995	6,061.52	74.803	6,061.52	75.3208	6,061.52	71.0992	6,061.52	75.1507	6,061.52	68.5704	6,061.52	67.2431	6,061.52	65.5136	6,061.52	57.5828	6,061.52	66.2823	6,061.52	57.5057	6,061.52	64.7275	6,061.52	64.8128	6,061.52	63.2735	6,061.52	58.9433	6,061.52	62.4961	6,061.52	63.7009	6,061.52	61.0617	6,061.52	58.4719	6,061.52	45.7917	6,061.52	57.048	6,061.52	59.681
6,275.39	84.4296	6,275.39	84.7351	6,275.39	82.9071	6,275.39	82.3752	6,275.39	82.4812	6,275.39	81.4941	6,275.39	80.4703	6,275.39	80.9559	6,275.39	80.4651	6,275.39	80.9724	6,275.39	80.7102	6,275.39	79.482	6,275.39	77.5653	6,275.39	76.9574	6,275.39	73.8883	6,275.39	72.8026	6,275.39	74.0805	6,275.39	69.7802	6,275.39	73.8828	6,275.39	67.2711	6,275.39	66.3135	6,275.39	63.6287	6,275.39	54.4037	6,275.39	64.9668	6,275.39	57.3303	6,275.39	64.0698	6,275.39	60.6793	6,275.39	61.7278	6,275.39	60.9709	6,275.39	63.0149	6,275.39	61.701	6,275.39	60.5602	6,275.39	59.156	6,275.39	45.7426	6,275.39	56.2624	6,275.39	59.9653
6,498.05	84.3197	6,498.05	84.6493	6,498.05	83.4073	6,498.05	82.3787	6,498.05	83.1331	6,498.05	81.3574	6,498.05	80.485	6,498.05	80.7665	6,498.05	80.046	6,498.05	80.3875	6,498.05	80.0494	6,498.05	78.5237	6,498.05	77.3475	6,498.05	75.7074	6,498.05	73.9493	6,498.05	74.1267	6,498.05	73.0886	6,498.05	70.1748	6,498.05	70.5987	6,498.05	67.3937	6,498.05	59.2472	6,498.05	64.0156	6,498.05	63.5464	6,498.05	64.718	6,498.05	58.9922	6,498.05	63.4536	6,498.05	60.5925	6,498.05	61.9252	6,498.05	60.9678	6,498.05	62.6061	6,498.05	62.2079	6,498.05	63.1435	6,498.05	59.2292	6,498.05	45.0225	6,498.05	58.0623	6,498.05	58.4968
6,726.56	84.7646	6,726.56	84.971	6,726.56	83.7003	6,726.56	82.2529	6,726.56	83.7457	6,726.56	81.5268	6,726.56	80.7812	6,726.56	80.3106	6,726.56	79.3833	6,726.56	79.5475	6,726.56	79.3181	6,726.56	77.9719	6,726.56	77.9285	6,726.56	76.5977	6,726.56	73.0239	6,726.56	73.8896	6,726.56	69.6112	6,726.56	70.367	6,726.56	69.6637	6,726.56	66.7798	6,726.56	56.0453	6,726.56	63.5299	6,726.56	63.5499	6,726.56	64.283	6,726.56	60.5078	6,726.56	62.6148	6,726.56	59.1461	6,726.56	62.1301	6,726.56	57.6092	6,726.56	62.9638	6,726.56	63.0957	6,726.56	63.2007	6,726.56	59.0096	6,726.56	48.7082	6,726.56	55.7213	6,726.56	57.7273
6,963.87	85.0417	6,963.87	84.3716	6,963.87	83.6812	6,963.87	82.6072	6,963.87	83.9885	6,963.87	81.4502	6,963.87	82.1168	6,963.87	79.7536	6,963.87	80.2635	6,963.87	79.0438	6,963.87	79.9492	6,963.87	77.7843	6,963.87	79.3808	6,963.87	74.9762	6,963.87	74.4732	6,963.87	72.0357	6,963.87	73.7704	6,963.87	68.5003	6,963.87	73.7382	6,963.87	65.6858	6,963.87	61.0587	6,963.87	60.9395	6,963.87	62.5574	6,963.87	62.6901	6,963.87	64.7119	6,963.87	58.4278	6,963.87	57.4983	6,963.87	60.4969	6,963.87	62.6313	6,963.87	60.2341	6,963.87	57.3371	6,963.87	63.6879	6,963.87	58.8771	6,963.87	51.2376	6,963.87	53.611	6,963.87	54.2864
7,209.96	85.2415	7,209.96	84.0541	7,209.96	84.2595	7,209.96	83.1254	7,209.96	83.6429	7,209.96	81.2066	7,209.96	82.8781	7,209.96	79.9123	7,209.96	81.3881	7,209.96	78.2385	7,209.96	80.2018	7,209.96	77.3423	7,209.96	79.8512	7,209.96	73.6517	7,209.96	76.1834	7,209.96	71.9704	7,209.96	77.0881	7,209.96	67.9924	7,209.96	72.9293	7,209.96	66.1263	7,209.96	53.7273	7,209.96	62.1101	7,209.96	63.737	7,209.96	62.8888	7,209.96	63.0933	7,209.96	58.0055	7,209.96	56.6289	7,209.96	60.2624	7,209.96	61.2134	7,209.96	59.4216	7,209.96	49.8836	7,209.96	62.587	7,209.96	56.5333	7,209.96	48.3818	7,209.96	53.1796	7,209.96	56.8129
7,464.84	84.9919	7,464.84	84.0847	7,464.84	84.6263	7,464.84	83.5062	7,464.84	83.9272	7,464.84	81.2816	7,464.84	82.9334	7,464.84	79.9409	7,464.84	81.0604	7,464.84	77.7435	7,464.84	80.153	7,464.84	77.1831	7,464.84	78.5528	7,464.84	74.1903	7,464.84	77.0448	7,464.84	71.2026	7,464.84	76.3706	7,464.84	67.3908	7,464.84	73.1639	7,464.84	64.4604	7,464.84	65.2535	7,464.84	61.2771	7,464.84	62.6837	7,464.84	62.4885	7,464.84	63.0137	7,464.84	57.0551	7,464.84	56.0924	7,464.84	59.0241	7,464.84	60.6677	7,464.84	59.6325	7,464.84	46.0875	7,464.84	61.2572	7,464.84	54.8737	7,464.84	42.4708	7,464.84	52.6376	7,464.84	55.4044
7,728.52	84.9919	7,728.52	84.2784	7,728.52	84.9023	7,728.52	83.7305	7,728.52	83.8695	7,728.52	82.025	7,728.52	82.7979	7,728.52	79.8177	7,728.52	81.129	7,728.52	78.2145	7,728.52	78.8717	7,728.52	76.7849	7,728.52	76.5553	7,728.52	72.8495	7,728.52	75.5606	7,728.52	68.9112	7,728.52	74.4932	7,728.52	65.6601	7,728.52	69.3109	7,728.52	61.9302	7,728.52	64.6284	7,728.52	58.5078	7,728.52	53.1214	7,728.52	58.5999	7,728.52	57.3108	7,728.52	56.3066	7,728.52	55.755	7,728.52	57.8315	7,728.52	56.6428	7,728.52	56.6128	7,728.52	50.7899	7,728.52	59.2268	7,728.52	53.6235	7,728.52	47.663	7,728.52	49.8077	7,728.52	49.4169
8,000.98	85.6515	8,000.98	84.7693	8,000.98	85.4212	8,000.98	84.3579	8,000.98	84.3276	8,000.98	81.9882	8,000.98	83.2679	8,000.98	80.2502	8,000.98	81.2967	8,000.98	78.5105	8,000.98	78.9488	8,000.98	75.9037	8,000.98	76.4088	8,000.98	71.5081	8,000.98	73.2493	8,000.98	68.0462	8,000.98	70.2951	8,000.98	64.7408	8,000.98	67.2399	8,000.98	61.109	8,000.98	61.2736	8,000.98	58.6672	8,000.98	52.0396	8,000.98	57.8264	8,000.98	50.9221	8,000.98	55.1109	8,000.98	55.8956	8,000.98	56.2386	8,000.98	54.3614	8,000.98	57.4957	8,000.98	52.357	8,000.98	59.9283	8,000.98	52.7705	8,000.98	48.1721	8,000.98	53.9138	8,000.98	43.3475
8,282.23	86.0631	8,282.23	85.2684	8,282.23	85.8733	8,282.23	84.824	8,282.23	84.4002	8,282.23	81.9317	8,282.23	83.5118	8,282.23	80.5913	8,282.23	81.5338	8,282.23	77.4832	8,282.23	78.7142	8,282.23	75.369	8,282.23	74.2266	8,282.23	71.6158	8,282.23	70.9319	8,282.23	68.1507	8,282.23	65.8955	8,282.23	63.9619	8,282.23	67.3673	8,282.23	59.2972	8,282.23	60.2386	8,282.23	58.3244	8,282.23	54.55	8,282.23	58.8361	8,282.23	44.3356	8,282.23	56.2238	8,282.23	53.9434	8,282.23	55.6366	8,282.23	55.1125	8,282.23	57.9287	8,282.23	53.6048	8,282.23	59.3513	8,282.23	52.301	8,282.23	46.9959	8,282.23	47.1156	8,282.23	46.5948
8,575.2	85.805	8,575.2	85.294	8,575.2	86.1398	8,575.2	84.722	8,575.2	84.7151	8,575.2	82.1613	8,575.2	83.6113	8,575.2	80.3365	8,575.2	81.6098	8,575.2	76.952	8,575.2	78.3179	8,575.2	74.1857	8,575.2	74.1159	8,575.2	71.7668	8,575.2	71.8944	8,575.2	67.0374	8,575.2	69.5578	8,575.2	64.6869	8,575.2	65.8709	8,575.2	58.391	8,575.2	57.382	8,575.2	56.9253	8,575.2	56.0584	8,575.2	55.7303	8,575.2	54.5954	8,575.2	57.0602	8,575.2	48.1215	8,575.2	57.0712	8,575.2	50.3625	8,575.2	55.3979	8,575.2	57.0199	8,575.2	57.9275	8,575.2	55.1243	8,575.2	46.8922	8,575.2	48.8393	8,575.2	37.7025
8,876.95	85.3773	8,876.95	85.3327	8,876.95	85.9791	8,876.95	84.5528	8,876.95	84.9974	8,876.95	82.3846	8,876.95	83.6254	8,876.95	79.8148	8,876.95	81.2338	8,876.95	76.6318	8,876.95	77.8625	8,876.95	73.9536	8,876.95	74.1649	8,876.95	71.6864	8,876.95	71.7066	8,876.95	67.6891	8,876.95	72.7039	8,876.95	63.1769	8,876.95	67.3661	8,876.95	59.5008	8,876.95	52.0569	8,876.95	56.3737	8,876.95	51.0363	8,876.95	55.7589	8,876.95	56.8534	8,876.95	54.4719	8,876.95	50.9637	8,876.95	57.6811	8,876.95	38.1171	8,876.95	51.8643	8,876.95	56.5529	8,876.95	59.6761	8,876.95	47.418	8,876.95	50.9801	8,876.95	49.663	8,876.95	47.1497
9,190.43	85.0353	9,190.43	85.1796	9,190.43	85.7347	9,190.43	84.4378	9,190.43	85.0041	9,190.43	82.7835	9,190.43	83.4824	9,190.43	79.5706	9,190.43	81.0126	9,190.43	76.4215	9,190.43	78.0803	9,190.43	73.3404	9,190.43	74.1663	9,190.43	71.6744	9,190.43	71.9579	9,190.43	67.491	9,190.43	71.9569	9,190.43	63.4396	9,190.43	66.6815	9,190.43	58.0382	9,190.43	52.2141	9,190.43	56.2791	9,190.43	45.5784	9,190.43	57.0384	9,190.43	57.148	9,190.43	54.733	9,190.43	51.1379	9,190.43	58.0226	9,190.43	43.3811	9,190.43	49.7597	9,190.43	57.8255	9,190.43	60.4317	9,190.43	48.4176	9,190.43	50.1026	9,190.43	48.2539	9,190.43	48.0111
9,512.7	84.8765	9,512.7	85.4463	9,512.7	85.6438	9,512.7	84.5608	9,512.7	85.3908	9,512.7	82.9536	9,512.7	83.3868	9,512.7	79.1763	9,512.7	80.4926	9,512.7	76.2867	9,512.7	78.1222	9,512.7	72.941	9,512.7	74.068	9,512.7	70.4588	9,512.7	71.7401	9,512.7	66.7861	9,512.7	67.8077	9,512.7	63.1196	9,512.7	63.1875	9,512.7	57.0523	9,512.7	52.6353	9,512.7	54.691	9,512.7	31.1353	9,512.7	57.6737	9,512.7	55.9228	9,512.7	57.0798	9,512.7	48.4777	9,512.7	57.0888	9,512.7	46.9684	9,512.7	51.7275	9,512.7	56.4822	9,512.7	60.5464	9,512.7	29.2025	9,512.7	46.837	9,512.7	49.393	9,512.7	48.2428
9,849.61	85.2327	9,849.61	85.877	9,849.61	85.6752	9,849.61	84.7328	9,849.61	85.4865	9,849.61	82.5797	9,849.61	83.0244	9,849.61	78.5158	9,849.61	79.6883	9,849.61	75.6936	9,849.61	77.234	9,849.61	73.0062	9,849.61	73.4643	9,849.61	69.3518	9,849.61	68.3445	9,849.61	66.3737	9,849.61	65.4101	9,849.61	61.5125	9,849.61	53.4893	9,849.61	57.2378	9,849.61	57.2197	9,849.61	54.6024	9,849.61	58.4404	9,849.61	54.5657	9,849.61	51.7577	9,849.61	56.255	9,849.61	38.6392	9,849.61	56.9444	9,849.61	48.8788	9,849.61	48.9572	9,849.61	52.1596	9,849.61	58.1725	9,849.61	45.7445	9,849.61	42.1836	9,849.61	52.0617	9,849.61	51.814
10,195.3	85.5796	10,195.3	86.0999	10,195.3	85.7469	10,195.3	84.6431	10,195.3	85.4817	10,195.3	81.9595	10,195.3	82.665	10,195.3	77.9254	10,195.3	78.9511	10,195.3	75.1469	10,195.3	75.9179	10,195.3	72.6596	10,195.3	71.9954	10,195.3	68.9019	10,195.3	67.6909	10,195.3	65.1067	10,195.3	65.4805	10,195.3	60.244	10,195.3	56.7099	10,195.3	55.3944	10,195.3	58.0327	10,195.3	54.7453	10,195.3	61.9613	10,195.3	49.0147	10,195.3	49.9765	10,195.3	54.4706	10,195.3	23.9503	10,195.3	57.2777	10,195.3	44.6332	10,195.3	44.4342	10,195.3	51.3278	10,195.3	56.3927	10,195.3	46.8304	10,195.3	32.245	10,195.3	48.6284	10,195.3	55.7275
10,555.7	85.9967	10,555.7	86.0392	10,555.7	86.054	10,555.7	84.4159	10,555.7	85.2645	10,555.7	81.4852	10,555.7	82.0954	10,555.7	77.751	10,555.7	78.7494	10,555.7	74.5514	10,555.7	75.6681	10,555.7	72.1383	10,555.7	71.6518	10,555.7	68.2861	10,555.7	66.7147	10,555.7	63.5202	10,555.7	63.0371	10,555.7	60.7273	10,555.7	57.4548	10,555.7	52.0482	10,555.7	54.872	10,555.7	55.7254	10,555.7	63.9375	10,555.7	48.2374	10,555.7	48.1035	10,555.7	54.6956	10,555.7	40.5409	10,555.7	55.128	10,555.7	48.2703	10,555.7	45.5141	10,555.7	47.4837	10,555.7	54.1518	10,555.7	49.9594	10,555.7	38.0249	10,555.7	50.4906	10,555.7	53.5275
10,927.7	86.2053	10,927.7	85.6231	10,927.7	86.3303	10,927.7	84.0163	10,927.7	84.9568	10,927.7	81.3586	10,927.7	81.682	10,927.7	78.123	10,927.7	78.6655	10,927.7	74.6324	10,927.7	75.3187	10,927.7	70.3939	10,927.7	70.6073	10,927.7	67.69	10,927.7	65.361	10,927.7	62.0746	10,927.7	59.9634	10,927.7	60.1519	10,927.7	54.7684	10,927.7	51.4887	10,927.7	58.0345	10,927.7	53.3787	10,927.7	63.6899	10,927.7	47.1434	10,927.7	46.8855	10,927.7	55.014	10,927.7	44.139	10,927.7	52.8169	10,927.7	46.2646	10,927.7	45.7982	10,927.7	49.1578	10,927.7	53.1367	10,927.7	46.797	10,927.7	42.3948	10,927.7	45.2282	10,927.7	51.1782
11,314.5	86.4773	11,314.5	85.4902	11,314.5	86.4063	11,314.5	83.8803	11,314.5	84.4792	11,314.5	81.3638	11,314.5	81.3752	11,314.5	78.4928	11,314.5	78.6875	11,314.5	73.6583	11,314.5	74.6063	11,314.5	68.861	11,314.5	69.4253	11,314.5	65.7607	11,314.5	63.002	11,314.5	62.0741	11,314.5	57.8375	11,314.5	60.3195	11,314.5	57.7743	11,314.5	53.1217	11,314.5	61.5147	11,314.5	50.5941	11,314.5	63.5339	11,314.5	50.2033	11,314.5	42.0307	11,314.5	54.7192	11,314.5	49.4469	11,314.5	51.7541	11,314.5	42.0352	11,314.5	48.84	11,314.5	49.2373	11,314.5	53.9289	11,314.5	43.44	11,314.5	42.8349	11,314.5	40.2779	11,314.5	48.6497
11,712.9	86.7072	11,712.9	85.5149	11,712.9	86.139	11,712.9	83.5319	11,712.9	83.6849	11,712.9	80.8806	11,712.9	81.0605	11,712.9	77.9012	11,712.9	78.2109	11,712.9	71.4989	11,712.9	72.7943	11,712.9	66.3278	11,712.9	66.345	11,712.9	67.0109	11,712.9	60.9733	11,712.9	62.6696	11,712.9	62.7937	11,712.9	60.0925	11,712.9	57.9768	11,712.9	53.4846	11,712.9	63.1799	11,712.9	50.658	11,712.9	65.2792	11,712.9	51.0446	11,712.9	42.8112	11,712.9	53.2034	11,712.9	45.9545	11,712.9	51.1162	11,712.9	48.0174	11,712.9	48.4344	11,712.9	48.683	11,712.9	51.8916	11,712.9	43.843	11,712.9	41.0635	11,712.9	44.6305	11,712.9	45.7904
12,126	87.1995	12,126	85.5487	12,126	85.8913	12,126	82.8281	12,126	82.9939	12,126	80.2201	12,126	80.8599	12,126	76.8668	12,126	77.4706	12,126	70.3254	12,126	71.3551	12,126	68.6619	12,126	66.9911	12,126	68.2361	12,126	67.7565	12,126	64.0315	12,126	63.5463	12,126	58.3147	12,126	59.1012	12,126	54.4336	12,126	63.8229	12,126	47.9179	12,126	65.3064	12,126	50.1263	12,126	45.3692	12,126	51.011	12,126	51.1049	12,126	50.2634	12,126	47.2176	12,126	46.5715	12,126	44.8671	12,126	48.175	12,126	34.5594	12,126	38.33	12,126	46.6342	12,126	43.8831
12,553.7	87.3827	12,553.7	85.2444	12,553.7	85.9576	12,553.7	82.4244	12,553.7	82.8334	12,553.7	80.0695	12,553.7	80.711	12,553.7	76.1167	12,553.7	77.004	12,553.7	71.3665	12,553.7	72.6588	12,553.7	70.9146	12,553.7	68.9534	12,553.7	67.8801	12,553.7	69.5223	12,553.7	64.219	12,553.7	63.1345	12,553.7	56.5717	12,553.7	58.8497	12,553.7	53.9154	12,553.7	64.0845	12,553.7	49.5823	12,553.7	64.7287	12,553.7	49.2344	12,553.7	47.3963	12,553.7	51.0059	12,553.7	52.5	12,553.7	50.5389	12,553.7	48.8483	12,553.7	43.2216	12,553.7	47.8657	12,553.7	44.7911	12,553.7	40.1827	12,553.7	40.669	12,553.7	45.9458	12,553.7	43.2736
12,996.1	86.861	12,996.1	84.7339	12,996.1	85.5263	12,996.1	82.1575	12,996.1	82.7893	12,996.1	79.5327	12,996.1	80.2378	12,996.1	75.1271	12,996.1	76.2261	12,996.1	72.4022	12,996.1	73.4026	12,996.1	70.9122	12,996.1	69.1753	12,996.1	67.4153	12,996.1	68.089	12,996.1	63.8803	12,996.1	58.0067	12,996.1	56.7492	12,996.1	59.0807	12,996.1	52.9965	12,996.1	63.9406	12,996.1	51.8779	12,996.1	66.0364	12,996.1	43.7569	12,996.1	49.5554	12,996.1	53.7793	12,996.1	45.0388	12,996.1	50.7293	12,996.1	49.9773	12,996.1	43.3751	12,996.1	50.2052	12,996.1	42.5745	12,996.1	47.2845	12,996.1	43.6539	12,996.1	50.2083	12,996.1	47.8627
13,453.1	86.1041	13,453.1	84.551	13,453.1	84.7132	13,453.1	82.0987	13,453.1	82.4791	13,453.1	79.0162	13,453.1	79.2996	13,453.1	74.7098	13,453.1	75.9185	13,453.1	72.4357	13,453.1	74.6595	13,453.1	69.6296	13,453.1	67.8258	13,453.1	67.0082	13,453.1	66.6624	13,453.1	64.3326	13,453.1	61.4272	13,453.1	57.1626	13,453.1	59.0332	13,453.1	52.8975	13,453.1	64.0646	13,453.1	50.4147	13,453.1	66.8031	13,453.1	43.1134	13,453.1	46.761	13,453.1	55.3253	13,453.1	50.3395	13,453.1	51.5689	13,453.1	50.8413	13,453.1	46.4731	13,453.1	51.7245	13,453.1	44.3684	13,453.1	48.7071	13,453.1	44.8428	13,453.1	49.272	13,453.1	47.9902
13,927.7	85.3735	13,927.7	84.368	13,927.7	84.1774	13,927.7	82.1994	13,927.7	82.3209	13,927.7	78.586	13,927.7	78.9271	13,927.7	75.0576	13,927.7	75.8948	13,927.7	71.0117	13,927.7	73.8633	13,927.7	67.3292	13,927.7	66.1098	13,927.7	67.2012	13,927.7	64.5558	13,927.7	63.771	13,927.7	65.4551	13,927.7	55.0608	13,927.7	57.664	13,927.7	51.0882	13,927.7	64.6596	13,927.7	46.5744	13,927.7	68.0456	13,927.7	45.1528	13,927.7	40.3503	13,927.7	54.5807	13,927.7	53.3063	13,927.7	50.318	13,927.7	53.4264	13,927.7	49.7284	13,927.7	54.0253	13,927.7	48.6004	13,927.7	48.3959	13,927.7	48.1285	13,927.7	47.8147	13,927.7	46.6216
14,419.9	84.7745	14,419.9	84.0176	14,419.9	83.8657	14,419.9	82.15	14,419.9	82.2296	14,419.9	78.2838	14,419.9	78.7891	14,419.9	74.7282	14,419.9	75.7517	14,419.9	69.5407	14,419.9	72.5074	14,419.9	66.4545	14,419.9	64.8918	14,419.9	66.6057	14,419.9	66.7244	14,419.9	62.6125	14,419.9	63.2347	14,419.9	54.6529	14,419.9	58.7899	14,419.9	51.3804	14,419.9	65.1464	14,419.9	44.3061	14,419.9	68.2558	14,419.9	45.5104	14,419.9	44.528	14,419.9	53.3441	14,419.9	51.7063	14,419.9	48.5947	14,419.9	53.0986	14,419.9	51.0899	14,419.9	53.4422	14,419.9	48.6075	14,419.9	48.197	14,419.9	50.2594	14,419.9	47.9981	14,419.9	49.1034
14,929.7	84.1901	14,929.7	83.6571	14,929.7	83.891	14,929.7	81.7952	14,929.7	82.0959	14,929.7	77.9651	14,929.7	78.5051	14,929.7	73.897	14,929.7	75.5791	14,929.7	68.6281	14,929.7	72.2777	14,929.7	65.4714	14,929.7	69.3535	14,929.7	65.0143	14,929.7	66.3247	14,929.7	62.6377	14,929.7	63.2044	14,929.7	53.966	14,929.7	59.1869	14,929.7	50.6718	14,929.7	63.5311	14,929.7	43.291	14,929.7	67.2101	14,929.7	46.6502	14,929.7	39.8398	14,929.7	51.377	14,929.7	53.0991	14,929.7	44.9494	14,929.7	54.4177	14,929.7	52.778	14,929.7	54.8288	14,929.7	53.0112	14,929.7	46.8856	14,929.7	51.9787	14,929.7	44.1198	14,929.7	49.659
15,454.1	84.0416	15,454.1	83.7871	15,454.1	84.0718	15,454.1	81.6643	15,454.1	82.3575	15,454.1	78.0997	15,454.1	79.0149	15,454.1	72.9499	15,454.1	75.777	15,454.1	69.1916	15,454.1	71.806	15,454.1	63.8207	15,454.1	67.2728	15,454.1	64.6569	15,454.1	62.1456	15,454.1	61.6495	15,454.1	61.642	15,454.1	53.5878	15,454.1	55.9051	15,454.1	50.6834	15,454.1	63.7053	15,454.1	40.3993	15,454.1	66.5387	15,454.1	43.534	15,454.1	38.4914	15,454.1	51.4986	15,454.1	52.1217	15,454.1	46.6556	15,454.1	54.2539	15,454.1	52.4294	15,454.1	53.7703	15,454.1	54.3107	15,454.1	41.3243	15,454.1	52.6927	15,454.1	47.1693	15,454.1	50.6039
15,999	83.5864	15,999	83.589	15,999	83.8477	15,999	81.2959	15,999	82.3295	15,999	77.9987	15,999	79.1712	15,999	72.7648	15,999	75.1909	15,999	68.1647	15,999	70.1108	15,999	63.9844	15,999	64.7834	15,999	63.993	15,999	63.5815	15,999	60.4805	15,999	58.8484	15,999	52.5011	15,999	54.4303	15,999	51.109	15,999	62.0007	15,999	44.9485	15,999	64.5925	15,999	47.0928	15,999	37.6053	15,999	53.2651	15,999	53.4546	15,999	48.624	15,999	54.0651	15,999	53.2659	15,999	56.4624	15,999	54.335	15,999	45.5609	15,999	53.9284	15,999	52.9044	15,999	56.1556
16,564.5	82.9956	16,564.5	83.2289	16,564.5	82.802	16,564.5	81.2784	16,564.5	81.2074	16,564.5	78.3682	16,564.5	78.4657	16,564.5	73.4036	16,564.5	73.9782	16,564.5	66.7747	16,564.5	68.7214	16,564.5	63.5038	16,564.5	62.4266	16,564.5	61.3246	16,564.5	60.8868	16,564.5	58.3086	16,564.5	56.2584	16,564.5	49.145	16,564.5	47.9424	16,564.5	46.5767	16,564.5	59.2857	16,564.5	47.903	16,564.5	62.0006	16,564.5	49.8176	16,564.5	38.8093	16,564.5	53.1442	16,564.5	53.3562	16,564.5	47.9638	16,564.5	55.4526	16,564.5	52.4077	16,564.5	55.4728	16,564.5	52.8389	16,564.5	49.0857	16,564.5	54.6684	16,564.5	55.8526	16,564.5	57.4538
17,147.5	86.539	17,147.5	86.2333	17,147.5	85.766	17,147.5	83.3	17,147.5	82.7608	17,147.5	78.3886	17,147.5	78.7391	17,147.5	70.9858	17,147.5	70.5591	17,147.5	61.9464	17,147.5	59.4464	17,147.5	56.6258	17,147.5	58.3336	17,147.5	61.0201	17,147.5	57.5476	17,147.5	59.2141	17,147.5	47.2513	17,147.5	49.857	17,147.5	46.584	17,147.5	51.1887	17,147.5	58.2786	17,147.5	52.7111	17,147.5	59.4882	17,147.5	55.6196	17,147.5	35.7641	17,147.5	56.0109	17,147.5	51.5341	17,147.5	49.0352	17,147.5	56.7438	17,147.5	54.6444	17,147.5	52.6051	17,147.5	57.9142	17,147.5	52.7559	17,147.5	55.0547	17,147.5	58.8901	17,147.5	59.9883
17,753.9	86.0749	17,753.9	85.3315	17,753.9	84.9409	17,753.9	81.7543	17,753.9	81.1332	17,753.9	75.1076	17,753.9	76.0526	17,753.9	67.2951	17,753.9	64.6371	17,753.9	61.7474	17,753.9	56.6192	17,753.9	56.7533	17,753.9	47.5067	17,753.9	63.716	17,753.9	53.7535	17,753.9	61.367	17,753.9	58.4054	17,753.9	50.7035	17,753.9	54.0817	17,753.9	54.9548	17,753.9	57.3136	17,753.9	55.2794	17,753.9	56.1573	17,753.9	57.5578	17,753.9	38.1575	17,753.9	57.6874	17,753.9	52.7239	17,753.9	49.9726	17,753.9	56.2897	17,753.9	58.1951	17,753.9	50.4156	17,753.9	59.528	17,753.9	53.718	17,753.9	56.9102	17,753.9	58.4791	17,753.9	61.0667
18,377.9	85.3902	18,377.9	84.5994	18,377.9	84.0385	18,377.9	80.5382	18,377.9	79.8244	18,377.9	72.4176	18,377.9	73.3397	18,377.9	65.7242	18,377.9	65.2725	18,377.9	60.6712	18,377.9	55.5207	18,377.9	60.3178	18,377.9	48.6107	18,377.9	64.179	18,377.9	59.4887	18,377.9	61.58	18,377.9	57.7219	18,377.9	50.0203	18,377.9	56.8626	18,377.9	56.6993	18,377.9	58.6694	18,377.9	56.1074	18,377.9	56.0195	18,377.9	57.7156	18,377.9	38.0148	18,377.9	58.1816	18,377.9	50.9176	18,377.9	50.0347	18,377.9	56.424	18,377.9	59.9763	18,377.9	51.6209	18,377.9	60.1399	18,377.9	55.18	18,377.9	57.7191	18,377.9	57.824	18,377.9	60.6513
19,028.3	84.7254	19,028.3	83.7925	19,028.3	83.2384	19,028.3	78.907	19,028.3	78.252	19,028.3	70.517	19,028.3	70.5486	19,028.3	65.421	19,028.3	64.025	19,028.3	58.7487	19,028.3	61.0494	19,028.3	60.7899	19,028.3	55.5115	19,028.3	63.6399	19,028.3	59.7685	19,028.3	60.7478	19,028.3	56.7385	19,028.3	49.6262	19,028.3	55.5613	19,028.3	57.0754	19,028.3	59.0076	19,028.3	56.5603	19,028.3	55.8675	19,028.3	57.2785	19,028.3	35.9612	19,028.3	57.6888	19,028.3	51.191	19,028.3	48.9462	19,028.3	57.0857	19,028.3	60.4613	19,028.3	50.4869	19,028.3	60.4576	19,028.3	54.2461	19,028.3	58.7016	19,028.3	56.9071	19,028.3	60.4265
19,699.2	84.1592	19,699.2	82.883	19,699.2	82.5407	19,699.2	77.2133	19,699.2	76.3717	19,699.2	68.4809	19,699.2	69.0433	19,699.2	64.6122	19,699.2	63.6959	19,699.2	57.4824	19,699.2	60.9767	19,699.2	59.4017	19,699.2	57.8103	19,699.2	61.2288	19,699.2	53.8445	19,699.2	57.9796	19,699.2	56.9102	19,699.2	51.0573	19,699.2	53.8349	19,699.2	56.2657	19,699.2	58.5433	19,699.2	55.3624	19,699.2	56.7476	19,699.2	55.9522	19,699.2	37.5221	19,699.2	56.0566	19,699.2	49.5212	19,699.2	44.3607	19,699.2	56.1169	19,699.2	59.9872	19,699.2	45.0233	19,699.2	58.8506	19,699.2	52.2033	19,699.2	59.8418	19,699.2	54.7954	19,699.2	60.6663
19,998	83.5881	19,998	82.2143	19,998	81.8513	19,998	76.4932	19,998	75.7292	19,998	67.1145	19,998	68.9178	19,998	64.0578	19,998	64.4765	19,998	56.0539	19,998	61.1116	19,998	60.4417	19,998	58.679	19,998	59.8376	19,998	54.1251	19,998	57.2706	19,998	55.7088	19,998	51.9249	19,998	55.8104	19,998	55.0537	19,998	57.0077	19,998	54.9629	19,998	55.1187	19,998	56.0499	19,998	46.9527	19,998	53.9067	19,998	45.6203	19,998	49.0355	19,998	54.6178	19,998	60.4179	19,998	46.1154	19,998	57.8748	19,998	52.603	19,998	60.2898	19,998	52.9906	19,998	61.0363
