"SPL Vertical"																																																																							
"On-Axis"		"10°"		"-10°"		"20°"		"-20°"		"30°"		"-30°"		"40°"		"-40°"		"50°"		"-50°"		"60°"		"-60°"		"70°"		"-70°"		"80°"		"-80°"		"90°"		"-90°"		"100°"		"-100°"		"110°"		"-110°"		"120°"		"-120°"		"130°"		"-130°"		"140°"		"-140°"		"150°"		"-150°"		"160°"		"-160°"		"170°"		"-170°"		"180°"	
"Frequency [Hz]"	"Sound Pessure Level [dB]  / [2.83V 1m] "	"Frequency [Hz]"	"Sound Pessure Level [dB]  / [2.83V 1m] "	"Frequency [Hz]"	"Sound Pessure Level [dB]  / [2.83V 1m] "	"Frequency [Hz]"	"Sound Pessure Level [dB]  / [2.83V 1m] "	"Frequency [Hz]"	"Sound Pessure Level [dB]  / [2.83V 1m] "	"Frequency [Hz]"	"Sound Pessure Level [dB]  / [2.83V 1m] "	"Frequency [Hz]"	"Sound Pessure Level [dB]  / [2.83V 1m] "	"Frequency [Hz]"	"Sound Pessure Level [dB]  / [2.83V 1m] "	"Frequency [Hz]"	"Sound Pessure Level [dB]  / [2.83V 1m] "	"Frequency [Hz]"	"Sound Pessure Level [dB]  / [2.83V 1m] "	"Frequency [Hz]"	"Sound Pessure Level [dB]  / [2.83V 1m] "	"Frequency [Hz]"	"Sound Pessure Level [dB]  / [2.83V 1m] "	"Frequency [Hz]"	"Sound Pessure Level [dB]  / [2.83V 1m] "	"Frequency [Hz]"	"Sound Pessure Level [dB]  / [2.83V 1m] "	"Frequency [Hz]"	"Sound Pessure Level [dB]  / [2.83V 1m] "	"Frequency [Hz]"	"Sound Pessure Level [dB]  / [2.83V 1m] "	"Frequency [Hz]"	"Sound Pessure Level [dB]  / [2.83V 1m] "	"Frequency [Hz]"	"Sound Pessure Level [dB]  / [2.83V 1m] "	"Frequency [Hz]"	"Sound Pessure Level [dB]  / [2.83V 1m] "	"Frequency [Hz]"	"Sound Pessure Level [dB]  / [2.83V 1m] "	"Frequency [Hz]"	"Sound Pessure Level [dB]  / [2.83V 1m] "	"Frequency [Hz]"	"Sound Pessure Level [dB]  / [2.83V 1m] "	"Frequency [Hz]"	"Sound Pessure Level [dB]  / [2.83V 1m] "	"Frequency [Hz]"	"Sound Pessure Level [dB]  / [2.83V 1m] "	"Frequency [Hz]"	"Sound Pessure Level [dB]  / [2.83V 1m] "	"Frequency [Hz]"	"Sound Pessure Level [dB]  / [2.83V 1m] "	"Frequency [Hz]"	"Sound Pessure Level [dB]  / [2.83V 1m] "	"Frequency [Hz]"	"Sound Pessure Level [dB]  / [2.83V 1m] "	"Frequency [Hz]"	"Sound Pessure Level [dB]  / [2.83V 1m] "	"Frequency [Hz]"	"Sound Pessure Level [dB]  / [2.83V 1m] "	"Frequency [Hz]"	"Sound Pessure Level [dB]  / [2.83V 1m] "	"Frequency [Hz]"	"Sound Pessure Level [dB]  / [2.83V 1m] "	"Frequency [Hz]"	"Sound Pessure Level [dB]  / [2.83V 1m] "	"Frequency [Hz]"	"Sound Pessure Level [dB]  / [2.83V 1m] "	"Frequency [Hz]"	"Sound Pessure Level [dB]  / [2.83V 1m] "	"Frequency [Hz]"	"Sound Pessure Level [dB]  / [2.83V 1m] "
20.5078	48.2544	20.5078	46.9857	20.5078	49.0874	20.5078	45.2302	20.5078	49.5264	20.5078	43.0913	20.5078	49.5795	20.5078	41.5667	20.5078	49.2161	20.5078	42.6447	20.5078	48.3548	20.5078	45.484	20.5078	46.835	20.5078	48.3025	20.5078	44.38	20.5078	50.6825	20.5078	40.9496	20.5078	52.6537	20.5078	40.4575	20.5078	54.2931	20.5078	44.9613	20.5078	55.6597	20.5078	49.0076	20.5078	56.7918	20.5078	52.0101	20.5078	57.7118	20.5078	54.2691	20.5078	58.4303	20.5078	55.9874	20.5078	58.9495	20.5078	57.2831	20.5078	59.265	20.5078	58.2284	20.5078	59.3671	20.5078	58.8703	20.5078	59.2417
21.9727	50.1837	21.9727	49.0128	21.9727	50.9766	21.9727	47.4669	21.9727	51.4107	21.9727	45.7431	21.9727	51.4883	21.9727	44.708	21.9727	51.1847	21.9727	45.6163	21.9727	50.4419	21.9727	47.9399	21.9727	49.1648	21.9727	50.4262	21.9727	47.269	21.9727	52.6264	21.9727	45.1217	21.9727	54.4947	21.9727	44.9631	21.9727	56.0695	21.9727	47.872	21.9727	57.3922	21.9727	51.1881	21.9727	58.4927	21.9727	53.9135	21.9727	59.389	21.9727	56.0484	21.9727	60.0898	21.9727	57.702	21.9727	60.5962	21.9727	58.9606	21.9727	60.9033	21.9727	59.8834	21.9727	61.0016	21.9727	60.5122	21.9727	60.8772
23.4375	52.2658	23.4375	51.2031	23.4375	52.9982	23.4375	49.8148	23.4375	53.4133	23.4375	48.2346	23.4375	53.5123	23.4375	47.0413	23.4375	53.2766	23.4375	47.3119	23.4375	52.6635	23.4375	49.126	23.4375	51.6048	23.4375	51.4245	23.4375	50.0306	23.4375	53.5804	23.4375	48.0657	23.4375	55.4477	23.4375	46.8718	23.4375	57.0307	23.4375	48.3906	23.4375	58.3598	23.4375	51.3859	23.4375	59.4612	23.4375	54.1738	23.4375	60.3519	23.4375	56.4286	23.4375	61.0396	23.4375	58.196	23.4375	61.5248	23.4375	59.5534	23.4375	61.802	23.4375	60.5609	23.4375	61.8609	23.4375	61.2617	23.4375	61.687
24.9023	54.0196	24.9023	53.1495	24.9023	54.6465	24.9023	52.0925	24.9023	55.0136	24.9023	51.0294	24.9023	55.1103	24.9023	50.385	24.9023	54.9197	24.9023	50.6919	24.9023	54.4168	24.9023	51.9803	24.9023	53.5775	24.9023	53.7389	24.9023	52.4253	24.9023	55.5325	24.9023	51.1979	24.9023	57.1761	24.9023	50.6665	24.9023	58.6191	24.9023	51.6986	24.9023	59.8575	24.9023	53.8297	24.9023	60.8981	24.9023	56.0932	24.9023	61.747	24.9023	58.0751	24.9023	62.4058	24.9023	59.6966	24.9023	62.8716	24.9023	60.9724	24.9023	63.1371	24.9023	61.9332	24.9023	63.1914	24.9023	62.6079	24.9023	63.0206
26.3672	55.8568	26.3672	55.1078	26.3672	56.4085	26.3672	54.2229	26.3672	56.7381	26.3672	53.3558	26.3672	56.8305	26.3672	52.814	26.3672	56.67	26.3672	52.9709	26.3672	56.2386	26.3672	53.9195	26.3672	55.5261	26.3672	55.36	26.3672	54.569	26.3672	56.9369	26.3672	53.5633	26.3672	58.4462	26.3672	53.0495	26.3672	59.8055	26.3672	53.6879	26.3672	60.9894	26.3672	55.3556	26.3672	61.9924	26.3672	57.3394	26.3672	62.8137	26.3672	59.1828	26.3672	63.4513	26.3672	60.738	26.3672	63.9001	26.3672	61.9825	26.3672	64.152	26.3672	62.9302	26.3672	64.1956	26.3672	63.6018	26.3672	64.0176
27.832	57.3312	27.832	56.6731	27.832	57.8237	27.832	55.9147	27.832	58.1202	27.832	55.1969	27.832	58.203	27.832	54.7686	27.832	58.058	27.832	54.911	27.832	57.6739	27.832	55.7076	27.832	57.0544	27.832	56.9559	27.832	56.255	27.832	58.374	27.832	55.4706	27.832	59.7711	27.832	55.1341	27.832	61.0546	27.832	55.7094	27.832	62.1873	27.832	57.1242	27.832	63.1554	27.832	58.8674	27.832	63.9527	27.832	60.5469	27.832	64.5742	27.832	61.999	27.832	65.0131	27.832	63.1792	27.832	65.2604	27.832	64.0864	27.832	65.305	27.832	64.7329	27.832	65.134
29.2969	58.9443	29.2969	58.382	29.2969	59.3774	29.2969	57.7562	29.2969	59.6473	29.2969	57.1887	29.2969	59.7342	29.2969	56.8689	29.2969	59.6254	29.2969	56.9952	29.2969	59.3156	29.2969	57.6367	29.2969	58.8171	29.2969	58.6716	29.2969	58.1891	29.2969	59.8959	29.2969	57.5944	29.2969	61.1448	29.2969	57.3453	29.2969	62.322	29.2969	57.7706	29.2969	63.3795	29.2969	58.8802	29.2969	64.294	29.2969	60.3464	29.2969	65.0529	29.2969	61.8386	29.2969	65.6469	29.2969	63.1763	29.2969	66.0666	29.2969	64.2885	29.2969	66.3018	29.2969	65.1559	29.2969	66.3409	29.2969	65.7804	29.2969	66.1713
30.7617	60.1711	30.7617	59.6753	30.7617	60.5592	30.7617	59.1361	30.7617	60.8039	30.7617	58.6634	30.7617	60.8841	30.7617	58.4151	30.7617	60.7875	30.7617	58.5487	30.7617	60.5108	30.7617	59.1214	30.7617	60.07	30.7617	60.0455	30.7617	59.5253	30.7617	61.1583	30.7617	59.0249	30.7617	62.3156	30.7617	58.8327	30.7617	63.4239	30.7617	59.2181	30.7617	64.431	30.7617	60.2047	30.7617	65.309	30.7617	61.5378	30.7617	66.0414	30.7617	62.9287	30.7617	66.6161	30.7617	64.1996	30.7617	67.022	30.7617	65.2706	30.7617	67.2478	30.7617	66.114	30.7617	67.2817	30.7617	66.7257	30.7617	67.1116
32.2266	61.4037	32.2266	61.0061	32.2266	61.7251	32.2266	60.597	32.2266	61.9311	32.2266	60.275	32.2266	61.9991	32.2266	60.164	32.2266	61.9181	32.2266	60.3719	32.2266	61.6909	32.2266	60.9281	32.2266	61.3437	32.2266	61.7646	32.2266	60.9473	32.2266	62.762	32.2266	60.6439	32.2266	63.8081	32.2266	60.6419	32.2266	64.8229	32.2266	61.1128	32.2266	65.7569	32.2266	62.042	32.2266	66.58	32.2266	63.2374	32.2266	67.2728	32.2266	64.4832	32.2266	67.8208	32.2266	65.634	32.2266	68.2113	32.2266	66.6147	32.2266	68.4321	32.2266	67.3933	32.2266	68.4712	32.2266	67.9603	32.2266	68.3172
33.6914	62.8556	33.6914	62.5307	33.6914	63.1261	33.6914	62.2092	33.6914	63.305	33.6914	61.9733	33.6914	63.3705	33.6914	61.9191	33.6914	63.3137	33.6914	62.1267	33.6914	63.1404	33.6914	62.6198	33.6914	62.8795	33.6914	63.352	33.6914	62.5976	33.6914	64.2348	33.6914	62.4133	33.6914	65.1769	33.6914	62.4837	33.6914	66.1066	33.6914	62.9293	33.6914	66.9745	33.6914	63.7416	33.6914	67.7482	33.6914	64.7848	33.6914	68.4054	33.6914	65.8911	33.6914	68.9291	33.6914	66.9325	33.6914	69.3049	33.6914	67.8337	33.6914	69.5198	33.6914	68.5567	33.6914	69.5618	33.6914	69.0865	33.6914	69.4201
35.1563	64.317	35.1563	64.0445	35.1563	64.5504	35.1563	63.783	35.1563	64.7113	35.1563	63.5995	35.1563	64.78	35.1563	63.57	35.1563	64.7489	35.1563	63.7566	35.1563	64.625	35.1563	64.1815	35.1563	64.4353	35.1563	64.8151	35.1563	64.2372	35.1563	65.5917	35.1563	64.1253	35.1563	66.4363	35.1563	64.218	35.1563	67.2848	35.1563	64.6074	35.1563	68.0886	35.1563	65.2967	35.1563	68.8136	35.1563	66.1939	35.1563	69.4349	35.1563	67.1679	35.1563	69.9334	35.1563	68.1056	35.1563	70.2933	35.1563	68.9315	35.1563	70.5006	35.1563	69.6025	35.1563	70.5432	35.1563	70.0982	35.1563	70.4112
36.6211	65.518	36.6211	65.2949	36.6211	65.7161	36.6211	65.0919	36.6211	65.8576	36.6211	64.9666	36.6211	65.9238	36.6211	64.9808	36.6211	65.9079	36.6211	65.1826	36.6211	65.8173	36.6211	65.5879	36.6211	65.6783	36.6211	66.173	36.6211	65.5433	36.6211	66.8852	36.6211	65.4932	36.6211	67.6626	36.6211	65.6243	36.6211	68.4491	36.6211	66.0082	36.6211	69.2001	36.6211	66.647	36.6211	69.8822	36.6211	67.4677	36.6211	70.4702	36.6211	68.3621	36.6211	70.9441	36.6211	69.2309	36.6211	71.2874	36.6211	70.003	36.6211	71.4857	36.6211	70.635	36.6211	71.5269	36.6211	71.1043	36.6211	71.4016
38.0859	66.7272	38.0859	66.5446	38.0859	66.8945	38.0859	66.3863	38.0859	67.0182	38.0859	66.3009	38.0859	67.0812	38.0859	66.3384	38.0859	67.0777	38.0859	66.5378	38.0859	67.015	38.0859	66.9123	38.0859	66.9177	38.0859	67.4445	38.0859	66.8321	38.0859	68.0928	38.0859	66.8266	38.0859	68.8058	38.0859	66.9794	38.0859	69.534	38.0859	67.3474	38.0859	70.236	38.0859	67.9335	38.0859	70.8789	38.0859	68.6804	38.0859	71.437	38.0859	69.4986	38.0859	71.8895	38.0859	70.3006	38.0859	72.2189	38.0859	71.0197	38.0859	72.4106	38.0859	71.6127	38.0859	72.4525	38.0859	72.0549	38.0859	72.3354
39.5508	67.9704	39.5508	67.8203	39.5508	68.1121	39.5508	67.696	39.5508	68.2205	39.5508	67.6383	39.5508	68.2804	39.5508	67.6885	39.5508	68.2868	39.5508	67.8784	39.5508	68.2473	39.5508	68.2201	39.5508	68.1841	39.5508	68.701	39.5508	68.1377	39.5508	69.2888	39.5508	68.166	39.5508	69.9405	39.5508	68.3322	39.5508	70.6127	39.5508	68.682	39.5508	71.267	39.5508	69.2183	39.5508	71.8713	39.5508	69.8961	39.5508	72.3998	39.5508	70.6411	39.5508	72.831	39.5508	71.3772	39.5508	73.1471	39.5508	72.0425	39.5508	73.333	39.5508	72.5945	39.5508	73.3766	39.5508	73.0076	39.5508	73.2694
41.0156	69.3144	41.0156	69.193	41.0156	69.4339	41.0156	69.0979	41.0156	69.5302	41.0156	69.0621	41.0156	69.5906	41.0156	69.1185	41.0156	69.6112	41.0156	69.2926	41.0156	69.5986	41.0156	69.5953	41.0156	69.5721	41.0156	70.019	41.0156	69.5651	41.0156	70.5393	41.0156	69.6231	41.0156	71.1222	41.0156	69.7951	41.0156	71.7307	41.0156	70.1165	41.0156	72.3298	41.0156	70.5915	41.0156	72.8893	41.0156	71.1874	41.0156	73.3833	41.0156	71.8464	41.0156	73.7899	41.0156	72.5041	41.0156	74.0908	41.0156	73.1047	41.0156	74.2706	41.0156	73.607	41.0156	74.3171	41.0156	73.9843	41.0156	74.2226
42.4805	70.2478	42.4805	70.1442	42.4805	70.355	42.4805	70.0712	42.4805	70.4449	42.4805	70.0592	42.4805	70.5043	42.4805	70.1375	42.4805	70.5288	42.4805	70.328	42.4805	70.5237	42.4805	70.6384	42.4805	70.5071	42.4805	71.0604	42.4805	70.5104	42.4805	71.571	42.4805	70.5763	42.4805	72.1385	42.4805	70.7509	42.4805	72.7285	42.4805	71.0671	42.4805	73.3084	42.4805	71.5289	42.4805	73.849	42.4805	72.1065	42.4805	74.3251	42.4805	72.746	42.4805	74.7152	42.4805	73.3874	42.4805	75.0009	42.4805	73.9772	42.4805	75.1669	42.4805	74.4749	42.4805	75.2016	42.4805	74.8534	42.4805	75.0976
43.9453	71.5529	43.9453	71.4735	43.9453	71.6409	43.9453	71.425	43.9453	71.7203	43.9453	71.4319	43.9453	71.7801	43.9453	71.5174	43.9453	71.8166	43.9453	71.6987	43.9453	71.8348	43.9453	71.9826	43.9453	71.8497	43.9453	72.3631	43.9453	71.8867	43.9453	72.8225	43.9453	71.9796	43.9453	73.3353	43.9453	72.1632	43.9453	73.8723	43.9453	72.4622	43.9453	74.4044	43.9453	72.8801	43.9453	74.9044	43.9453	73.3944	43.9453	75.348	43.9453	73.9632	43.9453	75.714	43.9453	74.5368	43.9453	75.984	43.9453	75.0681	43.9453	76.143	43.9453	75.5196	43.9453	76.1794	43.9453	75.8645	43.9453	76.0868
45.4102	72.8345	45.4102	72.7661	45.4102	72.9103	45.4102	72.7232	45.4102	72.9794	45.4102	72.7263	45.4102	73.0329	45.4102	72.7952	45.4102	73.068	45.4102	72.9458	45.4102	73.0894	45.4102	73.1861	45.4102	73.1098	45.4102	73.514	45.4102	73.1503	45.4102	73.917	45.4102	73.2389	45.4102	74.3745	45.4102	73.4045	45.4102	74.8612	45.4102	73.6688	45.4102	75.3502	45.4102	74.0366	45.4102	75.8151	45.4102	74.4918	45.4102	76.2317	45.4102	75.0001	45.4102	76.5783	45.4102	75.5184	45.4102	76.8361	45.4102	76.0036	45.4102	76.9896	45.4102	76.4193	45.4102	77.0276	45.4102	76.7383	45.4102	76.9438
46.875	73.798	46.875	73.7228	46.875	73.8821	46.875	73.6742	46.875	73.9613	46.875	73.6721	46.875	74.0267	46.875	73.7356	46.875	74.0753	46.875	73.8799	46.875	74.1108	46.875	74.1126	46.875	74.1448	46.875	74.4315	46.875	74.1967	46.875	74.8245	46.875	74.2917	46.875	75.2716	46.875	74.4569	46.875	75.7484	46.875	74.7124	46.875	76.2285	46.875	75.0637	46.875	76.6863	46.875	75.4968	46.875	77.098	46.875	75.9805	46.875	77.4422	46.875	76.4743	46.875	77.7004	46.875	76.9369	46.875	77.8574	46.875	77.3328	46.875	77.9019	46.875	77.6355	46.875	77.8278
48.3398	74.6685	48.3398	74.6156	48.3398	74.7387	48.3398	74.5953	48.3398	74.8139	48.3398	74.6242	48.3398	74.8859	48.3398	74.7175	48.3398	74.9521	48.3398	74.8863	48.3398	75.0159	48.3398	75.1349	48.3398	75.0874	48.3398	75.4594	48.3398	75.183	48.3398	75.8482	48.3398	75.3232	48.3398	76.2832	48.3398	75.5282	48.3398	76.7426	48.3398	75.8114	48.3398	77.2033	48.3398	76.1735	48.3398	77.6423	48.3398	76.5997	48.3398	78.0378	48.3398	77.0622	48.3398	78.3701	48.3398	77.5261	48.3398	78.6217	48.3398	77.9557	48.3398	78.7783	48.3398	78.3204	48.3398	78.8291	48.3398	78.5964	48.3398	78.7684
51.2695	76.8334	51.2695	76.8057	51.2695	76.8804	51.2695	76.8071	51.2695	76.9386	51.2695	76.8481	51.2695	77.0027	51.2695	76.9383	51.2695	77.0707	51.2695	77.0848	51.2695	77.1447	51.2695	77.2909	51.2695	77.2311	51.2695	77.555	51.2695	77.3403	51.2695	77.87	51.2695	77.4847	51.2695	78.2243	51.2695	77.6767	51.2695	78.6025	51.2695	77.9244	51.2695	78.9867	51.2695	78.2279	51.2695	79.358	51.2695	78.5777	51.2695	79.6972	51.2695	78.9546	51.2695	79.986	51.2695	79.3332	51.2695	80.2081	51.2695	79.6859	51.2695	80.3495	51.2695	79.9867	51.2695	80.4002	51.2695	80.2146	51.2695	80.355
52.7344	77.7639	52.7344	77.7368	52.7344	77.8104	52.7344	77.7375	52.7344	77.8693	52.7344	77.7752	52.7344	77.9358	52.7344	77.8579	52.7344	78.008	52.7344	77.9922	52.7344	78.0874	52.7344	78.181	52.7344	78.179	52.7344	78.4231	52.7344	78.2909	52.7344	78.713	52.7344	78.4334	52.7344	79.0405	52.7344	78.6163	52.7344	79.392	52.7344	78.8465	52.7344	79.7511	52.7344	79.1245	52.7344	80.1003	52.7344	79.4427	52.7344	80.4212	52.7344	79.7851	52.7344	80.6964	52.7344	80.1297	52.7344	80.9096	52.7344	80.4517	52.7344	81.0473	52.7344	80.7269	52.7344	81.0997	52.7344	80.9351	52.7344	81.062
54.1992	78.5503	54.1992	78.5325	54.1992	78.5898	54.1992	78.5437	54.1992	78.6454	54.1992	78.591	54.1992	78.7129	54.1992	78.6809	54.1992	78.7905	54.1992	78.8183	54.1992	78.8792	54.1992	79.0052	54.1992	78.9827	54.1992	79.2402	54.1992	79.1074	54.1992	79.518	54.1992	79.2608	54.1992	79.8297	54.1992	79.4504	54.1992	80.1631	54.1992	79.6807	54.1992	80.5035	54.1992	79.9514	54.1992	80.8347	54.1992	80.2552	54.1992	81.1399	54.1992	80.5779	54.1992	81.4025	54.1992	80.9002	54.1992	81.6071	54.1992	81.1999	54.1992	81.7409	54.1992	81.4551	54.1992	81.7943	54.1992	81.6473	54.1992	81.7628
55.6641	79.4496	55.6641	79.4352	55.6641	79.4849	55.6641	79.4476	55.6641	79.5364	55.6641	79.4926	55.6641	79.6007	55.6641	79.5757	55.6641	79.6761	55.6641	79.7008	55.6641	79.7633	55.6641	79.8699	55.6641	79.8649	55.6641	80.082	55.6641	79.9858	55.6641	80.3332	55.6641	80.1321	55.6641	80.6161	55.6641	80.3097	55.6641	80.9201	55.6641	80.5222	55.6641	81.2325	55.6641	80.7695	55.6641	81.5384	55.6641	81.0456	55.6641	81.8222	55.6641	81.3385	55.6641	82.0679	55.6641	81.6314	55.6641	82.2609	55.6641	81.9042	55.6641	82.3886	55.6641	82.1368	55.6641	82.4416	55.6641	82.3116	55.6641	82.4156
58.5938	80.8716	58.5938	80.8621	58.5938	80.9028	58.5938	80.8782	58.5938	80.9527	58.5938	80.9236	58.5938	81.0187	58.5938	81.0016	58.5938	81.0994	58.5938	81.1149	58.5938	81.1948	58.5938	81.2645	58.5938	81.306	58.5938	81.4499	58.5938	81.4354	58.5938	81.6681	58.5938	81.5859	58.5938	81.9136	58.5938	81.7603	58.5938	82.1786	58.5938	81.9598	58.5938	82.4528	58.5938	82.1829	58.5938	82.7239	58.5938	82.4246	58.5938	82.9785	58.5938	82.6753	58.5938	83.2024	58.5938	82.9219	58.5938	83.3822	58.5938	83.1487	58.5938	83.5062	58.5938	83.3391	58.5938	83.5657	58.5938	83.4787	58.5938	83.5563
60.0586	81.4754	60.0586	81.4672	60.0586	81.5055	60.0586	81.4838	60.0586	81.555	60.0586	81.5281	60.0586	81.6218	60.0586	81.6027	60.0586	81.7046	60.0586	81.7095	60.0586	81.8029	60.0586	81.8494	60.0586	81.9171	60.0586	82.0217	60.0586	82.0486	60.0586	82.2241	60.0586	82.1989	60.0586	82.4518	60.0586	82.3695	60.0586	82.698	60.0586	82.5607	60.0586	82.9536	60.0586	82.7707	60.0586	83.2076	60.0586	82.9947	60.0586	83.4475	60.0586	83.2245	60.0586	83.6601	60.0586	83.4487	60.0586	83.8326	60.0586	83.6534	60.0586	83.9537	60.0586	83.824	60.0586	84.0153	60.0586	83.9473	60.0586	84.0129
62.9883	82.7257	62.9883	82.7201	62.9883	82.7532	62.9883	82.738	62.9883	82.8013	62.9883	82.7807	62.9883	82.8684	62.9883	82.8494	62.9883	82.9534	62.9883	82.945	62.9883	83.0553	62.9883	83.0677	62.9883	83.1732	62.9883	83.2169	62.9883	83.3066	62.9883	83.3907	62.9883	83.4549	62.9883	83.5859	62.9883	83.6176	62.9883	83.7975	62.9883	83.7932	62.9883	84.0184	62.9883	83.9794	62.9883	84.2397	62.9883	84.1721	62.9883	84.4512	62.9883	84.3648	62.9883	84.6413	62.9883	84.5491	62.9883	84.7988	62.9883	84.7144	62.9883	84.9136	62.9883	84.8494	62.9883	84.9779	62.9883	84.9433	62.9883	84.9877
64.4531	83.2248	64.4531	83.2196	64.4531	83.2519	64.4531	83.2372	64.4531	83.2999	64.4531	83.2784	64.4531	83.3677	64.4531	83.3437	64.4531	83.4542	64.4531	83.4334	64.4531	83.558	64.4531	83.5476	64.4531	83.6777	64.4531	83.6855	64.4531	83.812	64.4531	83.8457	64.4531	83.9595	64.4531	84.0255	64.4531	84.1184	64.4531	84.2204	64.4531	84.2869	64.4531	84.4247	64.4531	84.462	64.4531	84.6304	64.4531	84.6399	64.4531	84.8283	64.4531	84.8149	64.4531	85.0079	64.4531	84.9798	64.4531	85.1586	64.4531	85.1256	64.4531	85.2709	64.4531	85.2425	64.4531	85.3375	64.4531	85.3212	64.4531	85.3542
67.3828	84.0359	67.3828	84.0338	67.3828	84.06	67.3828	84.0534	67.3828	84.1062	67.3828	84.094	67.3828	84.174	67.3828	84.155	67.3828	84.2624	67.3828	84.236	67.3828	84.3696	67.3828	84.3362	67.3828	84.4934	67.3828	84.4549	67.3828	84.6308	67.3828	84.591	67.3828	84.7785	67.3828	84.7428	67.3828	84.9332	67.3828	84.9073	67.3828	85.0913	67.3828	85.0806	67.3828	85.2491	67.3828	85.2569	67.3828	85.4028	67.3828	85.4289	67.3828	85.5478	67.3828	85.5882	67.3828	85.6787	67.3828	85.7258	67.3828	85.7893	67.3828	85.8333	67.3828	85.8729	67.3828	85.9041	67.3828	85.9229	67.3828	85.9341
68.8477	84.2308	68.8477	84.2286	68.8477	84.255	68.8477	84.2479	68.8477	84.3018	68.8477	84.2874	68.8477	84.3708	68.8477	84.3463	68.8477	84.461	68.8477	84.4234	68.8477	84.5705	68.8477	84.518	68.8477	84.6965	68.8477	84.6291	68.8477	84.8355	68.8477	84.7557	68.8477	84.9836	68.8477	84.8963	68.8477	85.1366	68.8477	85.0488	68.8477	85.2905	68.8477	85.2097	68.8477	85.4411	68.8477	85.3741	68.8477	85.5846	68.8477	85.5356	68.8477	85.7168	68.8477	85.6868	68.8477	85.8331	68.8477	85.8193	68.8477	85.9284	68.8477	85.9255	68.8477	85.9972	68.8477	85.9988	68.8477	86.0342	68.8477	86.0354
71.7773	84.6483	71.7773	84.6452	71.7773	84.6735	71.7773	84.6628	71.7773	84.7219	71.7773	84.6993	71.7773	84.7934	71.7773	84.7529	71.7773	84.8869	71.7773	84.8218	71.7773	85.0002	71.7773	84.9046	71.7773	85.1297	71.7773	85.0003	71.7773	85.271	71.7773	85.108	71.7773	85.4187	71.7773	85.2266	71.7773	85.5676	71.7773	85.355	71.7773	85.7123	71.7773	85.4909	71.7773	85.848	71.7773	85.6313	71.7773	85.9707	71.7773	85.7714	71.7773	86.0769	71.7773	85.9057	71.7773	86.1634	71.7773	86.0275	71.7773	86.2275	71.7773	86.1302	71.7773	86.2663	71.7773	86.2083	71.7773	86.277	71.7773	86.2578
74.707	85.1513	74.707	85.1513	74.707	85.1726	74.707	85.1705	74.707	85.2168	74.707	85.2062	74.707	85.2841	74.707	85.2561	74.707	85.3736	74.707	85.3178	74.707	85.483	74.707	85.3894	74.707	85.6083	74.707	85.4696	74.707	85.7444	74.707	85.5575	74.707	85.8851	74.707	85.6527	74.707	86.0241	74.707	85.7547	74.707	86.1552	74.707	85.8625	74.707	86.2733	74.707	85.9745	74.707	86.3743	74.707	86.088	74.707	86.4553	74.707	86.1992	74.707	86.5148	74.707	86.3033	74.707	86.5519	74.707	86.3952	74.707	86.5662	74.707	86.4703	74.707	86.5572	74.707	86.525
77.6367	85.3253	77.6367	85.3274	77.6367	85.3436	77.6367	85.347	77.6367	85.384	77.6367	85.3814	77.6367	85.4472	77.6367	85.4273	77.6367	85.5323	77.6367	85.4821	77.6367	85.6369	77.6367	85.5436	77.6367	85.7568	77.6367	85.6102	77.6367	85.8865	77.6367	85.6812	77.6367	86.0195	77.6367	85.7563	77.6367	86.1489	77.6367	85.8358	77.6367	86.2681	77.6367	85.9197	77.6367	86.3717	77.6367	86.0079	77.6367	86.4555	77.6367	86.0993	77.6367	86.5172	77.6367	86.1917	77.6367	86.5561	77.6367	86.2817	77.6367	86.5725	77.6367	86.3656	77.6367	86.5676	77.6367	86.4393	77.6367	86.5427	77.6367	86.4993
79.1016	85.2943	79.1016	85.2957	79.1016	85.3129	79.1016	85.3143	79.1016	85.3534	79.1016	85.3469	79.1016	85.4166	79.1016	85.3902	79.1016	85.5015	79.1016	85.4413	79.1016	85.6058	79.1016	85.4978	79.1016	85.725	79.1016	85.5582	79.1016	85.8534	79.1016	85.6217	79.1016	85.9843	79.1016	85.6881	79.1016	86.1105	79.1016	85.7581	79.1016	86.2253	79.1016	85.8321	79.1016	86.3229	79.1016	85.9106	79.1016	86.3991	79.1016	85.9933	79.1016	86.4519	79.1016	86.0786	79.1016	86.4806	79.1016	86.1641	79.1016	86.4864	79.1016	86.2464	79.1016	86.4711	79.1016	86.3216	79.1016	86.4369	79.1016	86.3861
82.0313	85.4804	82.0313	85.4799	82.0313	85.5009	82.0313	85.4962	82.0313	85.5435	82.0313	85.5257	82.0313	85.609	82.0313	85.5648	82.0313	85.6965	82.0313	85.6099	82.0313	85.8031	82.0313	85.6585	82.0313	85.9242	82.0313	85.7085	82.0313	86.0533	82.0313	85.7592	82.0313	86.1833	82.0313	85.8108	82.0313	86.3062	82.0313	85.8641	82.0313	86.4148	82.0313	85.9207	82.0313	86.5028	82.0313	85.9822	82.0313	86.5659	82.0313	86.0495	82.0313	86.602	82.0313	86.123	82.0313	86.6113	82.0313	86.2014	82.0313	86.5959	82.0313	86.2823	82.0313	86.5592	82.0313	86.3626	82.0313	86.5052	82.0313	86.4383
84.9609	85.6511	84.9609	85.6488	84.9609	85.6742	84.9609	85.6639	84.9609	85.7207	84.9609	85.6923	84.9609	85.7914	84.9609	85.7295	84.9609	85.8853	84.9609	85.7718	84.9609	85.9993	84.9609	85.8159	84.9609	86.1279	84.9609	85.8597	84.9609	86.2644	84.9609	85.9021	84.9609	86.4003	84.9609	85.9435	84.9609	86.527	84.9609	85.9853	84.9609	86.6363	84.9609	86.0295	84.9609	86.7211	84.9609	86.079	84.9609	86.7767	84.9609	86.136	84.9609	86.8007	84.9609	86.2021	84.9609	86.7937	84.9609	86.2777	84.9609	86.7586	84.9609	86.3614	84.9609	86.7006	84.9609	86.4503	84.9609	86.6257	84.9609	86.5402
87.8906	85.4708	87.8906	85.4687	87.8906	85.4921	87.8906	85.4821	87.8906	85.5354	87.8906	85.5066	87.8906	85.6019	87.8906	85.5378	87.8906	85.6909	87.8906	85.5716	87.8906	85.7997	87.8906	85.6046	87.8906	85.9233	87.8906	85.6345	87.8906	86.0548	87.8906	85.6604	87.8906	86.1856	87.8906	85.6825	87.8906	86.3066	87.8906	85.7029	87.8906	86.4085	87.8906	85.7244	87.8906	86.4834	87.8906	85.7508	87.8906	86.5254	87.8906	85.7863	87.8906	86.532	87.8906	85.8344	87.8906	86.5039	87.8906	85.8971	87.8906	86.4455	87.8906	85.9749	87.8906	86.3638	87.8906	86.0657	87.8906	86.2675	87.8906	86.1654
90.8203	85.5121	90.8203	85.5095	90.8203	85.5324	90.8203	85.5206	90.8203	85.5732	90.8203	85.541	90.8203	85.6358	90.8203	85.5661	90.8203	85.7199	90.8203	85.5917	90.8203	85.8228	90.8203	85.6142	90.8203	85.9397	90.8203	85.6313	90.8203	86.0636	90.8203	85.642	90.8203	86.186	90.8203	85.6469	90.8203	86.2973	90.8203	85.6481	90.8203	86.388	90.8203	85.6494	90.8203	86.4499	90.8203	85.6555	90.8203	86.477	90.8203	85.6718	90.8203	86.4668	90.8203	85.7034	90.8203	86.4206	90.8203	85.7539	90.8203	86.3438	90.8203	85.8248	90.8203	86.2445	90.8203	85.915	90.8203	86.1331	90.8203	86.0202
95.2148	85.5132	95.2148	85.5114	95.2148	85.5316	95.2148	85.5221	95.2148	85.5697	95.2148	85.5403	95.2148	85.6291	95.2148	85.561	95.2148	85.7095	95.2148	85.5797	95.2148	85.8083	95.2148	85.5925	95.2148	85.9207	95.2148	85.5968	95.2148	86.0394	95.2148	85.5914	95.2148	86.1557	95.2148	85.5772	95.2148	86.2594	95.2148	85.5568	95.2148	86.3403	95.2148	85.5347	95.2148	86.3897	95.2148	85.517	95.2148	86.401	95.2148	85.5107	95.2148	86.3719	95.2148	85.5226	95.2148	86.3042	95.2148	85.5586	95.2148	86.2044	95.2148	85.6216	95.2148	86.0827	95.2148	85.7116	95.2148	85.9518	95.2148	85.8244
98.1445	85.4454	98.1445	85.4429	98.1445	85.4644	98.1445	85.4527	98.1445	85.5029	98.1445	85.4702	98.1445	85.5622	98.1445	85.4901	98.1445	85.642	98.1445	85.5077	98.1445	85.7396	98.1445	85.5188	98.1445	85.8502	98.1445	85.5204	98.1445	85.9668	98.1445	85.5111	98.1445	86.0803	98.1445	85.4915	98.1445	86.1808	98.1445	85.464	98.1445	86.2578	98.1445	85.4335	98.1445	86.3023	98.1445	85.4064	98.1445	86.3078	98.1445	85.3904	98.1445	86.2717	98.1445	85.3935	98.1445	86.196	98.1445	85.4224	98.1445	86.0876	98.1445	85.4813	98.1445	85.9575	98.1445	85.5706	98.1445	85.819	98.1445	85.686
101.074	85.3454	101.074	85.3443	101.074	85.3616	101.074	85.354	101.074	85.3958	101.074	85.3695	101.074	85.4499	101.074	85.3855	101.074	85.5235	101.074	85.3971	101.074	85.6144	101.074	85.4001	101.074	85.7179	101.074	85.3915	101.074	85.8271	101.074	85.3699	101.074	85.9331	101.074	85.3361	101.074	86.0259	101.074	85.2931	101.074	86.0948	101.074	85.2462	101.074	86.1307	101.074	85.2028	101.074	86.1268	101.074	85.1717	101.074	86.0805	101.074	85.162	101.074	85.994	101.074	85.1817	101.074	85.8743	101.074	85.2357	101.074	85.7331	101.074	85.3247	101.074	85.5847	101.074	85.4442
105.469	85.4268	105.469	85.4238	105.469	85.4448	105.469	85.4316	105.469	85.4807	105.469	85.4454	105.469	85.5357	105.469	85.4597	105.469	85.6094	105.469	85.4693	105.469	85.6995	105.469	85.4698	105.469	85.8011	105.469	85.4577	105.469	85.9076	105.469	85.4314	105.469	86.0101	105.469	85.3914	105.469	86.0984	105.469	85.3406	105.469	86.1622	105.469	85.2845	105.469	86.192	105.469	85.231	105.469	86.181	105.469	85.1897	105.469	86.1266	105.469	85.1708	105.469	86.0309	105.469	85.1834	105.469	85.9014	105.469	85.2335	105.469	85.7503	105.469	85.3224	105.469	85.593	105.469	85.4456
108.398	85.4397	108.398	85.4309	108.398	85.4638	108.398	85.4332	108.398	85.5058	108.398	85.4417	108.398	85.567	108.398	85.4511	108.398	85.6469	108.398	85.4561	108.398	85.743	108.398	85.4519	108.398	85.8506	108.398	85.435	108.398	85.9625	108.398	85.4037	108.398	86.0695	108.398	85.3583	108.398	86.1611	108.398	85.302	108.398	86.2262	108.398	85.2406	108.398	86.2548	108.398	85.1826	108.398	86.2399	108.398	85.1384	108.398	86.1784	108.398	85.119	108.398	86.0725	108.398	85.1345	108.398	85.9301	108.398	85.1914	108.398	85.764	108.398	85.2908	108.398	85.5907	108.398	85.4277
112.793	85.3444	112.793	85.3346	112.793	85.367	112.793	85.3336	112.793	85.4052	112.793	85.3368	112.793	85.4605	112.793	85.3389	112.793	85.5332	112.793	85.335	112.793	85.6215	112.793	85.3203	112.793	85.7219	112.793	85.2914	112.793	85.828	112.793	85.2466	112.793	85.931	112.793	85.1866	112.793	86.0203	112.793	85.1148	112.793	86.0839	112.793	85.0377	112.793	86.1107	112.793	84.9647	112.793	86.0921	112.793	84.9073	112.793	86.024	112.793	84.8782	112.793	85.908	112.793	84.8886	112.793	85.7518	112.793	84.9461	112.793	85.5695	112.793	85.0522	112.793	85.3793	112.793	85.2009
117.188	85.3442	117.188	85.3344	117.188	85.3651	117.188	85.3319	117.188	85.3996	117.188	85.332	117.188	85.4495	117.188	85.3298	117.188	85.5151	117.188	85.3201	117.188	85.595	117.188	85.298	117.188	85.686	117.188	85.2601	117.188	85.7823	117.188	85.2045	117.188	85.8755	117.188	85.132	117.188	85.955	117.188	85.0459	117.188	86.0088	117.188	84.953	117.188	86.0254	117.188	84.8633	117.188	85.9959	117.188	84.7894	117.188	85.9159	117.188	84.7448	117.188	85.7873	117.188	84.7422	117.188	85.6186	117.188	84.7905	117.188	85.4248	117.188	84.8921	117.188	85.2254	117.188	85.0415
120.117	85.2536	120.117	85.2416	120.117	85.276	120.117	85.2368	120.117	85.3114	120.117	85.2347	120.117	85.3613	120.117	85.2305	120.117	85.4259	120.117	85.2191	120.117	85.5045	120.117	85.1958	120.117	85.5941	120.117	85.157	120.117	85.6896	120.117	85.1009	120.117	85.7828	120.117	85.0279	120.117	85.8633	120.117	84.9416	120.117	85.9191	120.117	84.8488	120.117	85.9382	120.117	84.7595	120.117	85.9112	120.117	84.6863	120.117	85.8332	120.117	84.6431	120.117	85.7055	120.117	84.6426	120.117	85.5365	120.117	84.6938	120.117	85.3411	120.117	84.7988	120.117	85.1391	120.117	84.9518
124.512	85.3551	124.512	85.3418	124.512	85.3773	124.512	85.3337	124.512	85.4105	124.512	85.3268	124.512	85.4563	124.512	85.316	124.512	85.5152	124.512	85.2961	124.512	85.5863	124.512	85.2623	124.512	85.6673	124.512	85.2109	124.512	85.7531	124.512	85.1399	124.512	85.8363	124.512	85.0501	124.512	85.9063	124.512	84.9455	124.512	85.9513	124.512	84.8336	124.512	85.959	124.512	84.7252	124.512	85.9197	124.512	84.6345	124.512	85.8283	124.512	84.5767	124.512	85.6862	124.512	84.5659	124.512	85.5019	124.512	84.6122	124.512	85.2914	124.512	84.7181	124.512	85.0756	124.512	84.8775
128.906	85.1916	128.906	85.1745	128.906	85.2169	128.906	85.1625	128.906	85.2526	128.906	85.1514	128.906	85.2999	128.906	85.1362	128.906	85.3592	128.906	85.1116	128.906	85.4299	128.906	85.0725	128.906	85.5098	128.906	85.0149	128.906	85.5942	128.906	84.9367	128.906	85.6756	128.906	84.8385	128.906	85.7435	128.906	84.7245	128.906	85.7854	128.906	84.6024	128.906	85.7888	128.906	84.484	128.906	85.7433	128.906	84.384	128.906	85.6433	128.906	84.319	128.906	85.4902	128.906	84.3042	128.906	85.293	128.906	84.3505	128.906	85.0685	128.906	84.4609	128.906	84.839	128.906	84.629
133.301	85.0993	133.301	85.0794	133.301	85.1277	133.301	85.0651	133.301	85.1661	133.301	85.0528	133.301	85.2154	133.301	85.0375	133.301	85.2759	133.301	85.014	133.301	85.347	133.301	84.977	133.301	85.4269	133.301	84.922	133.301	85.5115	133.301	84.8468	133.301	85.5935	133.301	84.7516	133.301	85.6627	133.301	84.6401	133.301	85.7064	133.301	84.52	133.301	85.7117	133.301	84.4029	133.301	85.6678	133.301	84.3037	133.301	85.5688	133.301	84.2388	133.301	85.4157	133.301	84.224	133.301	85.2177	133.301	84.2703	133.301	84.9919	133.301	84.381	133.301	84.761	133.301	84.5498
139.16	84.9923	139.16	84.966	139.16	85.0254	139.16	84.9444	139.16	85.0665	139.16	84.9242	139.16	85.1164	139.16	84.901	139.16	85.1755	139.16	84.8696	139.16	85.2437	139.16	84.8246	139.16	85.3199	139.16	84.7618	139.16	85.4009	139.16	84.6789	139.16	85.4801	139.16	84.5762	139.16	85.5473	139.16	84.4578	139.16	85.5899	139.16	84.3321	139.16	85.5942	139.16	84.2111	139.16	85.5488	139.16	84.1105	139.16	85.4471	139.16	84.0472	139.16	85.2897	139.16	84.0368	139.16	85.0854	139.16	84.0903	139.16	84.8515	139.16	84.2102	139.16	84.6109	139.16	84.3893
143.555	84.9436	143.555	84.9121	143.555	84.9793	143.555	84.8834	143.555	85.0201	143.555	84.8545	143.555	85.0665	143.555	84.8215	143.555	85.1193	143.555	84.7794	143.555	85.179	143.555	84.7228	143.555	85.2453	143.555	84.6475	143.555	85.3158	143.555	84.5509	143.555	85.3845	143.555	84.4336	143.555	85.4416	143.555	84.2999	143.555	85.4744	143.555	84.1585	143.555	85.4687	143.555	84.0226	143.555	85.4126	143.555	83.9086	143.555	85.299	143.555	83.8347	143.555	85.1286	143.555	83.8176	143.555	84.9105	143.555	83.8688	143.555	84.6626	143.555	83.9913	143.555	84.4093	143.555	84.1773
147.949	84.8653	147.949	84.8243	147.949	84.9082	147.949	84.7845	147.949	84.9531	147.949	84.7436	147.949	85	147.949	84.6982	147.949	85.0493	147.949	84.6433	147.949	85.1018	147.949	84.5739	147.949	85.1578	147.949	84.4854	147.949	85.2156	147.949	84.3752	147.949	85.2702	147.949	84.2435	147.949	85.3129	147.949	84.0949	147.949	85.331	147.949	83.9384	147.949	85.3109	147.949	83.7875	147.949	85.2403	147.949	83.66	147.949	85.1118	147.949	83.575	147.949	84.9259	147.949	83.5506	147.949	84.6919	147.949	83.5993	147.949	84.4285	147.949	83.7242	147.949	84.161	147.949	83.9177
153.809	84.7058	153.809	84.6628	153.809	84.7494	153.809	84.6201	153.809	84.7938	153.809	84.576	153.809	84.839	153.809	84.5272	153.809	84.8859	153.809	84.4695	153.809	84.9359	153.809	84.3978	153.809	84.9899	153.809	84.3076	153.809	85.0467	153.809	84.1965	153.809	85.1016	153.809	84.0646	153.809	85.1455	153.809	83.9163	153.809	85.1654	153.809	83.7606	153.809	85.1469	153.809	83.611	153.809	85.077	153.809	83.4849	153.809	84.9482	153.809	83.4014	153.809	84.7609	153.809	83.378	153.809	84.5251	153.809	83.4272	153.809	84.2597	153.809	83.5526	153.809	83.9907	153.809	83.7464
159.668	84.7737	159.668	84.7296	159.668	84.8171	159.668	84.6844	159.668	84.8597	159.668	84.6367	159.668	84.9023	159.668	84.5836	159.668	84.9466	159.668	84.5209	159.668	84.995	159.668	84.4437	159.668	85.0495	159.668	84.3477	159.668	85.1097	159.668	84.2305	159.668	85.171	159.668	84.0928	159.668	85.2231	159.668	83.9397	159.668	85.2519	159.668	83.7807	159.668	85.2409	159.668	83.6302	159.668	85.1761	159.668	83.506	159.668	85.049	159.668	83.4273	159.668	84.8598	159.668	83.4116	159.668	84.6187	159.668	83.4705	159.668	84.3454	159.668	83.6066	159.668	84.0667	159.668	83.8116
165.527	84.8265	165.527	84.7774	165.527	84.8714	165.527	84.7247	165.527	84.9116	165.527	84.6679	165.527	84.9477	165.527	84.605	165.527	84.9823	165.527	84.5326	165.527	85.0193	165.527	84.4464	165.527	85.0629	165.527	84.3425	165.527	85.1149	165.527	84.2188	165.527	85.1724	165.527	84.0763	165.527	85.2263	165.527	83.9204	165.527	85.2617	165.527	83.7613	165.527	85.261	165.527	83.614	165.527	85.2082	165.527	83.4965	165.527	85.0927	165.527	83.4281	165.527	84.913	165.527	83.4252	165.527	84.6782	165.527	83.4982	165.527	84.407	165.527	83.6477	165.527	84.1257	165.527	83.8635
171.387	84.7574	171.387	84.707	171.387	84.8009	171.387	84.6511	171.387	84.8361	171.387	84.59	171.387	84.8631	171.387	84.5218	171.387	84.8843	171.387	84.4434	171.387	84.9041	171.387	84.3502	171.387	84.9279	171.387	84.2381	171.387	84.9593	171.387	84.1049	171.387	84.9974	171.387	83.9518	171.387	85.0344	171.387	83.7844	171.387	85.0565	171.387	83.6134	171.387	85.046	171.387	83.4544	171.387	84.9862	171.387	83.326	171.387	84.8663	171.387	83.2477	171.387	84.6844	171.387	83.2357	171.387	84.4496	171.387	83.3	171.387	84.1808	171.387	83.4411	171.387	83.9044	171.387	83.649
177.246	84.6501	177.246	84.5946	177.246	84.6973	177.246	84.5332	177.246	84.7343	177.246	84.4671	177.246	84.7607	177.246	84.3952	177.246	84.779	177.246	84.3142	177.246	84.7943	177.246	84.2194	177.246	84.813	177.246	84.1061	177.246	84.8397	177.246	83.9716	177.246	84.8746	177.246	83.8168	177.246	84.9101	177.246	83.6473	177.246	84.932	177.246	83.4741	177.246	84.9219	177.246	83.3134	177.246	84.8623	177.246	83.1842	177.246	84.7417	177.246	83.106	177.246	84.5581	177.246	83.0952	177.246	84.3209	177.246	83.161	177.246	84.0496	177.246	83.3038	177.246	83.7708	177.246	83.5135
183.105	84.5195	183.105	84.4467	183.105	84.578	183.105	84.3632	183.105	84.6193	183.105	84.2719	183.105	84.6429	183.105	84.1738	183.105	84.6516	183.105	84.0675	183.105	84.6515	183.105	83.9498	183.105	84.6503	183.105	83.8173	183.105	84.6547	183.105	83.6675	183.105	84.6667	183.105	83.5016	183.105	84.6811	183.105	83.3252	183.105	84.6847	183.105	83.1491	183.105	84.6597	183.105	82.989	183.105	84.5883	183.105	82.8634	183.105	84.4584	183.105	82.7908	183.105	84.2679	183.105	82.7859	183.105	84.0257	183.105	82.8566	183.105	83.7514	183.105	83.0023	183.105	83.4712	183.105	83.2132
188.965	84.551	188.965	84.4775	188.965	84.6062	188.965	84.388	188.965	84.6411	188.965	84.2842	188.965	84.6557	188.965	84.166	188.965	84.6529	188.965	84.0314	188.965	84.6382	188.965	83.8772	188.965	84.6189	188.965	83.7004	188.965	84.6013	188.965	83.5002	188.965	84.5872	188.965	83.2791	188.965	84.5713	188.965	83.0455	188.965	84.541	188.965	82.8133	188.965	84.479	188.965	82.6018	188.965	84.3678	188.965	82.433	188.965	84.1958	188.965	82.3285	188.965	83.9616	188.965	82.3048	188.965	83.6755	188.965	82.3703	188.965	83.3593	188.965	82.5238	188.965	83.042	188.965	82.7544
196.289	84.5415	196.289	84.475	196.289	84.5897	196.289	84.3936	196.289	84.6171	196.289	84.2991	196.289	84.623	196.289	84.1914	196.289	84.6105	196.289	84.0676	196.289	84.5858	196.289	83.9234	196.289	84.5573	196.289	83.7549	196.289	84.532	196.289	83.5599	196.289	84.5125	196.289	83.3407	196.289	84.4937	196.289	83.1054	196.289	84.463	196.289	82.8682	196.289	84.4031	196.289	82.6494	196.289	84.2968	196.289	82.4723	196.289	84.1327	196.289	82.3594	196.289	83.9091	196.289	82.3278	196.289	83.6356	196.289	82.3857	196.289	83.3328	196.289	82.5311	196.289	83.0284	196.289	82.7521
203.613	84.3624	203.613	84.2962	203.613	84.4075	203.613	84.2136	203.613	84.428	203.613	84.1182	203.613	84.4234	203.613	84.0106	203.613	84.3982	203.613	83.8882	203.613	84.3617	203.613	83.7464	203.613	84.3257	203.613	83.5802	203.613	84.3006	203.613	83.387	203.613	84.2899	203.613	83.1685	203.613	84.2865	203.613	82.9327	203.613	84.2732	203.613	82.6944	203.613	84.2276	203.613	82.4742	203.613	84.1288	203.613	82.2958	203.613	83.9643	203.613	82.1814	203.613	83.7343	203.613	82.1474	203.613	83.4522	203.613	82.2015	203.613	83.1422	203.613	82.3423	203.613	82.8345	203.613	82.5594
210.938	84.3739	210.938	84.2806	210.938	84.4413	210.938	84.168	210.938	84.4774	210.938	84.0413	210.938	84.48	210.938	83.9027	210.938	84.4519	210.938	83.751	210.938	84.4014	210.938	83.5825	210.938	84.3407	210.938	83.3927	210.938	84.2822	210.938	83.1793	210.938	84.2337	210.938	82.9443	210.938	84.1934	210.938	82.6962	210.938	84.1489	210.938	82.4506	210.938	84.0806	210.938	82.2288	210.938	83.9684	210.938	82.055	210.938	83.7985	210.938	81.9512	210.938	83.5682	210.938	81.9321	210.938	83.2879	210.938	82.003	210.938	82.979	210.938	82.159	210.938	82.6693	210.938	82.3876
218.262	84.2967	218.262	84.2083	218.262	84.3573	218.262	84.0987	218.262	84.3846	218.262	83.9738	218.262	84.3771	218.262	83.8362	218.262	84.3391	218.262	83.685	218.262	84.2801	218.262	83.5166	218.262	84.2138	218.262	83.3265	218.262	84.1531	218.262	83.1122	218.262	84.1048	218.262	82.8759	218.262	84.0655	218.262	82.6264	218.262	84.0209	218.262	82.3794	218.262	83.9503	218.262	82.1567	218.262	83.8336	218.262	81.9823	218.262	83.6585	218.262	81.8771	218.262	83.4247	218.262	81.8543	218.262	83.1448	218.262	81.9176	218.262	82.8418	218.262	82.0619	218.262	82.5433	218.262	82.276
225.586	84.2144	225.586	84.1192	225.586	84.2742	225.586	83.9977	225.586	84.2917	225.586	83.8577	225.586	84.2653	225.586	83.7041	225.586	84.2003	225.586	83.5374	225.586	84.1105	225.586	83.3547	225.586	84.0155	225.586	83.1523	225.586	83.9361	225.586	82.9282	225.586	83.8854	225.586	82.6855	225.586	83.8627	225.586	82.4346	225.586	83.8507	225.586	82.1937	225.586	83.8221	225.586	81.9864	225.586	83.7489	225.586	81.8372	225.586	83.6123	225.586	81.7653	225.586	83.4085	225.586	81.7796	225.586	83.1488	225.586	81.878	225.586	82.8564	225.586	82.0506	225.586	82.5592	225.586	82.2834
232.91	84.437	232.91	84.3295	232.91	84.5032	232.91	84.1906	232.91	84.5196	232.91	84.0287	232.91	84.4824	232.91	83.8487	232.91	84.3945	232.91	83.6509	232.91	84.2673	232.91	83.4319	232.91	84.1197	232.91	83.1875	232.91	83.974	232.91	82.9156	232.91	83.8488	232.91	82.62	232.91	83.7507	232.91	82.3127	232.91	83.67	232.91	82.0148	232.91	83.584	232.91	81.7546	232.91	83.4662	232.91	81.5615	232.91	83.2972	232.91	81.4578	232.91	83.0714	232.91	81.4525	232.91	82.799	232.91	81.5402	232.91	82.5017	232.91	81.7063	232.91	82.2054	232.91	81.9338
241.699	84.3946	241.699	84.283	241.699	84.4691	241.699	84.1455	241.699	84.497	241.699	83.9907	241.699	84.4725	241.699	83.8228	241.699	84.3968	241.699	83.6405	241.699	84.2787	241.699	83.4379	241.699	84.134	241.699	83.2075	241.699	83.9818	241.699	82.9438	241.699	83.8385	241.699	82.6467	241.699	83.7102	241.699	82.3247	241.699	83.5887	241.699	81.9962	241.699	83.4541	241.699	81.688	241.699	83.2824	241.699	81.4316	241.699	83.0565	241.699	81.255	241.699	82.7738	241.699	81.1761	241.699	82.4493	241.699	81.1991	241.699	82.111	241.699	81.3178	241.699	81.7918	241.699	81.5204
250.488	84.2429	250.488	84.0905	250.488	84.3464	250.488	83.904	250.488	84.3901	250.488	83.6974	250.488	84.3701	250.488	83.4808	250.488	84.2919	250.488	83.2576	250.488	84.1709	250.488	83.0252	250.488	84.0301	250.488	82.7776	250.488	83.8942	250.488	82.5098	250.488	83.7802	250.488	82.2227	250.488	83.6901	250.488	81.9258	250.488	83.6084	250.488	81.6393	250.488	83.5079	250.488	81.3907	250.488	83.3612	250.488	81.2086	250.488	83.1506	250.488	81.1138	250.488	82.8754	250.488	81.1131	250.488	82.5525	250.488	81.2009	250.488	82.2114	250.488	81.3658	250.488	81.8843	250.488	81.5972
259.277	84.5526	259.277	84.4044	259.277	84.6487	259.277	84.2188	259.277	84.6802	259.277	84.0091	259.277	84.6409	259.277	83.7839	259.277	84.5333	259.277	83.5459	259.277	84.3709	259.277	83.2915	259.277	84.1776	259.277	83.0145	259.277	83.9835	259.277	82.7094	259.277	83.815	259.277	82.376	259.277	83.6824	259.277	82.0228	259.277	83.5736	259.277	81.6689	259.277	83.4576	259.277	81.3433	259.277	83.2989	259.277	81.0808	259.277	83.0726	259.277	80.9129	259.277	82.7733	259.277	80.859	259.277	82.4175	259.277	80.9214	259.277	82.037	259.277	81.089	259.277	81.6686	259.277	81.3446
268.066	84.2633	268.066	84.1053	268.066	84.3725	268.066	83.9159	268.066	84.4181	268.066	83.7114	268.066	84.3916	268.066	83.5019	268.066	84.2942	268.066	83.29	268.066	84.1383	268.066	83.0706	268.066	83.9478	268.066	82.8349	268.066	83.7537	268.066	82.5757	268.066	83.585	268.066	82.2917	268.066	83.4554	268.066	81.9917	268.066	83.3547	268.066	81.6945	268.066	83.2523	268.066	81.4268	268.066	83.1117	268.066	81.217	268.066	82.9072	268.066	81.0868	268.066	82.635	268.066	81.0461	268.066	82.315	268.066	81.0923	268.066	81.9821	268.066	81.2173	268.066	81.6728	268.066	81.4133
276.855	84.2464	276.855	84.0652	276.855	84.3638	276.855	83.835	276.855	84.4081	276.855	83.5728	276.855	84.3774	276.855	83.2941	276.855	84.2778	276.855	83.0091	276.855	84.1234	276.855	82.7207	276.855	83.9351	276.855	82.4264	276.855	83.7378	276.855	82.1226	276.855	83.554	276.855	81.8099	276.855	83.3958	276.855	81.4975	276.855	83.2578	276.855	81.2043	276.855	83.1172	276.855	80.9552	276.855	82.9423	276.855	80.7743	276.855	82.7072	276.855	80.6758	276.855	82.4047	276.855	80.6616	276.855	82.052	276.855	80.7254	276.855	81.686	276.855	80.8616	276.855	81.3483	276.855	81.0695
287.109	84.5977	287.109	84.4496	287.109	84.6693	287.109	84.239	287.109	84.6553	287.109	83.981	287.109	84.5545	287.109	83.6884	287.109	84.3763	287.109	83.369	287.109	84.1425	287.109	83.0254	287.109	83.8862	287.109	82.6559	287.109	83.6457	287.109	82.2599	287.109	83.4524	287.109	81.8422	287.109	83.3169	287.109	81.4189	287.109	83.2227	287.109	81.0198	287.109	83.1328	287.109	80.6859	287.109	83.0054	287.109	80.4588	287.109	82.81	287.109	80.3652	287.109	82.537	287.109	80.4061	287.109	82.1993	287.109	80.5607	287.109	81.8259	287.109	80.8006	287.109	81.4512	287.109	81.1031
297.363	84.5286	297.363	84.3827	297.363	84.6021	297.363	84.1791	297.363	84.5924	297.363	83.9324	297.363	84.4959	297.363	83.6534	297.363	84.3198	297.363	83.347	297.363	84.0838	297.363	83.0123	297.363	83.8201	297.363	82.645	297.363	83.5667	297.363	82.2423	297.363	83.3556	297.363	81.8086	297.363	83.1977	297.363	81.3608	297.363	83.0765	297.363	80.9312	297.363	82.9555	297.363	80.5648	297.363	82.7955	297.363	80.3087	297.363	82.5714	297.363	80.1941	297.363	82.2801	297.363	80.2236	297.363	81.9393	297.363	80.3726	297.363	81.578	297.363	80.6063	297.363	81.2241	297.363	80.8959
307.617	84.5409	307.617	84.3846	307.617	84.6297	307.617	84.1781	307.617	84.6358	307.617	83.9362	307.617	84.5504	307.617	83.6677	307.617	84.3758	307.617	83.3742	307.617	84.1285	307.617	83.0522	307.617	83.8407	307.617	82.6972	307.617	83.556	307.617	82.3089	307.617	83.3162	307.617	81.8956	307.617	83.1425	307.617	81.4775	307.617	83.0223	307.617	81.087	307.617	82.9149	307.617	80.7645	307.617	82.7729	307.617	80.5475	307.617	82.5646	307.617	80.4574	307.617	82.2869	307.617	80.4893	307.617	81.9632	307.617	80.6172	307.617	81.6306	307.617	80.8096	307.617	81.3203	307.617	81.0459
319.336	84.308	319.336	84.1585	319.336	84.3839	319.336	83.9577	319.336	84.368	319.336	83.7257	319.336	84.252	319.336	83.4744	319.336	84.041	319.336	83.2035	319.336	83.7572	319.336	82.9033	319.336	83.4404	319.336	82.5604	319.336	83.1421	319.336	82.1667	319.336	82.9094	319.336	81.727	319.336	82.7622	319.336	81.2646	319.336	82.68	319.336	80.8226	319.336	82.6109	319.336	80.4574	319.336	82.4989	319.336	80.2221	319.336	82.3088	319.336	80.1428	319.336	82.0395	319.336	80.2059	319.336	81.7206	319.336	80.3679	319.336	81.3948	319.336	80.5832	319.336	81.0939	319.336	80.8257
329.59	84.5105	329.59	84.3282	329.59	84.6104	329.59	84.0884	329.59	84.6078	329.59	83.8147	329.59	84.4918	329.59	83.5224	329.59	84.2645	329.59	83.2146	329.59	83.9437	329.59	82.8819	329.59	83.5659	329.59	82.5092	329.59	83.1832	329.59	82.084	329.59	82.851	329.59	81.6063	329.59	82.6044	329.59	81.0954	329.59	82.438	329.59	80.594	329.59	82.307	329.59	80.1637	329.59	82.1531	329.59	79.8674	329.59	81.9345	329.59	79.7419	329.59	81.6439	329.59	79.778	329.59	81.308	329.59	79.9291	329.59	80.9695	329.59	80.1424	329.59	80.6603	329.59	80.3872
341.309	84.351	341.309	84.1512	341.309	84.4829	341.309	83.9128	341.309	84.5221	341.309	83.6619	341.309	84.4536	341.309	83.4126	341.309	84.2759	341.309	83.162	341.309	84.0041	341.309	82.8927	341.309	83.6712	341.309	82.581	341.309	83.3261	341.309	82.2076	341.309	83.0206	341.309	81.7674	341.309	82.7874	341.309	81.2757	341.309	82.6193	341.309	80.7725	341.309	82.4705	341.309	80.3194	341.309	82.2828	341.309	79.9856	341.309	82.0174	341.309	79.8193	341.309	81.6753	341.309	79.8215	341.309	81.2961	341.309	79.948	341.309	80.9344	341.309	80.1414	341.309	80.6251	341.309	80.3669
353.027	84.1806	353.027	83.9306	353.027	84.3343	353.027	83.6208	353.027	84.3665	353.027	83.2916	353.027	84.2663	353.027	82.9762	353.027	84.039	353.027	82.6884	353.027	83.7088	353.027	82.4181	353.027	83.3196	353.027	82.1377	353.027	82.9319	353.027	81.8169	353.027	82.6069	353.027	81.4374	353.027	82.3797	353.027	81.0037	353.027	82.2371	353.027	80.5503	353.027	82.1227	353.027	80.1398	353.027	81.9679	353.027	79.8469	353.027	81.7273	353.027	79.7223	353.027	81.4018	353.027	79.7598	353.027	81.0399	353.027	79.9003	353.027	80.7095	353.027	80.0756	353.027	80.4516	353.027	80.2536
366.211	84.4557	366.211	84.1926	366.211	84.6081	366.211	83.8507	366.211	84.6283	366.211	83.4671	366.211	84.5081	366.211	83.0742	366.211	84.2553	366.211	82.6905	366.211	83.8963	366.211	82.3142	366.211	83.4783	366.211	81.9275	366.211	83.0643	366.211	81.5072	366.211	82.7144	366.211	81.0377	366.211	82.4547	366.211	80.5215	366.211	82.2568	366.211	79.9857	366.211	82.0477	366.211	79.4828	366.211	81.7473	366.211	79.0792	366.211	81.3068	366.211	78.8268	366.211	80.736	366.211	78.7308	366.211	80.1134	366.211	78.7473	366.211	79.5607	366.211	78.8229	366.211	79.1716	366.211	78.9475
379.395	84.7379	379.395	84.5255	379.395	84.8444	379.395	84.2358	379.395	84.8245	379.395	83.8996	379.395	84.6688	379.395	83.5419	379.395	84.3829	379.395	83.174	379.395	83.9912	379.395	82.7908	379.395	83.5432	379.395	82.375	379.395	83.1125	379.395	81.9064	379.395	82.7797	379.395	81.3725	379.395	82.5919	379.395	80.7782	379.395	82.5251	379.395	80.1534	379.395	82.4902	379.395	79.5587	379.395	82.3796	379.395	79.0776	379.395	82.1138	379.395	78.7865	379.395	81.6683	379.395	78.7116	379.395	81.0815	379.395	78.8185	379.395	80.4448	379.395	79.0544	379.395	79.8628	379.395	79.3982
392.578	84.3084	392.578	84.0827	392.578	84.4393	392.578	83.8017	392.578	84.4452	392.578	83.5056	392.578	84.3096	392.578	83.2208	392.578	84.0331	392.578	82.9488	392.578	83.6378	392.578	82.6659	392.578	83.1758	392.578	82.337	392.578	82.7318	392.578	81.9319	392.578	82.406	392.578	81.4393	392.578	82.263	392.578	80.8735	392.578	82.2794	392.578	80.2777	392.578	82.3487	392.578	79.7223	392.578	82.3427	392.578	79.2924	392.578	82.1699	392.578	79.0569	392.578	81.8042	392.578	79.0329	392.578	81.2892	392.578	79.179	392.578	80.7207	392.578	79.435	392.578	80.1983	392.578	79.7715
405.762	83.7381	405.762	83.4928	405.762	83.8719	405.762	83.1839	405.762	83.8642	405.762	82.87	405.762	83.7039	405.762	82.5999	405.762	83.398	405.762	82.3895	405.762	82.9743	405.762	82.2124	405.762	82.487	405.762	82.0144	405.762	82.0209	405.762	81.7404	405.762	81.6786	405.762	81.3561	405.762	81.5332	405.762	80.8599	405.762	81.5709	405.762	80.2888	405.762	81.6854	405.762	79.7198	405.762	81.7379	405.762	79.2566	405.762	81.6233	405.762	78.9874	405.762	81.3075	405.762	78.9336	405.762	80.8355	405.762	79.0421	405.762	80.3142	405.762	79.2413	405.762	79.8543	405.762	79.5037
420.41	84.2049	420.41	83.8646	420.41	84.4034	420.41	83.4359	420.41	84.4248	420.41	82.986	420.41	84.2515	420.41	82.5787	420.41	83.8832	420.41	82.2481	420.41	83.3424	420.41	81.9812	420.41	82.6856	420.41	81.7262	420.41	82.0167	420.41	81.4206	420.41	81.4788	420.41	81.017	420.41	81.1914	420.41	80.4972	420.41	81.1559	420.41	79.88	420.41	81.2416	420.41	79.2297	420.41	81.2765	420.41	78.6577	420.41	81.1372	420.41	78.2919	420.41	80.7865	420.41	78.2	420.41	80.2781	420.41	78.335	420.41	79.7307	420.41	78.5872	420.41	79.2576	420.41	78.8895
435.059	83.9254	435.059	83.5793	435.059	84.1246	435.059	83.1494	435.059	84.1422	435.059	82.7232	435.059	83.9664	435.059	82.386	435.059	83.6039	435.059	82.176	435.059	83.0823	435.059	82.0591	435.059	82.4621	435.059	81.9519	435.059	81.8525	435.059	81.77	435.059	81.406	435.059	81.4583	435.059	81.2494	435.059	81	435.059	81.3742	435.059	80.4146	435.059	81.6187	435.059	79.7561	435.059	81.7729	435.059	79.1106	435.059	81.6789	435.059	78.5801	435.059	81.2701	435.059	78.2436	435.059	80.5826	435.059	78.1216	435.059	79.7587	435.059	78.1962	435.059	79.0048	435.059	78.4764
451.172	84.3212	451.172	83.8001	451.172	84.6159	451.172	83.1138	451.172	84.6583	451.172	82.3753	451.172	84.4427	451.172	81.7437	451.172	83.9775	451.172	81.3572	451.172	83.2875	451.172	81.233	451.172	82.43	451.172	81.2536	451.172	81.5269	451.172	81.2611	451.172	80.794	451.172	81.1416	451.172	80.4794	451.172	80.848	451.172	80.6551	451.172	80.3927	451.172	81.1102	451.172	79.8403	451.172	81.5329	451.172	79.2986	451.172	81.7008	451.172	78.8877	451.172	81.5227	451.172	78.6823	451.172	81.0254	451.172	78.677	451.172	80.341	451.172	78.8327	451.172	79.6643	451.172	79.1503
465.82	84.8434	465.82	84.3343	465.82	85.0948	465.82	83.5974	465.82	85.0832	465.82	82.7102	465.82	84.8156	465.82	81.822	465.82	84.3053	465.82	81.1369	465.82	83.5732	465.82	80.8007	465.82	82.6601	465.82	80.7742	465.82	81.6567	465.82	80.8718	465.82	80.7484	465.82	80.9079	465.82	80.2092	465.82	80.7721	465.82	80.2176	465.82	80.4274	465.82	80.6374	465.82	79.8925	465.82	81.1281	465.82	79.2375	465.82	81.4007	465.82	78.5812	465.82	81.3057	465.82	78.0686	465.82	80.8189	465.82	77.8222	465.82	80.0287	465.82	77.9123	465.82	79.1294	465.82	78.3649
483.398	85.6991	483.398	85.2352	483.398	85.8975	483.398	84.5103	483.398	85.8349	483.398	83.5525	483.398	85.5163	483.398	82.4393	483.398	84.9442	483.398	81.3286	483.398	84.12	483.398	80.4495	483.398	83.0543	483.398	79.9858	483.398	81.7986	483.398	79.9219	483.398	80.52	483.398	80.0736	483.398	79.5957	483.398	80.2545	483.398	79.4693	483.398	80.3636	483.398	80.1304	483.398	80.3808	483.398	81.0885	483.398	80.3397	483.398	81.9037	483.398	80.3032	483.398	82.3724	483.398	80.3386	483.398	82.4541	483.398	80.4968	483.398	82.2065	483.398	80.802	483.398	81.7526	483.398	81.2426
499.512	85.5479	499.512	85.1635	499.512	85.7072	499.512	84.5563	499.512	85.6472	499.512	83.7474	499.512	85.3755	499.512	82.7914	499.512	84.8975	499.512	81.7893	499.512	84.215	499.512	80.8847	499.512	83.3295	499.512	80.2139	499.512	82.2561	499.512	79.828	499.512	81.0597	499.512	79.6695	499.512	79.9315	499.512	79.6353	499.512	79.2447	499.512	79.6489	499.512	79.3306	499.512	79.6857	499.512	80.0472	499.512	79.7637	499.512	80.9205	499.512	79.9191	499.512	81.5951	499.512	80.1761	499.512	81.937	499.512	80.5285	499.512	81.9557	499.512	80.9413	499.512	81.7312	499.512	81.364
517.09	85.6837	517.09	85.3229	517.09	85.8172	517.09	84.74	517.09	85.7279	517.09	83.9556	517.09	85.4259	517.09	83.015	517.09	84.9256	517.09	81.9963	517.09	84.2445	517.09	81.009	517.09	83.4023	517.09	80.1688	517.09	82.4242	517.09	79.5501	517.09	81.3542	517.09	79.1565	517.09	80.2911	517.09	78.9437	517.09	79.4422	517.09	78.8688	517.09	79.0964	517.09	78.9185	517.09	79.3719	517.09	79.1024	517.09	80.0247	517.09	79.4228	517.09	80.6878	517.09	79.8468	517.09	81.1397	517.09	80.3082	517.09	81.3267	517.09	80.7351	517.09	81.2857	517.09	81.0738
536.133	84.7508	536.133	84.3871	536.133	84.868	536.133	83.7863	536.133	84.7467	536.133	82.9839	536.133	84.4062	536.133	82.0522	536.133	83.8751	536.133	81.1063	536.133	83.1888	536.133	80.283	536.133	82.3873	536.133	79.6833	536.133	81.5137	536.133	79.316	536.133	80.6198	536.133	79.1109	536.133	79.7874	536.133	78.9868	536.133	79.1622	536.133	78.9083	536.133	78.9309	536.133	78.8998	536.133	79.1632	536.133	79.0207	536.133	79.6898	536.133	79.3113	536.133	80.2448	536.133	79.74	536.133	80.6602	536.133	80.208	536.133	80.8932	536.133	80.6053	536.133	80.9575	536.133	80.862
555.176	85.0878	555.176	84.7186	555.176	85.1802	555.176	84.0731	555.176	85.0043	555.176	83.1658	555.176	84.5754	555.176	82.038	555.176	83.9166	555.176	80.7786	555.176	83.06	555.176	79.5465	555.176	82.0505	555.176	78.5547	555.176	80.9519	555.176	77.9632	555.176	79.8553	555.176	77.7542	555.176	78.8815	555.176	77.7655	555.176	78.1747	555.176	77.8423	555.176	77.8723	555.176	77.9294	555.176	78.0159	555.176	78.0738	555.176	78.4656	555.176	78.3564	555.176	78.9813	555.176	78.7861	555.176	79.3957	555.176	79.2572	555.176	79.6677	555.176	79.6263	555.176	79.8105	555.176	79.8101
574.219	84.5863	574.219	84.2426	574.219	84.6844	574.219	83.6492	574.219	84.5446	574.219	82.8137	574.219	84.1763	574.219	81.7684	574.219	83.5925	574.219	80.5867	574.219	82.8155	574.219	79.3963	574.219	81.8818	574.219	78.3639	574.219	80.8458	574.219	77.6252	574.219	79.7817	574.219	77.2044	574.219	78.784	574.219	77.024	574.219	77.9836	574.219	76.9947	574.219	77.567	574.219	77.0794	574.219	77.6729	574.219	77.2917	574.219	78.1754	574.219	77.649	574.219	78.7463	574.219	78.1173	574.219	79.1456	574.219	78.6007	574.219	79.3272	574.219	78.9933	574.219	79.3465	574.219	79.2399
594.727	84.1369	594.727	83.9086	594.727	84.1157	594.727	83.4193	594.727	83.8631	594.727	82.67	594.727	83.4009	594.727	81.6843	594.727	82.7536	594.727	80.5231	594.727	81.9494	594.727	79.2977	594.727	81.0238	594.727	78.1655	594.727	80.0298	594.727	77.2766	594.727	79.0451	594.727	76.6864	594.727	78.1572	594.727	76.3318	594.727	77.4444	594.727	76.1168	594.727	77.0101	594.727	76.014	594.727	76.9987	594.727	76.0895	594.727	77.4136	594.727	76.4205	594.727	77.9898	594.727	76.9712	594.727	78.4316	594.727	77.5838	594.727	78.6287	594.727	78.0979	594.727	78.6162	594.727	78.4407
615.234	84.0823	615.234	83.8408	615.234	84.064	615.234	83.3442	615.234	83.7938	615.234	82.6105	615.234	83.2931	615.234	81.6781	615.234	82.5955	615.234	80.618	615.234	81.7405	615.234	79.5412	615.234	80.7667	615.234	78.5807	615.234	79.7165	615.234	77.8325	615.234	78.651	615.234	77.2978	615.234	77.6471	615.234	76.9034	615.234	76.7685	615.234	76.5845	615.234	76.0945	615.234	76.3533	615.234	75.8269	615.234	76.3083	615.234	76.1695	615.234	76.5613	615.234	76.9523	615.234	77.1005	615.234	77.7556	615.234	77.7495	615.234	78.3222	615.234	78.2903	615.234	78.5974	615.234	78.5862
637.207	84.6628	637.207	84.3697	637.207	84.7168	637.207	83.8461	637.207	84.536	637.207	83.1123	637.207	84.1362	637.207	82.1982	637.207	83.5383	637.207	81.1476	637.207	82.761	637.207	80.0305	637.207	81.8256	637.207	78.9604	637.207	80.7828	637.207	78.0871	637.207	79.739	637.207	77.5271	637.207	78.8214	637.207	77.2707	637.207	78.0724	637.207	77.1962	637.207	77.4504	637.207	77.1943	637.207	77.0314	637.207	77.2697	637.207	77.0689	637.207	77.5242	637.207	77.6052	637.207	78.0076	637.207	78.3061	637.207	78.5918	637.207	78.8692	637.207	79.0599	637.207	79.1981	637.207	79.2703
659.18	85.4291	659.18	85.1746	659.18	85.4058	659.18	84.6378	659.18	85.1274	659.18	83.834	659.18	84.6306	659.18	82.7989	659.18	83.957	659.18	81.5937	659.18	83.1441	659.18	80.3132	659.18	82.2265	659.18	79.0886	659.18	81.2544	659.18	78.0685	659.18	80.3134	659.18	77.3677	659.18	79.4966	659.18	77.0093	659.18	78.8169	659.18	76.9146	659.18	78.196	659.18	76.9674	659.18	77.6451	659.18	77.1122	659.18	77.4237	659.18	77.4017	659.18	77.7577	659.18	77.9056	659.18	78.4226	659.18	78.5452	659.18	79.0292	659.18	79.1059	659.18	79.3771	659.18	79.4058
682.617	85.0478	682.617	84.8621	682.617	84.9773	682.617	84.4185	682.617	84.6659	682.617	83.7295	682.617	84.1415	682.617	82.8233	682.617	83.4396	682.617	81.7507	682.617	82.5939	682.617	80.5956	682.617	81.6367	682.617	79.4775	682.617	80.6226	682.617	78.5236	682.617	79.6662	682.617	77.815	682.617	78.9145	682.617	77.3547	682.617	78.4129	682.617	77.0943	682.617	78.0457	682.617	76.986	682.617	77.7041	682.617	77.0261	682.617	77.4593	682.617	77.2646	682.617	77.4914	682.617	77.7287	682.617	77.8447	682.617	78.3085	682.617	78.3557	682.617	78.782	682.617	78.7913	682.617	78.9617
707.52	85.1095	707.52	84.8784	707.52	85.0667	707.52	84.3763	707.52	84.7674	707.52	83.6291	707.52	84.2394	707.52	82.6811	707.52	83.5088	707.52	81.5851	707.52	82.59	707.52	80.3986	707.52	81.4894	707.52	79.1971	707.52	80.241	707.52	78.1012	707.52	78.975	707.52	77.2763	707.52	77.9389	707.52	76.8492	707.52	77.298	707.52	76.794	707.52	76.9252	707.52	76.9538	707.52	76.6799	707.52	77.198	707.52	76.7515	707.52	77.5272	707.52	77.3164	707.52	78.0082	707.52	78.1008	707.52	78.5948	707.52	78.764	707.52	79.0885	707.52	79.1812	707.52	79.3024
732.422	84.912	732.422	84.7485	732.422	84.7739	732.422	84.3006	732.422	84.3464	732.422	83.6032	732.422	83.6759	732.422	82.6961	732.422	82.8326	732.422	81.6191	732.422	81.8808	732.422	80.4261	732.422	80.8581	732.422	79.2217	732.422	79.8137	732.422	78.1858	732.422	78.8843	732.422	77.5012	732.422	78.2382	732.422	77.186	732.422	77.8133	732.422	77.0644	732.422	77.2744	732.422	76.9567	732.422	76.4264	732.422	76.8489	732.422	75.6782	732.422	76.8955	732.422	75.81	732.422	77.2233	732.422	76.6772	732.422	77.7212	732.422	77.5349	732.422	78.1308	732.422	78.0727	732.422	78.2674
757.324	84.8634	757.324	84.7162	757.324	84.6878	757.324	84.2661	757.324	84.2082	757.324	83.5623	757.324	83.4804	757.324	82.661	757.324	82.5781	757.324	81.5998	757.324	81.5556	757.324	80.3963	757.324	80.4288	757.324	79.1001	757.324	79.2365	757.324	77.8752	757.324	78.1734	757.324	76.997	757.324	77.5506	757.324	76.6329	757.324	77.3479	757.324	76.6474	757.324	77.0755	757.324	76.7897	757.324	76.3428	757.324	76.9562	757.324	75.3998	757.324	77.2086	757.324	75.2293	757.324	77.6056	757.324	76.1355	757.324	78.0539	757.324	77.2439	757.324	78.3614	757.324	78.0154	757.324	78.3747
785.156	85.2625	785.156	85.0099	785.156	85.2076	785.156	84.4966	785.156	84.8437	785.156	83.7992	785.156	84.2087	785.156	82.9889	785.156	83.355	785.156	82.0846	785.156	82.3076	785.156	81.0326	785.156	81.043	785.156	79.7492	785.156	79.5413	785.156	78.2291	785.156	77.9544	785.156	76.7215	785.156	76.7931	785.156	75.7922	785.156	76.4688	785.156	75.7221	785.156	76.4205	785.156	76.0188	785.156	75.7875	785.156	76.2057	785.156	74.5053	785.156	76.3867	785.156	74.1831	785.156	76.985	785.156	75.9284	785.156	78.0002	785.156	77.8736	785.156	78.927	785.156	79.026	785.156	79.3383
811.523	84.9808	811.523	84.7394	811.523	84.865	811.523	84.1791	811.523	84.4232	811.523	83.4212	811.523	83.7329	811.523	82.6331	811.523	82.8789	811.523	81.8947	811.523	81.8836	811.523	81.0897	811.523	80.6578	811.523	80.0001	811.523	79.0727	811.523	78.5239	811.523	77.2552	811.523	76.9404	811.523	76.1063	811.523	76.0702	811.523	76.4268	811.523	76.347	811.523	77.0505	811.523	77.0321	811.523	76.6673	811.523	77.4906	811.523	74.8934	811.523	77.743	811.523	73.1321	811.523	78.0995	811.523	74.6313	811.523	78.6536	811.523	77.1207	811.523	79.139	811.523	78.6392	811.523	79.223
840.82	85.8232	840.82	85.6324	840.82	85.616	840.82	85.0161	840.82	85.0998	840.82	84.0378	840.82	84.4086	840.82	82.9035	840.82	83.6635	840.82	81.9133	840.82	82.8673	840.82	81.1646	840.82	81.8556	840.82	80.3685	840.82	80.3736	840.82	79.1405	840.82	78.2424	840.82	77.3705	840.82	75.933	840.82	75.6928	840.82	75.4763	840.82	75.5201	840.82	76.8317	840.82	76.583	840.82	77.4831	840.82	77.4646	840.82	76.2959	840.82	77.8419	840.82	73.0204	840.82	78.1786	840.82	72.418	840.82	78.8924	840.82	76.496	840.82	79.6877	840.82	79.0437	840.82	79.9233
870.117	85.7539	870.117	85.7187	870.117	85.3818	870.117	85.174	870.117	84.7495	870.117	84.105	870.117	84.023	870.117	82.6864	870.117	83.3319	870.117	81.3923	870.117	82.6814	870.117	80.6722	870.117	81.9077	870.117	80.2756	870.117	80.731	870.117	79.5466	870.117	78.8636	870.117	78.047	870.117	76.3678	870.117	75.8065	870.117	74.9933	870.117	74.2666	870.117	76.2491	870.117	75.3325	870.117	77.3997	870.117	77.1104	870.117	76.7169	870.117	78.2015	870.117	73.1673	870.117	78.7514	870.117	67.0059	870.117	79.168	870.117	73.0484	870.117	79.4433	870.117	77.3511	870.117	79.0819
900.879	85.9588	900.879	86.255	900.879	85.2343	900.879	85.939	900.879	84.323	900.879	84.9065	900.879	83.4876	900.879	83.2152	900.879	82.9046	900.879	81.3121	900.879	82.5293	900.879	80.0681	900.879	82.1006	900.879	79.6685	900.879	81.2709	900.879	79.2475	900.879	79.6592	900.879	78.1058	900.879	76.8494	900.879	76.0565	900.879	73.5141	900.879	73.9224	900.879	74.7222	900.879	73.952	900.879	77.6601	900.879	75.5225	900.879	78.5083	900.879	76.844	900.879	76.5704	900.879	77.8775	900.879	70.2134	900.879	78.8685	900.879	70.3324	900.879	79.5048	900.879	76.7049	900.879	79.0985
933.105	85.8466	933.105	86.3825	933.105	84.8296	933.105	86.2591	933.105	83.5877	933.105	85.345	933.105	82.4675	933.105	83.5689	933.105	81.7858	933.105	81.0875	933.105	81.585	933.105	78.8354	933.105	81.5798	933.105	78.2035	933.105	81.3638	933.105	78.4628	933.105	80.5426	933.105	78.1485	933.105	78.6717	933.105	76.6632	933.105	75.2999	933.105	74.1751	933.105	72.9807	933.105	73.3721	933.105	76.2259	933.105	75.6416	933.105	78.4574	933.105	77.6073	933.105	77.8757	933.105	78.5208	933.105	73.4196	933.105	78.7559	933.105	61.5621	933.105	78.472	933.105	72.9907	933.105	77.1104
965.332	85.5835	965.332	86.2703	965.332	84.5027	965.332	86.3724	965.332	83.3028	965.332	85.7451	965.332	82.3097	965.332	84.2843	965.332	81.6918	965.332	82.0062	965.332	81.3365	965.332	79.4238	965.332	81.0322	965.332	78.0817	965.332	80.615	965.332	78.3892	965.332	79.8832	965.332	78.5432	965.332	78.4105	965.332	77.3625	965.332	75.4051	965.332	74.3157	965.332	71.4284	965.332	70.7188	965.332	74.8301	965.332	72.5089	965.332	78.4341	965.332	75.3848	965.332	78.9725	965.332	77.0021	965.332	76.167	965.332	77.8307	965.332	68.3038	965.332	77.8759	965.332	71.4765	965.332	76.3798
1,000.49	85.4333	1,000.49	85.9258	1,000.49	84.5787	1,000.49	85.9447	1,000.49	83.5327	1,000.49	85.3803	1,000.49	82.5154	1,000.49	84.0857	1,000.49	81.6582	1,000.49	81.8744	1,000.49	80.9441	1,000.49	78.6664	1,000.49	80.3809	1,000.49	75.646	1,000.49	80.0869	1,000.49	75.9497	1,000.49	80.0222	1,000.49	77.6021	1,000.49	79.6859	1,000.49	78.1605	1,000.49	78.1505	1,000.49	77.2176	1,000.49	73.9217	1,000.49	74.7087	1,000.49	69.1566	1,000.49	71.6373	1,000.49	75.4828	1,000.49	72.0454	1,000.49	78.1163	1,000.49	74.3328	1,000.49	77.1323	1,000.49	75.4671	1,000.49	72.0505	1,000.49	74.921	1,000.49	63.1994	1,000.49	71.6963
1,035.64	85.4754	1,035.64	85.8872	1,035.64	84.7219	1,035.64	85.857	1,035.64	83.8465	1,035.64	85.3295	1,035.64	83.0979	1,035.64	84.1928	1,035.64	82.5229	1,035.64	82.2307	1,035.64	81.9091	1,035.64	79.1198	1,035.64	80.9996	1,035.64	74.6931	1,035.64	79.7865	1,035.64	72.0904	1,035.64	78.8039	1,035.64	74.5499	1,035.64	78.5917	1,035.64	76.4774	1,035.64	78.2909	1,035.64	76.7108	1,035.64	76.314	1,035.64	75.4485	1,035.64	71.4974	1,035.64	73.3976	1,035.64	72.668	1,035.64	72.6247	1,035.64	77.09	1,035.64	73.8169	1,035.64	77.9879	1,035.64	74.8023	1,035.64	75.8437	1,035.64	74.282	1,035.64	71.6124	1,035.64	71.836
1,072.27	85.6276	1,072.27	85.7455	1,072.27	85.0661	1,072.27	85.3748	1,072.27	84.2548	1,072.27	84.5624	1,072.27	83.426	1,072.27	83.3586	1,072.27	82.6363	1,072.27	81.8006	1,072.27	81.7681	1,072.27	79.9735	1,072.27	80.6907	1,072.27	78.1091	1,072.27	79.3536	1,072.27	76.6397	1,072.27	77.9722	1,072.27	75.7579	1,072.27	77.2198	1,072.27	74.9101	1,072.27	77.1561	1,072.27	73.6126	1,072.27	76.4931	1,072.27	72.3961	1,072.27	74.3215	1,072.27	72.0541	1,072.27	72.9188	1,072.27	72.2751	1,072.27	74.9932	1,072.27	72.9098	1,072.27	76.0267	1,072.27	73.9342	1,072.27	74.9985	1,072.27	74.5804	1,072.27	73.7627	1,072.27	74.2179
1,108.89	85.4259	1,108.89	85.713	1,108.89	84.7337	1,108.89	85.4794	1,108.89	83.9357	1,108.89	84.7592	1,108.89	83.2965	1,108.89	83.6437	1,108.89	82.7751	1,108.89	82.2094	1,108.89	82.1752	1,108.89	80.4821	1,108.89	81.3115	1,108.89	78.4926	1,108.89	79.951	1,108.89	76.508	1,108.89	77.9804	1,108.89	75.1863	1,108.89	76.2708	1,108.89	74.6976	1,108.89	76.1748	1,108.89	74.2202	1,108.89	76.1232	1,108.89	73.1672	1,108.89	74.5639	1,108.89	71.6987	1,108.89	73.5243	1,108.89	70.9029	1,108.89	75.335	1,108.89	72.1448	1,108.89	76.0733	1,108.89	74.2485	1,108.89	74.7921	1,108.89	75.3644	1,108.89	73.7971	1,108.89	74.8743
1,148.44	85.3582	1,148.44	85.5375	1,148.44	84.8064	1,148.44	85.2981	1,148.44	84.0808	1,148.44	84.699	1,148.44	83.368	1,148.44	83.803	1,148.44	82.6437	1,148.44	82.5922	1,148.44	81.8321	1,148.44	80.9617	1,148.44	80.8893	1,148.44	78.8749	1,148.44	79.5955	1,148.44	76.8102	1,148.44	77.6635	1,148.44	75.9106	1,148.44	75.7398	1,148.44	76.0145	1,148.44	75.4644	1,148.44	75.7249	1,148.44	75.468	1,148.44	74.5252	1,148.44	74.06	1,148.44	72.9145	1,148.44	73.1944	1,148.44	72.1337	1,148.44	74.9711	1,148.44	72.9122	1,148.44	75.7152	1,148.44	74.332	1,148.44	74.3607	1,148.44	75.0285	1,148.44	73.1211	1,148.44	74.2831
1,189.45	85.1621	1,189.45	85.3472	1,189.45	84.6343	1,189.45	85.0744	1,189.45	83.9823	1,189.45	84.3705	1,189.45	83.3284	1,189.45	83.3763	1,189.45	82.6415	1,189.45	82.2413	1,189.45	81.9779	1,189.45	80.9446	1,189.45	81.3865	1,189.45	79.2942	1,189.45	80.5459	1,189.45	77.2876	1,189.45	78.8798	1,189.45	75.7113	1,189.45	76.3059	1,189.45	75.4663	1,189.45	74.5552	1,189.45	75.5747	1,189.45	74.2392	1,189.45	74.7919	1,189.45	73.2542	1,189.45	72.8416	1,189.45	73.3142	1,189.45	70.5678	1,189.45	75.1602	1,189.45	70.6215	1,189.45	75.6245	1,189.45	72.7864	1,189.45	74.3638	1,189.45	74.1581	1,189.45	73.254	1,189.45	73.9093
1,230.47	85.5122	1,230.47	85.4525	1,230.47	85.0963	1,230.47	84.9722	1,230.47	84.3798	1,230.47	84.2536	1,230.47	83.6042	1,230.47	83.3714	1,230.47	82.8594	1,230.47	82.1998	1,230.47	82.1588	1,230.47	80.6378	1,230.47	81.4198	1,230.47	78.8153	1,230.47	80.2832	1,230.47	76.8619	1,230.47	78.3163	1,230.47	75.1829	1,230.47	75.8551	1,230.47	75.2977	1,230.47	74.5877	1,230.47	76.5034	1,230.47	74.2165	1,230.47	76.6736	1,230.47	73.266	1,230.47	75.3424	1,230.47	73.0862	1,230.47	73.1474	1,230.47	74.7713	1,230.47	72.3943	1,230.47	75.7128	1,230.47	73.9414	1,230.47	74.7547	1,230.47	74.9788	1,230.47	73.5453	1,230.47	74.4121
1,274.41	85.6148	1,274.41	85.6115	1,274.41	85.2585	1,274.41	85.1555	1,274.41	84.7392	1,274.41	84.3271	1,274.41	84.0498	1,274.41	83.2202	1,274.41	83.0935	1,274.41	81.7652	1,274.41	82.0747	1,274.41	79.8025	1,274.41	81.2419	1,274.41	77.564	1,274.41	80.3476	1,274.41	75.5851	1,274.41	78.8561	1,274.41	73.1759	1,274.41	76.6867	1,274.41	69.4092	1,274.41	74.8955	1,274.41	70.906	1,274.41	74.2599	1,274.41	74.2718	1,274.41	73.1167	1,274.41	74.7523	1,274.41	70.7524	1,274.41	72.8934	1,274.41	72.3679	1,274.41	71.1394	1,274.41	74.6937	1,274.41	73.4969	1,274.41	73.9614	1,274.41	75.2823	1,274.41	72.7295	1,274.41	74.5123
1,319.82	85.6312	1,319.82	85.7308	1,319.82	85.2652	1,319.82	85.2714	1,319.82	84.872	1,319.82	84.2254	1,319.82	84.1818	1,319.82	82.7297	1,319.82	82.9025	1,319.82	80.8363	1,319.82	81.5006	1,319.82	78.5709	1,319.82	80.7236	1,319.82	76.5412	1,319.82	80.091	1,319.82	75.8967	1,319.82	78.3622	1,319.82	75.8873	1,319.82	75.2404	1,319.82	74.4888	1,319.82	72.7977	1,319.82	71.5024	1,319.82	72.5478	1,319.82	72.1477	1,319.82	72.7083	1,319.82	74.5186	1,319.82	73.1194	1,319.82	74.7441	1,319.82	74.621	1,319.82	72.9445	1,319.82	75.7288	1,319.82	72.6901	1,319.82	74.7319	1,319.82	74.274	1,319.82	73.144	1,319.82	73.9941
1,366.7	85.3924	1,366.7	85.6472	1,366.7	85.0811	1,366.7	85.4234	1,366.7	84.7365	1,366.7	84.4426	1,366.7	84.0704	1,366.7	82.8257	1,366.7	82.9704	1,366.7	80.7349	1,366.7	81.7299	1,366.7	77.9714	1,366.7	80.7692	1,366.7	74.3486	1,366.7	79.9275	1,366.7	71.486	1,366.7	78.3272	1,366.7	71.467	1,366.7	75.5106	1,366.7	71.4199	1,366.7	72.4061	1,366.7	70.2165	1,366.7	70.6429	1,366.7	70.7207	1,366.7	71.3178	1,366.7	73.706	1,366.7	72.5858	1,366.7	75.2338	1,366.7	73.5569	1,366.7	74.0929	1,366.7	75.7225	1,366.7	72.0341	1,366.7	75.5664	1,366.7	73.115	1,366.7	73.5853	1,366.7	73.7086
1,413.57	85.0728	1,413.57	85.3912	1,413.57	84.7176	1,413.57	85.0447	1,413.57	84.5255	1,413.57	83.9232	1,413.57	83.9336	1,413.57	82.3904	1,413.57	82.719	1,413.57	80.6607	1,413.57	81.4742	1,413.57	78.3572	1,413.57	80.5606	1,413.57	74.8248	1,413.57	79.7363	1,413.57	70.2216	1,413.57	78.3799	1,413.57	67.1882	1,413.57	76.0424	1,413.57	68.2088	1,413.57	72.9695	1,413.57	67.5861	1,413.57	70.477	1,413.57	65.5205	1,413.57	70.4696	1,413.57	69.1984	1,413.57	71.0051	1,413.57	72.8618	1,413.57	72.7576	1,413.57	74.2738	1,413.57	74.805	1,413.57	73.9433	1,413.57	75.5673	1,413.57	72.9221	1,413.57	74.1729	1,413.57	71.9112
1,463.38	85.684	1,463.38	85.3699	1,463.38	85.5773	1,463.38	84.7045	1,463.38	84.907	1,463.38	83.6383	1,463.38	83.6506	1,463.38	82.1395	1,463.38	82.1875	1,463.38	80.4495	1,463.38	81.1075	1,463.38	78.8221	1,463.38	80.2672	1,463.38	77.1452	1,463.38	79.3483	1,463.38	74.9274	1,463.38	78.0574	1,463.38	72.4789	1,463.38	76.1793	1,463.38	72.2813	1,463.38	74.2573	1,463.38	71.3083	1,463.38	71.8017	1,463.38	67.5322	1,463.38	68.3691	1,463.38	67.1511	1,463.38	69.524	1,463.38	71.1943	1,463.38	71.5607	1,463.38	72.337	1,463.38	73.9452	1,463.38	71.6601	1,463.38	74.9631	1,463.38	71.4452	1,463.38	74.0232	1,463.38	72.1318
1,516.11	86.0885	1,516.11	85.7608	1,516.11	85.897	1,516.11	84.7397	1,516.11	85.1758	1,516.11	83.3881	1,516.11	83.4446	1,516.11	82.0131	1,516.11	81.3502	1,516.11	80.5863	1,516.11	80.3123	1,516.11	79.3414	1,516.11	79.8236	1,516.11	78.5006	1,516.11	79.2866	1,516.11	77.3575	1,516.11	78.3199	1,516.11	75.6924	1,516.11	76.4102	1,516.11	75.3065	1,516.11	74.6766	1,516.11	75.1076	1,516.11	74.0803	1,516.11	73.081	1,516.11	71.8072	1,516.11	70.6022	1,516.11	68.7349	1,516.11	71.977	1,516.11	70.3065	1,516.11	72.4379	1,516.11	72.6643	1,516.11	71.1391	1,516.11	72.9044	1,516.11	70.8721	1,516.11	73.3719	1,516.11	72.612
1,568.85	85.7439	1,568.85	85.2742	1,568.85	85.9162	1,568.85	84.6292	1,568.85	85.1691	1,568.85	83.4816	1,568.85	83.4371	1,568.85	81.5862	1,568.85	81.982	1,568.85	79.3784	1,568.85	80.9178	1,568.85	77.8149	1,568.85	79.1945	1,568.85	77.1462	1,568.85	77.2219	1,568.85	76.4315	1,568.85	75.9567	1,568.85	75.3734	1,568.85	74.6937	1,568.85	75.9997	1,568.85	72.6961	1,568.85	76.673	1,568.85	72.3231	1,568.85	74.9525	1,568.85	72.4978	1,568.85	71.3851	1,568.85	71.4179	1,568.85	70.8761	1,568.85	69.0649	1,568.85	70.9303	1,568.85	70.2997	1,568.85	68.4814	1,568.85	72.9744	1,568.85	69.2829	1,568.85	72.8842	1,568.85	71.5947
1,624.51	85.2453	1,624.51	84.754	1,624.51	85.6293	1,624.51	84.4219	1,624.51	84.9709	1,624.51	83.5459	1,624.51	83.2174	1,624.51	81.5288	1,624.51	81.7523	1,624.51	79.0607	1,624.51	80.6812	1,624.51	77.77	1,624.51	79.2478	1,624.51	77.1683	1,624.51	78.1016	1,624.51	75.7133	1,624.51	77.7212	1,624.51	72.0395	1,624.51	77.3099	1,624.51	66.5557	1,624.51	75.6725	1,624.51	72.0253	1,624.51	73.3848	1,624.51	74.3745	1,624.51	71.6562	1,624.51	73.7611	1,624.51	67.982	1,624.51	72.2171	1,624.51	69.7861	1,624.51	71.9229	1,624.51	71.5916	1,624.51	69.3882	1,624.51	72.8491	1,624.51	67.3948	1,624.51	73.6349	1,624.51	70.93
1,681.64	85.371	1,681.64	84.6558	1,681.64	85.6099	1,681.64	83.8766	1,681.64	84.4573	1,681.64	82.5152	1,681.64	82.4872	1,681.64	80.6542	1,681.64	81.2198	1,681.64	78.4549	1,681.64	80.0567	1,681.64	76.6867	1,681.64	79.1389	1,681.64	76.9764	1,681.64	79.0042	1,681.64	76.7669	1,681.64	78.437	1,681.64	74.5123	1,681.64	76.6541	1,681.64	70.6626	1,681.64	75.0119	1,681.64	67.9881	1,681.64	74.4928	1,681.64	71.8056	1,681.64	72.85	1,681.64	73.8899	1,681.64	68.5901	1,681.64	72.5606	1,681.64	67.3413	1,681.64	69.1294	1,681.64	68.316	1,681.64	66.4643	1,681.64	70.548	1,681.64	66.8375	1,681.64	72.1261	1,681.64	70.2955
1,741.7	86.1311	1,741.7	84.8119	1,741.7	86.1216	1,741.7	83.2779	1,741.7	84.4288	1,741.7	81.5131	1,741.7	82.2237	1,741.7	79.6321	1,741.7	80.6172	1,741.7	78.9498	1,741.7	79.1049	1,741.7	77.9108	1,741.7	78.5248	1,741.7	76.2024	1,741.7	78.8547	1,741.7	76.0836	1,741.7	79.0676	1,741.7	74.2649	1,741.7	77.9678	1,741.7	69.422	1,741.7	74.6519	1,741.7	65.6843	1,741.7	72.0182	1,741.7	69.6129	1,741.7	71.3105	1,741.7	72.7872	1,741.7	70.1456	1,741.7	73.1933	1,741.7	71.6751	1,741.7	70.3585	1,741.7	69.4355	1,741.7	65.5248	1,741.7	70.6298	1,741.7	66.5784	1,741.7	72.7865	1,741.7	70.736
1,803.22	86.3172	1,803.22	85.164	1,803.22	86.1031	1,803.22	82.5465	1,803.22	84.737	1,803.22	79.9893	1,803.22	82.0763	1,803.22	78.6871	1,803.22	79.8593	1,803.22	77.6301	1,803.22	79.6251	1,803.22	76.516	1,803.22	79.6004	1,803.22	75.0845	1,803.22	78.9824	1,803.22	73.295	1,803.22	78.5653	1,803.22	73.2112	1,803.22	78.2097	1,803.22	72.0284	1,803.22	75.5927	1,803.22	66.1216	1,803.22	71.6302	1,803.22	58.6715	1,803.22	72.5642	1,803.22	68.7462	1,803.22	70.4513	1,803.22	72.9297	1,803.22	71.102	1,803.22	71.9273	1,803.22	71.3904	1,803.22	65.0188	1,803.22	70.2998	1,803.22	63.3948	1,803.22	73.0083	1,803.22	70.8475
1,866.21	86.2008	1,866.21	84.7086	1,866.21	86.3564	1,866.21	82.6007	1,866.21	84.1427	1,866.21	79.0705	1,866.21	80.819	1,866.21	77.0791	1,866.21	79.7628	1,866.21	79.0909	1,866.21	78.8667	1,866.21	77.9	1,866.21	78.503	1,866.21	74.3759	1,866.21	78.0637	1,866.21	72.8627	1,866.21	77.5823	1,866.21	70.8933	1,866.21	77.2575	1,866.21	72.1724	1,866.21	74.9637	1,866.21	72.6562	1,866.21	71.2958	1,866.21	66.2411	1,866.21	72.7725	1,866.21	68.7352	1,866.21	69.7361	1,866.21	71.1407	1,866.21	69.7147	1,866.21	68.9754	1,866.21	71.3715	1,866.21	65.1507	1,866.21	68.8136	1,866.21	64.7323	1,866.21	73.1048	1,866.21	69.7033
1,932.13	86.4714	1,932.13	84.0315	1,932.13	86.3913	1,932.13	80.4536	1,932.13	83.9168	1,932.13	78.1291	1,932.13	80.8068	1,932.13	76.5846	1,932.13	79.1723	1,932.13	78.2898	1,932.13	79.166	1,932.13	78.9349	1,932.13	79.2345	1,932.13	76.7041	1,932.13	77.8875	1,932.13	74.2271	1,932.13	76.7334	1,932.13	72.0926	1,932.13	76.3396	1,932.13	73.4968	1,932.13	74.2801	1,932.13	76.1695	1,932.13	72.0048	1,932.13	73.8411	1,932.13	73.3202	1,932.13	67.8628	1,932.13	72.0076	1,932.13	72.117	1,932.13	68.1965	1,932.13	69.3258	1,932.13	71.735	1,932.13	62.2244	1,932.13	69.0456	1,932.13	64.1376	1,932.13	72.4908	1,932.13	70.3259
1,999.51	86.403	1,999.51	84.1403	1,999.51	86.3367	1,999.51	79.5067	1,999.51	83.4935	1,999.51	74.1888	1,999.51	79.1029	1,999.51	76.7429	1,999.51	77.3533	1,999.51	78.1755	1,999.51	78.9708	1,999.51	77.9121	1,999.51	79.7697	1,999.51	77.9856	1,999.51	78.5113	1,999.51	77.9932	1,999.51	76.8593	1,999.51	76.277	1,999.51	77.3347	1,999.51	73.301	1,999.51	75.6188	1,999.51	74.7633	1,999.51	70.3017	1,999.51	74.859	1,999.51	73.3861	1,999.51	70.632	1,999.51	72.0252	1,999.51	71.4489	1,999.51	69.3539	1,999.51	70.5904	1,999.51	71.2152	1,999.51	60.5058	1,999.51	72.1467	1,999.51	54.744	1,999.51	74.0676	1,999.51	69.87
2,069.82	86.123	2,069.82	83.6911	2,069.82	85.7479	2,069.82	79.1766	2,069.82	82.7652	2,069.82	72.735	2,069.82	78.4414	2,069.82	74.7566	2,069.82	76.7786	2,069.82	79.1934	2,069.82	79.6717	2,069.82	79.845	2,069.82	79.982	2,069.82	78.5607	2,069.82	80.1642	2,069.82	77.4157	2,069.82	79.1281	2,069.82	75.7091	2,069.82	78.5205	2,069.82	73.8961	2,069.82	78.7247	2,069.82	75.0912	2,069.82	72.9999	2,069.82	72.8812	2,069.82	69.874	2,069.82	66.0388	2,069.82	74.7366	2,069.82	67.7117	2,069.82	71.3014	2,069.82	71.8097	2,069.82	70.7231	2,069.82	65.6055	2,069.82	71.4252	2,069.82	63.3095	2,069.82	72.7971	2,069.82	68.6082
2,143.07	85.8556	2,143.07	83.9617	2,143.07	85.109	2,143.07	78.4969	2,143.07	82.0207	2,143.07	71.4192	2,143.07	74.5265	2,143.07	75.5132	2,143.07	77.6194	2,143.07	79.1154	2,143.07	79.1938	2,143.07	80.5059	2,143.07	79.432	2,143.07	79.2771	2,143.07	80.8546	2,143.07	76.8122	2,143.07	81.0572	2,143.07	74.9986	2,143.07	79.416	2,143.07	70.4021	2,143.07	79.19	2,143.07	68.0872	2,143.07	77.9086	2,143.07	64.8134	2,143.07	73.673	2,143.07	65.9236	2,143.07	69.2338	2,143.07	66.5092	2,143.07	76.0532	2,143.07	72.4792	2,143.07	59.2018	2,143.07	68.215	2,143.07	73.5703	2,143.07	67.7887	2,143.07	70.8414	2,143.07	71.3866
2,219.24	86.258	2,219.24	83.8035	2,219.24	85.6723	2,219.24	76.9421	2,219.24	81.0023	2,219.24	66.886	2,219.24	73.1972	2,219.24	78.1171	2,219.24	74.4459	2,219.24	80.2334	2,219.24	78.5975	2,219.24	80.4089	2,219.24	80.8048	2,219.24	78.9118	2,219.24	80.3134	2,219.24	74.4756	2,219.24	79.2761	2,219.24	67.5704	2,219.24	75.474	2,219.24	69.7016	2,219.24	73.6216	2,219.24	73.5716	2,219.24	76.798	2,219.24	69.9368	2,219.24	77.1402	2,219.24	72.5786	2,219.24	71.0448	2,219.24	71.629	2,219.24	71.3079	2,219.24	70.8333	2,219.24	68.936	2,219.24	66.6736	2,219.24	73.6049	2,219.24	67.6812	2,219.24	76.3218	2,219.24	71.8671
2,296.88	85.5291	2,296.88	83.6439	2,296.88	84.6685	2,296.88	77.6851	2,296.88	79.8749	2,296.88	68.0368	2,296.88	67.904	2,296.88	78.5009	2,296.88	75.4774	2,296.88	82.2924	2,296.88	80.2583	2,296.88	82.2792	2,296.88	80.9995	2,296.88	78.4687	2,296.88	78.3234	2,296.88	75.9431	2,296.88	77.5012	2,296.88	74.8501	2,296.88	77.5936	2,296.88	74.0437	2,296.88	71.0799	2,296.88	75.7114	2,296.88	75.6609	2,296.88	73.4983	2,296.88	77.1819	2,296.88	72.2342	2,296.88	72.4695	2,296.88	72.0091	2,296.88	62.3963	2,296.88	71.2376	2,296.88	68.3527	2,296.88	65.4672	2,296.88	72.7682	2,296.88	69.0676	2,296.88	76.3061	2,296.88	72.2549
2,378.91	85.1887	2,378.91	83.0851	2,378.91	84.5341	2,378.91	77.9608	2,378.91	79.8656	2,378.91	74.4262	2,378.91	68.9106	2,378.91	80.9865	2,378.91	75.8304	2,378.91	82.4289	2,378.91	81.0152	2,378.91	81.0862	2,378.91	80.9935	2,378.91	79.5845	2,378.91	79.8729	2,378.91	77.4031	2,378.91	79.3802	2,378.91	72.5174	2,378.91	77.8022	2,378.91	72.5576	2,378.91	73.5713	2,378.91	74.8715	2,378.91	66.797	2,378.91	72.9759	2,378.91	74.391	2,378.91	71.611	2,378.91	75.1437	2,378.91	73.6796	2,378.91	69.3316	2,378.91	71.3641	2,378.91	57.9953	2,378.91	64.6084	2,378.91	68.2916	2,378.91	69.4957	2,378.91	72.6622	2,378.91	68.505
2,462.4	84.88	2,462.4	83.3779	2,462.4	84.5834	2,462.4	79.8462	2,462.4	80.4838	2,462.4	73.843	2,462.4	62.8179	2,462.4	81.9276	2,462.4	77.5509	2,462.4	83.1028	2,462.4	82.0239	2,462.4	81.5134	2,462.4	82.6124	2,462.4	80.1475	2,462.4	80.8545	2,462.4	77.9136	2,462.4	78.6621	2,462.4	76.4544	2,462.4	78.8849	2,462.4	74.0163	2,462.4	76.627	2,462.4	72.4576	2,462.4	73.6686	2,462.4	71.3722	2,462.4	72.0377	2,462.4	69.9301	2,462.4	73.548	2,462.4	71.6327	2,462.4	70.6119	2,462.4	71.3654	2,462.4	53.1239	2,462.4	68.3741	2,462.4	64.9642	2,462.4	69.5108	2,462.4	72.2955	2,462.4	72.0578
2,548.83	83.0535	2,548.83	83.5748	2,548.83	82.5335	2,548.83	79.1205	2,548.83	80.6472	2,548.83	78.2433	2,548.83	71.1345	2,548.83	82.8069	2,548.83	78.2103	2,548.83	82.2299	2,548.83	82.336	2,548.83	81.7256	2,548.83	82.4343	2,548.83	79.8602	2,548.83	81.4577	2,548.83	76.3724	2,548.83	79.0064	2,548.83	74.6017	2,548.83	77.254	2,548.83	72.0553	2,548.83	74.3155	2,548.83	70.7331	2,548.83	70.7054	2,548.83	71.2187	2,548.83	73.6987	2,548.83	68.2294	2,548.83	72.4315	2,548.83	70.4557	2,548.83	72.7486	2,548.83	71.2221	2,548.83	52.8036	2,548.83	67.9043	2,548.83	67.4367	2,548.83	69.148	2,548.83	73.6315	2,548.83	71.7989
2,639.65	83.9907	2,639.65	83.5761	2,639.65	81.2989	2,639.65	78.8881	2,639.65	78.2354	2,639.65	80.0781	2,639.65	74.4314	2,639.65	82.4677	2,639.65	79.4159	2,639.65	82.9738	2,639.65	83.2159	2,639.65	81.7354	2,639.65	83.3379	2,639.65	79.866	2,639.65	81.7292	2,639.65	76.6496	2,639.65	80.3447	2,639.65	71.8663	2,639.65	78.0132	2,639.65	71.4592	2,639.65	74.5656	2,639.65	67.9797	2,639.65	67.0475	2,639.65	68.3553	2,639.65	73.0954	2,639.65	69.0882	2,639.65	72.2419	2,639.65	67.7699	2,639.65	73.0789	2,639.65	71.6595	2,639.65	63.3126	2,639.65	70.0228	2,639.65	62.94	2,639.65	68.7729	2,639.65	70.0338	2,639.65	69.481
2,731.93	84.058	2,731.93	83.6576	2,731.93	81.6095	2,731.93	80.4104	2,731.93	77.9599	2,731.93	81.0193	2,731.93	76.7387	2,731.93	82.6801	2,731.93	81.0332	2,731.93	82.8477	2,731.93	84.0072	2,731.93	81.0122	2,731.93	83.8926	2,731.93	77.6292	2,731.93	81.4812	2,731.93	75.8829	2,731.93	78.8596	2,731.93	75.2533	2,731.93	75.4884	2,731.93	73.2143	2,731.93	72.9808	2,731.93	71.7185	2,731.93	71.6197	2,731.93	69.5998	2,731.93	73.7762	2,731.93	68.4087	2,731.93	73.2701	2,731.93	68.0648	2,731.93	71.7874	2,731.93	71.4489	2,731.93	56.7212	2,731.93	70.3641	2,731.93	63.4617	2,731.93	70.4458	2,731.93	70.8656	2,731.93	70.8395
2,828.61	83.2597	2,828.61	82.8917	2,828.61	81.2529	2,828.61	80.8111	2,828.61	78.2567	2,828.61	81.4076	2,828.61	77.3635	2,828.61	83.5082	2,828.61	81.3346	2,828.61	83.12	2,828.61	83.9027	2,828.61	80.868	2,828.61	83.4496	2,828.61	79.0164	2,828.61	80.8289	2,828.61	76.6684	2,828.61	78.387	2,828.61	74.631	2,828.61	75.008	2,828.61	73.3972	2,828.61	65.0592	2,828.61	70.5938	2,828.61	65.73	2,828.61	69.3551	2,828.61	74.3745	2,828.61	69.014	2,828.61	73.5622	2,828.61	65.8079	2,828.61	70.8381	2,828.61	69.8466	2,828.61	63.8939	2,828.61	70.8192	2,828.61	68.0874	2,828.61	70.4439	2,828.61	69.1795	2,828.61	67.6406
2,928.22	83.8153	2,928.22	83.7704	2,928.22	81.4194	2,928.22	81.4629	2,928.22	78.8197	2,928.22	82.136	2,928.22	79.5519	2,928.22	83.0271	2,928.22	81.9835	2,928.22	82.2263	2,928.22	83.9477	2,928.22	80.6272	2,928.22	83.9193	2,928.22	79.5811	2,928.22	82.1011	2,928.22	77.0235	2,928.22	78.3621	2,928.22	72.3666	2,928.22	73.7887	2,928.22	71.3027	2,928.22	71.5908	2,928.22	70.1392	2,928.22	71.3333	2,928.22	68.9991	2,928.22	74.8364	2,928.22	69.0627	2,928.22	73.8257	2,928.22	67.3395	2,928.22	69.8922	2,928.22	69.9429	2,928.22	64.4082	2,928.22	71.0687	2,928.22	64.785	2,928.22	71.6109	2,928.22	70.1167	2,928.22	72.6874
3,030.76	83.5947	3,030.76	83.5613	3,030.76	81.3328	3,030.76	82.1425	3,030.76	79.9689	3,030.76	82.7414	3,030.76	80.5467	3,030.76	83.2431	3,030.76	82.2806	3,030.76	82.7784	3,030.76	83.4438	3,030.76	82.0555	3,030.76	83.5144	3,030.76	79.4974	3,030.76	82.628	3,030.76	76.638	3,030.76	77.7731	3,030.76	76.3768	3,030.76	69.6453	3,030.76	74.6587	3,030.76	71.3825	3,030.76	72.5434	3,030.76	75.0812	3,030.76	70.4229	3,030.76	74.3769	3,030.76	70.2358	3,030.76	75.2985	3,030.76	67.7328	3,030.76	69.609	3,030.76	68.7319	3,030.76	66.091	3,030.76	71.2894	3,030.76	65.447	3,030.76	72.0155	3,030.76	70.9659	3,030.76	72.4062
3,137.7	83.5855	3,137.7	83.1848	3,137.7	81.3969	3,137.7	82.0258	3,137.7	80.306	3,137.7	82.498	3,137.7	81.8461	3,137.7	83.1028	3,137.7	82.6384	3,137.7	83.1782	3,137.7	83.7624	3,137.7	81.9444	3,137.7	83.1647	3,137.7	79.7098	3,137.7	81.6093	3,137.7	79.0554	3,137.7	77.6543	3,137.7	76.4925	3,137.7	71.6184	3,137.7	72.4561	3,137.7	70.6194	3,137.7	71.5633	3,137.7	72.8786	3,137.7	69.4314	3,137.7	74.6878	3,137.7	68.5453	3,137.7	74.2466	3,137.7	68.3925	3,137.7	70.1175	3,137.7	68.2133	3,137.7	67.3424	3,137.7	70.4616	3,137.7	65.9993	3,137.7	70.6179	3,137.7	71.1507	3,137.7	71.5178
3,249.02	83.5673	3,249.02	83.2531	3,249.02	81.7788	3,249.02	82.3785	3,249.02	81.2082	3,249.02	82.7161	3,249.02	82.9299	3,249.02	83.1209	3,249.02	82.1715	3,249.02	83.3369	3,249.02	82.8846	3,249.02	82.4478	3,249.02	83.0327	3,249.02	81.4269	3,249.02	80.2567	3,249.02	76.6319	3,249.02	75.2607	3,249.02	71.3	3,249.02	73.9242	3,249.02	73.0875	3,249.02	74.9368	3,249.02	70.8336	3,249.02	74.6028	3,249.02	69.3299	3,249.02	74.66	3,249.02	67.6841	3,249.02	73.7569	3,249.02	69.0142	3,249.02	67.2852	3,249.02	68.9528	3,249.02	67.2881	3,249.02	69.2795	3,249.02	67.5606	3,249.02	72.5927	3,249.02	70.4826	3,249.02	71.0799
3,363.28	83.8494	3,363.28	83.0657	3,363.28	82.0983	3,363.28	82.1755	3,363.28	81.705	3,363.28	82.1856	3,363.28	83.2491	3,363.28	83.561	3,363.28	82.0754	3,363.28	83.7315	3,363.28	81.6806	3,363.28	82.647	3,363.28	82.7271	3,363.28	79.0144	3,363.28	81.0063	3,363.28	76.022	3,363.28	75.3142	3,363.28	76.118	3,363.28	75.9258	3,363.28	72.201	3,363.28	76.5374	3,363.28	68.6076	3,363.28	75.0667	3,363.28	69.1145	3,363.28	73.2405	3,363.28	66.7875	3,363.28	73.5876	3,363.28	66.8568	3,363.28	66.78	3,363.28	68.2527	3,363.28	69.2584	3,363.28	69.1537	3,363.28	65.9361	3,363.28	70.3559	3,363.28	68.4069	3,363.28	71.3148
3,481.93	84.1162	3,481.93	83.0335	3,481.93	82.779	3,481.93	82.0421	3,481.93	81.7443	3,481.93	81.9429	3,481.93	83.3827	3,481.93	83.6461	3,481.93	81.1021	3,481.93	83.6356	3,481.93	81.159	3,481.93	81.258	3,481.93	81.7198	3,481.93	77.8688	3,481.93	80.9429	3,481.93	76.8631	3,481.93	78.9228	3,481.93	71.7344	3,481.93	77.8909	3,481.93	69.7195	3,481.93	79.4022	3,481.93	69.3707	3,481.93	75.3824	3,481.93	65.6676	3,481.93	71.2545	3,481.93	64.6644	3,481.93	72.1885	3,481.93	65.5662	3,481.93	66.9342	3,481.93	67.5103	3,481.93	67.8979	3,481.93	67.6978	3,481.93	62.0673	3,481.93	69.9651	3,481.93	68.183	3,481.93	71.8116
3,604.98	84.1918	3,604.98	83.3816	3,604.98	83.3806	3,604.98	82.0752	3,604.98	82.6845	3,604.98	81.89	3,604.98	83.9464	3,604.98	84.0492	3,604.98	80.0921	3,604.98	82.7757	3,604.98	79.6158	3,604.98	79.4613	3,604.98	81.3591	3,604.98	78.2983	3,604.98	79.7766	3,604.98	71.8653	3,604.98	79.7846	3,604.98	73.4456	3,604.98	77.404	3,604.98	71.7368	3,604.98	77.2098	3,604.98	67.5499	3,604.98	75.9835	3,604.98	66.8727	3,604.98	71.5394	3,604.98	63.7621	3,604.98	70.9022	3,604.98	63.913	3,604.98	67.9303	3,604.98	68.494	3,604.98	68.8243	3,604.98	66.4545	3,604.98	61.7506	3,604.98	70.1395	3,604.98	67.9089	3,604.98	71.9597
3,732.42	84.243	3,732.42	83.6655	3,732.42	83.2762	3,732.42	81.3795	3,732.42	83.2253	3,732.42	82.4077	3,732.42	84.3545	3,732.42	84.0129	3,732.42	80.4113	3,732.42	81.0916	3,732.42	78.0056	3,732.42	79.6848	3,732.42	81.6486	3,732.42	75.6371	3,732.42	81.3633	3,732.42	76.0808	3,732.42	79.4643	3,732.42	74.4223	3,732.42	77.2312	3,732.42	69.4208	3,732.42	74.4771	3,732.42	69.7114	3,732.42	73.4066	3,732.42	65.8288	3,732.42	74.1776	3,732.42	65.8187	3,732.42	67.0617	3,732.42	59.1574	3,732.42	69.3989	3,732.42	67.3906	3,732.42	69.1718	3,732.42	65.6292	3,732.42	63.4742	3,732.42	68.653	3,732.42	68.1395	3,732.42	72.2191
3,864.26	85.2739	3,864.26	84.1543	3,864.26	83.5523	3,864.26	81.1612	3,864.26	83.1217	3,864.26	83.4304	3,864.26	84.6836	3,864.26	82.7235	3,864.26	80.4779	3,864.26	80.7845	3,864.26	76.4358	3,864.26	78.8233	3,864.26	80.2592	3,864.26	78.5971	3,864.26	81.6193	3,864.26	76.3868	3,864.26	79.9156	3,864.26	70.6337	3,864.26	74.7147	3,864.26	70.9053	3,864.26	70.822	3,864.26	69.0381	3,864.26	70.0985	3,864.26	66.6658	3,864.26	73.4545	3,864.26	65.3287	3,864.26	70.8435	3,864.26	57.6528	3,864.26	68.6295	3,864.26	65.5146	3,864.26	70.4116	3,864.26	64.7558	3,864.26	61.3609	3,864.26	67.0874	3,864.26	68.2605	3,864.26	71.8647
4,000.49	85.4565	4,000.49	83.8494	4,000.49	84.2095	4,000.49	81.578	4,000.49	83.6642	4,000.49	83.5444	4,000.49	84.5272	4,000.49	81.7125	4,000.49	81.2349	4,000.49	81.146	4,000.49	73.0675	4,000.49	79.943	4,000.49	79.8581	4,000.49	77.5443	4,000.49	80.9635	4,000.49	72.9095	4,000.49	79.0862	4,000.49	74.5704	4,000.49	74.9468	4,000.49	71.0606	4,000.49	71.3132	4,000.49	67.2309	4,000.49	68.1918	4,000.49	65.8715	4,000.49	73.0418	4,000.49	66.5369	4,000.49	68.3245	4,000.49	59.8747	4,000.49	65.5771	4,000.49	66.1487	4,000.49	69.8096	4,000.49	62.6431	4,000.49	62.7877	4,000.49	69.4394	4,000.49	69.3433	4,000.49	71.8453
4,141.11	86.2685	4,141.11	84.1598	4,141.11	84.8801	4,141.11	82.8061	4,141.11	84.0406	4,141.11	82.8496	4,141.11	84.5737	4,141.11	81.621	4,141.11	81.3784	4,141.11	81.9228	4,141.11	75.2072	4,141.11	80.2107	4,141.11	79.0569	4,141.11	77.6073	4,141.11	79.5918	4,141.11	77.9052	4,141.11	78.0413	4,141.11	73.9491	4,141.11	71.5288	4,141.11	69.0169	4,141.11	71.8248	4,141.11	69.6351	4,141.11	71.7031	4,141.11	63.7214	4,141.11	72.9109	4,141.11	66.1284	4,141.11	65.713	4,141.11	61.1277	4,141.11	61.6801	4,141.11	64.8902	4,141.11	69.4147	4,141.11	59.9192	4,141.11	60.4083	4,141.11	69.3836	4,141.11	68.5729	4,141.11	72.6947
4,287.6	86.6809	4,287.6	84.7693	4,287.6	85.112	4,287.6	83.1503	4,287.6	84.1824	4,287.6	82.2882	4,287.6	84.1872	4,287.6	82.089	4,287.6	81.1266	4,287.6	81.8578	4,287.6	77.8855	4,287.6	79.3511	4,287.6	78.9884	4,287.6	79.1601	4,287.6	80.1	4,287.6	72.7347	4,287.6	77.7924	4,287.6	74.1037	4,287.6	64.8082	4,287.6	71.1213	4,287.6	73.0345	4,287.6	68.4722	4,287.6	71.9837	4,287.6	65.8683	4,287.6	73.9685	4,287.6	65.6278	4,287.6	67.6446	4,287.6	59.3509	4,287.6	63.9412	4,287.6	66.76	4,287.6	67.5884	4,287.6	60.2376	4,287.6	56.7845	4,287.6	68.7613	4,287.6	69.465	4,287.6	73.7512
4,438.48	87.0005	4,438.48	85.2418	4,438.48	85.0487	4,438.48	83.4362	4,438.48	84.1289	4,438.48	81.6663	4,438.48	84.0983	4,438.48	82.4108	4,438.48	81.4275	4,438.48	80.6055	4,438.48	77.19	4,438.48	81.26	4,438.48	80.1431	4,438.48	76.0584	4,438.48	80.9218	4,438.48	76.6826	4,438.48	74.0382	4,438.48	72.1676	4,438.48	61.3964	4,438.48	64.5549	4,438.48	67.7948	4,438.48	68.4655	4,438.48	71.6941	4,438.48	62.9179	4,438.48	74.4916	4,438.48	65.4276	4,438.48	65.9555	4,438.48	49.8305	4,438.48	66.8451	4,438.48	64.1939	4,438.48	65.1807	4,438.48	58.0108	4,438.48	63.5967	4,438.48	68.4621	4,438.48	69.9102	4,438.48	72.2128
4,595.21	86.9574	4,595.21	85.6606	4,595.21	86.0285	4,595.21	83.4204	4,595.21	83.6773	4,595.21	82.815	4,595.21	84.0796	4,595.21	81.9928	4,595.21	81.0894	4,595.21	81.3364	4,595.21	77.6963	4,595.21	78.3612	4,595.21	80.3827	4,595.21	76.4357	4,595.21	79.6078	4,595.21	71.4295	4,595.21	70.3793	4,595.21	71.1873	4,595.21	63.551	4,595.21	70.5666	4,595.21	61.9847	4,595.21	64.3576	4,595.21	70.1641	4,595.21	66.4638	4,595.21	73.1309	4,595.21	64.6293	4,595.21	66.6357	4,595.21	55.1073	4,595.21	66.0445	4,595.21	66.0274	4,595.21	66.7482	4,595.21	52.8841	4,595.21	63.2116	4,595.21	68.9468	4,595.21	69.4213	4,595.21	71.098
4,756.35	87.2495	4,756.35	85.8522	4,756.35	85.4049	4,756.35	83.4877	4,756.35	83.7678	4,756.35	82.9269	4,756.35	83.1012	4,756.35	81.9815	4,756.35	81.5386	4,756.35	80.7891	4,756.35	77.6919	4,756.35	79.0686	4,756.35	79.1416	4,756.35	74.7629	4,756.35	77.1744	4,756.35	76.0725	4,756.35	65.1296	4,756.35	71.8116	4,756.35	71.2985	4,756.35	69.2447	4,756.35	38.7803	4,756.35	67.1473	4,756.35	64.3966	4,756.35	65.7856	4,756.35	72.6256	4,756.35	64.822	4,756.35	64.9603	4,756.35	62.6452	4,756.35	65.6917	4,756.35	63.7872	4,756.35	68.0438	4,756.35	53.0516	4,756.35	63.1307	4,756.35	68.4568	4,756.35	69.4251	4,756.35	72.9592
4,924.8	86.693	4,924.8	85.7778	4,924.8	85.454	4,924.8	83.5963	4,924.8	83.5311	4,924.8	83.0641	4,924.8	83.501	4,924.8	82.3238	4,924.8	82.2221	4,924.8	80.763	4,924.8	76.923	4,924.8	78.0736	4,924.8	78.0401	4,924.8	78.5805	4,924.8	72.4578	4,924.8	75.1097	4,924.8	73.7556	4,924.8	71.8222	4,924.8	73.6549	4,924.8	70.7185	4,924.8	65.2556	4,924.8	67.1461	4,924.8	59.6207	4,924.8	66.5861	4,924.8	70.5058	4,924.8	64.6853	4,924.8	68.6741	4,924.8	63.335	4,924.8	66.9744	4,924.8	63.4696	4,924.8	69.4351	4,924.8	59.5013	4,924.8	60.9198	4,924.8	66.4997	4,924.8	70.6235	4,924.8	70.2515
5,097.66	86.7258	5,097.66	85.6158	5,097.66	85.2222	5,097.66	83.7967	5,097.66	83.0536	5,097.66	82.6219	5,097.66	83.6334	5,097.66	81.9591	5,097.66	82.2499	5,097.66	80.0959	5,097.66	74.6129	5,097.66	80.3705	5,097.66	77.0758	5,097.66	77.3454	5,097.66	75.6249	5,097.66	76.0089	5,097.66	75.7071	5,097.66	71.6818	5,097.66	73.0042	5,097.66	68.4286	5,097.66	68.417	5,097.66	66.3027	5,097.66	66.0061	5,097.66	65.0617	5,097.66	70.9358	5,097.66	62.0568	5,097.66	70.5678	5,097.66	63.0202	5,097.66	62.1661	5,097.66	59.4186	5,097.66	69.6352	5,097.66	61.4559	5,097.66	59.0978	5,097.66	65.3324	5,097.66	67.588	5,097.66	68.9112
5,277.83	86.4827	5,277.83	85.7004	5,277.83	85.3477	5,277.83	83.846	5,277.83	83.3372	5,277.83	83.4699	5,277.83	83.4349	5,277.83	81.7104	5,277.83	83.2609	5,277.83	81.1167	5,277.83	77.2933	5,277.83	80.1696	5,277.83	74.1164	5,277.83	76.7228	5,277.83	79.4442	5,277.83	72.2707	5,277.83	78.2891	5,277.83	69.2287	5,277.83	67.8722	5,277.83	67.2786	5,277.83	66.9062	5,277.83	64.9837	5,277.83	66.1273	5,277.83	64.8207	5,277.83	72.0796	5,277.83	60.0043	5,277.83	70.1889	5,277.83	58.9129	5,277.83	63.4289	5,277.83	55.4741	5,277.83	65.9268	5,277.83	53.341	5,277.83	62.1334	5,277.83	62.8569	5,277.83	64.217	5,277.83	69.6716
5,463.87	85.7626	5,463.87	85.5013	5,463.87	85.1814	5,463.87	84.0073	5,463.87	84.1474	5,463.87	83.4794	5,463.87	83.0353	5,463.87	81.3995	5,463.87	83.9073	5,463.87	81.6606	5,463.87	79.9788	5,463.87	79.3916	5,463.87	70.9459	5,463.87	75.2079	5,463.87	79.3447	5,463.87	75.1685	5,463.87	78.7992	5,463.87	70.8249	5,463.87	70.3316	5,463.87	68.6997	5,463.87	64.8665	5,463.87	67.6815	5,463.87	62.3343	5,463.87	65.1295	5,463.87	68.5688	5,463.87	64.3086	5,463.87	69.0692	5,463.87	61.6435	5,463.87	60.0209	5,463.87	55.2673	5,463.87	64.4916	5,463.87	45.9946	5,463.87	60.037	5,463.87	61.7365	5,463.87	64.4401	5,463.87	67.3661
5,657.23	85.4249	5,657.23	85.3554	5,657.23	84.3923	5,657.23	84.2437	5,657.23	84.2972	5,657.23	83.1583	5,657.23	82.5219	5,657.23	82.2998	5,657.23	83.0173	5,657.23	81.6898	5,657.23	79.7805	5,657.23	78.3362	5,657.23	72.5139	5,657.23	76.7996	5,657.23	78.7835	5,657.23	74.2627	5,657.23	78.7644	5,657.23	71.2212	5,657.23	71.6573	5,657.23	69.4592	5,657.23	57.5959	5,657.23	67.412	5,657.23	44.3401	5,657.23	66.0609	5,657.23	67.1754	5,657.23	63.7308	5,657.23	67.1901	5,657.23	61.8025	5,657.23	61.4897	5,657.23	57.8828	5,657.23	61.419	5,657.23	46.5038	5,657.23	63.0846	5,657.23	63.3463	5,657.23	65.3115	5,657.23	66.0304
5,856.45	84.931	5,856.45	84.6369	5,856.45	83.8255	5,856.45	84.3179	5,856.45	84.2694	5,856.45	82.5908	5,856.45	82.1953	5,856.45	82.7575	5,856.45	82.2683	5,856.45	80.6037	5,856.45	79.734	5,856.45	79.5849	5,856.45	72.5276	5,856.45	76.8215	5,856.45	79.0729	5,856.45	75.0648	5,856.45	76.2952	5,856.45	67.7973	5,856.45	69.3266	5,856.45	69.1826	5,856.45	63.6701	5,856.45	65.5716	5,856.45	61.7832	5,856.45	65.9759	5,856.45	63.4762	5,856.45	63.8122	5,856.45	60.4311	5,856.45	62.9847	5,856.45	62.1518	5,856.45	58.8639	5,856.45	60.506	5,856.45	44.7203	5,856.45	63.7251	5,856.45	61.6949	5,856.45	63.8751	5,856.45	64.8941
6,062.99	84.291	6,062.99	84.1679	6,062.99	83.459	6,062.99	84.1829	6,062.99	84.0342	6,062.99	83.0779	6,062.99	82.093	6,062.99	82.4556	6,062.99	81.7556	6,062.99	80.8156	6,062.99	79.4351	6,062.99	79.7114	6,062.99	75.196	6,062.99	76.2088	6,062.99	78.7029	6,062.99	74.2634	6,062.99	72.9892	6,062.99	69.7343	6,062.99	69.8816	6,062.99	68.9828	6,062.99	68.0019	6,062.99	64.6929	6,062.99	65.9024	6,062.99	66.1837	6,062.99	63.4942	6,062.99	63.1048	6,062.99	60.1987	6,062.99	63.6069	6,062.99	54.2474	6,062.99	58.6564	6,062.99	61.545	6,062.99	42.1141	6,062.99	63.416	6,062.99	61.1008	6,062.99	63.948	6,062.99	64.2522
6,276.86	83.5945	6,276.86	83.9125	6,276.86	83.5597	6,276.86	83.8936	6,276.86	83.9806	6,276.86	83.0685	6,276.86	82.0223	6,276.86	81.988	6,276.86	81.8404	6,276.86	81.2594	6,276.86	80.3719	6,276.86	79.3535	6,276.86	77.1313	6,276.86	76.5824	6,276.86	78.6507	6,276.86	72.8247	6,276.86	75.0524	6,276.86	71.0436	6,276.86	70.903	6,276.86	68.4848	6,276.86	68.0819	6,276.86	65.5247	6,276.86	64.6217	6,276.86	65.9951	6,276.86	68.438	6,276.86	61.6579	6,276.86	65.3598	6,276.86	63.8603	6,276.86	56.9849	6,276.86	59.8569	6,276.86	55.3893	6,276.86	49.1662	6,276.86	62.057	6,276.86	60.0194	6,276.86	62.5446	6,276.86	63.2535
6,498.05	83.4884	6,498.05	83.9118	6,498.05	83.4672	6,498.05	83.7135	6,498.05	84.013	6,498.05	82.8897	6,498.05	81.4843	6,498.05	81.6132	6,498.05	82.2535	6,498.05	81.4613	6,498.05	81.6999	6,498.05	79.4444	6,498.05	76.8851	6,498.05	77.5202	6,498.05	79.5039	6,498.05	73.3108	6,498.05	76.739	6,498.05	70.4595	6,498.05	72.0075	6,498.05	66.5338	6,498.05	69.0884	6,498.05	65.2981	6,498.05	64.1716	6,498.05	64.9209	6,498.05	67.4283	6,498.05	62.6998	6,498.05	64.6914	6,498.05	62.2756	6,498.05	59.9237	6,498.05	61.2376	6,498.05	46.7807	6,498.05	43.682	6,498.05	61.9806	6,498.05	59.7466	6,498.05	58.8068	6,498.05	63.68
6,726.56	83.4261	6,726.56	83.5109	6,726.56	83.3045	6,726.56	83.6764	6,726.56	83.5966	6,726.56	82.5895	6,726.56	81.0152	6,726.56	81.4137	6,726.56	82.2201	6,726.56	81.2265	6,726.56	82.1285	6,726.56	79.9537	6,726.56	76.4426	6,726.56	76.7585	6,726.56	76.693	6,726.56	72.6835	6,726.56	77.3473	6,726.56	70.2441	6,726.56	71.8283	6,726.56	65.411	6,726.56	66.4184	6,726.56	64.8229	6,726.56	61.2066	6,726.56	62.9179	6,726.56	61.0468	6,726.56	61.4583	6,726.56	63.6962	6,726.56	61.3679	6,726.56	61.4633	6,726.56	61.0415	6,726.56	56.7968	6,726.56	48.3944	6,726.56	62.6203	6,726.56	58.135	6,726.56	58.7263	6,726.56	62.0118
6,963.87	83.5622	6,963.87	82.8787	6,963.87	83.3907	6,963.87	83.746	6,963.87	83.5208	6,963.87	82.0041	6,963.87	81.0241	6,963.87	81.1684	6,963.87	81.8833	6,963.87	81.1587	6,963.87	81.2	6,963.87	79.7714	6,963.87	73.9344	6,963.87	75.4426	6,963.87	73.8191	6,963.87	71.0889	6,963.87	73.6711	6,963.87	67.6131	6,963.87	65.2753	6,963.87	64.8461	6,963.87	61.1814	6,963.87	63.6338	6,963.87	59.9335	6,963.87	61.2115	6,963.87	61.3884	6,963.87	59.0895	6,963.87	65.0546	6,963.87	59.427	6,963.87	57.3396	6,963.87	60.309	6,963.87	52.3909	6,963.87	44.1659	6,963.87	61.5142	6,963.87	56.8299	6,963.87	56.7631	6,963.87	59.892
7,209.96	83.5228	7,209.96	82.5484	7,209.96	83.2409	7,209.96	83.7311	7,209.96	82.7148	7,209.96	81.3238	7,209.96	81.6342	7,209.96	81.3662	7,209.96	81.381	7,209.96	81.0507	7,209.96	79.5693	7,209.96	79.3197	7,209.96	74.4358	7,209.96	74.3544	7,209.96	73.014	7,209.96	70.0739	7,209.96	70.459	7,209.96	65.5546	7,209.96	67.1765	7,209.96	64.436	7,209.96	60.2017	7,209.96	62.4591	7,209.96	58.6357	7,209.96	60.6417	7,209.96	57.5479	7,209.96	59.6258	7,209.96	60.9057	7,209.96	59.4576	7,209.96	58.5943	7,209.96	60.0059	7,209.96	51.2558	7,209.96	52.7048	7,209.96	59.3516	7,209.96	55.5351	7,209.96	56.7214	7,209.96	60.4834
7,464.84	83.3133	7,464.84	82.9535	7,464.84	83.6754	7,464.84	83.3792	7,464.84	82.7895	7,464.84	81.2735	7,464.84	82.096	7,464.84	81.1652	7,464.84	81.2071	7,464.84	80.7487	7,464.84	78.8446	7,464.84	78.4787	7,464.84	75.073	7,464.84	73.7899	7,464.84	70.6894	7,464.84	69.4375	7,464.84	64.4907	7,464.84	66.5841	7,464.84	68.1322	7,464.84	63.9555	7,464.84	59.4249	7,464.84	60.8793	7,464.84	60.1692	7,464.84	60.9072	7,464.84	57.4217	7,464.84	59.3536	7,464.84	58.2719	7,464.84	60.2654	7,464.84	60.8833	7,464.84	59.9986	7,464.84	54.2441	7,464.84	53.4496	7,464.84	57.1937	7,464.84	56.7443	7,464.84	58.0152	7,464.84	61.2385
7,727.05	83.1921	7,727.05	83.1759	7,727.05	83.3873	7,727.05	82.8392	7,727.05	82.5822	7,727.05	81.6209	7,727.05	82.0139	7,727.05	80.8406	7,727.05	81.1568	7,727.05	80.2361	7,727.05	79.8127	7,727.05	77.0023	7,727.05	77.0048	7,727.05	73.4084	7,727.05	66.1076	7,727.05	67.9994	7,727.05	66.7146	7,727.05	66.7831	7,727.05	66.4917	7,727.05	61.4287	7,727.05	66.4586	7,727.05	61.8391	7,727.05	58.6068	7,727.05	59.038	7,727.05	60.9	7,727.05	57.6773	7,727.05	59.8947	7,727.05	61.3262	7,727.05	63.1216	7,727.05	58.5206	7,727.05	54.0731	7,727.05	54.3239	7,727.05	54.8161	7,727.05	54.3315	7,727.05	57.3739	7,727.05	59.4823
7,999.51	83.4106	7,999.51	83.5269	7,999.51	83.7046	7,999.51	82.7868	7,999.51	83.1019	7,999.51	81.6216	7,999.51	82.1086	7,999.51	80.6659	7,999.51	80.4666	7,999.51	79.6399	7,999.51	79.5705	7,999.51	76.2354	7,999.51	76.9661	7,999.51	73.3116	7,999.51	64.2722	7,999.51	69.0228	7,999.51	72.7391	7,999.51	66.9182	7,999.51	70.866	7,999.51	61.4893	7,999.51	62.7417	7,999.51	61.9393	7,999.51	52.8328	7,999.51	58.7564	7,999.51	56.799	7,999.51	58.733	7,999.51	54.1568	7,999.51	61.3069	7,999.51	63.1265	7,999.51	58.3294	7,999.51	49.9069	7,999.51	59.0042	7,999.51	55.5536	7,999.51	52.7373	7,999.51	57.0914	7,999.51	59.3472
8,282.23	83.7656	8,282.23	83.6536	8,282.23	83.6207	8,282.23	82.8953	8,282.23	83.6159	8,282.23	81.7998	8,282.23	82.0132	8,282.23	80.4155	8,282.23	79.8842	8,282.23	78.8552	8,282.23	78.9414	8,282.23	76.3308	8,282.23	76.0839	8,282.23	73.5323	8,282.23	70.8494	8,282.23	69.5624	8,282.23	75.4371	8,282.23	66.5584	8,282.23	70.5342	8,282.23	62.3239	8,282.23	58.667	8,282.23	60.9325	8,282.23	52.0335	8,282.23	58.2257	8,282.23	55.5613	8,282.23	58.6567	8,282.23	47.0712	8,282.23	60.922	8,282.23	60.4744	8,282.23	58.7574	8,282.23	44.7174	8,282.23	58.989	8,282.23	57.5859	8,282.23	54.6154	8,282.23	55.4046	8,282.23	60.6494
8,573.73	84.0778	8,573.73	83.7097	8,573.73	83.5549	8,573.73	83.0292	8,573.73	84.176	8,573.73	82.0821	8,573.73	81.8529	8,573.73	79.867	8,573.73	79.3271	8,573.73	78.4391	8,573.73	78.2759	8,573.73	76.5555	8,573.73	75.6294	8,573.73	73.039	8,573.73	72.2732	8,573.73	69.0204	8,573.73	75.1832	8,573.73	65.575	8,573.73	67.7486	8,573.73	61.2863	8,573.73	51.9491	8,573.73	59.4849	8,573.73	57.4583	8,573.73	58.3256	8,573.73	46.1117	8,573.73	57.4785	8,573.73	46.138	8,573.73	59.4774	8,573.73	61.3831	8,573.73	58.606	8,573.73	56.5317	8,573.73	57.6745	8,573.73	57.3785	8,573.73	51.7254	8,573.73	53.9043	8,573.73	59.8866
8,876.95	84.2329	8,876.95	83.6707	8,876.95	83.5246	8,876.95	83.3772	8,876.95	84.1952	8,876.95	82.3292	8,876.95	81.7904	8,876.95	79.5078	8,876.95	79.5834	8,876.95	78.5348	8,876.95	78.3124	8,876.95	76.2912	8,876.95	74.8228	8,876.95	72.9113	8,876.95	72.7504	8,876.95	68.7768	8,876.95	72.9783	8,876.95	65.5633	8,876.95	63.8351	8,876.95	60.4399	8,876.95	60.8189	8,876.95	58.6963	8,876.95	46.9006	8,876.95	59.0576	8,876.95	49.0104	8,876.95	56.7106	8,876.95	50.6104	8,876.95	58.5074	8,876.95	56.9161	8,876.95	58.6042	8,876.95	55.294	8,876.95	58.5018	8,876.95	58.1002	8,876.95	51.2062	8,876.95	47.6331	8,876.95	59.3965
9,188.96	84.3566	9,188.96	83.7203	9,188.96	83.5893	9,188.96	83.6753	9,188.96	83.9731	9,188.96	82.1991	9,188.96	81.7865	9,188.96	79.6365	9,188.96	80.2123	9,188.96	78.2003	9,188.96	78.3448	9,188.96	76.1308	9,188.96	74.4319	9,188.96	72.5668	9,188.96	72.0766	9,188.96	67.4953	9,188.96	69.8602	9,188.96	64.084	9,188.96	60.3488	9,188.96	59.0575	9,188.96	62.1825	9,188.96	56.7762	9,188.96	52.5869	9,188.96	58.0765	9,188.96	52.4	9,188.96	54.4125	9,188.96	35.2054	9,188.96	55.8913	9,188.96	56.7124	9,188.96	58.6964	9,188.96	55.7399	9,188.96	57.4148	9,188.96	56.4641	9,188.96	53.7313	9,188.96	49.0433	9,188.96	58.2439
9,514.16	84.3404	9,514.16	84.1149	9,514.16	84.04	9,514.16	83.8343	9,514.16	83.6118	9,514.16	82.2679	9,514.16	81.6501	9,514.16	79.4014	9,514.16	80.1757	9,514.16	78.6942	9,514.16	78.4289	9,514.16	75.5439	9,514.16	74.9072	9,514.16	70.8038	9,514.16	70.0435	9,514.16	65.4047	9,514.16	64.8383	9,514.16	63.5765	9,514.16	60.0466	9,514.16	59.0135	9,514.16	61.8767	9,514.16	57.175	9,514.16	51.693	9,514.16	55.9458	9,514.16	56.5007	9,514.16	53.2254	9,514.16	32.6764	9,514.16	55.8304	9,514.16	56.0213	9,514.16	58.3497	9,514.16	58.8564	9,514.16	55.4891	9,514.16	56.1175	9,514.16	50.0741	9,514.16	46.5539	9,514.16	56.0964
9,849.61	84.2634	9,849.61	84.5301	9,849.61	84.5571	9,849.61	83.6507	9,849.61	83.6099	9,849.61	82.1421	9,849.61	81.5425	9,849.61	79.4021	9,849.61	79.6355	9,849.61	79.0228	9,849.61	78.0091	9,849.61	73.8414	9,849.61	74.1216	9,849.61	70.5059	9,849.61	69.3072	9,849.61	65.7797	9,849.61	66.4352	9,849.61	62.0771	9,849.61	64.2185	9,849.61	59.0807	9,849.61	60.2594	9,849.61	56.9575	9,849.61	49.5949	9,849.61	54.2029	9,849.61	50.6833	9,849.61	53.6424	9,849.61	51.0578	9,849.61	55.8093	9,849.61	48.388	9,849.61	57.1061	9,849.61	53.2052	9,849.61	54.014	9,849.61	54.4015	9,849.61	51.6168	9,849.61	53.7145	9,849.61	52.312
10,196.8	84.4487	10,196.8	84.5546	10,196.8	84.8595	10,196.8	83.8938	10,196.8	83.8723	10,196.8	81.3703	10,196.8	82.0478	10,196.8	79.8675	10,196.8	79.4485	10,196.8	78.1391	10,196.8	77.0362	10,196.8	73.9886	10,196.8	74.783	10,196.8	69.5934	10,196.8	71.1456	10,196.8	65.1894	10,196.8	66.0285	10,196.8	60.9034	10,196.8	60.3533	10,196.8	58.8673	10,196.8	54.2445	10,196.8	56.0559	10,196.8	48.1411	10,196.8	50.9696	10,196.8	41.3353	10,196.8	53.4912	10,196.8	51.8079	10,196.8	54.2666	10,196.8	54.5096	10,196.8	55.769	10,196.8	47.6149	10,196.8	54.6434	10,196.8	49.9249	10,196.8	52.7094	10,196.8	52.4615	10,196.8	48.1096
10,555.7	84.5186	10,555.7	84.4178	10,555.7	84.7189	10,555.7	83.8797	10,555.7	83.7544	10,555.7	81.0742	10,555.7	82.2416	10,555.7	79.5582	10,555.7	78.7429	10,555.7	77.3942	10,555.7	76.9678	10,555.7	73.7135	10,555.7	74.0859	10,555.7	69.1419	10,555.7	70.0699	10,555.7	64.6889	10,555.7	62.9987	10,555.7	59.856	10,555.7	56.5306	10,555.7	55.1773	10,555.7	54.7107	10,555.7	52.9527	10,555.7	51.2094	10,555.7	49.019	10,555.7	41.6531	10,555.7	53.0276	10,555.7	52.2176	10,555.7	53.7349	10,555.7	55.538	10,555.7	54.4563	10,555.7	47.5495	10,555.7	52.8738	10,555.7	53.776	10,555.7	49.4759	10,555.7	52.0268	10,555.7	49.4893
10,927.7	84.4548	10,927.7	84.2949	10,927.7	84.4736	10,927.7	83.6167	10,927.7	83.4751	10,927.7	81.2027	10,927.7	82.2493	10,927.7	78.8878	10,927.7	78.8503	10,927.7	76.8196	10,927.7	76.2587	10,927.7	73.2154	10,927.7	73.2043	10,927.7	68.5101	10,927.7	68.2481	10,927.7	62.7228	10,927.7	63.2758	10,927.7	58.0773	10,927.7	59.9186	10,927.7	53.177	10,927.7	59.0946	10,927.7	49.8704	10,927.7	50.5139	10,927.7	50.3431	10,927.7	46.908	10,927.7	51.5761	10,927.7	47.7005	10,927.7	52.5175	10,927.7	49.131	10,927.7	52.5986	10,927.7	43.2837	10,927.7	51.2093	10,927.7	52.6843	10,927.7	44.6198	10,927.7	50.5326	10,927.7	49.2167
11,313	84.6037	11,313	84.4193	11,313	84.3591	11,313	83.2704	11,313	83.6132	11,313	81.4877	11,313	82.0695	11,313	78.2893	11,313	78.935	11,313	76.2661	11,313	75.6184	11,313	72.619	11,313	73.2349	11,313	66.8712	11,313	67.0616	11,313	60.8379	11,313	66.3521	11,313	57.1101	11,313	59.6013	11,313	54.0917	11,313	57.5965	11,313	43.5845	11,313	36.9767	11,313	48.5	11,313	51.0389	11,313	47.3343	11,313	49.1609	11,313	49.3873	11,313	49.1493	11,313	49.9387	11,313	42.1165	11,313	44.5071	11,313	52.5511	11,313	36.5029	11,313	50.7156	11,313	50.1889
11,712.9	84.6807	11,712.9	84.5879	11,712.9	84.4699	11,712.9	83.1675	11,712.9	83.7108	11,712.9	81.7176	11,712.9	81.5859	11,712.9	77.809	11,712.9	78.7641	11,712.9	76.1784	11,712.9	74.8809	11,712.9	71.3562	11,712.9	71.0412	11,712.9	65.4443	11,712.9	68.4791	11,712.9	60.6608	11,712.9	67.2279	11,712.9	56.3303	11,712.9	56.604	11,712.9	54.0365	11,712.9	55.8681	11,712.9	37.3105	11,712.9	42.6417	11,712.9	49.429	11,712.9	47.8281	11,712.9	41.9307	11,712.9	50.2898	11,712.9	47.2895	11,712.9	50.2029	11,712.9	47.8825	11,712.9	45.5221	11,712.9	45.9174	11,712.9	50.4132	11,712.9	33.8732	11,712.9	49.1474	11,712.9	49.5064
12,126	84.815	12,126	84.9308	12,126	84.6462	12,126	83.3439	12,126	83.48	12,126	81.5578	12,126	81.0762	12,126	77.8581	12,126	78.6511	12,126	75.9588	12,126	74.3358	12,126	71.0407	12,126	70.4381	12,126	64.07	12,126	69.4	12,126	62.434	12,126	65.2108	12,126	58.1132	12,126	56.9442	12,126	55.8361	12,126	52.4994	12,126	44.1185	12,126	52.9835	12,126	48.8921	12,126	36.9357	12,126	36.8588	12,126	43.5275	12,126	46.6457	12,126	51.8786	12,126	45.0423	12,126	49.4232	12,126	46.7808	12,126	50.2545	12,126	39.9536	12,126	47.4888	12,126	50.52
12,553.7	84.9137	12,553.7	84.9838	12,553.7	84.6748	12,553.7	83.4633	12,553.7	83.374	12,553.7	81.191	12,553.7	80.8548	12,553.7	77.8086	12,553.7	77.9801	12,553.7	75.0882	12,553.7	74.4345	12,553.7	70.8425	12,553.7	71.6765	12,553.7	64.3614	12,553.7	67.5609	12,553.7	62.0868	12,553.7	57.7866	12,553.7	58.2929	12,553.7	57.0737	12,553.7	53.9309	12,553.7	43.4724	12,553.7	47.5774	12,553.7	53.5779	12,553.7	46.494	12,553.7	44.2045	12,553.7	32.3124	12,553.7	49.9176	12,553.7	43.4936	12,553.7	52.4612	12,553.7	44.3816	12,553.7	44.581	12,553.7	47.0419	12,553.7	45.4022	12,553.7	40.4084	12,553.7	39.9568	12,553.7	47.3796
12,996.1	84.8604	12,996.1	84.566	12,996.1	84.5133	12,996.1	83.2607	12,996.1	83.3503	12,996.1	80.5923	12,996.1	80.7925	12,996.1	77.6671	12,996.1	77.4604	12,996.1	73.9921	12,996.1	74.4468	12,996.1	70.5548	12,996.1	71.8831	12,996.1	64.7186	12,996.1	67.6712	12,996.1	60.6311	12,996.1	56.4752	12,996.1	55.9663	12,996.1	52.9659	12,996.1	50.735	12,996.1	53.4148	12,996.1	46.5286	12,996.1	48.6937	12,996.1	45.0947	12,996.1	41.9682	12,996.1	29.1649	12,996.1	48.9353	12,996.1	43.83	12,996.1	52.9845	12,996.1	46.2453	12,996.1	41.0049	12,996.1	45.7044	12,996.1	47.2509	12,996.1	38.4835	12,996.1	43.7454	12,996.1	48.2736
13,454.6	84.9198	13,454.6	84.3901	13,454.6	84.4183	13,454.6	82.9578	13,454.6	83.3103	13,454.6	79.9936	13,454.6	80.7376	13,454.6	77.3341	13,454.6	77.062	13,454.6	73.2663	13,454.6	74.488	13,454.6	70.2684	13,454.6	70.1182	13,454.6	64.2182	13,454.6	66.5937	13,454.6	58.5096	13,454.6	56.0762	13,454.6	54.5457	13,454.6	52.6738	13,454.6	48.1546	13,454.6	50.9103	13,454.6	47.2373	13,454.6	44.342	13,454.6	40.3025	13,454.6	46.0388	13,454.6	40.6328	13,454.6	47.3399	13,454.6	44.0054	13,454.6	54.3234	13,454.6	46.9385	13,454.6	46.5975	13,454.6	44.7793	13,454.6	46.9336	13,454.6	36.4106	13,454.6	45.2232	13,454.6	49.1344
13,929.2	84.9674	13,929.2	84.415	13,929.2	84.2452	13,929.2	82.798	13,929.2	83.2719	13,929.2	79.9361	13,929.2	80.6636	13,929.2	76.7004	13,929.2	76.591	13,929.2	73.4059	13,929.2	71.8528	13,929.2	69.4815	13,929.2	69.3288	13,929.2	62.3972	13,929.2	64.9397	13,929.2	58.2232	13,929.2	59.5265	13,929.2	52.7885	13,929.2	51.9183	13,929.2	47.9808	13,929.2	38.0147	13,929.2	46.4272	13,929.2	45.4619	13,929.2	24.6763	13,929.2	42.6888	13,929.2	42.0425	13,929.2	46.7202	13,929.2	44.4348	13,929.2	52.0817	13,929.2	47.5288	13,929.2	46.1037	13,929.2	45.9895	13,929.2	46.1507	13,929.2	24.6039	13,929.2	45.4567	13,929.2	47.4681
14,419.9	84.8928	14,419.9	84.4418	14,419.9	83.9113	14,419.9	82.6949	14,419.9	82.6985	14,419.9	80.0655	14,419.9	80.2897	14,419.9	76.1649	14,419.9	76.7784	14,419.9	73.6437	14,419.9	72.3294	14,419.9	68.179	14,419.9	69.1736	14,419.9	62.7819	14,419.9	66.5268	14,419.9	58.1353	14,419.9	56.435	14,419.9	53.705	14,419.9	53.0113	14,419.9	46.1507	14,419.9	49.7012	14,419.9	48.0735	14,419.9	47.4942	14,419.9	39.3558	14,419.9	37.8908	14,419.9	42.7971	14,419.9	46.1717	14,419.9	45.0156	14,419.9	49.2482	14,419.9	47.1903	14,419.9	44.9625	14,419.9	45.6297	14,419.9	44.7357	14,419.9	30.1439	14,419.9	40.8233	14,419.9	46.579
14,928.2	84.9459	14,928.2	84.399	14,928.2	83.7903	14,928.2	82.3965	14,928.2	81.8263	14,928.2	80.135	14,928.2	79.7935	14,928.2	75.8323	14,928.2	76.0439	14,928.2	73.3418	14,928.2	71.8224	14,928.2	67.0868	14,928.2	66.5285	14,928.2	61.4453	14,928.2	67.3705	14,928.2	58.1215	14,928.2	54.2174	14,928.2	51.7749	14,928.2	53.7237	14,928.2	44.8009	14,928.2	46.2866	14,928.2	48.4166	14,928.2	50.2443	14,928.2	35.5096	14,928.2	43.0711	14,928.2	44.9576	14,928.2	47.8454	14,928.2	44.3283	14,928.2	50.4351	14,928.2	43.9795	14,928.2	41.7923	14,928.2	47.3638	14,928.2	39.7158	14,928.2	36.6854	14,928.2	40.9494	14,928.2	46.3403
15,455.6	84.9015	15,455.6	84.2403	15,455.6	83.8747	15,455.6	82.1247	15,455.6	81.6629	15,455.6	79.8161	15,455.6	79.6133	15,455.6	75.858	15,455.6	75.9675	15,455.6	72.1213	15,455.6	71.4183	15,455.6	66.7128	15,455.6	68.0305	15,455.6	60.4368	15,455.6	65.0017	15,455.6	57.7297	15,455.6	59.5438	15,455.6	51.1225	15,455.6	53.0283	15,455.6	45.4343	15,455.6	42.9626	15,455.6	46.295	15,455.6	48.0321	15,455.6	33.1877	15,455.6	43.6199	15,455.6	46.6073	15,455.6	44.5008	15,455.6	43.0865	15,455.6	44.0449	15,455.6	40.0669	15,455.6	34.9311	15,455.6	45.0826	15,455.6	33.4721	15,455.6	38.0862	15,455.6	37.0676	15,455.6	45.9286
16,000.5	84.639	16,000.5	83.9025	16,000.5	83.7643	16,000.5	81.8479	16,000.5	81.6713	16,000.5	79.1939	16,000.5	79.4574	16,000.5	75.4783	16,000.5	75.6529	16,000.5	71.0296	16,000.5	70.7751	16,000.5	66.2964	16,000.5	67.7084	16,000.5	61.5044	16,000.5	63.4314	16,000.5	57.9672	16,000.5	57.3864	16,000.5	51.6556	16,000.5	45.3489	16,000.5	46.5646	16,000.5	51.3992	16,000.5	45.2769	16,000.5	48.7682	16,000.5	29.411	16,000.5	39.9095	16,000.5	42.4001	16,000.5	40.6195	16,000.5	42.1043	16,000.5	42.989	16,000.5	23.3363	16,000.5	40.7321	16,000.5	35.4433	16,000.5	29.1857	16,000.5	36.1504	16,000.5	26.6133	16,000.5	43.5614
16,564.5	84.29	16,564.5	83.3921	16,564.5	83.4975	16,564.5	81.4265	16,564.5	81.5716	16,564.5	78.5323	16,564.5	78.9366	16,564.5	74.9252	16,564.5	74.9787	16,564.5	70.507	16,564.5	69.6877	16,564.5	65.3748	16,564.5	63.6085	16,564.5	61.5076	16,564.5	61.0083	16,564.5	56.9813	16,564.5	50.6611	16,564.5	50.3635	16,564.5	48.1423	16,564.5	46.4601	16,564.5	48.4575	16,564.5	42.7543	16,564.5	48.5178	16,564.5	31.4503	16,564.5	31.1302	16,564.5	39.514	16,564.5	41.5027	16,564.5	39.7879	16,564.5	43.1801	16,564.5	37.3468	16,564.5	44.3244	16,564.5	37.2505	16,564.5	37.6536	16,564.5	43.4608	16,564.5	36.1168	16,564.5	46.2067
17,148.9	83.7034	17,148.9	82.9848	17,148.9	83.0762	17,148.9	80.9772	17,148.9	81.3201	17,148.9	77.8792	17,148.9	78.1948	17,148.9	73.8857	17,148.9	74.1539	17,148.9	69.446	17,148.9	69.4151	17,148.9	63.7142	17,148.9	65.1477	17,148.9	59.3236	17,148.9	60.4637	17,148.9	54.4224	17,148.9	54.4036	17,148.9	46.339	17,148.9	46.3881	17,148.9	43.806	17,148.9	50.0367	17,148.9	40.4967	17,148.9	37.8796	17,148.9	37.997	17,148.9	35.2377	17,148.9	43.49	17,148.9	40.7204	17,148.9	9.85122	17,148.9	43.9398	17,148.9	37.4299	17,148.9	32.4625	17,148.9	34.3225	17,148.9	37.8022	17,148.9	44.9544	17,148.9	34.5937	17,148.9	44.9737
17,752.4	83.289	17,752.4	82.7916	17,752.4	82.5978	17,752.4	80.8899	17,752.4	80.9054	17,752.4	77.6173	17,752.4	77.5772	17,752.4	73.0164	17,752.4	72.8261	17,752.4	68.2261	17,752.4	66.5078	17,752.4	62.1882	17,752.4	62.2348	17,752.4	54.1893	17,752.4	56.294	17,752.4	48.8651	17,752.4	51.5353	17,752.4	32.4045	17,752.4	42.5319	17,752.4	37.1966	17,752.4	48.1785	17,752.4	34.8853	17,752.4	48.4953	17,752.4	37.5348	17,752.4	37.9585	17,752.4	43.2664	17,752.4	31.3088	17,752.4	37.0413	17,752.4	39.3156	17,752.4	27.5187	17,752.4	38.5874	17,752.4	35.0842	17,752.4	36.8043	17,752.4	44.3334	17,752.4	36.9267	17,752.4	41.9253
18,379.4	82.9679	18,379.4	82.522	18,379.4	82.2375	18,379.4	80.6033	18,379.4	80.4694	18,379.4	77.1625	18,379.4	76.9027	18,379.4	72.4764	18,379.4	71.7735	18,379.4	67.2173	18,379.4	64.5051	18,379.4	60.5801	18,379.4	60.4264	18,379.4	46.7943	18,379.4	54.7665	18,379.4	47.5162	18,379.4	52.4048	18,379.4	40.2644	18,379.4	33.6962	18,379.4	35.9997	18,379.4	48.4096	18,379.4	26.0844	18,379.4	48.773	18,379.4	36.307	18,379.4	37.61	18,379.4	43.2606	18,379.4	29.4595	18,379.4	39.4663	18,379.4	30.2044	18,379.4	29.7602	18,379.4	41.211	18,379.4	34.0823	18,379.4	32.5715	18,379.4	44.9583	18,379.4	40.8296	18,379.4	40.8737
19,026.9	82.5326	19,026.9	82.1404	19,026.9	81.996	19,026.9	79.9802	19,026.9	79.8538	19,026.9	76.2868	19,026.9	76.1029	19,026.9	71.7528	19,026.9	70.6216	19,026.9	64.8433	19,026.9	64.2056	19,026.9	56.587	19,026.9	59.7268	19,026.9	47.7944	19,026.9	55.7998	19,026.9	45.4805	19,026.9	51.8505	19,026.9	39.793	19,026.9	44.943	19,026.9	34.1307	19,026.9	48.9786	19,026.9	27.8992	19,026.9	45.2452	19,026.9	39.2198	19,026.9	43.4086	19,026.9	42.3699	19,026.9	36.0781	19,026.9	42.0209	19,026.9	39.0871	19,026.9	27.6709	19,026.9	39.3219	19,026.9	28.938	19,026.9	7.66917	19,026.9	46.3811	19,026.9	42.3668	19,026.9	34.1083
19,697.8	82.019	19,697.8	81.7648	19,697.8	81.7332	19,697.8	79.245	19,697.8	79.3877	19,697.8	75.405	19,697.8	75.3548	19,697.8	70.3346	19,697.8	70.0113	19,697.8	62.6705	19,697.8	63.4211	19,697.8	46.2612	19,697.8	55.8509	19,697.8	46.129	19,697.8	57.1419	19,697.8	46.4208	19,697.8	45.1061	19,697.8	44.0802	19,697.8	44.7492	19,697.8	34.4298	19,697.8	48.5758	19,697.8	32.1087	19,697.8	49.5744	19,697.8	40.7015	19,697.8	42.8831	19,697.8	42.1223	19,697.8	35.8046	19,697.8	41.5102	19,697.8	39.8306	19,697.8	26.1236	19,697.8	44.0761	19,697.8	29.7371	19,697.8	35.1409	19,697.8	47.34	19,697.8	44.7441	19,697.8	45.4624
19,999.5	81.7114	19,999.5	81.6944	19,999.5	81.6199	19,999.5	78.9988	19,999.5	79.0108	19,999.5	75.2993	19,999.5	75.3187	19,999.5	70.0431	19,999.5	70.5032	19,999.5	61.6447	19,999.5	65.0421	19,999.5	39.6572	19,999.5	56.677	19,999.5	48.0095	19,999.5	58.6012	19,999.5	48.0078	19,999.5	45.2645	19,999.5	45.261	19,999.5	46.5211	19,999.5	34.6434	19,999.5	43.8508	19,999.5	27.7543	19,999.5	53.1094	19,999.5	46.2873	19,999.5	43.8141	19,999.5	42.5457	19,999.5	40.4216	19,999.5	48.5608	19,999.5	45.8706	19,999.5	43.4333	19,999.5	51.5352	19,999.5	25.4703	19,999.5	40.7716	19,999.5	44.1656	19,999.5	43.5886	19,999.5	43.3006
