"SPL Horizontal"																																																																							
"On-Axis"		"10°"		"-10°"		"20°"		"-20°"		"30°"		"-30°"		"40°"		"-40°"		"50°"		"-50°"		"60°"		"-60°"		"70°"		"-70°"		"80°"		"-80°"		"90°"		"-90°"		"100°"		"-100°"		"110°"		"-110°"		"120°"		"-120°"		"130°"		"-130°"		"140°"		"-140°"		"150°"		"-150°"		"160°"		"-160°"		"170°"		"-170°"		"180°"	
"Frequency [Hz]"	"Sound Pessure Level [dB]  / [2.83V 1m] "	"Frequency [Hz]"	"Sound Pessure Level [dB]  / [2.83V 1m] "	"Frequency [Hz]"	"Sound Pessure Level [dB]  / [2.83V 1m] "	"Frequency [Hz]"	"Sound Pessure Level [dB]  / [2.83V 1m] "	"Frequency [Hz]"	"Sound Pessure Level [dB]  / [2.83V 1m] "	"Frequency [Hz]"	"Sound Pessure Level [dB]  / [2.83V 1m] "	"Frequency [Hz]"	"Sound Pessure Level [dB]  / [2.83V 1m] "	"Frequency [Hz]"	"Sound Pessure Level [dB]  / [2.83V 1m] "	"Frequency [Hz]"	"Sound Pessure Level [dB]  / [2.83V 1m] "	"Frequency [Hz]"	"Sound Pessure Level [dB]  / [2.83V 1m] "	"Frequency [Hz]"	"Sound Pessure Level [dB]  / [2.83V 1m] "	"Frequency [Hz]"	"Sound Pessure Level [dB]  / [2.83V 1m] "	"Frequency [Hz]"	"Sound Pessure Level [dB]  / [2.83V 1m] "	"Frequency [Hz]"	"Sound Pessure Level [dB]  / [2.83V 1m] "	"Frequency [Hz]"	"Sound Pessure Level [dB]  / [2.83V 1m] "	"Frequency [Hz]"	"Sound Pessure Level [dB]  / [2.83V 1m] "	"Frequency [Hz]"	"Sound Pessure Level [dB]  / [2.83V 1m] "	"Frequency [Hz]"	"Sound Pessure Level [dB]  / [2.83V 1m] "	"Frequency [Hz]"	"Sound Pessure Level [dB]  / [2.83V 1m] "	"Frequency [Hz]"	"Sound Pessure Level [dB]  / [2.83V 1m] "	"Frequency [Hz]"	"Sound Pessure Level [dB]  / [2.83V 1m] "	"Frequency [Hz]"	"Sound Pessure Level [dB]  / [2.83V 1m] "	"Frequency [Hz]"	"Sound Pessure Level [dB]  / [2.83V 1m] "	"Frequency [Hz]"	"Sound Pessure Level [dB]  / [2.83V 1m] "	"Frequency [Hz]"	"Sound Pessure Level [dB]  / [2.83V 1m] "	"Frequency [Hz]"	"Sound Pessure Level [dB]  / [2.83V 1m] "	"Frequency [Hz]"	"Sound Pessure Level [dB]  / [2.83V 1m] "	"Frequency [Hz]"	"Sound Pessure Level [dB]  / [2.83V 1m] "	"Frequency [Hz]"	"Sound Pessure Level [dB]  / [2.83V 1m] "	"Frequency [Hz]"	"Sound Pessure Level [dB]  / [2.83V 1m] "	"Frequency [Hz]"	"Sound Pessure Level [dB]  / [2.83V 1m] "	"Frequency [Hz]"	"Sound Pessure Level [dB]  / [2.83V 1m] "	"Frequency [Hz]"	"Sound Pessure Level [dB]  / [2.83V 1m] "	"Frequency [Hz]"	"Sound Pessure Level [dB]  / [2.83V 1m] "	"Frequency [Hz]"	"Sound Pessure Level [dB]  / [2.83V 1m] "	"Frequency [Hz]"	"Sound Pessure Level [dB]  / [2.83V 1m] "
20.5078	48.2544	20.5078	48.1252	20.5078	47.9988	20.5078	47.6041	20.5078	47.3279	20.5078	46.6527	20.5078	46.1643	20.5078	45.2234	20.5078	44.3756	20.5078	43.4041	20.5078	41.8704	20.5078	42.0507	20.5078	39.6236	20.5078	43.037	20.5078	41.1336	20.5078	45.8742	20.5078	44.9281	20.5078	48.7936	20.5078	48.2852	20.5078	51.2785	20.5078	50.9544	20.5078	53.3242	20.5078	53.0883	20.5078	54.9967	20.5078	54.8112	20.5078	56.3511	20.5078	56.2008	20.5078	57.4241	20.5078	57.3037	20.5078	58.2388	20.5078	58.1472	20.5078	58.8087	20.5078	58.7467	20.5078	59.1417	20.5078	59.1103	20.5078	59.2417
21.9727	50.1837	21.9727	50.0728	21.9727	49.945	21.9727	49.6076	21.9727	49.3391	21.9727	48.7671	21.9727	48.3288	21.9727	47.544	21.9727	46.8906	21.9727	46.0784	21.9727	45.1917	21.9727	45.0681	21.9727	44.1825	21.9727	45.7851	21.9727	45.368	21.9727	48.0809	21.9727	48.0482	21.9727	50.6858	21.9727	50.7798	21.9727	53.0213	21.9727	53.1319	21.9727	54.9938	21.9727	55.088	21.9727	56.6289	21.9727	56.6998	21.9727	57.9643	21.9727	58.0136	21.9727	59.0293	21.9727	59.0611	21.9727	59.8434	21.9727	59.8623	21.9727	60.4185	21.9727	60.4287	21.9727	60.7619	21.9727	60.7662	21.9727	60.8772
23.4375	52.2658	23.4375	52.151	23.4375	52.0702	23.4375	51.7224	23.4375	51.5518	23.4375	50.9653	23.4375	50.6833	23.4375	49.8767	23.4375	49.4429	23.4375	48.5535	23.4375	47.9096	23.4375	47.4546	23.4375	46.6036	23.4375	47.5781	23.4375	46.7814	23.4375	49.2772	23.4375	48.7697	23.4375	51.618	23.4375	51.3234	23.4375	53.8702	23.4375	53.6799	23.4375	55.8218	23.4375	55.6809	23.4375	57.4549	23.4375	57.3403	23.4375	58.7929	23.4375	58.6962	23.4375	59.8601	23.4375	59.7796	23.4375	60.6742	23.4375	60.6111	23.4375	61.2464	23.4375	61.2026	23.4375	61.5828	23.4375	61.5604	23.4375	61.687
24.9023	54.0196	24.9023	53.9187	24.9023	53.8658	24.9023	53.5648	24.9023	53.4545	24.9023	52.9653	24.9023	52.7878	24.9023	52.159	24.9023	51.8992	24.9023	51.2849	24.9023	50.93	24.9023	50.6987	24.9023	50.2682	24.9023	50.9301	24.9023	50.5104	24.9023	52.153	24.9023	51.8269	24.9023	53.9373	24.9023	53.7063	24.9023	55.8048	24.9023	55.6361	24.9023	57.5208	24.9023	57.3891	24.9023	59.0099	24.9023	58.9016	24.9023	60.2577	24.9023	60.1671	24.9023	61.2674	24.9023	61.1929	24.9023	62.0448	24.9023	61.9871	24.9023	62.5945	24.9023	62.5549	24.9023	62.9193	24.9023	62.8991	24.9023	63.0206
26.3672	55.8568	26.3672	55.7794	26.3672	55.7155	26.3672	55.4863	26.3672	55.3556	26.3672	54.9896	26.3672	54.7865	26.3672	54.3293	26.3672	54.0479	26.3672	53.6187	26.3672	53.2625	26.3672	53.1117	26.3672	52.7143	26.3672	53.1832	26.3672	52.8196	26.3672	54.0405	26.3672	53.7741	26.3672	55.4746	26.3672	55.3036	26.3672	57.1093	26.3672	56.9991	26.3672	58.6896	26.3672	58.6118	26.3672	60.1015	26.3672	60.0404	26.3672	61.3046	26.3672	61.2536	26.3672	62.2881	26.3672	62.2453	26.3672	63.0504	26.3672	63.0164	26.3672	63.5923	26.3672	63.5684	26.3672	63.9144	26.3672	63.9021	26.3672	64.0176
27.832	57.3312	27.832	57.2581	27.832	57.2113	27.832	56.996	27.832	56.9017	27.832	56.5608	27.832	56.4182	27.832	55.9977	27.832	55.8081	27.832	55.4158	27.832	55.1878	27.832	55.03	27.832	54.7876	27.832	55.1291	27.832	54.9112	27.832	55.8737	27.832	55.7084	27.832	57.1249	27.832	57.0097	27.832	58.5922	27.832	58.5095	27.832	60.0485	27.832	59.9833	27.832	61.3746	27.832	61.3189	27.832	62.5191	27.832	62.4701	27.832	63.4624	27.832	63.4203	27.832	64.1975	27.832	64.1637	27.832	64.7217	27.832	64.6979	27.832	65.034	27.832	65.0217	27.832	65.134
29.2969	58.9443	29.2969	58.8751	29.2969	58.8525	29.2969	58.6496	29.2969	58.6052	29.2969	58.2861	29.2969	58.222	29.2969	57.8298	29.2969	57.7505	29.2969	57.3756	29.2969	57.2895	29.2969	57.09	29.2969	57.0101	29.2969	57.1824	29.2969	57.1215	29.2969	57.7795	29.2969	57.7417	29.2969	58.8112	29.2969	58.7896	29.2969	60.0741	29.2969	60.0588	29.2969	61.3758	29.2969	61.3602	29.2969	62.5943	29.2969	62.5762	29.2969	63.6662	29.2969	63.6462	29.2969	64.5612	29.2969	64.5411	29.2969	65.2648	29.2969	65.2471	29.2969	65.7699	29.2969	65.7567	29.2969	66.0727	29.2969	66.0656	29.2969	66.1713
30.7617	60.1711	30.7617	60.1093	30.7617	60.0902	30.7617	59.9106	30.7617	59.8721	30.7617	59.5949	30.7617	59.5371	30.7617	59.2076	30.7617	59.1307	30.7617	58.8362	30.7617	58.7422	30.7617	58.6231	30.7617	58.5165	30.7617	58.7368	30.7617	58.6256	30.7617	59.2794	30.7617	59.172	30.7617	60.2031	30.7617	60.1044	30.7617	61.3488	30.7617	61.2595	30.7617	62.551	30.7617	62.4703	30.7617	63.6939	30.7617	63.6213	30.7617	64.7109	30.7617	64.647	30.7617	65.5668	30.7617	65.5127	30.7617	66.2429	30.7617	66.2003	30.7617	66.7291	30.7617	66.6996	30.7617	67.0196	30.7617	67.0045	30.7617	67.1116
32.2266	61.4037	32.2266	61.3553	32.2266	61.3368	32.2266	61.1987	32.2266	61.1614	32.2266	60.9569	32.2266	60.9009	32.2266	60.6777	32.2266	60.6031	32.2266	60.4431	32.2266	60.3508	32.2266	60.3697	32.2266	60.2625	32.2266	60.5783	32.2266	60.4612	32.2266	61.1296	32.2266	61.0089	32.2266	61.98	32.2266	61.8613	32.2266	63.0113	32.2266	62.898	32.2266	64.0963	32.2266	63.9906	32.2266	65.1383	32.2266	65.042	32.2266	66.0755	32.2266	65.9905	32.2266	66.8712	32.2266	66.7995	32.2266	67.5037	32.2266	67.4476	32.2266	67.9601	32.2266	67.9214	32.2266	68.2326	32.2266	68.2129	32.2266	68.3172
33.6914	62.8556	33.6914	62.8169	33.6914	62.8029	33.6914	62.6932	33.6914	62.6657	33.6914	62.507	33.6914	62.4671	33.6914	62.3016	33.6914	62.2509	33.6914	62.1461	33.6914	62.0871	33.6914	62.1328	33.6914	62.0681	33.6914	62.3522	33.6914	62.2843	33.6914	62.8501	33.6914	62.7806	33.6914	63.5984	33.6914	63.5283	33.6914	64.5107	33.6914	64.4405	33.6914	65.4849	33.6914	65.4159	33.6914	66.4357	33.6914	66.3697	33.6914	67.3028	33.6914	67.2422	33.6914	68.0472	33.6914	67.9946	33.6914	68.644	33.6914	68.6018	33.6914	69.0774	33.6914	69.048	33.6914	69.3378	33.6914	69.3227	33.6914	69.4201
35.1563	64.317	35.1563	64.2891	35.1563	64.2727	35.1563	64.1952	35.1563	64.1626	35.1563	64.0551	35.1563	64.0072	35.1563	63.9061	35.1563	63.844	35.1563	63.8043	35.1563	63.7302	35.1563	63.8216	35.1563	63.7383	35.1563	64.0273	35.1563	63.9383	35.1563	64.4599	35.1563	64.3686	35.1563	65.1049	35.1563	65.0141	35.1563	65.9011	35.1563	65.8127	35.1563	66.7673	35.1563	66.6831	35.1563	67.6283	35.1563	67.5502	35.1563	68.4258	35.1563	68.3558	35.1563	69.1186	35.1563	69.0589	35.1563	69.6788	35.1563	69.6316	35.1563	70.0878	35.1563	70.0551	35.1563	70.3341	35.1563	70.3174	35.1563	70.4112
36.6211	65.518	36.6211	65.495	36.6211	65.484	36.6211	65.4208	36.6211	65.3991	36.6211	65.3142	36.6211	65.2825	36.6211	65.2089	36.6211	65.1681	36.6211	65.154	36.6211	65.1053	36.6211	65.2093	36.6211	65.1537	36.6211	65.4305	36.6211	65.3687	36.6211	65.847	36.6211	65.7799	36.6211	66.4468	36.6211	66.3755	36.6211	67.1804	36.6211	67.1066	36.6211	67.9798	36.6211	67.9059	36.6211	68.7792	36.6211	68.708	36.6211	69.5247	36.6211	69.4593	36.6211	70.1763	36.6211	70.1197	36.6211	70.7059	36.6211	70.6608	36.6211	71.0941	36.6211	71.0627	36.6211	71.3283	36.6211	71.3122	36.6211	71.4016
38.0859	66.7272	38.0859	66.7113	38.0859	66.6987	38.0859	66.6565	38.0859	66.6314	38.0859	66.58	38.0859	66.5423	38.0859	66.5114	38.0859	66.4614	38.0859	66.4926	38.0859	66.4306	38.0859	66.5728	38.0859	66.4996	38.0859	66.7966	38.0859	66.7138	38.0859	67.1876	38.0859	67.0977	38.0859	67.7371	38.0859	67.6434	38.0859	68.406	38.0859	68.3119	38.0859	69.138	38.0859	69.047	38.0859	69.8755	38.0859	69.7909	38.0859	70.5689	38.0859	70.4934	38.0859	71.1793	38.0859	71.1154	38.0859	71.6781	38.0859	71.6281	38.0859	72.045	38.0859	72.0106	38.0859	72.2666	38.0859	72.2491	38.0859	72.3354
39.5508	67.9704	39.5508	67.9582	39.5508	67.9488	39.5508	67.9171	39.5508	67.8988	39.5508	67.8621	39.5508	67.8357	39.5508	67.8187	39.5508	67.7853	39.5508	67.8223	39.5508	67.7833	39.5508	67.9136	39.5508	67.8701	39.5508	68.1292	39.5508	68.0825	39.5508	68.4896	39.5508	68.4404	39.5508	68.9894	39.5508	68.9383	39.5508	69.5978	39.5508	69.5456	39.5508	70.268	39.5508	70.2158	39.5508	70.9492	39.5508	70.8987	39.5508	71.5953	39.5508	71.5485	39.5508	72.1686	39.5508	72.1276	39.5508	72.6403	39.5508	72.6073	39.5508	72.9894	39.5508	72.9662	39.5508	73.2018	39.5508	73.1898	39.5508	73.2694
41.0156	69.3144	41.0156	69.3025	41.0156	69.3032	41.0156	69.2715	41.0156	69.2731	41.0156	69.2344	41.0156	69.2369	41.0156	69.2125	41.0156	69.2158	41.0156	69.2346	41.0156	69.2381	41.0156	69.3334	41.0156	69.3359	41.0156	69.538	41.0156	69.5377	41.0156	69.8653	41.0156	69.86	41.0156	70.3124	41.0156	70.3005	41.0156	70.856	41.0156	70.8367	41.0156	71.4582	41.0156	71.4324	41.0156	72.0758	41.0156	72.0452	41.0156	72.6669	41.0156	72.6345	41.0156	73.1958	41.0156	73.1647	41.0156	73.6339	41.0156	73.6073	41.0156	73.9598	41.0156	73.9404	41.0156	74.1588	41.0156	74.1486	41.0156	74.2226
42.4805	70.2478	42.4805	70.2457	42.4805	70.2314	42.4805	70.229	42.4805	70.2006	42.4805	70.2098	42.4805	70.1674	42.4805	70.208	42.4805	70.152	42.4805	70.2499	42.4805	70.1809	42.4805	70.3649	42.4805	70.2839	42.4805	70.5787	42.4805	70.4876	42.4805	70.9058	42.4805	70.8069	42.4805	71.3427	42.4805	71.2395	42.4805	71.8681	42.4805	71.7644	42.4805	72.4474	42.4805	72.3471	42.4805	73.0404	42.4805	72.9473	42.4805	73.6082	42.4805	73.5254	42.4805	74.1164	42.4805	74.0468	42.4805	74.5375	42.4805	74.4832	42.4805	74.8502	42.4805	74.8131	42.4805	75.0398	42.4805	75.0209	42.4805	75.0976
43.9453	71.5529	43.9453	71.5577	43.9453	71.5381	43.9453	71.5559	43.9453	71.517	43.9453	71.5575	43.9453	71.4999	43.9453	71.5787	43.9453	71.5033	43.9453	71.6406	43.9453	71.549	43.9453	71.7663	43.9453	71.6607	43.9453	71.9759	43.9453	71.8594	43.9453	72.2804	43.9453	72.1568	43.9453	72.6775	43.9453	72.5511	43.9453	73.1507	43.9453	73.0259	43.9453	73.6721	43.9453	73.553	43.9453	74.2078	43.9453	74.0983	43.9453	74.7234	43.9453	74.6268	43.9453	75.1876	43.9453	75.1066	43.9453	75.5738	43.9453	75.5108	43.9453	75.8613	43.9453	75.8182	43.9453	76.0352	43.9453	76.0133	43.9453	76.0868
45.4102	72.8345	45.4102	72.8427	45.4102	72.8187	45.4102	72.8458	45.4102	72.7985	45.4102	72.8518	45.4102	72.7829	45.4102	72.8742	45.4102	72.7862	45.4102	72.9305	45.4102	72.8269	45.4102	73.0401	45.4102	72.9255	45.4102	73.2206	45.4102	73.1001	45.4102	73.4832	45.4102	73.362	45.4102	73.8284	45.4102	73.7112	45.4102	74.2446	45.4102	74.1352	45.4102	74.7093	45.4102	74.6103	45.4102	75.1933	45.4102	75.1064	45.4102	75.6652	45.4102	75.5914	45.4102	76.0948	45.4102	76.0348	45.4102	76.4558	45.4102	76.4101	45.4102	76.7269	45.4102	76.6961	45.4102	76.8927	45.4102	76.8772	45.4102	76.9438
46.875	73.798	46.875	73.8016	46.875	73.7888	46.875	73.8017	46.875	73.7773	46.875	73.8059	46.875	73.7722	46.875	73.8265	46.875	73.787	46.875	73.8803	46.875	73.8391	46.875	73.9858	46.875	73.947	46.875	74.1598	46.875	74.1271	46.875	74.4135	46.875	74.3891	46.875	74.7479	46.875	74.7324	46.875	75.1524	46.875	75.1448	46.875	75.6059	46.875	75.604	46.875	76.0803	46.875	76.0817	46.875	76.5447	46.875	76.5475	46.875	76.9695	46.875	76.9723	46.875	77.3285	46.875	77.3306	46.875	77.6005	46.875	77.6018	46.875	77.7701	46.875	77.7707	46.875	77.8278
48.3398	74.6685	48.3398	74.6698	48.3398	74.6714	48.3398	74.6773	48.3398	74.6811	48.3398	74.698	48.3398	74.705	48.3398	74.7428	48.3398	74.7543	48.3398	74.8259	48.3398	74.8429	48.3398	74.9622	48.3398	74.9852	48.3398	75.1644	48.3398	75.193	48.3398	75.4394	48.3398	75.4722	48.3398	75.7854	48.3398	75.8201	48.3398	76.1909	48.3398	76.2249	48.3398	76.6362	48.3398	76.6671	48.3398	77.0957	48.3398	77.1219	48.3398	77.5419	48.3398	77.5627	48.3398	77.9482	48.3398	77.9635	48.3398	78.2909	48.3398	78.3013	48.3398	78.5504	48.3398	78.5567	48.3398	78.7125	48.3398	78.7154	48.3398	78.7684
51.2695	76.8334	51.2695	76.8412	51.2695	76.836	51.2695	76.8608	51.2695	76.8507	51.2695	76.8967	51.2695	76.8821	51.2695	76.9561	51.2695	76.9375	51.2695	77.048	51.2695	77.0259	51.2695	77.1815	51.2695	77.1564	51.2695	77.3645	51.2695	77.337	51.2695	77.6012	51.2695	77.5716	51.2695	77.8906	51.2695	77.8591	51.2695	78.2248	51.2695	78.192	51.2695	78.5902	51.2695	78.5568	51.2695	78.9681	51.2695	78.9351	51.2695	79.3371	51.2695	79.3059	51.2695	79.6751	51.2695	79.6473	51.2695	79.9614	51.2695	79.9387	51.2695	80.1783	51.2695	80.1622	51.2695	80.3122	51.2695	80.3039	51.2695	80.355
52.7344	77.7639	52.7344	77.7732	52.7344	77.7663	52.7344	77.7953	52.7344	77.7818	52.7344	77.8338	52.7344	77.8145	52.7344	77.8948	52.7344	77.8706	52.7344	77.9856	52.7344	77.9575	52.7344	78.1139	52.7344	78.0831	52.7344	78.2863	52.7344	78.2539	52.7344	78.5065	52.7344	78.4734	52.7344	78.7737	52.7344	78.7405	52.7344	79.0816	52.7344	79.0489	52.7344	79.4182	52.7344	79.3866	52.7344	79.7673	52.7344	79.7373	52.7344	80.1094	52.7344	80.082	52.7344	80.4241	52.7344	80.4002	52.7344	80.6917	52.7344	80.6724	52.7344	80.8952	52.7344	80.8816	52.7344	81.0214	52.7344	81.0143	52.7344	81.062
54.1992	78.5503	54.1992	78.5592	54.1992	78.5566	54.1992	78.5843	54.1992	78.5793	54.1992	78.6287	54.1992	78.6217	54.1992	78.6972	54.1992	78.6885	54.1992	78.7956	54.1992	78.7857	54.1992	78.93	54.1992	78.9192	54.1992	79.1054	54.1992	79.0937	54.1992	79.3241	54.1992	79.3116	54.1992	79.5848	54.1992	79.5712	54.1992	79.8814	54.1992	79.8665	54.1992	80.203	54.1992	80.187	54.1992	80.5348	54.1992	80.518	54.1992	80.8591	54.1992	80.8423	54.1992	81.1571	54.1992	81.1414	54.1992	81.4107	54.1992	81.3973	54.1992	81.6037	54.1992	81.5939	54.1992	81.7237	54.1992	81.7185	54.1992	81.7628
55.6641	79.4496	55.6641	79.4611	55.6641	79.4535	55.6641	79.4888	55.6641	79.4739	55.6641	79.5351	55.6641	79.5135	55.6641	79.6036	55.6641	79.5762	55.6641	79.6992	55.6641	79.667	55.6641	79.8267	55.6641	79.7907	55.6641	79.99	55.6641	79.9514	55.6641	80.1911	55.6641	80.1511	55.6641	80.429	55.6641	80.3885	55.6641	80.6986	55.6641	80.6586	55.6641	80.9908	55.6641	80.9522	55.6641	81.2927	55.6641	81.2565	55.6641	81.5886	55.6641	81.5558	55.6641	81.8614	55.6641	81.8331	55.6641	82.0939	55.6641	82.0714	55.6641	82.2711	55.6641	82.2554	55.6641	82.3809	55.6641	82.3728	55.6641	82.4156
58.5938	80.8716	58.5938	80.8827	58.5938	80.8785	58.5938	80.9121	58.5938	80.9041	58.5938	80.9615	58.5938	80.95	58.5938	81.0329	58.5938	81.0186	58.5938	81.1292	58.5938	81.1129	58.5938	81.2532	58.5938	81.2356	58.5938	81.407	58.5938	81.389	58.5938	81.5916	58.5938	81.5737	58.5938	81.8055	58.5938	81.788	58.5938	82.0444	58.5938	82.0278	58.5938	82.3013	58.5938	82.2856	58.5938	82.5657	58.5938	82.551	58.5938	82.8247	58.5938	82.8114	58.5938	83.064	58.5938	83.0523	58.5938	83.2689	58.5938	83.2594	58.5938	83.4258	58.5938	83.4191	58.5938	83.524	58.5938	83.5205	58.5938	83.5563
60.0586	81.4754	60.0586	81.4862	60.0586	81.4834	60.0586	81.516	60.0586	81.5107	60.0586	81.566	60.0586	81.5586	60.0586	81.6376	60.0586	81.6287	60.0586	81.7329	60.0586	81.7232	60.0586	81.8538	60.0586	81.844	60.0586	82.0019	60.0586	81.9925	60.0586	82.1773	60.0586	82.1688	60.0586	82.3788	60.0586	82.3712	60.0586	82.6024	60.0586	82.5958	60.0586	82.8418	60.0586	82.8359	60.0586	83.0878	60.0586	83.0824	60.0586	83.3287	60.0586	83.3237	60.0586	83.5516	60.0586	83.547	60.0586	83.7428	60.0586	83.7389	60.0586	83.8897	60.0586	83.8867	60.0586	83.9819	60.0586	83.9804	60.0586	84.0129
62.9883	82.7257	62.9883	82.7369	62.9883	82.7344	62.9883	82.768	62.9883	82.7633	62.9883	82.8194	62.9883	82.8128	62.9883	82.8917	62.9883	82.8837	62.9883	82.9854	62.9883	82.9765	62.9883	83.1011	62.9883	83.0919	62.9883	83.2389	62.9883	83.23	62.9883	83.3984	62.9883	83.3901	62.9883	83.5778	62.9883	83.5703	62.9883	83.7739	62.9883	83.7672	62.9883	83.9814	62.9883	83.9755	62.9883	84.1932	62.9883	84.1879	62.9883	84.4	62.9883	84.3952	62.9883	84.5912	62.9883	84.5869	62.9883	84.7553	62.9883	84.7517	62.9883	84.8816	62.9883	84.8789	62.9883	84.961	62.9883	84.9596	62.9883	84.9877
64.4531	83.2248	64.4531	83.2358	64.4531	83.2341	64.4531	83.2672	64.4531	83.2638	64.4531	83.3189	64.4531	83.3142	64.4531	83.391	64.4531	83.3854	64.4531	83.4836	64.4531	83.4775	64.4531	83.5965	64.4531	83.5904	64.4531	83.7293	64.4531	83.7238	64.4531	83.8812	64.4531	83.8765	64.4531	84.0502	64.4531	84.0465	64.4531	84.2333	64.4531	84.2305	64.4531	84.4258	64.4531	84.4239	64.4531	84.6214	64.4531	84.6201	64.4531	84.812	64.4531	84.8109	64.4531	84.988	64.4531	84.9871	64.4531	85.1392	64.4531	85.1383	64.4531	85.2557	64.4531	85.255	64.4531	85.3292	64.4531	85.3288	64.4531	85.3542
67.3828	84.0359	67.3828	84.0472	67.3828	84.0463	67.3828	84.0798	67.3828	84.0782	67.3828	84.1332	67.3828	84.1311	67.3828	84.2065	67.3828	84.2042	67.3828	84.2986	67.3828	84.2965	67.3828	84.4082	67.3828	84.4067	67.3828	84.5337	67.3828	84.5331	67.3828	84.6733	67.3828	84.6738	67.3828	84.8249	67.3828	84.8265	67.3828	84.9855	67.3828	84.9882	67.3828	85.1515	67.3828	85.155	67.3828	85.3179	67.3828	85.3218	67.3828	85.4787	67.3828	85.4826	67.3828	85.6264	67.3828	85.6299	67.3828	85.753	67.3828	85.7559	67.3828	85.8507	67.3828	85.8527	67.3828	85.9126	67.3828	85.9136	67.3828	85.9341
68.8477	84.2308	68.8477	84.2411	68.8477	84.2425	68.8477	84.2732	68.8477	84.2762	68.8477	84.3263	68.8477	84.331	68.8477	84.3992	68.8477	84.4057	68.8477	84.4904	68.8477	84.4989	68.8477	84.5981	68.8477	84.6086	68.8477	84.7203	68.8477	84.7329	68.8477	84.8549	68.8477	84.8695	68.8477	84.9995	68.8477	85.0157	68.8477	85.1513	68.8477	85.1687	68.8477	85.307	68.8477	85.3247	68.8477	85.4621	68.8477	85.4793	68.8477	85.6113	68.8477	85.6272	68.8477	85.7481	68.8477	85.7618	68.8477	85.8654	68.8477	85.8763	68.8477	85.9562	68.8477	85.9637	68.8477	86.0143	68.8477	86.0181	68.8477	86.0354
71.7773	84.6483	71.7773	84.6567	71.7773	84.6623	71.7773	84.6873	71.7773	84.6983	71.7773	84.7389	71.7773	84.7553	71.7773	84.8098	71.7773	84.8314	71.7773	84.8979	71.7773	84.9242	71.7773	85.0005	71.7773	85.0313	71.7773	85.1151	71.7773	85.1498	71.7773	85.239	71.7773	85.2767	71.7773	85.3693	71.7773	85.4093	71.7773	85.5036	71.7773	85.5445	71.7773	85.6386	71.7773	85.6793	71.7773	85.7713	71.7773	85.81	71.7773	85.8975	71.7773	85.9327	71.7773	86.0125	71.7773	86.0428	71.7773	86.1111	71.7773	86.135	71.7773	86.1878	71.7773	86.2044	71.7773	86.2378	71.7773	86.2463	71.7773	86.2578
74.707	85.1513	74.707	85.1585	74.707	85.1661	74.707	85.1873	74.707	85.2023	74.707	85.2365	74.707	85.2585	74.707	85.3038	74.707	85.3324	74.707	85.3866	74.707	85.4211	74.707	85.4818	74.707	85.5213	74.707	85.5861	74.707	85.6297	74.707	85.6964	74.707	85.7429	74.707	85.8098	74.707	85.8579	74.707	85.9236	74.707	85.9719	74.707	86.0354	74.707	86.0822	74.707	86.1428	74.707	86.1865	74.707	86.2431	74.707	86.2822	74.707	86.3333	74.707	86.3663	74.707	86.41	74.707	86.4357	74.707	86.4696	74.707	86.4871	74.707	86.5087	74.707	86.5176	74.707	86.525
77.6367	85.3253	77.6367	85.3352	77.6367	85.3371	77.6367	85.3662	77.6367	85.37	77.6367	85.4168	77.6367	85.4223	77.6367	85.4843	77.6367	85.4914	77.6367	85.5655	77.6367	85.5742	77.6367	85.6569	77.6367	85.6668	77.6367	85.7545	77.6367	85.7655	77.6367	85.8549	77.6367	85.8665	77.6367	85.9548	77.6367	85.9667	77.6367	86.0515	77.6367	86.0632	77.6367	86.143	77.6367	86.154	77.6367	86.2274	77.6367	86.2372	77.6367	86.3034	77.6367	86.3117	77.6367	86.3693	77.6367	86.3759	77.6367	86.4237	77.6367	86.4284	77.6367	86.4645	77.6367	86.4675	77.6367	86.4901	77.6367	86.4916	77.6367	86.4993
79.1016	85.2943	79.1016	85.3062	79.1016	85.3039	79.1016	85.3391	79.1016	85.3345	79.1016	85.3911	79.1016	85.3843	79.1016	85.4595	79.1016	85.4507	79.1016	85.5409	79.1016	85.5302	79.1016	85.6314	79.1016	85.6191	79.1016	85.7269	79.1016	85.7134	79.1016	85.8237	79.1016	85.8091	79.1016	85.9183	79.1016	85.9031	79.1016	86.0081	79.1016	85.9926	79.1016	86.091	79.1016	86.0756	79.1016	86.1656	79.1016	86.1507	79.1016	86.2309	79.1016	86.217	79.1016	86.286	79.1016	86.2737	79.1016	86.3301	79.1016	86.3201	79.1016	86.3621	79.1016	86.355	79.1016	86.381	79.1016	86.3773	79.1016	86.3861
82.0313	85.4804	82.0313	85.4943	82.0313	85.4881	82.0313	85.5291	82.0313	85.5168	82.0313	85.5829	82.0313	85.5646	82.0313	85.6525	82.0313	85.6287	82.0313	85.7341	82.0313	85.7053	82.0313	85.8233	82.0313	85.7902	82.0313	85.9156	82.0313	85.879	82.0313	86.0067	82.0313	85.9676	82.0313	86.0929	82.0313	86.0524	82.0313	86.1714	82.0313	86.1307	82.0313	86.2402	82.0313	86.2006	82.0313	86.2985	82.0313	86.2613	82.0313	86.346	82.0313	86.3125	82.0313	86.3833	82.0313	86.3546	82.0313	86.4107	82.0313	86.3881	82.0313	86.4288	82.0313	86.4132	82.0313	86.438	82.0313	86.43	82.0313	86.4383
84.9609	85.6511	84.9609	85.662	84.9609	85.6627	84.9609	85.695	84.9609	85.6962	84.9609	85.7478	84.9609	85.7494	84.9609	85.8172	84.9609	85.819	84.9609	85.8988	84.9609	85.9007	84.9609	85.9879	84.9609	85.9897	84.9609	86.0794	84.9609	86.081	84.9609	86.1685	84.9609	86.1701	84.9609	86.2511	84.9609	86.2527	84.9609	86.3241	84.9609	86.3258	84.9609	86.3855	84.9609	86.3876	84.9609	86.4348	84.9609	86.4372	84.9609	86.4724	84.9609	86.475	84.9609	86.4997	84.9609	86.5023	84.9609	86.5186	84.9609	86.5209	84.9609	86.5308	84.9609	86.5325	84.9609	86.5377	84.9609	86.5386	84.9609	86.5402
87.8906	85.4708	87.8906	85.4849	87.8906	85.4782	87.8906	85.5197	87.8906	85.5066	87.8906	85.5728	87.8906	85.5537	87.8906	85.6409	87.8906	85.6164	87.8906	85.7193	87.8906	85.6904	87.8906	85.8029	87.8906	85.7706	87.8906	85.8866	87.8906	85.8519	87.8906	85.9653	87.8906	85.9294	87.8906	86.0348	87.8906	85.9987	87.8906	86.0917	87.8906	86.0567	87.8906	86.1344	87.8906	86.1015	87.8906	86.1628	87.8906	86.1329	87.8906	86.1781	87.8906	86.152	87.8906	86.183	87.8906	86.1613	87.8906	86.1809	87.8906	86.1642	87.8906	86.1754	87.8906	86.164	87.8906	86.1695	87.8906	86.1638	87.8906	86.1654
90.8203	85.5121	90.8203	85.5269	90.8203	85.5174	90.8203	85.5608	90.8203	85.5423	90.8203	85.6115	90.8203	85.5846	90.8203	85.6754	90.8203	85.6412	90.8203	85.748	90.8203	85.7077	90.8203	85.8242	90.8203	85.7791	90.8203	85.8984	90.8203	85.8501	90.8203	85.9657	90.8203	85.9157	90.8203	86.0217	90.8203	85.9715	90.8203	86.0633	90.8203	86.0143	90.8203	86.0889	90.8203	86.0426	90.8203	86.0989	90.8203	86.0564	90.8203	86.0953	90.8203	86.0578	90.8203	86.0817	90.8203	86.0504	90.8203	86.0629	90.8203	86.0385	90.8203	86.0437	90.8203	86.027	90.8203	86.0285	90.8203	86.02	90.8203	86.0202
95.2148	85.5132	95.2148	85.5311	95.2148	85.5145	95.2148	85.5673	95.2148	85.5343	95.2148	85.6192	95.2148	85.5707	95.2148	85.6831	95.2148	85.6202	95.2148	85.7542	95.2148	85.6784	95.2148	85.8269	95.2148	85.74	95.2148	85.8954	95.2148	85.7996	95.2148	85.9541	95.2148	85.8521	95.2148	85.9984	95.2148	85.893	95.2148	86.0249	95.2148	85.9192	95.2148	86.032	95.2148	85.9294	95.2148	86.0205	95.2148	85.9243	95.2148	85.9933	95.2148	85.9068	95.2148	85.9553	95.2148	85.8816	95.2148	85.913	95.2148	85.8549	95.2148	85.8732	95.2148	85.8331	95.2148	85.8422	95.2148	85.8217	95.2148	85.8244
98.1445	85.4454	98.1445	85.4609	98.1445	85.449	98.1445	85.4947	98.1445	85.4709	98.1445	85.5444	98.1445	85.509	98.1445	85.6064	98.1445	85.5595	98.1445	85.6758	98.1445	85.618	98.1445	85.7468	98.1445	85.6789	98.1445	85.8135	98.1445	85.7367	98.1445	85.87	98.1445	85.7859	98.1445	85.9113	98.1445	85.8221	98.1445	85.9338	98.1445	85.8419	98.1445	85.9357	98.1445	85.8442	98.1445	85.9177	98.1445	85.83	98.1445	85.883	98.1445	85.8025	98.1445	85.837	98.1445	85.7673	98.1445	85.7868	98.1445	85.7313	98.1445	85.7405	98.1445	85.7018	98.1445	85.7052	98.1445	85.6853	98.1445	85.686
101.074	85.3454	101.074	85.3559	101.074	85.3529	101.074	85.3835	101.074	85.3774	101.074	85.4261	101.074	85.4168	101.074	85.4801	101.074	85.4675	101.074	85.5407	101.074	85.5247	101.074	85.6025	101.074	85.5831	101.074	85.6594	101.074	85.6367	101.074	85.7055	101.074	85.6799	101.074	85.7358	101.074	85.708	101.074	85.7467	101.074	85.7176	101.074	85.7364	101.074	85.7074	101.074	85.7062	101.074	85.6784	101.074	85.6596	101.074	85.6346	101.074	85.603	101.074	85.5819	101.074	85.5449	101.074	85.5285	101.074	85.494	101.074	85.4829	101.074	85.4585	101.074	85.4529	101.074	85.4442
105.469	85.4268	105.469	85.4392	105.469	85.432	105.469	85.4684	105.469	85.4541	105.469	85.512	105.469	85.4909	105.469	85.5664	105.469	85.539	105.469	85.6267	105.469	85.5939	105.469	85.6872	105.469	85.6499	105.469	85.7416	105.469	85.7012	105.469	85.7838	105.469	85.7419	105.469	85.8084	105.469	85.767	105.469	85.8119	105.469	85.7727	105.469	85.7926	105.469	85.7573	105.469	85.7519	105.469	85.7219	105.469	85.6943	105.469	85.6702	105.469	85.6268	105.469	85.6089	105.469	85.5589	105.469	85.5466	105.469	85.5005	105.469	85.4931	105.469	85.4607	105.469	85.4573	105.469	85.4456
108.398	85.4397	108.398	85.4507	108.398	85.4462	108.398	85.4784	108.398	85.4696	108.398	85.5207	108.398	85.5076	108.398	85.5739	108.398	85.5568	108.398	85.6332	108.398	85.6126	108.398	85.6929	108.398	85.6694	108.398	85.7466	108.398	85.7211	108.398	85.7881	108.398	85.7618	108.398	85.8119	108.398	85.786	108.398	85.8141	108.398	85.7898	108.398	85.7929	108.398	85.7714	108.398	85.7496	108.398	85.7318	108.398	85.6887	108.398	85.6749	108.398	85.6176	108.398	85.6077	108.398	85.546	108.398	85.5396	108.398	85.4846	108.398	85.4809	108.398	85.4429	108.398	85.4413	108.398	85.4277
112.793	85.3444	112.793	85.3553	112.793	85.3485	112.793	85.3804	112.793	85.3671	112.793	85.4176	112.793	85.3985	112.793	85.4637	112.793	85.4397	112.793	85.5145	112.793	85.4866	112.793	85.5646	112.793	85.5339	112.793	85.6083	112.793	85.576	112.793	85.6398	112.793	85.6069	112.793	85.6538	112.793	85.6212	112.793	85.6464	112.793	85.6151	112.793	85.6161	112.793	85.5868	112.793	85.5639	112.793	85.5374	112.793	85.4941	112.793	85.4711	112.793	85.4144	112.793	85.3953	112.793	85.3347	112.793	85.32	112.793	85.2661	112.793	85.2562	112.793	85.2191	112.793	85.2141	112.793	85.2009
117.188	85.3442	117.188	85.3527	117.188	85.3492	117.188	85.3739	117.188	85.3672	117.188	85.4058	117.188	85.3967	117.188	85.4453	117.188	85.4349	117.188	85.4881	117.188	85.4777	117.188	85.5291	117.188	85.5198	117.188	85.5626	117.188	85.5555	117.188	85.5827	117.188	85.5787	117.188	85.5841	117.188	85.5838	117.188	85.5631	117.188	85.5667	117.188	85.5182	117.188	85.5255	117.188	85.451	117.188	85.4615	117.188	85.3666	117.188	85.3791	117.188	85.2734	117.188	85.2866	117.188	85.1827	117.188	85.1949	117.188	85.1069	117.188	85.1163	117.188	85.0573	117.188	85.0623	117.188	85.0415
120.117	85.2536	120.117	85.2627	120.117	85.257	120.117	85.2839	120.117	85.2727	120.117	85.3154	120.117	85.2992	120.117	85.3543	120.117	85.334	120.117	85.3967	120.117	85.3732	120.117	85.4376	120.117	85.4122	120.117	85.4713	120.117	85.4454	120.117	85.4919	120.117	85.4671	120.117	85.4942	120.117	85.4718	120.117	85.4741	120.117	85.4554	120.117	85.4301	120.117	85.4159	120.117	85.3637	120.117	85.3543	120.117	85.2798	120.117	85.275	120.117	85.1869	120.117	85.1858	120.117	85.0961	120.117	85.0974	120.117	85.0197	120.117	85.0218	120.117	84.9691	120.117	84.9705	120.117	84.9518
124.512	85.3551	124.512	85.3571	124.512	85.3637	124.512	85.3692	124.512	85.3824	124.512	85.3899	124.512	85.4096	124.512	85.4168	124.512	85.443	124.512	85.4462	124.512	85.4789	124.512	85.4735	124.512	85.5124	124.512	85.4933	124.512	85.5381	124.512	85.4999	124.512	85.5502	124.512	85.4881	124.512	85.5432	124.512	85.4541	124.512	85.5129	124.512	85.3964	124.512	85.4575	124.512	85.3169	124.512	85.3783	124.512	85.2211	124.512	85.2801	124.512	85.118	124.512	85.1715	124.512	85.0198	124.512	85.0642	124.512	84.9396	124.512	84.9716	124.512	84.8894	124.512	84.9062	124.512	84.8775
128.906	85.1916	128.906	85.201	128.906	85.1919	128.906	85.2195	128.906	85.2019	128.906	85.2453	128.906	85.2207	128.906	85.2757	128.906	85.246	128.906	85.3068	128.906	85.2746	128.906	85.3341	128.906	85.3017	128.906	85.352	128.906	85.3218	128.906	85.3548	128.906	85.3289	128.906	85.3372	128.906	85.3173	128.906	85.2953	128.906	85.2826	128.906	85.228	128.906	85.2225	128.906	85.1371	128.906	85.1385	128.906	85.0286	128.906	85.0354	128.906	84.9122	128.906	84.9223	128.906	84.8007	128.906	84.8117	128.906	84.7085	128.906	84.7177	128.906	84.6483	128.906	84.6535	128.906	84.629
133.301	85.0993	133.301	85.1163	133.301	85.092	133.301	85.1421	133.301	85.0943	133.301	85.1748	133.301	85.1056	133.301	85.212	133.301	85.1241	133.301	85.2498	133.301	85.1468	133.301	85.2834	133.301	85.1693	133.301	85.3072	133.301	85.1865	133.301	85.3151	133.301	85.1922	133.301	85.3014	133.301	85.1807	133.301	85.2621	133.301	85.1475	133.301	85.1954	133.301	85.0905	133.301	85.1032	133.301	85.0106	133.301	84.9911	133.301	84.9129	133.301	84.8692	133.301	84.8065	133.301	84.7505	133.301	84.7037	133.301	84.6494	133.301	84.6185	133.301	84.5794	133.301	84.5641	133.301	84.5498
139.16	84.9923	139.16	85.0111	139.16	84.9811	139.16	85.037	139.16	84.9777	139.16	85.0686	139.16	84.9816	139.16	85.1038	139.16	84.9914	139.16	85.1394	139.16	85.0047	139.16	85.171	139.16	85.0177	139.16	85.193	139.16	85.0257	139.16	85.1995	139.16	85.0231	139.16	85.1845	139.16	85.0045	139.16	85.1438	139.16	84.9656	139.16	85.0752	139.16	84.9046	139.16	84.9802	139.16	84.8226	139.16	84.8645	139.16	84.7248	139.16	84.7378	139.16	84.6204	139.16	84.613	139.16	84.5218	139.16	84.5049	139.16	84.4426	139.16	84.4271	139.16	84.3954	139.16	84.3893
143.555	84.9436	143.555	84.9552	143.555	84.9367	143.555	84.9713	143.555	84.9343	143.555	84.9915	143.555	84.9358	143.555	85.0143	143.555	84.9399	143.555	85.0373	143.555	84.9445	143.555	85.0566	143.555	84.9462	143.555	85.0671	143.555	84.9408	143.555	85.0628	143.555	84.9232	143.555	85.0379	143.555	84.8885	143.555	84.9878	143.555	84.833	143.555	84.9103	143.555	84.7553	143.555	84.8066	143.555	84.6573	143.555	84.6823	143.555	84.5449	143.555	84.5474	143.555	84.428	143.555	84.4151	143.555	84.3196	143.555	84.3005	143.555	84.2338	143.555	84.2178	143.555	84.1835	143.555	84.1773
147.949	84.8653	147.949	84.87	147.949	84.8624	147.949	84.8765	147.949	84.861	147.949	84.8845	147.949	84.8608	147.949	84.8933	147.949	84.8607	147.949	84.9009	147.949	84.8589	147.949	84.9041	147.949	84.8524	147.949	84.8981	147.949	84.8371	147.949	84.8776	147.949	84.8082	147.949	84.837	147.949	84.7608	147.949	84.7719	147.949	84.6914	147.949	84.6803	147.949	84.5985	147.949	84.564	147.949	84.4844	147.949	84.4291	147.949	84.3553	147.949	84.2859	147.949	84.2217	147.949	84.1485	147.949	84.0971	147.949	84.0323	147.949	83.9965	147.949	83.952	147.949	83.9335	147.949	83.9177
153.809	84.7058	153.809	84.7122	153.809	84.701	153.809	84.7204	153.809	84.6976	153.809	84.7304	153.809	84.6953	153.809	84.7415	153.809	84.6933	153.809	84.7519	153.809	84.6899	153.809	84.7582	153.809	84.6821	153.809	84.7556	153.809	84.6659	153.809	84.7382	153.809	84.6363	153.809	84.6999	153.809	84.5883	153.809	84.6358	153.809	84.5181	153.809	84.5436	153.809	84.4242	153.809	84.4249	153.809	84.3089	153.809	84.2859	153.809	84.1786	153.809	84.1373	153.809	84.044	153.809	83.9938	153.809	83.9192	153.809	83.8716	153.809	83.8195	153.809	83.7855	153.809	83.7588	153.809	83.7464
159.668	84.7737	159.668	84.7751	159.668	84.7722	159.668	84.7765	159.668	84.7704	159.668	84.7784	159.668	84.7684	159.668	84.7808	159.668	84.7658	159.668	84.783	159.668	84.7615	159.668	84.7824	159.668	84.7526	159.668	84.7749	159.668	84.7353	159.668	84.7553	159.668	84.7043	159.668	84.7175	159.668	84.6547	159.668	84.6566	159.668	84.5824	159.668	84.5698	159.668	84.4863	159.668	84.4581	159.668	84.369	159.668	84.327	159.668	84.2373	159.668	84.1865	159.668	84.1025	159.668	84.0501	159.668	83.9788	159.668	83.9332	159.668	83.8812	159.668	83.8501	159.668	83.8227	159.668	83.8116
165.527	84.8265	165.527	84.8236	165.527	84.8261	165.527	84.8176	165.527	84.8226	165.527	84.8094	165.527	84.8168	165.527	84.7998	165.527	84.8093	165.527	84.7889	165.527	84.8	165.527	84.7753	165.527	84.7872	165.527	84.756	165.527	84.7676	165.527	84.7264	165.527	84.7369	165.527	84.6816	165.527	84.6899	165.527	84.6172	165.527	84.6225	165.527	84.5308	165.527	84.5328	165.527	84.4238	165.527	84.4226	165.527	84.3016	165.527	84.2979	165.527	84.174	165.527	84.1685	165.527	84.0535	165.527	84.0476	165.527	83.9539	165.527	83.949	165.527	83.8877	165.527	83.8848	165.527	83.8635
171.387	84.7574	171.387	84.753	171.387	84.7553	171.387	84.7426	171.387	84.7471	171.387	84.7273	171.387	84.7339	171.387	84.7084	171.387	84.7168	171.387	84.6865	171.387	84.6963	171.387	84.661	171.387	84.6713	171.387	84.6293	171.387	84.639	171.387	84.5873	171.387	84.5955	171.387	84.53	171.387	84.536	171.387	84.4532	171.387	84.4568	171.387	84.3549	171.387	84.3562	171.387	84.2367	171.387	84.2362	171.387	84.1046	171.387	84.1031	171.387	83.9688	171.387	83.9671	171.387	83.8426	171.387	83.8412	171.387	83.7398	171.387	83.7388	171.387	83.6725	171.387	83.6721	171.387	83.649
177.246	84.6501	177.246	84.647	177.246	84.6443	177.246	84.6349	177.246	84.6312	177.246	84.6145	177.246	84.6133	177.246	84.5873	177.246	84.5927	177.246	84.5545	177.246	84.5708	177.246	84.5163	177.246	84.547	177.246	84.4716	177.246	84.5185	177.246	84.4174	177.246	84.4803	177.246	84.35	177.246	84.4267	177.246	84.2661	177.246	84.3526	177.246	84.1643	177.246	84.2555	177.246	84.0465	177.246	84.1365	177.246	83.9187	177.246	84.0019	177.246	83.7905	177.246	83.862	177.246	83.6742	177.246	83.7303	177.246	83.5826	177.246	83.6209	177.246	83.5265	177.246	83.5459	177.246	83.5135
183.105	84.5195	183.105	84.5291	183.105	84.4945	183.105	84.5228	183.105	84.4561	183.105	84.5017	183.105	84.408	183.105	84.4677	183.105	84.354	183.105	84.4226	183.105	84.2981	183.105	84.3676	183.105	84.2421	183.105	84.3023	183.105	84.1859	183.105	84.225	183.105	84.1266	183.105	84.1333	183.105	84.0597	183.105	84.0252	183.105	83.9805	183.105	83.9009	183.105	83.8858	183.105	83.764	183.105	83.7757	183.105	83.6218	183.105	83.6543	183.105	83.485	183.105	83.5295	183.105	83.3659	183.105	83.4121	183.105	83.2759	183.105	83.3137	183.105	83.2235	183.105	83.2447	183.105	83.2132
188.965	84.551	188.965	84.5661	188.965	84.5157	188.965	84.5614	188.965	84.4612	188.965	84.5385	188.965	84.3896	188.965	84.4995	188.965	84.3041	188.965	84.4459	188.965	84.2077	188.965	84.3783	188.965	84.1029	188.965	84.2958	188.965	83.9907	188.965	84.196	188.965	83.8703	188.965	84.0761	188.965	83.7404	188.965	83.9344	188.965	83.5998	188.965	83.7713	188.965	83.4492	188.965	83.591	188.965	83.2925	188.965	83.4021	188.965	83.1374	188.965	83.2163	188.965	82.9944	188.965	83.0473	188.965	82.8754	188.965	82.9079	188.965	82.7908	188.965	82.8081	188.965	82.749	188.965	82.7544
196.289	84.5415	196.289	84.5389	196.289	84.5244	196.289	84.518	196.289	84.488	196.289	84.4814	196.289	84.4339	196.289	84.4318	196.289	84.3647	196.289	84.3714	196.289	84.2833	196.289	84.3011	196.289	84.1914	196.289	84.2194	196.289	84.0896	196.289	84.1234	196.289	83.9765	196.289	84.0096	196.289	83.8498	196.289	83.8752	196.289	83.7078	196.289	83.7201	196.289	83.5509	196.289	83.5478	196.289	83.3829	196.289	83.3665	196.289	83.2124	196.289	83.1879	196.289	83.0515	196.289	83.0253	196.289	82.9139	196.289	82.8918	196.289	82.8126	196.289	82.7983	196.289	82.757	196.289	82.7521
203.613	84.3624	203.613	84.3392	203.613	84.3618	203.613	84.294	203.613	84.3377	203.613	84.2303	203.613	84.2925	203.613	84.1528	203.613	84.2293	203.613	84.066	203.613	84.1512	203.613	83.973	203.613	84.0607	203.613	83.8747	203.613	83.9582	203.613	83.7692	203.613	83.8428	203.613	83.6535	203.613	83.7125	203.613	83.5242	203.613	83.5659	203.613	83.3805	203.613	83.404	203.613	83.225	203.613	83.2312	203.613	83.0645	203.613	83.0562	203.613	82.9094	203.613	82.891	203.613	82.7713	203.613	82.7487	203.613	82.6614	203.613	82.6413	203.613	82.5887	203.613	82.5769	203.613	82.5594
210.938	84.3739	210.938	84.355	210.938	84.3656	210.938	84.3095	210.938	84.3318	210.938	84.2399	210.938	84.2757	210.938	84.1499	210.938	84.2014	210.938	84.0435	210.938	84.1129	210.938	83.9238	210.938	84.0125	210.938	83.7926	210.938	83.9007	210.938	83.6499	210.938	83.7761	210.938	83.4949	210.938	83.6364	210.938	83.3279	210.938	83.48	210.938	83.1515	210.938	83.3084	210.938	82.972	210.938	83.1268	210.938	82.7994	210.938	82.9444	210.938	82.6455	210.938	82.7728	210.938	82.5215	210.938	82.6238	210.938	82.435	210.938	82.5066	210.938	82.3901	210.938	82.4269	210.938	82.3876
218.262	84.2967	218.262	84.292	218.262	84.2712	218.262	84.2571	218.262	84.2177	218.262	84.1948	218.262	84.1406	218.262	84.1091	218.262	84.0459	218.262	84.0045	218.262	83.9393	218.262	83.885	218.262	83.8252	218.262	83.7527	218.262	83.7053	218.262	83.6079	218.262	83.5785	218.262	83.4501	218.262	83.4419	218.262	83.2793	218.262	83.2926	218.262	83.0982	218.262	83.13	218.262	82.913	218.262	82.958	218.262	82.7338	218.262	82.7848	218.262	82.5724	218.262	82.6221	218.262	82.4399	218.262	82.482	218.262	82.3442	218.262	82.3742	218.262	82.2892	218.262	82.3046	218.262	82.276
225.586	84.2144	225.586	84.2255	225.586	84.1676	225.586	84.2008	225.586	84.0879	225.586	84.1425	225.586	83.9807	225.586	84.0546	225.586	83.8532	225.586	83.9419	225.586	83.7134	225.586	83.8086	225.586	83.5688	225.586	83.658	225.586	83.4245	225.586	83.4923	225.586	83.2836	225.586	83.3136	225.586	83.1462	225.586	83.1251	225.586	83.0119	225.586	82.9334	225.586	82.8805	225.586	82.7482	225.586	82.7535	225.586	82.5821	225.586	82.6347	225.586	82.447	225.586	82.5285	225.586	82.3507	225.586	82.4388	225.586	82.2946	225.586	82.3677	225.586	82.2745	225.586	82.3155	225.586	82.2834
232.91	84.437	232.91	84.4448	232.91	84.3854	232.91	84.4109	232.91	84.2912	232.91	84.3396	232.91	84.158	232.91	84.2368	232.91	83.9918	232.91	84.1085	232.91	83.7997	232.91	83.9599	232.91	83.5887	232.91	83.794	232.91	83.365	232.91	83.6115	232.91	83.1338	232.91	83.4126	232.91	82.8997	232.91	83.1983	232.91	82.6689	232.91	82.9735	232.91	82.4499	232.91	82.7474	232.91	82.2542	232.91	82.5335	232.91	82.0941	232.91	82.3454	232.91	81.9791	232.91	82.1923	232.91	81.9119	232.91	82.076	232.91	81.888	232.91	81.9921	232.91	81.8981	232.91	81.9338
241.699	84.3946	241.699	84.3713	241.699	84.3773	241.699	84.3104	241.699	84.3192	241.699	84.2169	241.699	84.2227	241.699	84.097	241.699	84.092	241.699	83.9566	241.699	83.9316	241.699	83.7998	241.699	83.7457	241.699	83.6274	241.699	83.5364	241.699	83.4378	241.699	83.3047	241.699	83.2279	241.699	83.0517	241.699	82.996	241.699	82.7807	241.699	82.7451	241.699	82.5003	241.699	82.4848	241.699	82.2256	241.699	82.231	241.699	81.976	241.699	82.002	241.699	81.7712	241.699	81.813	241.699	81.6242	241.699	81.671	241.699	81.538	241.699	81.5749	241.699	81.5064	241.699	81.5204
250.488	84.2429	250.488	84.2188	250.488	84.2145	250.488	84.1445	250.488	84.1351	250.488	84.0257	250.488	84.0101	250.488	83.8704	250.488	83.8482	250.488	83.688	250.488	83.66	250.488	83.4878	250.488	83.4561	250.488	83.2774	250.488	83.2449	250.488	83.0624	250.488	83.0312	250.488	82.8461	250.488	82.816	250.488	82.6309	250.488	82.5992	250.488	82.4201	250.488	82.3826	250.488	82.2196	250.488	82.173	250.488	82.0376	250.488	81.982	250.488	81.8831	250.488	81.8229	250.488	81.7624	250.488	81.7056	250.488	81.6767	250.488	81.6324	250.488	81.623	250.488	81.5988	250.488	81.5972
259.277	84.5526	259.277	84.5167	259.277	84.5399	259.277	84.4351	259.277	84.4774	259.277	84.313	259.277	84.3661	259.277	84.1565	259.277	84.2085	259.277	83.972	259.277	84.009	259.277	83.7648	259.277	83.7726	259.277	83.5381	259.277	83.5056	259.277	83.293	259.277	83.2146	259.277	83.0299	259.277	82.9079	259.277	82.7508	259.277	82.5956	259.277	82.4628	259.277	82.2908	259.277	82.1796	259.277	82.0097	259.277	81.92	259.277	81.7692	259.277	81.7028	259.277	81.5825	259.277	81.54	259.277	81.4543	259.277	81.4325	259.277	81.3794	259.277	81.3712	259.277	81.3463	259.277	81.3446
268.066	84.2633	268.066	84.224	268.066	84.2548	268.066	84.1398	268.066	84.1981	268.066	84.016	268.066	84.0954	268.066	83.8604	268.066	83.9504	268.066	83.6812	268.066	83.7676	268.066	83.486	268.066	83.5521	268.066	83.2799	268.066	83.3084	268.066	83.0649	268.066	83.0416	268.066	82.8412	268.066	82.7579	268.066	82.6091	268.066	82.4663	268.066	82.373	268.066	82.18	268.066	82.1426	268.066	81.9167	268.066	81.932	268.066	81.6958	268.066	81.7549	268.066	81.5328	268.066	81.6191	268.066	81.4332	268.066	81.5228	268.066	81.3901	268.066	81.4572	268.066	81.3884	268.066	81.4133
276.855	84.2464	276.855	84.224	276.855	84.2176	276.855	84.1455	276.855	84.1451	276.855	84.0102	276.855	84.0374	276.855	83.8217	276.855	83.9014	276.855	83.5877	276.855	83.7406	276.855	83.3185	276.855	83.5545	276.855	83.0257	276.855	83.3398	276.855	82.721	276.855	83.0926	276.855	82.4153	276.855	82.8125	276.855	82.1191	276.855	82.5052	276.855	81.8431	276.855	82.1854	276.855	81.5987	276.855	81.8755	276.855	81.3973	276.855	81.6011	276.855	81.2467	276.855	81.3832	276.855	81.1477	276.855	81.2305	276.855	81.0928	276.855	81.1375	276.855	81.0701	276.855	81.0891	276.855	81.0695
287.109	84.5977	287.109	84.613	287.109	84.5148	287.109	84.5605	287.109	84.3699	287.109	84.4445	287.109	84.1741	287.109	84.2712	287.109	83.943	287.109	84.0479	287.109	83.6932	287.109	83.7811	287.109	83.4378	287.109	83.4762	287.109	83.1829	287.109	83.1385	287.109	82.9255	287.109	82.7754	287.109	82.658	287.109	82.4	287.109	82.3741	287.109	82.0327	287.109	82.0776	287.109	81.7013	287.109	81.7857	287.109	81.434	287.109	81.5262	287.109	81.2491	287.109	81.3264	287.109	81.1462	287.109	81.1989	287.109	81.1055	287.109	81.1351	287.109	81.0988	287.109	81.1113	287.109	81.1031
297.363	84.5286	297.363	84.5139	297.363	84.4696	297.363	84.4333	297.363	84.3342	297.363	84.2978	297.363	84.1265	297.363	84.1192	297.363	83.8573	297.363	83.908	297.363	83.5433	297.363	83.6705	297.363	83.2045	297.363	83.4082	297.363	82.8598	297.363	83.119	297.363	82.5219	297.363	82.8004	297.363	82.196	297.363	82.455	297.363	81.8828	297.363	82.0963	297.363	81.5849	297.363	81.7494	297.363	81.314	297.363	81.4472	297.363	81.0901	297.363	81.217	297.363	80.9337	297.363	81.0673	297.363	80.8529	297.363	80.9827	297.363	80.8366	297.363	80.9341	297.363	80.8595	297.363	80.8959
307.617	84.5409	307.617	84.4869	307.617	84.5389	307.617	84.3816	307.617	84.4773	307.617	84.2307	307.617	84.3537	307.617	84.0414	307.617	84.167	307.617	83.8213	307.617	83.9191	307.617	83.5775	307.617	83.6147	307.617	83.3153	307.617	83.2626	307.617	83.0374	307.617	82.8749	307.617	82.7456	307.617	82.4676	307.617	82.4433	307.617	82.0604	307.617	82.1397	307.617	81.6772	307.617	81.8512	307.617	81.3465	307.617	81.5986	307.617	81.0965	307.617	81.4	307.617	80.9467	307.617	81.2612	307.617	80.8956	307.617	81.1712	307.617	80.9186	307.617	81.1069	307.617	80.9791	307.617	81.0459
319.336	84.308	319.336	84.278	319.336	84.2736	319.336	84.1833	319.336	84.1791	319.336	84.027	319.336	84.0314	319.336	83.8155	319.336	83.8384	319.336	83.5568	319.336	83.6075	319.336	83.2584	319.336	83.3441	319.336	82.9262	319.336	83.0514	319.336	82.5651	319.336	82.7317	319.336	82.1816	319.336	82.3886	319.336	81.7897	319.336	82.0307	319.336	81.4151	319.336	81.6746	319.336	81.0947	319.336	81.3473	319.336	80.8653	319.336	81.0812	319.336	80.7458	319.336	80.9029	319.336	80.7231	319.336	80.8177	319.336	80.7577	319.336	80.8033	319.336	80.8028	319.336	80.819	319.336	80.8257
329.59	84.5105	329.59	84.4952	329.59	84.4576	329.59	84.4128	329.59	84.3396	329.59	84.2672	329.59	84.1622	329.59	84.0649	329.59	83.9324	329.59	83.8125	329.59	83.6563	329.59	83.5148	329.59	83.3373	329.59	83.1738	329.59	82.9762	329.59	82.7899	329.59	82.5737	329.59	82.3655	329.59	82.1348	329.59	81.9116	329.59	81.6752	329.59	81.4537	329.59	81.2245	329.59	81.0336	329.59	80.8255	329.59	80.7	329.59	80.5229	329.59	80.4864	329.59	80.3448	329.59	80.3912	329.59	80.2852	329.59	80.3766	329.59	80.3057	329.59	80.3895	329.59	80.3539	329.59	80.3872
341.309	84.351	341.309	84.3249	341.309	84.3133	341.309	84.2343	341.309	84.2185	341.309	84.0842	341.309	84.0781	341.309	83.8829	341.309	83.9051	341.309	83.6386	341.309	83.7086	341.309	83.3568	341.309	83.4895	341.309	83.038	341.309	83.239	341.309	82.6786	341.309	82.9417	341.309	82.276	341.309	82.583	341.309	81.8357	341.309	82.16	341.309	81.3802	341.309	81.6909	341.309	80.9534	341.309	81.2197	341.309	80.6118	341.309	80.8094	341.309	80.3991	341.309	80.5181	341.309	80.3173	341.309	80.3676	341.309	80.323	341.309	80.3308	341.309	80.3548	341.309	80.3493	341.309	80.3669
353.027	84.1806	353.027	84.1694	353.027	84.1042	353.027	84.0775	353.027	83.9402	353.027	83.9173	353.027	83.6967	353.027	83.7037	353.027	83.3899	353.027	83.4505	353.027	83.0421	353.027	83.1663	353.027	82.6762	353.027	82.852	353.027	82.3083	353.027	82.5014	353.027	81.9421	353.027	82.1067	353.027	81.5704	353.027	81.6683	353.027	81.1861	353.027	81.2058	353.027	80.798	353.027	80.7649	353.027	80.4413	353.027	80.4106	353.027	80.1711	353.027	80.1977	353.027	80.0335	353.027	80.1347	353.027	80.0307	353.027	80.1725	353.027	80.1128	353.027	80.2336	353.027	80.2066	353.027	80.2536
366.211	84.4557	366.211	84.3714	366.211	84.4544	366.211	84.2098	366.211	84.3657	366.211	83.9846	366.211	84.1931	366.211	83.7127	366.211	83.9442	366.211	83.4099	366.211	83.6279	366.211	83.0852	366.211	83.2505	366.211	82.7358	366.211	82.8123	366.211	82.348	366.211	82.3061	366.211	81.9033	366.211	81.7208	366.211	81.391	366.211	81.0528	366.211	80.8226	366.211	80.3235	366.211	80.242	366.211	79.6005	366.211	79.7234	366.211	78.9994	366.211	79.3423	366.211	78.6381	366.211	79.1298	366.211	78.5501	366.211	79.0473	366.211	78.6537	366.211	79.0124	366.211	78.8183	366.211	78.9475
379.395	84.7379	379.395	84.693	379.395	84.7154	379.395	84.5804	379.395	84.6293	379.395	84.4038	379.395	84.4863	379.395	84.1705	379.395	84.2949	379.395	83.8908	379.395	84.0634	379.395	83.5737	379.395	83.7977	379.395	83.2231	379.395	83.4985	379.395	82.8337	379.395	83.1588	379.395	82.3929	379.395	82.7644	379.395	81.8898	379.395	82.2992	379.395	81.3306	379.395	81.7552	379.395	80.752	379.395	81.1475	379.395	80.2227	379.395	80.5275	379.395	79.8188	379.395	79.9817	379.395	79.5782	379.395	79.5981	379.395	79.4723	379.395	79.4101	379.395	79.4312	379.395	79.3716	379.395	79.3982
392.578	84.3084	392.578	84.3014	392.578	84.2396	392.578	84.2194	392.578	84.1045	392.578	84.0724	392.578	83.9209	392.578	83.8767	392.578	83.7102	392.578	83.6489	392.578	83.4898	392.578	83.3994	392.578	83.2663	392.578	83.1268	392.578	83.0317	392.578	82.8163	392.578	82.766	392.578	82.4444	392.578	82.4451	392.578	81.9907	392.578	82.0528	392.578	81.4544	392.578	81.5915	392.578	80.8724	392.578	81.091	392.578	80.3263	392.578	80.6104	392.578	79.9172	392.578	80.2212	392.578	79.7055	392.578	79.9713	392.578	79.6663	392.578	79.8528	392.578	79.7147	392.578	79.8079	392.578	79.7715
405.762	83.7381	405.762	83.6741	405.762	83.6961	405.762	83.5147	405.762	83.5523	405.762	83.2851	405.762	83.3254	405.762	83.0209	405.762	83.0461	405.762	82.7601	405.762	82.7508	405.762	82.5296	405.762	82.4698	405.762	82.3318	405.762	82.2143	405.762	82.1415	405.762	81.969	405.762	81.915	405.762	81.6994	405.762	81.6093	405.762	81.3708	405.762	81.2025	405.762	80.9705	405.762	80.7125	405.762	80.5235	405.762	80.2066	405.762	80.0941	405.762	79.7859	405.762	79.7617	405.762	79.5325	405.762	79.5739	405.762	79.4509	405.762	79.5128	405.762	79.4696	405.762	79.5113	405.762	79.5037
420.41	84.2049	420.41	84.1249	420.41	84.164	420.41	83.9276	420.41	84.0089	420.41	83.6281	420.41	83.7569	420.41	83.2539	420.41	83.4341	420.41	82.8433	420.41	83.0711	420.41	82.4383	420.41	82.6935	420.41	82.07	420.41	82.3096	420.41	81.7432	420.41	81.9044	420.41	81.434	420.41	81.4433	420.41	81.1037	420.41	80.8919	420.41	80.7235	420.41	80.2429	420.41	80.2956	420.41	79.5467	420.41	79.8611	420.41	78.9244	420.41	79.487	420.41	78.5257	420.41	79.2271	420.41	78.4207	420.41	79.0816	420.41	78.5361	420.41	78.9937	420.41	78.728	420.41	78.8895
435.059	83.9254	435.059	83.861	435.059	83.8717	435.059	83.6834	435.059	83.7073	435.059	83.4096	435.059	83.4548	435.059	83.0682	435.059	83.1525	435.059	82.6977	435.059	82.8505	435.059	82.3388	435.059	82.5964	435.059	82.018	435.059	82.4119	435.059	81.7308	435.059	82.2755	435.059	81.4389	435.059	82.1257	435.059	81.0896	435.059	81.8856	435.059	80.6462	435.059	81.4935	435.059	80.1147	435.059	80.9284	435.059	79.5568	435.059	80.231	435.059	79.0726	435.059	79.5135	435.059	78.7453	435.059	78.9307	435.059	78.5807	435.059	78.5902	435.059	78.5129	435.059	78.4738	435.059	78.4764
451.172	84.3212	451.172	84.2834	451.172	84.1841	451.172	84.0765	451.172	83.8813	451.172	83.7229	451.172	83.4382	451.172	83.2639	451.172	82.901	451.172	82.76	451.172	82.3417	451.172	82.2821	451.172	81.8518	451.172	81.8885	451.172	81.5131	451.172	81.5965	451.172	81.3504	451.172	81.3697	451.172	81.3078	451.172	81.1384	451.172	81.2791	451.172	80.8383	451.172	81.1628	451.172	80.4446	451.172	80.9026	451.172	79.9911	451.172	80.5066	451.172	79.5647	451.172	80.0479	451.172	79.2629	451.172	79.6378	451.172	79.1258	451.172	79.3609	451.172	79.1115	451.172	79.2187	451.172	79.1503
465.82	84.8434	465.82	84.7395	465.82	84.7541	465.82	84.4509	465.82	84.4695	465.82	83.9975	465.82	83.9977	465.82	83.4207	465.82	83.3652	465.82	82.7969	465.82	82.6324	465.82	82.2384	465.82	81.9062	465.82	81.8564	465.82	81.3252	465.82	81.6856	465.82	80.9927	465.82	81.6439	465.82	80.8965	465.82	81.5831	465.82	80.9126	465.82	81.3722	465.82	80.8912	465.82	80.947	465.82	80.7296	465.82	80.3262	465.82	80.3952	465.82	79.612	465.82	79.9224	465.82	78.9637	465.82	79.397	465.82	78.5226	465.82	78.9208	465.82	78.3353	465.82	78.5669	465.82	78.3649
483.398	85.6991	483.398	85.5839	483.398	85.6257	483.398	85.279	483.398	85.3607	483.398	84.778	483.398	84.8978	483.398	84.0728	483.398	84.2317	483.398	83.1642	483.398	83.3684	483.398	82.0895	483.398	82.3467	483.398	80.9765	483.398	81.2794	483.398	80.0944	483.398	80.3888	483.398	79.7557	483.398	79.938	483.398	80.0075	483.398	80.003	483.398	80.5614	483.398	80.3802	483.398	81.0986	483.398	80.7975	483.398	81.4541	483.398	81.0957	483.398	81.5961	483.398	81.2388	483.398	81.5696	483.398	81.2646	483.398	81.4536	483.398	81.2376	483.398	81.3271	483.398	81.2173	483.398	81.2426
499.512	85.5479	499.512	85.4725	499.512	85.4741	499.512	85.2466	499.512	85.2487	499.512	84.8661	499.512	84.8668	499.512	84.3245	499.512	84.3221	499.512	83.6153	499.512	83.611	499.512	82.7408	499.512	82.7415	499.512	81.7311	499.512	81.7503	499.512	80.6806	499.512	80.7302	499.512	79.7819	499.512	79.8535	499.512	79.2774	499.512	79.3313	499.512	79.2749	499.512	79.2684	499.512	79.6394	499.512	79.564	499.512	80.1407	499.512	80.0135	499.512	80.6154	499.512	80.4576	499.512	80.9881	499.512	80.8231	499.512	81.2349	499.512	81.0935	499.512	81.3563	499.512	81.2734	499.512	81.364
517.09	85.6837	517.09	85.5769	517.09	85.6463	517.09	85.321	517.09	85.4679	517.09	84.9109	517.09	85.1489	517.09	84.3425	517.09	84.6851	517.09	83.6132	517.09	84.0681	517.09	82.7255	517.09	83.2885	517.09	81.6954	517.09	82.3461	517.09	80.575	517.09	81.2727	517.09	79.4928	517.09	80.1694	517.09	78.6783	517.09	79.2366	517.09	78.3681	517.09	78.7211	517.09	78.5917	517.09	78.7322	517.09	79.1371	517.09	79.1385	517.09	79.7593	517.09	79.7073	517.09	80.3114	517.09	80.2601	517.09	80.73	517.09	80.6987	517.09	80.989	517.09	80.9762	517.09	81.0738
536.133	84.7508	536.133	84.7306	536.133	84.6341	536.133	84.5736	536.133	84.3797	536.133	84.2768	536.133	83.9857	536.133	83.8334	536.133	83.4498	536.133	83.2322	536.133	82.77	536.133	82.46	536.133	81.9497	536.133	81.5077	536.133	81.0103	536.133	80.3875	536.133	80.0139	536.133	79.17	536.133	79.0906	536.133	78.0469	536.133	78.4363	536.133	77.3503	536.133	78.2217	536.133	77.3468	536.133	78.4543	536.133	77.9379	536.133	78.975	536.133	78.7784	536.133	79.5891	536.133	79.5895	536.133	80.1546	536.133	80.235	536.133	80.5854	536.133	80.6639	536.133	80.831	536.133	80.862
555.176	85.0878	555.176	84.9805	555.176	85.0659	555.176	84.7514	555.176	84.9073	555.176	84.4059	555.176	84.6043	555.176	83.9443	555.176	84.1467	555.176	83.359	555.176	83.5178	555.176	82.6329	555.176	82.6904	555.176	81.7422	555.176	81.6254	555.176	80.6657	555.176	80.2809	555.176	79.4056	555.176	78.6465	555.176	78.0392	555.176	76.8439	555.176	76.8198	555.176	75.3425	555.176	76.2128	555.176	74.9326	555.176	76.5138	555.176	75.7474	555.176	77.4175	555.176	77.0378	555.176	78.4089	555.176	78.2214	555.176	79.1914	555.176	79.096	555.176	79.6649	555.176	79.6234	555.176	79.8101
574.219	84.5863	574.219	84.5395	574.219	84.5184	574.219	84.3711	574.219	84.3437	574.219	84.0753	574.219	84.0688	574.219	83.6441	574.219	83.6958	574.219	83.0641	574.219	83.2192	574.219	82.3145	574.219	82.6229	574.219	81.3717	574.219	81.8799	574.219	80.2236	574.219	80.9558	574.219	78.8982	574.219	79.8251	574.219	77.5187	574.219	78.5151	574.219	76.3763	574.219	77.1995	574.219	75.8885	574.219	76.2829	574.219	76.2307	574.219	76.1747	574.219	77.0896	574.219	76.7842	574.219	78.0191	574.219	77.6538	574.219	78.7466	574.219	78.4397	574.219	79.1623	574.219	78.9891	574.219	79.2399
594.727	84.1369	594.727	84.0786	594.727	84.0846	594.727	83.918	594.727	83.9179	594.727	83.667	594.727	83.6366	594.727	83.3372	594.727	83.2412	594.727	82.9324	594.727	82.7283	594.727	82.4378	594.727	82.0864	594.727	81.8142	594.727	81.2919	594.727	81.0017	594.727	80.313	594.727	79.9379	594.727	79.1258	594.727	78.5928	594.727	77.7564	594.727	77.0423	594.727	76.375	594.727	75.6143	594.727	75.4089	594.727	74.9401	594.727	75.3385	594.727	75.3534	594.727	76.078	594.727	76.3729	594.727	77.0691	594.727	77.3892	594.727	77.8898	594.727	78.109	594.727	78.3646	594.727	78.4407
615.234	84.0823	615.234	83.9941	615.234	84.0404	615.234	83.7812	615.234	83.8698	615.234	83.4536	615.234	83.5784	615.234	83.0211	615.234	83.1774	615.234	82.488	615.234	82.6711	615.234	81.8468	615.234	82.0467	615.234	81.0731	615.234	81.2684	615.234	80.1276	615.234	80.2834	615.234	78.9696	615.234	79.0414	615.234	77.5985	615.234	77.5405	615.234	76.1538	615.234	75.9371	615.234	75.0677	615.234	74.7354	615.234	74.9188	615.234	74.6193	615.234	75.6971	615.234	75.533	615.234	76.7987	615.234	76.7477	615.234	77.753	615.234	77.7577	615.234	78.369	615.234	78.3837	615.234	78.5862
637.207	84.6628	637.207	84.6222	637.207	84.5825	637.207	84.4657	637.207	84.391	637.207	84.211	637.207	84.1103	637.207	83.8795	637.207	83.7677	637.207	83.4825	637.207	83.3826	637.207	83.0037	637.207	82.9491	637.207	82.3902	637.207	82.4212	637.207	81.5581	637.207	81.7125	637.207	80.4117	637.207	80.7133	637.207	78.8849	637.207	79.325	637.207	77.0645	637.207	77.5321	637.207	75.5098	637.207	75.6255	637.207	75.259	637.207	74.5647	637.207	76.3193	637.207	75.1582	637.207	77.6465	637.207	76.609	637.207	78.6527	637.207	77.9516	637.207	79.1995	637.207	78.8567	637.207	79.2703
659.18	85.4291	659.18	85.3819	659.18	85.3183	659.18	85.1737	659.18	85.065	659.18	84.8164	659.18	84.6922	659.18	84.3376	659.18	84.2261	659.18	83.7745	659.18	83.6881	659.18	83.1578	659.18	83.0858	659.18	82.4861	659.18	82.4011	659.18	81.708	659.18	81.5808	659.18	80.7286	659.18	80.5364	659.18	79.4438	659.18	79.1652	659.18	77.8144	659.18	77.4249	659.18	76.0701	659.18	75.5792	659.18	75.0648	659.18	74.6206	659.18	75.6238	659.18	75.3729	659.18	77.0501	659.18	76.9218	659.18	78.3476	659.18	78.2686	659.18	79.1528	659.18	79.1101	659.18	79.4058
682.617	85.0478	682.617	84.9761	682.617	84.956	682.617	84.7563	682.617	84.7065	682.617	84.4217	682.617	84.3289	682.617	84.0149	682.617	83.875	682.617	83.57	682.617	83.4041	682.617	83.09	682.617	82.9499	682.617	82.5349	682.617	82.4845	682.617	81.8277	682.617	81.9091	682.617	80.8685	682.617	81.0808	682.617	79.55	682.617	79.8505	682.617	77.8017	682.617	78.1151	682.617	75.783	682.617	75.9881	682.617	74.4116	682.617	74.3306	682.617	74.9076	682.617	74.5576	682.617	76.5004	682.617	76.11	682.617	77.914	682.617	77.6067	682.617	78.7466	682.617	78.5787	682.617	78.9617
707.52	85.1095	707.52	85.0532	707.52	85.0071	707.52	84.8398	707.52	84.7566	707.52	84.484	707.52	84.3819	707.52	84.0169	707.52	83.9184	707.52	83.484	707.52	83.407	707.52	82.9237	707.52	82.8792	707.52	82.3247	707.52	82.3357	707.52	81.5975	707.52	81.7272	707.52	80.5884	707.52	80.9433	707.52	79.1186	707.52	79.8214	707.52	77.0364	707.52	78.1868	707.52	74.4722	707.52	76.009	707.52	72.8859	707.52	74.0264	707.52	74.151	707.52	74.1364	707.52	76.4049	707.52	75.9922	707.52	78.1091	707.52	77.7589	707.52	79.0584	707.52	78.8734	707.52	79.3024
732.422	84.912	732.422	84.8133	732.422	84.8096	732.422	84.5261	732.422	84.5214	732.422	84.0903	732.422	84.0866	732.422	83.5644	732.422	83.5609	732.422	83.0057	732.422	83.0029	732.422	82.4419	732.422	82.4501	732.422	81.8497	732.422	81.8878	732.422	81.1509	732.422	81.2349	732.422	80.2218	732.422	80.3661	732.422	78.9057	732.422	79.1525	732.422	77.0469	732.422	77.504	732.422	74.6652	732.422	75.4818	732.422	72.7005	732.422	73.7282	732.422	73.1234	732.422	73.6761	732.422	75.1024	732.422	75.2315	732.422	76.8457	732.422	76.874	732.422	77.9086	732.422	77.924	732.422	78.2674
757.324	84.8634	757.324	84.7491	757.324	84.7739	757.324	84.4483	757.324	84.4814	757.324	84.0062	757.324	84.0127	757.324	83.5043	757.324	83.436	757.324	83.0399	757.324	82.8599	757.324	82.6622	757.324	82.378	757.324	82.3106	757.324	81.9802	757.324	81.8245	757.324	81.5265	757.324	81.0014	757.324	80.8084	757.324	79.6378	757.324	79.6158	757.324	77.5421	757.324	77.783	757.324	74.6524	757.324	75.3604	757.324	72.0067	757.324	73.3552	757.324	72.583	757.324	73.7098	757.324	75.018	757.324	75.5368	757.324	76.9301	757.324	77.127	757.324	78.0159	757.324	78.0765	757.324	78.3747
785.156	85.2625	785.156	85.1516	785.156	85.1191	785.156	84.7888	785.156	84.7495	785.156	84.2093	785.156	84.2074	785.156	83.4927	785.156	83.5652	785.156	82.7797	785.156	82.9094	785.156	82.2396	785.156	82.3275	785.156	81.9301	785.156	81.8571	785.156	81.6851	785.156	81.4152	785.156	81.1972	785.156	80.7904	785.156	80.1511	785.156	79.7056	785.156	78.2387	785.156	77.8693	785.156	75.1204	785.156	75.0479	785.156	71.1059	785.156	71.9618	785.156	71.1608	785.156	72.4596	785.156	74.7456	785.156	75.4625	785.156	77.3536	785.156	77.7474	785.156	78.8132	785.156	78.999	785.156	79.3383
811.523	84.9808	811.523	84.8484	811.523	84.8294	811.523	84.4445	811.523	84.3936	811.523	83.7937	811.523	83.7049	811.523	82.9644	811.523	82.8575	811.523	82.1144	811.523	82.0276	811.523	81.4724	811.523	81.4253	811.523	81.1578	811.523	81.1335	811.523	81.0069	811.523	80.9817	811.523	80.6786	811.523	80.6331	811.523	79.8383	811.523	79.7295	811.523	78.174	811.523	77.9145	811.523	75.3367	811.523	74.8425	811.523	71.5365	811.523	71.2983	811.523	71.4355	811.523	72.3121	811.523	74.9655	811.523	75.5754	811.523	77.49	811.523	77.7494	811.523	78.8071	811.523	78.886	811.523	79.223
840.82	85.8232	840.82	85.709	840.82	85.5975	840.82	85.241	840.82	85.044	840.82	84.4205	840.82	84.1745	840.82	83.3067	840.82	83.0372	840.82	82.1036	840.82	81.82	840.82	81.2314	840.82	80.9497	840.82	81.0537	840.82	80.8117	840.82	81.3493	840.82	81.1633	840.82	81.5076	840.82	81.3523	840.82	81.0172	840.82	80.8451	840.82	79.4706	840.82	79.2133	840.82	76.2742	840.82	75.8083	840.82	70.0938	840.82	69.1632	840.82	67.9777	840.82	68.5311	840.82	74.505	840.82	74.8542	840.82	77.8559	840.82	77.9975	840.82	79.4422	840.82	79.4869	840.82	79.9233
870.117	85.7539	870.117	85.5994	870.117	85.6167	870.117	85.1545	870.117	85.1685	870.117	84.4023	870.117	84.3793	870.117	83.3285	870.117	83.2289	870.117	81.9995	870.117	81.7809	870.117	80.7284	870.117	80.3701	870.117	80.1033	870.117	79.6847	870.117	80.3098	870.117	79.975	870.117	80.7105	870.117	80.5076	870.117	80.587	870.117	80.4967	870.117	79.455	870.117	79.4541	870.117	76.7712	870.117	76.8294	870.117	71.1065	870.117	71.083	870.117	60.3616	870.117	57.5875	870.117	71.674	870.117	71.7139	870.117	76.3445	870.117	76.4328	870.117	78.443	870.117	78.4906	870.117	79.0819
900.879	85.9588	900.879	85.8349	900.879	85.821	900.879	85.432	900.879	85.4097	900.879	84.7076	900.879	84.6802	900.879	83.5944	900.879	83.564	900.879	82.0267	900.879	82.0054	900.879	80.1093	900.879	80.1026	900.879	78.6144	900.879	78.5146	900.879	78.7166	900.879	78.3807	900.879	79.7435	900.879	79.3427	900.879	80.2759	900.879	80.0243	900.879	79.6671	900.879	79.6794	900.879	77.4645	900.879	77.8311	900.879	72.4484	900.879	73.424	900.879	54.9776	900.879	59.2766	900.879	70.6174	900.879	69.5364	900.879	76.1295	900.879	75.8464	900.879	78.436	900.879	78.3677	900.879	79.0985
933.105	85.8466	933.105	85.7505	933.105	85.7326	933.105	85.4409	933.105	85.3925	933.105	84.8799	933.105	84.7911	933.105	83.9869	933.105	83.856	933.105	82.6584	933.105	82.4761	933.105	80.8617	933.105	80.5983	933.105	78.9861	933.105	78.6371	933.105	78.3011	933.105	77.9893	933.105	79.2288	933.105	79.0088	933.105	80.2549	933.105	80.0677	933.105	80.3217	933.105	80.1862	933.105	78.9512	933.105	78.9598	933.105	75.4626	933.105	75.7721	933.105	67.0498	933.105	68.264	933.105	64.0387	933.105	62.83	933.105	73.2018	933.105	72.9012	933.105	76.2778	933.105	76.1964	933.105	77.1104
965.332	85.5835	965.332	85.5103	965.332	85.4946	965.332	85.2651	965.332	85.2365	965.332	84.8108	965.332	84.7729	965.332	84.063	965.332	84.0149	965.332	82.8696	965.332	82.805	965.332	81.0025	965.332	80.9145	965.332	78.2724	965.332	78.1424	965.332	75.6004	965.332	75.3284	965.332	76.2271	965.332	75.9069	965.332	78.4625	965.332	78.3151	965.332	79.6023	965.332	79.5911	965.332	79.1739	965.332	79.2241	965.332	76.807	965.332	76.8684	965.332	70.9547	965.332	71.0501	965.332	53.5335	965.332	47.0618	965.332	71.3221	965.332	70.929	965.332	75.3912	965.332	75.2032	965.332	76.3798
1,000.49	85.4333	1,000.49	85.3346	1,000.49	85.329	1,000.49	85.0526	1,000.49	85.0317	1,000.49	84.6155	1,000.49	84.5772	1,000.49	84.0201	1,000.49	83.9799	1,000.49	83.1797	1,000.49	83.1626	1,000.49	81.8961	1,000.49	81.9326	1,000.49	79.9116	1,000.49	80.0471	1,000.49	77.2491	1,000.49	77.5149	1,000.49	75.66	1,000.49	75.7815	1,000.49	77.0801	1,000.49	76.8057	1,000.49	78.7832	1,000.49	78.4192	1,000.49	79.1696	1,000.49	78.8934	1,000.49	77.9044	1,000.49	77.805	1,000.49	74.4373	1,000.49	74.6423	1,000.49	66.1869	1,000.49	67.2543	1,000.49	60.5571	1,000.49	57.345	1,000.49	69.9922	1,000.49	69.4273	1,000.49	71.6963
1,035.64	85.4754	1,035.64	85.3311	1,035.64	85.3573	1,035.64	84.9604	1,035.64	84.9843	1,035.64	84.4232	1,035.64	84.4047	1,035.64	83.7639	1,035.64	83.6858	1,035.64	82.9666	1,035.64	82.8528	1,035.64	81.9218	1,035.64	81.8079	1,035.64	80.4294	1,035.64	80.3215	1,035.64	78.3329	1,035.64	78.1976	1,035.64	76.1112	1,035.64	75.9248	1,035.64	75.577	1,035.64	75.4604	1,035.64	76.6767	1,035.64	76.6593	1,035.64	77.304	1,035.64	77.3098	1,035.64	76.5501	1,035.64	76.5816	1,035.64	73.9746	1,035.64	74.1491	1,035.64	69.0924	1,035.64	69.7308	1,035.64	66.8618	1,035.64	67.2422	1,035.64	70.5278	1,035.64	70.3939	1,035.64	71.836
1,072.27	85.6276	1,072.27	85.5128	1,072.27	85.4525	1,072.27	85.1221	1,072.27	85.0069	1,072.27	84.487	1,072.27	84.3541	1,072.27	83.6553	1,072.27	83.5646	1,072.27	82.6723	1,072.27	82.6398	1,072.27	81.5228	1,072.27	81.4774	1,072.27	80.0997	1,072.27	79.9386	1,072.27	78.3534	1,072.27	78.0232	1,072.27	76.7416	1,072.27	76.229	1,072.27	76.3011	1,072.27	75.6027	1,072.27	76.7985	1,072.27	76.0525	1,072.27	76.8328	1,072.27	76.2374	1,072.27	75.5495	1,072.27	75.2374	1,072.27	72.4919	1,072.27	72.512	1,072.27	68.5374	1,072.27	68.8884	1,072.27	69.977	1,072.27	70.4397	1,072.27	73.0591	1,072.27	73.3509	1,072.27	74.2179
1,108.89	85.4259	1,108.89	85.333	1,108.89	85.232	1,108.89	84.9634	1,108.89	84.7891	1,108.89	84.3811	1,108.89	84.1379	1,108.89	83.6494	1,108.89	83.2945	1,108.89	82.7569	1,108.89	82.2523	1,108.89	81.5827	1,108.89	80.9579	1,108.89	79.9339	1,108.89	79.2691	1,108.89	77.7383	1,108.89	77.0845	1,108.89	75.7122	1,108.89	75.0545	1,108.89	75.5437	1,108.89	74.9527	1,108.89	76.5694	1,108.89	76.0825	1,108.89	76.8904	1,108.89	76.3564	1,108.89	75.6923	1,108.89	74.8988	1,108.89	72.4019	1,108.89	71.0566	1,108.89	67.8992	1,108.89	66.313	1,108.89	70.5991	1,108.89	70.3396	1,108.89	73.9088	1,108.89	73.7928	1,108.89	74.8743
1,148.44	85.3582	1,148.44	85.2238	1,148.44	85.1518	1,148.44	84.7771	1,148.44	84.6263	1,148.44	84.074	1,148.44	83.8732	1,148.44	83.2027	1,148.44	83.0013	1,148.44	82.249	1,148.44	82.0353	1,148.44	81.1772	1,148.44	80.8821	1,148.44	79.7781	1,148.44	79.3795	1,148.44	77.8386	1,148.44	77.3806	1,148.44	75.6313	1,148.44	75.1143	1,148.44	74.6056	1,148.44	73.9797	1,148.44	75.2233	1,148.44	74.5443	1,148.44	75.551	1,148.44	74.7855	1,148.44	74.2812	1,148.44	73.3795	1,148.44	70.5787	1,148.44	69.5823	1,148.44	66.4232	1,148.44	64.6539	1,148.44	70.6443	1,148.44	68.8639	1,148.44	73.7032	1,148.44	72.7683	1,148.44	74.2831
1,189.45	85.1621	1,189.45	84.9753	1,189.45	85.0156	1,189.45	84.4912	1,189.45	84.5258	1,189.45	83.767	1,189.45	83.7298	1,189.45	82.881	1,189.45	82.7311	1,189.45	81.9042	1,189.45	81.6595	1,189.45	80.8116	1,189.45	80.5399	1,189.45	79.3893	1,189.45	79.1944	1,189.45	77.3284	1,189.45	77.318	1,189.45	74.8524	1,189.45	74.8889	1,189.45	73.9791	1,189.45	73.4548	1,189.45	75.1353	1,189.45	74.4392	1,189.45	75.7366	1,189.45	75.3444	1,189.45	74.666	1,189.45	74.5213	1,189.45	71.2477	1,189.45	71.0786	1,189.45	65.5962	1,189.45	63.2366	1,189.45	69.1936	1,189.45	66.9374	1,189.45	73.0497	1,189.45	72.1987	1,189.45	73.9093
1,230.47	85.5122	1,230.47	85.2841	1,230.47	85.3639	1,230.47	84.7252	1,230.47	84.8588	1,230.47	83.9324	1,230.47	84.0769	1,230.47	83.0224	1,230.47	83.143	1,230.47	82.0769	1,230.47	82.1838	1,230.47	81.0806	1,230.47	81.202	1,230.47	79.8866	1,230.47	79.9711	1,230.47	78.2068	1,230.47	78.1714	1,230.47	75.7978	1,230.47	75.7882	1,230.47	73.6107	1,230.47	73.972	1,230.47	73.918	1,230.47	74.1731	1,230.47	74.7474	1,230.47	74.6976	1,230.47	73.742	1,230.47	73.7422	1,230.47	69.7283	1,230.47	70.4025	1,230.47	62.5836	1,230.47	64.9926	1,230.47	69.2027	1,230.47	68.6939	1,230.47	73.3786	1,230.47	72.9587	1,230.47	74.4121
1,274.41	85.6148	1,274.41	85.4789	1,274.41	85.3935	1,274.41	84.9844	1,274.41	84.8342	1,274.41	84.1764	1,274.41	83.98	1,274.41	83.1515	1,274.41	82.9269	1,274.41	82.0251	1,274.41	81.818	1,274.41	80.8968	1,274.41	80.7442	1,274.41	79.7042	1,274.41	79.5755	1,274.41	78.0085	1,274.41	77.9276	1,274.41	75.2613	1,274.41	75.4587	1,274.41	72.8278	1,274.41	73.2635	1,274.41	74.2317	1,274.41	74.184	1,274.41	75.8692	1,274.41	75.6192	1,274.41	75.4232	1,274.41	75.0591	1,274.41	72.0109	1,274.41	71.3736	1,274.41	62.469	1,274.41	59.8518	1,274.41	68.0533	1,274.41	67.7678	1,274.41	73.248	1,274.41	73.133	1,274.41	74.5123
1,319.82	85.6312	1,319.82	85.4701	1,319.82	85.443	1,319.82	84.9732	1,319.82	84.8599	1,319.82	84.1327	1,319.82	83.8804	1,319.82	83.0187	1,319.82	82.6446	1,319.82	81.8634	1,319.82	81.4632	1,319.82	80.9006	1,319.82	80.5958	1,319.82	79.9833	1,319.82	79.8206	1,319.82	78.5416	1,319.82	78.4635	1,319.82	75.9199	1,319.82	75.9004	1,319.82	72.2696	1,319.82	72.6543	1,319.82	71.8993	1,319.82	72.7125	1,319.82	74.2155	1,319.82	74.5398	1,319.82	74.6078	1,319.82	74.536	1,319.82	71.9295	1,319.82	71.6549	1,319.82	64.0496	1,319.82	63.0683	1,319.82	67.4584	1,319.82	66.377	1,319.82	72.7635	1,319.82	72.3364	1,319.82	73.9941
1,366.7	85.3924	1,366.7	85.1976	1,366.7	85.1748	1,366.7	84.6214	1,366.7	84.5609	1,366.7	83.718	1,366.7	83.608	1,366.7	82.5317	1,366.7	82.3789	1,366.7	81.1654	1,366.7	80.9678	1,366.7	79.909	1,366.7	79.6782	1,366.7	78.9851	1,366.7	78.8003	1,366.7	78.0604	1,366.7	77.8684	1,366.7	76.4754	1,366.7	76.0842	1,366.7	73.902	1,366.7	73.3543	1,366.7	72.0191	1,366.7	72.0824	1,366.7	73.3274	1,366.7	73.3063	1,366.7	73.9241	1,366.7	73.6609	1,366.7	71.2177	1,366.7	71.5712	1,366.7	62.5518	1,366.7	64.1744	1,366.7	67.1759	1,366.7	64.0108	1,366.7	72.4406	1,366.7	71.7798	1,366.7	73.7086
1,413.57	85.0728	1,413.57	84.9047	1,413.57	84.9096	1,413.57	84.3228	1,413.57	84.423	1,413.57	83.3036	1,413.57	83.5547	1,413.57	81.9926	1,413.57	82.3319	1,413.57	80.7102	1,413.57	80.9694	1,413.57	79.7281	1,413.57	79.7966	1,413.57	78.9287	1,413.57	78.8279	1,413.57	77.9038	1,413.57	77.589	1,413.57	76.1203	1,413.57	75.7288	1,413.57	73.1845	1,413.57	73.3774	1,413.57	71.5111	1,413.57	72.3387	1,413.57	73.1477	1,413.57	73.7139	1,413.57	73.4055	1,413.57	74.2212	1,413.57	70.6892	1,413.57	71.9911	1,413.57	61.5128	1,413.57	64.7181	1,413.57	65.2714	1,413.57	60.747	1,413.57	71.1104	1,413.57	69.4147	1,413.57	71.9112
1,463.38	85.684	1,463.38	85.5478	1,463.38	85.4347	1,463.38	84.9964	1,463.38	84.7982	1,463.38	84.051	1,463.38	83.8121	1,463.38	82.7983	1,463.38	82.632	1,463.38	81.3359	1,463.38	81.3369	1,463.38	79.9145	1,463.38	79.9386	1,463.38	78.8646	1,463.38	78.7194	1,463.38	77.9022	1,463.38	77.6636	1,463.38	76.1867	1,463.38	75.9278	1,463.38	72.9974	1,463.38	73.0241	1,463.38	70.9068	1,463.38	72.3326	1,463.38	73.2708	1,463.38	74.6679	1,463.38	74.1481	1,463.38	75.4764	1,463.38	72.1873	1,463.38	73.5546	1,463.38	64.6646	1,463.38	66.7761	1,463.38	62.3249	1,463.38	59.884	1,463.38	70.8365	1,463.38	69.7378	1,463.38	72.1318
1,516.11	86.0885	1,516.11	85.9801	1,516.11	85.6908	1,516.11	85.395	1,516.11	84.9111	1,516.11	84.4717	1,516.11	83.9221	1,516.11	83.2243	1,516.11	82.8039	1,516.11	81.56	1,516.11	81.451	1,516.11	79.807	1,516.11	79.8986	1,516.11	78.6687	1,516.11	78.7843	1,516.11	78.0077	1,516.11	78.1828	1,516.11	76.9483	1,516.11	76.8442	1,516.11	74.4001	1,516.11	73.6106	1,516.11	70.0034	1,516.11	71.1284	1,516.11	71.9158	1,516.11	73.8959	1,516.11	74.2815	1,516.11	75.6175	1,516.11	72.9958	1,516.11	74.3122	1,516.11	66.5202	1,516.11	68.5313	1,516.11	61.1927	1,516.11	62.6174	1,516.11	70.6862	1,516.11	70.5108	1,516.11	72.612
1,568.85	85.7439	1,568.85	85.7277	1,568.85	85.4176	1,568.85	85.2996	1,568.85	84.853	1,568.85	84.5018	1,568.85	84.0462	1,568.85	83.3992	1,568.85	82.9551	1,568.85	82.0474	1,568.85	81.5141	1,568.85	80.5644	1,568.85	79.6805	1,568.85	79.2296	1,568.85	78.1565	1,568.85	78.3837	1,568.85	77.6963	1,568.85	77.7415	1,568.85	76.9671	1,568.85	76.131	1,568.85	74.3104	1,568.85	72.6318	1,568.85	69.9583	1,568.85	71.842	1,568.85	71.4597	1,568.85	74.0308	1,568.85	74.4642	1,568.85	73.7322	1,568.85	74.0679	1,568.85	69.0437	1,568.85	69.1024	1,568.85	49.0976	1,568.85	52.1992	1,568.85	69.1689	1,568.85	68.8721	1,568.85	71.5947
1,624.51	85.2453	1,624.51	85.0638	1,624.51	84.9899	1,624.51	84.5667	1,624.51	84.396	1,624.51	83.8223	1,624.51	83.645	1,624.51	82.7676	1,624.51	82.6419	1,624.51	81.4143	1,624.51	81.0718	1,624.51	79.8121	1,624.51	78.8239	1,624.51	78.2735	1,624.51	76.7181	1,624.51	77.3965	1,624.51	76.2364	1,624.51	77.0017	1,624.51	75.9742	1,624.51	75.8054	1,624.51	73.6088	1,624.51	72.6551	1,624.51	69.4716	1,624.51	72.0576	1,624.51	70.2536	1,624.51	74.0889	1,624.51	74.1189	1,624.51	74.051	1,624.51	74.6019	1,624.51	70.6716	1,624.51	70.5669	1,624.51	58.2645	1,624.51	60.7468	1,624.51	67.935	1,624.51	68.4091	1,624.51	70.93
1,681.64	85.371	1,681.64	85.1239	1,681.64	85.1975	1,681.64	84.649	1,681.64	84.6978	1,681.64	83.9966	1,681.64	84.0605	1,681.64	83.0082	1,681.64	83.0665	1,681.64	81.5483	1,681.64	81.5298	1,681.64	79.4199	1,681.64	79.8072	1,681.64	77.0966	1,681.64	78.1341	1,681.64	76.3099	1,681.64	77.0067	1,681.64	76.4497	1,681.64	76.5293	1,681.64	75.1603	1,681.64	74.3518	1,681.64	70.9651	1,681.64	69.0304	1,681.64	68.9921	1,681.64	68.5007	1,681.64	72.9011	1,681.64	73.0401	1,681.64	73.58	1,681.64	73.5676	1,681.64	70.1221	1,681.64	70.3283	1,681.64	60.3209	1,681.64	61.3363	1,681.64	67.4851	1,681.64	66.9225	1,681.64	70.2955
1,741.7	86.1311	1,741.7	85.9216	1,741.7	85.9289	1,741.7	85.4237	1,741.7	85.4552	1,741.7	84.6959	1,741.7	84.8614	1,741.7	83.6768	1,741.7	83.9538	1,741.7	82.5074	1,741.7	82.6377	1,741.7	81.0752	1,741.7	81.1834	1,741.7	78.9658	1,741.7	79.4486	1,741.7	76.9694	1,741.7	77.6663	1,741.7	76.4729	1,741.7	77.1205	1,741.7	75.6858	1,741.7	76.2602	1,741.7	72.2212	1,741.7	73.1429	1,741.7	67.4851	1,741.7	68.2085	1,741.7	71.7465	1,741.7	72.0125	1,741.7	73.4402	1,741.7	73.7684	1,741.7	70.7769	1,741.7	71.5374	1,741.7	63.1217	1,741.7	64.8382	1,741.7	66.806	1,741.7	68.7219	1,741.7	70.736
1,803.22	86.3172	1,803.22	86.1809	1,803.22	86.041	1,803.22	85.6058	1,803.22	85.4364	1,803.22	84.6151	1,803.22	84.6763	1,803.22	83.4457	1,803.22	83.7357	1,803.22	82.4107	1,803.22	82.5063	1,803.22	81.2443	1,803.22	81.296	1,803.22	79.4613	1,803.22	79.9068	1,803.22	77.4941	1,803.22	77.7533	1,803.22	76.5081	1,803.22	76.1847	1,803.22	75.9067	1,803.22	75.7323	1,803.22	73.7816	1,803.22	73.7858	1,803.22	69.2764	1,803.22	69.3527	1,803.22	71.5831	1,803.22	71.1281	1,803.22	73.9542	1,803.22	72.636	1,803.22	71.1346	1,803.22	69.8511	1,803.22	64.9213	1,803.22	61.1949	1,803.22	67.109	1,803.22	68.8523	1,803.22	70.8475
1,866.21	86.2008	1,866.21	86.0706	1,866.21	85.8941	1,866.21	85.4925	1,866.21	85.2047	1,866.21	84.4764	1,866.21	84.2668	1,866.21	83.2263	1,866.21	83.1221	1,866.21	81.9495	1,866.21	81.9083	1,866.21	80.6371	1,866.21	80.8211	1,866.21	79.2038	1,866.21	79.292	1,866.21	77.5309	1,866.21	76.8301	1,866.21	76.184	1,866.21	75.3253	1,866.21	75.5724	1,866.21	75.4449	1,866.21	74.3406	1,866.21	73.7794	1,866.21	71.2464	1,866.21	68.5916	1,866.21	72.4345	1,866.21	68.7441	1,866.21	74.476	1,866.21	71.4142	1,866.21	71.8019	1,866.21	70.9883	1,866.21	66.2888	1,866.21	65.6854	1,866.21	67.7036	1,866.21	66.419	1,866.21	69.7033
1,932.13	86.4714	1,932.13	86.2433	1,932.13	86.2671	1,932.13	85.6933	1,932.13	85.5932	1,932.13	84.6503	1,932.13	84.7111	1,932.13	83.3698	1,932.13	83.6437	1,932.13	82.3713	1,932.13	82.5198	1,932.13	81.5262	1,932.13	81.3799	1,932.13	80.2669	1,932.13	79.7465	1,932.13	78.0518	1,932.13	77.758	1,932.13	75.8477	1,932.13	76.2912	1,932.13	75.7057	1,932.13	75.9072	1,932.13	75.0921	1,932.13	74.9953	1,932.13	71.5458	1,932.13	70.4062	1,932.13	71.5703	1,932.13	67.8719	1,932.13	74.2456	1,932.13	71.5336	1,932.13	71.7072	1,932.13	71.4357	1,932.13	65.1296	1,932.13	66.5454	1,932.13	69.3925	1,932.13	66.7794	1,932.13	70.3259
1,999.51	86.403	1,999.51	86.1562	1,999.51	86.4812	1,999.51	85.942	1,999.51	85.9673	1,999.51	85.2189	1,999.51	84.9186	1,999.51	83.8743	1,999.51	83.8438	1,999.51	82.7901	1,999.51	82.9502	1,999.51	82.1146	1,999.51	81.7382	1,999.51	80.9087	1,999.51	79.996	1,999.51	78.9581	1,999.51	78.2233	1,999.51	76.5935	1,999.51	77.1077	1,999.51	75.297	1,999.51	76.212	1,999.51	75.0613	1,999.51	73.9536	1,999.51	72.784	1,999.51	69.7602	1,999.51	71.6723	1,999.51	69.4833	1,999.51	73.7226	1,999.51	73.1886	1,999.51	72.4317	1,999.51	72.9694	1,999.51	63.7472	1,999.51	67.805	1,999.51	68.487	1,999.51	67.7967	1,999.51	69.87
2,069.82	86.123	2,069.82	85.8434	2,069.82	86.2891	2,069.82	85.8303	2,069.82	85.6809	2,069.82	85.3357	2,069.82	84.6189	2,069.82	84.1918	2,069.82	83.8168	2,069.82	83.0179	2,069.82	82.7335	2,069.82	81.8128	2,069.82	81.246	2,069.82	80.3629	2,069.82	80.6281	2,069.82	78.4099	2,069.82	79.2424	2,069.82	75.8433	2,069.82	74.9421	2,069.82	74.6477	2,069.82	73.0692	2,069.82	74.6863	2,069.82	73.462	2,069.82	70.3875	2,069.82	69.8711	2,069.82	69.7069	2,069.82	68.0682	2,069.82	74.3256	2,069.82	74.0533	2,069.82	73.5406	2,069.82	74.0743	2,069.82	66.1836	2,069.82	67.506	2,069.82	66.518	2,069.82	66.5249	2,069.82	68.6082
2,143.07	85.8556	2,143.07	85.6582	2,143.07	85.6577	2,143.07	85.0136	2,143.07	85.4097	2,143.07	84.5797	2,143.07	84.7426	2,143.07	84.0925	2,143.07	83.8322	2,143.07	82.9784	2,143.07	82.488	2,143.07	81.0068	2,143.07	80.4942	2,143.07	78.9775	2,143.07	79.5539	2,143.07	77.9311	2,143.07	79.2277	2,143.07	76.5591	2,143.07	76.2686	2,143.07	75.0475	2,143.07	72.2903	2,143.07	75.1564	2,143.07	73.9597	2,143.07	71.9144	2,143.07	73.2247	2,143.07	61.9092	2,143.07	65.3545	2,143.07	71.1633	2,143.07	72.1221	2,143.07	73.1692	2,143.07	73.4941	2,143.07	68.5764	2,143.07	71.0882	2,143.07	67.1064	2,143.07	69.4839	2,143.07	71.3866
2,219.24	86.258	2,219.24	86.5029	2,219.24	85.9534	2,219.24	86.1896	2,219.24	85.5229	2,219.24	85.3262	2,219.24	84.9657	2,219.24	84.6769	2,219.24	84.1349	2,219.24	83.849	2,219.24	83.0514	2,219.24	82.131	2,219.24	82.2851	2,219.24	80.0898	2,219.24	80.3574	2,219.24	78.3743	2,219.24	78.0152	2,219.24	77.1013	2,219.24	76.4682	2,219.24	75.7182	2,219.24	73.9599	2,219.24	75.1516	2,219.24	73.3224	2,219.24	73.6402	2,219.24	73.1737	2,219.24	67.0966	2,219.24	69.1918	2,219.24	69.9077	2,219.24	67.894	2,219.24	72.407	2,219.24	71.3397	2,219.24	70.5115	2,219.24	66.9848	2,219.24	68.4135	2,219.24	70.4677	2,219.24	71.8671
2,296.88	85.5291	2,296.88	85.4985	2,296.88	85.4991	2,296.88	85.4164	2,296.88	85.0959	2,296.88	85.2045	2,296.88	84.5162	2,296.88	84.5797	2,296.88	83.4838	2,296.88	83.3251	2,296.88	82.0015	2,296.88	81.9654	2,296.88	80.8812	2,296.88	80.4018	2,296.88	78.9773	2,296.88	78.6339	2,296.88	76.6325	2,296.88	76.8222	2,296.88	76.2119	2,296.88	74.7363	2,296.88	75.6928	2,296.88	72.7738	2,296.88	72.9801	2,296.88	72.735	2,296.88	70.1458	2,296.88	70.4632	2,296.88	69.7445	2,296.88	67.8902	2,296.88	71.5087	2,296.88	71.3908	2,296.88	72.4826	2,296.88	71.5275	2,296.88	67.9845	2,296.88	70.8185	2,296.88	68.7884	2,296.88	72.2549
2,378.91	85.1887	2,378.91	85.3532	2,378.91	85.1036	2,378.91	85.199	2,378.91	84.8816	2,378.91	85.1362	2,378.91	84.7656	2,378.91	84.8252	2,378.91	84.516	2,378.91	83.4818	2,378.91	83.7631	2,378.91	82.1247	2,378.91	82.3643	2,378.91	79.9619	2,378.91	80.1786	2,378.91	77.0707	2,378.91	78.2512	2,378.91	75.8549	2,378.91	76.9235	2,378.91	73.9641	2,378.91	73.7704	2,378.91	71.2279	2,378.91	72.9345	2,378.91	70.6545	2,378.91	72.7056	2,378.91	72.9637	2,378.91	67.8858	2,378.91	72.0628	2,378.91	70.2093	2,378.91	72.2207	2,378.91	71.8387	2,378.91	70.3184	2,378.91	70.0459	2,378.91	70.0072	2,378.91	66.1676	2,378.91	68.505
2,462.4	84.88	2,462.4	84.959	2,462.4	84.8812	2,462.4	85.038	2,462.4	85.1169	2,462.4	84.927	2,462.4	85.1674	2,462.4	84.6018	2,462.4	84.5783	2,462.4	83.7647	2,462.4	83.7536	2,462.4	82.5004	2,462.4	82.6182	2,462.4	81.0092	2,462.4	80.6738	2,462.4	78.9031	2,462.4	78.2521	2,462.4	76.8123	2,462.4	76.4592	2,462.4	75.0689	2,462.4	74.3954	2,462.4	73.0383	2,462.4	73.0417	2,462.4	72.5957	2,462.4	71.6872	2,462.4	69.0021	2,462.4	69.203	2,462.4	69.2837	2,462.4	69.5645	2,462.4	71.0275	2,462.4	72.099	2,462.4	67.9511	2,462.4	67.4197	2,462.4	68.3775	2,462.4	71.1635	2,462.4	72.0578
2,548.83	83.0535	2,548.83	83.2816	2,548.83	83.6196	2,548.83	83.739	2,548.83	83.9626	2,548.83	83.6975	2,548.83	83.7011	2,548.83	83.3303	2,548.83	83.595	2,548.83	82.8605	2,548.83	82.6807	2,548.83	81.4264	2,548.83	81.1793	2,548.83	79.4156	2,548.83	79.7864	2,548.83	77.7165	2,548.83	77.6007	2,548.83	75.8374	2,548.83	75.472	2,548.83	74.0581	2,548.83	73.2128	2,548.83	73.9435	2,548.83	70.9997	2,548.83	73.5896	2,548.83	71.789	2,548.83	70.9103	2,548.83	68.3981	2,548.83	68.4583	2,548.83	67.3912	2,548.83	70.7167	2,548.83	70.4693	2,548.83	68.1006	2,548.83	70.0645	2,548.83	70.5641	2,548.83	63.8721	2,548.83	71.7989
2,639.65	83.9907	2,639.65	84.1254	2,639.65	84.3919	2,639.65	84.5713	2,639.65	84.8624	2,639.65	84.7696	2,639.65	85.1881	2,639.65	84.3899	2,639.65	84.6865	2,639.65	83.1096	2,639.65	83.431	2,639.65	81.528	2,639.65	81.957	2,639.65	79.7469	2,639.65	80.3774	2,639.65	77.3606	2,639.65	78.4657	2,639.65	75.1093	2,639.65	76.277	2,639.65	72.8388	2,639.65	74.43	2,639.65	70.7702	2,639.65	72.6834	2,639.65	71.763	2,639.65	72.4573	2,639.65	68.035	2,639.65	69.7941	2,639.65	69.6532	2,639.65	68.6765	2,639.65	71.1623	2,639.65	71.2264	2,639.65	67.8058	2,639.65	68.1432	2,639.65	66.4579	2,639.65	69.749	2,639.65	69.481
2,731.93	84.058	2,731.93	84.2352	2,731.93	84.4579	2,731.93	84.7969	2,731.93	84.8525	2,731.93	85.039	2,731.93	85.2009	2,731.93	84.5836	2,731.93	84.7795	2,731.93	83.4356	2,731.93	83.3775	2,731.93	81.8657	2,731.93	81.6715	2,731.93	79.8556	2,731.93	79.7932	2,731.93	77.5832	2,731.93	77.4716	2,731.93	75.5279	2,731.93	75.5953	2,731.93	73.4427	2,731.93	74.0784	2,731.93	71.4143	2,731.93	71.112	2,731.93	71.7546	2,731.93	72.4299	2,731.93	68.7404	2,731.93	70.9369	2,731.93	66.9199	2,731.93	68.0498	2,731.93	72.466	2,731.93	72.4356	2,731.93	70.022	2,731.93	69.834	2,731.93	68.5179	2,731.93	66.5948	2,731.93	70.8395
2,828.61	83.2597	2,828.61	83.533	2,828.61	83.6297	2,828.61	84.1983	2,828.61	84.4658	2,828.61	84.5879	2,828.61	85.1112	2,828.61	84.3268	2,828.61	84.4851	2,828.61	83.0682	2,828.61	83.2181	2,828.61	81.1712	2,828.61	81.6845	2,828.61	79.3098	2,828.61	79.8636	2,828.61	76.6491	2,828.61	76.9438	2,828.61	74.2959	2,828.61	74.0482	2,828.61	74.1554	2,828.61	73.1723	2,828.61	69.0319	2,828.61	70.0363	2,828.61	69.6323	2,828.61	69.2693	2,828.61	70.2266	2,828.61	70.9675	2,828.61	66.7719	2,828.61	67.709	2,828.61	71.8733	2,828.61	71.9075	2,828.61	69.3684	2,828.61	68.2783	2,828.61	63.1574	2,828.61	68.8013	2,828.61	67.6406
2,928.22	83.8153	2,928.22	84.2206	2,928.22	84.2822	2,928.22	84.9027	2,928.22	84.7879	2,928.22	85.0304	2,928.22	85.0198	2,928.22	84.5666	2,928.22	84.7094	2,928.22	83.6414	2,928.22	83.6141	2,928.22	81.639	2,928.22	81.8391	2,928.22	79.4047	2,928.22	79.5008	2,928.22	77.3291	2,928.22	77.3132	2,928.22	74.4984	2,928.22	74.7247	2,928.22	73.5702	2,928.22	72.931	2,928.22	71.9884	2,928.22	71.2392	2,928.22	70.0958	2,928.22	70.0031	2,928.22	69.3579	2,928.22	69.5239	2,928.22	63.9314	2,928.22	64.8496	2,928.22	70.3316	2,928.22	70.5044	2,928.22	69.121	2,928.22	70.866	2,928.22	70.0022	2,928.22	66.8519	2,928.22	72.6874
3,030.76	83.5947	3,030.76	84.0553	3,030.76	83.9742	3,030.76	84.7183	3,030.76	84.7796	3,030.76	84.9636	3,030.76	85.241	3,030.76	84.4705	3,030.76	84.8431	3,030.76	83.2385	3,030.76	83.6408	3,030.76	81.3882	3,030.76	81.6824	3,030.76	78.8673	3,030.76	79.3757	3,030.76	76.9487	3,030.76	77.3451	3,030.76	74.3058	3,030.76	74.6633	3,030.76	72.4644	3,030.76	72.4451	3,030.76	71.7077	3,030.76	71.1296	3,030.76	68.5634	3,030.76	69.0102	3,030.76	70.2695	3,030.76	69.6682	3,030.76	65.3532	3,030.76	66.3458	3,030.76	70.5305	3,030.76	70.3778	3,030.76	69.2159	3,030.76	70.0608	3,030.76	67.1107	3,030.76	68.8719	3,030.76	72.4062
3,137.7	83.5855	3,137.7	83.9834	3,137.7	83.9345	3,137.7	84.6464	3,137.7	85.0043	3,137.7	84.9981	3,137.7	85.467	3,137.7	84.4296	3,137.7	84.7196	3,137.7	83.0051	3,137.7	83.3578	3,137.7	81.0919	3,137.7	81.5851	3,137.7	78.7903	3,137.7	79.3567	3,137.7	76.5847	3,137.7	76.7656	3,137.7	74.7964	3,137.7	74.6576	3,137.7	72.1879	3,137.7	72.1769	3,137.7	70.3852	3,137.7	70.396	3,137.7	69.7641	3,137.7	68.934	3,137.7	69.1969	3,137.7	70.7862	3,137.7	63.68	3,137.7	66.1015	3,137.7	70.0207	3,137.7	70.3522	3,137.7	70.5374	3,137.7	69.3045	3,137.7	69.7022	3,137.7	67.0471	3,137.7	71.5178
3,249.02	83.5673	3,249.02	83.9828	3,249.02	84.2174	3,249.02	84.9401	3,249.02	84.9601	3,249.02	85.1579	3,249.02	85.34	3,249.02	84.5377	3,249.02	84.7622	3,249.02	82.9427	3,249.02	83.2812	3,249.02	81.2114	3,249.02	81.2707	3,249.02	79.2183	3,249.02	78.725	3,249.02	76.7752	3,249.02	76.9831	3,249.02	75.1737	3,249.02	75.2346	3,249.02	72.2757	3,249.02	72.7528	3,249.02	70.4754	3,249.02	71.2946	3,249.02	68.2714	3,249.02	68.4488	3,249.02	69.3261	3,249.02	66.7728	3,249.02	66.4668	3,249.02	64.4654	3,249.02	69.8746	3,249.02	69.7469	3,249.02	69.0683	3,249.02	69.2371	3,249.02	65.6078	3,249.02	68.2328	3,249.02	71.0799
3,363.28	83.8494	3,363.28	84.0456	3,363.28	84.2269	3,363.28	84.9015	3,363.28	84.9463	3,363.28	85.1639	3,363.28	85.2537	3,363.28	84.5623	3,363.28	84.5312	3,363.28	82.9123	3,363.28	83.0678	3,363.28	81.0276	3,363.28	80.9421	3,363.28	79.0989	3,363.28	78.9384	3,363.28	76.6725	3,363.28	76.4547	3,363.28	74.2141	3,363.28	73.9552	3,363.28	72.72	3,363.28	72.3017	3,363.28	69.9074	3,363.28	70.4685	3,363.28	68.6324	3,363.28	69.1758	3,363.28	70.637	3,363.28	70.3718	3,363.28	65.5685	3,363.28	66.0497	3,363.28	70.366	3,363.28	70.2563	3,363.28	68.2612	3,363.28	68.543	3,363.28	66.5198	3,363.28	67.4947	3,363.28	71.3148
3,481.93	84.1162	3,481.93	84.3735	3,481.93	84.0373	3,481.93	84.8051	3,481.93	84.9959	3,481.93	85.1506	3,481.93	85.2394	3,481.93	84.2682	3,481.93	84.1404	3,481.93	82.711	3,481.93	82.5044	3,481.93	80.9741	3,481.93	80.4175	3,481.93	78.813	3,481.93	78.4766	3,481.93	76.6359	3,481.93	76.336	3,481.93	74.1986	3,481.93	74.794	3,481.93	71.8682	3,481.93	72.5775	3,481.93	70.5536	3,481.93	70.7486	3,481.93	66.5871	3,481.93	68.5969	3,481.93	67.7982	3,481.93	70.5601	3,481.93	64.4413	3,481.93	66.0006	3,481.93	68.9866	3,481.93	69.4605	3,481.93	68.0058	3,481.93	69.8444	3,481.93	64.6432	3,481.93	63.9217	3,481.93	71.8116
3,604.98	84.1918	3,604.98	84.5003	3,604.98	84.5424	3,604.98	84.9229	3,604.98	85.2225	3,604.98	85.232	3,604.98	85.0684	3,604.98	84.5378	3,604.98	84.3725	3,604.98	83.0799	3,604.98	82.7329	3,604.98	81.6357	3,604.98	80.9933	3,604.98	80.0151	3,604.98	79.0566	3,604.98	77.4008	3,604.98	77.0403	3,604.98	74.9322	3,604.98	75.3403	3,604.98	72.5978	3,604.98	73.2618	3,604.98	71.5462	3,604.98	71.4938	3,604.98	67.842	3,604.98	68.283	3,604.98	67.0136	3,604.98	64.4562	3,604.98	64.6586	3,604.98	63.6701	3,604.98	68.9938	3,604.98	68.8491	3,604.98	70.165	3,604.98	70.4376	3,604.98	65.1983	3,604.98	63.5824	3,604.98	71.9597
3,732.42	84.243	3,732.42	84.1868	3,732.42	84.3958	3,732.42	84.6573	3,732.42	84.4944	3,732.42	84.5802	3,732.42	84.3704	3,732.42	84.0564	3,732.42	83.8214	3,732.42	82.5578	3,732.42	82.4708	3,732.42	81.0797	3,732.42	80.9812	3,732.42	79.2972	3,732.42	79.2943	3,732.42	77.0239	3,732.42	77.0845	3,732.42	75.3533	3,732.42	74.5168	3,732.42	73.6912	3,732.42	72.6747	3,732.42	71.8006	3,732.42	70.4885	3,732.42	69.6471	3,732.42	68.7334	3,732.42	69.3491	3,732.42	69.5695	3,732.42	64.815	3,732.42	64.9286	3,732.42	68.2732	3,732.42	68.3827	3,732.42	70.5991	3,732.42	70.1589	3,732.42	65.1889	3,732.42	64.4226	3,732.42	72.2191
3,864.26	85.2739	3,864.26	84.9365	3,864.26	84.716	3,864.26	84.9567	3,864.26	84.4175	3,864.26	84.8256	3,864.26	84.3914	3,864.26	84.2657	3,864.26	83.9038	3,864.26	83.3985	3,864.26	83.0257	3,864.26	81.8282	3,864.26	81.6697	3,864.26	79.5001	3,864.26	80.04	3,864.26	77.5724	3,864.26	78.0518	3,864.26	75.5697	3,864.26	76.062	3,864.26	73.363	3,864.26	73.293	3,864.26	70.3893	3,864.26	71.8709	3,864.26	67.3638	3,864.26	69.188	3,864.26	69.5634	3,864.26	71.6453	3,864.26	66.922	3,864.26	68.5908	3,864.26	67.3998	3,864.26	67.7299	3,864.26	69.2768	3,864.26	69.0241	3,864.26	64.6974	3,864.26	65.5217	3,864.26	71.8647
4,000.49	85.4565	4,000.49	84.9965	4,000.49	84.56	4,000.49	84.2878	4,000.49	84.488	4,000.49	84.5171	4,000.49	83.9846	4,000.49	83.608	4,000.49	83.5698	4,000.49	83.0503	4,000.49	82.4669	4,000.49	81.7667	4,000.49	81.0366	4,000.49	79.8992	4,000.49	79.8423	4,000.49	77.7179	4,000.49	77.6711	4,000.49	74.6171	4,000.49	75.2869	4,000.49	72.1276	4,000.49	73.1974	4,000.49	71.1536	4,000.49	71.65	4,000.49	69.2535	4,000.49	68.2067	4,000.49	68.3968	4,000.49	65.6975	4,000.49	67.2526	4,000.49	67.0098	4,000.49	66.5766	4,000.49	66.3836	4,000.49	68.3683	4,000.49	68.5665	4,000.49	57.6768	4,000.49	63.5781	4,000.49	71.8453
4,141.11	86.2685	4,141.11	85.8323	4,141.11	85.8282	4,141.11	85.0624	4,141.11	84.8196	4,141.11	84.2551	4,141.11	84.109	4,141.11	84.3309	4,141.11	83.7382	4,141.11	83.2929	4,141.11	83.0636	4,141.11	82.0075	4,141.11	82.0959	4,141.11	80.9277	4,141.11	80.31	4,141.11	78.8154	4,141.11	77.7993	4,141.11	75.9669	4,141.11	75.3078	4,141.11	73.2802	4,141.11	73.3859	4,141.11	71.3253	4,141.11	71.5777	4,141.11	67.9642	4,141.11	69.4773	4,141.11	68.381	4,141.11	68.0326	4,141.11	66.4136	4,141.11	64.8943	4,141.11	67.8791	4,141.11	67.7195	4,141.11	69.6408	4,141.11	69.566	4,141.11	65.8116	4,141.11	64.8163	4,141.11	72.6947
4,287.6	86.6809	4,287.6	86.1561	4,287.6	85.7608	4,287.6	84.8856	4,287.6	84.134	4,287.6	83.7063	4,287.6	83.5014	4,287.6	83.2565	4,287.6	83.4819	4,287.6	83.2162	4,287.6	83.5336	4,287.6	82.0644	4,287.6	81.9757	4,287.6	79.5331	4,287.6	79.9413	4,287.6	77.5306	4,287.6	77.8275	4,287.6	74.7201	4,287.6	74.8804	4,287.6	72.7071	4,287.6	72.2831	4,287.6	71.9338	4,287.6	69.9183	4,287.6	67.8064	4,287.6	68.5265	4,287.6	68.5079	4,287.6	67.6122	4,287.6	65.3876	4,287.6	66.0946	4,287.6	68.0519	4,287.6	67.149	4,287.6	67.9559	4,287.6	69.3439	4,287.6	67.1126	4,287.6	64.3434	4,287.6	73.7512
4,438.48	87.0005	4,438.48	86.4095	4,438.48	85.6415	4,438.48	84.2941	4,438.48	84.4818	4,438.48	84.599	4,438.48	83.6499	4,438.48	84.0067	4,438.48	83.5193	4,438.48	83.5689	4,438.48	82.5226	4,438.48	82.349	4,438.48	81.5505	4,438.48	80.2487	4,438.48	79.8209	4,438.48	77.0195	4,438.48	76.8172	4,438.48	74.5017	4,438.48	74.4901	4,438.48	71.529	4,438.48	72.0086	4,438.48	69.881	4,438.48	70.8529	4,438.48	67.879	4,438.48	67.5345	4,438.48	67.6274	4,438.48	67.4208	4,438.48	65.5822	4,438.48	65.1597	4,438.48	65.8897	4,438.48	67.4003	4,438.48	67.1238	4,438.48	67.8324	4,438.48	57.9718	4,438.48	67.3203	4,438.48	72.2128
4,595.21	86.9574	4,595.21	86.0485	4,595.21	86.2758	4,595.21	84.5745	4,595.21	83.7685	4,595.21	83.0353	4,595.21	82.7856	4,595.21	83.7335	4,595.21	83.4429	4,595.21	82.7435	4,595.21	83.2603	4,595.21	81.5529	4,595.21	81.4518	4,595.21	79.6009	4,595.21	79.3629	4,595.21	77.0496	4,595.21	76.6205	4,595.21	73.9811	4,595.21	73.6463	4,595.21	70.6672	4,595.21	70.4978	4,595.21	68.4962	4,595.21	68.9004	4,595.21	66.772	4,595.21	66.9243	4,595.21	67.9158	4,595.21	64.4707	4,595.21	64.9308	4,595.21	64.0174	4,595.21	65.9503	4,595.21	65.5678	4,595.21	63.4073	4,595.21	64.3154	4,595.21	66.1699	4,595.21	64.9493	4,595.21	71.098
4,756.35	87.2495	4,756.35	86.6965	4,756.35	86.0716	4,756.35	84.9088	4,756.35	84.1807	4,756.35	84.1436	4,756.35	83.4016	4,756.35	83.288	4,756.35	83.8151	4,756.35	83.3851	4,756.35	83.3262	4,756.35	80.9552	4,756.35	81.2476	4,756.35	77.808	4,756.35	78.9307	4,756.35	76.133	4,756.35	75.896	4,756.35	73.4987	4,756.35	74.3159	4,756.35	71.5237	4,756.35	71.3058	4,756.35	68.2744	4,756.35	69.4431	4,756.35	68.4391	4,756.35	67.6625	4,756.35	64.259	4,756.35	67.5921	4,756.35	60.8067	4,756.35	61.7813	4,756.35	65.4949	4,756.35	68.0422	4,756.35	64.9317	4,756.35	64.5648	4,756.35	66.9598	4,756.35	66.4389	4,756.35	72.9592
4,924.8	86.693	4,924.8	85.8283	4,924.8	85.332	4,924.8	83.6623	4,924.8	83.9155	4,924.8	83.4393	4,924.8	83.1274	4,924.8	83.678	4,924.8	82.5802	4,924.8	82.0282	4,924.8	81.2478	4,924.8	80.762	4,924.8	80.24	4,924.8	78.7259	4,924.8	78.2172	4,924.8	75.0713	4,924.8	75.4463	4,924.8	72.842	4,924.8	72.3749	4,924.8	71.6784	4,924.8	69.972	4,924.8	66.0092	4,924.8	67.784	4,924.8	66.7944	4,924.8	65.2454	4,924.8	64.6025	4,924.8	65.3413	4,924.8	64.2367	4,924.8	63.7762	4,924.8	65.8349	4,924.8	66.0635	4,924.8	65.0089	4,924.8	63.8243	4,924.8	63.0417	4,924.8	66.3432	4,924.8	70.2515
5,097.66	86.7258	5,097.66	85.6783	5,097.66	86.1984	5,097.66	84.07	5,097.66	84.0763	5,097.66	83.2981	5,097.66	83.5137	5,097.66	83.3455	5,097.66	83.6811	5,097.66	83.2863	5,097.66	83.2319	5,097.66	81.3054	5,097.66	80.3917	5,097.66	78.513	5,097.66	77.5008	5,097.66	77.1408	5,097.66	75.6717	5,097.66	73.4476	5,097.66	73.5286	5,097.66	70.6908	5,097.66	70.8919	5,097.66	68.0431	5,097.66	68.2322	5,097.66	65.4834	5,097.66	66.5506	5,097.66	62.6083	5,097.66	60.8153	5,097.66	64.2506	5,097.66	64.5289	5,097.66	61.7908	5,097.66	58.3843	5,097.66	65.4635	5,097.66	66.6588	5,097.66	60.0181	5,097.66	58.9626	5,097.66	68.9112
5,277.83	86.4827	5,277.83	85.9476	5,277.83	85.516	5,277.83	84.5302	5,277.83	84.678	5,277.83	84.5947	5,277.83	83.9657	5,277.83	84.3877	5,277.83	83.8049	5,277.83	83.485	5,277.83	82.1946	5,277.83	81.4809	5,277.83	80.803	5,277.83	79.3114	5,277.83	79.051	5,277.83	75.9863	5,277.83	76.3137	5,277.83	73.5367	5,277.83	73.4335	5,277.83	71.1377	5,277.83	71.1723	5,277.83	68.9091	5,277.83	68.4549	5,277.83	67.3407	5,277.83	64.1913	5,277.83	62.0479	5,277.83	61.6893	5,277.83	64.3876	5,277.83	63.0786	5,277.83	62.5964	5,277.83	59.7123	5,277.83	67.1263	5,277.83	65.0624	5,277.83	62.9305	5,277.83	61.5418	5,277.83	69.6716
5,463.87	85.7626	5,463.87	85.0178	5,463.87	85.511	5,463.87	84.6459	5,463.87	84.3768	5,463.87	84.2335	5,463.87	84.3413	5,463.87	84.11	5,463.87	83.8567	5,463.87	82.9352	5,463.87	83.1338	5,463.87	81.4457	5,463.87	81.2311	5,463.87	79.3296	5,463.87	79.0215	5,463.87	76.3957	5,463.87	76.5082	5,463.87	73.3567	5,463.87	73.7721	5,463.87	71.4838	5,463.87	71.2499	5,463.87	68.7041	5,463.87	68.7083	5,463.87	67.96	5,463.87	67.4587	5,463.87	65.3163	5,463.87	63.4554	5,463.87	62.1794	5,463.87	60.9834	5,463.87	64.8636	5,463.87	60.9297	5,463.87	65.0302	5,463.87	64.6012	5,463.87	61.889	5,463.87	59.8109	5,463.87	67.3661
5,657.23	85.4249	5,657.23	85.3167	5,657.23	85.1861	5,657.23	84.6644	5,657.23	85.1436	5,657.23	84.4389	5,657.23	84.2323	5,657.23	83.7617	5,657.23	83.7198	5,657.23	83.1191	5,657.23	82.4253	5,657.23	81.493	5,657.23	80.753	5,657.23	79.2457	5,657.23	78.7352	5,657.23	76.8382	5,657.23	76.4225	5,657.23	74.4597	5,657.23	73.6553	5,657.23	71.6644	5,657.23	70.5278	5,657.23	68.9975	5,657.23	68.6109	5,657.23	68.0395	5,657.23	66.7486	5,657.23	63.1754	5,657.23	63.8065	5,657.23	59.3233	5,657.23	61.435	5,657.23	61.0614	5,657.23	60.4342	5,657.23	64.2933	5,657.23	63.1563	5,657.23	64.4377	5,657.23	62.7515	5,657.23	66.0304
5,856.45	84.931	5,856.45	84.963	5,856.45	85.2224	5,856.45	85.1499	5,856.45	84.9236	5,856.45	84.3368	5,856.45	84.1609	5,856.45	83.6654	5,856.45	82.9623	5,856.45	82.8087	5,856.45	82.0123	5,856.45	81.2204	5,856.45	80.524	5,856.45	79.0502	5,856.45	78.185	5,856.45	76.2553	5,856.45	75.7037	5,856.45	73.0636	5,856.45	71.8792	5,856.45	69.9016	5,856.45	69.7781	5,856.45	67.3313	5,856.45	67.1789	5,856.45	66.5888	5,856.45	65.2359	5,856.45	60.73	5,856.45	62.442	5,856.45	58.7926	5,856.45	58.1466	5,856.45	61.1658	5,856.45	62.0838	5,856.45	64.0698	5,856.45	62.1004	5,856.45	63.6552	5,856.45	62.7428	5,856.45	64.8941
6,062.99	84.291	6,062.99	84.9506	6,062.99	84.6127	6,062.99	84.3955	6,062.99	85.0033	6,062.99	83.489	6,062.99	83.6257	6,062.99	82.6565	6,062.99	82.4923	6,062.99	81.9348	6,062.99	81.612	6,062.99	80.4404	6,062.99	80.0705	6,062.99	77.5251	6,062.99	77.6823	6,062.99	75.4039	6,062.99	74.6284	6,062.99	72.3875	6,062.99	71.8434	6,062.99	69.7467	6,062.99	69.2914	6,062.99	66.1912	6,062.99	66.2134	6,062.99	63.9778	6,062.99	64.2375	6,062.99	61.7948	6,062.99	62.4307	6,062.99	58.5036	6,062.99	61.0117	6,062.99	56.0858	6,062.99	59.7908	6,062.99	63.5342	6,062.99	61.1937	6,062.99	65.3903	6,062.99	62.1928	6,062.99	64.2522
6,276.86	83.5945	6,276.86	84.0988	6,276.86	84.8133	6,276.86	84.5371	6,276.86	84.6084	6,276.86	83.1496	6,276.86	83.1535	6,276.86	82.1138	6,276.86	81.9396	6,276.86	81.6874	6,276.86	81.5383	6,276.86	80.3239	6,276.86	80.1217	6,276.86	77.6913	6,276.86	77.3065	6,276.86	74.3076	6,276.86	74.4382	6,276.86	71.781	6,276.86	70.8544	6,276.86	68.5969	6,276.86	68.4547	6,276.86	66.8095	6,276.86	66.6953	6,276.86	63.6543	6,276.86	65.0489	6,276.86	61.2471	6,276.86	60.0967	6,276.86	60.4143	6,276.86	59.2957	6,276.86	56.6201	6,276.86	56.316	6,276.86	63.1122	6,276.86	59.3697	6,276.86	64.2968	6,276.86	61.7428	6,276.86	63.2535
6,498.05	83.4884	6,498.05	84.3669	6,498.05	84.5071	6,498.05	84.2134	6,498.05	84.7486	6,498.05	82.7658	6,498.05	83.0119	6,498.05	81.8646	6,498.05	81.9533	6,498.05	82.0602	6,498.05	81.4771	6,498.05	80.4445	6,498.05	79.8083	6,498.05	77.3549	6,498.05	77.1983	6,498.05	74.3691	6,498.05	74.3832	6,498.05	71.9823	6,498.05	71.146	6,498.05	68.4592	6,498.05	68.8717	6,498.05	66.0127	6,498.05	65.5071	6,498.05	61.1317	6,498.05	64.0511	6,498.05	60.2927	6,498.05	60.7329	6,498.05	59.6477	6,498.05	57.9886	6,498.05	58.5425	6,498.05	56.6413	6,498.05	61.419	6,498.05	59.7209	6,498.05	63.2398	6,498.05	61.0445	6,498.05	63.68
6,726.56	83.4261	6,726.56	84.0315	6,726.56	84.8299	6,726.56	84.3593	6,726.56	84.4195	6,726.56	82.5008	6,726.56	82.8418	6,726.56	81.7961	6,726.56	81.9987	6,726.56	81.4165	6,726.56	81.4257	6,726.56	79.4719	6,726.56	79.6557	6,726.56	77.0809	6,726.56	76.5362	6,726.56	73.5014	6,726.56	74.1995	6,726.56	70.6695	6,726.56	70.4878	6,726.56	67.0026	6,726.56	67.6055	6,726.56	66.2181	6,726.56	65.7581	6,726.56	61.632	6,726.56	63.2916	6,726.56	58.4062	6,726.56	59.7009	6,726.56	59.3865	6,726.56	56.4076	6,726.56	56.8672	6,726.56	54.2109	6,726.56	58.0299	6,726.56	57.841	6,726.56	61.2059	6,726.56	61.7678	6,726.56	62.0118
6,963.87	83.5622	6,963.87	84.3665	6,963.87	84.2411	6,963.87	83.9941	6,963.87	84.1783	6,963.87	82.4703	6,963.87	82.6417	6,963.87	81.8249	6,963.87	81.8917	6,963.87	81.4966	6,963.87	80.9091	6,963.87	79.1571	6,963.87	78.9355	6,963.87	76.646	6,963.87	75.9126	6,963.87	72.5747	6,963.87	73.5454	6,963.87	69.4524	6,963.87	70.4737	6,963.87	66.5597	6,963.87	67.8822	6,963.87	65.4108	6,963.87	63.8791	6,963.87	62.6956	6,963.87	62.2309	6,963.87	59.2233	6,963.87	59.5436	6,963.87	59.0105	6,963.87	57.9087	6,963.87	57.7158	6,963.87	55.413	6,963.87	53.5925	6,963.87	52.901	6,963.87	59.363	6,963.87	60.5288	6,963.87	59.892
7,209.96	83.5228	7,209.96	84.1863	7,209.96	84.3128	7,209.96	83.9977	7,209.96	83.7066	7,209.96	82.3357	7,209.96	82.5003	7,209.96	81.834	7,209.96	81.6411	7,209.96	81.1728	7,209.96	80.4111	7,209.96	78.8976	7,209.96	78.7151	7,209.96	76.4554	7,209.96	75.7454	7,209.96	73.3455	7,209.96	73.1705	7,209.96	70.6375	7,209.96	69.778	7,209.96	66.3705	7,209.96	67.6586	7,209.96	65.5521	7,209.96	64.9894	7,209.96	62.5658	7,209.96	62.1153	7,209.96	61.2584	7,209.96	59.7528	7,209.96	57.3162	7,209.96	59.0321	7,209.96	55.7554	7,209.96	55.3533	7,209.96	52.8361	7,209.96	49.8413	7,209.96	59.1817	7,209.96	57.8836	7,209.96	60.4834
7,464.84	83.3133	7,464.84	83.7512	7,464.84	83.5152	7,464.84	83.3295	7,464.84	83.1607	7,464.84	82.1113	7,464.84	82.2916	7,464.84	81.298	7,464.84	81.1645	7,464.84	80.43	7,464.84	79.9933	7,464.84	78.6987	7,464.84	78.2797	7,464.84	76.6285	7,464.84	75.4322	7,464.84	73.3759	7,464.84	72.7845	7,464.84	70.1277	7,464.84	69.3937	7,464.84	66.3128	7,464.84	65.8979	7,464.84	65.2861	7,464.84	63.6569	7,464.84	62.8263	7,464.84	61.1342	7,464.84	61.581	7,464.84	58.3995	7,464.84	57.7986	7,464.84	56.2671	7,464.84	55.2908	7,464.84	56.7917	7,464.84	56.5228	7,464.84	47.735	7,464.84	58.3797	7,464.84	58.4132	7,464.84	61.2385
7,727.05	83.1921	7,727.05	83.3422	7,727.05	83.2842	7,727.05	83.1398	7,727.05	82.906	7,727.05	81.9464	7,727.05	82.024	7,727.05	80.4961	7,727.05	80.4201	7,727.05	79.8794	7,727.05	79.6845	7,727.05	78.4794	7,727.05	78.0221	7,727.05	75.7961	7,727.05	74.7475	7,727.05	71.9715	7,727.05	71.574	7,727.05	69.617	7,727.05	67.9761	7,727.05	65.9644	7,727.05	65.827	7,727.05	63.8501	7,727.05	62.4561	7,727.05	59.8716	7,727.05	59.7899	7,727.05	60.3658	7,727.05	59.9608	7,727.05	56.6915	7,727.05	56.3912	7,727.05	51.6047	7,727.05	55.231	7,727.05	55.8305	7,727.05	45.8304	7,727.05	58.3236	7,727.05	59.0213	7,727.05	59.4823
7,999.51	83.4106	7,999.51	83.2384	7,999.51	83.1762	7,999.51	83.1201	7,999.51	82.9376	7,999.51	81.7262	7,999.51	81.9553	7,999.51	79.8723	7,999.51	80.069	7,999.51	79.5383	7,999.51	79.4835	7,999.51	77.9395	7,999.51	77.5063	7,999.51	75.292	7,999.51	74.2084	7,999.51	71.6824	7,999.51	71.4798	7,999.51	68.7824	7,999.51	66.8029	7,999.51	64.8081	7,999.51	64.2506	7,999.51	63.7055	7,999.51	62.1094	7,999.51	58.541	7,999.51	59.047	7,999.51	60.1236	7,999.51	59.3439	7,999.51	57.4594	7,999.51	56.9093	7,999.51	45.8368	7,999.51	51.4524	7,999.51	53.8499	7,999.51	44.1634	7,999.51	58.0839	7,999.51	58.8719	7,999.51	59.3472
8,282.23	83.7656	8,282.23	83.3622	8,282.23	83.1874	8,282.23	83.2238	8,282.23	83.0502	8,282.23	81.6574	8,282.23	81.6391	8,282.23	79.6404	8,282.23	79.8469	8,282.23	79.2161	8,282.23	79.2378	8,282.23	76.8963	8,282.23	76.9259	8,282.23	73.7292	8,282.23	73.3488	8,282.23	70.3325	8,282.23	70.5082	8,282.23	67.4865	8,282.23	65.4957	8,282.23	64.0606	8,282.23	62.8651	8,282.23	62.4916	8,282.23	61.02	8,282.23	57.5185	8,282.23	59.3944	8,282.23	58.6267	8,282.23	60.0355	8,282.23	55.5061	8,282.23	56.2652	8,282.23	47.9639	8,282.23	49.285	8,282.23	51.0717	8,282.23	41.4058	8,282.23	58.5966	8,282.23	56.9694	8,282.23	60.6494
8,573.73	84.0778	8,573.73	83.5022	8,573.73	83.343	8,573.73	83.4616	8,573.73	83.0948	8,573.73	81.9064	8,573.73	81.7309	8,573.73	80.0707	8,573.73	79.9766	8,573.73	79.4112	8,573.73	78.9819	8,573.73	76.8263	8,573.73	76.9384	8,573.73	72.837	8,573.73	72.8052	8,573.73	70.026	8,573.73	69.919	8,573.73	65.4599	8,573.73	65.9144	8,573.73	62.6896	8,573.73	63.9489	8,573.73	61.2064	8,573.73	60.8297	8,573.73	58.4763	8,573.73	58.2201	8,573.73	57.0319	8,573.73	58.1629	8,573.73	54.793	8,573.73	56.7349	8,573.73	49.3373	8,573.73	50.3117	8,573.73	46.2972	8,573.73	41.7991	8,573.73	55.8787	8,573.73	58.357	8,573.73	59.8866
8,876.95	84.2329	8,876.95	83.5707	8,876.95	83.5925	8,876.95	83.4785	8,876.95	83.0498	8,876.95	81.9023	8,876.95	81.6448	8,876.95	80.2549	8,876.95	79.8811	8,876.95	79.1716	8,876.95	78.8644	8,876.95	76.599	8,876.95	76.8797	8,876.95	72.5025	8,876.95	72.8604	8,876.95	69.3775	8,876.95	70.0394	8,876.95	65.5421	8,876.95	65.9538	8,876.95	63.036	8,876.95	62.5829	8,876.95	60.1322	8,876.95	59.9135	8,876.95	58.9269	8,876.95	58.519	8,876.95	56.2739	8,876.95	59.1725	8,876.95	52.5432	8,876.95	57.0421	8,876.95	51.0071	8,876.95	51.5015	8,876.95	50.8035	8,876.95	44.3482	8,876.95	55.2787	8,876.95	58.042	8,876.95	59.3965
9,188.96	84.3566	9,188.96	83.6857	9,188.96	83.8552	9,188.96	83.4237	9,188.96	83.1333	9,188.96	81.973	9,188.96	81.651	9,188.96	80.2731	9,188.96	80.1025	9,188.96	78.7874	9,188.96	78.951	9,188.96	76.397	9,188.96	76.7504	9,188.96	72.9497	9,188.96	73.2345	9,188.96	69.6274	9,188.96	69.967	9,188.96	65.737	9,188.96	66.0324	9,188.96	62.9766	9,188.96	62.7759	9,188.96	59.3731	9,188.96	60.4441	9,188.96	60.0146	9,188.96	58.6121	9,188.96	55.5492	9,188.96	58.0178	9,188.96	51.9971	9,188.96	56.9474	9,188.96	50.4857	9,188.96	51.8797	9,188.96	55.1707	9,188.96	47.6986	9,188.96	52.3783	9,188.96	57.3763	9,188.96	58.2439
9,514.16	84.3404	9,514.16	83.4839	9,514.16	83.8303	9,514.16	83.2311	9,514.16	83.2282	9,514.16	81.9465	9,514.16	82.1641	9,514.16	80.5799	9,514.16	80.5294	9,514.16	78.6718	9,514.16	78.7652	9,514.16	76.5126	9,514.16	76.7708	9,514.16	73.2529	9,514.16	73.2586	9,514.16	70.2625	9,514.16	69.9947	9,514.16	65.4464	9,514.16	66.2144	9,514.16	62.4885	9,514.16	63.5818	9,514.16	59.1221	9,514.16	61.192	9,514.16	59.7067	9,514.16	58.8307	9,514.16	54.1288	9,514.16	58.029	9,514.16	52.0015	9,514.16	54.1464	9,514.16	52.7569	9,514.16	52.0279	9,514.16	55.7759	9,514.16	50.3699	9,514.16	49.3788	9,514.16	55.8827	9,514.16	56.0964
9,849.61	84.2634	9,849.61	83.6074	9,849.61	83.8249	9,849.61	83.0741	9,849.61	83.3299	9,849.61	81.9733	9,849.61	82.4977	9,849.61	80.3581	9,849.61	80.4453	9,849.61	77.9039	9,849.61	78.2596	9,849.61	76.1861	9,849.61	76.7696	9,849.61	72.4135	9,849.61	73.041	9,849.61	69.7035	9,849.61	69.8567	9,849.61	64.9959	9,849.61	66.144	9,849.61	62.6453	9,849.61	63.304	9,849.61	58.9652	9,849.61	60.6841	9,849.61	60.2662	9,849.61	58.8035	9,849.61	53.0635	9,849.61	56.9294	9,849.61	49.1258	9,849.61	54.4609	9,849.61	54.259	9,849.61	52.6271	9,849.61	55.4677	9,849.61	51.6548	9,849.61	52.4222	9,849.61	53.9226	9,849.61	52.312
10,196.8	84.4487	10,196.8	83.8811	10,196.8	84.059	10,196.8	83.23	10,196.8	83.2365	10,196.8	82.1634	10,196.8	82.2768	10,196.8	79.8774	10,196.8	79.7451	10,196.8	77.4064	10,196.8	77.7466	10,196.8	75.9227	10,196.8	76.2932	10,196.8	71.7518	10,196.8	72.376	10,196.8	68.4889	10,196.8	69.2072	10,196.8	64.3064	10,196.8	65.2415	10,196.8	62.0029	10,196.8	62.5898	10,196.8	58.8538	10,196.8	59.9378	10,196.8	59.5131	10,196.8	57.745	10,196.8	54.8999	10,196.8	55.8186	10,196.8	50.2761	10,196.8	53.5619	10,196.8	54.6828	10,196.8	51.9693	10,196.8	55.3714	10,196.8	50.5014	10,196.8	55.1544	10,196.8	51.3851	10,196.8	48.1096
10,555.7	84.5186	10,555.7	83.9125	10,555.7	84.2915	10,555.7	83.2747	10,555.7	83.0411	10,555.7	82.0324	10,555.7	81.8617	10,555.7	79.2801	10,555.7	79.169	10,555.7	77.1892	10,555.7	77.4755	10,555.7	75.2719	10,555.7	75.2245	10,555.7	71.6981	10,555.7	71.9025	10,555.7	69.1408	10,555.7	68.8217	10,555.7	64.4309	10,555.7	65.5841	10,555.7	61.7022	10,555.7	61.6356	10,555.7	58.572	10,555.7	59.6721	10,555.7	58.1346	10,555.7	57.7061	10,555.7	54.4619	10,555.7	55.5593	10,555.7	51.537	10,555.7	51.6926	10,555.7	54.32	10,555.7	49.5861	10,555.7	54.3434	10,555.7	51.962	10,555.7	54.2218	10,555.7	49.1021	10,555.7	49.4893
10,927.7	84.4548	10,927.7	83.8801	10,927.7	84.1526	10,927.7	83.1904	10,927.7	82.8752	10,927.7	81.9173	10,927.7	81.5017	10,927.7	79.139	10,927.7	78.5923	10,927.7	77.1857	10,927.7	76.649	10,927.7	75.0278	10,927.7	74.3463	10,927.7	71.702	10,927.7	71.7742	10,927.7	69.7208	10,927.7	68.5278	10,927.7	64.743	10,927.7	65.9968	10,927.7	61.5557	10,927.7	60.7	10,927.7	59.2397	10,927.7	58.8456	10,927.7	58.3862	10,927.7	57.4445	10,927.7	55.0153	10,927.7	54.6273	10,927.7	52.6659	10,927.7	51.2547	10,927.7	53.0865	10,927.7	49.7663	10,927.7	53.6043	10,927.7	51.4915	10,927.7	51.2758	10,927.7	50.4767	10,927.7	49.2167
11,313	84.6037	11,313	83.9175	11,313	84.1158	11,313	82.9632	11,313	82.9431	11,313	81.4633	11,313	81.3494	11,313	78.7278	11,313	78.1881	11,313	76.4176	11,313	75.855	11,313	74.7656	11,313	74.1947	11,313	71.5639	11,313	71.6129	11,313	69.0497	11,313	67.7782	11,313	65.0732	11,313	64.9565	11,313	61.6167	11,313	60.5402	11,313	57.7263	11,313	58.0059	11,313	58.0732	11,313	55.5882	11,313	53.3146	11,313	51.8777	11,313	51.777	11,313	51.4221	11,313	51.6394	11,313	49.4346	11,313	54.5669	11,313	49.0492	11,313	48.0521	11,313	49.1308	11,313	50.1889
11,712.9	84.6807	11,712.9	84.0732	11,712.9	84.1379	11,712.9	83.0889	11,712.9	83.0717	11,712.9	81.1571	11,712.9	81.2615	11,712.9	78.4431	11,712.9	78.1918	11,712.9	75.6662	11,712.9	75.8439	11,712.9	74.835	11,712.9	74.5166	11,712.9	71.4879	11,712.9	71.7263	11,712.9	68.2064	11,712.9	67.0502	11,712.9	64.5074	11,712.9	63.8001	11,712.9	60.3682	11,712.9	59.2951	11,712.9	57.1016	11,712.9	57.4865	11,712.9	56.2982	11,712.9	54.9999	11,712.9	53.7356	11,712.9	51.7206	11,712.9	49.7422	11,712.9	50.4003	11,712.9	50.498	11,712.9	45.7942	11,712.9	54.1764	11,712.9	48.9787	11,712.9	42.5831	11,712.9	46.6351	11,712.9	49.5064
12,126	84.815	12,126	84.0756	12,126	84.4514	12,126	83.3203	12,126	83.1302	12,126	81.0239	12,126	81.0651	12,126	78.394	12,126	78.0278	12,126	75.4972	12,126	75.9185	12,126	74.9993	12,126	74.6202	12,126	70.8902	12,126	71.6335	12,126	68.2587	12,126	67.201	12,126	64.3442	12,126	64.6697	12,126	59.3483	12,126	59.8606	12,126	58.0932	12,126	58.1517	12,126	54.3144	12,126	55.6305	12,126	52.4257	12,126	51.8596	12,126	49.9148	12,126	50.2354	12,126	51.9058	12,126	42.4389	12,126	53.9331	12,126	47.6378	12,126	39.3788	12,126	44.0921	12,126	50.52
12,553.7	84.9137	12,553.7	84.23	12,553.7	84.6228	12,553.7	83.4447	12,553.7	83.1836	12,553.7	80.8441	12,553.7	80.9997	12,553.7	78.3866	12,553.7	77.9965	12,553.7	75.9027	12,553.7	76.2647	12,553.7	74.9569	12,553.7	74.4963	12,553.7	70.9085	12,553.7	71.5376	12,553.7	68.7891	12,553.7	68.0877	12,553.7	64.8286	12,553.7	65.2017	12,553.7	59.4953	12,553.7	61.0509	12,553.7	59.1774	12,553.7	58.7963	12,553.7	54.1808	12,553.7	56.0406	12,553.7	49.6289	12,553.7	51.7503	12,553.7	50.9182	12,553.7	50.1182	12,553.7	52.3748	12,553.7	39.5262	12,553.7	53.8161	12,553.7	46.239	12,553.7	41.5596	12,553.7	37.9748	12,553.7	47.3796
12,996.1	84.8604	12,996.1	84.3421	12,996.1	84.6597	12,996.1	83.2393	12,996.1	83.1464	12,996.1	80.5045	12,996.1	80.7866	12,996.1	78.2742	12,996.1	78.2637	12,996.1	76.1935	12,996.1	76.5372	12,996.1	74.7017	12,996.1	74.4392	12,996.1	71.4061	12,996.1	71.9966	12,996.1	68.3993	12,996.1	68.557	12,996.1	64.3331	12,996.1	64.386	12,996.1	59.482	12,996.1	60.4427	12,996.1	58.8792	12,996.1	57.8879	12,996.1	53.7313	12,996.1	54.3495	12,996.1	49.6119	12,996.1	52.9052	12,996.1	50.7699	12,996.1	46.8816	12,996.1	53.2222	12,996.1	32.0608	12,996.1	53.282	12,996.1	44.3654	12,996.1	43.3523	12,996.1	19.7421	12,996.1	48.2736
13,454.6	84.9198	13,454.6	84.3341	13,454.6	84.6651	13,454.6	82.9459	13,454.6	82.9677	13,454.6	80.2906	13,454.6	80.5665	13,454.6	78.3936	13,454.6	78.5273	13,454.6	75.9214	13,454.6	76.4954	13,454.6	74.4375	13,454.6	74.3754	13,454.6	71.409	13,454.6	71.6175	13,454.6	68.3232	13,454.6	68.132	13,454.6	63.8051	13,454.6	63.7396	13,454.6	59.3211	13,454.6	60.4986	13,454.6	58.6795	13,454.6	57.1718	13,454.6	52.7137	13,454.6	53.9452	13,454.6	50.1402	13,454.6	52.4408	13,454.6	48.3931	13,454.6	47.3425	13,454.6	52.6708	13,454.6	22.565	13,454.6	53.8057	13,454.6	45.0402	13,454.6	42.8292	13,454.6	28.6747	13,454.6	49.1344
13,929.2	84.9674	13,929.2	84.2652	13,929.2	84.5259	13,929.2	82.7735	13,929.2	82.6919	13,929.2	80.2393	13,929.2	80.3964	13,929.2	78.5964	13,929.2	78.5388	13,929.2	75.5153	13,929.2	76.0403	13,929.2	74.0734	13,929.2	74.2186	13,929.2	70.9072	13,929.2	70.9818	13,929.2	68.1879	13,929.2	68.2057	13,929.2	63.4802	13,929.2	63.9137	13,929.2	59.1648	13,929.2	60.8914	13,929.2	58.2183	13,929.2	56.6622	13,929.2	53.5243	13,929.2	54.1808	13,929.2	49.8035	13,929.2	53.1778	13,929.2	48.7225	13,929.2	45.2759	13,929.2	50.2601	13,929.2	34.4531	13,929.2	53.0386	13,929.2	44.2128	13,929.2	40.7194	13,929.2	30.8526	13,929.2	47.4681
14,419.9	84.8928	14,419.9	84.0565	14,419.9	84.428	14,419.9	82.6996	14,419.9	82.4937	14,419.9	80.4036	14,419.9	80.3973	14,419.9	78.4342	14,419.9	78.4243	14,419.9	75.3365	14,419.9	75.6231	14,419.9	73.8896	14,419.9	73.9244	14,419.9	71.6398	14,419.9	71.5833	14,419.9	68.5242	14,419.9	68.5892	14,419.9	63.1939	14,419.9	63.4534	14,419.9	58.4708	14,419.9	60.7354	14,419.9	57.9533	14,419.9	56.6537	14,419.9	51.7721	14,419.9	53.5926	14,419.9	49.8217	14,419.9	53.4137	14,419.9	46.0826	14,419.9	45.6715	14,419.9	49.5412	14,419.9	39.5844	14,419.9	51.1919	14,419.9	45.5266	14,419.9	33.4311	14,419.9	26.9503	14,419.9	46.579
14,928.2	84.9459	14,928.2	83.8778	14,928.2	84.3003	14,928.2	82.4885	14,928.2	82.2816	14,928.2	80.2753	14,928.2	80.3373	14,928.2	78.0527	14,928.2	78.0064	14,928.2	74.9764	14,928.2	75.4575	14,928.2	73.6219	14,928.2	73.5375	14,928.2	72.0732	14,928.2	71.9062	14,928.2	68.4945	14,928.2	67.897	14,928.2	62.4447	14,928.2	62.5368	14,928.2	58.0475	14,928.2	60.1636	14,928.2	57.1764	14,928.2	56.2145	14,928.2	48.5764	14,928.2	53.4205	14,928.2	48.8341	14,928.2	51.46	14,928.2	42.7069	14,928.2	45.6596	14,928.2	49.4919	14,928.2	44.4991	14,928.2	45.5151	14,928.2	45.6531	14,928.2	43.0082	14,928.2	36.5152	14,928.2	46.3403
15,455.6	84.9015	15,455.6	83.7489	15,455.6	84.1112	15,455.6	82.3582	15,455.6	82.0613	15,455.6	80.1613	15,455.6	80.3006	15,455.6	77.7652	15,455.6	77.6405	15,455.6	74.8064	15,455.6	75.2255	15,455.6	73.5955	15,455.6	73.3878	15,455.6	71.3942	15,455.6	71.1534	15,455.6	67.6182	15,455.6	66.3077	15,455.6	61.5768	15,455.6	61.5614	15,455.6	56.6628	15,455.6	59.4338	15,455.6	55.7838	15,455.6	54.7457	15,455.6	46.8896	15,455.6	52.3861	15,455.6	47.7438	15,455.6	50.9472	15,455.6	40.6361	15,455.6	44.5274	15,455.6	45.9156	15,455.6	45.3915	15,455.6	38.2147	15,455.6	43.7543	15,455.6	45.9734	15,455.6	36.6714	15,455.6	45.9286
16,000.5	84.639	16,000.5	83.3751	16,000.5	83.7803	16,000.5	82.2142	16,000.5	81.946	16,000.5	79.858	16,000.5	80.203	16,000.5	77.3823	16,000.5	77.2299	16,000.5	74.5644	16,000.5	75.1918	16,000.5	73.2187	16,000.5	73.2304	16,000.5	70.2657	16,000.5	70.371	16,000.5	66.3361	16,000.5	65.0815	16,000.5	59.8959	16,000.5	60.6761	16,000.5	55.1319	16,000.5	57.9331	16,000.5	54.85	16,000.5	54.1454	16,000.5	43.1143	16,000.5	51.003	16,000.5	45.8067	16,000.5	50.1387	16,000.5	38.5754	16,000.5	41.5221	16,000.5	40.1429	16,000.5	42.6472	16,000.5	35.4922	16,000.5	40.7965	16,000.5	46.5607	16,000.5	42.3885	16,000.5	43.5614
16,564.5	84.29	16,564.5	82.9515	16,564.5	83.5069	16,564.5	81.9094	16,564.5	81.7866	16,564.5	79.2949	16,564.5	79.599	16,564.5	76.6127	16,564.5	76.686	16,564.5	74.3135	16,564.5	75.0097	16,564.5	72.2673	16,564.5	72.3068	16,564.5	68.8957	16,564.5	69.1799	16,564.5	64.3789	16,564.5	63.2821	16,564.5	58.618	16,564.5	60.0838	16,564.5	54.4689	16,564.5	57.1591	16,564.5	54.2496	16,564.5	52.9616	16,564.5	39.0766	16,564.5	49.9506	16,564.5	42.7641	16,564.5	48.008	16,564.5	35.4655	16,564.5	36.1914	16,564.5	39.915	16,564.5	42.6187	16,564.5	40.1646	16,564.5	39.9128	16,564.5	46.9555	16,564.5	45.7025	16,564.5	46.2067
17,148.9	83.7034	17,148.9	82.4619	17,148.9	83.1293	17,148.9	81.5602	17,148.9	81.4991	17,148.9	78.7497	17,148.9	78.929	17,148.9	76.0197	17,148.9	76.0681	17,148.9	73.7881	17,148.9	74.2188	17,148.9	70.217	17,148.9	70.579	17,148.9	67.1065	17,148.9	67.7029	17,148.9	62.1785	17,148.9	62.3467	17,148.9	56.0928	17,148.9	58.5196	17,148.9	54.5659	17,148.9	57.4136	17,148.9	52.5394	17,148.9	51.6224	17,148.9	36.6242	17,148.9	47.9556	17,148.9	42.4082	17,148.9	46.7456	17,148.9	19.122	17,148.9	35.6414	17,148.9	38.864	17,148.9	43.5499	17,148.9	43.5447	17,148.9	38.2179	17,148.9	45.5298	17,148.9	44.3444	17,148.9	44.9737
17,752.4	83.289	17,752.4	82.2884	17,752.4	82.8372	17,752.4	81.3086	17,752.4	81.2318	17,752.4	78.1087	17,752.4	78.3245	17,752.4	75.5836	17,752.4	75.776	17,752.4	72.8585	17,752.4	73.661	17,752.4	68.5906	17,752.4	69.0576	17,752.4	66.0299	17,752.4	66.7397	17,752.4	62.6955	17,752.4	63.0752	17,752.4	55.1865	17,752.4	57.737	17,752.4	54.8929	17,752.4	57.3988	17,752.4	50.2426	17,752.4	51.9219	17,752.4	39.8766	17,752.4	45.8748	17,752.4	45.4695	17,752.4	44.8441	17,752.4	33.8704	17,752.4	37.5481	17,752.4	40.89	17,752.4	41.9585	17,752.4	43.0412	17,752.4	34.0037	17,752.4	41.5029	17,752.4	44.707	17,752.4	41.9253
18,379.4	82.9679	18,379.4	82.181	18,379.4	82.6558	18,379.4	81.193	18,379.4	81.0126	18,379.4	77.8366	18,379.4	78.0033	18,379.4	75.6729	18,379.4	75.4534	18,379.4	71.984	18,379.4	72.852	18,379.4	67.1426	18,379.4	67.6225	18,379.4	65.3704	18,379.4	66.523	18,379.4	62.336	18,379.4	62.3556	18,379.4	53.4246	18,379.4	56.3977	18,379.4	53.8772	18,379.4	56.4526	18,379.4	47.6582	18,379.4	50.1369	18,379.4	41.7721	18,379.4	43.7585	18,379.4	44.6725	18,379.4	42.8957	18,379.4	37.7483	18,379.4	36.1426	18,379.4	41.3239	18,379.4	40.3935	18,379.4	42.4798	18,379.4	34.8769	18,379.4	35.584	18,379.4	43.1357	18,379.4	40.8737
19,026.9	82.5326	19,026.9	81.8065	19,026.9	82.26	19,026.9	80.8205	19,026.9	80.4978	19,026.9	77.5522	19,026.9	77.4915	19,026.9	75.0655	19,026.9	74.4831	19,026.9	70.7108	19,026.9	71.3973	19,026.9	64.6939	19,026.9	65.6003	19,026.9	63.9405	19,026.9	65.6676	19,026.9	60.9783	19,026.9	60.7263	19,026.9	50.3685	19,026.9	54.1991	19,026.9	51.8669	19,026.9	54.321	19,026.9	41.6726	19,026.9	48.0804	19,026.9	45.1174	19,026.9	41.2549	19,026.9	45.2299	19,026.9	40.6619	19,026.9	36.3105	19,026.9	38.0837	19,026.9	42.7294	19,026.9	38.7029	19,026.9	36.8439	19,026.9	37.0795	19,026.9	34.364	19,026.9	46.4742	19,026.9	34.1083
19,697.8	82.019	19,697.8	81.2082	19,697.8	81.7951	19,697.8	80.0417	19,697.8	79.887	19,697.8	76.8339	19,697.8	76.8392	19,697.8	73.8886	19,697.8	73.3808	19,697.8	68.9104	19,697.8	69.8918	19,697.8	63.5188	19,697.8	64.9071	19,697.8	62.277	19,697.8	64.3842	19,697.8	60.6561	19,697.8	59.533	19,697.8	52.6602	19,697.8	54.7796	19,697.8	50.2575	19,697.8	52.5533	19,697.8	40.6423	19,697.8	46.37	19,697.8	45.9333	19,697.8	41.8212	19,697.8	45.622	19,697.8	41.3254	19,697.8	34.1137	19,697.8	39.2707	19,697.8	42.3189	19,697.8	35.0249	19,697.8	34.6689	19,697.8	38.5126	19,697.8	31.4271	19,697.8	47.9987	19,697.8	45.4624
19,999.5	81.7114	19,999.5	80.9852	19,999.5	81.4957	19,999.5	79.7311	19,999.5	79.569	19,999.5	76.5351	19,999.5	76.5397	19,999.5	73.5307	19,999.5	73.0002	19,999.5	68.1992	19,999.5	69.0196	19,999.5	62.9648	19,999.5	64.0353	19,999.5	60.58	19,999.5	63.7769	19,999.5	60.1153	19,999.5	59.1796	19,999.5	50.2733	19,999.5	55.5949	19,999.5	44.682	19,999.5	50.3786	19,999.5	45.1724	19,999.5	47.29	19,999.5	44.9102	19,999.5	48.5601	19,999.5	46.5426	19,999.5	43.2691	19,999.5	38.7469	19,999.5	43.0693	19,999.5	48.309	19,999.5	40.5156	19,999.5	40.6726	19,999.5	43.8758	19,999.5	37.2839	19,999.5	49.2915	19,999.5	43.3006
