"SPL Horizontal"																																																																							
"On-Axis"		"10°"		"-10°"		"20°"		"-20°"		"30°"		"-30°"		"40°"		"-40°"		"50°"		"-50°"		"60°"		"-60°"		"70°"		"-70°"		"80°"		"-80°"		"90°"		"-90°"		"100°"		"-100°"		"110°"		"-110°"		"120°"		"-120°"		"130°"		"-130°"		"140°"		"-140°"		"150°"		"-150°"		"160°"		"-160°"		"170°"		"-170°"		"180°"	
"Frequency [Hz]"	"Sound Pessure Level [dB]  / [2.83V 1m] "	"Frequency [Hz]"	"Sound Pessure Level [dB]  / [2.83V 1m] "	"Frequency [Hz]"	"Sound Pessure Level [dB]  / [2.83V 1m] "	"Frequency [Hz]"	"Sound Pessure Level [dB]  / [2.83V 1m] "	"Frequency [Hz]"	"Sound Pessure Level [dB]  / [2.83V 1m] "	"Frequency [Hz]"	"Sound Pessure Level [dB]  / [2.83V 1m] "	"Frequency [Hz]"	"Sound Pessure Level [dB]  / [2.83V 1m] "	"Frequency [Hz]"	"Sound Pessure Level [dB]  / [2.83V 1m] "	"Frequency [Hz]"	"Sound Pessure Level [dB]  / [2.83V 1m] "	"Frequency [Hz]"	"Sound Pessure Level [dB]  / [2.83V 1m] "	"Frequency [Hz]"	"Sound Pessure Level [dB]  / [2.83V 1m] "	"Frequency [Hz]"	"Sound Pessure Level [dB]  / [2.83V 1m] "	"Frequency [Hz]"	"Sound Pessure Level [dB]  / [2.83V 1m] "	"Frequency [Hz]"	"Sound Pessure Level [dB]  / [2.83V 1m] "	"Frequency [Hz]"	"Sound Pessure Level [dB]  / [2.83V 1m] "	"Frequency [Hz]"	"Sound Pessure Level [dB]  / [2.83V 1m] "	"Frequency [Hz]"	"Sound Pessure Level [dB]  / [2.83V 1m] "	"Frequency [Hz]"	"Sound Pessure Level [dB]  / [2.83V 1m] "	"Frequency [Hz]"	"Sound Pessure Level [dB]  / [2.83V 1m] "	"Frequency [Hz]"	"Sound Pessure Level [dB]  / [2.83V 1m] "	"Frequency [Hz]"	"Sound Pessure Level [dB]  / [2.83V 1m] "	"Frequency [Hz]"	"Sound Pessure Level [dB]  / [2.83V 1m] "	"Frequency [Hz]"	"Sound Pessure Level [dB]  / [2.83V 1m] "	"Frequency [Hz]"	"Sound Pessure Level [dB]  / [2.83V 1m] "	"Frequency [Hz]"	"Sound Pessure Level [dB]  / [2.83V 1m] "	"Frequency [Hz]"	"Sound Pessure Level [dB]  / [2.83V 1m] "	"Frequency [Hz]"	"Sound Pessure Level [dB]  / [2.83V 1m] "	"Frequency [Hz]"	"Sound Pessure Level [dB]  / [2.83V 1m] "	"Frequency [Hz]"	"Sound Pessure Level [dB]  / [2.83V 1m] "	"Frequency [Hz]"	"Sound Pessure Level [dB]  / [2.83V 1m] "	"Frequency [Hz]"	"Sound Pessure Level [dB]  / [2.83V 1m] "	"Frequency [Hz]"	"Sound Pessure Level [dB]  / [2.83V 1m] "	"Frequency [Hz]"	"Sound Pessure Level [dB]  / [2.83V 1m] "	"Frequency [Hz]"	"Sound Pessure Level [dB]  / [2.83V 1m] "	"Frequency [Hz]"	"Sound Pessure Level [dB]  / [2.83V 1m] "	"Frequency [Hz]"	"Sound Pessure Level [dB]  / [2.83V 1m] "
20.5078	46.6265	20.5078	46.5997	20.5078	46.3913	20.5078	46.2953	20.5078	45.8869	20.5078	45.6715	20.5078	45.081	20.5078	44.6471	20.5078	43.9046	20.5078	43.0697	20.5078	42.2239	20.5078	40.6273	20.5078	39.7639	20.5078	36.5609	20.5078	35.8654	20.5078	29.1075	20.5078	28.7641	20.5078	32.5884	20.5078	29.6946	20.5078	39.2492	20.5078	36.9641	20.5078	43.1523	20.5078	41.1807	20.5078	45.7563	20.5078	44.0196	20.5078	47.5932	20.5078	46.09	20.5078	48.8966	20.5078	47.6486	20.5078	49.7874	20.5078	48.8214	20.5078	50.3345	20.5078	49.6751	20.5078	50.5793	20.5078	50.2448	20.5078	50.5457
21.9727	48.8499	21.9727	48.8242	21.9727	48.6476	21.9727	48.5576	21.9727	48.214	21.9727	48.0179	21.9727	47.5276	21.9727	47.1468	21.9727	46.5439	21.9727	45.8433	21.9727	45.182	21.9727	43.9286	21.9727	43.2968	21.9727	41.0734	21.9727	40.6211	21.9727	36.8467	21.9727	36.7319	21.9727	34.3674	21.9727	32.9296	21.9727	38.8963	21.9727	36.1347	21.9727	43.0371	21.9727	40.6294	21.9727	45.8861	21.9727	43.8401	21.9727	47.8843	21.9727	46.1615	21.9727	49.2905	21.9727	47.8867	21.9727	50.2449	21.9727	49.1718	21.9727	50.8274	21.9727	50.1008	21.9727	51.0854	21.9727	50.7184	21.9727	51.0455
23.4375	50.8861	23.4375	50.8637	23.4375	50.6985	23.4375	50.6193	23.4375	50.2986	23.4375	50.1244	23.4375	49.669	23.4375	49.3278	23.4375	48.7721	23.4375	48.1409	23.4375	47.5396	23.4375	46.4031	23.4375	45.8462	23.4375	43.7838	23.4375	43.4414	23.4375	39.4106	23.4375	39.7171	23.4375	29.1007	23.4375	32.3693	23.4375	32.9273	23.4375	24.3633	23.4375	41.0275	23.4375	37.4993	23.4375	45.0236	23.4375	42.4832	23.4375	47.5291	23.4375	45.5257	23.4375	49.2033	23.4375	47.6235	23.4375	50.3096	23.4375	49.1238	23.4375	50.9767	23.4375	50.182	23.4375	51.2733	23.4375	50.8741	23.4375	51.2349
24.9023	51.4173	24.9023	51.3919	24.9023	51.2098	24.9023	51.1208	24.9023	50.7646	24.9023	50.5708	24.9023	50.0575	24.9023	49.6799	24.9023	49.0379	24.9023	48.3363	24.9023	47.6105	24.9023	46.3256	24.9023	45.5903	24.9023	43.1661	24.9023	42.567	24.9023	37.3784	24.9023	37.3163	24.9023	27.2559	24.9023	21.785	24.9023	39.1264	24.9023	35.7606	24.9023	44.6001	24.9023	42.2845	24.9023	47.8345	24.9023	45.9464	24.9023	49.9972	24.9023	48.4223	24.9023	51.491	24.9023	50.2102	24.9023	52.4991	24.9023	51.5201	24.9023	53.1182	24.9023	52.455	24.9023	53.4027	24.9023	53.0676	24.9023	53.3819
26.3672	52.9514	26.3672	52.9257	26.3672	52.7436	26.3672	52.6539	26.3672	52.2977	26.3672	52.1029	26.3672	51.5892	26.3672	51.2107	26.3672	50.5675	26.3672	49.8657	26.3672	49.1371	26.3672	47.8534	26.3672	47.113	26.3672	44.6916	26.3672	44.0853	26.3672	38.891	26.3672	38.8368	26.3672	28.4509	26.3672	24.3428	26.3672	40.6065	26.3672	37.3917	26.3672	46.1002	26.3672	43.8428	26.3672	49.339	26.3672	47.4857	26.3672	51.5032	26.3672	49.9519	26.3672	52.9975	26.3672	51.7334	26.3672	54.0061	26.3672	53.0386	26.3672	54.6258	26.3672	53.9699	26.3672	54.9112	26.3672	54.5797	26.3672	54.8919
27.832	55.0795	27.832	55.0529	27.832	54.8905	27.832	54.7987	27.832	54.4829	27.832	54.2879	27.832	53.8374	27.832	53.4672	27.832	52.9137	27.832	52.2436	27.832	51.6377	27.832	50.4451	27.832	49.8719	27.832	47.7086	27.832	47.3349	27.832	43.0243	27.832	43.312	27.832	30.1193	27.832	34.7449	27.832	38.2789	27.832	32.5179	27.832	45.8461	27.832	42.8853	27.832	49.6837	27.832	47.4517	27.832	52.1203	27.832	50.3253	27.832	53.7611	27.832	52.331	27.832	54.8526	27.832	53.7728	27.832	55.5166	27.832	54.7906	27.832	55.8189	27.832	55.4536	27.832	55.7938
29.2969	56.5241	29.2969	56.4917	29.2969	56.3397	29.2969	56.2302	29.2969	55.9357	29.2969	55.71	29.2969	55.2932	29.2969	54.8771	29.2969	54.3719	29.2969	53.6365	29.2969	53.0979	29.2969	51.8125	29.2969	51.3345	29.2969	49.0311	29.2969	48.8009	29.2969	44.2362	29.2969	44.7863	29.2969	30.4281	29.2969	36.2707	29.2969	40.1463	29.2969	33.97	29.2969	47.4669	29.2969	44.3274	29.2969	51.2361	29.2969	48.8973	29.2969	53.6394	29.2969	51.7731	29.2969	55.2599	29.2969	53.7806	29.2969	56.3376	29.2969	55.2244	29.2969	56.9916	29.2969	56.2447	29.2969	57.2864	29.2969	56.9111	29.2969	57.2556
30.7617	57.9258	30.7617	57.8946	30.7617	57.7395	30.7617	57.6337	30.7617	57.3326	30.7617	57.1136	30.7617	56.6861	30.7617	56.2803	30.7617	55.7592	30.7617	55.0389	30.7617	54.4776	30.7617	53.2135	30.7617	52.7031	30.7617	50.4298	30.7617	50.1528	30.7617	45.6311	30.7617	46.1131	30.7617	31.8593	30.7617	37.6809	30.7617	41.5842	30.7617	36.4013	30.7617	48.8838	30.7617	45.9479	30.7617	52.6492	30.7617	50.4163	30.7617	55.0518	30.7617	53.2536	30.7617	56.6731	30.7617	55.2403	30.7617	57.7524	30.7617	56.6709	30.7617	58.4089	30.7617	57.6818	30.7617	58.7069	30.7617	58.3411	30.7617	58.6803
32.2266	59.2468	32.2266	59.2175	32.2266	59.0559	32.2266	58.956	32.2266	58.6413	32.2266	58.4323	32.2266	57.9832	32.2266	57.5918	32.2266	57.0393	32.2266	56.3379	32.2266	55.7321	32.2266	54.4905	32.2266	53.9165	32.2266	51.6636	32.2266	51.2915	32.2266	46.7494	32.2266	47.075	32.2266	31.8918	32.2266	37.7728	32.2266	43.3795	32.2266	38.7144	32.2266	50.447	32.2266	47.7254	32.2266	54.1496	32.2266	52.0454	32.2266	56.525	32.2266	54.8154	32.2266	58.1329	32.2266	56.7635	32.2266	59.2061	32.2266	58.1692	32.2266	59.8613	32.2266	59.1629	32.2266	60.1617	32.2266	59.8099	32.2266	60.1405
33.6914	60.7083	33.6914	60.674	33.6914	60.523	33.6914	60.4076	33.6914	60.1147	33.6914	59.8796	33.6914	59.4639	33.6914	59.0352	33.6914	58.5291	33.6914	57.7779	33.6914	57.234	33.6914	55.9282	33.6914	55.4364	33.6914	53.1011	33.6914	52.8422	33.6914	48.1924	33.6914	48.6927	33.6914	33.303	33.6914	39.6138	33.6914	44.7339	33.6914	39.4368	33.6914	51.8331	33.6914	48.9421	33.6914	55.5412	33.6914	53.3509	33.6914	57.9176	33.6914	56.1564	33.6914	59.5251	33.6914	58.1231	33.6914	60.5973	33.6914	59.5397	33.6914	61.251	33.6914	60.5403	33.6914	61.5495	33.6914	61.192	33.6914	61.5259
35.1563	62.1745	35.1563	62.14	35.1563	61.9902	35.1563	61.8745	35.1563	61.584	35.1563	61.3488	35.1563	60.9367	35.1563	60.5087	35.1563	60.0076	35.1563	59.2594	35.1563	58.7219	35.1563	57.425	35.1563	56.9406	35.1563	54.6304	35.1563	54.3779	35.1563	49.8138	35.1563	50.3047	35.1563	35.8584	35.1563	41.5828	35.1563	45.7892	35.1563	40.2087	35.1563	53.0778	35.1563	50.1303	35.1563	56.8358	35.1563	54.6205	35.1563	59.2337	35.1563	57.4586	35.1563	60.8521	35.1563	59.4418	35.1563	61.9303	35.1563	60.8676	35.1563	62.5872	35.1563	61.8736	35.1563	62.8871	35.1563	62.5283	35.1563	62.8635
36.6211	63.5844	36.6211	63.5478	36.6211	63.4019	36.6211	63.2802	36.6211	62.9976	36.6211	62.7521	36.6211	62.3523	36.6211	61.9096	36.6211	61.4256	36.6211	60.658	36.6211	60.1432	36.6211	58.8214	36.6211	58.3673	36.6211	56.0252	36.6211	55.8149	36.6211	51.2095	36.6211	51.7675	36.6211	37.2964	36.6211	43.1814	36.6211	47.1602	36.6211	41.4457	36.6211	54.4524	36.6211	51.4587	36.6211	58.21	36.6211	55.9712	36.6211	60.6069	36.6211	58.8184	36.6211	62.2243	36.6211	60.806	36.6211	63.3015	36.6211	62.2342	36.6211	63.9577	36.6211	63.2416	36.6211	64.257	36.6211	63.8971	36.6211	64.2329
38.0859	64.8709	38.0859	64.8331	38.0859	64.6883	38.0859	64.5626	38.0859	64.2821	38.0859	64.0298	38.0859	63.6331	38.0859	63.1802	38.0859	62.7	38.0859	61.9176	38.0859	61.4075	38.0859	60.0632	38.0859	59.6149	38.0859	57.2335	38.0859	57.0322	38.0859	52.3303	38.0859	52.9171	38.0859	37.5641	38.0859	44.0677	38.0859	48.7845	38.0859	43.4495	38.0859	55.9028	38.0859	52.9926	38.0859	59.6128	38.0859	57.4186	38.0859	61.9882	38.0859	60.2296	38.0859	63.5942	38.0859	62.1973	38.0859	64.6653	38.0859	63.613	38.0859	65.3186	38.0859	64.6121	38.0859	65.6173	38.0859	65.2621	38.0859	65.5946
39.5508	66.1538	39.5508	66.1162	39.5508	65.9696	39.5508	65.8447	39.5508	65.5605	39.5508	65.3094	39.5508	64.907	39.5508	64.4556	39.5508	63.9674	39.5508	63.1865	39.5508	62.6654	39.5508	61.3217	39.5508	60.8583	39.5508	58.4731	39.5508	58.2513	39.5508	53.5221	39.5508	54.0847	39.5508	38.2686	39.5508	45.0617	39.5508	50.2305	39.5508	45.2533	39.5508	57.2606	39.5508	54.4434	39.5508	60.9452	39.5508	58.8023	39.5508	63.3087	39.5508	61.5845	39.5508	64.9084	39.5508	63.536	39.5508	65.9762	39.5508	64.9412	39.5508	66.6283	39.5508	65.933	39.5508	66.9276	39.5508	66.5779	39.5508	66.9069
41.0156	67.5745	41.0156	67.5358	41.0156	67.395	41.0156	67.2671	41.0156	66.9946	41.0156	66.7394	41.0156	66.355	41.0156	65.9001	41.0156	65.4371	41.0156	64.657	41.0156	64.1698	41.0156	62.8399	41.0156	62.4221	41.0156	60.0905	41.0156	59.9311	41.0156	55.4194	41.0156	56.063	41.0156	43.1536	41.0156	48.6845	41.0156	50.5767	41.0156	46.4289	41.0156	58.0885	41.0156	55.2874	41.0156	61.9103	41.0156	59.7598	41.0156	64.3353	41.0156	62.6047	41.0156	65.9677	41.0156	64.5916	41.0156	67.0544	41.0156	66.0176	41.0156	67.7174	41.0156	67.0214	41.0156	68.0224	41.0156	67.6725	41.0156	68.0034
42.4805	68.588	42.4805	68.5648	42.4805	68.3865	42.4805	68.3061	42.4805	67.9557	42.4805	67.7833	42.4805	67.2736	42.4805	66.9431	42.4805	66.2954	42.4805	65.6916	42.4805	64.938	42.4805	63.8537	42.4805	63.0444	42.4805	61.0569	42.4805	60.2813	42.4805	56.2594	42.4805	55.7397	42.4805	43.7022	42.4805	44.4681	42.4805	52.5577	42.4805	49.4607	42.4805	59.6183	42.4805	57.6502	42.4805	63.3412	42.4805	61.7331	42.4805	65.7331	42.4805	64.3829	42.4805	67.3571	42.4805	66.2532	42.4805	68.4483	42.4805	67.6012	42.4805	69.1241	42.4805	68.5489	42.4805	69.4486	42.4805	69.1576	42.4805	69.4555
43.9453	69.5768	43.9453	69.5462	43.9453	69.3851	43.9453	69.2822	43.9453	68.9673	43.9453	68.7561	43.9453	68.3029	43.9453	67.9153	43.9453	67.3494	43.9453	66.6667	43.9453	66.0288	43.9453	64.8382	43.9453	64.1954	43.9453	62.0653	43.9453	61.5467	43.9453	57.3391	43.9453	57.3	43.9453	45.2186	43.9453	48.0956	43.9453	53.1593	43.9453	49.4522	43.9453	60.3724	43.9453	58.0758	43.9453	64.1344	43.9453	62.3185	43.9453	66.5405	43.9453	65.0457	43.9453	68.169	43.9453	66.9616	43.9453	69.2593	43.9453	68.3399	43.9453	69.9308	43.9453	69.3093	43.9453	70.2481	43.9453	69.9345	43.9453	70.2451
45.4102	70.4004	45.4102	70.3563	45.4102	70.2182	45.4102	70.0735	45.4102	69.8061	45.4102	69.5219	45.4102	69.1439	45.4102	68.6455	45.4102	68.1886	45.4102	67.3451	45.4102	66.8612	45.4102	65.4343	45.4102	65.0131	45.4102	62.51	45.4102	62.3346	45.4102	57.4078	45.4102	58.0143	45.4102	44.0175	45.4102	48.4792	45.4102	55.4424	45.4102	50.7928	45.4102	61.8929	45.4102	59.1581	45.4102	65.4288	45.4102	63.338	45.4102	67.7257	45.4102	66.0406	45.4102	69.2891	45.4102	67.9466	45.4102	70.336	45.4102	69.3229	45.4102	70.9766	45.4102	70.2956	45.4102	71.2711	45.4102	70.9285	45.4102	71.2513
46.875	71.3873	46.875	71.3428	46.875	71.2082	46.875	71.0627	46.875	70.8022	46.875	70.5174	46.875	70.1496	46.875	69.6524	46.875	69.2088	46.875	68.3717	46.875	67.9033	46.875	66.4962	46.875	66.09	46.875	63.6448	46.875	63.4722	46.875	58.7565	46.875	59.2809	46.875	47.1697	46.875	50.0597	46.875	56.0016	46.875	50.312	46.875	62.6001	46.875	59.6426	46.875	66.2007	46.875	64.0057	46.875	68.5315	46.875	66.7849	46.875	70.1149	46.875	68.7327	46.875	71.1739	46.875	70.1348	46.875	71.8212	46.875	71.1243	46.875	72.118	46.875	71.7678	46.875	72.0965
48.3398	72.6009	48.3398	72.5641	48.3398	72.4121	48.3398	72.2902	48.3398	71.994	48.3398	71.7497	48.3398	71.3257	48.3398	70.8881	48.3398	70.3639	48.3398	69.6088	48.3398	69.0287	48.3398	67.731	48.3398	67.1693	48.3398	64.8661	48.3398	64.4691	48.3398	59.897	48.3398	60.0818	48.3398	45.5641	48.3398	49.7233	48.3398	56.8657	48.3398	52.5228	48.3398	63.7436	48.3398	61.2711	48.3398	67.394	48.3398	65.481	48.3398	69.7441	48.3398	68.1869	48.3398	71.339	48.3398	70.0897	48.3398	72.4073	48.3398	71.4601	48.3398	73.064	48.3398	72.4255	48.3398	73.3716	48.3398	73.0499	48.3398	73.3629
51.2695	73.9725	51.2695	73.9328	51.2695	73.7843	51.2695	73.6535	51.2695	73.3641	51.2695	73.1046	51.2695	72.6907	51.2695	72.231	51.2695	71.72	51.2695	70.9343	51.2695	70.3701	51.2695	69.0295	51.2695	68.4863	51.2695	66.1153	51.2695	65.7408	51.2695	61.0187	51.2695	61.2442	51.2695	45.5366	51.2695	50.2305	51.2695	58.6112	51.2695	54.5315	51.2695	65.2951	51.2695	62.9079	51.2695	68.8859	51.2695	67.029	51.2695	71.2079	51.2695	69.6937	51.2695	72.7876	51.2695	71.572	51.2695	73.8479	51.2695	72.926	51.2695	74.5012	51.2695	73.8797	51.2695	74.8089	51.2695	74.4957	51.2695	74.8031
52.7344	74.1962	52.7344	74.1548	52.7344	74.0088	52.7344	73.873	52.7344	73.5887	52.7344	73.321	52.7344	72.9145	52.7344	72.4435	52.7344	71.942	52.7344	71.1418	52.7344	70.5891	52.7344	69.2308	52.7344	68.7004	52.7344	66.3079	52.7344	65.9464	52.7344	61.1989	52.7344	61.4307	52.7344	46.1837	52.7344	50.306	52.7344	58.9226	52.7344	54.8477	52.7344	65.5408	52.7344	63.1653	52.7344	69.115	52.7344	67.2709	52.7344	71.4298	52.7344	69.9278	52.7344	73.006	52.7344	71.801	52.7344	74.0646	52.7344	73.1512	52.7344	74.7176	52.7344	74.1019	52.7344	75.0258	52.7344	74.7156	52.7344	75.0212
54.1992	74.4041	54.1992	74.3657	54.1992	74.2131	54.1992	74.0863	54.1992	73.7885	54.1992	73.5366	54.1992	73.1086	54.1992	72.6615	54.1992	72.1287	54.1992	71.3631	54.1992	70.7657	54.1992	69.4574	54.1992	68.8624	54.1992	66.5457	54.1992	66.0834	54.1992	61.4703	54.1992	61.5103	54.1992	46.8842	54.1992	50.0334	54.1992	59.048	54.1992	55.3296	54.1992	65.7008	54.1992	63.4727	54.1992	69.2872	54.1992	67.5342	54.1992	71.6086	54.1992	70.1696	54.1992	73.1894	54.1992	72.0293	54.1992	74.252	54.1992	73.3699	54.1992	74.9088	54.1992	74.3132	54.1992	75.2211	54.1992	74.9207	54.1992	75.2211
55.6641	74.5163	55.6641	74.4785	55.6641	74.3248	55.6641	74.2	55.6641	73.8998	55.6641	73.6515	55.6641	73.2197	55.6641	72.7785	55.6641	72.2399	55.6641	71.4838	55.6641	70.8776	55.6641	69.585	55.6641	68.9762	55.6641	66.6879	55.6641	66.2024	55.6641	61.6541	55.6641	61.6455	55.6641	47.2939	55.6641	50.3254	55.6641	58.9893	55.6641	55.3679	55.6641	65.718	55.6641	63.5366	55.6641	69.3263	55.6641	67.605	55.6641	71.6578	55.6641	70.2425	55.6641	73.2445	55.6641	72.1025	55.6641	74.3111	55.6641	73.4424	55.6641	74.9711	55.6641	74.3843	55.6641	75.286	55.6641	74.99	55.6641	75.2884
58.5938	74.3483	58.5938	74.3047	58.5938	74.162	58.5938	74.0195	58.5938	73.7414	58.5938	73.463	58.5938	73.0653	58.5938	72.5802	58.5938	72.0891	58.5938	71.2729	58.5938	70.7306	58.5938	69.3559	58.5938	68.8335	58.5938	66.4264	58.5938	66.0661	58.5938	61.3035	58.5938	61.5228	58.5938	45.4915	58.5938	50.2471	58.5938	58.9447	58.5938	55.1026	58.5938	65.6099	58.5938	63.341	58.5938	69.1917	58.5938	67.4231	58.5938	71.5093	58.5938	70.0659	58.5938	73.0876	58.5938	71.9285	58.5938	74.1488	58.5938	73.2697	58.5938	74.8052	58.5938	74.2125	58.5938	75.1178	58.5938	74.8191	58.5938	75.1186
60.0586	74.3241	60.0586	74.2814	60.0586	74.1371	60.0586	73.9977	60.0586	73.7165	60.0586	73.4435	60.0586	73.041	60.0586	72.5639	60.0586	72.0663	60.0586	71.2613	60.0586	70.7105	60.0586	69.3526	60.0586	68.8184	60.0586	66.4407	60.0586	66.0613	60.0586	61.3786	60.0586	61.5463	60.0586	47.2515	60.0586	50.5379	60.0586	58.923	60.0586	55.0079	60.0586	65.5619	60.0586	63.27	60.0586	69.1459	60.0586	67.364	60.0586	71.466	60.0586	70.0133	60.0586	73.046	60.0586	71.88	60.0586	74.1083	60.0586	73.2241	60.0586	74.7651	60.0586	74.1691	60.0586	75.0776	60.0586	74.7773	60.0586	75.0778
62.9883	74.6806	62.9883	74.6384	62.9883	74.494	62.9883	74.3565	62.9883	74.0744	62.9883	73.8061	62.9883	73.4002	62.9883	72.9335	62.9883	72.4272	62.9883	71.6434	62.9883	71.0737	62.9883	69.757	62.9883	69.1851	62.9883	66.8892	62.9883	66.4342	62.9883	61.9349	62.9883	61.9335	62.9883	47.5506	62.9883	50.9398	62.9883	58.6638	62.9883	55.1683	62.9883	65.6244	62.9883	63.5462	62.9883	69.2951	62.9883	67.6582	62.9883	71.657	62.9883	70.3113	62.9883	73.2628	62.9883	72.1769	62.9883	74.3436	62.9883	73.5173	62.9883	75.0149	62.9883	74.4566	62.9883	75.3393	62.9883	75.0577	62.9883	75.3496
64.4531	74.8483	64.4531	74.8067	64.4531	74.6594	64.4531	74.5234	64.4531	74.2354	64.4531	73.9694	64.4531	73.5546	64.4531	73.09	64.4531	72.5715	64.4531	71.7883	64.4531	71.2024	64.4531	69.8811	64.4531	69.2883	64.4531	66.9716	64.4531	66.4896	64.4531	61.9056	64.4531	61.8698	64.4531	46.9176	64.4531	50.1224	64.4531	59.3246	64.4531	56.0254	64.4531	66.0508	64.4531	64.0182	64.4531	69.6581	64.4531	68.0406	64.4531	71.9921	64.4531	70.6557	64.4531	73.5833	64.4531	72.5016	64.4531	74.6557	64.4531	73.831	64.4531	75.3221	64.4531	74.7642	64.4531	75.6439	64.4531	75.3623	64.4531	75.6533
67.3828	75.7242	67.3828	75.6756	67.3828	75.5489	67.3828	75.3919	67.3828	75.1462	67.3828	74.8452	67.3828	74.4964	67.3828	73.9833	67.3828	73.5586	67.3828	72.7146	67.3828	72.2577	67.3828	70.8686	67.3828	70.4538	67.3828	68.0829	67.3828	67.8578	67.3828	63.3443	67.3828	63.7255	67.3828	50.305	67.3828	54.7338	67.3828	58.6078	67.3828	53.6676	67.3828	66.1211	67.3828	63.6018	67.3828	69.9347	67.3828	68.0496	67.3828	72.3599	67.3828	70.8511	67.3828	73.9993	67.3828	72.8008	67.3828	75.098	67.3828	74.1949	67.3828	75.7771	67.3828	75.1705	67.3828	76.1012	67.3828	75.7961	67.3828	76.1036
68.8477	75.9009	68.8477	75.8489	68.8477	75.7277	68.8477	75.5603	68.8477	75.3259	68.8477	75.0067	68.8477	74.6757	68.8477	74.1349	68.8477	73.7357	68.8477	72.8511	68.8477	72.4299	68.8477	70.9799	68.8477	70.6161	68.8477	68.1456	68.8477	67.9997	68.8477	63.278	68.8477	63.8164	68.8477	49.0863	68.8477	54.5889	68.8477	59.3453	68.8477	54.4216	68.8477	66.5739	68.8477	64.0036	68.8477	70.3129	68.8477	68.3914	68.8477	72.7052	68.8477	71.1704	68.8477	74.3269	68.8477	73.1098	68.8477	75.4152	68.8477	74.499	68.8477	76.0876	68.8477	75.4728	68.8477	76.4074	68.8477	76.0984	68.8477	76.4072
71.7773	76.511	71.7773	76.4576	71.7773	76.3397	71.7773	76.1682	71.7773	75.9401	71.7773	75.6141	71.7773	75.2924	71.7773	74.7426	71.7773	74.3551	71.7773	73.4596	71.7773	73.0519	71.7773	71.5898	71.7773	71.2404	71.7773	68.7569	71.7773	68.6247	71.7773	63.8901	71.7773	64.4362	71.7773	49.7861	71.7773	55.1439	71.7773	60.0231	71.7773	55.0828	71.7773	67.2299	71.7773	64.673	71.7773	70.9696	71.7773	69.0615	71.7773	73.366	71.7773	71.8427	71.7773	74.9925	71.7773	73.7845	71.7773	76.0853	71.7773	75.176	71.7773	76.7616	71.7773	76.1512	71.7773	77.0843	71.7773	76.7774	71.7773	77.0857
74.707	77.1007	74.707	77.0479	74.707	76.9302	74.707	76.7606	74.707	76.5324	74.707	76.2107	74.707	75.8876	74.707	75.3463	74.707	74.9547	74.707	74.0752	74.707	73.6578	74.707	72.2257	74.707	71.856	74.707	69.4319	74.707	69.2572	74.707	64.6649	74.707	65.1068	74.707	51.3508	74.707	56.0055	74.707	60.1895	74.707	55.417	74.707	67.6265	74.707	65.1688	74.707	71.4311	74.707	69.5925	74.707	73.8602	74.707	72.3889	74.707	75.5076	74.707	74.3386	74.707	76.6153	74.707	75.734	74.707	77.3026	74.707	76.7104	74.707	77.6333	74.707	77.3355	74.707	77.6404
77.6367	77.4363	77.6367	77.3783	77.6367	77.2705	77.6367	77.0853	77.6367	76.8772	77.6367	76.529	77.6367	76.2366	77.6367	75.6566	77.6367	75.3075	77.6367	74.3749	77.6367	74.0141	77.6367	72.5093	77.6367	72.215	77.6367	69.6858	77.6367	69.6175	77.6367	64.8413	77.6367	65.4653	77.6367	50.8082	77.6367	56.3649	77.6367	60.8388	77.6367	55.9482	77.6367	68.1136	77.6367	65.5951	77.6367	71.8767	77.6367	70.0076	77.6367	74.289	77.6367	72.8018	77.6367	75.9286	77.6367	74.7515	77.6367	77.0327	77.6367	76.1476	77.6367	77.7184	77.6367	77.1247	77.6367	78.0486	77.6367	77.7502	77.6367	78.0555
79.1016	77.4482	79.1016	77.3886	79.1016	77.2837	79.1016	77.0937	79.1016	76.8913	79.1016	76.535	79.1016	76.2512	79.1016	75.6599	79.1016	75.3218	79.1016	74.3744	79.1016	74.0269	79.1016	72.5031	79.1016	72.2243	79.1016	69.6691	79.1016	69.6189	79.1016	64.7967	79.1016	65.4466	79.1016	50.4963	79.1016	56.2554	79.1016	60.9669	79.1016	56.1895	79.1016	68.1842	79.1016	65.6997	79.1016	71.9334	79.1016	70.0877	79.1016	74.3408	79.1016	72.872	79.1016	75.979	79.1016	74.8165	79.1016	77.0833	79.1016	76.2091	79.1016	77.7701	79.1016	77.1837	79.1016	78.1018	79.1016	77.8071	79.1016	78.1104
82.0313	77.4972	82.0313	77.436	82.0313	77.3335	82.0313	77.1385	82.0313	76.9406	82.0313	76.5765	82.0313	76.2985	82.0313	75.697	82.0313	75.3651	82.0313	74.4057	82.0313	74.0628	82.0313	72.5257	82.0313	72.247	82.0313	69.676	82.0313	69.6159	82.0313	64.763	82.0313	65.3807	82.0313	50.0859	82.0313	55.8704	82.0313	61.1813	82.0313	56.7267	82.0313	68.3155	82.0313	65.9509	82.0313	72.045	82.0313	70.2776	82.0313	74.4459	82.0313	73.0351	82.0313	76.0829	82.0313	74.9641	82.0313	77.1886	82.0313	76.3463	82.0313	77.8785	82.0313	77.313	82.0313	78.2142	82.0313	77.9299	82.0313	78.2277
84.9609	77.4743	84.9609	77.4111	84.9609	77.3125	84.9609	77.112	84.9609	76.9216	84.9609	76.549	84.9609	76.2814	84.9609	75.6695	84.9609	75.3498	84.9609	74.3805	84.9609	74.0497	84.9609	72.5072	84.9609	72.2367	84.9609	69.6744	84.9609	69.6105	84.9609	64.8133	84.9609	65.3865	84.9609	50.7285	84.9609	55.9091	84.9609	60.9286	84.9609	56.5359	84.9609	68.1603	84.9609	65.8705	84.9609	71.9183	84.9609	70.213	84.9609	74.3338	84.9609	72.9744	84.9609	75.9805	84.9609	74.9034	84.9609	77.0939	84.9609	76.2834	84.9609	77.7906	84.9609	77.2466	84.9609	78.1325	84.9609	77.8591	84.9609	78.1517
87.8906	77.429	87.8906	77.3647	87.8906	77.2683	87.8906	77.0647	87.8906	76.8785	87.8906	76.5012	87.8906	76.2393	87.8906	75.6224	87.8906	75.309	87.8906	74.336	87.8906	74.0106	87.8906	72.4692	87.8906	72.2006	87.8906	69.652	87.8906	69.5807	87.8906	64.8361	87.8906	65.3737	87.8906	51.1281	87.8906	56.0005	87.8906	60.6471	87.8906	56.3719	87.8906	67.9892	87.8906	65.7659	87.8906	71.7768	87.8906	70.1209	87.8906	74.2067	87.8906	72.8863	87.8906	75.8626	87.8906	74.8159	87.8906	76.9828	87.8906	76.195	87.8906	77.685	87.8906	77.1562	87.8906	78.0317	87.8906	77.7658	87.8906	78.055
90.8203	77.3441	90.8203	77.2761	90.8203	77.1864	90.8203	76.9716	90.8203	76.7988	90.8203	76.4031	90.8203	76.1608	90.8203	75.5183	90.8203	75.2303	90.8203	74.2247	90.8203	73.9299	90.8203	72.3483	90.8203	72.1148	90.8203	69.5153	90.8203	69.4837	90.8203	64.6617	90.8203	65.2482	90.8203	50.6151	90.8203	55.7349	90.8203	60.6915	90.8203	56.5507	90.8203	67.9584	90.8203	65.793	90.8203	71.7275	90.8203	70.1169	90.8203	74.1509	90.8203	72.8682	90.8203	75.8051	90.8203	74.7893	90.8203	76.9262	90.8203	76.162	90.8203	77.6308	90.8203	77.1179	90.8203	77.9807	90.8203	77.7229	90.8203	78.0078
95.2148	77.1345	95.2148	77.0576	95.2148	76.9849	95.2148	76.7436	95.2148	76.6044	95.2148	76.1648	95.2148	75.9724	95.2148	75.2691	95.2148	75.0467	95.2148	73.9635	95.2148	73.7498	95.2148	72.0727	95.2148	71.9366	95.2148	69.2192	95.2148	69.305	95.2148	64.3206	95.2148	65.0642	95.2148	49.8587	95.2148	55.5253	95.2148	60.5863	95.2148	56.4551	95.2148	67.774	95.2148	65.6488	95.2148	71.5241	95.2148	69.9624	95.2148	73.9421	95.2148	72.7078	95.2148	75.5965	95.2148	74.6237	95.2148	76.721	95.2148	75.9913	95.2148	77.4306	95.2148	76.9418	95.2148	77.7864	95.2148	77.5409	95.2148	77.8197
98.1445	76.9941	98.1445	76.9135	98.1445	76.8476	98.1445	76.5955	98.1445	76.4695	98.1445	76.0128	98.1445	75.8387	98.1445	75.1134	98.1445	74.9128	98.1445	73.8046	98.1445	73.6132	98.1445	71.9116	98.1445	71.7936	98.1445	69.0572	98.1445	69.148	98.1445	64.1612	98.1445	64.8709	98.1445	49.7702	98.1445	55.1344	98.1445	60.4206	98.1445	56.5797	98.1445	67.6113	98.1445	65.6282	98.1445	71.3661	98.1445	69.9073	98.1445	73.7896	98.1445	72.6357	98.1445	75.4503	98.1445	74.5402	98.1445	76.5816	98.1445	75.8985	98.1445	77.2984	98.1445	76.8406	98.1445	77.6618	98.1445	77.4318	98.1445	77.7028
101.074	76.9301	101.074	76.8424	101.074	76.7902	101.074	76.5168	101.074	76.4179	101.074	75.9259	101.074	75.7925	101.074	75.0179	101.074	74.8714	101.074	73.6996	101.074	73.5764	101.074	71.7953	101.074	71.7614	101.074	68.9252	101.074	69.1218	101.074	63.9963	101.074	64.8564	101.074	49.3578	101.074	55.1734	101.074	60.4283	101.074	56.4539	101.074	67.5555	101.074	65.5552	101.074	71.294	101.074	69.8435	101.074	73.7114	101.074	72.5743	101.074	75.3704	101.074	74.4786	101.074	76.5022	101.074	75.8354	101.074	77.221	101.074	76.7751	101.074	77.5871	101.074	77.3633	101.074	77.6311
105.469	77.0013	105.469	76.9104	105.469	76.864	105.469	76.5813	105.469	76.4933	105.469	75.9872	105.469	75.8682	105.469	75.0766	105.469	74.9451	105.469	73.7573	105.469	73.645	105.469	71.8548	105.469	71.8196	105.469	68.992	105.469	69.1586	105.469	64.0866	105.469	64.8412	105.469	49.5958	105.469	54.9268	105.469	60.3592	105.469	56.9927	105.469	67.5525	105.469	65.8113	105.469	71.313	105.469	70.0402	105.469	73.7452	105.469	72.7427	105.469	75.417	105.469	74.6283	105.469	76.5612	105.469	75.9702	105.469	77.2924	105.469	76.8966	105.469	77.6709	105.469	77.4721	105.469	77.7274
108.398	76.9677	108.398	76.8724	108.398	76.8338	108.398	76.5379	108.398	76.4655	108.398	75.9375	108.398	75.8413	108.398	75.02	108.398	74.9178	108.398	73.6928	108.398	73.6155	108.398	71.7812	108.398	71.7853	108.398	68.9063	108.398	69.1141	108.398	63.98	108.398	64.7697	108.398	49.577	108.398	54.6403	108.398	60.4169	108.398	57.0069	108.398	67.535	108.398	65.8216	108.398	71.2789	108.398	70.0388	108.398	73.7055	108.398	72.7337	108.398	75.3759	108.398	74.6135	108.398	76.521	108.398	75.9504	108.398	77.2542	108.398	76.8724	108.398	77.6356	108.398	77.4439	108.398	77.6955
112.793	77.0882	112.793	76.9877	112.793	76.9605	112.793	76.6496	112.793	76.599	112.793	76.0479	112.793	75.9823	112.793	75.1323	112.793	75.0672	112.793	73.8127	112.793	73.7747	112.793	71.9185	112.793	71.9577	112.793	69.0824	112.793	69.3089	112.793	64.2626	112.793	65.019	112.793	50.6511	112.793	55.256	112.793	60.0059	112.793	56.9179	112.793	67.3843	112.793	65.8388	112.793	71.2007	112.793	70.0854	112.793	73.6641	112.793	72.7904	112.793	75.3588	112.793	74.6728	112.793	76.5221	112.793	76.0082	112.793	77.2701	112.793	76.9259	112.793	77.6639	112.793	77.491	112.793	77.7341
117.188	77.2186	117.188	77.1202	117.188	77.088	117.188	76.7837	117.188	76.7229	117.188	76.183	117.188	76.1016	117.188	75.2678	117.188	75.1801	117.188	73.9477	117.188	73.879	117.188	72.0512	117.188	72.0491	117.188	69.2089	117.188	69.3781	117.188	64.3703	117.188	65.0386	117.188	50.5573	117.188	55.0457	117.188	60.2245	117.188	57.3841	117.188	67.5659	117.188	66.0907	117.188	71.3715	117.188	70.2905	117.188	73.8295	117.188	72.9754	117.188	75.521	117.188	74.8467	117.188	76.6823	117.188	76.1754	117.188	77.4292	117.188	77.089	117.188	77.8225	117.188	77.6514	117.188	77.8932
120.117	77.4321	120.117	77.343	120.117	77.2919	120.117	77.0154	120.117	76.9168	120.117	76.4232	120.117	76.2849	120.117	75.5164	120.117	75.3521	120.117	74.2045	120.117	74.0382	120.117	72.3174	120.117	72.1924	120.117	69.4886	120.117	69.4978	120.117	64.6812	120.117	65.108	120.117	51.1487	120.117	54.796	120.117	60.3446	120.117	57.7037	120.117	67.7484	120.117	66.3271	120.117	71.5673	120.117	70.499	120.117	74.0284	120.117	73.1706	120.117	75.719	120.117	75.0351	120.117	76.8778	120.117	76.3605	120.117	77.6216	120.117	77.2729	120.117	78.0118	120.117	77.8361	120.117	78.0798
124.512	77.9004	124.512	77.8235	124.512	77.748	124.512	77.5079	124.512	77.361	124.512	76.9272	124.512	76.7181	124.512	76.0313	124.512	75.7757	124.512	74.7299	124.512	74.4544	124.512	72.8538	124.512	72.605	124.512	70.0392	124.512	69.9143	124.512	65.2612	124.512	65.5496	124.512	51.9606	124.512	55.4602	124.512	60.7359	124.512	57.9578	124.512	68.2007	124.512	66.6355	124.512	72.0284	124.512	70.8274	124.512	74.4865	124.512	73.5116	124.512	76.169	124.512	75.387	124.512	77.3169	124.512	76.7235	124.512	78.0482	124.512	77.6476	124.512	78.4252	124.512	78.2232	124.512	78.4798
128.906	78.3639	128.906	78.2981	128.906	78.1985	128.906	77.9911	128.906	77.7967	128.906	77.4163	128.906	77.1371	128.906	76.523	128.906	76.1761	128.906	75.2201	128.906	74.8331	128.906	73.3363	128.906	72.956	128.906	70.5027	128.906	70.223	128.906	65.6722	128.906	65.7668	128.906	51.9217	128.906	55.1587	128.906	61.4602	128.906	58.8154	128.906	68.8048	128.906	67.2296	128.906	72.5963	128.906	71.3584	128.906	75.0343	128.906	74.0173	128.906	76.7027	128.906	75.8814	128.906	77.8393	128.906	77.2137	128.906	78.561	128.906	78.138	128.906	78.93	128.906	78.7165	128.906	78.9781
133.301	78.5796	133.301	78.5147	133.301	78.4119	133.301	78.2075	133.301	78.0067	133.301	77.6313	133.301	77.3424	133.301	76.7352	133.301	76.3753	133.301	75.4282	133.301	75.0242	133.301	73.5381	133.301	73.1358	133.301	70.694	133.301	70.3844	133.301	65.8387	133.301	65.887	133.301	51.8915	133.301	55.0249	133.301	61.7717	133.301	59.2025	133.301	69.063	133.301	67.5105	133.301	72.8407	133.301	71.6123	133.301	75.2732	133.301	74.2596	133.301	76.9388	133.301	76.1181	133.301	78.074	133.301	77.4477	133.301	78.795	133.301	78.3709	133.301	79.1634	133.301	78.9491	133.301	79.211
139.16	78.6637	139.16	78.6016	139.16	78.492	139.16	78.2958	139.16	78.0815	139.16	77.7198	139.16	77.4108	139.16	76.8228	139.16	76.436	139.16	75.5139	139.16	75.0759	139.16	73.6215	139.16	73.1764	139.16	70.7755	139.16	70.4094	139.16	65.9218	139.16	65.8801	139.16	52.0093	139.16	54.767	139.16	61.8002	139.16	59.2895	139.16	69.1046	139.16	67.5777	139.16	72.8832	139.16	71.6671	139.16	75.3149	139.16	74.3077	139.16	76.9798	139.16	76.1623	139.16	78.1146	139.16	77.4898	139.16	78.8354	139.16	78.4118	139.16	79.2037	139.16	78.9896	139.16	79.2513
143.555	78.7655	143.555	78.711	143.555	78.5864	143.555	78.4128	143.555	78.1686	143.555	77.8447	143.555	77.4912	143.555	76.9567	143.555	76.5107	143.555	75.6594	143.555	75.1469	143.555	73.7846	143.555	73.2471	143.555	70.9721	143.555	70.487	143.555	66.2079	143.555	65.9856	143.555	53.1012	143.555	55.0677	143.555	61.5086	143.555	59.1139	143.555	69.0134	143.555	67.5182	143.555	72.842	143.555	71.6332	143.555	75.294	143.555	74.2848	143.555	76.9685	143.555	76.1458	143.555	78.1078	143.555	77.4775	143.555	78.8304	143.555	78.4027	143.555	79.1991	143.555	78.9827	143.555	79.246
147.949	78.6988	147.949	78.6505	147.949	78.5133	147.949	78.3583	147.949	78.0894	147.949	77.7954	147.949	77.4065	147.949	76.9115	147.949	76.4216	147.949	75.6164	147.949	75.0551	147.949	73.7408	147.949	73.1555	147.949	70.9213	147.949	70.4011	147.949	66.134	147.949	65.9201	147.949	52.9372	147.949	55.1339	147.949	61.6425	147.949	58.8619	147.949	69.0538	147.949	67.352	147.949	72.8559	147.949	71.4905	147.949	75.2915	147.949	74.1568	147.949	76.9521	147.949	76.0302	147.949	78.0785	147.949	77.3738	147.949	78.7884	147.949	78.3109	147.949	79.1444	147.949	78.9032	147.949	79.1788
153.809	78.8399	153.809	78.8043	153.809	78.6411	153.809	78.523	153.809	78.2043	153.809	77.968	153.809	77.5095	153.809	77.0868	153.809	76.5147	153.809	75.7862	153.809	75.1411	153.809	73.8902	153.809	73.2384	153.809	71.018	153.809	70.4868	153.809	66.0749	153.809	66.0205	153.809	51.5498	153.809	55.3216	153.809	62.5781	153.809	58.8579	153.809	69.6328	153.809	67.4123	153.809	73.3313	153.809	71.5786	153.809	75.7113	153.809	74.2694	153.809	77.3318	153.809	76.1681	153.809	78.4239	153.809	77.5384	153.809	79.1018	153.809	78.5037	153.809	79.4269	153.809	79.1251	153.809	79.4307
159.668	79.416	159.668	79.3981	159.668	79.199	159.668	79.1332	159.668	78.7443	159.668	78.5924	159.668	78.0332	159.668	77.7225	159.668	77.0252	159.668	76.429	159.668	75.6432	159.668	74.5337	159.668	73.74	159.668	71.65	159.668	71.0023	159.668	66.6565	159.668	66.5874	159.668	51.3259	159.668	56.2188	159.668	63.4235	159.668	58.9751	159.668	70.4025	159.668	67.7415	159.668	74.0712	159.668	71.9692	159.668	76.4296	159.668	74.7002	159.668	78.0293	159.668	76.6337	159.668	79.099	159.668	78.0373	159.668	79.7524	159.668	79.0352	159.668	80.0504	159.668	79.6886	159.668	80.0251
165.527	80.0664	165.527	80.0574	165.527	79.839	165.527	79.8004	165.527	79.3723	165.527	79.2668	165.527	78.6474	165.527	78.4041	165.527	77.6232	165.527	77.1187	165.527	76.2224	165.527	75.2337	165.527	74.296	165.527	72.366	165.527	71.5257	165.527	67.4069	165.527	67.0479	165.527	52.3268	165.527	56.3756	165.527	64.0138	165.527	59.9233	165.527	71.061	165.527	68.4637	165.527	74.7534	165.527	72.6484	165.527	77.1258	165.527	75.3681	165.527	78.7347	165.527	77.3026	165.527	79.8098	165.527	78.7134	165.527	80.4647	165.527	79.7211	165.527	80.7605	165.527	80.3846	165.527	80.7295
171.387	80.2497	171.387	80.2435	171.387	80.0193	171.387	79.9892	171.387	79.5491	171.387	79.4583	171.387	78.8201	171.387	78.5988	171.387	77.7911	171.387	77.3175	171.387	76.3838	171.387	75.4391	171.387	74.4481	171.387	72.584	171.387	71.662	171.387	67.6599	171.387	67.1478	171.387	53.0514	171.387	56.2728	171.387	64.0958	171.387	60.3115	171.387	71.1939	171.387	68.7222	171.387	74.9025	171.387	72.8763	171.387	77.283	171.387	75.5815	171.387	78.8973	171.387	77.5068	171.387	79.9767	171.387	78.9105	171.387	80.6357	171.387	79.9121	171.387	80.9359	171.387	80.5699	171.387	80.9096
177.246	80.2842	177.246	80.2762	177.246	80.0545	177.246	80.0188	177.246	79.584	177.246	79.4836	177.246	78.8536	177.246	78.6182	177.246	77.822	177.246	77.3293	177.246	76.4106	177.246	75.4402	177.246	74.4684	177.246	72.5677	177.246	71.6699	177.246	67.6021	177.246	67.1245	177.246	52.5397	177.246	56.0143	177.246	64.2454	177.246	60.4732	177.246	71.2778	177.246	68.8187	177.246	74.9689	177.246	72.9536	177.246	77.3429	177.246	75.6495	177.246	78.9547	177.246	77.5693	177.246	80.0333	177.246	78.9696	177.246	80.692	177.246	79.9692	177.246	80.992	177.246	80.6261	177.246	80.9656
183.105	80.2146	183.105	80.205	183.105	79.9866	183.105	79.9463	183.105	79.5184	183.105	79.4099	183.105	78.7914	183.105	78.5435	183.105	77.7647	183.105	77.2537	183.105	76.361	183.105	75.3643	183.105	74.4313	183.105	72.4928	183.105	71.6558	183.105	67.5327	183.105	67.1651	183.105	52.5709	183.105	56.3826	183.105	64.1443	183.105	60.1111	183.105	71.1849	183.105	68.6349	183.105	74.8789	183.105	72.8141	183.105	77.2548	183.105	75.5311	183.105	78.868	183.105	77.4635	183.105	79.9476	183.105	78.8721	183.105	80.6069	183.105	79.8772	183.105	80.9067	183.105	80.5377	183.105	80.8794
188.965	80.212	188.965	80.1951	188.965	79.991	188.965	79.9287	188.965	79.5294	188.965	79.3843	188.965	78.8089	188.965	78.5098	188.965	77.7892	188.965	77.2121	188.965	76.394	188.965	75.3156	188.965	74.4762	188.965	72.438	188.965	71.7219	188.965	67.474	188.965	67.2816	188.965	52.5429	188.965	56.7964	188.965	64.0825	188.965	59.8166	188.965	71.1227	188.965	68.5224	188.965	74.8196	188.965	72.7432	188.965	77.1998	188.965	75.4786	188.965	78.8182	188.965	77.4211	188.965	79.9032	188.965	78.8355	188.965	80.5673	188.965	79.8438	188.965	80.8709	188.965	80.5052	188.965	80.846
196.289	80.2441	196.289	80.2149	196.289	80.033	196.289	79.9341	196.289	79.5785	196.289	79.3737	196.289	78.8617	196.289	78.4819	196.289	77.8418	196.289	77.1658	196.289	76.4412	196.289	75.2485	196.289	74.5103	196.289	72.3433	196.289	71.7277	196.289	67.3204	196.289	67.2153	196.289	51.7129	196.289	56.3039	196.289	64.2166	196.289	60.3415	196.289	71.1762	196.289	68.7825	196.289	74.8587	196.289	72.9409	196.289	77.2409	196.289	75.6467	196.289	78.8682	196.289	77.5706	196.289	79.965	196.289	78.9709	196.289	80.6421	196.289	79.967	196.289	80.9586	196.289	80.6169	196.289	80.946
203.613	80.2095	203.613	80.1658	203.613	80.0117	203.613	79.869	203.613	79.5698	203.613	79.2915	203.613	78.8657	203.613	78.3814	203.613	77.8595	203.613	77.0464	203.613	76.4753	203.613	75.1102	203.613	74.5669	203.613	72.1874	203.613	71.8214	203.613	67.154	203.613	67.3932	203.613	52.0625	203.613	56.9614	203.613	64.0808	203.613	59.8531	203.613	70.9939	203.613	68.5893	203.613	74.668	203.613	72.8119	203.613	77.0516	203.613	75.542	203.613	78.6862	203.613	77.4745	203.613	79.7948	203.613	78.8748	203.613	80.4862	203.613	79.865	203.613	80.8182	203.613	80.5048	203.613	80.8207
210.938	80.1002	210.938	80.0546	210.938	79.9026	210.938	79.7538	210.938	79.459	210.938	79.1691	210.938	78.7511	210.938	78.247	210.938	77.7387	210.938	76.8908	210.938	76.3451	210.938	74.9142	210.938	74.4219	210.938	71.9036	210.938	71.6499	210.938	66.6078	210.938	67.1578	210.938	47.7825	210.938	56.3423	210.938	64.8845	210.938	60.1779	210.938	71.4061	210.938	68.6803	210.938	74.962	210.938	72.8605	210.938	77.2876	210.938	75.5817	210.938	78.8857	210.938	77.5184	210.938	79.9669	210.938	78.9298	210.938	80.6352	210.938	79.9353	210.938	80.9459	210.938	80.5929	210.938	80.9281
218.262	80.2886	218.262	80.2648	218.262	80.0687	218.262	79.9861	218.262	79.6024	218.262	79.4245	218.262	78.871	218.262	78.5278	218.262	77.8339	218.262	77.2017	218.262	76.4138	218.262	75.2658	218.262	74.4604	218.262	72.3224	218.262	71.6487	218.262	67.1906	218.262	67.0825	218.262	50.3103	218.262	55.8584	218.262	64.7197	218.262	60.5778	218.262	71.4893	218.262	68.8807	218.262	75.1254	218.262	73.0226	218.262	77.4915	218.262	75.7376	218.262	79.1124	218.262	77.6818	218.262	80.2052	218.262	79.1076	218.262	80.8764	218.262	80.1304	218.262	81.1829	218.262	80.8051	218.262	81.1549
225.586	80.6361	225.586	80.6058	225.586	80.4201	225.586	80.3179	225.586	79.9555	225.586	79.7445	225.586	79.2244	225.586	78.8341	225.586	78.1875	225.586	77.4936	225.586	76.7693	225.586	75.5441	225.586	74.8226	225.586	72.5903	225.586	72.0293	225.586	67.4562	225.586	67.5176	225.586	50.4991	225.586	56.6595	225.586	64.9094	225.586	60.5622	225.586	71.7093	225.586	69.0583	225.586	75.3607	225.586	73.2499	225.586	77.7423	225.586	75.9913	225.586	79.3792	225.586	77.9539	225.586	80.4869	225.586	79.3938	225.586	81.1704	225.586	80.4271	225.586	81.485	225.586	81.1084	225.586	81.4602
232.91	80.9388	232.91	80.8869	232.91	80.7422	232.91	80.5742	232.91	80.2949	232.91	79.9721	232.91	79.5793	232.91	79.0275	232.91	78.5561	232.91	77.6438	232.91	77.1494	232.91	75.6343	232.91	75.2112	232.91	72.5801	232.91	72.4213	232.91	67.1962	232.91	67.9006	232.91	46.3139	232.91	56.945	232.91	65.7757	232.91	61.0887	232.91	72.2212	232.91	69.5254	232.91	75.7629	232.91	73.6995	232.91	78.0935	232.91	76.4276	232.91	79.7055	232.91	78.376	232.91	80.8046	232.91	79.7997	232.91	81.4909	232.91	80.8146	232.91	81.8167	232.91	81.4761	232.91	81.8085
241.699	80.9507	241.699	80.8954	241.699	80.7535	241.699	80.5768	241.699	80.3013	241.699	79.9676	241.699	79.5761	241.699	79.017	241.699	78.5385	241.699	77.6319	241.699	77.1126	241.699	75.6322	241.699	75.1496	241.699	72.6149	241.699	72.3263	241.699	67.3672	241.699	67.749	241.699	49.7461	241.699	56.5482	241.699	65.2735	241.699	61.2117	241.699	71.9006	241.699	69.496	241.699	75.5028	241.699	73.6236	241.699	77.8657	241.699	76.3237	241.699	79.4988	241.699	78.2519	241.699	80.6122	241.699	79.6597	241.699	81.3085	241.699	80.6624	241.699	81.6416	241.699	81.3147	241.699	81.6398
250.488	81.2986	250.488	81.2278	250.488	81.1126	250.488	80.8891	250.488	80.6672	250.488	80.2557	250.488	79.945	250.488	79.2772	250.488	78.9073	250.488	77.861	250.488	77.4792	250.488	75.8271	250.488	75.5133	250.488	72.771	250.488	72.6873	250.488	67.465	250.488	68.1094	250.488	48.6626	250.488	56.9335	250.488	65.4336	250.488	61.5796	250.488	72.0336	250.488	69.8579	250.488	75.6273	250.488	73.9856	250.488	77.995	250.488	76.684	250.488	79.6439	250.488	78.6063	250.488	80.7821	250.488	80.0025	250.488	81.5095	250.488	80.9869	250.488	81.8767	250.488	81.6142	250.488	81.9088
259.277	82.2992	259.277	82.1907	259.277	82.1437	259.277	81.8077	259.277	81.7222	259.277	81.1241	259.277	81.0181	259.277	80.0905	259.277	79.9949	259.277	78.6145	259.277	78.5808	259.277	76.514	259.277	76.6344	259.277	73.3738	259.277	73.847	259.277	67.9245	259.277	69.373	259.277	52.4749	259.277	58.8707	259.277	66.852	259.277	62.0151	259.277	73.0958	259.277	70.6488	259.277	76.6127	259.277	74.8712	259.277	78.9637	259.277	77.6211	259.277	80.6181	259.277	79.5791	259.277	81.7706	259.277	81.0015	259.277	82.5141	259.277	82.0035	259.277	82.8947	259.277	82.6396	259.277	82.9344
268.066	83.3307	268.066	83.224	268.066	83.1747	268.066	82.8454	268.066	82.7529	268.066	82.1716	268.066	82.0489	268.066	81.1578	268.066	81.0261	268.066	79.7197	268.066	79.6133	268.066	77.6914	268.066	77.6693	268.066	74.7008	268.066	74.8854	268.066	69.6602	268.066	70.4169	268.066	55.8387	268.066	59.9006	268.066	66.4636	268.066	62.9387	268.066	73.3803	268.066	71.6343	268.066	77.1105	268.066	75.8568	268.066	79.5699	268.066	78.5953	268.066	81.2925	268.066	80.5351	268.066	82.4944	268.066	81.9334	268.066	83.2782	268.066	82.9065	268.066	83.6955	268.066	83.5102	268.066	83.7705
276.855	84.3998	276.855	84.2612	276.855	84.2668	276.855	83.8431	276.855	83.8587	276.855	83.1239	276.855	83.1587	276.855	82.0605	276.855	82.1305	276.855	80.5711	276.855	80.7026	276.855	78.4911	276.855	78.733	276.855	75.4469	276.855	75.9076	276.855	70.338	276.855	71.356	276.855	57.0699	276.855	60.4164	276.855	67.6556	276.855	64.3974	276.855	74.3782	276.855	72.8388	276.855	78.087	276.855	76.9937	276.855	80.5582	276.855	79.6974	276.855	82.3007	276.855	81.6152	276.855	83.5209	276.855	82.9994	276.855	84.3175	276.855	83.9638	276.855	84.742	276.855	84.5629	276.855	84.8205
287.109	85.2787	287.109	85.1259	287.109	85.1577	287.109	84.6956	287.109	84.7556	287.109	83.9723	287.109	84.0531	287.109	82.9218	287.109	83.0114	287.109	81.4763	287.109	81.5569	287.109	79.4989	287.109	79.5443	287.109	76.6852	287.109	76.6508	287.109	72.203	287.109	71.9688	287.109	62.3905	287.109	60.3873	287.109	66.0228	287.109	65.6932	287.109	73.9308	287.109	73.7804	287.109	78.0547	287.109	77.8301	287.109	80.7604	287.109	80.4752	287.109	82.6637	287.109	82.3546	287.109	84.0007	287.109	83.7125	287.109	84.8808	287.109	84.6581	287.109	85.3615	287.109	85.2401	287.109	85.4755
297.363	85.4232	297.363	85.2742	297.363	85.2995	297.363	84.8458	297.363	84.8985	297.363	84.1183	297.363	84.2026	297.363	83.051	297.363	83.1743	297.363	81.5655	297.363	81.7414	297.363	79.5041	297.363	79.7609	297.363	76.5108	297.363	76.9185	297.363	71.5472	297.363	72.3451	297.363	57.9085	297.363	61.3957	297.363	67.4184	297.363	65.2903	297.363	74.6882	297.363	73.7061	297.363	78.5234	297.363	77.8268	297.363	81.0515	297.363	80.498	297.363	82.835	297.363	82.3879	297.363	84.0946	297.363	83.7488	297.363	84.9307	297.363	84.6927	297.363	85.3922	297.363	85.2704	297.363	85.5025
307.617	85.716	307.617	85.5915	307.617	85.5596	307.617	85.1824	307.617	85.1153	307.617	84.4722	307.617	84.3635	307.617	83.425	307.617	83.2652	307.617	81.97	307.617	81.7458	307.617	79.9645	307.617	79.6563	307.617	77.0902	307.617	76.6629	307.617	72.456	307.617	71.8071	307.617	61.3164	307.617	59.287	307.617	66.1424	307.617	66.2854	307.617	74.2126	307.617	74.0004	307.617	78.2638	307.617	77.9317	307.617	80.8892	307.617	80.5104	307.617	82.7215	307.617	82.3461	307.617	84.0022	307.617	83.6739	307.617	84.8426	307.617	84.5994	307.617	85.2995	307.617	85.1702	307.617	85.4038
319.336	85.6445	319.336	85.5232	319.336	85.4836	319.336	85.1137	319.336	85.0348	319.336	84.3967	319.336	84.279	319.336	83.332	319.336	83.1767	319.336	81.8413	319.336	81.652	319.336	79.7662	319.336	79.554	319.336	76.7473	319.336	76.5453	319.336	71.7286	319.336	71.6586	319.336	57.5844	319.336	59.0323	319.336	67.7364	319.336	66.3467	319.336	74.9296	319.336	73.9675	319.336	78.7188	319.336	77.8867	319.336	81.2074	319.336	80.4732	319.336	82.9538	319.336	82.3275	319.336	84.1776	319.336	83.6801	319.336	84.9794	319.336	84.6326	319.336	85.4082	319.336	85.2299	319.336	85.4882
329.59	86.0807	329.59	85.9609	329.59	85.9181	329.59	85.5534	329.59	85.4679	329.59	84.8399	329.59	84.7127	329.59	83.7825	329.59	83.6163	329.59	82.3062	329.59	82.1075	329.59	80.2604	329.59	80.0439	329.59	77.3082	329.59	77.1089	329.59	72.4925	329.59	72.419	329.59	60.4952	329.59	61.2717	329.59	67.3296	329.59	65.7936	329.59	74.8332	329.59	73.8798	329.59	78.6932	329.59	77.9054	329.59	81.1925	329.59	80.523	329.59	82.9267	329.59	82.3774	329.59	84.1325	329.59	83.7135	329.59	84.9217	329.59	84.6405	329.59	85.3503	329.59	85.2096	329.59	85.4438
341.309	86.5128	341.309	86.3892	341.309	86.3476	341.309	85.9726	341.309	85.8875	341.309	85.2468	341.309	85.1148	341.309	84.1767	341.309	83.9931	341.309	82.6927	341.309	82.4517	341.309	80.6528	341.309	80.3478	341.309	77.7373	341.309	77.3604	341.309	73.0406	341.309	72.5786	341.309	61.6011	341.309	60.9258	341.309	66.9811	341.309	66.4361	341.309	74.9514	341.309	74.3406	341.309	78.983	341.309	78.3346	341.309	81.6048	341.309	80.9563	341.309	83.4354	341.309	82.8321	341.309	84.7096	341.309	84.2002	341.309	85.5355	341.309	85.1657	341.309	85.9695	341.309	85.7749	341.309	86.0437
353.027	86.7568	353.027	86.6392	353.027	86.5921	353.027	86.2355	353.027	86.1395	353.027	85.5298	353.027	85.3812	353.027	84.4882	353.027	84.2812	353.027	83.0432	353.027	82.7698	353.027	81.0589	353.027	80.7075	353.027	78.2347	353.027	77.785	353.027	73.742	353.027	73.1423	353.027	63.428	353.027	62.364	353.027	66.1914	353.027	66.2542	353.027	74.8085	353.027	74.4517	353.027	79.0043	353.027	78.5336	353.027	81.708	353.027	81.1986	353.027	83.5932	353.027	83.0996	353.027	84.9095	353.027	84.4828	353.027	85.7696	353.027	85.4556	353.027	86.2306	353.027	86.0641	353.027	86.3234
366.211	86.2377	366.211	86.1654	366.211	86.026	366.211	85.8024	366.211	85.5278	366.211	85.1298	366.211	84.7295	366.211	84.1103	366.211	83.6001	366.211	82.672	366.211	82.0763	366.211	80.6718	366.211	80.0271	366.211	77.7925	366.211	77.1578	366.211	73.1499	366.211	72.6556	366.211	61.9442	366.211	62.4337	366.211	66.3938	366.211	64.4554	366.211	74.5987	366.211	73.361	366.211	78.6384	366.211	77.6089	366.211	81.2427	366.211	80.3573	366.211	83.0576	366.211	82.3108	366.211	84.323	366.211	83.7304	366.211	85.1445	366.211	84.7301	366.211	85.575	366.211	85.3611	366.211	85.6426
379.395	85.7011	379.395	85.621	379.395	85.4989	379.395	85.2547	379.395	85.0078	379.395	84.5852	379.395	84.2094	379.395	83.5743	379.395	83.0673	379.395	82.146	379.395	81.5114	379.395	80.1478	379.395	79.4006	379.395	77.2425	379.395	76.4172	379.395	72.4805	379.395	71.6605	379.395	60.2995	379.395	60.2185	379.395	66.7937	379.395	65.5272	379.395	74.574	379.395	73.4691	379.395	78.4962	379.395	77.5143	379.395	81.0387	379.395	80.1878	379.395	82.819	379.395	82.1126	379.395	84.072	379.395	83.5237	379.395	84.8987	379.395	84.5223	379.395	85.3431	379.395	85.1511	379.395	85.4246
392.578	85.1745	392.578	85.0667	392.578	85.0055	392.578	84.6759	392.578	84.5546	392.578	83.9828	392.578	83.8036	392.578	82.9479	392.578	82.7149	392.578	81.4958	392.578	81.2168	392.578	79.4773	392.578	79.1661	392.578	76.5608	392.578	76.2462	392.578	71.8075	392.578	71.5694	392.578	59.7538	392.578	60.2435	392.578	65.9275	392.578	64.8534	392.578	73.7695	392.578	73.0688	392.578	77.6874	392.578	77.1291	392.578	80.2059	392.578	79.7643	392.578	81.9545	392.578	81.6236	392.578	83.1807	392.578	82.9525	392.578	83.9992	392.578	83.8603	392.578	84.4644	392.578	84.3998	392.578	84.5973
405.762	84.4936	405.762	84.4233	405.762	84.2851	405.762	84.0693	405.762	83.7924	405.762	83.4129	405.762	82.9978	405.762	82.4129	405.762	81.8652	405.762	80.9876	405.762	80.3231	405.762	78.9729	405.762	78.2254	405.762	76.0019	405.762	75.2424	405.762	71.0133	405.762	70.4267	405.762	57.1677	405.762	58.1322	405.762	67.1611	405.762	64.8167	405.762	74.2725	405.762	72.6447	405.762	78.0293	405.762	76.6537	405.762	80.4921	405.762	79.3077	405.762	82.2133	405.762	81.2191	405.762	83.4075	405.762	82.623	405.762	84.1716	405.762	83.6249	405.762	84.5542	405.762	84.2725	405.762	84.5828
420.41	85.0823	420.41	85.0372	420.41	84.847	420.41	84.7038	420.41	84.3272	420.41	84.0605	420.41	83.5058	420.41	83.0645	420.41	82.3465	420.41	81.6363	420.41	80.7784	420.41	79.6215	420.41	78.6599	420.41	76.6796	420.41	75.6737	420.41	71.8339	420.41	70.9247	420.41	59.026	420.41	59.6349	420.41	66.6924	420.41	64.7518	420.41	74.3083	420.41	72.6848	420.41	78.2095	420.41	76.7336	420.41	80.7448	420.41	79.4153	420.41	82.503	420.41	81.3553	420.41	83.7098	420.41	82.7913	420.41	84.4698	420.41	83.8267	420.41	84.8377	420.41	84.5064	420.41	84.8445
435.059	84.735	435.059	84.6739	435.059	84.5054	435.059	84.3179	435.059	83.9795	435.059	83.6501	435.059	83.1415	435.059	82.6323	435.059	81.9591	435.059	81.1883	435.059	80.3693	435.059	79.1624	435.059	78.2423	435.059	76.2026	435.059	75.2853	435.059	71.2898	435.059	70.6837	435.059	58.0773	435.059	60.4208	435.059	66.7983	435.059	62.9912	435.059	74.1044	435.059	71.5303	435.059	77.8843	435.059	75.7445	435.059	80.3319	435.059	78.5271	435.059	82.0272	435.059	80.5529	435.059	83.1965	435.059	82.0677	435.059	83.9382	435.059	83.1727	435.059	84.294	435.059	83.9069	435.059	84.2812
451.172	84.5825	451.172	84.4804	451.172	84.3955	451.172	84.0842	451.172	83.9146	451.172	83.3755	451.172	83.1246	451.172	82.3146	451.172	81.995	451.172	80.8228	451.172	80.4665	451.172	78.742	451.172	78.4187	451.172	75.7172	451.172	75.5809	451.172	70.715	451.172	71.2072	451.172	57.1488	451.172	61.77	451.172	66.5893	451.172	61.7662	451.172	73.8307	451.172	71.3432	451.172	77.6857	451.172	75.8175	451.172	80.2507	451.172	78.7364	451.172	82.0679	451.172	80.8418	451.172	83.3395	451.172	82.3972	451.172	84.1553	451.172	83.5126	451.172	84.5618	451.172	84.2357	451.172	84.5848
465.82	83.9178	465.82	83.6498	465.82	83.8947	465.82	83.0975	465.82	83.566	465.82	82.2554	465.82	82.9103	465.82	81.0942	465.82	81.892	465.82	79.5415	465.82	80.4454	465.82	77.4394	465.82	78.4375	465.82	74.4242	465.82	75.5655	465.82	69.4266	465.82	70.9739	465.82	55.1493	465.82	60.1498	465.82	65.6958	465.82	64.1094	465.82	72.9461	465.82	72.465	465.82	76.8298	465.82	76.6385	465.82	79.4309	465.82	79.3775	465.82	81.307	465.82	81.328	465.82	82.675	465.82	82.7275	465.82	83.6266	465.82	83.6787	465.82	84.1976	465.82	84.2285	465.82	84.3984
483.398	84.911	483.398	84.6616	483.398	84.8649	483.398	84.119	483.398	84.5122	483.398	83.2727	483.398	83.832	483.398	82.0908	483.398	82.7871	483.398	80.5015	483.398	81.3086	483.398	78.3523	483.398	79.2594	483.398	75.2929	483.398	76.3323	483.398	70.2947	483.398	71.6593	483.398	56.5386	483.398	60.5846	483.398	65.9289	483.398	64.8636	483.398	73.3053	483.398	73.0754	483.398	77.1931	483.398	77.164	483.398	79.7815	483.398	79.8365	483.398	81.6429	483.398	81.7347	483.398	82.9979	483.398	83.0946	483.398	83.94	483.398	84.0171	483.398	84.5062	483.398	84.5482	483.398	84.7087
499.512	85.0198	499.512	84.8242	499.512	84.9442	499.512	84.3693	499.512	84.5763	499.512	83.6486	499.512	83.8879	499.512	82.6242	499.512	82.8382	499.512	81.2083	499.512	81.3568	499.512	79.2235	499.512	79.3033	499.512	76.2851	499.512	76.3606	499.512	71.2937	499.512	71.628	499.512	56.8535	499.512	60.1455	499.512	67.868	499.512	65.2493	499.512	74.9063	499.512	73.2186	499.512	78.6317	499.512	77.1918	499.512	81.045	499.512	79.7758	499.512	82.6929	499.512	81.6152	499.512	83.8033	499.512	82.9585	499.512	84.4939	499.512	83.9163	499.512	84.8292	499.512	84.5372	499.512	84.8403
517.09	85.3083	517.09	85.2573	517.09	85.1008	517.09	84.9393	517.09	84.625	517.09	84.3249	517.09	83.8541	517.09	83.3591	517.09	82.7405	517.09	81.9498	517.09	81.2011	517.09	79.9302	517.09	79.0776	517.09	76.9415	517.09	76.0219	517.09	71.9404	517.09	71.0407	517.09	57.796	517.09	58.0289	517.09	67.6847	517.09	65.8773	517.09	74.8873	517.09	73.2444	517.09	78.5897	517.09	76.9848	517.09	80.936	517.09	79.4031	517.09	82.487	517.09	81.104	517.09	83.4731	517.09	82.3332	517.09	84.0226	517.09	83.2113	517.09	84.2244	517.09	83.8034	517.09	84.1408
536.133	85.0911	536.133	85.0218	536.133	84.8845	536.133	84.6722	536.133	84.3896	536.133	84.0182	536.133	83.5788	536.133	83.0092	536.133	82.4073	536.133	81.5506	536.133	80.8007	536.133	79.4571	536.133	78.6194	536.133	76.3121	536.133	75.5547	536.133	70.8462	536.133	70.7366	536.133	51.5038	536.133	59.6677	536.133	69.0747	536.133	63.8134	536.133	75.3918	536.133	71.6712	536.133	78.7908	536.133	75.5157	536.133	80.9656	536.133	77.9814	536.133	82.4026	536.133	79.748	536.133	83.2977	536.133	81.0961	536.133	83.7458	536.133	82.1545	536.133	83.8066	536.133	82.9687	536.133	83.5315
555.176	85.3326	555.176	85.212	555.176	85.1975	555.176	84.8371	555.176	84.7836	555.176	84.1819	555.176	84.0519	555.176	83.1866	555.176	82.9458	555.176	81.7456	555.176	81.38	555.176	79.6676	555.176	79.2051	555.176	76.5392	555.176	76.1034	555.176	71.1077	555.176	71.1871	555.176	52.9026	555.176	59.5477	555.176	69.3812	555.176	64.2885	555.176	75.7489	555.176	72.1265	555.176	79.2102	555.176	75.9769	555.176	81.4474	555.176	78.4938	555.176	82.9442	555.176	80.3388	555.176	83.8966	555.176	81.7671	555.176	84.4002	555.176	82.8843	555.176	84.5116	555.176	83.7221	555.176	84.2734
574.219	84.5584	574.219	84.5603	574.219	84.3618	574.219	84.3622	574.219	83.935	574.219	83.9116	574.219	83.2161	574.219	83.1133	574.219	82.1264	574.219	81.8313	574.219	80.5654	574.219	79.8579	574.219	78.3741	574.219	76.7814	574.219	75.2215	574.219	71.3789	574.219	70.1577	574.219	52.2462	574.219	58.1469	574.219	69.1818	574.219	65.3	574.219	75.6015	574.219	72.4021	574.219	79.0326	574.219	76.1677	574.219	81.239	574.219	78.6921	574.219	82.7258	574.219	80.5525	574.219	83.7027	574.219	81.9783	574.219	84.2684	574.219	83.0671	574.219	84.468	574.219	83.8501	574.219	84.3228
594.727	84.5881	594.727	84.88	594.727	84.1269	594.727	84.9399	594.727	83.5095	594.727	84.6795	594.727	82.6909	594.727	84.0012	594.727	81.5805	594.727	82.7877	594.727	80.0531	594.727	80.8528	594.727	77.9281	594.727	77.7954	594.727	74.8693	594.727	72.3795	594.727	69.97	594.727	52.862	594.727	58.4884	594.727	70.4131	594.727	64.2275	594.727	76.7684	594.727	71.7627	594.727	80.163	594.727	75.6837	594.727	82.3149	594.727	78.3079	594.727	83.7102	594.727	80.2497	594.727	84.5469	594.727	81.7623	594.727	84.926	594.727	82.9635	594.727	84.9119	594.727	83.8956	594.727	84.5546
615.234	83.8176	615.234	84.2731	615.234	83.2102	615.234	84.493	615.234	82.4911	615.234	84.3779	615.234	81.6365	615.234	83.8219	615.234	80.5671	615.234	82.6991	615.234	79.1675	615.234	80.8158	615.234	77.275	615.234	77.7643	615.234	74.5896	615.234	72.2716	615.234	70.3385	615.234	51.4956	615.234	61.1764	615.234	70.8022	615.234	62.2917	615.234	77.0108	615.234	71.014	615.234	80.3448	615.234	75.2656	615.234	82.4377	615.234	77.9999	615.234	83.7524	615.234	79.9561	615.234	84.4795	615.234	81.4361	615.234	84.7303	615.234	82.5887	615.234	84.5979	615.234	83.4894	615.234	84.1649
637.207	84.0168	637.207	84.6239	637.207	83.2259	637.207	84.9443	637.207	82.3151	637.207	84.873	637.207	81.2758	637.207	84.314	637.207	80.026	637.207	83.1629	637.207	78.4333	637.207	81.2529	637.207	76.3113	637.207	78.2068	637.207	73.3238	637.207	72.8174	637.207	68.5903	637.207	53.33	637.207	58.549	637.207	70.7367	637.207	63.7402	637.207	77.1421	637.207	70.9145	637.207	80.5371	637.207	74.8405	637.207	82.6638	637.207	77.5103	637.207	84.0128	637.207	79.5283	637.207	84.7799	637.207	81.1519	637.207	85.0596	637.207	82.4919	637.207	84.9139	637.207	83.5799	637.207	84.4016
659.18	82.6652	659.18	83.5003	659.18	81.7135	659.18	84.0513	659.18	80.7772	659.18	84.18	659.18	79.8661	659.18	83.7821	659.18	78.8555	659.18	82.7528	659.18	77.548	659.18	80.9208	659.18	75.7008	659.18	77.8891	659.18	72.9398	659.18	72.3689	659.18	68.3949	659.18	49.4262	659.18	59.109	659.18	70.9588	659.18	63.318	659.18	77.0794	659.18	70.1613	659.18	80.3345	659.18	73.8433	659.18	82.3578	659.18	76.295	659.18	83.6115	659.18	78.163	659.18	84.275	659.18	79.7446	659.18	84.4326	659.18	81.1647	659.18	84.1382	659.18	82.4233	659.18	83.4447
682.617	82.8042	682.617	83.8527	682.617	81.5643	682.617	84.5101	682.617	80.3796	682.617	84.6576	682.617	79.3814	682.617	84.2199	682.617	78.4487	682.617	83.117	682.617	77.2917	682.617	81.1978	682.617	75.5827	682.617	78.0828	682.617	72.9156	682.617	72.4857	682.617	68.4779	682.617	50.7886	682.617	60.304	682.617	71.387	682.617	63.8149	682.617	77.496	682.617	70.1168	682.617	80.7725	682.617	73.6594	682.617	82.7701	682.617	76.0223	682.617	83.9224	682.617	77.7944	682.617	84.4035	682.617	79.2588	682.617	84.3172	682.617	80.5675	682.617	83.7672	682.617	81.7817	682.617	82.879
707.52	83.6639	707.52	84.6965	707.52	82.3641	707.52	85.3064	707.52	81.0132	707.52	85.3992	707.52	79.7839	707.52	84.9075	707.52	78.6431	707.52	83.7517	707.52	77.3428	707.52	81.7806	707.52	75.5496	707.52	78.6194	707.52	72.8638	707.52	73.0047	707.52	68.5373	707.52	52.8881	707.52	60.5987	707.52	71.6941	707.52	62.9159	707.52	77.8108	707.52	69.7474	707.52	81.0963	707.52	73.6374	707.52	83.1204	707.52	76.2459	707.52	84.3188	707.52	78.1691	707.52	84.8561	707.52	79.7061	707.52	84.8176	707.52	81.0425	707.52	84.2891	707.52	82.2748	707.52	83.3929
732.422	83.3294	732.422	84.7248	732.422	81.5686	732.422	85.5733	732.422	79.7936	732.422	85.8005	732.422	78.3813	732.422	85.3682	732.422	77.3337	732.422	84.2228	732.422	76.2494	732.422	82.2352	732.422	74.6944	732.422	79.0512	732.422	72.2816	732.422	73.442	732.422	68.3425	732.422	52.4527	732.422	60.9903	732.422	71.874	732.422	61.9842	732.422	78.1158	732.422	69.193	732.422	81.4809	732.422	73.0999	732.422	83.5584	732.422	75.5107	732.422	84.769	732.422	77.1761	732.422	85.2685	732.422	78.5951	732.422	85.1361	732.422	80.103	732.422	84.436	732.422	81.7287	732.422	83.2515
757.324	82.7123	757.324	84.4443	757.324	80.5251	757.324	85.5243	757.324	78.4535	757.324	85.9116	757.324	77.2034	757.324	85.5951	757.324	76.5904	757.324	84.5368	757.324	75.809	757.324	82.6146	757.324	74.3443	757.324	79.4703	757.324	71.8974	757.324	73.8391	757.324	67.98	757.324	52.8408	757.324	62.1576	757.324	72.612	757.324	63.8578	757.324	78.722	757.324	69.295	757.324	82.0322	757.324	72.665	757.324	84.0914	757.324	74.8037	757.324	85.305	757.324	76.348	757.324	85.7992	757.324	77.8283	757.324	85.6123	757.324	79.5762	757.324	84.7728	757.324	81.525	757.324	83.3542
785.156	84.022	785.156	85.7351	785.156	81.6385	785.156	86.7038	785.156	78.9132	785.156	86.9321	785.156	76.6059	785.156	86.4313	785.156	75.2682	785.156	85.1843	785.156	74.3673	785.156	83.09	785.156	73.0947	785.156	79.8098	785.156	70.9014	785.156	74.1231	785.156	67.2336	785.156	55.1228	785.156	62.8238	785.156	72.2861	785.156	65.2961	785.156	78.3987	785.156	69.4349	785.156	81.7061	785.156	72.0928	785.156	83.8162	785.156	73.9437	785.156	85.1355	785.156	75.6196	785.156	85.7704	785.156	77.5449	785.156	85.7424	785.156	79.7548	785.156	85.065	785.156	81.9389	785.156	83.7706
811.523	83.8253	811.523	85.6763	811.523	81.1673	811.523	86.7105	811.523	78.0655	811.523	86.9725	811.523	75.8521	811.523	86.4915	811.523	75.4654	811.523	85.2546	811.523	75.5061	811.523	83.1614	811.523	74.7716	811.523	79.8826	811.523	72.7257	811.523	74.2284	811.523	68.6605	811.523	54.3511	811.523	61.8265	811.523	72.2197	811.523	64.9115	811.523	78.4902	811.523	70.0951	811.523	81.8604	811.523	73.0483	811.523	83.9559	811.523	74.9738	811.523	85.1901	811.523	76.4627	811.523	85.6898	811.523	77.9057	811.523	85.4951	811.523	79.5673	811.523	84.6434	811.523	81.4334	811.523	83.226
840.82	83.5073	840.82	85.6311	840.82	80.4707	840.82	86.8342	840.82	77.0312	840.82	87.1754	840.82	75.0182	840.82	86.6975	840.82	75.0237	840.82	85.4043	840.82	75.0391	840.82	83.2169	840.82	74.0413	840.82	79.828	840.82	71.6879	840.82	74.0405	840.82	67.3989	840.82	54.5866	840.82	59.9279	840.82	72.5281	840.82	62.7656	840.82	78.6912	840.82	68.7873	840.82	82.0437	840.82	72.181	840.82	84.1255	840.82	74.2002	840.82	85.34	840.82	75.4716	840.82	85.8044	840.82	76.6375	840.82	85.532	840.82	78.3346	840.82	84.5149	840.82	80.579	840.82	82.7975
870.117	82.1797	870.117	84.7997	870.117	78.0701	870.117	86.2714	870.117	72.4345	870.117	86.7751	870.117	70.7975	870.117	86.3966	870.117	73.3288	870.117	85.1557	870.117	74.2711	870.117	82.9786	870.117	73.5496	870.117	79.5537	870.117	71.3756	870.117	73.6524	870.117	67.4611	870.117	50.8088	870.117	60.1448	870.117	72.1234	870.117	60.1287	870.117	78.1438	870.117	67.3857	870.117	81.3826	870.117	71.0143	870.117	83.3583	870.117	72.866	870.117	84.4414	870.117	73.7304	870.117	84.7175	870.117	74.3303	870.117	84.1821	870.117	75.6369	870.117	82.8197	870.117	78.0249	870.117	80.6758
900.879	82.645	900.879	85.1126	900.879	78.7076	900.879	86.4419	900.879	72.9859	900.879	86.8084	900.879	69.5516	900.879	86.3005	900.879	71.7608	900.879	84.9428	900.879	72.7686	900.879	82.6676	900.879	72.1376	900.879	79.166	900.879	70.2124	900.879	73.1855	900.879	66.7586	900.879	50.7429	900.879	60.3404	900.879	72.0852	900.879	59.0882	900.879	78.1289	900.879	66.3329	900.879	81.4531	900.879	70.0798	900.879	83.4797	900.879	71.9002	900.879	84.5514	900.879	72.5461	900.879	84.7589	900.879	72.906	900.879	84.0994	900.879	74.3591	900.879	82.5481	900.879	77.1587	900.879	80.148
933.105	82.7234	933.105	85.2404	933.105	78.6407	933.105	86.5801	933.105	72.2389	933.105	86.935	933.105	66.8904	933.105	86.4035	933.105	70.3192	933.105	85.0164	933.105	72.112	933.105	82.7085	933.105	72.0119	933.105	79.1689	933.105	70.3252	933.105	73.121	933.105	66.5056	933.105	52.4101	933.105	58.5034	933.105	72.3539	933.105	60.1515	933.105	78.31	933.105	66.5744	933.105	81.6389	933.105	69.7707	933.105	83.7391	933.105	71.3744	933.105	84.9443	933.105	71.7616	933.105	85.313	933.105	71.6519	933.105	84.8086	933.105	73.4994	933.105	83.3612	933.105	77.3812	933.105	80.8898
965.332	81.4751	965.332	84.5396	965.332	76.3144	965.332	86.2292	965.332	67.2243	965.332	86.8288	965.332	68.6049	965.332	86.473	965.332	73.081	965.332	85.2083	965.332	74.2874	965.332	82.9591	965.332	73.5973	965.332	79.3771	965.332	71.2518	965.332	73.0857	965.332	66.7223	965.332	51.4949	965.332	56.8962	965.332	72.9849	965.332	60.7731	965.332	78.7554	965.332	67.785	965.332	82.0599	965.332	71.1505	965.332	84.1564	965.332	72.7778	965.332	85.3179	965.332	73.0688	965.332	85.5746	965.332	72.2561	965.332	84.8648	965.332	72.211	965.332	83.0728	965.332	75.8279	965.332	80.0487
1,000.49	82.3785	1,000.49	85.2966	1,000.49	77.4657	1,000.49	86.8816	1,000.49	67.5586	1,000.49	87.3718	1,000.49	63.7741	1,000.49	86.8713	1,000.49	71.794	1,000.49	85.4092	1,000.49	73.6082	1,000.49	82.9134	1,000.49	73.1142	1,000.49	79.0622	1,000.49	71.0095	1,000.49	72.4623	1,000.49	67.1468	1,000.49	55.4546	1,000.49	58.9088	1,000.49	73.1624	1,000.49	58.4252	1,000.49	78.7681	1,000.49	67.5925	1,000.49	82.0393	1,000.49	71.3916	1,000.49	84.1991	1,000.49	72.8079	1,000.49	85.5352	1,000.49	72.28	1,000.49	86.0323	1,000.49	69.8509	1,000.49	85.5622	1,000.49	70.3663	1,000.49	83.962	1,000.49	76.3853	1,000.49	81.0181
1,035.64	83.1003	1,035.64	85.7533	1,035.64	78.5707	1,035.64	87.1192	1,035.64	69.7854	1,035.64	87.4151	1,035.64	61.4772	1,035.64	86.7465	1,035.64	71.102	1,035.64	85.1653	1,035.64	72.8686	1,035.64	82.6239	1,035.64	72.2249	1,035.64	78.8027	1,035.64	70.153	1,035.64	72.3514	1,035.64	66.2635	1,035.64	57.0878	1,035.64	56.3709	1,035.64	72.6623	1,035.64	60.0795	1,035.64	78.3475	1,035.64	68.0231	1,035.64	81.6839	1,035.64	71.3783	1,035.64	83.861	1,035.64	72.6418	1,035.64	85.1597	1,035.64	71.9984	1,035.64	85.5851	1,035.64	68.5376	1,035.64	85.0247	1,035.64	66.5848	1,035.64	83.3093	1,035.64	74.858	1,035.64	80.1499
1,072.27	81.5892	1,072.27	84.7002	1,072.27	75.9541	1,072.27	86.3171	1,072.27	61.3959	1,072.27	86.7849	1,072.27	68.2988	1,072.27	86.2498	1,072.27	73.1715	1,072.27	84.7643	1,072.27	74.1558	1,072.27	82.2591	1,072.27	73.4652	1,072.27	78.3814	1,072.27	71.321	1,072.27	71.7332	1,072.27	66.8445	1,072.27	56.881	1,072.27	54.2229	1,072.27	72.233	1,072.27	60.9773	1,072.27	77.9106	1,072.27	68.043	1,072.27	81.2728	1,072.27	71.1985	1,072.27	83.3916	1,072.27	72.7712	1,072.27	84.5577	1,072.27	72.9831	1,072.27	84.8355	1,072.27	71.3641	1,072.27	84.1334	1,072.27	68.9517	1,072.27	82.2417	1,072.27	73.4869	1,072.27	78.8367
1,108.89	80.9796	1,108.89	84.5754	1,108.89	74.3568	1,108.89	86.4376	1,108.89	59.7231	1,108.89	86.9837	1,108.89	70.4524	1,108.89	86.4043	1,108.89	73.9676	1,108.89	84.8024	1,108.89	74.722	1,108.89	82.1576	1,108.89	73.9173	1,108.89	78.1316	1,108.89	71.6991	1,108.89	71.211	1,108.89	67.7752	1,108.89	58.0873	1,108.89	60.1431	1,108.89	72.742	1,108.89	59.1097	1,108.89	78.1643	1,108.89	67.2932	1,108.89	81.4044	1,108.89	70.9337	1,108.89	83.4951	1,108.89	72.5782	1,108.89	84.6476	1,108.89	72.7557	1,108.89	84.7987	1,108.89	70.8518	1,108.89	83.7742	1,108.89	62.6467	1,108.89	81.2974	1,108.89	67.1557	1,108.89	76.7121
1,148.44	80.8906	1,148.44	84.4513	1,148.44	74.3801	1,148.44	86.3027	1,148.44	60.3466	1,148.44	86.8427	1,148.44	70.5093	1,148.44	86.2608	1,148.44	74.0222	1,148.44	84.6655	1,148.44	74.6719	1,148.44	82.0337	1,148.44	73.8689	1,148.44	78.0081	1,148.44	72	1,148.44	71.095	1,148.44	68.7998	1,148.44	59.9638	1,148.44	62.3716	1,148.44	72.2764	1,148.44	54.5665	1,148.44	77.5232	1,148.44	65.5994	1,148.44	80.7313	1,148.44	69.5911	1,148.44	82.7793	1,148.44	70.9758	1,148.44	83.8496	1,148.44	70.4434	1,148.44	83.94	1,148.44	67.2693	1,148.44	82.9354	1,148.44	56.4203	1,148.44	80.6046	1,148.44	69.0309	1,148.44	76.4681
1,189.45	79.4023	1,189.45	83.2997	1,189.45	73.5396	1,189.45	85.4527	1,189.45	71.3392	1,189.45	86.2751	1,189.45	73.7902	1,189.45	85.9874	1,189.45	74.7971	1,189.45	84.633	1,189.45	74.8442	1,189.45	82.1362	1,189.45	74.2844	1,189.45	78.2573	1,189.45	72.6502	1,189.45	71.7912	1,189.45	69.4517	1,189.45	58.2004	1,189.45	64.2111	1,189.45	72.0413	1,189.45	58.5178	1,189.45	77.5433	1,189.45	64.1288	1,189.45	80.6985	1,189.45	68.4688	1,189.45	82.6276	1,189.45	70.461	1,189.45	83.524	1,189.45	70.5433	1,189.45	83.3917	1,189.45	68.6639	1,189.45	82.188	1,189.45	66.8057	1,189.45	79.8127	1,189.45	71.0139	1,189.45	76.1199
1,230.47	81.7202	1,230.47	84.4107	1,230.47	77.9493	1,230.47	86.0347	1,230.47	73.6495	1,230.47	86.6419	1,230.47	71.9741	1,230.47	86.2414	1,230.47	73.8465	1,230.47	84.7882	1,230.47	75.5832	1,230.47	82.2019	1,230.47	76.0411	1,230.47	78.254	1,230.47	74.9819	1,230.47	71.6974	1,230.47	72.0155	1,230.47	56.3469	1,230.47	65.52	1,230.47	72.3926	1,230.47	51.3266	1,230.47	77.5765	1,230.47	67.0237	1,230.47	80.2484	1,230.47	70.9467	1,230.47	82.0253	1,230.47	71.7321	1,230.47	83.3472	1,230.47	70.0727	1,230.47	84.0773	1,230.47	64.2617	1,230.47	83.9829	1,230.47	67.7251	1,230.47	82.8618	1,230.47	76.0015	1,230.47	80.4196
1,274.41	81.6897	1,274.41	84.4588	1,274.41	77.2086	1,274.41	85.8537	1,274.41	71.268	1,274.41	86.1117	1,274.41	71.3946	1,274.41	85.3947	1,274.41	75.1423	1,274.41	83.715	1,274.41	77.0549	1,274.41	80.9113	1,274.41	77.1616	1,274.41	76.5764	1,274.41	75.5726	1,274.41	69.0841	1,274.41	71.8924	1,274.41	56.9853	1,274.41	63.608	1,274.41	70.1845	1,274.41	58.8262	1,274.41	75.2478	1,274.41	68.9635	1,274.41	78.5084	1,274.41	72.6153	1,274.41	80.8536	1,274.41	73.7826	1,274.41	82.4544	1,274.41	72.8529	1,274.41	83.2973	1,274.41	68.8804	1,274.41	83.2222	1,274.41	60.602	1,274.41	81.9118	1,274.41	72.9517	1,274.41	78.8725
1,319.82	82.0427	1,319.82	85.0567	1,319.82	76.8889	1,319.82	86.5238	1,319.82	71.291	1,319.82	86.744	1,319.82	75.1168	1,319.82	85.8202	1,319.82	78.3134	1,319.82	83.7117	1,319.82	79.3237	1,319.82	80.3801	1,319.82	78.6527	1,319.82	75.6337	1,319.82	76.3705	1,319.82	67.7079	1,319.82	72.1492	1,319.82	63.1824	1,319.82	64.8179	1,319.82	71.9009	1,319.82	62.4847	1,319.82	76.0392	1,319.82	70.3008	1,319.82	79.0618	1,319.82	74.2042	1,319.82	81.6496	1,319.82	75.7331	1,319.82	83.482	1,319.82	75.6765	1,319.82	84.1958	1,319.82	74.1826	1,319.82	83.5065	1,319.82	69.6384	1,319.82	81.0057	1,319.82	64.1431	1,319.82	75.7591
1,366.7	80.7592	1,366.7	84.1918	1,366.7	75.7515	1,366.7	85.9755	1,366.7	73.4866	1,366.7	86.4	1,366.7	75.9931	1,366.7	85.653	1,366.7	77.7413	1,366.7	83.7252	1,366.7	78.0915	1,366.7	80.5334	1,366.7	77.2303	1,366.7	76.029	1,366.7	75.2511	1,366.7	69.2673	1,366.7	71.747	1,366.7	62.5513	1,366.7	65.111	1,366.7	70.3922	1,366.7	57.9101	1,366.7	74.6597	1,366.7	65.902	1,366.7	77.977	1,366.7	69.5633	1,366.7	80.6765	1,366.7	70.8621	1,366.7	82.149	1,366.7	70.7037	1,366.7	82.2759	1,366.7	70.0142	1,366.7	81.0277	1,366.7	69.4171	1,366.7	78.1719	1,366.7	69.7237	1,366.7	73.6545
1,413.57	79.8272	1,413.57	82.5366	1,413.57	77.5571	1,413.57	84.6035	1,413.57	76.1991	1,413.57	85.5871	1,413.57	75.7106	1,413.57	85.529	1,413.57	76.4842	1,413.57	84.324	1,413.57	77.3156	1,413.57	81.6474	1,413.57	77.1693	1,413.57	77.4096	1,413.57	75.8098	1,413.57	70.8515	1,413.57	72.7507	1,413.57	59.5658	1,413.57	66.8491	1,413.57	71.2665	1,413.57	56.1485	1,413.57	76.3295	1,413.57	63.6275	1,413.57	79.0828	1,413.57	69.0762	1,413.57	80.676	1,413.57	70.6026	1,413.57	81.3758	1,413.57	70.2311	1,413.57	81.2338	1,413.57	68.2813	1,413.57	80.4141	1,413.57	68.6303	1,413.57	79.1182	1,413.57	73.7583	1,413.57	77.1684
1,463.38	83.4449	1,463.38	84.9285	1,463.38	80.5571	1,463.38	85.549	1,463.38	75.6866	1,463.38	85.5335	1,463.38	75.3209	1,463.38	84.9454	1,463.38	79.1334	1,463.38	83.5115	1,463.38	80.6092	1,463.38	80.6621	1,463.38	80.2561	1,463.38	76.3259	1,463.38	78.4679	1,463.38	70.0263	1,463.38	74.9372	1,463.38	59.4003	1,463.38	67.4755	1,463.38	71.2463	1,463.38	55.0024	1,463.38	75.4491	1,463.38	69.6958	1,463.38	77.6418	1,463.38	74.4976	1,463.38	79.2036	1,463.38	75.4954	1,463.38	80.2628	1,463.38	73.6454	1,463.38	80.9191	1,463.38	69.144	1,463.38	81.1675	1,463.38	64.9981	1,463.38	80.6146	1,463.38	74.054	1,463.38	78.6124
1,516.11	83.7031	1,516.11	85.6354	1,516.11	79.3962	1,516.11	86.0686	1,516.11	73.4268	1,516.11	85.4073	1,516.11	77.8678	1,516.11	83.9577	1,516.11	81.2255	1,516.11	81.8814	1,516.11	81.9309	1,516.11	78.8725	1,516.11	80.7771	1,516.11	74.7924	1,516.11	78.4117	1,516.11	68.4426	1,516.11	74.6781	1,516.11	56.4646	1,516.11	65.818	1,516.11	70.3379	1,516.11	63.6137	1,516.11	74.0713	1,516.11	71.2538	1,516.11	76.6356	1,516.11	75.535	1,516.11	78.8566	1,516.11	77.2493	1,516.11	80.4742	1,516.11	76.4662	1,516.11	81.5393	1,516.11	73.5119	1,516.11	81.6007	1,516.11	68.373	1,516.11	80.2943	1,516.11	71.8266	1,516.11	77.3205
1,568.85	83.1168	1,568.85	85.8659	1,568.85	77.7703	1,568.85	86.7486	1,568.85	76.2136	1,568.85	86.2677	1,568.85	80.958	1,568.85	84.773	1,568.85	82.7876	1,568.85	82.0814	1,568.85	82.4374	1,568.85	77.9192	1,568.85	80.7062	1,568.85	72.6793	1,568.85	78.1706	1,568.85	63.8493	1,568.85	74.4954	1,568.85	62.8229	1,568.85	68.1823	1,568.85	70.6327	1,568.85	62.2037	1,568.85	73.3596	1,568.85	69.5386	1,568.85	75.4202	1,568.85	74.4534	1,568.85	77.5254	1,568.85	75.6816	1,568.85	79.0405	1,568.85	74.6122	1,568.85	80.2207	1,568.85	71.8896	1,568.85	80.5474	1,568.85	66.6818	1,568.85	79.3957	1,568.85	70.8951	1,568.85	76.4425
1,624.51	81.9792	1,624.51	84.2286	1,624.51	79.1354	1,624.51	85.3398	1,624.51	78.351	1,624.51	85.3329	1,624.51	80.2027	1,624.51	84.2762	1,624.51	81.5085	1,624.51	82.0499	1,624.51	81.3425	1,624.51	78.5146	1,624.51	80.0169	1,624.51	73.8989	1,624.51	77.9706	1,624.51	65.743	1,624.51	74.7029	1,624.51	64.2424	1,624.51	68.8515	1,624.51	71.0732	1,624.51	58.4571	1,624.51	73.5258	1,624.51	67.2947	1,624.51	75.6812	1,624.51	73.0969	1,624.51	77.8138	1,624.51	74.7184	1,624.51	79.0158	1,624.51	75.3611	1,624.51	80.0325	1,624.51	74.3325	1,624.51	80.6767	1,624.51	70.188	1,624.51	80.018	1,624.51	71.6789	1,624.51	77.3372
1,681.64	83.2932	1,681.64	84.6528	1,681.64	80.3821	1,681.64	84.9245	1,681.64	77.7841	1,681.64	84.6064	1,681.64	79.9475	1,681.64	83.8277	1,681.64	81.9602	1,681.64	82.254	1,681.64	82.2166	1,681.64	79.4249	1,681.64	81.1374	1,681.64	74.9115	1,681.64	78.7874	1,681.64	67.8039	1,681.64	74.5265	1,681.64	65.6995	1,681.64	65.9181	1,681.64	70.7178	1,681.64	59.9511	1,681.64	73.1967	1,681.64	69.5188	1,681.64	75.3926	1,681.64	73.3855	1,681.64	77.1634	1,681.64	74.6243	1,681.64	78.5851	1,681.64	74.4529	1,681.64	79.7805	1,681.64	72.4562	1,681.64	79.7879	1,681.64	69.4852	1,681.64	78.0892	1,681.64	70.9146	1,681.64	74.874
1,741.7	84.3169	1,741.7	85.8317	1,741.7	80.2225	1,741.7	85.5179	1,741.7	78.2962	1,741.7	84.0753	1,741.7	82.1554	1,741.7	82.5061	1,741.7	83.8297	1,741.7	81.0755	1,741.7	83.6644	1,741.7	78.8884	1,741.7	81.9239	1,741.7	75.6533	1,741.7	78.782	1,741.7	70.0813	1,741.7	74.9943	1,741.7	64.9563	1,741.7	67.1649	1,741.7	70.0939	1,741.7	64.355	1,741.7	73.9335	1,741.7	70.982	1,741.7	76.0809	1,741.7	74.5829	1,741.7	77.7178	1,741.7	76.2895	1,741.7	78.86	1,741.7	76.9458	1,741.7	80.3855	1,741.7	75.7983	1,741.7	81.4267	1,741.7	72.7992	1,741.7	81.1261	1,741.7	75.0594	1,741.7	79.2346
1,803.22	83.1335	1,803.22	85.6351	1,803.22	78.4254	1,803.22	85.8023	1,803.22	79.0475	1,803.22	84.1466	1,803.22	82.7765	1,803.22	81.9539	1,803.22	83.9303	1,803.22	79.9397	1,803.22	83.0296	1,803.22	77.3683	1,803.22	80.9537	1,803.22	74.0186	1,803.22	78.3687	1,803.22	67.9011	1,803.22	74.5473	1,803.22	63.6293	1,803.22	69.2421	1,803.22	67.5802	1,803.22	63.945	1,803.22	72.4908	1,803.22	68.9432	1,803.22	74.7236	1,803.22	73.5341	1,803.22	76.3575	1,803.22	75.0947	1,803.22	77.5287	1,803.22	76.1685	1,803.22	78.8656	1,803.22	74.9707	1,803.22	79.9989	1,803.22	69.1898	1,803.22	80.1589	1,803.22	71.7912	1,803.22	78.2317
1,866.21	82.8638	1,866.21	85.0006	1,866.21	79.6737	1,866.21	85.2221	1,866.21	80.1055	1,866.21	83.6956	1,866.21	82.1955	1,866.21	81.6626	1,866.21	82.9004	1,866.21	79.6993	1,866.21	82.3516	1,866.21	76.8118	1,866.21	80.4718	1,866.21	73.3228	1,866.21	77.9294	1,866.21	67.6037	1,866.21	74.9503	1,866.21	63.5517	1,866.21	69.5075	1,866.21	69.4015	1,866.21	61.4577	1,866.21	73.7025	1,866.21	65.7509	1,866.21	75.9569	1,866.21	70.8266	1,866.21	76.1507	1,866.21	73.6371	1,866.21	77.5937	1,866.21	76.4709	1,866.21	80.3755	1,866.21	77.0695	1,866.21	81.8038	1,866.21	74.5827	1,866.21	81.3741	1,866.21	71.7988	1,866.21	78.1564
1,932.13	82.6902	1,932.13	85.033	1,932.13	79.0117	1,932.13	84.9485	1,932.13	79.5808	1,932.13	83.1178	1,932.13	82.0216	1,932.13	81.5869	1,932.13	82.9979	1,932.13	80.4894	1,932.13	82.5338	1,932.13	78.7447	1,932.13	80.878	1,932.13	76.183	1,932.13	78.8204	1,932.13	70.0361	1,932.13	75.1984	1,932.13	67.3867	1,932.13	68.6139	1,932.13	69.4438	1,932.13	55.6335	1,932.13	74.6138	1,932.13	66.8709	1,932.13	76.392	1,932.13	71.1798	1,932.13	77.0738	1,932.13	73.6144	1,932.13	78.0822	1,932.13	76.0172	1,932.13	80.1606	1,932.13	76.4998	1,932.13	81.474	1,932.13	75.3201	1,932.13	81.2221	1,932.13	74.94	1,932.13	78.7149
1,999.51	83.1599	1,999.51	85.087	1,999.51	79.2947	1,999.51	84.5788	1,999.51	80.2988	1,999.51	82.3807	1,999.51	82.5807	1,999.51	80.5958	1,999.51	83.3314	1,999.51	80.2813	1,999.51	82.8292	1,999.51	78.9821	1,999.51	81.8577	1,999.51	77.0678	1,999.51	79.6376	1,999.51	73.0602	1,999.51	75.6516	1,999.51	67.0501	1,999.51	68.6909	1,999.51	70.2621	1,999.51	62.6865	1,999.51	75.4909	1,999.51	68.4223	1,999.51	76.4188	1,999.51	72.9102	1,999.51	77.3227	1,999.51	75.9894	1,999.51	77.9338	1,999.51	77.3829	1,999.51	78.9956	1,999.51	77.6016	1,999.51	80.9246	1,999.51	76.4494	1,999.51	81.3494	1,999.51	76.2064	1,999.51	79.364
2,069.82	82.0668	2,069.82	84.5789	2,069.82	78.8617	2,069.82	84.5539	2,069.82	80.187	2,069.82	82.091	2,069.82	82.0491	2,069.82	79.4208	2,069.82	82.8316	2,069.82	78.914	2,069.82	82.2369	2,069.82	78.3835	2,069.82	80.808	2,069.82	76.3829	2,069.82	78.4879	2,069.82	71.8423	2,069.82	75.2892	2,069.82	67.2807	2,069.82	69.9211	2,069.82	71.9933	2,069.82	64.4763	2,069.82	75.2312	2,069.82	64.2417	2,069.82	75.8138	2,069.82	70.9428	2,069.82	76.5522	2,069.82	74.8915	2,069.82	77.1873	2,069.82	77.1981	2,069.82	78.3454	2,069.82	77.6821	2,069.82	81.1922	2,069.82	75.9946	2,069.82	82.3399	2,069.82	75.0185	2,069.82	79.8643
2,143.07	81.4311	2,143.07	84.1582	2,143.07	78.2873	2,143.07	84.1229	2,143.07	80.1491	2,143.07	81.7885	2,143.07	81.9817	2,143.07	79.3057	2,143.07	82.9036	2,143.07	79.6099	2,143.07	82.431	2,143.07	79.5295	2,143.07	81.4203	2,143.07	77.6029	2,143.07	78.7741	2,143.07	74.1762	2,143.07	74.4875	2,143.07	69.0332	2,143.07	67.4428	2,143.07	71.0804	2,143.07	62.6563	2,143.07	76.0158	2,143.07	64.9684	2,143.07	76.5121	2,143.07	71.5064	2,143.07	76.9468	2,143.07	74.9434	2,143.07	76.8429	2,143.07	77.4047	2,143.07	79.9315	2,143.07	78.5526	2,143.07	83.0777	2,143.07	77.0704	2,143.07	83.0644	2,143.07	74.9919	2,143.07	79.5693
2,219.24	81.6175	2,219.24	83.8809	2,219.24	79.5813	2,219.24	83.9784	2,219.24	80.6166	2,219.24	81.5918	2,219.24	82.2819	2,219.24	78.8557	2,219.24	83.1995	2,219.24	79.8864	2,219.24	82.3537	2,219.24	80.391	2,219.24	81.5907	2,219.24	79.069	2,219.24	78.6475	2,219.24	74.1656	2,219.24	74.4925	2,219.24	70.3535	2,219.24	66.5178	2,219.24	70.4482	2,219.24	58.6929	2,219.24	75.8407	2,219.24	66.9873	2,219.24	77.0593	2,219.24	72.3592	2,219.24	77.0291	2,219.24	75.5299	2,219.24	77.3336	2,219.24	77.9365	2,219.24	80.1513	2,219.24	78.3715	2,219.24	82.5724	2,219.24	76.9776	2,219.24	82.2642	2,219.24	76.6271	2,219.24	79.473
2,296.88	80.8006	2,296.88	82.5741	2,296.88	79.4576	2,296.88	83.2611	2,296.88	79.7701	2,296.88	80.867	2,296.88	81.4899	2,296.88	77.3163	2,296.88	83.2538	2,296.88	79.6231	2,296.88	82.4893	2,296.88	80.245	2,296.88	80.6358	2,296.88	78.1867	2,296.88	78.3485	2,296.88	74.5038	2,296.88	73.793	2,296.88	69.4358	2,296.88	68.9258	2,296.88	71.241	2,296.88	53.1972	2,296.88	76.0971	2,296.88	66.7059	2,296.88	77.1171	2,296.88	70.5004	2,296.88	77.7154	2,296.88	74.7716	2,296.88	75.5627	2,296.88	77.9491	2,296.88	80.0148	2,296.88	78.6798	2,296.88	81.8231	2,296.88	76.8346	2,296.88	81.8234	2,296.88	75.0536	2,296.88	78.7667
2,378.91	80.7529	2,378.91	83.1334	2,378.91	78.7444	2,378.91	83.4966	2,378.91	79.1071	2,378.91	81.5927	2,378.91	82.0017	2,378.91	78.2626	2,378.91	82.9572	2,378.91	79.8965	2,378.91	82.7143	2,378.91	81.3204	2,378.91	80.1865	2,378.91	80.4633	2,378.91	78.2213	2,378.91	75.9987	2,378.91	72.4097	2,378.91	69.9515	2,378.91	69.3988	2,378.91	71.9065	2,378.91	54.3982	2,378.91	75.6609	2,378.91	64.4856	2,378.91	77.3863	2,378.91	71.9486	2,378.91	78.0901	2,378.91	75.2574	2,378.91	76.5028	2,378.91	78.4275	2,378.91	80.7641	2,378.91	78.4217	2,378.91	82.9361	2,378.91	77.9066	2,378.91	82.0902	2,378.91	76.2769	2,378.91	78.7464
2,462.4	79.5181	2,462.4	81.877	2,462.4	78.0845	2,462.4	82.8528	2,462.4	79.0406	2,462.4	81.1144	2,462.4	81.4779	2,462.4	78.1952	2,462.4	82.7137	2,462.4	80.2378	2,462.4	82.0643	2,462.4	81.7017	2,462.4	80.0331	2,462.4	80.3521	2,462.4	76.9638	2,462.4	76.5146	2,462.4	72.4896	2,462.4	70.738	2,462.4	64.7769	2,462.4	71.5283	2,462.4	54.397	2,462.4	76.1299	2,462.4	66.0569	2,462.4	78.641	2,462.4	70.8184	2,462.4	78.6586	2,462.4	74.8918	2,462.4	77.3185	2,462.4	78.3434	2,462.4	80.3531	2,462.4	79.8238	2,462.4	83.0502	2,462.4	78.9669	2,462.4	82.4373	2,462.4	77.602	2,462.4	79.3913
2,548.83	78.0094	2,548.83	80.4759	2,548.83	76.3717	2,548.83	82.0934	2,548.83	77.7294	2,548.83	80.8139	2,548.83	80.7597	2,548.83	78.034	2,548.83	81.8391	2,548.83	80.0446	2,548.83	81.0118	2,548.83	81.2896	2,548.83	78.8679	2,548.83	79.5362	2,548.83	76.2756	2,548.83	75.6648	2,548.83	72.1112	2,548.83	71.1352	2,548.83	65.6086	2,548.83	71.6957	2,548.83	60.8956	2,548.83	75.8396	2,548.83	67.7891	2,548.83	78.5962	2,548.83	71.6058	2,548.83	78.8773	2,548.83	74.9101	2,548.83	77.2877	2,548.83	78.276	2,548.83	80.1694	2,548.83	79.8856	2,548.83	82.6816	2,548.83	79.0326	2,548.83	81.7164	2,548.83	77.5929	2,548.83	78.9636
2,639.65	80.2034	2,639.65	82.0024	2,639.65	78.5426	2,639.65	83.2047	2,639.65	80.0892	2,639.65	82.0201	2,639.65	82.7702	2,639.65	79.2411	2,639.65	83.2419	2,639.65	81.1241	2,639.65	82.2137	2,639.65	82.5388	2,639.65	80.3916	2,639.65	81.0849	2,639.65	77.8021	2,639.65	77.5754	2,639.65	73.7648	2,639.65	72.6957	2,639.65	67.2989	2,639.65	70.9336	2,639.65	62.4694	2,639.65	75.7832	2,639.65	69.0194	2,639.65	79.3058	2,639.65	72.932	2,639.65	79.9927	2,639.65	75.5009	2,639.65	78.2781	2,639.65	78.4501	2,639.65	80.854	2,639.65	80.2001	2,639.65	82.8988	2,639.65	79.6123	2,639.65	81.7689	2,639.65	78.5854	2,639.65	79.9247
2,731.93	80.4357	2,731.93	81.9435	2,731.93	78.5002	2,731.93	82.9609	2,731.93	80.5097	2,731.93	81.9501	2,731.93	82.8652	2,731.93	79.528	2,731.93	83.2151	2,731.93	81.0717	2,731.93	82.1922	2,731.93	82.1834	2,731.93	80.4582	2,731.93	80.7049	2,731.93	78.0208	2,731.93	76.9897	2,731.93	73.9951	2,731.93	71.3024	2,731.93	68.4277	2,731.93	69.8387	2,731.93	64.1953	2,731.93	75.8514	2,731.93	69.5937	2,731.93	79.8321	2,731.93	73.8464	2,731.93	80.6579	2,731.93	76.0343	2,731.93	78.3551	2,731.93	78.729	2,731.93	80.3964	2,731.93	80.4639	2,731.93	82.3854	2,731.93	79.4341	2,731.93	81.3947	2,731.93	78.0119	2,731.93	79.998
2,828.61	80.2501	2,828.61	81.7431	2,828.61	77.8986	2,828.61	82.4136	2,828.61	80.0542	2,828.61	81.4227	2,828.61	82.2899	2,828.61	79.4702	2,828.61	82.7693	2,828.61	80.6536	2,828.61	81.7225	2,828.61	81.637	2,828.61	80.01	2,828.61	80.2994	2,828.61	77.9742	2,828.61	76.7669	2,828.61	74.4604	2,828.61	71.1463	2,828.61	69.5383	2,828.61	69.7996	2,828.61	65.0572	2,828.61	75.6953	2,828.61	69.4213	2,828.61	79.7864	2,828.61	74.4228	2,828.61	80.4096	2,828.61	76.3274	2,828.61	77.5948	2,828.61	78.2151	2,828.61	79.8457	2,828.61	79.7502	2,828.61	81.1772	2,828.61	78.5014	2,828.61	79.9635	2,828.61	76.8485	2,828.61	79.1206
2,928.22	80.9424	2,928.22	82.4532	2,928.22	78.5308	2,928.22	82.5353	2,928.22	80.8936	2,928.22	81.4654	2,928.22	82.9291	2,928.22	80.3008	2,928.22	83.2547	2,928.22	80.9796	2,928.22	81.8756	2,928.22	81.6248	2,928.22	80.4543	2,928.22	80.2842	2,928.22	78.7869	2,928.22	76.649	2,928.22	75.4032	2,928.22	70.5856	2,928.22	70.0279	2,928.22	68.0887	2,928.22	63.8892	2,928.22	74.5609	2,928.22	68.4145	2,928.22	79.0103	2,928.22	74.3815	2,928.22	79.8704	2,928.22	76.5541	2,928.22	76.9175	2,928.22	78.166	2,928.22	78.7937	2,928.22	79.3942	2,928.22	79.8579	2,928.22	77.9144	2,928.22	79.4561	2,928.22	75.6747	2,928.22	78.6519
3,030.76	81.2902	3,030.76	82.7976	3,030.76	79.1159	3,030.76	82.4131	3,030.76	81.4284	3,030.76	80.8137	3,030.76	83.6001	3,030.76	80.4946	3,030.76	83.7748	3,030.76	81.2855	3,030.76	82.2267	3,030.76	81.202	3,030.76	81.331	3,030.76	79.7348	3,030.76	79.8146	3,030.76	76.177	3,030.76	75.7154	3,030.76	70.0494	3,030.76	69.3026	3,030.76	67.5579	3,030.76	62.5318	3,030.76	75.4208	3,030.76	68.6218	3,030.76	79.8688	3,030.76	74.6887	3,030.76	80.4551	3,030.76	76.7106	3,030.76	77.8233	3,030.76	77.6359	3,030.76	79.9764	3,030.76	78.5784	3,030.76	80.607	3,030.76	77.564	3,030.76	79.5726	3,030.76	74.4602	3,030.76	77.4298
3,137.7	80.7359	3,137.7	82.6879	3,137.7	77.7642	3,137.7	82.358	3,137.7	80.6575	3,137.7	80.7276	3,137.7	82.5811	3,137.7	80.9525	3,137.7	82.3585	3,137.7	82.0756	3,137.7	81.4702	3,137.7	81.5801	3,137.7	81.2156	3,137.7	79.8399	3,137.7	79.755	3,137.7	76.0234	3,137.7	75.2192	3,137.7	70.8037	3,137.7	68.6227	3,137.7	68.9977	3,137.7	62.8911	3,137.7	75.6134	3,137.7	68.722	3,137.7	80.117	3,137.7	75.2795	3,137.7	80.9278	3,137.7	77.6769	3,137.7	79.0022	3,137.7	79.3192	3,137.7	80.5705	3,137.7	80.2489	3,137.7	80.8011	3,137.7	79.142	3,137.7	80.6878	3,137.7	76.7674	3,137.7	79.1186
3,249.02	80.8099	3,249.02	83.3001	3,249.02	78.4216	3,249.02	82.7293	3,249.02	81.0356	3,249.02	80.7731	3,249.02	81.9438	3,249.02	81.086	3,249.02	81.9311	3,249.02	82.2046	3,249.02	82.0552	3,249.02	81.7659	3,249.02	81.567	3,249.02	80.0109	3,249.02	79.6025	3,249.02	76.2699	3,249.02	74.6211	3,249.02	72.1875	3,249.02	68.1882	3,249.02	68.3569	3,249.02	62.4501	3,249.02	74.3284	3,249.02	69.5412	3,249.02	79.3639	3,249.02	75.7253	3,249.02	80.3002	3,249.02	77.1772	3,249.02	79.2617	3,249.02	78.8746	3,249.02	80.0184	3,249.02	80.1666	3,249.02	79.7881	3,249.02	78.874	3,249.02	80.8544	3,249.02	76.3949	3,249.02	78.8001
3,363.28	80.902	3,363.28	83.3147	3,363.28	79.0308	3,363.28	82.5492	3,363.28	80.9889	3,363.28	80.8497	3,363.28	81.4558	3,363.28	81.1504	3,363.28	82.1259	3,363.28	81.7307	3,363.28	82.4003	3,363.28	81.4251	3,363.28	81.2726	3,363.28	79.8473	3,363.28	78.8942	3,363.28	76.1085	3,363.28	74.4762	3,363.28	72.3885	3,363.28	70.0754	3,363.28	67.6102	3,363.28	66.0472	3,363.28	73.2778	3,363.28	71.6604	3,363.28	78.6741	3,363.28	77.2316	3,363.28	79.7477	3,363.28	78.0917	3,363.28	79.4928	3,363.28	78.4327	3,363.28	79.1819	3,363.28	79.7167	3,363.28	79.3717	3,363.28	78.6634	3,363.28	81.0732	3,363.28	76.6061	3,363.28	78.1345
3,481.93	81.1927	3,481.93	83.2585	3,481.93	79.2531	3,481.93	82.2677	3,481.93	80.8904	3,481.93	80.9769	3,481.93	81.2598	3,481.93	81.4155	3,481.93	82.4158	3,481.93	81.3028	3,481.93	82.4491	3,481.93	80.8517	3,481.93	80.7147	3,481.93	79.4699	3,481.93	78.8952	3,481.93	75.9421	3,481.93	75.4775	3,481.93	72.7336	3,481.93	71.7871	3,481.93	65.9449	3,481.93	66.7747	3,481.93	70.8852	3,481.93	70.8431	3,481.93	76.8712	3,481.93	76.8158	3,481.93	77.9905	3,481.93	78.4883	3,481.93	78.5766	3,481.93	78.2524	3,481.93	77.4784	3,481.93	78.665	3,481.93	78.6316	3,481.93	77.6265	3,481.93	80.3054	3,481.93	76.4505	3,481.93	76.6588
3,604.98	81.3781	3,604.98	83.3652	3,604.98	79.2281	3,604.98	81.984	3,604.98	80.801	3,604.98	81.1566	3,604.98	81.5965	3,604.98	82.192	3,604.98	82.9566	3,604.98	81.5963	3,604.98	82.327	3,604.98	80.7716	3,604.98	80.5911	3,604.98	79.2947	3,604.98	79.8834	3,604.98	75.3901	3,604.98	76.3798	3,604.98	72.2238	3,604.98	71.1984	3,604.98	62.3445	3,604.98	63.6637	3,604.98	68.7242	3,604.98	68.2304	3,604.98	75.0891	3,604.98	75.3616	3,604.98	76.3597	3,604.98	78.145	3,604.98	77.8189	3,604.98	78.5839	3,604.98	76.0582	3,604.98	78.3904	3,604.98	78.4487	3,604.98	76.905	3,604.98	79.2917	3,604.98	76.2896	3,604.98	76.5455
3,732.42	80.7521	3,732.42	83.1186	3,732.42	78.1478	3,732.42	82.1258	3,732.42	79.4067	3,732.42	81.2941	3,732.42	80.8348	3,732.42	82.7113	3,732.42	81.7079	3,732.42	81.4928	3,732.42	80.7184	3,732.42	80.3193	3,732.42	80.0783	3,732.42	78.786	3,732.42	79.4457	3,732.42	74.3341	3,732.42	74.609	3,732.42	70.5173	3,732.42	66.9261	3,732.42	55.3434	3,732.42	57.7261	3,732.42	70.5322	3,732.42	67.1097	3,732.42	75.2301	3,732.42	73.7023	3,732.42	75.9199	3,732.42	75.8732	3,732.42	77.7412	3,732.42	77.6394	3,732.42	75.6552	3,732.42	76.8772	3,732.42	78.1539	3,732.42	74.7902	3,732.42	78.0329	3,732.42	75.1924	3,732.42	76.7104
3,864.26	81.8801	3,864.26	83.8965	3,864.26	80.3902	3,864.26	82.6474	3,864.26	81.1283	3,864.26	82.1232	3,864.26	82.1188	3,864.26	83.3712	3,864.26	81.8361	3,864.26	82.2084	3,864.26	81.7544	3,864.26	80.6492	3,864.26	81.7665	3,864.26	79.1176	3,864.26	79.894	3,864.26	74.7283	3,864.26	74.1453	3,864.26	71.4398	3,864.26	68.0308	3,864.26	60.4823	3,864.26	64.6307	3,864.26	70.7293	3,864.26	70.0819	3,864.26	75.6186	3,864.26	75.0077	3,864.26	76.3104	3,864.26	75.6395	3,864.26	77.8506	3,864.26	78.2559	3,864.26	75.6872	3,864.26	77.7635	3,864.26	78.2726	3,864.26	75.7302	3,864.26	78.4347	3,864.26	75.3748	3,864.26	78.2199
4,000.49	82.146	4,000.49	83.4546	4,000.49	81.0967	4,000.49	81.7462	4,000.49	81.2666	4,000.49	80.9405	4,000.49	81.7768	4,000.49	82.0535	4,000.49	80.7827	4,000.49	80.9852	4,000.49	82.1478	4,000.49	79.4403	4,000.49	81.3518	4,000.49	78.2898	4,000.49	78.4077	4,000.49	74.0912	4,000.49	73.5046	4,000.49	71.9942	4,000.49	69.7229	4,000.49	62.2114	4,000.49	66.9122	4,000.49	70.402	4,000.49	70.8163	4,000.49	74.2668	4,000.49	75.156	4,000.49	73.4157	4,000.49	75.1874	4,000.49	76.603	4,000.49	77.5808	4,000.49	73.961	4,000.49	77.781	4,000.49	77.4569	4,000.49	76.3637	4,000.49	77.8659	4,000.49	75.1986	4,000.49	77.9307
4,141.11	82.7641	4,141.11	83.4313	4,141.11	81.6265	4,141.11	81.9975	4,141.11	82.2749	4,141.11	81.4672	4,141.11	81.8274	4,141.11	82.2756	4,141.11	81.4836	4,141.11	81.1249	4,141.11	82.9499	4,141.11	79.1672	4,141.11	80.5196	4,141.11	78.1548	4,141.11	78.0384	4,141.11	73.6775	4,141.11	74.9206	4,141.11	71.5582	4,141.11	71.3419	4,141.11	62.5555	4,141.11	68.5861	4,141.11	67.8998	4,141.11	70.7305	4,141.11	72.7727	4,141.11	75.7243	4,141.11	72.7098	4,141.11	76.4361	4,141.11	73.5219	4,141.11	76.6678	4,141.11	73.8659	4,141.11	77.639	4,141.11	76.0263	4,141.11	76.1717	4,141.11	78.1289	4,141.11	73.7242	4,141.11	77.8431
4,287.6	82.8245	4,287.6	83.0419	4,287.6	81.4011	4,287.6	82.2634	4,287.6	82.9798	4,287.6	82.302	4,287.6	81.4217	4,287.6	82.6557	4,287.6	82.6017	4,287.6	81.155	4,287.6	82.8579	4,287.6	79.5572	4,287.6	79.8608	4,287.6	78.4641	4,287.6	78.8286	4,287.6	73.7568	4,287.6	75.8924	4,287.6	71.0371	4,287.6	71.2252	4,287.6	61.5633	4,287.6	67.4055	4,287.6	66.7844	4,287.6	68.7615	4,287.6	70.5016	4,287.6	74.5433	4,287.6	66.9293	4,287.6	76.2252	4,287.6	73.4566	4,287.6	77.4116	4,287.6	70.4886	4,287.6	77.4864	4,287.6	74.9159	4,287.6	74.3642	4,287.6	76.073	4,287.6	73.8688	4,287.6	76.4664
4,438.48	83.4675	4,438.48	83.226	4,438.48	81.4074	4,438.48	82.6835	4,438.48	83.2993	4,438.48	82.9406	4,438.48	81.0614	4,438.48	83.3568	4,438.48	82.5441	4,438.48	81.3233	4,438.48	82.0765	4,438.48	79.345	4,438.48	79.7565	4,438.48	77.3765	4,438.48	78.5151	4,438.48	73.1825	4,438.48	74.85	4,438.48	70.4961	4,438.48	69.0729	4,438.48	61.0822	4,438.48	64.7117	4,438.48	68.4213	4,438.48	66.8141	4,438.48	72.5926	4,438.48	72.8017	4,438.48	70.0388	4,438.48	75.5414	4,438.48	69.9521	4,438.48	77.5499	4,438.48	72.7675	4,438.48	75.2922	4,438.48	68.2517	4,438.48	73.4051	4,438.48	75.823	4,438.48	73.771	4,438.48	74.7247
4,595.21	83.3327	4,595.21	82.9859	4,595.21	81.6502	4,595.21	82.6655	4,595.21	82.9599	4,595.21	83.0728	4,595.21	81.5667	4,595.21	83.662	4,595.21	82.128	4,595.21	81.7565	4,595.21	81.4169	4,595.21	80.7407	4,595.21	80.0523	4,595.21	77.8918	4,595.21	78.4986	4,595.21	73.1786	4,595.21	75.6921	4,595.21	70.0066	4,595.21	70.4161	4,595.21	65.9252	4,595.21	67.1182	4,595.21	67.6266	4,595.21	69.6449	4,595.21	71.8368	4,595.21	75.113	4,595.21	66.9447	4,595.21	75.91	4,595.21	70.6595	4,595.21	76.5416	4,595.21	70.2625	4,595.21	74.857	4,595.21	67.8264	4,595.21	73.5271	4,595.21	75.0685	4,595.21	71.4612	4,595.21	76.6242
4,756.35	82.8563	4,756.35	83.2994	4,756.35	82.2498	4,756.35	82.3839	4,756.35	82.8041	4,756.35	83.0656	4,756.35	81.8982	4,756.35	83.2426	4,756.35	81.5602	4,756.35	81.8956	4,756.35	81.7671	4,756.35	80.7617	4,756.35	80.24	4,756.35	77.1093	4,756.35	78.473	4,756.35	73.4592	4,756.35	76.5384	4,756.35	70.6643	4,756.35	71.7427	4,756.35	67.7698	4,756.35	68.4882	4,756.35	60.2239	4,756.35	70.9027	4,756.35	69.2981	4,756.35	76.438	4,756.35	64.1371	4,756.35	75.3322	4,756.35	62.0444	4,756.35	76.3722	4,756.35	67.1574	4,756.35	75.6568	4,756.35	63.1204	4,756.35	71.462	4,756.35	72.8044	4,756.35	71.0133	4,756.35	74.6261
4,924.8	82.1516	4,924.8	83.2999	4,924.8	82.1987	4,924.8	82.0933	4,924.8	82.6492	4,924.8	82.861	4,924.8	81.6688	4,924.8	82.0547	4,924.8	81.52	4,924.8	81.1008	4,924.8	81.292	4,924.8	79.4667	4,924.8	79.4792	4,924.8	74.0644	4,924.8	78.4395	4,924.8	71.4673	4,924.8	76.8917	4,924.8	70.6733	4,924.8	72.1017	4,924.8	69.4818	4,924.8	67.2924	4,924.8	61.3725	4,924.8	67.9218	4,924.8	68.3064	4,924.8	74.9698	4,924.8	55.0772	4,924.8	75.4957	4,924.8	64.3674	4,924.8	76.2556	4,924.8	55.1348	4,924.8	73.2463	4,924.8	63.9857	4,924.8	70.2993	4,924.8	71.8429	4,924.8	71.3051	4,924.8	71.498
5,097.66	82.014	5,097.66	83.4229	5,097.66	81.8186	5,097.66	81.5931	5,097.66	83.6305	5,097.66	82.9546	5,097.66	82.2255	5,097.66	81.2796	5,097.66	82.2879	5,097.66	80.3356	5,097.66	81.0105	5,097.66	78.0334	5,097.66	80.4771	5,097.66	70.7575	5,097.66	79.2998	5,097.66	70.7451	5,097.66	77.0938	5,097.66	70.9887	5,097.66	72.1131	5,097.66	69.8376	5,097.66	66.0763	5,097.66	68.0579	5,097.66	66.0744	5,097.66	71.7718	5,097.66	72.8989	5,097.66	66.159	5,097.66	74.6242	5,097.66	67.7333	5,097.66	75.1303	5,097.66	65.9354	5,097.66	68.8024	5,097.66	70.8256	5,097.66	69.7876	5,097.66	74.046	5,097.66	68.3938	5,097.66	69.5739
5,277.83	81.6013	5,277.83	82.3239	5,277.83	80.6847	5,277.83	80.4869	5,277.83	83.4144	5,277.83	82.1723	5,277.83	83.356	5,277.83	79.2308	5,277.83	82.1397	5,277.83	78.2322	5,277.83	81.5325	5,277.83	75.2324	5,277.83	80.9957	5,277.83	65.5922	5,277.83	79.0404	5,277.83	68.7118	5,277.83	76.6994	5,277.83	70.9005	5,277.83	72.3502	5,277.83	68.9651	5,277.83	65.4146	5,277.83	69.8738	5,277.83	65.9537	5,277.83	72.0552	5,277.83	71.6316	5,277.83	66.5159	5,277.83	71.9299	5,277.83	68.9404	5,277.83	71.2476	5,277.83	70.9196	5,277.83	62.3274	5,277.83	74.5232	5,277.83	68.9805	5,277.83	77.1366	5,277.83	70.6342	5,277.83	70.2466
5,463.87	80.5643	5,463.87	81.6725	5,463.87	79.2268	5,463.87	79.8065	5,463.87	81.4353	5,463.87	80.7645	5,463.87	82.2772	5,463.87	77.1311	5,463.87	80.9478	5,463.87	75.0484	5,463.87	80.7675	5,463.87	68.1593	5,463.87	81.0725	5,463.87	60.2961	5,463.87	78.929	5,463.87	59.1244	5,463.87	75.7648	5,463.87	64.3045	5,463.87	71.0642	5,463.87	65.1053	5,463.87	61.9321	5,463.87	67.6702	5,463.87	64.0295	5,463.87	69.0186	5,463.87	68.9758	5,463.87	66.0976	5,463.87	71.0905	5,463.87	70.7456	5,463.87	71.4122	5,463.87	72.338	5,463.87	66.0549	5,463.87	74.1663	5,463.87	68.9039	5,463.87	76.4029	5,463.87	71.6037	5,463.87	67.9813
5,657.23	81.6745	5,657.23	82.5003	5,657.23	80.4819	5,657.23	79.6849	5,657.23	82.1885	5,657.23	79.0192	5,657.23	82.9118	5,657.23	74.2112	5,657.23	81.5497	5,657.23	72.0324	5,657.23	81.2359	5,657.23	66.0879	5,657.23	81.9071	5,657.23	63.9423	5,657.23	79.5416	5,657.23	52.8281	5,657.23	75.4282	5,657.23	64.0687	5,657.23	69.7027	5,657.23	64.8738	5,657.23	66.5956	5,657.23	67.031	5,657.23	65.4821	5,657.23	68.5146	5,657.23	66.236	5,657.23	67.413	5,657.23	71.5013	5,657.23	72.4602	5,657.23	71.5418	5,657.23	73.0062	5,657.23	69.648	5,657.23	71.9704	5,657.23	66.0729	5,657.23	75.1544	5,657.23	72.7622	5,657.23	65.8991
5,856.45	83.337	5,856.45	83.6577	5,856.45	83.0567	5,856.45	80.3982	5,856.45	84.658	5,856.45	79.7766	5,856.45	85.2245	5,856.45	78.0857	5,856.45	83.6984	5,856.45	74.7366	5,856.45	80.5221	5,856.45	66.5509	5,856.45	76.6025	5,856.45	63.7873	5,856.45	70.0108	5,856.45	55.3814	5,856.45	65.619	5,856.45	62.6949	5,856.45	64.4334	5,856.45	60.9933	5,856.45	45.1992	5,856.45	61.3885	5,856.45	63.6432	5,856.45	65.0304	5,856.45	69.7152	5,856.45	68.9513	5,856.45	71.5684	5,856.45	72.4966	5,856.45	74.1281	5,856.45	71.9369	5,856.45	73.945	5,856.45	73.864	5,856.45	71.1638	5,856.45	74.1226	5,856.45	73.4279	5,856.45	69.9134
6,062.99	84.5173	6,062.99	85.3023	6,062.99	84.4896	6,062.99	82.6831	6,062.99	84.9354	6,062.99	80.5746	6,062.99	83.7395	6,062.99	77.372	6,062.99	78.1129	6,062.99	70.8174	6,062.99	63.2526	6,062.99	61.5439	6,062.99	73.8006	6,062.99	62.9518	6,062.99	77.6529	6,062.99	65.2912	6,062.99	75.7877	6,062.99	62.5101	6,062.99	69.9846	6,062.99	57.0272	6,062.99	62.0306	6,062.99	64.5215	6,062.99	66.3238	6,062.99	68.5198	6,062.99	61.966	6,062.99	71.23	6,062.99	57.7721	6,062.99	75.3128	6,062.99	70.1697	6,062.99	74.7701	6,062.99	72.9124	6,062.99	74.8847	6,062.99	71.0066	6,062.99	74.2146	6,062.99	73.5748	6,062.99	68.2914
6,276.86	83.7226	6,276.86	84.4002	6,276.86	82.3428	6,276.86	81.9866	6,276.86	81.0443	6,276.86	79.2214	6,276.86	76.915	6,276.86	74.6034	6,276.86	74.9267	6,276.86	74.1317	6,276.86	77.3585	6,276.86	71.7069	6,276.86	78.6436	6,276.86	70.8899	6,276.86	77.7964	6,276.86	68.5755	6,276.86	72.5096	6,276.86	59.4769	6,276.86	65.6277	6,276.86	52.7806	6,276.86	58.4973	6,276.86	66.4242	6,276.86	59.6757	6,276.86	68.349	6,276.86	65.8091	6,276.86	73.586	6,276.86	72.0823	6,276.86	75.43	6,276.86	70.7887	6,276.86	76.9352	6,276.86	70.4639	6,276.86	75.6378	6,276.86	68.8943	6,276.86	74.368	6,276.86	57.8194	6,276.86	64.2346
6,498.05	81.6555	6,498.05	83.355	6,498.05	79.3935	6,498.05	80.745	6,498.05	78.3761	6,498.05	78.9585	6,498.05	80.0297	6,498.05	78.0345	6,498.05	79.6347	6,498.05	77.5457	6,498.05	79.0354	6,498.05	73.3252	6,498.05	77.3447	6,498.05	72.5059	6,498.05	74.1918	6,498.05	68.5605	6,498.05	70.325	6,498.05	62.967	6,498.05	66.4289	6,498.05	54.6721	6,498.05	56.5941	6,498.05	64.6798	6,498.05	59.9174	6,498.05	63.8648	6,498.05	68.3024	6,498.05	69.4309	6,498.05	73.3499	6,498.05	72.5014	6,498.05	72.2093	6,498.05	76.0915	6,498.05	72.9984	6,498.05	73.6124	6,498.05	74.8681	6,498.05	72.7931	6,498.05	73.8187	6,498.05	67.9367
6,726.56	82.8941	6,726.56	84.2173	6,726.56	82.1304	6,726.56	83.1217	6,726.56	81.1932	6,726.56	80.5388	6,726.56	81.4096	6,726.56	79.2452	6,726.56	77.5935	6,726.56	75.8792	6,726.56	76.922	6,726.56	70.5087	6,726.56	72.1208	6,726.56	67.2434	6,726.56	71.3095	6,726.56	63.7763	6,726.56	68.2594	6,726.56	60.9849	6,726.56	61.2669	6,726.56	50.2108	6,726.56	54.7241	6,726.56	61.9741	6,726.56	65.1039	6,726.56	53.4462	6,726.56	64.1704	6,726.56	61.9975	6,726.56	71.3672	6,726.56	73.0352	6,726.56	70.5146	6,726.56	75.3798	6,726.56	68.0103	6,726.56	73.6436	6,726.56	74.073	6,726.56	75.648	6,726.56	74.206	6,726.56	67.7618
6,963.87	83.2815	6,963.87	84.4826	6,963.87	83.3614	6,963.87	84.2107	6,963.87	81.8434	6,963.87	80.8564	6,963.87	81.2953	6,963.87	77.3395	6,963.87	77.7948	6,963.87	69.6015	6,963.87	74.9468	6,963.87	67.0652	6,963.87	68.591	6,963.87	69.0477	6,963.87	69.425	6,963.87	65.7452	6,963.87	67.6881	6,963.87	62.0335	6,963.87	66.1461	6,963.87	40.0422	6,963.87	59.8881	6,963.87	57.986	6,963.87	65.6157	6,963.87	45.5901	6,963.87	65.9639	6,963.87	62.5893	6,963.87	68.1508	6,963.87	73.273	6,963.87	70.2697	6,963.87	75.3771	6,963.87	69.219	6,963.87	72.6668	6,963.87	72.1083	6,963.87	74.7915	6,963.87	72.398	6,963.87	67.5161
7,209.96	83.5559	7,209.96	84.0534	7,209.96	84.1285	7,209.96	82.9124	7,209.96	82.6597	7,209.96	79.1631	7,209.96	81.8268	7,209.96	73.2096	7,209.96	79.4572	7,209.96	68.8954	7,209.96	75.9096	7,209.96	71.7217	7,209.96	70.0473	7,209.96	69.6175	7,209.96	68.7109	7,209.96	65.7945	7,209.96	68.4864	7,209.96	61.0426	7,209.96	63.651	7,209.96	52.0454	7,209.96	50.3353	7,209.96	59.1499	7,209.96	63.3106	7,209.96	63.2973	7,209.96	65.6975	7,209.96	54.4584	7,209.96	63.4882	7,209.96	67.8632	7,209.96	65.0606	7,209.96	70.8328	7,209.96	68.2232	7,209.96	73.7893	7,209.96	65.9353	7,209.96	75.1837	7,209.96	68.7389	7,209.96	68.4679
7,464.84	83.8473	7,464.84	84.3829	7,464.84	83.4373	7,464.84	83.0397	7,464.84	81.8579	7,464.84	80.4974	7,464.84	79.9767	7,464.84	77.9635	7,464.84	77.4064	7,464.84	77.1887	7,464.84	72.0794	7,464.84	73.7876	7,464.84	66.8317	7,464.84	68.1068	7,464.84	67.2647	7,464.84	60.4975	7,464.84	66.2205	7,464.84	56.1793	7,464.84	64.2314	7,464.84	51.8378	7,464.84	55.5688	7,464.84	67.2233	7,464.84	64.1468	7,464.84	70.4916	7,464.84	65.5724	7,464.84	68.7644	7,464.84	68.1819	7,464.84	72.0333	7,464.84	62.4735	7,464.84	75.6871	7,464.84	60.5337	7,464.84	74.0444	7,464.84	62.045	7,464.84	72.0234	7,464.84	65.3588	7,464.84	64.8741
7,727.05	82.1871	7,727.05	82.8863	7,727.05	80.8788	7,727.05	82.0941	7,727.05	79.797	7,727.05	81.4368	7,727.05	77.4565	7,727.05	80.6959	7,727.05	76.8436	7,727.05	80.6788	7,727.05	72.4392	7,727.05	76.6445	7,727.05	70.4699	7,727.05	69.9586	7,727.05	69.1724	7,727.05	60.6968	7,727.05	67.5411	7,727.05	60.9315	7,727.05	62.7261	7,727.05	59.4801	7,727.05	57.8985	7,727.05	71.4138	7,727.05	65.636	7,727.05	69.8159	7,727.05	67.944	7,727.05	72.131	7,727.05	71.3019	7,727.05	72.8376	7,727.05	68.0951	7,727.05	72.1344	7,727.05	68.9136	7,727.05	65.0327	7,727.05	67.9894	7,727.05	65.4628	7,727.05	59.5306	7,727.05	60.9098
7,999.51	80.1876	7,999.51	80.755	7,999.51	80.4665	7,999.51	79.7022	7,999.51	80.6805	7,999.51	80.3361	7,999.51	78.5333	7,999.51	79.6059	7,999.51	76.7517	7,999.51	79.3341	7,999.51	75.1913	7,999.51	75.218	7,999.51	68.9277	7,999.51	66.7826	7,999.51	68.8619	7,999.51	52.1983	7,999.51	67.4493	7,999.51	58.8334	7,999.51	61.88	7,999.51	61.9169	7,999.51	57.8259	7,999.51	68.098	7,999.51	65.1658	7,999.51	67.2635	7,999.51	66.922	7,999.51	66.3198	7,999.51	66.6917	7,999.51	63.5251	7,999.51	66.9999	7,999.51	59.8753	7,999.51	66.7228	7,999.51	62.5647	7,999.51	65.0134	7,999.51	72.0383	7,999.51	61.0167	7,999.51	57.8412
8,282.23	81.3954	8,282.23	81.9621	8,282.23	81.6852	8,282.23	80.4662	8,282.23	80.91	8,282.23	79.9019	8,282.23	77.8716	8,282.23	77.3254	8,282.23	73.9191	8,282.23	76.3924	8,282.23	72.13	8,282.23	72.4908	8,282.23	64.1845	8,282.23	63.6112	8,282.23	64.0846	8,282.23	48.2985	8,282.23	62.403	8,282.23	57.326	8,282.23	58.0184	8,282.23	55.5283	8,282.23	45.0255	8,282.23	58.8702	8,282.23	53.5238	8,282.23	57.1494	8,282.23	62.0737	8,282.23	62.8815	8,282.23	60.9756	8,282.23	62.183	8,282.23	62.9892	8,282.23	63.679	8,282.23	48.666	8,282.23	67.0072	8,282.23	59.0129	8,282.23	67.3498	8,282.23	62.8677	8,282.23	62.0581
8,573.73	82.3034	8,573.73	82.9912	8,573.73	82.8505	8,573.73	80.6933	8,573.73	80.6297	8,573.73	78.9868	8,573.73	77.6797	8,573.73	74.5908	8,573.73	72.5577	8,573.73	73.4174	8,573.73	69.0821	8,573.73	68.7034	8,573.73	59.0714	8,573.73	58.3965	8,573.73	53.4573	8,573.73	56.3413	8,573.73	48.0122	8,573.73	57.34	8,573.73	55.6455	8,573.73	38.3958	8,573.73	45.0879	8,573.73	62.2243	8,573.73	51.4745	8,573.73	59.2991	8,573.73	57.383	8,573.73	64.3968	8,573.73	59.905	8,573.73	58.9386	8,573.73	65.5937	8,573.73	59.7715	8,573.73	57.5758	8,573.73	64.9884	8,573.73	57.8868	8,573.73	64.7001	8,573.73	64.5191	8,573.73	60.6654
8,876.95	83.7098	8,876.95	83.1656	8,876.95	82.5061	8,876.95	80.8096	8,876.95	80.0377	8,876.95	78.3205	8,876.95	76.1637	8,876.95	74.8403	8,876.95	68.2994	8,876.95	73.1961	8,876.95	59.5099	8,876.95	62.6622	8,876.95	63.8508	8,876.95	62.0498	8,876.95	66.5046	8,876.95	66.5193	8,876.95	64.9431	8,876.95	63.0632	8,876.95	61.6416	8,876.95	60.5911	8,876.95	39.9698	8,876.95	69.4578	8,876.95	47.5648	8,876.95	69.2893	8,876.95	55.5428	8,876.95	71.6587	8,876.95	53.1047	8,876.95	68.4173	8,876.95	67.6786	8,876.95	67.6515	8,876.95	61.0199	8,876.95	57.67	8,876.95	67.1221	8,876.95	55.0877	8,876.95	59.9276	8,876.95	59.0551
9,188.96	80.8648	9,188.96	82.3741	9,188.96	79.8802	9,188.96	80.5599	9,188.96	78.9441	9,188.96	79.6211	9,188.96	76.5908	9,188.96	77.3055	9,188.96	73.2186	9,188.96	74.0053	9,188.96	71.5185	9,188.96	60.4219	9,188.96	70.6392	9,188.96	64.9952	9,188.96	69.2094	9,188.96	67.5676	9,188.96	65.3994	9,188.96	61.0053	9,188.96	63.6546	9,188.96	59.5846	9,188.96	56.084	9,188.96	67.275	9,188.96	57.4766	9,188.96	66.9652	9,188.96	63.5134	9,188.96	70.2261	9,188.96	56.2468	9,188.96	66.2815	9,188.96	62.3633	9,188.96	65.3265	9,188.96	61.5615	9,188.96	62.8378	9,188.96	66.0358	9,188.96	63.0375	9,188.96	63.1658	9,188.96	68.8744
9,514.16	79.3354	9,514.16	80.4914	9,514.16	80.1534	9,514.16	79.5729	9,514.16	80.1274	9,514.16	78.1362	9,514.16	76.9109	9,514.16	75.967	9,514.16	73.5041	9,514.16	71.3823	9,514.16	72.3171	9,514.16	61.1657	9,514.16	68.3707	9,514.16	63.5596	9,514.16	62.5342	9,514.16	65.132	9,514.16	60.3763	9,514.16	56.5301	9,514.16	58.294	9,514.16	48.461	9,514.16	56.691	9,514.16	61.8132	9,514.16	58.7	9,514.16	56.3743	9,514.16	63.0289	9,514.16	68.1373	9,514.16	57.957	9,514.16	64.836	9,514.16	61.5688	9,514.16	63.7402	9,514.16	48.9884	9,514.16	66.8911	9,514.16	58.4538	9,514.16	68.9208	9,514.16	65.8963	9,514.16	66.855
9,849.61	80.2246	9,849.61	80.5	9,849.61	80.6002	9,849.61	79.9088	9,849.61	79.5529	9,849.61	78.8826	9,849.61	76.0398	9,849.61	74.8545	9,849.61	73.977	9,849.61	71.511	9,849.61	70.215	9,849.61	63.8542	9,849.61	59.8243	9,849.61	56.3188	9,849.61	40.4528	9,849.61	60.3158	9,849.61	48.541	9,849.61	54.6451	9,849.61	52.8678	9,849.61	52.4817	9,849.61	55.7492	9,849.61	57.3126	9,849.61	56.7862	9,849.61	57.6413	9,849.61	57.5095	9,849.61	65.7048	9,849.61	55.8685	9,849.61	62.2727	9,849.61	62.4737	9,849.61	66.7891	9,849.61	59.7075	9,849.61	66.7846	9,849.61	55.714	9,849.61	68.0606	9,849.61	67.1539	9,849.61	68.1934
10,196.8	80.8605	10,196.8	80.5537	10,196.8	80.6938	10,196.8	78.7376	10,196.8	78.4311	10,196.8	78.1663	10,196.8	76.3299	10,196.8	73.0782	10,196.8	73.8927	10,196.8	69.6376	10,196.8	65.2892	10,196.8	66.326	10,196.8	44.2213	10,196.8	55.1771	10,196.8	52.7035	10,196.8	57.0513	10,196.8	46.9407	10,196.8	43.2982	10,196.8	52.4491	10,196.8	48.4868	10,196.8	55.1116	10,196.8	49.2465	10,196.8	51.8488	10,196.8	57.6904	10,196.8	50.0694	10,196.8	61.1656	10,196.8	52.4943	10,196.8	61.0394	10,196.8	61.4661	10,196.8	65.0791	10,196.8	59.8189	10,196.8	67.1899	10,196.8	63.6511	10,196.8	68.3993	10,196.8	63.6625	10,196.8	68.8138
10,555.7	80.8461	10,555.7	81.093	10,555.7	80.0654	10,555.7	78.6934	10,555.7	77.7291	10,555.7	76.3355	10,555.7	74.9631	10,555.7	70.6347	10,555.7	68.8321	10,555.7	62.822	10,555.7	56.8329	10,555.7	65.654	10,555.7	58.8944	10,555.7	54.4974	10,555.7	58.2162	10,555.7	56.0084	10,555.7	59.0029	10,555.7	53.0598	10,555.7	43.3303	10,555.7	52.6824	10,555.7	47.7374	10,555.7	40.91	10,555.7	47.7462	10,555.7	43.0832	10,555.7	41.9778	10,555.7	54.2901	10,555.7	48.9177	10,555.7	47.3028	10,555.7	47.4406	10,555.7	68.7844	10,555.7	49.6008	10,555.7	71.0571	10,555.7	62.3471	10,555.7	67.6202	10,555.7	65.2569	10,555.7	68.318
10,927.7	81.2489	10,927.7	81.483	10,927.7	79.833	10,927.7	80.3414	10,927.7	77.2212	10,927.7	77.4909	10,927.7	72.6517	10,927.7	67.5029	10,927.7	63.5393	10,927.7	58.0994	10,927.7	64.6662	10,927.7	51.7371	10,927.7	65.2384	10,927.7	53.2104	10,927.7	63.4542	10,927.7	56.0971	10,927.7	61.4478	10,927.7	57.3315	10,927.7	54.3789	10,927.7	56.8227	10,927.7	54.9788	10,927.7	54.9832	10,927.7	50.466	10,927.7	56.869	10,927.7	53.301	10,927.7	51.0857	10,927.7	46.9778	10,927.7	57.9994	10,927.7	55.3381	10,927.7	70.8005	10,927.7	41.2552	10,927.7	69.586	10,927.7	60.113	10,927.7	66.8054	10,927.7	65.1065	10,927.7	68.5187
11,313	82.1833	11,313	82.0527	11,313	79.9672	11,313	81.4753	11,313	76.8607	11,313	77.3821	11,313	71.0201	11,313	69.2953	11,313	60.3394	11,313	60.9582	11,313	67.4364	11,313	58.4424	11,313	67.1202	11,313	61.7565	11,313	66.3369	11,313	63.1797	11,313	64.0617	11,313	51.2267	11,313	58.9713	11,313	53.2374	11,313	60.7623	11,313	56.1238	11,313	45.6974	11,313	50.6314	11,313	59.1015	11,313	56.2736	11,313	52.1385	11,313	63.8775	11,313	55.8331	11,313	70.7721	11,313	49.9533	11,313	66.3053	11,313	44.4725	11,313	59.3537	11,313	63.5923	11,313	67.496
11,712.9	79.1928	11,712.9	79.875	11,712.9	75.9871	11,712.9	80.5412	11,712.9	71.8488	11,712.9	78.8764	11,712.9	70.4061	11,712.9	75.9441	11,712.9	69.3359	11,712.9	64.6077	11,712.9	67.6788	11,712.9	61.0738	11,712.9	66.649	11,712.9	54.0863	11,712.9	65.8255	11,712.9	59.0173	11,712.9	61.9448	11,712.9	48.3885	11,712.9	61.9	11,712.9	54.7455	11,712.9	62.6703	11,712.9	46.9497	11,712.9	34.6206	11,712.9	50.4601	11,712.9	59.9647	11,712.9	55.8925	11,712.9	57.0967	11,712.9	57.2002	11,712.9	63.1811	11,712.9	60.0925	11,712.9	60.7183	11,712.9	54.8021	11,712.9	56.0496	11,712.9	66.1185	11,712.9	63.6423	11,712.9	56.6859
12,126	78.9678	12,126	79.1053	12,126	78.0165	12,126	78.2086	12,126	75.8368	12,126	76.4362	12,126	73.9786	12,126	73.6052	12,126	68.94	12,126	64.3824	12,126	60.332	12,126	66.3829	12,126	61.8519	12,126	61.7781	12,126	56.9065	12,126	55.5263	12,126	58.3199	12,126	53.1153	12,126	59.3832	12,126	57.2291	12,126	60.6622	12,126	40.8597	12,126	44.2218	12,126	53.2644	12,126	51.106	12,126	50.9436	12,126	51.0474	12,126	61.2377	12,126	49.1887	12,126	63.9105	12,126	62.285	12,126	61.9167	12,126	57.0718	12,126	64.8823	12,126	63.0761	12,126	62.4692
12,553.7	80.5994	12,553.7	80.4084	12,553.7	79.6834	12,553.7	77.608	12,553.7	76.9711	12,553.7	75.3865	12,553.7	74.8045	12,553.7	71.1999	12,553.7	67.1916	12,553.7	67.7301	12,553.7	57.278	12,553.7	65.3074	12,553.7	60.206	12,553.7	63.8363	12,553.7	52.8639	12,553.7	59.3069	12,553.7	57.9737	12,553.7	53.3653	12,553.7	48.3609	12,553.7	55.2643	12,553.7	52.3368	12,553.7	60.3518	12,553.7	50.306	12,553.7	47.3485	12,553.7	56.4872	12,553.7	52.2096	12,553.7	55.4338	12,553.7	61.5883	12,553.7	48.6091	12,553.7	65.7097	12,553.7	65.4157	12,553.7	53.8093	12,553.7	60.0541	12,553.7	65.5786	12,553.7	58.7547	12,553.7	64.1714
12,996.1	81.8845	12,996.1	81.2325	12,996.1	80.6819	12,996.1	78.3498	12,996.1	78.2879	12,996.1	75.2612	12,996.1	75.7645	12,996.1	72.3508	12,996.1	65.17	12,996.1	68.7227	12,996.1	53.4828	12,996.1	68.1902	12,996.1	56.6376	12,996.1	68.0723	12,996.1	50.4493	12,996.1	65.2996	12,996.1	64.011	12,996.1	59.2268	12,996.1	36.5097	12,996.1	59.3662	12,996.1	47.5742	12,996.1	66.8607	12,996.1	48.6796	12,996.1	56.7803	12,996.1	59.5951	12,996.1	40.9803	12,996.1	57.5089	12,996.1	58.3626	12,996.1	54.2343	12,996.1	65.8151	12,996.1	64.7005	12,996.1	47.6119	12,996.1	60.167	12,996.1	67.0568	12,996.1	57.503	12,996.1	67.5661
13,454.6	82.2342	13,454.6	80.661	13,454.6	81.5201	13,454.6	77.9074	13,454.6	79.7484	13,454.6	75.7739	13,454.6	76.1325	13,454.6	69.919	13,454.6	64.5571	13,454.6	68.2997	13,454.6	45.442	13,454.6	71.1641	13,454.6	55.818	13,454.6	70.5986	13,454.6	58.6717	13,454.6	64.528	13,454.6	65.9277	13,454.6	59.5639	13,454.6	55.0793	13,454.6	59.7156	13,454.6	48.8174	13,454.6	66.8516	13,454.6	53.0838	13,454.6	60.9985	13,454.6	56.6501	13,454.6	61.0325	13,454.6	61.9553	13,454.6	57.3942	13,454.6	59.2564	13,454.6	60.3789	13,454.6	63.1912	13,454.6	58.6009	13,454.6	59.7245	13,454.6	68.4331	13,454.6	58.3493	13,454.6	68.2986
13,929.2	81.3719	13,929.2	80.1483	13,929.2	81.534	13,929.2	78.7041	13,929.2	79.4413	13,929.2	74.2713	13,929.2	76.9643	13,929.2	57.6486	13,929.2	67.3739	13,929.2	61.4497	13,929.2	57.6999	13,929.2	69.9271	13,929.2	58.2422	13,929.2	68.2454	13,929.2	55.9089	13,929.2	59.2476	13,929.2	63.3702	13,929.2	61.5104	13,929.2	53.4799	13,929.2	48.9122	13,929.2	54.9931	13,929.2	59.2287	13,929.2	48.5586	13,929.2	61.1665	13,929.2	40.1451	13,929.2	62.0316	13,929.2	58.5587	13,929.2	62.8833	13,929.2	62.1479	13,929.2	61.7758	13,929.2	61.0079	13,929.2	56.998	13,929.2	63.7523	13,929.2	61.9733	13,929.2	59.9625	13,929.2	61.6294
14,419.9	79.5251	14,419.9	79.1081	14,419.9	80.1124	14,419.9	78.3472	14,419.9	78.6321	14,419.9	75.1044	14,419.9	76.9852	14,419.9	68.8679	14,419.9	66.7998	14,419.9	59.8006	14,419.9	60.6951	14,419.9	57.1924	14,419.9	62.6146	14,419.9	59.2224	14,419.9	53.0701	14,419.9	39.6436	14,419.9	58.7557	14,419.9	60.5978	14,419.9	53.987	14,419.9	38.0989	14,419.9	49.8248	14,419.9	58.3788	14,419.9	54.0923	14,419.9	42.8099	14,419.9	55.7397	14,419.9	63.6093	14,419.9	31.7106	14,419.9	66.6808	14,419.9	58.788	14,419.9	58.0056	14,419.9	59.0543	14,419.9	54.5142	14,419.9	67.0333	14,419.9	55.9725	14,419.9	63.8051	14,419.9	68.0662
14,928.2	73.93	14,928.2	73.014	14,928.2	75.1796	14,928.2	73.5862	14,928.2	75.1143	14,928.2	71.9367	14,928.2	73.5029	14,928.2	68.1029	14,928.2	68.0945	14,928.2	61.4232	14,928.2	60.5954	14,928.2	62.9742	14,928.2	59.8345	14,928.2	51.7956	14,928.2	50.0763	14,928.2	52.4225	14,928.2	50.4835	14,928.2	44.3029	14,928.2	45.8798	14,928.2	47.0717	14,928.2	45.9262	14,928.2	49.6734	14,928.2	49.6859	14,928.2	47.5725	14,928.2	51.4639	14,928.2	63.802	14,928.2	50.8972	14,928.2	61.1186	14,928.2	48.1219	14,928.2	48.2481	14,928.2	56.6477	14,928.2	57.7304	14,928.2	66.2639	14,928.2	58.8331	14,928.2	61.3655	14,928.2	60.2149
15,455.6	66.518	15,455.6	65.989	15,455.6	65.2664	15,455.6	68.7184	15,455.6	67.0725	15,455.6	67.5419	15,455.6	66.7892	15,455.6	64.7088	15,455.6	64.5277	15,455.6	62.8406	15,455.6	53.5994	15,455.6	65.1996	15,455.6	56.5958	15,455.6	55.5501	15,455.6	35.8141	15,455.6	56.7674	15,455.6	50.1582	15,455.6	44.3283	15,455.6	53.7744	15,455.6	43.8948	15,455.6	55.9584	15,455.6	52.4534	15,455.6	51.8566	15,455.6	51.7025	15,455.6	48.1606	15,455.6	42.4154	15,455.6	51.9391	15,455.6	52.1584	15,455.6	54.3498	15,455.6	55.1535	15,455.6	42.727	15,455.6	59.6562	15,455.6	59.5898	15,455.6	56.6395	15,455.6	55.2889	15,455.6	62.269
16,000.5	65.3481	16,000.5	56.6826	16,000.5	61.4367	16,000.5	63.8579	16,000.5	63.7254	16,000.5	62.2932	16,000.5	59.687	16,000.5	61.1028	16,000.5	52.9756	16,000.5	63.2068	16,000.5	46.0962	16,000.5	66.7897	16,000.5	53.0406	16,000.5	62.2491	16,000.5	54.2946	16,000.5	56.6299	16,000.5	42.9711	16,000.5	52.0672	16,000.5	53.0213	16,000.5	51.6788	16,000.5	54.6205	16,000.5	55.1298	16,000.5	53.188	16,000.5	53.8765	16,000.5	48.9139	16,000.5	57.1905	16,000.5	52.5891	16,000.5	50.8324	16,000.5	51.7504	16,000.5	56.4996	16,000.5	48.4629	16,000.5	53.2183	16,000.5	54.5764	16,000.5	51.6707	16,000.5	44.1706	16,000.5	63.6743
16,564.5	65.4298	16,564.5	55.9184	16,564.5	62.1917	16,564.5	51.7598	16,564.5	54.8666	16,564.5	61.1515	16,564.5	57.2282	16,564.5	47.1742	16,564.5	54.9967	16,564.5	60.8017	16,564.5	46.9963	16,564.5	62.8352	16,564.5	40.5904	16,564.5	59.2944	16,564.5	43.3212	16,564.5	51.7485	16,564.5	46.6853	16,564.5	51.5863	16,564.5	52.4965	16,564.5	43.2637	16,564.5	44.9612	16,564.5	53.2726	16,564.5	47.8723	16,564.5	51.3999	16,564.5	43.1868	16,564.5	59.0478	16,564.5	44.9656	16,564.5	56.0339	16,564.5	51.0284	16,564.5	51.9561	16,564.5	54.0563	16,564.5	41.1968	16,564.5	42.3676	16,564.5	53.0044	16,564.5	48.5915	16,564.5	57.3651
17,148.9	65.6139	17,148.9	61.2887	17,148.9	61.4309	17,148.9	49.0306	17,148.9	57.1102	17,148.9	60.9917	17,148.9	53.6505	17,148.9	58.0588	17,148.9	49.4055	17,148.9	58.0634	17,148.9	50.7186	17,148.9	56.4639	17,148.9	47.4931	17,148.9	55.1743	17,148.9	47.0922	17,148.9	54.8937	17,148.9	51.0567	17,148.9	41.7525	17,148.9	48.3556	17,148.9	49.9344	17,148.9	40.7599	17,148.9	50.3239	17,148.9	40.3908	17,148.9	49.5266	17,148.9	41.6771	17,148.9	54.9047	17,148.9	41.1509	17,148.9	43.3618	17,148.9	49.8942	17,148.9	51.9198	17,148.9	45.5636	17,148.9	36.7276	17,148.9	41.978	17,148.9	48.2123	17,148.9	47.8059	17,148.9	50.3146
17,752.4	66.9271	17,752.4	63.262	17,752.4	61.4347	17,752.4	50.6414	17,752.4	52.1546	17,752.4	58.1461	17,752.4	52.1562	17,752.4	57.7448	17,752.4	53.4497	17,752.4	55.2708	17,752.4	36.0735	17,752.4	47.4266	17,752.4	49.1797	17,752.4	52.4246	17,752.4	47.6384	17,752.4	48.395	17,752.4	46.0278	17,752.4	39.6755	17,752.4	41.8038	17,752.4	44.7735	17,752.4	41.87	17,752.4	49.0857	17,752.4	44.2687	17,752.4	44.8222	17,752.4	37.8564	17,752.4	47.6874	17,752.4	42.0821	17,752.4	52.3246	17,752.4	34.5978	17,752.4	48.8158	17,752.4	42.5269	17,752.4	36.8594	17,752.4	47.232	17,752.4	42.044	17,752.4	44.6622	17,752.4	49.0005
18,379.4	65.5515	18,379.4	63.8829	18,379.4	59.1777	18,379.4	50.5643	18,379.4	44.7931	18,379.4	56.3836	18,379.4	49.9392	18,379.4	56.7555	18,379.4	49.9502	18,379.4	28.5511	18,379.4	49.7176	18,379.4	46.5066	18,379.4	45.2509	18,379.4	46.8176	18,379.4	39.3579	18,379.4	42.6487	18,379.4	39.6809	18,379.4	43.0272	18,379.4	47.3059	18,379.4	32.6594	18,379.4	29.3652	18,379.4	49.1191	18,379.4	44.9805	18,379.4	45.5066	18,379.4	37.0339	18,379.4	53.4002	18,379.4	44.1612	18,379.4	51.9612	18,379.4	42.4027	18,379.4	47.9202	18,379.4	34.322	18,379.4	44.3696	18,379.4	41.9577	18,379.4	45.7249	18,379.4	40.2267	18,379.4	46.4867
19,026.9	65.5779	19,026.9	63.9758	19,026.9	60.036	19,026.9	38.6112	19,026.9	47.3121	19,026.9	59.3979	19,026.9	50.5971	19,026.9	57.161	19,026.9	47.9963	19,026.9	47.9607	19,026.9	45.4905	19,026.9	43.8612	19,026.9	38.759	19,026.9	43.638	19,026.9	37.45	19,026.9	41.4041	19,026.9	38.9939	19,026.9	43.8684	19,026.9	46.3111	19,026.9	36.4584	19,026.9	37.5596	19,026.9	42.71	19,026.9	34.6606	19,026.9	35.3027	19,026.9	37.2676	19,026.9	47.4275	19,026.9	44.4662	19,026.9	51.6529	19,026.9	29.0272	19,026.9	49.6219	19,026.9	36.0672	19,026.9	46.2865	19,026.9	38.7348	19,026.9	36.4248	19,026.9	48.3105	19,026.9	39.3866
19,697.8	63.4484	19,697.8	63.13	19,697.8	55.8483	19,697.8	51.9593	19,697.8	44.0359	19,697.8	58.5416	19,697.8	52.35	19,697.8	55.4446	19,697.8	47.1857	19,697.8	48.6039	19,697.8	48.0356	19,697.8	41.3608	19,697.8	21.7804	19,697.8	44.2426	19,697.8	35.4783	19,697.8	45.9779	19,697.8	27.1637	19,697.8	36.335	19,697.8	46.5376	19,697.8	39.511	19,697.8	36.0067	19,697.8	31.0665	19,697.8	34.4831	19,697.8	35.4136	19,697.8	33.9966	19,697.8	46.3977	19,697.8	42.7265	19,697.8	47.8327	19,697.8	36.2183	19,697.8	49.3932	19,697.8	42.7149	19,697.8	47.9098	19,697.8	43.9958	19,697.8	37.2498	19,697.8	46.9552	19,697.8	25.9804
19,999.5	62.5864	19,999.5	63.3221	19,999.5	53.8343	19,999.5	51.6061	19,999.5	39.4727	19,999.5	58.0299	19,999.5	52.1316	19,999.5	56.0054	19,999.5	44.7912	19,999.5	48.0037	19,999.5	48.7837	19,999.5	46.9485	19,999.5	33.6628	19,999.5	46.5103	19,999.5	40.3928	19,999.5	44.8655	19,999.5	39.1285	19,999.5	37.21	19,999.5	45.5375	19,999.5	40.7954	19,999.5	31.107	19,999.5	41.7907	19,999.5	36.3013	19,999.5	39.6101	19,999.5	39.149	19,999.5	47.256	19,999.5	44.1767	19,999.5	46.9197	19,999.5	37.485	19,999.5	50.4078	19,999.5	46.7523	19,999.5	48.632	19,999.5	44.5981	19,999.5	42.0072	19,999.5	48.6117	19,999.5	38.2122
