"SPL Vertical"																																																																							
"On-Axis"		"10°"		"-10°"		"20°"		"-20°"		"30°"		"-30°"		"40°"		"-40°"		"50°"		"-50°"		"60°"		"-60°"		"70°"		"-70°"		"80°"		"-80°"		"90°"		"-90°"		"100°"		"-100°"		"110°"		"-110°"		"120°"		"-120°"		"130°"		"-130°"		"140°"		"-140°"		"150°"		"-150°"		"160°"		"-160°"		"170°"		"-170°"		"180°"	
"Frequency [Hz]"	"Sound Pessure Level [dB]  / [2.83V 1m] "	"Frequency [Hz]"	"Sound Pessure Level [dB]  / [2.83V 1m] "	"Frequency [Hz]"	"Sound Pessure Level [dB]  / [2.83V 1m] "	"Frequency [Hz]"	"Sound Pessure Level [dB]  / [2.83V 1m] "	"Frequency [Hz]"	"Sound Pessure Level [dB]  / [2.83V 1m] "	"Frequency [Hz]"	"Sound Pessure Level [dB]  / [2.83V 1m] "	"Frequency [Hz]"	"Sound Pessure Level [dB]  / [2.83V 1m] "	"Frequency [Hz]"	"Sound Pessure Level [dB]  / [2.83V 1m] "	"Frequency [Hz]"	"Sound Pessure Level [dB]  / [2.83V 1m] "	"Frequency [Hz]"	"Sound Pessure Level [dB]  / [2.83V 1m] "	"Frequency [Hz]"	"Sound Pessure Level [dB]  / [2.83V 1m] "	"Frequency [Hz]"	"Sound Pessure Level [dB]  / [2.83V 1m] "	"Frequency [Hz]"	"Sound Pessure Level [dB]  / [2.83V 1m] "	"Frequency [Hz]"	"Sound Pessure Level [dB]  / [2.83V 1m] "	"Frequency [Hz]"	"Sound Pessure Level [dB]  / [2.83V 1m] "	"Frequency [Hz]"	"Sound Pessure Level [dB]  / [2.83V 1m] "	"Frequency [Hz]"	"Sound Pessure Level [dB]  / [2.83V 1m] "	"Frequency [Hz]"	"Sound Pessure Level [dB]  / [2.83V 1m] "	"Frequency [Hz]"	"Sound Pessure Level [dB]  / [2.83V 1m] "	"Frequency [Hz]"	"Sound Pessure Level [dB]  / [2.83V 1m] "	"Frequency [Hz]"	"Sound Pessure Level [dB]  / [2.83V 1m] "	"Frequency [Hz]"	"Sound Pessure Level [dB]  / [2.83V 1m] "	"Frequency [Hz]"	"Sound Pessure Level [dB]  / [2.83V 1m] "	"Frequency [Hz]"	"Sound Pessure Level [dB]  / [2.83V 1m] "	"Frequency [Hz]"	"Sound Pessure Level [dB]  / [2.83V 1m] "	"Frequency [Hz]"	"Sound Pessure Level [dB]  / [2.83V 1m] "	"Frequency [Hz]"	"Sound Pessure Level [dB]  / [2.83V 1m] "	"Frequency [Hz]"	"Sound Pessure Level [dB]  / [2.83V 1m] "	"Frequency [Hz]"	"Sound Pessure Level [dB]  / [2.83V 1m] "	"Frequency [Hz]"	"Sound Pessure Level [dB]  / [2.83V 1m] "	"Frequency [Hz]"	"Sound Pessure Level [dB]  / [2.83V 1m] "	"Frequency [Hz]"	"Sound Pessure Level [dB]  / [2.83V 1m] "	"Frequency [Hz]"	"Sound Pessure Level [dB]  / [2.83V 1m] "	"Frequency [Hz]"	"Sound Pessure Level [dB]  / [2.83V 1m] "	"Frequency [Hz]"	"Sound Pessure Level [dB]  / [2.83V 1m] "	"Frequency [Hz]"	"Sound Pessure Level [dB]  / [2.83V 1m] "
20.5078	46.6265	20.5078	46.2929	20.5078	46.7346	20.5078	45.733	20.5078	46.5928	20.5078	44.9206	20.5078	46.1437	20.5078	43.7971	20.5078	45.279	20.5078	42.2514	20.5078	43.7926	20.5078	40.0665	20.5078	41.2476	20.5078	36.764	20.5078	36.4517	20.5078	31.0925	20.5078	27.2467	20.5078	26.5925	20.5078	36.7537	20.5078	34.5206	20.5078	42.6454	20.5078	39.4369	20.5078	46.0284	20.5078	42.6464	20.5078	48.1847	20.5078	44.9671	20.5078	49.5763	20.5078	46.731	20.5078	50.4314	20.5078	48.1	20.5078	50.8853	20.5078	49.1626	20.5078	51.0237	20.5078	49.969	20.5078	50.9007	20.5078	50.5457
21.9727	48.8499	21.9727	48.5405	21.9727	48.9619	21.9727	48.0361	21.9727	48.8551	21.9727	47.3203	21.9727	48.4832	21.9727	46.3556	21.9727	47.7629	21.9727	45.075	21.9727	46.5486	21.9727	43.3639	21.9727	44.5703	21.9727	41.0287	21.9727	41.2784	21.9727	37.7964	21.9727	35.8591	21.9727	34.1822	21.9727	36.1637	21.9727	35.0745	21.9727	42.159	21.9727	39.1995	21.9727	45.965	21.9727	42.5692	21.9727	48.3691	21.9727	45.0763	21.9727	49.9084	21.9727	46.9809	21.9727	50.8539	21.9727	48.451	21.9727	51.3615	21.9727	49.5849	21.9727	51.5277	21.9727	50.4396	21.9727	51.4116	21.9727	51.0455
23.4375	50.8861	23.4375	50.6354	23.4375	50.9605	23.4375	50.2121	23.4375	50.8384	23.4375	49.6036	23.4375	50.4775	23.4375	48.7796	23.4375	49.8034	23.4375	47.6847	23.4375	48.687	23.4375	46.2224	23.4375	46.8902	23.4375	44.214	23.4375	43.8957	23.4375	41.2787	23.4375	38.0904	23.4375	36.3383	23.4375	22.8134	23.4375	22.7366	23.4375	39.5398	23.4375	32.8739	23.4375	45.0319	23.4375	39.976	23.4375	48.0324	23.4375	43.8	23.4375	49.8576	23.4375	46.3519	23.4375	50.9585	23.4375	48.1916	23.4375	51.5513	23.4375	49.5516	23.4375	51.7556	23.4375	50.5468	23.4375	51.6393	23.4375	51.2349
24.9023	51.4173	24.9023	51.1178	24.9023	51.5179	24.9023	50.6199	24.9023	51.3989	24.9023	49.9043	24.9023	51.0145	24.9023	48.9279	24.9023	50.2803	24.9023	47.6108	24.9023	49.0449	24.9023	45.8049	24.9023	47.0126	24.9023	43.2067	24.9023	43.4799	24.9023	39.0378	24.9023	35.7843	24.9023	29.9679	24.9023	33.1599	24.9023	31.0857	24.9023	43.2433	24.9023	39.9275	24.9023	47.7135	24.9023	44.2984	24.9023	50.3533	24.9023	47.1529	24.9023	52.0145	24.9023	49.2103	24.9023	53.0383	24.9023	50.7536	24.9023	53.6026	24.9023	51.9204	24.9023	53.8118	24.9023	52.7839	24.9023	53.7275	24.9023	53.3819
26.3672	52.9514	26.3672	52.6555	26.3672	53.0465	26.3672	52.1595	26.3672	52.92	26.3672	51.4448	26.3672	52.5254	26.3672	50.4683	26.3672	51.7781	26.3672	49.1509	26.3672	50.5248	26.3672	47.3456	26.3672	48.4658	26.3672	44.7517	26.3672	44.8814	26.3672	40.6037	26.3672	36.984	26.3672	31.7734	26.3672	34.9174	26.3672	32.7868	26.3672	44.8486	26.3672	41.462	26.3672	49.2728	26.3672	45.817	26.3672	51.8915	26.3672	48.6666	26.3672	53.5409	26.3672	50.7217	26.3672	54.5578	26.3672	52.2639	26.3672	55.1178	26.3672	53.4301	26.3672	55.3243	26.3672	54.2935	26.3672	55.2384	26.3672	54.8919
27.832	55.0795	27.832	54.7878	27.832	55.1891	27.832	54.3155	27.832	55.0981	27.832	53.6475	27.832	54.7661	27.832	52.7493	27.832	54.1214	27.832	51.5581	27.832	53.0384	27.832	49.9616	27.832	51.2844	27.832	47.7439	27.832	48.3541	27.832	44.4135	27.832	42.6698	27.832	38.3602	27.832	14.8965	27.832	16.9499	27.832	43.5565	27.832	39.6683	27.832	49.276	27.832	45.4758	27.832	52.3618	27.832	48.8798	27.832	54.2389	27.832	51.2241	27.832	55.3788	27.832	52.9397	27.832	56.0052	27.832	54.217	27.832	56.242	27.832	55.1522	27.832	56.1597	27.832	55.7938
29.2969	56.5241	29.2969	56.2342	29.2969	56.6317	29.2969	55.7631	29.2969	56.5387	29.2969	55.0955	29.2969	56.2055	29.2969	54.1966	29.2969	55.5608	29.2969	53.0028	29.2969	54.4803	29.2969	51.4008	29.2969	52.7339	29.2969	49.1724	29.2969	49.8232	29.2969	45.8187	29.2969	44.206	29.2969	39.6927	29.2969	18.5263	29.2969	20.4651	29.2969	44.8593	29.2969	41.2821	29.2969	50.6357	29.2969	47.0193	29.2969	53.7463	29.2969	50.3973	29.2969	55.6404	29.2969	52.7265	29.2969	56.7946	29.2969	54.4308	29.2969	57.4338	29.2969	55.6982	29.2969	57.6825	29.2969	56.6237	29.2969	57.6112	29.2969	57.2556
30.7617	57.9258	30.7617	57.6284	30.7617	58.0391	30.7617	57.1477	30.7617	57.9503	30.7617	56.468	30.7617	57.6203	30.7617	55.5539	30.7617	56.9787	30.7617	54.3407	30.7617	55.9029	30.7617	52.7126	30.7617	54.1656	30.7617	50.445	30.7617	51.2772	30.7617	47.0188	30.7617	45.7418	30.7617	40.68	30.7617	25.4849	30.7617	25.0746	30.7617	46.1565	30.7617	43.0162	30.7617	51.9745	30.7617	48.5825	30.7617	55.1065	30.7617	51.9003	30.7617	57.0158	30.7617	54.1989	30.7617	58.1825	30.7617	55.885	30.7617	58.8326	30.7617	57.1401	30.7617	59.0908	30.7617	58.0565	30.7617	59.0281	30.7617	58.6803
32.2266	59.2468	32.2266	58.9556	32.2266	59.3507	32.2266	58.4783	32.2266	59.2486	32.2266	57.7996	32.2266	58.8997	32.2266	56.8841	32.2266	58.2311	32.2266	55.6668	32.2266	57.1147	32.2266	54.0307	32.2266	55.3104	32.2266	51.7478	32.2266	52.2879	32.2266	48.2886	32.2266	46.3368	32.2266	41.8415	32.2266	27.7487	32.2266	27.8468	32.2266	48.219	32.2266	44.578	32.2266	53.7113	32.2266	50.0633	32.2266	56.7274	32.2266	53.3562	32.2266	58.5773	32.2266	55.6458	32.2266	59.7079	32.2266	57.33	32.2266	60.3337	32.2266	58.5874	32.2266	60.5744	32.2266	59.5089	32.2266	60.4984	32.2266	60.1405
33.6914	60.7083	33.6914	60.4182	33.6914	60.8105	33.6914	59.9418	33.6914	60.7059	33.6914	59.2642	33.6914	60.354	33.6914	58.3505	33.6914	59.682	33.6914	57.1369	33.6914	58.5626	33.6914	55.5082	33.6914	56.7569	33.6914	53.2406	33.6914	53.7383	33.6914	49.8164	33.6914	47.8093	33.6914	43.4838	33.6914	26.936	33.6914	27.2647	33.6914	49.547	33.6914	45.7766	33.6914	55.0763	33.6914	51.3625	33.6914	58.1044	33.6914	54.691	33.6914	59.9605	33.6914	56.9994	33.6914	61.0948	33.6914	58.6958	33.6914	61.7227	33.6914	59.9618	33.6914	61.9639	33.6914	60.8898	33.6914	61.8867	33.6914	61.5259
35.1563	62.1745	35.1563	61.8831	35.1563	62.2776	35.1563	61.4056	35.1563	62.1736	35.1563	60.7275	35.1563	61.822	35.1563	59.8153	35.1563	61.1506	35.1563	58.6065	35.1563	60.0328	35.1563	56.9894	35.1563	58.2324	35.1563	54.7469	35.1563	55.2296	35.1563	51.3818	35.1563	49.3636	35.1563	45.2479	35.1563	26.7588	35.1563	24.8414	35.1563	50.84	35.1563	46.7951	35.1563	56.4183	35.1563	52.5478	35.1563	59.4597	35.1563	55.9359	35.1563	61.3198	35.1563	58.2765	35.1563	62.4541	35.1563	59.9942	35.1563	63.0795	35.1563	61.2763	35.1563	63.3161	35.1563	62.217	35.1563	63.2326	35.1563	62.8635
36.6211	63.5844	36.6211	63.2885	36.6211	63.6915	36.6211	62.806	36.6211	63.591	36.6211	62.1227	36.6211	63.2426	36.6211	61.2052	36.6211	62.5748	36.6211	59.9915	36.6211	61.4621	36.6211	58.3703	36.6211	59.671	36.6211	56.1255	36.6211	56.6892	36.6211	52.7618	36.6211	50.8943	36.6211	46.6445	36.6211	26.5325	36.6211	26.6325	36.6211	52.1044	36.6211	48.1333	36.6211	57.7417	36.6211	53.8951	36.6211	60.8043	36.6211	57.2881	36.6211	62.6758	36.6211	59.6329	36.6211	63.8172	36.6211	61.3545	36.6211	64.447	36.6211	62.6403	36.6211	64.686	36.6211	63.5842	36.6211	64.603	36.6211	64.2329
38.0859	64.8709	38.0859	64.575	38.0859	64.9756	38.0859	64.0902	38.0859	64.8695	38.0859	63.403	38.0859	64.5115	38.0859	62.4798	38.0859	63.8284	38.0859	61.2589	38.0859	62.6918	38.0859	59.6282	38.0859	60.8604	38.0859	57.37	38.0859	57.7983	38.0859	53.9832	38.0859	51.7544	38.0859	47.8075	38.0859	33.0474	38.0859	30.9097	38.0859	53.8336	38.0859	49.5785	38.0859	59.2764	38.0859	55.2654	38.0859	62.2702	38.0859	58.6382	38.0859	64.1062	38.0859	60.977	38.0859	65.2256	38.0859	62.699	38.0859	65.8398	38.0859	63.9885	38.0859	66.0667	38.0859	64.9383	38.0859	65.9735	38.0859	65.5946
39.5508	66.1538	39.5508	65.8567	39.5508	66.2576	39.5508	65.3691	39.5508	66.1482	39.5508	64.6777	39.5508	65.7839	39.5508	63.7493	39.5508	65.0905	39.5508	62.5222	39.5508	63.9375	39.5508	60.8845	39.5508	62.0786	39.5508	58.6179	39.5508	58.962	39.5508	55.2193	39.5508	52.7466	39.5508	49.0188	39.5508	36.7627	39.5508	33.1246	39.5508	55.3869	39.5508	50.907	39.5508	60.7086	39.5508	56.5629	39.5508	63.6576	39.5508	59.9288	39.5508	65.4697	39.5508	62.2676	39.5508	66.5738	39.5508	63.9928	39.5508	67.1768	39.5508	65.2875	39.5508	67.3945	39.5508	66.2436	39.5508	67.2933	39.5508	66.9069
41.0156	67.5745	41.0156	67.2698	41.0156	67.6895	41.0156	66.7784	41.0156	67.5954	41.0156	66.088	41.0156	67.2522	41.0156	65.1675	41.0156	66.5893	41.0156	63.9592	41.0156	65.4834	41.0156	62.3594	41.0156	63.7063	41.0156	60.17	41.0156	60.7612	41.0156	56.9548	41.0156	55.1037	41.0156	51.4468	41.0156	30.3581	41.0156	41.2706	41.0156	55.7564	41.0156	51.7221	41.0156	61.5045	41.0156	57.4717	41.0156	64.6004	41.0156	60.9114	41.0156	66.4846	41.0156	63.2953	41.0156	67.6293	41.0156	65.0499	41.0156	68.2561	41.0156	66.3644	41.0156	68.487	41.0156	67.3333	41.0156	68.391	41.0156	68.0034
42.4805	68.588	42.4805	68.2683	42.4805	68.7088	42.4805	67.752	42.4805	68.6114	42.4805	67.0245	42.4805	68.2546	42.4805	66.0507	42.4805	67.5651	42.4805	64.7652	42.4805	66.4138	42.4805	63.0472	42.4805	64.5576	42.4805	60.656	42.4805	61.4564	42.4805	57.0155	42.4805	55.3794	42.4805	50.019	42.4805	44.2824	42.4805	39.6064	42.4805	58.0168	42.4805	54.2578	42.4805	63.2343	42.4805	59.478	42.4805	66.1637	42.4805	62.6798	42.4805	67.9738	42.4805	64.9343	42.4805	69.0825	42.4805	66.6099	42.4805	69.6932	42.4805	67.873	42.4805	69.9203	42.4805	68.8078	42.4805	69.8296	42.4805	69.4555
43.9453	69.5768	43.9453	69.246	43.9453	69.7113	43.9453	68.7214	43.9453	69.6303	43.9453	67.9895	43.9453	69.2936	43.9453	67.017	43.9453	68.6302	43.9453	65.7414	43.9453	67.5157	43.9453	64.0484	43.9453	65.7178	43.9453	61.7127	43.9453	62.727	43.9453	58.2108	43.9453	56.9305	43.9453	51.8024	43.9453	37.3408	43.9453	41.5858	43.9453	58.1793	43.9453	54.7251	43.9453	63.7863	43.9453	60.076	43.9453	66.8429	43.9453	63.3454	43.9453	68.7137	43.9453	65.6421	43.9453	69.8551	43.9453	67.3476	43.9453	70.4832	43.9453	68.6334	43.9453	70.7173	43.9453	69.5854	43.9453	70.626	43.9453	70.2451
45.4102	70.4004	45.4102	70.0889	45.4102	70.5111	45.4102	69.5802	45.4102	70.3997	45.4102	68.8615	45.4102	70.0223	45.4102	67.8996	45.4102	69.3007	45.4102	66.632	45.4102	68.0961	45.4102	64.9439	45.4102	66.142	45.4102	62.6094	45.4102	62.8241	45.4102	59.1055	45.4102	55.9724	45.4102	52.725	45.4102	47.9692	45.4102	43.8266	45.4102	60.7339	45.4102	55.8091	45.4102	65.5853	45.4102	61.074	45.4102	68.3474	45.4102	64.3174	45.4102	70.0512	45.4102	66.6041	45.4102	71.0809	45.4102	68.3088	45.4102	71.6282	45.4102	69.6014	45.4102	71.8021	45.4102	70.5681	45.4102	71.6655	45.4102	71.2513
46.875	71.3873	46.875	71.0929	46.875	71.4789	46.875	70.6007	46.875	71.3457	46.875	69.8995	46.875	70.9436	46.875	68.959	46.875	70.1946	46.875	67.7211	46.875	68.9606	46.875	66.0789	46.875	66.9763	46.875	63.8234	46.875	63.6279	46.875	60.4793	46.875	56.7393	46.875	54.5502	46.875	48.8149	46.875	42.3835	46.875	61.5232	46.875	55.8789	46.875	66.3689	46.875	61.5524	46.875	69.1372	46.875	64.9523	46.875	70.8537	46.875	67.3243	46.875	71.8988	46.875	69.0831	46.875	72.4607	46.875	70.4116	46.875	72.6453	46.875	71.4011	46.875	72.5136	46.875	72.0965
48.3398	72.6009	48.3398	72.3022	48.3398	72.6952	48.3398	71.8029	48.3398	72.564	48.3398	71.0905	48.3398	72.1642	48.3398	70.1325	48.3398	71.4192	48.3398	68.867	48.3398	70.1924	48.3398	67.1796	48.3398	68.2216	48.3398	64.8436	48.3398	64.8997	48.3398	61.3249	48.3398	58.0532	48.3398	54.7654	48.3398	48.3466	48.3398	40.4562	48.3398	62.523	48.3398	57.6641	48.3398	67.474	48.3398	63.1281	48.3398	70.283	48.3398	66.4232	48.3398	72.0244	48.3398	68.7297	48.3398	73.0889	48.3398	70.4413	48.3398	73.6685	48.3398	71.7331	48.3398	73.871	48.3398	72.6927	48.3398	73.7584	48.3398	73.3629
51.2695	73.9725	51.2695	73.6452	51.2695	74.0916	51.2695	73.1138	51.2695	73.9808	51.2695	72.3664	51.2695	73.5968	51.2695	71.3712	51.2695	72.8623	51.2695	70.0663	51.2695	71.6398	51.2695	68.3364	51.2695	69.6639	51.2695	65.9502	51.2695	66.3163	51.2695	62.356	51.2695	59.3496	51.2695	55.5908	51.2695	50.4534	51.2695	43.6682	51.2695	64.1732	51.2695	59.1487	51.2695	69.0672	51.2695	64.4958	51.2695	71.8507	51.2695	67.765	51.2695	73.5737	51.2695	70.0746	51.2695	74.6205	51.2695	71.8029	51.2695	75.181	51.2695	73.1186	51.2695	75.3619	51.2695	74.1052	51.2695	75.2252	51.2695	74.8031
52.7344	74.1962	52.7344	73.8578	52.7344	74.3245	52.7344	73.3143	52.7344	74.221	52.7344	72.554	52.7344	73.842	52.7344	71.5458	52.7344	73.1099	52.7344	70.2287	52.7344	71.8868	52.7344	68.4881	52.7344	69.9063	52.7344	66.0937	52.7344	66.546	52.7344	62.4958	52.7344	59.5318	52.7344	55.7422	52.7344	50.9919	52.7344	43.9466	52.7344	64.4909	52.7344	59.2783	52.7344	69.3597	52.7344	64.6312	52.7344	72.1321	52.7344	67.9103	52.7344	73.8467	52.7344	70.2323	52.7344	74.8855	52.7344	71.9749	52.7344	75.4367	52.7344	73.3059	52.7344	75.6068	52.7344	74.3081	52.7344	75.4574	52.7344	75.0212
54.1992	74.4041	54.1992	74.0552	54.1992	74.5404	54.1992	73.4988	54.1992	74.442	54.1992	72.7242	54.1992	74.0649	54.1992	71.7005	54.1992	73.3315	54.1992	70.3676	54.1992	72.1035	54.1992	68.6114	54.1992	70.1136	54.1992	66.202	54.1992	66.7348	54.1992	62.5891	54.1992	59.6582	54.1992	55.8208	54.1992	51.4172	54.1992	44.6654	54.1992	64.7648	54.1992	59.4397	54.1992	69.6111	54.1992	64.7711	54.1992	72.3748	54.1992	68.0507	54.1992	74.0847	54.1992	70.3805	54.1992	75.1192	54.1992	72.1345	54.1992	75.6651	54.1992	73.4788	54.1992	75.8278	54.1992	74.4949	54.1992	75.6689	54.1992	75.2211
55.6641	74.5163	55.6641	74.1613	55.6641	74.6566	55.6641	73.5977	55.6641	74.5597	55.6641	72.8157	55.6641	74.1809	55.6641	71.7862	55.6641	73.4421	55.6641	70.4509	55.6641	72.2041	55.6641	68.6995	55.6641	70.1968	55.6641	66.3094	55.6641	66.7833	55.6641	62.7515	55.6641	59.5866	55.6641	56.2005	55.6641	52.0379	55.6641	44.072	55.6641	64.9973	55.6641	59.2043	55.6641	69.7918	55.6641	64.6457	55.6641	72.5332	55.6641	67.9776	55.6641	74.2287	55.6641	70.3438	55.6641	75.2508	55.6641	72.1281	55.6641	75.7837	55.6641	73.4994	55.6641	75.9318	55.6641	74.54	55.6641	75.7558	55.6641	75.2884
58.5938	74.3483	58.5938	73.9782	58.5938	74.4999	58.5938	73.3965	58.5938	74.4096	58.5938	72.5946	58.5938	74.0327	58.5938	71.5448	58.5938	73.291	58.5938	70.1906	58.5938	72.0455	58.5938	68.4231	58.5938	70.026	58.5938	66.0209	58.5938	66.592	58.5938	62.4543	58.5938	59.3323	58.5938	55.8745	58.5938	52.0398	58.5938	42.3904	58.5938	64.8809	58.5938	58.8459	58.5938	69.6588	58.5938	64.3384	58.5938	72.3966	58.5938	67.6976	58.5938	74.0921	58.5938	70.088	58.5938	75.1142	58.5938	71.896	58.5938	75.6449	58.5938	73.2901	58.5938	75.7869	58.5938	74.3518	58.5938	75.6006	58.5938	75.1186
60.0586	74.3241	60.0586	73.9639	60.0586	74.4641	60.0586	73.3912	60.0586	74.3601	60.0586	72.5984	60.0586	73.967	60.0586	71.5592	60.0586	73.2061	60.0586	70.2188	60.0586	71.9373	60.0586	68.4718	60.0586	69.8874	60.0586	66.1038	60.0586	66.4041	60.0586	62.6088	60.0586	58.9983	60.0586	56.2831	60.0586	52.6752	60.0586	42.8283	60.0586	64.9357	60.0586	58.5979	60.0586	69.6489	60.0586	64.1895	60.0586	72.366	60.0586	67.5921	60.0586	74.0546	60.0586	70.0073	60.0586	75.0754	60.0586	71.8314	60.0586	75.6068	60.0586	73.2367	60.0586	75.7494	60.0586	74.3061	60.0586	75.5625	60.0586	75.0778
62.9883	74.6806	62.9883	74.3294	62.9883	74.8099	62.9883	73.7637	62.9883	74.6944	62.9883	72.9757	62.9883	74.2904	62.9883	71.9388	62.9883	73.5222	62.9883	70.5977	62.9883	72.2555	62.9883	68.845	62.9883	70.2291	62.9883	66.4614	62.9883	66.8275	62.9883	62.9237	62.9883	59.7857	62.9883	56.4119	62.9883	51.0354	62.9883	40.993	62.9883	64.6788	62.9883	59.0975	62.9883	69.5694	62.9883	64.653	62.9883	72.3691	62.9883	68.023	62.9883	74.116	62.9883	70.4077	62.9883	75.186	62.9883	72.2014	62.9883	75.7621	62.9883	73.5753	62.9883	75.9462	62.9883	74.6122	62.9883	75.798	62.9883	75.3496
64.4531	74.8483	64.4531	74.509	64.4531	74.9636	64.4531	73.9536	64.4531	74.8311	64.4531	73.1748	64.4531	74.4062	64.4531	72.1464	64.4531	73.6115	64.4531	70.8135	64.4531	72.309	64.4531	69.0685	64.4531	70.2275	64.4531	66.6917	64.4531	66.7171	64.4531	63.1593	64.4531	59.2775	64.4531	56.6643	64.4531	52.8291	64.4531	43.348	64.4531	65.2187	64.4531	59.4741	64.4531	69.9553	64.4531	64.9834	64.4531	72.7015	64.4531	68.342	64.4531	74.426	64.4531	70.722	64.4531	75.4871	64.4531	72.5127	64.4531	76.0607	64.4531	73.8841	64.4531	76.2455	64.4531	74.9184	64.4531	76.0992	64.4531	75.6533
67.3828	75.7242	67.3828	75.4322	67.3828	75.797	67.3828	74.9307	67.3828	75.6266	67.3828	74.2156	67.3828	75.1693	67.3828	73.2659	67.3828	74.3507	67.3828	72.0351	67.3828	73.0391	67.3828	70.4325	67.3828	70.979	67.3828	68.2762	67.3828	67.5675	67.3828	65.1562	67.3828	60.6101	67.3828	59.8321	67.3828	51.2099	67.3828	40.8091	67.3828	65.1804	67.3828	57.9965	67.3828	70.1232	67.3828	64.6983	67.3828	72.9574	67.3828	68.4438	67.3828	74.7378	67.3828	71.0048	67.3828	75.8421	67.3828	72.8901	67.3828	76.4512	67.3828	74.3105	67.3828	76.6646	67.3828	75.366	67.3828	76.539	67.3828	76.1036
68.8477	75.9009	68.8477	75.6246	68.8477	75.9562	68.8477	75.1367	68.8477	75.7664	68.8477	74.4326	68.8477	75.2882	68.8477	73.4904	68.8477	74.447	68.8477	72.262	68.8477	73.1105	68.8477	70.6531	68.8477	71.0205	68.8477	68.4747	68.8477	67.5632	68.8477	65.2965	68.8477	60.4648	68.8477	59.7864	68.8477	51.871	68.8477	36.788	68.8477	65.405	68.8477	58.851	68.8477	70.3024	68.8477	65.2853	68.8477	73.1312	68.8477	68.9393	68.8477	74.9211	68.8477	71.4465	68.8477	76.0427	68.8477	73.2911	68.8477	76.6739	68.8477	74.6764	68.8477	76.9124	68.8477	75.6998	68.8477	76.8139	68.8477	76.4072
71.7773	76.511	71.7773	76.281	71.7773	76.5188	71.7773	75.8378	71.7773	76.2809	71.7773	75.1763	71.7773	75.7545	71.7773	74.2738	71.7773	74.8659	71.7773	73.081	71.7773	73.484	71.7773	71.5019	71.7773	71.3505	71.7773	69.3448	71.7773	67.8485	71.7773	66.1738	71.7773	60.6788	71.7773	60.6369	71.7773	52.7242	71.7773	36.6911	71.7773	65.811	71.7773	59.8764	71.7773	70.6867	71.7773	66.2452	71.7773	73.5301	71.7773	69.8583	71.7773	75.3508	71.7773	72.3245	71.7773	76.5134	71.7773	74.1242	71.7773	77.1922	71.7773	75.4607	71.7773	77.4824	71.7773	76.4322	71.7773	77.4378	71.7773	77.0857
74.707	77.1007	74.707	76.9092	74.707	77.0698	74.707	76.5037	74.707	76.7936	74.707	75.8786	74.707	76.2305	74.707	75.0108	74.707	75.3084	74.707	73.8511	74.707	73.8987	74.707	72.3039	74.707	71.7477	74.707	70.1794	74.707	68.2495	74.707	67.0496	74.707	61.1626	74.707	61.6008	74.707	52.4904	74.707	39.5705	74.707	66.0084	74.707	60.4625	74.707	70.946	74.707	66.9225	74.707	73.8301	74.707	70.5489	74.707	75.6902	74.707	73.0056	74.707	76.8942	74.707	74.7837	74.707	77.6163	74.707	76.0906	74.707	77.9508	74.707	77.0266	74.707	77.9501	74.707	77.6404
77.6367	77.4363	77.6367	77.281	77.6367	77.3664	77.6367	76.9081	77.6367	77.0493	77.6367	76.3112	77.6367	76.4441	77.6367	75.4666	77.6367	75.4799	77.6367	74.3239	77.6367	74.0285	77.6367	72.7861	77.6367	71.8353	77.6367	70.6609	77.6367	68.2867	77.6367	67.5129	77.6367	61.0803	77.6367	61.9929	77.6367	53.0737	77.6367	37.7732	77.6367	66.2248	77.6367	61.1811	77.6367	71.1335	77.6367	67.5411	77.6367	74.0265	77.6367	71.1263	77.6367	75.9113	77.6367	73.5524	77.6367	77.149	77.6367	75.3012	77.6367	77.9099	77.6367	76.5768	77.6367	78.2852	77.6367	77.4788	77.6367	78.3255	77.6367	78.0555
79.1016	77.4482	79.1016	77.3058	79.1016	77.3638	79.1016	76.9438	79.1016	77.0309	79.1016	76.3555	79.1016	76.4094	79.1016	75.5166	79.1016	75.4287	79.1016	74.3765	79.1016	73.961	79.1016	72.8373	79.1016	71.7517	79.1016	70.7052	79.1016	68.1843	79.1016	67.5393	79.1016	60.9353	79.1016	61.9638	79.1016	53.2399	79.1016	35.7421	79.1016	66.2013	79.1016	61.3931	79.1016	71.0974	79.1016	67.6848	79.1016	73.9942	79.1016	71.2459	79.1016	75.8894	79.1016	73.6573	79.1016	77.1409	79.1016	75.3941	79.1016	77.9174	79.1016	76.6581	79.1016	78.309	79.1016	77.5474	79.1016	78.3654	79.1016	78.1104
82.0313	77.4972	82.0313	77.3638	82.0313	77.4008	82.0313	77.0072	82.0313	77.0536	82.0313	76.4206	82.0313	76.416	82.0313	75.5796	82.0313	75.4182	82.0313	74.4331	82.0313	73.9334	82.0313	72.8827	82.0313	71.7065	82.0313	70.7322	82.0313	68.1171	82.0313	67.5326	82.0313	60.8127	82.0313	61.8657	82.0313	53.5768	82.0313	32.5759	82.0313	66.2578	82.0313	61.6784	82.0313	71.1346	82.0313	67.8696	82.0313	74.0342	82.0313	71.4009	82.0313	75.9401	82.0313	73.7997	82.0313	77.2057	82.0313	75.5299	82.0313	77.9973	82.0313	76.7888	82.0313	78.4034	82.0313	77.6724	82.0313	78.4724	82.0313	78.2277
84.9609	77.4743	84.9609	77.3354	84.9609	77.3818	84.9609	76.9719	84.9609	77.0374	84.9609	76.3773	84.9609	76.4022	84.9609	75.5282	84.9609	75.4078	84.9609	74.3748	84.9609	73.9296	84.9609	72.8216	84.9609	71.7167	84.9609	70.6768	84.9609	68.162	84.9609	67.5033	84.9609	61.0064	84.9609	61.9361	84.9609	53.3248	84.9609	38.4895	84.9609	66.1208	84.9609	61.3253	84.9609	71.0393	84.9609	67.6318	84.9609	73.9581	84.9609	71.2105	84.9609	75.8748	84.9609	73.6414	84.9609	77.1465	84.9609	75.3978	84.9609	77.9402	84.9609	76.6791	84.9609	78.3443	84.9609	77.5816	84.9609	78.4071	84.9609	78.1517
87.8906	77.429	87.8906	77.2841	87.8906	77.3407	87.8906	76.9129	87.8906	76.9992	87.8906	76.3092	87.8906	76.3664	87.8906	75.4503	87.8906	75.3752	87.8906	74.2877	87.8906	73.9028	87.8906	72.7274	87.8906	71.7027	87.8906	70.581	87.8906	68.1786	87.8906	67.4182	87.8906	61.1301	87.8906	61.9017	87.8906	52.5044	87.8906	38.9444	87.8906	65.9045	87.8906	61.0268	87.8906	70.8906	87.8906	67.4153	87.8906	73.8371	87.8906	71.0273	87.8906	75.7699	87.8906	73.4818	87.8906	77.0518	87.8906	75.2582	87.8906	77.8513	87.8906	76.557	87.8906	78.2571	87.8906	77.4739	87.8906	78.3173	87.8906	78.055
90.8203	77.3441	90.8203	77.2	90.8203	77.2516	90.8203	76.8262	90.8203	76.9021	90.8203	76.2169	90.8203	76.2578	90.8203	75.3499	90.8203	75.2516	90.8203	74.1776	90.8203	73.7602	90.8203	72.6066	90.8203	71.5349	90.8203	70.449	90.8203	67.9689	90.8203	67.2735	90.8203	60.7841	90.8203	61.734	90.8203	52.7742	90.8203	38.2979	90.8203	65.8945	90.8203	60.9517	90.8203	70.8394	90.8203	67.323	90.8203	73.7767	90.8203	70.9372	90.8203	75.7107	90.8203	73.3997	90.8203	76.9977	90.8203	75.1862	90.8203	77.8026	90.8203	76.495	90.8203	78.212	90.8203	77.4206	90.8203	78.2728	90.8203	78.0078
95.2148	77.1345	95.2148	76.9961	95.2148	77.03	95.2148	76.6219	95.2148	76.6623	95.2148	76.0065	95.2148	75.9939	95.2148	75.1285	95.2148	74.9582	95.2148	73.9413	95.2148	73.4319	95.2148	72.3525	95.2148	71.1641	95.2148	70.1741	95.2148	67.5361	95.2148	66.9719	95.2148	60.1807	95.2148	61.3788	95.2148	53.1432	95.2148	36.3194	95.2148	65.7201	95.2148	60.7931	95.2148	70.605	95.2148	67.1179	95.2148	73.5315	95.2148	70.7247	95.2148	75.4716	95.2148	73.1906	95.2148	76.7715	95.2148	74.9842	95.2148	77.5906	95.2148	76.3004	95.2148	78.0122	95.2148	77.2312	95.2148	78.0813	95.2148	77.8197
98.1445	76.9941	98.1445	76.858	98.1445	76.8827	98.1445	76.4816	98.1445	76.5037	98.1445	75.8599	98.1445	75.82	98.1445	74.9721	98.1445	74.7652	98.1445	73.7722	98.1445	73.2169	98.1445	72.1685	98.1445	70.9234	98.1445	69.9732	98.1445	67.2612	98.1445	66.7497	98.1445	59.8284	98.1445	61.1155	98.1445	53.3864	98.1445	36.3409	98.1445	65.5897	98.1445	60.6973	98.1445	70.4419	98.1445	66.9801	98.1445	73.3664	98.1445	70.5812	98.1445	75.3147	98.1445	73.0508	98.1445	76.6263	98.1445	74.8516	98.1445	77.4571	98.1445	76.1753	98.1445	77.8881	98.1445	77.1118	98.1445	77.9629	98.1445	77.7028
101.074	76.9301	101.074	76.7895	101.074	76.8193	101.074	76.4052	101.074	76.4373	101.074	75.7729	101.074	75.7471	101.074	74.8728	101.074	74.6832	101.074	73.6607	101.074	73.1239	101.074	72.0472	101.074	70.8182	101.074	69.8481	101.074	67.1416	101.074	66.6342	101.074	59.6867	101.074	61.0535	101.074	53.5712	101.074	38.8502	101.074	65.5445	101.074	60.412	101.074	70.3802	101.074	66.7621	101.074	73.3041	101.074	70.3978	101.074	75.2559	101.074	72.8956	101.074	76.5713	101.074	74.7218	101.074	77.4041	101.074	76.0685	101.074	77.8335	101.074	77.0246	101.074	77.9022	101.074	77.6311
105.469	77.0013	105.469	76.8456	105.469	76.9003	105.469	76.4408	105.469	76.5234	105.469	75.7829	105.469	75.8347	105.469	74.8526	105.469	74.7706	105.469	73.6061	105.469	73.2117	105.469	71.9538	105.469	70.9119	105.469	69.7086	105.469	67.2572	105.469	66.4283	105.469	59.8905	105.469	60.6883	105.469	53.0722	105.469	29.0213	105.469	65.4794	105.469	60.6349	105.469	70.3781	105.469	66.8515	105.469	73.3362	105.469	70.4554	105.469	75.3136	105.469	72.9495	105.469	76.6488	105.469	74.7837	105.469	77.4957	105.469	76.1428	105.469	77.9329	105.469	77.1114	105.469	78.0031	105.469	77.7274
108.398	76.9677	108.398	76.8116	108.398	76.863	108.398	76.4027	108.398	76.4778	108.398	75.7378	108.398	75.776	108.398	74.7988	108.398	74.6934	108.398	73.5435	108.398	73.1094	108.398	71.8848	108.398	70.7731	108.398	69.6395	108.398	67.054	108.398	66.375	108.398	59.5003	108.398	60.7139	108.398	54.0878	108.398	40.6791	108.398	65.6503	108.398	60.431	108.398	70.4471	108.398	66.688	108.398	73.3692	108.398	70.3198	108.398	75.3302	108.398	72.838	108.398	76.6562	108.398	74.6949	108.398	77.4958	108.398	76.0752	108.398	77.9249	108.398	77.063	108.398	77.9846	108.398	77.6955
112.793	77.0882	112.793	76.9233	112.793	76.989	112.793	76.5022	112.793	76.6066	112.793	75.8221	112.793	75.9064	112.793	74.8663	112.793	74.8269	112.793	73.5944	112.793	73.2525	112.793	71.9225	112.793	70.943	112.793	69.6722	112.793	67.3004	112.793	66.4214	112.793	60.0881	112.793	60.8302	112.793	53.4042	112.793	39.4083	112.793	65.4178	112.793	60.1445	112.793	70.3317	112.793	66.5371	112.793	73.3128	112.793	70.224	112.793	75.3133	112.793	72.7812	112.793	76.668	112.793	74.6706	112.793	77.5273	112.793	76.0781	112.793	77.9675	112.793	77.0873	112.793	78.0295	112.793	77.7341
117.188	77.2186	117.188	77.0376	117.188	77.1283	117.188	76.5937	117.188	76.7477	117.188	75.8848	117.188	76.0425	117.188	74.8951	117.188	74.9519	117.188	73.5854	117.188	73.3615	117.188	71.8723	117.188	71.033	117.188	69.5761	117.188	67.3692	117.188	66.266	117.188	60.119	117.188	60.5539	117.188	53.4987	117.188	39.7741	117.188	65.5127	117.188	60.3797	117.188	70.4341	117.188	66.6412	117.188	73.4313	117.188	70.3047	117.188	75.4506	117.188	72.867	117.188	76.8225	117.188	74.773	117.188	77.6939	117.188	76.2012	117.188	78.1392	117.188	77.2303	117.188	78.1986	117.188	77.8932
120.117	77.4321	120.117	77.2414	120.117	77.3461	120.117	76.7831	120.117	76.964	120.117	76.0562	120.117	76.2515	120.117	75.0461	120.117	75.1477	120.117	73.7158	120.117	73.5389	120.117	71.9847	120.117	71.1866	120.117	69.6778	120.117	67.4917	120.117	66.3737	120.117	60.2008	120.117	60.7287	120.117	54.2589	120.117	43.2714	120.117	65.7783	120.117	60.3615	120.117	70.6546	120.117	66.6568	120.117	73.6433	120.117	70.352	120.117	75.6641	120.117	72.9456	120.117	77.039	120.117	74.8824	120.117	77.911	120.117	76.3399	120.117	78.3521	120.117	77.3951	120.117	78.4013	120.117	78.0798
124.512	77.9004	124.512	77.6894	124.512	77.828	124.512	77.2051	124.512	77.4525	124.512	76.4485	124.512	76.7399	124.512	75.4077	124.512	75.6311	124.512	74.0492	124.512	74.0156	124.512	72.2979	124.512	71.6625	124.512	69.9868	124.512	67.9902	124.512	66.7119	124.512	60.8357	124.512	61.197	124.512	54.1798	124.512	44.3312	124.512	66.0072	124.512	60.2442	124.512	70.957	124.512	66.7295	124.512	73.9888	124.512	70.5133	124.512	76.0426	124.512	73.1728	124.512	77.4428	124.512	75.1656	124.512	78.3307	124.512	76.6712	124.512	78.7769	124.512	77.7658	124.512	78.8196	124.512	78.4798
128.906	78.3639	128.906	78.1581	128.906	78.2741	128.906	77.668	128.906	77.8682	128.906	76.8971	128.906	77.1127	128.906	75.8373	128.906	75.9493	128.906	74.4611	128.906	74.2686	128.906	72.7017	128.906	71.8367	128.906	70.4064	128.906	68.0505	128.906	67.2016	128.906	60.5662	128.906	61.931	128.906	55.2364	128.906	47.0511	128.906	66.5747	128.906	59.8836	128.906	71.4475	128.906	66.723	128.906	74.475	128.906	70.6586	128.906	76.5452	128.906	73.4226	128.906	77.9643	128.906	75.4994	128.906	78.8649	128.906	77.0738	128.906	79.3128	128.906	78.2235	128.906	79.3439	128.906	78.9781
133.301	78.5796	133.301	78.3574	133.301	78.4992	133.301	77.8447	133.301	78.0959	133.301	77.0458	133.301	77.3367	133.301	75.9547	133.301	76.1649	133.301	74.5459	133.301	74.4727	133.301	72.7557	133.301	72.0277	133.301	70.435	133.301	68.2232	133.301	67.2151	133.301	60.6588	133.301	61.954	133.301	55.3457	133.301	47.6339	133.301	66.8176	133.301	59.8902	133.301	71.7016	133.301	66.7396	133.301	74.7399	133.301	70.7059	133.301	76.8195	133.301	73.5075	133.301	78.2441	133.301	75.6247	133.301	79.1446	133.301	77.2392	133.301	79.585	133.301	78.4255	133.301	79.6005	133.301	79.211
139.16	78.6637	139.16	78.419	139.16	78.5985	139.16	77.8774	139.16	78.2029	139.16	77.0451	139.16	77.4446	139.16	75.9189	139.16	76.2681	139.16	74.4779	139.16	74.5671	139.16	72.6652	139.16	72.1109	139.16	70.3422	139.16	68.2926	139.16	67.1631	139.16	60.7222	139.16	62.0714	139.16	55.9167	139.16	49.1013	139.16	67.021	139.16	59.1547	139.16	71.8754	139.16	66.2829	139.16	74.9084	139.16	70.3739	139.16	76.9856	139.16	73.2682	139.16	78.404	139.16	75.4669	139.16	79.2905	139.16	77.1558	139.16	79.7069	139.16	78.4086	139.16	79.6873	139.16	79.2513
143.555	78.7655	143.555	78.497	143.555	78.7197	143.555	77.9277	143.555	78.3391	143.555	77.0647	143.555	77.5917	143.555	75.9066	143.555	76.4231	143.555	74.4349	143.555	74.7291	143.555	72.5959	143.555	72.2822	143.555	70.256	143.555	68.4849	143.555	67.077	143.555	60.9918	143.555	62.0257	143.555	55.6563	143.555	49.0592	143.555	67.0371	143.555	58.6992	143.555	71.9329	143.555	65.9999	143.555	74.9806	143.555	70.1553	143.555	77.0626	143.555	73.0981	143.555	78.4786	143.555	75.3419	143.555	79.3556	143.555	77.074	143.555	79.7555	143.555	78.3672	143.555	79.7122	143.555	79.246
147.949	78.6988	147.949	78.4463	147.949	78.6318	147.949	77.8887	147.949	78.2243	147.949	77.0346	147.949	77.4441	147.949	75.8839	147.949	76.2367	147.949	74.4198	147.949	74.4981	147.949	72.5905	147.949	71.9999	147.949	70.265	147.949	68.1345	147.949	67.1101	147.949	60.4477	147.949	62.1085	147.949	55.477	147.949	49.0476	147.949	66.8439	147.949	58.3749	147.949	71.7294	147.949	65.8527	147.949	74.7927	147.949	70.0516	147.949	76.9002	147.949	73.0139	147.949	78.3437	147.949	75.2687	147.949	79.2459	147.949	77.0072	147.949	79.666	147.949	78.3026	147.949	79.6369	147.949	79.1788
153.809	78.8399	153.809	78.6162	153.809	78.729	153.809	78.0722	153.809	78.2624	153.809	77.2165	153.809	77.4083	153.809	76.049	153.809	76.1132	153.809	74.5529	153.809	74.2734	153.809	72.6749	153.809	71.6591	153.809	70.2781	153.809	67.6444	153.809	67.0073	153.809	59.6047	153.809	61.7367	153.809	56.0263	153.809	46.6234	153.809	66.7836	153.809	59.3423	153.809	71.6094	153.809	66.3909	153.809	74.7007	153.809	70.468	153.809	76.8672	153.809	73.3767	153.809	78.3792	153.809	75.601	153.809	79.3482	153.809	77.3156	153.809	79.8279	153.809	78.5858	153.809	79.8488	153.809	79.4307
159.668	79.416	159.668	79.2188	159.668	79.2626	159.668	78.687	159.668	78.7366	159.668	77.8315	159.668	77.8061	159.668	76.6563	159.668	76.4178	159.668	75.1502	159.668	74.4695	159.668	73.2683	159.668	71.7312	159.668	70.8871	159.668	67.5632	159.668	67.6789	159.668	59.2035	159.668	62.6265	159.668	56.8906	159.668	50.2697	159.668	67.0774	159.668	59.4574	159.668	71.8547	159.668	66.6988	159.668	74.983	159.668	70.8799	159.668	77.2161	159.668	73.8602	159.668	78.8012	159.668	76.1375	159.668	79.8367	159.668	77.8888	159.668	80.3693	159.668	79.1786	159.668	80.4259	159.668	80.0251
165.527	80.0664	165.527	79.8796	165.527	79.8905	165.527	79.3482	165.527	79.3285	165.527	78.486	165.527	78.3473	165.527	77.3007	165.527	76.8942	165.527	75.7858	165.527	74.8704	165.527	73.9036	165.527	72.0561	165.527	71.5407	165.527	67.8445	165.527	68.3899	165.527	59.7837	165.527	63.5062	165.527	57.6601	165.527	52.0493	165.527	67.2579	165.527	59.4633	165.527	72.0491	165.527	67.0367	165.527	75.257	165.527	71.3522	165.527	77.5921	165.527	74.4212	165.527	79.2799	165.527	76.7648	165.527	80.4053	165.527	78.5632	165.527	81.0074	165.527	79.8794	165.527	81.1097	165.527	80.7295
171.387	80.2497	171.387	80.083	171.387	80.0393	171.387	79.5584	171.387	79.4272	171.387	78.6916	171.387	78.3801	171.387	77.4922	171.387	76.8458	171.387	75.9567	171.387	74.7273	171.387	74.051	171.387	71.8075	171.387	71.6667	171.387	67.4805	171.387	68.5058	171.387	59.3717	171.387	63.653	171.387	58.3898	171.387	52.8196	171.387	67.2942	171.387	59.5468	171.387	72.0137	171.387	67.0771	171.387	75.2422	171.387	71.4129	171.387	77.6247	171.387	74.5112	171.387	79.3637	171.387	76.886	171.387	80.5332	171.387	78.7125	171.387	81.167	171.387	80.0495	171.387	81.2867	171.387	80.9096
177.246	80.2842	177.246	80.1256	177.246	80.0564	177.246	79.6011	177.246	79.4175	177.246	78.7282	177.246	78.3348	177.246	77.5197	177.246	76.7588	177.246	75.9763	177.246	74.5984	177.246	74.0705	177.246	71.6503	177.246	71.7044	177.246	67.3475	177.246	68.5995	177.246	59.6018	177.246	63.8998	177.246	58.3157	177.246	53.4416	177.246	66.9967	177.246	58.5786	177.246	71.7722	177.246	66.6557	177.246	75.0754	177.246	71.1652	177.246	77.5319	177.246	74.3672	177.246	79.3349	177.246	76.8183	177.246	80.5529	177.246	78.7029	177.246	81.2174	177.246	80.0812	177.246	81.3491	177.246	80.9656
183.105	80.2146	183.105	80.0542	183.105	79.9732	183.105	79.5139	183.105	79.3048	183.105	78.6126	183.105	78.1767	183.105	77.365	183.105	76.5404	183.105	75.7747	183.105	74.3086	183.105	73.8177	183.105	71.2862	183.105	71.3997	183.105	66.9245	183.105	68.2439	183.105	59.2327	183.105	63.4818	183.105	58.0512	183.105	52.673	183.105	66.5819	183.105	58.2452	183.105	71.3927	183.105	66.3545	183.105	74.7638	183.105	70.8929	183.105	77.2938	183.105	74.1359	183.105	79.1618	183.105	76.6326	183.105	80.4294	183.105	78.5602	183.105	81.1249	183.105	79.9732	183.105	81.2687	183.105	80.8794
188.965	80.212	188.965	80.0449	188.965	79.9614	188.965	79.4839	188.965	79.2661	188.965	78.5507	188.965	78.092	188.965	77.2633	188.965	76.3904	188.965	75.63	188.965	74.0752	188.965	73.6326	188.965	70.9555	188.965	71.1847	188.965	66.4892	188.965	68.0208	188.965	58.7446	188.965	63.3012	188.965	58.0659	188.965	52.8754	188.965	66.3259	188.965	57.7509	188.965	71.1204	188.965	65.9879	188.965	74.5355	188.965	70.6014	188.965	77.1274	188.965	73.9112	188.965	79.0553	188.965	76.4707	188.965	80.3696	188.965	78.454	188.965	81.0937	188.965	79.9111	188.965	81.2462	188.965	80.846
196.289	80.2441	196.289	80.0921	196.289	79.9597	196.289	79.53	196.289	79.2099	196.289	78.5825	196.289	77.9601	196.289	77.2718	196.289	76.163	196.289	75.6114	196.289	73.7397	196.289	73.5895	196.289	70.5201	196.289	71.1282	196.289	66.0317	196.289	67.9732	196.289	58.9393	196.289	63.3153	196.289	58.6946	196.289	53.3022	196.289	66.034	196.289	57.432	196.289	70.7632	196.289	65.8078	196.289	74.2416	196.289	70.5002	196.289	76.9301	196.289	73.875	196.289	78.9556	196.289	76.4909	196.289	80.3535	196.289	78.5185	196.289	81.14	196.289	80.0033	196.289	81.3313	196.289	80.946
203.613	80.2095	203.613	80.0848	203.613	79.8839	203.613	79.5374	203.613	79.0792	203.613	78.5944	203.613	77.763	203.613	77.2814	203.613	75.8947	203.613	75.6171	203.613	73.4116	203.613	73.5979	203.613	70.1803	203.613	71.1582	203.613	65.8284	203.613	68.0698	203.613	59.4545	203.613	63.6025	203.613	58.5818	203.613	54.2959	203.613	65.4762	203.613	55.5378	203.613	70.2922	203.613	64.961	203.613	73.8824	203.613	69.9126	203.613	76.6695	203.613	73.4326	203.613	78.7725	203.613	76.1586	203.613	80.2232	203.613	78.2758	203.613	81.037	203.613	79.8304	203.613	81.2297	203.613	80.8207
210.938	80.1002	210.938	80.0473	210.938	79.6962	210.938	79.5636	210.938	78.8096	210.938	78.6764	210.938	77.4137	210.938	77.413	210.938	75.4777	210.938	75.7955	210.938	72.9548	210.938	73.8251	210.938	69.7368	210.938	71.4418	210.938	65.4772	210.938	68.423	210.938	58.9804	210.938	64.0491	210.938	55.6088	210.938	54.8328	210.938	63.8519	210.938	55.1148	210.938	69.2193	210.938	65.1269	210.938	73.121	210.938	70.1627	210.938	76.1367	210.938	73.6973	210.938	78.423	210.938	76.4093	210.938	80.0244	210.938	78.4944	210.938	80.9621	210.938	80.0014	210.938	81.2559	210.938	80.9281
218.262	80.2886	218.262	80.2491	218.262	79.8479	218.262	79.7585	218.262	78.8978	218.262	78.8455	218.262	77.407	218.262	77.5374	218.262	75.3391	218.262	75.8547	218.262	72.6431	218.262	73.7937	218.262	69.2097	218.262	71.2845	218.262	64.6972	218.262	68.0782	218.262	58.0464	218.262	63.3484	218.262	56.3243	218.262	52.5401	218.262	63.8598	218.262	57.0019	218.262	69.0354	218.262	65.7834	218.262	72.944	218.262	70.5719	218.262	76.0336	218.262	74.0208	218.262	78.4092	218.262	76.6985	218.262	80.0932	218.262	78.7651	218.262	81.099	218.262	80.2539	218.262	81.4451	218.262	81.1549
225.586	80.6361	225.586	80.6104	225.586	80.1579	225.586	80.1129	225.586	79.1432	225.586	79.1758	225.586	77.5576	225.586	77.8311	225.586	75.3631	225.586	76.107	225.586	72.511	225.586	74.0136	225.586	68.905	225.586	71.5071	225.586	64.23	225.586	68.3917	225.586	57.5446	225.586	63.9977	225.586	56.5507	225.586	55.1079	225.586	63.8224	225.586	54.5609	225.586	68.9633	225.586	64.8921	225.586	72.9368	225.586	70.1254	225.586	76.1264	225.586	73.8399	225.586	78.6002	225.586	76.7085	225.586	80.3609	225.586	78.9149	225.586	81.4132	225.586	80.5008	225.586	81.7724	225.586	81.4602
232.91	80.9388	232.91	80.8747	232.91	80.4742	232.91	80.3148	232.91	79.4482	232.91	79.2924	232.91	77.8293	232.91	77.841	232.91	75.5895	232.91	75.9902	232.91	72.7095	232.91	73.7513	232.91	69.1665	232.91	71.0779	232.91	64.8294	232.91	67.7572	232.91	59.4447	232.91	63.0302	232.91	58.384	232.91	52.7038	232.91	64.2968	232.91	55.6696	232.91	69.2506	232.91	65.1017	232.91	73.1981	232.91	70.209	232.91	76.4097	232.91	73.9438	232.91	78.9213	232.91	76.878	232.91	80.7157	232.91	79.157	232.91	81.7865	232.91	80.8049	232.91	82.1439	232.91	81.8085
241.699	80.9507	241.699	80.8193	241.699	80.5438	241.699	80.1802	241.699	79.572	241.699	79.0663	241.699	78.0149	241.699	77.5132	241.699	75.8645	241.699	75.5558	241.699	73.1326	241.699	73.2173	241.699	69.8291	241.699	70.4746	241.699	65.8119	241.699	67.1631	241.699	60.5158	241.699	62.6582	241.699	57.8337	241.699	53.884	241.699	64.0766	241.699	52.5672	241.699	69.2916	241.699	63.3837	241.699	73.3073	241.699	68.9141	241.699	76.531	241.699	72.9491	241.699	79.0341	241.699	76.1413	241.699	80.8005	241.699	78.6452	241.699	81.8183	241.699	80.4829	241.699	82.0925	241.699	81.6398
250.488	81.2986	250.488	81.1421	250.488	80.9116	250.488	80.4732	250.488	79.9551	250.488	79.3271	250.488	78.4112	250.488	77.7433	250.488	76.2769	250.488	75.7628	250.488	73.5713	250.488	73.4178	250.488	70.3138	250.488	70.7001	250.488	66.3782	250.488	67.4757	250.488	61.2553	250.488	63.2209	250.488	58.5195	250.488	55.6484	250.488	64.4774	250.488	50.681	250.488	69.6619	250.488	62.6521	250.488	73.6718	250.488	68.5348	250.488	76.8958	250.488	72.78	250.488	79.4001	250.488	76.1284	250.488	81.1623	250.488	78.7531	250.488	82.1649	250.488	80.6834	250.488	82.4091	250.488	81.9088
259.277	82.2992	259.277	82.1169	259.277	81.9091	259.277	81.3897	259.277	80.9228	259.277	80.1474	259.277	79.3232	259.277	78.4201	259.277	77.1077	259.277	76.2352	259.277	74.2968	259.277	73.6047	259.277	70.9143	259.277	70.4914	259.277	66.8306	259.277	66.7034	259.277	61.3954	259.277	61.5004	259.277	58.1283	259.277	50.6904	259.277	64.7446	259.277	55.0827	259.277	70.189	259.277	63.9727	259.277	74.376	259.277	69.2911	259.277	77.7509	259.277	73.4417	259.277	80.3728	259.277	76.853	259.277	82.2116	259.277	79.5875	259.277	83.2479	259.277	81.6256	259.277	83.4834	259.277	82.9344
268.066	83.3307	268.066	83.1343	268.066	82.9357	268.066	82.3754	268.066	81.9254	268.066	81.0861	268.066	80.2862	268.066	79.3014	268.066	78.0261	268.066	77.0579	268.066	75.1912	268.066	74.3873	268.066	71.8566	268.066	71.2941	268.066	67.9821	268.066	67.6807	268.066	63.2046	268.066	63.0785	268.066	60.622	268.066	55.1391	268.066	66.058	268.066	49.9588	268.066	71.2607	268.066	62.5664	268.066	75.3948	268.066	68.7895	268.066	78.76	268.066	73.429	268.066	81.3809	268.066	77.1662	268.066	83.2108	268.066	80.1333	268.066	84.2199	268.066	82.3404	268.066	84.403	268.066	83.7705
276.855	84.3998	276.855	84.0904	276.855	84.1035	276.855	83.2016	276.855	83.1801	276.855	81.7628	276.855	81.6183	276.855	79.8053	276.855	79.4266	276.855	77.3609	276.855	76.6465	276.855	74.4582	276.855	73.3431	276.855	71.1067	276.855	69.4741	276.855	67.2383	276.855	64.6277	276.855	62.4795	276.855	61.0716	276.855	55.1139	276.855	66.4099	276.855	52.0753	276.855	71.8657	276.855	62.4381	276.855	76.1652	276.855	68.84	276.855	79.6543	276.855	73.788	276.855	82.3688	276.855	77.7954	276.855	84.2632	276.855	80.9641	276.855	85.3064	276.855	83.308	276.855	85.4904	276.855	84.8205
287.109	85.2787	287.109	84.9629	287.109	84.9556	287.109	84.0267	287.109	83.9746	287.109	82.4869	287.109	82.3194	287.109	80.3573	287.109	79.9809	287.109	77.6473	287.109	76.9646	287.109	74.3601	287.109	73.2775	287.109	70.4883	287.109	68.7752	287.109	65.9817	287.109	62.5436	287.109	60.5917	287.109	58.3686	287.109	53.6064	287.109	66.6438	287.109	53.8082	287.109	72.5529	287.109	61.731	287.109	77.0542	287.109	68.0533	287.109	80.6543	287.109	73.3178	287.109	83.4026	287.109	77.6804	287.109	85.2699	287.109	81.16	287.109	86.2378	287.109	83.7589	287.109	86.3043	287.109	85.4755
297.363	85.4232	297.363	84.9551	297.363	85.1682	297.363	83.7789	297.363	84.1692	297.363	81.9021	297.363	82.4019	297.363	79.3212	297.363	79.8429	297.363	76.0193	297.363	76.4793	297.363	71.9694	297.363	72.3195	297.363	67.1704	297.363	67.3559	297.363	61.8317	297.363	62.0255	297.363	57.1371	297.363	62.6524	297.363	55.565	297.363	68.0702	297.363	56.42	297.363	72.9127	297.363	58.8712	297.363	77.1581	297.363	64.6545	297.363	80.7768	297.363	71.0959	297.363	83.6001	297.363	76.424	297.363	85.5165	297.363	80.5339	297.363	86.4809	297.363	83.5342	297.363	86.4789	297.363	85.5025
307.617	85.716	307.617	85.1079	307.617	85.5756	307.617	83.7589	307.617	84.6666	307.617	81.6607	307.617	82.9599	307.617	78.7795	307.617	80.422	307.617	75.0401	307.617	77.0372	307.617	70.2946	307.617	72.8834	307.617	64.2528	307.617	68.3003	307.617	56.1753	307.617	64.1291	307.617	43.9049	307.617	63.2119	307.617	51.4151	307.617	67.3664	307.617	57.272	307.617	72.4238	307.617	60.7667	307.617	76.9977	307.617	64.4856	307.617	80.8426	307.617	69.8761	307.617	83.7894	307.617	75.3559	307.617	85.7441	307.617	79.841	307.617	86.6717	307.617	83.1774	307.617	86.5613	307.617	85.4038
319.336	85.6445	319.336	85.0227	319.336	85.4396	319.336	83.5823	319.336	84.3798	319.336	81.3063	319.336	82.4157	319.336	78.1416	319.336	79.4748	319.336	73.9754	319.336	75.4766	319.336	68.5946	319.336	70.454	319.336	61.6229	319.336	65.0938	319.336	52.089	319.336	61.459	319.336	32.5479	319.336	61.7924	319.336	53.2389	319.336	65.7886	319.336	59.1976	319.336	70.8778	319.336	62.0777	319.336	75.8861	319.336	63.9053	319.336	80.2039	319.336	68.3307	319.336	83.5101	319.336	74.4027	319.336	85.7025	319.336	79.4382	319.336	86.7647	319.336	83.0974	319.336	86.697	319.336	85.4882
329.59	86.0807	329.59	85.3487	329.59	85.9228	329.59	83.7347	329.59	84.8346	329.59	81.2079	329.59	82.7407	329.59	77.68	329.59	79.523	329.59	72.9815	329.59	75.0595	329.59	66.9831	329.59	69.686	329.59	61.1329	329.59	65.8303	329.59	58.8633	329.59	64.6067	329.59	56.1686	329.59	64.0268	329.59	52.5228	329.59	65.8451	329.59	59.3853	329.59	70.3697	329.59	64.1146	329.59	75.5333	329.59	66.2677	329.59	80.1259	329.59	68.1262	329.59	83.6452	329.59	72.984	329.59	85.9517	329.59	78.4982	329.59	87.0263	329.59	82.691	329.59	86.8658	329.59	85.4438
341.309	86.5128	341.309	85.8646	341.309	86.255	341.309	84.3349	341.309	85.0386	341.309	81.9245	341.309	82.7751	341.309	78.6176	341.309	79.3324	341.309	74.4306	341.309	74.5984	341.309	69.626	341.309	69.1581	341.309	65.0594	341.309	65.8128	341.309	60.9022	341.309	64.3695	341.309	53.8353	341.309	62.7412	341.309	55.9515	341.309	63.9134	341.309	64.1943	341.309	68.8304	341.309	68.4013	341.309	74.6624	341.309	70.6803	341.309	79.8104	341.309	72.285	341.309	83.6987	341.309	75.2392	341.309	86.2392	341.309	79.5669	341.309	87.461	341.309	83.4049	341.309	87.3937	341.309	86.0437
353.027	86.7568	353.027	86.1402	353.027	86.412	353.027	84.5818	353.027	85.0495	353.027	82.0665	353.027	82.5648	353.027	78.5501	353.027	78.7898	353.027	74.0361	353.027	73.5787	353.027	69.0471	353.027	67.9589	353.027	65.4557	353.027	65.6196	353.027	63.4207	353.027	64.33	353.027	60.3588	353.027	61.7222	353.027	58.0996	353.027	61.9937	353.027	63.5493	353.027	67.2604	353.027	68.2403	353.027	73.7215	353.027	71.1895	353.027	79.3952	353.027	73.3693	353.027	83.6161	353.027	76.2177	353.027	86.351	353.027	80.0951	353.027	87.6768	353.027	83.7324	353.027	87.655	353.027	86.3234
366.211	86.2377	366.211	85.6276	366.211	85.8259	366.211	84.0224	366.211	84.3158	366.211	81.4069	366.211	81.5544	366.211	77.7368	366.211	77.2541	366.211	73.0637	366.211	71.0587	366.211	68.2626	366.211	65.6483	366.211	65.6031	366.211	66.169	366.211	64.2567	366.211	65.842	366.211	61.4987	366.211	63.4962	366.211	56.0838	366.211	61.8743	366.211	59.8006	366.211	65.257	366.211	65.9031	366.211	71.6987	366.211	69.3836	366.211	77.8531	366.211	71.6873	366.211	82.4756	366.211	74.6846	366.211	85.4821	366.211	78.9462	366.211	86.9693	366.211	82.8942	366.211	87.0109	366.211	85.6426
379.395	85.7011	379.395	85.2062	379.395	85.0476	379.395	83.5927	379.395	83.1351	379.395	80.8322	379.395	79.7037	379.395	76.8788	379.395	74.1068	379.395	72.0015	379.395	64.7555	379.395	68.1093	379.395	62.9014	379.395	66.7972	379.395	65.7606	379.395	65.3193	379.395	64.4972	379.395	61.5737	379.395	60.1484	379.395	56.6601	379.395	57.9487	379.395	63.42	379.395	60.428	379.395	68.637	379.395	66.8082	379.395	71.5802	379.395	75.0414	379.395	73.2676	379.395	80.857	379.395	75.2527	379.395	84.5221	379.395	78.8879	379.395	86.4004	379.395	82.7222	379.395	86.6737	379.395	85.4246
392.578	85.1745	392.578	84.6042	392.578	84.5501	392.578	82.8961	392.578	82.605	392.578	80.0941	392.578	79.0664	392.578	76.387	392.578	73.3628	392.578	72.611	392.578	66.0436	392.578	70.2506	392.578	66.6474	392.578	68.9375	392.578	67.8108	392.578	67.0892	392.578	66.0284	392.578	63.6979	392.578	60.9021	392.578	58.5294	392.578	55.7244	392.578	61.8203	392.578	59.2302	392.578	67.7005	392.578	65.5047	392.578	71.4128	392.578	74.279	392.578	73.7147	392.578	80.3608	392.578	75.5542	392.578	84.0865	392.578	78.3163	392.578	85.9018	392.578	81.8021	392.578	86.0292	392.578	84.5973
405.762	84.4936	405.762	84.1346	405.762	83.5752	405.762	82.6119	405.762	81.1622	405.762	80.0165	405.762	76.7776	405.762	76.5518	405.762	69.4288	405.762	72.8772	405.762	65.1765	405.762	70.1793	405.762	68.4387	405.762	68.5234	405.762	68.5254	405.762	66.6468	405.762	65.7836	405.762	63.3454	405.762	59.8237	405.762	56.6314	405.762	58.9825	405.762	59.0374	405.762	62.3344	405.762	66.7275	405.762	61.7043	405.762	71.0591	405.762	70.5087	405.762	73.6883	405.762	78.2494	405.762	75.7618	405.762	82.8373	405.762	78.6285	405.762	85.1969	405.762	82.0105	405.762	85.7158	405.762	84.5828
420.41	85.0823	420.41	84.7543	420.41	84.0825	420.41	83.2213	420.41	81.5287	420.41	80.5823	420.41	76.987	420.41	77.0534	420.41	70.4144	420.41	73.3274	420.41	69.0259	420.41	70.6036	420.41	70.8114	420.41	68.8583	420.41	70.2694	420.41	66.8037	420.41	67.4806	420.41	63.3739	420.41	63.1673	420.41	58.3629	420.41	64.4456	420.41	62.0316	420.41	67.5931	420.41	68.1883	420.41	67.9729	420.41	72.2438	420.41	71.3438	420.41	74.8319	420.41	78.438	420.41	76.6476	420.41	83.1909	420.41	78.9832	420.41	85.623	420.41	82.171	420.41	86.0997	420.41	84.8445
435.059	84.735	435.059	84.3493	435.059	83.7987	435.059	82.7761	435.059	81.3084	435.059	80.1261	435.059	76.9121	435.059	76.6423	435.059	71.4527	435.059	73.0823	435.059	71.1995	435.059	70.6376	435.059	72.4873	435.059	69.1652	435.059	71.9171	435.059	67.4994	435.059	69.6621	435.059	64.8771	435.059	66.2198	435.059	60.4568	435.059	65.2202	435.059	57.9476	435.059	67.6293	435.059	65.5676	435.059	68.7557	435.059	71.26	435.059	71.5843	435.059	75.0109	435.059	77.8962	435.059	77.4859	435.059	82.5785	435.059	79.5318	435.059	85.0145	435.059	81.9593	435.059	85.4826	435.059	84.2812
451.172	84.5825	451.172	84.484	451.172	83.32	451.172	83.1575	451.172	80.471	451.172	80.7113	451.172	75.7421	451.172	77.3529	451.172	70.5022	451.172	73.664	451.172	70.498	451.172	70.6342	451.172	71.3578	451.172	68.4211	451.172	70.4889	451.172	66.0859	451.172	68.0276	451.172	62.8127	451.172	64.1176	451.172	57.585	451.172	62.9979	451.172	53.9187	451.172	66.7546	451.172	62.9502	451.172	68.6896	451.172	69.4106	451.172	70.8084	451.172	73.9416	451.172	76.9638	451.172	77.2398	451.172	82.0543	451.172	79.9301	451.172	84.8123	451.172	82.48	451.172	85.535	451.172	84.5848
465.82	83.9178	465.82	84.0484	465.82	82.3149	465.82	82.8242	465.82	79.0376	465.82	80.3009	465.82	73.9852	465.82	76.5402	465.82	69.2997	465.82	71.9201	465.82	68.8235	465.82	67.9937	465.82	68.4093	465.82	66.1347	465.82	66.4389	465.82	64.7803	465.82	63.0501	465.82	62.7061	465.82	59.5244	465.82	59.4214	465.82	62.0022	465.82	53.9624	465.82	65.9814	465.82	56.648	465.82	67.7469	465.82	65.2192	465.82	69.3927	465.82	71.1893	465.82	75.3584	465.82	75.7264	465.82	80.7679	465.82	79.4302	465.82	83.8967	465.82	82.4142	465.82	85.0019	465.82	84.3984
483.398	84.911	483.398	84.4844	483.398	83.864	483.398	82.6012	483.398	81.2572	483.398	79.1513	483.398	77.1495	483.398	73.8208	483.398	72.9385	483.398	66.5824	483.398	71.4587	483.398	63.7726	483.398	71.0413	483.398	65.0549	483.398	70.0697	483.398	64.8402	483.398	68.5581	483.398	63.7379	483.398	66.6672	483.398	62.5034	483.398	65.9182	483.398	60.7162	483.398	67.8141	483.398	55.3458	483.398	70.0028	483.398	58.726	483.398	72.9968	483.398	68.3227	483.398	78.2919	483.398	73.7492	483.398	82.9195	483.398	77.9114	483.398	85.5292	483.398	81.7536	483.398	86.0747	483.398	84.7087
499.512	85.0198	499.512	84.6449	499.512	83.757	499.512	82.6205	499.512	80.7267	499.512	78.7764	499.512	75.6918	499.512	72.8519	499.512	69.6048	499.512	66.9757	499.512	68.406	499.512	66.7901	499.512	69.1362	499.512	66.4093	499.512	68.6076	499.512	63.9752	499.512	66.841	499.512	59.9705	499.512	63.5453	499.512	58.0573	499.512	60.7703	499.512	60.7024	499.512	63.4353	499.512	62.2525	499.512	64.7199	499.512	60.9295	499.512	68.9308	499.512	62.8924	499.512	77.1773	499.512	71.3404	499.512	82.5852	499.512	77.5474	499.512	85.3916	499.512	81.9644	499.512	86.0523	499.512	84.8403
517.09	85.3083	517.09	84.4321	517.09	84.2914	517.09	81.6318	517.09	81.142	517.09	76.5764	517.09	75.336	517.09	69.1829	517.09	69.7906	517.09	66.9425	517.09	71.705	517.09	67.9985	517.09	72.406	517.09	66.6737	517.09	71.4116	517.09	63.5489	517.09	69.5416	517.09	59.9812	517.09	67.2461	517.09	58.837	517.09	66.2699	517.09	59.4865	517.09	68.238	517.09	58.1352	517.09	69.5572	517.09	55.6536	517.09	69.7112	517.09	65.1023	517.09	76.5237	517.09	70.9372	517.09	82.7062	517.09	75.13	517.09	85.7752	517.09	80.0088	517.09	86.1725	517.09	84.1408
536.133	85.0911	536.133	84.0967	536.133	84.1959	536.133	81.2374	536.133	81.0982	536.133	76.4433	536.133	74.9448	536.133	70.8259	536.133	68.9671	536.133	68.6569	536.133	72.4519	536.133	67.4679	536.133	73.5106	536.133	63.9688	536.133	72.654	536.133	56.7057	536.133	70.8534	536.133	54.7915	536.133	68.1148	536.133	61.3259	536.133	64.8408	536.133	64.7017	536.133	65.5445	536.133	66.1218	536.133	67.0479	536.133	64.8082	536.133	67.677	536.133	59.9	536.133	76.2353	536.133	69.2588	536.133	82.3728	536.133	75.9507	536.133	85.1945	536.133	80.2631	536.133	85.4034	536.133	83.5315
555.176	85.3326	555.176	84.575	555.176	84.013	555.176	81.7894	555.176	80.2231	555.176	77.0585	555.176	72.5381	555.176	72.4433	555.176	65.7473	555.176	71.3481	555.176	71.1713	555.176	70.0789	555.176	72.1424	555.176	66.6193	555.176	71.1516	555.176	59.7201	555.176	69.1109	555.176	48.9007	555.176	65.8593	555.176	60.9328	555.176	62.8455	555.176	65.9987	555.176	66.3893	555.176	68.6198	555.176	68.6962	555.176	69.1111	555.176	65.2338	555.176	67.8537	555.176	73.9266	555.176	70.8193	555.176	81.895	555.176	76.4301	555.176	85.4325	555.176	80.8833	555.176	86.0111	555.176	84.2734
574.219	84.5584	574.219	84.3001	574.219	82.3316	574.219	81.8761	574.219	76.5664	574.219	77.6752	574.219	61.097	574.219	73.6613	574.219	68.9528	574.219	72.0626	574.219	71.3375	574.219	70.4581	574.219	70.1276	574.219	67.3494	574.219	67.6399	574.219	62.3022	574.219	64.6313	574.219	53.68	574.219	60.3441	574.219	54.2971	574.219	59.572	574.219	62.1366	574.219	66.771	574.219	66.7174	574.219	70.4468	574.219	69.1925	574.219	68.4193	574.219	69.7368	574.219	67.1943	574.219	71.1509	574.219	79.6444	574.219	76.3195	574.219	84.3859	574.219	81.1141	574.219	85.6021	574.219	84.3228
594.727	84.5881	594.727	84.2979	594.727	82.411	594.727	81.881	594.727	76.7882	594.727	77.7861	594.727	66.9783	594.727	73.7523	594.727	71.7877	594.727	71.3742	594.727	73.4219	594.727	68.6107	594.727	72.3201	594.727	63.8069	594.727	70.4076	594.727	55.1678	594.727	68.558	594.727	52.5261	594.727	66.407	594.727	61.1197	594.727	64.9498	594.727	66.0564	594.727	68.0014	594.727	69.2022	594.727	71.4726	594.727	70.3291	594.727	71.1453	594.727	69.0642	594.727	68.3273	594.727	71.4335	594.727	79.3905	594.727	77.6148	594.727	84.4481	594.727	81.7956	594.727	85.7432	594.727	84.5546
615.234	83.8176	615.234	83.8488	615.234	81.1509	615.234	81.6749	615.234	74.5954	615.234	77.6931	615.234	67.3211	615.234	73.2531	615.234	72.4767	615.234	70.1695	615.234	73.2732	615.234	67.16	615.234	71.9193	615.234	62.9012	615.234	69.963	615.234	58.8143	615.234	67.8305	615.234	58.5151	615.234	64.8726	615.234	61.0594	615.234	62.4675	615.234	65.0998	615.234	66.6297	615.234	69.0798	615.234	71.0274	615.234	71.3583	615.234	71.9887	615.234	70.4566	615.234	68.7473	615.234	68.1556	615.234	77.3752	615.234	76.3098	615.234	83.054	615.234	81.5496	615.234	84.8466	615.234	84.1649
637.207	84.0168	637.207	84.0094	637.207	81.4168	637.207	81.7865	637.207	75.1552	637.207	77.5458	637.207	68.4259	637.207	71.9843	637.207	72.0931	637.207	67.9208	637.207	72.1844	637.207	66.2796	637.207	70.056	637.207	64.5394	637.207	67.7836	637.207	62.0125	637.207	66.0919	637.207	58.8332	637.207	63.6811	637.207	58.313	637.207	61.4548	637.207	63.2257	637.207	65.5764	637.207	68.0493	637.207	70.1773	637.207	71.015	637.207	71.5665	637.207	71.0934	637.207	70.127	637.207	68.0004	637.207	77.8693	637.207	75.2218	637.207	83.3216	637.207	81.384	637.207	85.1411	637.207	84.4016
659.18	82.6652	659.18	83.0406	659.18	79.3882	659.18	80.8537	659.18	72.3126	659.18	76.2137	659.18	68.4947	659.18	70.5167	659.18	71.199	659.18	68.2876	659.18	70.7312	659.18	67.174	659.18	68.7795	659.18	65.0068	659.18	67.065	659.18	62.3126	659.18	65.8247	659.18	59.6785	659.18	64.1585	659.18	58.6274	659.18	63.1516	659.18	61.5203	659.18	65.7739	659.18	66.19	659.18	69.6812	659.18	69.7678	659.18	71.6467	659.18	70.6466	659.18	69.2306	659.18	67.2777	659.18	74.5464	659.18	72.9825	659.18	81.5021	659.18	80.0926	659.18	84.0147	659.18	83.4447
682.617	82.8042	682.617	82.8291	682.617	79.766	682.617	80.0552	682.617	72.5324	682.617	74.0493	682.617	66.4844	682.617	65.3385	682.617	70.3012	682.617	65.8876	682.617	70.156	682.617	66.2873	682.617	68.7908	682.617	64.5713	682.617	68.3003	682.617	62.2631	682.617	68.1141	682.617	60.5506	682.617	66.8131	682.617	60.3347	682.617	63.9241	682.617	61.6156	682.617	62.9932	682.617	64.4554	682.617	66.8558	682.617	68.5592	682.617	68.6275	682.617	71.1582	682.617	66.9383	682.617	68.7426	682.617	76.1171	682.617	65.4722	682.617	81.995	682.617	78.3083	682.617	83.9459	682.617	82.879
707.52	83.6639	707.52	83.4242	707.52	80.2513	707.52	79.9009	707.52	71.9983	707.52	72.8675	707.52	70.844	707.52	67.7042	707.52	71.9336	707.52	68.5402	707.52	69.4279	707.52	67.1051	707.52	66.4752	707.52	64.3036	707.52	64.6443	707.52	61.4557	707.52	63.1929	707.52	58.9664	707.52	60.4049	707.52	56.6846	707.52	52.1688	707.52	53.2718	707.52	57.0612	707.52	58.0725	707.52	67.2021	707.52	66.9445	707.52	72.0234	707.52	71.6095	707.52	70.6683	707.52	71.8125	707.52	74.3263	707.52	67.7345	707.52	82.3685	707.52	77.8283	707.52	84.8336	707.52	83.3929
732.422	83.3294	732.422	83.0657	732.422	79.7649	732.422	79.4341	732.422	71.1063	732.422	72.9206	732.422	71.5564	732.422	69.5477	732.422	72.8785	732.422	69.3366	732.422	70.7986	732.422	67.6628	732.422	68.9602	732.422	65.0815	732.422	68.5241	732.422	62.0717	732.422	67.4085	732.422	59.4836	732.422	64.3964	732.422	58.254	732.422	61.087	732.422	56.3908	732.422	63.9683	732.422	56.7999	732.422	68.5995	732.422	66.9404	732.422	71.9285	732.422	72.5799	732.422	70.6643	732.422	73.6264	732.422	73.3547	732.422	70.0831	732.422	81.6299	732.422	77.7393	732.422	84.4496	732.422	83.2515
757.324	82.7123	757.324	83.2378	757.324	78.4245	757.324	80.4874	757.324	69.9443	757.324	74.2513	757.324	70.5015	757.324	68.5159	757.324	71.6453	757.324	70.0951	757.324	70.8865	757.324	69.3071	757.324	69.9347	757.324	66.1915	757.324	69.5971	757.324	62.2702	757.324	69.4466	757.324	60.1603	757.324	67.9675	757.324	60.5706	757.324	64.2993	757.324	60.5106	757.324	62.3466	757.324	57.3251	757.324	66.7075	757.324	63.3799	757.324	70.9039	757.324	71.6335	757.324	71.0715	757.324	74.244	757.324	71.3853	757.324	70.7255	757.324	80.3594	757.324	77.7799	757.324	83.9948	757.324	83.3542
785.156	84.022	785.156	83.9801	785.156	79.8492	785.156	80.0284	785.156	72.1263	785.156	70.8342	785.156	72.6566	785.156	66.9742	785.156	71.3046	785.156	69.4096	785.156	68.8308	785.156	67.1092	785.156	67.6646	785.156	62.0901	785.156	66.1004	785.156	55.852	785.156	63.6862	785.156	53.7089	785.156	58.5168	785.156	55.2041	785.156	51.8466	785.156	54.9	785.156	62.3932	785.156	53.6888	785.156	66.374	785.156	59.5402	785.156	71.0784	785.156	68.3507	785.156	72.7129	785.156	71.7935	785.156	74.5265	785.156	66.7181	785.156	82.5736	785.156	76.5069	785.156	85.4794	785.156	83.7706
811.523	83.8253	811.523	83.5584	811.523	79.8258	811.523	79.1293	811.523	72.528	811.523	69.237	811.523	73.4981	811.523	70.4149	811.523	72.7994	811.523	71.6729	811.523	70.3462	811.523	68.3449	811.523	69.6233	811.523	60.8945	811.523	69.3901	811.523	52.5916	811.523	67.8371	811.523	56.4731	811.523	64.1398	811.523	59.4885	811.523	62.0041	811.523	61.9883	811.523	66.1578	811.523	62.2873	811.523	69.5109	811.523	52.3058	811.523	73.4954	811.523	67.968	811.523	74.7327	811.523	74.0937	811.523	74.4174	811.523	72.2106	811.523	82.2277	811.523	74.3617	811.523	85.2813	811.523	83.226
840.82	83.5073	840.82	83.4852	840.82	78.6347	840.82	78.7066	840.82	70.6548	840.82	68.476	840.82	72.8537	840.82	72.4886	840.82	70.635	840.82	71.8807	840.82	67.2504	840.82	65.4445	840.82	67.4552	840.82	56.0178	840.82	68.0752	840.82	61.1699	840.82	67.8875	840.82	61.8595	840.82	66.476	840.82	61.7742	840.82	64.5176	840.82	63.5236	840.82	64.44	840.82	65.1919	840.82	66.1987	840.82	61.0338	840.82	70.1051	840.82	64.703	840.82	72.2094	840.82	74.0375	840.82	72.7593	840.82	73.7613	840.82	81.5378	840.82	73.07	840.82	84.9415	840.82	82.7975
870.117	82.1797	870.117	82.0027	870.117	77.5551	870.117	76.5197	870.117	69.5871	870.117	67.0143	870.117	69.1607	870.117	72.1648	870.117	67.1927	870.117	70.0877	870.117	65.3477	870.117	60.1993	870.117	66.2073	870.117	59.3377	870.117	67.2221	870.117	62.9	870.117	67.1309	870.117	61.6333	870.117	65.3396	870.117	60.2819	870.117	60.8056	870.117	62.33	870.117	59.0725	870.117	64.9089	870.117	64.1183	870.117	64.6346	870.117	68.0453	870.117	58.3556	870.117	71.5851	870.117	71.6543	870.117	73.4919	870.117	73.9114	870.117	80.4607	870.117	69.2777	870.117	83.5701	870.117	80.6758
900.879	82.645	900.879	81.8408	900.879	78.1642	900.879	75.3521	900.879	69.988	900.879	68.5478	900.879	72.4656	900.879	71.8084	900.879	70.5251	900.879	66.4145	900.879	66.1642	900.879	53.6896	900.879	65.5603	900.879	64.6074	900.879	66.6536	900.879	64.5263	900.879	66.9611	900.879	61.6808	900.879	65.3683	900.879	58.6918	900.879	60.7486	900.879	58.2917	900.879	60.8133	900.879	63.0456	900.879	64.4418	900.879	66.3596	900.879	69.5898	900.879	58.5911	900.879	72.1263	900.879	68.8463	900.879	70.9857	900.879	74.1088	900.879	80.4956	900.879	70.7378	900.879	83.534	900.879	80.148
933.105	82.7234	933.105	82.3696	933.105	77.0655	933.105	76.1465	933.105	69.8329	933.105	72.7004	933.105	71.4151	933.105	73.7974	933.105	67.9454	933.105	66.3271	933.105	66.4024	933.105	60.6359	933.105	66.1058	933.105	66.7976	933.105	66.9913	933.105	65.8668	933.105	67.5364	933.105	62.8684	933.105	66.099	933.105	59.0172	933.105	62.0773	933.105	57.1237	933.105	61.5755	933.105	64.6731	933.105	65.404	933.105	69.0067	933.105	67.3002	933.105	65.3353	933.105	69.7757	933.105	69.3274	933.105	69.1856	933.105	75.8546	933.105	79.9764	933.105	74.36	933.105	83.7591	933.105	80.8898
965.332	81.4751	965.332	81.6096	965.332	75.5973	965.332	76.2723	965.332	71.2555	965.332	73.3719	965.332	71.4224	965.332	73.6455	965.332	67.3545	965.332	65.7691	965.332	63.6767	965.332	60.7706	965.332	65.0255	965.332	66.4701	965.332	65.2109	965.332	65.8003	965.332	64.4164	965.332	63.9533	965.332	61.5995	965.332	61.3084	965.332	54.0007	965.332	56.0762	965.332	59.6912	965.332	63.1382	965.332	64.0802	965.332	67.8186	965.332	68.4507	965.332	63.4586	965.332	72.755	965.332	68.1088	965.332	73.2933	965.332	75.2485	965.332	76.7829	965.332	74.1514	965.332	82.122	965.332	80.0487
1,000.49	82.3785	1,000.49	82.7403	1,000.49	76.3825	1,000.49	76.61	1,000.49	72.4022	1,000.49	71.7707	1,000.49	70.8683	1,000.49	71.4899	1,000.49	66.6293	1,000.49	51.5129	1,000.49	67.6818	1,000.49	66.1559	1,000.49	68.4848	1,000.49	66.9554	1,000.49	67.7136	1,000.49	64.3049	1,000.49	67.1997	1,000.49	62.2844	1,000.49	65.7095	1,000.49	61.0283	1,000.49	62.2805	1,000.49	59.1903	1,000.49	63.1122	1,000.49	60.5364	1,000.49	66.8949	1,000.49	67.4937	1,000.49	68.003	1,000.49	68.9591	1,000.49	72.0628	1,000.49	56.9658	1,000.49	74.1628	1,000.49	73.4539	1,000.49	79.2172	1,000.49	72.3256	1,000.49	83.5274	1,000.49	81.0181
1,035.64	83.1003	1,035.64	82.6986	1,035.64	77.1324	1,035.64	74.8949	1,035.64	72.6103	1,035.64	73.4935	1,035.64	72.7687	1,035.64	70.8866	1,035.64	70.1648	1,035.64	57.4244	1,035.64	66.8822	1,035.64	67.6128	1,035.64	64.8339	1,035.64	63.9252	1,035.64	65.5128	1,035.64	54.2438	1,035.64	67.1845	1,035.64	52.8488	1,035.64	66.384	1,035.64	56.1826	1,035.64	62.8533	1,035.64	57.9686	1,035.64	59.2662	1,035.64	53.4249	1,035.64	65.4066	1,035.64	62.5221	1,035.64	69.4234	1,035.64	68.2578	1,035.64	73.077	1,035.64	57.9857	1,035.64	73.0468	1,035.64	72.7371	1,035.64	80.8098	1,035.64	72.7981	1,035.64	84.4267	1,035.64	80.1499
1,072.27	81.5892	1,072.27	81.2439	1,072.27	76.2517	1,072.27	72.766	1,072.27	72.3953	1,072.27	73.2133	1,072.27	70.7839	1,072.27	69.3615	1,072.27	67.6698	1,072.27	61.5812	1,072.27	67.6912	1,072.27	67.0996	1,072.27	65.2679	1,072.27	63.0399	1,072.27	64.0162	1,072.27	53.8024	1,072.27	64.7165	1,072.27	52.3684	1,072.27	63.6135	1,072.27	57.9183	1,072.27	59.2652	1,072.27	61.3677	1,072.27	60.8011	1,072.27	58.9246	1,072.27	64.9884	1,072.27	59.6697	1,072.27	67.6692	1,072.27	68.9623	1,072.27	70.8922	1,072.27	60.9141	1,072.27	74.5448	1,072.27	72.5133	1,072.27	79.323	1,072.27	72.4495	1,072.27	83.0296	1,072.27	78.8367
1,108.89	80.9796	1,108.89	79.9275	1,108.89	75.7416	1,108.89	71.5601	1,108.89	69.9884	1,108.89	72.0144	1,108.89	72.1946	1,108.89	64.5015	1,108.89	67.7888	1,108.89	62.298	1,108.89	67.6026	1,108.89	62.2567	1,108.89	63.6698	1,108.89	44.3361	1,108.89	61.4191	1,108.89	54.9706	1,108.89	64.3063	1,108.89	58.7343	1,108.89	63.2179	1,108.89	60.1125	1,108.89	56.2449	1,108.89	60.3577	1,108.89	56.5001	1,108.89	60.6898	1,108.89	64.4719	1,108.89	54.3744	1,108.89	66.9094	1,108.89	62.3838	1,108.89	71.6507	1,108.89	64.091	1,108.89	71.0815	1,108.89	69.5304	1,108.89	78.3941	1,108.89	72.321	1,108.89	81.669	1,108.89	76.7121
1,148.44	80.8906	1,148.44	80.327	1,148.44	72.0091	1,148.44	71.8258	1,148.44	71.9802	1,148.44	73.062	1,148.44	70.8284	1,148.44	63.5491	1,148.44	67.0415	1,148.44	67.2106	1,148.44	68.4586	1,148.44	60.872	1,148.44	64.4628	1,148.44	58.226	1,148.44	60.6475	1,148.44	62.9356	1,148.44	60.2217	1,148.44	62.2519	1,148.44	59.3842	1,148.44	60.5895	1,148.44	57.6662	1,148.44	61.0901	1,148.44	62.7433	1,148.44	63.3577	1,148.44	66.2407	1,148.44	61.1202	1,148.44	66.3816	1,148.44	61.3691	1,148.44	70.8789	1,148.44	67.5682	1,148.44	70.548	1,148.44	68.8463	1,148.44	75.407	1,148.44	73.3466	1,148.44	81.3695	1,148.44	76.4681
1,189.45	79.4023	1,189.45	78.4769	1,189.45	71.8266	1,189.45	73.8634	1,189.45	70.2743	1,189.45	74.5282	1,189.45	69.3435	1,189.45	64.4878	1,189.45	55.1785	1,189.45	67.1574	1,189.45	64.283	1,189.45	58.0459	1,189.45	62.864	1,189.45	61.1783	1,189.45	61.7407	1,189.45	63.9755	1,189.45	63.1012	1,189.45	63.1869	1,189.45	61.2945	1,189.45	60.0166	1,189.45	54.4061	1,189.45	58.1343	1,189.45	51.6146	1,189.45	64.7814	1,189.45	60.558	1,189.45	65.0263	1,189.45	58.9985	1,189.45	51.6288	1,189.45	70.2865	1,189.45	66.1213	1,189.45	71.2085	1,189.45	68.874	1,189.45	73.6792	1,189.45	75.6653	1,189.45	79.4199	1,189.45	76.1199
1,230.47	81.7202	1,230.47	81.8274	1,230.47	71.8579	1,230.47	75.9359	1,230.47	73.9562	1,230.47	70.535	1,230.47	67.022	1,230.47	63.7015	1,230.47	71.1147	1,230.47	61.3731	1,230.47	69.2111	1,230.47	60.0712	1,230.47	64.4436	1,230.47	65.1811	1,230.47	63.4281	1,230.47	64.2833	1,230.47	63.1011	1,230.47	62.8496	1,230.47	61.5357	1,230.47	61.6558	1,230.47	58.6523	1,230.47	57.3017	1,230.47	61.3239	1,230.47	59.3313	1,230.47	65.7341	1,230.47	65.2326	1,230.47	67.9154	1,230.47	60.4988	1,230.47	64.3326	1,230.47	65.3744	1,230.47	73.6093	1,230.47	68.1374	1,230.47	76.5946	1,230.47	74.6505	1,230.47	83.4832	1,230.47	80.4196
1,274.41	81.6897	1,274.41	81.7651	1,274.41	75.1966	1,274.41	73.4513	1,274.41	73.1865	1,274.41	72.5584	1,274.41	69.3092	1,274.41	66.6468	1,274.41	68.3159	1,274.41	61.5217	1,274.41	65.4445	1,274.41	65.1672	1,274.41	59.2184	1,274.41	62.4852	1,274.41	60.2686	1,274.41	54.7948	1,274.41	63.7859	1,274.41	51.1066	1,274.41	64.6395	1,274.41	56.725	1,274.41	59.9459	1,274.41	59.3618	1,274.41	54.3443	1,274.41	46.5472	1,274.41	62.7892	1,274.41	62.6048	1,274.41	68.0456	1,274.41	63.9503	1,274.41	69.8929	1,274.41	65.8324	1,274.41	74.6454	1,274.41	67.8398	1,274.41	77.6911	1,274.41	73.6549	1,274.41	83.5689	1,274.41	78.8725
1,319.82	82.0427	1,319.82	80.691	1,319.82	74.7302	1,319.82	72.0611	1,319.82	73.5139	1,319.82	71.1713	1,319.82	66.9437	1,319.82	61.4718	1,319.82	71.1666	1,319.82	62.0304	1,319.82	63.7156	1,319.82	61.5968	1,319.82	65.4172	1,319.82	57.8542	1,319.82	59.9097	1,319.82	53.5703	1,319.82	61.2357	1,319.82	56.5494	1,319.82	62.9107	1,319.82	60.7443	1,319.82	56.2558	1,319.82	61.4106	1,319.82	56.3098	1,319.82	57.2024	1,319.82	56.5688	1,319.82	51.4193	1,319.82	65.7378	1,319.82	59.8052	1,319.82	66.5371	1,319.82	65.2418	1,319.82	74.378	1,319.82	64.9083	1,319.82	78.067	1,319.82	75.0346	1,319.82	82.7262	1,319.82	75.7591
1,366.7	80.7592	1,366.7	79.8018	1,366.7	72.6135	1,366.7	71.8975	1,366.7	73.6125	1,366.7	72.1895	1,366.7	67.998	1,366.7	61.0322	1,366.7	67.7331	1,366.7	62.6393	1,366.7	60.7431	1,366.7	55.3573	1,366.7	65.9317	1,366.7	58.899	1,366.7	61.0217	1,366.7	61.323	1,366.7	60.2317	1,366.7	61.0805	1,366.7	61.7296	1,366.7	60.9417	1,366.7	52.7435	1,366.7	62.2823	1,366.7	59.937	1,366.7	64.3621	1,366.7	56.9178	1,366.7	59.3928	1,366.7	66.2664	1,366.7	59.0643	1,366.7	68.0537	1,366.7	59.6633	1,366.7	73.7769	1,366.7	64.3413	1,366.7	74.8148	1,366.7	74.5033	1,366.7	81.3533	1,366.7	73.6545
1,413.57	79.8272	1,413.57	78.0246	1,413.57	74.9049	1,413.57	73.6401	1,413.57	72.5051	1,413.57	68.7794	1,413.57	62.005	1,413.57	55.1015	1,413.57	68.169	1,413.57	61.4584	1,413.57	66.5752	1,413.57	60.7486	1,413.57	64.5223	1,413.57	67.1436	1,413.57	45.7834	1,413.57	66.5935	1,413.57	57.0077	1,413.57	63.9002	1,413.57	63.8312	1,413.57	58.9859	1,413.57	60.5744	1,413.57	61.567	1,413.57	60.2447	1,413.57	64.8858	1,413.57	61.0355	1,413.57	65.1675	1,413.57	62.4163	1,413.57	61.3593	1,413.57	61.1623	1,413.57	62.9959	1,413.57	73.0343	1,413.57	54.8613	1,413.57	77.0804	1,413.57	73.2623	1,413.57	80.6929	1,413.57	77.1684
1,463.38	83.4449	1,463.38	82.6618	1,463.38	74.7487	1,463.38	73.4239	1,463.38	73.837	1,463.38	70.019	1,463.38	70.1065	1,463.38	68.9765	1,463.38	71.7863	1,463.38	63.2336	1,463.38	66.6099	1,463.38	65.9708	1,463.38	66.0856	1,463.38	66.5422	1,463.38	49.7173	1,463.38	62.1855	1,463.38	57.295	1,463.38	58.5553	1,463.38	53.629	1,463.38	55.7703	1,463.38	54.1115	1,463.38	55.0399	1,463.38	62.7029	1,463.38	62.4461	1,463.38	64.9884	1,463.38	64.7658	1,463.38	70.4559	1,463.38	64.4503	1,463.38	70.428	1,463.38	65.6768	1,463.38	76.2274	1,463.38	70.2766	1,463.38	78.7597	1,463.38	72.8269	1,463.38	85.3558	1,463.38	78.6124
1,516.11	83.7031	1,516.11	81.4121	1,516.11	77.1915	1,516.11	75.6756	1,516.11	74.4156	1,516.11	70.6019	1,516.11	70.4746	1,516.11	67.5938	1,516.11	68.0853	1,516.11	57.4576	1,516.11	65.2837	1,516.11	65.745	1,516.11	61.9709	1,516.11	62.6746	1,516.11	52.3734	1,516.11	46.5055	1,516.11	50.4577	1,516.11	44.5435	1,516.11	53.5916	1,516.11	52.1614	1,516.11	59.9438	1,516.11	52.1778	1,516.11	63.039	1,516.11	55.1735	1,516.11	66.6001	1,516.11	62.3572	1,516.11	68.7235	1,516.11	62.3112	1,516.11	70.4522	1,516.11	61.8256	1,516.11	77.8554	1,516.11	69.0845	1,516.11	79.9137	1,516.11	75.9128	1,516.11	85.3101	1,516.11	77.3205
1,568.85	83.1168	1,568.85	81.2975	1,568.85	76.5089	1,568.85	74.9231	1,568.85	73.8133	1,568.85	68.6022	1,568.85	70.8177	1,568.85	59.2597	1,568.85	65.4322	1,568.85	60.8619	1,568.85	68.1946	1,568.85	60.7404	1,568.85	59.4038	1,568.85	54.2476	1,568.85	59.4864	1,568.85	46.8354	1,568.85	56.2035	1,568.85	46.0624	1,568.85	60.9069	1,568.85	59.0985	1,568.85	63.1892	1,568.85	61.9629	1,568.85	62.7396	1,568.85	58.9281	1,568.85	66.5099	1,568.85	53.4055	1,568.85	66.0933	1,568.85	61.6092	1,568.85	71.4541	1,568.85	55.7871	1,568.85	75.3713	1,568.85	65.9294	1,568.85	79.281	1,568.85	73.6929	1,568.85	84.1479	1,568.85	76.4425
1,624.51	81.9792	1,624.51	80.1305	1,624.51	78.0064	1,624.51	75.1741	1,624.51	71.0227	1,624.51	69.7168	1,624.51	71.733	1,624.51	61.7092	1,624.51	66.5406	1,624.51	58.3755	1,624.51	67.4985	1,624.51	63.6495	1,624.51	61.1167	1,624.51	50.112	1,624.51	58.3413	1,624.51	61.4963	1,624.51	56.1206	1,624.51	58.9797	1,624.51	59.1045	1,624.51	35.9181	1,624.51	58.0085	1,624.51	61.6743	1,624.51	53.0687	1,624.51	62.5883	1,624.51	62.9419	1,624.51	54.3407	1,624.51	65.0814	1,624.51	60.7098	1,624.51	72.3129	1,624.51	66.5171	1,624.51	73.2925	1,624.51	60.43	1,624.51	79.9486	1,624.51	73.3256	1,624.51	83.3318	1,624.51	77.3372
1,681.64	83.2932	1,681.64	80.1387	1,681.64	76.3695	1,681.64	70.9728	1,681.64	73.0276	1,681.64	46.0096	1,681.64	72.2308	1,681.64	66.6911	1,681.64	68.8817	1,681.64	68.287	1,681.64	66.7598	1,681.64	66.3197	1,681.64	63.9646	1,681.64	59.3967	1,681.64	57.265	1,681.64	61.7384	1,681.64	57.6692	1,681.64	57.7776	1,681.64	63.2426	1,681.64	53.1593	1,681.64	63.5736	1,681.64	60.2018	1,681.64	47.4217	1,681.64	63.6594	1,681.64	63.1581	1,681.64	61.3628	1,681.64	68.8008	1,681.64	66.3545	1,681.64	72.9571	1,681.64	67.817	1,681.64	75.5723	1,681.64	67.7329	1,681.64	80.2797	1,681.64	66.0272	1,681.64	85.1068	1,681.64	74.874
1,741.7	84.3169	1,741.7	80.9528	1,741.7	77.18	1,741.7	76.3545	1,741.7	72.1912	1,741.7	67.7967	1,741.7	73.3783	1,741.7	68.5929	1,741.7	67.1568	1,741.7	67.5849	1,741.7	68.4045	1,741.7	60.3893	1,741.7	58.7488	1,741.7	63.708	1,741.7	62.2643	1,741.7	62.3343	1,741.7	57.3128	1,741.7	61.1796	1,741.7	59.8166	1,741.7	56.6442	1,741.7	57.8732	1,741.7	55.9006	1,741.7	49.9605	1,741.7	61.7931	1,741.7	64.965	1,741.7	63.2255	1,741.7	66.7688	1,741.7	61.153	1,741.7	71.8512	1,741.7	67.8419	1,741.7	75.9729	1,741.7	71.6846	1,741.7	80.8775	1,741.7	75.1717	1,741.7	86.4374	1,741.7	79.2346
1,803.22	83.1335	1,803.22	80.198	1,803.22	78.6819	1,803.22	76.4058	1,803.22	70.9307	1,803.22	62.7825	1,803.22	71.0577	1,803.22	59.6178	1,803.22	70.3582	1,803.22	62.6406	1,803.22	60.7518	1,803.22	62.4778	1,803.22	67.4276	1,803.22	64.7391	1,803.22	60.5494	1,803.22	58.5646	1,803.22	52.6712	1,803.22	57.4115	1,803.22	57.0145	1,803.22	57.0104	1,803.22	58.4216	1,803.22	53.8196	1,803.22	47.0224	1,803.22	57.4669	1,803.22	56.1711	1,803.22	67.3074	1,803.22	69.5139	1,803.22	57.5239	1,803.22	72.3247	1,803.22	62.9205	1,803.22	75.0468	1,803.22	65.5488	1,803.22	80.4363	1,803.22	72.5879	1,803.22	85.4027	1,803.22	78.2317
1,866.21	82.8638	1,866.21	79.5996	1,866.21	77.2533	1,866.21	76.5365	1,866.21	69.0784	1,866.21	60.6757	1,866.21	71.5736	1,866.21	64.1113	1,866.21	69.7646	1,866.21	65.9667	1,866.21	53.2893	1,866.21	66.5569	1,866.21	67.6928	1,866.21	62.8621	1,866.21	57.4435	1,866.21	55.3638	1,866.21	47.4121	1,866.21	50.3455	1,866.21	61.7767	1,866.21	56.1517	1,866.21	62.2809	1,866.21	58.7172	1,866.21	51.1022	1,866.21	61.688	1,866.21	60.9984	1,866.21	64.1836	1,866.21	69.9492	1,866.21	59.4661	1,866.21	72.5477	1,866.21	68.6235	1,866.21	72.604	1,866.21	68.8872	1,866.21	79.9444	1,866.21	71.265	1,866.21	84.4484	1,866.21	78.1564
1,932.13	82.6902	1,932.13	79.0907	1,932.13	77.543	1,932.13	74.8559	1,932.13	71.2094	1,932.13	67.0418	1,932.13	70.589	1,932.13	62.4903	1,932.13	68.3273	1,932.13	65.5177	1,932.13	56.0135	1,932.13	66.676	1,932.13	64.8484	1,932.13	57.6964	1,932.13	60.5089	1,932.13	58.592	1,932.13	61.874	1,932.13	56.6211	1,932.13	63.3018	1,932.13	55.4963	1,932.13	60.8265	1,932.13	55.6486	1,932.13	47.9793	1,932.13	61.2448	1,932.13	65.3597	1,932.13	61.0241	1,932.13	71.3447	1,932.13	67.0652	1,932.13	71.5343	1,932.13	70.1353	1,932.13	73.9379	1,932.13	68.2705	1,932.13	80.6258	1,932.13	69.8891	1,932.13	85.7871	1,932.13	78.7149
1,999.51	83.1599	1,999.51	79.8284	1,999.51	77.3192	1,999.51	75.3718	1,999.51	71.8442	1,999.51	69.6973	1,999.51	66.1048	1,999.51	67.7285	1,999.51	68.9996	1,999.51	62.6148	1,999.51	60.9299	1,999.51	65.7103	1,999.51	57.2808	1,999.51	61.0937	1,999.51	64.138	1,999.51	57.9244	1,999.51	55.5556	1,999.51	54.2826	1,999.51	64.4791	1,999.51	59.4141	1,999.51	65.5409	1,999.51	52.2817	1,999.51	54.4707	1,999.51	63.653	1,999.51	58.7627	1,999.51	61.825	1,999.51	71.5785	1,999.51	70.0984	1,999.51	67.6324	1,999.51	68.0816	1,999.51	73.5827	1,999.51	67.3768	1,999.51	81.5937	1,999.51	72.5358	1,999.51	86.1343	1,999.51	79.364
2,069.82	82.0668	2,069.82	78.6147	2,069.82	76.3699	2,069.82	74.8252	2,069.82	71.3317	2,069.82	67.8266	2,069.82	63.2518	2,069.82	66.0134	2,069.82	68.7165	2,069.82	60.6593	2,069.82	64.4528	2,069.82	68.1696	2,069.82	55.0221	2,069.82	57.1829	2,069.82	64.2147	2,069.82	59.4908	2,069.82	57.1052	2,069.82	55.8932	2,069.82	60.6692	2,069.82	33.7135	2,069.82	61.4032	2,069.82	59.9655	2,069.82	57.0024	2,069.82	52.8873	2,069.82	64.2978	2,069.82	63.2859	2,069.82	68.161	2,069.82	68.9819	2,069.82	65.9316	2,069.82	63.245	2,069.82	72.3297	2,069.82	66.0874	2,069.82	80.2788	2,069.82	70.9861	2,069.82	84.4847	2,069.82	79.8643
2,143.07	81.4311	2,143.07	77.7111	2,143.07	77.3708	2,143.07	74.825	2,143.07	71.0422	2,143.07	68.8457	2,143.07	66.2834	2,143.07	67.5244	2,143.07	64.8135	2,143.07	63.2384	2,143.07	64.1577	2,143.07	63.9466	2,143.07	62.6052	2,143.07	60.3582	2,143.07	65.418	2,143.07	60.5371	2,143.07	59.8506	2,143.07	56.9578	2,143.07	51.3238	2,143.07	61.4525	2,143.07	58.7403	2,143.07	61.125	2,143.07	52.5981	2,143.07	62.9327	2,143.07	62.4644	2,143.07	63.9174	2,143.07	57.7672	2,143.07	63.4239	2,143.07	66.0619	2,143.07	59.8896	2,143.07	74.8603	2,143.07	67.2067	2,143.07	80.3937	2,143.07	71.2448	2,143.07	84.4628	2,143.07	79.5693
2,219.24	81.6175	2,219.24	77.4092	2,219.24	77.3697	2,219.24	71.4196	2,219.24	72.0097	2,219.24	64.9972	2,219.24	69.4042	2,219.24	65.838	2,219.24	60.559	2,219.24	66.3046	2,219.24	59.6221	2,219.24	60.6199	2,219.24	61.1991	2,219.24	63.3855	2,219.24	66.3408	2,219.24	57.5037	2,219.24	52.7895	2,219.24	53.9932	2,219.24	57.8813	2,219.24	45.9343	2,219.24	55.9971	2,219.24	56.6708	2,219.24	60.2342	2,219.24	65.0289	2,219.24	61.5417	2,219.24	61.3113	2,219.24	59.0858	2,219.24	59.961	2,219.24	69.6137	2,219.24	66.0839	2,219.24	75.4823	2,219.24	68.4024	2,219.24	81.0089	2,219.24	71.1674	2,219.24	84.6919	2,219.24	79.473
2,296.88	80.8006	2,296.88	77.136	2,296.88	75.1522	2,296.88	71.1469	2,296.88	71.0638	2,296.88	67.9416	2,296.88	68.9333	2,296.88	66.4607	2,296.88	58.051	2,296.88	66.1771	2,296.88	62.7304	2,296.88	60.5982	2,296.88	63.6979	2,296.88	62.8438	2,296.88	63.7186	2,296.88	63.1125	2,296.88	40.8431	2,296.88	54.3117	2,296.88	53.2594	2,296.88	60.4822	2,296.88	56.3627	2,296.88	59.6814	2,296.88	62.7037	2,296.88	63.7024	2,296.88	60.3492	2,296.88	58.7487	2,296.88	58.1328	2,296.88	66.8052	2,296.88	71.6861	2,296.88	68.1876	2,296.88	76.1982	2,296.88	70.2315	2,296.88	79.4242	2,296.88	71.9999	2,296.88	83.2182	2,296.88	78.7667
2,378.91	80.7529	2,378.91	78.1067	2,378.91	75.0137	2,378.91	69.0768	2,378.91	70.7866	2,378.91	64.5866	2,378.91	70.3896	2,378.91	61.9648	2,378.91	53.7677	2,378.91	65.2483	2,378.91	60.3834	2,378.91	55.1846	2,378.91	66.5063	2,378.91	66.9652	2,378.91	60.0517	2,378.91	62.2704	2,378.91	49.5518	2,378.91	58.7151	2,378.91	59.7885	2,378.91	63.6791	2,378.91	61.4278	2,378.91	59.7176	2,378.91	60.9151	2,378.91	54.6086	2,378.91	65.0092	2,378.91	61.3219	2,378.91	59.3368	2,378.91	64.0242	2,378.91	69.9565	2,378.91	68.2035	2,378.91	74.8865	2,378.91	70.1156	2,378.91	79.5424	2,378.91	71.9033	2,378.91	83.37	2,378.91	78.7464
2,462.4	79.5181	2,462.4	77.1911	2,462.4	74.7879	2,462.4	69.9035	2,462.4	71.6227	2,462.4	62.964	2,462.4	69.616	2,462.4	58.1487	2,462.4	63.8263	2,462.4	66.2787	2,462.4	62.909	2,462.4	63.136	2,462.4	56.6642	2,462.4	57.0671	2,462.4	60.5519	2,462.4	59.3103	2,462.4	59.8514	2,462.4	58.8235	2,462.4	51.1945	2,462.4	53.9413	2,462.4	52.175	2,462.4	50.6468	2,462.4	58.2781	2,462.4	63.6795	2,462.4	58.6247	2,462.4	59.3517	2,462.4	64.129	2,462.4	62.2203	2,462.4	70.8851	2,462.4	67.9282	2,462.4	75.5011	2,462.4	67.1704	2,462.4	80.0009	2,462.4	71.3913	2,462.4	83.5157	2,462.4	79.3913
2,548.83	78.0094	2,548.83	77.1724	2,548.83	73.765	2,548.83	69.3478	2,548.83	66.9528	2,548.83	62.3469	2,548.83	67.3065	2,548.83	62.3896	2,548.83	64.5135	2,548.83	61.2275	2,548.83	65.6029	2,548.83	61.3104	2,548.83	63.7319	2,548.83	60.7289	2,548.83	62.6318	2,548.83	54.7335	2,548.83	59.4309	2,548.83	55.391	2,548.83	56.2997	2,548.83	41.8443	2,548.83	56.9939	2,548.83	57.8102	2,548.83	58.9976	2,548.83	63.0035	2,548.83	59.9432	2,548.83	54.7038	2,548.83	63.593	2,548.83	61.4626	2,548.83	69.938	2,548.83	62.4098	2,548.83	72.4525	2,548.83	66.312	2,548.83	78.8798	2,548.83	71.2541	2,548.83	82.1988	2,548.83	78.9636
2,639.65	80.2034	2,639.65	77.0599	2,639.65	74.517	2,639.65	66.0332	2,639.65	68.1304	2,639.65	61.5699	2,639.65	65.2243	2,639.65	53.1823	2,639.65	63.7828	2,639.65	61.1003	2,639.65	65.8897	2,639.65	63.5611	2,639.65	60.2166	2,639.65	50.0416	2,639.65	48.6041	2,639.65	54.7401	2,639.65	61.5291	2,639.65	54.0358	2,639.65	57.4699	2,639.65	53.8118	2,639.65	58.2671	2,639.65	60.941	2,639.65	60.68	2,639.65	56.0178	2,639.65	62.565	2,639.65	53.5447	2,639.65	63.4571	2,639.65	66.4533	2,639.65	68.2588	2,639.65	67.1503	2,639.65	73.805	2,639.65	67.0108	2,639.65	81.9492	2,639.65	70.7502	2,639.65	84.2872	2,639.65	79.9247
2,731.93	80.4357	2,731.93	77.0282	2,731.93	73.7359	2,731.93	65.4304	2,731.93	67.3852	2,731.93	63.553	2,731.93	59.7078	2,731.93	61.0184	2,731.93	60.6911	2,731.93	50.3881	2,731.93	64.8019	2,731.93	60.5706	2,731.93	56.9032	2,731.93	58.8046	2,731.93	56.0884	2,731.93	60.5963	2,731.93	63.5216	2,731.93	56.9467	2,731.93	56.8527	2,731.93	59.3548	2,731.93	50.9704	2,731.93	51.9922	2,731.93	58.9659	2,731.93	49.8631	2,731.93	63.0955	2,731.93	58.6725	2,731.93	60.043	2,731.93	63.0767	2,731.93	65.8445	2,731.93	62.5267	2,731.93	74.8205	2,731.93	61.5211	2,731.93	82.2518	2,731.93	69.5129	2,731.93	84.3126	2,731.93	79.998
2,828.61	80.2501	2,828.61	76.8003	2,828.61	73.1293	2,828.61	64.6573	2,828.61	67.4537	2,828.61	65.4974	2,828.61	60.0594	2,828.61	64.6056	2,828.61	63.9393	2,828.61	64.6673	2,828.61	64.2797	2,828.61	42.7745	2,828.61	59.8726	2,828.61	52.2301	2,828.61	58.4797	2,828.61	60.7458	2,828.61	60.3159	2,828.61	55.8966	2,828.61	58.18	2,828.61	58.8203	2,828.61	58.5239	2,828.61	56.7208	2,828.61	58.7213	2,828.61	59.2327	2,828.61	62.8858	2,828.61	63.661	2,828.61	64.3581	2,828.61	64.2659	2,828.61	67.9996	2,828.61	66.6122	2,828.61	74.5646	2,828.61	64.2206	2,828.61	82.3541	2,828.61	67.4875	2,828.61	83.9063	2,828.61	79.1206
2,928.22	80.9424	2,928.22	77.4896	2,928.22	73.1827	2,928.22	65.6761	2,928.22	68.2403	2,928.22	64.9426	2,928.22	63.2643	2,928.22	62.2634	2,928.22	66.3939	2,928.22	64.5726	2,928.22	62.3615	2,928.22	59.8867	2,928.22	64.0201	2,928.22	61.1107	2,928.22	56.925	2,928.22	51.9578	2,928.22	55.4573	2,928.22	57.8993	2,928.22	60.0744	2,928.22	56.6401	2,928.22	62.5299	2,928.22	59.1257	2,928.22	60.3683	2,928.22	62.2038	2,928.22	61.8686	2,928.22	66.7837	2,928.22	67.9838	2,928.22	68.976	2,928.22	70.6754	2,928.22	68.3071	2,928.22	75.0293	2,928.22	64.5905	2,928.22	82.4781	2,928.22	66.7757	2,928.22	84.1647	2,928.22	78.6519
3,030.76	81.2902	3,030.76	76.8817	3,030.76	72.6557	3,030.76	66.265	3,030.76	66.7349	3,030.76	63.5655	3,030.76	63.2649	3,030.76	58.8876	3,030.76	65.534	3,030.76	61.2091	3,030.76	57.975	3,030.76	62.9329	3,030.76	65.6746	3,030.76	66.6117	3,030.76	60.5876	3,030.76	56.5547	3,030.76	53.259	3,030.76	52.2694	3,030.76	60.3987	3,030.76	55.6237	3,030.76	65.017	3,030.76	45.2137	3,030.76	62.997	3,030.76	55.2803	3,030.76	55.775	3,030.76	62.4986	3,030.76	69.1735	3,030.76	68.4721	3,030.76	69.4943	3,030.76	67.7202	3,030.76	75.4097	3,030.76	67.2768	3,030.76	81.2839	3,030.76	69.8341	3,030.76	84.2709	3,030.76	77.4298
3,137.7	80.7359	3,137.7	78.315	3,137.7	72.5795	3,137.7	69.8271	3,137.7	68.9508	3,137.7	64.1904	3,137.7	62.917	3,137.7	59.9782	3,137.7	59.8061	3,137.7	61.347	3,137.7	55.4474	3,137.7	63.2363	3,137.7	65.5575	3,137.7	64.4463	3,137.7	62.7329	3,137.7	61.1151	3,137.7	48.1568	3,137.7	59.2373	3,137.7	59.7352	3,137.7	51.715	3,137.7	66.0789	3,137.7	61.495	3,137.7	63.7503	3,137.7	67.0276	3,137.7	50.2901	3,137.7	66.3009	3,137.7	69.4296	3,137.7	67.2846	3,137.7	67.0329	3,137.7	68.1834	3,137.7	73.4746	3,137.7	67.131	3,137.7	80.8765	3,137.7	71.4046	3,137.7	83.9076	3,137.7	79.1186
3,249.02	80.8099	3,249.02	78.7175	3,249.02	73.4818	3,249.02	70.4206	3,249.02	70.723	3,249.02	63.3043	3,249.02	64.1621	3,249.02	60.6908	3,249.02	61.7096	3,249.02	55.2836	3,249.02	51.6912	3,249.02	63.4193	3,249.02	59.8965	3,249.02	61.175	3,249.02	62.329	3,249.02	62.2102	3,249.02	51.8855	3,249.02	50.881	3,249.02	58.3878	3,249.02	60.561	3,249.02	64.6689	3,249.02	58.9508	3,249.02	65.0702	3,249.02	69.1933	3,249.02	57.8953	3,249.02	67.697	3,249.02	70.1558	3,249.02	67.2618	3,249.02	68.7241	3,249.02	67.1825	3,249.02	72.2021	3,249.02	64.7471	3,249.02	80.8779	3,249.02	70.9471	3,249.02	83.6333	3,249.02	78.8001
3,363.28	80.902	3,363.28	79.0125	3,363.28	73.9029	3,363.28	70.9945	3,363.28	71.1704	3,363.28	58.4498	3,363.28	60.8511	3,363.28	58.9308	3,363.28	65.6794	3,363.28	61.9466	3,363.28	59.7936	3,363.28	58.0306	3,363.28	47.3372	3,363.28	53.4789	3,363.28	56.5378	3,363.28	59.4269	3,363.28	54.8588	3,363.28	55.2831	3,363.28	54.5809	3,363.28	59.1477	3,363.28	60.3585	3,363.28	60.8147	3,363.28	62.6093	3,363.28	69.5605	3,363.28	63.6706	3,363.28	65.2128	3,363.28	69.4952	3,363.28	67.5647	3,363.28	71.5086	3,363.28	68.7876	3,363.28	72.8386	3,363.28	62.327	3,363.28	81.261	3,363.28	70.0117	3,363.28	84.1431	3,363.28	78.1345
3,481.93	81.1927	3,481.93	78.636	3,481.93	74.5434	3,481.93	70.8106	3,481.93	71.1368	3,481.93	56.9976	3,481.93	52.9346	3,481.93	55.406	3,481.93	65.8698	3,481.93	61.3507	3,481.93	57.7731	3,481.93	57.8199	3,481.93	63.0459	3,481.93	58.7468	3,481.93	59.5022	3,481.93	53.6347	3,481.93	57.822	3,481.93	56.7697	3,481.93	49.8011	3,481.93	64.5149	3,481.93	61.6697	3,481.93	58.7437	3,481.93	61.4089	3,481.93	71.1932	3,481.93	63.7982	3,481.93	68.296	3,481.93	68.1161	3,481.93	66.7106	3,481.93	71.631	3,481.93	67.1653	3,481.93	73.2009	3,481.93	64.2882	3,481.93	81.1882	3,481.93	69.9181	3,481.93	83.8641	3,481.93	76.6588
3,604.98	81.3781	3,604.98	77.9839	3,604.98	73.2015	3,604.98	69.8413	3,604.98	70.2967	3,604.98	54.5837	3,604.98	48.9262	3,604.98	53.6974	3,604.98	62.2531	3,604.98	60.7419	3,604.98	44.6398	3,604.98	67.058	3,604.98	63.1258	3,604.98	58.2893	3,604.98	63.6645	3,604.98	59.6594	3,604.98	58.5864	3,604.98	58.3669	3,604.98	61.7889	3,604.98	63.1456	3,604.98	62.3013	3,604.98	48.4915	3,604.98	68.94	3,604.98	71.344	3,604.98	61.1082	3,604.98	69.5796	3,604.98	68.0182	3,604.98	68.4079	3,604.98	69.1992	3,604.98	67.186	3,604.98	73.5262	3,604.98	63.7804	3,604.98	80.8992	3,604.98	71.5754	3,604.98	84.2139	3,604.98	76.5455
3,732.42	80.7521	3,732.42	77.5501	3,732.42	74.7826	3,732.42	69.2277	3,732.42	69.8136	3,732.42	56.8548	3,732.42	60.0435	3,732.42	61.1444	3,732.42	63.8062	3,732.42	62.0095	3,732.42	59.1889	3,732.42	69.8566	3,732.42	64.1071	3,732.42	57.5157	3,732.42	63.4142	3,732.42	53.7166	3,732.42	49.4681	3,732.42	54.0216	3,732.42	63.3857	3,732.42	59.3912	3,732.42	58.0489	3,732.42	51.3279	3,732.42	71.3169	3,732.42	71.8691	3,732.42	63.2639	3,732.42	68.6019	3,732.42	72.126	3,732.42	72.6092	3,732.42	67.7265	3,732.42	69.9236	3,732.42	73.4616	3,732.42	63.4941	3,732.42	80.9916	3,732.42	72.1114	3,732.42	83.6597	3,732.42	76.7104
3,864.26	81.8801	3,864.26	78.3696	3,864.26	74.2552	3,864.26	69.6768	3,864.26	67.2233	3,864.26	62.889	3,864.26	50.2283	3,864.26	62.525	3,864.26	61.0994	3,864.26	54.9802	3,864.26	61.1023	3,864.26	69.7828	3,864.26	61.4213	3,864.26	61.0278	3,864.26	60.649	3,864.26	47.916	3,864.26	57.1805	3,864.26	54.903	3,864.26	63.6958	3,864.26	60.5171	3,864.26	53.3192	3,864.26	57.1397	3,864.26	71.9835	3,864.26	71.0917	3,864.26	67.897	3,864.26	66.6158	3,864.26	72.8305	3,864.26	73.2589	3,864.26	69.5315	3,864.26	68.5523	3,864.26	74.5953	3,864.26	63.5829	3,864.26	81.9435	3,864.26	73.3231	3,864.26	84.8441	3,864.26	78.2199
4,000.49	82.146	4,000.49	78.1553	4,000.49	73.1303	4,000.49	69.0858	4,000.49	65.034	4,000.49	63.5683	4,000.49	49.8314	4,000.49	56.4159	4,000.49	54.8356	4,000.49	55.9303	4,000.49	58.0067	4,000.49	69.1178	4,000.49	63.3233	4,000.49	59.6945	4,000.49	58.4229	4,000.49	50.5602	4,000.49	64.466	4,000.49	55.5523	4,000.49	62.2117	4,000.49	61.586	4,000.49	54.1515	4,000.49	60.2676	4,000.49	70.8315	4,000.49	71.0156	4,000.49	68.9158	4,000.49	69.2999	4,000.49	73.1793	4,000.49	72.9615	4,000.49	69.0349	4,000.49	66.9419	4,000.49	74.604	4,000.49	64.5955	4,000.49	81.919	4,000.49	73.3419	4,000.49	84.9035	4,000.49	77.9307
4,141.11	82.7641	4,141.11	78.6107	4,141.11	72.9815	4,141.11	68.0001	4,141.11	65.155	4,141.11	63.608	4,141.11	54.6834	4,141.11	58.9046	4,141.11	57.5492	4,141.11	58.3625	4,141.11	64.0693	4,141.11	66.7496	4,141.11	65.5841	4,141.11	60.2956	4,141.11	63.2404	4,141.11	57.1395	4,141.11	63.9166	4,141.11	52.9314	4,141.11	62.0408	4,141.11	54.7656	4,141.11	58.5656	4,141.11	51.9921	4,141.11	71.6575	4,141.11	69.7479	4,141.11	68.3872	4,141.11	68.5343	4,141.11	73.4935	4,141.11	72.6661	4,141.11	67.2429	4,141.11	64.812	4,141.11	73.3313	4,141.11	67.958	4,141.11	81.4597	4,141.11	72.5238	4,141.11	85.0474	4,141.11	77.8431
4,287.6	82.8245	4,287.6	78.1594	4,287.6	73.0472	4,287.6	67.5231	4,287.6	67.3429	4,287.6	61.7893	4,287.6	57.3365	4,287.6	61.5496	4,287.6	58.0397	4,287.6	64.7091	4,287.6	68.3975	4,287.6	63.8459	4,287.6	66.0047	4,287.6	52.4837	4,287.6	63.4224	4,287.6	59.9174	4,287.6	64.6078	4,287.6	51.0137	4,287.6	63.7005	4,287.6	56.9993	4,287.6	65.9148	4,287.6	57.5808	4,287.6	72.3803	4,287.6	68.9775	4,287.6	60.3774	4,287.6	63.583	4,287.6	73.9244	4,287.6	74.0133	4,287.6	68.0594	4,287.6	63.2071	4,287.6	72.4037	4,287.6	68.5366	4,287.6	81.4911	4,287.6	72.7654	4,287.6	85.8198	4,287.6	76.4664
4,438.48	83.4675	4,438.48	77.978	4,438.48	72.7468	4,438.48	65.4135	4,438.48	67.7765	4,438.48	61.6761	4,438.48	61.0221	4,438.48	64.0368	4,438.48	57.3119	4,438.48	67.8081	4,438.48	70.9839	4,438.48	62.1869	4,438.48	68.5746	4,438.48	54.1879	4,438.48	63.539	4,438.48	58.3559	4,438.48	63.5744	4,438.48	49.1372	4,438.48	63.6737	4,438.48	59.9067	4,438.48	67.7599	4,438.48	49.4901	4,438.48	71.1528	4,438.48	67.1074	4,438.48	33.4243	4,438.48	62.4602	4,438.48	73.5096	4,438.48	74.7828	4,438.48	70.4865	4,438.48	66.1527	4,438.48	71.9966	4,438.48	67.9864	4,438.48	79.4713	4,438.48	72.3265	4,438.48	86.0582	4,438.48	74.7247
4,595.21	83.3327	4,595.21	78.2005	4,595.21	72.0993	4,595.21	64.5636	4,595.21	67.3595	4,595.21	63.576	4,595.21	59.0285	4,595.21	63.4791	4,595.21	61.5015	4,595.21	71.0739	4,595.21	72.3475	4,595.21	58.4235	4,595.21	67.2539	4,595.21	54.9833	4,595.21	61.9159	4,595.21	59.1983	4,595.21	63.6919	4,595.21	53.4378	4,595.21	61.4291	4,595.21	55.7986	4,595.21	66.0763	4,595.21	54.333	4,595.21	68.1861	4,595.21	66.0468	4,595.21	59.4511	4,595.21	63.3767	4,595.21	71.6577	4,595.21	71.7401	4,595.21	72.0779	4,595.21	68.6045	4,595.21	70.2931	4,595.21	68.6729	4,595.21	80.2218	4,595.21	71.3376	4,595.21	86.0919	4,595.21	76.6242
4,756.35	82.8563	4,756.35	77.6448	4,756.35	70.4888	4,756.35	64.8766	4,756.35	67.8315	4,756.35	66.8557	4,756.35	62.5025	4,756.35	63.0782	4,756.35	67.8706	4,756.35	72.4117	4,756.35	72.8729	4,756.35	66.0889	4,756.35	64.7854	4,756.35	63.329	4,756.35	62.6494	4,756.35	58.9718	4,756.35	66.1977	4,756.35	60.0143	4,756.35	48.0728	4,756.35	60.7014	4,756.35	65.7819	4,756.35	54.9224	4,756.35	65.768	4,756.35	67.3605	4,756.35	66.4512	4,756.35	64.5606	4,756.35	73.1622	4,756.35	70.3632	4,756.35	74.0266	4,756.35	69.242	4,756.35	70.1169	4,756.35	67.7384	4,756.35	80.7505	4,756.35	71.9	4,756.35	85.3813	4,756.35	74.6261
4,924.8	82.1516	4,924.8	76.7377	4,924.8	68.3279	4,924.8	66.1225	4,924.8	68.7812	4,924.8	67.9837	4,924.8	62.339	4,924.8	64.7101	4,924.8	70.9383	4,924.8	72.5976	4,924.8	71.4886	4,924.8	67.1796	4,924.8	63.147	4,924.8	64.8399	4,924.8	61.7845	4,924.8	54.7415	4,924.8	65.7575	4,924.8	61.1256	4,924.8	49.0922	4,924.8	61.8901	4,924.8	66.4606	4,924.8	63.4038	4,924.8	67.2543	4,924.8	66.0284	4,924.8	71.1085	4,924.8	58.7656	4,924.8	74.0626	4,924.8	71.784	4,924.8	74.4941	4,924.8	71.4964	4,924.8	70.5194	4,924.8	65.7892	4,924.8	79.4513	4,924.8	70.1025	4,924.8	85.5437	4,924.8	71.498
5,097.66	82.014	5,097.66	77.2781	5,097.66	68.4584	5,097.66	67.5137	5,097.66	69.7514	5,097.66	68.3943	5,097.66	62.7895	5,097.66	65.9118	5,097.66	71.5476	5,097.66	73.0198	5,097.66	71.5361	5,097.66	66.195	5,097.66	61.6129	5,097.66	63.5474	5,097.66	62.9896	5,097.66	63.1022	5,097.66	63.5432	5,097.66	59.4399	5,097.66	52.753	5,097.66	59.2243	5,097.66	64.2753	5,097.66	56.9827	5,097.66	64.924	5,097.66	58.9798	5,097.66	73.8677	5,097.66	60.099	5,097.66	73.7331	5,097.66	70.4491	5,097.66	75.2669	5,097.66	69.9588	5,097.66	69.1887	5,097.66	67.1465	5,097.66	79.3916	5,097.66	70.414	5,097.66	85.4208	5,097.66	69.5739
5,277.83	81.6013	5,277.83	77.7255	5,277.83	66.816	5,277.83	64.5372	5,277.83	70.301	5,277.83	66.8634	5,277.83	55.7264	5,277.83	69.4603	5,277.83	69.5168	5,277.83	73.9492	5,277.83	70.2039	5,277.83	63.83	5,277.83	52.722	5,277.83	60.2252	5,277.83	63.9979	5,277.83	61.6963	5,277.83	58.225	5,277.83	59.293	5,277.83	50.6961	5,277.83	51.3207	5,277.83	65.2217	5,277.83	61.5498	5,277.83	64.7548	5,277.83	63.2884	5,277.83	72.7253	5,277.83	67.7466	5,277.83	73.1081	5,277.83	69.5264	5,277.83	73.9879	5,277.83	69.7006	5,277.83	64.1056	5,277.83	68.8765	5,277.83	78.8434	5,277.83	69.4745	5,277.83	83.7376	5,277.83	70.2466
5,463.87	80.5643	5,463.87	77.7546	5,463.87	67.6286	5,463.87	63.8427	5,463.87	70.7185	5,463.87	69.0246	5,463.87	54.5083	5,463.87	69.4164	5,463.87	69.6901	5,463.87	74.4603	5,463.87	60.4375	5,463.87	63.6068	5,463.87	63.0691	5,463.87	63.9923	5,463.87	59.768	5,463.87	51.2632	5,463.87	57.4389	5,463.87	38.9955	5,463.87	49.7015	5,463.87	61.0218	5,463.87	67.0168	5,463.87	60.9754	5,463.87	66.3907	5,463.87	67.3715	5,463.87	71.6889	5,463.87	69.4863	5,463.87	73.5912	5,463.87	72.2193	5,463.87	73.4774	5,463.87	72.029	5,463.87	58.8741	5,463.87	63.9478	5,463.87	77.0549	5,463.87	66.17	5,463.87	82.6021	5,463.87	67.9813
5,657.23	81.6745	5,657.23	77.5063	5,657.23	70.6771	5,657.23	66.8859	5,657.23	71.0735	5,657.23	70.4266	5,657.23	64.09	5,657.23	71.7469	5,657.23	72.535	5,657.23	74.0838	5,657.23	63.4873	5,657.23	66.5401	5,657.23	65.2211	5,657.23	58.2193	5,657.23	64.2357	5,657.23	51.4446	5,657.23	60.2646	5,657.23	49.8457	5,657.23	57.2975	5,657.23	56.7647	5,657.23	69.4931	5,657.23	59.3538	5,657.23	67.5567	5,657.23	70.6609	5,657.23	70.4209	5,657.23	71.7186	5,657.23	73.7307	5,657.23	72.6639	5,657.23	72.4086	5,657.23	70.8327	5,657.23	54.0932	5,657.23	64.9633	5,657.23	75.2687	5,657.23	70.2948	5,657.23	83.8801	5,657.23	65.8991
5,856.45	83.337	5,856.45	76.1388	5,856.45	73.8515	5,856.45	68.7907	5,856.45	68.4537	5,856.45	69.2921	5,856.45	70.2852	5,856.45	75.4127	5,856.45	75.5265	5,856.45	72.3668	5,856.45	66.9623	5,856.45	64.7369	5,856.45	64.0754	5,856.45	59.9448	5,856.45	70.4013	5,856.45	54.5233	5,856.45	54.9468	5,856.45	52.1993	5,856.45	63.9412	5,856.45	61.6059	5,856.45	70.6101	5,856.45	58.6242	5,856.45	66.8226	5,856.45	68.632	5,856.45	67.8712	5,856.45	70.5974	5,856.45	75.2339	5,856.45	71.7196	5,856.45	72.9565	5,856.45	70.6706	5,856.45	66.7872	5,856.45	67.1327	5,856.45	76.3657	5,856.45	71.6253	5,856.45	84.3211	5,856.45	69.9134
6,062.99	84.5173	6,062.99	76.0796	6,062.99	73.7188	6,062.99	67.9504	6,062.99	66.8676	6,062.99	63.6287	6,062.99	74.3244	6,062.99	76.1588	6,062.99	75.5333	6,062.99	67.951	6,062.99	66.9708	6,062.99	61.5647	6,062.99	65.191	6,062.99	62.3405	6,062.99	71.3271	6,062.99	66.375	6,062.99	51.0823	6,062.99	57.7429	6,062.99	66.8331	6,062.99	64.4486	6,062.99	72.9963	6,062.99	59.4496	6,062.99	65.0218	6,062.99	63.8611	6,062.99	60.2257	6,062.99	65.2071	6,062.99	77.102	6,062.99	72.5436	6,062.99	70.396	6,062.99	63.472	6,062.99	70.312	6,062.99	67.6434	6,062.99	76.3872	6,062.99	69.4695	6,062.99	85.1567	6,062.99	68.2914
6,276.86	83.7226	6,276.86	77.6981	6,276.86	72.2369	6,276.86	67.2254	6,276.86	68.4071	6,276.86	64.6114	6,276.86	72.9125	6,276.86	75.2153	6,276.86	71.0935	6,276.86	67.9156	6,276.86	73.0302	6,276.86	55.1549	6,276.86	66.6787	6,276.86	63.1822	6,276.86	67.4596	6,276.86	65.0311	6,276.86	53.063	6,276.86	67.2015	6,276.86	60.4625	6,276.86	66.1729	6,276.86	68.706	6,276.86	53.5229	6,276.86	67.9965	6,276.86	60.6889	6,276.86	70.6252	6,276.86	58.0935	6,276.86	77.6549	6,276.86	71.5656	6,276.86	71.8615	6,276.86	65.5224	6,276.86	65.7467	6,276.86	70.3032	6,276.86	74.0934	6,276.86	72.9781	6,276.86	85.1359	6,276.86	64.2346
6,498.05	81.6555	6,498.05	75.2767	6,498.05	69.4767	6,498.05	68.05	6,498.05	64.8484	6,498.05	55.0182	6,498.05	65.8415	6,498.05	73.3194	6,498.05	67.1488	6,498.05	61.8372	6,498.05	74.0355	6,498.05	55.9522	6,498.05	64.4986	6,498.05	63.3816	6,498.05	62.9748	6,498.05	64.2792	6,498.05	60.4559	6,498.05	66.5315	6,498.05	57.9709	6,498.05	63.0631	6,498.05	59.1334	6,498.05	56.0857	6,498.05	64.406	6,498.05	42.2633	6,498.05	73.5006	6,498.05	60.9754	6,498.05	78.3681	6,498.05	68.3429	6,498.05	75.6547	6,498.05	71.0716	6,498.05	62.025	6,498.05	70.6896	6,498.05	77.5165	6,498.05	71.3244	6,498.05	83.0549	6,498.05	67.9367
6,726.56	82.8941	6,726.56	71.1699	6,726.56	68.1066	6,726.56	68.2502	6,726.56	59.4655	6,726.56	66.1594	6,726.56	68.5085	6,726.56	73.3066	6,726.56	74.7231	6,726.56	63.7712	6,726.56	72.1814	6,726.56	65.422	6,726.56	61.8717	6,726.56	66.7	6,726.56	63.6677	6,726.56	65.2756	6,726.56	61.8024	6,726.56	57.7017	6,726.56	56.6601	6,726.56	63.9579	6,726.56	50.8726	6,726.56	61.4471	6,726.56	63.0278	6,726.56	57.3365	6,726.56	66.9809	6,726.56	61.3316	6,726.56	72.787	6,726.56	65.9081	6,726.56	78.0918	6,726.56	69.3857	6,726.56	69.3628	6,726.56	70.6299	6,726.56	77.6115	6,726.56	71.6148	6,726.56	81.5991	6,726.56	67.7618
6,963.87	83.2815	6,963.87	70.3781	6,963.87	67.1245	6,963.87	66.9563	6,963.87	67.5199	6,963.87	70.6836	6,963.87	72.2151	6,963.87	75.1692	6,963.87	75.2544	6,963.87	70.3796	6,963.87	66.721	6,963.87	67.1635	6,963.87	67.7965	6,963.87	63.981	6,963.87	67.5416	6,963.87	66.3293	6,963.87	65.2754	6,963.87	63.5802	6,963.87	49.469	6,963.87	60.2676	6,963.87	56.4949	6,963.87	62.0812	6,963.87	63.1898	6,963.87	51.9397	6,963.87	70.4827	6,963.87	64.6792	6,963.87	70.6048	6,963.87	69.8201	6,963.87	78.6826	6,963.87	71.9752	6,963.87	72.1331	6,963.87	70.947	6,963.87	77.7682	6,963.87	65.8201	6,963.87	80.3027	6,963.87	67.5161
7,209.96	83.5559	7,209.96	70.0726	7,209.96	67.7986	7,209.96	61.8585	7,209.96	65.9395	7,209.96	69.9012	7,209.96	71.7179	7,209.96	74.0849	7,209.96	71.8255	7,209.96	70.9027	7,209.96	67.5732	7,209.96	60.0041	7,209.96	69.4139	7,209.96	65.1384	7,209.96	65.7482	7,209.96	60.0404	7,209.96	68.7323	7,209.96	62.3374	7,209.96	63.0118	7,209.96	52.9259	7,209.96	63.1379	7,209.96	48.914	7,209.96	64.3066	7,209.96	60.2752	7,209.96	68.3562	7,209.96	66.4277	7,209.96	61.4855	7,209.96	69.2787	7,209.96	76.7962	7,209.96	74.1791	7,209.96	70.8784	7,209.96	67.8755	7,209.96	74.4888	7,209.96	66.3559	7,209.96	78.9517	7,209.96	68.4679
7,464.84	83.8473	7,464.84	72.4591	7,464.84	67.9143	7,464.84	60.8515	7,464.84	63.5722	7,464.84	65.3217	7,464.84	70.2049	7,464.84	74.531	7,464.84	68.9711	7,464.84	64.5565	7,464.84	68.7729	7,464.84	65.3135	7,464.84	62.8173	7,464.84	63.5927	7,464.84	57.4156	7,464.84	49.1871	7,464.84	67.3234	7,464.84	59.1449	7,464.84	63.7404	7,464.84	62.6095	7,464.84	57.2979	7,464.84	62.8996	7,464.84	62.3545	7,464.84	64.8378	7,464.84	70.1196	7,464.84	62.191	7,464.84	59.9848	7,464.84	60.0196	7,464.84	76.0759	7,464.84	77.0465	7,464.84	56.6604	7,464.84	67.133	7,464.84	72.1998	7,464.84	66.6234	7,464.84	80.3742	7,464.84	64.8741
7,727.05	82.1871	7,727.05	69.7512	7,727.05	65.7146	7,727.05	60.8196	7,727.05	58.5252	7,727.05	65.0758	7,727.05	66.8078	7,727.05	74.8459	7,727.05	70.5883	7,727.05	58.7091	7,727.05	60.0891	7,727.05	63.7755	7,727.05	66.2482	7,727.05	64.1999	7,727.05	50.3671	7,727.05	57.0022	7,727.05	62.8989	7,727.05	63.3115	7,727.05	66.5977	7,727.05	65.4429	7,727.05	60.4906	7,727.05	61.0923	7,727.05	49.1233	7,727.05	62.4585	7,727.05	70.5919	7,727.05	56.3862	7,727.05	68.1684	7,727.05	68.62	7,727.05	74.0512	7,727.05	77.5736	7,727.05	70.5295	7,727.05	67.97	7,727.05	72.626	7,727.05	64.8798	7,727.05	75.7084	7,727.05	60.9098
7,999.51	80.1876	7,999.51	69.2424	7,999.51	64.7144	7,999.51	66.8525	7,999.51	56.3378	7,999.51	63.779	7,999.51	59.2105	7,999.51	74.8068	7,999.51	70.4343	7,999.51	65.4048	7,999.51	71.5444	7,999.51	56.8902	7,999.51	69.9886	7,999.51	69.0914	7,999.51	55.1134	7,999.51	57.6092	7,999.51	52.5086	7,999.51	63.2001	7,999.51	63.2717	7,999.51	61.7283	7,999.51	64.1155	7,999.51	62.6527	7,999.51	58.9692	7,999.51	65.757	7,999.51	67.8179	7,999.51	49.5484	7,999.51	65.7055	7,999.51	72.758	7,999.51	65.1517	7,999.51	77.7629	7,999.51	68.4899	7,999.51	67.4666	7,999.51	69.7653	7,999.51	69.1092	7,999.51	75.1377	7,999.51	57.8412
8,282.23	81.3954	8,282.23	73.3453	8,282.23	67.4246	8,282.23	66.8188	8,282.23	52.0273	8,282.23	67.9028	8,282.23	66.4161	8,282.23	73.396	8,282.23	68.504	8,282.23	69.2477	8,282.23	72.4119	8,282.23	60.0603	8,282.23	72.252	8,282.23	69.9611	8,282.23	61.0259	8,282.23	58.2232	8,282.23	57.8054	8,282.23	61.6829	8,282.23	59.8252	8,282.23	52.3689	8,282.23	51.0241	8,282.23	59.9919	8,282.23	61.8264	8,282.23	62.3922	8,282.23	64.231	8,282.23	57.3432	8,282.23	69.8015	8,282.23	73.4183	8,282.23	63.0947	8,282.23	77.6894	8,282.23	58.2354	8,282.23	70.1501	8,282.23	68.9153	8,282.23	70.2099	8,282.23	77.3817	8,282.23	62.0581
8,573.73	82.3034	8,573.73	73.9224	8,573.73	69.7646	8,573.73	67.5768	8,573.73	42.4912	8,573.73	69.9043	8,573.73	61.3331	8,573.73	73.0974	8,573.73	74.6063	8,573.73	69.9427	8,573.73	74.2405	8,573.73	60.1298	8,573.73	72.7351	8,573.73	68.705	8,573.73	63.3959	8,573.73	60.2722	8,573.73	57.899	8,573.73	51.5768	8,573.73	60.9511	8,573.73	61.7147	8,573.73	61.8524	8,573.73	62.6149	8,573.73	55.8593	8,573.73	64.616	8,573.73	66.9503	8,573.73	62.8221	8,573.73	71.2186	8,573.73	68.5247	8,573.73	64.9569	8,573.73	78.2167	8,573.73	60.4149	8,573.73	70.7724	8,573.73	72.0343	8,573.73	68.8833	8,573.73	80.3679	8,573.73	60.6654
8,876.95	83.7098	8,876.95	75.1369	8,876.95	71.2451	8,876.95	63.6484	8,876.95	62.7726	8,876.95	71.2917	8,876.95	65.7281	8,876.95	71.0912	8,876.95	75.9853	8,876.95	69.1154	8,876.95	75.0928	8,876.95	68.9123	8,876.95	70.6588	8,876.95	67.5602	8,876.95	63.2702	8,876.95	57.2813	8,876.95	53.2612	8,876.95	61.4578	8,876.95	57.8667	8,876.95	60.7921	8,876.95	58.6571	8,876.95	54.825	8,876.95	57.3878	8,876.95	64.1868	8,876.95	73.6419	8,876.95	68.7124	8,876.95	70.8943	8,876.95	64.3719	8,876.95	71.6806	8,876.95	77.9743	8,876.95	66.711	8,876.95	67.8916	8,876.95	72.2232	8,876.95	71.5848	8,876.95	79.0799	8,876.95	59.0551
9,188.96	80.8648	9,188.96	71.2446	9,188.96	60.7049	9,188.96	68.1991	9,188.96	62.9332	9,188.96	68.6057	9,188.96	63.3237	9,188.96	67.6529	9,188.96	70.9274	9,188.96	67.8368	9,188.96	73.3462	9,188.96	70.3647	9,188.96	65.2485	9,188.96	66.8766	9,188.96	59.9177	9,188.96	59.92	9,188.96	48.2474	9,188.96	58.2363	9,188.96	60.6016	9,188.96	53.0156	9,188.96	62.3588	9,188.96	61.6618	9,188.96	53.5776	9,188.96	64.6417	9,188.96	74.8697	9,188.96	68.7465	9,188.96	71.7938	9,188.96	61.0718	9,188.96	70.7269	9,188.96	75.5308	9,188.96	69.0937	9,188.96	56.0426	9,188.96	69.8037	9,188.96	70.9478	9,188.96	76.8699	9,188.96	68.8744
9,514.16	79.3354	9,514.16	71.8801	9,514.16	60.7189	9,514.16	69.3603	9,514.16	59.957	9,514.16	64.7372	9,514.16	61.4036	9,514.16	67.5888	9,514.16	65.6902	9,514.16	64.8014	9,514.16	73.9468	9,514.16	68.9221	9,514.16	63.1018	9,514.16	57.6023	9,514.16	64.2582	9,514.16	51.9138	9,514.16	42.4375	9,514.16	51.7509	9,514.16	61.835	9,514.16	61.3387	9,514.16	63.8729	9,514.16	60.3689	9,514.16	63.6293	9,514.16	50.1727	9,514.16	72.7343	9,514.16	59.8931	9,514.16	68.161	9,514.16	68.6286	9,514.16	66.4431	9,514.16	73.9748	9,514.16	68.76	9,514.16	60.8345	9,514.16	59.0591	9,514.16	70.1748	9,514.16	77.9976	9,514.16	66.855
9,849.61	80.2246	9,849.61	71.7082	9,849.61	65.3215	9,849.61	68.7796	9,849.61	60.375	9,849.61	61.671	9,849.61	62.5341	9,849.61	70.2892	9,849.61	63.2556	9,849.61	66.1285	9,849.61	75.2937	9,849.61	67.3161	9,849.61	59.0819	9,849.61	61.8261	9,849.61	57.0752	9,849.61	55.6495	9,849.61	48.9482	9,849.61	45.6127	9,849.61	61.8061	9,849.61	58.887	9,849.61	53.5889	9,849.61	62.5844	9,849.61	64.217	9,849.61	59.4211	9,849.61	70.4032	9,849.61	65.5656	9,849.61	51.4233	9,849.61	60.4989	9,849.61	70.4254	9,849.61	73.704	9,849.61	70.6851	9,849.61	61.8131	9,849.61	68.7429	9,849.61	70.1877	9,849.61	79.2672	9,849.61	68.1934
10,196.8	80.8605	10,196.8	71.743	10,196.8	66.4872	10,196.8	67.8565	10,196.8	63.7775	10,196.8	61.1815	10,196.8	69.5424	10,196.8	71.3612	10,196.8	60.6555	10,196.8	72.5877	10,196.8	74.7487	10,196.8	69.383	10,196.8	61.3808	10,196.8	67.8717	10,196.8	55.3729	10,196.8	61.8271	10,196.8	58.5599	10,196.8	60.6074	10,196.8	51.9882	10,196.8	54.6899	10,196.8	61.3043	10,196.8	62.0485	10,196.8	51.492	10,196.8	63.1209	10,196.8	70.8792	10,196.8	69.5352	10,196.8	64.3411	10,196.8	64.5285	10,196.8	67.5354	10,196.8	71.721	10,196.8	71.9726	10,196.8	65.0442	10,196.8	68.3386	10,196.8	69.3861	10,196.8	78.9378	10,196.8	68.8138
10,555.7	80.8461	10,555.7	70.9449	10,555.7	67.0975	10,555.7	63.3086	10,555.7	51.0936	10,555.7	63.0985	10,555.7	68.8212	10,555.7	71.718	10,555.7	70.2346	10,555.7	74.5159	10,555.7	74.4181	10,555.7	65.7453	10,555.7	65.4266	10,555.7	62.7437	10,555.7	61.4879	10,555.7	60.2417	10,555.7	59.944	10,555.7	58.8006	10,555.7	55.0966	10,555.7	49.9585	10,555.7	46.9001	10,555.7	58.837	10,555.7	54.9106	10,555.7	58.8462	10,555.7	73.1136	10,555.7	57.8609	10,555.7	70.4621	10,555.7	53.829	10,555.7	61.0638	10,555.7	68.822	10,555.7	70.9495	10,555.7	67.8918	10,555.7	60.841	10,555.7	69.3977	10,555.7	77.6956	10,555.7	68.318
10,927.7	81.2489	10,927.7	70.492	10,927.7	66.7304	10,927.7	62.7465	10,927.7	62.8844	10,927.7	59.4721	10,927.7	70.1855	10,927.7	70.7236	10,927.7	76.3367	10,927.7	73.4517	10,927.7	68.7304	10,927.7	51.5607	10,927.7	67.3785	10,927.7	59.5396	10,927.7	65.7971	10,927.7	57.4885	10,927.7	62.791	10,927.7	49.3775	10,927.7	63.1125	10,927.7	57.7322	10,927.7	53.5376	10,927.7	53.2549	10,927.7	45.1465	10,927.7	50.9636	10,927.7	74.1898	10,927.7	47.3169	10,927.7	72.4956	10,927.7	63.8497	10,927.7	65.9874	10,927.7	66.6718	10,927.7	66.6484	10,927.7	61.9813	10,927.7	65.3102	10,927.7	65.1101	10,927.7	78.0467	10,927.7	68.5187
11,313	82.1833	11,313	72.0479	11,313	70.1951	11,313	63.8017	11,313	67.3532	11,313	61.867	11,313	70.66	11,313	67.1367	11,313	78.6114	11,313	70.7796	11,313	66.8245	11,313	63.002	11,313	67.5086	11,313	61.3098	11,313	62.5372	11,313	56.4887	11,313	60.4614	11,313	62.5406	11,313	63.6222	11,313	56.029	11,313	52.0509	11,313	40.7391	11,313	55.876	11,313	56.3038	11,313	72.2258	11,313	61.1664	11,313	68.1863	11,313	65.4242	11,313	69.8969	11,313	65.0846	11,313	49.7378	11,313	69.1096	11,313	63.3985	11,313	61.9346	11,313	77.8447	11,313	67.496
11,712.9	79.1928	11,712.9	68.6795	11,712.9	58.892	11,712.9	62.5351	11,712.9	68.6941	11,712.9	67.6285	11,712.9	70.123	11,712.9	68.3192	11,712.9	78.8395	11,712.9	63.4551	11,712.9	73.2226	11,712.9	60.5404	11,712.9	57.814	11,712.9	63.2293	11,712.9	59.5163	11,712.9	37.7638	11,712.9	56.5014	11,712.9	57.1708	11,712.9	58.0387	11,712.9	55.0257	11,712.9	64.0833	11,712.9	55.6281	11,712.9	51.8918	11,712.9	59.0489	11,712.9	63.8022	11,712.9	53.1296	11,712.9	66.3273	11,712.9	64.2908	11,712.9	69.8975	11,712.9	72.3583	11,712.9	57.8733	11,712.9	71.7512	11,712.9	60.0653	11,712.9	61.3108	11,712.9	75.2385	11,712.9	56.6859
12,126	78.9678	12,126	65.3603	12,126	70.139	12,126	64.5867	12,126	67.7113	12,126	68.9903	12,126	66.5766	12,126	70.206	12,126	77.4643	12,126	64.8495	12,126	73.7056	12,126	59.445	12,126	61.8715	12,126	65.9608	12,126	58.8089	12,126	52.2852	12,126	43.3184	12,126	49.7271	12,126	58.8511	12,126	38.9933	12,126	66.7868	12,126	53.5633	12,126	60.0171	12,126	62.121	12,126	57.3457	12,126	60.6349	12,126	72.0109	12,126	64.3759	12,126	70.561	12,126	71.3458	12,126	50.4839	12,126	72.7386	12,126	64.4169	12,126	61.4015	12,126	75.1588	12,126	62.4692
12,553.7	80.5994	12,553.7	68.0012	12,553.7	71.8369	12,553.7	65.6788	12,553.7	68.1144	12,553.7	70.0779	12,553.7	71.0816	12,553.7	73.5011	12,553.7	75.6831	12,553.7	64.6004	12,553.7	76.2324	12,553.7	69.5513	12,553.7	61.3452	12,553.7	70.2242	12,553.7	62.3364	12,553.7	56.8535	12,553.7	58.8402	12,553.7	59.4406	12,553.7	54.5083	12,553.7	60.0975	12,553.7	63.7194	12,553.7	50.2736	12,553.7	46.1465	12,553.7	57.0957	12,553.7	67.9197	12,553.7	58.1417	12,553.7	71.898	12,553.7	61.6069	12,553.7	71.1892	12,553.7	69.5429	12,553.7	65.1026	12,553.7	72.6263	12,553.7	62.3039	12,553.7	61.5175	12,553.7	75.7176	12,553.7	64.1714
12,996.1	81.8845	12,996.1	71.3028	12,996.1	71.9002	12,996.1	65.1323	12,996.1	70.0628	12,996.1	70.9214	12,996.1	74.2075	12,996.1	75.3589	12,996.1	73.9017	12,996.1	63.8235	12,996.1	77.466	12,996.1	71.6706	12,996.1	53.3883	12,996.1	69.2214	12,996.1	59.7795	12,996.1	60.4671	12,996.1	61.0591	12,996.1	57.6995	12,996.1	56.9842	12,996.1	61.203	12,996.1	46.2789	12,996.1	55.9216	12,996.1	54.3198	12,996.1	57.3843	12,996.1	67.7788	12,996.1	62.2927	12,996.1	69.8087	12,996.1	65.6361	12,996.1	70.9818	12,996.1	71.1453	12,996.1	66.4449	12,996.1	68.5227	12,996.1	69.7573	12,996.1	69.346	12,996.1	76.3625	12,996.1	67.5661
13,454.6	82.2342	13,454.6	72.5732	13,454.6	69.5361	13,454.6	64.7118	13,454.6	68.7709	13,454.6	69.102	13,454.6	75.3729	13,454.6	75.6416	13,454.6	75.423	13,454.6	66.8966	13,454.6	74.9778	13,454.6	68.6361	13,454.6	62.4103	13,454.6	64.9694	13,454.6	59.5852	13,454.6	63.384	13,454.6	58.1478	13,454.6	54.1258	13,454.6	57.7718	13,454.6	52.8041	13,454.6	60.7827	13,454.6	50.9753	13,454.6	44.0731	13,454.6	52.5996	13,454.6	64.8694	13,454.6	57.982	13,454.6	70.1131	13,454.6	55.9781	13,454.6	68.406	13,454.6	70.3346	13,454.6	62.9172	13,454.6	69.8179	13,454.6	67.9176	13,454.6	67.689	13,454.6	77.3433	13,454.6	68.2986
13,929.2	81.3719	13,929.2	71.4095	13,929.2	66.089	13,929.2	59.6734	13,929.2	71.0367	13,929.2	66.8001	13,929.2	73.8868	13,929.2	74.3845	13,929.2	76.7654	13,929.2	67.9712	13,929.2	68.6645	13,929.2	67.6354	13,929.2	62.9169	13,929.2	56.3388	13,929.2	65.9901	13,929.2	56.1899	13,929.2	60.2215	13,929.2	55.2854	13,929.2	59.2149	13,929.2	58.8221	13,929.2	60.4161	13,929.2	54.7169	13,929.2	54.1184	13,929.2	59.0456	13,929.2	58.0503	13,929.2	56.0214	13,929.2	68.2656	13,929.2	63.0587	13,929.2	62.2474	13,929.2	65.8131	13,929.2	69.1852	13,929.2	63.5806	13,929.2	67.0875	13,929.2	68.2231	13,929.2	76.947	13,929.2	61.6294
14,419.9	79.5251	14,419.9	71.0877	14,419.9	65.6347	14,419.9	59.1257	14,419.9	67.0371	14,419.9	71.2873	14,419.9	70.8636	14,419.9	70.5168	14,419.9	75.3317	14,419.9	70.2779	14,419.9	61.7172	14,419.9	69.4078	14,419.9	68.2503	14,419.9	61.4708	14,419.9	66.731	14,419.9	54.7095	14,419.9	63.5596	14,419.9	53.9336	14,419.9	58.5452	14,419.9	55.7844	14,419.9	56.1827	14,419.9	50.0542	14,419.9	50.4052	14,419.9	54.472	14,419.9	59.969	14,419.9	53.5556	14,419.9	70.0759	14,419.9	53.9778	14,419.9	56.3901	14,419.9	56.9495	14,419.9	70.6112	14,419.9	64.4309	14,419.9	65.7235	14,419.9	69.134	14,419.9	75.419	14,419.9	68.0662
14,928.2	73.93	14,928.2	59.8171	14,928.2	58.9618	14,928.2	48.7936	14,928.2	57.5859	14,928.2	70.5713	14,928.2	62.8379	14,928.2	66.0071	14,928.2	65.8338	14,928.2	73.0582	14,928.2	59.6386	14,928.2	64.7375	14,928.2	62.7741	14,928.2	59.6575	14,928.2	47.6616	14,928.2	58.4591	14,928.2	56.9424	14,928.2	52.6944	14,928.2	48.1348	14,928.2	60.4683	14,928.2	56.8857	14,928.2	56.2484	14,928.2	34.6402	14,928.2	56.6684	14,928.2	55.0986	14,928.2	51.1921	14,928.2	58.0884	14,928.2	63.0694	14,928.2	51.6973	14,928.2	68.9196	14,928.2	57.0694	14,928.2	64.7988	14,928.2	59.3895	14,928.2	61.5407	14,928.2	71.5856	14,928.2	60.2149
15,455.6	66.518	15,455.6	44.8732	15,455.6	52.8901	15,455.6	59.5095	15,455.6	57.4995	15,455.6	67.6172	15,455.6	55.608	15,455.6	67.2763	15,455.6	52.3274	15,455.6	77.6254	15,455.6	52.4852	15,455.6	58.8495	15,455.6	55.7477	15,455.6	64.7252	15,455.6	51.1621	15,455.6	56.3983	15,455.6	48.7261	15,455.6	52.1098	15,455.6	51.3107	15,455.6	61.9221	15,455.6	54.4738	15,455.6	52.5391	15,455.6	45.5337	15,455.6	62.8402	15,455.6	60.6523	15,455.6	47.7391	15,455.6	47.8355	15,455.6	59.4058	15,455.6	49.0237	15,455.6	66.9808	15,455.6	52.7424	15,455.6	65.9503	15,455.6	52.5713	15,455.6	65.3041	15,455.6	63.8322	15,455.6	62.269
16,000.5	65.3481	16,000.5	52.3917	16,000.5	48.6869	16,000.5	56.038	16,000.5	54.7058	16,000.5	64.5564	16,000.5	49.7476	16,000.5	63.6402	16,000.5	44.5255	16,000.5	75.0136	16,000.5	48.4136	16,000.5	68.1776	16,000.5	46.8561	16,000.5	61.3368	16,000.5	47.911	16,000.5	54.5962	16,000.5	40.0151	16,000.5	40.9481	16,000.5	48.3629	16,000.5	56.8682	16,000.5	50.0151	16,000.5	44.3636	16,000.5	47.702	16,000.5	53.1349	16,000.5	53.621	16,000.5	56.4733	16,000.5	53.6556	16,000.5	64.7753	16,000.5	55.6034	16,000.5	64.6725	16,000.5	55.1744	16,000.5	65.4849	16,000.5	49.9948	16,000.5	64.9989	16,000.5	56.8972	16,000.5	63.6743
16,564.5	65.4298	16,564.5	50.3014	16,564.5	44.5882	16,564.5	57.3036	16,564.5	57.2597	16,564.5	61.662	16,564.5	49.2106	16,564.5	68.8917	16,564.5	57.0678	16,564.5	67.7068	16,564.5	53.0089	16,564.5	61.617	16,564.5	47.1854	16,564.5	48.4787	16,564.5	48.8439	16,564.5	36.9593	16,564.5	38.8698	16,564.5	45.6554	16,564.5	39.1105	16,564.5	41.625	16,564.5	52.6778	16,564.5	33.9275	16,564.5	26.1609	16,564.5	51.3396	16,564.5	49.5233	16,564.5	49.7529	16,564.5	61.7165	16,564.5	61.4018	16,564.5	56.9505	16,564.5	60.6524	16,564.5	46.3819	16,564.5	57.2182	16,564.5	49.2356	16,564.5	65.9135	16,564.5	56.267	16,564.5	57.3651
17,148.9	65.6139	17,148.9	49.4729	17,148.9	46.8502	17,148.9	50.5806	17,148.9	53.7342	17,148.9	50.1635	17,148.9	50.813	17,148.9	66.4054	17,148.9	58.142	17,148.9	61.5957	17,148.9	58.0515	17,148.9	58.1742	17,148.9	42.2478	17,148.9	51.2687	17,148.9	43.0371	17,148.9	46.6891	17,148.9	43.2475	17,148.9	37.5279	17,148.9	45.3601	17,148.9	37.9369	17,148.9	36.502	17,148.9	46.9912	17,148.9	47.0852	17,148.9	47.6396	17,148.9	48.3714	17,148.9	47.9896	17,148.9	59.2581	17,148.9	55.6283	17,148.9	51.486	17,148.9	51.8459	17,148.9	49.2195	17,148.9	48.3861	17,148.9	51.823	17,148.9	55.3507	17,148.9	57.5506	17,148.9	50.3146
17,752.4	66.9271	17,752.4	47.9272	17,752.4	53.8477	17,752.4	46.2934	17,752.4	55.2239	17,752.4	56.0914	17,752.4	51.7388	17,752.4	58.7559	17,752.4	56.8085	17,752.4	57.8106	17,752.4	60.0739	17,752.4	51.8205	17,752.4	54.4421	17,752.4	49.3911	17,752.4	53.0907	17,752.4	45.1272	17,752.4	42.582	17,752.4	44.3383	17,752.4	39.6158	17,752.4	40.0621	17,752.4	45.9596	17,752.4	43.4069	17,752.4	40.024	17,752.4	45.6088	17,752.4	38.9911	17,752.4	49.5544	17,752.4	57.9344	17,752.4	44.7414	17,752.4	50.2125	17,752.4	46.1021	17,752.4	50.6136	17,752.4	47.3589	17,752.4	49.7276	17,752.4	51.325	17,752.4	50.1239	17,752.4	49.0005
18,379.4	65.5515	18,379.4	47.6844	18,379.4	50.1588	18,379.4	53.4517	18,379.4	56.8284	18,379.4	57.7913	18,379.4	56.014	18,379.4	55.0519	18,379.4	55.1485	18,379.4	56.1154	18,379.4	59.773	18,379.4	56.2922	18,379.4	53.476	18,379.4	42.8634	18,379.4	51.4902	18,379.4	44.4478	18,379.4	43.2852	18,379.4	33.7004	18,379.4	42.2257	18,379.4	40.851	18,379.4	43.774	18,379.4	44.991	18,379.4	38.0098	18,379.4	38.7112	18,379.4	52.4931	18,379.4	38.7451	18,379.4	55.7002	18,379.4	39.1848	18,379.4	49.7619	18,379.4	47.2968	18,379.4	47.6259	18,379.4	47.2746	18,379.4	46.8442	18,379.4	46.3	18,379.4	57.3676	18,379.4	46.4867
19,026.9	65.5779	19,026.9	52.6434	19,026.9	50.9256	19,026.9	54.2585	19,026.9	54.8921	19,026.9	57.1988	19,026.9	59.7146	19,026.9	55.7629	19,026.9	55.8593	19,026.9	52.5131	19,026.9	52.7617	19,026.9	56.3229	19,026.9	40.4053	19,026.9	45.7758	19,026.9	46.7111	19,026.9	35.912	19,026.9	38.7398	19,026.9	44.073	19,026.9	45.3195	19,026.9	37.2873	19,026.9	40.7652	19,026.9	42.6521	19,026.9	44.5492	19,026.9	40.484	19,026.9	47.1044	19,026.9	42.2877	19,026.9	57.4019	19,026.9	48.2445	19,026.9	51.0914	19,026.9	47.3316	19,026.9	48.4769	19,026.9	43.7879	19,026.9	50.8574	19,026.9	47.8575	19,026.9	55.6095	19,026.9	39.3866
19,697.8	63.4484	19,697.8	52.432	19,697.8	52.5904	19,697.8	50.7077	19,697.8	54.2491	19,697.8	53.6277	19,697.8	61.3277	19,697.8	54.4878	19,697.8	59.1956	19,697.8	55.5186	19,697.8	54.1164	19,697.8	55.259	19,697.8	37.1269	19,697.8	46.0429	19,697.8	51.7806	19,697.8	45.6488	19,697.8	44.2636	19,697.8	39.9751	19,697.8	44.1401	19,697.8	46.5997	19,697.8	33.2651	19,697.8	33.3545	19,697.8	40.6749	19,697.8	30.8	19,697.8	54.5044	19,697.8	38.6473	19,697.8	58.3817	19,697.8	44.4502	19,697.8	45.1885	19,697.8	44.8263	19,697.8	50.5441	19,697.8	41.6	19,697.8	34.8302	19,697.8	49.5071	19,697.8	54.232	19,697.8	25.9804
19,999.5	62.5864	19,999.5	51.1403	19,999.5	51.1952	19,999.5	49.6236	19,999.5	55.1478	19,999.5	53.535	19,999.5	60.6056	19,999.5	54.1853	19,999.5	59.3158	19,999.5	53.9075	19,999.5	53.5858	19,999.5	52.3411	19,999.5	47.9309	19,999.5	47.5167	19,999.5	51.6695	19,999.5	40.9522	19,999.5	42.8889	19,999.5	28.7369	19,999.5	42.6238	19,999.5	43.987	19,999.5	42.0226	19,999.5	41.7796	19,999.5	43.205	19,999.5	30.684	19,999.5	51.2609	19,999.5	37.374	19,999.5	57.2913	19,999.5	39.0112	19,999.5	47.4668	19,999.5	41.4627	19,999.5	46.6993	19,999.5	45.1528	19,999.5	40.1993	19,999.5	50.3025	19,999.5	54.8422	19,999.5	38.2122
