"SPL Horizontal"																																																																							
"On-Axis"		"10°"		"-10°"		"20°"		"-20°"		"30°"		"-30°"		"40°"		"-40°"		"50°"		"-50°"		"60°"		"-60°"		"70°"		"-70°"		"80°"		"-80°"		"90°"		"-90°"		"100°"		"-100°"		"110°"		"-110°"		"120°"		"-120°"		"130°"		"-130°"		"140°"		"-140°"		"150°"		"-150°"		"160°"		"-160°"		"170°"		"-170°"		"180°"	
"Frequency [Hz]"	"Sound Pessure Level [dB]  / [2.83V 1m] "	"Frequency [Hz]"	"Sound Pessure Level [dB]  / [2.83V 1m] "	"Frequency [Hz]"	"Sound Pessure Level [dB]  / [2.83V 1m] "	"Frequency [Hz]"	"Sound Pessure Level [dB]  / [2.83V 1m] "	"Frequency [Hz]"	"Sound Pessure Level [dB]  / [2.83V 1m] "	"Frequency [Hz]"	"Sound Pessure Level [dB]  / [2.83V 1m] "	"Frequency [Hz]"	"Sound Pessure Level [dB]  / [2.83V 1m] "	"Frequency [Hz]"	"Sound Pessure Level [dB]  / [2.83V 1m] "	"Frequency [Hz]"	"Sound Pessure Level [dB]  / [2.83V 1m] "	"Frequency [Hz]"	"Sound Pessure Level [dB]  / [2.83V 1m] "	"Frequency [Hz]"	"Sound Pessure Level [dB]  / [2.83V 1m] "	"Frequency [Hz]"	"Sound Pessure Level [dB]  / [2.83V 1m] "	"Frequency [Hz]"	"Sound Pessure Level [dB]  / [2.83V 1m] "	"Frequency [Hz]"	"Sound Pessure Level [dB]  / [2.83V 1m] "	"Frequency [Hz]"	"Sound Pessure Level [dB]  / [2.83V 1m] "	"Frequency [Hz]"	"Sound Pessure Level [dB]  / [2.83V 1m] "	"Frequency [Hz]"	"Sound Pessure Level [dB]  / [2.83V 1m] "	"Frequency [Hz]"	"Sound Pessure Level [dB]  / [2.83V 1m] "	"Frequency [Hz]"	"Sound Pessure Level [dB]  / [2.83V 1m] "	"Frequency [Hz]"	"Sound Pessure Level [dB]  / [2.83V 1m] "	"Frequency [Hz]"	"Sound Pessure Level [dB]  / [2.83V 1m] "	"Frequency [Hz]"	"Sound Pessure Level [dB]  / [2.83V 1m] "	"Frequency [Hz]"	"Sound Pessure Level [dB]  / [2.83V 1m] "	"Frequency [Hz]"	"Sound Pessure Level [dB]  / [2.83V 1m] "	"Frequency [Hz]"	"Sound Pessure Level [dB]  / [2.83V 1m] "	"Frequency [Hz]"	"Sound Pessure Level [dB]  / [2.83V 1m] "	"Frequency [Hz]"	"Sound Pessure Level [dB]  / [2.83V 1m] "	"Frequency [Hz]"	"Sound Pessure Level [dB]  / [2.83V 1m] "	"Frequency [Hz]"	"Sound Pessure Level [dB]  / [2.83V 1m] "	"Frequency [Hz]"	"Sound Pessure Level [dB]  / [2.83V 1m] "	"Frequency [Hz]"	"Sound Pessure Level [dB]  / [2.83V 1m] "	"Frequency [Hz]"	"Sound Pessure Level [dB]  / [2.83V 1m] "	"Frequency [Hz]"	"Sound Pessure Level [dB]  / [2.83V 1m] "	"Frequency [Hz]"	"Sound Pessure Level [dB]  / [2.83V 1m] "	"Frequency [Hz]"	"Sound Pessure Level [dB]  / [2.83V 1m] "	"Frequency [Hz]"	"Sound Pessure Level [dB]  / [2.83V 1m] "
20.5078	60.5853	20.5078	60.6079	20.5078	60.5572	20.5078	60.6244	20.5078	60.5239	20.5078	60.6343	20.5078	60.486	20.5078	60.637	20.5078	60.4439	20.5078	60.632	20.5078	60.3984	20.5078	60.6187	20.5078	60.3504	20.5078	60.5967	20.5078	60.3007	20.5078	60.5657	20.5078	60.2505	20.5078	60.526	20.5078	60.2011	20.5078	60.4781	20.5078	60.1539	20.5078	60.4235	20.5078	60.1104	20.5078	60.3638	20.5078	60.0723	20.5078	60.3013	20.5078	60.0414	20.5078	60.2388	20.5078	60.0192	20.5078	60.1791	20.5078	60.0074	20.5078	60.1249	20.5078	60.0071	20.5078	60.079	20.5078	60.019	20.5078	60.0432
21.9727	61.7557	21.9727	61.781	21.9727	61.7326	21.9727	61.8076	21.9727	61.7126	21.9727	61.8343	21.9727	61.696	21.9727	61.86	21.9727	61.6832	21.9727	61.8834	21.9727	61.674	21.9727	61.9033	21.9727	61.6683	21.9727	61.9189	21.9727	61.6655	21.9727	61.9292	21.9727	61.6653	21.9727	61.9338	21.9727	61.6671	21.9727	61.9325	21.9727	61.6708	21.9727	61.9253	21.9727	61.676	21.9727	61.9126	21.9727	61.683	21.9727	61.8952	21.9727	61.692	21.9727	61.8741	21.9727	61.7032	21.9727	61.8504	21.9727	61.7172	21.9727	61.8253	21.9727	61.734	21.9727	61.8002	21.9727	61.7537	21.9727	61.776
23.4375	64.0369	23.4375	64.071	23.4375	64.0026	23.4375	64.1033	23.4375	63.9694	23.4375	64.1326	23.4375	63.9382	23.4375	64.1574	23.4375	63.9101	23.4375	64.1767	23.4375	63.8858	23.4375	64.1895	23.4375	63.8655	23.4375	64.195	23.4375	63.8493	23.4375	64.1928	23.4375	63.8371	23.4375	64.183	23.4375	63.8286	23.4375	64.1658	23.4375	63.8234	23.4375	64.1421	23.4375	63.8214	23.4375	64.113	23.4375	63.8225	23.4375	64.0798	23.4375	63.8268	23.4375	64.0442	23.4375	63.8348	23.4375	64.0078	23.4375	63.8466	23.4375	63.9723	23.4375	63.8629	23.4375	63.9391	23.4375	63.8838	23.4375	63.9093
24.9023	65.8763	24.9023	65.8909	24.9023	65.8612	24.9023	65.9042	24.9023	65.8461	24.9023	65.9155	24.9023	65.8315	24.9023	65.924	24.9023	65.8176	24.9023	65.929	24.9023	65.8044	24.9023	65.9299	24.9023	65.792	24.9023	65.9262	24.9023	65.7802	24.9023	65.9177	24.9023	65.7688	24.9023	65.9046	24.9023	65.7578	24.9023	65.8872	24.9023	65.747	24.9023	65.8665	24.9023	65.7366	24.9023	65.8432	24.9023	65.7271	24.9023	65.8188	24.9023	65.7188	24.9023	65.7944	24.9023	65.7125	24.9023	65.7714	24.9023	65.709	24.9023	65.751	24.9023	65.7089	24.9023	65.734	24.9023	65.7128	24.9023	65.7212
26.3672	67.5235	26.3672	67.5395	26.3672	67.5066	26.3672	67.5538	26.3672	67.4893	26.3672	67.5658	26.3672	67.472	26.3672	67.5748	26.3672	67.455	26.3672	67.5801	26.3672	67.4385	26.3672	67.5811	26.3672	67.4227	26.3672	67.5774	26.3672	67.4075	26.3672	67.5689	26.3672	67.3931	26.3672	67.5557	26.3672	67.3794	26.3672	67.538	26.3672	67.3667	26.3672	67.5165	26.3672	67.3553	26.3672	67.4922	26.3672	67.3454	26.3672	67.4663	26.3672	67.3378	26.3672	67.4398	26.3672	67.3331	26.3672	67.4142	26.3672	67.3318	26.3672	67.3907	26.3672	67.3347	26.3672	67.3703	26.3672	67.342	26.3672	67.3539
27.832	68.9985	27.832	69.0061	27.832	68.9897	27.832	69.0121	27.832	68.98	27.832	69.0162	27.832	68.9697	27.832	69.0179	27.832	68.9589	27.832	69.0168	27.832	68.9477	27.832	69.0129	27.832	68.9363	27.832	69.0058	27.832	68.9246	27.832	68.9956	27.832	68.9126	27.832	68.9826	27.832	68.9006	27.832	68.9671	27.832	68.8885	27.832	68.9497	27.832	68.8767	27.832	68.9311	27.832	68.8657	27.832	68.9123	27.832	68.8558	27.832	68.894	27.832	68.8477	27.832	68.8773	27.832	68.8419	27.832	68.863	27.832	68.8391	27.832	68.8517	27.832	68.8396	27.832	68.8438
29.2969	70.6884	29.2969	70.6946	29.2969	70.6807	29.2969	70.6992	29.2969	70.6718	29.2969	70.7017	29.2969	70.6617	29.2969	70.7016	29.2969	70.6505	29.2969	70.6987	29.2969	70.6379	29.2969	70.6924	29.2969	70.6241	29.2969	70.6826	29.2969	70.6089	29.2969	70.669	29.2969	70.5924	29.2969	70.6519	29.2969	70.5748	29.2969	70.6317	29.2969	70.5564	29.2969	70.6091	29.2969	70.538	29.2969	70.5849	29.2969	70.5201	29.2969	70.5604	29.2969	70.5036	29.2969	70.5368	29.2969	70.4895	29.2969	70.5153	29.2969	70.4788	29.2969	70.4972	29.2969	70.4724	29.2969	70.4833	29.2969	70.4707	29.2969	70.4744
30.7617	72.3512	30.7617	72.356	30.7617	72.3413	30.7617	72.3554	30.7617	72.3264	30.7617	72.3492	30.7617	72.3071	30.7617	72.3372	30.7617	72.2836	30.7617	72.3195	30.7617	72.2563	30.7617	72.2963	30.7617	72.2258	30.7617	72.2678	30.7617	72.1924	30.7617	72.2346	30.7617	72.157	30.7617	72.1974	30.7617	72.1201	30.7617	72.1574	30.7617	72.0828	30.7617	72.1157	30.7617	72.046	30.7617	72.0739	30.7617	72.011	30.7617	72.0336	30.7617	71.979	30.7617	71.9965	30.7617	71.9515	30.7617	71.9642	30.7617	71.9298	30.7617	71.9383	30.7617	71.915	30.7617	71.9199	30.7617	71.9081	30.7617	71.9097
32.2266	73.8271	32.2266	73.8275	32.2266	73.822	32.2266	73.8233	32.2266	73.8124	32.2266	73.8144	32.2266	73.7984	32.2266	73.8009	32.2266	73.7802	32.2266	73.7828	32.2266	73.7581	32.2266	73.7604	32.2266	73.7324	32.2266	73.7341	32.2266	73.7035	32.2266	73.7043	32.2266	73.672	32.2266	73.6719	32.2266	73.6387	32.2266	73.6375	32.2266	73.6044	32.2266	73.6024	32.2266	73.5702	32.2266	73.5676	32.2266	73.5373	32.2266	73.5345	32.2266	73.5071	32.2266	73.5043	32.2266	73.4809	32.2266	73.4783	32.2266	73.4598	32.2266	73.4578	32.2266	73.445	32.2266	73.4437	32.2266	73.4371	32.2266	73.4367
33.6914	74.8397	33.6914	74.852	33.6914	74.8242	33.6914	74.8606	33.6914	74.8059	33.6914	74.865	33.6914	74.7852	33.6914	74.865	33.6914	74.7627	33.6914	74.8601	33.6914	74.7387	33.6914	74.8504	33.6914	74.7137	33.6914	74.8357	33.6914	74.6883	33.6914	74.8163	33.6914	74.6628	33.6914	74.7928	33.6914	74.638	33.6914	74.7657	33.6914	74.6144	33.6914	74.7361	33.6914	74.5929	33.6914	74.705	33.6914	74.574	33.6914	74.6736	33.6914	74.5587	33.6914	74.6433	33.6914	74.5475	33.6914	74.6152	33.6914	74.541	33.6914	74.5904	33.6914	74.5399	33.6914	74.5699	33.6914	74.5443	33.6914	74.5544
35.1562	76.1807	35.1562	76.1897	35.1562	76.1672	35.1562	76.1941	35.1562	76.1498	35.1562	76.1934	35.1562	76.129	35.1562	76.1878	35.1562	76.1052	35.1562	76.1772	35.1562	76.0792	35.1562	76.1618	35.1562	76.0517	35.1562	76.1421	35.1562	76.0234	35.1562	76.1184	35.1562	75.9949	35.1562	76.0916	35.1562	75.9672	35.1562	76.0625	35.1562	75.9409	35.1562	76.0319	35.1562	75.9168	35.1562	76.001	35.1562	75.8957	35.1562	75.9708	35.1562	75.8783	35.1562	75.9423	35.1562	75.8652	35.1562	75.9165	35.1562	75.8568	35.1562	75.8943	35.1562	75.8536	35.1562	75.8764	35.1562	75.8558	35.1562	75.8635
36.6211	77.4866	36.6211	77.4901	36.6211	77.4783	36.6211	77.4885	36.6211	77.4653	36.6211	77.4816	36.6211	77.4481	36.6211	77.4696	36.6211	77.4273	36.6211	77.4526	36.6211	77.4033	36.6211	77.431	36.6211	77.3769	36.6211	77.4054	36.6211	77.3486	36.6211	77.3765	36.6211	77.3192	36.6211	77.3454	36.6211	77.2895	36.6211	77.313	36.6211	77.2604	36.6211	77.2804	36.6211	77.2325	36.6211	77.2488	36.6211	77.2067	36.6211	77.2195	36.6211	77.1839	36.6211	77.1933	36.6211	77.1646	36.6211	77.1712	36.6211	77.1497	36.6211	77.1539	36.6211	77.1396	36.6211	77.1419	36.6211	77.1348	36.6211	77.1355
38.0859	78.6645	38.0859	78.6651	38.0859	78.6589	38.0859	78.6606	38.0859	78.6486	38.0859	78.6509	38.0859	78.6338	38.0859	78.6363	38.0859	78.6152	38.0859	78.617	38.0859	78.593	38.0859	78.5935	38.0859	78.5681	38.0859	78.5665	38.0859	78.541	38.0859	78.5368	38.0859	78.5124	38.0859	78.5054	38.0859	78.4832	38.0859	78.4734	38.0859	78.4541	38.0859	78.4419	38.0859	78.426	38.0859	78.412	38.0859	78.3996	38.0859	78.3848	38.0859	78.3756	38.0859	78.3612	38.0859	78.3549	38.0859	78.3421	38.0859	78.3381	38.0859	78.328	38.0859	78.3256	38.0859	78.3192	38.0859	78.3182	38.0859	78.3159
39.5508	79.8186	39.5508	79.8221	39.5508	79.8093	39.5508	79.8198	39.5508	79.7947	39.5508	79.8116	39.5508	79.7751	39.5508	79.7976	39.5508	79.7511	39.5508	79.7781	39.5508	79.7234	39.5508	79.7537	39.5508	79.6926	39.5508	79.7249	39.5508	79.6597	39.5508	79.6926	39.5508	79.6255	39.5508	79.6579	39.5508	79.591	39.5508	79.6219	39.5508	79.5572	39.5508	79.5856	39.5508	79.5251	39.5508	79.5505	39.5508	79.4958	39.5508	79.5176	39.5508	79.4701	39.5508	79.4881	39.5508	79.4488	39.5508	79.4628	39.5508	79.4327	39.5508	79.4427	39.5508	79.4223	39.5508	79.4283	39.5508	79.418	39.5508	79.42
41.0156	80.8289	41.0156	80.8336	41.0156	80.8169	41.0156	80.8308	41.0156	80.7979	41.0156	80.8205	41.0156	80.7724	41.0156	80.803	41.0156	80.7411	41.0156	80.7786	41.0156	80.7049	41.0156	80.748	41.0156	80.6646	41.0156	80.712	41.0156	80.6215	41.0156	80.6716	41.0156	80.5766	41.0156	80.6279	41.0156	80.5314	41.0156	80.5824	41.0156	80.4872	41.0156	80.5363	41.0156	80.4455	41.0156	80.4913	41.0156	80.4074	41.0156	80.4488	41.0156	80.3745	41.0156	80.4101	41.0156	80.3476	41.0156	80.3765	41.0156	80.3278	41.0156	80.3491	41.0156	80.3158	41.0156	80.3288	41.0156	80.3118	41.0156	80.3162
42.4805	81.8647	42.4805	81.8668	42.4805	81.8568	42.4805	81.863	42.4805	81.8434	42.4805	81.8536	42.4805	81.8248	42.4805	81.8386	42.4805	81.8014	42.4805	81.8186	42.4805	81.774	42.4805	81.7941	42.4805	81.7433	42.4805	81.7657	42.4805	81.7102	42.4805	81.7343	42.4805	81.6757	42.4805	81.7009	42.4805	81.6409	42.4805	81.6663	42.4805	81.6068	42.4805	81.6317	42.4805	81.5746	42.4805	81.5983	42.4805	81.5453	42.4805	81.5669	42.4805	81.5197	42.4805	81.5386	42.4805	81.4989	42.4805	81.5143	42.4805	81.4833	42.4805	81.4948	42.4805	81.4735	42.4805	81.4806	42.4805	81.4697	42.4805	81.4721
43.9453	82.234	43.9453	82.2353	43.9453	82.2239	43.9453	82.2278	43.9453	82.2053	43.9453	82.2117	43.9453	82.1787	43.9453	82.1874	43.9453	82.1448	43.9453	82.1558	43.9453	82.1046	43.9453	82.1175	43.9453	82.0594	43.9453	82.0738	43.9453	82.0105	43.9453	82.026	43.9453	81.9594	43.9453	81.9755	43.9453	81.9079	43.9453	81.9238	43.9453	81.8575	43.9453	81.8728	43.9453	81.8098	43.9453	81.8239	43.9453	81.7664	43.9453	81.7788	43.9453	81.7284	43.9453	81.7389	43.9453	81.697	43.9453	81.7052	43.9453	81.673	43.9453	81.6789	43.9453	81.657	43.9453	81.6606	43.9453	81.6495	43.9453	81.6507
45.4102	82.9378	45.4102	82.9397	45.4102	82.9269	45.4102	82.9325	45.4102	82.9072	45.4102	82.9165	45.4102	82.8793	45.4102	82.8922	45.4102	82.844	45.4102	82.8604	45.4102	82.8025	45.4102	82.8222	45.4102	82.7561	45.4102	82.7787	45.4102	82.7064	45.4102	82.7314	45.4102	82.6549	45.4102	82.6817	45.4102	82.6035	45.4102	82.6313	45.4102	82.5538	45.4102	82.5816	45.4102	82.5075	45.4102	82.5343	45.4102	82.4658	45.4102	82.4906	45.4102	82.43	45.4102	82.4519	45.4102	82.4011	45.4102	82.4191	45.4102	82.3796	45.4102	82.393	45.4102	82.3661	45.4102	82.3743	45.4102	82.3607	45.4102	82.3635
46.875	83.6106	46.875	83.6133	46.875	83.5989	46.875	83.607	46.875	83.5786	46.875	83.5918	46.875	83.5503	46.875	83.5683	46.875	83.5148	46.875	83.537	46.875	83.4732	46.875	83.4991	46.875	83.4268	46.875	83.4558	46.875	83.3771	46.875	83.4084	46.875	83.3257	46.875	83.3585	46.875	83.2744	46.875	83.3078	46.875	83.2247	46.875	83.2577	46.875	83.1783	46.875	83.2099	46.875	83.1366	46.875	83.1657	46.875	83.1009	46.875	83.1264	46.875	83.0721	46.875	83.0931	46.875	83.0508	46.875	83.0665	46.875	83.0376	46.875	83.0472	46.875	83.0326	46.875	83.0359
48.3398	84.1549	48.3398	84.1579	48.3398	84.1423	48.3398	84.1514	48.3398	84.1206	48.3398	84.1356	48.3398	84.0904	48.3398	84.111	48.3398	84.0527	48.3398	84.0784	48.3398	84.0086	48.3398	84.0389	48.3398	83.9596	48.3398	83.9939	48.3398	83.9073	48.3398	83.9448	48.3398	83.8536	48.3398	83.8932	48.3398	83.8001	48.3398	83.841	48.3398	83.7488	48.3398	83.7896	48.3398	83.7013	48.3398	83.7407	48.3398	83.6591	48.3398	83.6957	48.3398	83.6232	48.3398	83.6556	48.3398	83.5948	48.3398	83.6216	48.3398	83.5742	48.3398	83.5943	48.3398	83.5618	48.3398	83.5743	48.3398	83.5578	48.3398	83.562
51.2695	84.8113	51.2695	84.8107	51.2695	84.802	51.2695	84.8005	51.2695	84.7831	51.2695	84.7808	51.2695	84.7553	51.2695	84.7525	51.2695	84.7195	51.2695	84.7164	51.2695	84.6768	51.2695	84.6738	51.2695	84.6287	51.2695	84.6261	51.2695	84.5768	51.2695	84.575	51.2695	84.523	51.2695	84.5221	51.2695	84.4692	51.2695	84.4693	51.2695	84.4172	51.2695	84.4182	51.2695	84.3685	51.2695	84.3705	51.2695	84.3248	51.2695	84.3273	51.2695	84.2872	51.2695	84.2899	51.2695	84.2564	51.2695	84.2591	51.2695	84.2332	51.2695	84.2354	51.2695	84.2178	51.2695	84.2192	51.2695	84.2103	51.2695	84.2108
52.7344	85.1868	52.7344	85.1876	52.7344	85.1754	52.7344	85.1777	52.7344	85.1537	52.7344	85.1576	52.7344	85.1225	52.7344	85.1279	52.7344	85.0827	52.7344	85.0896	52.7344	85.0358	52.7344	85.0441	52.7344	84.9833	52.7344	84.9928	52.7344	84.927	52.7344	84.9377	52.7344	84.8688	52.7344	84.8805	52.7344	84.8108	52.7344	84.8232	52.7344	84.7549	52.7344	84.7677	52.7344	84.7029	52.7344	84.7157	52.7344	84.6563	52.7344	84.6685	52.7344	84.6164	52.7344	84.6275	52.7344	84.584	52.7344	84.5934	52.7344	84.5598	52.7344	84.5669	52.7344	84.5441	52.7344	84.5486	52.7344	84.537	52.7344	84.5385
54.1992	85.3818	54.1992	85.3833	54.1992	85.3699	54.1992	85.3744	54.1992	85.3478	54.1992	85.3555	54.1992	85.3163	54.1992	85.3273	54.1992	85.2764	54.1992	85.2908	54.1992	85.2294	54.1992	85.2472	54.1992	85.1769	54.1992	85.1982	54.1992	85.1208	54.1992	85.1454	54.1992	85.0631	54.1992	85.0905	54.1992	85.0058	54.1992	85.0354	54.1992	84.9509	54.1992	84.9818	54.1992	84.9003	54.1992	84.9313	54.1992	84.8554	54.1992	84.8852	54.1992	84.8175	54.1992	84.8446	54.1992	84.7874	54.1992	84.8103	54.1992	84.7657	54.1992	84.7831	54.1992	84.7525	54.1992	84.7634	54.1992	84.7478	54.1992	84.7515
55.6641	85.537	55.6641	85.5357	55.6641	85.5274	55.6641	85.5236	55.6641	85.5071	55.6641	85.5012	55.6641	85.4768	55.6641	85.4694	55.6641	85.4374	55.6641	85.4293	55.6641	85.3904	55.6641	85.3825	55.6641	85.3375	55.6641	85.3305	55.6641	85.2804	55.6641	85.2753	55.6641	85.2215	55.6641	85.2186	55.6641	85.1627	55.6641	85.1625	55.6641	85.1061	55.6641	85.1085	55.6641	85.0537	55.6641	85.0583	55.6641	85.007	55.6641	85.0132	55.6641	84.9672	55.6641	84.9742	55.6641	84.9352	55.6641	84.9419	55.6641	84.9114	55.6641	84.917	55.6641	84.896	55.6641	84.8997	55.6641	84.889	55.6641	84.8903
58.5938	85.7607	58.5938	85.7575	58.5938	85.7525	58.5938	85.7429	58.5938	85.7331	58.5938	85.7177	58.5938	85.7031	58.5938	85.6828	58.5938	85.6636	58.5938	85.6395	58.5938	85.616	58.5938	85.5895	58.5938	85.5621	58.5938	85.5345	58.5938	85.5039	58.5938	85.4767	58.5938	85.4436	58.5938	85.4181	58.5938	85.3834	58.5938	85.3607	58.5938	85.3254	58.5938	85.3062	58.5938	85.2716	58.5938	85.2562	58.5938	85.2235	58.5938	85.2119	58.5938	85.1823	58.5938	85.1742	58.5938	85.1489	58.5938	85.1437	58.5938	85.1237	58.5938	85.1207	58.5938	85.1068	58.5938	85.1053	58.5938	85.0982	58.5938	85.0978
60.0586	85.8233	60.0586	85.8191	60.0586	85.8161	60.0586	85.8036	60.0586	85.7976	60.0586	85.7774	60.0586	85.7686	60.0586	85.7416	60.0586	85.7302	60.0586	85.6975	60.0586	85.6837	60.0586	85.6468	60.0586	85.6311	60.0586	85.5915	60.0586	85.5742	60.0586	85.5337	60.0586	85.5154	60.0586	85.4755	60.0586	85.4566	60.0586	85.419	60.0586	85.4001	60.0586	85.3659	60.0586	85.3476	60.0586	85.3177	60.0586	85.3007	60.0586	85.2757	60.0586	85.2604	60.0586	85.2405	60.0586	85.2275	60.0586	85.2125	60.0586	85.2023	60.0586	85.192	60.0586	85.185	60.0586	85.179	60.0586	85.1754	60.0586	85.1734
62.9883	85.9408	62.9883	85.936	62.9883	85.9335	62.9883	85.9193	62.9883	85.9145	62.9883	85.8914	62.9883	85.8846	62.9883	85.8534	62.9883	85.8448	62.9883	85.8067	62.9883	85.7969	62.9883	85.7534	62.9883	85.7427	62.9883	85.6954	62.9883	85.6845	62.9883	85.6352	62.9883	85.6244	62.9883	85.575	62.9883	85.5648	62.9883	85.517	62.9883	85.5078	62.9883	85.4631	62.9883	85.4551	62.9883	85.415	62.9883	85.4082	62.9883	85.3735	62.9883	85.3681	62.9883	85.3395	62.9883	85.3353	62.9883	85.313	62.9883	85.3101	62.9883	85.2943	62.9883	85.2924	62.9883	85.2829	62.9883	85.282	62.9883	85.2788
64.4531	85.996	64.4531	85.9913	64.4531	85.9883	64.4531	85.9745	64.4531	85.9686	64.4531	85.946	64.4531	85.9375	64.4531	85.9072	64.4531	85.8965	64.4531	85.8596	64.4531	85.8472	64.4531	85.8051	64.4531	85.7916	64.4531	85.746	64.4531	85.732	64.4531	85.6847	64.4531	85.6707	64.4531	85.6235	64.4531	85.6101	64.4531	85.5647	64.4531	85.5523	64.4531	85.5103	64.4531	85.4992	64.4531	85.4617	64.4531	85.4522	64.4531	85.4201	64.4531	85.4123	64.4531	85.386	64.4531	85.3799	64.4531	85.3596	64.4531	85.3551	64.4531	85.3408	64.4531	85.3379	64.4531	85.3294	64.4531	85.3279	64.4531	85.3251
67.3828	86.0595	67.3828	86.0532	67.3828	86.0528	67.3828	86.0343	67.3828	86.0336	67.3828	86.0034	67.3828	86.0027	67.3828	85.9618	67.3828	85.9613	67.3828	85.9112	67.3828	85.9114	67.3828	85.8539	67.3828	85.855	67.3828	85.7922	67.3828	85.7945	67.3828	85.7287	67.3828	85.7323	67.3828	85.666	67.3828	85.671	67.3828	85.6064	67.3828	85.6126	67.3828	85.552	67.3828	85.5591	67.3828	85.5042	67.3828	85.5118	67.3828	85.464	67.3828	85.4715	67.3828	85.4318	67.3828	85.4387	67.3828	85.4076	67.3828	85.4133	67.3828	85.3911	67.3828	85.3952	67.3828	85.3819	67.3828	85.3841	67.3828	85.3797
68.8477	86.0877	68.8477	86.0813	68.8477	86.0806	68.8477	86.0616	68.8477	86.0605	68.8477	86.0294	68.8477	86.0282	68.8477	85.9861	68.8477	85.9853	68.8477	85.9334	68.8477	85.9336	68.8477	85.8737	68.8477	85.8754	68.8477	85.8094	68.8477	85.8131	68.8477	85.7434	68.8477	85.7493	68.8477	85.6783	68.8477	85.6865	68.8477	85.6167	68.8477	85.627	68.8477	85.5607	68.8477	85.5725	68.8477	85.5118	68.8477	85.5244	68.8477	85.4711	68.8477	85.4836	68.8477	85.4388	68.8477	85.4503	68.8477	85.4149	68.8477	85.4244	68.8477	85.3989	68.8477	85.4058	68.8477	85.3904	68.8477	85.394	68.8477	85.3889
71.7773	86.1655	71.7773	86.1569	71.7773	86.1598	71.7773	86.1343	71.7773	86.1403	71.7773	86.0985	71.7773	86.108	71.7773	86.051	71.7773	86.0644	71.7773	85.9937	71.7773	86.0116	71.7773	85.9292	71.7773	85.952	71.7773	85.8603	71.7773	85.8883	71.7773	85.7901	71.7773	85.8232	71.7773	85.7215	71.7773	85.7591	71.7773	85.6574	71.7773	85.6984	71.7773	85.6001	71.7773	85.6429	71.7773	85.5511	71.7773	85.5939	71.7773	85.5114	71.7773	85.5519	71.7773	85.4813	71.7773	85.5172	71.7773	85.4604	71.7773	85.4895	71.7773	85.448	71.7773	85.4685	71.7773	85.4433	71.7773	85.4539	71.7773	85.4454
74.707	86.3012	74.707	86.2916	74.707	86.296	74.707	86.2673	74.707	86.2766	74.707	86.2293	74.707	86.2439	74.707	86.1789	74.707	86.1998	74.707	86.1184	74.707	86.1463	74.707	86.0502	74.707	86.086	74.707	85.9775	74.707	86.0216	74.707	85.9035	74.707	85.956	74.707	85.8316	74.707	85.8915	74.707	85.7647	74.707	85.8306	74.707	85.7055	74.707	85.7749	74.707	85.6556	74.707	85.7255	74.707	85.6163	74.707	85.6828	74.707	85.5876	74.707	85.6469	74.707	85.5691	74.707	85.6175	74.707	85.5599	74.707	85.5941	74.707	85.5587	74.707	85.5764	74.707	85.5645
77.6367	86.4094	77.6367	86.4046	77.6367	86.399	77.6367	86.3847	77.6367	86.3741	77.6367	86.3505	77.6367	86.336	77.6367	86.3034	77.6367	86.2865	77.6367	86.2455	77.6367	86.2281	77.6367	86.1794	77.6367	86.1635	77.6367	86.1083	77.6367	86.0959	77.6367	86.0355	77.6367	86.0281	77.6367	85.9641	77.6367	85.9629	77.6367	85.8973	77.6367	85.9027	77.6367	85.8375	77.6367	85.8491	77.6367	85.7866	77.6367	85.8031	77.6367	85.7455	77.6367	85.7649	77.6367	85.7145	77.6367	85.7343	77.6367	85.6929	77.6367	85.7107	77.6367	85.6799	77.6367	85.6932	77.6367	85.6743	77.6367	85.6814	77.6367	85.675
79.1016	86.1286	79.1016	86.1247	79.1016	86.1137	79.1016	86.1019	79.1016	86.0806	79.1016	86.0614	79.1016	86.0312	79.1016	86.005	79.1016	85.9679	79.1016	85.9354	79.1016	85.8939	79.1016	85.8562	79.1016	85.813	79.1016	85.7713	79.1016	85.7294	79.1016	85.6853	79.1016	85.6474	79.1016	85.6024	79.1016	85.5707	79.1016	85.5267	79.1016	85.5027	79.1016	85.4611	79.1016	85.4454	79.1016	85.4077	79.1016	85.3997	79.1016	85.367	79.1016	85.3655	79.1016	85.3383	79.1016	85.3413	79.1016	85.3201	79.1016	85.3251	79.1016	85.3101	79.1016	85.3149	79.1016	85.3059	79.1016	85.3088	79.1016	85.3058
82.0312	86.1729	82.0312	86.1659	82.0312	86.1601	82.0312	86.1394	82.0312	86.1284	82.0312	86.0944	82.0312	86.0793	82.0312	86.0332	82.0312	86.0155	82.0312	85.9587	82.0312	85.9404	82.0312	85.8748	82.0312	85.8578	82.0312	85.786	82.0312	85.7722	82.0312	85.6969	82.0312	85.688	82.0312	85.6123	82.0312	85.6092	82.0312	85.5362	82.0312	85.5393	82.0312	85.4718	82.0312	85.4806	82.0312	85.4209	82.0312	85.4341	82.0312	85.3836	82.0312	85.3995	82.0312	85.3589	82.0312	85.3753	82.0312	85.3447	82.0312	85.3594	82.0312	85.3382	82.0312	85.3492	82.0312	85.3369	82.0312	85.3427	82.0312	85.3387
84.9609	86.2413	84.9609	86.2378	84.9609	86.2255	84.9609	86.215	84.9609	86.1916	84.9609	86.1741	84.9609	86.1417	84.9609	86.1171	84.9609	86.079	84.9609	86.0471	84.9609	86.0073	84.9609	85.9683	84.9609	85.931	84.9609	85.8854	84.9609	85.8547	84.9609	85.8035	84.9609	85.7828	84.9609	85.7273	84.9609	85.7191	84.9609	85.6612	84.9609	85.6663	84.9609	85.6081	84.9609	85.6257	84.9609	85.5697	84.9609	85.5972	84.9609	85.5456	84.9609	85.5791	84.9609	85.5341	84.9609	85.569	84.9609	85.5323	84.9609	85.5637	84.9609	85.5366	84.9609	85.5602	84.9609	85.5436	84.9609	85.5563	84.9609	85.5507
87.8906	86.4098	87.8906	86.4187	87.8906	86.3787	87.8906	86.4051	87.8906	86.3267	87.8906	86.3701	87.8906	86.2562	87.8906	86.3159	87.8906	86.171	87.8906	86.2456	87.8906	86.0754	87.8906	86.1635	87.8906	85.975	87.8906	86.0746	87.8906	85.8755	87.8906	85.9843	87.8906	85.7828	87.8906	85.898	87.8906	85.702	87.8906	85.8203	87.8906	85.6372	87.8906	85.7549	87.8906	85.5905	87.8906	85.7036	87.8906	85.562	87.8906	85.6665	87.8906	85.5498	87.8906	85.6417	87.8906	85.5504	87.8906	85.6261	87.8906	85.5594	87.8906	85.6158	87.8906	85.5725	87.8906	85.6073	87.8906	85.586	87.8906	85.5978
90.8203	86.5302	90.8203	86.5335	90.8203	86.503	90.8203	86.5132	90.8203	86.4528	90.8203	86.4709	90.8203	86.3815	90.8203	86.4091	90.8203	86.2925	90.8203	86.3315	90.8203	86.1904	90.8203	86.2427	90.8203	86.0805	90.8203	86.1477	90.8203	85.969	90.8203	86.0519	90.8203	85.8624	90.8203	85.9607	90.8203	85.7666	90.8203	85.8786	90.8203	85.6866	90.8203	85.8087	90.8203	85.6257	90.8203	85.7527	90.8203	85.585	90.8203	85.7104	90.8203	85.5632	90.8203	85.6797	90.8203	85.5575	90.8203	85.6577	90.8203	85.5636	90.8203	85.6406	90.8203	85.5768	90.8203	85.6254	90.8203	85.5932	90.8203	85.6098
95.2148	86.6537	95.2148	86.6524	95.2148	86.6296	95.2148	86.626	95.2148	86.581	95.2148	86.5762	95.2148	86.5099	95.2148	86.5059	95.2148	86.4198	95.2148	86.4189	95.2148	86.3153	95.2148	86.3203	95.2148	86.2019	95.2148	86.2155	95.2148	86.0861	95.2148	86.1107	95.2148	85.9744	95.2148	86.0117	95.2148	85.8733	95.2148	85.9234	95.2148	85.7877	95.2148	85.8496	95.2148	85.7214	95.2148	85.7919	95.2148	85.6754	95.2148	85.7501	95.2148	85.6487	95.2148	85.7218	95.2148	85.6383	95.2148	85.7035	95.2148	85.6397	95.2148	85.6913	95.2148	85.6483	95.2148	85.6813	95.2148	85.6597	95.2148	85.6711
98.1445	86.7609	98.1445	86.7594	98.1445	86.7357	98.1445	86.7319	98.1445	86.6849	98.1445	86.68	98.1445	86.6107	98.1445	86.6068	98.1445	86.5165	98.1445	86.5165	98.1445	86.4073	98.1445	86.4142	98.1445	86.289	98.1445	86.3061	98.1445	86.1681	98.1445	86.1983	98.1445	86.0516	98.1445	86.0969	98.1445	85.9463	98.1445	86.0071	98.1445	85.8575	98.1445	85.9324	98.1445	85.7889	98.1445	85.8744	98.1445	85.7419	98.1445	85.8324	98.1445	85.7154	98.1445	85.8039	98.1445	85.7061	98.1445	85.7852	98.1445	85.7095	98.1445	85.772	98.1445	85.7204	98.1445	85.7605	98.1445	85.7344	98.1445	85.7482
101.074	86.7884	101.074	86.7784	101.074	86.771	101.074	86.7417	101.074	86.7269	101.074	86.6806	101.074	86.6581	101.074	86.5985	101.074	86.5682	101.074	86.5001	101.074	86.4621	101.074	86.3912	101.074	86.3456	101.074	86.2783	101.074	86.2258	101.074	86.1681	101.074	86.1099	101.074	86.067	101.074	86.0048	101.074	85.9804	101.074	85.9162	101.074	85.9115	101.074	85.8479	101.074	85.8617	101.074	85.8012	101.074	85.8296	101.074	85.7748	101.074	85.812	101.074	85.7651	101.074	85.8041	101.074	85.7673	101.074	85.8012	101.074	85.7757	101.074	85.7987	101.074	85.7857	101.074	85.7938
105.469	86.8997	105.469	86.8867	105.469	86.8833	105.469	86.8447	105.469	86.8382	105.469	86.776	105.469	86.7669	105.469	86.6841	105.469	86.6731	105.469	86.5741	105.469	86.5618	105.469	86.4525	105.469	86.4393	105.469	86.3267	105.469	86.3127	105.469	86.2046	105.469	86.1896	105.469	86.0935	105.469	86.0774	105.469	85.9997	105.469	85.982	105.469	85.9271	105.469	85.9078	105.469	85.8767	105.469	85.8562	105.469	85.8468	105.469	85.826	105.469	85.8333	105.469	85.8137	105.469	85.8306	105.469	85.8138	105.469	85.8328	105.469	85.8205	105.469	85.8349	105.469	85.8284	105.469	85.8337
108.398	87.0611	108.398	87.0525	108.398	87.0401	108.398	87.0147	108.398	86.9908	108.398	86.9495	108.398	86.9155	108.398	86.8601	108.398	86.818	108.398	86.751	108.398	86.7034	108.398	86.6285	108.398	86.5782	108.398	86.4998	108.398	86.4496	108.398	86.3729	108.398	86.3254	108.398	86.2557	108.398	86.2128	108.398	86.1552	108.398	86.118	108.398	86.0761	108.398	86.045	108.398	86.0204	108.398	85.9952	108.398	85.9869	108.398	85.967	108.398	85.9716	108.398	85.9563	108.398	85.9687	108.398	85.9575	108.398	85.9719	108.398	85.9645	108.398	85.9756	108.398	85.9719	108.398	85.9761
112.793	87.3296	112.793	87.3165	112.793	87.3091	112.793	87.2706	112.793	87.2557	112.793	87.1946	112.793	87.172	112.793	87.0926	112.793	87.0622	112.793	86.9704	112.793	86.9322	112.793	86.8351	112.793	86.7897	112.793	86.6948	112.793	86.6431	112.793	86.5581	112.793	86.5017	112.793	86.4331	112.793	86.3742	112.793	86.3269	112.793	86.2681	112.793	86.2438	112.793	86.1879	112.793	86.1858	112.793	86.1352	112.793	86.151	112.793	86.1078	112.793	86.1353	112.793	86.1006	112.793	86.1325	112.793	86.1067	112.793	86.1356	112.793	86.1187	112.793	86.1387	112.793	86.1303	112.793	86.1374
117.188	87.4508	117.188	87.439	117.188	87.4292	117.188	87.3947	117.188	87.3753	117.188	87.3198	117.188	87.2916	117.188	87.2185	117.188	87.1824	117.188	87.096	117.188	87.0533	117.188	86.9596	117.188	86.9115	117.188	86.8175	117.188	86.7652	117.188	86.6786	117.188	86.6234	117.188	86.5518	117.188	86.4948	117.188	86.4445	117.188	86.3867	117.188	86.3615	117.188	86.3044	117.188	86.3047	117.188	86.2496	117.188	86.2719	117.188	86.2208	117.188	86.2582	117.188	86.2133	117.188	86.2568	117.188	86.2204	117.188	86.2602	117.188	86.2346	117.188	86.2623	117.188	86.249	117.188	86.2589
120.117	87.5507	120.117	87.5363	120.117	87.5314	120.117	87.4892	120.117	87.4793	120.117	87.4117	120.117	87.3969	120.117	87.3078	120.117	87.2881	120.117	87.1829	120.117	87.1586	120.117	87.0441	120.117	87.0156	120.117	86.8996	120.117	86.8676	120.117	86.7583	120.117	86.7236	120.117	86.629	120.117	86.5926	120.117	86.5192	120.117	86.4821	120.117	86.4339	120.117	86.3974	120.117	86.375	120.117	86.3403	120.117	86.3407	120.117	86.3091	120.117	86.3264	120.117	86.299	120.117	86.3252	120.117	86.3033	120.117	86.3298	120.117	86.3145	120.117	86.3337	120.117	86.3258	120.117	86.3328
124.512	87.6415	124.512	87.6231	124.512	87.6257	124.512	87.5711	124.512	87.5766	124.512	87.4881	124.512	87.497	124.512	87.3783	124.512	87.3914	124.512	87.2479	124.512	87.2659	124.512	87.1046	124.512	87.128	124.512	86.9577	124.512	86.9866	124.512	86.8169	124.512	86.8508	124.512	86.6917	124.512	86.7295	124.512	86.5899	124.512	86.6299	124.512	86.5165	124.512	86.5566	124.512	86.4726	124.512	86.5106	124.512	86.4556	124.512	86.4895	124.512	86.4591	124.512	86.4875	124.512	86.4752	124.512	86.4971	124.512	86.4953	124.512	86.5101	124.512	86.5121	124.512	86.5195	124.512	86.5207
128.906	87.6725	128.906	87.6567	128.906	87.6514	128.906	87.6043	128.906	87.5945	128.906	87.5175	128.906	87.505	128.906	87.4004	128.906	87.3876	128.906	87.2593	128.906	87.2492	128.906	87.1024	128.906	87.098	128.906	86.9398	128.906	86.9442	128.906	86.7833	128.906	86.7984	128.906	86.6443	128.906	86.6709	128.906	86.5331	128.906	86.5703	128.906	86.4565	128.906	86.5016	128.906	86.4163	128.906	86.4656	128.906	86.4093	128.906	86.4582	128.906	86.4274	128.906	86.4718	128.906	86.4598	128.906	86.4961	128.906	86.4951	128.906	86.5206	128.906	86.5235	128.906	86.5366	128.906	86.5381
133.301	87.7077	133.301	87.7031	133.301	87.6739	133.301	87.6602	133.301	87.603	133.301	87.5813	133.301	87.4983	133.301	87.4704	133.301	87.3653	133.301	87.3337	133.301	87.2115	133.301	87.1795	133.301	87.0466	133.301	87.0182	133.301	86.8818	133.301	86.8616	133.301	86.7296	133.301	86.7218	133.301	86.6017	133.301	86.6096	133.301	86.5072	133.301	86.5322	133.301	86.4511	133.301	86.4922	133.301	86.4331	133.301	86.4863	133.301	86.447	133.301	86.506	133.301	86.4827	133.301	86.5398	133.301	86.5278	133.301	86.5753	133.301	86.5701	133.301	86.6015	133.301	86.5998	133.301	86.6108
139.16	87.7724	139.16	87.7654	139.16	87.7368	139.16	87.717	139.16	87.6594	139.16	87.6303	139.16	87.543	139.16	87.5105	139.16	87.3927	139.16	87.3646	139.16	87.2164	139.16	87.2023	139.16	87.0246	139.16	87.0349	139.16	86.8304	139.16	86.8749	139.16	86.6487	139.16	86.7347	139.16	86.4946	139.16	86.625	139.16	86.3807	139.16	86.5521	139.16	86.3149	139.16	86.5173	139.16	86.2978	139.16	86.5156	139.16	86.323	139.16	86.537	139.16	86.378	139.16	86.5687	139.16	86.4474	139.16	86.5973	139.16	86.5159	139.16	86.6114	139.16	86.5706	139.16	86.6034
143.555	87.8117	143.555	87.7923	143.555	87.7859	143.555	87.7288	143.555	87.7154	143.555	87.6246	143.555	87.6029	143.555	87.4854	143.555	87.4533	143.555	87.319	143.555	87.2742	143.555	87.136	143.555	87.076	143.555	86.9493	143.555	86.8717	143.555	86.7732	143.555	86.6766	143.555	86.622	143.555	86.5065	143.555	86.5075	143.555	86.3758	143.555	86.4367	143.555	86.294	143.555	86.4098	143.555	86.2637	143.555	86.4201	143.555	86.2797	143.555	86.4553	143.555	86.3299	143.555	86.5	143.555	86.398	143.555	86.539	143.555	86.4672	143.555	86.5601	143.555	86.5229	143.555	86.5553
147.949	87.8499	147.949	87.8276	147.949	87.8246	147.949	87.7586	147.949	87.7531	147.949	87.6459	147.949	87.6383	147.949	87.4948	147.949	87.4858	147.949	87.3132	147.949	87.3034	147.949	87.112	147.949	87.1018	147.949	86.905	147.949	86.8943	147.949	86.708	147.949	86.6962	147.949	86.537	147.949	86.5233	147.949	86.4061	147.949	86.3896	147.949	86.3244	147.949	86.3045	147.949	86.2932	147.949	86.2702	147.949	86.3059	147.949	86.2812	147.949	86.3493	147.949	86.3249	147.949	86.4065	147.949	86.385	147.949	86.4603	147.949	86.4443	147.949	86.4968	147.949	86.4883	147.949	86.507
153.809	87.9145	153.809	87.8942	153.809	87.8842	153.809	87.8245	153.809	87.8043	153.809	87.7081	153.809	87.6778	153.809	87.5503	153.809	87.51	153.809	87.3588	153.809	87.309	153.809	87.1445	153.809	87.0859	153.809	86.9208	153.809	86.8548	153.809	86.7041	153.809	86.6327	153.809	86.5114	153.809	86.4372	153.809	86.3585	153.809	86.2844	153.809	86.2562	153.809	86.1853	153.809	86.2079	153.809	86.1428	153.809	86.208	153.809	86.1509	153.809	86.2433	153.809	86.196	153.809	86.2961	153.809	86.2597	153.809	86.348	153.809	86.3234	153.809	86.3835	153.809	86.371	153.809	86.3923
159.668	88.1133	159.668	88.0946	159.668	88.0802	159.668	88.0251	159.668	87.9961	159.668	87.9077	159.668	87.864	159.668	87.7479	159.668	87.6893	159.668	87.5534	159.668	87.4804	159.668	87.3352	159.668	87.2486	159.668	87.107	159.668	87.0088	159.668	86.8854	159.668	86.7784	159.668	86.6878	159.668	86.5758	159.668	86.53	159.668	86.4175	159.668	86.423	159.668	86.3148	159.668	86.3702	159.668	86.2707	159.668	86.366	159.668	86.2787	159.668	86.397	159.668	86.3247	159.668	86.4457	159.668	86.3902	159.668	86.4935	159.668	86.456	159.668	86.5252	159.668	86.5063	159.668	86.5306
165.527	88.2117	165.527	88.189	165.527	88.181	165.527	88.1143	165.527	88.0977	165.527	87.9912	165.527	87.9645	165.527	87.8254	165.527	87.7866	165.527	87.6256	165.527	87.5725	165.527	87.4036	165.527	87.3342	165.527	87.1744	165.527	87.0874	165.527	86.9557	165.527	86.8512	165.527	86.7656	165.527	86.646	165.527	86.6206	165.527	86.4903	165.527	86.5309	165.527	86.3965	165.527	86.4984	165.527	86.3676	165.527	86.5153	165.527	86.3956	165.527	86.5661	165.527	86.4638	165.527	86.6309	165.527	86.5509	165.527	86.69	165.527	86.6352	165.527	86.7269	165.527	86.6991	165.527	86.7311
171.387	88.1451	171.387	88.1087	171.387	88.1259	171.387	88.0181	171.387	88.0515	171.387	87.8767	171.387	87.9246	171.387	87.6909	171.387	87.7499	171.387	87.4698	171.387	87.5353	171.387	87.2269	171.387	87.2924	171.387	86.9792	171.387	87.0367	171.387	86.7475	171.387	86.7878	171.387	86.553	171.387	86.5675	171.387	86.4143	171.387	86.3967	171.387	86.342	171.387	86.291	171.387	86.3357	171.387	86.256	171.387	86.3833	171.387	86.2852	171.387	86.4642	171.387	86.3616	171.387	86.554	171.387	86.4615	171.387	86.6301	171.387	86.5606	171.387	86.6748	171.387	86.6376	171.387	86.6779
177.246	88.0732	177.246	88.0533	177.246	88.0353	177.246	87.975	177.246	87.9417	177.246	87.84	177.246	87.7966	177.246	87.6525	177.246	87.6065	177.246	87.4202	177.246	87.3809	177.246	87.155	177.246	87.1325	177.246	86.8742	177.246	86.8781	177.246	86.5999	177.246	86.6371	177.246	86.3578	177.246	86.4305	177.246	86.1727	177.246	86.2768	177.246	86.0625	177.246	86.1881	177.246	86.0327	177.246	86.166	177.246	86.0742	177.246	86.2012	177.246	86.1652	177.246	86.2748	177.246	86.2779	177.246	86.363	177.246	86.3848	177.246	86.4422	177.246	86.4639	177.246	86.4926	177.246	86.5014
183.105	87.9539	183.105	87.9444	183.105	87.9007	183.105	87.8727	183.105	87.7863	183.105	87.7413	183.105	87.6146	183.105	87.5552	183.105	87.3923	183.105	87.3224	183.105	87.1301	183.105	87.0552	183.105	86.8432	183.105	86.7708	183.105	86.5523	183.105	86.4913	183.105	86.282	183.105	86.2427	183.105	86.0587	183.105	86.0503	183.105	85.9051	183.105	85.9334	183.105	85.8343	183.105	85.8989	183.105	85.845	183.105	85.9386	183.105	85.9216	183.105	86.0307	183.105	86.0382	183.105	86.1463	183.105	86.1649	183.105	86.2558	183.105	86.2746	183.105	86.3349	183.105	86.3462	183.105	86.3673
188.965	88.0546	188.965	88.041	188.965	88.0007	188.965	87.962	188.965	87.8793	188.965	87.821	188.965	87.692	188.965	87.6237	188.965	87.4435	188.965	87.3785	188.965	87.1427	188.965	87.0978	188.965	86.804	188.965	86.7985	188.965	86.4491	188.965	86.5028	188.965	86.107	188.965	86.2365	188.965	85.8121	188.965	86.0256	188.965	85.5976	188.965	85.8905	188.965	85.4868	188.965	85.8395	188.965	85.4842	188.965	85.8647	188.965	85.5732	188.965	85.9442	188.965	85.7211	188.965	86.0473	188.965	85.8894	188.965	86.1421	188.965	86.0426	188.965	86.2019	188.965	86.1541	188.965	86.2085
196.289	88.2242	196.289	88.1832	196.289	88.2012	196.289	88.0799	196.289	88.1135	196.289	87.9171	196.289	87.9617	196.289	87.6994	196.289	87.7476	196.289	87.4349	196.289	87.4762	196.289	87.1365	196.289	87.1571	196.289	86.8228	196.289	86.8061	196.289	86.5185	196.289	86.4466	196.289	86.2527	196.289	86.1103	196.289	86.0528	196.289	85.8328	196.289	85.9378	196.289	85.6467	196.289	85.9111	196.289	85.5709	196.289	85.9583	196.289	85.6023	196.289	86.0509	196.289	85.7166	196.289	86.155	196.289	85.8755	196.289	86.2385	196.289	86.039	196.289	86.2769	196.289	86.1734	196.289	86.256
203.613	88.2019	203.613	88.1547	203.613	88.1781	203.613	88.0369	203.613	88.084	203.613	87.8501	203.613	87.9209	203.613	87.5982	203.613	87.6915	203.613	87.2891	203.613	87.4009	203.613	86.936	203.613	87.0581	203.613	86.5596	203.613	86.6786	203.613	86.1892	203.613	86.286	203.613	85.8606	203.613	85.9136	203.613	85.6109	203.613	85.6006	203.613	85.4674	203.613	85.3848	203.613	85.4376	203.613	85.2896	203.613	85.5044	203.613	85.3136	203.613	85.6319	203.613	85.4297	203.613	85.7766	203.613	85.5948	203.613	85.8984	203.613	85.7629	203.613	85.9677	203.613	85.8957	203.613	85.9678
210.938	88.1862	210.938	88.1459	210.938	88.1587	210.938	88.0364	210.938	88.065	210.938	87.8575	210.938	87.9072	210.938	87.6105	210.938	87.6879	210.938	87.3001	210.938	87.4115	210.938	86.9361	210.938	87.0855	210.938	86.5361	210.938	86.7222	210.938	86.1272	210.938	86.341	210.938	85.7462	210.938	85.9693	210.938	85.435	210.938	85.6414	210.938	85.2301	210.938	85.3923	210.938	85.1489	210.938	85.2483	210.938	85.1813	210.938	85.2153	210.938	85.2927	210.938	85.2753	210.938	85.4363	210.938	85.3916	210.938	85.5672	210.938	85.5207	210.938	85.6517	210.938	85.6232	210.938	85.6712
218.262	88.0737	218.262	88.0473	218.262	88.0362	218.262	87.9552	218.262	87.9365	218.262	87.7965	218.262	87.7772	218.262	87.5715	218.262	87.5619	218.262	87.2834	218.262	87.2968	218.262	86.9406	218.262	86.9918	218.262	86.559	218.262	86.6617	218.262	86.1645	218.262	86.3275	218.262	85.793	218.262	86.0158	218.262	85.4866	218.262	85.7554	218.262	85.2831	218.262	85.5719	218.262	85.2025	218.262	85.4794	218.262	85.2373	218.262	85.4752	218.262	85.3551	218.262	85.5387	218.262	85.5107	218.262	85.6378	218.262	85.6596	218.262	85.7368	218.262	85.7685	218.262	85.8043	218.262	85.8181
225.586	88.1506	225.586	88.1504	225.586	88.076	225.586	88.0758	225.586	87.9263	225.586	87.9281	225.586	87.7026	225.586	87.7095	225.586	87.408	225.586	87.4246	225.586	87.05	225.586	87.0823	225.586	86.6431	225.586	86.6986	225.586	86.2115	225.586	86.2983	225.586	85.7912	225.586	85.9168	225.586	85.4285	225.586	85.5963	225.586	85.1708	225.586	85.3771	225.586	85.0515	225.586	85.2836	225.586	85.0751	225.586	85.3133	225.586	85.2133	225.586	85.4361	225.586	85.4164	225.586	85.6053	225.586	85.6302	225.586	85.7723	225.586	85.8087	225.586	85.8964	225.586	85.9207	225.586	85.9503
232.91	88.248	232.91	88.2187	232.91	88.2049	232.91	88.1185	232.91	88.0875	232.91	87.9487	232.91	87.8935	232.91	87.7112	232.91	87.6211	232.91	87.4104	232.91	87.2709	232.91	87.055	232.91	86.8485	232.91	86.6606	232.91	86.3683	232.91	86.2526	232.91	85.8583	232.91	85.8663	232.91	85.3636	232.91	85.5437	232.91	84.945	232.91	85.3236	232.91	84.6655	232.91	85.2276	232.91	84.5663	232.91	85.2491	232.91	84.6439	232.91	85.3548	232.91	84.8501	232.91	85.4953	232.91	85.1141	232.91	85.6203	232.91	85.3686	232.91	85.6887	232.91	85.5643	232.91	85.6735
241.699	88.173	241.699	88.1062	241.699	88.1673	241.699	87.9683	241.699	88.0868	241.699	87.7607	241.699	87.9285	241.699	87.4854	241.699	87.6896	241.699	87.1474	241.699	87.3691	241.699	86.7567	241.699	86.9694	241.699	86.332	241.699	86.5007	241.699	85.903	241.699	85.9847	241.699	85.5103	241.699	85.4597	241.699	85.1999	241.699	84.982	241.699	85.0104	241.699	84.6188	241.699	84.9565	241.699	84.4267	241.699	85.0208	241.699	84.4241	241.699	85.1592	241.699	84.5796	241.699	85.3159	241.699	84.8261	241.699	85.4394	241.699	85.0895	241.699	85.491	241.699	85.3099	241.699	85.4491
250.488	88.083	250.488	88.0439	250.488	88.0488	250.488	87.9297	250.488	87.9419	250.488	87.7385	250.488	87.7624	250.488	87.4686	250.488	87.5102	250.488	87.1208	250.488	87.1866	250.488	86.7012	250.488	86.7965	250.488	86.2255	250.488	86.3511	250.488	85.7241	250.488	85.8717	250.488	85.245	250.488	85.3942	250.488	84.8497	250.488	84.9682	250.488	84.5977	250.488	84.6501	250.488	84.5201	250.488	84.4846	250.488	84.6017	250.488	84.4837	250.488	84.787	250.488	84.6178	250.488	85.0044	250.488	84.8277	250.488	85.1903	250.488	85.0474	250.488	85.3001	250.488	85.221	250.488	85.311
259.277	88.2005	259.277	88.1526	259.277	88.1776	259.277	88.0337	259.277	88.0831	259.277	87.843	259.277	87.9153	259.277	87.5794	259.277	87.6727	259.277	87.2433	259.277	87.3547	259.277	86.8392	259.277	86.9639	259.277	86.3784	259.277	86.5085	259.277	85.884	259.277	86.0067	259.277	85.3941	259.277	85.4907	259.277	84.9615	259.277	85.0091	259.277	84.644	259.277	84.622	259.277	84.4839	259.277	84.3849	259.277	84.4852	259.277	84.323	259.277	84.6089	259.277	84.4156	259.277	84.7888	259.277	84.6035	259.277	84.9573	259.277	84.8141	259.277	85.062	259.277	84.9846	259.277	85.0732
268.066	87.8374	268.066	87.7743	268.066	87.8266	268.066	87.6372	268.066	87.7409	268.066	87.426	268.066	87.5779	268.066	87.1417	268.066	87.3344	268.066	86.7882	268.066	87.0081	268.066	86.3749	268.066	86.6002	268.066	85.9198	268.066	86.1204	268.066	85.4536	268.066	85.5925	268.066	85.0213	268.066	85.06	268.066	84.6782	268.066	84.5871	268.066	84.4744	268.066	84.2473	268.066	84.4326	268.066	84.0958	268.066	84.5338	268.066	84.1402	268.066	84.7238	268.066	84.3346	268.066	84.9353	268.066	84.6028	268.066	85.1089	268.066	84.8696	268.066	85.2025	268.066	85.078	268.066	85.1937
276.855	87.8159	276.855	87.8015	276.855	87.7696	276.855	87.7157	276.855	87.6699	276.855	87.547	276.855	87.5186	276.855	87.2848	276.855	87.3119	276.855	86.9219	276.855	87.0414	276.855	86.457	276.855	86.6977	276.855	85.8991	276.855	86.2753	276.855	85.2752	276.855	85.7795	276.855	84.6392	276.855	85.2357	276.855	84.0781	276.855	84.6966	276.855	83.6974	276.855	84.2417	276.855	83.5737	276.855	83.957	276.855	83.7029	276.855	83.8918	276.855	83.998	276.855	84.0256	276.855	84.3416	276.855	84.2777	276.855	84.6349	276.855	84.55	276.855	84.8163	276.855	84.7611	276.855	84.8584
287.109	87.8082	287.109	87.7987	287.109	87.7409	287.109	87.7141	287.109	87.5956	287.109	87.5555	287.109	87.3725	287.109	87.3224	287.109	87.0737	287.109	87.0129	287.109	86.7039	287.109	86.6246	287.109	86.2705	287.109	86.1586	287.109	85.7853	287.109	85.625	287.109	85.2674	287.109	85.0509	287.109	84.7485	287.109	84.4899	287.109	84.2768	287.109	84.0222	287.109	83.9154	287.109	83.7358	287.109	83.7243	287.109	83.6819	287.109	83.7298	287.109	83.8372	287.109	83.9028	287.109	84.1123	287.109	84.1676	287.109	84.3981	287.109	84.4333	287.109	84.6068	287.109	84.6229	287.109	84.6868
297.363	87.9049	297.363	87.8382	297.363	87.8896	297.363	87.687	297.363	87.7901	297.363	87.4479	297.363	87.5999	297.363	87.1195	297.363	87.3088	297.363	86.7077	297.363	86.9071	297.363	86.2284	297.363	86.3898	297.363	85.7113	297.363	85.7634	297.363	85.1999	297.363	85.0537	297.363	84.7474	297.363	84.3166	297.363	84.4051	297.363	83.646	297.363	84.2071	297.363	83.1622	297.363	84.1573	297.363	82.964	297.363	84.2287	297.363	83.0651	297.363	84.3737	297.363	83.3822	297.363	84.5372	297.363	83.7897	297.363	84.667	297.363	84.179	297.363	84.7192	297.363	84.4807	297.363	84.6624
307.617	87.9581	307.617	87.9403	307.617	87.9158	307.617	87.8534	307.617	87.8163	307.617	87.6828	307.617	87.6571	307.617	87.4087	307.617	87.4301	307.617	87.0092	307.617	87.1228	307.617	86.4656	307.617	86.7199	307.617	85.7724	307.617	86.2082	307.617	84.9542	307.617	85.5847	307.617	84.09	307.617	84.8676	307.617	83.333	307.617	84.1114	307.617	82.8788	307.617	83.4185	307.617	82.8422	307.617	82.9272	307.617	83.1531	307.617	82.7528	307.617	83.6201	307.617	82.9081	307.617	84.0636	307.617	83.2895	307.617	84.372	307.617	83.7461	307.617	84.4929	307.617	84.149	307.617	84.4133
319.336	87.4748	319.336	87.4358	319.336	87.4628	319.336	87.3511	319.336	87.3904	319.336	87.2195	319.336	87.2471	319.336	87.0311	319.336	87.0224	319.336	86.7678	319.336	86.7074	319.336	86.4055	319.336	86.2954	319.336	85.9211	319.336	85.7854	319.336	85.3015	319.336	85.1871	319.336	84.5587	319.336	84.5312	319.336	83.7535	319.336	83.8818	319.336	83.0218	319.336	83.3411	319.336	82.5618	319.336	83.0249	319.336	82.5207	319.336	82.9986	319.336	82.8543	319.336	83.2249	319.336	83.3609	319.336	83.5848	319.336	83.8374	319.336	83.944	319.336	84.1607	319.336	84.1982	319.336	84.2814
329.59	87.6811	329.59	87.6572	329.59	87.6531	329.59	87.5754	329.59	87.5755	329.59	87.4282	329.59	87.4461	329.59	87.2067	329.59	87.2557	329.59	86.9008	329.59	86.9898	329.59	86.4988	329.59	86.6296	329.59	85.9903	329.59	86.1572	329.59	85.3708	329.59	85.5611	329.59	84.6529	329.59	84.8468	329.59	83.8833	329.59	84.0528	329.59	83.1617	329.59	83.2718	329.59	82.6377	329.59	82.6579	329.59	82.4455	329.59	82.3726	329.59	82.5981	329.59	82.4667	329.59	82.9633	329.59	82.8236	329.59	83.3575	329.59	83.248	329.59	83.6355	329.59	83.5768	329.59	83.7163
341.309	87.2739	341.309	87.2477	341.309	87.2172	341.309	87.1346	341.309	87.0858	341.309	86.9356	341.309	86.8893	341.309	86.6561	341.309	86.636	341.309	86.3034	341.309	86.3305	341.309	85.8841	341.309	85.974	341.309	85.4041	341.309	85.566	341.309	84.8728	341.309	85.1101	341.309	84.3118	341.309	84.6204	341.309	83.7667	341.309	84.1301	341.309	83.313	341.309	83.6949	341.309	83.0395	341.309	83.3862	341.309	83.0025	341.309	83.2627	341.309	83.1799	341.309	83.3328	341.309	83.4775	341.309	83.5405	341.309	83.7791	341.309	83.7903	341.309	83.992	341.309	83.9873	341.309	84.0645
353.027	87.2972	353.027	87.2393	353.027	87.2726	353.027	87.1011	353.027	87.1635	353.027	86.884	353.027	86.9673	353.027	86.5874	353.027	86.68	353.027	86.2067	353.027	86.2949	353.027	85.7342	353.027	85.8037	353.027	85.1624	353.027	85.1997	353.027	84.4924	353.027	84.4866	353.027	83.7491	353.027	83.6933	353.027	83.0017	353.027	82.8948	353.027	82.3778	353.027	82.2275	353.027	82.0356	353.027	81.858	353.027	82.0653	353.027	81.8791	353.027	82.403	353.027	82.2246	353.027	82.8748	353.027	82.7193	353.027	83.3085	353.027	83.1922	353.027	83.5916	353.027	83.5289	353.027	83.6692
366.211	87.1143	366.211	87.014	366.211	87.1262	366.211	86.825	366.211	87.0514	366.211	86.5493	366.211	86.8903	366.211	86.1889	366.211	86.6382	366.211	85.7437	366.211	86.2835	366.211	85.2104	366.211	85.8086	366.211	84.5865	366.211	85.1941	366.211	83.8824	366.211	84.4266	366.211	83.142	366.211	83.515	366.211	82.4648	366.211	82.5172	366.211	82.0016	366.211	81.5815	366.211	81.8832	366.211	80.9581	366.211	82.1148	366.211	80.8738	366.211	82.562	366.211	81.3112	366.211	83.0466	366.211	82.0162	366.211	83.4275	366.211	82.721	366.211	83.6164	366.211	83.2619	366.211	83.5665
379.395	87.6724	379.395	87.693	379.395	87.5938	379.395	87.642	379.395	87.4672	379.395	87.5032	379.395	87.298	379.395	87.258	379.395	87.0848	379.395	86.8862	379.395	86.8185	379.395	86.3673	379.395	86.481	379.395	85.6824	379.395	86.0481	379.395	84.8199	379.395	85.4952	379.395	83.7891	379.395	84.8063	379.395	82.6506	379.395	83.9906	379.395	81.5721	379.395	83.108	379.395	80.8553	379.395	82.2973	379.395	80.7707	379.395	81.7653	379.395	81.2537	379.395	81.6683	379.395	81.9599	379.395	81.96	379.395	82.5798	379.395	82.4227	379.395	82.9538	379.395	82.8298	379.395	83.0317
392.578	87.2442	392.578	87.2151	392.578	87.2005	392.578	87.121	392.578	87.0792	392.578	86.9684	392.578	86.8789	392.578	86.7576	392.578	86.6011	392.578	86.4796	392.578	86.248	392.578	86.1146	392.578	85.8201	392.578	85.6361	392.578	85.316	392.578	85.0165	392.578	84.7348	392.578	84.2396	392.578	84.0835	392.578	83.3217	392.578	83.3903	392.578	82.3513	392.578	82.7242	392.578	81.5324	392.578	82.2044	392.578	81.143	392.578	81.9652	392.578	81.3132	392.578	82.0615	392.578	81.865	392.578	82.403	392.578	82.4883	392.578	82.8068	392.578	82.9567	392.578	83.0993	392.578	83.1658
405.762	87.2337	405.762	87.1999	405.762	87.1555	405.762	87.0534	405.762	86.973	405.762	86.8008	405.762	86.698	405.762	86.4525	405.762	86.3409	405.762	86.0181	405.762	85.9061	405.762	85.501	405.762	85.3905	405.762	84.8983	405.762	84.788	405.762	84.206	405.762	84.1002	405.762	83.4334	405.762	83.3522	405.762	82.6277	405.762	82.6116	405.762	81.8996	405.762	81.9979	405.762	81.4216	405.762	81.6539	405.762	81.3423	405.762	81.6629	405.762	81.6545	405.762	81.9757	405.762	82.1843	405.762	82.4383	405.762	82.7189	405.762	82.8827	405.762	83.1055	405.762	83.1833	405.762	83.2666
420.41	87.4103	420.41	87.3373	420.41	87.3987	420.41	87.1796	420.41	87.3105	420.41	86.9443	420.41	87.1556	420.41	86.6398	420.41	86.9363	420.41	86.267	420.41	86.6399	420.41	85.8115	420.41	86.2356	420.41	85.2434	420.41	85.6781	420.41	84.5242	420.41	84.9156	420.41	83.6244	420.41	83.9018	420.41	82.5563	420.41	82.6212	420.41	81.4371	420.41	81.1578	420.41	80.5629	420.41	79.8376	420.41	80.3156	420.41	79.2638	420.41	80.7649	420.41	79.7256	420.41	81.55	420.41	80.7465	420.41	82.273	420.41	81.7493	420.41	82.7136	420.41	82.4573	420.41	82.7834
435.059	87.1993	435.059	87.1808	435.059	87.1397	435.059	87.0841	435.059	87.0069	435.059	86.9099	435.059	86.8115	435.059	86.6557	435.059	86.5661	435.059	86.3114	435.059	86.2777	435.059	85.8589	435.059	85.9398	435.059	85.2739	435.059	85.5295	435.059	84.5319	435.059	85.014	435.059	83.6204	435.059	84.362	435.059	82.5633	435.059	83.5617	435.059	81.4718	435.059	82.6466	435.059	80.6043	435.059	81.7337	435.059	80.301	435.059	81.0475	435.059	80.6563	435.059	80.8316	435.059	81.3661	435.059	81.1237	435.059	82.0425	435.059	81.6872	435.059	82.4511	435.059	82.2177	435.059	82.5056
451.172	87.5738	451.172	87.5096	451.172	87.5265	451.172	87.3447	451.172	87.3704	451.172	87.1004	451.172	87.1188	451.172	86.7984	451.172	86.7873	451.172	86.4476	451.172	86.3836	451.172	86.0341	451.172	85.899	451.172	85.5184	451.172	85.3071	451.172	84.8425	451.172	84.5689	451.172	83.9466	451.172	83.6475	451.172	82.8004	451.172	82.5399	451.172	81.4692	451.172	81.3441	451.172	80.2452	451.172	80.3608	451.172	79.6912	451.172	80.0422	451.172	80.1228	451.172	80.5307	451.172	81.121	451.172	81.4358	451.172	82.1062	451.172	82.2978	451.172	82.7774	451.172	82.8647	451.172	83.0351
465.82	87.5792	465.82	87.4945	465.82	87.5332	465.82	87.2897	465.82	87.3667	465.82	86.9921	465.82	87.1086	465.82	86.6354	465.82	86.7958	465.82	86.2448	465.82	86.4561	465.82	85.8213	465.82	86.0899	465.82	85.335	465.82	85.6621	465.82	84.7323	465.82	85.1111	465.82	83.9546	465.82	84.3692	465.82	82.962	465.82	83.3896	465.82	81.7736	465.82	82.185	465.82	80.5534	465.82	80.9049	465.82	79.7124	465.82	79.9353	465.82	79.7002	465.82	79.7476	465.82	80.4103	465.82	80.3338	465.82	81.2863	465.82	81.1811	465.82	81.9089	465.82	81.8414	465.82	82.1049
483.398	87.4071	483.398	87.3845	483.398	87.3035	483.398	87.2462	483.398	87.0805	483.398	87.0164	483.398	86.7629	483.398	86.7232	483.398	86.3879	483.398	86.3842	483.398	85.9921	483.398	85.9911	483.398	85.5913	483.398	85.5036	483.398	85.164	483.398	84.8553	483.398	84.6531	483.398	83.9681	483.398	83.9847	483.398	82.7739	483.398	83.0956	483.398	81.2641	483.398	81.9786	483.398	79.6369	483.398	80.7732	483.398	78.55	483.398	79.8809	483.398	78.7501	483.398	79.7881	483.398	79.8847	483.398	80.449	483.398	81.0742	483.398	81.3198	483.398	81.8747	483.398	81.9602	483.398	82.1693
499.512	87.8436	499.512	87.7051	499.512	87.8132	499.512	87.422	499.512	87.6035	499.512	87.0315	499.512	87.2196	499.512	86.5807	499.512	86.6859	499.512	86.1155	499.512	86.0455	499.512	85.6601	499.512	85.3488	499.512	85.1986	499.512	84.6309	499.512	84.673	499.512	83.8881	499.512	83.9981	499.512	83.0728	499.512	83.0842	499.512	82.1189	499.512	81.8715	499.512	80.9981	499.512	80.4126	499.512	79.8209	499.512	79.0785	499.512	78.9596	499.512	78.6414	499.512	78.9061	499.512	79.3655	499.512	79.6494	499.512	80.4896	499.512	80.6327	499.512	81.327	499.512	81.3709	499.512	81.6302
517.09	88.2061	517.09	88.1181	517.09	88.1183	517.09	87.8513	517.09	87.88	517.09	87.4322	517.09	87.5307	517.09	86.9164	517.09	87.1143	517.09	86.377	517.09	86.6668	517.09	85.8728	517.09	86.2033	517.09	85.4111	517.09	85.706	517.09	84.931	517.09	85.1226	517.09	84.324	517.09	84.3756	517.09	83.4721	517.09	83.3797	517.09	82.2847	517.09	82.0687	517.09	80.7619	517.09	80.4603	517.09	79.1741	517.09	78.844	517.09	78.2919	517.09	78.0023	517.09	78.7039	517.09	78.4892	517.09	79.7667	517.09	79.6234	517.09	80.6217	517.09	80.5488	517.09	80.9079
536.133	87.8378	536.133	87.7411	536.133	87.7493	536.133	87.4692	536.133	87.4759	536.133	87.041	536.133	87.0338	536.133	86.4877	536.133	86.4612	536.133	85.857	536.133	85.8176	536.133	85.209	536.133	85.1682	536.133	84.596	536.133	84.5528	536.133	84.0291	536.133	83.959	536.133	83.4581	536.133	83.3237	536.133	82.7894	536.133	82.5677	536.133	81.9384	536.133	81.6493	536.133	80.9027	536.133	80.632	536.133	79.8675	536.133	79.7634	536.133	79.2661	536.133	79.4249	536.133	79.4438	536.133	79.7539	536.133	80.1435	536.133	80.4144	536.133	80.8158	536.133	80.9586	536.133	81.1193
555.176	88.2173	555.176	88.1835	555.176	88.1368	555.176	88.0158	555.176	87.9541	555.176	87.6957	555.176	87.6702	555.176	87.2155	555.176	87.2786	555.176	86.5868	555.176	86.7726	555.176	85.8438	555.176	86.1498	555.176	85.0362	555.176	85.4087	555.176	84.207	555.176	84.536	555.176	83.3589	555.176	83.4945	555.176	82.436	555.176	82.2248	555.176	81.341	555.176	80.6745	555.176	80.0109	555.176	78.8996	555.176	78.5977	555.176	77.3177	555.176	77.7124	555.176	76.8164	555.176	77.9729	555.176	77.6313	555.176	78.9366	555.176	78.8515	555.176	79.7692	555.176	79.7498	555.176	80.0717
574.219	88.2173	574.219	88.1106	574.219	88.1763	574.219	87.8839	574.219	87.9729	574.219	87.5731	574.219	87.6114	574.219	87.2137	574.219	87.1201	574.219	86.826	574.219	86.5495	574.219	86.3969	574.219	85.9544	574.219	85.872	574.219	85.3621	574.219	85.1672	574.219	84.7436	574.219	84.1914	574.219	84.0099	574.219	82.8734	574.219	83.0351	574.219	81.2021	574.219	81.6965	574.219	79.353	574.219	79.9493	574.219	77.9809	574.219	78.0674	574.219	77.9992	574.219	77.0741	574.219	79.1316	574.219	77.8109	574.219	80.3318	574.219	79.3084	574.219	81.0474	574.219	80.5218	574.219	81.1199
594.727	87.7465	594.727	87.6915	594.727	87.6334	594.727	87.4512	594.727	87.3801	594.727	87.0315	594.727	87.0217	594.727	86.4827	594.727	86.6043	594.727	85.9149	594.727	86.1857	594.727	85.4678	594.727	85.8152	594.727	85.2132	594.727	85.4925	594.727	85.0781	594.727	85.1463	594.727	84.8846	594.727	84.6582	594.727	84.439	594.727	83.901	594.727	83.584	594.727	82.7662	594.727	82.2353	594.727	81.2172	594.727	80.4859	594.727	79.4806	594.727	78.8781	594.727	78.3758	594.727	78.3999	594.727	78.6692	594.727	79.1337	594.727	79.6842	594.727	80.0862	594.727	80.4491	594.727	80.5934
615.234	88.3249	615.234	88.2016	615.234	88.2732	615.234	87.9084	615.234	88.0389	615.234	87.4538	615.234	87.6215	615.234	86.8635	615.234	87.0446	615.234	86.1893	615.234	86.369	615.234	85.4984	615.234	85.6828	615.234	84.8391	615.234	85.0601	615.234	84.1991	615.234	84.5054	615.234	83.4957	615.234	83.9306	615.234	82.6096	615.234	83.1863	615.234	81.4441	615.234	82.1214	615.234	80.0149	615.234	80.6494	615.234	78.645	615.234	78.9077	615.234	78.1064	615.234	77.6454	615.234	78.7839	615.234	77.9199	615.234	79.9325	615.234	79.244	615.234	80.7677	615.234	80.4247	615.234	80.9606
637.207	88.0765	637.207	87.9221	637.207	88.0293	637.207	87.5847	637.207	87.7584	637.207	87.0762	637.207	87.2595	637.207	86.4218	637.207	86.5672	637.207	85.6924	637.207	85.7704	637.207	85.0085	637.207	85.0088	637.207	84.4813	637.207	84.417	637.207	84.1157	637.207	84.0202	637.207	83.7799	637.207	83.6911	637.207	83.281	637.207	83.2259	637.207	82.4646	637.207	82.4423	637.207	81.3129	637.207	81.2454	637.207	80.1268	637.207	79.7563	637.207	79.6688	637.207	78.6309	637.207	80.3602	637.207	78.8749	637.207	81.4812	637.207	80.2274	637.207	82.2303	637.207	81.5576	637.207	82.2752
659.18	88.9373	659.18	88.9092	659.18	88.7898	659.18	88.6694	659.18	88.4722	659.18	88.1744	659.18	87.9622	659.18	87.4049	659.18	87.2405	659.18	86.3927	659.18	86.3333	659.18	85.2374	659.18	85.3409	659.18	84.1035	659.18	84.4159	659.18	83.1585	659.18	83.6662	659.18	82.4382	659.18	83.0365	659.18	81.7693	659.18	82.2977	659.18	80.8642	659.18	81.1479	659.18	79.4972	659.18	79.3291	659.18	77.7961	659.18	76.8991	659.18	76.8672	659.18	75.3568	659.18	77.8735	659.18	76.7471	659.18	79.6185	659.18	79.0379	659.18	80.839	659.18	80.5953	659.18	81.1882
682.617	88.5583	682.617	88.4974	682.617	88.4725	682.617	88.285	682.617	88.2038	682.617	87.8822	682.617	87.6961	682.617	87.2461	682.617	86.9144	682.617	86.3721	682.617	85.8891	682.617	85.3462	682.617	84.7535	682.617	84.3648	682.617	83.7413	682.617	83.6281	682.617	83.0686	682.617	83.1262	682.617	82.715	682.617	82.5965	682.617	82.3876	682.617	81.7	682.617	81.7352	682.617	80.167	682.617	80.5055	682.617	77.9308	682.617	78.6142	682.617	75.7732	682.617	76.509	682.617	75.8685	682.617	75.9034	682.617	77.6957	682.617	77.339	682.617	79.1173	682.617	78.8709	682.617	79.5232
707.52	88.3374	707.52	88.267	707.52	88.2737	707.52	88.0146	707.52	88.0765	707.52	87.5249	707.52	87.6969	707.52	86.7818	707.52	87.0741	707.52	85.8358	707.52	86.1863	707.52	84.8037	707.52	85.0963	707.52	83.8415	707.52	83.9771	707.52	83.0781	707.52	83.0655	707.52	82.5093	707.52	82.4733	707.52	81.9518	707.52	82.0264	707.52	81.133	707.52	81.3812	707.52	79.8232	707.52	80.2458	707.52	78.0272	707.52	78.5276	707.52	76.5255	707.52	76.6799	707.52	76.794	707.52	76.2063	707.52	78.2841	707.52	77.551	707.52	79.4561	707.52	79.0424	707.52	79.7388
732.422	88.3236	732.422	88.1957	732.422	88.2747	732.422	87.9133	732.422	88.0195	732.422	87.4722	732.422	87.5459	732.422	86.8434	732.422	86.8691	732.422	86.003	732.422	86.0275	732.422	84.9794	732.422	85.0777	732.422	83.8846	732.422	84.0965	732.422	82.8821	732.422	83.1713	732.422	82.0601	732.422	82.3449	732.422	81.3066	732.422	81.5365	732.422	80.3525	732.422	80.5338	732.422	78.9522	732.422	79.1199	732.422	77.1576	732.422	77.3599	732.422	75.9031	732.422	76.158	732.422	76.5849	732.422	76.7687	732.422	78.3435	732.422	78.405	732.422	79.7042	732.422	79.7098	732.422	80.1805
757.324	88.4381	757.324	88.3185	757.324	88.4187	757.324	88.0405	757.324	88.2377	757.324	87.5556	757.324	87.8402	757.324	86.8135	757.324	87.1741	757.324	85.7985	757.324	86.2315	757.324	84.5765	757.324	85.08	757.324	83.3435	757.324	83.8796	757.324	82.3992	757.324	82.8579	757.324	81.9048	757.324	82.1757	757.324	81.6134	757.324	81.7538	757.324	81.0315	757.324	81.2889	757.324	79.7521	757.324	80.417	757.324	77.6945	757.324	78.8561	757.324	75.7896	757.324	76.7592	757.324	76.0963	757.324	75.6911	757.324	77.8069	757.324	76.9031	757.324	79.0347	757.324	78.4991	757.324	79.2768
785.156	88.4766	785.156	88.375	785.156	88.3789	785.156	88.0939	785.156	88.0943	785.156	87.6656	785.156	87.6404	785.156	87.0865	785.156	87.0056	785.156	86.2913	785.156	86.1614	785.156	85.2037	785.156	85.1183	785.156	83.8529	785.156	83.9735	785.156	82.4707	785.156	82.8997	785.156	81.409	785.156	82.0107	785.156	80.7752	785.156	81.1841	785.156	80.2234	785.156	80.1116	785.156	79.2528	785.156	78.5453	785.156	77.6087	785.156	76.623	785.156	75.9527	785.156	75.566	785.156	76.3431	785.156	76.7076	785.156	78.351	785.156	78.6615	785.156	79.93	785.156	80.0463	785.156	80.4992
811.523	88.5602	811.523	88.3997	811.523	88.4608	811.523	88.0218	811.523	88.1017	811.523	87.4736	811.523	87.5244	811.523	86.7603	811.523	86.7728	811.523	85.8433	811.523	85.8538	811.523	84.6972	811.523	84.7428	811.523	83.4021	811.523	83.4557	811.523	82.2262	811.523	82.1726	811.523	81.5142	811.523	81.2814	811.523	81.2447	811.523	80.9849	811.523	80.9128	811.523	80.8349	811.523	79.9671	811.523	80.1208	811.523	78.0752	811.523	78.3817	811.523	75.5858	811.523	75.7908	811.523	75.0319	811.523	74.5259	811.523	77.0715	811.523	76.2747	811.523	78.7563	811.523	78.2742	811.523	79.1701
840.82	88.4216	840.82	88.3238	840.82	88.3218	840.82	88.0502	840.82	88.0416	840.82	87.638	840.82	87.6113	840.82	87.0819	840.82	87.031	840.82	86.3053	840.82	86.2527	840.82	85.2016	840.82	85.1953	840.82	83.7227	840.82	83.8005	840.82	81.9666	840.82	82.1505	840.82	80.2636	840.82	80.5788	840.82	79.1098	840.82	79.5056	840.82	78.547	840.82	78.9197	840.82	77.9127	840.82	78.3108	840.82	76.6768	840.82	77.2377	840.82	75.2123	840.82	75.9932	840.82	75.4313	840.82	76.1146	840.82	77.6143	840.82	77.9057	840.82	79.5141	840.82	79.5823	840.82	80.1973
870.117	87.8168	870.117	87.718	870.117	87.6947	870.117	87.4491	870.117	87.3612	870.117	87.0662	870.117	86.8872	870.117	86.5755	870.117	86.3324	870.117	85.9248	870.117	85.663	870.117	85.0381	870.117	84.7602	870.117	83.8621	870.117	83.53	870.117	82.4354	870.117	82.0354	870.117	80.9988	870.117	80.5732	870.117	79.9325	870.117	79.5044	870.117	79.2376	870.117	78.7555	870.117	78.34	870.117	77.7764	870.117	76.6768	870.117	76.1843	870.117	74.5171	870.117	74.5868	870.117	74.3653	870.117	74.9398	870.117	76.5933	870.117	76.8851	870.117	78.3957	870.117	78.4604	870.117	79.0105
900.879	87.4509	900.879	87.267	900.879	87.3989	900.879	86.9353	900.879	87.0829	900.879	86.5313	900.879	86.558	900.879	86.0481	900.879	85.9155	900.879	85.3877	900.879	85.1873	900.879	84.4252	900.879	84.2902	900.879	83.1065	900.879	83.0973	900.879	81.5532	900.879	81.6115	900.879	80.1463	900.879	80.1275	900.879	79.3298	900.879	79.117	900.879	78.9458	900.879	78.5962	900.879	78.215	900.879	77.8605	900.879	76.448	900.879	76.0741	900.879	73.6063	900.879	72.9135	900.879	72.4568	900.879	71.5545	900.879	74.9814	900.879	74.6634	900.879	77.2078	900.879	77.135	900.879	77.9525
933.105	86.7481	933.105	86.5529	933.105	86.7302	933.105	86.1893	933.105	86.4605	933.105	85.6597	933.105	85.9775	933.105	84.9766	933.105	85.372	933.105	84.229	933.105	84.6711	933.105	83.5192	933.105	83.79	933.105	82.7957	933.105	82.6298	933.105	81.8171	933.105	81.2132	933.105	80.3328	933.105	79.7253	933.105	78.3739	933.105	78.4057	933.105	76.5557	933.105	77.2663	933.105	75.6012	933.105	75.9345	933.105	75.0384	933.105	74.0553	933.105	74.0458	933.105	72.1081	933.105	73.6329	933.105	72.4253	933.105	75.6267	933.105	75.1292	933.105	77.754	933.105	77.463	933.105	78.4108
965.332	85.4326	965.332	85.3147	965.332	85.2994	965.332	84.9435	965.332	84.9395	965.332	84.3778	965.332	84.3795	965.332	83.7318	965.332	83.6513	965.332	83.0537	965.332	82.7886	965.332	82.2252	965.332	81.8008	965.332	81.0667	965.332	80.6851	965.332	79.5609	965.332	79.4516	965.332	78.0438	965.332	78.1602	965.332	77.0834	965.332	77.0476	965.332	76.6335	965.332	76.334	965.332	75.8523	965.332	75.7696	965.332	74.1251	965.332	74.7783	965.332	71.9615	965.332	72.9675	965.332	72.2776	965.332	71.9547	965.332	74.9016	965.332	74.2435	965.332	76.8659	965.332	76.6044	965.332	77.4735
1,000.49	84.1972	1,000.49	83.9836	1,000.49	84.0896	1,000.49	83.5593	1,000.49	83.5581	1,000.49	82.9407	1,000.49	82.6723	1,000.49	82.1012	1,000.49	81.7154	1,000.49	81.0878	1,000.49	80.9388	1,000.49	80.0485	1,000.49	80.2265	1,000.49	79.1317	1,000.49	79.2151	1,000.49	78.333	1,000.49	77.7699	1,000.49	77.4353	1,000.49	76.2786	1,000.49	76.271	1,000.49	75.4525	1,000.49	75.0434	1,000.49	75.3396	1,000.49	74.0298	1,000.49	74.9688	1,000.49	73.0463	1,000.49	73.5403	1,000.49	71.9207	1,000.49	71.2275	1,000.49	72.051	1,000.49	70.7359	1,000.49	74.3847	1,000.49	73.4487	1,000.49	76.4124	1,000.49	75.9099	1,000.49	76.9459
1,035.64	82.8427	1,035.64	82.8386	1,035.64	82.634	1,035.64	82.5754	1,035.64	82.1349	1,035.64	81.9246	1,035.64	81.3019	1,035.64	80.8931	1,035.64	80.2578	1,035.64	79.7388	1,035.64	79.2328	1,035.64	78.7443	1,035.64	78.3224	1,035.64	77.8603	1,035.64	77.3993	1,035.64	76.8001	1,035.64	76.2384	1,035.64	75.5	1,035.64	74.5745	1,035.64	74.2919	1,035.64	72.6029	1,035.64	73.3923	1,035.64	71.4252	1,035.64	72.29	1,035.64	71.14	1,035.64	70.1499	1,035.64	70.1644	1,035.64	68.3748	1,035.64	67.3564	1,035.64	71.1287	1,035.64	67.7214	1,035.64	74.2172	1,035.64	72.249	1,035.64	75.751	1,035.64	74.9067	1,035.64	75.9447
1,072.27	82.0625	1,072.27	81.623	1,072.27	82.0965	1,072.27	80.9305	1,072.27	81.6261	1,072.27	80.1292	1,072.27	80.6761	1,072.27	79.3686	1,072.27	79.4824	1,072.27	78.757	1,072.27	78.4463	1,072.27	78.2068	1,072.27	77.7656	1,072.27	77.4705	1,072.27	77.1323	1,072.27	76.3167	1,072.27	76.1052	1,072.27	74.8788	1,072.27	74.6306	1,072.27	73.7283	1,072.27	73.0852	1,072.27	73.1583	1,072.27	72.3154	1,072.27	72.6183	1,072.27	72.7558	1,072.27	71.3353	1,072.27	73.1809	1,072.27	69.6431	1,072.27	72.5147	1,072.27	70.3132	1,072.27	71.4011	1,072.27	73.0557	1,072.27	72.6736	1,072.27	75.1987	1,072.27	74.9763	1,072.27	75.9175
1,108.89	82.6093	1,108.89	82.3293	1,108.89	82.5142	1,108.89	81.7726	1,108.89	81.9069	1,108.89	80.7808	1,108.89	80.8861	1,108.89	79.2132	1,108.89	79.6864	1,108.89	77.4614	1,108.89	78.4086	1,108.89	76.3437	1,108.89	77.0953	1,108.89	75.9042	1,108.89	76.0641	1,108.89	75.296	1,108.89	75.5418	1,108.89	74.101	1,108.89	74.9808	1,108.89	72.9056	1,108.89	73.6754	1,108.89	72.6919	1,108.89	71.9439	1,108.89	72.9716	1,108.89	71.0283	1,108.89	72.3665	1,108.89	70.9709	1,108.89	70.2108	1,108.89	70.6591	1,108.89	69.4118	1,108.89	70.8698	1,108.89	73.3364	1,108.89	72.8488	1,108.89	75.9576	1,108.89	75.0417	1,108.89	76.3144
1,148.44	83.9793	1,148.44	83.8709	1,148.44	83.6974	1,148.44	83.3341	1,148.44	83.1188	1,148.44	82.3431	1,148.44	82.323	1,148.44	80.9389	1,148.44	81.2207	1,148.44	79.351	1,148.44	79.6183	1,148.44	77.9353	1,148.44	77.6511	1,148.44	76.947	1,148.44	76.158	1,148.44	76.2428	1,148.44	75.6075	1,148.44	75.1386	1,148.44	75.0123	1,148.44	73.1624	1,148.44	73.9185	1,148.44	71.2408	1,148.44	73.2935	1,148.44	71.2814	1,148.44	73.4648	1,148.44	71.7086	1,148.44	72.8635	1,148.44	70.3435	1,148.44	70.6571	1,148.44	69.9959	1,148.44	69.7282	1,148.44	74.1468	1,148.44	73.1884	1,148.44	76.8542	1,148.44	76.1427	1,148.44	77.3923
1,189.45	86.0336	1,189.45	85.5961	1,189.45	86.0187	1,189.45	85.0966	1,189.45	85.4045	1,189.45	84.5497	1,189.45	84.472	1,189.45	83.5645	1,189.45	83.5016	1,189.45	82.0233	1,189.45	82.3651	1,189.45	80.4187	1,189.45	80.8997	1,189.45	79.3245	1,189.45	79.5126	1,189.45	78.4903	1,189.45	78.6964	1,189.45	77.1431	1,189.45	77.9649	1,189.45	75.046	1,189.45	76.4998	1,189.45	73.4463	1,189.45	74.6709	1,189.45	74.2537	1,189.45	73.9089	1,189.45	74.7997	1,189.45	73.695	1,189.45	72.4403	1,189.45	72.4865	1,189.45	68.2078	1,189.45	71.3902	1,189.45	73.5695	1,189.45	74.3221	1,189.45	77.2838	1,189.45	77.2014	1,189.45	78.2366
1,230.47	87.3851	1,230.47	87.2774	1,230.47	87.1337	1,230.47	86.7884	1,230.47	86.5568	1,230.47	85.944	1,230.47	85.6867	1,230.47	84.8365	1,230.47	84.5206	1,230.47	83.5474	1,230.47	83.0902	1,230.47	82.1835	1,230.47	81.6314	1,230.47	81.008	1,230.47	80.5951	1,230.47	80.1915	1,230.47	79.9484	1,230.47	79.3236	1,230.47	78.8591	1,230.47	77.7235	1,230.47	76.7078	1,230.47	75.7321	1,230.47	74.7974	1,230.47	75.8943	1,230.47	75.7807	1,230.47	76.8571	1,230.47	76.5508	1,230.47	75.9256	1,230.47	75.0077	1,230.47	73.3864	1,230.47	72.4293	1,230.47	75.5621	1,230.47	74.8419	1,230.47	78.599	1,230.47	77.9421	1,230.47	79.2229
1,274.41	86.8602	1,274.41	86.8481	1,274.41	86.6684	1,274.41	86.5821	1,274.41	86.2142	1,274.41	85.9028	1,274.41	85.4705	1,274.41	84.783	1,274.41	84.4384	1,274.41	83.3914	1,274.41	83.1214	1,274.41	81.959	1,274.41	81.5621	1,274.41	80.7614	1,274.41	80.1601	1,274.41	80.0094	1,274.41	79.5012	1,274.41	79.2862	1,274.41	78.83	1,274.41	77.7375	1,274.41	76.9399	1,274.41	75.0878	1,274.41	74.2102	1,274.41	73.9325	1,274.41	74.3936	1,274.41	75.1422	1,274.41	75.3549	1,274.41	75.0588	1,274.41	74.4329	1,274.41	73.8277	1,274.41	72.9001	1,274.41	75.8022	1,274.41	74.8645	1,274.41	78.4358	1,274.41	77.7633	1,274.41	79.0669
1,319.82	86.6605	1,319.82	86.5542	1,319.82	86.5175	1,319.82	86.2277	1,319.82	85.9981	1,319.82	85.5559	1,319.82	85.0698	1,319.82	84.4195	1,319.82	83.8758	1,319.82	82.9586	1,319.82	82.3923	1,319.82	81.3457	1,319.82	80.3527	1,319.82	79.5405	1,319.82	78.1283	1,319.82	78.0657	1,319.82	77.4549	1,319.82	77.6648	1,319.82	77.9319	1,319.82	77.2956	1,319.82	77.1648	1,319.82	75.769	1,319.82	74.4811	1,319.82	74.6293	1,319.82	73.1942	1,319.82	75.5207	1,319.82	74.5208	1,319.82	75.7796	1,319.82	73.9035	1,319.82	74.782	1,319.82	72.2376	1,319.82	75.4908	1,319.82	73.738	1,319.82	77.6212	1,319.82	76.6523	1,319.82	78.1267
1,366.7	85.9992	1,366.7	85.6536	1,366.7	86.0462	1,366.7	85.0555	1,366.7	85.4787	1,366.7	84.011	1,366.7	84.2745	1,366.7	82.5473	1,366.7	82.9075	1,366.7	80.7832	1,366.7	81.714	1,366.7	78.8623	1,366.7	80.2819	1,366.7	77.5834	1,366.7	78.1702	1,366.7	76.8571	1,366.7	76.28	1,366.7	75.5585	1,366.7	75.9144	1,366.7	73.8866	1,366.7	75.1116	1,366.7	72.9703	1,366.7	72.4394	1,366.7	72.672	1,366.7	72.3453	1,366.7	74.3632	1,366.7	74.59	1,366.7	75.6921	1,366.7	74.8723	1,366.7	75.272	1,366.7	74.2801	1,366.7	76.4256	1,366.7	75.5954	1,366.7	78.7073	1,366.7	77.6743	1,366.7	78.9642
1,413.57	86.0954	1,413.57	85.8442	1,413.57	85.8825	1,413.57	85.2693	1,413.57	85.191	1,413.57	84.2988	1,413.57	84.3132	1,413.57	82.8555	1,413.57	83.2554	1,413.57	80.9542	1,413.57	81.7452	1,413.57	78.7545	1,413.57	80.0326	1,413.57	76.9379	1,413.57	78.221	1,413.57	76.319	1,413.57	75.968	1,413.57	75.9613	1,413.57	74.7042	1,413.57	74.4561	1,413.57	74.5064	1,413.57	70.5454	1,413.57	71.7691	1,413.57	69.1266	1,413.57	66.9308	1,413.57	71.9074	1,413.57	71.07	1,413.57	71.3163	1,413.57	72.7775	1,413.57	71.3188	1,413.57	72.1568	1,413.57	74.8063	1,413.57	73.4435	1,413.57	77.1143	1,413.57	76.1156	1,413.57	77.5247
1,463.38	86.2372	1,463.38	85.981	1,463.38	85.8961	1,463.38	85.0446	1,463.38	85.4265	1,463.38	83.9089	1,463.38	84.9355	1,463.38	82.631	1,463.38	84.0406	1,463.38	80.9068	1,463.38	82.4366	1,463.38	79.3001	1,463.38	80.4296	1,463.38	77.5591	1,463.38	78.6467	1,463.38	74.9127	1,463.38	77.2912	1,463.38	75.0997	1,463.38	76.3137	1,463.38	76.1288	1,463.38	75.4223	1,463.38	73.8765	1,463.38	73.6674	1,463.38	66.6744	1,463.38	71.0616	1,463.38	67.7053	1,463.38	71.5062	1,463.38	70.0576	1,463.38	73.0719	1,463.38	70.1335	1,463.38	73.5127	1,463.38	73.9395	1,463.38	73.9921	1,463.38	77.1692	1,463.38	76.012	1,463.38	77.8147
1,516.11	87.3132	1,516.11	87.2005	1,516.11	87.2927	1,516.11	86.6286	1,516.11	86.8835	1,516.11	85.6618	1,516.11	85.5515	1,516.11	84.2633	1,516.11	83.9159	1,516.11	82.2297	1,516.11	82.6715	1,516.11	80.306	1,516.11	80.9665	1,516.11	78.4606	1,516.11	78.7891	1,516.11	75.4914	1,516.11	77.4786	1,516.11	74.1927	1,516.11	76.8891	1,516.11	75.9652	1,516.11	77.0147	1,516.11	75.3771	1,516.11	77.2122	1,516.11	72.2613	1,516.11	75.5518	1,516.11	74.3487	1,516.11	74.2158	1,516.11	76.0211	1,516.11	75.2614	1,516.11	73.1992	1,516.11	74.858	1,516.11	72.0822	1,516.11	73.9754	1,516.11	75.8707	1,516.11	75.2322	1,516.11	76.5731
1,568.85	87.1718	1,568.85	87.3379	1,568.85	86.7073	1,568.85	86.8677	1,568.85	86.5174	1,568.85	85.8687	1,568.85	85.664	1,568.85	84.5152	1,568.85	83.9408	1,568.85	83.2717	1,568.85	82.5363	1,568.85	81.8131	1,568.85	81.0049	1,568.85	80.14	1,568.85	78.6314	1,568.85	78.276	1,568.85	77.3297	1,568.85	76.469	1,568.85	77.4324	1,568.85	75.6886	1,568.85	76.391	1,568.85	73.9559	1,568.85	75.0023	1,568.85	71.948	1,568.85	73.7202	1,568.85	72.1942	1,568.85	73.5772	1,568.85	71.5991	1,568.85	75.1599	1,568.85	70.5334	1,568.85	75.6635	1,568.85	71.6289	1,568.85	75.787	1,568.85	76.7268	1,568.85	77.713	1,568.85	78.9495
1,624.51	86.6788	1,624.51	86.391	1,624.51	86.2689	1,624.51	85.6061	1,624.51	85.4523	1,624.51	84.676	1,624.51	84.0499	1,624.51	83.5045	1,624.51	82.3864	1,624.51	82.064	1,624.51	81.1313	1,624.51	80.5745	1,624.51	79.3238	1,624.51	78.694	1,624.51	76.9275	1,624.51	76.2369	1,624.51	75.0691	1,624.51	74.7218	1,624.51	74.0688	1,624.51	75.1317	1,624.51	73.9976	1,624.51	75.2813	1,624.51	73.9386	1,624.51	72.9712	1,624.51	72.2971	1,624.51	72.0257	1,624.51	72.6971	1,624.51	75.22	1,624.51	74.852	1,624.51	74.5548	1,624.51	75.1423	1,624.51	72.7086	1,624.51	74.1673	1,624.51	76.7544	1,624.51	76.2947	1,624.51	78.0256
1,681.64	85.7484	1,681.64	85.4373	1,681.64	85.5166	1,681.64	84.9016	1,681.64	84.682	1,681.64	83.8382	1,681.64	83.5645	1,681.64	82.2612	1,681.64	82.0643	1,681.64	80.4063	1,681.64	80.0696	1,681.64	78.5721	1,681.64	77.9784	1,681.64	77.4734	1,681.64	76.429	1,681.64	75.9299	1,681.64	73.8729	1,681.64	74.1996	1,681.64	71.4474	1,681.64	74.7898	1,681.64	73.2344	1,681.64	74.0811	1,681.64	72.786	1,681.64	72.1925	1,681.64	71.3602	1,681.64	73.4316	1,681.64	73.2265	1,681.64	74.9133	1,681.64	73.7758	1,681.64	74.2963	1,681.64	72.8097	1,681.64	73.5317	1,681.64	71.7657	1,681.64	76.0793	1,681.64	74.1478	1,681.64	76.8034
1,741.7	85.5274	1,741.7	85.1169	1,741.7	85.309	1,741.7	84.1168	1,741.7	84.6132	1,741.7	83.1171	1,741.7	83.4892	1,741.7	81.6469	1,741.7	81.975	1,741.7	79.6716	1,741.7	80.2826	1,741.7	77.9854	1,741.7	78.2543	1,741.7	75.7196	1,741.7	75.3777	1,741.7	73.8141	1,741.7	73.8437	1,741.7	72.7455	1,741.7	72.7248	1,741.7	72.138	1,741.7	71.4977	1,741.7	72.4202	1,741.7	73.0121	1,741.7	72.313	1,741.7	71.2932	1,741.7	73.5538	1,741.7	70.7098	1,741.7	74.9184	1,741.7	73.9913	1,741.7	74.5153	1,741.7	73.7739	1,741.7	73.7621	1,741.7	72.4441	1,741.7	74.4923	1,741.7	73.6359	1,741.7	75.0617
1,803.22	85.6959	1,803.22	85.2203	1,803.22	85.5138	1,803.22	84.378	1,803.22	84.7871	1,803.22	82.8558	1,803.22	83.6538	1,803.22	81.2945	1,803.22	82.0915	1,803.22	79.5095	1,803.22	80.2411	1,803.22	76.4993	1,803.22	78.3764	1,803.22	74.535	1,803.22	76.5665	1,803.22	72.8683	1,803.22	74.715	1,803.22	70.6566	1,803.22	72.8657	1,803.22	71.3179	1,803.22	72.0431	1,803.22	71.9494	1,803.22	72.7593	1,803.22	70.7672	1,803.22	72.2215	1,803.22	71.848	1,803.22	72.1811	1,803.22	73.6838	1,803.22	73.8229	1,803.22	71.7244	1,803.22	74.6527	1,803.22	71.7768	1,803.22	73.456	1,803.22	74.3354	1,803.22	74.6323	1,803.22	75.5863
1,866.21	86.0848	1,866.21	85.8489	1,866.21	85.7921	1,866.21	84.9735	1,866.21	84.9437	1,866.21	83.6896	1,866.21	83.4872	1,866.21	82.1232	1,866.21	81.9631	1,866.21	80.1729	1,866.21	79.9289	1,866.21	77.5177	1,866.21	77.9594	1,866.21	74.8786	1,866.21	75.8427	1,866.21	72.9102	1,866.21	73.0311	1,866.21	71.4299	1,866.21	72.9607	1,866.21	70.7648	1,866.21	72.1836	1,866.21	71.7349	1,866.21	72.7168	1,866.21	70.8203	1,866.21	71.9566	1,866.21	70.1808	1,866.21	71.8518	1,866.21	73.9594	1,866.21	74.3359	1,866.21	74.8029	1,866.21	73.9952	1,866.21	72.0065	1,866.21	73.9661	1,866.21	74.3511	1,866.21	73.5436	1,866.21	75.3805
1,932.13	85.2663	1,932.13	85.1115	1,932.13	84.7817	1,932.13	84.4608	1,932.13	84.0494	1,932.13	83.0802	1,932.13	82.6396	1,932.13	81.4176	1,932.13	80.7472	1,932.13	79.8649	1,932.13	78.7665	1,932.13	78.0657	1,932.13	76.4413	1,932.13	75.6392	1,932.13	75.0869	1,932.13	73.0713	1,932.13	72.2864	1,932.13	71.9182	1,932.13	69.94	1,932.13	71.5572	1,932.13	71.8586	1,932.13	72.1442	1,932.13	72.8365	1,932.13	71.5814	1,932.13	72.2427	1,932.13	70.9502	1,932.13	71.4443	1,932.13	71.8874	1,932.13	73.3381	1,932.13	71.9466	1,932.13	72.9545	1,932.13	73.0132	1,932.13	71.7156	1,932.13	72.6281	1,932.13	73.5315	1,932.13	73.6021
1,999.51	84.4465	1,999.51	84.2021	1,999.51	84.0463	1,999.51	83.3488	1,999.51	83.035	1,999.51	82.3601	1,999.51	81.7035	1,999.51	80.9324	1,999.51	79.9974	1,999.51	79.08	1,999.51	78.0204	1,999.51	77.6183	1,999.51	75.8507	1,999.51	76.0673	1,999.51	73.742	1,999.51	73.9809	1,999.51	71.1986	1,999.51	72.3974	1,999.51	69.2509	1,999.51	72.2947	1,999.51	70.916	1,999.51	72.5621	1,999.51	71.6326	1,999.51	71.7865	1,999.51	71.1619	1,999.51	70.582	1,999.51	69.3434	1,999.51	72.6819	1,999.51	71.1535	1,999.51	72.5073	1,999.51	73.01	1,999.51	71.0733	1,999.51	71.5151	1,999.51	72.04	1,999.51	72.2823	1,999.51	73.4168
2,069.82	83.7484	2,069.82	83.5145	2,069.82	83.5853	2,069.82	82.8371	2,069.82	82.8526	2,069.82	81.672	2,069.82	81.5574	2,069.82	79.8637	2,069.82	79.7607	2,069.82	78.2857	2,069.82	78.0324	2,069.82	76.6438	2,069.82	76.2379	2,069.82	75.265	2,069.82	74.3495	2,069.82	74.1312	2,069.82	73.1527	2,069.82	72.7375	2,069.82	71.8115	2,069.82	72.793	2,069.82	71.5809	2,069.82	73.0284	2,069.82	72.0413	2,069.82	72.8172	2,069.82	72.1224	2,069.82	71.0277	2,069.82	70.4079	2,069.82	72.5241	2,069.82	70.4476	2,069.82	73.7058	2,069.82	72.7057	2,069.82	72.4383	2,069.82	72.068	2,069.82	73.2707	2,069.82	71.4214	2,069.82	73.1246
2,143.07	84.9228	2,143.07	84.7239	2,143.07	84.6958	2,143.07	83.9383	2,143.07	83.9903	2,143.07	82.4363	2,143.07	82.7401	2,143.07	80.3878	2,143.07	81.1271	2,143.07	78.3002	2,143.07	79.1782	2,143.07	76.5416	2,143.07	77.5404	2,143.07	75.1862	2,143.07	76.0468	2,143.07	73.7135	2,143.07	74.0837	2,143.07	72.6228	2,143.07	73.0531	2,143.07	73.0536	2,143.07	72.8014	2,143.07	72.4669	2,143.07	73.4832	2,143.07	73.1118	2,143.07	73.6294	2,143.07	72.3528	2,143.07	72.4087	2,143.07	71.7939	2,143.07	72.2798	2,143.07	73.0839	2,143.07	72.7564	2,143.07	71.2045	2,143.07	72.6125	2,143.07	70.6174	2,143.07	72.1126	2,143.07	71.8268
2,219.24	85.3056	2,219.24	85.3198	2,219.24	84.878	2,219.24	84.7034	2,219.24	84.1758	2,219.24	83.7621	2,219.24	82.8355	2,219.24	82.0902	2,219.24	81.2642	2,219.24	79.8212	2,219.24	79.2041	2,219.24	78.0453	2,219.24	77.4876	2,219.24	76.2709	2,219.24	76.5169	2,219.24	74.3932	2,219.24	75.0083	2,219.24	73.3254	2,219.24	73.9974	2,219.24	72.5071	2,219.24	73.2539	2,219.24	72.8676	2,219.24	73.0477	2,219.24	73.0712	2,219.24	73.8302	2,219.24	73.0835	2,219.24	72.8542	2,219.24	73.0815	2,219.24	72.6496	2,219.24	74.001	2,219.24	73.2814	2,219.24	72.7955	2,219.24	72.1385	2,219.24	71.6787	2,219.24	70.5435	2,219.24	71.3121
2,296.88	83.8772	2,296.88	84.151	2,296.88	83.2719	2,296.88	83.8552	2,296.88	82.3474	2,296.88	83.0497	2,296.88	81.087	2,296.88	81.8857	2,296.88	79.3557	2,296.88	80.2031	2,296.88	77.5318	2,296.88	78.6223	2,296.88	75.4451	2,296.88	77.2912	2,296.88	74.7523	2,296.88	76.2234	2,296.88	73.5946	2,296.88	74.53	2,296.88	72.1988	2,296.88	73.8685	2,296.88	72.4948	2,296.88	74.0474	2,296.88	72.5	2,296.88	73.7142	2,296.88	72.206	2,296.88	72.9834	2,296.88	71.8095	2,296.88	72.2702	2,296.88	71.1791	2,296.88	72.4202	2,296.88	72.118	2,296.88	71.9828	2,296.88	70.4429	2,296.88	70.1715	2,296.88	69.4478	2,296.88	69.1997
2,378.91	82.1456	2,378.91	82.3026	2,378.91	81.6554	2,378.91	82.1598	2,378.91	80.761	2,378.91	81.8675	2,378.91	79.7333	2,378.91	80.9806	2,378.91	77.9625	2,378.91	79.3316	2,378.91	75.875	2,378.91	77.4207	2,378.91	73.6886	2,378.91	76.9069	2,378.91	72.9467	2,378.91	76.0206	2,378.91	72.4624	2,378.91	74.8208	2,378.91	70.7175	2,378.91	74.5219	2,378.91	71.1694	2,378.91	74.1016	2,378.91	70.9952	2,378.91	73.6475	2,378.91	70.0229	2,378.91	72.3615	2,378.91	69.8044	2,378.91	71.9985	2,378.91	69.2269	2,378.91	71.0739	2,378.91	70.4277	2,378.91	70.327	2,378.91	70.1683	2,378.91	69.5097	2,378.91	68.0396	2,378.91	68.6667
2,462.4	82.178	2,462.4	81.9938	2,462.4	82.0901	2,462.4	81.5642	2,462.4	81.2057	2,462.4	80.6167	2,462.4	80.0795	2,462.4	79.6424	2,462.4	78.4929	2,462.4	78.1907	2,462.4	76.4272	2,462.4	75.6467	2,462.4	74.3729	2,462.4	74.7503	2,462.4	73.2228	2,462.4	74.5323	2,462.4	73.1167	2,462.4	73.5937	2,462.4	72.1153	2,462.4	72.9455	2,462.4	71.5409	2,462.4	72.7344	2,462.4	70.5983	2,462.4	72.0277	2,462.4	70.9497	2,462.4	70.4814	2,462.4	69.9005	2,462.4	69.7868	2,462.4	69.9197	2,462.4	70.8736	2,462.4	69.6897	2,462.4	69.0692	2,462.4	70.881	2,462.4	67.71	2,462.4	70.0632	2,462.4	67.3223
2,548.83	83.6961	2,548.83	83.8073	2,548.83	83.2884	2,548.83	83.1542	2,548.83	82.6552	2,548.83	82.1964	2,548.83	81.1729	2,548.83	80.684	2,548.83	79.5534	2,548.83	79.4963	2,548.83	77.5239	2,548.83	78.2347	2,548.83	75.1954	2,548.83	76.0068	2,548.83	73.8547	2,548.83	75.6142	2,548.83	73.5456	2,548.83	73.95	2,548.83	72.914	2,548.83	73.0753	2,548.83	71.3775	2,548.83	72.88	2,548.83	71.8635	2,548.83	71.9456	2,548.83	71.7869	2,548.83	70.7213	2,548.83	70.7743	2,548.83	70.567	2,548.83	71.0327	2,548.83	71.3362	2,548.83	71.4723	2,548.83	69.2211	2,548.83	72.1866	2,548.83	69.635	2,548.83	71.1861	2,548.83	70.0819
2,639.65	83.856	2,639.65	83.5821	2,639.65	83.3338	2,639.65	83.0168	2,639.65	82.547	2,639.65	82.113	2,639.65	80.9402	2,639.65	80.585	2,639.65	79.1121	2,639.65	79.6356	2,639.65	77.1489	2,639.65	78.2663	2,639.65	75.3086	2,639.65	76.9542	2,639.65	73.1757	2,639.65	75.9758	2,639.65	73.0625	2,639.65	75.3918	2,639.65	71.4813	2,639.65	74.3081	2,639.65	71.1177	2,639.65	74.0157	2,639.65	71.7091	2,639.65	72.3334	2,639.65	71.6481	2,639.65	71.8931	2,639.65	70.9866	2,639.65	70.2659	2,639.65	70.6567	2,639.65	70.7487	2,639.65	71.8608	2,639.65	70.6576	2,639.65	71.7211	2,639.65	70.1814	2,639.65	71.1666	2,639.65	70.9455
2,731.93	82.9044	2,731.93	82.4282	2,731.93	82.9049	2,731.93	81.5714	2,731.93	81.999	2,731.93	80.0838	2,731.93	80.9095	2,731.93	79.3101	2,731.93	79.0141	2,731.93	77.9699	2,731.93	77.4403	2,731.93	76.5319	2,731.93	75.5057	2,731.93	75.5111	2,731.93	73.1324	2,731.93	75.3213	2,731.93	72.8683	2,731.93	74.8014	2,731.93	72.5677	2,731.93	73.6105	2,731.93	71.9407	2,731.93	72.7573	2,731.93	71.6938	2,731.93	71.9917	2,731.93	71.5629	2,731.93	70.8396	2,731.93	70.984	2,731.93	70.2552	2,731.93	70.5262	2,731.93	69.7123	2,731.93	71.3677	2,731.93	71.0555	2,731.93	70.9454	2,731.93	71.3294	2,731.93	70.8393	2,731.93	71.3757
2,828.61	82.89	2,828.61	82.2881	2,828.61	82.9166	2,828.61	80.9971	2,828.61	82.1803	2,828.61	79.3607	2,828.61	81.2375	2,828.61	78.1549	2,828.61	79.3742	2,828.61	76.874	2,828.61	77.8376	2,828.61	75.7763	2,828.61	76.5608	2,828.61	74.6189	2,828.61	74.6745	2,828.61	74.5761	2,828.61	73.7943	2,828.61	72.9141	2,828.61	73.6946	2,828.61	72.3302	2,828.61	73.063	2,828.61	72.1596	2,828.61	72.7572	2,828.61	71.7678	2,828.61	72.5501	2,828.61	69.6377	2,828.61	71.7042	2,828.61	69.8452	2,828.61	70.6983	2,828.61	70.0583	2,828.61	70.9389	2,828.61	71.1189	2,828.61	71.647	2,828.61	71.6262	2,828.61	71.2476	2,828.61	70.8755
2,928.22	83.6222	2,928.22	82.9686	2,928.22	83.3621	2,928.22	82.026	2,928.22	82.8219	2,928.22	80.4926	2,928.22	81.5635	2,928.22	78.2679	2,928.22	80.216	2,928.22	76.3686	2,928.22	78.2474	2,928.22	76.0836	2,928.22	77.3192	2,928.22	75.061	2,928.22	75.965	2,928.22	73.5284	2,928.22	74.8299	2,928.22	73.3989	2,928.22	74.7961	2,928.22	72.1707	2,928.22	74.0394	2,928.22	71.6852	2,928.22	73.2134	2,928.22	71.2887	2,928.22	73.2398	2,928.22	70.3681	2,928.22	71.8926	2,928.22	70.9033	2,928.22	71.4272	2,928.22	70.9945	2,928.22	70.6513	2,928.22	71.617	2,928.22	71.6428	2,928.22	71.0489	2,928.22	71.0583	2,928.22	71.0138
3,030.76	83.9779	3,030.76	83.5527	3,030.76	83.9512	3,030.76	82.6775	3,030.76	83.118	3,030.76	81.0657	3,030.76	82.0097	3,030.76	79.0073	3,030.76	80.4613	3,030.76	76.9677	3,030.76	78.7813	3,030.76	76.221	3,030.76	77.9753	3,030.76	74.6495	3,030.76	77.1431	3,030.76	73.25	3,030.76	75.8936	3,030.76	74.3695	3,030.76	75.4944	3,030.76	73.029	3,030.76	74.3246	3,030.76	72.4715	3,030.76	73.6332	3,030.76	71.5766	3,030.76	73.7795	3,030.76	71.2564	3,030.76	72.2188	3,030.76	70.7279	3,030.76	70.6355	3,030.76	70.5589	3,030.76	70.5889	3,030.76	71.7138	3,030.76	71.8971	3,030.76	72.4213	3,030.76	71.3086	3,030.76	72.8722
3,137.7	84.8924	3,137.7	84.629	3,137.7	84.5983	3,137.7	83.6848	3,137.7	83.7399	3,137.7	82.3046	3,137.7	82.4619	3,137.7	80.4651	3,137.7	80.9223	3,137.7	78.376	3,137.7	79.497	3,137.7	76.5276	3,137.7	78.449	3,137.7	75.929	3,137.7	77.8904	3,137.7	75.3608	3,137.7	76.4728	3,137.7	74.7092	3,137.7	76.2101	3,137.7	74.6089	3,137.7	75.5254	3,137.7	73.9087	3,137.7	74.6111	3,137.7	73.9501	3,137.7	74.1745	3,137.7	72.3054	3,137.7	72.9248	3,137.7	72.489	3,137.7	72.0836	3,137.7	71.3107	3,137.7	71.0047	3,137.7	72.1991	3,137.7	71.8943	3,137.7	73.3645	3,137.7	72.3576	3,137.7	73.7204
3,249.02	85.5281	3,249.02	85.294	3,249.02	85.2769	3,249.02	84.239	3,249.02	84.3635	3,249.02	82.6818	3,249.02	82.8845	3,249.02	81.1679	3,249.02	81.4225	3,249.02	79.2777	3,249.02	80.1199	3,249.02	77.8089	3,249.02	78.4872	3,249.02	76.9599	3,249.02	78.3716	3,249.02	76.1818	3,249.02	77.1598	3,249.02	75.06	3,249.02	76.4487	3,249.02	75.205	3,249.02	76.3462	3,249.02	74.738	3,249.02	74.8949	3,249.02	74.0874	3,249.02	74.0748	3,249.02	72.4082	3,249.02	73.4346	3,249.02	72.9554	3,249.02	72.3294	3,249.02	71.9329	3,249.02	71.5048	3,249.02	72.6906	3,249.02	72.0462	3,249.02	73.3291	3,249.02	72.8277	3,249.02	73.6441
3,363.28	85.975	3,363.28	85.8665	3,363.28	85.3048	3,363.28	84.9287	3,363.28	84.2463	3,363.28	83.4085	3,363.28	82.4567	3,363.28	81.5564	3,363.28	80.8635	3,363.28	79.7599	3,363.28	79.0952	3,363.28	77.9876	3,363.28	77.9127	3,363.28	77.46	3,363.28	77.1288	3,363.28	76.1555	3,363.28	76.6807	3,363.28	75.3909	3,363.28	75.7627	3,363.28	74.8897	3,363.28	75.2763	3,363.28	74.2023	3,363.28	73.3937	3,363.28	74.0357	3,363.28	73.2741	3,363.28	73.1714	3,363.28	72.1756	3,363.28	71.7173	3,363.28	70.9478	3,363.28	71.7565	3,363.28	71.0917	3,363.28	72.2932	3,363.28	72.3783	3,363.28	71.6983	3,363.28	73.1537	3,363.28	73.3225
3,481.93	86.544	3,481.93	86.3031	3,481.93	86.1472	3,481.93	85.3441	3,481.93	84.7025	3,481.93	83.9707	3,481.93	82.8743	3,481.93	82.3225	3,481.93	80.9534	3,481.93	80.6172	3,481.93	79.4093	3,481.93	78.8936	3,481.93	77.9203	3,481.93	78.0197	3,481.93	76.7832	3,481.93	76.6454	3,481.93	76.535	3,481.93	75.5835	3,481.93	75.1067	3,481.93	75.1322	3,481.93	74.7865	3,481.93	74.6088	3,481.93	73.8625	3,481.93	73.5146	3,481.93	72.697	3,481.93	73.247	3,481.93	71.6884	3,481.93	72.4187	3,481.93	71.4047	3,481.93	71.7445	3,481.93	71.5584	3,481.93	72.4003	3,481.93	71.9676	3,481.93	72.9799	3,481.93	73.042	3,481.93	73.8579
3,604.98	88.1871	3,604.98	87.6686	3,604.98	88.0362	3,604.98	86.473	3,604.98	86.5433	3,604.98	84.6774	3,604.98	84.6339	3,604.98	82.7787	3,604.98	82.4658	3,604.98	81.4965	3,604.98	81.2062	3,604.98	79.6478	3,604.98	79.7586	3,604.98	77.7596	3,604.98	78.5881	3,604.98	77.4188	3,604.98	78.2081	3,604.98	76.0825	3,604.98	76.3701	3,604.98	75.6764	3,604.98	76.2399	3,604.98	74.7905	3,604.98	75.3954	3,604.98	74.1088	3,604.98	74.1255	3,604.98	73.3576	3,604.98	73.7377	3,604.98	72.5612	3,604.98	73.638	3,604.98	71.5942	3,604.98	72.7959	3,604.98	72.6973	3,604.98	73.8798	3,604.98	73.4469	3,604.98	74.1518	3,604.98	74.4325
3,732.42	88.9288	3,732.42	88.9268	3,732.42	88.1029	3,732.42	87.7111	3,732.42	86.9441	3,732.42	86.2352	3,732.42	84.5025	3,732.42	84.6925	3,732.42	82.1571	3,732.42	83.3446	3,732.42	79.6041	3,732.42	81.2853	3,732.42	78.3224	3,732.42	79.7902	3,732.42	77.1959	3,732.42	78.5138	3,732.42	77.0236	3,732.42	77.4669	3,732.42	75.4107	3,732.42	76.4556	3,732.42	74.1586	3,732.42	75.4314	3,732.42	73.5418	3,732.42	74.3684	3,732.42	72.0942	3,732.42	74.0439	3,732.42	73.012	3,732.42	72.8095	3,732.42	71.652	3,732.42	73.011	3,732.42	73.1533	3,732.42	73.8804	3,732.42	73.6853	3,732.42	73.7724	3,732.42	74.3923	3,732.42	74.119
3,864.26	88.0802	3,864.26	87.8106	3,864.26	87.5926	3,864.26	86.6961	3,864.26	86.4699	3,864.26	85.0267	3,864.26	84.3673	3,864.26	83.3422	3,864.26	81.7499	3,864.26	81.537	3,864.26	78.9809	3,864.26	80.2334	3,864.26	78.3185	3,864.26	79.1299	3,864.26	77.3674	3,864.26	77.5612	3,864.26	75.3932	3,864.26	77.8562	3,864.26	74.5284	3,864.26	75.107	3,864.26	73.8582	3,864.26	73.9114	3,864.26	72.6128	3,864.26	73.4461	3,864.26	72.9009	3,864.26	72.2821	3,864.26	71.6212	3,864.26	71.7548	3,864.26	72.1082	3,864.26	72.8347	3,864.26	72.7626	3,864.26	73.6722	3,864.26	73.9088	3,864.26	73.032	3,864.26	73.0557	3,864.26	72.428
4,000.49	88.0997	4,000.49	87.3239	4,000.49	88.3877	4,000.49	86.3547	4,000.49	86.6723	4,000.49	84.242	4,000.49	84.7365	4,000.49	80.2703	4,000.49	81.7869	4,000.49	78.3406	4,000.49	79.4163	4,000.49	77.453	4,000.49	78.3927	4,000.49	75.9478	4,000.49	76.7339	4,000.49	76.0044	4,000.49	75.9361	4,000.49	73.8843	4,000.49	74.3848	4,000.49	72.9109	4,000.49	73.0053	4,000.49	72.8425	4,000.49	73.2759	4,000.49	72.3848	4,000.49	72.0149	4,000.49	72.0503	4,000.49	75.075	4,000.49	72.7079	4,000.49	73.3571	4,000.49	73.1072	4,000.49	74.2329	4,000.49	73.3496	4,000.49	74.211	4,000.49	74.0334	4,000.49	73.9027	4,000.49	72.5922
4,141.11	86.9058	4,141.11	86.9255	4,141.11	86.3816	4,141.11	85.3937	4,141.11	86.1448	4,141.11	83.2999	4,141.11	84.254	4,141.11	80.7675	4,141.11	82.106	4,141.11	78.3974	4,141.11	78.7053	4,141.11	75.774	4,141.11	75.5605	4,141.11	75.7009	4,141.11	74.4102	4,141.11	74.1187	4,141.11	73.3156	4,141.11	73.974	4,141.11	73.9017	4,141.11	72.9006	4,141.11	72.333	4,141.11	72.9887	4,141.11	72.9258	4,141.11	73.1383	4,141.11	74.1308	4,141.11	74.6744	4,141.11	73.332	4,141.11	74.743	4,141.11	74.1783	4,141.11	74.2811	4,141.11	73.3074	4,141.11	73.6581	4,141.11	73.7108	4,141.11	73.9202	4,141.11	73.948	4,141.11	72.3131
4,287.6	86.7454	4,287.6	86.2943	4,287.6	87.0357	4,287.6	85.4977	4,287.6	85.3976	4,287.6	83.5794	4,287.6	83.9034	4,287.6	80.466	4,287.6	80.4934	4,287.6	76.5892	4,287.6	76.8249	4,287.6	75.7753	4,287.6	76.3592	4,287.6	74.1365	4,287.6	74.1497	4,287.6	73.4001	4,287.6	75.2762	4,287.6	75.0204	4,287.6	73.6488	4,287.6	74.0343	4,287.6	73.9871	4,287.6	74.6222	4,287.6	74.5563	4,287.6	74.5294	4,287.6	74.3645	4,287.6	75.2551	4,287.6	75.9112	4,287.6	74.6211	4,287.6	75.261	4,287.6	74.2597	4,287.6	73.9548	4,287.6	73.2636	4,287.6	73.5985	4,287.6	73.4354	4,287.6	73.9872	4,287.6	72.5606
4,438.48	86.0864	4,438.48	85.661	4,438.48	85.9237	4,438.48	84.0432	4,438.48	84.9502	4,438.48	81.7445	4,438.48	82.4802	4,438.48	79.0476	4,438.48	80.8968	4,438.48	77.4477	4,438.48	79.0915	4,438.48	74.9552	4,438.48	75.9707	4,438.48	76.5073	4,438.48	76.6104	4,438.48	75.5318	4,438.48	74.6433	4,438.48	74.8743	4,438.48	75.312	4,438.48	74.3469	4,438.48	73.4239	4,438.48	74.1567	4,438.48	75.1153	4,438.48	74.4637	4,438.48	74.2074	4,438.48	75.9906	4,438.48	75.6199	4,438.48	74.8604	4,438.48	73.9773	4,438.48	74.4785	4,438.48	72.6641	4,438.48	73.7207	4,438.48	72.4625	4,438.48	73.1656	4,438.48	73.0013	4,438.48	73.5128
4,595.21	86.8061	4,595.21	86.8235	4,595.21	86.6977	4,595.21	85.8635	4,595.21	85.7371	4,595.21	84.2125	4,595.21	84.1767	4,595.21	82.157	4,595.21	81.6383	4,595.21	79.6421	4,595.21	78.975	4,595.21	77.6203	4,595.21	78.6496	4,595.21	76.3125	4,595.21	76.7354	4,595.21	75.3102	4,595.21	77.6013	4,595.21	75.2306	4,595.21	76.7848	4,595.21	75.1072	4,595.21	76.3172	4,595.21	75.3488	4,595.21	75.4559	4,595.21	75.4765	4,595.21	75.6952	4,595.21	75.9812	4,595.21	75.8249	4,595.21	75.3564	4,595.21	75.4262	4,595.21	73.2767	4,595.21	73.9402	4,595.21	73.8378	4,595.21	73.9357	4,595.21	73.1568	4,595.21	74.4028	4,595.21	74.4372
4,756.35	86.3026	4,756.35	86.1161	4,756.35	85.8765	4,756.35	85.3934	4,756.35	84.8051	4,756.35	84.389	4,756.35	82.7763	4,756.35	82.4855	4,756.35	81.1506	4,756.35	81.2002	4,756.35	78.7751	4,756.35	79.9035	4,756.35	78.1254	4,756.35	78.0337	4,756.35	78.1863	4,756.35	77.7681	4,756.35	76.7499	4,756.35	77.4893	4,756.35	76.4885	4,756.35	76.7047	4,756.35	75.0981	4,756.35	75.739	4,756.35	74.8926	4,756.35	76.0711	4,756.35	74.4211	4,756.35	76.8682	4,756.35	75.4427	4,756.35	75.6255	4,756.35	74.8041	4,756.35	74.4768	4,756.35	73.3958	4,756.35	73.788	4,756.35	73.4123	4,756.35	73.9056	4,756.35	73.1439	4,756.35	74.7795
4,924.8	86.9939	4,924.8	86.8441	4,924.8	86.6282	4,924.8	86.2226	4,924.8	85.4246	4,924.8	84.5696	4,924.8	84.2889	4,924.8	83.2486	4,924.8	82.4043	4,924.8	80.2312	4,924.8	80.1729	4,924.8	78.8567	4,924.8	79.1562	4,924.8	78.1061	4,924.8	77.7064	4,924.8	77.1071	4,924.8	78.1742	4,924.8	76.7298	4,924.8	77.076	4,924.8	74.3774	4,924.8	76.7917	4,924.8	75.7345	4,924.8	75.5633	4,924.8	75.0181	4,924.8	74.7673	4,924.8	75.5145	4,924.8	74.6874	4,924.8	74.8444	4,924.8	75.4704	4,924.8	72.5309	4,924.8	73.4944	4,924.8	73.1755	4,924.8	73.6771	4,924.8	73.4216	4,924.8	74.1825	4,924.8	74.1405
5,097.66	87.1109	5,097.66	87.219	5,097.66	86.6415	5,097.66	86.6415	5,097.66	86.0984	5,097.66	85.3324	5,097.66	84.3519	5,097.66	83.9502	5,097.66	83.0393	5,097.66	82.7507	5,097.66	80.6911	5,097.66	80.9619	5,097.66	79.0328	5,097.66	79.4117	5,097.66	78.1525	5,097.66	78.1617	5,097.66	76.6118	5,097.66	77.373	5,097.66	76.8633	5,097.66	77.3421	5,097.66	74.8041	5,097.66	75.104	5,097.66	74.7449	5,097.66	75.7546	5,097.66	74.2983	5,097.66	75.9359	5,097.66	74.8431	5,097.66	75.3412	5,097.66	75.0247	5,097.66	73.3911	5,097.66	74.0288	5,097.66	73.9617	5,097.66	74.2386	5,097.66	73.5342	5,097.66	73.5596	5,097.66	75.0784
5,277.83	87.204	5,277.83	86.7659	5,277.83	87.3047	5,277.83	85.8143	5,277.83	86.6117	5,277.83	84.0556	5,277.83	85.6267	5,277.83	82.778	5,277.83	83.6833	5,277.83	80.9913	5,277.83	81.5018	5,277.83	80.136	5,277.83	79.6497	5,277.83	79.9134	5,277.83	78.4139	5,277.83	78.2072	5,277.83	77.6871	5,277.83	77.1697	5,277.83	76.6706	5,277.83	75.1538	5,277.83	75.8099	5,277.83	76.0127	5,277.83	76.0879	5,277.83	75.3144	5,277.83	75.2516	5,277.83	75.3198	5,277.83	74.7274	5,277.83	74.6761	5,277.83	74.8028	5,277.83	72.964	5,277.83	73.1647	5,277.83	72.564	5,277.83	72.6796	5,277.83	74.0742	5,277.83	74.5317	5,277.83	74.5187
5,463.87	86.0285	5,463.87	85.8449	5,463.87	86.0839	5,463.87	85.2074	5,463.87	85.3928	5,463.87	84.256	5,463.87	84.1703	5,463.87	82.4249	5,463.87	82.9989	5,463.87	81.5954	5,463.87	81.0519	5,463.87	79.807	5,463.87	79.3627	5,463.87	77.6743	5,463.87	78.1196	5,463.87	76.4285	5,463.87	76.5462	5,463.87	75.4613	5,463.87	76.3601	5,463.87	76.244	5,463.87	75.1456	5,463.87	74.5561	5,463.87	75.0721	5,463.87	75.5469	5,463.87	74.369	5,463.87	75.1476	5,463.87	75.0593	5,463.87	74.7844	5,463.87	74.2412	5,463.87	73.4837	5,463.87	73.7193	5,463.87	72.8206	5,463.87	72.6815	5,463.87	72.87	5,463.87	73.0693	5,463.87	74.9791
5,657.23	87.0976	5,657.23	86.8719	5,657.23	87.1692	5,657.23	85.8217	5,657.23	86.2356	5,657.23	84.3193	5,657.23	85.2555	5,657.23	82.7606	5,657.23	83.3575	5,657.23	80.7278	5,657.23	81.4189	5,657.23	79.1097	5,657.23	80.025	5,657.23	78.0887	5,657.23	79.0322	5,657.23	77.1481	5,657.23	77.7052	5,657.23	75.0272	5,657.23	76.3784	5,657.23	75.4389	5,657.23	75.6273	5,657.23	74.6208	5,657.23	75.7465	5,657.23	75.2449	5,657.23	75.5983	5,657.23	75.0469	5,657.23	74.899	5,657.23	74.6266	5,657.23	74.8332	5,657.23	73.113	5,657.23	74.1821	5,657.23	71.9187	5,657.23	72.9662	5,657.23	74.1994	5,657.23	74.3901	5,657.23	74.9302
5,856.45	86.848	5,856.45	86.5221	5,856.45	86.7533	5,856.45	85.5994	5,856.45	85.7328	5,856.45	84.8551	5,856.45	84.7719	5,856.45	83.4229	5,856.45	83.4893	5,856.45	82.2816	5,856.45	81.8166	5,856.45	79.4209	5,856.45	79.7299	5,856.45	77.8534	5,856.45	77.9476	5,856.45	77.2333	5,856.45	76.5439	5,856.45	75.5727	5,856.45	76.6206	5,856.45	76.4532	5,856.45	75.4687	5,856.45	75.3345	5,856.45	75.5446	5,856.45	75.7009	5,856.45	75.3071	5,856.45	75.5969	5,856.45	75.3097	5,856.45	75.3253	5,856.45	75.5985	5,856.45	74.4281	5,856.45	74.735	5,856.45	72.5554	5,856.45	72.8303	5,856.45	74.0081	5,856.45	73.6242	5,856.45	75.3196
6,062.99	87.3879	6,062.99	87.3517	6,062.99	87.1015	6,062.99	86.1431	6,062.99	85.7651	6,062.99	85.0118	6,062.99	84.9494	6,062.99	83.8217	6,062.99	83.5231	6,062.99	82.3161	6,062.99	81.356	6,062.99	80.3509	6,062.99	79.8403	6,062.99	78.7716	6,062.99	78.7672	6,062.99	76.8397	6,062.99	76.7617	6,062.99	75.3163	6,062.99	76.2628	6,062.99	75.1245	6,062.99	74.9248	6,062.99	74.684	6,062.99	75.2561	6,062.99	74.9303	6,062.99	75.2294	6,062.99	74.7501	6,062.99	74.8774	6,062.99	74.774	6,062.99	75.007	6,062.99	73.0366	6,062.99	74.4531	6,062.99	71.9754	6,062.99	72.5957	6,062.99	74.591	6,062.99	74.056	6,062.99	74.8938
6,276.86	87.1117	6,276.86	86.7034	6,276.86	86.8802	6,276.86	85.8872	6,276.86	86.2319	6,276.86	85.6956	6,276.86	85.4576	6,276.86	84.684	6,276.86	84.3038	6,276.86	83.0138	6,276.86	82.7053	6,276.86	80.3887	6,276.86	79.5322	6,276.86	78.8087	6,276.86	77.4634	6,276.86	77.5356	6,276.86	75.5964	6,276.86	76.0996	6,276.86	75.7422	6,276.86	75.2453	6,276.86	74.6645	6,276.86	74.4273	6,276.86	74.7778	6,276.86	75.2872	6,276.86	75.2881	6,276.86	75.4311	6,276.86	74.9583	6,276.86	75.8144	6,276.86	75.4682	6,276.86	73.6169	6,276.86	74.4646	6,276.86	72.2249	6,276.86	73.2638	6,276.86	74.5657	6,276.86	74.5395	6,276.86	75.0556
6,498.05	86.0709	6,498.05	85.859	6,498.05	86.19	6,498.05	85.4936	6,498.05	85.9614	6,498.05	85.2709	6,498.05	85.767	6,498.05	83.9771	6,498.05	84.3396	6,498.05	81.9901	6,498.05	82.2376	6,498.05	79.8116	6,498.05	80.1521	6,498.05	78.0669	6,498.05	77.4575	6,498.05	76.567	6,498.05	75.7155	6,498.05	74.3604	6,498.05	74.4771	6,498.05	74.0875	6,498.05	74.9317	6,498.05	73.8909	6,498.05	74.2054	6,498.05	74.8591	6,498.05	75.134	6,498.05	75.6201	6,498.05	74.6349	6,498.05	75.3488	6,498.05	74.9686	6,498.05	72.9316	6,498.05	73.1043	6,498.05	72.0551	6,498.05	72.0843	6,498.05	73.9925	6,498.05	74.0709	6,498.05	75.3204
6,726.56	85.6999	6,726.56	86.4838	6,726.56	86.2458	6,726.56	86.4363	6,726.56	86.3443	6,726.56	85.3438	6,726.56	85.4518	6,726.56	83.9007	6,726.56	84.1027	6,726.56	82.3288	6,726.56	82.6926	6,726.56	80.8286	6,726.56	80.5319	6,726.56	79.185	6,726.56	78.53	6,726.56	77.5171	6,726.56	77.6148	6,726.56	75.1053	6,726.56	76.1564	6,726.56	74.7627	6,726.56	75.2806	6,726.56	74.1943	6,726.56	74.773	6,726.56	75.675	6,726.56	76.0299	6,726.56	76.0118	6,726.56	75.0074	6,726.56	75.1502	6,726.56	75.1126	6,726.56	72.8184	6,726.56	72.9919	6,726.56	72.4808	6,726.56	73.1326	6,726.56	74.3745	6,726.56	73.5953	6,726.56	75.6296
6,963.87	85.3732	6,963.87	86.0762	6,963.87	85.7785	6,963.87	86.0527	6,963.87	85.9105	6,963.87	84.8388	6,963.87	84.505	6,963.87	83.4153	6,963.87	82.8748	6,963.87	82.0814	6,963.87	81.6025	6,963.87	81.1244	6,963.87	80.6258	6,963.87	79.5299	6,963.87	78.4348	6,963.87	77.059	6,963.87	77.2829	6,963.87	75.0129	6,963.87	74.8701	6,963.87	73.8108	6,963.87	74.6865	6,963.87	73.8866	6,963.87	74.2621	6,963.87	74.7979	6,963.87	74.2732	6,963.87	74.4341	6,963.87	74.5611	6,963.87	73.8441	6,963.87	73.8282	6,963.87	72.8533	6,963.87	72.2514	6,963.87	72.0768	6,963.87	72.2024	6,963.87	73.5251	6,963.87	72.7892	6,963.87	74.4543
7,209.96	86.5948	7,209.96	86.7891	7,209.96	86.7528	7,209.96	86.0829	7,209.96	86.0254	7,209.96	85.3189	7,209.96	85.3854	7,209.96	83.7225	7,209.96	83.6814	7,209.96	82.0863	7,209.96	82.2803	7,209.96	80.8147	7,209.96	80.5488	7,209.96	79.0661	7,209.96	78.8029	7,209.96	77.2286	7,209.96	77.3448	7,209.96	75.5503	7,209.96	75.5961	7,209.96	74.0599	7,209.96	73.9905	7,209.96	73.208	7,209.96	74.1602	7,209.96	73.7983	7,209.96	73.9876	7,209.96	74.3292	7,209.96	75.4001	7,209.96	74.5849	7,209.96	74.2085	7,209.96	72.6476	7,209.96	73.167	7,209.96	71.9237	7,209.96	73.0726	7,209.96	73.7432	7,209.96	72.7678	7,209.96	75.3409
7,464.84	86.251	7,464.84	86.1466	7,464.84	86.1542	7,464.84	85.4266	7,464.84	85.6879	7,464.84	84.6934	7,464.84	84.8585	7,464.84	83.1278	7,464.84	83.4093	7,464.84	81.372	7,464.84	81.505	7,464.84	79.6376	7,464.84	78.9948	7,464.84	77.597	7,464.84	77.2652	7,464.84	77.2514	7,464.84	76.2311	7,464.84	75.1517	7,464.84	74.5195	7,464.84	73.5912	7,464.84	73.7047	7,464.84	72.7285	7,464.84	72.2765	7,464.84	73.1882	7,464.84	72.056	7,464.84	73.784	7,464.84	74.3681	7,464.84	74.1054	7,464.84	73.2682	7,464.84	72.8555	7,464.84	72.6974	7,464.84	71.1897	7,464.84	71.8963	7,464.84	72.4855	7,464.84	71.8769	7,464.84	74.1868
7,727.05	87.3251	7,727.05	87.0046	7,727.05	87.022	7,727.05	86.4628	7,727.05	86.6647	7,727.05	85.6055	7,727.05	85.7056	7,727.05	84.1769	7,727.05	84.1072	7,727.05	81.9972	7,727.05	81.5215	7,727.05	80.1451	7,727.05	79.8949	7,727.05	78.777	7,727.05	78.221	7,727.05	76.8802	7,727.05	76.2829	7,727.05	75.0437	7,727.05	74.9836	7,727.05	72.7135	7,727.05	73.2967	7,727.05	71.9939	7,727.05	72.8441	7,727.05	71.6253	7,727.05	71.5362	7,727.05	73.2425	7,727.05	74.2968	7,727.05	74.0635	7,727.05	73.4667	7,727.05	73.3798	7,727.05	72.5663	7,727.05	70.7305	7,727.05	72.1513	7,727.05	72.2705	7,727.05	72.4306	7,727.05	74.4687
7,999.51	87.4895	7,999.51	87.2274	7,999.51	87.141	7,999.51	86.5968	7,999.51	86.5335	7,999.51	85.658	7,999.51	85.461	7,999.51	84.3289	7,999.51	83.8207	7,999.51	81.7728	7,999.51	81.2317	7,999.51	79.9886	7,999.51	79.2199	7,999.51	79.1873	7,999.51	77.5125	7,999.51	77.0944	7,999.51	76.3881	7,999.51	75.5267	7,999.51	74.8711	7,999.51	72.4483	7,999.51	72.1875	7,999.51	71.3583	7,999.51	71.9348	7,999.51	69.7308	7,999.51	70.3811	7,999.51	72.1511	7,999.51	73.1336	7,999.51	73.5793	7,999.51	73.0672	7,999.51	72.5706	7,999.51	72.1773	7,999.51	70.0891	7,999.51	70.8473	7,999.51	72.4622	7,999.51	72.1043	7,999.51	73.827
8,282.23	88.0179	8,282.23	87.8361	8,282.23	87.8415	8,282.23	87.1223	8,282.23	86.9523	8,282.23	86.0798	8,282.23	85.7493	8,282.23	84.4337	8,282.23	84.3223	8,282.23	81.8859	8,282.23	81.8732	8,282.23	79.7888	8,282.23	79.7945	8,282.23	79.438	8,282.23	78.075	8,282.23	76.4504	8,282.23	76.3674	8,282.23	75.0537	8,282.23	75.1069	8,282.23	72.4841	8,282.23	71.6035	8,282.23	71.1442	8,282.23	72.2581	8,282.23	69.2144	8,282.23	69.3436	8,282.23	72.5073	8,282.23	72.9958	8,282.23	73.3308	8,282.23	72.6085	8,282.23	72.3516	8,282.23	72.2252	8,282.23	69.3473	8,282.23	70.7666	8,282.23	72.5541	8,282.23	72.3604	8,282.23	73.6964
8,573.73	87.9047	8,573.73	87.9384	8,573.73	88.0658	8,573.73	86.9378	8,573.73	87.1506	8,573.73	85.9242	8,573.73	86.0424	8,573.73	84.2624	8,573.73	84.4884	8,573.73	81.686	8,573.73	82.3773	8,573.73	79.3587	8,573.73	79.6828	8,573.73	78.592	8,573.73	77.1674	8,573.73	75.9209	8,573.73	75.4861	8,573.73	75.3368	8,573.73	74.2528	8,573.73	72.6396	8,573.73	71.4427	8,573.73	70.3755	8,573.73	72.2406	8,573.73	70.4894	8,573.73	69.9409	8,573.73	72.6359	8,573.73	72.0405	8,573.73	72.669	8,573.73	72.4071	8,573.73	71.7527	8,573.73	72.109	8,573.73	69.1175	8,573.73	69.2193	8,573.73	72.0716	8,573.73	71.9846	8,573.73	73.5683
8,876.95	88.3453	8,876.95	88.3284	8,876.95	88.1859	8,876.95	87.2059	8,876.95	87.3082	8,876.95	85.9782	8,876.95	85.7552	8,876.95	84.7022	8,876.95	84.3666	8,876.95	82.2296	8,876.95	82.2828	8,876.95	79.7701	8,876.95	79.8749	8,876.95	77.4103	8,876.95	77.464	8,876.95	76.6768	8,876.95	75.1383	8,876.95	75.5136	8,876.95	74.406	8,876.95	73.2372	8,876.95	72.13	8,876.95	71.2236	8,876.95	71.0282	8,876.95	70.8403	8,876.95	70.1446	8,876.95	71.3355	8,876.95	69.5316	8,876.95	72.7689	8,876.95	71.5949	8,876.95	71.4792	8,876.95	70.8244	8,876.95	69.4461	8,876.95	69.7749	8,876.95	72.1779	8,876.95	72.0263	8,876.95	73.1596
9,188.96	89.0781	9,188.96	88.7609	9,188.96	88.5927	9,188.96	87.6792	9,188.96	87.8438	9,188.96	86.1868	9,188.96	86.005	9,188.96	84.9308	9,188.96	84.7676	9,188.96	82.4578	9,188.96	82.175	9,188.96	79.7945	9,188.96	79.9153	9,188.96	77.8344	9,188.96	77.8405	9,188.96	75.4457	9,188.96	74.9608	9,188.96	75.4251	9,188.96	74.3198	9,188.96	72.5688	9,188.96	71.7869	9,188.96	71.0435	9,188.96	70.7468	9,188.96	70.1374	9,188.96	70.452	9,188.96	70.678	9,188.96	69.9949	9,188.96	72.0199	9,188.96	71.5151	9,188.96	70.7102	9,188.96	69.7256	9,188.96	69.9594	9,188.96	69.8586	9,188.96	71.5991	9,188.96	71.7942	9,188.96	73.0751
9,514.16	88.8457	9,514.16	88.4812	9,514.16	88.3631	9,514.16	87.6224	9,514.16	87.5952	9,514.16	86.2211	9,514.16	85.8826	9,514.16	85.0144	9,514.16	84.5213	9,514.16	82.6012	9,514.16	82.021	9,514.16	79.919	9,514.16	79.0173	9,514.16	78.408	9,514.16	76.7549	9,514.16	75.4892	9,514.16	74.8769	9,514.16	75.092	9,514.16	73.8746	9,514.16	73.2341	9,514.16	71.3664	9,514.16	71.0721	9,514.16	70.9409	9,514.16	70.0638	9,514.16	69.7491	9,514.16	70.7621	9,514.16	69.7646	9,514.16	72.1191	9,514.16	70.3134	9,514.16	71.1178	9,514.16	69.3464	9,514.16	69.6063	9,514.16	69.0256	9,514.16	71.4757	9,514.16	71.0973	9,514.16	72.9036
9,849.61	88.83	9,849.61	88.4021	9,849.61	88.3901	9,849.61	87.8106	9,849.61	87.589	9,849.61	86.4593	9,849.61	85.8147	9,849.61	85.0553	9,849.61	84.281	9,849.61	82.6648	9,849.61	82.0614	9,849.61	79.7486	9,849.61	79.1168	9,849.61	77.5605	9,849.61	76.6989	9,849.61	76.2398	9,849.61	74.2223	9,849.61	74.4759	9,849.61	73.8079	9,849.61	73.8742	9,849.61	72.1006	9,849.61	70.7971	9,849.61	70.5888	9,849.61	70.7682	9,849.61	70.4866	9,849.61	71.2135	9,849.61	69.5017	9,849.61	71.6348	9,849.61	68.9035	9,849.61	70.8628	9,849.61	68.9593	9,849.61	69.768	9,849.61	68.2152	9,849.61	71.7569	9,849.61	70.0031	9,849.61	73.1116
10,196.8	88.8144	10,196.8	88.2778	10,196.8	88.2234	10,196.8	87.6887	10,196.8	87.5565	10,196.8	86.267	10,196.8	85.7286	10,196.8	84.9061	10,196.8	84.0463	10,196.8	82.4813	10,196.8	81.9866	10,196.8	79.398	10,196.8	79.3349	10,196.8	76.1885	10,196.8	77.2278	10,196.8	75.8737	10,196.8	74.0399	10,196.8	74.444	10,196.8	73.5228	10,196.8	73.8778	10,196.8	72.0425	10,196.8	70.6213	10,196.8	70.571	10,196.8	70.8625	10,196.8	69.8116	10,196.8	70.6755	10,196.8	69.7565	10,196.8	70.9376	10,196.8	67.487	10,196.8	70.73	10,196.8	69.0856	10,196.8	69.5989	10,196.8	67.9081	10,196.8	71.5865	10,196.8	69.4993	10,196.8	72.9237
10,555.7	88.198	10,555.7	87.6917	10,555.7	87.6754	10,555.7	87.3744	10,555.7	87.2149	10,555.7	85.8685	10,555.7	85.4861	10,555.7	84.734	10,555.7	83.6901	10,555.7	82.2127	10,555.7	81.3192	10,555.7	79.3134	10,555.7	79.5378	10,555.7	76.0864	10,555.7	77.8396	10,555.7	75.2222	10,555.7	73.9808	10,555.7	74.6589	10,555.7	73.1854	10,555.7	73.3352	10,555.7	71.681	10,555.7	71.3406	10,555.7	70.6029	10,555.7	70.798	10,555.7	69.5469	10,555.7	69.4712	10,555.7	68.8987	10,555.7	70.2305	10,555.7	67.4362	10,555.7	69.898	10,555.7	68.1844	10,555.7	68.4213	10,555.7	67.5829	10,555.7	70.5232	10,555.7	69.4938	10,555.7	72.3304
10,927.7	88.1461	10,927.7	87.6377	10,927.7	87.5685	10,927.7	87.1483	10,927.7	86.9239	10,927.7	85.794	10,927.7	85.339	10,927.7	84.4211	10,927.7	83.665	10,927.7	82.0147	10,927.7	81.3975	10,927.7	79.0883	10,927.7	78.8637	10,927.7	76.4529	10,927.7	76.8116	10,927.7	75.0099	10,927.7	74.8774	10,927.7	74.2081	10,927.7	73.3027	10,927.7	73.8028	10,927.7	71.2748	10,927.7	71.4956	10,927.7	70.8921	10,927.7	70.4752	10,927.7	69.1374	10,927.7	68.4005	10,927.7	68.2817	10,927.7	69.2005	10,927.7	67.6301	10,927.7	70.0761	10,927.7	67.562	10,927.7	68.1329	10,927.7	66.8611	10,927.7	70.01	10,927.7	69.069	10,927.7	72.0255
11,313	87.9294	11,313	87.7137	11,313	87.8666	11,313	87.2275	11,313	86.8827	11,313	86.0132	11,313	85.488	11,313	84.2618	11,313	83.6757	11,313	81.8722	11,313	82.0499	11,313	78.6555	11,313	78.6797	11,313	74.7508	11,313	76.1478	11,313	74.6992	11,313	75.186	11,313	73.4807	11,313	73.9238	11,313	73.849	11,313	71.8242	11,313	72.361	11,313	70.9454	11,313	70.0504	11,313	69.7451	11,313	67.8951	11,313	67.436	11,313	68.9563	11,313	68.3865	11,313	69.826	11,313	67.7292	11,313	67.3471	11,313	66.4025	11,313	69.6178	11,313	68.4691	11,313	72.001
11,712.9	88.4216	11,712.9	88.2424	11,712.9	88.1857	11,712.9	87.2161	11,712.9	86.9879	11,712.9	85.8257	11,712.9	85.392	11,712.9	84.1042	11,712.9	83.472	11,712.9	82.0929	11,712.9	81.6687	11,712.9	78.676	11,712.9	78.8472	11,712.9	74.8052	11,712.9	76.2469	11,712.9	73.749	11,712.9	75.2175	11,712.9	73.8937	11,712.9	74.8733	11,712.9	73.648	11,712.9	72.7523	11,712.9	73.2108	11,712.9	71.5255	11,712.9	70.1189	11,712.9	70.4168	11,712.9	67.6745	11,712.9	66.7199	11,712.9	68.1099	11,712.9	68.5005	11,712.9	69.4589	11,712.9	67.9136	11,712.9	67.8985	11,712.9	66.5715	11,712.9	69.4272	11,712.9	68.0595	11,712.9	71.5755
12,126	88.714	12,126	88.2851	12,126	88.2516	12,126	87.2582	12,126	87.0811	12,126	85.7887	12,126	85.3406	12,126	84.0127	12,126	83.4819	12,126	82.0932	12,126	81.1187	12,126	79.5183	12,126	79.0126	12,126	76.2831	12,126	75.9655	12,126	73.8897	12,126	74.3647	12,126	73.3431	12,126	74.9449	12,126	73.36	12,126	72.9333	12,126	73.0065	12,126	71.5142	12,126	70.7627	12,126	70.5982	12,126	67.8779	12,126	66.2715	12,126	67.3604	12,126	68.3822	12,126	69.3553	12,126	67.7161	12,126	68.0802	12,126	66.6409	12,126	69.4167	12,126	67.5046	12,126	72.1719
12,553.7	88.6829	12,553.7	88.4065	12,553.7	88.2669	12,553.7	87.4608	12,553.7	87.0416	12,553.7	85.7523	12,553.7	84.9422	12,553.7	84.0171	12,553.7	83.2884	12,553.7	82.0814	12,553.7	81.1477	12,553.7	79.7765	12,553.7	78.7743	12,553.7	76.3725	12,553.7	75.708	12,553.7	73.9287	12,553.7	73.5762	12,553.7	72.9087	12,553.7	74.3245	12,553.7	72.7875	12,553.7	73.514	12,553.7	73.1874	12,553.7	71.4496	12,553.7	71.7263	12,553.7	70.5793	12,553.7	68.8168	12,553.7	67.6972	12,553.7	66.7273	12,553.7	68.0116	12,553.7	68.8901	12,553.7	66.7442	12,553.7	68.4567	12,553.7	66.5326	12,553.7	69.2763	12,553.7	66.6305	12,553.7	72.2556
12,996.1	88.7318	12,996.1	88.4168	12,996.1	88.0371	12,996.1	87.4979	12,996.1	87.0274	12,996.1	85.5889	12,996.1	84.6999	12,996.1	84.1018	12,996.1	83.2047	12,996.1	81.9714	12,996.1	81.1526	12,996.1	79.7883	12,996.1	78.6923	12,996.1	76.0029	12,996.1	75.7639	12,996.1	73.4251	12,996.1	73.2709	12,996.1	72.3196	12,996.1	73.5511	12,996.1	72.014	12,996.1	72.8954	12,996.1	72.9933	12,996.1	71.9033	12,996.1	72.0149	12,996.1	70.8103	12,996.1	68.8007	12,996.1	66.8201	12,996.1	65.6505	12,996.1	67.78	12,996.1	68.3698	12,996.1	65.1506	12,996.1	68.3812	12,996.1	67.446	12,996.1	68.7359	12,996.1	66.7819	12,996.1	71.9674
13,454.6	88.4135	13,454.6	88.0384	13,454.6	87.9108	13,454.6	87.2572	13,454.6	86.695	13,454.6	85.5255	13,454.6	84.7798	13,454.6	84.0919	13,454.6	82.9801	13,454.6	81.4649	13,454.6	80.8651	13,454.6	79.4786	13,454.6	78.4586	13,454.6	75.315	13,454.6	74.9559	13,454.6	73.3532	13,454.6	71.204	13,454.6	71.9127	13,454.6	72.1754	13,454.6	71.3604	13,454.6	72.1798	13,454.6	72.2948	13,454.6	71.6329	13,454.6	71.7078	13,454.6	70.2632	13,454.6	68.2571	13,454.6	65.4683	13,454.6	65.6619	13,454.6	66.9229	13,454.6	67.5832	13,454.6	64.0846	13,454.6	67.6984	13,454.6	66.9501	13,454.6	68.6529	13,454.6	65.9722	13,454.6	71.7265
13,929.2	88.1037	13,929.2	87.7777	13,929.2	87.6699	13,929.2	87.1812	13,929.2	86.3704	13,929.2	85.3036	13,929.2	84.5296	13,929.2	84.0053	13,929.2	82.9084	13,929.2	81.3587	13,929.2	80.755	13,929.2	78.6823	13,929.2	78.462	13,929.2	74.7815	13,929.2	75.202	13,929.2	72.5809	13,929.2	69.7552	13,929.2	71.2797	13,929.2	70.7458	13,929.2	70.5977	13,929.2	71.2021	13,929.2	71.6156	13,929.2	71.3084	13,929.2	71.3816	13,929.2	70.3925	13,929.2	67.9743	13,929.2	67.0258	13,929.2	65.4555	13,929.2	65.7434	13,929.2	66.0642	13,929.2	65.2003	13,929.2	67.1982	13,929.2	66.0914	13,929.2	67.9781	13,929.2	64.5362	13,929.2	71.4437
14,419.9	88.002	14,419.9	87.7533	14,419.9	87.55	14,419.9	87.0842	14,419.9	86.4573	14,419.9	85.3667	14,419.9	84.8913	14,419.9	84.1621	14,419.9	82.9889	14,419.9	80.9705	14,419.9	80.6375	14,419.9	78.3895	14,419.9	78.4403	14,419.9	74.794	14,419.9	75.5182	14,419.9	72.0625	14,419.9	70.198	14,419.9	70.9947	14,419.9	69.5107	14,419.9	69.3709	14,419.9	70.5302	14,419.9	70.4176	14,419.9	71.4612	14,419.9	71.2605	14,419.9	70.7216	14,419.9	67.4615	14,419.9	67.1575	14,419.9	64.9109	14,419.9	64.66	14,419.9	64.9321	14,419.9	65.9238	14,419.9	67.0505	14,419.9	66.0921	14,419.9	67.3994	14,419.9	64.6256	14,419.9	71.3605
14,928.2	87.9533	14,928.2	87.769	14,928.2	87.4233	14,928.2	87.145	14,928.2	86.6951	14,928.2	85.4172	14,928.2	85.0259	14,928.2	83.8352	14,928.2	83.2809	14,928.2	80.6783	14,928.2	80.79	14,928.2	78.126	14,928.2	78.6889	14,928.2	75.057	14,928.2	75.7348	14,928.2	71.6482	14,928.2	70.8422	14,928.2	71.0365	14,928.2	69.4574	14,928.2	69.7107	14,928.2	70.4426	14,928.2	69.3778	14,928.2	71.5464	14,928.2	70.6789	14,928.2	70.4833	14,928.2	68.2109	14,928.2	67.56	14,928.2	64.6696	14,928.2	64.2457	14,928.2	63.8101	14,928.2	65.8412	14,928.2	67.3666	14,928.2	66.4865	14,928.2	67.7027	14,928.2	64.7254	14,928.2	71.8299
15,455.6	87.7965	15,455.6	87.6592	15,455.6	87.4234	15,455.6	86.9942	15,455.6	86.6968	15,455.6	85.4198	15,455.6	84.9875	15,455.6	83.7117	15,455.6	83.0008	15,455.6	80.599	15,455.6	80.6203	15,455.6	78.0784	15,455.6	78.2383	15,455.6	74.8402	15,455.6	75.2523	15,455.6	71.1591	15,455.6	71.8187	15,455.6	69.9591	15,455.6	69.2735	15,455.6	69.7081	15,455.6	69.0297	15,455.6	68.8399	15,455.6	71.5546	15,455.6	70.3438	15,455.6	69.7155	15,455.6	67.8545	15,455.6	69.1558	15,455.6	64.9788	15,455.6	63.9224	15,455.6	62.6554	15,455.6	65.3996	15,455.6	67.1291	15,455.6	66.6795	15,455.6	66.6489	15,455.6	64.4575	15,455.6	71.946
16,000.5	87.6334	16,000.5	87.5516	16,000.5	87.2733	16,000.5	86.9716	16,000.5	86.39	16,000.5	85.5259	16,000.5	84.8906	16,000.5	83.5726	16,000.5	82.7569	16,000.5	80.2218	16,000.5	80.1671	16,000.5	77.5724	16,000.5	77.5613	16,000.5	73.6352	16,000.5	74.2916	16,000.5	70.3839	16,000.5	70.783	16,000.5	69.5459	16,000.5	68.608	16,000.5	68.8851	16,000.5	67.4795	16,000.5	68.2743	16,000.5	70.8454	16,000.5	69.6486	16,000.5	69.4421	16,000.5	67.8304	16,000.5	68.9437	16,000.5	63.9103	16,000.5	63.9949	16,000.5	61.9227	16,000.5	63.9595	16,000.5	66.1652	16,000.5	65.6471	16,000.5	65.3827	16,000.5	63.7708	16,000.5	71.3414
16,564.5	87.4124	16,564.5	87.1532	16,564.5	86.9535	16,564.5	86.6023	16,564.5	85.9516	16,564.5	85.3938	16,564.5	84.2259	16,564.5	82.9062	16,564.5	81.9679	16,564.5	79.7922	16,564.5	79.3812	16,564.5	76.8214	16,564.5	76.5734	16,564.5	72.8804	16,564.5	73.1968	16,564.5	69.0447	16,564.5	69.0664	16,564.5	68.7084	16,564.5	67.5493	16,564.5	68.4211	16,564.5	66.7044	16,564.5	66.8989	16,564.5	69.3301	16,564.5	69.1177	16,564.5	68.9603	16,564.5	67.7481	16,564.5	68.7195	16,564.5	63.2173	16,564.5	63.7169	16,564.5	61.3056	16,564.5	62.4222	16,564.5	65.6913	16,564.5	65.4426	16,564.5	64.7128	16,564.5	63.2697	16,564.5	70.3505
17,148.9	86.8813	17,148.9	86.7359	17,148.9	86.4385	17,148.9	86.2108	17,148.9	85.7329	17,148.9	84.7876	17,148.9	83.5276	17,148.9	82.2123	17,148.9	81.1746	17,148.9	78.8486	17,148.9	78.2776	17,148.9	76.007	17,148.9	75.5134	17,148.9	72.231	17,148.9	72.3796	17,148.9	68.8025	17,148.9	68.8567	17,148.9	67.2422	17,148.9	66.8711	17,148.9	68.4232	17,148.9	64.8204	17,148.9	66.3291	17,148.9	67.9691	17,148.9	68.4311	17,148.9	67.6979	17,148.9	67.8187	17,148.9	68.2134	17,148.9	62.7639	17,148.9	63.1339	17,148.9	61.005	17,148.9	61.7691	17,148.9	65.6757	17,148.9	66.6252	17,148.9	62.4909	17,148.9	63.5525	17,148.9	69.5633
17,752.4	86.504	17,752.4	86.5079	17,752.4	86.1805	17,752.4	85.792	17,752.4	85.2321	17,752.4	84.064	17,752.4	83.0521	17,752.4	81.3446	17,752.4	80.4471	17,752.4	77.6677	17,752.4	77.5032	17,752.4	75.048	17,752.4	74.5866	17,752.4	71.6432	17,752.4	72.385	17,752.4	68.7651	17,752.4	67.9877	17,752.4	65.5073	17,752.4	67.0653	17,752.4	67.6525	17,752.4	64.6219	17,752.4	65.6429	17,752.4	67.2818	17,752.4	67.1565	17,752.4	66.3768	17,752.4	66.88	17,752.4	67.0094	17,752.4	61.939	17,752.4	62.6205	17,752.4	59.8438	17,752.4	62.1523	17,752.4	65.0584	17,752.4	66.9372	17,752.4	61.3634	17,752.4	64.1816	17,752.4	69.1135
18,379.4	86.3647	18,379.4	86.1721	18,379.4	85.6614	18,379.4	85.4242	18,379.4	84.6894	18,379.4	83.0855	18,379.4	82.3325	18,379.4	80.4048	18,379.4	79.7848	18,379.4	76.6945	18,379.4	76.4013	18,379.4	74.2854	18,379.4	73.9653	18,379.4	71.0946	18,379.4	72.359	18,379.4	67.9967	18,379.4	68.0562	18,379.4	63.8439	18,379.4	67.0472	18,379.4	65.5732	18,379.4	63.3506	18,379.4	64.2077	18,379.4	66.1318	18,379.4	65.6101	18,379.4	65.5777	18,379.4	65.8674	18,379.4	65.3307	18,379.4	61.9506	18,379.4	62.1168	18,379.4	58.5232	18,379.4	62.2815	18,379.4	63.9917	18,379.4	66.0275	18,379.4	60.0169	18,379.4	63.8165	18,379.4	68.3391
19,026.9	86.1774	19,026.9	85.9723	19,026.9	85.3269	19,026.9	84.9681	19,026.9	84.2386	19,026.9	82.3266	19,026.9	81.934	19,026.9	79.8108	19,026.9	79.2108	19,026.9	76.1102	19,026.9	75.9825	19,026.9	73.3567	19,026.9	73.6223	19,026.9	71.3438	19,026.9	71.5432	19,026.9	68.0914	19,026.9	67.7713	19,026.9	64.7886	19,026.9	66.5629	19,026.9	63.361	19,026.9	62.823	19,026.9	63.9672	19,026.9	63.6563	19,026.9	63.5268	19,026.9	64.9785	19,026.9	64.9621	19,026.9	64.7713	19,026.9	63.19	19,026.9	61.4475	19,026.9	57.5867	19,026.9	61.9712	19,026.9	62.795	19,026.9	64.566	19,026.9	59.8623	19,026.9	63.305	19,026.9	67.6631
19,697.8	86.2668	19,697.8	86.0188	19,697.8	85.4141	19,697.8	85.1392	19,697.8	84.1526	19,697.8	82.1857	19,697.8	81.8777	19,697.8	79.8309	19,697.8	78.7444	19,697.8	75.7369	19,697.8	75.854	19,697.8	73.564	19,697.8	73.4398	19,697.8	72.2211	19,697.8	72.1116	19,697.8	69.3031	19,697.8	68.5219	19,697.8	65.3839	19,697.8	66.2963	19,697.8	60.963	19,697.8	62.4989	19,697.8	63.4978	19,697.8	62.6259	19,697.8	62.2017	19,697.8	63.0087	19,697.8	64.4072	19,697.8	64.9951	19,697.8	63.0846	19,697.8	61.0162	19,697.8	56.1278	19,697.8	61.2519	19,697.8	61.7997	19,697.8	63.5278	19,697.8	59.9563	19,697.8	62.883	19,697.8	67.4803
19,999.5	86.4846	19,999.5	86.0368	19,999.5	85.4593	19,999.5	85.5349	19,999.5	84.3398	19,999.5	82.2323	19,999.5	82.0575	19,999.5	79.8835	19,999.5	78.6163	19,999.5	75.7874	19,999.5	75.9035	19,999.5	73.438	19,999.5	73.1811	19,999.5	72.419	19,999.5	71.8421	19,999.5	68.4317	19,999.5	68.7638	19,999.5	66.527	19,999.5	68.0787	19,999.5	59.9555	19,999.5	65.3949	19,999.5	64.7186	19,999.5	61.3021	19,999.5	64.2459	19,999.5	63.6097	19,999.5	66.0943	19,999.5	59.886	19,999.5	63.7455	19,999.5	63.311	19,999.5	50.8298	19,999.5	63.308	19,999.5	59.8202	19,999.5	65.6675	19,999.5	58.6875	19,999.5	64.3694	19,999.5	68.3052
