"SPL Vertical"																																																																							
"On-Axis"		"10°"		"-10°"		"20°"		"-20°"		"30°"		"-30°"		"40°"		"-40°"		"50°"		"-50°"		"60°"		"-60°"		"70°"		"-70°"		"80°"		"-80°"		"90°"		"-90°"		"100°"		"-100°"		"110°"		"-110°"		"120°"		"-120°"		"130°"		"-130°"		"140°"		"-140°"		"150°"		"-150°"		"160°"		"-160°"		"170°"		"-170°"		"180°"	
"Frequency [Hz]"	"Sound Pessure Level [dB]  / [2.83V 1m] "	"Frequency [Hz]"	"Sound Pessure Level [dB]  / [2.83V 1m] "	"Frequency [Hz]"	"Sound Pessure Level [dB]  / [2.83V 1m] "	"Frequency [Hz]"	"Sound Pessure Level [dB]  / [2.83V 1m] "	"Frequency [Hz]"	"Sound Pessure Level [dB]  / [2.83V 1m] "	"Frequency [Hz]"	"Sound Pessure Level [dB]  / [2.83V 1m] "	"Frequency [Hz]"	"Sound Pessure Level [dB]  / [2.83V 1m] "	"Frequency [Hz]"	"Sound Pessure Level [dB]  / [2.83V 1m] "	"Frequency [Hz]"	"Sound Pessure Level [dB]  / [2.83V 1m] "	"Frequency [Hz]"	"Sound Pessure Level [dB]  / [2.83V 1m] "	"Frequency [Hz]"	"Sound Pessure Level [dB]  / [2.83V 1m] "	"Frequency [Hz]"	"Sound Pessure Level [dB]  / [2.83V 1m] "	"Frequency [Hz]"	"Sound Pessure Level [dB]  / [2.83V 1m] "	"Frequency [Hz]"	"Sound Pessure Level [dB]  / [2.83V 1m] "	"Frequency [Hz]"	"Sound Pessure Level [dB]  / [2.83V 1m] "	"Frequency [Hz]"	"Sound Pessure Level [dB]  / [2.83V 1m] "	"Frequency [Hz]"	"Sound Pessure Level [dB]  / [2.83V 1m] "	"Frequency [Hz]"	"Sound Pessure Level [dB]  / [2.83V 1m] "	"Frequency [Hz]"	"Sound Pessure Level [dB]  / [2.83V 1m] "	"Frequency [Hz]"	"Sound Pessure Level [dB]  / [2.83V 1m] "	"Frequency [Hz]"	"Sound Pessure Level [dB]  / [2.83V 1m] "	"Frequency [Hz]"	"Sound Pessure Level [dB]  / [2.83V 1m] "	"Frequency [Hz]"	"Sound Pessure Level [dB]  / [2.83V 1m] "	"Frequency [Hz]"	"Sound Pessure Level [dB]  / [2.83V 1m] "	"Frequency [Hz]"	"Sound Pessure Level [dB]  / [2.83V 1m] "	"Frequency [Hz]"	"Sound Pessure Level [dB]  / [2.83V 1m] "	"Frequency [Hz]"	"Sound Pessure Level [dB]  / [2.83V 1m] "	"Frequency [Hz]"	"Sound Pessure Level [dB]  / [2.83V 1m] "	"Frequency [Hz]"	"Sound Pessure Level [dB]  / [2.83V 1m] "	"Frequency [Hz]"	"Sound Pessure Level [dB]  / [2.83V 1m] "	"Frequency [Hz]"	"Sound Pessure Level [dB]  / [2.83V 1m] "	"Frequency [Hz]"	"Sound Pessure Level [dB]  / [2.83V 1m] "	"Frequency [Hz]"	"Sound Pessure Level [dB]  / [2.83V 1m] "	"Frequency [Hz]"	"Sound Pessure Level [dB]  / [2.83V 1m] "	"Frequency [Hz]"	"Sound Pessure Level [dB]  / [2.83V 1m] "	"Frequency [Hz]"	"Sound Pessure Level [dB]  / [2.83V 1m] "
20.5078	60.5853	20.5078	60.3149	20.5078	60.8791	20.5078	60.0717	20.5078	61.1883	20.5078	59.8564	20.5078	61.5013	20.5078	59.6674	20.5078	61.8035	20.5078	59.502	20.5078	62.0788	20.5078	59.3576	20.5078	62.3111	20.5078	59.2323	20.5078	62.4857	20.5078	59.1257	20.5078	62.5907	20.5078	59.0388	20.5078	62.6177	20.5078	58.9749	20.5078	62.5623	20.5078	58.9391	20.5078	62.4246	20.5078	58.9381	20.5078	62.209	20.5078	58.9801	20.5078	61.9245	20.5078	59.0733	20.5078	61.5844	20.5078	59.2249	20.5078	61.2057	20.5078	59.4386	20.5078	60.8085	20.5078	59.7137	20.5078	60.4141	20.5078	60.0432
21.9727	61.7557	21.9727	61.2829	21.9727	62.2582	21.9727	60.8539	21.9727	62.7722	21.9727	60.4776	21.9727	63.277	21.9727	60.1585	21.9727	63.7511	21.9727	59.8968	21.9727	64.1738	21.9727	59.6909	21.9727	64.5268	21.9727	59.5382	21.9727	64.795	21.9727	59.4369	21.9727	64.967	21.9727	59.3871	21.9727	65.0353	21.9727	59.391	21.9727	64.9968	21.9727	59.4526	21.9727	64.8524	21.9727	59.5776	21.9727	64.6073	21.9727	59.7716	21.9727	64.2704	21.9727	60.0388	21.9727	63.8548	21.9727	60.3799	21.9727	63.3769	21.9727	60.7907	21.9727	62.8564	21.9727	61.2613	21.9727	62.3151	21.9727	61.776
23.4375	64.0369	23.4375	63.6201	23.4375	64.4789	23.4375	63.2403	23.4375	64.9305	23.4375	62.9056	23.4375	65.3735	23.4375	62.6199	23.4375	65.7888	23.4375	62.3844	23.4375	66.1578	23.4375	62.1982	23.4375	66.4635	23.4375	62.0596	23.4375	66.6919	23.4375	61.9674	23.4375	66.8323	23.4375	61.9212	23.4375	66.878	23.4375	61.9221	23.4375	66.8265	23.4375	61.9724	23.4375	66.6794	23.4375	62.0758	23.4375	66.4426	23.4375	62.236	23.4375	66.126	23.4375	62.4562	23.4375	65.7431	23.4375	62.7377	23.4375	65.3105	23.4375	63.0786	23.4375	64.8473	23.4375	63.4727	23.4375	64.3736	23.4375	63.9093
24.9023	65.8763	24.9023	65.4943	24.9023	66.2803	24.9023	65.1449	24.9023	66.6928	24.9023	64.8351	24.9023	67.0977	24.9023	64.5689	24.9023	67.4778	24.9023	64.3476	24.9023	67.8161	24.9023	64.1713	24.9023	68.0968	24.9023	64.039	24.9023	68.3064	24.9023	63.9501	24.9023	68.4348	24.9023	63.9046	24.9023	68.4754	24.9023	63.9036	24.9023	68.4256	24.9023	63.949	24.9023	68.2869	24.9023	64.0437	24.9023	68.0649	24.9023	64.1907	24.9023	67.7692	24.9023	64.3924	24.9023	67.4128	24.9023	64.6499	24.9023	67.0115	24.9023	64.9613	24.9023	66.5835	24.9023	65.3215	24.9023	66.1473	24.9023	65.7212
26.3672	67.5235	26.3672	67.1667	26.3672	67.9007	26.3672	66.8402	26.3672	68.2853	26.3672	66.5506	26.3672	68.6626	26.3672	66.3019	26.3672	69.0163	26.3672	66.0956	26.3672	69.3304	26.3672	65.9319	26.3672	69.5899	26.3672	65.81	26.3672	69.7823	26.3672	65.7294	26.3672	69.8979	26.3672	65.6896	26.3672	69.9307	26.3672	65.6912	26.3672	69.8785	26.3672	65.7355	26.3672	69.7432	26.3672	65.8245	26.3672	69.5306	26.3672	65.9605	26.3672	69.2505	26.3672	66.1453	26.3672	68.9156	26.3672	66.3797	26.3672	68.5415	26.3672	66.6626	26.3672	68.145	26.3672	66.9899	26.3672	67.7437	26.3672	67.3539
27.832	68.9985	27.832	68.6587	27.832	69.3575	27.832	68.3476	27.832	69.7237	27.832	68.0717	27.832	70.0828	27.832	67.8348	27.832	70.4195	27.832	67.6386	27.832	70.7186	27.832	67.4835	27.832	70.9656	27.832	67.3689	27.832	71.1485	27.832	67.2941	27.832	71.258	27.832	67.2589	27.832	71.2884	27.832	67.2635	27.832	71.2375	27.832	67.3087	27.832	71.1075	27.832	67.396	27.832	70.9042	27.832	67.5272	27.832	70.6371	27.832	67.7037	27.832	70.3187	27.832	67.926	27.832	69.964	27.832	68.1931	27.832	69.5893	27.832	68.5013	27.832	69.2108	27.832	68.8438
29.2969	70.6884	29.2969	70.3674	29.2969	71.0264	29.2969	70.0726	29.2969	71.3701	29.2969	69.8103	29.2969	71.706	29.2969	69.5843	29.2969	72.0198	29.2969	69.3966	29.2969	72.2968	29.2969	69.2478	29.2969	72.5238	29.2969	69.1374	29.2969	72.6892	29.2969	69.065	29.2969	72.7845	29.2969	69.03	29.2969	72.8044	29.2969	69.0325	29.2969	72.7475	29.2969	69.0728	29.2969	72.6161	29.2969	69.152	29.2969	72.4164	29.2969	69.2713	29.2969	72.1581	29.2969	69.4318	29.2969	71.8537	29.2969	69.6342	29.2969	71.5179	29.2969	69.8777	29.2969	71.1661	29.2969	70.1596	29.2969	70.8137	29.2969	70.4744
30.7617	72.3512	30.7617	72.0431	30.7617	72.672	30.7617	71.7563	30.7617	72.9947	30.7617	71.497	30.7617	73.3069	30.7617	71.2692	30.7617	73.5952	30.7617	71.0754	30.7617	73.8462	30.7617	70.9166	30.7617	74.0474	30.7617	70.7931	30.7617	74.1883	30.7617	70.7048	30.7617	74.2609	30.7617	70.6519	30.7617	74.2605	30.7617	70.6347	30.7617	74.1862	30.7617	70.654	30.7617	74.0406	30.7617	70.7113	30.7617	73.8303	30.7617	70.8081	30.7617	73.5653	30.7617	70.9462	30.7617	73.2583	30.7617	71.1265	30.7617	72.924	30.7617	71.349	30.7617	72.578	30.7617	71.6116	30.7617	72.2355	30.7617	71.9097
32.2266	73.8271	32.2266	73.5455	32.2266	74.1206	32.2266	73.2835	32.2266	74.4166	32.2266	73.0464	32.2266	74.704	32.2266	72.8378	32.2266	74.9704	32.2266	72.6597	32.2266	75.2035	32.2266	72.5133	32.2266	75.3916	32.2266	72.3988	32.2266	75.5245	32.2266	72.3166	32.2266	75.5947	32.2266	72.2669	32.2266	75.5976	32.2266	72.2504	32.2266	75.5319	32.2266	72.268	32.2266	75.4001	32.2266	72.3211	32.2266	75.208	32.2266	72.4113	32.2266	74.965	32.2266	72.54	32.2266	74.6827	32.2266	72.7082	32.2266	74.3747	32.2266	72.9156	32.2266	74.0553	32.2266	73.1599	32.2266	73.7385	32.2266	73.4367
33.6914	74.8397	33.6914	74.573	33.6914	75.1198	33.6914	74.3268	33.6914	75.404	33.6914	74.1062	33.6914	75.6814	33.6914	73.9143	33.6914	75.9399	33.6914	73.7529	33.6914	76.1673	33.6914	73.6226	33.6914	76.352	33.6914	73.5235	33.6914	76.484	33.6914	73.4554	33.6914	76.5558	33.6914	73.4181	33.6914	76.563	33.6914	73.4118	33.6914	76.5045	33.6914	73.4371	33.6914	76.3829	33.6914	73.4948	33.6914	76.2041	33.6914	73.5859	33.6914	75.9772	33.6914	73.7116	33.6914	75.7137	33.6914	73.8723	33.6914	75.4267	33.6914	74.068	33.6914	75.1295	33.6914	74.2966	33.6914	74.835	33.6914	74.5544
35.1562	76.1807	35.1562	75.9121	35.1562	76.461	35.1562	75.6626	35.1562	76.7438	35.1562	75.4378	35.1562	77.018	35.1562	75.2414	35.1562	77.272	35.1562	75.0755	35.1562	77.4938	35.1562	74.9411	35.1562	77.6723	35.1562	74.8388	35.1562	77.7979	35.1562	74.7684	35.1562	77.8637	35.1562	74.73	35.1562	77.8656	35.1562	74.7236	35.1562	77.8029	35.1562	74.7494	35.1562	77.6783	35.1562	74.8081	35.1562	77.4981	35.1562	74.9002	35.1562	77.2713	35.1562	75.0266	35.1562	77.0094	35.1562	75.1873	35.1562	76.725	35.1562	75.382	35.1562	76.4313	35.1562	75.6086	35.1562	76.1406	35.1562	75.8635
36.6211	77.4866	36.6211	77.2335	36.6211	77.7499	36.6211	76.9974	36.6211	78.0146	36.6211	76.7838	36.6211	78.2704	36.6211	76.5961	36.6211	78.5063	36.6211	76.4367	36.6211	78.7112	36.6211	76.3068	36.6211	78.8747	36.6211	76.2068	36.6211	78.9879	36.6211	76.1371	36.6211	79.0442	36.6211	76.0976	36.6211	79.0401	36.6211	76.0883	36.6211	78.9751	36.6211	76.1096	36.6211	78.8522	36.6211	76.1618	36.6211	78.6775	36.6211	76.2455	36.6211	78.4601	36.6211	76.3613	36.6211	78.2108	36.6211	76.5092	36.6211	77.942	36.6211	76.689	36.6211	77.6658	36.6211	76.8988	36.6211	77.3937	36.6211	77.1355
38.0859	78.6645	38.0859	78.4213	38.0859	78.9172	38.0859	78.1943	38.0859	79.171	38.0859	77.9887	38.0859	79.4161	38.0859	77.8079	38.0859	79.642	38.0859	77.6543	38.0859	79.8377	38.0859	77.529	38.0859	79.9934	38.0859	77.4327	38.0859	80.1005	38.0859	77.3655	38.0859	80.1527	38.0859	77.3275	38.0859	80.1465	38.0859	77.3188	38.0859	80.0818	38.0859	77.3393	38.0859	79.9616	38.0859	77.3894	38.0859	79.7921	38.0859	77.4695	38.0859	79.5821	38.0859	77.58	38.0859	79.3424	38.0859	77.7208	38.0859	79.0847	38.0859	77.8917	38.0859	78.8208	38.0859	78.091	38.0859	78.5615	38.0859	78.3159
39.5508	79.8186	39.5508	79.5828	39.5508	80.0625	39.5508	79.3619	39.5508	80.3065	39.5508	79.1607	39.5508	80.5411	39.5508	78.9828	39.5508	80.7561	39.5508	78.8306	39.5508	80.9412	39.5508	78.7055	39.5508	81.0869	39.5508	78.6082	39.5508	81.1849	39.5508	78.5389	39.5508	81.2293	39.5508	78.4979	39.5508	81.217	39.5508	78.4852	39.5508	81.1481	39.5508	78.5009	39.5508	81.0257	39.5508	78.5453	39.5508	80.8562	39.5508	78.6187	39.5508	80.6485	39.5508	78.7216	39.5508	80.4132	39.5508	78.854	39.5508	80.1618	39.5508	79.0155	39.5508	79.9059	39.5508	79.2051	39.5508	79.6558	39.5508	79.42
41.0156	80.8289	41.0156	80.6021	41.0156	81.0616	41.0156	80.3877	41.0156	81.2924	41.0156	80.1906	41.0156	81.5124	41.0156	80.0144	41.0156	81.7119	41.0156	79.8616	41.0156	81.8811	41.0156	79.7337	41.0156	82.0109	41.0156	79.6317	41.0156	82.0938	41.0156	79.5561	41.0156	82.1244	41.0156	79.5071	41.0156	82.1	41.0156	79.4851	41.0156	82.0211	41.0156	79.4902	41.0156	81.8914	41.0156	79.523	41.0156	81.7174	41.0156	79.5838	41.0156	81.5083	41.0156	79.6732	41.0156	81.2747	41.0156	79.7916	41.0156	81.0283	41.0156	79.9391	41.0156	80.7801	41.0156	80.1146	41.0156	80.54	41.0156	80.3162
42.4805	81.8647	42.4805	81.6439	42.4805	82.0927	42.4805	81.4365	42.4805	82.3203	42.4805	81.2472	42.4805	82.5388	42.4805	81.0795	42.4805	82.7387	42.4805	80.9355	42.4805	82.9104	42.4805	80.8169	42.4805	83.0448	42.4805	80.7243	42.4805	83.1343	42.4805	80.6582	42.4805	83.1734	42.4805	80.6187	42.4805	83.1593	42.4805	80.606	42.4805	83.092	42.4805	80.62	42.4805	82.975	42.4805	80.661	42.4805	82.8142	42.4805	80.7291	42.4805	82.6182	42.4805	80.8245	42.4805	82.3973	42.4805	80.9473	42.4805	82.1622	42.4805	81.0972	42.4805	81.9236	42.4805	81.2729	42.4805	81.691	42.4805	81.4721
43.9453	82.234	43.9453	82.0027	43.9453	82.4709	43.9453	81.7838	43.9453	82.7055	43.9453	81.5823	43.9453	82.9282	43.9453	81.4018	43.9453	83.1288	43.9453	81.2452	43.9453	83.2969	43.9453	81.1139	43.9453	83.4228	43.9453	81.0091	43.9453	83.4984	43.9453	80.9314	43.9453	83.5183	43.9453	80.8809	43.9453	83.4804	43.9453	80.8577	43.9453	83.3863	43.9453	80.8619	43.9453	83.2409	43.9453	80.8932	43.9453	83.0528	43.9453	80.9519	43.9453	82.8328	43.9453	81.0377	43.9453	82.5927	43.9453	81.1509	43.9453	82.3446	43.9453	81.2913	43.9453	82.0994	43.9453	81.4583	43.9453	81.8659	43.9453	81.6507
45.4102	82.9378	45.4102	82.7101	45.4102	83.1706	45.4102	82.4938	45.4102	83.4003	45.4102	82.2942	45.4102	83.6177	45.4102	82.1152	45.4102	83.8129	45.4102	81.9595	45.4102	83.9757	45.4102	81.829	45.4102	84.0968	45.4102	81.7249	45.4102	84.1686	45.4102	81.6479	45.4102	84.1861	45.4102	81.5983	45.4102	84.1473	45.4102	81.5762	45.4102	84.0539	45.4102	81.5814	45.4102	83.9111	45.4102	81.6138	45.4102	83.7273	45.4102	81.6731	45.4102	83.513	45.4102	81.7592	45.4102	83.2796	45.4102	81.8719	45.4102	83.0387	45.4102	82.0108	45.4102	82.8004	45.4102	82.1751	45.4102	82.5733	45.4102	82.3635
46.875	83.6106	46.875	83.3889	46.875	83.8367	46.875	83.1779	46.875	84.0592	46.875	82.9827	46.875	84.2694	46.875	82.8072	46.875	84.4575	46.875	82.6543	46.875	84.6138	46.875	82.5259	46.875	84.7294	46.875	82.4233	46.875	84.7968	46.875	82.3473	46.875	84.8113	46.875	82.2982	46.875	84.7711	46.875	82.276	46.875	84.678	46.875	82.2806	46.875	84.5374	46.875	82.3119	46.875	84.3573	46.875	82.3693	46.875	84.1482	46.875	82.4527	46.875	83.9214	46.875	82.5616	46.875	83.6879	46.875	82.6957	46.875	83.4575	46.875	82.8542	46.875	83.2382	46.875	83.0359
48.3398	84.1549	48.3398	83.94	48.3398	84.3728	48.3398	83.7346	48.3398	84.5863	48.3398	83.5437	48.3398	84.7867	48.3398	83.3713	48.3398	84.9648	48.3398	83.2203	48.3398	85.1113	48.3398	83.093	48.3398	85.2178	48.3398	82.9906	48.3398	85.2773	48.3398	82.9142	48.3398	85.2856	48.3398	82.8642	48.3398	85.2414	48.3398	82.8407	48.3398	85.1468	48.3398	82.8434	48.3398	85.0071	48.3398	82.8721	48.3398	84.8307	48.3398	82.9264	48.3398	84.6276	48.3398	83.0058	48.3398	84.4088	48.3398	83.1097	48.3398	84.1846	48.3398	83.2377	48.3398	83.9642	48.3398	83.3889	48.3398	83.7549	48.3398	83.562
51.2695	84.8113	51.2695	84.6058	51.2695	85.0185	51.2695	84.4083	51.2695	85.2204	51.2695	84.2235	51.2695	85.409	51.2695	84.0555	51.2695	85.5756	51.2695	83.9074	51.2695	85.7116	51.2695	83.7816	51.2695	85.8091	51.2695	83.6797	51.2695	85.8617	51.2695	83.6029	51.2695	85.8654	51.2695	83.5518	51.2695	85.8193	51.2695	83.5267	51.2695	85.7254	51.2695	83.5276	51.2695	85.5894	51.2695	83.5539	51.2695	85.4191	51.2695	83.6052	51.2695	85.2242	51.2695	83.6809	51.2695	85.0152	51.2695	83.7801	51.2695	84.8018	51.2695	83.9022	51.2695	84.5926	51.2695	84.0462	51.2695	84.394	51.2695	84.2108
52.7344	85.1868	52.7344	84.9854	52.7344	85.3888	52.7344	84.7906	52.7344	85.5843	52.7344	84.6074	52.7344	85.7656	52.7344	84.44	52.7344	85.924	52.7344	84.2915	52.7344	86.0514	52.7344	84.1643	52.7344	86.1401	52.7344	84.0604	52.7344	86.1843	52.7344	83.981	52.7344	86.1803	52.7344	83.9268	52.7344	86.1277	52.7344	83.8982	52.7344	86.0289	52.7344	83.895	52.7344	85.8899	52.7344	83.9169	52.7344	85.7186	52.7344	83.9634	52.7344	85.5249	52.7344	84.0338	52.7344	85.319	52.7344	84.1273	52.7344	85.1103	52.7344	84.2433	52.7344	84.9068	52.7344	84.3807	52.7344	84.7148	52.7344	84.5385
54.1992	85.3818	54.1992	85.1844	54.1992	85.5795	54.1992	84.9932	54.1992	85.7706	54.1992	84.8134	54.1992	85.9474	54.1992	84.6489	54.1992	86.1017	54.1992	84.503	54.1992	86.2254	54.1992	84.3782	54.1992	86.3112	54.1992	84.2765	54.1992	86.3534	54.1992	84.1989	54.1992	86.3486	54.1992	84.1464	54.1992	86.2965	54.1992	84.1192	54.1992	86.1997	54.1992	84.1171	54.1992	86.064	54.1992	84.1398	54.1992	85.8972	54.1992	84.1866	54.1992	85.709	54.1992	84.2566	54.1992	85.5092	54.1992	84.3491	54.1992	85.3068	54.1992	84.4631	54.1992	85.1095	54.1992	84.5976	54.1992	84.923	54.1992	84.7515
55.6641	85.537	55.6641	85.3431	55.6641	85.7304	55.6641	85.1546	55.6641	85.9166	55.6641	84.9765	55.6641	86.0879	55.6641	84.8131	55.6641	86.2364	55.6641	84.6676	55.6641	86.3544	55.6641	84.5427	55.6641	86.4347	55.6641	84.4404	55.6641	86.4721	55.6641	84.362	55.6641	86.4635	55.6641	84.3084	55.6641	86.4086	55.6641	84.2799	55.6641	86.3103	55.6641	84.2764	55.6641	86.1745	55.6641	84.2975	55.6641	86.0092	55.6641	84.3423	55.6641	85.8238	55.6641	84.41	55.6641	85.6279	55.6641	84.4997	55.6641	85.4302	55.6641	84.6103	55.6641	85.238	55.6641	84.7409	55.6641	85.0568	55.6641	84.8903
58.5938	85.7607	58.5938	85.575	58.5938	85.9446	58.5938	85.3934	58.5938	86.1202	58.5938	85.2207	58.5938	86.2803	58.5938	85.0611	58.5938	86.4175	58.5938	84.9183	58.5938	86.5246	58.5938	84.7948	58.5938	86.595	58.5938	84.693	58.5938	86.6241	58.5938	84.6144	58.5938	86.6093	58.5938	84.5598	58.5938	86.5507	58.5938	84.5297	58.5938	86.4516	58.5938	84.5239	58.5938	86.3179	58.5938	84.5421	58.5938	86.1575	58.5938	84.5832	58.5938	85.9795	58.5938	84.6465	58.5938	85.7928	58.5938	84.7307	58.5938	85.6057	58.5938	84.8347	58.5938	85.4246	58.5938	84.9575	58.5938	85.2542	58.5938	85.0978
60.0586	85.8233	60.0586	85.6402	60.0586	86.0043	60.0586	85.4608	60.0586	86.1769	60.0586	85.29	60.0586	86.3339	60.0586	85.132	60.0586	86.4681	60.0586	84.9905	60.0586	86.5724	60.0586	84.8683	60.0586	86.6407	60.0586	84.7676	60.0586	86.6683	60.0586	84.69	60.0586	86.6527	60.0586	84.6365	60.0586	86.5944	60.0586	84.6075	60.0586	86.4967	60.0586	84.6028	60.0586	86.3653	60.0586	84.6218	60.0586	86.2082	60.0586	84.6637	60.0586	86.0342	60.0586	84.7273	60.0586	85.8521	60.0586	84.8113	60.0586	85.6697	60.0586	84.9145	60.0586	85.493	60.0586	85.0356	60.0586	85.3266	60.0586	85.1734
62.9883	85.9408	62.9883	85.763	62.9883	86.1154	62.9883	85.5875	62.9883	86.2805	62.9883	85.4196	62.9883	86.4293	62.9883	85.2634	62.9883	86.555	62.9883	85.1227	62.9883	86.6509	62.9883	85.0007	62.9883	86.7113	62.9883	84.8997	62.9883	86.7321	62.9883	84.8214	62.9883	86.7114	62.9883	84.7671	62.9883	86.6499	62.9883	84.7371	62.9883	86.5512	62.9883	84.7313	62.9883	86.4213	62.9883	84.7491	62.9883	86.2681	62.9883	84.7893	62.9883	86.1	62.9883	84.8507	62.9883	85.9253	62.9883	84.9318	62.9883	85.7511	62.9883	85.0311	62.9883	85.583	62.9883	85.1472	62.9883	85.4247	62.9883	85.2788
64.4531	85.996	64.4531	85.8205	64.4531	86.1677	64.4531	85.6467	64.4531	86.3294	64.4531	85.4798	64.4531	86.4744	64.4531	85.3241	64.4531	86.5961	64.4531	85.1835	64.4531	86.6879	64.4531	85.0612	64.4531	86.7445	64.4531	84.9597	64.4531	86.7619	64.4531	84.8809	64.4531	86.7384	64.4531	84.8258	64.4531	86.6751	64.4531	84.7951	64.4531	86.5756	64.4531	84.7886	64.4531	86.4461	64.4531	84.8056	64.4531	86.2943	64.4531	84.845	64.4531	86.1286	64.4531	84.9053	64.4531	85.9572	64.4531	84.985	64.4531	85.7867	64.4531	85.0824	64.4531	85.6223	64.4531	85.1963	64.4531	85.4677	64.4531	85.3251
67.3828	86.0595	67.3828	85.8878	67.3828	86.2263	67.3828	85.7167	67.3828	86.3821	67.3828	85.5515	67.3828	86.5207	67.3828	85.3965	67.3828	86.6355	67.3828	85.2559	67.3828	86.7206	67.3828	85.133	67.3828	86.7709	67.3828	85.0306	67.3828	86.783	67.3828	84.9508	67.3828	86.7556	67.3828	84.8948	67.3828	86.69	67.3828	84.8632	67.3828	86.5902	67.3828	84.8559	67.3828	86.4623	67.3828	84.8723	67.3828	86.314	67.3828	84.9109	67.3828	86.1533	67.3828	84.9702	67.3828	85.9879	67.3828	85.0485	67.3828	85.824	67.3828	85.1439	67.3828	85.666	67.3828	85.2547	67.3828	85.5172	67.3828	85.3797
68.8477	86.0877	68.8477	85.9173	68.8477	86.2524	68.8477	85.7468	68.8477	86.4055	68.8477	85.5814	68.8477	86.5407	68.8477	85.4256	68.8477	86.6518	68.8477	85.2836	68.8477	86.7331	68.8477	85.159	68.8477	86.7796	68.8477	85.0547	68.8477	86.7882	68.8477	84.9728	68.8477	86.7578	68.8477	84.9148	68.8477	86.6899	68.8477	84.8815	68.8477	86.5886	68.8477	84.8727	68.8477	86.4603	68.8477	84.8877	68.8477	86.3124	68.8477	84.9252	68.8477	86.153	68.8477	84.9836	68.8477	85.9893	68.8477	85.0611	68.8477	85.8274	68.8477	85.1555	68.8477	85.6716	68.8477	85.2653	68.8477	85.5248	68.8477	85.3889
71.7773	86.1655	71.7773	86	71.7773	86.3242	71.7773	85.8331	71.7773	86.4702	71.7773	85.6701	71.7773	86.5975	71.7773	85.5156	71.7773	86.7003	71.7773	85.3738	71.7773	86.7732	71.7773	85.2486	71.7773	86.8117	71.7773	85.143	71.7773	86.8132	71.7773	85.0594	71.7773	86.7771	71.7773	84.9994	71.7773	86.7053	71.7773	84.9639	71.7773	86.6024	71.7773	84.9529	71.7773	86.4746	71.7773	84.9657	71.7773	86.3297	71.7773	85.0009	71.7773	86.1752	71.7773	85.0567	71.7773	86.0179	71.7773	85.131	71.7773	85.8632	71.7773	85.2219	71.7773	85.7148	71.7773	85.3272	71.7773	85.575	71.7773	85.4454
74.707	86.3012	74.707	86.1402	74.707	86.4544	74.707	85.9769	74.707	86.594	74.707	85.8164	74.707	86.7144	74.707	85.6635	74.707	86.8099	74.707	85.5225	74.707	86.8755	74.707	85.3974	74.707	86.907	74.707	85.2913	74.707	86.9023	74.707	85.2069	74.707	86.8611	74.707	85.1458	74.707	86.7858	74.707	85.109	74.707	86.6812	74.707	85.0964	74.707	86.5539	74.707	85.1073	74.707	86.4114	74.707	85.1404	74.707	86.2612	74.707	85.1935	74.707	86.1097	74.707	85.2647	74.707	85.9618	74.707	85.3515	74.707	85.8205	74.707	85.452	74.707	85.6877	74.707	85.5645
77.6367	86.4094	77.6367	86.2528	77.6367	86.5574	77.6367	86.0929	77.6367	86.6912	77.6367	85.9351	77.6367	86.8053	77.6367	85.784	77.6367	86.8943	77.6367	85.6444	77.6367	86.9535	77.6367	85.5202	77.6367	86.9793	77.6367	85.4147	77.6367	86.9699	77.6367	85.3307	77.6367	86.9255	77.6367	85.2699	77.6367	86.8488	77.6367	85.2332	77.6367	86.7447	77.6367	85.2207	77.6367	86.62	77.6367	85.2314	77.6367	86.4821	77.6367	85.264	77.6367	86.338	77.6367	85.3162	77.6367	86.1935	77.6367	85.3857	77.6367	86.0529	77.6367	85.47	77.6367	85.9188	77.6367	85.5671	77.6367	85.7926	77.6367	85.675
79.1016	86.1286	79.1016	85.9678	79.1016	86.2758	79.1016	85.7991	79.1016	86.404	79.1016	85.6281	79.1016	86.508	79.1016	85.4608	79.1016	86.5832	79.1016	85.3028	79.1016	86.6257	79.1016	85.1595	79.1016	86.6331	79.1016	85.0357	79.1016	86.6047	79.1016	84.9354	79.1016	86.5425	79.1016	84.8618	79.1016	86.4509	79.1016	84.8167	79.1016	86.3366	79.1016	84.8006	79.1016	86.2076	79.1016	84.8126	79.1016	86.0715	79.1016	84.8508	79.1016	85.9346	79.1016	84.9119	79.1016	85.8005	79.1016	84.9921	79.1016	85.6708	79.1016	85.0871	79.1016	85.5454	79.1016	85.1928	79.1016	85.4237	79.1016	85.3058
82.0312	86.1729	82.0312	86.0153	82.0312	86.3156	82.0312	85.8485	82.0312	86.438	82.0312	85.6783	82.0312	86.5354	82.0312	85.5106	82.0312	86.6034	82.0312	85.3514	82.0312	86.6386	82.0312	85.2063	82.0312	86.6391	82.0312	85.0804	82.0312	86.6048	82.0312	84.978	82.0312	86.5383	82.0312	84.9024	82.0312	86.4445	82.0312	84.8558	82.0312	86.3302	82.0312	84.8386	82.0312	86.2035	82.0312	84.85	82.0312	86.0718	82.0312	84.888	82.0312	85.9406	82.0312	84.949	82.0312	85.813	82.0312	85.0291	82.0312	85.6897	82.0312	85.1235	82.0312	85.57	82.0312	85.228	82.0312	85.4531	82.0312	85.3387
84.9609	86.2413	84.9609	86.0913	84.9609	86.3765	84.9609	85.9322	84.9609	86.492	84.9609	85.7696	84.9609	86.5835	84.9609	85.6097	84.9609	86.6471	84.9609	85.4585	84.9609	86.6803	84.9609	85.3219	84.9609	86.6817	84.9609	85.205	84.9609	86.652	84.9609	85.1123	84.9609	86.594	84.9609	85.0471	84.9609	86.5128	84.9609	85.0113	84.9609	86.415	84.9609	85.0052	84.9609	86.3078	84.9609	85.0277	84.9609	86.1973	84.9609	85.0761	84.9609	86.0876	84.9609	85.1465	84.9609	85.98	84.9609	85.2342	84.9609	85.874	84.9609	85.3341	84.9609	85.7678	84.9609	85.441	84.9609	85.6601	84.9609	85.5507
87.8906	86.4098	87.8906	86.2545	87.8906	86.5475	87.8906	86.0873	87.8906	86.6625	87.8906	85.914	87.8906	86.7505	87.8906	85.7412	87.8906	86.8078	87.8906	85.5756	87.8906	86.8319	87.8906	85.4235	87.8906	86.8219	87.8906	85.2912	87.8906	86.7788	87.8906	85.1839	87.8906	86.7063	87.8906	85.1058	87.8906	86.6105	87.8906	85.0595	87.8906	86.4992	87.8906	85.0459	87.8906	86.3805	87.8906	85.0638	87.8906	86.2613	87.8906	85.1105	87.8906	86.1456	87.8906	85.1816	87.8906	86.0344	87.8906	85.2717	87.8906	85.9264	87.8906	85.3747	87.8906	85.8188	87.8906	85.4851	87.8906	85.7095	87.8906	85.5978
90.8203	86.5302	90.8203	86.3759	90.8203	86.665	90.8203	86.2077	90.8203	86.7753	90.8203	86.0315	90.8203	86.8568	90.8203	85.8541	90.8203	86.9061	90.8203	85.6819	90.8203	86.9211	90.8203	85.5218	90.8203	86.9011	90.8203	85.38	90.8203	86.8479	90.8203	85.2623	90.8203	86.7656	90.8203	85.1731	90.8203	86.6607	90.8203	85.1156	90.8203	86.5413	90.8203	85.0912	90.8203	86.4159	90.8203	85.0993	90.8203	86.2912	90.8203	85.1376	90.8203	86.171	90.8203	85.2021	90.8203	86.0562	90.8203	85.2874	90.8203	85.9448	90.8203	85.3876	90.8203	85.8345	90.8203	85.4968	90.8203	85.7229	90.8203	85.6098
95.2148	86.6537	95.2148	86.5052	95.2148	86.7807	95.2148	86.3406	95.2148	86.8813	95.2148	86.166	95.2148	86.9518	95.2148	85.9878	95.2148	86.9891	95.2148	85.813	95.2148	86.9916	95.2148	85.6484	95.2148	86.9595	95.2148	85.5007	95.2148	86.8951	95.2148	85.3759	95.2148	86.8034	95.2148	85.279	95.2148	86.6918	95.2148	85.2137	95.2148	86.569	95.2148	85.1819	95.2148	86.4434	95.2148	85.1833	95.2148	86.3215	95.2148	85.2159	95.2148	86.2063	95.2148	85.2757	95.2148	86.0975	95.2148	85.3573	95.2148	85.9924	95.2148	85.4545	95.2148	85.8876	95.2148	85.561	95.2148	85.7806	95.2148	85.6711
98.1445	86.7609	98.1445	86.6162	98.1445	86.8829	98.1445	86.4543	98.1445	86.9775	98.1445	86.2814	98.1445	87.0408	98.1445	86.1041	98.1445	87.0701	98.1445	85.9293	98.1445	87.0639	98.1445	85.7641	98.1445	87.023	98.1445	85.6153	98.1445	86.9503	98.1445	85.4889	98.1445	86.8515	98.1445	85.39	98.1445	86.7345	98.1445	85.3224	98.1445	86.6086	98.1445	85.2878	98.1445	86.4826	98.1445	85.2863	98.1445	86.3627	98.1445	85.3156	98.1445	86.2517	98.1445	85.3718	98.1445	86.1486	98.1445	85.4494	98.1445	86.05	98.1445	85.5422	98.1445	85.952	98.1445	85.6436	98.1445	85.8516	98.1445	85.7482
101.074	86.7884	101.074	86.6472	101.074	86.9058	101.074	86.4877	101.074	86.9947	101.074	86.3162	101.074	87.0514	101.074	86.1395	101.074	87.0737	101.074	85.9647	101.074	87.0605	101.074	85.7993	101.074	87.0134	101.074	85.6501	101.074	86.9358	101.074	85.5235	101.074	86.8344	101.074	85.425	101.074	86.7177	101.074	85.3582	101.074	86.5951	101.074	85.3251	101.074	86.4753	101.074	85.3255	101.074	86.364	101.074	85.357	101.074	86.2628	101.074	85.4155	101.074	86.1695	101.074	85.4951	101.074	86.0799	101.074	85.5891	101.074	85.9891	101.074	85.6907	101.074	85.894	101.074	85.7938
105.469	86.8997	105.469	86.7666	105.469	87.0057	105.469	86.6119	105.469	87.08	105.469	86.4422	105.469	87.1192	105.469	86.2646	105.469	87.1216	105.469	86.0868	105.469	87.0872	105.469	85.9166	105.469	87.0182	105.469	85.7615	105.469	86.9199	105.469	85.6286	105.469	86.8002	105.469	85.5236	105.469	86.6696	105.469	85.4507	105.469	86.5391	105.469	85.412	105.469	86.4182	105.469	85.4073	105.469	86.3127	105.469	85.4341	105.469	86.2231	105.469	85.4877	105.469	86.1455	105.469	85.5617	105.469	86.0732	105.469	85.6488	105.469	85.9997	105.469	85.7417	105.469	85.9203	105.469	85.8337
108.398	87.0611	108.398	86.9288	108.398	87.1662	108.398	86.7749	108.398	87.2397	108.398	86.6056	108.398	87.2784	108.398	86.4278	108.398	87.2801	108.398	86.249	108.398	87.2449	108.398	86.077	108.398	87.1749	108.398	85.9193	108.398	87.075	108.398	85.7831	108.398	86.9535	108.398	85.6743	108.398	86.8208	108.398	85.5976	108.398	86.6883	108.398	85.5555	108.398	86.5658	108.398	85.5481	108.398	86.4593	108.398	85.5731	108.398	86.3691	108.398	85.6259	108.398	86.2912	108.398	85.7001	108.398	86.2186	108.398	85.7882	108.398	86.1445	108.398	85.8825	108.398	86.0641	108.398	85.9761
112.793	87.3296	112.793	87.1957	112.793	87.433	112.793	87.0374	112.793	87.5009	112.793	86.8614	112.793	87.53	112.793	86.6756	112.793	87.5183	112.793	86.4881	112.793	87.4662	112.793	86.3071	112.793	87.3767	112.793	86.141	112.793	87.256	112.793	85.997	112.793	87.1137	112.793	85.8816	112.793	86.9622	112.793	85.7994	112.793	86.8146	112.793	85.7526	112.793	86.6824	112.793	85.7413	112.793	86.572	112.793	85.7627	112.793	86.4837	112.793	85.8118	112.793	86.4122	112.793	85.8817	112.793	86.349	112.793	85.9645	112.793	86.2856	112.793	86.052	112.793	86.2158	112.793	86.1374
117.188	87.4508	117.188	87.3146	117.188	87.5563	117.188	87.1536	117.188	87.6266	117.188	86.9744	117.188	87.6586	117.188	86.7845	117.188	87.6506	117.188	86.592	117.188	87.6029	117.188	86.4056	117.188	87.5182	117.188	86.2337	117.188	87.4025	117.188	86.0842	117.188	87.2647	117.188	85.9642	117.188	87.1168	117.188	85.8788	117.188	86.9715	117.188	85.8308	117.188	86.8399	117.188	85.8206	117.188	86.7285	117.188	85.8454	117.188	86.6375	117.188	85.9	117.188	86.5619	117.188	85.9771	117.188	86.4932	117.188	86.0682	117.188	86.4231	117.188	86.1646	117.188	86.3457	117.188	86.2589
120.117	87.5507	120.117	87.4169	120.117	87.6534	120.117	87.2578	120.117	87.7204	120.117	87.0801	120.117	87.7484	120.117	86.8914	120.117	87.7357	120.117	86.6999	120.117	87.6827	120.117	86.5138	120.117	87.5924	120.117	86.3417	120.117	87.4709	120.117	86.1915	120.117	87.3279	120.117	86.0699	120.117	87.1757	120.117	85.9821	120.117	87.0276	120.117	85.9312	120.117	86.895	120.117	85.9174	120.117	86.7843	120.117	85.9384	120.117	86.6953	120.117	85.9889	120.117	86.6226	120.117	86.062	120.117	86.5572	120.117	86.1492	120.117	86.4904	120.117	86.242	120.117	86.4163	120.117	86.3328
124.512	87.6415	124.512	87.505	124.512	87.7467	124.512	87.3432	124.512	87.816	124.512	87.1631	124.512	87.8461	124.512	86.9726	124.512	87.8356	124.512	86.7803	124.512	87.7852	124.512	86.5952	124.512	87.6982	124.512	86.4259	124.512	87.5812	124.512	86.2807	124.512	87.4443	124.512	86.1666	124.512	87.2999	124.512	86.0885	124.512	87.1612	124.512	86.049	124.512	87.0392	124.512	86.0479	124.512	86.9396	124.512	86.0818	124.512	86.8613	124.512	86.145	124.512	86.7979	124.512	86.2294	124.512	86.7398	124.512	86.326	124.512	86.6777	124.512	86.4258	124.512	86.6054	124.512	86.5207
128.906	87.6725	128.906	87.5365	128.906	87.7727	128.906	87.3709	128.906	87.8322	128.906	87.1833	128.906	87.8481	128.906	86.9821	128.906	87.8198	128.906	86.7765	128.906	87.7495	128.906	86.5761	128.906	87.643	128.906	86.3908	128.906	87.5099	128.906	86.2299	128.906	87.3632	128.906	86.1018	128.906	87.2182	128.906	86.0133	128.906	87.0894	128.906	85.9684	128.906	86.9865	128.906	85.9678	128.906	86.9117	128.906	86.0088	128.906	86.8591	128.906	86.0849	128.906	86.8169	128.906	86.1871	128.906	86.772	128.906	86.3043	128.906	86.7137	128.906	86.4248	128.906	86.6359	128.906	86.5381
133.301	87.7077	133.301	87.5718	133.301	87.8061	133.301	87.4047	133.301	87.8623	133.301	87.214	133.301	87.8736	133.301	87.0084	133.301	87.8398	133.301	86.7977	133.301	87.7638	133.301	86.592	133.301	87.6521	133.301	86.4019	133.301	87.5152	133.301	86.2375	133.301	87.3674	133.301	86.1081	133.301	87.2248	133.301	86.0209	133.301	87.1021	133.301	85.9801	133.301	87.009	133.301	85.9865	133.301	86.9462	133.301	86.0367	133.301	86.9062	133.301	86.1234	133.301	86.8755	133.301	86.2364	133.301	86.8395	133.301	86.3635	133.301	86.7867	133.301	86.4921	133.301	86.7106	133.301	86.6108
139.16	87.7724	139.16	87.6343	139.16	87.8691	139.16	87.4611	139.16	87.9198	139.16	87.2606	139.16	87.922	139.16	87.0419	139.16	87.876	139.16	86.8154	139.16	87.7854	139.16	86.592	139.16	87.658	139.16	86.3834	139.16	87.5056	139.16	86.2012	139.16	87.3446	139.16	86.0562	139.16	87.193	139.16	85.9573	139.16	87.067	139.16	85.91	139.16	86.9763	139.16	85.9156	139.16	86.9206	139.16	85.9705	139.16	86.8901	139.16	86.0666	139.16	86.8685	139.16	86.1919	139.16	86.839	139.16	86.3326	139.16	86.7885	139.16	86.4742	139.16	86.7101	139.16	86.6034
143.555	87.8117	143.555	87.6713	143.555	87.9082	143.555	87.4931	143.555	87.956	143.555	87.2852	143.555	87.9528	143.555	87.0568	143.555	87.8992	143.555	86.8184	143.555	87.7991	143.555	86.5814	143.555	87.6605	143.555	86.3583	143.555	87.4964	143.555	86.1614	143.555	87.324	143.555	86.0027	143.555	87.1625	143.555	85.8922	143.555	87.0293	143.555	85.8364	143.555	86.9346	143.555	85.8375	143.555	86.8781	143.555	85.8919	143.555	86.8486	143.555	85.991	143.555	86.8286	143.555	86.1222	143.555	86.8	143.555	86.2702	143.555	86.7487	143.555	86.4193	143.555	86.6672	143.555	86.5553
147.949	87.8499	147.949	87.7105	147.949	87.9427	147.949	87.5307	147.949	87.9848	147.949	87.3184	147.949	87.9739	147.949	87.0826	147.949	87.9111	147.949	86.834	147.949	87.8007	147.949	86.5843	147.949	87.6518	147.949	86.3464	147.949	87.4779	147.949	86.1334	147.949	87.2973	147.949	85.9587	147.949	87.1301	147.949	85.8335	147.949	86.9943	147.949	85.7659	147.949	86.8998	147.949	85.7592	147.949	86.8453	147.949	85.8104	147.949	86.8181	147.949	85.911	147.949	86.7994	147.949	86.0474	147.949	86.7698	147.949	86.2034	147.949	86.7147	147.949	86.3617	147.949	86.627	147.949	86.507
153.809	87.9145	153.809	87.7864	153.809	87.9928	153.809	87.6144	153.809	88.0172	153.809	87.4059	153.809	87.986	153.809	87.1697	153.809	87.9004	153.809	86.9159	153.809	87.7656	153.809	86.6559	153.809	87.5913	153.809	86.4024	153.809	87.3927	153.809	86.1691	153.809	87.19	153.809	85.97	153.809	87.0058	153.809	85.818	153.809	86.8597	153.809	85.7236	153.809	86.7622	153.809	85.6921	153.809	86.7107	153.809	85.7229	153.809	86.6899	153.809	85.8085	153.809	86.6781	153.809	85.9358	153.809	86.6537	153.809	86.0877	153.809	86.6013	153.809	86.2456	153.809	86.5137	153.809	86.3923
159.668	88.1133	159.668	87.9816	159.668	88.1945	159.668	87.8056	159.668	88.2206	159.668	87.5931	159.668	88.1896	159.668	87.3532	159.668	88.1023	159.668	87.0964	159.668	87.9633	159.668	86.8344	159.668	87.7822	159.668	86.5799	159.668	87.574	159.668	86.3466	159.668	87.3591	159.668	86.1482	159.668	87.1607	159.668	85.9972	159.668	87	159.668	85.9032	159.668	86.8896	159.668	85.8711	159.668	86.8284	159.668	85.8995	159.668	86.8023	159.668	85.9808	159.668	86.7895	159.668	86.1016	159.668	86.7682	159.668	86.2452	159.668	86.7219	159.668	86.3938	159.668	86.6425	159.668	86.5306
165.527	88.2117	165.527	88.0861	165.527	88.2845	165.527	87.9142	165.527	88.3005	165.527	87.7036	165.527	88.2578	165.527	87.4637	165.527	88.1582	165.527	87.2051	165.527	88.0075	165.527	86.9399	165.527	87.817	165.527	86.6815	165.527	87.6042	165.527	86.4444	165.527	87.3921	165.527	86.2436	165.527	87.206	165.527	86.0926	165.527	87.0675	165.527	86.0023	165.527	86.9869	165.527	85.9781	165.527	86.9588	165.527	86.0186	165.527	86.9638	165.527	86.1154	165.527	86.9759	165.527	86.254	165.527	86.9708	165.527	86.4158	165.527	86.9316	165.527	86.581	165.527	86.8511	165.527	86.7311
171.387	88.1451	171.387	88.0125	171.387	88.2222	171.387	87.831	171.387	88.2393	171.387	87.6087	171.387	88.1944	171.387	87.3553	171.387	88.0891	171.387	87.082	171.387	87.9292	171.387	86.8014	171.387	87.7265	171.387	86.5281	171.387	87.4998	171.387	86.2779	171.387	87.2744	171.387	86.0674	171.387	87.0788	171.387	85.912	171.387	86.9376	171.387	85.8239	171.387	86.8631	171.387	85.8092	171.387	86.8488	171.387	85.8661	171.387	86.8723	171.387	85.9841	171.387	86.9031	171.387	86.1459	171.387	86.9133	171.387	86.3302	171.387	86.8832	171.387	86.5144	171.387	86.8042	171.387	86.6779
177.246	88.0732	177.246	87.9379	177.246	88.1519	177.246	87.7524	177.246	88.1694	177.246	87.5248	177.246	88.1237	177.246	87.2643	177.246	88.0159	177.246	86.9819	177.246	87.8518	177.246	86.6899	177.246	87.6428	177.246	86.4028	177.246	87.4073	177.246	86.1366	177.246	87.1707	177.246	85.9086	177.246	86.9627	177.246	85.7358	177.246	86.8096	177.246	85.6322	177.246	86.7252	177.246	85.6059	177.246	86.7041	177.246	85.6564	177.246	86.7234	177.246	85.7739	177.246	86.7513	177.246	85.9404	177.246	86.7581	177.246	86.1331	177.246	86.723	177.246	86.3275	177.246	86.6369	177.246	86.5014
183.105	87.9539	183.105	87.822	183.105	88.026	183.105	87.6366	183.105	88.0344	183.105	87.4054	183.105	87.9775	183.105	87.1376	183.105	87.8572	183.105	86.8441	183.105	87.6804	183.105	86.5379	183.105	87.4602	183.105	86.2342	183.105	87.2169	183.105	85.9506	183.105	86.9784	183.105	85.7065	183.105	86.7757	183.105	85.5211	183.105	86.6349	183.105	85.4107	183.105	86.5675	183.105	85.3847	183.105	86.5642	183.105	85.4425	183.105	86.5983	183.105	85.573	183.105	86.6356	183.105	85.7561	183.105	86.6457	183.105	85.9667	183.105	86.6081	183.105	86.1784	183.105	86.5144	183.105	86.3673
188.965	88.0546	188.965	87.9459	188.965	88.0972	188.965	87.7769	188.965	88.0701	188.965	87.5548	188.965	87.9718	188.965	87.2882	188.965	87.8052	188.965	86.9873	188.965	87.5781	188.965	86.664	188.965	87.3058	188.965	86.3335	188.965	87.0127	188.965	86.0137	188.965	86.732	188.965	85.7256	188.965	86.5015	188.965	85.4919	188.965	86.3521	188.965	85.3336	188.965	86.2957	188.965	85.2656	188.965	86.3176	188.965	85.2918	188.965	86.3824	188.965	85.4034	188.965	86.4479	188.965	85.5798	188.965	86.4785	188.965	85.7927	188.965	86.4519	188.965	86.0117	188.965	86.3602	188.965	86.2085
196.289	88.2242	196.289	88.117	196.289	88.265	196.289	87.9511	196.289	88.2336	196.289	87.7354	196.289	88.1268	196.289	87.479	196.289	87.9458	196.289	87.1916	196.289	87.6983	196.289	86.884	196.289	87.4006	196.289	86.5682	196.289	87.0799	196.289	86.2588	196.289	86.7734	196.289	85.9729	196.289	86.5236	196.289	85.7301	196.289	86.3651	196.289	85.5507	196.289	86.3099	196.289	85.4514	196.289	86.3398	196.289	85.4412	196.289	86.4148	196.289	85.5174	196.289	86.4886	196.289	85.6644	196.289	86.5239	196.289	85.8568	196.289	86.4987	196.289	86.064	196.289	86.4069	196.289	86.256
203.613	88.2019	203.613	88.0733	203.613	88.258	203.613	87.8813	203.613	88.2343	203.613	87.6357	203.613	88.1259	203.613	87.3467	203.613	87.9318	203.613	87.0252	203.613	87.6575	203.613	86.6833	203.613	87.3175	203.613	86.3343	203.613	86.9387	203.613	85.9942	203.613	86.5621	203.613	85.682	203.613	86.2393	203.613	85.4191	203.613	86.0183	203.613	85.2271	203.613	85.9235	203.613	85.1237	203.613	85.9415	203.613	85.1171	203.613	86.0272	203.613	85.2023	203.613	86.1247	203.613	85.3607	203.613	86.187	203.613	85.5633	203.613	86.1853	203.613	85.7765	203.613	86.1102	203.613	85.9678
210.938	88.1862	210.938	88.0594	210.938	88.2431	210.938	87.8713	210.938	88.2224	210.938	87.6309	210.938	88.1187	210.938	87.3475	210.938	87.9297	210.938	87.03	210.938	87.6589	210.938	86.6882	210.938	87.3175	210.938	86.3331	210.938	86.9286	210.938	85.9784	210.938	86.5291	210.938	85.6416	210.938	86.1683	210.938	85.344	210.938	85.8969	210.938	85.1094	210.938	85.7478	210.938	84.96	210.938	85.7178	210.938	84.9098	210.938	85.7685	210.938	84.959	210.938	85.8447	210.938	85.0915	210.938	85.8959	210.938	85.2782	210.938	85.8896	210.938	85.4832	210.938	85.813	210.938	85.6712
218.262	88.0737	218.262	87.9575	218.262	88.1242	218.262	87.7838	218.262	88.1019	218.262	87.5615	218.262	88.0023	218.262	87.2997	218.262	87.8245	218.262	87.0078	218.262	87.5733	218.262	86.6955	218.262	87.2615	218.262	86.3737	218.262	86.9118	218.262	86.0554	218.262	86.5591	218.262	85.7566	218.262	86.2469	218.262	85.4958	218.262	86.0176	218.262	85.2932	218.262	85.8959	218.262	85.1667	218.262	85.8759	218.262	85.1273	218.262	85.923	218.262	85.1744	218.262	85.9893	218.262	85.2944	218.262	86.0316	218.262	85.4623	218.262	86.0216	218.262	85.6472	218.262	85.9487	218.262	85.8181
225.586	88.1506	225.586	88.0406	225.586	88.1827	225.586	87.8615	225.586	88.1296	225.586	87.6231	225.586	87.9871	225.586	87.3357	225.586	87.7554	225.586	87.0104	225.586	87.4423	225.586	86.659	225.586	87.0657	225.586	86.296	225.586	86.6578	225.586	85.9384	225.586	86.2663	225.586	85.6077	225.586	85.9493	225.586	85.3282	225.586	85.7573	225.586	85.1253	225.586	85.7099	225.586	85.0195	225.586	85.7828	225.586	85.02	225.586	85.9198	225.586	85.1203	225.586	86.0582	225.586	85.2981	225.586	86.1488	225.586	85.5201	225.586	86.1637	225.586	85.7492	225.586	86.095	225.586	85.9503
232.91	88.248	232.91	88.1216	232.91	88.2963	232.91	87.9275	232.91	88.2572	232.91	87.676	232.91	88.1231	232.91	87.3771	232.91	87.8901	232.91	87.0405	232.91	87.5604	232.91	86.676	232.91	87.1453	232.91	86.2951	232.91	86.6714	232.91	85.9122	232.91	86.185	232.91	85.5464	232.91	85.7531	232.91	85.2226	232.91	85.4491	232.91	84.9694	232.91	85.3207	232.91	84.8139	232.91	85.3603	232.91	84.7734	232.91	85.5069	232.91	84.8473	232.91	85.6795	232.91	85.0142	232.91	85.8102	232.91	85.2368	232.91	85.8584	232.91	85.4707	232.91	85.8104	232.91	85.6735
241.699	88.173	241.699	88.0346	241.699	88.2352	241.699	87.8308	241.699	88.2109	241.699	87.5724	241.699	88.0915	241.699	87.269	241.699	87.8716	241.699	86.9298	241.699	87.5512	241.699	86.5636	241.699	87.1393	241.699	86.1805	241.699	86.6584	241.699	85.7933	241.699	86.1508	241.699	85.4201	241.699	85.6813	241.699	85.0847	241.699	85.3268	241.699	84.8164	241.699	85.1459	241.699	84.6439	241.699	85.1441	241.699	84.5872	241.699	85.2672	241.699	84.6479	241.699	85.4323	241.699	84.8054	241.699	85.5655	241.699	85.0218	241.699	85.6205	241.699	85.2511	241.699	85.5798	241.699	85.4491
250.488	88.083	250.488	87.9253	250.488	88.1667	250.488	87.7043	250.488	88.1661	250.488	87.4306	250.488	88.0727	250.488	87.1142	250.488	87.8808	250.488	86.764	250.488	87.5896	250.488	86.3889	250.488	87.2055	250.488	85.9985	250.488	86.7465	250.488	85.6057	250.488	86.2486	250.488	85.2284	250.488	85.7696	250.488	84.8909	250.488	85.3838	250.488	84.6227	250.488	85.1559	250.488	84.4534	250.488	85.1047	250.488	84.4029	250.488	85.1885	250.488	84.4723	250.488	85.3283	250.488	84.6401	250.488	85.4474	250.488	84.8669	250.488	85.4945	250.488	85.1055	250.488	85.448	250.488	85.311
259.277	88.2005	259.277	88.0527	259.277	88.2788	259.277	87.845	259.277	88.2781	259.277	87.5871	259.277	88.1908	259.277	87.2873	259.277	88.0115	259.277	86.9526	259.277	87.7389	259.277	86.5891	259.277	87.377	259.277	86.2031	259.277	86.9388	259.277	85.8033	259.277	86.4513	259.277	85.4037	259.277	85.9617	259.277	85.0255	259.277	85.5352	259.277	84.6982	259.277	85.2378	259.277	84.4559	259.277	85.1031	259.277	84.3283	259.277	85.1086	259.277	84.3287	259.277	85.1879	259.277	84.4448	259.277	85.2652	259.277	84.6405	259.277	85.2848	259.277	84.8666	259.277	85.2204	259.277	85.0732
268.066	87.8374	268.066	87.6946	268.066	87.9063	268.066	87.4884	268.066	87.8923	268.066	87.2297	268.066	87.7888	268.066	86.9286	268.066	87.5935	268.066	86.5941	268.066	87.3106	268.066	86.2343	268.066	86.9524	268.066	85.8574	268.066	86.5427	268.066	85.4734	268.066	86.1185	268.066	85.0972	268.066	85.73	268.066	84.7508	268.066	85.4321	268.066	84.464	268.066	85.2651	268.066	84.2704	268.066	85.2331	268.066	84.1978	268.066	85.2982	268.066	84.256	268.066	85.3971	268.066	84.4288	268.066	85.4678	268.066	84.6765	268.066	85.4667	268.066	84.9481	268.066	85.3742	268.066	85.1937
276.855	87.8159	276.855	87.6712	276.855	87.8875	276.855	87.4651	276.855	87.8757	276.855	87.2085	276.855	87.7723	276.855	86.9112	276.855	87.573	276.855	86.5807	276.855	87.2793	276.855	86.2222	276.855	86.9005	276.855	85.8398	276.855	86.4576	276.855	85.4392	276.855	85.9866	276.855	85.031	276.855	85.5416	276.855	84.6354	276.855	85.1874	276.855	84.2843	276.855	84.9781	276.855	84.0194	276.855	84.9263	276.855	83.8814	276.855	84.9911	276.855	83.8933	276.855	85.0982	276.855	84.0457	276.855	85.1741	276.855	84.2971	276.855	85.1688	276.855	84.5879	276.855	85.0615	276.855	84.8584
287.109	87.8082	287.109	87.7072	287.109	87.8279	287.109	87.5351	287.109	87.7582	287.109	87.3026	287.109	87.5943	287.109	87.0194	287.109	87.3369	287.109	86.6933	287.109	86.9936	287.109	86.3295	287.109	86.581	287.109	85.9319	287.109	86.1269	287.109	85.5053	287.109	85.6712	287.109	85.0593	287.109	85.2652	287.109	84.6131	287.109	84.9636	287.109	84.2005	287.109	84.8051	287.109	83.8695	287.109	84.7906	287.109	83.6728	287.109	84.8764	287.109	83.6471	287.109	84.9912	287.109	83.7904	287.109	85.065	287.109	84.0584	287.109	85.0483	287.109	84.381	287.109	84.9201	287.109	84.6868
297.363	87.9049	297.363	87.7961	297.363	87.9209	297.363	87.6067	297.363	87.8338	297.363	87.3494	297.363	87.6379	297.363	87.0361	297.363	87.3345	297.363	86.6765	297.363	86.9348	297.363	86.2783	297.363	86.4639	297.363	85.8481	297.363	85.9616	297.363	85.393	297.363	85.4828	297.363	84.9248	297.363	85.0895	297.363	84.4646	297.363	84.8339	297.363	84.0476	297.363	84.7373	297.363	83.7224	297.363	84.7765	297.363	83.5411	297.363	84.8928	297.363	83.5373	297.363	85.0153	297.363	83.7055	297.363	85.0823	297.363	83.997	297.363	85.053	297.363	84.3397	297.363	84.9106	297.363	84.6624
307.617	87.9581	307.617	87.7901	307.617	88.0374	307.617	87.5545	307.617	88.0077	307.617	87.2712	307.617	87.8534	307.617	86.9557	307.617	87.5658	307.617	86.6174	307.617	87.1472	307.617	86.2586	307.617	86.6147	307.617	85.876	307.617	86.0079	307.617	85.4636	307.617	85.3967	307.617	85.0179	307.617	84.882	307.617	84.5447	307.617	84.5694	307.617	84.0679	307.617	84.5074	307.617	83.6356	307.617	84.6454	307.617	83.3188	307.617	84.8639	307.617	83.1902	307.617	85.0435	307.617	83.2862	307.617	85.1053	307.617	83.5789	307.617	85.0154	307.617	83.9871	307.617	84.7749	307.617	84.4133
319.336	87.4748	319.336	87.3014	319.336	87.5715	319.336	87.0707	319.336	87.5734	319.336	86.8015	319.336	87.465	319.336	86.5099	319.336	87.2338	319.336	86.2061	319.336	86.8712	319.336	85.8932	319.336	86.3759	319.336	85.5677	319.336	85.7604	319.336	85.2227	319.336	85.067	319.336	84.8533	319.336	84.388	319.336	84.4632	319.336	83.8702	319.336	84.0718	319.336	83.6546	319.336	83.7185	319.336	83.7629	319.336	83.4592	319.336	84.0666	319.336	83.3501	319.336	84.3886	319.336	83.4188	319.336	84.6016	319.336	83.6438	319.336	84.6497	319.336	83.9593	319.336	84.5315	319.336	84.2814
329.59	87.6811	329.59	87.4779	329.59	87.8054	329.59	87.2141	329.59	87.8346	329.59	86.9092	329.59	87.7559	329.59	86.5804	329.59	87.5596	329.59	86.2399	329.59	87.2393	329.59	85.8921	329.59	86.7917	329.59	85.5332	329.59	86.2197	329.59	85.1539	329.59	85.5396	329.59	84.7442	329.59	84.7995	329.59	84.3014	329.59	84.1019	329.59	83.8385	329.59	83.5999	329.59	83.3932	329.59	83.417	329.59	83.0302	329.59	83.5327	329.59	82.8264	329.59	83.7883	329.59	82.834	329.59	84.0073	329.59	83.0417	329.59	84.0806	329.59	83.372	329.59	83.9753	329.59	83.7163
341.309	87.2739	341.309	87.0656	341.309	87.3955	341.309	86.789	341.309	87.4167	341.309	86.4669	341.309	87.3306	341.309	86.1226	341.309	87.1369	341.309	85.7769	341.309	86.8423	341.309	85.4433	341.309	86.4606	341.309	85.1261	341.309	86.0118	341.309	84.8212	341.309	85.5236	341.309	84.5198	341.309	85.037	341.309	84.2155	341.309	84.6114	341.309	83.9121	341.309	84.3168	341.309	83.6302	341.309	84.1995	341.309	83.4087	341.309	84.2408	341.309	83.2959	341.309	84.3574	341.309	83.3273	341.309	84.4477	341.309	83.5013	341.309	84.4389	341.309	83.7717	341.309	84.3049	341.309	84.0645
353.027	87.2972	353.027	87.0691	353.027	87.4205	353.027	86.7581	353.027	87.423	353.027	86.3895	353.027	87.2953	353.027	85.9896	353.027	87.0352	353.027	85.5808	353.027	86.6482	353.027	85.1778	353.027	86.1467	353.027	84.7855	353.027	85.5525	353.027	84.4004	353.027	84.9022	353.027	84.0158	353.027	84.2584	353.027	83.6304	353.027	83.7168	353.027	83.2573	353.027	83.3853	353.027	82.9312	353.027	83.3212	353.027	82.7059	353.027	83.4753	353.027	82.6362	353.027	83.7184	353.027	82.7464	353.027	83.9179	353.027	83.0076	353.027	83.9888	353.027	83.3453	353.027	83.9007	353.027	83.6692
366.211	87.1143	366.211	86.8917	366.211	87.2309	366.211	86.5835	366.211	87.2274	366.211	86.2145	366.211	87.0954	366.211	85.8115	366.211	86.8326	366.211	85.3995	366.211	86.4438	366.211	84.9962	366.211	85.9403	366.211	84.6092	366.211	85.3426	366.211	84.2357	366.211	84.6862	366.211	83.8674	366.211	84.0349	366.211	83.4989	366.211	83.491	366.211	83.1377	366.211	83.1748	366.211	82.8133	366.211	83.1494	366.211	82.5778	366.211	83.3546	366.211	82.4916	366.211	83.6411	366.211	82.5904	366.211	83.8633	366.211	82.8552	366.211	83.9338	366.211	83.2129	366.211	83.8271	366.211	83.5665
379.395	87.6724	379.395	87.4277	379.395	87.82	379.395	87.1107	379.395	87.8499	379.395	86.7487	379.395	87.7469	379.395	86.367	379.395	87.5007	379.395	85.9835	379.395	87.106	379.395	85.6035	379.395	86.5627	379.395	85.2192	379.395	85.879	379.395	84.8122	379.395	85.0819	379.395	84.3619	379.395	84.2389	379.395	83.8551	379.395	83.4835	379.395	83.2988	379.395	82.9953	379.395	82.7335	379.395	82.8838	379.395	82.2431	379.395	83.072	379.395	81.941	379.395	83.3572	379.395	81.916	379.395	83.557	379.395	82.1644	379.395	83.5746	379.395	82.5834	379.395	83.3884	379.395	83.0317
392.578	87.2442	392.578	86.9676	392.578	87.4211	392.578	86.609	392.578	87.4888	392.578	86.1944	392.578	87.443	392.578	85.7571	392.578	87.2823	392.578	85.3311	392.578	87.0063	392.578	84.9426	392.578	86.612	392.578	84.601	392.578	86.0932	392.578	84.2966	392.578	85.4437	392.578	84.0054	392.578	84.6756	392.578	83.7012	392.578	83.858	392.578	83.3683	392.578	83.1555	392.578	83.0157	392.578	82.7838	392.578	82.6857	392.578	82.823	392.578	82.4514	392.578	83.1104	392.578	82.3895	392.578	83.3961	392.578	82.5305	392.578	83.5172	392.578	82.826	392.578	83.4276	392.578	83.1658
405.762	87.2337	405.762	86.9539	405.762	87.3745	405.762	86.5497	405.762	87.3704	405.762	86.0449	405.762	87.2246	405.762	85.4717	405.762	86.9491	405.762	84.8685	405.762	86.5643	405.762	84.2753	405.762	86.0952	405.762	83.7267	405.762	85.5651	405.762	83.2455	405.762	84.9914	405.762	82.8408	405.762	84.3923	405.762	82.5118	405.762	83.8075	405.762	82.2573	405.762	83.321	405.762	82.0858	405.762	83.0438	405.762	82.0186	405.762	83.0296	405.762	82.081	405.762	83.2045	405.762	82.2809	405.762	83.4143	405.762	82.5907	405.762	83.5258	405.762	82.9465	405.762	83.4758	405.762	83.2666
420.41	87.4103	420.41	87.1261	420.41	87.5768	420.41	86.7475	420.41	87.6106	420.41	86.3047	420.41	87.5037	420.41	85.8305	420.41	87.2527	420.41	85.3529	420.41	86.857	420.41	84.8865	420.41	86.3152	420.41	84.4275	420.41	85.624	420.41	83.9554	420.41	84.7827	420.41	83.442	420.41	83.8179	420.41	82.866	420.41	82.8359	420.41	82.2339	420.41	82.0774	420.41	81.6044	420.41	81.8253	420.41	81.105	420.41	82.1081	420.41	80.9007	420.41	82.6315	420.41	81.085	420.41	83.0747	420.41	81.5857	420.41	83.2659	420.41	82.2146	420.41	83.1598	420.41	82.7834
435.059	87.1993	435.059	86.9353	435.059	87.3312	435.059	86.5582	435.059	87.3244	435.059	86.1006	435.059	87.1833	435.059	85.6059	435.059	86.9213	435.059	85.1197	435.059	86.5584	435.059	84.6769	435.059	86.116	435.059	84.2896	435.059	85.607	435.059	83.9439	435.059	85.0269	435.059	83.6066	435.059	84.3578	435.059	83.2409	435.059	83.5988	435.059	82.8238	435.059	82.826	435.059	82.3652	435.059	82.2353	435.059	81.9242	435.059	82.0418	435.059	81.6089	435.059	82.238	435.059	81.533	435.059	82.5715	435.059	81.7305	435.059	82.7865	435.059	82.1099	435.059	82.7627	435.059	82.5056
451.172	87.5738	451.172	87.2021	451.172	87.7784	451.172	86.6926	451.172	87.7998	451.172	86.09	451.172	87.6328	451.172	85.4526	451.172	87.2841	451.172	84.8414	451.172	86.7741	451.172	84.303	451.172	86.1375	451.172	83.8511	451.172	85.417	451.172	83.4619	451.172	84.6516	451.172	83.0849	451.172	83.875	451.172	82.6681	451.172	83.1426	451.172	82.1858	451.172	82.5796	451.172	81.6691	451.172	82.3643	451.172	81.2285	451.172	82.5618	451.172	81.036	451.172	82.9983	451.172	81.2207	451.172	83.3996	451.172	81.7439	451.172	83.5736	451.172	82.4178	451.172	83.4473	451.172	83.0351
465.82	87.5792	465.82	87.236	465.82	87.7642	465.82	86.7607	465.82	87.7771	465.82	86.1939	465.82	87.6155	465.82	85.5897	465.82	87.2882	465.82	85.007	465.82	86.8152	465.82	84.4928	465.82	86.2234	465.82	84.0637	465.82	85.5342	465.82	83.6969	465.82	84.7502	465.82	83.3395	465.82	83.8584	465.82	82.9299	465.82	82.8752	465.82	82.4233	465.82	81.941	465.82	81.8194	465.82	81.3736	465.82	81.1925	465.82	81.4245	465.82	80.7113	465.82	81.9125	465.82	80.5839	465.82	82.4165	465.82	80.891	465.82	82.6539	465.82	81.4842	465.82	82.5374	465.82	82.1049
483.398	87.4071	483.398	87.0119	483.398	87.6151	483.398	86.4545	483.398	87.6306	483.398	85.7885	483.398	87.4625	483.398	85.0991	483.398	87.1322	483.398	84.4888	483.398	86.6735	483.398	84.0394	483.398	86.1282	483.398	83.7671	483.398	85.5275	483.398	83.609	483.398	84.8664	483.398	83.4549	483.398	84.0914	483.398	83.1898	483.398	83.1392	483.398	82.7271	483.398	82.0566	483.398	82.0342	483.398	81.1891	483.398	81.1757	483.398	81.0758	483.398	80.385	483.398	81.7017	483.398	80.0601	483.398	82.4453	483.398	80.4447	483.398	82.8386	483.398	81.2988	483.398	82.7353	483.398	82.1693
499.512	87.8436	499.512	87.4399	499.512	88.0101	499.512	86.8085	499.512	87.9415	499.512	85.9771	499.512	87.6517	499.512	85.005	499.512	87.1748	499.512	83.9968	499.512	86.575	499.512	83.1035	499.512	85.9446	499.512	82.4796	499.512	85.3715	499.512	82.1918	499.512	84.8778	499.512	82.1595	499.512	84.3796	499.512	82.2086	499.512	83.7226	499.512	82.1732	499.512	82.7972	499.512	81.9568	499.512	81.7118	499.512	81.5551	499.512	80.9387	499.512	81.0737	499.512	80.9432	499.512	80.7296	499.512	81.4622	499.512	80.7445	499.512	81.897	499.512	81.1274	499.512	81.9509	499.512	81.6302
517.09	88.2061	517.09	87.7896	517.09	88.4126	517.09	87.1897	517.09	88.3966	517.09	86.4511	517.09	88.1585	517.09	85.6397	517.09	87.7163	517.09	84.837	517.09	87.1118	517.09	84.1239	517.09	86.4122	517.09	83.5519	517.09	85.6913	517.09	83.1184	517.09	84.9866	517.09	82.7641	517.09	84.2589	517.09	82.3981	517.09	83.4039	517.09	81.9355	517.09	82.3469	517.09	81.3341	517.09	81.214	517.09	80.6303	517.09	80.4537	517.09	79.9767	517.09	80.4514	517.09	79.6289	517.09	80.916	517.09	79.7727	517.09	81.2886	517.09	80.3049	517.09	81.2892	517.09	80.9079
536.133	87.8378	536.133	87.443	536.133	87.9804	536.133	86.8116	536.133	87.8663	536.133	85.9759	536.133	87.5031	536.133	84.9955	536.133	86.9225	536.133	83.9679	536.133	86.2017	536.133	83.0341	536.133	85.4757	536.133	82.3539	536.133	84.9016	536.133	82.0273	536.133	84.5524	536.133	82.0038	536.133	84.3275	536.133	82.1012	536.133	84.0022	536.133	82.1223	536.133	83.3794	536.133	81.942	536.133	82.4495	536.133	81.5336	536.133	81.5281	536.133	80.9829	536.133	81.1178	536.133	80.503	536.133	81.2709	536.133	80.3603	536.133	81.512	536.133	80.6396	536.133	81.4758	536.133	81.1193
555.176	88.2173	555.176	87.8646	555.176	88.3578	555.176	87.3391	555.176	88.2513	555.176	86.6842	555.176	87.8696	555.176	85.9445	555.176	87.2005	555.176	85.1633	555.176	86.2655	555.176	84.3824	555.176	85.1494	555.176	83.6515	555.176	84.032	555.176	83.0298	555.176	83.1762	555.176	82.5573	555.176	82.754	555.176	82.2049	555.176	82.6121	555.176	81.8681	555.176	82.3945	555.176	81.4232	555.176	81.9032	555.176	80.7951	555.176	81.292	555.176	80.0178	555.176	80.9384	555.176	79.3011	555.176	80.9436	555.176	79.0152	555.176	80.9689	555.176	79.363	555.176	80.6915	555.176	80.0717
574.219	88.2173	574.219	87.8219	574.219	88.4162	574.219	87.2735	574.219	88.3836	574.219	86.6217	574.219	88.0917	574.219	85.9137	574.219	87.5184	574.219	85.183	574.219	86.656	574.219	84.4464	574.219	85.5388	574.219	83.7145	574.219	84.291	574.219	83.0081	574.219	83.1543	574.219	82.3619	574.219	82.3742	574.219	81.7994	574.219	81.9435	574.219	81.3044	574.219	81.6025	574.219	80.827	574.219	81.1907	574.219	80.3345	574.219	80.8807	574.219	79.8837	574.219	80.963	574.219	79.6571	574.219	81.3512	574.219	79.8534	574.219	81.6476	574.219	80.4393	574.219	81.5797	574.219	81.1199
594.727	87.7465	594.727	87.3548	594.727	88.006	594.727	86.8704	594.727	88.094	594.727	86.3315	594.727	87.9697	594.727	85.7684	594.727	87.5919	594.727	85.1972	594.727	86.9323	594.727	84.6219	594.727	85.9957	594.727	84.047	594.727	84.8402	594.727	83.4895	594.727	83.5887	594.727	82.9784	594.727	82.4283	594.727	82.5325	594.727	81.5566	594.727	82.1358	594.727	81.0498	594.727	81.7378	594.727	80.8281	594.727	81.2871	594.727	80.8089	594.727	80.7816	594.727	80.9515	594.727	80.3167	594.727	81.1405	594.727	80.0789	594.727	81.1921	594.727	80.2023	594.727	80.9935	594.727	80.5934
615.234	88.3249	615.234	87.917	615.234	88.5419	615.234	87.363	615.234	88.5346	615.234	86.72	615.234	88.2807	615.234	86.051	615.234	87.7753	615.234	85.4127	615.234	87.0476	615.234	84.8429	615.234	86.1764	615.234	84.3516	615.234	85.2741	615.234	83.9181	615.234	84.4147	615.234	83.4949	615.234	83.5425	615.234	83.0204	615.234	82.4693	615.234	82.4342	615.234	81.0448	615.234	81.6934	615.234	79.5725	615.234	80.8015	615.234	79.1428	615.234	79.8772	615.234	80.077	615.234	79.2439	615.234	81.1881	615.234	79.3005	615.234	81.7374	615.234	80.0326	615.234	81.6196	615.234	80.9606
637.207	88.0765	637.207	87.6647	637.207	88.2563	637.207	87.06	637.207	88.1773	637.207	86.3172	637.207	87.8235	637.207	85.5078	637.207	87.1946	637.207	84.72	637.207	86.3251	637.207	84.0511	637.207	85.3163	637.207	83.5767	637.207	84.3506	637.207	83.3038	637.207	83.6138	637.207	83.1576	637.207	83.1079	637.207	83.0252	637.207	82.5835	637.207	82.8066	637.207	81.7695	637.207	82.4347	637.207	80.7718	637.207	81.8922	637.207	80.3651	637.207	81.2651	637.207	81.0745	637.207	80.8159	637.207	82.1338	637.207	80.8842	637.207	82.7713	637.207	81.4987	637.207	82.7874	637.207	82.2752
659.18	88.9373	659.18	88.5525	659.18	89.1329	659.18	88.0151	659.18	89.099	659.18	87.3582	659.18	88.7897	659.18	86.6057	659.18	88.1582	659.18	85.7685	659.18	87.1812	659.18	84.8532	659.18	85.9073	659.18	83.8917	659.18	84.5157	659.18	82.9762	659.18	83.3296	659.18	82.2459	659.18	82.6133	659.18	81.7765	659.18	82.1878	659.18	81.468	659.18	81.5129	659.18	81.0972	659.18	80.3055	659.18	80.4697	659.18	79.3003	659.18	79.5597	659.18	79.8804	659.18	78.715	659.18	81.2852	659.18	78.72	659.18	82.1354	659.18	79.8191	659.18	82.0728	659.18	81.1882
682.617	88.5583	682.617	88.1778	682.617	88.7522	682.617	87.6433	682.617	88.7289	682.617	86.9905	682.617	88.4576	682.617	86.2569	682.617	87.9071	682.617	85.4838	682.617	87.0578	682.617	84.7238	682.617	85.9298	682.617	84.0421	682.617	84.6256	682.617	83.4979	682.617	83.3645	682.617	83.1036	682.617	82.3965	682.617	82.7995	682.617	81.688	682.617	82.4697	682.617	80.8165	682.617	81.9799	682.617	79.4523	682.617	81.2145	682.617	78.1289	682.617	80.1351	682.617	78.2574	682.617	78.9309	682.617	79.452	682.617	78.214	682.617	80.2688	682.617	78.5596	682.617	80.2524	682.617	79.5232
707.52	88.3374	707.52	87.9581	707.52	88.5516	707.52	87.4408	707.52	88.5665	707.52	86.8137	707.52	88.3305	707.52	86.1046	707.52	87.7817	707.52	85.3367	707.52	86.8828	707.52	84.5352	707.52	85.6743	707.52	83.7485	707.52	84.3218	707.52	83.064	707.52	83.1276	707.52	82.5803	707.52	82.4142	707.52	82.3304	707.52	82.143	707.52	82.2299	707.52	81.796	707.52	82.1072	707.52	80.9341	707.52	81.7767	707.52	79.7815	707.52	81.1157	707.52	79.3377	707.52	80.1714	707.52	79.8763	707.52	79.3235	707.52	80.4047	707.52	79.1738	707.52	80.3323	707.52	79.7388
732.422	88.3236	732.422	87.9486	732.422	88.549	732.422	87.4488	732.422	88.5928	732.422	86.8399	732.422	88.4154	732.422	86.124	732.422	87.9711	732.422	85.2924	732.422	87.2231	732.422	84.3436	732.422	86.1773	732.422	83.3204	732.422	84.9276	732.422	82.3481	732.422	83.6983	732.422	81.6198	732.422	82.7815	732.422	81.2741	732.422	82.2016	732.422	81.254	732.422	81.5164	732.422	81.3246	732.422	80.2925	732.422	81.2238	732.422	78.8888	732.422	80.796	732.422	78.7406	732.422	80.0992	732.422	79.8317	732.422	79.5146	732.422	80.6745	732.422	79.5599	732.422	80.733	732.422	80.1805
757.324	88.4381	757.324	88.0406	757.324	88.6031	757.324	87.3972	757.324	88.5399	757.324	86.5	757.324	88.2323	757.324	85.3621	757.324	87.6411	757.324	84.0351	757.324	86.7232	757.324	82.6331	757.324	85.4737	757.324	81.3517	757.324	83.9819	757.324	80.4384	757.324	82.5085	757.324	80.0714	757.324	81.5193	757.324	80.2164	757.324	81.2082	757.324	80.6171	757.324	80.9438	757.324	80.9418	757.324	80.0164	757.324	80.9328	757.324	78.6228	757.324	80.474	757.324	78.2379	757.324	79.6474	757.324	79.1713	757.324	78.8526	757.324	79.9236	757.324	78.7065	757.324	79.8905	757.324	79.2768
785.156	88.4766	785.156	88.0544	785.156	88.6656	785.156	87.386	785.156	88.6468	785.156	86.4852	785.156	88.4333	785.156	85.4034	785.156	87.9975	785.156	84.2334	785.156	87.2647	785.156	83.0948	785.156	86.1599	785.156	82.0991	785.156	84.6803	785.156	81.3247	785.156	82.9592	785.156	80.8443	785.156	81.4131	785.156	80.7235	785.156	80.7202	785.156	80.8956	785.156	80.6963	785.156	81.1097	785.156	80.2736	785.156	81.0797	785.156	79.2146	785.156	80.6394	785.156	78.9197	785.156	79.868	785.156	80.0931	785.156	79.2741	785.156	81.1319	785.156	79.5503	785.156	81.2278	785.156	80.4992
811.523	88.5602	811.523	88.1285	811.523	88.6505	811.523	87.3027	811.523	88.4754	811.523	86.0864	811.523	88.0927	811.523	84.5767	811.523	87.5099	811.523	82.9981	811.523	86.7016	811.523	81.669	811.523	85.68	811.523	80.8278	811.523	84.5355	811.523	80.4842	811.523	83.3745	811.523	80.5207	811.523	82.2595	811.523	80.8154	811.523	81.2551	811.523	81.2126	811.523	80.3107	811.523	81.5055	811.523	79.1871	811.523	81.4957	811.523	78.1373	811.523	81.0514	811.523	78.2599	811.523	80.1747	811.523	79.3226	811.523	79.1651	811.523	80.0029	811.523	78.7152	811.523	79.8578	811.523	79.1701
840.82	88.4216	840.82	87.8959	840.82	88.5853	840.82	86.9999	840.82	88.4399	840.82	85.8176	840.82	88.0486	840.82	84.5666	840.82	87.4505	840.82	83.5353	840.82	86.6443	840.82	82.8483	840.82	85.6199	840.82	82.3651	840.82	84.4286	840.82	81.9155	840.82	83.2569	840.82	81.4991	840.82	82.4164	840.82	81.2186	840.82	81.9716	840.82	81.0779	840.82	81.341	840.82	80.912	840.82	79.6807	840.82	80.5086	840.82	76.6283	840.82	79.7667	840.82	75.2282	840.82	78.8862	840.82	77.9925	840.82	78.5274	840.82	80.1047	840.82	79.1685	840.82	80.707	840.82	80.1973
870.117	87.8168	870.117	87.2725	870.117	88.0642	870.117	86.4264	870.117	88.0917	870.117	85.4001	870.117	87.9707	870.117	84.4446	870.117	87.689	870.117	83.7976	870.117	87.1522	870.117	83.4441	870.117	86.2898	870.117	83.1188	870.117	85.152	870.117	82.5728	870.117	83.8968	870.117	81.7933	870.117	82.7448	870.117	81.0723	870.117	81.9415	870.117	80.7852	870.117	81.3558	870.117	80.9017	870.117	80.2712	870.117	80.9756	870.117	78.2104	870.117	80.5922	870.117	76.6684	870.117	79.6178	870.117	77.9463	870.117	78.443	870.117	79.4834	870.117	78.1512	870.117	79.7708	870.117	79.0105
900.879	87.4509	900.879	86.7373	900.879	87.778	900.879	85.6772	900.879	87.8177	900.879	84.5186	900.879	87.7024	900.879	83.6474	900.879	87.4457	900.879	83.2544	900.879	86.8855	900.879	83.1703	900.879	85.8552	900.879	83.1185	900.879	84.4187	900.879	82.9156	900.879	83.0106	900.879	82.5337	900.879	82.3205	900.879	82.1043	900.879	82.4504	900.879	81.7896	900.879	82.4482	900.879	81.5704	900.879	81.2995	900.879	81.1889	900.879	78.4109	900.879	80.31	900.879	74.9575	900.879	78.7442	900.879	76.234	900.879	76.9303	900.879	78.4771	900.879	76.5878	900.879	78.951	900.879	77.9525
933.105	86.7481	933.105	86.2324	933.105	87.0144	933.105	85.4216	933.105	87.1752	933.105	84.481	933.105	87.2969	933.105	83.7211	933.105	87.2401	933.105	83.2676	933.105	86.7549	933.105	82.9725	933.105	85.725	933.105	82.7322	933.105	84.3388	933.105	82.5364	933.105	83.0648	933.105	82.324	933.105	82.4897	933.105	82.0599	933.105	82.8507	933.105	81.8158	933.105	83.3347	933.105	81.6355	933.105	82.8682	933.105	81.378	933.105	80.9607	933.105	80.7567	933.105	78.3926	933.105	79.5419	933.105	78.1443	933.105	77.9677	933.105	79.326	933.105	77.3594	933.105	79.4562	933.105	78.4108
965.332	85.4326	965.332	84.6908	965.332	86.04	965.332	84.0037	965.332	86.5172	965.332	83.7537	965.332	86.8725	965.332	84.0063	965.332	87.0046	965.332	84.2846	965.332	86.7335	965.332	84.1127	965.332	85.933	965.332	83.3072	965.332	84.6083	965.332	81.9636	965.332	82.8761	965.332	80.4978	965.332	81.1481	965.332	79.6289	965.332	80.3328	965.332	79.8025	965.332	80.3197	965.332	80.5631	965.332	79.733	965.332	81.1104	965.332	77.9307	965.332	80.9409	965.332	76.2222	965.332	79.8807	965.332	77.0372	965.332	78.1602	965.332	78.329	965.332	76.9596	965.332	78.4022	965.332	77.4735
1,000.49	84.1972	1,000.49	83.4772	1,000.49	84.9001	1,000.49	83.0162	1,000.49	85.5628	1,000.49	83.1639	1,000.49	86.2216	1,000.49	83.8041	1,000.49	86.7211	1,000.49	84.4536	1,000.49	86.745	1,000.49	84.7838	1,000.49	86.1121	1,000.49	84.6717	1,000.49	84.9594	1,000.49	84.074	1,000.49	83.5936	1,000.49	83.0407	1,000.49	82.2044	1,000.49	81.8093	1,000.49	81.1856	1,000.49	80.8284	1,000.49	81.0196	1,000.49	80.4952	1,000.49	80.9085	1,000.49	80.6123	1,000.49	79.7398	1,000.49	80.5079	1,000.49	77.7439	1,000.49	79.6603	1,000.49	77.2569	1,000.49	77.9951	1,000.49	78.1458	1,000.49	76.5058	1,000.49	78.0897	1,000.49	76.9459
1,035.64	82.8427	1,035.64	82.3833	1,035.64	83.6631	1,035.64	82.7731	1,035.64	84.5296	1,035.64	83.7954	1,035.64	85.3587	1,035.64	84.6225	1,035.64	85.9298	1,035.64	84.7518	1,035.64	85.8847	1,035.64	84.2059	1,035.64	85.0574	1,035.64	83.3847	1,035.64	83.6835	1,035.64	82.696	1,035.64	82.3707	1,035.64	82.2282	1,035.64	81.8658	1,035.64	81.9792	1,035.64	82.1219	1,035.64	81.9263	1,035.64	82.0548	1,035.64	81.8542	1,035.64	80.9759	1,035.64	81.4916	1,035.64	78.954	1,035.64	80.6281	1,035.64	76.8995	1,035.64	79.0943	1,035.64	76.5194	1,035.64	76.9447	1,035.64	77.199	1,035.64	75.348	1,035.64	77.0934	1,035.64	75.9447
1,072.27	82.0625	1,072.27	82.0942	1,072.27	82.8792	1,072.27	83.1334	1,072.27	83.9672	1,072.27	84.4964	1,072.27	85.0295	1,072.27	85.3972	1,072.27	85.9295	1,072.27	85.3946	1,072.27	86.3504	1,072.27	84.3774	1,072.27	85.9369	1,072.27	82.6261	1,072.27	84.6889	1,072.27	80.9827	1,072.27	83.112	1,072.27	80.46	1,072.27	81.925	1,072.27	81.0294	1,072.27	81.6371	1,072.27	81.857	1,072.27	81.9709	1,072.27	82.4789	1,072.27	81.7554	1,072.27	82.8227	1,072.27	80.0578	1,072.27	82.7785	1,072.27	77.3169	1,072.27	82.0931	1,072.27	76.7246	1,072.27	80.4867	1,072.27	77.3729	1,072.27	77.9245	1,072.27	76.6256	1,072.27	75.9175
1,108.89	82.6093	1,108.89	83.2661	1,108.89	82.9879	1,108.89	84.4735	1,108.89	84.0654	1,108.89	85.6162	1,108.89	85.2862	1,108.89	86.328	1,108.89	86.318	1,108.89	86.3422	1,108.89	86.7458	1,108.89	85.5068	1,108.89	86.1615	1,108.89	83.9757	1,108.89	84.541	1,108.89	82.3069	1,108.89	82.4746	1,108.89	81.0369	1,108.89	81.1823	1,108.89	80.2909	1,108.89	81.3153	1,108.89	80.0674	1,108.89	81.5627	1,108.89	80.24	1,108.89	80.7804	1,108.89	80.611	1,108.89	78.5065	1,108.89	80.9501	1,108.89	74.8943	1,108.89	80.9187	1,108.89	73.8813	1,108.89	80.1582	1,108.89	75.1955	1,108.89	78.4588	1,108.89	75.4198	1,108.89	76.3144
1,148.44	83.9793	1,148.44	85.4489	1,148.44	83.263	1,148.44	86.8153	1,148.44	83.6696	1,148.44	87.5961	1,148.44	84.5357	1,148.44	87.6786	1,148.44	85.2581	1,148.44	87.1491	1,148.44	85.6611	1,148.44	86.227	1,148.44	85.4717	1,148.44	85.1972	1,148.44	84.4231	1,148.44	84.1756	1,148.44	82.6463	1,148.44	83.1907	1,148.44	80.438	1,148.44	82.4876	1,148.44	78.7437	1,148.44	82.0195	1,148.44	80.7125	1,148.44	81.4739	1,148.44	82.9063	1,148.44	81.0015	1,148.44	82.1254	1,148.44	81.0686	1,148.44	77.6949	1,148.44	81.5086	1,148.44	73.8362	1,148.44	81.401	1,148.44	75.7225	1,148.44	80.0006	1,148.44	75.9232	1,148.44	77.3923
1,189.45	86.0336	1,189.45	87.2278	1,189.45	84.8003	1,189.45	87.9315	1,189.45	84.1477	1,189.45	88.008	1,189.45	84.3473	1,189.45	87.5663	1,189.45	85.0463	1,189.45	86.8651	1,189.45	85.5181	1,189.45	86.186	1,189.45	85.1164	1,189.45	85.6109	1,189.45	83.8273	1,189.45	84.8665	1,189.45	82.441	1,189.45	83.6545	1,189.45	81.4157	1,189.45	82.1214	1,189.45	79.6444	1,189.45	80.8335	1,189.45	77.3989	1,189.45	80.2219	1,189.45	78.9487	1,189.45	80.2876	1,189.45	79.3881	1,189.45	80.8403	1,189.45	75.5223	1,189.45	81.455	1,189.45	68.5086	1,189.45	81.5014	1,189.45	71.8528	1,189.45	80.4986	1,189.45	75.1266	1,189.45	78.2366
1,230.47	87.3851	1,230.47	88.7294	1,230.47	86.0278	1,230.47	89.4102	1,230.47	85.3379	1,230.47	89.1603	1,230.47	85.3824	1,230.47	88.0945	1,230.47	85.6121	1,230.47	86.6678	1,230.47	85.392	1,230.47	85.4423	1,230.47	84.3611	1,230.47	84.5956	1,230.47	82.72	1,230.47	83.9232	1,230.47	81.338	1,230.47	83.3892	1,230.47	80.3462	1,230.47	83.0595	1,230.47	78.3972	1,230.47	82.6935	1,230.47	76.9711	1,230.47	81.8847	1,230.47	79.7134	1,230.47	80.3999	1,230.47	79.9712	1,230.47	79.0821	1,230.47	75.4121	1,230.47	79.6725	1,230.47	71.7503	1,230.47	80.8502	1,230.47	75.5709	1,230.47	80.7981	1,230.47	77.1851	1,230.47	79.2229
1,274.41	86.8602	1,274.41	88.0259	1,274.41	86.1495	1,274.41	88.7843	1,274.41	86.4116	1,274.41	88.7238	1,274.41	86.8292	1,274.41	87.7621	1,274.41	86.5252	1,274.41	86.1346	1,274.41	85.401	1,274.41	84.3837	1,274.41	83.8111	1,274.41	82.8611	1,274.41	82.1223	1,274.41	81.3229	1,274.41	80.7593	1,274.41	79.5816	1,274.41	79.51	1,274.41	78.7262	1,274.41	77.2103	1,274.41	79.5732	1,274.41	74.553	1,274.41	80.5869	1,274.41	77.8744	1,274.41	80.8045	1,274.41	79.3608	1,274.41	80.1753	1,274.41	75.7329	1,274.41	79.4962	1,274.41	61.7714	1,274.41	79.7063	1,274.41	72.9195	1,274.41	79.9331	1,274.41	77.0139	1,274.41	79.0669
1,319.82	86.6605	1,319.82	87.53	1,319.82	85.9734	1,319.82	88.0228	1,319.82	86.0642	1,319.82	87.8089	1,319.82	86.7708	1,319.82	86.7392	1,319.82	87.1673	1,319.82	85.0121	1,319.82	86.5958	1,319.82	83.3665	1,319.82	85.0367	1,319.82	82.623	1,319.82	82.7664	1,319.82	82.4233	1,319.82	80.5791	1,319.82	81.5914	1,319.82	79.3364	1,319.82	80.2292	1,319.82	77.7914	1,319.82	79.5648	1,319.82	75.2578	1,319.82	79.7417	1,319.82	76.9154	1,319.82	79.5183	1,319.82	78.8489	1,319.82	78.5379	1,319.82	76.2553	1,319.82	78.3894	1,319.82	72.998	1,319.82	79.2461	1,319.82	75.7745	1,319.82	79.3203	1,319.82	76.89	1,319.82	78.1267
1,366.7	85.9992	1,366.7	87.6054	1,366.7	84.8074	1,366.7	88.2093	1,366.7	85.5786	1,366.7	87.4642	1,366.7	87.1024	1,366.7	85.7556	1,366.7	87.4896	1,366.7	84.0527	1,366.7	86.1222	1,366.7	82.9427	1,366.7	83.5735	1,366.7	81.8716	1,366.7	80.7553	1,366.7	80.2458	1,366.7	78.5846	1,366.7	78.148	1,366.7	77.5087	1,366.7	77.3105	1,366.7	74.781	1,366.7	78.9292	1,366.7	69.4756	1,366.7	80.3967	1,366.7	78.8058	1,366.7	79.6461	1,366.7	81.0277	1,366.7	76.6533	1,366.7	76.0357	1,366.7	73.8244	1,366.7	62.1371	1,366.7	76.4184	1,366.7	74.2662	1,366.7	79.3096	1,366.7	76.1497	1,366.7	78.9642
1,413.57	86.0954	1,413.57	86.388	1,413.57	85.3664	1,413.57	86.3182	1,413.57	84.7924	1,413.57	86.1325	1,413.57	85.5635	1,413.57	86.0876	1,413.57	86.9989	1,413.57	86.0184	1,413.57	87.0411	1,413.57	84.8103	1,413.57	85.3106	1,413.57	81.9339	1,413.57	82.9667	1,413.57	79.5995	1,413.57	81.4306	1,413.57	79.9679	1,413.57	80.2508	1,413.57	79.2108	1,413.57	78.9462	1,413.57	76.0225	1,413.57	77.4189	1,413.57	77.223	1,413.57	75.3733	1,413.57	79.4014	1,413.57	76.6904	1,413.57	79.4903	1,413.57	75.9745	1,413.57	77.3314	1,413.57	67.4782	1,413.57	76.9169	1,413.57	62.5903	1,413.57	78.8736	1,413.57	71.6698	1,413.57	77.5247
1,463.38	86.2372	1,463.38	87.2736	1,463.38	84.8042	1,463.38	86.9629	1,463.38	84.8074	1,463.38	85.5572	1,463.38	86.2617	1,463.38	84.4186	1,463.38	87.3425	1,463.38	84.4065	1,463.38	86.8602	1,463.38	84.0468	1,463.38	84.6839	1,463.38	82.5045	1,463.38	81.4199	1,463.38	81.3271	1,463.38	78.0534	1,463.38	81.4681	1,463.38	77.5381	1,463.38	81.239	1,463.38	77.9803	1,463.38	78.4557	1,463.38	75.5427	1,463.38	74.5794	1,463.38	75.2271	1,463.38	76.3232	1,463.38	78.3426	1,463.38	79.3912	1,463.38	76.1034	1,463.38	79.0788	1,463.38	67.8352	1,463.38	75.9942	1,463.38	69.7116	1,463.38	76.6693	1,463.38	75.7457	1,463.38	77.8147
1,516.11	87.3132	1,516.11	87.6534	1,516.11	86.0962	1,516.11	87.1597	1,516.11	85.0892	1,516.11	86.3055	1,516.11	86.289	1,516.11	85.6443	1,516.11	88.2717	1,516.11	85.2254	1,516.11	88.4205	1,516.11	84.7548	1,516.11	86.0385	1,516.11	84.648	1,516.11	81.3888	1,516.11	85.0504	1,516.11	75.6102	1,516.11	84.7837	1,516.11	74.7457	1,516.11	83.9821	1,516.11	77.5554	1,516.11	83.2042	1,516.11	80.2563	1,516.11	82.155	1,516.11	81.3464	1,516.11	80.4107	1,516.11	80.4901	1,516.11	79.1997	1,516.11	74.8006	1,516.11	77.9581	1,516.11	63.2229	1,516.11	75.9735	1,516.11	74.8448	1,516.11	75.4629	1,516.11	76.8438	1,516.11	76.5731
1,568.85	87.1718	1,568.85	88.1595	1,568.85	86.1288	1,568.85	87.9675	1,568.85	86.4966	1,568.85	86.9363	1,568.85	87.3605	1,568.85	85.2836	1,568.85	87.9392	1,568.85	83.3114	1,568.85	87.3165	1,568.85	82.2675	1,568.85	84.6056	1,568.85	83.3449	1,568.85	81.2491	1,568.85	84.171	1,568.85	78.8288	1,568.85	83.1592	1,568.85	74.8193	1,568.85	81.5498	1,568.85	69.8456	1,568.85	81.1009	1,568.85	73.9891	1,568.85	80.4972	1,568.85	77.7936	1,568.85	77.812	1,568.85	81.269	1,568.85	74.9642	1,568.85	79.1859	1,568.85	75.407	1,568.85	62.242	1,568.85	76.8658	1,568.85	74.3882	1,568.85	78.5554	1,568.85	77.8543	1,568.85	78.9495
1,624.51	86.6788	1,624.51	87.9142	1,624.51	85.3073	1,624.51	88.0065	1,624.51	85.6093	1,624.51	87.0895	1,624.51	87.0086	1,624.51	85.7493	1,624.51	87.77	1,624.51	84.1814	1,624.51	87.0931	1,624.51	82.2536	1,624.51	85.253	1,624.51	80.4838	1,624.51	83.6365	1,624.51	79.1247	1,624.51	81.7302	1,624.51	77.1857	1,624.51	79.2789	1,624.51	76.0101	1,624.51	79.6148	1,624.51	77.5161	1,624.51	80.2662	1,624.51	78.5348	1,624.51	78.2449	1,624.51	77.8147	1,624.51	79.3428	1,624.51	77.9835	1,624.51	77.2867	1,624.51	78.9196	1,624.51	63.2624	1,624.51	78.4378	1,624.51	71.7091	1,624.51	77.5492	1,624.51	76.8464	1,624.51	78.0256
1,681.64	85.7484	1,681.64	87.6466	1,681.64	83.8354	1,681.64	88.1954	1,681.64	84.2608	1,681.64	86.9474	1,681.64	86.5694	1,681.64	84.8185	1,681.64	88.0351	1,681.64	83.3843	1,681.64	87.9206	1,681.64	82.2591	1,681.64	85.7002	1,681.64	80.4584	1,681.64	82.0411	1,681.64	79.4661	1,681.64	79.8204	1,681.64	80.2484	1,681.64	78.3129	1,681.64	79.9681	1,681.64	78.3306	1,681.64	77.9506	1,681.64	79.9594	1,681.64	77.2482	1,681.64	79.1028	1,681.64	78.1665	1,681.64	78.952	1,681.64	77.5914	1,681.64	75.8801	1,681.64	75.823	1,681.64	61.0525	1,681.64	75.5092	1,681.64	73.043	1,681.64	76.3693	1,681.64	76.1806	1,681.64	76.8034
1,741.7	85.5274	1,741.7	87.1544	1,741.7	83.1819	1,741.7	86.9522	1,741.7	83.2093	1,741.7	85.9484	1,741.7	85.9004	1,741.7	85.6472	1,741.7	87.9687	1,741.7	84.5048	1,741.7	87.6924	1,741.7	82.1757	1,741.7	85.581	1,741.7	80.9377	1,741.7	82.6272	1,741.7	79.8305	1,741.7	78.8453	1,741.7	75.9945	1,741.7	75.071	1,741.7	73.4029	1,741.7	76.631	1,741.7	75.5634	1,741.7	78.4188	1,741.7	76.9011	1,741.7	78.3059	1,741.7	76.3445	1,741.7	79.5867	1,741.7	76.745	1,741.7	77.0163	1,741.7	77.2825	1,741.7	65.7452	1,741.7	75.697	1,741.7	67.7123	1,741.7	74.5102	1,741.7	73.3989	1,741.7	75.0617
1,803.22	85.6959	1,803.22	86.4802	1,803.22	83.3999	1,803.22	85.9639	1,803.22	82.6295	1,803.22	85.9322	1,803.22	84.7851	1,803.22	85.924	1,803.22	87.0385	1,803.22	84.3545	1,803.22	87.5635	1,803.22	81.3259	1,803.22	85.4434	1,803.22	78.4908	1,803.22	82.0575	1,803.22	77.4998	1,803.22	79.5617	1,803.22	76.9177	1,803.22	76.3297	1,803.22	74.6386	1,803.22	76.3578	1,803.22	72.8303	1,803.22	77.4572	1,803.22	75.0218	1,803.22	76.4863	1,803.22	75.3999	1,803.22	77.9515	1,803.22	74.3506	1,803.22	76.1943	1,803.22	73.5878	1,803.22	64.5585	1,803.22	73.9121	1,803.22	69.6605	1,803.22	75.0993	1,803.22	74.342	1,803.22	75.5863
1,866.21	86.0848	1,866.21	86.4501	1,866.21	83.7305	1,866.21	86.1555	1,866.21	82.4048	1,866.21	86.4642	1,866.21	83.8979	1,866.21	85.2269	1,866.21	86.4241	1,866.21	81.7451	1,866.21	87.4416	1,866.21	79.3905	1,866.21	85.7549	1,866.21	77.7732	1,866.21	81.4408	1,866.21	74.5232	1,866.21	77.2429	1,866.21	74.339	1,866.21	74.6421	1,866.21	75.3951	1,866.21	74.4952	1,866.21	72.8068	1,866.21	77.0238	1,866.21	72.0743	1,866.21	76.5135	1,866.21	73.3931	1,866.21	76.7847	1,866.21	74.2248	1,866.21	74.591	1,866.21	73.7729	1,866.21	62.1983	1,866.21	72.7213	1,866.21	71.1384	1,866.21	74.1039	1,866.21	74.5484	1,866.21	75.3805
1,932.13	85.2663	1,932.13	86.312	1,932.13	83.0211	1,932.13	86.6648	1,932.13	81.9303	1,932.13	85.6485	1,932.13	83.0192	1,932.13	83.0396	1,932.13	85.5425	1,932.13	81.3939	1,932.13	86.806	1,932.13	79.8496	1,932.13	85.5928	1,932.13	74.9502	1,932.13	82.1759	1,932.13	72.2749	1,932.13	77.0953	1,932.13	74.1488	1,932.13	73.3325	1,932.13	70.6537	1,932.13	72.8838	1,932.13	67.5994	1,932.13	76.7544	1,932.13	71.5302	1,932.13	76.0944	1,932.13	72.8223	1,932.13	77.6194	1,932.13	73.8329	1,932.13	75.1269	1,932.13	74.5926	1,932.13	58.8064	1,932.13	72.0038	1,932.13	68.8157	1,932.13	70.9942	1,932.13	72.3665	1,932.13	73.6021
1,999.51	84.4465	1,999.51	86.0137	1,999.51	81.8392	1,999.51	86.2635	1,999.51	81.7933	1,999.51	85.1318	1,999.51	83.4936	1,999.51	83.0696	1,999.51	84.9166	1,999.51	80.4882	1,999.51	86.1768	1,999.51	76.6286	1,999.51	85.7085	1,999.51	72.475	1,999.51	82.5144	1,999.51	72.7858	1,999.51	77.1739	1,999.51	74.3341	1,999.51	74.3305	1,999.51	71.6708	1,999.51	72.5109	1,999.51	65.6504	1,999.51	75.1551	1,999.51	66.5093	1,999.51	74.9632	1,999.51	72.8781	1,999.51	77.2681	1,999.51	75.0825	1,999.51	74.5081	1,999.51	74.2242	1,999.51	43.3481	1,999.51	72.2545	1,999.51	70.4892	1,999.51	71.2768	1,999.51	73.2132	1,999.51	73.4168
2,069.82	83.7484	2,069.82	85.7167	2,069.82	80.7611	2,069.82	85.9358	2,069.82	80.7511	2,069.82	84.7549	2,069.82	83.307	2,069.82	82.8424	2,069.82	84.9378	2,069.82	79.6221	2,069.82	85.8431	2,069.82	74.7941	2,069.82	85.5278	2,069.82	69.6606	2,069.82	82.6989	2,069.82	63.3564	2,069.82	77.5786	2,069.82	58.6788	2,069.82	73.9293	2,069.82	63.7827	2,069.82	70.8361	2,069.82	63.8646	2,069.82	73.8322	2,069.82	67.7948	2,069.82	73.4893	2,069.82	72.4748	2,069.82	75.8676	2,069.82	74.1197	2,069.82	73.7249	2,069.82	74.3401	2,069.82	56.1144	2,069.82	72.4897	2,069.82	68.1056	2,069.82	69.6827	2,069.82	71.5928	2,069.82	73.1246
2,143.07	84.9228	2,143.07	85.9687	2,143.07	81.4059	2,143.07	85.1704	2,143.07	80.3597	2,143.07	83.9446	2,143.07	83.1733	2,143.07	81.9612	2,143.07	85.2322	2,143.07	77.7281	2,143.07	85.6317	2,143.07	72.9048	2,143.07	84.5337	2,143.07	71.6058	2,143.07	82.0739	2,143.07	70.6929	2,143.07	78.1173	2,143.07	69.7655	2,143.07	73.9971	2,143.07	66.3966	2,143.07	70.53	2,143.07	63.2413	2,143.07	72.4277	2,143.07	63.5874	2,143.07	72.8052	2,143.07	70.3208	2,143.07	74.4195	2,143.07	73.5438	2,143.07	73.0323	2,143.07	73.3326	2,143.07	64.3056	2,143.07	72.3173	2,143.07	67.3361	2,143.07	70.4205	2,143.07	71.2945	2,143.07	71.8268
2,219.24	85.3056	2,219.24	86.0014	2,219.24	81.4754	2,219.24	85.3086	2,219.24	80.526	2,219.24	83.4955	2,219.24	83.0296	2,219.24	80.1646	2,219.24	84.4089	2,219.24	77.1273	2,219.24	85.2418	2,219.24	74.436	2,219.24	84.1376	2,219.24	70.5021	2,219.24	80.4114	2,219.24	66.7092	2,219.24	76.3622	2,219.24	69.1667	2,219.24	72.7153	2,219.24	68.4845	2,219.24	67.9966	2,219.24	55.9885	2,219.24	70.6687	2,219.24	50.9712	2,219.24	72.2325	2,219.24	66.4789	2,219.24	73.3975	2,219.24	72.397	2,219.24	72.1152	2,219.24	72.3265	2,219.24	66.6399	2,219.24	70.4177	2,219.24	65.3442	2,219.24	68.2757	2,219.24	72.2836	2,219.24	71.3121
2,296.88	83.8772	2,296.88	85.4473	2,296.88	80.1369	2,296.88	85.3985	2,296.88	80.6729	2,296.88	82.8673	2,296.88	84.1254	2,296.88	79.5374	2,296.88	84.0857	2,296.88	77.2161	2,296.88	84.193	2,296.88	73.5226	2,296.88	83.7275	2,296.88	69.9879	2,296.88	80.4267	2,296.88	70.4421	2,296.88	75.2099	2,296.88	71.7998	2,296.88	70.2029	2,296.88	67.5489	2,296.88	55.8339	2,296.88	60.2859	2,296.88	70.5404	2,296.88	59.0021	2,296.88	72.4907	2,296.88	61.894	2,296.88	74.0184	2,296.88	71.7024	2,296.88	71.051	2,296.88	73.2035	2,296.88	65.6418	2,296.88	71.7794	2,296.88	65.9062	2,296.88	69.0867	2,296.88	71.5943	2,296.88	69.1997
2,378.91	82.1456	2,378.91	84.3913	2,378.91	78.0603	2,378.91	84.8877	2,378.91	80.0637	2,378.91	82.5886	2,378.91	84.6201	2,378.91	78.1522	2,378.91	84.5462	2,378.91	74.7218	2,378.91	82.978	2,378.91	72.5566	2,378.91	82.6304	2,378.91	71.4643	2,378.91	80.0814	2,378.91	71.2458	2,378.91	74.7254	2,378.91	69.9703	2,378.91	71.7173	2,378.91	67.5684	2,378.91	60.784	2,378.91	66.0571	2,378.91	67.6061	2,378.91	62.9329	2,378.91	70.6819	2,378.91	62.4195	2,378.91	73.5107	2,378.91	70.893	2,378.91	72.0522	2,378.91	73.0475	2,378.91	67.7577	2,378.91	71.6309	2,378.91	64.6602	2,378.91	69.3301	2,378.91	69.5525	2,378.91	68.6667
2,462.4	82.178	2,462.4	84.588	2,462.4	77.0175	2,462.4	84.2246	2,462.4	79.1368	2,462.4	80.8135	2,462.4	84.6764	2,462.4	73.9045	2,462.4	85.339	2,462.4	71.192	2,462.4	82.6129	2,462.4	73.3812	2,462.4	80.8524	2,462.4	74.2243	2,462.4	78.7819	2,462.4	74.518	2,462.4	72.3006	2,462.4	73.6659	2,462.4	69.9927	2,462.4	71.007	2,462.4	59.4501	2,462.4	67.5649	2,462.4	66.4676	2,462.4	66.4896	2,462.4	66.3988	2,462.4	61.1446	2,462.4	71.8374	2,462.4	71.0806	2,462.4	72.382	2,462.4	74.0129	2,462.4	69.1192	2,462.4	72.1599	2,462.4	62.5428	2,462.4	69.4348	2,462.4	67.3775	2,462.4	67.3223
2,548.83	83.6961	2,548.83	85.493	2,548.83	77.2624	2,548.83	83.3767	2,548.83	77.104	2,548.83	78.5974	2,548.83	83.2968	2,548.83	71.748	2,548.83	85.0476	2,548.83	73.154	2,548.83	83.0584	2,548.83	75.1077	2,548.83	79.9334	2,548.83	74.5421	2,548.83	77.3618	2,548.83	74.6924	2,548.83	74.011	2,548.83	73.4725	2,548.83	72.3707	2,548.83	71.8977	2,548.83	59.0188	2,548.83	69.4992	2,548.83	67.5453	2,548.83	68.0955	2,548.83	66.0334	2,548.83	65.9682	2,548.83	70.0588	2,548.83	71.4875	2,548.83	72.1312	2,548.83	75.2777	2,548.83	69.0955	2,548.83	74.0794	2,548.83	63.2314	2,548.83	71.1138	2,548.83	68.8967	2,548.83	70.0819
2,639.65	83.856	2,639.65	85.5123	2,639.65	76.3912	2,639.65	83.2449	2,639.65	75.811	2,639.65	76.0741	2,639.65	82.2335	2,639.65	64.8802	2,639.65	84.2768	2,639.65	72.302	2,639.65	82.742	2,639.65	74.3573	2,639.65	78.0424	2,639.65	75.2969	2,639.65	76.1371	2,639.65	73.5014	2,639.65	74.0474	2,639.65	71.9039	2,639.65	69.7686	2,639.65	71.2106	2,639.65	56.2513	2,639.65	68.638	2,639.65	65.4299	2,639.65	66.7772	2,639.65	63.9099	2,639.65	66.3475	2,639.65	68.5077	2,639.65	72.1063	2,639.65	71.4317	2,639.65	75.713	2,639.65	68.4947	2,639.65	75.0853	2,639.65	64.806	2,639.65	72.593	2,639.65	69.64	2,639.65	70.9455
2,731.93	82.9044	2,731.93	84.3539	2,731.93	75.048	2,731.93	81.9477	2,731.93	76.2622	2,731.93	73.9379	2,731.93	82.4316	2,731.93	60.7748	2,731.93	83.6264	2,731.93	72.8601	2,731.93	82.0047	2,731.93	75.4091	2,731.93	76.3479	2,731.93	74.9894	2,731.93	73.4173	2,731.93	74.3182	2,731.93	75.0277	2,731.93	73.1082	2,731.93	68.2633	2,731.93	71.621	2,731.93	62.1661	2,731.93	70.6232	2,731.93	65.1949	2,731.93	67.5123	2,731.93	64.3363	2,731.93	65.6918	2,731.93	67.4607	2,731.93	71.1725	2,731.93	72.1629	2,731.93	75.7401	2,731.93	69.4417	2,731.93	75.6732	2,731.93	66.8111	2,731.93	72.4109	2,731.93	69.7935	2,731.93	71.3757
2,828.61	82.89	2,828.61	83.6628	2,828.61	74.2577	2,828.61	79.6968	2,828.61	77.3729	2,828.61	70.3879	2,828.61	83.1182	2,828.61	65.104	2,828.61	83.395	2,828.61	74.8772	2,828.61	80.5083	2,828.61	76.1937	2,828.61	75.3468	2,828.61	76.0467	2,828.61	73.3799	2,828.61	75.2979	2,828.61	75.2603	2,828.61	73.5071	2,828.61	66.2921	2,828.61	72.2734	2,828.61	66.7852	2,828.61	70.6955	2,828.61	67.6517	2,828.61	68.7412	2,828.61	68.8434	2,828.61	65.7837	2,828.61	68.0992	2,828.61	70.0412	2,828.61	71.6001	2,828.61	75.0567	2,828.61	70.0617	2,828.61	75.4617	2,828.61	66.5618	2,828.61	72.3473	2,828.61	69.1198	2,828.61	70.8755
2,928.22	83.6222	2,928.22	84.5003	2,928.22	74.1177	2,928.22	80.0082	2,928.22	77.532	2,928.22	67.7747	2,928.22	83.2955	2,928.22	70.487	2,928.22	83.5155	2,928.22	76.4069	2,928.22	79.4506	2,928.22	77.5514	2,928.22	74.5588	2,928.22	77.0122	2,928.22	75.053	2,928.22	74.8365	2,928.22	74.0151	2,928.22	73.1181	2,928.22	60.1012	2,928.22	72.7841	2,928.22	65.598	2,928.22	71.3999	2,928.22	67.0079	2,928.22	69.6928	2,928.22	68.6866	2,928.22	67.7492	2,928.22	66.2384	2,928.22	69.9416	2,928.22	70.524	2,928.22	75.1652	2,928.22	69.3466	2,928.22	76.3084	2,928.22	65.529	2,928.22	73.4738	2,928.22	69.2263	2,928.22	71.0138
3,030.76	83.9779	3,030.76	85.119	3,030.76	73.5592	3,030.76	81.0817	3,030.76	78.9061	3,030.76	69.2664	3,030.76	83.8722	3,030.76	73.8252	3,030.76	83.4295	3,030.76	78.1475	3,030.76	79.0337	3,030.76	78.3017	3,030.76	75.3738	3,030.76	77.1088	3,030.76	76.9925	3,030.76	75.7319	3,030.76	73.7736	3,030.76	74.7153	3,030.76	65.8817	3,030.76	73.2742	3,030.76	63.6929	3,030.76	71.3727	3,030.76	69.4461	3,030.76	69.9459	3,030.76	67.1533	3,030.76	67.4971	3,030.76	65.8999	3,030.76	71.3884	3,030.76	71.255	3,030.76	76.3329	3,030.76	69.1506	3,030.76	77.1841	3,030.76	66.6762	3,030.76	75.1896	3,030.76	70.1654	3,030.76	72.8722
3,137.7	84.8924	3,137.7	85.3571	3,137.7	75.3164	3,137.7	81.1693	3,137.7	80.4122	3,137.7	66.8814	3,137.7	84.3277	3,137.7	77.0698	3,137.7	83.5518	3,137.7	79.0856	3,137.7	78.5619	3,137.7	78.0472	3,137.7	75.21	3,137.7	77.7543	3,137.7	79.1509	3,137.7	74.8238	3,137.7	77.0214	3,137.7	72.9132	3,137.7	69.5201	3,137.7	72.5192	3,137.7	58.8333	3,137.7	71.1652	3,137.7	69.2713	3,137.7	69.2422	3,137.7	70.1308	3,137.7	65.8882	3,137.7	67.1238	3,137.7	69.6835	3,137.7	72.012	3,137.7	76.169	3,137.7	70.0058	3,137.7	77.5999	3,137.7	67.5401	3,137.7	75.6019	3,137.7	71.0182	3,137.7	73.7204
3,249.02	85.5281	3,249.02	85.5119	3,249.02	76.9016	3,249.02	80.0405	3,249.02	80.4957	3,249.02	62.0727	3,249.02	84.5534	3,249.02	78.7071	3,249.02	83.2342	3,249.02	79.54	3,249.02	77.8077	3,249.02	77.7201	3,249.02	75.0671	3,249.02	75.8979	3,249.02	81.6802	3,249.02	75.693	3,249.02	80.2944	3,249.02	75.9232	3,249.02	73.5033	3,249.02	74.0123	3,249.02	46.0924	3,249.02	72.5168	3,249.02	68.5107	3,249.02	70.8343	3,249.02	68.611	3,249.02	67.7221	3,249.02	67.7505	3,249.02	68.9822	3,249.02	71.772	3,249.02	76.0092	3,249.02	68.234	3,249.02	77.8436	3,249.02	68.2607	3,249.02	75.289	3,249.02	71.4227	3,249.02	73.6441
3,363.28	85.975	3,363.28	85.8969	3,363.28	78.2898	3,363.28	79.5983	3,363.28	80.78	3,363.28	71.72	3,363.28	85.492	3,363.28	80.2286	3,363.28	83.4767	3,363.28	79.0574	3,363.28	77.1686	3,363.28	78.1433	3,363.28	75.3583	3,363.28	77.0798	3,363.28	82.7125	3,363.28	75.6888	3,363.28	81.8825	3,363.28	72.726	3,363.28	76.42	3,363.28	71.7451	3,363.28	67.6467	3,363.28	72.6844	3,363.28	68.5461	3,363.28	70.4762	3,363.28	71.3398	3,363.28	67.166	3,363.28	67.1146	3,363.28	67.1566	3,363.28	71.7599	3,363.28	75.4289	3,363.28	69.037	3,363.28	77.8721	3,363.28	68.689	3,363.28	76.0632	3,363.28	71.7182	3,363.28	73.3225
3,481.93	86.544	3,481.93	85.9081	3,481.93	78.4474	3,481.93	77.1477	3,481.93	81.1149	3,481.93	74.9949	3,481.93	86.0874	3,481.93	80.3337	3,481.93	84.2552	3,481.93	79.7327	3,481.93	76.4986	3,481.93	78.6554	3,481.93	77.8217	3,481.93	76.5665	3,481.93	83.0976	3,481.93	75.8109	3,481.93	81.3722	3,481.93	76.3096	3,481.93	77.8077	3,481.93	74.7035	3,481.93	72.9216	3,481.93	72.6485	3,481.93	67.8089	3,481.93	72.3371	3,481.93	70.6054	3,481.93	70.4423	3,481.93	67.4298	3,481.93	67.3226	3,481.93	71.0987	3,481.93	74.5639	3,481.93	68.6767	3,481.93	77.7168	3,481.93	69.1496	3,481.93	76.2314	3,481.93	71.3072	3,481.93	73.8579
3,604.98	88.1871	3,604.98	86.4175	3,604.98	81.2682	3,604.98	71.996	3,604.98	81.0579	3,604.98	78.1157	3,604.98	86.3621	3,604.98	81.0456	3,604.98	83.9531	3,604.98	80.8635	3,604.98	76.2388	3,604.98	79.2677	3,604.98	78.9182	3,604.98	78.401	3,604.98	82.6508	3,604.98	77.4324	3,604.98	81.6823	3,604.98	74.2642	3,604.98	78.7313	3,604.98	73.9164	3,604.98	74.6573	3,604.98	73.5278	3,604.98	69.4814	3,604.98	71.5982	3,604.98	71.5256	3,604.98	69.5516	3,604.98	68.5086	3,604.98	67.7972	3,604.98	71.1565	3,604.98	74.8322	3,604.98	68.748	3,604.98	78.168	3,604.98	69.3052	3,604.98	76.5201	3,604.98	71.3708	3,604.98	74.4325
3,732.42	88.9288	3,732.42	86.1627	3,732.42	83.1663	3,732.42	67.7453	3,732.42	79.9934	3,732.42	80.9214	3,732.42	86.1782	3,732.42	82.5402	3,732.42	83.3358	3,732.42	80.5822	3,732.42	75.5329	3,732.42	78.7601	3,732.42	79.6008	3,732.42	77.1001	3,732.42	82.5466	3,732.42	76.2279	3,732.42	81.5104	3,732.42	76.3083	3,732.42	75.6554	3,732.42	74.5101	3,732.42	75.3737	3,732.42	73.0791	3,732.42	69.3229	3,732.42	72.136	3,732.42	69.1847	3,732.42	70.4943	3,732.42	70.0264	3,732.42	67.834	3,732.42	71.2155	3,732.42	74.1944	3,732.42	67.5137	3,732.42	77.8927	3,732.42	67.7699	3,732.42	76.7537	3,732.42	73.1609	3,732.42	74.119
3,864.26	88.0802	3,864.26	83.6372	3,864.26	83.3281	3,864.26	69.3867	3,864.26	79.0303	3,864.26	82.7739	3,864.26	86.3089	3,864.26	82.5016	3,864.26	83.7304	3,864.26	79.7863	3,864.26	78.3967	3,864.26	78.3891	3,864.26	80.8126	3,864.26	78.892	3,864.26	82.727	3,864.26	79.1031	3,864.26	81.0859	3,864.26	76.1026	3,864.26	71.1312	3,864.26	75.2457	3,864.26	72.141	3,864.26	74.2935	3,864.26	69.5258	3,864.26	72.6308	3,864.26	69.3449	3,864.26	72.0856	3,864.26	71.6122	3,864.26	66.102	3,864.26	70.8892	3,864.26	74.1754	3,864.26	67.8104	3,864.26	77.9771	3,864.26	68.6654	3,864.26	76.2534	3,864.26	72.3279	3,864.26	72.428
4,000.49	88.0997	4,000.49	81.3573	4,000.49	84.7261	4,000.49	78.5355	4,000.49	75.7013	4,000.49	82.8152	4,000.49	85.7022	4,000.49	81.7562	4,000.49	83.3298	4,000.49	79.3546	4,000.49	79.9607	4,000.49	80.3399	4,000.49	82.4414	4,000.49	79.7161	4,000.49	83.24	4,000.49	76.5647	4,000.49	81.2602	4,000.49	76.1649	4,000.49	74.6995	4,000.49	74.2356	4,000.49	69.0885	4,000.49	72.7036	4,000.49	65.9738	4,000.49	72.175	4,000.49	68.0733	4,000.49	72.4561	4,000.49	71.4104	4,000.49	68.0405	4,000.49	67.3557	4,000.49	73.4824	4,000.49	69.7597	4,000.49	78.2981	4,000.49	68.5223	4,000.49	77.095	4,000.49	73.1862	4,000.49	72.5922
4,141.11	86.9058	4,141.11	80.0035	4,141.11	84.9957	4,141.11	79.4888	4,141.11	72.9535	4,141.11	83.605	4,141.11	85.7337	4,141.11	81.8028	4,141.11	84.2964	4,141.11	81.5533	4,141.11	79.2705	4,141.11	80.6837	4,141.11	83.2819	4,141.11	78.5677	4,141.11	82.2992	4,141.11	78.2072	4,141.11	80.7145	4,141.11	75.4065	4,141.11	71.704	4,141.11	73.5392	4,141.11	72.1741	4,141.11	72.2655	4,141.11	67.2598	4,141.11	70.4721	4,141.11	65.5133	4,141.11	70.9262	4,141.11	70.3857	4,141.11	67.2454	4,141.11	69.0594	4,141.11	73.7743	4,141.11	70.5759	4,141.11	79.3257	4,141.11	69.4227	4,141.11	78.5078	4,141.11	72.3873	4,141.11	72.3131
4,287.6	86.7454	4,287.6	79.7227	4,287.6	84.4998	4,287.6	81.0933	4,287.6	72.9363	4,287.6	82.9666	4,287.6	84.9462	4,287.6	82.6611	4,287.6	84.9736	4,287.6	81.4587	4,287.6	78.0561	4,287.6	79.7488	4,287.6	81.5551	4,287.6	78.036	4,287.6	81.729	4,287.6	77.039	4,287.6	80.0157	4,287.6	77.5938	4,287.6	72.3655	4,287.6	75.8409	4,287.6	71.4141	4,287.6	72.669	4,287.6	72.1324	4,287.6	70.3063	4,287.6	63.0351	4,287.6	71.6526	4,287.6	66.3259	4,287.6	68.0761	4,287.6	69.5376	4,287.6	71.6786	4,287.6	70.1482	4,287.6	78.2783	4,287.6	68.4691	4,287.6	78.6537	4,287.6	72.405	4,287.6	72.5606
4,438.48	86.0864	4,438.48	81.018	4,438.48	84.1021	4,438.48	82.0684	4,438.48	77.5227	4,438.48	83.5307	4,438.48	83.2726	4,438.48	82.6337	4,438.48	83.7317	4,438.48	81.073	4,438.48	80.2126	4,438.48	79.5277	4,438.48	79.4934	4,438.48	78.6079	4,438.48	80.8029	4,438.48	75.6205	4,438.48	78.4417	4,438.48	74.6679	4,438.48	69.325	4,438.48	74.8009	4,438.48	71.8067	4,438.48	73.154	4,438.48	72.9247	4,438.48	69.7864	4,438.48	66.8775	4,438.48	70.5353	4,438.48	68.1999	4,438.48	69.6065	4,438.48	70.537	4,438.48	71.9419	4,438.48	68.3429	4,438.48	77.8648	4,438.48	70.6931	4,438.48	78.7329	4,438.48	72.6061	4,438.48	73.5128
4,595.21	86.8061	4,595.21	81.3499	4,595.21	84.0138	4,595.21	82.7073	4,595.21	80.024	4,595.21	84.2432	4,595.21	83.1805	4,595.21	82.8753	4,595.21	82.874	4,595.21	80.9464	4,595.21	82.2852	4,595.21	79.664	4,595.21	77.6216	4,595.21	77.8309	4,595.21	78.5826	4,595.21	78.7306	4,595.21	76.2465	4,595.21	77.487	4,595.21	65.7278	4,595.21	76.1902	4,595.21	67.1053	4,595.21	74.8323	4,595.21	67.3719	4,595.21	69.7708	4,595.21	69.604	4,595.21	68.8137	4,595.21	68.2028	4,595.21	68.411	4,595.21	71.4638	4,595.21	71.1073	4,595.21	69.8768	4,595.21	77.9013	4,595.21	71.0553	4,595.21	78.9101	4,595.21	71.1401	4,595.21	74.4372
4,756.35	86.3026	4,756.35	81.2402	4,756.35	83.8388	4,756.35	83.3723	4,756.35	81.284	4,756.35	84.6704	4,756.35	83.7177	4,756.35	82.169	4,756.35	81.5022	4,756.35	81.0376	4,756.35	81.4497	4,756.35	79.9452	4,756.35	75.2657	4,756.35	78.9549	4,756.35	75.2865	4,756.35	77.0566	4,756.35	77.4229	4,756.35	77.3604	4,756.35	72.9919	4,756.35	76.7581	4,756.35	71.0311	4,756.35	76.2428	4,756.35	66.3902	4,756.35	71.8264	4,756.35	67.1018	4,756.35	67.4703	4,756.35	66.6995	4,756.35	69.0105	4,756.35	71.857	4,756.35	70.6124	4,756.35	68.979	4,756.35	77.2182	4,756.35	70.2458	4,756.35	78.4684	4,756.35	73.402	4,756.35	74.7795
4,924.8	86.9939	4,924.8	79.932	4,924.8	83.5272	4,924.8	84.5473	4,924.8	82.6435	4,924.8	84.6816	4,924.8	84.1646	4,924.8	82.3429	4,924.8	80.4704	4,924.8	81.3131	4,924.8	81.0559	4,924.8	80.0855	4,924.8	74.9538	4,924.8	79.7971	4,924.8	73.8391	4,924.8	78.8345	4,924.8	78.8293	4,924.8	77.5772	4,924.8	75.2909	4,924.8	77.8867	4,924.8	73.5277	4,924.8	76.973	4,924.8	63.8659	4,924.8	74.3995	4,924.8	65.5982	4,924.8	67.2615	4,924.8	68.1689	4,924.8	68.6647	4,924.8	72.1519	4,924.8	70.5158	4,924.8	67.574	4,924.8	77.6238	4,924.8	70.1771	4,924.8	78.3085	4,924.8	69.4648	4,924.8	74.1405
5,097.66	87.1109	5,097.66	80.526	5,097.66	83.7825	5,097.66	85.9854	5,097.66	82.7543	5,097.66	83.5259	5,097.66	84.6429	5,097.66	82.4711	5,097.66	81.2245	5,097.66	81.8551	5,097.66	80.6509	5,097.66	80.8615	5,097.66	73.7977	5,097.66	80.0277	5,097.66	78.6874	5,097.66	79.8802	5,097.66	79.5129	5,097.66	77.7536	5,097.66	74.6727	5,097.66	77.7474	5,097.66	72.299	5,097.66	77.5236	5,097.66	67.0233	5,097.66	75.0831	5,097.66	61.7573	5,097.66	68.76	5,097.66	64.63	5,097.66	69.5992	5,097.66	71.6259	5,097.66	70.0068	5,097.66	68.068	5,097.66	76.8076	5,097.66	69.0563	5,097.66	78.6757	5,097.66	72.3045	5,097.66	75.0784
5,277.83	87.204	5,277.83	81.1154	5,277.83	85.2732	5,277.83	86.4648	5,277.83	81.8984	5,277.83	83.4183	5,277.83	85.0232	5,277.83	83.5028	5,277.83	82.4822	5,277.83	81.7863	5,277.83	81.7568	5,277.83	81.6365	5,277.83	76.5251	5,277.83	79.9976	5,277.83	81.2029	5,277.83	78.9577	5,277.83	82.071	5,277.83	77.7048	5,277.83	75.8056	5,277.83	77.9312	5,277.83	68.3648	5,277.83	77.6684	5,277.83	65.4926	5,277.83	76.2412	5,277.83	57.0271	5,277.83	68.2295	5,277.83	67.575	5,277.83	69.6501	5,277.83	71.0262	5,277.83	70.7228	5,277.83	69.0727	5,277.83	77.5538	5,277.83	65.9265	5,277.83	77.8386	5,277.83	68.9163	5,277.83	74.5187
5,463.87	86.0285	5,463.87	83.2707	5,463.87	84.74	5,463.87	85.9654	5,463.87	82.8714	5,463.87	83.5837	5,463.87	84.6251	5,463.87	84.0765	5,463.87	83.2393	5,463.87	81.7007	5,463.87	83.4423	5,463.87	81.0935	5,463.87	76.4854	5,463.87	79.7991	5,463.87	81.7136	5,463.87	78.5177	5,463.87	81.221	5,463.87	76.2193	5,463.87	76.5071	5,463.87	76.8	5,463.87	62.9306	5,463.87	77.1486	5,463.87	61.2459	5,463.87	76.6611	5,463.87	50.4212	5,463.87	69.5257	5,463.87	66.41	5,463.87	68.1825	5,463.87	71.5226	5,463.87	70.0925	5,463.87	68.5475	5,463.87	76.7776	5,463.87	68.6574	5,463.87	78.1227	5,463.87	69.5816	5,463.87	74.9791
5,657.23	87.0976	5,657.23	84.2574	5,657.23	85.6917	5,657.23	85.8173	5,657.23	82.6641	5,657.23	84.9094	5,657.23	84.6127	5,657.23	84.1602	5,657.23	82.6033	5,657.23	81.6674	5,657.23	84.3532	5,657.23	80.722	5,657.23	75.5309	5,657.23	79.2929	5,657.23	82.1966	5,657.23	77.5339	5,657.23	80.9778	5,657.23	75.7276	5,657.23	75.2624	5,657.23	75.5631	5,657.23	59.8165	5,657.23	76.7682	5,657.23	61.6945	5,657.23	76.8016	5,657.23	60.7226	5,657.23	70.2093	5,657.23	66.9356	5,657.23	66.8935	5,657.23	71.482	5,657.23	70.4476	5,657.23	68.727	5,657.23	77.073	5,657.23	66.7493	5,657.23	77.8619	5,657.23	68.5446	5,657.23	74.9302
5,856.45	86.848	5,856.45	84.3391	5,856.45	86.2699	5,856.45	85.8436	5,856.45	82.4924	5,856.45	85.6406	5,856.45	84.2117	5,856.45	83.53	5,856.45	83.1689	5,856.45	81.7683	5,856.45	84.7227	5,856.45	80.292	5,856.45	76.7111	5,856.45	78.7235	5,856.45	81.6682	5,856.45	76.3836	5,856.45	81.2418	5,856.45	76.5106	5,856.45	75.9602	5,856.45	75.0956	5,856.45	66.9646	5,856.45	76.4613	5,856.45	40.2717	5,856.45	76.5599	5,856.45	62.5436	5,856.45	72.6435	5,856.45	65.1355	5,856.45	62.6876	5,856.45	70.3985	5,856.45	69.6859	5,856.45	64.8245	5,856.45	76.9977	5,856.45	66.7794	5,856.45	78.4617	5,856.45	70.3286	5,856.45	75.3196
6,062.99	87.3879	6,062.99	84.501	6,062.99	86.7793	6,062.99	87.049	6,062.99	83.3273	6,062.99	85.7273	6,062.99	84.697	6,062.99	83.1222	6,062.99	81.6098	6,062.99	82.6672	6,062.99	84.2213	6,062.99	80.2425	6,062.99	78.3977	6,062.99	78.7769	6,062.99	80.4112	6,062.99	76.8006	6,062.99	80.5373	6,062.99	75.7943	6,062.99	77.7853	6,062.99	74.0862	6,062.99	68.1697	6,062.99	75.4049	6,062.99	64.3388	6,062.99	76.9831	6,062.99	61.2304	6,062.99	73.6469	6,062.99	67.0293	6,062.99	63.5687	6,062.99	63.6427	6,062.99	67.8281	6,062.99	56.5527	6,062.99	76.7554	6,062.99	68.1597	6,062.99	78.2295	6,062.99	69.2595	6,062.99	74.8938
6,276.86	87.1117	6,276.86	85.0898	6,276.86	87.6014	6,276.86	87.4137	6,276.86	82.0234	6,276.86	85.0389	6,276.86	85.0353	6,276.86	83.9566	6,276.86	81.0306	6,276.86	82.6044	6,276.86	84.1502	6,276.86	80.6505	6,276.86	79.4541	6,276.86	78.2369	6,276.86	79.8547	6,276.86	74.7271	6,276.86	79.9921	6,276.86	73.7953	6,276.86	75.4698	6,276.86	72.7489	6,276.86	70.0305	6,276.86	73.7003	6,276.86	68.5502	6,276.86	76.3597	6,276.86	58.1659	6,276.86	73.3377	6,276.86	68.8424	6,276.86	64.9743	6,276.86	60.8202	6,276.86	65.627	6,276.86	65.1588	6,276.86	76.6397	6,276.86	64.456	6,276.86	78.0754	6,276.86	70.4764	6,276.86	75.0556
6,498.05	86.0709	6,498.05	86.4471	6,498.05	88.2142	6,498.05	87.0053	6,498.05	83.6973	6,498.05	85.0739	6,498.05	84.9357	6,498.05	84.5406	6,498.05	79.6568	6,498.05	82.1243	6,498.05	82.8929	6,498.05	79.6866	6,498.05	80.0285	6,498.05	76.8317	6,498.05	79.9248	6,498.05	74.5237	6,498.05	79.9512	6,498.05	72.3792	6,498.05	75.9758	6,498.05	71.5403	6,498.05	71.908	6,498.05	72.188	6,498.05	65.4523	6,498.05	75.9791	6,498.05	53.7024	6,498.05	74.3626	6,498.05	68.838	6,498.05	67.5624	6,498.05	65.1147	6,498.05	61.2597	6,498.05	67.1994	6,498.05	76.1867	6,498.05	65.5108	6,498.05	78.0093	6,498.05	69.6482	6,498.05	75.3204
6,726.56	85.6999	6,726.56	87.2046	6,726.56	88.2539	6,726.56	86.97	6,726.56	83.9168	6,726.56	85.9006	6,726.56	84.9676	6,726.56	83.589	6,726.56	80.8484	6,726.56	81.4406	6,726.56	82.0376	6,726.56	79.5033	6,726.56	80.3194	6,726.56	77.1179	6,726.56	78.3611	6,726.56	73.4328	6,726.56	77.2707	6,726.56	72.247	6,726.56	71.8758	6,726.56	69.6071	6,726.56	71.7729	6,726.56	70.274	6,726.56	67.2301	6,726.56	75.3749	6,726.56	55.3047	6,726.56	74.5334	6,726.56	67.1555	6,726.56	68.9687	6,726.56	67.1935	6,726.56	58.5929	6,726.56	64.6111	6,726.56	75.6816	6,726.56	65.599	6,726.56	78.2443	6,726.56	70.0282	6,726.56	75.6296
6,963.87	85.3732	6,963.87	87.5344	6,963.87	87.7975	6,963.87	86.7641	6,963.87	85.9739	6,963.87	85.141	6,963.87	84.6466	6,963.87	82.4531	6,963.87	82.1198	6,963.87	81.3812	6,963.87	82.2001	6,963.87	79.7803	6,963.87	82.1846	6,963.87	77.2631	6,963.87	77.15	6,963.87	73.9881	6,963.87	76.54	6,963.87	71.4607	6,963.87	69.8981	6,963.87	69.0442	6,963.87	69.1694	6,963.87	68.0259	6,963.87	60.7667	6,963.87	73.3671	6,963.87	61.1747	6,963.87	73.8805	6,963.87	64.3965	6,963.87	70.3144	6,963.87	65.4201	6,963.87	46.2527	6,963.87	64.3205	6,963.87	75.3515	6,963.87	66.1219	6,963.87	77.7215	6,963.87	69.6006	6,963.87	74.4543
7,209.96	86.5948	7,209.96	88.1393	7,209.96	87.6328	7,209.96	86.5839	7,209.96	85.2417	7,209.96	84.7385	7,209.96	85.2989	7,209.96	82.2366	7,209.96	82.2065	7,209.96	81.9747	7,209.96	83.9235	7,209.96	79.0909	7,209.96	82.5918	7,209.96	77.095	7,209.96	74.9916	7,209.96	74.1226	7,209.96	72.0975	7,209.96	71.4078	7,209.96	68.245	7,209.96	68.4357	7,209.96	68.4812	7,209.96	64.1627	7,209.96	59.1091	7,209.96	72.4784	7,209.96	61.9085	7,209.96	73.9885	7,209.96	58.1695	7,209.96	69.9063	7,209.96	65.0636	7,209.96	52.6532	7,209.96	64.8827	7,209.96	74.2627	7,209.96	66.2779	7,209.96	78.0675	7,209.96	69.8512	7,209.96	75.3409
7,464.84	86.251	7,464.84	87.9545	7,464.84	87.6691	7,464.84	85.6914	7,464.84	86.0824	7,464.84	84.4563	7,464.84	84.8501	7,464.84	82.882	7,464.84	83.6527	7,464.84	81.4126	7,464.84	84.6181	7,464.84	79.151	7,464.84	81.3629	7,464.84	76.6549	7,464.84	68.8862	7,464.84	74.1851	7,464.84	70.5285	7,464.84	70.9335	7,464.84	69.6194	7,464.84	68.2439	7,464.84	69.3586	7,464.84	62.6563	7,464.84	60.0949	7,464.84	71.006	7,464.84	58.6806	7,464.84	73.5856	7,464.84	61.9286	7,464.84	70.212	7,464.84	66.494	7,464.84	58.3494	7,464.84	62.8593	7,464.84	73.3959	7,464.84	65.4314	7,464.84	77.5381	7,464.84	69.0588	7,464.84	74.1868
7,727.05	87.3251	7,727.05	88.3774	7,727.05	87.1167	7,727.05	85.4592	7,727.05	85.5807	7,727.05	85.1174	7,727.05	85.3512	7,727.05	82.5948	7,727.05	81.7476	7,727.05	81.5362	7,727.05	82.9446	7,727.05	79.2635	7,727.05	80.2726	7,727.05	76.5408	7,727.05	70.6796	7,727.05	74.3926	7,727.05	76.0505	7,727.05	71.8274	7,727.05	69.7771	7,727.05	68.5789	7,727.05	69.0669	7,727.05	64.3389	7,727.05	57.7428	7,727.05	69.242	7,727.05	55.7332	7,727.05	73.7495	7,727.05	60.3248	7,727.05	70.7435	7,727.05	66.4431	7,727.05	62.6335	7,727.05	61.2854	7,727.05	71.8556	7,727.05	65.0017	7,727.05	77.7707	7,727.05	68.6209	7,727.05	74.4687
7,999.51	87.4895	7,999.51	88.0804	7,999.51	87.4839	7,999.51	85.7192	7,999.51	85.8585	7,999.51	84.9727	7,999.51	85.9006	7,999.51	82.8893	7,999.51	80.9766	7,999.51	81.6057	7,999.51	80.9825	7,999.51	78.3705	7,999.51	76.0301	7,999.51	75.7639	7,999.51	71.3563	7,999.51	73.4419	7,999.51	77.5619	7,999.51	70.4773	7,999.51	71.3896	7,999.51	66.8482	7,999.51	56.451	7,999.51	63.7703	7,999.51	60.4839	7,999.51	65.5146	7,999.51	57.3393	7,999.51	73.2789	7,999.51	62.5986	7,999.51	71.8234	7,999.51	66.5017	7,999.51	66.6237	7,999.51	60.0438	7,999.51	70.1057	7,999.51	63.488	7,999.51	76.8885	7,999.51	67.9935	7,999.51	73.827
8,282.23	88.0179	8,282.23	88.0413	8,282.23	87.8427	8,282.23	85.876	8,282.23	85.4451	8,282.23	84.8144	8,282.23	86.395	8,282.23	83.4091	8,282.23	80.9189	8,282.23	80.5923	8,282.23	79.1056	8,282.23	77.4377	8,282.23	75.1461	8,282.23	74.2098	8,282.23	76.1614	8,282.23	72.988	8,282.23	77.9936	8,282.23	71.1321	8,282.23	73.0528	8,282.23	69.2748	8,282.23	51.393	8,282.23	67.3199	8,282.23	59.8286	8,282.23	58.6185	8,282.23	54.151	8,282.23	71.6341	8,282.23	57.6882	8,282.23	71.5149	8,282.23	65.4603	8,282.23	67.3744	8,282.23	57.0174	8,282.23	67.0935	8,282.23	62.9756	8,282.23	76.6005	8,282.23	67.7233	8,282.23	73.6964
8,573.73	87.9047	8,573.73	88.4572	8,573.73	88.1308	8,573.73	85.2088	8,573.73	86.2775	8,573.73	85.5579	8,573.73	85.9489	8,573.73	82.7691	8,573.73	80.6277	8,573.73	79.9538	8,573.73	76.5869	8,573.73	77.1198	8,573.73	79.1683	8,573.73	74.8642	8,573.73	75.8571	8,573.73	73.6716	8,573.73	76.1741	8,573.73	72.4222	8,573.73	73.4007	8,573.73	69.3549	8,573.73	67.3027	8,573.73	69.1078	8,573.73	49.8859	8,573.73	54.3149	8,573.73	58.8065	8,573.73	71.0517	8,573.73	55.098	8,573.73	72.1067	8,573.73	65.1962	8,573.73	68.9017	8,573.73	57.8527	8,573.73	65.9584	8,573.73	63.3385	8,573.73	76.2268	8,573.73	67.3124	8,573.73	73.5683
8,876.95	88.3453	8,876.95	87.7503	8,876.95	87.9137	8,876.95	85.451	8,876.95	86.2562	8,876.95	85.5893	8,876.95	86.1525	8,876.95	82.329	8,876.95	81.5888	8,876.95	79.7401	8,876.95	79.5389	8,876.95	78.0112	8,876.95	81.3818	8,876.95	75.2527	8,876.95	75.7817	8,876.95	73.6173	8,876.95	72.4713	8,876.95	72.3078	8,876.95	62.9984	8,876.95	69.5348	8,876.95	61.4884	8,876.95	69.6787	8,876.95	55.7814	8,876.95	60.1794	8,876.95	56.885	8,876.95	69.8754	8,876.95	51.3759	8,876.95	71.8804	8,876.95	61.8579	8,876.95	68.0457	8,876.95	57.1206	8,876.95	63.3041	8,876.95	62.3325	8,876.95	75.5062	8,876.95	67.335	8,876.95	73.1596
9,188.96	89.0781	9,188.96	87.4472	9,188.96	87.2469	9,188.96	86.6457	9,188.96	86.7445	9,188.96	84.9781	9,188.96	85.4438	9,188.96	82.7529	9,188.96	82.2159	9,188.96	79.4594	9,188.96	81.942	9,188.96	78.4567	9,188.96	81.9505	9,188.96	75.7182	9,188.96	72.0741	9,188.96	73.9793	9,188.96	69.3041	9,188.96	73.312	9,188.96	65.0102	9,188.96	70.6104	9,188.96	67.3329	9,188.96	70.3143	9,188.96	63.4217	9,188.96	65.5362	9,188.96	57.967	9,188.96	67.8731	9,188.96	59.5189	9,188.96	71.3301	9,188.96	63.1154	9,188.96	68.2299	9,188.96	55.84	9,188.96	61.7564	9,188.96	62.2618	9,188.96	75.9142	9,188.96	66.2159	9,188.96	73.0751
9,514.16	88.8457	9,514.16	87.3655	9,514.16	87.4686	9,514.16	86.7512	9,514.16	86.7828	9,514.16	84.9296	9,514.16	85.4064	9,514.16	82.3784	9,514.16	82.3381	9,514.16	80.4487	9,514.16	82.6123	9,514.16	78.4297	9,514.16	81.9175	9,514.16	76.7746	9,514.16	70.3043	9,514.16	73.8128	9,514.16	71.2076	9,514.16	72.9323	9,514.16	68.1928	9,514.16	70.7557	9,514.16	64.039	9,514.16	70.1553	9,514.16	55.2019	9,514.16	65.3878	9,514.16	57.6393	9,514.16	65.6943	9,514.16	59.5881	9,514.16	71.6315	9,514.16	64.1444	9,514.16	67.2334	9,514.16	53.7277	9,514.16	60.3043	9,514.16	61.0761	9,514.16	75.196	9,514.16	66.8512	9,514.16	72.9036
9,849.61	88.83	9,849.61	87.1217	9,849.61	87.6477	9,849.61	86.7726	9,849.61	86.8474	9,849.61	84.4617	9,849.61	85.5983	9,849.61	82.7061	9,849.61	81.802	9,849.61	80.4361	9,849.61	81.5582	9,849.61	78.7658	9,849.61	78.8898	9,849.61	76.3397	9,849.61	73.4221	9,849.61	73.4413	9,849.61	72.8669	9,849.61	71.8916	9,849.61	67.7677	9,849.61	69.6975	9,849.61	65.0325	9,849.61	70.2195	9,849.61	58.0054	9,849.61	67.1284	9,849.61	57.41	9,849.61	64.3241	9,849.61	61.6599	9,849.61	70.6692	9,849.61	64.0628	9,849.61	67.6373	9,849.61	46.1851	9,849.61	56.1461	9,849.61	61.2458	9,849.61	75.0895	9,849.61	66.0684	9,849.61	73.1116
10,196.8	88.8144	10,196.8	87.2613	10,196.8	87.8499	10,196.8	86.8561	10,196.8	87.1834	10,196.8	84.2146	10,196.8	86.4571	10,196.8	82.4993	10,196.8	81.6249	10,196.8	80.9069	10,196.8	79.7018	10,196.8	78.1737	10,196.8	76.457	10,196.8	75.4757	10,196.8	75.3326	10,196.8	72.5428	10,196.8	70.7212	10,196.8	70.8667	10,196.8	66.4789	10,196.8	69.0816	10,196.8	63.5511	10,196.8	68.814	10,196.8	61.4337	10,196.8	67.6744	10,196.8	54.971	10,196.8	60.9116	10,196.8	59.0086	10,196.8	70.3325	10,196.8	61.8725	10,196.8	67.9798	10,196.8	49.8792	10,196.8	54.1578	10,196.8	58.8639	10,196.8	74.2911	10,196.8	65.0932	10,196.8	72.9237
10,555.7	88.198	10,555.7	87.354	10,555.7	88.0256	10,555.7	86.4828	10,555.7	86.9796	10,555.7	84.0735	10,555.7	86.7301	10,555.7	82.5644	10,555.7	81.8322	10,555.7	80.7243	10,555.7	79.2462	10,555.7	76.8485	10,555.7	76.4401	10,555.7	74.353	10,555.7	75.5969	10,555.7	70.6952	10,555.7	61.9915	10,555.7	68.9132	10,555.7	67.8809	10,555.7	66.4722	10,555.7	55.7081	10,555.7	67.5929	10,555.7	58.3255	10,555.7	67.4155	10,555.7	49.8592	10,555.7	56.63	10,555.7	59.1815	10,555.7	69.2571	10,555.7	62.2899	10,555.7	68.659	10,555.7	40.5689	10,555.7	51.8146	10,555.7	57.3097	10,555.7	73.77	10,555.7	64.4371	10,555.7	72.3304
10,927.7	88.1461	10,927.7	87.5154	10,927.7	87.9529	10,927.7	86.3068	10,927.7	87.0928	10,927.7	84.1086	10,927.7	86.9573	10,927.7	82.6258	10,927.7	82.408	10,927.7	79.8195	10,927.7	80.1124	10,927.7	76.2506	10,927.7	77.4682	10,927.7	72.8698	10,927.7	74.6561	10,927.7	70.6233	10,927.7	67.2827	10,927.7	68.0718	10,927.7	64.6763	10,927.7	66.2458	10,927.7	55.8821	10,927.7	66.1824	10,927.7	60.4945	10,927.7	67.3957	10,927.7	53.6832	10,927.7	50.9108	10,927.7	55.8693	10,927.7	68.2214	10,927.7	58.6408	10,927.7	69.5448	10,927.7	50.2565	10,927.7	41.5855	10,927.7	56.1913	10,927.7	73.8709	10,927.7	63.0682	10,927.7	72.0255
11,313	87.9294	11,313	87.9431	11,313	88.5002	11,313	86.0231	11,313	87.5138	11,313	84.5429	11,313	86.207	11,313	82.4352	11,313	82.4603	11,313	79.1243	11,313	79.4846	11,313	76.0879	11,313	77.1268	11,313	72.8753	11,313	74.2863	11,313	71.2044	11,313	69.9311	11,313	68.5108	11,313	63.6632	11,313	66.5219	11,313	53.7859	11,313	65.3528	11,313	55.5245	11,313	67.5952	11,313	56.8808	11,313	54.9447	11,313	47.7534	11,313	66.9802	11,313	52.0395	11,313	69.9155	11,313	56.3871	11,313	43.2865	11,313	55.3074	11,313	73.9861	11,313	62.5988	11,313	72.001
11,712.9	88.4216	11,712.9	88.0902	11,712.9	88.8736	11,712.9	86.2265	11,712.9	87.2461	11,712.9	84.6639	11,712.9	84.9009	11,712.9	82.7302	11,712.9	81.4071	11,712.9	78.0588	11,712.9	78.0619	11,712.9	77.1835	11,712.9	77.9829	11,712.9	73.8874	11,712.9	75.3513	11,712.9	70.8124	11,712.9	68.2837	11,712.9	67.1605	11,712.9	64.6184	11,712.9	65.4585	11,712.9	55.1084	11,712.9	63.3051	11,712.9	51.3178	11,712.9	67.33	11,712.9	51.3499	11,712.9	60.0238	11,712.9	45.9588	11,712.9	65.7672	11,712.9	60.4221	11,712.9	70.1992	11,712.9	54.0059	11,712.9	55.5469	11,712.9	59.099	11,712.9	73.8695	11,712.9	62.9366	11,712.9	71.5755
12,126	88.714	12,126	88.0372	12,126	88.5358	12,126	86.4426	12,126	86.6534	12,126	85.1974	12,126	84.3042	12,126	81.9888	12,126	81.6082	12,126	79.0832	12,126	77.434	12,126	76.7046	12,126	78.5459	12,126	73.2524	12,126	73.6987	12,126	70.0583	12,126	63.872	12,126	66.7491	12,126	64.4156	12,126	64.5033	12,126	54.0729	12,126	61.2832	12,126	52.4202	12,126	66.9018	12,126	53.7589	12,126	62.6247	12,126	55.6324	12,126	64.3795	12,126	58.2742	12,126	70.0419	12,126	55.2344	12,126	59.2007	12,126	59.1863	12,126	73.3038	12,126	64.1602	12,126	72.1719
12,553.7	88.6829	12,553.7	88.0692	12,553.7	88.4044	12,553.7	86.5683	12,553.7	87.0663	12,553.7	85.2003	12,553.7	84.2611	12,553.7	81.6206	12,553.7	81.5673	12,553.7	79.4206	12,553.7	78.7751	12,553.7	76.3107	12,553.7	78.7865	12,553.7	72.7048	12,553.7	73.3275	12,553.7	68.4777	12,553.7	64.3277	12,553.7	63.8578	12,553.7	61.3853	12,553.7	63.1353	12,553.7	51.4133	12,553.7	58.6595	12,553.7	53.9738	12,553.7	65.1458	12,553.7	53.6754	12,553.7	62.6269	12,553.7	55.9885	12,553.7	61.0466	12,553.7	54.2111	12,553.7	69.425	12,553.7	53.6359	12,553.7	62.0423	12,553.7	52.6466	12,553.7	72.4642	12,553.7	62.5802	12,553.7	72.2556
12,996.1	88.7318	12,996.1	87.558	12,996.1	88.1601	12,996.1	86.5899	12,996.1	87.1876	12,996.1	84.7694	12,996.1	84.5539	12,996.1	81.4167	12,996.1	81.7397	12,996.1	79.2458	12,996.1	78.6751	12,996.1	75.6056	12,996.1	77.967	12,996.1	70.2089	12,996.1	73.2696	12,996.1	67.4369	12,996.1	70.4256	12,996.1	63.0775	12,996.1	63.6625	12,996.1	62.2091	12,996.1	47.7179	12,996.1	55.5565	12,996.1	47.0601	12,996.1	62.8741	12,996.1	45.1569	12,996.1	63.3217	12,996.1	55.2302	12,996.1	55.6829	12,996.1	55.7712	12,996.1	68.5908	12,996.1	56.0968	12,996.1	63.4675	12,996.1	51.3412	12,996.1	72.1985	12,996.1	62.0963	12,996.1	71.9674
13,454.6	88.4135	13,454.6	87.2269	13,454.6	87.7102	13,454.6	86.5114	13,454.6	87.1707	13,454.6	84.2645	13,454.6	84.7271	13,454.6	81.4351	13,454.6	81.4423	13,454.6	78.6901	13,454.6	79.0344	13,454.6	73.9617	13,454.6	76.0451	13,454.6	69.0184	13,454.6	71.8708	13,454.6	67.7923	13,454.6	69.3477	13,454.6	64.4258	13,454.6	59.2016	13,454.6	63.1336	13,454.6	57.8509	13,454.6	56.5346	13,454.6	57.8553	13,454.6	58.3693	13,454.6	48.6695	13,454.6	63.7792	13,454.6	54.2907	13,454.6	47.6768	13,454.6	52.2466	13,454.6	68.2624	13,454.6	52.8114	13,454.6	64.979	13,454.6	51.4904	13,454.6	71.676	13,454.6	60.9934	13,454.6	71.7265
13,929.2	88.1037	13,929.2	87.1509	13,929.2	87.5536	13,929.2	86.463	13,929.2	87.0705	13,929.2	83.7925	13,929.2	84.5058	13,929.2	81.688	13,929.2	81.5106	13,929.2	77.2237	13,929.2	78.5794	13,929.2	73.6808	13,929.2	74.4667	13,929.2	70.8307	13,929.2	74.4802	13,929.2	68.5955	13,929.2	64.3754	13,929.2	64.6133	13,929.2	55.3823	13,929.2	62.837	13,929.2	59.9041	13,929.2	59.4793	13,929.2	60.6436	13,929.2	54.9173	13,929.2	55.4029	13,929.2	63.0827	13,929.2	56.8274	13,929.2	48.655	13,929.2	37.0487	13,929.2	67.782	13,929.2	52.5945	13,929.2	66.0252	13,929.2	39.9462	13,929.2	71.1033	13,929.2	59.4401	13,929.2	71.4437
14,419.9	88.002	14,419.9	87.1479	14,419.9	87.4701	14,419.9	86.6079	14,419.9	86.8999	14,419.9	83.8984	14,419.9	84.5657	14,419.9	81.6902	14,419.9	82.0495	14,419.9	76.1355	14,419.9	77.0722	14,419.9	74.5652	14,419.9	75.5968	14,419.9	70.0231	14,419.9	73.8773	14,419.9	67.4321	14,419.9	66.2223	14,419.9	63.9555	14,419.9	58.4645	14,419.9	62.5751	14,419.9	56.1375	14,419.9	59.4204	14,419.9	57.6036	14,419.9	53.3607	14,419.9	54.3486	14,419.9	61.9633	14,419.9	57.35	14,419.9	55.5366	14,419.9	49.1946	14,419.9	66.0382	14,419.9	53.3001	14,419.9	67.0747	14,419.9	46.3889	14,419.9	70.2095	14,419.9	59.616	14,419.9	71.3605
14,928.2	87.9533	14,928.2	87.4818	14,928.2	87.437	14,928.2	86.6157	14,928.2	86.8134	14,928.2	84.6512	14,928.2	84.4484	14,928.2	80.5782	14,928.2	81.9778	14,928.2	77.2166	14,928.2	77.7037	14,928.2	73.8935	14,928.2	76.6051	14,928.2	69.5993	14,928.2	68.8829	14,928.2	66.0664	14,928.2	67.4377	14,928.2	62.8036	14,928.2	56.0391	14,928.2	61.9767	14,928.2	47.8132	14,928.2	59.317	14,928.2	56.8824	14,928.2	53.4427	14,928.2	53.6015	14,928.2	60.4817	14,928.2	57.1681	14,928.2	58.5773	14,928.2	41.5284	14,928.2	63.4732	14,928.2	51.0576	14,928.2	67.445	14,928.2	35.2382	14,928.2	68.7811	14,928.2	58.7682	14,928.2	71.8299
15,455.6	87.7965	15,455.6	87.6837	15,455.6	87.442	15,455.6	86.4714	15,455.6	86.6522	15,455.6	84.9507	15,455.6	84.5365	15,455.6	79.6922	15,455.6	81.9846	15,455.6	77.6675	15,455.6	75.6777	15,455.6	73.7018	15,455.6	75.7168	15,455.6	67.1776	15,455.6	72.7378	15,455.6	65.0088	15,455.6	62.9149	15,455.6	63.2253	15,455.6	52.3881	15,455.6	61.4561	15,455.6	55.8537	15,455.6	58.5567	15,455.6	59.1872	15,455.6	55.4186	15,455.6	54.3164	15,455.6	59.3002	15,455.6	55.3735	15,455.6	60.8371	15,455.6	38.5511	15,455.6	60.8194	15,455.6	45.8638	15,455.6	67.4174	15,455.6	46.1401	15,455.6	68.1512	15,455.6	56.1341	15,455.6	71.946
16,000.5	87.6334	16,000.5	87.4649	16,000.5	87.249	16,000.5	86.2705	16,000.5	86.2562	16,000.5	84.3857	16,000.5	84.2947	16,000.5	79.854	16,000.5	80.9344	16,000.5	77.0794	16,000.5	76.9019	16,000.5	72.679	16,000.5	74.8488	16,000.5	68.3768	16,000.5	69.3065	16,000.5	65.501	16,000.5	64.3963	16,000.5	63.9294	16,000.5	53.0321	16,000.5	62.2639	16,000.5	61.0681	16,000.5	59.3084	16,000.5	57.7577	16,000.5	58.077	16,000.5	49.3388	16,000.5	57.3194	16,000.5	53.1516	16,000.5	62.1047	16,000.5	48.9292	16,000.5	55.5425	16,000.5	44.5739	16,000.5	67.1877	16,000.5	49.11	16,000.5	67.841	16,000.5	56.8753	16,000.5	71.3414
16,564.5	87.4124	16,564.5	86.9858	16,564.5	87.2034	16,564.5	85.9324	16,564.5	86.083	16,564.5	83.4043	16,564.5	83.6286	16,564.5	80.1614	16,564.5	80.1236	16,564.5	75.8776	16,564.5	76.9165	16,564.5	73.756	16,564.5	73.5704	16,564.5	69.8764	16,564.5	67.1927	16,564.5	64.3676	16,564.5	64.7813	16,564.5	62.3977	16,564.5	56.0578	16,564.5	60.9188	16,564.5	61.111	16,564.5	58.4255	16,564.5	59.4441	16,564.5	59.4156	16,564.5	47.6957	16,564.5	52.5146	16,564.5	48.5668	16,564.5	62.1552	16,564.5	51.5355	16,564.5	49.1208	16,564.5	44.5653	16,564.5	66.4699	16,564.5	50.5785	16,564.5	66.9224	16,564.5	56.1561	16,564.5	70.3505
17,148.9	86.8813	17,148.9	86.4519	17,148.9	86.9621	17,148.9	85.384	17,148.9	86.0454	17,148.9	82.2399	17,148.9	83.2372	17,148.9	79.9983	17,148.9	79.5496	17,148.9	75.6314	17,148.9	76.8567	17,148.9	73.9965	17,148.9	72.7462	17,148.9	68.9108	17,148.9	69.685	17,148.9	62.2211	17,148.9	61.6302	17,148.9	60.0267	17,148.9	53.3734	17,148.9	57.1287	17,148.9	58.91	17,148.9	54.7539	17,148.9	59.3613	17,148.9	58.679	17,148.9	46.9932	17,148.9	44.158	17,148.9	40.7982	17,148.9	61.1889	17,148.9	52.3729	17,148.9	36.8766	17,148.9	48.5194	17,148.9	64.9612	17,148.9	51.6137	17,148.9	65.4264	17,148.9	56.0771	17,148.9	69.5633
17,752.4	86.504	17,752.4	85.8701	17,752.4	85.6061	17,752.4	84.5734	17,752.4	85.1088	17,752.4	81.7969	17,752.4	83.1016	17,752.4	78.7876	17,752.4	79.1209	17,752.4	76.2996	17,752.4	75.3264	17,752.4	72.1841	17,752.4	71.4668	17,752.4	67.2899	17,752.4	67.1426	17,752.4	60.9821	17,752.4	63.0922	17,752.4	59.2632	17,752.4	52.5699	17,752.4	55.7303	17,752.4	59.0757	17,752.4	48.9229	17,752.4	55.6518	17,752.4	57.8807	17,752.4	49.0813	17,752.4	39.1217	17,752.4	48.4047	17,752.4	59.3891	17,752.4	51.1547	17,752.4	41.8915	17,752.4	40.56	17,752.4	63.4397	17,752.4	49.0223	17,752.4	64.409	17,752.4	53.354	17,752.4	69.1135
18,379.4	86.3647	18,379.4	85.5865	18,379.4	84.7409	18,379.4	84.086	18,379.4	83.6116	18,379.4	81.7992	18,379.4	82.4519	18,379.4	77.8512	18,379.4	78.8333	18,379.4	75.6065	18,379.4	73.3547	18,379.4	70.61	18,379.4	70.8132	18,379.4	65.7616	18,379.4	68.0931	18,379.4	61.2486	18,379.4	57.9251	18,379.4	60.9104	18,379.4	55.2329	18,379.4	57.8897	18,379.4	60.3722	18,379.4	47.4762	18,379.4	57.2561	18,379.4	57.4664	18,379.4	50.918	18,379.4	46.4917	18,379.4	51.6146	18,379.4	57.9148	18,379.4	45.2617	18,379.4	49.1324	18,379.4	44.7615	18,379.4	62.6505	18,379.4	51.5761	18,379.4	63.6809	18,379.4	52.0601	18,379.4	68.3391
19,026.9	86.1774	19,026.9	85.3268	19,026.9	84.9305	19,026.9	83.8821	19,026.9	83.1978	19,026.9	81.7291	19,026.9	81.1156	19,026.9	77.6087	19,026.9	77.133	19,026.9	74.0479	19,026.9	72.2422	19,026.9	69.6422	19,026.9	69.7111	19,026.9	67.1152	19,026.9	64.0373	19,026.9	61.9333	19,026.9	60.514	19,026.9	61.4421	19,026.9	51.8747	19,026.9	58.7873	19,026.9	61.2327	19,026.9	51.0896	19,026.9	59.5231	19,026.9	56.4738	19,026.9	50.8607	19,026.9	51.9856	19,026.9	48.5482	19,026.9	56.1522	19,026.9	46.8316	19,026.9	52.062	19,026.9	48.4419	19,026.9	61.4969	19,026.9	54.243	19,026.9	62.515	19,026.9	53.9722	19,026.9	67.6631
19,697.8	86.2668	19,697.8	85.6116	19,697.8	85.37	19,697.8	84.0896	19,697.8	83.9999	19,697.8	81.299	19,697.8	80.6266	19,697.8	77.5716	19,697.8	75.6628	19,697.8	72.1709	19,697.8	72.981	19,697.8	70.4694	19,697.8	69.2606	19,697.8	67.5971	19,697.8	68.7574	19,697.8	60.5748	19,697.8	63.4238	19,697.8	60.2565	19,697.8	53.0113	19,697.8	58.1336	19,697.8	59.5284	19,697.8	53.1605	19,697.8	60.036	19,697.8	54.7498	19,697.8	52.1319	19,697.8	52.2542	19,697.8	53.6957	19,697.8	53.7757	19,697.8	46.7254	19,697.8	52.253	19,697.8	47.5765	19,697.8	60.0299	19,697.8	54.3143	19,697.8	61.925	19,697.8	54.5523	19,697.8	67.4803
19,999.5	86.4846	19,999.5	85.992	19,999.5	85.4336	19,999.5	84.2851	19,999.5	84.8638	19,999.5	81.0964	19,999.5	81.1403	19,999.5	77.4302	19,999.5	76.6608	19,999.5	72.216	19,999.5	70.6989	19,999.5	70.5728	19,999.5	68.1046	19,999.5	67.6232	19,999.5	65.018	19,999.5	58.3454	19,999.5	61.5242	19,999.5	57.2844	19,999.5	55.3734	19,999.5	58.1696	19,999.5	57.7418	19,999.5	55.3233	19,999.5	61.8178	19,999.5	51.6405	19,999.5	44.5438	19,999.5	54.3733	19,999.5	55.4766	19,999.5	47.5287	19,999.5	56.9521	19,999.5	47.0441	19,999.5	44.6741	19,999.5	59.8374	19,999.5	51.6642	19,999.5	62.4398	19,999.5	43.0139	19,999.5	68.3052
