"SPL Horizontal"																																																																							
"On-Axis"		"10°"		"-10°"		"20°"		"-20°"		"30°"		"-30°"		"40°"		"-40°"		"50°"		"-50°"		"60°"		"-60°"		"70°"		"-70°"		"80°"		"-80°"		"90°"		"-90°"		"100°"		"-100°"		"110°"		"-110°"		"120°"		"-120°"		"130°"		"-130°"		"140°"		"-140°"		"150°"		"-150°"		"160°"		"-160°"		"170°"		"-170°"		"180°"	
"Frequency [Hz]"	"Sound Pessure Level [dB]  / [2.83V 1m] "	"Frequency [Hz]"	"Sound Pessure Level [dB]  / [2.83V 1m] "	"Frequency [Hz]"	"Sound Pessure Level [dB]  / [2.83V 1m] "	"Frequency [Hz]"	"Sound Pessure Level [dB]  / [2.83V 1m] "	"Frequency [Hz]"	"Sound Pessure Level [dB]  / [2.83V 1m] "	"Frequency [Hz]"	"Sound Pessure Level [dB]  / [2.83V 1m] "	"Frequency [Hz]"	"Sound Pessure Level [dB]  / [2.83V 1m] "	"Frequency [Hz]"	"Sound Pessure Level [dB]  / [2.83V 1m] "	"Frequency [Hz]"	"Sound Pessure Level [dB]  / [2.83V 1m] "	"Frequency [Hz]"	"Sound Pessure Level [dB]  / [2.83V 1m] "	"Frequency [Hz]"	"Sound Pessure Level [dB]  / [2.83V 1m] "	"Frequency [Hz]"	"Sound Pessure Level [dB]  / [2.83V 1m] "	"Frequency [Hz]"	"Sound Pessure Level [dB]  / [2.83V 1m] "	"Frequency [Hz]"	"Sound Pessure Level [dB]  / [2.83V 1m] "	"Frequency [Hz]"	"Sound Pessure Level [dB]  / [2.83V 1m] "	"Frequency [Hz]"	"Sound Pessure Level [dB]  / [2.83V 1m] "	"Frequency [Hz]"	"Sound Pessure Level [dB]  / [2.83V 1m] "	"Frequency [Hz]"	"Sound Pessure Level [dB]  / [2.83V 1m] "	"Frequency [Hz]"	"Sound Pessure Level [dB]  / [2.83V 1m] "	"Frequency [Hz]"	"Sound Pessure Level [dB]  / [2.83V 1m] "	"Frequency [Hz]"	"Sound Pessure Level [dB]  / [2.83V 1m] "	"Frequency [Hz]"	"Sound Pessure Level [dB]  / [2.83V 1m] "	"Frequency [Hz]"	"Sound Pessure Level [dB]  / [2.83V 1m] "	"Frequency [Hz]"	"Sound Pessure Level [dB]  / [2.83V 1m] "	"Frequency [Hz]"	"Sound Pessure Level [dB]  / [2.83V 1m] "	"Frequency [Hz]"	"Sound Pessure Level [dB]  / [2.83V 1m] "	"Frequency [Hz]"	"Sound Pessure Level [dB]  / [2.83V 1m] "	"Frequency [Hz]"	"Sound Pessure Level [dB]  / [2.83V 1m] "	"Frequency [Hz]"	"Sound Pessure Level [dB]  / [2.83V 1m] "	"Frequency [Hz]"	"Sound Pessure Level [dB]  / [2.83V 1m] "	"Frequency [Hz]"	"Sound Pessure Level [dB]  / [2.83V 1m] "	"Frequency [Hz]"	"Sound Pessure Level [dB]  / [2.83V 1m] "	"Frequency [Hz]"	"Sound Pessure Level [dB]  / [2.83V 1m] "	"Frequency [Hz]"	"Sound Pessure Level [dB]  / [2.83V 1m] "	"Frequency [Hz]"	"Sound Pessure Level [dB]  / [2.83V 1m] "	"Frequency [Hz]"	"Sound Pessure Level [dB]  / [2.83V 1m] "
20.5078	60.7834	20.5078	60.7354	20.5078	60.743	20.5078	60.6055	20.5078	60.6126	20.5078	60.4063	20.5078	60.3948	20.5078	60.1603	20.5078	60.0988	20.5078	59.9054	20.5078	59.7453	20.5078	59.6993	20.5078	59.3736	20.5078	59.6183	20.5078	59.0517	20.5078	59.74	20.5078	58.8783	20.5078	60.1103	20.5078	58.9621	20.5078	60.7151	20.5078	59.3691	20.5078	61.483	20.5078	60.075	20.5078	62.3171	20.5078	60.975	20.5078	63.1268	20.5078	61.9401	20.5078	63.8413	20.5078	62.8617	20.5078	64.4109	20.5078	63.6643	20.5078	64.8022	20.5078	64.3005	20.5078	64.9941	20.5078	64.7424	20.5078	64.9752
21.9727	61.2508	21.9727	61.2009	21.9727	61.1967	21.9727	61.0514	21.9727	61.0382	21.9727	60.8125	21.9727	60.7792	21.9727	60.5041	21.9727	60.4305	21.9727	60.1635	21.9727	60.0156	21.9727	59.8536	21.9727	59.5812	21.9727	59.6659	21.9727	59.2078	21.9727	59.7046	21.9727	59.0127	21.9727	60.0409	21.9727	59.1184	21.9727	60.6661	21.9727	59.5856	21.9727	61.4918	21.9727	60.3639	21.9727	62.3972	21.9727	61.3229	21.9727	63.2748	21.9727	62.3231	21.9727	64.0467	21.9727	63.2578	21.9727	64.6621	21.9727	64.0579	21.9727	65.0899	21.9727	64.682	21.9727	65.3114	21.9727	65.1062	21.9727	65.3176
23.4375	61.5613	23.4375	61.4826	23.4375	61.5314	23.4375	61.3011	23.4375	61.3921	23.4375	61.0296	23.4375	61.1474	23.4375	60.6944	23.4375	60.8085	23.4375	60.3436	23.4375	60.4009	23.4375	60.0566	23.4375	59.9744	23.4375	59.9425	23.4375	59.6163	23.4375	60.1089	23.4375	59.4517	23.4375	60.6034	23.4375	59.6081	23.4375	61.3762	23.4375	60.1399	23.4375	62.3098	23.4375	60.9831	23.4375	63.2782	23.4375	61.997	23.4375	64.183	23.4375	63.0398	23.4375	64.9585	23.4375	64.0072	23.4375	65.5639	23.4375	64.8339	23.4375	65.9745	23.4375	65.4813	23.4375	66.1757	23.4375	65.9274	23.4375	66.1604
24.9023	62.4083	24.9023	62.3568	24.9023	62.3681	24.9023	62.2202	24.9023	62.2365	24.9023	62.0142	24.9023	62.021	24.9023	61.7683	24.9023	61.7395	24.9023	61.5321	24.9023	61.4256	24.9023	61.3796	24.9023	61.1369	24.9023	61.4006	24.9023	60.9579	24.9023	61.6717	24.9023	60.9887	24.9023	62.2153	24.9023	61.3065	24.9023	62.9827	24.9023	61.92	24.9023	63.8781	24.9023	62.76	24.9023	64.7996	24.9023	63.717	24.9023	65.6636	24.9023	64.685	24.9023	66.4099	24.9023	65.5826	24.9023	66.998	24.9023	66.3537	24.9023	67.4012	24.9023	66.9609	24.9023	67.6033	24.9023	67.38	24.9023	67.5964
26.3672	63.9313	26.3672	63.8968	26.3672	63.8971	26.3672	63.8006	26.3672	63.7944	26.3672	63.6588	26.3672	63.631	26.3672	63.4989	26.3672	63.4244	26.3672	63.3634	26.3672	63.2048	26.3672	63.3092	26.3672	63.0197	26.3672	63.3995	26.3672	62.9326	26.3672	63.6841	26.3672	63.0135	26.3672	64.176	26.3672	63.3148	26.3672	64.8419	26.3672	63.8452	26.3672	65.6146	26.3672	64.5612	26.3672	66.4168	26.3672	65.3861	26.3672	67.1784	26.3672	66.2365	26.3672	67.844	26.3672	67.0403	26.3672	68.3725	26.3672	67.7424	26.3672	68.7356	26.3672	68.303	26.3672	68.915	26.3672	68.6951	26.3672	68.9017
27.832	65.0751	27.832	65.0443	27.832	65.0467	27.832	64.9607	27.832	64.9599	27.832	64.8384	27.832	64.822	27.832	64.7017	27.832	64.6491	27.832	64.5874	27.832	64.468	27.832	64.5443	27.832	64.3187	27.832	64.6264	27.832	64.2542	27.832	64.8779	27.832	64.3316	27.832	65.3141	27.832	64.5957	27.832	65.9115	27.832	65.0583	27.832	66.6149	27.832	65.69	27.832	67.3555	27.832	66.4296	27.832	68.0671	27.832	67.2048	27.832	68.6947	27.832	67.9483	27.832	69.1966	27.832	68.6052	27.832	69.543	27.832	69.1341	27.832	69.7148	27.832	69.506	27.832	69.7026
29.2969	66.1931	29.2969	66.1653	29.2969	66.1705	29.2969	66.0928	29.2969	66.0982	29.2969	65.9883	29.2969	65.983	29.2969	65.8732	29.2969	65.839	29.2969	65.7791	29.2969	65.6896	29.2969	65.7473	29.2969	65.5688	29.2969	65.8233	29.2969	65.5203	29.2969	66.0451	29.2969	65.5916	29.2969	66.4287	29.2969	65.8212	29.2969	66.9584	29.2969	66.2227	29.2969	67.59	29.2969	66.7767	29.2969	68.2643	29.2969	67.4352	29.2969	68.9203	29.2969	68.1363	29.2969	69.5049	29.2969	68.8179	29.2969	69.9761	29.2969	69.4268	29.2969	70.3032	29.2969	69.9211	29.2969	70.4662	29.2969	70.2704	29.2969	70.4553
30.7617	67.0723	30.7617	67.0567	30.7617	67.0484	30.7617	67.0071	30.7617	66.9856	30.7617	66.9354	30.7617	66.8902	30.7617	66.8611	30.7617	66.7753	30.7617	66.8116	30.7617	66.662	30.7617	66.8213	30.7617	66.5801	30.7617	66.9266	30.7617	66.5664	30.7617	67.1567	30.7617	66.6597	30.7617	67.5234	30.7617	66.8905	30.7617	68.0136	30.7617	67.2697	30.7617	68.5914	30.7617	67.7816	30.7617	69.2072	30.7617	68.3871	30.7617	69.8078	30.7617	69.0334	30.7617	70.345	30.7617	69.6658	30.7617	70.7788	30.7617	70.2349	30.7617	71.0793	30.7617	70.7004	30.7617	71.2266	30.7617	71.0324	30.7617	71.211
32.2266	68.17	32.2266	68.1581	32.2266	68.1487	32.2266	68.1173	32.2266	68.0948	32.2266	68.0575	32.2266	68.0141	32.2266	67.9951	32.2266	67.9183	32.2266	67.9526	32.2266	67.8254	32.2266	67.9589	32.2266	67.7604	32.2266	68.0446	32.2266	67.7537	32.2266	68.2364	32.2266	67.8374	32.2266	68.5475	32.2266	68.0375	32.2266	68.9714	32.2266	68.3654	32.2266	69.4811	32.2266	68.8111	32.2266	70.0346	32.2266	69.3446	32.2266	70.5837	32.2266	69.9216	32.2266	71.0817	32.2266	70.493	32.2266	71.4887	32.2266	71.0121	32.2266	71.7741	32.2266	71.4395	32.2266	71.917	32.2266	71.7447	32.2266	71.9073
33.6914	69.0047	33.6914	68.9959	33.6914	68.9866	33.6914	68.9641	33.6914	68.9423	33.6914	68.9181	33.6914	68.8771	33.6914	68.8723	33.6914	68.8013	33.6914	68.8465	33.6914	68.7306	33.6914	68.8654	33.6914	68.6863	33.6914	68.9552	33.6914	68.6941	33.6914	69.1386	33.6914	68.7807	33.6914	69.4273	33.6914	68.9681	33.6914	69.8167	33.6914	69.2667	33.6914	70.284	33.6914	69.6697	33.6914	70.7928	33.6914	70.1531	33.6914	71.2999	33.6914	70.6795	33.6914	71.7618	33.6914	71.2051	33.6914	72.1407	33.6914	71.6866	33.6914	72.4065	33.6914	72.086	33.6914	72.5389	33.6914	72.3733	33.6914	72.5278
35.1563	69.8885	35.1563	69.8811	35.1563	69.875	35.1563	69.8563	35.1563	69.8412	35.1563	69.8218	35.1563	69.7917	35.1563	69.7902	35.1563	69.7356	35.1563	69.7786	35.1563	69.6863	35.1563	69.8078	35.1563	69.6618	35.1563	69.9002	35.1563	69.6836	35.1563	70.0748	35.1563	69.7735	35.1563	70.342	35.1563	69.9501	35.1563	70.6983	35.1563	70.2224	35.1563	71.1254	35.1563	70.5863	35.1563	71.5919	35.1563	71.0225	35.1563	72.0591	35.1563	71.4998	35.1563	72.4873	35.1563	71.9798	35.1563	72.8402	35.1563	72.4227	35.1563	73.0888	35.1563	72.7924	35.1563	73.2132	35.1563	73.0594	35.1563	73.2033
36.6211	70.7815	36.6211	70.7809	36.6211	70.7676	36.6211	70.7686	36.6211	70.7397	36.6211	70.7513	36.6211	70.7017	36.6211	70.7393	36.6211	70.6613	36.6211	70.7465	36.6211	70.6297	36.6211	70.7899	36.6211	70.6217	36.6211	70.8871	36.6211	70.6545	36.6211	71.0534	36.6211	70.7461	36.6211	71.2975	36.6211	70.9113	36.6211	71.6173	36.6211	71.1583	36.6211	71.9986	36.6211	71.4846	36.6211	72.4157	36.6211	71.8755	36.6211	72.8354	36.6211	72.305	36.6211	73.2221	36.6211	72.74	36.6211	73.5422	36.6211	73.1447	36.6211	73.768	36.6211	73.4851	36.6211	73.8799	36.6211	73.7329	36.6211	73.8681
38.0859	71.6342	38.0859	71.6359	38.0859	71.6219	38.0859	71.6293	38.0859	71.5994	38.0859	71.6199	38.0859	71.5699	38.0859	71.6163	38.0859	71.5398	38.0859	71.63	38.0859	71.5183	38.0859	71.6748	38.0859	71.5177	38.0859	71.7656	38.0859	71.5522	38.0859	71.9153	38.0859	71.6368	38.0859	72.132	38.0859	71.7845	38.0859	72.4152	38.0859	72.003	38.0859	72.7541	38.0859	72.2917	38.0859	73.1275	38.0859	72.6393	38.0859	73.5066	38.0859	73.0246	38.0859	73.8588	38.0859	73.4182	38.0859	74.1527	38.0859	73.7874	38.0859	74.3611	38.0859	74.1002	38.0859	74.465	38.0859	74.3291	38.0859	74.4542
39.5508	72.4241	39.5508	72.428	39.5508	72.414	39.5508	72.4279	39.5508	72.3982	39.5508	72.4284	39.5508	72.3795	39.5508	72.4365	39.5508	72.363	39.5508	72.4618	39.5508	72.3564	39.5508	72.5158	39.5508	72.3697	39.5508	72.6104	39.5508	72.4146	39.5508	72.7565	39.5508	72.5032	39.5508	72.9606	39.5508	72.6461	39.5508	73.2227	39.5508	72.85	39.5508	73.5338	39.5508	73.1148	39.5508	73.8759	39.5508	73.4314	39.5508	74.2237	39.5508	73.7822	39.5508	74.5478	39.5508	74.1418	39.5508	74.819	39.5508	74.4807	39.5508	75.0119	39.5508	74.7692	39.5508	75.1079	39.5508	74.9812	39.5508	75.0975
41.0156	73.2831	41.0156	73.2887	41.0156	73.2734	41.0156	73.2918	41.0156	73.2598	41.0156	73.2959	41.0156	73.2448	41.0156	73.3066	41.0156	73.2323	41.0156	73.3315	41.0156	73.2284	41.0156	73.3797	41.0156	73.2412	41.0156	73.4611	41.0156	73.2801	41.0156	73.5851	41.0156	73.355	41.0156	73.758	41.0156	73.4752	41.0156	73.981	41.0156	73.6473	41.0156	74.2481	41.0156	73.8724	41.0156	74.5449	41.0156	74.1446	41.0156	74.85	41.0156	74.4498	41.0156	75.1372	41.0156	74.7667	41.0156	75.3794	41.0156	75.0688	41.0156	75.5524	41.0156	75.3285	41.0156	75.6384	41.0156	75.5211	41.0156	75.6278
42.4805	74.0515	42.4805	74.0631	42.4805	74.036	42.4805	74.0722	42.4805	74.0171	42.4805	74.0822	42.4805	73.997	42.4805	74.0982	42.4805	73.9798	42.4805	74.1269	42.4805	73.9715	42.4805	74.1767	42.4805	73.9796	42.4805	74.2564	42.4805	74.0133	42.4805	74.3741	42.4805	74.082	42.4805	74.5353	42.4805	74.1942	42.4805	74.7411	42.4805	74.3559	42.4805	74.986	42.4805	74.5678	42.4805	75.2576	42.4805	74.8244	42.4805	75.5366	42.4805	75.1126	42.4805	75.7993	42.4805	75.4124	42.4805	76.0207	42.4805	75.6993	42.4805	76.1778	42.4805	75.9475	42.4805	76.2535	42.4805	76.1333	42.4805	76.2385
43.9453	74.6715	43.9453	74.6822	43.9453	74.6593	43.9453	74.6924	43.9453	74.6458	43.9453	74.7046	43.9453	74.6328	43.9453	74.7229	43.9453	74.6236	43.9453	74.7529	43.9453	74.6228	43.9453	74.8011	43.9453	74.6366	43.9453	74.8748	43.9453	74.672	43.9453	74.9808	43.9453	74.7368	43.9453	75.1241	43.9453	74.838	43.9453	75.3061	43.9453	74.9807	43.9453	75.5228	43.9453	75.1665	43.9453	75.7641	43.9453	75.3912	43.9453	76.0136	43.9453	75.6446	43.9453	76.2501	43.9453	75.91	43.9453	76.4507	43.9453	76.1657	43.9453	76.594	43.9453	76.3884	43.9453	76.6636	43.9453	76.5557	43.9453	76.6507
45.4102	75.3021	45.4102	75.3163	45.4102	75.2877	45.4102	75.3309	45.4102	75.2735	45.4102	75.3481	45.4102	75.261	45.4102	75.3709	45.4102	75.253	45.4102	75.4039	45.4102	75.2536	45.4102	75.4524	45.4102	75.2681	45.4102	75.5223	45.4102	75.3024	45.4102	75.6196	45.4102	75.3633	45.4102	75.7487	45.4102	75.457	45.4102	75.9112	45.4102	75.588	45.4102	76.1045	45.4102	75.7577	45.4102	76.3201	45.4102	75.963	45.4102	76.5442	45.4102	76.1946	45.4102	76.7578	45.4102	76.4378	45.4102	76.9399	45.4102	76.6729	45.4102	77.0704	45.4102	76.8782	45.4102	77.1337	45.4102	77.033	45.4102	77.1211
46.875	75.8769	46.875	75.8911	46.875	75.8654	46.875	75.9083	46.875	75.8569	46.875	75.9301	46.875	75.8528	46.875	75.9589	46.875	75.8555	46.875	75.9981	46.875	75.868	46.875	76.052	46.875	75.8946	46.875	76.1253	46.875	75.9399	46.875	76.2228	46.875	76.009	46.875	76.3482	46.875	76.1066	46.875	76.5028	46.875	76.2359	46.875	76.6843	46.875	76.398	46.875	76.8857	46.875	76.5896	46.875	77.0945	46.875	76.8029	46.875	77.2939	46.875	77.0251	46.875	77.4647	46.875	77.2388	46.875	77.5883	46.875	77.4247	46.875	77.65	46.875	77.564	46.875	77.6419
48.3398	76.4639	48.3398	76.4778	48.3398	76.456	48.3398	76.4982	48.3398	76.4545	48.3398	76.5259	48.3398	76.4604	48.3398	76.5624	48.3398	76.4749	48.3398	76.61	48.3398	76.5003	48.3398	76.6715	48.3398	76.5391	48.3398	76.7501	48.3398	76.5944	48.3398	76.8491	48.3398	76.6695	48.3398	76.9709	48.3398	76.7677	48.3398	77.1164	48.3398	76.8912	48.3398	77.2834	48.3398	77.0406	48.3398	77.4659	48.3398	77.2134	48.3398	77.6537	48.3398	77.4034	48.3398	77.8324	48.3398	77.6001	48.3398	77.9854	48.3398	77.7891	48.3398	78.0963	48.3398	77.9535	48.3398	78.152	48.3398	78.0767	48.3398	78.1454
51.2695	77.6442	51.2695	77.6611	51.2695	77.6348	51.2695	77.6854	51.2695	77.6333	51.2695	77.7173	51.2695	77.6399	51.2695	77.7568	51.2695	77.6552	51.2695	77.8046	51.2695	77.68	51.2695	77.8615	51.2695	77.7151	51.2695	77.9288	51.2695	77.7619	51.2695	78.0081	51.2695	77.8221	51.2695	78.1008	51.2695	77.8975	51.2695	78.2075	51.2695	77.9898	51.2695	78.3277	51.2695	78.0996	51.2695	78.458	51.2695	78.2262	51.2695	78.5921	51.2695	78.3662	51.2695	78.7202	51.2695	78.5128	51.2695	78.8301	51.2695	78.6559	51.2695	78.9091	51.2695	78.7827	51.2695	78.9466	51.2695	78.8801	51.2695	78.9369
52.7344	78.225	52.7344	78.2437	52.7344	78.2146	52.7344	78.2703	52.7344	78.2128	52.7344	78.3046	52.7344	78.2197	52.7344	78.3461	52.7344	78.2355	52.7344	78.3948	52.7344	78.2603	52.7344	78.4507	52.7344	78.2946	52.7344	78.5144	52.7344	78.339	52.7344	78.5865	52.7344	78.3944	52.7344	78.668	52.7344	78.4619	52.7344	78.7597	52.7344	78.5428	52.7344	78.8611	52.7344	78.6379	52.7344	78.9701	52.7344	78.7467	52.7344	79.082	52.7344	78.8668	52.7344	79.1888	52.7344	78.993	52.7344	79.2804	52.7344	79.1169	52.7344	79.3458	52.7344	79.2276	52.7344	79.3757	52.7344	79.3135	52.7344	79.3648
54.1992	78.7114	54.1992	78.7306	54.1992	78.7016	54.1992	78.7589	54.1992	78.7014	54.1992	78.7954	54.1992	78.711	54.1992	78.8394	54.1992	78.7301	54.1992	78.8903	54.1992	78.7584	54.1992	78.9474	54.1992	78.7957	54.1992	79.0105	54.1992	78.8419	54.1992	79.0798	54.1992	78.8974	54.1992	79.1557	54.1992	78.9624	54.1992	79.2387	54.1992	79.0379	54.1992	79.3287	54.1992	79.1242	54.1992	79.424	54.1992	79.2212	54.1992	79.5211	54.1992	79.327	54.1992	79.6135	54.1992	79.4375	54.1992	79.6926	54.1992	79.5459	54.1992	79.749	54.1992	79.643	54.1992	79.7744	54.1992	79.7187	54.1992	79.7642
55.6641	79.2596	55.6641	79.28	55.6641	79.2481	55.6641	79.3086	55.6641	79.2457	55.6641	79.3444	55.6641	79.2525	55.6641	79.3862	55.6641	79.2681	55.6641	79.4329	55.6641	79.2919	55.6641	79.4834	55.6641	79.3233	55.6641	79.5371	55.6641	79.362	55.6641	79.5938	55.6641	79.4076	55.6641	79.6537	55.6641	79.4603	55.6641	79.7175	55.6641	79.5207	55.6641	79.7855	55.6641	79.5892	55.6641	79.8573	55.6641	79.6662	55.6641	79.9306	55.6641	79.7506	55.6641	80.0008	55.6641	79.8396	55.6641	80.0612	55.6641	79.9279	55.6641	80.1039	55.6641	80.0081	55.6641	80.1219	55.6641	80.0716	55.6641	80.1111
58.5938	80.137	58.5938	80.1532	58.5938	80.1313	58.5938	80.1792	58.5938	80.1361	58.5938	80.2138	58.5938	80.1509	58.5938	80.2556	58.5938	80.1747	58.5938	80.3027	58.5938	80.2062	58.5938	80.3533	58.5938	80.244	58.5938	80.4059	58.5938	80.2867	58.5938	80.4593	58.5938	80.3329	58.5938	80.5129	58.5938	80.382	58.5938	80.5667	58.5938	80.4338	58.5938	80.6209	58.5938	80.4885	58.5938	80.6755	58.5938	80.5463	58.5938	80.7297	58.5938	80.6074	58.5938	80.7808	58.5938	80.6704	58.5938	80.8246	58.5938	80.7325	58.5938	80.8556	58.5938	80.7889	58.5938	80.869	58.5938	80.8338	58.5938	80.8616
60.0586	80.497	60.0586	80.5148	60.0586	80.4907	60.0586	80.5434	60.0586	80.4959	60.0586	80.5814	60.0586	80.512	60.0586	80.6269	60.0586	80.5379	60.0586	80.6776	60.0586	80.5718	60.0586	80.7312	60.0586	80.6119	60.0586	80.7856	60.0586	80.6562	60.0586	80.839	60.0586	80.7031	60.0586	80.8903	60.0586	80.7514	60.0586	80.9391	60.0586	80.8004	60.0586	80.9857	60.0586	80.85	60.0586	81.0303	60.0586	80.9006	60.0586	81.0727	60.0586	80.9524	60.0586	81.1117	60.0586	81.0049	60.0586	81.1442	60.0586	81.0564	60.0586	81.1665	60.0586	81.1035	60.0586	81.1745	60.0586	81.1415	60.0586	81.1661
62.9883	81.2775	62.9883	81.295	62.9883	81.2725	62.9883	81.3239	62.9883	81.2799	62.9883	81.3626	62.9883	81.2989	62.9883	81.4086	62.9883	81.3279	62.9883	81.4593	62.9883	81.3647	62.9883	81.5114	62.9883	81.4069	62.9883	81.5622	62.9883	81.4516	62.9883	81.609	62.9883	81.4964	62.9883	81.6502	62.9883	81.5391	62.9883	81.6849	62.9883	81.5784	62.9883	81.7134	62.9883	81.6137	62.9883	81.7368	62.9883	81.6455	62.9883	81.7561	62.9883	81.6746	62.9883	81.7721	62.9883	81.7021	62.9883	81.7847	62.9883	81.7282	62.9883	81.7923	62.9883	81.7523	62.9883	81.7934	62.9883	81.7725	62.9883	81.7867
64.4531	81.6818	64.4531	81.6983	64.4531	81.6781	64.4531	81.7268	64.4531	81.6872	64.4531	81.7654	64.4531	81.7082	64.4531	81.8115	64.4531	81.7394	64.4531	81.8621	64.4531	81.7783	64.4531	81.9139	64.4531	81.822	64.4531	81.9634	64.4531	81.8675	64.4531	82.008	64.4531	81.9119	64.4531	82.0455	64.4531	81.9527	64.4531	82.0749	64.4531	81.9882	64.4531	82.0964	64.4531	82.0177	64.4531	82.1112	64.4531	82.0415	64.4531	82.121	64.4531	82.0607	64.4531	82.1275	64.4531	82.077	64.4531	82.1316	64.4531	82.0916	64.4531	82.1332	64.4531	82.1051	64.4531	82.1316	64.4531	82.117	64.4531	82.1261
67.3828	82.3675	67.3828	82.3827	67.3828	82.3656	67.3828	82.4104	67.3828	82.3772	67.3828	82.4486	67.3828	82.4011	67.3828	82.4944	67.3828	82.4353	67.3828	82.5443	67.3828	82.477	67.3828	82.5945	67.3828	82.5227	67.3828	82.6411	67.3828	82.5689	67.3828	82.6806	67.3828	82.6119	67.3828	82.7105	67.3828	82.6485	67.3828	82.7292	67.3828	82.6765	67.3828	82.737	67.3828	82.6947	67.3828	82.7353	67.3828	82.7034	67.3828	82.7271	67.3828	82.7041	67.3828	82.7155	67.3828	82.6996	67.3828	82.7035	67.3828	82.6929	67.3828	82.6935	67.3828	82.6868	67.3828	82.6864	67.3828	82.6832	67.3828	82.683
68.8477	82.6665	68.8477	82.6815	68.8477	82.6651	68.8477	82.709	68.8477	82.6771	68.8477	82.747	68.8477	82.7014	68.8477	82.7924	68.8477	82.7357	68.8477	82.8417	68.8477	82.7771	68.8477	82.8906	68.8477	82.8221	68.8477	82.9352	68.8477	82.8666	68.8477	82.9719	68.8477	82.9071	68.8477	82.9977	68.8477	82.9402	68.8477	83.0113	68.8477	82.9636	68.8477	83.0126	68.8477	82.976	68.8477	83.0034	68.8477	82.9779	68.8477	82.9868	68.8477	82.9708	68.8477	82.9666	68.8477	82.9578	68.8477	82.9467	68.8477	82.9427	68.8477	82.9304	68.8477	82.9289	68.8477	82.9198	68.8477	82.9194	68.8477	82.9161
71.7773	83.2233	71.7773	83.2347	71.7773	83.225	71.7773	83.2585	71.7773	83.2398	71.7773	83.2924	71.7773	83.2664	71.7773	83.3336	71.7773	83.3023	71.7773	83.3782	71.7773	83.3444	71.7773	83.4219	71.7773	83.3887	71.7773	83.4603	71.7773	83.4312	71.7773	83.4895	71.7773	83.4677	71.7773	83.5062	71.7773	83.4944	71.7773	83.5088	71.7773	83.5086	71.7773	83.4972	71.7773	83.5089	71.7773	83.4733	71.7773	83.4955	71.7773	83.4411	71.7773	83.4706	71.7773	83.4056	71.7773	83.4379	71.7773	83.3725	71.7773	83.4026	71.7773	83.3471	71.7773	83.3701	71.7773	83.3331	71.7773	83.3456	71.7773	83.3326
74.707	83.7932	74.707	83.804	74.707	83.7951	74.707	83.8265	74.707	83.8096	74.707	83.8587	74.707	83.8353	74.707	83.8973	74.707	83.87	74.707	83.9386	74.707	83.9102	74.707	83.9779	74.707	83.952	74.707	84.0108	74.707	83.9908	74.707	84.0329	74.707	84.0223	74.707	84.0408	74.707	84.0423	74.707	84.0326	74.707	84.0478	74.707	84.0082	74.707	84.037	74.707	83.9698	74.707	84.0102	74.707	83.9218	74.707	83.9698	74.707	83.8706	74.707	83.9205	74.707	83.8234	74.707	83.8685	74.707	83.787	74.707	83.8212	74.707	83.767	74.707	83.7854	74.707	83.7665
77.6367	84.3153	77.6367	84.3301	77.6367	84.3136	77.6367	84.3569	77.6367	84.3249	77.6367	84.3933	77.6367	84.3482	77.6367	84.4361	77.6367	84.3808	77.6367	84.4809	77.6367	84.4197	77.6367	84.5231	77.6367	84.4604	77.6367	84.5577	77.6367	84.4983	77.6367	84.58	77.6367	84.5285	77.6367	84.586	77.6367	84.5466	77.6367	84.5735	77.6367	84.549	77.6367	84.5421	77.6367	84.5337	77.6367	84.494	77.6367	84.5009	77.6367	84.4339	77.6367	84.4532	77.6367	84.3691	77.6367	84.3957	77.6367	84.3081	77.6367	84.3358	77.6367	84.2594	77.6367	84.282	77.6367	84.2301	77.6367	84.2428	77.6367	84.2243
79.1016	84.5018	79.1016	84.5194	79.1016	84.4972	79.1016	84.5487	79.1016	84.5056	79.1016	84.5873	79.1016	84.5257	79.1016	84.6319	79.1016	84.5555	79.1016	84.6781	79.1016	84.5914	79.1016	84.7209	79.1016	84.6292	79.1016	84.7553	79.1016	84.6643	79.1016	84.7763	79.1016	84.6916	79.1016	84.7799	79.1016	84.7066	79.1016	84.7634	79.1016	84.7056	79.1016	84.7265	79.1016	84.6865	79.1016	84.6715	79.1016	84.6496	79.1016	84.6033	79.1016	84.5973	79.1016	84.5296	79.1016	84.5354	79.1016	84.4597	79.1016	84.4716	79.1016	84.403	79.1016	84.4151	79.1016	84.3674	79.1016	84.3748	79.1016	84.3578
82.0313	84.8156	82.0313	84.8359	82.0313	84.8076	82.0313	84.8675	82.0313	84.8123	82.0313	84.9079	82.0313	84.8283	82.0313	84.9535	82.0313	84.8536	82.0313	85	82.0313	84.8847	82.0313	85.0421	82.0313	84.9175	82.0313	85.0744	82.0313	84.9471	82.0313	85.0918	82.0313	84.9684	82.0313	85.0897	82.0313	84.9767	82.0313	85.0653	82.0313	84.9683	82.0313	85.018	82.0313	84.9409	82.0313	84.9503	82.0313	84.8947	82.0313	84.8676	82.0313	84.8327	82.0313	84.7785	82.0313	84.7609	82.0313	84.6935	82.0313	84.688	82.0313	84.6236	82.0313	84.6243	82.0313	84.5784	82.0313	84.5802	82.0313	84.5636
84.9609	85.1174	84.9609	85.1348	84.9609	85.113	84.9609	85.1639	84.9609	85.1214	84.9609	85.2024	84.9609	85.1415	84.9609	85.247	84.9609	85.1709	84.9609	85.2931	84.9609	85.2061	84.9609	85.3356	84.9609	85.2429	84.9609	85.3687	84.9609	85.2761	84.9609	85.3869	84.9609	85.3004	84.9609	85.3856	84.9609	85.3108	84.9609	85.3613	84.9609	85.3032	84.9609	85.3135	84.9609	85.275	84.9609	85.2443	84.9609	85.2262	84.9609	85.1593	84.9609	85.1597	84.9609	85.0677	84.9609	85.0815	84.9609	84.9806	84.9609	85.001	84.9609	84.91	84.9609	84.9293	84.9609	84.8661	84.9609	84.8776	84.9609	84.855
87.8906	85.4351	87.8906	85.4557	87.8906	85.4259	87.8906	85.4866	87.8906	85.4282	87.8906	85.5253	87.8906	85.4411	87.8906	85.5687	87.8906	85.4625	87.8906	85.6122	87.8906	85.4892	87.8906	85.6507	87.8906	85.5171	87.8906	85.6785	87.8906	85.5412	87.8906	85.6898	87.8906	85.5562	87.8906	85.6798	87.8906	85.5569	87.8906	85.6449	87.8906	85.5391	87.8906	85.5843	87.8906	85.5002	87.8906	85.5003	87.8906	85.44	87.8906	85.3989	87.8906	85.3619	87.8906	85.29	87.8906	85.2726	87.8906	85.1859	87.8906	85.1823	87.8906	85.1003	87.8906	85.1033	87.8906	85.0449	87.8906	85.0482	87.8906	85.027
90.8203	85.6323	90.8203	85.6533	90.8203	85.6214	90.8203	85.6832	90.8203	85.6207	90.8203	85.7198	90.8203	85.6291	90.8203	85.7599	90.8203	85.6448	90.8203	85.7992	90.8203	85.6647	90.8203	85.8323	90.8203	85.6846	90.8203	85.8535	90.8203	85.6997	90.8203	85.8568	90.8203	85.7048	90.8203	85.837	90.8203	85.6945	90.8203	85.7905	90.8203	85.6646	90.8203	85.7163	90.8203	85.6127	90.8203	85.6169	90.8203	85.5387	90.8203	85.4989	90.8203	85.4464	90.8203	85.373	90.8203	85.3432	90.8203	85.2531	90.8203	85.2402	90.8203	85.1542	90.8203	85.1512	90.8203	85.0895	90.8203	85.09	90.8203	85.0675
95.2148	85.8664	95.2148	85.8858	95.2148	85.8561	95.2148	85.9135	95.2148	85.8549	95.2148	85.9475	95.2148	85.862	95.2148	85.9847	95.2148	85.8753	95.2148	86.021	95.2148	85.8919	95.2148	86.0511	95.2148	85.9079	95.2148	86.069	95.2148	85.9184	95.2148	86.0687	95.2148	85.9181	95.2148	86.0447	95.2148	85.9019	95.2148	85.9931	95.2148	85.8654	95.2148	85.9127	95.2148	85.8062	95.2148	85.806	95.2148	85.7244	95.2148	85.6798	95.2148	85.624	95.2148	85.5452	95.2148	85.5127	95.2148	85.4171	95.2148	85.4023	95.2148	85.3113	95.2148	85.3072	95.2148	85.242	95.2148	85.242	95.2148	85.2183
98.1445	85.9817	98.1445	85.9968	98.1445	85.9753	98.1445	86.0199	98.1445	85.9776	98.1445	86.0494	98.1445	85.9876	98.1445	86.0824	98.1445	86.0036	98.1445	86.1152	98.1445	86.0227	98.1445	86.1427	98.1445	86.0411	98.1445	86.1593	98.1445	86.0542	98.1445	86.1587	98.1445	86.0565	98.1445	86.1353	98.1445	86.0429	98.1445	86.0853	98.1445	86.0089	98.1445	86.007	98.1445	85.9516	98.1445	85.903	98.1445	85.8711	98.1445	85.7801	98.1445	85.7709	98.1445	85.6495	98.1445	85.6585	98.1445	85.5261	98.1445	85.5455	98.1445	85.4258	98.1445	85.4462	98.1445	85.3627	98.1445	85.3755	98.1445	85.3455
101.074	86.0594	101.074	86.0742	101.074	86.0519	101.074	86.0955	101.074	86.0516	101.074	86.1216	101.074	86.0579	101.074	86.1499	101.074	86.0693	101.074	86.1767	101.074	86.0831	101.074	86.1971	101.074	86.0956	101.074	86.2055	101.074	86.1023	101.074	86.1956	101.074	86.0976	101.074	86.1619	101.074	86.0763	101.074	86.1005	101.074	86.0337	101.074	86.0101	101.074	85.9668	101.074	85.8935	101.074	85.8756	101.074	85.7579	101.074	85.7637	101.074	85.6155	101.074	85.6392	101.074	85.482	101.074	85.5144	101.074	85.3744	101.074	85.4045	101.074	85.3077	101.074	85.3257	101.074	85.291
105.469	86.0317	105.469	86.0446	105.469	86.0246	105.469	86.0627	105.469	86.0234	105.469	86.0846	105.469	86.0277	105.469	86.108	105.469	86.0361	105.469	86.1296	105.469	86.0466	105.469	86.1446	105.469	86.0557	105.469	86.1475	105.469	86.059	105.469	86.1324	105.469	86.0512	105.469	86.0934	105.469	86.0267	105.469	86.0267	105.469	85.9808	105.469	85.931	105.469	85.9102	105.469	85.809	105.469	85.8144	105.469	85.6683	105.469	85.6972	105.469	85.5214	105.469	85.5665	105.469	85.3845	105.469	85.4349	105.469	85.2752	105.469	85.3184	105.469	85.2087	105.469	85.2336	105.469	85.1945
108.398	86.1169	108.398	86.125	108.398	86.1135	108.398	86.1373	108.398	86.1153	108.398	86.1523	108.398	86.1218	108.398	86.1681	108.398	86.1319	108.398	86.1812	108.398	86.1434	108.398	86.1875	108.398	86.153	108.398	86.1815	108.398	86.1561	108.398	86.1575	108.398	86.1471	108.398	86.11	108.398	86.1201	108.398	86.0353	108.398	86.0701	108.398	85.9322	108.398	85.9934	108.398	85.8039	108.398	85.8898	108.398	85.6584	108.398	85.7627	108.398	85.5087	108.398	85.6205	108.398	85.3715	108.398	85.4763	108.398	85.2649	108.398	85.3467	108.398	85.2043	108.398	85.2493	108.398	85.199
112.793	86.2346	112.793	86.2462	112.793	86.2252	112.793	86.2592	112.793	86.2184	112.793	86.2726	112.793	86.2142	112.793	86.2845	112.793	86.2124	112.793	86.2923	112.793	86.2113	112.793	86.292	112.793	86.2085	112.793	86.2786	112.793	86.1997	112.793	86.2465	112.793	86.1798	112.793	86.1906	112.793	86.1433	112.793	86.1068	112.793	86.085	112.793	85.9945	112.793	86.0014	112.793	85.8567	112.793	85.8921	112.793	85.7016	112.793	85.7608	112.793	85.5424	112.793	85.6159	112.793	85.3962	112.793	85.4707	112.793	85.2812	112.793	85.342	112.793	85.2133	112.793	85.2475	112.793	85.2018
117.188	86.2101	117.188	86.218	117.188	86.202	117.188	86.2256	117.188	86.1944	117.188	86.2319	117.188	86.1875	117.188	86.236	117.188	86.1811	117.188	86.2355	117.188	86.1743	117.188	86.2271	117.188	86.1649	117.188	86.2062	117.188	86.1492	117.188	86.1675	117.188	86.1224	117.188	86.1058	117.188	86.0791	117.188	86.0174	117.188	86.0141	117.188	85.9011	117.188	85.9242	117.188	85.7601	117.188	85.8088	117.188	85.6025	117.188	85.6719	117.188	85.4414	117.188	85.5221	117.188	85.2938	117.188	85.3729	117.188	85.1779	117.188	85.2412	117.188	85.1095	117.188	85.1448	117.188	85.0982
120.117	86.2338	120.117	86.2394	120.117	86.2272	120.117	86.2439	120.117	86.2199	120.117	86.2469	120.117	86.2122	120.117	86.2474	120.117	86.204	120.117	86.2437	120.117	86.1946	120.117	86.2324	120.117	86.1821	120.117	86.2093	120.117	86.1632	120.117	86.169	120.117	86.1333	120.117	86.1062	120.117	86.0872	120.117	86.0172	120.117	86.0202	120.117	85.9009	120.117	85.9289	120.117	85.7603	120.117	85.813	120.117	85.6037	120.117	85.6763	120.117	85.444	120.117	85.5273	120.117	85.2981	120.117	85.3793	120.117	85.184	120.117	85.2488	120.117	85.1171	120.117	85.1531	120.117	85.1066
124.512	86.1996	124.512	86.1991	124.512	86.1974	124.512	86.1959	124.512	86.1929	124.512	86.1902	124.512	86.1866	124.512	86.1815	124.512	86.1789	124.512	86.1688	124.512	86.1694	124.512	86.1494	124.512	86.1566	124.512	86.1194	124.512	86.1374	124.512	86.0738	124.512	86.1072	124.512	86.0075	124.512	86.0608	124.512	85.9167	124.512	85.9929	124.512	85.8002	124.512	85.9001	124.512	85.661	124.512	85.7818	124.512	85.5073	124.512	85.6417	124.512	85.3521	124.512	85.4885	124.512	85.2123	124.512	85.3354	124.512	85.1053	124.512	85.1991	124.512	85.046	124.512	85.0969	124.512	85.0432
128.906	86.1183	128.906	86.1197	128.906	86.1109	128.906	86.1148	128.906	86.0983	128.906	86.1037	128.906	86.0816	128.906	86.0862	128.906	86.0616	128.906	86.0613	128.906	86.0386	128.906	86.0272	128.906	86.0118	128.906	85.9804	128.906	85.9786	128.906	85.9169	128.906	85.9349	128.906	85.8323	128.906	85.8756	128.906	85.7236	128.906	85.7958	128.906	85.5903	128.906	85.6919	128.906	85.4363	128.906	85.5633	128.906	85.2702	128.906	85.4138	128.906	85.1056	128.906	85.2522	128.906	84.9592	128.906	85.092	128.906	84.8487	128.906	84.9499	128.906	84.7885	128.906	84.8433	128.906	84.7867
133.301	86.0666	133.301	86.0802	133.301	86.0462	133.301	86.0865	133.301	86.0203	133.301	86.085	133.301	85.9902	133.301	86.0754	133.301	85.9575	133.301	86.0563	133.301	85.923	133.301	86.0255	133.301	85.8861	133.301	85.9793	133.301	85.8448	133.301	85.9134	133.301	85.7951	133.301	85.8235	133.301	85.732	133.301	85.707	133.301	85.6506	133.301	85.5639	133.301	85.5472	133.301	85.3989	133.301	85.4212	133.301	85.2213	133.301	85.2762	133.301	85.0456	133.301	85.1208	133.301	84.889	133.301	84.9682	133.301	84.7692	133.301	84.8347	133.301	84.7001	133.301	84.7372	133.301	84.6895
139.16	85.9298	139.16	85.9448	139.16	85.906	139.16	85.9512	139.16	85.8738	139.16	85.9496	139.16	85.8347	139.16	85.9405	139.16	85.7904	139.16	85.9232	139.16	85.7422	139.16	85.8959	139.16	85.6908	139.16	85.8548	139.16	85.6349	139.16	85.7949	139.16	85.5718	139.16	85.7112	139.16	85.4975	139.16	85.5999	139.16	85.4077	139.16	85.4603	139.16	85.2996	139.16	85.2963	139.16	85.173	139.16	85.1169	139.16	85.0322	139.16	84.9361	139.16	84.8859	139.16	84.7711	139.16	84.7469	139.16	84.6391	139.16	84.6309	139.16	84.5544	139.16	84.5531	139.16	84.5254
143.555	85.7639	143.555	85.7656	143.555	85.7504	143.555	85.7564	143.555	85.725	143.555	85.738	143.555	85.6887	143.555	85.712	143.555	85.6433	143.555	85.6791	143.555	85.5903	143.555	85.6384	143.555	85.5307	143.555	85.5869	143.555	85.4639	143.555	85.52	143.555	85.3877	143.555	85.4326	143.555	85.299	143.555	85.3207	143.555	85.1943	143.555	85.183	143.555	85.0718	143.555	85.0227	143.555	84.9323	143.555	84.8481	143.555	84.7811	143.555	84.6724	143.555	84.6275	143.555	84.5118	143.555	84.4851	143.555	84.3825	143.555	84.3689	143.555	84.2984	143.555	84.293	143.555	84.2679
147.949	85.6392	147.949	85.6291	147.949	85.6341	147.949	85.605	147.949	85.6139	147.949	85.5689	147.949	85.5799	147.949	85.5232	147.949	85.5341	147.949	85.4695	147.949	85.4787	147.949	85.408	147.949	85.4149	147.949	85.3367	147.949	85.3424	147.949	85.2522	147.949	85.2594	147.949	85.1499	147.949	85.1627	147.949	85.0266	147.949	85.0489	147.949	84.8815	147.949	84.916	147.949	84.7181	147.949	84.7652	147.949	84.5451	147.949	84.6016	147.949	84.3754	147.949	84.4353	147.949	84.2245	147.949	84.2797	147.949	84.1078	147.949	84.1502	147.949	84.0377	147.949	84.0607	147.949	84.0216
153.809	85.4977	153.809	85.4892	153.809	85.4876	153.809	85.4634	153.809	85.4591	153.809	85.4225	153.809	85.4135	153.809	85.3691	153.809	85.3531	153.809	85.3048	153.809	85.2806	153.809	85.2299	153.809	85.1978	153.809	85.1427	153.809	85.1053	153.809	85.0398	153.809	85.0022	153.809	84.9174	153.809	84.8862	153.809	84.7726	153.809	84.7548	153.809	84.6059	153.809	84.6067	153.809	84.4221	153.809	84.4434	153.809	84.2316	153.809	84.2707	153.809	84.0485	153.809	84.0983	153.809	83.889	153.809	83.9396	153.809	83.7681	153.809	83.809	153.809	83.6965	153.809	83.7193	153.809	83.6802
159.668	85.4176	159.668	85.4072	159.668	85.4084	159.668	85.3789	159.668	85.3796	159.668	85.3351	159.668	85.3325	159.668	85.279	159.668	85.2692	159.668	85.2131	159.668	85.1919	159.668	85.138	159.668	85.1021	159.668	85.0525	159.668	85	159.668	84.9529	159.668	84.8844	159.668	84.8346	159.668	84.7533	159.668	84.6938	159.668	84.6049	159.668	84.5295	159.668	84.4393	159.668	84.3455	159.668	84.2599	159.668	84.1507	159.668	84.0746	159.668	83.9588	159.668	83.8954	159.668	83.7859	159.668	83.7369	159.668	83.6473	159.668	83.614	159.668	83.5556	159.668	83.5387	159.668	83.5184
165.527	85.4006	165.527	85.38	165.527	85.4003	165.527	85.3401	165.527	85.379	165.527	85.2842	165.527	85.3383	165.527	85.2164	165.527	85.2806	165.527	85.1401	165.527	85.2087	165.527	85.0573	165.527	85.1242	165.527	84.9678	165.527	85.0274	165.527	84.8689	165.527	84.9172	165.527	84.7566	165.527	84.7912	165.527	84.6273	165.527	84.6477	165.527	84.48	165.527	84.4869	165.527	84.318	165.527	84.3128	165.527	84.1491	165.527	84.1338	165.527	83.9846	165.527	83.9623	165.527	83.8377	165.527	83.8128	165.527	83.7205	165.527	83.6988	165.527	83.6428	165.527	83.6301	165.527	83.6114
171.387	85.277	171.387	85.2432	171.387	85.2846	171.387	85.1847	171.387	85.2668	171.387	85.1052	171.387	85.2263	171.387	85.0096	171.387	85.1669	171.387	84.9035	171.387	85.0924	171.387	84.7912	171.387	85.0057	171.387	84.675	171.387	84.9078	171.387	84.5548	171.387	84.7975	171.387	84.4284	171.387	84.6728	171.387	84.2938	171.387	84.5313	171.387	84.1508	171.387	84.3731	171.387	84.0029	171.387	84.2019	171.387	83.8573	171.387	84.0259	171.387	83.7238	171.387	83.8571	171.387	83.6125	171.387	83.7087	171.387	83.5314	171.387	83.5922	171.387	83.4861	171.387	83.5151	171.387	83.4799
177.246	85.1233	177.246	85.0946	177.246	85.1229	177.246	85.0369	177.246	85.0956	177.246	84.9527	177.246	85.0456	177.246	84.8462	177.246	84.9783	177.246	84.7226	177.246	84.8988	177.246	84.587	177.246	84.811	177.246	84.4432	177.246	84.7162	177.246	84.2936	177.246	84.613	177.246	84.139	177.246	84.4981	177.246	83.9807	177.246	84.3675	177.246	83.8215	177.246	84.2192	177.246	83.6669	177.246	84.0551	177.246	83.5254	177.246	83.8819	177.246	83.4062	177.246	83.7106	177.246	83.3172	177.246	83.554	177.246	83.2635	177.246	83.4238	177.246	83.2471	177.246	83.3275	177.246	83.2683
183.105	84.9276	183.105	84.9176	183.105	84.9025	183.105	84.8724	183.105	84.8447	183.105	84.7942	183.105	84.7583	183.105	84.6863	183.105	84.649	183.105	84.553	183.105	84.5231	183.105	84.3986	183.105	84.3863	183.105	84.2271	183.105	84.2427	183.105	84.0419	183.105	84.0945	183.105	83.8467	183.105	83.9422	183.105	83.6468	183.105	83.7856	183.105	83.4502	183.105	83.6258	183.105	83.2673	183.105	83.4663	183.105	83.1101	183.105	83.3135	183.105	82.988	183.105	83.1755	183.105	82.9058	183.105	83.0594	183.105	82.8618	183.105	82.9693	183.105	82.8505	183.105	82.9053	183.105	82.8659
188.965	84.7273	188.965	84.7252	188.965	84.6963	188.965	84.6911	188.965	84.633	188.965	84.6268	188.965	84.5397	188.965	84.5349	188.965	84.4198	188.965	84.4174	188.965	84.2768	188.965	84.2749	188.965	84.1137	188.965	84.1068	188.965	83.9319	188.965	83.9117	188.965	83.7319	188.965	83.6894	188.965	83.5138	188.965	83.443	188.965	83.2796	188.965	83.1811	188.965	83.035	188.965	82.9183	188.965	82.7909	188.965	82.673	188.965	82.5632	188.965	82.4628	188.965	82.369	188.965	82.299	188.965	82.2218	188.965	82.1836	188.965	82.1269	188.965	82.1119	188.965	82.0814	188.965	82.0781
196.289	84.5199	196.289	84.4824	196.289	84.5239	196.289	84.4146	196.289	84.4941	196.289	84.322	196.289	84.4329	196.289	84.2113	196.289	84.3443	196.289	84.0885	196.289	84.233	196.289	83.957	196.289	84.1025	196.289	83.8166	196.289	83.9543	196.289	83.6636	196.289	83.7873	196.289	83.4929	196.289	83.5989	196.289	83.3009	196.289	83.3873	196.289	83.0889	196.289	83.1539	196.289	82.865	196.289	82.9065	196.289	82.6432	196.289	82.6597	196.289	82.44	196.289	82.433	196.289	82.2699	196.289	82.2464	196.289	82.1416	196.289	82.1139	196.289	82.0589	196.289	82.0406	196.289	82.024
203.613	84.3027	203.613	84.2384	203.613	84.325	203.613	84.1347	203.613	84.3064	203.613	83.9975	203.613	84.2508	203.613	83.8358	203.613	84.1638	203.613	83.6597	203.613	84.0515	203.613	83.4785	203.613	83.9185	203.613	83.2989	203.613	83.7671	203.613	83.1236	203.613	83.5971	203.613	82.9521	203.613	83.4067	203.613	82.7831	203.613	83.1952	203.613	82.6172	203.613	82.9652	203.613	82.4585	203.613	82.726	203.613	82.314	203.613	82.4931	203.613	82.1908	203.613	82.2863	203.613	82.0929	203.613	82.1237	203.613	82.0205	203.613	82.0155	203.613	81.9723	203.613	81.9606	203.613	81.9499
210.938	84.2066	210.938	84.1424	210.938	84.2254	210.938	84.0324	210.938	84.2027	210.938	83.8795	210.938	84.1446	210.938	83.6899	210.938	84.0583	210.938	83.472	210.938	83.9508	210.938	83.2356	210.938	83.8265	210.938	82.9898	210.938	83.6864	210.938	82.7432	210.938	83.5283	210.938	82.5036	210.938	83.348	210.938	82.2793	210.938	83.1426	210.938	82.0801	210.938	82.9134	210.938	81.9168	210.938	82.6693	210.938	81.7983	210.938	82.4267	210.938	81.7272	210.938	82.206	210.938	81.6979	210.938	82.0256	210.938	81.6988	210.938	81.8939	210.938	81.7186	210.938	81.8071	210.938	81.7528
218.262	84.0042	218.262	83.9561	218.262	84.0045	218.262	83.8574	218.262	83.9634	218.262	83.709	218.262	83.8906	218.262	83.5155	218.262	83.7967	218.262	83.2842	218.262	83.6916	218.262	83.024	218.262	83.5816	218.262	82.7448	218.262	83.4673	218.262	82.4564	218.262	83.3434	218.262	82.1698	218.262	83.2008	218.262	81.8976	218.262	83.0301	218.262	81.6558	218.262	82.8263	218.262	81.4616	218.262	82.5928	218.262	81.329	218.262	82.3427	218.262	81.263	218.262	82.0962	218.262	81.2563	218.262	81.8746	218.262	81.2931	218.262	81.692	218.262	81.3577	218.262	81.5506	218.262	81.4425
225.586	84.0087	225.586	84.0366	225.586	83.9239	225.586	84.003	225.586	83.7912	225.586	83.9069	225.586	83.624	225.586	83.7499	225.586	83.4399	225.586	83.5358	225.586	83.2582	225.586	83.2699	225.586	83.0963	225.586	82.9596	225.586	82.9652	225.586	82.6156	225.586	82.8663	225.586	82.2546	225.586	82.7908	225.586	81.9014	225.586	82.724	225.586	81.5894	225.586	82.6508	225.586	81.3559	225.586	82.5612	225.586	81.2295	225.586	82.4529	225.586	81.2173	225.586	82.3301	225.586	81.3003	225.586	82.1992	225.586	81.4426	225.586	82.0638	225.586	81.6077	225.586	81.9226	225.586	81.7709
232.91	84.2515	232.91	84.2873	232.91	84.1516	232.91	84.2603	232.91	83.989	232.91	84.174	232.91	83.7695	232.91	84.0325	232.91	83.5031	232.91	83.8392	232.91	83.204	232.91	83.5958	232.91	82.8896	232.91	83.3033	232.91	82.5782	232.91	82.9629	232.91	82.2862	232.91	82.5809	232.91	82.0261	232.91	82.1734	232.91	81.8055	232.91	81.7712	232.91	81.6286	232.91	81.4184	232.91	81.4967	232.91	81.1614	232.91	81.4092	232.91	81.0283	232.91	81.3609	232.91	81.0125	232.91	81.34	232.91	81.0757	232.91	81.3277	232.91	81.1683	232.91	81.3031	232.91	81.2505
241.699	83.8176	241.699	83.7974	241.699	83.7842	241.699	83.727	241.699	83.6977	241.699	83.6123	241.699	83.5627	241.699	83.4599	241.699	83.3876	241.699	83.2749	241.699	83.1827	241.699	83.0587	241.699	82.9579	241.699	82.8081	241.699	82.7199	241.699	82.5165	241.699	82.4709	241.699	82.1778	241.699	82.2085	241.699	81.7935	241.699	81.9303	241.699	81.3796	241.699	81.6382	241.699	80.9713	241.699	81.3434	241.699	80.6187	241.699	81.0661	241.699	80.369	241.699	80.8294	241.699	80.2432	241.699	80.6476	241.699	80.2243	241.699	80.5184	241.699	80.2707	241.699	80.4237	241.699	80.3432
250.488	83.6367	250.488	83.6416	250.488	83.5591	250.488	83.5795	250.488	83.4082	250.488	83.4601	250.488	83.1896	250.488	83.2945	250.488	82.9165	250.488	83.094	250.488	82.6093	250.488	82.8664	250.488	82.2937	250.488	82.6146	250.488	81.9956	250.488	82.3358	250.488	81.734	250.488	82.0245	250.488	81.5148	250.488	81.6783	250.488	81.3305	250.488	81.3059	250.488	81.1668	250.488	80.9322	250.488	81.0114	250.488	80.5981	250.488	80.8604	250.488	80.3471	250.488	80.7177	250.488	80.206	250.488	80.5896	250.488	80.1702	250.488	80.4779	250.488	80.209	250.488	80.3782	250.488	80.2863
259.277	84.088	259.277	84.049	259.277	84.0484	259.277	83.9395	259.277	83.9263	259.277	83.7709	259.277	83.7215	259.277	83.5583	259.277	83.4384	259.277	83.3184	259.277	83.0877	259.277	83.0675	259.277	82.6873	259.277	82.8171	259.277	82.2633	259.277	82.5718	259.277	81.8482	259.277	82.3282	259.277	81.4757	259.277	82.0798	259.277	81.1731	259.277	81.8224	259.277	80.954	259.277	81.5607	259.277	80.816	259.277	81.3104	259.277	80.7445	259.277	81.0939	259.277	80.719	259.277	80.9305	259.277	80.7191	259.277	80.8266	259.277	80.7286	259.277	80.7727	259.277	80.7387	259.277	80.7497
268.066	84.0449	268.066	84.0063	268.066	84.0003	268.066	83.8901	268.066	83.8705	268.066	83.7053	268.066	83.6571	268.066	83.4653	268.066	83.3651	268.066	83.1881	268.066	83.0045	268.066	82.8954	268.066	82.5912	268.066	82.6107	268.066	82.1485	268.066	82.3552	268.066	81.7076	268.066	82.144	268.066	81.3065	268.066	81.983	268.066	80.9852	268.066	81.8695	268.066	80.7766	268.066	81.7955	268.066	80.6971	268.066	81.7509	268.066	80.7389	268.066	81.725	268.066	80.8725	268.066	81.7061	268.066	81.0561	268.066	81.6801	268.066	81.2483	268.066	81.6314	268.066	81.4175	268.066	81.5464
276.855	84.2766	276.855	84.1944	276.855	84.2773	276.855	84.0314	276.855	84.1959	276.855	83.7889	276.855	84.0309	276.855	83.4704	276.855	83.7808	276.855	83.083	276.855	83.4446	276.855	82.6394	276.855	83.0245	276.855	82.1606	276.855	82.5284	276.855	81.6778	276.855	81.9742	276.855	81.2329	276.855	81.3939	276.855	80.8735	276.855	80.8371	276.855	80.6406	276.855	80.3686	276.855	80.5515	276.855	80.0551	276.855	80.5889	276.855	79.9381	276.855	80.7055	276.855	80.0103	276.855	80.8407	276.855	80.2159	276.855	80.9392	276.855	80.4754	276.855	80.961	276.855	80.7158	276.855	80.886
287.109	84.4307	287.109	84.4414	287.109	84.3466	287.109	84.3781	287.109	84.1927	287.109	84.2422	287.109	83.9752	287.109	84.0353	287.109	83.7022	287.109	83.758	287.109	83.3804	287.109	83.4107	287.109	83.0134	287.109	82.9949	287.109	82.6019	287.109	82.5182	287.109	82.1469	287.109	82.0006	287.109	81.6578	287.109	81.4816	287.109	81.1606	287.109	81.0214	287.109	80.7038	287.109	80.6865	287.109	80.3519	287.109	80.5186	287.109	80.1607	287.109	80.5062	287.109	80.1444	287.109	80.5888	287.109	80.2628	287.109	80.6892	287.109	80.443	287.109	80.7447	287.109	80.6126	287.109	80.7209
297.363	84.3652	297.363	84.327	297.363	84.3191	297.363	84.2133	297.363	84.1829	297.363	84.0339	297.363	83.955	297.363	83.7979	297.363	83.6381	297.363	83.5109	297.363	83.239	297.363	83.1747	297.363	82.7678	297.363	82.7883	297.363	82.2367	297.363	82.3531	297.363	81.6618	297.363	81.8815	297.363	81.0675	297.363	81.4064	297.363	80.4961	297.363	80.9848	297.363	80.0143	297.363	80.6853	297.363	79.7041	297.363	80.5555	297.363	79.6262	297.363	80.5875	297.363	79.7748	297.363	80.7166	297.363	80.0723	297.363	80.854	297.363	80.4108	297.363	80.9226	297.363	80.6976	297.363	80.8751
307.617	84.3896	307.617	84.2751	307.617	84.4395	307.617	84.1001	307.617	84.4203	307.617	83.869	307.617	84.3275	307.617	83.5869	307.617	84.1556	307.617	83.2589	307.617	83.8988	307.617	82.8901	307.617	83.5508	307.617	82.4854	307.617	83.1046	307.617	82.0517	307.617	82.5548	307.617	81.6033	307.617	81.902	307.617	81.1697	307.617	81.1642	307.617	80.798	307.617	80.3952	307.617	80.5425	307.617	79.7026	307.617	80.4358	307.617	79.2368	307.617	80.4611	307.617	79.1146	307.617	80.5523	307.617	79.3206	307.617	80.6232	307.617	79.7117	307.617	80.5983	307.617	80.1205	307.617	80.4322
319.336	84.0461	319.336	83.9693	319.336	84.0489	319.336	83.8172	319.336	83.9812	319.336	83.5903	319.336	83.8485	319.336	83.2893	319.336	83.6572	319.336	82.9143	319.336	83.4126	319.336	82.4649	319.336	83.117	319.336	81.9432	319.336	82.7692	319.336	81.3606	319.336	82.366	319.336	80.7497	319.336	81.9071	319.336	80.1767	319.336	81.4038	319.336	79.7407	319.336	80.8901	319.336	79.5384	319.336	80.4298	319.336	79.5993	319.336	80.1063	319.336	79.8538	319.336	79.9832	319.336	80.1755	319.336	80.0578	319.336	80.4476	319.336	80.2539	319.336	80.5969	319.336	80.4645	319.336	80.5973
329.59	83.9468	329.59	83.9058	329.59	83.9245	329.59	83.8026	329.59	83.8384	329.59	83.6381	329.59	83.6889	329.59	83.4105	329.59	83.4761	329.59	83.1136	329.59	83.1987	329.59	82.7361	329.59	82.8525	329.59	82.2643	329.59	82.4306	329.59	81.6896	329.59	81.9277	329.59	81.0236	329.59	81.3473	329.59	80.3194	329.59	80.7161	329.59	79.6891	329.59	80.0994	329.59	79.2846	329.59	79.6051	329.59	79.208	329.59	79.3476	329.59	79.4208	329.59	79.3723	329.59	79.7716	329.59	79.6122	329.59	80.1017	329.59	79.9319	329.59	80.3068	329.59	80.203	329.59	80.341
341.309	83.7087	341.309	83.6684	341.309	83.6744	341.309	83.5571	341.309	83.5691	341.309	83.3828	341.309	83.4033	341.309	83.153	341.309	83.1908	341.309	82.8689	341.309	82.9431	341.309	82.5212	341.309	82.6631	341.309	82.0915	341.309	82.3418	341.309	81.5597	341.309	81.9604	341.309	80.9207	341.309	81.4998	341.309	80.2092	341.309	80.9571	341.309	79.5276	341.309	80.3668	341.309	79.0435	341.309	79.8169	341.309	78.9046	341.309	79.4361	341.309	79.107	341.309	79.3247	341.309	79.4898	341.309	79.4703	341.309	79.8632	341.309	79.7496	341.309	80.1004	341.309	80.0127	341.309	80.1486
353.027	83.629	353.027	83.5681	353.027	83.5927	353.027	83.419	353.027	83.4554	353.027	83.1945	353.027	83.2182	353.027	82.9086	353.027	82.8858	353.027	82.571	353.027	82.4647	353.027	82.1813	353.027	81.9606	353.027	81.7263	353.027	81.3764	353.027	81.1853	353.027	80.7139	353.027	80.5463	353.027	79.9824	353.027	79.8339	353.027	79.2207	353.027	79.1436	353.027	78.529	353.027	78.6506	353.027	78.0774	353.027	78.5254	353.027	78.0254	353.027	78.7805	353.027	78.372	353.027	79.2441	353.027	78.9354	353.027	79.7018	353.027	79.4956	353.027	80.0044	353.027	79.9013	353.027	80.0779
366.211	83.5117	366.211	83.3973	366.211	83.5466	366.211	83.2142	366.211	83.4971	366.211	82.9768	366.211	83.3638	366.211	82.6984	366.211	83.1505	366.211	82.3844	366.211	82.8584	366.211	82.0244	366.211	82.4801	366.211	81.5903	366.211	81.9931	366.211	81.0434	366.211	81.3594	366.211	80.3541	366.211	80.5338	366.211	79.5379	366.211	79.4868	366.211	78.7051	366.211	78.2564	366.211	78.0864	366.211	77.0519	366.211	77.9202	366.211	76.3261	366.211	78.2138	366.211	76.4597	366.211	78.7201	366.211	77.2441	366.211	79.1675	366.211	78.1646	366.211	79.3889	366.211	78.8918	366.211	79.3062
379.395	83.9256	379.395	83.7986	379.395	83.9792	379.395	83.5985	379.395	83.9619	379.395	83.3284	379.395	83.878	379.395	82.9934	379.395	83.7316	379.395	82.5977	379.395	83.5247	379.395	82.1408	379.395	83.2536	379.395	81.6125	379.395	82.9053	379.395	80.9913	379.395	82.4545	379.395	80.2525	379.395	81.865	379.395	79.392	379.395	81.0984	379.395	78.4713	379.395	80.1336	379.395	77.6663	379.395	79.0065	379.395	77.2297	379.395	77.8743	379.395	77.2784	379.395	77.0523	379.395	77.6383	379.395	76.8357	379.395	78.0114	379.395	77.1627	379.395	78.1835	379.395	77.6761	379.395	78.0653
392.578	83.1612	392.578	83.1302	392.578	83.124	392.578	83.0348	392.578	83.0271	392.578	82.8879	392.578	82.8905	392.578	82.7031	392.578	82.7376	392.578	82.483	392.578	82.5843	392.578	82.2106	392.578	82.4262	392.578	81.8473	392.578	82.2335	392.578	81.342	392.578	81.9559	392.578	80.65	392.578	81.5371	392.578	79.7631	392.578	80.9358	392.578	78.7607	392.578	80.1527	392.578	77.8705	392.578	79.2716	392.578	77.4261	392.578	78.4949	392.578	77.5778	392.578	78.0859	392.578	78.1004	392.578	78.1491	392.578	78.6483	392.578	78.5077	392.578	79.0014	392.578	78.8826	392.578	79.0771
405.762	82.6861	405.762	82.5548	405.762	82.6967	405.762	82.3195	405.762	82.587	405.762	82.0129	405.762	82.3737	405.762	81.6783	405.762	82.0879	405.762	81.3549	405.762	81.7695	405.762	81.0562	405.762	81.4534	405.762	80.7552	405.762	81.1506	405.762	80.3909	405.762	80.836	405.762	79.8992	405.762	80.4543	405.762	79.2546	405.762	79.9473	405.762	78.521	405.762	79.2945	405.762	77.8907	405.762	78.5652	405.762	77.624	405.762	77.9571	405.762	77.8243	405.762	77.7263	405.762	78.3123	405.762	77.9533	405.762	78.8077	405.762	78.4368	405.762	79.1147	405.762	78.8958	405.762	79.1463
420.41	83.3813	420.41	83.2517	420.41	83.3788	420.41	82.9971	420.41	83.2473	420.41	82.6345	420.41	82.9999	420.41	82.1891	420.41	82.6593	420.41	81.6886	420.41	82.2522	420.41	81.1496	420.41	81.7991	420.41	80.5595	420.41	81.299	420.41	79.8688	420.41	80.7191	420.41	79.0072	420.41	79.9995	420.41	77.9394	420.41	79.0787	420.41	76.7767	420.41	77.9477	420.41	75.9211	420.41	76.7542	420.41	75.8953	420.41	75.9186	420.41	76.6561	420.41	75.9188	420.41	77.6338	420.41	76.6656	420.41	78.4008	420.41	77.6171	420.41	78.7963	420.41	78.3767	420.41	78.7855
435.059	82.6622	435.059	82.5708	435.059	82.6465	435.059	82.3832	435.059	82.5273	435.059	82.123	435.059	82.3231	435.059	81.8213	435.059	82.0661	435.059	81.505	435.059	81.795	435.059	81.1776	435.059	81.5389	435.059	80.8043	435.059	81.2951	435.059	80.3115	435.059	81.0147	435.059	79.6076	435.059	80.6112	435.059	78.6204	435.059	79.9883	435.059	77.3666	435.059	79.081	435.059	76.0895	435.059	77.9202	435.059	75.3659	435.059	76.7468	435.059	75.631	435.059	76.0648	435.059	76.5118	435.059	76.224	435.059	77.3749	435.059	76.9158	435.059	77.8902	435.059	77.599	435.059	77.9613
451.172	83.1991	451.172	83.0968	451.172	83.1537	451.172	82.8559	451.172	82.9636	451.172	82.4983	451.172	82.6433	451.172	82.0578	451.172	82.2186	451.172	81.572	451.172	81.7262	451.172	81.0652	451.172	81.2059	451.172	80.5266	451.172	80.6834	451.172	79.8986	451.172	80.1473	451.172	79.0888	451.172	79.54	451.172	78.0126	451.172	78.7768	451.172	76.6895	451.172	77.8015	451.172	75.4442	451.172	76.6886	451.172	75.0078	451.172	75.7926	451.172	75.712	451.172	75.6639	451.172	76.9003	451.172	76.3785	451.172	77.91	451.172	77.3834	451.172	78.4863	451.172	78.186	451.172	78.5751
465.82	83.1304	465.82	82.9687	465.82	83.1518	465.82	82.6836	465.82	83.0329	465.82	82.3109	465.82	82.7892	465.82	81.9045	465.82	82.4523	465.82	81.5222	465.82	82.0649	465.82	81.1925	465.82	81.6684	465.82	80.8767	465.82	81.2781	465.82	80.4602	465.82	80.8597	465.82	79.7821	465.82	80.3247	465.82	78.6735	465.82	79.5503	465.82	77.0013	465.82	78.4156	465.82	74.8242	465.82	76.8709	465.82	72.9783	465.82	75.1312	465.82	73.1102	465.82	74.0179	465.82	74.6913	465.82	74.3629	465.82	76.1344	465.82	75.5411	465.82	76.9399	465.82	76.5735	465.82	77.073
483.398	82.7197	483.398	82.5894	483.398	82.6926	483.398	82.3177	483.398	82.5079	483.398	81.9384	483.398	82.1843	483.398	81.5044	483.398	81.7641	483.398	81.0814	483.398	81.3153	483.398	80.7215	483.398	80.9174	483.398	80.4196	483.398	80.62	483.398	80.0897	483.398	80.3937	483.398	79.589	483.398	80.1235	483.398	78.7738	483.398	79.6541	483.398	77.5649	483.398	78.8489	483.398	76.0656	483.398	77.6499	483.398	74.7879	483.398	76.1984	483.398	74.5313	483.398	75.0455	483.398	75.2809	483.398	74.9168	483.398	76.2255	483.398	75.659	483.398	76.8287	483.398	76.4829	483.398	76.9186
499.512	82.895	499.512	82.6971	499.512	82.8972	499.512	82.3115	499.512	82.707	499.512	81.7683	499.512	82.339	499.512	81.136	499.512	81.8255	499.512	80.5313	499.512	81.2296	499.512	80.0843	499.512	80.6493	499.512	79.8421	499.512	80.1859	499.512	79.6947	499.512	79.8676	499.512	79.4235	499.512	79.5951	499.512	78.8086	499.512	79.183	499.512	77.7012	499.512	78.4544	499.512	76.1281	499.512	77.3285	499.512	74.6095	499.512	75.956	499.512	74.2851	499.512	74.9321	499.512	75.2888	499.512	74.9806	499.512	76.4737	499.512	75.8642	499.512	77.178	499.512	76.7777	499.512	77.2672
517.09	83.5066	517.09	83.3314	517.09	83.5064	517.09	82.9796	517.09	83.3384	517.09	82.4606	517.09	83.0157	517.09	81.8041	517.09	82.5593	517.09	81.0726	517.09	82.0046	517.09	80.3641	517.09	81.4053	517.09	79.7756	517.09	80.8242	517.09	79.3199	517.09	80.2983	517.09	78.8697	517.09	79.7923	517.09	78.2108	517.09	79.1861	517.09	77.1562	517.09	78.322	517.09	75.6933	517.09	77.0921	517.09	74.2832	517.09	75.5954	517.09	73.9673	517.09	74.4232	517.09	74.9283	517.09	74.4369	517.09	76.1179	517.09	75.4234	517.09	76.8551	517.09	76.4355	517.09	76.9606
536.133	83.6824	536.133	83.53	536.133	83.6098	536.133	83.1524	536.133	83.3137	536.133	82.5552	536.133	82.7978	536.133	81.7633	536.133	82.0754	536.133	80.8474	536.133	81.1895	536.133	79.9487	536.133	80.251	536.133	79.2461	536.133	79.4673	536.133	78.8122	536.133	79.0519	536.133	78.498	536.133	78.996	536.133	78.0279	536.133	79.0172	536.133	77.1807	536.133	78.7908	536.133	75.9398	536.133	78.1391	536.133	74.7473	536.133	77.1326	536.133	74.5664	536.133	76.2353	536.133	75.5871	536.133	76.131	536.133	76.8511	536.133	76.8089	536.133	77.6927	536.133	77.5739	536.133	77.9283
555.176	84.5743	555.176	84.3864	555.176	84.6121	555.176	84.05	555.176	84.4959	555.176	83.5669	555.176	84.22	555.176	82.9454	555.176	83.7768	555.176	82.2112	555.176	83.1597	555.176	81.4175	555.176	82.3681	555.176	80.6338	555.176	81.4163	555.176	79.8888	555.176	80.3368	555.176	79.0996	555.176	79.1605	555.176	78.0655	555.176	77.8671	555.176	76.552	555.176	76.3599	555.176	74.5015	555.176	74.5897	555.176	72.7425	555.176	73.0386	555.176	73.2093	555.176	73.0731	555.176	75.2252	555.176	74.7378	555.176	76.9676	555.176	76.5248	555.176	77.962	555.176	77.7208	555.176	78.2036
574.219	84.9069	574.219	84.8022	574.219	84.8618	574.219	84.5426	574.219	84.6765	574.219	84.1293	574.219	84.3645	574.219	83.5737	574.219	83.947	574.219	82.902	574.219	83.4576	574.219	82.1603	574.219	82.9434	574.219	81.4099	574.219	82.4485	574.219	80.692	574.219	81.9773	574.219	79.9619	574.219	81.4603	574.219	79.0525	574.219	80.7538	574.219	77.7307	574.219	79.6706	574.219	75.8667	574.219	78.0267	574.219	73.9462	574.219	75.7829	574.219	73.6704	574.219	73.6896	574.219	75.257	574.219	73.7502	574.219	76.8931	574.219	75.5437	574.219	77.8045	574.219	77.1133	574.219	77.8818
594.727	85.2299	594.727	85.0491	594.727	85.2404	594.727	84.7042	594.727	85.0803	594.727	84.2137	594.727	84.754	594.727	83.6233	594.727	84.2767	594.727	83.0186	594.727	83.6833	594.727	82.5087	594.727	83.0345	594.727	82.1552	594.727	82.4069	594.727	81.8891	594.727	81.853	594.727	81.5136	594.727	81.3393	594.727	80.7815	594.727	80.7208	594.727	79.4485	594.727	79.7879	594.727	77.299	594.727	78.361	594.727	74.4259	594.727	76.479	594.727	72.7457	594.727	74.9219	594.727	74.4074	594.727	75.1056	594.727	76.6256	594.727	76.5409	594.727	77.9426	594.727	77.7865	594.727	78.299
615.234	85.5854	615.234	85.4239	615.234	85.5582	615.234	85.0687	615.234	85.3461	615.234	84.5129	615.234	84.9533	615.234	83.7574	615.234	84.3898	615.234	82.8372	615.234	83.6808	615.234	81.8688	615.234	82.8861	615.234	81.0686	615.234	82.1161	615.234	80.6113	615.234	81.5011	615.234	80.3808	615.234	81.0748	615.234	79.9975	615.234	80.6726	615.234	79.0734	615.234	79.9887	615.234	77.356	615.234	78.7068	615.234	74.9985	615.234	76.6291	615.234	73.6669	615.234	74.2169	615.234	75.0505	615.234	73.7999	615.234	77.0218	615.234	75.7525	615.234	78.1911	615.234	77.5427	615.234	78.37
637.207	85.234	637.207	85.0698	637.207	85.2015	637.207	84.7126	637.207	84.9738	637.207	84.1745	637.207	84.56	637.207	83.4866	637.207	83.9838	637.207	82.7178	637.207	83.2967	637.207	81.9865	637.207	82.5881	637.207	81.4171	637.207	81.9673	637.207	81.0218	637.207	81.4919	637.207	80.6234	637.207	81.0873	637.207	79.9305	637.207	80.5518	637.207	78.6611	637.207	79.6315	637.207	76.6616	637.207	78.0811	637.207	74.3819	637.207	75.7792	637.207	73.8411	637.207	73.4532	637.207	75.566	637.207	73.635	637.207	77.3591	637.207	75.82	637.207	78.3504	637.207	77.6025	637.207	78.4413
659.18	85.383	659.18	85.273	659.18	85.3041	659.18	84.9498	659.18	85.0435	659.18	84.3779	659.18	84.5893	659.18	83.5248	659.18	83.9177	659.18	82.3952	659.18	83.0169	659.18	81.1108	659.18	81.9357	659.18	80.0097	659.18	80.8564	659.18	79.4944	659.18	80.0931	659.18	79.4864	659.18	79.8121	659.18	79.4044	659.18	79.73	659.18	78.6895	659.18	79.3288	659.18	76.9611	659.18	78.166	659.18	74.153	659.18	75.9535	659.18	72.2759	659.18	73.1327	659.18	74.3338	659.18	72.9248	659.18	76.8781	659.18	75.5257	659.18	78.2638	659.18	77.5872	659.18	78.4871
682.617	84.6761	682.617	84.5628	682.617	84.6238	682.617	84.2793	682.617	84.4076	682.617	83.8127	682.617	84.028	682.617	83.1394	682.617	83.4831	682.617	82.2428	682.617	82.77	682.617	81.1637	682.617	81.9052	682.617	80.0773	682.617	80.9646	682.617	79.2776	682.617	80.109	682.617	78.8661	682.617	79.4963	682.617	78.4854	682.617	79.067	682.617	77.5701	682.617	78.4886	682.617	75.6173	682.617	77.3427	682.617	72.4153	682.617	75.3011	682.617	70.4127	682.617	72.5591	682.617	73.0405	682.617	71.5817	682.617	75.7033	682.617	73.7498	682.617	76.9836	682.617	75.9209	682.617	77.0234
707.52	84.4197	707.52	84.3076	707.52	84.4101	707.52	84.0625	707.52	84.2698	707.52	83.6554	707.52	83.971	707.52	83.0467	707.52	83.4754	707.52	82.2072	707.52	82.7526	707.52	81.1661	707.52	81.8162	707.52	80.0826	707.52	80.783	707.52	79.2415	707.52	79.907	707.52	78.7712	707.52	79.4058	707.52	78.3468	707.52	79.1277	707.52	77.3861	707.52	78.5944	707.52	75.3045	707.52	77.3083	707.52	71.6391	707.52	74.8379	707.52	69.1121	707.52	71.2242	707.52	72.6663	707.52	70.5426	707.52	75.8308	707.52	73.95	707.52	77.3642	707.52	76.4664	707.52	77.5548
732.422	84.5572	732.422	84.408	732.422	84.5384	732.422	84.1025	732.422	84.3557	732.422	83.6498	732.422	84.026	732.422	83.0312	732.422	83.5553	732.422	82.1961	732.422	82.9181	732.422	81.0987	732.422	82.0697	732.422	79.7995	732.422	81.0052	732.422	78.6041	732.422	79.8574	732.422	77.9323	732.422	78.9421	732.422	77.6861	732.422	78.4792	732.422	77.1814	732.422	78.1697	732.422	75.7339	732.422	77.3772	732.422	72.8213	732.422	75.4896	732.422	69.0857	732.422	72.0491	732.422	70.2942	732.422	69.098	732.422	73.6964	732.422	71.832	732.422	75.5588	732.422	74.7024	732.422	75.8861
757.324	84.5767	757.324	84.4335	757.324	84.5473	757.324	84.1307	757.324	84.3391	757.324	83.6868	757.324	83.9562	757.324	83.1169	757.324	83.417	757.324	82.4193	757.324	82.7492	757.324	81.5808	757.324	81.973	757.324	80.6272	757.324	81.1077	757.324	79.6997	757.324	80.2298	757.324	79.0172	757.324	79.5104	757.324	78.5748	757.324	79.0598	757.324	77.9492	757.324	78.6738	757.324	76.5305	757.324	77.8896	757.324	73.7063	757.324	76.2281	757.324	69.5607	757.324	73.3877	757.324	69.8655	757.324	70.6273	757.324	73.4443	757.324	71.9334	757.324	75.3876	757.324	74.462	757.324	75.6771
785.156	85.3114	785.156	85.2069	785.156	85.2265	785.156	84.9025	785.156	84.9721	785.156	84.3915	785.156	84.5612	785.156	83.6609	785.156	83.9772	785.156	82.7032	785.156	83.179	785.156	81.5762	785.156	82.1551	785.156	80.4972	785.156	81.0166	785.156	79.8064	785.156	80.0571	785.156	79.5808	785.156	79.5552	785.156	79.3906	785.156	79.3628	785.156	78.6317	785.156	78.9623	785.156	76.7245	785.156	77.8221	785.156	72.9021	785.156	75.4371	785.156	67.6561	785.156	71.503	785.156	71.4855	785.156	70.211	785.156	75.7888	785.156	74.2101	785.156	77.8098	785.156	77.0408	785.156	78.1766
811.523	84.814	811.523	84.6767	811.523	84.7806	811.523	84.3798	811.523	84.5631	811.523	83.9127	811.523	84.158	811.523	83.2391	811.523	83.5598	811.523	82.3103	811.523	82.7398	811.523	81.109	811.523	81.6634	811.523	79.7731	811.523	80.3962	811.523	78.7936	811.523	79.2754	811.523	78.6985	811.523	78.8214	811.523	79.0988	811.523	79.0255	811.523	79.0717	811.523	79.194	811.523	77.9473	811.523	78.6463	811.523	75.1795	811.523	76.897	811.523	70.4032	811.523	73.502	811.523	69.2479	811.523	69.3929	811.523	73.1808	811.523	71.0241	811.523	75.2851	811.523	74.1696	811.523	75.5609
840.82	84.9905	840.82	84.8706	840.82	84.8684	840.82	84.5212	840.82	84.5369	840.82	83.9885	840.82	84.0469	840.82	83.3025	840.82	83.426	840.82	82.4314	840.82	82.6599	840.82	81.3082	840.82	81.7135	840.82	79.9649	840.82	80.5866	840.82	78.745	840.82	79.4245	840.82	78.2183	840.82	78.6033	840.82	78.3341	840.82	78.3788	840.82	78.277	840.82	78.3368	840.82	77.2549	840.82	77.7342	840.82	74.5406	840.82	75.9379	840.82	69.3405	840.82	72.3485	840.82	68.8045	840.82	68.2918	840.82	73.7258	840.82	71.3285	840.82	76.0689	840.82	74.8529	840.82	76.3624
870.117	84.4634	870.117	84.3032	870.117	84.4342	870.117	83.9832	870.117	84.2041	870.117	83.5262	870.117	83.7949	870.117	82.9257	870.117	83.2415	870.117	82.1224	870.117	82.5297	870.117	80.9993	870.117	81.5554	870.117	79.481	870.117	80.1904	870.117	77.8946	870.117	78.5276	870.117	77.2789	870.117	77.3145	870.117	77.8193	870.117	77.4011	870.117	78.136	870.117	77.9985	870.117	77.1981	870.117	77.8549	870.117	74.3543	870.117	76.2672	870.117	68.9964	870.117	72.5145	870.117	68.6361	870.117	66.9824	870.117	73.4729	870.117	70.6443	870.117	75.8523	870.117	74.6866	870.117	76.2277
900.879	84.471	900.879	84.307	900.879	84.3703	900.879	83.9174	900.879	84.0199	900.879	83.3819	900.879	83.4753	900.879	82.7577	900.879	82.8066	900.879	81.9934	900.879	82.0499	900.879	80.9188	900.879	81.1492	900.879	79.3593	900.879	79.9527	900.879	77.4226	900.879	78.3587	900.879	76.0445	900.879	76.7265	900.879	76.1973	900.879	76.1463	900.879	76.7509	900.879	76.7225	900.879	76.2549	900.879	77.0291	900.879	73.8119	900.879	76.0013	900.879	68.5229	900.879	72.7657	900.879	68.4502	900.879	66.6623	900.879	73.6065	900.879	69.6867	900.879	75.9376	900.879	74.3437	900.879	76.154
933.105	84.6039	933.105	84.3757	933.105	84.4882	933.105	83.8434	933.105	84.0383	933.105	83.0986	933.105	83.3272	933.105	82.2814	933.105	82.5034	933.105	81.5106	933.105	81.7228	933.105	80.7463	933.105	80.9877	933.105	79.753	933.105	80.0985	933.105	78.2993	933.105	78.8272	933.105	76.5963	933.105	77.2052	933.105	75.6859	933.105	75.897	933.105	75.8008	933.105	75.6901	933.105	75.3704	933.105	75.83	933.105	72.9276	933.105	74.9454	933.105	66.4774	933.105	71.9525	933.105	65.9278	933.105	65.8525	933.105	72.7043	933.105	68.2431	933.105	75.3082	933.105	73.3855	933.105	75.469
965.332	84.4333	965.332	84.2011	965.332	84.3167	965.332	83.6514	965.332	83.8533	965.332	82.8486	965.332	83.096	965.332	81.9019	965.332	82.1521	965.332	80.9238	965.332	81.1525	965.332	79.892	965.332	80.1778	965.332	78.5835	965.332	79.1643	965.332	76.8279	965.332	77.9057	965.332	75.1838	965.332	76.3205	965.332	75.0432	965.332	75.093	965.332	75.9089	965.332	75.3464	965.332	76.0543	965.332	76.165	965.332	74.5262	965.332	75.9466	965.332	70.3716	965.332	73.7767	965.332	65.249	965.332	68.6521	965.332	70.4596	965.332	66.2261	965.332	73.6177	965.332	71.5671	965.332	73.9108
1,000.49	84.7185	1,000.49	84.4827	1,000.49	84.5982	1,000.49	83.9216	1,000.49	84.1148	1,000.49	83.086	1,000.49	83.3025	1,000.49	82.0553	1,000.49	82.2598	1,000.49	80.9415	1,000.49	81.1507	1,000.49	79.835	1,000.49	80.1331	1,000.49	78.6935	1,000.49	79.2001	1,000.49	77.3611	1,000.49	78.1283	1,000.49	75.9352	1,000.49	76.7452	1,000.49	75.2068	1,000.49	75.4294	1,000.49	75.498	1,000.49	75.0244	1,000.49	75.5324	1,000.49	75.2014	1,000.49	74.0162	1,000.49	74.6798	1,000.49	69.602	1,000.49	72.4924	1,000.49	60.996	1,000.49	67.6357	1,000.49	68.358	1,000.49	65.1194	1,000.49	72.2683	1,000.49	70.4111	1,000.49	72.7648
1,035.64	84.6297	1,035.64	84.3907	1,035.64	84.5445	1,035.64	83.8533	1,035.64	84.1235	1,035.64	83.0558	1,035.64	83.3808	1,035.64	82.0382	1,035.64	82.3668	1,035.64	80.8171	1,035.64	81.1613	1,035.64	79.4095	1,035.64	79.8643	1,035.64	77.9122	1,035.64	78.5763	1,035.64	76.4855	1,035.64	77.3259	1,035.64	75.2452	1,035.64	76.0639	1,035.64	74.5223	1,035.64	74.935	1,035.64	74.7711	1,035.64	74.482	1,035.64	75.2555	1,035.64	74.753	1,035.64	74.6233	1,035.64	74.7317	1,035.64	71.8059	1,035.64	73.3488	1,035.64	66.2727	1,035.64	69.8589	1,035.64	67.8211	1,035.64	67.0409	1,035.64	71.7201	1,035.64	70.427	1,035.64	72.4678
1,072.27	84.7527	1,072.27	84.5422	1,072.27	84.6819	1,072.27	84.0748	1,072.27	84.3326	1,072.27	83.3913	1,072.27	83.7209	1,072.27	82.5041	1,072.27	82.8644	1,072.27	81.3737	1,072.27	81.7597	1,072.27	79.9483	1,072.27	80.3547	1,072.27	78.2726	1,072.27	78.6378	1,072.27	76.6426	1,072.27	76.915	1,072.27	75.4763	1,072.27	75.7792	1,072.27	74.6976	1,072.27	75.1649	1,072.27	73.9562	1,072.27	74.4249	1,072.27	73.2736	1,072.27	73.5828	1,072.27	72.4753	1,072.27	73.0972	1,072.27	71.1	1,072.27	72.4466	1,072.27	70.2286	1,072.27	71.0694	1,072.27	71.6014	1,072.27	70.5749	1,072.27	73.1462	1,072.27	72.1279	1,072.27	73.3524
1,108.89	85.3171	1,108.89	85.0816	1,108.89	85.1739	1,108.89	84.4885	1,108.89	84.6712	1,108.89	83.6524	1,108.89	83.8758	1,108.89	82.8105	1,108.89	82.9428	1,108.89	82.102	1,108.89	82.0441	1,108.89	81.2297	1,108.89	81.1154	1,108.89	79.6545	1,108.89	79.7925	1,108.89	77.2309	1,108.89	77.7785	1,108.89	75.2145	1,108.89	75.6439	1,108.89	75.1665	1,108.89	75.2079	1,108.89	75.4188	1,108.89	75.819	1,108.89	74.7235	1,108.89	75.4664	1,108.89	73.1049	1,108.89	73.6819	1,108.89	71.0109	1,108.89	70.9498	1,108.89	71.1899	1,108.89	69.5295	1,108.89	74.0824	1,108.89	71.8531	1,108.89	76.0113	1,108.89	74.6987	1,108.89	76.186
1,148.44	85.9487	1,148.44	85.7062	1,148.44	85.8188	1,148.44	85.0749	1,148.44	85.2965	1,148.44	84.0696	1,148.44	84.358	1,148.44	82.9068	1,148.44	83.0751	1,148.44	82.0135	1,148.44	81.7601	1,148.44	81.4074	1,148.44	80.8332	1,148.44	80.3802	1,148.44	80.0946	1,148.44	78.2528	1,148.44	78.7168	1,148.44	75.4734	1,148.44	76.3248	1,148.44	74.8463	1,148.44	74.5066	1,148.44	75.6352	1,148.44	74.9223	1,148.44	75.0438	1,148.44	75.0956	1,148.44	72.5469	1,148.44	73.5406	1,148.44	69.4172	1,148.44	69.7317	1,148.44	71.5542	1,148.44	66.6682	1,148.44	75.4478	1,148.44	71.8822	1,148.44	77.5147	1,148.44	75.8745	1,148.44	77.6544
1,189.45	85.6015	1,189.45	85.3357	1,189.45	85.5286	1,189.45	84.7176	1,189.45	85.0971	1,189.45	83.6924	1,189.45	84.2572	1,189.45	82.2726	1,189.45	82.9504	1,189.45	80.8501	1,189.45	81.285	1,189.45	80.0345	1,189.45	79.8827	1,189.45	79.4145	1,189.45	79.2834	1,189.45	77.8828	1,189.45	78.5606	1,189.45	75.2585	1,189.45	76.4964	1,189.45	74.2652	1,189.45	73.5377	1,189.45	75.5088	1,189.45	73.7572	1,189.45	75.3471	1,189.45	75.2125	1,189.45	72.1946	1,189.45	74.3987	1,189.45	63.3368	1,189.45	69.8899	1,189.45	69.7893	1,189.45	62.2181	1,189.45	75.5852	1,189.45	71.9737	1,189.45	77.8806	1,189.45	76.4275	1,189.45	78.1158
1,230.47	85.4243	1,230.47	85.2195	1,230.47	85.3936	1,230.47	84.7487	1,230.47	85.1033	1,230.47	83.888	1,230.47	84.4933	1,230.47	82.4652	1,230.47	83.4578	1,230.47	80.5987	1,230.47	81.913	1,230.47	79.298	1,230.47	80.1194	1,230.47	79.1246	1,230.47	78.9134	1,230.47	78.4083	1,230.47	78.3182	1,230.47	75.6552	1,230.47	76.9117	1,230.47	72.2557	1,230.47	73.9278	1,230.47	74.2624	1,230.47	73.0886	1,230.47	75.7024	1,230.47	75.3726	1,230.47	73.622	1,230.47	75.4549	1,230.47	63.9862	1,230.47	71.634	1,230.47	67.3961	1,230.47	55.2963	1,230.47	75.1975	1,230.47	70.8917	1,230.47	77.8172	1,230.47	76.1781	1,230.47	78.0564
1,274.41	85.1442	1,274.41	85.0221	1,274.41	85.1058	1,274.41	84.7341	1,274.41	84.8672	1,274.41	84.1894	1,274.41	84.3627	1,274.41	83.1649	1,274.41	83.501	1,274.41	81.462	1,274.41	82.1255	1,274.41	79.4877	1,274.41	80.1864	1,274.41	78.5357	1,274.41	78.3971	1,274.41	78.1171	1,274.41	77.733	1,274.41	76.0881	1,274.41	77.0101	1,274.41	72.0535	1,274.41	74.5976	1,274.41	73.0349	1,274.41	72.0423	1,274.41	75.6665	1,274.41	74.2621	1,274.41	75.1121	1,274.41	75.6718	1,274.41	70.0751	1,274.41	73.6301	1,274.41	56.5021	1,274.41	63.9628	1,274.41	72.6608	1,274.41	67.4142	1,274.41	76.5959	1,274.41	74.9149	1,274.41	77.1464
1,319.82	84.8968	1,319.82	84.6683	1,319.82	84.8209	1,319.82	84.2704	1,319.82	84.4507	1,319.82	83.7581	1,319.82	83.917	1,319.82	82.9411	1,319.82	83.2261	1,319.82	81.5666	1,319.82	82.2065	1,319.82	79.7616	1,319.82	80.7361	1,319.82	78.347	1,319.82	79.0038	1,319.82	77.6773	1,319.82	77.6359	1,319.82	76.4344	1,319.82	76.605	1,319.82	73.4582	1,319.82	74.5153	1,319.82	71.7069	1,319.82	71.2676	1,319.82	74.4373	1,319.82	72.5763	1,319.82	75.3381	1,319.82	74.9931	1,319.82	72.282	1,319.82	74.3896	1,319.82	55.4118	1,319.82	68.488	1,319.82	70.0322	1,319.82	61.6775	1,319.82	75.1214	1,319.82	73.2295	1,319.82	75.9002
1,366.7	84.321	1,366.7	84.1306	1,366.7	84.1897	1,366.7	83.6527	1,366.7	83.7912	1,366.7	82.9852	1,366.7	83.2327	1,366.7	82.1439	1,366.7	82.5072	1,366.7	80.9561	1,366.7	81.4311	1,366.7	79.3108	1,366.7	79.915	1,366.7	77.8048	1,366.7	78.2018	1,366.7	77.3502	1,366.7	76.9114	1,366.7	76.6787	1,366.7	76.1878	1,366.7	74.223	1,366.7	74.7276	1,366.7	71.5226	1,366.7	71.8473	1,366.7	73.2067	1,366.7	71.9428	1,366.7	74.1511	1,366.7	74.2094	1,366.7	71.0309	1,366.7	73.6363	1,366.7	49.4504	1,366.7	67.5856	1,366.7	69.9577	1,366.7	60.7694	1,366.7	74.4933	1,366.7	72.2816	1,366.7	75.0069
1,413.57	84.2403	1,413.57	83.9247	1,413.57	84.111	1,413.57	83.2047	1,413.57	83.5466	1,413.57	82.184	1,413.57	82.7198	1,413.57	81.095	1,413.57	81.8488	1,413.57	79.9911	1,413.57	80.9186	1,413.57	78.5161	1,413.57	79.7305	1,413.57	76.6752	1,413.57	78.1244	1,413.57	75.3497	1,413.57	76.4511	1,413.57	74.274	1,413.57	75.5386	1,413.57	72.2545	1,413.57	74.465	1,413.57	70.7737	1,413.57	72.0416	1,413.57	72.6767	1,413.57	71.83	1,413.57	74.2419	1,413.57	73.9514	1,413.57	72.4826	1,413.57	73.934	1,413.57	62.3405	1,413.57	70.1678	1,413.57	66.1076	1,413.57	51.8468	1,413.57	72.1791	1,413.57	67.6445	1,413.57	72.3104
1,463.38	84.9033	1,463.38	84.6181	1,463.38	84.7182	1,463.38	83.8922	1,463.38	84.0179	1,463.38	82.7746	1,463.38	82.9315	1,463.38	81.387	1,463.38	81.8589	1,463.38	79.8225	1,463.38	80.9195	1,463.38	78.1265	1,463.38	79.6449	1,463.38	76.4601	1,463.38	77.7707	1,463.38	75.0271	1,463.38	75.708	1,463.38	73.5543	1,463.38	74.3561	1,463.38	71.3128	1,463.38	73.645	1,463.38	69.3205	1,463.38	72.1514	1,463.38	71.3941	1,463.38	70.9525	1,463.38	73.2533	1,463.38	72.546	1,463.38	71.8257	1,463.38	73.2729	1,463.38	63.7288	1,463.38	70.1962	1,463.38	64.9489	1,463.38	57.9487	1,463.38	71.615	1,463.38	67.5493	1,463.38	72.0514
1,516.11	85.3085	1,516.11	84.9996	1,516.11	85.1502	1,516.11	84.3148	1,516.11	84.58	1,516.11	83.3726	1,516.11	83.6532	1,516.11	82.1483	1,516.11	82.4678	1,516.11	80.6781	1,516.11	81.2423	1,516.11	79.2057	1,516.11	79.9061	1,516.11	77.887	1,516.11	78.1843	1,516.11	76.5514	1,516.11	76.3377	1,516.11	74.9841	1,516.11	74.7658	1,516.11	73.0108	1,516.11	73.1064	1,516.11	70.3626	1,516.11	71.1448	1,516.11	70.1737	1,516.11	70.0326	1,516.11	72.1701	1,516.11	71.399	1,516.11	71.3133	1,516.11	72.6017	1,516.11	64.8375	1,516.11	70.576	1,516.11	60.3823	1,516.11	59.9724	1,516.11	69.7808	1,516.11	66.1097	1,516.11	71.1162
1,568.85	85.0927	1,568.85	84.7884	1,568.85	85.0375	1,568.85	84.2779	1,568.85	84.5485	1,568.85	83.5852	1,568.85	83.6782	1,568.85	82.6165	1,568.85	82.5678	1,568.85	81.4879	1,568.85	81.2393	1,568.85	80.2319	1,568.85	79.5609	1,568.85	78.6292	1,568.85	77.7198	1,568.85	77.1398	1,568.85	76.1291	1,568.85	75.8352	1,568.85	74.4606	1,568.85	73.9451	1,568.85	72.0859	1,568.85	72.1977	1,568.85	69.7418	1,568.85	71.4526	1,568.85	69.2851	1,568.85	71.7769	1,568.85	70.944	1,568.85	71.2995	1,568.85	72.134	1,568.85	66.9119	1,568.85	70.3257	1,568.85	58.6172	1,568.85	62.1358	1,568.85	68.5554	1,568.85	65.9544	1,568.85	70.5012
1,624.51	84.6446	1,624.51	84.3433	1,624.51	84.469	1,624.51	83.6476	1,624.51	83.8541	1,624.51	82.7522	1,624.51	82.839	1,624.51	81.8266	1,624.51	81.5724	1,624.51	80.9241	1,624.51	80.2013	1,624.51	79.6139	1,624.51	78.6744	1,624.51	77.5634	1,624.51	77.0317	1,624.51	76.1181	1,624.51	75.4104	1,624.51	75.5737	1,624.51	74.0321	1,624.51	73.6759	1,624.51	71.9846	1,624.51	71.3702	1,624.51	69.0346	1,624.51	71.2565	1,624.51	68.7835	1,624.51	71.6355	1,624.51	70.843	1,624.51	71.3373	1,624.51	71.2091	1,624.51	66.3854	1,624.51	68.8515	1,624.51	63.9544	1,624.51	61.3128	1,624.51	70.9089	1,624.51	65.5467	1,624.51	70.9463
1,681.64	84.5023	1,681.64	84.3214	1,681.64	84.1627	1,681.64	83.6306	1,681.64	83.5732	1,681.64	82.5124	1,681.64	82.8383	1,681.64	81.1991	1,681.64	81.7004	1,681.64	80.0994	1,681.64	80.3698	1,681.64	78.758	1,681.64	79.3846	1,681.64	76.4643	1,681.64	78.0803	1,681.64	74.3742	1,681.64	75.6204	1,681.64	74.1737	1,681.64	73.5121	1,681.64	72.8613	1,681.64	72.1346	1,681.64	68.9251	1,681.64	69.5771	1,681.64	69.3084	1,681.64	68.7273	1,681.64	70.6723	1,681.64	71.009	1,681.64	70.1277	1,681.64	71.4967	1,681.64	65.6247	1,681.64	69.4705	1,681.64	62.4441	1,681.64	62.2792	1,681.64	69.6027	1,681.64	64.8981	1,681.64	70.1906
1,741.7	85.2912	1,741.7	85.1047	1,741.7	85.0611	1,741.7	84.4421	1,741.7	84.6096	1,741.7	83.3644	1,741.7	83.9844	1,741.7	81.931	1,741.7	82.9347	1,741.7	80.3516	1,741.7	81.4341	1,741.7	78.929	1,741.7	80.1843	1,741.7	77.2703	1,741.7	79.1265	1,741.7	75.0203	1,741.7	76.8434	1,741.7	73.4426	1,741.7	73.9961	1,741.7	72.4988	1,741.7	73.3762	1,741.7	69.0456	1,741.7	72.6748	1,741.7	66.6262	1,741.7	69.3147	1,741.7	70.1098	1,741.7	70.1334	1,741.7	70.4276	1,741.7	72.137	1,741.7	64.9	1,741.7	70.4077	1,741.7	58.2941	1,741.7	62.8104	1,741.7	69.3117	1,741.7	65.434	1,741.7	70.724
1,803.22	85.5518	1,803.22	85.326	1,803.22	85.2403	1,803.22	84.4789	1,803.22	84.599	1,803.22	83.2848	1,803.22	83.7887	1,803.22	81.9934	1,803.22	82.8276	1,803.22	80.3975	1,803.22	81.468	1,803.22	78.4002	1,803.22	79.9474	1,803.22	76.4962	1,803.22	78.8317	1,803.22	74.9765	1,803.22	76.9549	1,803.22	73.771	1,803.22	74.0197	1,803.22	72.9087	1,803.22	72.7875	1,803.22	70.7766	1,803.22	72.8144	1,803.22	67.0614	1,803.22	71.1177	1,803.22	69.5288	1,803.22	68.9677	1,803.22	72.0613	1,803.22	71.2221	1,803.22	68.7183	1,803.22	71.3052	1,803.22	36.5945	1,803.22	65.2305	1,803.22	67.3096	1,803.22	63.5018	1,803.22	69.7733
1,866.21	85.549	1,866.21	85.2021	1,866.21	85.1147	1,866.21	84.0624	1,866.21	84.4586	1,866.21	82.7196	1,866.21	83.8288	1,866.21	81.415	1,866.21	82.6012	1,866.21	79.6917	1,866.21	81.0305	1,866.21	77.8672	1,866.21	79.7749	1,866.21	76.7838	1,866.21	78.3269	1,866.21	75.8837	1,866.21	76.4404	1,866.21	75.2145	1,866.21	74.4995	1,866.21	74.3474	1,866.21	73.8934	1,866.21	72.3506	1,866.21	74.0171	1,866.21	70.6756	1,866.21	72.9051	1,866.21	69.9592	1,866.21	69.3581	1,866.21	72.6544	1,866.21	70.7841	1,866.21	70.9108	1,866.21	73.081	1,866.21	57.6662	1,866.21	68.9345	1,866.21	67.8968	1,866.21	63.3897	1,866.21	71.0658
1,932.13	85.513	1,932.13	84.9407	1,932.13	85.5558	1,932.13	84.3776	1,932.13	84.927	1,932.13	83.5652	1,932.13	84.1392	1,932.13	82.0537	1,932.13	83.159	1,932.13	80.6777	1,932.13	82.1354	1,932.13	80.6221	1,932.13	80.788	1,932.13	80.4691	1,932.13	79.2579	1,932.13	78.4622	1,932.13	78.7971	1,932.13	76.0657	1,932.13	77.9927	1,932.13	74.1945	1,932.13	76.2424	1,932.13	72.0269	1,932.13	75.0988	1,932.13	73.6549	1,932.13	74.1703	1,932.13	73.9273	1,932.13	73.0953	1,932.13	74.9797	1,932.13	71.5218	1,932.13	74.8275	1,932.13	73.4134	1,932.13	65.8852	1,932.13	71.4476	1,932.13	69.4401	1,932.13	59.094	1,932.13	69.5971
1,999.51	84.962	1,999.51	84.5171	1,999.51	85.346	1,999.51	84.5121	1,999.51	84.8788	1,999.51	84.3853	1,999.51	84.063	1,999.51	83.6273	1,999.51	83.9812	1,999.51	82.4056	1,999.51	83.6604	1,999.51	81.4717	1,999.51	82.0449	1,999.51	80.6666	1,999.51	80.6129	1,999.51	78.442	1,999.51	80.382	1,999.51	75.9471	1,999.51	79.3267	1,999.51	75.1179	1,999.51	77.3753	1,999.51	73.1854	1,999.51	74.6272	1,999.51	71.1605	1,999.51	72.8182	1,999.51	73.2904	1,999.51	74.7184	1,999.51	75.3313	1,999.51	75.1012	1,999.51	75.713	1,999.51	75.3079	1,999.51	67.4202	1,999.51	72.0715	1,999.51	70.7529	1,999.51	64.1204	1,999.51	70.3825
2,069.82	84.3497	2,069.82	84.2635	2,069.82	84.4875	2,069.82	84.0508	2,069.82	84.3585	2,069.82	84.1378	2,069.82	83.7001	2,069.82	84.2354	2,069.82	83.8624	2,069.82	83.3738	2,069.82	83.6125	2,069.82	81.4605	2,069.82	81.4873	2,069.82	80.5127	2,069.82	80.4329	2,069.82	79.5924	2,069.82	80.4683	2,069.82	78.0538	2,069.82	78.0264	2,069.82	77.367	2,069.82	76.0265	2,069.82	75.2466	2,069.82	74.421	2,069.82	70.7281	2,069.82	70.7112	2,069.82	68.1011	2,069.82	72.8979	2,069.82	72.0502	2,069.82	73.0938	2,069.82	75.8171	2,069.82	74.404	2,069.82	70.6472	2,069.82	72.8768	2,069.82	69.1472	2,069.82	68.5502	2,069.82	69.3982
2,143.07	83.7643	2,143.07	83.5778	2,143.07	83.8213	2,143.07	83.5332	2,143.07	83.8009	2,143.07	83.3364	2,143.07	83.5797	2,143.07	83.6394	2,143.07	83.1457	2,143.07	83.4712	2,143.07	82.7532	2,143.07	81.0789	2,143.07	81.3662	2,143.07	79.4379	2,143.07	79.0966	2,143.07	78.804	2,143.07	78.8991	2,143.07	77.7187	2,143.07	76.7652	2,143.07	77.8758	2,143.07	75.2318	2,143.07	76.1725	2,143.07	76.1865	2,143.07	72.3795	2,143.07	71.7053	2,143.07	70.8964	2,143.07	71.1847	2,143.07	70.7992	2,143.07	70.9202	2,143.07	72.3824	2,143.07	71.6021	2,143.07	67.0489	2,143.07	71.4581	2,143.07	70.6061	2,143.07	66.7727	2,143.07	71.7442
2,219.24	84.4845	2,219.24	84.5649	2,219.24	84.9906	2,219.24	85.139	2,219.24	84.7273	2,219.24	84.9697	2,219.24	84.6829	2,219.24	84.2017	2,219.24	84.7808	2,219.24	83.4744	2,219.24	83.7259	2,219.24	82.1937	2,219.24	82.6547	2,219.24	80.4608	2,219.24	80.8728	2,219.24	78.5537	2,219.24	79.4296	2,219.24	74.6949	2,219.24	78.1931	2,219.24	74.4528	2,219.24	75.1532	2,219.24	74.9404	2,219.24	76.044	2,219.24	73.8482	2,219.24	73.7846	2,219.24	72.1356	2,219.24	70.0015	2,219.24	73.7995	2,219.24	69.8624	2,219.24	74.7044	2,219.24	71.6187	2,219.24	67.5716	2,219.24	71.0906	2,219.24	67.4795	2,219.24	61.6263	2,219.24	68.9947
2,296.88	84.1658	2,296.88	84.2455	2,296.88	83.8251	2,296.88	84.4291	2,296.88	83.6358	2,296.88	84.9432	2,296.88	84.1314	2,296.88	84.7196	2,296.88	83.711	2,296.88	83.6523	2,296.88	82.4519	2,296.88	82.4057	2,296.88	81.8738	2,296.88	80.2963	2,296.88	80.4473	2,296.88	78.8973	2,296.88	78.8858	2,296.88	76.9061	2,296.88	78.4807	2,296.88	75.5675	2,296.88	76.1596	2,296.88	73.5614	2,296.88	75.0418	2,296.88	71.3337	2,296.88	71.6047	2,296.88	71.1707	2,296.88	70.9773	2,296.88	69.3934	2,296.88	72.2443	2,296.88	74.0475	2,296.88	73.4161	2,296.88	69.6391	2,296.88	72.909	2,296.88	64.2957	2,296.88	60.7912	2,296.88	64.13
2,378.91	83.6413	2,378.91	84.2951	2,378.91	83.829	2,378.91	84.8829	2,378.91	84.6619	2,378.91	84.8771	2,378.91	85.3648	2,378.91	84.3685	2,378.91	85.0563	2,378.91	82.9817	2,378.91	84.3849	2,378.91	81.6703	2,378.91	83.2339	2,378.91	80.0745	2,378.91	80.8232	2,378.91	77.7931	2,378.91	78.2048	2,378.91	75.1028	2,378.91	78.0864	2,378.91	74.5572	2,378.91	75.8372	2,378.91	73.7057	2,378.91	73.6375	2,378.91	70.5384	2,378.91	72.5372	2,378.91	73.9843	2,378.91	70.6217	2,378.91	71.7745	2,378.91	72.2583	2,378.91	75.8242	2,378.91	73.2696	2,378.91	71.8921	2,378.91	75.534	2,378.91	67.4252	2,378.91	70.7281	2,378.91	66.9113
2,462.4	83.763	2,462.4	84.1872	2,462.4	83.8694	2,462.4	84.7668	2,462.4	84.6106	2,462.4	85.093	2,462.4	85.2677	2,462.4	84.7974	2,462.4	85.1649	2,462.4	83.725	2,462.4	84.4285	2,462.4	82.4409	2,462.4	83.1755	2,462.4	80.6445	2,462.4	81.3774	2,462.4	78.4416	2,462.4	78.6514	2,462.4	76.2285	2,462.4	77.4498	2,462.4	73.9845	2,462.4	75.4709	2,462.4	74.0585	2,462.4	74.7168	2,462.4	70.7256	2,462.4	73.0501	2,462.4	72.0401	2,462.4	70.9786	2,462.4	70.0209	2,462.4	72.2533	2,462.4	72.1713	2,462.4	71.9287	2,462.4	68.9606	2,462.4	72.5652	2,462.4	65.3463	2,462.4	69.7009	2,462.4	68.14
2,548.83	82.6089	2,548.83	83.3253	2,548.83	82.9216	2,548.83	84.08	2,548.83	83.5027	2,548.83	84.3103	2,548.83	83.651	2,548.83	83.919	2,548.83	83.9096	2,548.83	82.989	2,548.83	83.433	2,548.83	81.5068	2,548.83	81.9537	2,548.83	79.6084	2,548.83	80.3616	2,548.83	77.8073	2,548.83	77.582	2,548.83	76.5324	2,548.83	75.5589	2,548.83	73.4815	2,548.83	73.9413	2,548.83	74.6839	2,548.83	71.8789	2,548.83	72.3128	2,548.83	72.5421	2,548.83	73.125	2,548.83	67.8142	2,548.83	70.9826	2,548.83	70.7552	2,548.83	71.2251	2,548.83	69.7228	2,548.83	68.0465	2,548.83	72.8998	2,548.83	68.1047	2,548.83	63.089	2,548.83	68.4547
2,639.65	83.5221	2,639.65	84.096	2,639.65	83.8083	2,639.65	84.8829	2,639.65	84.3972	2,639.65	84.9803	2,639.65	84.9487	2,639.65	84.4918	2,639.65	84.7899	2,639.65	82.999	2,639.65	83.9715	2,639.65	80.9012	2,639.65	82.273	2,639.65	79.0659	2,639.65	80.3433	2,639.65	76.4994	2,639.65	78.7149	2,639.65	74.9775	2,639.65	76.6846	2,639.65	71.9581	2,639.65	75.1242	2,639.65	71.4168	2,639.65	72.9258	2,639.65	70.6289	2,639.65	73.5796	2,639.65	71.3767	2,639.65	70.5651	2,639.65	71.2735	2,639.65	71.8675	2,639.65	71.7155	2,639.65	70.4647	2,639.65	68.6359	2,639.65	71.6172	2,639.65	65.2857	2,639.65	70.0756	2,639.65	63.7165
2,731.93	83.8604	2,731.93	84.4015	2,731.93	84.2206	2,731.93	85.264	2,731.93	84.815	2,731.93	85.5457	2,731.93	85.3325	2,731.93	84.9144	2,731.93	85.1037	2,731.93	83.5604	2,731.93	84.1353	2,731.93	81.7545	2,731.93	82.5375	2,731.93	79.7147	2,731.93	80.4954	2,731.93	77.0097	2,731.93	78.526	2,731.93	75.2866	2,731.93	76.3532	2,731.93	71.9881	2,731.93	75.1369	2,731.93	71.0905	2,731.93	72.3131	2,731.93	70.4854	2,731.93	73.152	2,731.93	69.6895	2,731.93	71.0576	2,731.93	70.1049	2,731.93	72.0458	2,731.93	71.8694	2,731.93	72.3481	2,731.93	69.8715	2,731.93	72.9262	2,731.93	65.3983	2,731.93	67.3994	2,731.93	66.9204
2,828.61	83.069	2,828.61	83.5084	2,828.61	83.3453	2,828.61	84.4055	2,828.61	84.176	2,828.61	84.7588	2,828.61	85.0099	2,828.61	84.079	2,828.61	84.7656	2,828.61	82.7995	2,828.61	83.6232	2,828.61	80.6708	2,828.61	82.0473	2,828.61	78.9111	2,828.61	80.108	2,828.61	76.3534	2,828.61	78.2323	2,828.61	73.9628	2,828.61	75.3099	2,828.61	73.6694	2,828.61	74.0182	2,828.61	70.4899	2,828.61	70.7541	2,828.61	69.7682	2,828.61	71.4917	2,828.61	70.7606	2,828.61	71.4813	2,828.61	71.3939	2,828.61	72.3857	2,828.61	71.504	2,828.61	71.7213	2,828.61	70.1119	2,828.61	71.7187	2,828.61	63.147	2,828.61	69.9262	2,828.61	62.8362
2,928.22	83.3883	2,928.22	83.8754	2,928.22	83.7993	2,928.22	84.7683	2,928.22	84.7332	2,928.22	84.9595	2,928.22	85.263	2,928.22	84.1054	2,928.22	85.1145	2,928.22	82.8701	2,928.22	83.8963	2,928.22	81.0005	2,928.22	82.1786	2,928.22	78.5303	2,928.22	80.3	2,928.22	76.4246	2,928.22	78.4225	2,928.22	73.8552	2,928.22	76.0621	2,928.22	72.907	2,928.22	74.2682	2,928.22	71.2952	2,928.22	72.2906	2,928.22	71.2001	2,928.22	71.7048	2,928.22	67.7881	2,928.22	69.4365	2,928.22	70.8589	2,928.22	70.2753	2,928.22	70.4865	2,928.22	71.093	2,928.22	69.0586	2,928.22	72.8312	2,928.22	65.9014	2,928.22	67.6387	2,928.22	68.3959
3,030.76	82.8863	3,030.76	83.5308	3,030.76	83.2823	3,030.76	84.5391	3,030.76	84.3343	3,030.76	84.8036	3,030.76	84.9166	3,030.76	84.0683	3,030.76	84.8239	3,030.76	82.612	3,030.76	83.7642	3,030.76	80.952	3,030.76	81.9995	3,030.76	78.578	3,030.76	80.0904	3,030.76	76.3897	3,030.76	78.3507	3,030.76	74.0662	3,030.76	76.199	3,030.76	72.1983	3,030.76	74.0984	3,030.76	70.6379	3,030.76	72.2322	3,030.76	70.2229	3,030.76	70.6602	3,030.76	69.9201	3,030.76	70.8416	3,030.76	71.9634	3,030.76	71.1468	3,030.76	70.5737	3,030.76	70.8564	3,030.76	70.8095	3,030.76	72.3352	3,030.76	62.7883	3,030.76	69.7102	3,030.76	66.4973
3,137.7	82.626	3,137.7	83.1866	3,137.7	82.8136	3,137.7	84.0368	3,137.7	83.8875	3,137.7	84.3923	3,137.7	84.7322	3,137.7	83.8428	3,137.7	84.4648	3,137.7	82.383	3,137.7	83.4393	3,137.7	80.6019	3,137.7	81.9334	3,137.7	78.2499	3,137.7	80.1216	3,137.7	75.9955	3,137.7	78.0736	3,137.7	74.0772	3,137.7	76.4475	3,137.7	72.708	3,137.7	74.1898	3,137.7	69.1686	3,137.7	72.0629	3,137.7	70.7368	3,137.7	70.3873	3,137.7	66.3531	3,137.7	70.9275	3,137.7	70.9967	3,137.7	69.4016	3,137.7	70.0862	3,137.7	71.2783	3,137.7	72.0771	3,137.7	71.8319	3,137.7	67.7979	3,137.7	70.2982	3,137.7	65.4635
3,249.02	82.3333	3,249.02	83.1367	3,249.02	82.6279	3,249.02	84.1129	3,249.02	83.9001	3,249.02	84.3155	3,249.02	84.5454	3,249.02	83.9018	3,249.02	84.3023	3,249.02	82.3726	3,249.02	83.3726	3,249.02	80.5828	3,249.02	81.8579	3,249.02	78.7842	3,249.02	80.15	3,249.02	76.5515	3,249.02	78.2462	3,249.02	74.6209	3,249.02	76.6448	3,249.02	72.975	3,249.02	74.5287	3,249.02	70.5589	3,249.02	72.6597	3,249.02	69.6313	3,249.02	69.7599	3,249.02	68.645	3,249.02	68.9734	3,249.02	71.7731	3,249.02	70.7967	3,249.02	69.6042	3,249.02	71.77	3,249.02	70.2131	3,249.02	71.5055	3,249.02	61.3844	3,249.02	71.4357	3,249.02	64.1047
3,363.28	82.2707	3,363.28	82.6766	3,363.28	82.554	3,363.28	83.8625	3,363.28	83.5731	3,363.28	84.1487	3,363.28	84.3901	3,363.28	83.787	3,363.28	84.1115	3,363.28	82.4758	3,363.28	83.1939	3,363.28	80.8337	3,363.28	82.0145	3,363.28	78.8651	3,363.28	80.4876	3,363.28	76.6306	3,363.28	78.0879	3,363.28	74.2384	3,363.28	75.7604	3,363.28	72.6797	3,363.28	73.5727	3,363.28	70.537	3,363.28	71.7545	3,363.28	70.1695	3,363.28	69.6534	3,363.28	70.0538	3,363.28	70.9767	3,363.28	71.952	3,363.28	69.8097	3,363.28	70.6349	3,363.28	72.0046	3,363.28	70.7242	3,363.28	71.7011	3,363.28	65.0171	3,363.28	70.7661	3,363.28	66.8291
3,481.93	82.5414	3,481.93	82.7174	3,481.93	82.2597	3,481.93	83.3855	3,481.93	83.2501	3,481.93	84.0794	3,481.93	84.2894	3,481.93	83.2103	3,481.93	84.0382	3,481.93	82.4205	3,481.93	83.4917	3,481.93	81.0712	3,481.93	82.3368	3,481.93	78.8105	3,481.93	80.4372	3,481.93	76.6026	3,481.93	78.585	3,481.93	74.0468	3,481.93	76.4643	3,481.93	71.4264	3,481.93	73.9539	3,481.93	70.6803	3,481.93	72.1235	3,481.93	67.9099	3,481.93	70.5838	3,481.93	68.1026	3,481.93	71.2935	3,481.93	71.86	3,481.93	69.2711	3,481.93	70.4678	3,481.93	71.749	3,481.93	70.3729	3,481.93	71.6209	3,481.93	65.2137	3,481.93	69.8629	3,481.93	67.6163
3,604.98	82.9833	3,604.98	83.001	3,604.98	82.9769	3,604.98	83.1187	3,604.98	83.7418	3,604.98	83.9008	3,604.98	84.2504	3,604.98	83.8133	3,604.98	84.4433	3,604.98	82.6689	3,604.98	83.7703	3,604.98	81.5887	3,604.98	82.6902	3,604.98	80.5082	3,604.98	81.1655	3,604.98	77.9583	3,604.98	78.8768	3,604.98	75.2549	3,604.98	77.0531	3,604.98	72.2353	3,604.98	74.8406	3,604.98	70.8055	3,604.98	72.951	3,604.98	69.079	3,604.98	70.1686	3,604.98	67.9877	3,604.98	67.9463	3,604.98	70.43	3,604.98	69.5508	3,604.98	70.158	3,604.98	71.2918	3,604.98	71.1265	3,604.98	71.0582	3,604.98	64.2144	3,604.98	70.9964	3,604.98	66.5985
3,732.42	83.3007	3,732.42	82.8198	3,732.42	83.5324	3,732.42	82.8181	3,732.42	83.2282	3,732.42	82.9356	3,732.42	83.3825	3,732.42	83.3994	3,732.42	83.9514	3,732.42	82.672	3,732.42	83.5966	3,732.42	81.5054	3,732.42	82.7921	3,732.42	79.8406	3,732.42	81.2726	3,732.42	77.6647	3,732.42	78.8088	3,732.42	75.7724	3,732.42	76.3369	3,732.42	74.0337	3,732.42	74.5721	3,732.42	72.2597	3,732.42	72.576	3,732.42	70.0584	3,732.42	70.3234	3,732.42	69.9041	3,732.42	69.6531	3,732.42	69.5606	3,732.42	67.6747	3,732.42	70.9256	3,732.42	71.3106	3,732.42	71.8923	3,732.42	70.8511	3,732.42	64.3223	3,732.42	70.8711	3,732.42	66.4515
3,864.26	84.4889	3,864.26	83.4141	3,864.26	84.087	3,864.26	83.0447	3,864.26	83.0623	3,864.26	83.3885	3,864.26	83.2469	3,864.26	83.3761	3,864.26	83.9992	3,864.26	83.7271	3,864.26	84.132	3,864.26	82.5239	3,864.26	83.362	3,864.26	79.6961	3,864.26	81.5053	3,864.26	77.3196	3,864.26	79.3026	3,864.26	74.9415	3,864.26	77.0603	3,864.26	73.6802	3,864.26	74.8151	3,864.26	71.271	3,864.26	72.876	3,864.26	66.935	3,864.26	71.1243	3,864.26	70.2718	3,864.26	72.1443	3,864.26	70.9662	3,864.26	69.9313	3,864.26	71.1225	3,864.26	71.1816	3,864.26	70.7125	3,864.26	70.7323	3,864.26	63.3919	3,864.26	70.248	3,864.26	63.3879
4,000.49	84.3902	4,000.49	82.9675	4,000.49	83.6077	4,000.49	81.9322	4,000.49	82.8144	4,000.49	83.6492	4,000.49	82.6452	4,000.49	84.0057	4,000.49	83.2722	4,000.49	83.813	4,000.49	83.3031	4,000.49	82.894	4,000.49	82.3816	4,000.49	80.6558	4,000.49	80.984	4,000.49	78.0356	4,000.49	78.3736	4,000.49	74.8081	4,000.49	76.269	4,000.49	72.8252	4,000.49	74.316	4,000.49	71.0133	4,000.49	71.9148	4,000.49	69.7309	4,000.49	68.3089	4,000.49	68.4483	4,000.49	66.5716	4,000.49	70.8226	4,000.49	68.658	4,000.49	71.2283	4,000.49	70.1144	4,000.49	70.1974	4,000.49	69.6479	4,000.49	62.1994	4,000.49	69.2844	4,000.49	63.9621
4,141.11	84.4001	4,141.11	83.127	4,141.11	84.4962	4,141.11	82.277	4,141.11	82.8272	4,141.11	82.5489	4,141.11	82.2511	4,141.11	83.9587	4,141.11	83.0962	4,141.11	83.5117	4,141.11	83.2616	4,141.11	81.9581	4,141.11	82.4163	4,141.11	80.2007	4,141.11	80.2913	4,141.11	77.8224	4,141.11	77.9197	4,141.11	75.213	4,141.11	75.0535	4,141.11	71.9543	4,141.11	72.6653	4,141.11	70.3748	4,141.11	70.5938	4,141.11	67.9197	4,141.11	68.0056	4,141.11	68.9009	4,141.11	66.6162	4,141.11	69.7808	4,141.11	65.7586	4,141.11	71.4488	4,141.11	69.5314	4,141.11	70.1494	4,141.11	69.2032	4,141.11	63.7306	4,141.11	70.2747	4,141.11	64.466
4,287.6	84.5731	4,287.6	83.4973	4,287.6	84.1969	4,287.6	82.1127	4,287.6	82.2779	4,287.6	82.3902	4,287.6	81.5662	4,287.6	82.6873	4,287.6	82.9065	4,287.6	83.257	4,287.6	83.2716	4,287.6	81.7348	4,287.6	81.5965	4,287.6	78.6936	4,287.6	79.5817	4,287.6	77.5149	4,287.6	76.8139	4,287.6	74.7275	4,287.6	73.523	4,287.6	72.9095	4,287.6	71.3673	4,287.6	71.2674	4,287.6	68.2024	4,287.6	69.7551	4,287.6	66.7117	4,287.6	68.9428	4,287.6	65.5833	4,287.6	69.2187	4,287.6	65.9237	4,287.6	71.1491	4,287.6	67.7522	4,287.6	70.4776	4,287.6	68.3004	4,287.6	62.6454	4,287.6	68.2089	4,287.6	63.7194
4,438.48	85.0361	4,438.48	83.8049	4,438.48	83.62	4,438.48	81.8172	4,438.48	82.5115	4,438.48	83.4142	4,438.48	81.7917	4,438.48	84.0928	4,438.48	82.3167	4,438.48	83.1581	4,438.48	81.6505	4,438.48	81.5171	4,438.48	79.9896	4,438.48	79.7156	4,438.48	78.2476	4,438.48	75.9228	4,438.48	74.5427	4,438.48	72.5148	4,438.48	73.0863	4,438.48	70.6174	4,438.48	70.6296	4,438.48	67.8892	4,438.48	68.3342	4,438.48	67.2254	4,438.48	66.1366	4,438.48	67.3435	4,438.48	65.374	4,438.48	66.3101	4,438.48	62.9962	4,438.48	70.2044	4,438.48	67.806	4,438.48	68.999	4,438.48	67.3627	4,438.48	56.244	4,438.48	67.3541	4,438.48	58.4286
4,595.21	84.9539	4,595.21	83.1843	4,595.21	84.7322	4,595.21	81.7628	4,595.21	81.8158	4,595.21	80.5112	4,595.21	81.3653	4,595.21	82.026	4,595.21	81.7866	4,595.21	81.6707	4,595.21	81.3823	4,595.21	80.4243	4,595.21	80.1313	4,595.21	78.0063	4,595.21	77.526	4,595.21	76.048	4,595.21	74.8414	4,595.21	73.6005	4,595.21	71.9587	4,595.21	69.2879	4,595.21	69.7681	4,595.21	67.7617	4,595.21	67.4496	4,595.21	66.2652	4,595.21	65.1633	4,595.21	68.101	4,595.21	62.0936	4,595.21	68.4845	4,595.21	66.5179	4,595.21	69.5631	4,595.21	66.3139	4,595.21	68.3987	4,595.21	66.2167	4,595.21	61.2224	4,595.21	65.09	4,595.21	56.1668
4,756.35	84.7165	4,756.35	83.8891	4,756.35	83.6439	4,756.35	81.1973	4,756.35	82.7715	4,756.35	81.7078	4,756.35	81.614	4,756.35	81.4641	4,756.35	82.235	4,756.35	82.2381	4,756.35	82.0796	4,756.35	80.1073	4,756.35	79.5138	4,756.35	77.0076	4,756.35	77.136	4,756.35	75.9274	4,756.35	75.2694	4,756.35	73.4135	4,756.35	73.9209	4,756.35	71.2078	4,756.35	70.6247	4,756.35	67.9367	4,756.35	68.0896	4,756.35	68.2472	4,756.35	66.7955	4,756.35	65.8643	4,756.35	65.7203	4,756.35	66.3048	4,756.35	63.3688	4,756.35	68.1993	4,756.35	66.5023	4,756.35	68.0602	4,756.35	67.8428	4,756.35	57.4222	4,756.35	67.1998	4,756.35	60.314
4,924.8	83.8008	4,924.8	82.4649	4,924.8	83.3368	4,924.8	81.3923	4,924.8	81.6625	4,924.8	81.0051	4,924.8	80.963	4,924.8	82.0617	4,924.8	80.9522	4,924.8	80.9185	4,924.8	79.8682	4,924.8	79.3206	4,924.8	79.3802	4,924.8	78.018	4,924.8	78.008	4,924.8	74.6179	4,924.8	75.6618	4,924.8	70.9411	4,924.8	73.517	4,924.8	69.6622	4,924.8	70.2902	4,924.8	66.3262	4,924.8	68.3469	4,924.8	66.2856	4,924.8	66.102	4,924.8	67.1304	4,924.8	62.6213	4,924.8	63.9324	4,924.8	66.1433	4,924.8	67.6347	4,924.8	66.1707	4,924.8	66.9123	4,924.8	67.909	4,924.8	53.6222	4,924.8	66.5889	4,924.8	51.9108
5,097.66	83.9058	5,097.66	83.5161	5,097.66	84.0937	5,097.66	81.7626	5,097.66	83.131	5,097.66	80.7601	5,097.66	82.0361	5,097.66	80.4921	5,097.66	81.6182	5,097.66	80.3576	5,097.66	81.6411	5,097.66	78.7673	5,097.66	80.2667	5,097.66	76.0904	5,097.66	78.3529	5,097.66	74.3643	5,097.66	76.1787	5,097.66	71.3581	5,097.66	74.085	5,097.66	68.0999	5,097.66	71.5676	5,097.66	65.0737	5,097.66	68.8382	5,097.66	62.8855	5,097.66	66.7256	5,097.66	66.2822	5,097.66	60.605	5,097.66	64.95	5,097.66	65.0529	5,097.66	67.5734	5,097.66	65.7056	5,097.66	65.7519	5,097.66	68.0968	5,097.66	45.055	5,097.66	66.7651	5,097.66	53.281
5,277.83	83.7588	5,277.83	83.2276	5,277.83	83.7581	5,277.83	82.1474	5,277.83	83.4682	5,277.83	80.7742	5,277.83	81.8342	5,277.83	80.0516	5,277.83	81.1821	5,277.83	79.7598	5,277.83	80.5251	5,277.83	78.5087	5,277.83	79.8514	5,277.83	76.5126	5,277.83	78.5605	5,277.83	73.4528	5,277.83	76.2212	5,277.83	72.2582	5,277.83	73.9487	5,277.83	69.6667	5,277.83	71.0916	5,277.83	67.1013	5,277.83	68.4622	5,277.83	64.1479	5,277.83	65.2283	5,277.83	64.1551	5,277.83	63.5823	5,277.83	65.3053	5,277.83	61.4759	5,277.83	67.2789	5,277.83	64.7998	5,277.83	66.0175	5,277.83	67.605	5,277.83	51.4948	5,277.83	66.2378	5,277.83	57.1844
5,463.87	83.0565	5,463.87	83.2024	5,463.87	83.9421	5,463.87	82.1536	5,463.87	83.489	5,463.87	79.8124	5,463.87	81.7813	5,463.87	79.4684	5,463.87	80.3589	5,463.87	79.5471	5,463.87	80.5108	5,463.87	78.5206	5,463.87	79.8904	5,463.87	76.8587	5,463.87	78.2148	5,463.87	74.6122	5,463.87	76.1235	5,463.87	71.692	5,463.87	73.0852	5,463.87	68.5287	5,463.87	69.4796	5,463.87	65.54	5,463.87	67.5692	5,463.87	64.3284	5,463.87	65.6166	5,463.87	63.0972	5,463.87	62.7601	5,463.87	63.5508	5,463.87	63.0382	5,463.87	67.4547	5,463.87	63.3302	5,463.87	65.0604	5,463.87	67.827	5,463.87	53.657	5,463.87	65.18	5,463.87	54.4639
5,657.23	83.6323	5,657.23	84.0153	5,657.23	83.8443	5,657.23	82.3262	5,657.23	84.102	5,657.23	80.0965	5,657.23	81.7348	5,657.23	79.3604	5,657.23	80.213	5,657.23	79.8846	5,657.23	80.1884	5,657.23	78.8652	5,657.23	79.4786	5,657.23	76.6477	5,657.23	77.7023	5,657.23	73.8151	5,657.23	75.3098	5,657.23	70.7688	5,657.23	72.5611	5,657.23	68.2021	5,657.23	69.2396	5,657.23	65.8522	5,657.23	67.0546	5,657.23	62.9024	5,657.23	64.1304	5,657.23	59.4868	5,657.23	63.4069	5,657.23	63.2723	5,657.23	62.1373	5,657.23	66.6639	5,657.23	62.4906	5,657.23	63.5142	5,657.23	66.6977	5,657.23	48.5323	5,657.23	64.9387	5,657.23	53.1048
5,856.45	83.4162	5,856.45	83.8065	5,856.45	84.5347	5,856.45	83.0921	5,856.45	84.1298	5,856.45	80.3289	5,856.45	81.8508	5,856.45	79.6612	5,856.45	80.1122	5,856.45	79.7402	5,856.45	79.9225	5,856.45	78.5677	5,856.45	79.1389	5,856.45	76.0263	5,856.45	76.7992	5,856.45	72.4535	5,856.45	74.0086	5,856.45	69.5392	5,856.45	71.6655	5,856.45	66.3696	5,856.45	68.2578	5,856.45	64.5802	5,856.45	66.364	5,856.45	61.963	5,856.45	63.4843	5,856.45	62.1863	5,856.45	62.4852	5,856.45	62.764	5,856.45	60.3945	5,856.45	66.8032	5,856.45	59.733	5,856.45	64.7635	5,856.45	65.258	5,856.45	48.165	5,856.45	63.5751	5,856.45	55.3065
6,062.99	83.989	6,062.99	84.3062	6,062.99	84.4036	6,062.99	82.5787	6,062.99	84.429	6,062.99	79.8124	6,062.99	81.9995	6,062.99	78.7312	6,062.99	80.3261	6,062.99	79.5128	6,062.99	80.0162	6,062.99	77.7283	6,062.99	78.7582	6,062.99	74.5268	6,062.99	76.4529	6,062.99	72.2597	6,062.99	73.8861	6,062.99	69.734	6,062.99	71.2827	6,062.99	66.9788	6,062.99	68.2592	6,062.99	63.2854	6,062.99	66.1785	6,062.99	61.0463	6,062.99	61.4666	6,062.99	58.2203	6,062.99	61.7491	6,062.99	60.2375	6,062.99	62.8099	6,062.99	65.7771	6,062.99	58.5552	6,062.99	62.2421	6,062.99	64.7994	6,062.99	36.1089	6,062.99	63.9284	6,062.99	53.0484
6,276.86	84.2518	6,276.86	84.2089	6,276.86	85.2396	6,276.86	83.1671	6,276.86	84.5068	6,276.86	79.9432	6,276.86	82.034	6,276.86	78.7676	6,276.86	80.3061	6,276.86	78.5887	6,276.86	79.777	6,276.86	76.8517	6,276.86	78.4635	6,276.86	73.803	6,276.86	76.2928	6,276.86	71.2217	6,276.86	74.0152	6,276.86	69.1988	6,276.86	71.5427	6,276.86	65.2343	6,276.86	68.4021	6,276.86	63.3846	6,276.86	66.0524	6,276.86	61.3323	6,276.86	62.7533	6,276.86	56.6166	6,276.86	61.9901	6,276.86	58.501	6,276.86	59.4496	6,276.86	64.542	6,276.86	59.001	6,276.86	61.5029	6,276.86	65.5693	6,276.86	41.8358	6,276.86	63.989	6,276.86	54.1847
6,498.05	85.1264	6,498.05	84.82	6,498.05	85.383	6,498.05	82.8658	6,498.05	84.671	6,498.05	79.6786	6,498.05	82.124	6,498.05	78.178	6,498.05	80.1436	6,498.05	78.3688	6,498.05	79.7597	6,498.05	76.6411	6,498.05	78.7637	6,498.05	73.8323	6,498.05	76.8628	6,498.05	70.6293	6,498.05	74.6329	6,498.05	68.0557	6,498.05	72.1748	6,498.05	65.0773	6,498.05	68.871	6,498.05	61.2867	6,498.05	66.3197	6,498.05	57.3647	6,498.05	61.7289	6,498.05	57.0521	6,498.05	61.1762	6,498.05	58.9302	6,498.05	58.9051	6,498.05	64.4988	6,498.05	60.0901	6,498.05	60.9724	6,498.05	65.0294	6,498.05	44.8335	6,498.05	63.7437	6,498.05	54.3666
6,726.56	85.5591	6,726.56	84.8924	6,726.56	85.8047	6,726.56	83.3029	6,726.56	84.5778	6,726.56	80.2696	6,726.56	82.2642	6,726.56	78.4972	6,726.56	80.0493	6,726.56	77.9566	6,726.56	79.5665	6,726.56	76.1247	6,726.56	78.7242	6,726.56	73.3645	6,726.56	77.0493	6,726.56	71.0988	6,726.56	74.9483	6,726.56	68.415	6,726.56	71.8242	6,726.56	63.0939	6,726.56	68.3027	6,726.56	62.1075	6,726.56	66.0074	6,726.56	57.7034	6,726.56	63.2253	6,726.56	56.5997	6,726.56	61.6311	6,726.56	59.1141	6,726.56	57.8048	6,726.56	62.0137	6,726.56	58.1758	6,726.56	60.0129	6,726.56	64.6966	6,726.56	45.5721	6,726.56	63.0892	6,726.56	52.5404
6,963.87	85.9915	6,963.87	85.1355	6,963.87	85.7131	6,963.87	83.5232	6,963.87	84.4507	6,963.87	80.8409	6,963.87	82.5738	6,963.87	78.4637	6,963.87	80.169	6,963.87	78.122	6,963.87	79.4213	6,963.87	76.6048	6,963.87	79.1109	6,963.87	73.9906	6,963.87	77.4382	6,963.87	71.5136	6,963.87	74.9923	6,963.87	68.1223	6,963.87	71.7001	6,963.87	63.9227	6,963.87	68.22	6,963.87	61.4803	6,963.87	64.6419	6,963.87	60.4301	6,963.87	61.8503	6,963.87	57.8453	6,963.87	62.0359	6,963.87	58.1817	6,963.87	57.2349	6,963.87	62.2413	6,963.87	57.9716	6,963.87	60.1118	6,963.87	63.4086	6,963.87	46.0743	6,963.87	62.6113	6,963.87	54.3212
7,209.96	86.0696	7,209.96	85.1122	7,209.96	85.6296	7,209.96	83.9768	7,209.96	84.2366	7,209.96	81.7517	7,209.96	82.8452	7,209.96	78.943	7,209.96	80.3274	7,209.96	78.5635	7,209.96	79.7667	7,209.96	77.4174	7,209.96	79.6036	7,209.96	74.8496	7,209.96	77.4189	7,209.96	72.1148	7,209.96	74.8967	7,209.96	69.2396	7,209.96	71.2943	7,209.96	64.9355	7,209.96	68.0268	7,209.96	62.2593	7,209.96	66.5149	7,209.96	59.7397	7,209.96	62.4061	7,209.96	56.5808	7,209.96	61.9672	7,209.96	57.2082	7,209.96	56.077	7,209.96	60.9154	7,209.96	57.6535	7,209.96	59.8352	7,209.96	64.4002	7,209.96	47.5583	7,209.96	61.9729	7,209.96	53.0497
7,464.84	86.0538	7,464.84	85.0339	7,464.84	85.2583	7,464.84	84.2247	7,464.84	83.7939	7,464.84	81.9273	7,464.84	82.9357	7,464.84	79.0323	7,464.84	80.6761	7,464.84	78.8311	7,464.84	80.4684	7,464.84	78.055	7,464.84	79.9171	7,464.84	75.7361	7,464.84	77.6089	7,464.84	72.4153	7,464.84	74.6929	7,464.84	69.753	7,464.84	71.4336	7,464.84	64.8403	7,464.84	67.5851	7,464.84	62.1521	7,464.84	64.893	7,464.84	61.0086	7,464.84	62.9278	7,464.84	57.611	7,464.84	60.1632	7,464.84	57.4157	7,464.84	55.4943	7,464.84	59.7415	7,464.84	55.8389	7,464.84	60.117	7,464.84	63.4527	7,464.84	49.8481	7,464.84	61.941	7,464.84	48.8122
7,727.05	85.5455	7,727.05	84.5245	7,727.05	84.6307	7,727.05	83.8307	7,727.05	83.2606	7,727.05	81.6063	7,727.05	82.5142	7,727.05	79.2428	7,727.05	80.737	7,727.05	78.8794	7,727.05	80.9543	7,727.05	77.414	7,727.05	79.7246	7,727.05	75.0641	7,727.05	76.6214	7,727.05	71.0313	7,727.05	73.4088	7,727.05	68.6773	7,727.05	70.4666	7,727.05	65.1846	7,727.05	67.5563	7,727.05	62.574	7,727.05	64.6596	7,727.05	59.9896	7,727.05	62.3128	7,727.05	57.2895	7,727.05	59.9841	7,727.05	53.3142	7,727.05	53.598	7,727.05	59.2833	7,727.05	56.6619	7,727.05	59.84	7,727.05	62.2646	7,727.05	50.6131	7,727.05	61.3447	7,727.05	49.863
7,999.51	85.1485	7,999.51	84.2373	7,999.51	83.9694	7,999.51	83.7041	7,999.51	82.8703	7,999.51	81.5155	7,999.51	82.8931	7,999.51	79.1413	7,999.51	81.2356	7,999.51	78.6201	7,999.51	80.95	7,999.51	76.6234	7,999.51	79.253	7,999.51	73.4801	7,999.51	76.2815	7,999.51	69.9012	7,999.51	73.2284	7,999.51	67.8815	7,999.51	70.3623	7,999.51	64.5563	7,999.51	67.1011	7,999.51	61.7055	7,999.51	64.3724	7,999.51	60.1482	7,999.51	62.4865	7,999.51	56.7167	7,999.51	58.6371	7,999.51	55.2855	7,999.51	50.9349	7,999.51	58.4598	7,999.51	53.2152	7,999.51	57.9683	7,999.51	61.9004	7,999.51	51.6483	7,999.51	60.2153	7,999.51	43.0532
8,282.23	84.4277	8,282.23	83.7999	8,282.23	83.4016	8,282.23	83.2695	8,282.23	82.7228	8,282.23	81.0476	8,282.23	83.0106	8,282.23	78.5078	8,282.23	81.873	8,282.23	77.7162	8,282.23	81.0889	8,282.23	75.298	8,282.23	79.106	8,282.23	71.7599	8,282.23	76.2138	8,282.23	69.386	8,282.23	73.6505	8,282.23	67.2284	8,282.23	70.3425	8,282.23	63.8065	8,282.23	67.1971	8,282.23	59.5363	8,282.23	64.2674	8,282.23	55.8779	8,282.23	61.9974	8,282.23	52.5703	8,282.23	59.8979	8,282.23	52.1131	8,282.23	53.4743	8,282.23	57.2348	8,282.23	53.3419	8,282.23	57.404	8,282.23	61.9928	8,282.23	51.1135	8,282.23	60.6472	8,282.23	40.0261
8,573.73	83.783	8,573.73	83.5819	8,573.73	83.0584	8,573.73	82.9953	8,573.73	82.6743	8,573.73	81.1315	8,573.73	83.0821	8,573.73	78.5039	8,573.73	81.8755	8,573.73	76.5879	8,573.73	80.4822	8,573.73	75.0308	8,573.73	78.5689	8,573.73	71.1071	8,573.73	76.0304	8,573.73	67.8749	8,573.73	73.3446	8,573.73	64.5983	8,573.73	69.6234	8,573.73	60.3956	8,573.73	66.4124	8,573.73	60.7151	8,573.73	64.0147	8,573.73	54.3265	8,573.73	60.7732	8,573.73	51.4354	8,573.73	58.7193	8,573.73	49.6228	8,573.73	54.7132	8,573.73	54.605	8,573.73	52.3487	8,573.73	55.027	8,573.73	60.678	8,573.73	50.9101	8,573.73	59.9333	8,573.73	42.6676
8,876.95	83.1941	8,876.95	83.3084	8,876.95	82.9335	8,876.95	82.626	8,876.95	82.7535	8,876.95	81.0796	8,876.95	83.0917	8,876.95	78.3806	8,876.95	81.6802	8,876.95	76.4373	8,876.95	79.911	8,876.95	74.723	8,876.95	78.1384	8,876.95	71.2811	8,876.95	75.8853	8,876.95	67.4075	8,876.95	73.1967	8,876.95	63.4522	8,876.95	69.1983	8,876.95	59.6706	8,876.95	65.942	8,876.95	58.8363	8,876.95	63.5568	8,876.95	54.9034	8,876.95	60.757	8,876.95	53.305	8,876.95	57.592	8,876.95	49.3195	8,876.95	55.2445	8,876.95	51.4965	8,876.95	52.5535	8,876.95	50.7592	8,876.95	58.8607	8,876.95	50.1623	8,876.95	60.5427	8,876.95	46.1203
9,188.96	82.529	9,188.96	82.8306	9,188.96	83.1112	9,188.96	82.3199	9,188.96	83.1326	9,188.96	81.0901	9,188.96	83.3498	9,188.96	78.1935	9,188.96	81.5499	9,188.96	76.5267	9,188.96	79.7246	9,188.96	74.3327	9,188.96	78.2517	9,188.96	70.7909	9,188.96	75.9003	9,188.96	68.0097	9,188.96	73.2059	9,188.96	63.9494	9,188.96	69.4245	9,188.96	58.4099	9,188.96	66.5733	9,188.96	58.1135	9,188.96	63.5725	9,188.96	53.9771	9,188.96	61.4275	9,188.96	49.7539	9,188.96	58.1397	9,188.96	49.1508	9,188.96	56.053	9,188.96	48.5391	9,188.96	51.4383	9,188.96	50.3402	9,188.96	57.2647	9,188.96	51.1716	9,188.96	59.3162	9,188.96	45.7327
9,514.16	81.8741	9,514.16	82.4463	9,514.16	82.8869	9,514.16	81.9939	9,514.16	83.3255	9,514.16	80.9728	9,514.16	83.3289	9,514.16	78.2128	9,514.16	81.0569	9,514.16	76.5299	9,514.16	78.966	9,514.16	74.1881	9,514.16	78.0976	9,514.16	69.1748	9,514.16	75.4815	9,514.16	67.1887	9,514.16	73.3412	9,514.16	62.5891	9,514.16	69.2803	9,514.16	58.8963	9,514.16	66.6869	9,514.16	57.5793	9,514.16	63.2364	9,514.16	50.2261	9,514.16	60.5063	9,514.16	46.043	9,514.16	58.8414	9,514.16	44.3028	9,514.16	57.0875	9,514.16	43.0772	9,514.16	51.4922	9,514.16	51.5254	9,514.16	56.2771	9,514.16	51.1912	9,514.16	57.9795	9,514.16	46.0501
9,849.61	81.9272	9,849.61	81.8574	9,849.61	83.002	9,849.61	81.789	9,849.61	83.4005	9,849.61	80.6833	9,849.61	82.9177	9,849.61	77.861	9,849.61	80.4998	9,849.61	75.7355	9,849.61	78.2239	9,849.61	73.2729	9,849.61	77.9408	9,849.61	68.7568	9,849.61	75.6684	9,849.61	66.2598	9,849.61	73.5571	9,849.61	61.0086	9,849.61	68.8683	9,849.61	58.928	9,849.61	66.2056	9,849.61	57.2902	9,849.61	62.9269	9,849.61	50.6546	9,849.61	60.3443	9,849.61	45.521	9,849.61	58.9413	9,849.61	43.789	9,849.61	57.3807	9,849.61	43.2098	9,849.61	51.4922	9,849.61	50.6957	9,849.61	53.9005	9,849.61	50.9088	9,849.61	57.6682	9,849.61	48.4034
10,196.8	81.9709	10,196.8	81.4531	10,196.8	83.3064	10,196.8	81.7929	10,196.8	83.2962	10,196.8	80.0442	10,196.8	82.1977	10,196.8	77.1643	10,196.8	79.8518	10,196.8	74.424	10,196.8	78.1136	10,196.8	71.9171	10,196.8	77.7649	10,196.8	68.5803	10,196.8	75.7173	10,196.8	65.9207	10,196.8	73.1743	10,196.8	60.0066	10,196.8	68.5725	10,196.8	57.9468	10,196.8	65.6052	10,196.8	55.9958	10,196.8	62.0818	10,196.8	50.4089	10,196.8	60.3237	10,196.8	38.4268	10,196.8	58.8737	10,196.8	41.4768	10,196.8	56.1254	10,196.8	45.1571	10,196.8	51.153	10,196.8	50.335	10,196.8	52.1376	10,196.8	49.4451	10,196.8	57.0997	10,196.8	48.241
10,555.7	82.1573	10,555.7	81.302	10,555.7	83.2895	10,555.7	81.4805	10,555.7	83.0695	10,555.7	79.3345	10,555.7	81.4886	10,555.7	77.4185	10,555.7	79.3864	10,555.7	73.8134	10,555.7	77.7805	10,555.7	71.9986	10,555.7	77.2447	10,555.7	67.2182	10,555.7	75.11	10,555.7	64.1482	10,555.7	72.2277	10,555.7	57.7616	10,555.7	67.6829	10,555.7	55.6348	10,555.7	64.5147	10,555.7	53.9409	10,555.7	60.5174	10,555.7	44.8113	10,555.7	59.318	10,555.7	39.3754	10,555.7	57.2373	10,555.7	39.2142	10,555.7	54.0634	10,555.7	43.5921	10,555.7	51.0356	10,555.7	46.9357	10,555.7	51.4689	10,555.7	49.6356	10,555.7	55.6552	10,555.7	45.0247
10,927.7	82.6507	10,927.7	81.7094	10,927.7	83.4208	10,927.7	81.4936	10,927.7	82.8963	10,927.7	79.4899	10,927.7	81.0293	10,927.7	77.3735	10,927.7	79.1351	10,927.7	73.6028	10,927.7	77.2934	10,927.7	72.1993	10,927.7	76.6047	10,927.7	66.8851	10,927.7	74.2695	10,927.7	63.3981	10,927.7	70.7122	10,927.7	59.0479	10,927.7	66.3439	10,927.7	55.4219	10,927.7	62.7623	10,927.7	52.2064	10,927.7	58.8868	10,927.7	42.2639	10,927.7	57.6553	10,927.7	44.7263	10,927.7	56.5175	10,927.7	27.0762	10,927.7	52.4018	10,927.7	48.1431	10,927.7	48.9191	10,927.7	48.377	10,927.7	49.6185	10,927.7	49.433	10,927.7	53.7644	10,927.7	44.985
11,313	83.0042	11,313	81.897	11,313	83.6678	11,313	81.6143	11,313	82.9082	11,313	79.7422	11,313	81.0977	11,313	77.2331	11,313	79.5331	11,313	74.217	11,313	77.5989	11,313	72.4967	11,313	76.6428	11,313	67.5733	11,313	74.0273	11,313	64.2848	11,313	70.599	11,313	60.4606	11,313	66.4328	11,313	56.3537	11,313	62.7761	11,313	52.1484	11,313	59.1715	11,313	48.2315	11,313	57.9883	11,313	46.1577	11,313	56.455	11,313	34.0512	11,313	52.194	11,313	49.0046	11,313	47.4593	11,313	49.4759	11,313	48.4195	11,313	49.7267	11,313	52.9345	11,313	46.8595
11,712.9	83.3384	11,712.9	82.1686	11,712.9	83.9995	11,712.9	81.7498	11,712.9	83.184	11,712.9	79.7138	11,712.9	81.6869	11,712.9	77.2141	11,712.9	80.3313	11,712.9	74.6144	11,712.9	78.3949	11,712.9	72.0911	11,712.9	76.8923	11,712.9	67.4796	11,712.9	74.3706	11,712.9	64.1821	11,712.9	71.3481	11,712.9	60.4355	11,712.9	67.6792	11,712.9	55.8336	11,712.9	63.8128	11,712.9	51.6619	11,712.9	60.2254	11,712.9	49.9316	11,712.9	58.9381	11,712.9	45.9902	11,712.9	56.8688	11,712.9	35.2424	11,712.9	52.9599	11,712.9	49.884	11,712.9	48.5935	11,712.9	49.8866	11,712.9	48.6536	11,712.9	50.2118	11,712.9	51.8265	11,712.9	49.455
12,126	83.8193	12,126	82.6341	12,126	84.367	12,126	81.6551	12,126	83.702	12,126	79.2372	12,126	82.4521	12,126	76.9615	12,126	80.9838	12,126	73.8355	12,126	78.8115	12,126	71.0022	12,126	76.6558	12,126	66.0577	12,126	74.2615	12,126	62.2572	12,126	71.2425	12,126	57.2441	12,126	67.6488	12,126	53.0577	12,126	63.4103	12,126	50.3099	12,126	60.1837	12,126	47.989	12,126	58.2287	12,126	45.038	12,126	55.766	12,126	34.0372	12,126	52.4981	12,126	48.9689	12,126	49.3033	12,126	48.6254	12,126	49.9821	12,126	49.4904	12,126	48.7906	12,126	46.9042
12,553.7	84.2356	12,553.7	83.0625	12,553.7	84.5808	12,553.7	81.7459	12,553.7	83.9444	12,553.7	78.9416	12,553.7	82.6566	12,553.7	76.2959	12,553.7	80.7611	12,553.7	71.9217	12,553.7	78.1242	12,553.7	69.2506	12,553.7	75.4934	12,553.7	62.2542	12,553.7	72.9631	12,553.7	58.6143	12,553.7	69.6545	12,553.7	54.0933	12,553.7	65.2956	12,553.7	51.6422	12,553.7	61.0216	12,553.7	47.5309	12,553.7	58.1889	12,553.7	41.7173	12,553.7	56.1512	12,553.7	40.8073	12,553.7	53.7257	12,553.7	32.7171	12,553.7	50.6698	12,553.7	46.8082	12,553.7	47.7236	12,553.7	45.5161	12,553.7	48.1975	12,553.7	43.055	12,553.7	45.9086	12,553.7	48.2347
12,996.1	84.5889	12,996.1	83.3472	12,996.1	84.709	12,996.1	82.0334	12,996.1	83.7066	12,996.1	79.091	12,996.1	82.1974	12,996.1	75.8486	12,996.1	79.7887	12,996.1	71.233	12,996.1	76.5279	12,996.1	68.3086	12,996.1	73.6223	12,996.1	61.4815	12,996.1	70.5873	12,996.1	59.8433	12,996.1	67.0637	12,996.1	56.8668	12,996.1	63.186	12,996.1	53.2288	12,996.1	58.1338	12,996.1	48.0476	12,996.1	55.8502	12,996.1	43.8687	12,996.1	54.718	12,996.1	37.3179	12,996.1	50.6523	12,996.1	33.196	12,996.1	48.6248	12,996.1	44.2592	12,996.1	45.1192	12,996.1	40.0234	12,996.1	46.5571	12,996.1	41.6062	12,996.1	41.0796	12,996.1	46.4862
13,454.6	84.9365	13,454.6	83.7672	13,454.6	84.8269	13,454.6	82.4871	13,454.6	83.514	13,454.6	79.6855	13,454.6	81.8146	13,454.6	76.3567	13,454.6	79.029	13,454.6	72.1132	13,454.6	75.4674	13,454.6	69.3162	13,454.6	72.4404	13,454.6	64.9809	13,454.6	68.9581	13,454.6	61.4145	13,454.6	65.9681	13,454.6	57.9237	13,454.6	62.3346	13,454.6	54.2595	13,454.6	56.991	13,454.6	49.9369	13,454.6	55.1368	13,454.6	48.0019	13,454.6	53.2869	13,454.6	27.4154	13,454.6	47.4696	13,454.6	38.713	13,454.6	45.7968	13,454.6	43.6997	13,454.6	44.5505	13,454.6	44.829	13,454.6	43.9257	13,454.6	44.0786	13,454.6	38.0693	13,454.6	45.5056
13,929.2	85.2941	13,929.2	84.1731	13,929.2	85.045	13,929.2	82.8361	13,929.2	83.7689	13,929.2	80.0034	13,929.2	82.0121	13,929.2	76.8916	13,929.2	78.8923	13,929.2	72.4213	13,929.2	75.3577	13,929.2	69.4135	13,929.2	71.9484	13,929.2	64.7728	13,929.2	68.5101	13,929.2	60.1464	13,929.2	65.5178	13,929.2	55.3463	13,929.2	60.2623	13,929.2	52.2386	13,929.2	55.0326	13,929.2	48.4574	13,929.2	54.4761	13,929.2	46.7708	13,929.2	51.7785	13,929.2	32.0192	13,929.2	47.5655	13,929.2	33.543	13,929.2	41.9915	13,929.2	43.2635	13,929.2	42.4588	13,929.2	45.2293	13,929.2	37.5115	13,929.2	41.3822	13,929.2	42.7945	13,929.2	41.8655
14,419.9	85.4463	14,419.9	84.2649	14,419.9	85.2622	14,419.9	82.5057	14,419.9	83.9488	14,419.9	79.0619	14,419.9	81.9396	14,419.9	75.1879	14,419.9	78.3878	14,419.9	69.0778	14,419.9	74.3316	14,419.9	64.8898	14,419.9	70.0274	14,419.9	56.7802	14,419.9	66.0455	14,419.9	50.1201	14,419.9	62.7208	14,419.9	46.8277	14,419.9	57.989	14,419.9	45.3553	14,419.9	52.8694	14,419.9	42.1668	14,419.9	51.622	14,419.9	44.3493	14,419.9	48.5544	14,419.9	39.9567	14,419.9	44.3645	14,419.9	32.6275	14,419.9	38.1718	14,419.9	42.3478	14,419.9	37.0775	14,419.9	44.8012	14,419.9	37.1709	14,419.9	41.4625	14,419.9	46.0632	14,419.9	25.6375
14,928.2	85.4353	14,928.2	84.0211	14,928.2	85.2501	14,928.2	82.0424	14,928.2	83.7773	14,928.2	77.7382	14,928.2	81.4548	14,928.2	72.1667	14,928.2	77.2169	14,928.2	61.7212	14,928.2	72.0364	14,928.2	55.6699	14,928.2	67.5639	14,928.2	61.1118	14,928.2	64.1276	14,928.2	58.5852	14,928.2	61.4998	14,928.2	55.6198	14,928.2	57.2479	14,928.2	48.236	14,928.2	54.6657	14,928.2	32.4501	14,928.2	51.1325	14,928.2	44.535	14,928.2	46.0411	14,928.2	44.9306	14,928.2	44.1561	14,928.2	36.5717	14,928.2	40.1222	14,928.2	42.4632	14,928.2	31.9748	14,928.2	46.1499	14,928.2	38.2505	14,928.2	41.9455	14,928.2	47.2098	14,928.2	41.2208
15,455.6	85.0695	15,455.6	83.7425	15,455.6	84.8567	15,455.6	81.5757	15,455.6	83.2372	15,455.6	77.1211	15,455.6	80.7275	15,455.6	70.8903	15,455.6	75.9068	15,455.6	61.2368	15,455.6	70.6464	15,455.6	62.6101	15,455.6	66.8416	15,455.6	65.341	15,455.6	65.7714	15,455.6	62.0392	15,455.6	64.7334	15,455.6	59.6674	15,455.6	59.9653	15,455.6	51.6036	15,455.6	57.1269	15,455.6	38.0831	15,455.6	54.2657	15,455.6	44.6042	15,455.6	48.7497	15,455.6	47.7356	15,455.6	46.8344	15,455.6	43.1557	15,455.6	36.2382	15,455.6	42.5125	15,455.6	34.8042	15,455.6	46.296	15,455.6	40.2632	15,455.6	43.1115	15,455.6	44.1393	15,455.6	39.1241
16,000.5	85.2238	16,000.5	83.9291	16,000.5	84.7448	16,000.5	82.0203	16,000.5	82.82	16,000.5	76.9168	16,000.5	79.7738	16,000.5	71.0569	16,000.5	74.4601	16,000.5	65.4323	16,000.5	69.5643	16,000.5	66.9433	16,000.5	66.0696	16,000.5	67.2915	16,000.5	66.461	16,000.5	64.9272	16,000.5	65.1397	16,000.5	61.7224	16,000.5	60.3158	16,000.5	53.8709	16,000.5	57.6179	16,000.5	46.1723	16,000.5	54.151	16,000.5	45.6121	16,000.5	47.996	16,000.5	47.3008	16,000.5	45.7673	16,000.5	43.3311	16,000.5	35.9473	16,000.5	41.3895	16,000.5	44.3287	16,000.5	42.0979	16,000.5	41.4037	16,000.5	41.3335	16,000.5	43.8875	16,000.5	41.8243
16,564.5	85.1983	16,564.5	84.1398	16,564.5	84.4917	16,564.5	82.2842	16,564.5	81.8891	16,564.5	77.1743	16,564.5	78.251	16,564.5	72.0309	16,564.5	72.1058	16,564.5	67.7703	16,564.5	67.3086	16,564.5	67.9686	16,564.5	65.3938	16,564.5	68.6392	16,564.5	66.9732	16,564.5	65.7309	16,564.5	65.7403	16,564.5	62.2241	16,564.5	60.5041	16,564.5	54.5648	16,564.5	57.3542	16,564.5	46.3999	16,564.5	54.2778	16,564.5	48.908	16,564.5	47.4736	16,564.5	46.813	16,564.5	44.361	16,564.5	41.7017	16,564.5	40.8303	16,564.5	43.9185	16,564.5	46.6077	16,564.5	42.6358	16,564.5	43.0614	16,564.5	39.8319	16,564.5	47.1465	16,564.5	42.6977
17,148.9	84.1533	17,148.9	83.4455	17,148.9	82.9601	17,148.9	81.74	17,148.9	79.4753	17,148.9	76.7702	17,148.9	74.6974	17,148.9	70.7173	17,148.9	67.3743	17,148.9	67.3218	17,148.9	64.2255	17,148.9	67.3545	17,148.9	63.851	17,148.9	67.2576	17,148.9	65.6345	17,148.9	63.8555	17,148.9	64.533	17,148.9	60.3573	17,148.9	59.5393	17,148.9	51.9381	17,148.9	55.7055	17,148.9	46.4332	17,148.9	51.8633	17,148.9	47.4982	17,148.9	43.3309	17,148.9	45.2298	17,148.9	41.5099	17,148.9	38.5026	17,148.9	40.7764	17,148.9	46.2199	17,148.9	46.8508	17,148.9	47.279	17,148.9	38.7797	17,148.9	27.6513	17,148.9	48.6018	17,148.9	42.6845
17,752.4	82.3604	17,752.4	82.0153	17,752.4	80.5613	17,752.4	80.5131	17,752.4	75.6087	17,752.4	75.5263	17,752.4	68.5276	17,752.4	68.7174	17,752.4	59.9839	17,752.4	66.815	17,752.4	62.7826	17,752.4	66.9109	17,752.4	62.8295	17,752.4	66.5263	17,752.4	63.9333	17,752.4	63.7554	17,752.4	62.5907	17,752.4	59.2552	17,752.4	56.7927	17,752.4	51.2053	17,752.4	52.8162	17,752.4	46.075	17,752.4	48.8166	17,752.4	47.285	17,752.4	38.9171	17,752.4	45.0631	17,752.4	39.2225	17,752.4	38.0043	17,752.4	41.1153	17,752.4	47.591	17,752.4	44.0439	17,752.4	48.1477	17,752.4	34.4391	17,752.4	37.7846	17,752.4	46.8356	17,752.4	41.6585
18,379.4	80.9247	18,379.4	80.7856	18,379.4	78.6669	18,379.4	79.2447	18,379.4	72.6933	18,379.4	74.0575	18,379.4	65.1977	18,379.4	66.4626	18,379.4	63.2355	18,379.4	66.2967	18,379.4	64.0923	18,379.4	65.8692	18,379.4	63.4992	18,379.4	65.9144	18,379.4	63.7155	18,379.4	63.1083	18,379.4	61.5065	18,379.4	57.9076	18,379.4	56.5303	18,379.4	50.1082	18,379.4	51.8952	18,379.4	46.2045	18,379.4	47.8744	18,379.4	46.8013	18,379.4	39.9397	18,379.4	44.349	18,379.4	39.5354	18,379.4	36.3966	18,379.4	40.2593	18,379.4	47.2238	18,379.4	40.5688	18,379.4	46.8523	18,379.4	29.7338	18,379.4	39.6843	18,379.4	45.011	18,379.4	38.2132
19,026.9	79.6026	19,026.9	79.392	19,026.9	77.1263	19,026.9	77.9599	19,026.9	71.9679	19,026.9	72.1108	19,026.9	67.9419	19,026.9	65.1989	19,026.9	65.1305	19,026.9	64.7574	19,026.9	63.5649	19,026.9	64.9931	19,026.9	62.8473	19,026.9	64.9174	19,026.9	63.0714	19,026.9	62.5327	19,026.9	61.6551	19,026.9	56.5889	19,026.9	56.892	19,026.9	49.0565	19,026.9	51.7667	19,026.9	44.9845	19,026.9	47.7777	19,026.9	46.4299	19,026.9	41.4352	19,026.9	42.3359	19,026.9	39.7512	19,026.9	31.7806	19,026.9	39.1972	19,026.9	46.1082	19,026.9	36.5347	19,026.9	43.5747	19,026.9	30.1967	19,026.9	37.8997	19,026.9	44.9781	19,026.9	31.302
19,697.8	77.983	19,697.8	77.6555	19,697.8	76.0746	19,697.8	76.4305	19,697.8	72.748	19,697.8	69.5581	19,697.8	70.238	19,697.8	61.5764	19,697.8	65.3392	19,697.8	61.5667	19,697.8	61.9772	19,697.8	63.9507	19,697.8	62.2915	19,697.8	64.0555	19,697.8	62.9264	19,697.8	61.4057	19,697.8	61.8359	19,697.8	55.7159	19,697.8	56.4133	19,697.8	47.7158	19,697.8	51.8566	19,697.8	44.4155	19,697.8	47.8224	19,697.8	45.4713	19,697.8	39.4205	19,697.8	38.764	19,697.8	39.1964	19,697.8	32.1275	19,697.8	36.7207	19,697.8	43.19	19,697.8	29.1449	19,697.8	37.492	19,697.8	28.9854	19,697.8	30.1601	19,697.8	42.5167	19,697.8	2.22617
19,999.5	77.2521	19,999.5	76.6187	19,999.5	76.0338	19,999.5	75.5096	19,999.5	73.0646	19,999.5	68.2037	19,999.5	70.1057	19,999.5	57.9837	19,999.5	63.7893	19,999.5	61.1858	19,999.5	60.996	19,999.5	63.8491	19,999.5	62.5041	19,999.5	63.8027	19,999.5	62.6445	19,999.5	61.64	19,999.5	61.3798	19,999.5	56.4264	19,999.5	55.5663	19,999.5	47.5381	19,999.5	51.2147	19,999.5	46.3911	19,999.5	48.3059	19,999.5	44.0073	19,999.5	39.8085	19,999.5	39.1397	19,999.5	37.7913	19,999.5	37.2022	19,999.5	31.9661	19,999.5	47.8938	19,999.5	36.8069	19,999.5	33.112	19,999.5	15.3416	19,999.5	27.7418	19,999.5	43.1478	19,999.5	25.518
