"SPL Vertical"																																																																							
"On-Axis"		"10°"		"-10°"		"20°"		"-20°"		"30°"		"-30°"		"40°"		"-40°"		"50°"		"-50°"		"60°"		"-60°"		"70°"		"-70°"		"80°"		"-80°"		"90°"		"-90°"		"100°"		"-100°"		"110°"		"-110°"		"120°"		"-120°"		"130°"		"-130°"		"140°"		"-140°"		"150°"		"-150°"		"160°"		"-160°"		"170°"		"-170°"		"180°"	
"Frequency [Hz]"	"Sound Pessure Level [dB]  / [2.83V 1m] "	"Frequency [Hz]"	"Sound Pessure Level [dB]  / [2.83V 1m] "	"Frequency [Hz]"	"Sound Pessure Level [dB]  / [2.83V 1m] "	"Frequency [Hz]"	"Sound Pessure Level [dB]  / [2.83V 1m] "	"Frequency [Hz]"	"Sound Pessure Level [dB]  / [2.83V 1m] "	"Frequency [Hz]"	"Sound Pessure Level [dB]  / [2.83V 1m] "	"Frequency [Hz]"	"Sound Pessure Level [dB]  / [2.83V 1m] "	"Frequency [Hz]"	"Sound Pessure Level [dB]  / [2.83V 1m] "	"Frequency [Hz]"	"Sound Pessure Level [dB]  / [2.83V 1m] "	"Frequency [Hz]"	"Sound Pessure Level [dB]  / [2.83V 1m] "	"Frequency [Hz]"	"Sound Pessure Level [dB]  / [2.83V 1m] "	"Frequency [Hz]"	"Sound Pessure Level [dB]  / [2.83V 1m] "	"Frequency [Hz]"	"Sound Pessure Level [dB]  / [2.83V 1m] "	"Frequency [Hz]"	"Sound Pessure Level [dB]  / [2.83V 1m] "	"Frequency [Hz]"	"Sound Pessure Level [dB]  / [2.83V 1m] "	"Frequency [Hz]"	"Sound Pessure Level [dB]  / [2.83V 1m] "	"Frequency [Hz]"	"Sound Pessure Level [dB]  / [2.83V 1m] "	"Frequency [Hz]"	"Sound Pessure Level [dB]  / [2.83V 1m] "	"Frequency [Hz]"	"Sound Pessure Level [dB]  / [2.83V 1m] "	"Frequency [Hz]"	"Sound Pessure Level [dB]  / [2.83V 1m] "	"Frequency [Hz]"	"Sound Pessure Level [dB]  / [2.83V 1m] "	"Frequency [Hz]"	"Sound Pessure Level [dB]  / [2.83V 1m] "	"Frequency [Hz]"	"Sound Pessure Level [dB]  / [2.83V 1m] "	"Frequency [Hz]"	"Sound Pessure Level [dB]  / [2.83V 1m] "	"Frequency [Hz]"	"Sound Pessure Level [dB]  / [2.83V 1m] "	"Frequency [Hz]"	"Sound Pessure Level [dB]  / [2.83V 1m] "	"Frequency [Hz]"	"Sound Pessure Level [dB]  / [2.83V 1m] "	"Frequency [Hz]"	"Sound Pessure Level [dB]  / [2.83V 1m] "	"Frequency [Hz]"	"Sound Pessure Level [dB]  / [2.83V 1m] "	"Frequency [Hz]"	"Sound Pessure Level [dB]  / [2.83V 1m] "	"Frequency [Hz]"	"Sound Pessure Level [dB]  / [2.83V 1m] "	"Frequency [Hz]"	"Sound Pessure Level [dB]  / [2.83V 1m] "	"Frequency [Hz]"	"Sound Pessure Level [dB]  / [2.83V 1m] "	"Frequency [Hz]"	"Sound Pessure Level [dB]  / [2.83V 1m] "	"Frequency [Hz]"	"Sound Pessure Level [dB]  / [2.83V 1m] "	"Frequency [Hz]"	"Sound Pessure Level [dB]  / [2.83V 1m] "
20.5078	60.7834	20.5078	60.5095	20.5078	60.9772	20.5078	60.1732	20.5078	61.0784	20.5078	59.7999	20.5078	61.0778	20.5078	59.4271	20.5078	60.9704	20.5078	59.1078	20.5078	60.7588	20.5078	58.91	20.5078	60.4602	20.5078	58.9042	20.5078	60.1204	20.5078	59.1393	20.5078	59.8305	20.5078	59.618	20.5078	59.7285	20.5078	60.2937	20.5078	59.9527	20.5078	61.0908	20.5078	60.5441	20.5078	61.93	20.5078	61.402	20.5078	62.7444	20.5078	62.3548	20.5078	63.4815	20.5078	63.2516	20.5078	64.1017	20.5078	63.9969	20.5078	64.5735	20.5078	64.5421	20.5078	64.8716	20.5078	64.8685	20.5078	64.9752
21.9727	61.2508	21.9727	60.9449	21.9727	61.4619	21.9727	60.5613	21.9727	61.5662	21.9727	60.1252	21.9727	61.5543	21.9727	59.6763	21.9727	61.4205	21.9727	59.2745	21.9727	61.1661	21.9727	59.0012	21.9727	60.8072	21.9727	58.9457	21.9727	60.3906	21.9727	59.1719	21.9727	60.015	21.9727	59.6827	21.9727	59.8394	21.9727	60.4164	21.9727	60.0301	21.9727	61.278	21.9727	60.6389	21.9727	62.1748	21.9727	61.547	21.9727	63.0337	21.9727	62.5561	21.9727	63.8016	21.9727	63.501	21.9727	64.4404	21.9727	64.2827	21.9727	64.9209	21.9727	64.8542	21.9727	65.2197	21.9727	65.199	21.9727	65.3176
23.4375	61.5613	23.4375	61.257	23.4375	61.7658	23.4375	60.8713	23.4375	61.8576	23.4375	60.4326	23.4375	61.8274	23.4375	59.9858	23.4375	61.6698	23.4375	59.5993	23.4375	61.3882	23.4375	59.3642	23.4375	61.0044	23.4375	59.3751	23.4375	60.5778	23.4375	59.6896	23.4375	60.2294	23.4375	60.2931	23.4375	60.1419	23.4375	61.1066	23.4375	60.478	23.4375	62.027	23.4375	61.2441	23.4375	62.9624	23.4375	62.273	23.4375	63.8446	23.4375	63.3539	23.4375	64.6257	23.4375	64.3335	23.4375	65.2719	23.4375	65.1285	23.4375	65.7568	23.4375	65.7024	23.4375	66.0592	23.4375	66.0452	23.4375	66.1604
24.9023	62.4083	24.9023	62.1398	24.9023	62.5939	24.9023	61.8098	24.9023	62.683	24.9023	61.4517	24.9023	62.6681	24.9023	61.115	24.9023	62.5488	24.9023	60.8686	24.9023	62.3356	24.9023	60.7928	24.9023	62.0591	24.9023	60.9568	24.9023	61.7822	24.9023	61.3864	24.9023	61.6112	24.9023	62.0492	24.9023	61.6813	24.9023	62.8706	24.9023	62.0937	24.9023	63.7647	24.9023	62.8387	24.9023	64.6572	24.9023	63.794	24.9023	65.4911	24.9023	64.8013	24.9023	66.2244	24.9023	65.7333	24.9023	66.8252	24.9023	66.5096	24.9023	67.2678	24.9023	67.0882	24.9023	67.5308	24.9023	67.4512	24.9023	67.5964
26.3672	63.9313	26.3672	63.7151	26.3672	64.0874	26.3672	63.4592	26.3672	64.1707	26.3672	63.1933	26.3672	64.1753	26.3672	62.9589	26.3672	64.1029	26.3672	62.8086	26.3672	63.9663	26.3672	62.7993	26.3672	63.7952	26.3672	62.9775	26.3672	63.6432	26.3672	63.3611	26.3672	63.59	26.3672	63.9304	26.3672	63.7271	26.3672	64.6354	26.3672	64.1187	26.3672	65.4131	26.3672	64.7586	26.3672	66.2026	26.3672	65.5666	26.3672	66.9525	26.3672	66.4287	26.3672	67.6212	26.3672	67.2409	26.3672	68.1753	26.3672	67.9288	26.3672	68.5877	26.3672	68.4471	26.3672	68.8357	26.3672	68.7736	26.3672	68.9017
27.832	65.0751	27.832	64.8802	27.832	65.2184	27.832	64.6521	27.832	65.2988	27.832	64.4172	27.832	65.311	27.832	64.2117	27.832	65.2574	27.832	64.0805	27.832	65.1497	27.832	64.0722	27.832	65.0143	27.832	64.2271	27.832	64.8967	27.832	64.5637	27.832	64.8627	27.832	65.0697	27.832	64.988	27.832	65.7056	27.832	65.3287	27.832	66.4175	27.832	65.8875	27.832	67.1498	27.832	66.6051	27.832	67.8527	27.832	67.3859	27.832	68.4845	27.832	68.1349	27.832	69.011	27.832	68.7782	27.832	69.4039	27.832	69.2682	27.832	69.6403	27.832	69.5794	27.832	69.7026
29.2969	66.1931	29.2969	66.0172	29.2969	66.3257	29.2969	65.8148	29.2969	66.4042	29.2969	65.6096	29.2969	66.4236	29.2969	65.4329	29.2969	66.3856	29.2969	65.3223	29.2969	66.3008	29.2969	65.318	29.2969	66.1921	29.2969	65.4536	29.2969	66.0988	29.2969	65.7462	29.2969	66.0768	29.2969	66.189	29.2969	66.1902	29.2969	66.7524	29.2969	66.4883	29.2969	67.3923	29.2969	66.9787	29.2969	68.0599	29.2969	67.6162	29.2969	68.7088	29.2969	68.3202	29.2969	69.2983	29.2969	69.0044	29.2969	69.7939	29.2969	69.5982	29.2969	70.1666	29.2969	70.0534	29.2969	70.3931	29.2969	70.3427	29.2969	70.4553
30.7617	67.0723	30.7617	66.9263	30.7617	67.185	30.7617	66.7622	30.7617	67.2548	30.7617	66.6009	30.7617	67.2776	30.7617	66.4692	30.7617	67.2559	30.7617	66.3986	30.7617	67.2003	30.7617	66.4215	30.7617	67.1324	30.7617	66.5648	30.7617	67.0867	30.7617	66.8425	30.7617	67.11	30.7617	67.2499	30.7617	67.2532	30.7617	67.7641	30.7617	67.5541	30.7617	68.3491	30.7617	68.0166	30.7617	68.963	30.7617	68.6034	30.7617	69.5642	30.7617	69.2476	30.7617	70.1144	30.7617	69.875	30.7617	70.5802	30.7617	70.4217	30.7617	70.9328	30.7617	70.8421	30.7617	71.1489	30.7617	71.109	30.7617	71.211
32.2266	68.17	32.2266	68.0319	32.2266	68.2803	32.2266	67.8788	32.2266	68.3542	32.2266	67.7288	32.2266	68.3884	32.2266	67.6047	32.2266	68.3851	32.2266	67.5331	32.2266	68.3535	32.2266	67.5416	32.2266	68.3117	32.2266	67.6544	32.2266	68.2881	32.2266	67.8858	32.2266	68.3206	32.2266	68.2353	32.2266	68.4504	32.2266	68.6865	32.2266	68.7095	32.2266	69.2102	32.2266	69.1047	32.2266	69.7696	32.2266	69.6098	32.2266	70.326	32.2266	70.1714	32.2266	70.8421	32.2266	70.7253	32.2266	71.2845	32.2266	71.2124	32.2266	71.6241	32.2266	71.588	32.2266	71.8375	32.2266	71.824	32.2266	71.9073
33.6914	69.0047	33.6914	68.8795	33.6914	69.108	33.6914	68.744	33.6914	69.1817	33.6914	68.6143	33.6914	69.2226	33.6914	68.5101	33.6914	69.2326	33.6914	68.4543	33.6914	69.2197	33.6914	68.4706	33.6914	69.1994	33.6914	68.5792	33.6914	69.196	33.6914	68.7928	33.6914	69.241	33.6914	69.1119	33.6914	69.3694	33.6914	69.5237	33.6914	69.6084	33.6914	70.0037	33.6914	69.9658	33.6914	70.5197	33.6914	70.4215	33.6914	71.0365	33.6914	70.9308	33.6914	71.5192	33.6914	71.437	33.6914	71.9353	33.6914	71.8856	33.6914	72.2566	33.6914	72.2333	33.6914	72.4597	33.6914	72.4519	33.6914	72.5278
35.1563	69.8885	35.1563	69.7745	35.1563	69.9857	35.1563	69.6541	35.1563	70.0594	35.1563	69.541	35.1563	70.1069	35.1563	69.4526	35.1563	70.1299	35.1563	69.4082	35.1563	70.1356	35.1563	69.428	35.1563	70.1374	35.1563	69.5296	35.1563	70.1555	35.1563	69.7243	35.1563	70.2165	35.1563	70.0134	35.1563	70.3484	35.1563	70.3874	35.1563	70.5738	35.1563	70.826	35.1563	70.8995	35.1563	71.3014	35.1563	71.3099	35.1563	71.7816	35.1563	71.7679	35.1563	72.2339	35.1563	72.2244	35.1563	72.6274	35.1563	72.6302	35.1563	72.9343	35.1563	72.9447	35.1563	73.1318	35.1563	73.1403	35.1563	73.2033
36.6211	70.7815	36.6211	70.6823	36.6211	70.8698	36.6211	70.581	36.6211	70.9414	36.6211	70.4895	36.6211	70.9937	36.6211	70.422	36.6211	71.028	36.6211	70.3944	36.6211	71.0501	36.6211	70.4229	36.6211	71.0709	36.6211	70.5217	36.6211	71.1069	36.6211	70.7001	36.6211	71.1789	36.6211	70.9601	36.6211	71.3098	36.6211	71.2947	36.6211	71.5178	36.6211	71.6879	36.6211	71.8095	36.6211	72.1164	36.6211	72.1736	36.6211	72.5525	36.6211	72.5802	36.6211	72.9665	36.6211	72.9879	36.6211	73.3293	36.6211	73.3526	36.6211	73.6143	36.6211	73.6366	36.6211	73.7992	36.6211	73.8131	36.6211	73.8681
38.0859	71.6342	38.0859	71.5411	38.0859	71.7199	38.0859	71.448	38.0859	71.7929	38.0859	71.3651	38.0859	71.8509	38.0859	71.3043	38.0859	71.8946	38.0859	71.279	38.0859	71.9286	38.0859	71.3031	38.0859	71.9613	38.0859	71.3888	38.0859	72.0057	38.0859	71.5448	38.0859	72.0788	38.0859	71.774	38.0859	72.1992	38.0859	72.0716	38.0859	72.3828	38.0859	72.4248	38.0859	72.637	38.0859	72.8139	38.0859	72.9543	38.0859	73.2142	38.0859	73.3114	38.0859	73.5979	38.0859	73.6727	38.0859	73.9374	38.0859	73.9983	38.0859	74.2067	38.0859	74.2526	38.0859	74.3842	38.0859	74.4094	38.0859	74.4542
39.5508	72.4241	39.5508	72.3455	39.5508	72.4987	39.5508	72.2695	39.5508	72.565	39.5508	72.2044	39.5508	72.6211	39.5508	72.1603	39.5508	72.6677	39.5508	72.1481	39.5508	72.7087	39.5508	72.1794	39.5508	72.7515	39.5508	72.2644	39.5508	72.807	39.5508	72.4105	39.5508	72.8893	39.5508	72.6206	39.5508	73.0137	39.5508	72.8914	39.5508	73.1932	39.5508	73.2127	39.5508	73.4334	39.5508	73.5681	39.5508	73.728	39.5508	73.9357	39.5508	74.0566	39.5508	74.2906	39.5508	74.3877	39.5508	74.6068	39.5508	74.6859	39.5508	74.8598	39.5508	74.9181	39.5508	75.0285	39.5508	75.0599	39.5508	75.0975
41.0156	73.2831	41.0156	73.2093	41.0156	73.355	41.0156	73.1389	41.0156	73.4212	41.0156	73.0787	41.0156	73.48	41.0156	73.037	41.0156	73.5314	41.0156	73.0227	41.0156	73.578	41.0156	73.0454	41.0156	73.6251	41.0156	73.1137	41.0156	73.6806	41.0156	73.2346	41.0156	73.7554	41.0156	73.4114	41.0156	73.8618	41.0156	73.6427	41.0156	74.0113	41.0156	73.9211	41.0156	74.2104	41.0156	74.2332	41.0156	74.4562	41.0156	74.5604	41.0156	74.7337	41.0156	74.8802	41.0156	75.0172	41.0156	75.1684	41.0156	75.2752	41.0156	75.4017	41.0156	75.4771	41.0156	75.5597	41.0156	75.5992	41.0156	75.6278
42.4805	74.0515	42.4805	73.983	42.4805	74.1179	42.4805	73.9173	42.4805	74.1788	42.4805	73.8606	42.4805	74.2323	42.4805	73.8204	42.4805	74.2788	42.4805	73.8048	42.4805	74.3209	42.4805	73.8225	42.4805	74.3641	42.4805	73.8818	42.4805	74.4166	42.4805	73.9895	42.4805	74.4889	42.4805	74.1495	42.4805	74.5925	42.4805	74.3613	42.4805	74.7367	42.4805	74.6188	42.4805	74.9262	42.4805	74.9103	42.4805	75.1569	42.4805	75.2184	42.4805	75.4148	42.4805	75.5215	42.4805	75.677	42.4805	75.7963	42.4805	75.9151	42.4805	76.0196	42.4805	76.1016	42.4805	76.1718	42.4805	76.214	42.4805	76.2385
43.9453	74.6715	43.9453	74.5967	43.9453	74.7466	43.9453	74.5267	43.9453	74.8187	43.9453	74.4668	43.9453	74.8858	43.9453	74.4237	43.9453	74.9474	43.9453	74.4044	43.9453	75.0049	43.9453	74.4165	43.9453	75.0617	43.9453	74.4674	43.9453	75.1233	43.9453	74.563	43.9453	75.1972	43.9453	74.707	43.9453	75.292	43.9453	74.8992	43.9453	75.4153	43.9453	75.1344	43.9453	75.572	43.9453	75.4022	43.9453	75.7609	43.9453	75.6868	43.9453	75.9727	43.9453	75.9685	43.9453	76.1898	43.9453	76.2255	43.9453	76.3888	43.9453	76.4362	43.9453	76.5449	43.9453	76.5822	43.9453	76.6367	43.9453	76.6507
45.4102	75.3021	45.4102	75.2286	45.4102	75.3773	45.4102	75.1608	45.4102	75.451	45.4102	75.1035	45.4102	75.5212	45.4102	75.0625	45.4102	75.5869	45.4102	75.0438	45.4102	75.6488	45.4102	75.0542	45.4102	75.7092	45.4102	75.0999	45.4102	75.7724	45.4102	75.1864	45.4102	75.8442	45.4102	75.317	45.4102	75.9316	45.4102	75.4919	45.4102	76.0417	45.4102	75.7068	45.4102	76.1791	45.4102	75.9526	45.4102	76.3438	45.4102	76.2152	45.4102	76.5288	45.4102	76.4767	45.4102	76.7196	45.4102	76.7167	45.4102	76.8951	45.4102	76.9149	45.4102	77.0329	45.4102	77.0537	45.4102	77.1126	45.4102	77.1211
46.875	75.8769	46.875	75.811	46.875	75.9471	46.875	75.7527	46.875	76.0186	46.875	75.7062	46.875	76.0897	46.875	75.6758	46.875	76.1591	46.875	75.6668	46.875	76.2269	46.875	75.6845	46.875	76.2949	46.875	75.7339	46.875	76.366	46.875	75.8196	46.875	76.4449	46.875	75.9444	46.875	76.5373	46.875	76.1084	46.875	76.6488	46.875	76.3085	46.875	76.7831	46.875	76.5367	46.875	76.94	46.875	76.781	46.875	77.1129	46.875	77.0253	46.875	77.2886	46.875	77.251	46.875	77.4483	46.875	77.4392	46.875	77.5714	46.875	77.5734	46.875	77.64	46.875	77.6419
48.3398	76.4639	48.3398	76.3994	48.3398	76.5356	48.3398	76.3452	48.3398	76.6123	48.3398	76.3042	48.3398	76.692	48.3398	76.28	48.3398	76.7732	48.3398	76.2765	48.3398	76.8555	48.3398	76.2976	48.3398	76.939	48.3398	76.3474	48.3398	77.0254	48.3398	76.4294	48.3398	77.1171	48.3398	76.5458	48.3398	77.2174	48.3398	76.6971	48.3398	77.3295	48.3398	76.8806	48.3398	77.4558	48.3398	77.09	48.3398	77.5955	48.3398	77.3153	48.3398	77.7436	48.3398	77.5423	48.3398	77.8895	48.3398	77.7547	48.3398	78.0184	48.3398	77.9355	48.3398	78.1133	48.3398	78.0694	48.3398	78.159	48.3398	78.1454
51.2695	77.6442	51.2695	77.5848	51.2695	77.7119	51.2695	77.5354	51.2695	77.7861	51.2695	77.4979	51.2695	77.8652	51.2695	77.4741	51.2695	77.9474	51.2695	77.4663	51.2695	78.0314	51.2695	77.477	51.2695	78.1159	51.2695	77.5087	51.2695	78.2005	51.2695	77.5642	51.2695	78.2853	51.2695	77.6456	51.2695	78.3708	51.2695	77.7543	51.2695	78.4584	51.2695	77.8895	51.2695	78.5491	51.2695	78.0481	51.2695	78.6433	51.2695	78.2232	51.2695	78.7385	51.2695	78.405	51.2695	78.8291	51.2695	78.5805	51.2695	78.9054	51.2695	78.7358	51.2695	78.9557	51.2695	78.8578	51.2695	78.9688	51.2695	78.9369
52.7344	78.225	52.7344	78.1678	52.7344	78.2911	52.7344	78.1208	52.7344	78.3646	52.7344	78.0854	52.7344	78.4438	52.7344	78.0629	52.7344	78.5267	52.7344	78.0547	52.7344	78.6116	52.7344	78.0626	52.7344	78.6967	52.7344	78.0887	52.7344	78.7806	52.7344	78.135	52.7344	78.8626	52.7344	78.2037	52.7344	78.9423	52.7344	78.2961	52.7344	79.0202	52.7344	78.4123	52.7344	79.0972	52.7344	78.55	52.7344	79.1736	52.7344	78.7041	52.7344	79.2481	52.7344	78.8663	52.7344	79.3166	52.7344	79.0255	52.7344	79.3718	52.7344	79.169	52.7344	79.4041	52.7344	79.2852	52.7344	79.404	52.7344	79.3648
54.1992	78.7114	54.1992	78.6572	54.1992	78.7755	54.1992	78.614	54.1992	78.8484	54.1992	78.5825	54.1992	78.9283	54.1992	78.5634	54.1992	79.0135	54.1992	78.5577	54.1992	79.1015	54.1992	78.5664	54.1992	79.1903	54.1992	78.591	54.1992	79.2777	54.1992	78.6333	54.1992	79.3618	54.1992	78.695	54.1992	79.4415	54.1992	78.7775	54.1992	79.5162	54.1992	78.8812	54.1992	79.5861	54.1992	79.0046	54.1992	79.6514	54.1992	79.1436	54.1992	79.7115	54.1992	79.2912	54.1992	79.7637	54.1992	79.4379	54.1992	79.8024	54.1992	79.5724	54.1992	79.8202	54.1992	79.6839	54.1992	79.8092	54.1992	79.7642
55.6641	79.2596	55.6641	79.2056	55.6641	79.323	55.6641	79.1617	55.6641	79.3945	55.6641	79.1282	55.6641	79.4728	55.6641	79.1055	55.6641	79.5558	55.6641	79.094	55.6641	79.6409	55.6641	79.0946	55.6641	79.7256	55.6641	79.1084	55.6641	79.8071	55.6641	79.1368	55.6641	79.8831	55.6641	79.1818	55.6641	79.9516	55.6641	79.2449	55.6641	80.0117	55.6641	79.3272	55.6641	80.0634	55.6641	79.4282	55.6641	80.1075	55.6641	79.5452	55.6641	80.1442	55.6641	79.6726	55.6641	80.1725	55.6641	79.8024	55.6641	80.1889	55.6641	79.9249	55.6641	80.1879	55.6641	80.0303	55.6641	80.1634	55.6641	80.1111
58.5938	80.137	58.5938	80.0837	58.5938	80.2011	58.5938	80.0415	58.5938	80.275	58.5938	80.0104	58.5938	80.3568	58.5938	79.9901	58.5938	80.4444	58.5938	79.9803	58.5938	80.5345	58.5938	79.981	58.5938	80.624	58.5938	79.9923	58.5938	80.7092	58.5938	80.0151	58.5938	80.7867	58.5938	80.0506	58.5938	80.8537	58.5938	80.1003	58.5938	80.9082	58.5938	80.1657	58.5938	80.9497	58.5938	80.247	58.5938	80.9783	58.5938	80.3432	58.5938	80.995	58.5938	80.4508	58.5938	80.9999	58.5938	80.5641	58.5938	80.992	58.5938	80.6755	58.5938	80.9683	58.5938	80.7769	58.5938	80.9256	58.5938	80.8616
60.0586	80.497	60.0586	80.4438	60.0586	80.562	60.0586	80.4024	60.0586	80.6378	60.0586	80.3727	60.0586	80.7229	60.0586	80.3538	60.0586	80.8145	60.0586	80.345	60.0586	80.9097	60.0586	80.3458	60.0586	81.0044	60.0586	80.356	60.0586	81.0947	60.0586	80.376	60.0586	81.1764	60.0586	80.4068	60.0586	81.2459	60.0586	80.4498	60.0586	81.3004	60.0586	80.5066	60.0586	81.3384	60.0586	80.5781	60.0586	81.3599	60.0586	80.664	60.0586	81.3658	60.0586	80.7621	60.0586	81.357	60.0586	80.868	60.0586	81.3338	60.0586	80.9752	60.0586	81.2951	60.0586	81.0767	60.0586	81.2394	60.0586	81.1661
62.9883	81.2775	62.9883	81.2253	62.9883	81.3423	62.9883	81.1854	62.9883	81.4188	62.9883	81.157	62.9883	81.5055	62.9883	81.1387	62.9883	81.5998	62.9883	81.1292	62.9883	81.6979	62.9883	81.1272	62.9883	81.7957	62.9883	81.1319	62.9883	81.8881	62.9883	81.1431	62.9883	81.9701	62.9883	81.1613	62.9883	82.0369	62.9883	81.188	62.9883	82.0845	62.9883	81.2251	62.9883	82.1107	62.9883	81.2744	62.9883	82.1149	62.9883	81.3373	62.9883	82.0983	62.9883	81.4135	62.9883	82.0636	62.9883	81.501	62.9883	82.0131	62.9883	81.5959	62.9883	81.9491	62.9883	81.6929	62.9883	81.8731	62.9883	81.7867
64.4531	81.6818	64.4531	81.6294	64.4531	81.747	64.4531	81.5897	64.4531	81.8246	64.4531	81.5615	64.4531	81.9129	64.4531	81.5434	64.4531	82.009	64.4531	81.5337	64.4531	82.1093	64.4531	81.5307	64.4531	82.209	64.4531	81.5333	64.4531	82.303	64.4531	81.5411	64.4531	82.3857	64.4531	81.5545	64.4531	82.4519	64.4531	81.5747	64.4531	82.497	64.4531	81.6038	64.4531	82.5184	64.4531	81.644	64.4531	82.5153	64.4531	81.6973	64.4531	82.4891	64.4531	81.7644	64.4531	82.4429	64.4531	81.8443	64.4531	82.3802	64.4531	81.9342	64.4531	82.3046	64.4531	82.0298	64.4531	82.2189	64.4531	82.1261
67.3828	82.3675	67.3828	82.3135	67.3828	82.4351	67.3828	82.2726	67.3828	82.5157	67.3828	82.2435	67.3828	82.6077	67.3828	82.2244	67.3828	82.7079	67.3828	82.2129	67.3828	82.8123	67.3828	82.207	67.3828	82.9157	67.3828	82.205	67.3828	83.0123	67.3828	82.2058	67.3828	83.0957	67.3828	82.2096	67.3828	83.1598	67.3828	82.2174	67.3828	83.1993	67.3828	82.2315	67.3828	83.2107	67.3828	82.2547	67.3828	83.1929	67.3828	82.2902	67.3828	83.1476	67.3828	82.3405	67.3828	83.0789	67.3828	82.4065	67.3828	82.9922	67.3828	82.4876	67.3828	82.8936	67.3828	82.581	67.3828	82.7888	67.3828	82.683
68.8477	82.6665	68.8477	82.6136	68.8477	82.7333	68.8477	82.574	68.8477	82.8133	68.8477	82.5461	68.8477	82.9047	68.8477	82.5278	68.8477	83.0043	68.8477	82.5168	68.8477	83.1079	68.8477	82.5104	68.8477	83.2101	68.8477	82.5069	68.8477	83.3049	68.8477	82.5049	68.8477	83.3858	68.8477	82.5042	68.8477	83.4469	68.8477	82.5058	68.8477	83.4827	68.8477	82.5122	68.8477	83.4898	68.8477	82.5263	68.8477	83.4667	68.8477	82.552	68.8477	83.4149	68.8477	82.5924	68.8477	83.3384	68.8477	82.6497	68.8477	83.2433	68.8477	82.7242	68.8477	83.1367	68.8477	82.8141	68.8477	83.0255	68.8477	82.9161
71.7773	83.2233	71.7773	83.1722	71.7773	83.2878	71.7773	83.1337	71.7773	83.3652	71.7773	83.1062	71.7773	83.4538	71.7773	83.0873	71.7773	83.5508	71.7773	83.0742	71.7773	83.6518	71.7773	83.0642	71.7773	83.7514	71.7773	83.055	71.7773	83.8435	71.7773	83.0451	71.7773	83.9213	71.7773	83.0339	71.7773	83.9781	71.7773	83.0225	71.7773	84.0079	71.7773	83.0132	71.7773	84.0065	71.7773	83.0099	71.7773	83.9718	71.7773	83.0171	71.7773	83.9054	71.7773	83.0395	71.7773	83.8118	71.7773	83.0813	71.7773	83.6987	71.7773	83.1444	71.7773	83.575	71.7773	83.2291	71.7773	83.4502	71.7773	83.3326
74.707	83.7932	74.707	83.7436	74.707	83.8554	74.707	83.7059	74.707	83.93	74.707	83.6784	74.707	84.0154	74.707	83.6585	74.707	84.1086	74.707	83.6433	74.707	84.2054	74.707	83.6297	74.707	84.3006	74.707	83.6152	74.707	84.388	74.707	83.5979	74.707	84.4605	74.707	83.5771	74.707	84.5113	74.707	83.5537	74.707	84.534	74.707	83.5302	74.707	84.5236	74.707	83.5107	74.707	84.4781	74.707	83.5006	74.707	84.3988	74.707	83.5062	74.707	84.2908	74.707	83.5329	74.707	84.1627	74.707	83.5847	74.707	84.0253	74.707	83.6631	74.707	83.8898	74.707	83.7665
77.6367	84.3153	77.6367	84.2661	77.6367	84.3776	77.6367	84.2291	77.6367	84.4526	77.6367	84.2024	77.6367	84.5387	77.6367	84.1835	77.6367	84.6328	77.6367	84.1689	77.6367	84.7308	77.6367	84.1555	77.6367	84.8273	77.6367	84.1402	77.6367	84.9158	77.6367	84.1207	77.6367	84.9891	77.6367	84.0961	77.6367	85.0398	77.6367	84.0668	77.6367	85.061	77.6367	84.0353	77.6367	85.0473	77.6367	84.0061	77.6367	84.9961	77.6367	83.9854	77.6367	84.9085	77.6367	83.9801	77.6367	84.7899	77.6367	83.9973	77.6367	84.6498	77.6367	84.0426	77.6367	84.5004	77.6367	84.1186	77.6367	84.3546	77.6367	84.2243
79.1016	84.5018	79.1016	84.4522	79.1016	84.5644	79.1016	84.4148	79.1016	84.6396	79.1016	84.3877	79.1016	84.7257	79.1016	84.368	79.1016	84.8198	79.1016	84.3525	79.1016	84.9176	79.1016	84.3376	79.1016	85.0136	79.1016	84.3203	79.1016	85.1013	79.1016	84.298	79.1016	85.1735	79.1016	84.2696	79.1016	85.2224	79.1016	84.2355	79.1016	85.241	79.1016	84.1984	79.1016	85.2237	79.1016	84.1628	79.1016	85.1675	79.1016	84.1352	79.1016	85.0738	79.1016	84.1233	79.1016	84.9482	79.1016	84.1348	79.1016	84.8005	79.1016	84.1762	79.1016	84.6438	79.1016	84.2507	79.1016	84.492	79.1016	84.3578
82.0313	84.8156	82.0313	84.7646	82.0313	84.8792	82.0313	84.7254	82.0313	84.9552	82.0313	84.6963	82.0313	85.0415	82.0313	84.6743	82.0313	85.1354	82.0313	84.6558	82.0313	85.2324	82.0313	84.6373	82.0313	85.3269	82.0313	84.6151	82.0313	85.4124	82.0313	84.5867	82.0313	85.4812	82.0313	84.5505	82.0313	85.5256	82.0313	84.5071	82.0313	85.538	82.0313	84.459	82.0313	85.5126	82.0313	84.4111	82.0313	85.4464	82.0313	84.3706	82.0313	85.3406	82.0313	84.3463	82.0313	85.2012	82.0313	84.3474	82.0313	85.0392	82.0313	84.3817	82.0313	84.8687	82.0313	84.4538	82.0313	84.7054	82.0313	84.5636
84.9609	85.1174	84.9609	85.067	84.9609	85.1808	84.9609	85.0287	84.9609	85.2568	84.9609	85.0004	84.9609	85.3438	84.9609	84.9792	84.9609	85.4391	84.9609	84.9615	84.9609	85.5383	84.9609	84.9433	84.9609	85.6361	84.9609	84.9211	84.9609	85.7258	84.9609	84.8918	84.9609	85.7994	84.9609	84.854	84.9609	85.8487	84.9609	84.8079	84.9609	85.8655	84.9609	84.7563	84.9609	85.843	84.9609	84.7042	84.9609	85.7777	84.9609	84.6594	84.9609	85.6701	84.9609	84.6314	84.9609	85.5261	84.9609	84.6301	84.9609	85.3569	84.9609	84.6644	84.9609	85.1775	84.9609	84.7394	84.9609	85.005	84.9609	84.855
87.8906	85.4351	87.8906	85.3846	87.8906	85.4965	87.8906	85.3443	87.8906	85.5686	87.8906	85.3124	87.8906	85.6499	87.8906	85.286	87.8906	85.7381	87.8906	85.2618	87.8906	85.8296	87.8906	85.2359	87.8906	85.9197	87.8906	85.2047	87.8906	86.0022	87.8906	85.1652	87.8906	86.0694	87.8906	85.1158	87.8906	86.1129	87.8906	85.0568	87.8906	86.1238	87.8906	84.9911	87.8906	86.0946	87.8906	84.9242	87.8906	86.0209	87.8906	84.8646	87.8906	85.9026	87.8906	84.8227	87.8906	85.7459	87.8906	84.8099	87.8906	85.5626	87.8906	84.8364	87.8906	85.3694	87.8906	84.9087	87.8906	85.185	87.8906	85.027
90.8203	85.6323	90.8203	85.5793	90.8203	85.6949	90.8203	85.5353	90.8203	85.7666	90.8203	85.4985	90.8203	85.8459	90.8203	85.4663	90.8203	85.9304	90.8203	85.4353	90.8203	86.0169	90.8203	85.4017	90.8203	86.1005	90.8203	85.3615	90.8203	86.1752	90.8203	85.3119	90.8203	86.2335	90.8203	85.251	90.8203	86.2669	90.8203	85.1792	90.8203	86.2665	90.8203	85.0995	90.8203	86.2248	90.8203	85.0177	90.8203	86.1373	90.8203	84.943	90.8203	86.0043	90.8203	84.8869	90.8203	85.8321	90.8203	84.862	90.8203	85.6337	90.8203	84.8798	90.8203	85.4269	90.8203	84.948	90.8203	85.2318	90.8203	85.0675
95.2148	85.8664	95.2148	85.8116	95.2148	85.93	95.2148	85.7653	95.2148	86.0018	95.2148	85.7262	95.2148	86.0801	95.2148	85.6917	95.2148	86.1627	95.2148	85.6582	95.2148	86.2461	95.2148	85.6219	95.2148	86.326	95.2148	85.5787	95.2148	86.3966	95.2148	85.5253	95.2148	86.4504	95.2148	85.4597	95.2148	86.479	95.2148	85.3819	95.2148	86.4734	95.2148	85.295	95.2148	86.4258	95.2148	85.2049	95.2148	86.3314	95.2148	85.1211	95.2148	86.1904	95.2148	85.0559	95.2148	86.0096	95.2148	85.0227	95.2148	85.8023	95.2148	85.0341	95.2148	85.5873	95.2148	85.0988	95.2148	85.386	95.2148	85.2183
98.1445	85.9817	98.1445	85.928	98.1445	86.0441	98.1445	85.8827	98.1445	86.1144	98.1445	85.8446	98.1445	86.1912	98.1445	85.8112	98.1445	86.2722	98.1445	85.7792	98.1445	86.3544	98.1445	85.7444	98.1445	86.4337	98.1445	85.703	98.1445	86.5046	98.1445	85.6512	98.1445	86.5598	98.1445	85.5871	98.1445	86.5906	98.1445	85.5105	98.1445	86.5879	98.1445	85.4243	98.1445	86.5434	98.1445	85.3345	98.1445	86.4521	98.1445	85.2506	98.1445	86.3138	98.1445	85.1848	98.1445	86.135	98.1445	85.1509	98.1445	85.9289	98.1445	85.1617	98.1445	85.7145	98.1445	85.226	98.1445	85.5133	98.1445	85.3455
101.074	86.0594	101.074	86.001	101.074	86.1246	101.074	85.9494	101.074	86.1955	101.074	85.9037	101.074	86.2706	101.074	85.8618	101.074	86.3478	101.074	85.8205	101.074	86.4244	101.074	85.776	101.074	86.4968	101.074	85.7242	101.074	86.5597	101.074	85.6618	101.074	86.6063	101.074	85.5868	101.074	86.6284	101.074	85.4991	101.074	86.6167	101.074	85.4018	101.074	86.5628	101.074	85.3013	101.074	86.4616	101.074	85.2075	101.074	86.3126	101.074	85.1334	101.074	86.1223	101.074	85.0936	101.074	85.9044	101.074	85.1017	101.074	85.6783	101.074	85.1669	101.074	85.4668	101.074	85.291
105.469	86.0317	105.469	85.9746	105.469	86.0946	105.469	85.9235	105.469	86.1622	105.469	85.8775	105.469	86.2332	105.469	85.8348	105.469	86.3059	105.469	85.7921	105.469	86.3779	105.469	85.7457	105.469	86.446	105.469	85.6913	105.469	86.5053	105.469	85.6254	105.469	86.5492	105.469	85.5457	105.469	86.569	105.469	85.4521	105.469	86.5554	105.469	85.3476	105.469	86.4994	105.469	85.2388	105.469	86.3953	105.469	85.1361	105.469	86.2423	105.469	85.0532	105.469	86.0468	105.469	85.0056	105.469	85.8228	105.469	85.0079	105.469	85.5904	105.469	85.0701	105.469	85.3735	105.469	85.1945
108.398	86.1169	108.398	86.0593	108.398	86.1793	108.398	86.0071	108.398	86.2454	108.398	85.9596	108.398	86.3137	108.398	85.9151	108.398	86.3824	108.398	85.8704	108.398	86.4495	108.398	85.8217	108.398	86.512	108.398	85.7646	108.398	86.5652	108.398	85.6954	108.398	86.6026	108.398	85.6114	108.398	86.6158	108.398	85.5125	108.398	86.5954	108.398	85.4017	108.398	86.5326	108.398	85.2855	108.398	86.4215	108.398	85.1746	108.398	86.2618	108.398	85.0831	108.398	86.0601	108.398	85.0271	108.398	85.8309	108.398	85.0219	108.398	85.5951	108.398	85.0783	108.398	85.3768	108.398	85.199
112.793	86.2346	112.793	86.1737	112.793	86.298	112.793	86.116	112.793	86.3624	112.793	86.0617	112.793	86.4264	112.793	86.0094	112.793	86.4886	112.793	85.9566	112.793	86.5476	112.793	85.8995	112.793	86.6012	112.793	85.8339	112.793	86.6454	112.793	85.7562	112.793	86.6743	112.793	85.6637	112.793	86.6795	112.793	85.5563	112.793	86.6515	112.793	85.4368	112.793	86.5813	112.793	85.3122	112.793	86.4627	112.793	85.1935	112.793	86.2953	112.793	85.0951	112.793	86.0858	112.793	85.0337	112.793	85.8491	112.793	85.0249	112.793	85.6066	112.793	85.08	112.793	85.383	112.793	85.2018
117.188	86.2101	117.188	86.1474	117.188	86.2723	117.188	86.0857	117.188	86.3326	117.188	86.0255	117.188	86.3894	117.188	85.9664	117.188	86.4421	117.188	85.9061	117.188	86.49	117.188	85.8416	117.188	86.5319	117.188	85.769	117.188	86.5652	117.188	85.6847	117.188	86.5848	117.188	85.5862	117.188	86.5832	117.188	85.4735	117.188	86.5508	117.188	85.3494	117.188	86.4782	117.188	85.2208	117.188	86.3586	117.188	85.0988	117.188	86.1908	117.188	84.9977	117.188	85.9812	117.188	84.9341	117.188	85.7445	117.188	84.9236	117.188	85.502	117.188	84.9774	117.188	85.2788	117.188	85.0982
120.117	86.2338	120.117	86.1689	120.117	86.298	120.117	86.1049	120.117	86.3597	120.117	86.0427	120.117	86.4172	120.117	85.9817	120.117	86.4698	120.117	85.9201	120.117	86.5167	120.117	85.8545	120.117	86.557	120.117	85.7811	120.117	86.5884	120.117	85.6961	120.117	86.606	120.117	85.597	120.117	86.6025	120.117	85.4836	120.117	86.5684	120.117	85.3588	120.117	86.4942	120.117	85.2296	120.117	86.3731	120.117	85.107	120.117	86.2039	120.117	85.0056	120.117	85.993	120.117	84.9419	120.117	85.7551	120.117	84.9315	120.117	85.5116	120.117	84.9854	120.117	85.2877	120.117	85.1066
124.512	86.1996	124.512	86.1294	124.512	86.2678	124.512	86.0596	124.512	86.3319	124.512	85.9915	124.512	86.3901	124.512	85.9252	124.512	86.4413	124.512	85.8588	124.512	86.4855	124.512	85.7893	124.512	86.5221	124.512	85.7126	124.512	86.5494	124.512	85.6249	124.512	86.5633	124.512	85.5235	124.512	86.5567	124.512	85.4082	124.512	86.5203	124.512	85.2821	124.512	86.4444	124.512	85.1522	124.512	86.3219	124.512	85.03	124.512	86.1514	124.512	84.9299	124.512	85.9389	124.512	84.8687	124.512	85.6991	124.512	84.8614	124.512	85.4536	124.512	84.9187	124.512	85.2271	124.512	85.0432
128.906	86.1183	128.906	86.0406	128.906	86.1913	128.906	85.9611	128.906	86.2571	128.906	85.8817	128.906	86.3136	128.906	85.8029	128.906	86.3601	128.906	85.7234	128.906	86.3965	128.906	85.6404	128.906	86.4231	128.906	85.5499	128.906	86.4388	128.906	85.4482	128.906	86.44	128.906	85.3326	128.906	86.4201	128.906	85.203	128.906	86.37	128.906	85.0629	128.906	86.28	128.906	84.9199	128.906	86.143	128.906	84.7859	128.906	85.9575	128.906	84.6766	128.906	85.7299	128.906	84.609	128.906	85.4755	128.906	84.5991	128.906	85.2166	128.906	84.6575	128.906	84.979	128.906	84.7867
133.301	86.0666	133.301	85.9833	133.301	86.1439	133.301	85.8975	133.301	86.2123	133.301	85.8116	133.301	86.2695	133.301	85.7268	133.301	86.3148	133.301	85.6421	133.301	86.3484	133.301	85.5547	133.301	86.3711	133.301	85.4608	133.301	86.3821	133.301	85.3563	133.301	86.3786	133.301	85.2385	133.301	86.3541	133.301	85.1071	133.301	86.2997	133.301	84.9655	133.301	86.2055	133.301	84.8214	133.301	86.0644	133.301	84.6867	133.301	85.8747	133.301	84.577	133.301	85.6431	133.301	84.5096	133.301	85.385	133.301	84.5001	133.301	85.1231	133.301	84.5593	133.301	84.8833	133.301	84.6895
139.16	85.9298	139.16	85.8402	139.16	86.0113	139.16	85.7464	139.16	86.0814	139.16	85.6515	139.16	86.1382	139.16	85.5573	139.16	86.1812	139.16	85.4635	139.16	86.2115	139.16	85.3678	139.16	86.2307	139.16	85.2666	139.16	86.2388	139.16	85.1561	139.16	86.2332	139.16	85.0337	139.16	86.2076	139.16	84.8995	139.16	86.1527	139.16	84.757	139.16	86.0582	139.16	84.6144	139.16	85.9165	139.16	84.4838	139.16	85.7256	139.16	84.3807	139.16	85.4924	139.16	84.3215	139.16	85.2322	139.16	84.3209	139.16	84.9677	139.16	84.3884	139.16	84.7242	139.16	84.5254
143.555	85.7639	143.555	85.6696	143.555	85.8475	143.555	85.5687	143.555	85.9165	143.555	85.4653	143.555	85.9692	143.555	85.3616	143.555	86.0055	143.555	85.2581	143.555	86.0275	143.555	85.1528	143.555	86.0374	143.555	85.0422	143.555	86.0365	143.555	84.9227	143.555	86.023	143.555	84.7917	143.555	85.9909	143.555	84.6493	143.555	85.9307	143.555	84.4996	143.555	85.8318	143.555	84.3511	143.555	85.6859	143.555	84.2165	143.555	85.4908	143.555	84.1118	143.555	85.2531	143.555	84.0533	143.555	84.9883	143.555	84.0553	143.555	84.7191	143.555	84.1266	143.555	84.4712	143.555	84.2679
147.949	85.6392	147.949	85.5358	147.949	85.7283	147.949	85.4231	147.949	85.7989	147.949	85.306	147.949	85.8489	147.949	85.1879	147.949	85.8785	147.949	85.0699	147.949	85.8901	147.949	84.9508	147.949	85.8871	147.949	84.8276	147.949	85.872	147.949	84.6967	147.949	85.8443	147.949	84.5557	147.949	85.7991	147.949	84.4048	147.949	85.7277	147.949	84.2482	147.949	85.6198	147.949	84.0946	147.949	85.4667	147.949	83.9572	147.949	85.2658	147.949	83.8519	147.949	85.0233	147.949	83.7951	147.949	84.7543	147.949	83.8004	147.949	84.4811	147.949	83.8758	147.949	84.229	147.949	84.0216
153.809	85.4977	153.809	85.3821	153.809	85.5955	153.809	85.2544	153.809	85.6712	153.809	85.12	153.809	85.7226	153.809	84.9828	153.809	85.7498	153.809	84.8448	153.809	85.7554	153.809	84.7054	153.809	85.7427	153.809	84.562	153.809	85.7144	153.809	84.4117	153.809	85.6702	153.809	84.2523	153.809	85.6059	153.809	84.0847	153.809	85.5132	153.809	83.9138	153.809	85.3829	153.809	83.7491	153.809	85.2074	153.809	83.6043	153.809	84.9855	153.809	83.4959	153.809	84.7243	153.809	83.4397	153.809	84.44	153.809	83.4483	153.809	84.1551	153.809	83.5286	153.809	83.8944	153.809	83.6802
159.668	85.4176	159.668	85.3032	159.668	85.5112	159.668	85.1733	159.668	85.5806	159.668	85.0331	159.668	85.6248	159.668	84.8872	159.668	85.6456	159.668	84.7381	159.668	85.6468	159.668	84.586	159.668	85.6329	159.668	84.4294	159.668	85.6067	159.668	84.2659	159.668	85.5671	159.668	84.0945	159.668	85.5083	159.668	83.9164	159.668	85.4199	159.668	83.7372	159.668	85.2905	159.668	83.5671	159.668	85.1117	159.668	83.42	159.668	84.882	159.668	83.3121	159.668	84.6095	159.668	83.259	159.668	84.3122	159.668	83.2725	159.668	84.0144	159.668	83.3591	159.668	83.7422	159.668	83.5184
165.527	85.4006	165.527	85.2948	165.527	85.4843	165.527	85.1718	165.527	85.5428	165.527	85.0368	165.527	85.5759	165.527	84.8941	165.527	85.5868	165.527	84.7461	165.527	85.5813	165.527	84.5928	165.527	85.566	165.527	84.4326	165.527	85.5457	165.527	84.2637	165.527	85.5203	165.527	84.0856	165.527	85.4832	165.527	83.901	165.527	85.4222	165.527	83.7173	165.527	85.3229	165.527	83.5468	165.527	85.1734	165.527	83.4053	165.527	84.9693	165.527	83.3104	165.527	84.7161	165.527	83.2771	165.527	84.4297	165.527	83.3155	165.527	84.1332	165.527	83.4285	165.527	83.8525	165.527	83.6114
171.387	85.277	171.387	85.169	171.387	85.3588	171.387	85.0415	171.387	85.4098	171.387	84.9014	171.387	85.4291	171.387	84.7546	171.387	85.42	171.387	84.6043	171.387	85.3893	171.387	84.4511	171.387	85.346	171.387	84.2933	171.387	85.2982	171.387	84.1286	171.387	85.2489	171.387	83.9559	171.387	85.1943	171.387	83.7776	171.387	85.1239	171.387	83.6007	171.387	85.0236	171.387	83.4371	171.387	84.8817	171.387	83.3024	171.387	84.6932	171.387	83.2127	171.387	84.463	171.387	83.1814	171.387	84.2056	171.387	83.216	171.387	83.9416	171.387	83.3173	171.387	83.6931	171.387	83.4799
177.246	85.1233	177.246	85.0089	177.246	85.2077	177.246	84.872	177.246	85.2571	177.246	84.7209	177.246	85.2704	177.246	84.5624	177.246	85.2513	177.246	84.4011	177.246	85.2075	177.246	84.2382	177.246	85.1492	177.246	84.0723	177.246	85.0855	177.246	83.9013	177.246	85.0211	177.246	83.7244	177.246	84.9534	177.246	83.5443	177.246	84.8725	177.246	83.3684	177.246	84.7649	177.246	83.209	177.246	84.619	177.246	83.0811	177.246	84.4304	177.246	82.9997	177.246	84.2046	177.246	82.9757	177.246	83.9559	177.246	83.0141	177.246	83.7042	177.246	83.1135	177.246	83.4694	177.246	83.2683
183.105	84.9276	183.105	84.7942	183.105	85.0231	183.105	84.6305	183.105	85.0761	183.105	84.445	183.105	85.0859	183.105	84.246	183.105	85.0563	183.105	84.04	183.105	84.9953	183.105	83.8311	183.105	84.9138	183.105	83.6211	183.105	84.8224	183.105	83.4108	183.105	84.7278	183.105	83.2023	183.105	84.6299	183.105	83.0009	183.105	84.5212	183.105	82.816	183.105	84.3902	183.105	82.6612	183.105	84.2263	183.105	82.5512	183.105	84.0259	183.105	82.4981	183.105	83.7949	183.105	82.5072	183.105	83.5471	183.105	82.5766	183.105	83.2999	183.105	82.6991	183.105	83.069	183.105	82.8659
188.965	84.7273	188.965	84.592	188.965	84.827	188.965	84.4277	188.965	84.8863	188.965	84.2413	188.965	84.9037	188.965	84.0381	188.965	84.8811	188.965	83.8211	188.965	84.8244	188.965	83.5908	188.965	84.7415	188.965	83.3458	188.965	84.64	188.965	83.0852	188.965	84.5242	188.965	82.8109	188.965	84.3928	188.965	82.5306	188.965	84.2383	188.965	82.2587	188.965	84.0507	188.965	82.0166	188.965	83.8218	188.965	81.8285	188.965	83.5507	188.965	81.7153	188.965	83.2466	188.965	81.6884	188.965	82.9272	188.965	81.747	188.965	82.614	188.965	81.8811	188.965	82.3261	188.965	82.0781
196.289	84.5199	196.289	84.4079	196.289	84.5982	196.289	84.2693	196.289	84.6384	196.289	84.1119	196.289	84.6405	196.289	83.942	196.289	84.6091	196.289	83.7632	196.289	84.5525	196.289	83.575	196.289	84.4805	196.289	83.3745	196.289	84.4004	196.289	83.1577	196.289	84.3134	196.289	82.9229	196.289	84.2129	196.289	82.6731	196.289	84.0864	196.289	82.4188	196.289	83.9198	196.289	82.1777	196.289	83.7039	196.289	81.9728	196.289	83.4395	196.289	81.8272	196.289	83.1388	196.289	81.7576	196.289	82.8235	196.289	81.7702	196.289	82.5188	196.289	81.8618	196.289	82.2469	196.289	82.024
203.613	84.3027	203.613	84.1936	203.613	84.3692	203.613	84.0505	203.613	84.3886	203.613	83.8831	203.613	84.3619	203.613	83.7001	203.613	84.2967	203.613	83.507	203.613	84.2068	203.613	83.3056	203.613	84.1088	203.613	83.0945	203.613	84.0172	203.613	82.8713	203.613	83.9378	203.613	82.636	203.613	83.864	203.613	82.3935	203.613	83.7782	203.613	82.1553	203.613	83.6588	203.613	81.9396	203.613	83.4892	203.613	81.7682	203.613	83.2654	203.613	81.6604	203.613	82.9982	203.613	81.6275	203.613	82.7097	203.613	81.6702	203.613	82.4258	203.613	81.781	203.613	82.1679	203.613	81.9499
210.938	84.2066	210.938	84.0766	210.938	84.2876	210.938	83.9084	210.938	84.3129	210.938	83.7138	210.938	84.2812	210.938	83.5032	210.938	84.1987	210.938	83.2835	210.938	84.0789	210.938	83.0577	210.938	83.9403	210.938	82.8252	210.938	83.8017	210.938	82.5844	210.938	83.6755	210.938	82.3357	210.938	83.5622	210.938	82.085	210.938	83.45	210.938	81.8452	210.938	83.3204	210.938	81.6357	210.938	83.1567	210.938	81.4786	210.938	82.9523	210.938	81.3923	210.938	82.7137	210.938	81.3844	210.938	82.4571	210.938	81.4507	210.938	82.2018	210.938	81.5782	210.938	81.9635	210.938	81.7528
218.262	84.0042	218.262	83.8785	218.262	84.0807	218.262	83.7151	218.262	84.1002	218.262	83.5269	218.262	84.0613	218.262	83.3248	218.262	83.9703	218.262	83.1157	218.262	83.8407	218.262	82.9012	218.262	83.6913	218.262	82.6792	218.262	83.5406	218.262	82.4461	218.262	83.4005	218.262	82.2007	218.262	83.2705	218.262	81.9479	218.262	83.1381	218.262	81.7004	218.262	82.9853	218.262	81.4784	218.262	82.7978	218.262	81.3049	218.262	82.5731	218.262	81.1988	218.262	82.3228	218.262	81.168	218.262	82.0677	218.262	81.2071	218.262	81.8286	218.262	81.3029	218.262	81.6186	218.262	81.4425
225.586	84.0087	225.586	83.8633	225.586	84.0932	225.586	83.6711	225.586	84.1075	225.586	83.448	225.586	84.0499	225.586	83.2083	225.586	83.9281	225.586	82.9621	225.586	83.7597	225.586	82.7142	225.586	83.5711	225.586	82.465	225.586	83.3915	225.586	82.2133	225.586	83.2437	225.586	81.9611	225.586	83.1346	225.586	81.7168	225.586	83.0527	225.586	81.4976	225.586	82.974	225.586	81.327	225.586	82.874	225.586	81.2278	225.586	82.7388	225.586	81.2132	225.586	82.5688	225.586	81.2802	225.586	82.3752	225.586	81.4108	225.586	82.1722	225.586	81.5811	225.586	81.9694	225.586	81.7709
232.91	84.2515	232.91	84.1006	232.91	84.3367	232.91	83.8982	232.91	84.3455	232.91	83.6599	232.91	84.2738	232.91	83.3991	232.91	84.1255	232.91	83.1246	232.91	83.9137	232.91	82.8394	232.91	83.66	232.91	82.5418	232.91	83.391	232.91	82.2287	232.91	83.1312	232.91	81.9006	232.91	82.8958	232.91	81.5669	232.91	82.6867	232.91	81.2494	232.91	82.495	232.91	80.9811	232.91	82.3095	232.91	80.7985	232.91	82.1249	232.91	80.7266	232.91	81.9431	232.91	80.7663	232.91	81.7681	232.91	80.892	232.91	81.5992	232.91	81.065	232.91	81.4292	232.91	81.2505
241.699	83.8176	241.699	83.663	241.699	83.9159	241.699	83.4698	241.699	83.9449	241.699	83.2559	241.699	83.8986	241.699	83.0355	241.699	83.7799	241.699	82.8155	241.699	83.6011	241.699	82.5939	241.699	83.3813	241.699	82.3617	241.699	83.1422	241.699	82.1071	241.699	82.8995	241.699	81.8212	241.699	82.6571	241.699	81.5036	241.699	82.4059	241.699	81.1665	241.699	82.1314	241.699	80.8361	241.699	81.8256	241.699	80.5481	241.699	81.4974	241.699	80.3372	241.699	81.1729	241.699	80.2227	241.699	80.884	241.699	80.2005	241.699	80.6514	241.699	80.2484	241.699	80.4752	241.699	80.3432
250.488	83.6367	250.488	83.4111	250.488	83.7848	250.488	83.1316	250.488	83.84	250.488	82.8258	250.488	83.797	250.488	82.5204	250.488	83.6627	250.488	82.2352	250.488	83.4566	250.488	81.9786	250.488	83.2094	250.488	81.7462	250.488	82.9553	250.488	81.5252	250.488	82.7208	250.488	81.3016	250.488	82.5117	250.488	81.0673	250.488	82.3105	250.488	80.8256	250.488	82.0873	250.488	80.5926	250.488	81.8183	250.488	80.3927	250.488	81.5026	250.488	80.2495	250.488	81.1663	250.488	80.175	250.488	80.8519	250.488	80.1651	250.488	80.5961	250.488	80.2056	250.488	80.4112	250.488	80.2863
259.277	84.088	259.277	83.8428	259.277	84.2458	259.277	83.5297	259.277	84.3035	259.277	83.1728	259.277	84.2565	259.277	82.7978	259.277	84.1107	259.277	82.4285	259.277	83.8843	259.277	82.0822	259.277	83.6083	259.277	81.7677	259.277	83.3225	259.277	81.4855	259.277	83.0642	259.277	81.2316	259.277	82.8533	259.277	81.0025	259.277	82.682	259.277	80.7991	259.277	82.5195	259.277	80.6286	259.277	82.3303	259.277	80.5028	259.277	82.0932	259.277	80.4329	259.277	81.8112	259.277	80.4255	259.277	81.5083	259.277	80.4794	259.277	81.2161	259.277	80.5891	259.277	80.9595	259.277	80.7497
268.066	84.0449	268.066	83.7765	268.066	84.2219	268.066	83.4368	268.066	84.2944	268.066	83.0513	268.066	84.2568	268.066	82.649	268.066	84.1118	268.066	82.2585	268.066	83.8728	268.066	81.9024	268.066	83.5648	268.066	81.595	268.066	83.2247	268.066	81.3421	268.066	82.8949	268.066	81.1448	268.066	82.6114	268.066	81.0046	268.066	82.3901	268.066	80.9255	268.066	82.2231	268.066	80.9112	268.066	82.0894	268.066	80.9602	268.066	81.9713	268.066	81.0606	268.066	81.8638	268.066	81.1914	268.066	81.7705	268.066	81.3277	268.066	81.6928	268.066	81.4492	268.066	81.6231	268.066	81.5464
276.855	84.2766	276.855	84.026	276.855	84.4249	276.855	83.6834	276.855	84.466	276.855	83.2631	276.855	84.4001	276.855	82.7836	276.855	84.2341	276.855	82.2663	276.855	83.9826	276.855	81.7342	276.855	83.6681	276.855	81.2113	276.855	83.3202	276.855	80.7222	276.855	82.9697	276.855	80.2933	276.855	82.6398	276.855	79.9542	276.855	82.3388	276.855	79.7357	276.855	82.061	276.855	79.6617	276.855	81.7987	276.855	79.7356	276.855	81.5556	276.855	79.9316	276.855	81.349	276.855	80.1982	276.855	81.1952	276.855	80.475	276.855	81.0897	276.855	80.7125	276.855	81.001	276.855	80.886
287.109	84.4307	287.109	84.2421	287.109	84.5241	287.109	83.9697	287.109	84.5158	287.109	83.6271	287.109	84.4052	287.109	83.2281	287.109	84.1993	287.109	82.7837	287.109	83.9133	287.109	82.3016	287.109	83.5715	287.109	81.7874	287.109	83.2068	287.109	81.2501	287.109	82.8556	287.109	80.7103	287.109	82.5484	287.109	80.2074	287.109	82.2977	287.109	79.8002	287.109	82.0925	287.109	79.5515	287.109	81.9069	287.109	79.4984	287.109	81.7184	287.109	79.6273	287.109	81.5202	287.109	79.879	287.109	81.3205	287.109	80.1794	287.109	81.1271	287.109	80.4696	287.109	80.9338	287.109	80.7209
297.363	84.3652	297.363	84.1846	297.363	84.4509	297.363	83.9211	297.363	84.4357	297.363	83.5894	297.363	84.3208	297.363	83.2045	297.363	84.116	297.363	82.7779	297.363	83.8391	297.363	82.3162	297.363	83.5133	297.363	81.822	297.363	83.1633	297.363	81.2985	297.363	82.8102	297.363	80.7584	297.363	82.4695	297.363	80.235	297.363	82.1516	297.363	79.7887	297.363	81.8668	297.363	79.498	297.363	81.6268	297.363	79.4259	297.363	81.4429	297.363	79.5768	297.363	81.3175	297.363	79.8866	297.363	81.2355	297.363	80.258	297.363	81.1626	297.363	80.6047	297.363	81.0552	297.363	80.8751
307.617	84.3896	307.617	84.2167	307.617	84.4701	307.617	83.969	307.617	84.4447	307.617	83.664	307.617	84.3084	307.617	83.3152	307.617	84.0675	307.617	82.9298	307.617	83.7421	307.617	82.5089	307.617	83.3638	307.617	82.0498	307.617	82.969	307.617	81.5519	307.617	82.5864	307.617	81.0233	307.617	82.2265	307.617	80.4892	307.617	81.8827	307.617	79.9976	307.617	81.5464	307.617	79.6173	307.617	81.2264	307.617	79.4174	307.617	80.955	307.617	79.4298	307.617	80.7684	307.617	79.6228	307.617	80.6727	307.617	79.913	307.617	80.6275	307.617	80.2058	307.617	80.5662	307.617	80.4322
319.336	84.0461	319.336	83.8181	319.336	84.181	319.336	83.5224	319.336	84.2027	319.336	83.1855	319.336	84.1	319.336	82.8284	319.336	83.8736	319.336	82.4609	319.336	83.5383	319.336	82.0798	319.336	83.1247	319.336	81.6731	319.336	82.6767	319.336	81.2302	319.336	82.2402	319.336	80.7547	319.336	81.8463	319.336	80.2762	319.336	81.5001	319.336	79.8556	319.336	81.1895	319.336	79.5731	319.336	80.9114	319.336	79.4918	319.336	80.6899	319.336	79.6153	319.336	80.5641	319.336	79.8791	319.336	80.5469	319.336	80.1846	319.336	80.5972	319.336	80.4425	319.336	80.6376	319.336	80.5973
329.59	83.9468	329.59	83.7053	329.59	84.0956	329.59	83.394	329.59	84.1355	329.59	83.0393	329.59	84.0589	329.59	82.6642	329.59	83.867	329.59	82.2816	329.59	83.5706	329.59	81.8896	329.59	83.1899	329.59	81.4738	329.59	82.7529	329.59	81.0181	329.59	82.29	329.59	80.5195	329.59	81.8246	329.59	80.0047	329.59	81.368	329.59	79.5416	329.59	80.9257	329.59	79.2295	329.59	80.5179	329.59	79.1528	329.59	80.1961	329.59	79.3171	329.59	80.0268	329.59	79.6347	329.59	80.035	329.59	79.9762	329.59	80.1635	329.59	80.2319	329.59	80.3	329.59	80.341
341.309	83.7087	341.309	83.4808	341.309	83.8342	341.309	83.1746	341.309	83.8443	341.309	82.8206	341.309	83.7394	341.309	82.4478	341.309	83.5328	341.309	82.074	341.309	83.249	341.309	81.699	341.309	82.9189	341.309	81.306	341.309	82.5725	341.309	80.872	341.309	82.2289	341.309	80.3843	341.309	81.89	341.309	79.8591	341.309	81.5424	341.309	79.3577	341.309	81.1715	341.309	78.9857	341.309	80.7834	341.309	78.8513	341.309	80.4231	341.309	78.9876	341.309	80.1659	341.309	79.315	341.309	80.0656	341.309	79.6917	341.309	80.0973	341.309	79.9921	341.309	80.1617	341.309	80.1486
353.027	83.629	353.027	83.325	353.027	83.8058	353.027	82.9241	353.027	83.8376	353.027	82.4652	353.027	83.7201	353.027	81.9888	353.027	83.4637	353.027	81.5244	353.027	83.0945	353.027	81.0806	353.027	82.6521	353.027	80.6419	353.027	82.1826	353.027	80.1804	353.027	81.7235	353.027	79.6757	353.027	81.288	353.027	79.1393	353.027	80.8642	353.027	78.6372	353.027	80.4376	353.027	78.2929	353.027	80.0282	353.027	78.2363	353.027	79.7108	353.027	78.5016	353.027	79.5812	353.027	78.9796	353.027	79.6668	353.027	79.4915	353.027	79.8759	353.027	79.8857	353.027	80.0551	353.027	80.0779
366.211	83.5117	366.211	83.2276	366.211	83.6713	366.211	82.844	366.211	83.6923	366.211	82.3937	366.211	83.5729	366.211	81.9116	366.211	83.3253	366.211	81.4252	366.211	82.9769	366.211	80.9433	366.211	82.5677	366.211	80.4536	366.211	82.1407	366.211	79.9296	366.211	81.7218	366.211	79.3505	366.211	81.3021	366.211	78.7261	366.211	80.8392	366.211	78.1239	366.211	80.289	366.211	77.6798	366.211	79.6593	366.211	77.5475	366.211	79.0614	366.211	77.7784	366.211	78.6936	366.211	78.255	366.211	78.6839	366.211	78.7729	366.211	78.9337	366.211	79.1565	366.211	79.2051	366.211	79.3062
379.395	83.9256	379.395	83.7047	379.395	84.0221	379.395	83.3799	379.395	83.9837	379.395	82.9781	379.395	83.8114	379.395	82.5272	379.395	83.5197	379.395	82.0485	379.395	83.1382	379.395	81.5483	379.395	82.7099	379.395	81.0146	379.395	82.2824	379.395	80.4209	379.395	81.8887	379.395	79.7386	379.395	81.5251	379.395	78.9574	379.395	81.1448	379.395	78.1143	379.395	80.6798	379.395	77.3279	379.395	80.084	379.395	76.7997	379.395	79.3838	379.395	76.7012	379.395	78.7098	379.395	76.9978	379.395	78.2493	379.395	77.4619	379.395	78.0849	379.395	77.8586	379.395	78.0939	379.395	78.0653
392.578	83.1612	392.578	82.8979	392.578	83.3124	392.578	82.5585	392.578	83.3308	392.578	82.1875	392.578	83.2127	392.578	81.8246	392.578	82.9724	392.578	81.4884	392.578	82.6424	392.578	81.1656	392.578	82.2712	392.578	80.8183	392.578	81.9118	392.578	80.4016	392.578	81.5992	392.578	79.8855	392.578	81.3268	392.578	79.2742	392.578	81.0427	392.578	78.6245	392.578	80.6792	392.578	78.0579	392.578	80.2026	392.578	77.7343	392.578	79.6625	392.578	77.7561	392.578	79.2034	392.578	78.0719	392.578	78.9775	392.578	78.507	392.578	78.9905	392.578	78.8794	392.578	79.0837	392.578	79.0771
405.762	82.6861	405.762	82.4191	405.762	82.7986	405.762	82.0337	405.762	82.7415	405.762	81.5848	405.762	82.5201	405.762	81.1357	405.762	82.1616	405.762	80.7361	405.762	81.7177	405.762	80.397	405.762	81.2624	405.762	80.0846	405.762	80.8756	405.762	79.7415	405.762	80.6058	405.762	79.32	405.762	80.4333	405.762	78.8132	405.762	80.2732	405.762	78.2786	405.762	80.0253	405.762	77.8457	405.762	79.6403	405.762	77.6721	405.762	79.1744	405.762	77.8304	405.762	78.7969	405.762	78.2312	405.762	78.6818	405.762	78.6862	405.762	78.827	405.762	79.0237	405.762	79.0476	405.762	79.1463
420.41	83.3813	420.41	83.0783	420.41	83.5018	420.41	82.6269	420.41	83.425	420.41	82.0798	420.41	83.1547	420.41	81.5008	420.41	82.7156	420.41	80.9446	420.41	82.1557	420.41	80.4308	420.41	81.547	420.41	79.93	420.41	80.9735	420.41	79.3787	420.41	80.4979	420.41	78.7145	420.41	80.1215	420.41	77.9174	420.41	79.7741	420.41	77.0595	420.41	79.3566	420.41	76.3563	420.41	78.817	420.41	76.1203	420.41	78.2327	420.41	76.492	420.41	77.8399	420.41	77.2493	420.41	77.8643	420.41	78.0317	420.41	78.2331	420.41	78.5833	420.41	78.63	420.41	78.7855
435.059	82.6622	435.059	82.3611	435.059	82.8027	435.059	81.9453	435.059	82.7597	435.059	81.4819	435.059	82.5337	435.059	81.0446	435.059	82.1513	435.059	80.6833	435.059	81.6715	435.059	80.3918	435.059	81.185	435.059	80.105	435.059	80.7915	435.059	79.7301	435.059	80.5424	435.059	79.187	435.059	80.3898	435.059	78.4434	435.059	80.2	435.059	77.5535	435.059	79.8244	435.059	76.7099	435.059	79.1782	435.059	76.2311	435.059	78.319	435.059	76.3293	435.059	77.5206	435.059	76.8558	435.059	77.1697	435.059	77.4601	435.059	77.3523	435.059	77.8707	435.059	77.7344	435.059	77.9613
451.172	83.1991	451.172	82.8062	451.172	83.352	451.172	82.2093	451.172	83.2495	451.172	81.4752	451.172	82.891	451.172	80.7093	451.172	82.2946	451.172	80.0367	451.172	81.5124	451.172	79.5413	451.172	80.6568	451.172	79.2013	451.172	79.9145	451.172	78.8989	451.172	79.476	451.172	78.4968	451.172	79.3684	451.172	77.9099	451.172	79.3938	451.172	77.1597	451.172	79.2826	451.172	76.4378	451.172	78.8646	451.172	76.1072	451.172	78.1669	451.172	76.4211	451.172	77.4915	451.172	77.1856	451.172	77.3008	451.172	77.9753	451.172	77.6923	451.172	78.4832	451.172	78.2533	451.172	78.5751
465.82	83.1304	465.82	82.7884	465.82	83.2636	465.82	82.2662	465.82	83.1751	465.82	81.6149	465.82	82.8632	465.82	80.9117	465.82	82.3368	465.82	80.2476	465.82	81.6221	465.82	79.6879	465.82	80.7815	465.82	79.2263	465.82	79.9401	465.82	78.7783	465.82	79.2819	465.82	78.2239	465.82	78.9404	465.82	77.4651	465.82	78.8358	465.82	76.4833	465.82	78.6954	465.82	75.4315	465.82	78.2467	465.82	74.7347	465.82	77.3813	465.82	74.8477	465.82	76.3073	465.82	75.6337	465.82	75.6567	465.82	76.511	465.82	75.9014	465.82	77.0498	465.82	76.5944	465.82	77.073
483.398	82.7197	483.398	82.3822	483.398	82.8271	483.398	81.8467	483.398	82.6972	483.398	81.1828	483.398	82.3407	483.398	80.5022	483.398	81.7848	483.398	79.9333	483.398	81.0785	483.398	79.547	483.398	80.3053	483.398	79.294	483.398	79.5939	483.398	79.0289	483.398	79.0969	483.398	78.5926	483.398	78.8997	483.398	77.8707	483.398	78.9195	483.398	76.8325	483.398	78.9341	483.398	75.6132	483.398	78.7156	483.398	74.6568	483.398	78.1473	483.398	74.5579	483.398	77.3192	483.398	75.2852	483.398	76.6004	483.398	76.1907	483.398	76.4111	483.398	76.7873	483.398	76.6761	483.398	76.9186
499.512	82.895	499.512	82.4977	499.512	83.0225	499.512	81.8548	499.512	82.8758	499.512	81.0292	499.512	82.4652	499.512	80.1472	499.512	81.8179	499.512	79.4008	499.512	80.9906	499.512	78.9592	499.512	80.09	499.512	78.8192	499.512	79.2893	499.512	78.7902	499.512	78.7867	499.512	78.6379	499.512	78.6666	499.512	78.1929	499.512	78.7905	499.512	77.3789	499.512	78.8845	499.512	76.2528	499.512	78.7096	499.512	75.1402	499.512	78.1726	499.512	74.6896	499.512	77.4157	499.512	75.2209	499.512	76.8521	499.512	76.1909	499.512	76.8265	499.512	76.9627	499.512	77.1263	499.512	77.2672
517.09	83.5066	517.09	83.146	517.09	83.6044	517.09	82.5459	517.09	83.4366	517.09	81.7597	517.09	83.0167	517.09	80.8836	517.09	82.3754	517.09	80.0575	517.09	81.5636	517.09	79.4186	517.09	80.6604	517.09	79.0079	517.09	79.7827	517.09	78.723	517.09	79.0808	517.09	78.3794	517.09	78.6754	517.09	77.8024	517.09	78.5416	517.09	76.8822	517.09	78.4778	517.09	75.6437	517.09	78.2304	517.09	74.43	517.09	77.6581	517.09	74.0092	517.09	76.8726	517.09	74.7208	517.09	76.3057	517.09	75.8472	517.09	76.3422	517.09	76.678	517.09	76.7418	517.09	76.9606
536.133	83.6824	536.133	83.2301	536.133	83.7719	536.133	82.4278	536.133	83.5012	536.133	81.3274	536.133	82.8846	536.133	80.077	536.133	81.9568	536.133	78.9893	536.133	80.7968	536.133	78.4484	536.133	79.5741	536.133	78.5287	536.133	78.591	536.133	78.8841	536.133	78.1881	536.133	79.1232	536.133	78.4278	536.133	79.0192	536.133	78.9841	536.133	78.4799	536.133	79.4357	536.133	77.5206	536.133	79.4878	536.133	76.3556	536.133	79.0191	536.133	75.5707	536.133	78.1602	536.133	75.7856	536.133	77.4219	536.133	76.7135	536.133	77.3569	536.133	77.5725	536.133	77.7426	536.133	77.9283
555.176	84.5743	555.176	84.1385	555.176	84.6823	555.176	83.3707	555.176	84.4612	555.176	82.2656	555.176	83.9061	555.176	80.8392	555.176	83.0104	555.176	79.2003	555.176	81.7713	555.176	77.6918	555.176	80.2097	555.176	76.8902	555.176	78.4586	555.176	76.9975	555.176	76.9851	555.176	77.4959	555.176	76.5879	555.176	77.8188	555.176	77.3304	555.176	77.7056	555.176	78.3003	555.176	77.1371	555.176	78.7973	555.176	76.3536	555.176	78.591	555.176	75.9368	555.176	77.8177	555.176	76.3691	555.176	77.0886	555.176	77.2974	555.176	77.1498	555.176	78.0335	555.176	77.7814	555.176	78.2036
574.219	84.9069	574.219	84.542	574.219	84.9948	574.219	83.895	574.219	84.8039	574.219	82.9574	574.219	84.3287	574.219	81.7322	574.219	83.5654	574.219	80.2737	574.219	82.5201	574.219	78.7733	574.219	81.2209	574.219	77.6311	574.219	79.7499	574.219	77.2188	574.219	78.3211	574.219	77.391	574.219	77.3742	574.219	77.6373	574.219	77.3398	574.219	77.5725	574.219	78.0085	574.219	77.0606	574.219	78.6882	574.219	76.2398	574.219	78.8747	574.219	75.646	574.219	78.451	574.219	75.913	574.219	77.738	574.219	76.8265	574.219	77.401	574.219	77.6242	574.219	77.6422	574.219	77.8818
594.727	85.2299	594.727	84.9257	594.727	85.2802	594.727	84.3668	594.727	85.0686	594.727	83.544	594.727	84.5844	594.727	82.4535	594.727	83.8229	594.727	81.1301	594.727	82.792	594.727	79.7093	594.727	81.5207	594.727	78.4809	594.727	80.0863	594.727	77.7624	594.727	78.6819	594.727	77.5505	594.727	77.6872	594.727	77.4902	594.727	77.4756	594.727	77.2418	594.727	77.9107	594.727	76.701	594.727	78.4171	594.727	76.075	594.727	78.5466	594.727	75.8672	594.727	78.2246	594.727	76.3995	594.727	77.7905	594.727	77.3151	594.727	77.7474	594.727	78.0477	594.727	78.0835	594.727	78.299
615.234	85.5854	615.234	85.2466	615.234	85.642	615.234	84.6408	615.234	85.4021	615.234	83.7851	615.234	84.8587	615.234	82.7107	615.234	84.0192	615.234	81.496	615.234	82.9094	615.234	80.3111	615.234	81.5754	615.234	79.4091	615.234	80.0943	615.234	78.9488	615.234	78.6178	615.234	78.7924	615.234	77.449	615.234	78.6069	615.234	76.9868	615.234	78.0992	615.234	77.2694	615.234	77.1292	615.234	77.7525	615.234	75.8527	615.234	77.8662	615.234	75.0562	615.234	77.4695	615.234	75.6496	615.234	77.0195	615.234	77.0191	615.234	77.2314	615.234	78.0697	615.234	77.9442	615.234	78.37
637.207	85.234	637.207	84.8726	637.207	85.3294	637.207	84.2536	637.207	85.146	637.207	83.3739	637.207	84.6774	637.207	82.2256	637.207	83.927	637.207	80.8343	637.207	82.9068	637.207	79.3519	637.207	81.6438	637.207	78.1664	637.207	80.2093	637.207	77.7103	637.207	78.7619	637.207	77.8883	637.207	77.569	637.207	78.1584	637.207	76.9488	637.207	78.1023	637.207	77.0349	637.207	77.571	637.207	77.5201	637.207	76.6819	637.207	77.8768	637.207	75.961	637.207	77.8342	637.207	76.1507	637.207	77.6186	637.207	77.1377	637.207	77.7402	637.207	78.075	637.207	78.2011	637.207	78.4413
659.18	85.383	659.18	85.1129	659.18	85.4237	659.18	84.6151	659.18	85.2199	659.18	83.8677	659.18	84.756	659.18	82.8257	659.18	84.0248	659.18	81.4388	659.18	83.033	659.18	79.7079	659.18	81.8062	659.18	77.8262	659.18	80.4043	659.18	76.3741	659.18	78.9483	659.18	75.959	659.18	77.6457	659.18	76.2672	659.18	76.7579	659.18	76.5165	659.18	76.4161	659.18	76.2934	659.18	76.393	659.18	75.6381	659.18	76.273	659.18	75.1402	659.18	75.9758	659.18	75.6549	659.18	76.0717	659.18	76.9634	659.18	76.9812	659.18	78.0907	659.18	78.036	659.18	78.4871
682.617	84.6761	682.617	84.4939	682.617	84.6172	682.617	84.0678	682.617	84.3159	682.617	83.388	682.617	83.774	682.617	82.4449	682.617	83.0008	682.617	81.2559	682.617	82.0169	682.617	79.9212	682.617	80.863	682.617	78.6898	682.617	79.6257	682.617	77.8966	682.617	78.4611	682.617	77.6325	682.617	77.5762	682.617	77.5788	682.617	77.1293	682.617	77.314	682.617	77.0682	682.617	76.5784	682.617	77.0485	682.617	75.3918	682.617	76.6188	682.617	74.341	682.617	75.6107	682.617	74.4967	682.617	74.7088	682.617	75.7044	682.617	75.1476	682.617	76.7655	682.617	76.349	682.617	77.0234
707.52	84.4197	707.52	84.2175	707.52	84.4418	707.52	83.8315	707.52	84.2644	707.52	83.2361	707.52	83.8467	707.52	82.3855	707.52	83.1377	707.52	81.2259	707.52	82.0938	707.52	79.7382	707.52	80.7025	707.52	78.0592	707.52	79.0202	707.52	76.6849	707.52	77.2616	707.52	76.265	707.52	75.9345	707.52	76.6303	707.52	75.6567	707.52	76.9607	707.52	76.3451	707.52	76.7088	707.52	77.1712	707.52	75.7435	707.52	77.4147	707.52	74.5172	707.52	76.8504	707.52	74.3846	707.52	76.0286	707.52	75.7218	707.52	76.1531	707.52	77.0706	707.52	77.0706	707.52	77.5548
732.422	84.5572	732.422	84.4266	732.422	84.4339	732.422	84.0568	732.422	84.0541	732.422	83.4589	732.422	83.4352	732.422	82.6228	732.422	82.6121	732.422	81.5159	732.422	81.6188	732.422	80.1232	732.422	80.467	732.422	78.5566	732.422	79.1723	732.422	77.2136	732.422	77.8476	732.422	76.6248	732.422	76.7427	732.422	76.7264	732.422	76.0739	732.422	76.8595	732.422	75.8528	732.422	76.5005	732.422	75.9026	732.422	75.4822	732.422	75.8043	732.422	74.1307	732.422	75.1189	732.422	73.5893	732.422	74.0954	732.422	74.4863	732.422	74.0749	732.422	75.5923	732.422	75.1679	732.422	75.8861
757.324	84.5767	757.324	84.4667	757.324	84.4068	757.324	84.1007	757.324	83.9453	757.324	83.4927	757.324	83.2134	757.324	82.6303	757.324	82.2713	757.324	81.4731	757.324	81.1961	757.324	79.9912	757.324	80.0396	757.324	78.2878	757.324	78.8043	757.324	76.8239	757.324	77.4683	757.324	76.3146	757.324	76.1011	757.324	76.7308	757.324	75.1452	757.324	77.2619	757.324	75.2831	757.324	77.3187	757.324	76.1319	757.324	76.7157	757.324	76.5216	757.324	75.6319	757.324	75.8059	757.324	74.8049	757.324	74.2362	757.324	75.0049	757.324	73.5988	757.324	75.6469	757.324	74.7221	757.324	75.6771
785.156	85.3114	785.156	85.1677	785.156	85.2084	785.156	84.812	785.156	84.845	785.156	84.2824	785.156	84.2344	785.156	83.5972	785.156	83.4032	785.156	82.7307	785.156	82.3587	785.156	81.6057	785.156	81.0794	785.156	80.118	785.156	79.5654	785.156	78.2212	785.156	77.9136	785.156	76.1886	785.156	76.3173	785.156	75.0052	785.156	75.0075	785.156	75.2896	785.156	74.4346	785.156	75.9348	785.156	75.0493	785.156	75.9725	785.156	76.1204	785.156	75.4268	785.156	76.6533	785.156	75.2798	785.156	76.6794	785.156	76.331	785.156	77.0183	785.156	77.6298	785.156	77.8007	785.156	78.1766
811.523	84.814	811.523	84.7872	811.523	84.5627	811.523	84.47	811.523	84.0578	811.523	83.8685	811.523	83.3361	811.523	83.0162	811.523	82.4401	811.523	81.9793	811.523	81.3857	811.523	80.8461	811.523	80.1332	811.523	79.6981	811.523	78.6402	811.523	78.5959	811.523	77.037	811.523	77.6247	811.523	75.7792	811.523	76.9351	811.523	75.2541	811.523	76.6002	811.523	75.2045	811.523	76.3988	811.523	75.2327	811.523	75.9538	811.523	75.1399	811.523	75.1235	811.523	74.73	811.523	74.3605	811.523	74.1644	811.523	74.4797	811.523	74.2658	811.523	75.2222	811.523	75.0798	811.523	75.5609
840.82	84.9905	840.82	85.1078	840.82	84.6014	840.82	84.9008	840.82	84.0027	840.82	84.3281	840.82	83.272	840.82	83.3691	840.82	82.4815	840.82	82.0459	840.82	81.6317	840.82	80.467	840.82	80.629	840.82	78.8753	840.82	79.3831	840.82	77.5908	840.82	77.9105	840.82	76.7833	840.82	76.2977	840.82	76.3808	840.82	74.6687	840.82	76.2424	840.82	73.6533	840.82	76.1833	840.82	74.1222	840.82	75.8922	840.82	74.966	840.82	75.1329	840.82	74.7616	840.82	74.2809	840.82	73.8269	840.82	74.5057	840.82	74.264	840.82	75.6953	840.82	75.7648	840.82	76.3624
870.117	84.4634	870.117	84.5926	870.117	84.0646	870.117	84.3825	870.117	83.4779	870.117	83.7958	870.117	82.7688	870.117	82.8215	870.117	81.9651	870.117	81.4516	870.117	81.0462	870.117	79.7004	870.117	79.9753	870.117	77.7483	870.117	78.8209	870.117	76.1814	870.117	77.8488	870.117	75.6705	870.117	77.1998	870.117	75.9045	870.117	76.4276	870.117	76.045	870.117	74.9392	870.117	75.7435	870.117	72.9786	870.117	75.2317	870.117	71.9386	870.117	75.0583	870.117	71.6365	870.117	75.4831	870.117	71.3282	870.117	76.1673	870.117	72.583	870.117	76.5719	870.117	74.8126	870.117	76.2277
900.879	84.471	900.879	84.8063	900.879	83.8378	900.879	84.7128	900.879	83.0869	900.879	84.1302	900.879	82.3782	900.879	83.057	900.879	81.759	900.879	81.5303	900.879	81.0998	900.879	79.612	900.879	80.1342	900.879	77.41	900.879	78.6133	900.879	75.2082	900.879	76.5396	900.879	73.7366	900.879	74.5854	900.879	73.7005	900.879	73.9993	900.879	74.4309	900.879	74.7028	900.879	74.7893	900.879	75.5865	900.879	74.2466	900.879	75.8157	900.879	72.9455	900.879	74.695	900.879	72.4055	900.879	72.2188	900.879	74.0115	900.879	72.0166	900.879	75.7694	900.879	74.7238	900.879	76.154
933.105	84.6039	933.105	84.8247	933.105	83.9203	933.105	84.5393	933.105	82.9397	933.105	83.8003	933.105	81.9314	933.105	82.6958	933.105	81.134	933.105	81.2584	933.105	80.5394	933.105	79.4317	933.105	79.8645	933.105	77.1481	933.105	78.8132	933.105	74.4923	933.105	77.3602	933.105	72.1464	933.105	75.872	933.105	71.6644	933.105	74.702	933.105	73.0593	933.105	73.6308	933.105	74.6736	933.105	73.0089	933.105	75.5818	933.105	73.6619	933.105	75.4907	933.105	74.0167	933.105	74.6372	933.105	72.8842	933.105	74.26	933.105	72.378	933.105	75.0742	933.105	74.2874	933.105	75.469
965.332	84.4333	965.332	84.7123	965.332	83.6359	965.332	84.3977	965.332	82.5305	965.332	83.5185	965.332	81.4452	965.332	82.2087	965.332	80.628	965.332	80.6947	965.332	80.0093	965.332	79.1892	965.332	79.2751	965.332	77.7443	965.332	78.1344	965.332	76.2471	965.332	76.5129	965.332	74.5763	965.332	74.8345	965.332	72.8039	965.332	74.0719	965.332	71.487	965.332	74.2563	965.332	71.4637	965.332	74.6496	965.332	72.3078	965.332	75.1225	965.332	72.8763	965.332	75.0822	965.332	72.8878	965.332	73.795	965.332	73.0097	965.332	72.3231	965.332	73.6719	965.332	72.9891	965.332	73.9108
1,000.49	84.7185	1,000.49	84.8915	1,000.49	83.9343	1,000.49	84.4273	1,000.49	82.706	1,000.49	83.3866	1,000.49	81.3756	1,000.49	81.8898	1,000.49	80.3287	1,000.49	80.0771	1,000.49	79.681	1,000.49	78.0228	1,000.49	79.1653	1,000.49	75.7167	1,000.49	78.4121	1,000.49	73.4183	1,000.49	77.2744	1,000.49	72.3372	1,000.49	75.9551	1,000.49	72.9604	1,000.49	74.6212	1,000.49	73.6362	1,000.49	72.6748	1,000.49	73.4621	1,000.49	70.403	1,000.49	72.6671	1,000.49	71.7149	1,000.49	71.9355	1,000.49	73.5383	1,000.49	71.6716	1,000.49	73.1689	1,000.49	71.9209	1,000.49	71.8809	1,000.49	72.5337	1,000.49	72.1124	1,000.49	72.7648
1,035.64	84.6297	1,035.64	84.887	1,035.64	83.6961	1,035.64	84.425	1,035.64	82.288	1,035.64	83.2958	1,035.64	80.8091	1,035.64	81.6217	1,035.64	79.7069	1,035.64	79.5908	1,035.64	79.0744	1,035.64	77.4215	1,035.64	78.5376	1,035.64	75.2551	1,035.64	77.6528	1,035.64	73.1281	1,035.64	76.4071	1,035.64	71.423	1,035.64	75.5869	1,035.64	71.2641	1,035.64	75.6826	1,035.64	72.3685	1,035.64	75.354	1,035.64	73.1434	1,035.64	73.4058	1,035.64	72.9846	1,035.64	71.4153	1,035.64	72.1123	1,035.64	72.3125	1,035.64	71.4163	1,035.64	72.5946	1,035.64	71.8519	1,035.64	71.3904	1,035.64	72.6438	1,035.64	71.3269	1,035.64	72.4678
1,072.27	84.7527	1,072.27	84.7409	1,072.27	84.0296	1,072.27	84.0829	1,072.27	82.6484	1,072.27	82.9019	1,072.27	80.943	1,072.27	81.3075	1,072.27	79.3645	1,072.27	79.4921	1,072.27	78.2871	1,072.27	77.9312	1,072.27	77.7832	1,072.27	77.207	1,072.27	77.2157	1,072.27	76.8497	1,072.27	75.658	1,072.27	75.3635	1,072.27	72.9536	1,072.27	71.2821	1,072.27	73.2839	1,072.27	67.3581	1,072.27	75.5003	1,072.27	71.4852	1,072.27	74.472	1,072.27	73.5294	1,072.27	69.0262	1,072.27	73.2796	1,072.27	70.7862	1,072.27	72.066	1,072.27	74.265	1,072.27	71.9215	1,072.27	74.4543	1,072.27	72.8639	1,072.27	73.6671	1,072.27	73.3524
1,108.89	85.3171	1,108.89	85.3156	1,108.89	84.6384	1,108.89	84.7475	1,108.89	83.4065	1,108.89	83.8231	1,108.89	81.9655	1,108.89	82.6592	1,108.89	80.5657	1,108.89	81.1753	1,108.89	79.3534	1,108.89	79.2745	1,108.89	78.6957	1,108.89	77.4078	1,108.89	78.4931	1,108.89	76.4859	1,108.89	77.6778	1,108.89	75.7533	1,108.89	74.9517	1,108.89	73.4215	1,108.89	71.3903	1,108.89	68.848	1,108.89	74.6562	1,108.89	69.4864	1,108.89	76.7423	1,108.89	73.3481	1,108.89	74.6849	1,108.89	75.0332	1,108.89	67.917	1,108.89	75.2055	1,108.89	71.9895	1,108.89	75.0045	1,108.89	75.6609	1,108.89	75.4653	1,108.89	76.4728	1,108.89	76.186
1,148.44	85.9487	1,148.44	85.8394	1,148.44	85.4345	1,148.44	85.1754	1,148.44	84.4708	1,148.44	84.2307	1,148.44	83.3496	1,148.44	83.3152	1,148.44	82.1206	1,148.44	82.3565	1,148.44	80.6631	1,148.44	80.815	1,148.44	79.1987	1,148.44	78.4102	1,148.44	78.2198	1,148.44	76.5452	1,148.44	77.4853	1,148.44	76.5126	1,148.44	75.7648	1,148.44	75.8043	1,148.44	72.3247	1,148.44	72.888	1,148.44	72.7826	1,148.44	69.9794	1,148.44	76.0667	1,148.44	72.3698	1,148.44	75.802	1,148.44	74.9007	1,148.44	70.0902	1,148.44	76.1363	1,148.44	68.9027	1,148.44	76.6948	1,148.44	75.3367	1,148.44	77.2015	1,148.44	77.3951	1,148.44	77.6544
1,189.45	85.6015	1,189.45	85.6981	1,189.45	84.9271	1,189.45	85.1043	1,189.45	83.9524	1,189.45	83.9689	1,189.45	82.9345	1,189.45	82.7647	1,189.45	81.9703	1,189.45	81.8559	1,189.45	81.086	1,189.45	80.6775	1,189.45	80.2519	1,189.45	78.3016	1,189.45	79.3502	1,189.45	75.294	1,189.45	78.2434	1,189.45	74.7962	1,189.45	76.54	1,189.45	74.8172	1,189.45	72.762	1,189.45	72.4916	1,189.45	68.1597	1,189.45	68.7186	1,189.45	75.2935	1,189.45	69.8019	1,189.45	77.5332	1,189.45	72.8207	1,189.45	74.031	1,189.45	75.1056	1,189.45	63.8926	1,189.45	76.8571	1,189.45	74.0495	1,189.45	77.9169	1,189.45	77.2629	1,189.45	78.1158
1,230.47	85.4243	1,230.47	85.6775	1,230.47	84.5516	1,230.47	85.2569	1,230.47	83.2628	1,230.47	84.1292	1,230.47	82.0201	1,230.47	82.4523	1,230.47	81.0677	1,230.47	80.801	1,230.47	80.2771	1,230.47	79.3136	1,230.47	79.5745	1,230.47	76.6656	1,230.47	78.6795	1,230.47	71.5802	1,230.47	77.3202	1,230.47	70.3155	1,230.47	76.0951	1,230.47	73.2808	1,230.47	74.7243	1,230.47	73.4933	1,230.47	70.5993	1,230.47	71.8204	1,230.47	71.5357	1,230.47	70.1372	1,230.47	76.1822	1,230.47	70.9278	1,230.47	74.9024	1,230.47	74.332	1,230.47	65.6222	1,230.47	77.1948	1,230.47	71.6037	1,230.47	78.3512	1,230.47	76.3839	1,230.47	78.0564
1,274.41	85.1442	1,274.41	85.3901	1,274.41	84.3492	1,274.41	85.0622	1,274.41	83.2206	1,274.41	84.0683	1,274.41	82.0149	1,274.41	82.2209	1,274.41	80.6947	1,274.41	79.8186	1,274.41	79.4479	1,274.41	78.03	1,274.41	78.745	1,274.41	76.527	1,274.41	78.2628	1,274.41	73.5902	1,274.41	77.1518	1,274.41	68.2567	1,274.41	75.6076	1,274.41	63.0017	1,274.41	74.5994	1,274.41	63.1572	1,274.41	72.2487	1,274.41	66.6289	1,274.41	67.9333	1,274.41	69.5058	1,274.41	73.2162	1,274.41	69.6702	1,274.41	74.1539	1,274.41	69.7546	1,274.41	67.9412	1,274.41	74.6458	1,274.41	65.7687	1,274.41	77.4065	1,274.41	74.1083	1,274.41	77.1464
1,319.82	84.8968	1,319.82	85.0857	1,319.82	84.2125	1,319.82	84.6762	1,319.82	83.1267	1,319.82	83.5494	1,319.82	81.759	1,319.82	81.5475	1,319.82	80.1078	1,319.82	78.6285	1,319.82	78.3288	1,319.82	75.7418	1,319.82	77.2078	1,319.82	74.1659	1,319.82	76.7218	1,319.82	72.1881	1,319.82	75.5183	1,319.82	69.644	1,319.82	73.3373	1,319.82	70.0725	1,319.82	71.6895	1,319.82	68.3624	1,319.82	70.0001	1,319.82	58.6388	1,319.82	70.8648	1,319.82	68.0741	1,319.82	74.0825	1,319.82	72.5099	1,319.82	73.6457	1,319.82	71.0788	1,319.82	67.8602	1,319.82	71.6923	1,319.82	64.8748	1,319.82	75.4557	1,319.82	72.9675	1,319.82	75.9002
1,366.7	84.321	1,366.7	84.859	1,366.7	83.5794	1,366.7	84.7068	1,366.7	82.8147	1,366.7	83.5462	1,366.7	81.7613	1,366.7	81.3568	1,366.7	80.181	1,366.7	78.2004	1,366.7	78.4172	1,366.7	74.632	1,366.7	77.0995	1,366.7	72.1775	1,366.7	76.379	1,366.7	68.5105	1,366.7	75.4419	1,366.7	56.393	1,366.7	73.4383	1,366.7	66.0892	1,366.7	70.0462	1,366.7	69.0447	1,366.7	64.6063	1,366.7	65.1063	1,366.7	65.6445	1,366.7	65.1994	1,366.7	69.9875	1,366.7	71.7242	1,366.7	71.4371	1,366.7	72.1684	1,366.7	69.3319	1,366.7	70.4671	1,366.7	65.6373	1,366.7	73.5444	1,366.7	72.2838	1,366.7	75.0069
1,413.57	84.2403	1,413.57	84.6823	1,413.57	83.0277	1,413.57	83.956	1,413.57	81.9878	1,413.57	82.4337	1,413.57	81.0139	1,413.57	80.5191	1,413.57	79.1046	1,413.57	77.9445	1,413.57	77.0036	1,413.57	74.8027	1,413.57	76.3273	1,413.57	73.2913	1,413.57	75.9265	1,413.57	73.4323	1,413.57	74.9053	1,413.57	71.5167	1,413.57	73.6264	1,413.57	64.0019	1,413.57	71.8348	1,413.57	66.3398	1,413.57	66.7051	1,413.57	65.3754	1,413.57	53.6646	1,413.57	60.2519	1,413.57	69.9879	1,413.57	70.2526	1,413.57	72.4246	1,413.57	70.9792	1,413.57	68.5316	1,413.57	69.281	1,413.57	65.4162	1,413.57	71.3231	1,413.57	70.724	1,413.57	72.3104
1,463.38	84.9033	1,463.38	84.7145	1,463.38	83.8955	1,463.38	83.4664	1,463.38	82.1681	1,463.38	81.7386	1,463.38	79.8761	1,463.38	79.7554	1,463.38	77.009	1,463.38	77.4013	1,463.38	76.3133	1,463.38	75.0751	1,463.38	77.2702	1,463.38	74.1113	1,463.38	76.9269	1,463.38	74.5861	1,463.38	74.9767	1,463.38	73.3235	1,463.38	73.5059	1,463.38	68.9682	1,463.38	73.8096	1,463.38	69.9753	1,463.38	71.8392	1,463.38	69.003	1,463.38	61.4607	1,463.38	59.873	1,463.38	65.8988	1,463.38	70.1327	1,463.38	71.1173	1,463.38	70.0988	1,463.38	68.5847	1,463.38	66.5621	1,463.38	63.9182	1,463.38	69.2121	1,463.38	70.5964	1,463.38	72.0514
1,516.11	85.3085	1,516.11	84.9454	1,516.11	84.4517	1,516.11	83.4289	1,516.11	82.455	1,516.11	81.3264	1,516.11	78.9105	1,516.11	79.0619	1,516.11	75.2365	1,516.11	76.8143	1,516.11	75.8205	1,516.11	74.8214	1,516.11	76.5387	1,516.11	74.0653	1,516.11	76.0527	1,516.11	74.2134	1,516.11	73.934	1,516.11	72.5815	1,516.11	70.8162	1,516.11	69.0928	1,516.11	71.8805	1,516.11	70.5045	1,516.11	72.4836	1,516.11	68.6235	1,516.11	68.3656	1,516.11	42.3245	1,516.11	56.7698	1,516.11	66.607	1,516.11	65.167	1,516.11	68.8168	1,516.11	65.1603	1,516.11	66.7917	1,516.11	63.4787	1,516.11	68.2757	1,516.11	69.3954	1,516.11	71.1162
1,568.85	85.0927	1,568.85	84.5942	1,568.85	84.4689	1,568.85	83.4162	1,568.85	82.2595	1,568.85	81.5035	1,568.85	78.4857	1,568.85	78.5004	1,568.85	75.8305	1,568.85	74.4822	1,568.85	75.6733	1,568.85	70.7781	1,568.85	74.3443	1,568.85	69.9932	1,568.85	72.5225	1,568.85	70.3372	1,568.85	71.3726	1,568.85	68.7113	1,568.85	68.8407	1,568.85	67.5812	1,568.85	67.6285	1,568.85	70.3705	1,568.85	69.3602	1,568.85	68.734	1,568.85	67.0104	1,568.85	51.6806	1,568.85	60.5881	1,568.85	64.9664	1,568.85	58.9702	1,568.85	67.9034	1,568.85	61.3279	1,568.85	67.013	1,568.85	65.9046	1,568.85	66.5193	1,568.85	70.3301	1,568.85	70.5012
1,624.51	84.6446	1,624.51	84.5832	1,624.51	83.8581	1,624.51	83.6797	1,624.51	81.5824	1,624.51	81.4194	1,624.51	77.3561	1,624.51	77.8099	1,624.51	73.9607	1,624.51	73.5635	1,624.51	74.3042	1,624.51	68.8568	1,624.51	74.1542	1,624.51	67.1238	1,624.51	73.1956	1,624.51	68.5896	1,624.51	72.233	1,624.51	64.7043	1,624.51	70.0315	1,624.51	53.6967	1,624.51	66.9263	1,624.51	66.6871	1,624.51	68.2462	1,624.51	66.3969	1,624.51	65.4529	1,624.51	54.1782	1,624.51	55.3535	1,624.51	64.0868	1,624.51	63.6785	1,624.51	69.1066	1,624.51	54.5695	1,624.51	68.6394	1,624.51	65.9926	1,624.51	67.6414	1,624.51	71.6456	1,624.51	70.9463
1,681.64	84.5023	1,681.64	84.6106	1,681.64	83.4448	1,681.64	83.6939	1,681.64	80.3997	1,681.64	80.8122	1,681.64	74.3674	1,681.64	76.0089	1,681.64	71.0018	1,681.64	72.0806	1,681.64	73.7942	1,681.64	68.999	1,681.64	73.913	1,681.64	65.1298	1,681.64	72.9378	1,681.64	67.1157	1,681.64	71.9454	1,681.64	66.0395	1,681.64	68.3966	1,681.64	51.2033	1,681.64	62.1174	1,681.64	61.8626	1,681.64	69.5628	1,681.64	62.4077	1,681.64	70.947	1,681.64	56.4446	1,681.64	63.7095	1,681.64	60.565	1,681.64	59.551	1,681.64	67.2077	1,681.64	61.9874	1,681.64	66.8889	1,681.64	61.7398	1,681.64	67.6213	1,681.64	70.0292	1,681.64	70.1906
1,741.7	85.2912	1,741.7	84.7175	1,741.7	84.0313	1,741.7	83.1498	1,741.7	79.6366	1,741.7	80.2116	1,741.7	71.2542	1,741.7	74.8632	1,741.7	67.5669	1,741.7	67.2341	1,741.7	70.1134	1,741.7	66.0853	1,741.7	72.6317	1,741.7	66.5863	1,741.7	73.4905	1,741.7	66.3934	1,741.7	73.5382	1,741.7	62.4245	1,741.7	73.1776	1,741.7	54.8424	1,741.7	69.4506	1,741.7	48.5083	1,741.7	57.5954	1,741.7	63.1857	1,741.7	70.2761	1,741.7	59.746	1,741.7	69.0998	1,741.7	56.9182	1,741.7	59.0252	1,741.7	61.135	1,741.7	64.852	1,741.7	59.4997	1,741.7	44.3915	1,741.7	67.0415	1,741.7	68.4251	1,741.7	70.724
1,803.22	85.5518	1,803.22	85.3448	1,803.22	83.878	1,803.22	83.1987	1,803.22	79.3217	1,803.22	79.0534	1,803.22	67.5685	1,803.22	73.7209	1,803.22	67.5303	1,803.22	66.2893	1,803.22	73.2966	1,803.22	56.4491	1,803.22	75.6472	1,803.22	66.0139	1,803.22	75.6478	1,803.22	63.2658	1,803.22	75.1081	1,803.22	61.3064	1,803.22	75.4232	1,803.22	62.935	1,803.22	74.2254	1,803.22	51.6137	1,803.22	69.3779	1,803.22	62.7905	1,803.22	68.7246	1,803.22	64.2182	1,803.22	69.8703	1,803.22	49.0809	1,803.22	64.1908	1,803.22	57.8849	1,803.22	65.4732	1,803.22	52.4676	1,803.22	54.7448	1,803.22	63.1331	1,803.22	67.8876	1,803.22	69.7733
1,866.21	85.549	1,866.21	85.0052	1,866.21	84.0343	1,866.21	82.811	1,866.21	78.075	1,866.21	78.7155	1,866.21	63.6878	1,866.21	72.1844	1,866.21	74.568	1,866.21	58.5859	1,866.21	77.5636	1,866.21	63.0864	1,866.21	78.5313	1,866.21	65.149	1,866.21	77.1012	1,866.21	65.3862	1,866.21	75.0263	1,866.21	70.0282	1,866.21	75.1637	1,866.21	72.8333	1,866.21	75.9028	1,866.21	69.4084	1,866.21	75.3753	1,866.21	62.6886	1,866.21	69.6227	1,866.21	70.3302	1,866.21	69.1299	1,866.21	64.9375	1,866.21	70.6437	1,866.21	44.2546	1,866.21	68.7	1,866.21	57.9179	1,866.21	62.5351	1,866.21	65.2271	1,866.21	70.7524	1,866.21	71.0658
1,932.13	85.513	1,932.13	83.5144	1,932.13	83.9337	1,932.13	79.3526	1,932.13	79.1867	1,932.13	77.1577	1,932.13	70.3389	1,932.13	75.3005	1,932.13	75.5728	1,932.13	68.587	1,932.13	80.5584	1,932.13	69.6728	1,932.13	79.7241	1,932.13	69.6899	1,932.13	74.4041	1,932.13	74.5916	1,932.13	69.3357	1,932.13	77.9677	1,932.13	69.8378	1,932.13	79.9064	1,932.13	70.6164	1,932.13	79.1751	1,932.13	76.9474	1,932.13	71.3411	1,932.13	75.4469	1,932.13	70.8398	1,932.13	64.822	1,932.13	69.4923	1,932.13	69.6	1,932.13	61.8179	1,932.13	72.6276	1,932.13	64.6987	1,932.13	61.8585	1,932.13	61.7284	1,932.13	74.6515	1,932.13	69.5971
1,999.51	84.962	1,999.51	83.3069	1,999.51	84.2969	1,999.51	81.1553	1,999.51	80.151	1,999.51	77.2495	1,999.51	62.9022	1,999.51	69.1844	1,999.51	75.4873	1,999.51	65.4627	1,999.51	78.9932	1,999.51	61.8698	1,999.51	78.6188	1,999.51	62.354	1,999.51	76.8744	1,999.51	75.2883	1,999.51	74.3598	1,999.51	78.4889	1,999.51	75.8952	1,999.51	78.3758	1,999.51	73.62	1,999.51	77.4597	1,999.51	64.4847	1,999.51	73.3689	1,999.51	73.819	1,999.51	66.612	1,999.51	73.4108	1,999.51	65.4602	1,999.51	65.2324	1,999.51	68.9555	1,999.51	72.3883	1,999.51	64.8401	1,999.51	48.8655	1,999.51	59.333	1,999.51	75.7403	1,999.51	70.3825
2,069.82	84.3497	2,069.82	83.8411	2,069.82	83.5205	2,069.82	82.1543	2,069.82	80.2508	2,069.82	76.518	2,069.82	67.9265	2,069.82	62.1702	2,069.82	76.13	2,069.82	67.4936	2,069.82	79.2621	2,069.82	74.288	2,069.82	78.9424	2,069.82	74.4665	2,069.82	78.9057	2,069.82	74.8902	2,069.82	77.0872	2,069.82	76.2001	2,069.82	77.265	2,069.82	76.6978	2,069.82	77.1851	2,069.82	76.9026	2,069.82	69.7085	2,069.82	71.5733	2,069.82	71.046	2,069.82	58.1068	2,069.82	75.6783	2,069.82	51.4313	2,069.82	72.0761	2,069.82	69.4196	2,069.82	70.0931	2,069.82	67.7498	2,069.82	53.3887	2,069.82	63.1437	2,069.82	74.9347	2,069.82	69.3982
2,143.07	83.7643	2,143.07	83.6905	2,143.07	83.1851	2,143.07	82.0802	2,143.07	79.2255	2,143.07	74.1905	2,143.07	73.3094	2,143.07	69.5714	2,143.07	76.8918	2,143.07	70.8098	2,143.07	77.511	2,143.07	72.9775	2,143.07	79.1965	2,143.07	75.3628	2,143.07	80.0844	2,143.07	74.6408	2,143.07	78.7798	2,143.07	73.1016	2,143.07	77.2833	2,143.07	66.2814	2,143.07	77.8154	2,143.07	58.6462	2,143.07	74.0699	2,143.07	61.6796	2,143.07	72.0375	2,143.07	63.3144	2,143.07	71.2808	2,143.07	65.4717	2,143.07	74.2519	2,143.07	70.2004	2,143.07	40.8849	2,143.07	66.0778	2,143.07	62.1451	2,143.07	65.4373	2,143.07	72.8158	2,143.07	71.7442
2,219.24	84.4845	2,219.24	84.099	2,219.24	82.9713	2,219.24	81.2516	2,219.24	76.241	2,219.24	76.3795	2,219.24	72.0319	2,219.24	74.9904	2,219.24	77.2055	2,219.24	74.4648	2,219.24	80.2259	2,219.24	73.5604	2,219.24	81.7635	2,219.24	73.862	2,219.24	79.7614	2,219.24	74.1783	2,219.24	77.02	2,219.24	73.3949	2,219.24	75.3071	2,219.24	75.871	2,219.24	76.0433	2,219.24	74.9807	2,219.24	76.7271	2,219.24	66.4308	2,219.24	73.1294	2,219.24	70.9371	2,219.24	66.0951	2,219.24	71.9228	2,219.24	69.0629	2,219.24	68.7118	2,219.24	67.9936	2,219.24	61.7395	2,219.24	57.4388	2,219.24	50.9075	2,219.24	71.8181	2,219.24	68.9947
2,296.88	84.1658	2,296.88	84.408	2,296.88	82.3342	2,296.88	81.1481	2,296.88	76.7494	2,296.88	77.3017	2,296.88	73.4674	2,296.88	72.0421	2,296.88	80.0251	2,296.88	77.5761	2,296.88	80.6044	2,296.88	78.4614	2,296.88	80.609	2,296.88	74.5203	2,296.88	78.1578	2,296.88	77.3255	2,296.88	72.1564	2,296.88	78.2991	2,296.88	72.147	2,296.88	75.6009	2,296.88	68.4666	2,296.88	75.9958	2,296.88	75.8176	2,296.88	73.2589	2,296.88	73.5568	2,296.88	73.1813	2,296.88	69.6609	2,296.88	74.7322	2,296.88	65.3345	2,296.88	71.4276	2,296.88	59.2322	2,296.88	61.5135	2,296.88	67.451	2,296.88	58.6138	2,296.88	73.1563	2,296.88	64.13
2,378.91	83.6413	2,378.91	83.2187	2,378.91	81.2048	2,378.91	82.2859	2,378.91	75.7473	2,378.91	78.8735	2,378.91	73.1606	2,378.91	76.3338	2,378.91	79.5901	2,378.91	81.0564	2,378.91	80.908	2,378.91	79.5236	2,378.91	80.3917	2,378.91	77.1262	2,378.91	78.8205	2,378.91	78.147	2,378.91	74.9288	2,378.91	76.9058	2,378.91	75.5721	2,378.91	70.4823	2,378.91	73.3143	2,378.91	72.9148	2,378.91	67.3866	2,378.91	71.1479	2,378.91	73.3292	2,378.91	71.4732	2,378.91	72.4562	2,378.91	73.4345	2,378.91	73.2836	2,378.91	71.6512	2,378.91	60.989	2,378.91	63.8974	2,378.91	68.3646	2,378.91	67.302	2,378.91	73.4318	2,378.91	66.9113
2,462.4	83.763	2,462.4	84.2309	2,462.4	82.0672	2,462.4	82.1376	2,462.4	76.5296	2,462.4	75.9445	2,462.4	72.3436	2,462.4	79.338	2,462.4	79.6008	2,462.4	79.9237	2,462.4	81.6743	2,462.4	78.354	2,462.4	80.8725	2,462.4	78.5903	2,462.4	78.9393	2,462.4	76.0599	2,462.4	76.4684	2,462.4	74.0498	2,462.4	75.5172	2,462.4	74.0196	2,462.4	74.006	2,462.4	70.9502	2,462.4	61.2878	2,462.4	70.5643	2,462.4	72.8308	2,462.4	68.3376	2,462.4	72.3771	2,462.4	69.4509	2,462.4	69.6636	2,462.4	69.0499	2,462.4	65.3615	2,462.4	63.2454	2,462.4	65.5447	2,462.4	62.8123	2,462.4	70.7219	2,462.4	68.14
2,548.83	82.6089	2,548.83	84.1791	2,548.83	80.9529	2,548.83	80.6738	2,548.83	78.9239	2,548.83	78.2744	2,548.83	73.0744	2,548.83	80.0132	2,548.83	79.514	2,548.83	79.2093	2,548.83	82.1949	2,548.83	79.3835	2,548.83	81.4863	2,548.83	77.1936	2,548.83	80.0397	2,548.83	76.073	2,548.83	77.0233	2,548.83	74.9262	2,548.83	75.3092	2,548.83	71.6111	2,548.83	76.6004	2,548.83	70.8184	2,548.83	70.9028	2,548.83	69.6413	2,548.83	70.4119	2,548.83	69.2301	2,548.83	72.0872	2,548.83	68.7137	2,548.83	69.1442	2,548.83	69.206	2,548.83	59.5784	2,548.83	58.4237	2,548.83	65.6918	2,548.83	64.9613	2,548.83	73.4001	2,548.83	68.4547
2,639.65	83.5221	2,639.65	83.7191	2,639.65	79.0238	2,639.65	80.2763	2,639.65	77.7174	2,639.65	79.6176	2,639.65	75.7858	2,639.65	79.607	2,639.65	78.9081	2,639.65	80.3093	2,639.65	82.1238	2,639.65	79.1866	2,639.65	82.1109	2,639.65	77.8438	2,639.65	79.8767	2,639.65	75.1242	2,639.65	74.3609	2,639.65	72.1286	2,639.65	73.8464	2,639.65	71.6052	2,639.65	76.681	2,639.65	70.8502	2,639.65	73.9922	2,639.65	69.0756	2,639.65	68.6678	2,639.65	69.697	2,639.65	71.5418	2,639.65	69.5481	2,639.65	71.3396	2,639.65	69.4053	2,639.65	66.3512	2,639.65	63.9346	2,639.65	67.4128	2,639.65	62.9792	2,639.65	70.2659	2,639.65	63.7165
2,731.93	83.8604	2,731.93	83.73	2,731.93	80.4493	2,731.93	81.2621	2,731.93	77.1607	2,731.93	79.8154	2,731.93	77.0894	2,731.93	80.2758	2,731.93	78.972	2,731.93	80.22	2,731.93	82.0804	2,731.93	78.9619	2,731.93	82.4994	2,731.93	77.7453	2,731.93	80.4369	2,731.93	76.7647	2,731.93	76.097	2,731.93	76.3487	2,731.93	75.2131	2,731.93	74.2185	2,731.93	76.7575	2,731.93	71.634	2,731.93	74.9255	2,731.93	72.2587	2,731.93	72.3703	2,731.93	69.2813	2,731.93	71.935	2,731.93	70.8835	2,731.93	72.1242	2,731.93	69.0823	2,731.93	67.8928	2,731.93	64.8493	2,731.93	57.4883	2,731.93	64.34	2,731.93	70.4753	2,731.93	66.9204
2,828.61	83.069	2,828.61	82.9813	2,828.61	80.0144	2,828.61	81.0914	2,828.61	77.7394	2,828.61	80.496	2,828.61	77.09	2,828.61	80.9985	2,828.61	79.0775	2,828.61	80.9188	2,828.61	81.9454	2,828.61	80.2531	2,828.61	82.2379	2,828.61	79.2709	2,828.61	80.2638	2,828.61	77.2543	2,828.61	75.9836	2,828.61	74.7822	2,828.61	75.4487	2,828.61	73.3811	2,828.61	76.5284	2,828.61	70.9356	2,828.61	75.1221	2,828.61	71.0092	2,828.61	72.0209	2,828.61	70.4945	2,828.61	71.8474	2,828.61	70.3999	2,828.61	69.2569	2,828.61	69.1902	2,828.61	56.314	2,828.61	65.8318	2,828.61	63.1421	2,828.61	62.7433	2,828.61	70.4582	2,828.61	62.8362
2,928.22	83.3883	2,928.22	83.086	2,928.22	80.5396	2,928.22	81.4482	2,928.22	78.5859	2,928.22	81.1523	2,928.22	79.0878	2,928.22	80.889	2,928.22	79.3307	2,928.22	80.4946	2,928.22	81.6046	2,928.22	80.2243	2,928.22	81.7024	2,928.22	79.3344	2,928.22	79.1434	2,928.22	76.8564	2,928.22	76.2031	2,928.22	72.9972	2,928.22	74.8247	2,928.22	72.2225	2,928.22	73.3812	2,928.22	71.5762	2,928.22	74.4337	2,928.22	71.1481	2,928.22	73.1002	2,928.22	69.3053	2,928.22	71.7348	2,928.22	71.1208	2,928.22	72.0426	2,928.22	70.1117	2,928.22	61.2321	2,928.22	66.9965	2,928.22	60.4379	2,928.22	62.4977	2,928.22	70.0204	2,928.22	68.3959
3,030.76	82.8863	3,030.76	82.4935	3,030.76	80.7273	3,030.76	82.2142	3,030.76	78.9734	3,030.76	81.859	3,030.76	80.1318	3,030.76	81.3724	3,030.76	80.123	3,030.76	81.5217	3,030.76	81.4931	3,030.76	81.498	3,030.76	81.7108	3,030.76	79.0557	3,030.76	79.6095	3,030.76	76.9497	3,030.76	77.755	3,030.76	76.8879	3,030.76	76.6427	3,030.76	74.4939	3,030.76	72.4708	3,030.76	70.9996	3,030.76	68.4583	3,030.76	71.1201	3,030.76	73.0481	3,030.76	70.0777	3,030.76	70.7723	3,030.76	71.198	3,030.76	70.5046	3,030.76	69.7681	3,030.76	57.4347	3,030.76	66.9062	3,030.76	60.7966	3,030.76	61.931	3,030.76	70.8652	3,030.76	66.4973
3,137.7	82.626	3,137.7	82.4205	3,137.7	80.8365	3,137.7	82.2389	3,137.7	79.3928	3,137.7	81.531	3,137.7	80.9566	3,137.7	81.1914	3,137.7	80.8507	3,137.7	81.8315	3,137.7	81.5435	3,137.7	80.7707	3,137.7	81.8635	3,137.7	79.4641	3,137.7	80.2935	3,137.7	78.6014	3,137.7	78.9461	3,137.7	74.9425	3,137.7	77.8535	3,137.7	71.1472	3,137.7	76.1916	3,137.7	69.8953	3,137.7	70.4422	3,137.7	70.2199	3,137.7	70.8283	3,137.7	68.6508	3,137.7	70.2447	3,137.7	69.5137	3,137.7	69.7608	3,137.7	69.2126	3,137.7	49.5379	3,137.7	66.8037	3,137.7	62.7459	3,137.7	54.1811	3,137.7	70.9241	3,137.7	65.4635
3,249.02	82.3333	3,249.02	82.9328	3,249.02	81.4287	3,249.02	82.9648	3,249.02	80.88	3,249.02	80.9536	3,249.02	81.5573	3,249.02	81.3519	3,249.02	80.8178	3,249.02	82.2411	3,249.02	81.5188	3,249.02	81.453	3,249.02	82.673	3,249.02	80.0025	3,249.02	81.0418	3,249.02	74.6789	3,249.02	79.881	3,249.02	71.8669	3,249.02	77.6466	3,249.02	73.2008	3,249.02	74.7707	3,249.02	70.173	3,249.02	71.6058	3,249.02	69.0053	3,249.02	71.9105	3,249.02	70.3426	3,249.02	71.6694	3,249.02	69.6395	3,249.02	69.5144	3,249.02	69.5052	3,249.02	29.5274	3,249.02	65.5913	3,249.02	66.009	3,249.02	61.3454	3,249.02	69.2271	3,249.02	64.1047
3,363.28	82.2707	3,363.28	83.3302	3,363.28	81.2345	3,363.28	82.7027	3,363.28	81.4515	3,363.28	80.4158	3,363.28	82.3117	3,363.28	82.5637	3,363.28	81.1066	3,363.28	82.6656	3,363.28	80.637	3,363.28	81.0889	3,363.28	81.7939	3,363.28	77.3725	3,363.28	80.5989	3,363.28	76.5974	3,363.28	79.581	3,363.28	76.8084	3,363.28	76.7219	3,363.28	72.4717	3,363.28	70.7859	3,363.28	69.1909	3,363.28	67.2787	3,363.28	68.0444	3,363.28	72.2291	3,363.28	70.4071	3,363.28	71.1713	3,363.28	68.8847	3,363.28	69.659	3,363.28	69.5256	3,363.28	52.8372	3,363.28	65.4249	3,363.28	67.3305	3,363.28	51.5113	3,363.28	67.8407	3,363.28	66.8291
3,481.93	82.5414	3,481.93	83.838	3,481.93	81.5116	3,481.93	81.9888	3,481.93	81.5549	3,481.93	81.0914	3,481.93	82.6521	3,481.93	83.208	3,481.93	81.34	3,481.93	82.484	3,481.93	79.6343	3,481.93	79.9149	3,481.93	80.0211	3,481.93	79.2013	3,481.93	79.942	3,481.93	77.6516	3,481.93	78.0555	3,481.93	71.4457	3,481.93	71.1127	3,481.93	71.938	3,481.93	67.0871	3,481.93	71.4633	3,481.93	69.0116	3,481.93	67.3562	3,481.93	72.6613	3,481.93	69.2819	3,481.93	71.6312	3,481.93	68.9507	3,481.93	67.9611	3,481.93	69.711	3,481.93	59.6539	3,481.93	65.3959	3,481.93	66.2563	3,481.93	26.6296	3,481.93	67.4261	3,481.93	67.6163
3,604.98	82.9833	3,604.98	83.9024	3,604.98	81.9486	3,604.98	81.6532	3,604.98	82.796	3,604.98	82.1331	3,604.98	83.0059	3,604.98	83.7954	3,604.98	81.0574	3,604.98	81.7415	3,604.98	79.4079	3,604.98	80.9259	3,604.98	80.557	3,604.98	79.2866	3,604.98	80.0945	3,604.98	75.8269	3,604.98	78.1605	3,604.98	75.8009	3,604.98	62.883	3,604.98	73.6484	3,604.98	62.5403	3,604.98	69.6016	3,604.98	61.3051	3,604.98	68.7881	3,604.98	73.2191	3,604.98	69.7013	3,604.98	71.2408	3,604.98	69.126	3,604.98	65.0808	3,604.98	70.2829	3,604.98	64.0867	3,604.98	65.6686	3,604.98	63.3578	3,604.98	56.8858	3,604.98	66.8612	3,604.98	66.5985
3,732.42	83.3007	3,732.42	84.1325	3,732.42	82.3799	3,732.42	80.5351	3,732.42	83.6932	3,732.42	83.5036	3,732.42	83.8478	3,732.42	83.4077	3,732.42	81.1207	3,732.42	81.7849	3,732.42	79.455	3,732.42	81.5389	3,732.42	80.4236	3,732.42	78.7172	3,732.42	78.9031	3,732.42	78.3165	3,732.42	76.1301	3,732.42	74.0296	3,732.42	68.6428	3,732.42	70.5193	3,732.42	65.4749	3,732.42	70.9986	3,732.42	62.2579	3,732.42	67.2201	3,732.42	68.8064	3,732.42	67.8279	3,732.42	69.2897	3,732.42	68.3961	3,732.42	67.803	3,732.42	69.721	3,732.42	63.9257	3,732.42	65.6233	3,732.42	63.5889	3,732.42	48.8395	3,732.42	66.5548	3,732.42	66.4515
3,864.26	84.4889	3,864.26	83.899	3,864.26	81.955	3,864.26	81.4939	3,864.26	84.2446	3,864.26	83.8876	3,864.26	84.3246	3,864.26	82.5237	3,864.26	81.3607	3,864.26	82.6111	3,864.26	78.9259	3,864.26	80.5529	3,864.26	78.8498	3,864.26	79.5493	3,864.26	78.1811	3,864.26	76.4424	3,864.26	78.3726	3,864.26	73.1922	3,864.26	74.837	3,864.26	72.1621	3,864.26	69.4295	3,864.26	69.0057	3,864.26	63.6885	3,864.26	67.7987	3,864.26	71.1877	3,864.26	67.9287	3,864.26	64.2284	3,864.26	67.4452	3,864.26	66.9329	3,864.26	69.3108	3,864.26	63.2459	3,864.26	64.5182	3,864.26	63.4777	3,864.26	54.7095	3,864.26	66.1901	3,864.26	63.3879
4,000.49	84.3902	4,000.49	82.9861	4,000.49	82.6391	4,000.49	82.4444	4,000.49	84.3536	4,000.49	83.6174	4,000.49	84.7551	4,000.49	82.6242	4,000.49	81.3858	4,000.49	82.4284	4,000.49	78.9293	4,000.49	81.1572	4,000.49	80.4271	4,000.49	78.408	4,000.49	79.0071	4,000.49	75.4854	4,000.49	78.2415	4,000.49	76.185	4,000.49	75.3479	4,000.49	72.1634	4,000.49	69.0551	4,000.49	69.3734	4,000.49	67.9517	4,000.49	67.3014	4,000.49	70.9422	4,000.49	67.6919	4,000.49	66.4837	4,000.49	66.909	4,000.49	65.9581	4,000.49	69.1799	4,000.49	61.3348	4,000.49	64.0037	4,000.49	63.4821	4,000.49	50.0296	4,000.49	66.7241	4,000.49	63.9621
4,141.11	84.4001	4,141.11	83.0156	4,141.11	82.9731	4,141.11	82.866	4,141.11	84.2389	4,141.11	82.9979	4,141.11	85.1205	4,141.11	82.439	4,141.11	80.5723	4,141.11	82.2082	4,141.11	77.5792	4,141.11	80.4472	4,141.11	81.6185	4,141.11	78.5376	4,141.11	80.273	4,141.11	77.3665	4,141.11	78.8394	4,141.11	72.9348	4,141.11	73.4695	4,141.11	68.4314	4,141.11	62.126	4,141.11	69.9217	4,141.11	65.9064	4,141.11	66.0302	4,141.11	69.6979	4,141.11	66.0305	4,141.11	66.8341	4,141.11	66.2487	4,141.11	59.505	4,141.11	68.0634	4,141.11	59.1244	4,141.11	65.3912	4,141.11	60.3165	4,141.11	52.435	4,141.11	64.2857	4,141.11	64.466
4,287.6	84.5731	4,287.6	83.3294	4,287.6	82.71	4,287.6	82.8536	4,287.6	84.0979	4,287.6	82.256	4,287.6	84.869	4,287.6	82.6026	4,287.6	81.3431	4,287.6	81.11	4,287.6	77.4694	4,287.6	80.3694	4,287.6	81.3536	4,287.6	78.6059	4,287.6	81.1692	4,287.6	72.6013	4,287.6	77.8514	4,287.6	74.9592	4,287.6	72.1556	4,287.6	71.0167	4,287.6	58.5377	4,287.6	67.349	4,287.6	63.9741	4,287.6	65.1847	4,287.6	69.8718	4,287.6	64.5331	4,287.6	64.4351	4,287.6	65.171	4,287.6	51.8792	4,287.6	66.9275	4,287.6	59.1744	4,287.6	64.2799	4,287.6	54.2171	4,287.6	52.525	4,287.6	63.6721	4,287.6	63.7194
4,438.48	85.0361	4,438.48	83.6012	4,438.48	83.1211	4,438.48	82.6562	4,438.48	83.7081	4,438.48	82.4313	4,438.48	85.1558	4,438.48	81.7119	4,438.48	82.6028	4,438.48	81.4108	4,438.48	77.2896	4,438.48	81.1363	4,438.48	79.9841	4,438.48	75.7405	4,438.48	81.4139	4,438.48	75.6785	4,438.48	76.6372	4,438.48	69.4583	4,438.48	73.9743	4,438.48	65.8795	4,438.48	66.1763	4,438.48	67.0973	4,438.48	66.2058	4,438.48	62.332	4,438.48	69.4235	4,438.48	64.3391	4,438.48	64.1438	4,438.48	63.5998	4,438.48	54.7911	4,438.48	65.7397	4,438.48	61.6928	4,438.48	62.7921	4,438.48	58.3566	4,438.48	55.6242	4,438.48	62.5718	4,438.48	58.4286
4,595.21	84.9539	4,595.21	83.1094	4,595.21	84.0028	4,595.21	82.8899	4,595.21	82.9426	4,595.21	82.4538	4,595.21	85.4612	4,595.21	81.9224	4,595.21	83.225	4,595.21	81.7119	4,595.21	76.6979	4,595.21	78.4662	4,595.21	78.1589	4,595.21	74.9926	4,595.21	79.9954	4,595.21	70.7087	4,595.21	77.7851	4,595.21	72.1375	4,595.21	72.1506	4,595.21	69.9913	4,595.21	64.5667	4,595.21	64.0836	4,595.21	65.6649	4,595.21	64.534	4,595.21	63.2	4,595.21	64.3414	4,595.21	65.4599	4,595.21	63.9983	4,595.21	60.9915	4,595.21	64.4908	4,595.21	64.2822	4,595.21	65.5275	4,595.21	58.5589	4,595.21	54.207	4,595.21	62.0657	4,595.21	56.1668
4,756.35	84.7165	4,756.35	83.2829	4,756.35	84.0033	4,756.35	82.8219	4,756.35	83.1153	4,756.35	82.5551	4,756.35	84.0076	4,756.35	82.648	4,756.35	81.9927	4,756.35	81.3589	4,756.35	76.926	4,756.35	78.0304	4,756.35	76.3662	4,756.35	75.3725	4,756.35	78.2657	4,756.35	75.2188	4,756.35	77.8819	4,756.35	71.1828	4,756.35	74.1669	4,756.35	68.809	4,756.35	66.7962	4,756.35	65.9754	4,756.35	62.4276	4,756.35	63.7778	4,756.35	62.1095	4,756.35	64.2788	4,756.35	64.7414	4,756.35	65.4648	4,756.35	60.9215	4,756.35	65.1077	4,756.35	62.9752	4,756.35	64.7357	4,756.35	52.6941	4,756.35	61.6501	4,756.35	59.6585	4,756.35	60.314
4,924.8	83.8008	4,924.8	82.8597	4,924.8	84.5735	4,924.8	82.7522	4,924.8	83.2561	4,924.8	83.138	4,924.8	83.8516	4,924.8	83.0495	4,924.8	82.4609	4,924.8	80.6769	4,924.8	77.1851	4,924.8	78.7876	4,924.8	74.9717	4,924.8	77.0284	4,924.8	77.2723	4,924.8	73.366	4,924.8	76.4614	4,924.8	72.617	4,924.8	72.2656	4,924.8	68.5252	4,924.8	65.1004	4,924.8	65.3631	4,924.8	59.0047	4,924.8	64.4487	4,924.8	62.0404	4,924.8	63.7342	4,924.8	57.4121	4,924.8	64.6194	4,924.8	59.6127	4,924.8	66.7423	4,924.8	63.4683	4,924.8	64.8756	4,924.8	58.9307	4,924.8	60.6519	4,924.8	57.4775	4,924.8	51.9108
5,097.66	83.9058	5,097.66	83.1884	5,097.66	83.9417	5,097.66	82.8339	5,097.66	83.6064	5,097.66	83.4221	5,097.66	83.6488	5,097.66	82.5058	5,097.66	82.5076	5,097.66	80.8115	5,097.66	79.4098	5,097.66	79.5624	5,097.66	76.3314	5,097.66	76.1839	5,097.66	78.3005	5,097.66	74.6616	5,097.66	75.6383	5,097.66	71.5247	5,097.66	72.2702	5,097.66	68.8377	5,097.66	67.6975	5,097.66	64.4534	5,097.66	55.9508	5,097.66	64.0157	5,097.66	59.6157	5,097.66	64.3985	5,097.66	54.3627	5,097.66	65.1371	5,097.66	58.5282	5,097.66	66.2048	5,097.66	62.279	5,097.66	66.1298	5,097.66	51.0687	5,097.66	59.5426	5,097.66	56.6367	5,097.66	53.281
5,277.83	83.7588	5,277.83	82.8364	5,277.83	83.8898	5,277.83	82.7164	5,277.83	83.107	5,277.83	83.6903	5,277.83	82.9005	5,277.83	81.8931	5,277.83	81.9973	5,277.83	81.1715	5,277.83	79.2656	5,277.83	79.1188	5,277.83	77.0842	5,277.83	76.6492	5,277.83	78.2041	5,277.83	73.8907	5,277.83	75.3812	5,277.83	73.2373	5,277.83	68.9063	5,277.83	68.853	5,277.83	68.1182	5,277.83	65.2828	5,277.83	52.4001	5,277.83	64.5152	5,277.83	62.5925	5,277.83	64.1069	5,277.83	57.6189	5,277.83	65.2076	5,277.83	53.9204	5,277.83	66.827	5,277.83	61.5728	5,277.83	65.4558	5,277.83	45.8894	5,277.83	62.4032	5,277.83	57.6031	5,277.83	57.1844
5,463.87	83.0565	5,463.87	82.4688	5,463.87	83.3899	5,463.87	83.1469	5,463.87	83.2798	5,463.87	83.157	5,463.87	82.3019	5,463.87	81.5616	5,463.87	81.5645	5,463.87	81.0081	5,463.87	78.5868	5,463.87	79.1376	5,463.87	77.1073	5,463.87	77.6117	5,463.87	76.523	5,463.87	74.9854	5,463.87	71.9263	5,463.87	72.3416	5,463.87	68.905	5,463.87	68.3749	5,463.87	64.098	5,463.87	65.7312	5,463.87	58.8815	5,463.87	63.117	5,463.87	61.8861	5,463.87	62.9128	5,463.87	58.1367	5,463.87	65.2029	5,463.87	56.1574	5,463.87	66.3151	5,463.87	57.8457	5,463.87	65.6858	5,463.87	48.366	5,463.87	60.0726	5,463.87	58.979	5,463.87	54.4639
5,657.23	83.6323	5,657.23	82.7282	5,657.23	82.9694	5,657.23	83.421	5,657.23	82.916	5,657.23	82.5453	5,657.23	82.268	5,657.23	81.4689	5,657.23	81.7413	5,657.23	80.7306	5,657.23	77.211	5,657.23	79.604	5,657.23	74.5688	5,657.23	76.7031	5,657.23	74.6243	5,657.23	74.0476	5,657.23	64.62	5,657.23	71.903	5,657.23	70.5557	5,657.23	67.6397	5,657.23	60.2213	5,657.23	64.2437	5,657.23	58.937	5,657.23	63.1819	5,657.23	64.5021	5,657.23	60.0685	5,657.23	62.4003	5,657.23	64.2233	5,657.23	56.4545	5,657.23	65.5273	5,657.23	56.0397	5,657.23	65.0176	5,657.23	55.3164	5,657.23	60.5487	5,657.23	58.8479	5,657.23	53.1048
5,856.45	83.4162	5,856.45	83.1683	5,856.45	83.1727	5,856.45	83.4091	5,856.45	82.4367	5,856.45	81.9182	5,856.45	81.8581	5,856.45	81.382	5,856.45	81.5866	5,856.45	80.6884	5,856.45	76.8024	5,856.45	79.4234	5,856.45	73.0873	5,856.45	75.5354	5,856.45	72.577	5,856.45	72.2648	5,856.45	66.3579	5,856.45	69.388	5,856.45	67.1905	5,856.45	67.2093	5,856.45	54.6583	5,856.45	62.882	5,856.45	49.4002	5,856.45	62.1723	5,856.45	61.8665	5,856.45	60.0031	5,856.45	62.2274	5,856.45	62.7766	5,856.45	46.4893	5,856.45	64.6262	5,856.45	59.2533	5,856.45	64.0091	5,856.45	53.9715	5,856.45	60.25	5,856.45	55.3583	5,856.45	55.3065
6,062.99	83.989	6,062.99	83.6641	6,062.99	83.2173	6,062.99	83.011	6,062.99	82.5857	6,062.99	81.3598	6,062.99	81.4468	6,062.99	81.2335	6,062.99	81.6977	6,062.99	80.7762	6,062.99	78.4303	6,062.99	78.7916	6,062.99	71.4691	6,062.99	74.7029	6,062.99	73.547	6,062.99	73.0446	6,062.99	69.918	6,062.99	69.2879	6,062.99	65.0465	6,062.99	67.1305	6,062.99	61.9334	6,062.99	63.2038	6,062.99	56.1093	6,062.99	60.9646	6,062.99	63.508	6,062.99	60.6199	6,062.99	64.2416	6,062.99	62.9356	6,062.99	53.4609	6,062.99	63.9171	6,062.99	56.8281	6,062.99	64.6505	6,062.99	54.7459	6,062.99	59.9408	6,062.99	55.6782	6,062.99	53.0484
6,276.86	84.2518	6,276.86	84.1316	6,276.86	83.079	6,276.86	82.8704	6,276.86	82.1858	6,276.86	81.3641	6,276.86	81.1039	6,276.86	81.6514	6,276.86	81.9901	6,276.86	80.5534	6,276.86	79.398	6,276.86	78.4543	6,276.86	70.8128	6,276.86	74.6832	6,276.86	74.4451	6,276.86	72.4925	6,276.86	72.5492	6,276.86	69.6146	6,276.86	69.1516	6,276.86	67.3808	6,276.86	68.1645	6,276.86	62.4947	6,276.86	46.2633	6,276.86	60.1379	6,276.86	62.9699	6,276.86	61.6003	6,276.86	63.8339	6,276.86	63.1404	6,276.86	53.9342	6,276.86	63.5704	6,276.86	52.2392	6,276.86	64.2255	6,276.86	53.2704	6,276.86	59.9367	6,276.86	55.2409	6,276.86	54.1847
6,498.05	85.1264	6,498.05	84.7952	6,498.05	83.5016	6,498.05	82.7361	6,498.05	82.9133	6,498.05	81.6647	6,498.05	80.7511	6,498.05	81.1689	6,498.05	81.3427	6,498.05	79.9604	6,498.05	80.4365	6,498.05	78.1896	6,498.05	72.5756	6,498.05	74.938	6,498.05	74.9232	6,498.05	71.4875	6,498.05	75.8911	6,498.05	67.7698	6,498.05	71.4899	6,498.05	65.9231	6,498.05	68.5459	6,498.05	60.6824	6,498.05	46.8125	6,498.05	60.1983	6,498.05	58.2371	6,498.05	60.513	6,498.05	61.6678	6,498.05	62.163	6,498.05	55.4045	6,498.05	62.6086	6,498.05	46.9836	6,498.05	64.1162	6,498.05	56.7513	6,498.05	58.9541	6,498.05	50.9116	6,498.05	54.3666
6,726.56	85.5591	6,726.56	84.8675	6,726.56	83.6716	6,726.56	83.1762	6,726.56	83.0065	6,726.56	81.5167	6,726.56	81.1363	6,726.56	80.2598	6,726.56	80.5149	6,726.56	79.8753	6,726.56	80.1207	6,726.56	77.9018	6,726.56	74.4821	6,726.56	74.351	6,726.56	75.6123	6,726.56	70.5308	6,726.56	76.5306	6,726.56	66.7551	6,726.56	73.42	6,726.56	64.0603	6,726.56	69.8978	6,726.56	60.0337	6,726.56	51.4577	6,726.56	58.5843	6,726.56	62.695	6,726.56	58.1427	6,726.56	58.3341	6,726.56	61.3485	6,726.56	56.1226	6,726.56	61.1041	6,726.56	58.8492	6,726.56	64.3869	6,726.56	58.1838	6,726.56	60.3872	6,726.56	54.9158	6,726.56	52.5404
6,963.87	85.9915	6,963.87	85.2671	6,963.87	84.2727	6,963.87	83.4433	6,963.87	83.2507	6,963.87	80.9484	6,963.87	81.3859	6,963.87	79.9809	6,963.87	79.748	6,963.87	79.8879	6,963.87	79.0911	6,963.87	77.5454	6,963.87	76.2181	6,963.87	73.6078	6,963.87	75.4443	6,963.87	69.9096	6,963.87	74.5582	6,963.87	67.3333	6,963.87	72.9299	6,963.87	63.4988	6,963.87	69.8502	6,963.87	58.8602	6,963.87	55.6075	6,963.87	57.8916	6,963.87	63.1551	6,963.87	58.5508	6,963.87	60.147	6,963.87	59.814	6,963.87	57.6594	6,963.87	60.907	6,963.87	58.0185	6,963.87	64.5513	6,963.87	57.3353	6,963.87	60.8804	6,963.87	50.8013	6,963.87	54.3212
7,209.96	86.0696	7,209.96	85.423	7,209.96	84.1591	7,209.96	83.4584	7,209.96	83.2153	7,209.96	80.7675	7,209.96	82.0024	7,209.96	80.3304	7,209.96	79.9549	7,209.96	79.3882	7,209.96	78.366	7,209.96	77.5511	7,209.96	76.3919	7,209.96	73.66	7,209.96	73.5388	7,209.96	70.7633	7,209.96	72.2777	7,209.96	68.4281	7,209.96	70.8902	7,209.96	64.7937	7,209.96	66.5282	7,209.96	59.8316	7,209.96	55.9405	7,209.96	56.8212	7,209.96	54.8121	7,209.96	58.8692	7,209.96	56.168	7,209.96	60.5814	7,209.96	61.7113	7,209.96	62.078	7,209.96	52.6791	7,209.96	64.9085	7,209.96	52.638	7,209.96	61.5783	7,209.96	52.5234	7,209.96	53.0497
7,464.84	86.0538	7,464.84	85.482	7,464.84	84.5091	7,464.84	83.6011	7,464.84	83.0225	7,464.84	81.1451	7,464.84	81.8008	7,464.84	79.9117	7,464.84	80.4046	7,464.84	79.2742	7,464.84	79.093	7,464.84	77.3523	7,464.84	77.023	7,464.84	74.5371	7,464.84	73.9574	7,464.84	71.381	7,464.84	65.1746	7,464.84	67.6489	7,464.84	62.3694	7,464.84	65.5254	7,464.84	62.6467	7,464.84	58.3826	7,464.84	57.0611	7,464.84	56.4914	7,464.84	51.9083	7,464.84	58.3684	7,464.84	52.0271	7,464.84	60.6515	7,464.84	58.9407	7,464.84	60.8932	7,464.84	56.9285	7,464.84	64.9379	7,464.84	55.4651	7,464.84	61.7344	7,464.84	56.3283	7,464.84	48.8122
7,727.05	85.5455	7,727.05	85.3191	7,727.05	84.0934	7,727.05	83.7252	7,727.05	82.7504	7,727.05	81.1404	7,727.05	81.12	7,727.05	79.9717	7,727.05	79.3579	7,727.05	79.5441	7,727.05	79.5196	7,727.05	77.3517	7,727.05	76.4878	7,727.05	74.7237	7,727.05	63.0956	7,727.05	71.4347	7,727.05	68.3391	7,727.05	67.8852	7,727.05	62.4028	7,727.05	64.3895	7,727.05	61.6436	7,727.05	59.4942	7,727.05	55.2911	7,727.05	56.501	7,727.05	51.396	7,727.05	57.1731	7,727.05	44.1482	7,727.05	60.8766	7,727.05	56.3898	7,727.05	60.2586	7,727.05	54.1876	7,727.05	64.9981	7,727.05	55.4027	7,727.05	61.925	7,727.05	52.878	7,727.05	49.863
7,999.51	85.1485	7,999.51	85.3305	7,999.51	84.0474	7,999.51	83.6725	7,999.51	82.8024	7,999.51	81.221	7,999.51	81.2897	7,999.51	80.2447	7,999.51	78.7975	7,999.51	79.5442	7,999.51	78.3451	7,999.51	77.6191	7,999.51	74.0362	7,999.51	74.7219	7,999.51	67.5013	7,999.51	72.1349	7,999.51	71.3873	7,999.51	68.5408	7,999.51	65.4971	7,999.51	64.7516	7,999.51	63.8505	7,999.51	59.1597	7,999.51	49.2518	7,999.51	55.1909	7,999.51	57.0173	7,999.51	56.4294	7,999.51	44.3497	7,999.51	59.8931	7,999.51	56.0829	7,999.51	59.2226	7,999.51	51.7603	7,999.51	64.6302	7,999.51	51.4328	7,999.51	61.4743	7,999.51	53.1892	7,999.51	43.0532
8,282.23	84.4277	8,282.23	84.9163	8,282.23	83.8041	8,282.23	83.6068	8,282.23	82.6052	8,282.23	81.9449	8,282.23	81.1453	8,282.23	80.0589	8,282.23	79.049	8,282.23	79.7924	8,282.23	76.4666	8,282.23	77.6865	8,282.23	71.755	8,282.23	74.9411	8,282.23	69.0513	8,282.23	71.9432	8,282.23	72.352	8,282.23	68.0518	8,282.23	67.9355	8,282.23	63.8919	8,282.23	65.8358	8,282.23	57.2917	8,282.23	50.2265	8,282.23	54.5373	8,282.23	51.5476	8,282.23	55.4298	8,282.23	42.7769	8,282.23	58.3616	8,282.23	55.8339	8,282.23	58.9309	8,282.23	50.7269	8,282.23	64.1344	8,282.23	51.4289	8,282.23	60.5433	8,282.23	54.3321	8,282.23	40.0261
8,573.73	83.783	8,573.73	84.4302	8,573.73	83.4235	8,573.73	83.7521	8,573.73	82.5265	8,573.73	82.252	8,573.73	81.0939	8,573.73	79.9558	8,573.73	79.6117	8,573.73	79.9463	8,573.73	76.298	8,573.73	77.4863	8,573.73	71.5281	8,573.73	74.4757	8,573.73	67.0992	8,573.73	70.4693	8,573.73	71.5105	8,573.73	66.8668	8,573.73	66.4118	8,573.73	62.448	8,573.73	61.7379	8,573.73	57.6698	8,573.73	45.9062	8,573.73	54.4732	8,573.73	42.6457	8,573.73	55.4968	8,573.73	41.4364	8,573.73	56.6393	8,573.73	50.0798	8,573.73	58.1636	8,573.73	44.2178	8,573.73	62.8587	8,573.73	51.1829	8,573.73	59.686	8,573.73	52.3827	8,573.73	42.6676
8,876.95	83.1941	8,876.95	83.6697	8,876.95	83.062	8,876.95	83.8483	8,876.95	82.3303	8,876.95	82.1276	8,876.95	81.0732	8,876.95	80.0869	8,876.95	79.4626	8,876.95	79.6805	8,876.95	76.0247	8,876.95	77.4367	8,876.95	70.9673	8,876.95	73.3492	8,876.95	67.777	8,876.95	69.9601	8,876.95	69.8029	8,876.95	65.8406	8,876.95	64.338	8,876.95	61.6647	8,876.95	57.9714	8,876.95	57.677	8,876.95	36.5414	8,876.95	52.37	8,876.95	42.7584	8,876.95	55.3201	8,876.95	46.6475	8,876.95	55.7655	8,876.95	44.6128	8,876.95	57.9734	8,876.95	42.1335	8,876.95	62.1641	8,876.95	52.4931	8,876.95	59.3562	8,876.95	46.782	8,876.95	46.1203
9,188.96	82.529	9,188.96	82.9927	9,188.96	82.6129	9,188.96	83.6855	9,188.96	81.8328	9,188.96	82.1518	9,188.96	81.0564	9,188.96	79.9778	9,188.96	79.6825	9,188.96	79.6298	9,188.96	75.0424	9,188.96	76.858	9,188.96	71.1184	9,188.96	72.2897	9,188.96	67.8892	9,188.96	68.8884	9,188.96	67.8558	9,188.96	63.9965	9,188.96	60.8717	9,188.96	60.8151	9,188.96	56.8584	9,188.96	55.8954	9,188.96	44.198	9,188.96	50.0619	9,188.96	45.6737	9,188.96	52.105	9,188.96	47.9373	9,188.96	55.442	9,188.96	47.5973	9,188.96	56.9604	9,188.96	44.5293	9,188.96	61.1824	9,188.96	49.7919	9,188.96	58.6874	9,188.96	43.2532	9,188.96	45.7327
9,514.16	81.8741	9,514.16	82.2747	9,514.16	82.1634	9,514.16	83.2937	9,514.16	81.0124	9,514.16	81.6418	9,514.16	80.3929	9,514.16	79.9025	9,514.16	78.7559	9,514.16	79.4713	9,514.16	74.7714	9,514.16	76.0124	9,514.16	71.8836	9,514.16	71.5585	9,514.16	69.2615	9,514.16	68.0575	9,514.16	66.321	9,514.16	63.2253	9,514.16	58.8627	9,514.16	59.9775	9,514.16	51.8885	9,514.16	55.0229	9,514.16	47.0434	9,514.16	50.069	9,514.16	49.974	9,514.16	50.8424	9,514.16	47.7748	9,514.16	54.899	9,514.16	51.2776	9,514.16	56.6728	9,514.16	45.9885	9,514.16	59.8582	9,514.16	51.0638	9,514.16	57.3969	9,514.16	46.1219	9,514.16	46.0501
9,849.61	81.9272	9,849.61	82.0328	9,849.61	82.3328	9,849.61	82.8963	9,849.61	81.0582	9,849.61	81.0069	9,849.61	80.1031	9,849.61	79.7526	9,849.61	78.2684	9,849.61	78.7973	9,849.61	75.8516	9,849.61	75.952	9,849.61	71.4032	9,849.61	70.9214	9,849.61	68.7673	9,849.61	67.3431	9,849.61	65.2197	9,849.61	62.2619	9,849.61	61.5868	9,849.61	59.4526	9,849.61	56.1837	9,849.61	53.8496	9,849.61	46.255	9,849.61	48.0882	9,849.61	50.4942	9,849.61	52.4087	9,849.61	49.8489	9,849.61	54.2636	9,849.61	50.7872	9,849.61	56.5656	9,849.61	53.4639	9,849.61	58.7044	9,849.61	47.382	9,849.61	57.4548	9,849.61	48.2763	9,849.61	48.4034
10,196.8	81.9709	10,196.8	81.9983	10,196.8	82.5411	10,196.8	82.1383	10,196.8	81.3532	10,196.8	80.7304	10,196.8	79.5907	10,196.8	78.7345	10,196.8	77.6172	10,196.8	78.0777	10,196.8	73.8141	10,196.8	74.7843	10,196.8	70.8931	10,196.8	69.4766	10,196.8	67.9521	10,196.8	66.1007	10,196.8	64.4794	10,196.8	61.0767	10,196.8	63.0517	10,196.8	57.5076	10,196.8	54.676	10,196.8	51.5578	10,196.8	32.01	10,196.8	45.6823	10,196.8	47.4134	10,196.8	48.7602	10,196.8	46.6961	10,196.8	51.8789	10,196.8	49.2089	10,196.8	55.8319	10,196.8	50.637	10,196.8	58.5213	10,196.8	53.5154	10,196.8	58.1779	10,196.8	46.1156	10,196.8	48.241
10,555.7	82.1573	10,555.7	82.0944	10,555.7	82.2516	10,555.7	81.8336	10,555.7	81.4709	10,555.7	80.3533	10,555.7	79.1227	10,555.7	78.0697	10,555.7	77.4202	10,555.7	77.2195	10,555.7	73.9172	10,555.7	73.1435	10,555.7	70.2189	10,555.7	69.3618	10,555.7	64.2108	10,555.7	65.5276	10,555.7	63.2173	10,555.7	61.0444	10,555.7	62.6935	10,555.7	56.4638	10,555.7	53.702	10,555.7	51.3638	10,555.7	35.3651	10,555.7	46.2252	10,555.7	50.282	10,555.7	44.2566	10,555.7	45.09	10,555.7	50.7199	10,555.7	24.428	10,555.7	54.7435	10,555.7	49.0392	10,555.7	57.0135	10,555.7	48.5294	10,555.7	57.771	10,555.7	42.4634	10,555.7	45.0247
10,927.7	82.6507	10,927.7	82.1032	10,927.7	82.2743	10,927.7	81.7176	10,927.7	81.3333	10,927.7	80.2405	10,927.7	78.7402	10,927.7	77.9722	10,927.7	76.7102	10,927.7	76.519	10,927.7	73.0677	10,927.7	73.3689	10,927.7	68.7956	10,927.7	69.3961	10,927.7	61.8194	10,927.7	65.3232	10,927.7	62.5351	10,927.7	59.6834	10,927.7	60.9523	10,927.7	55.6808	10,927.7	47.9854	10,927.7	50.7411	10,927.7	47.9413	10,927.7	44.9294	10,927.7	45.9647	10,927.7	39.436	10,927.7	45.5111	10,927.7	49.9263	10,927.7	45.6769	10,927.7	53.4919	10,927.7	47.2208	10,927.7	55.2474	10,927.7	47.3385	10,927.7	56.336	10,927.7	41.1576	10,927.7	44.985
11,313	83.0042	11,313	82.4886	11,313	82.3554	11,313	81.375	11,313	81.1603	11,313	79.7305	11,313	78.5101	11,313	77.0883	11,313	75.7653	11,313	75.1704	11,313	70.9285	11,313	72.0527	11,313	67.707	11,313	67.8933	11,313	58.7208	11,313	63.2838	11,313	58.6926	11,313	57.2371	11,313	55.2407	11,313	52.3654	11,313	46.4381	11,313	49.3742	11,313	44.3614	11,313	42.6933	11,313	47.8291	11,313	31.9046	11,313	46.1969	11,313	48.4184	11,313	46.2188	11,313	50.2426	11,313	40.6516	11,313	52.285	11,313	41.0397	11,313	54.7658	11,313	39.3517	11,313	46.8595
11,712.9	83.3384	11,712.9	83.0526	11,712.9	82.5134	11,712.9	81.4	11,712.9	80.9727	11,712.9	79.0403	11,712.9	78.3723	11,712.9	76.1793	11,712.9	75.2571	11,712.9	73.6582	11,712.9	69.9817	11,712.9	69.6249	11,712.9	66.7138	11,712.9	65.1994	11,712.9	57.4139	11,712.9	60.4975	11,712.9	54.3236	11,712.9	52.7799	11,712.9	51.5614	11,712.9	47.7226	11,712.9	55.0197	11,712.9	46.7944	11,712.9	48.7559	11,712.9	39.456	11,712.9	47.3768	11,712.9	39.7477	11,712.9	44.7104	11,712.9	47.219	11,712.9	43.9119	11,712.9	46.913	11,712.9	32.8828	11,712.9	49.2747	11,712.9	36.757	11,712.9	53.492	11,712.9	42.3328	11,712.9	49.455
12,126	83.8193	12,126	83.6744	12,126	83.0677	12,126	81.8791	12,126	81.3499	12,126	79.3694	12,126	78.7133	12,126	75.8043	12,126	75.4616	12,126	72.9635	12,126	71.6568	12,126	68.7018	12,126	67.4442	12,126	63.8749	12,126	59.605	12,126	59.1873	12,126	52.595	12,126	49.9869	12,126	52.5616	12,126	42.6967	12,126	57.0112	12,126	44.1688	12,126	46.1373	12,126	39.0637	12,126	47.4829	12,126	45.4107	12,126	44.8475	12,126	45.5756	12,126	46.9276	12,126	45.5998	12,126	42.0425	12,126	47.5131	12,126	39.9034	12,126	51.9134	12,126	28.1709	12,126	46.9042
12,553.7	84.2356	12,553.7	83.9048	12,553.7	83.6524	12,553.7	82.0161	12,553.7	81.7808	12,553.7	79.5276	12,553.7	78.8856	12,553.7	75.0325	12,553.7	75.6817	12,553.7	72.0701	12,553.7	71.6546	12,553.7	66.5655	12,553.7	66.5006	12,553.7	60.7138	12,553.7	60.5157	12,553.7	54.7195	12,553.7	56.1749	12,553.7	43.3489	12,553.7	54.3083	12,553.7	25.0404	12,553.7	56.4129	12,553.7	38.8699	12,553.7	50.21	12,553.7	35.4721	12,553.7	45.3996	12,553.7	46.4738	12,553.7	44.4644	12,553.7	38.8005	12,553.7	45.5133	12,553.7	43.786	12,553.7	43.6508	12,553.7	41.8725	12,553.7	40.1503	12,553.7	48.2025	12,553.7	36.1897	12,553.7	48.2347
12,996.1	84.5889	12,996.1	83.7867	12,996.1	84.1584	12,996.1	81.5926	12,996.1	82.3113	12,996.1	78.6172	12,996.1	78.8837	12,996.1	73.5594	12,996.1	75.2932	12,996.1	69.8295	12,996.1	71.3352	12,996.1	62.706	12,996.1	65.2467	12,996.1	52.1497	12,996.1	60.7066	12,996.1	44.9413	12,996.1	55.8561	12,996.1	40.4529	12,996.1	49.3994	12,996.1	41.5959	12,996.1	56.3143	12,996.1	23.9097	12,996.1	49.8519	12,996.1	36.815	12,996.1	45.0771	12,996.1	41.8538	12,996.1	40.33	12,996.1	32.4467	12,996.1	44.0006	12,996.1	38.9124	12,996.1	40.4815	12,996.1	41.9405	12,996.1	37.4286	12,996.1	43.2241	12,996.1	39.9741	12,996.1	46.4862
13,454.6	84.9365	13,454.6	83.7688	13,454.6	84.8243	13,454.6	81.2373	13,454.6	83.0195	13,454.6	77.5086	13,454.6	79.3243	13,454.6	71.7648	13,454.6	75.2174	13,454.6	67.9811	13,454.6	70.9635	13,454.6	57.8582	13,454.6	64.0356	13,454.6	46.242	13,454.6	60.4632	13,454.6	36.5498	13,454.6	54.0329	13,454.6	44.1787	13,454.6	41.399	13,454.6	42.9185	13,454.6	55.9551	13,454.6	33.151	13,454.6	49.436	13,454.6	35.5563	13,454.6	44.3467	13,454.6	37.9129	13,454.6	37.3124	13,454.6	37.8459	13,454.6	40.7527	13,454.6	34.6193	13,454.6	40.2876	13,454.6	40.7325	13,454.6	33.7037	13,454.6	42.4189	13,454.6	39.7964	13,454.6	45.5056
13,929.2	85.2941	13,929.2	83.9757	13,929.2	85.3266	13,929.2	81.3954	13,929.2	83.5589	13,929.2	76.8956	13,929.2	79.6951	13,929.2	70.7579	13,929.2	74.9021	13,929.2	66.6184	13,929.2	69.3396	13,929.2	51.5621	13,929.2	60.1573	13,929.2	38.144	13,929.2	58.5934	13,929.2	39.7442	13,929.2	47.8571	13,929.2	34.5696	13,929.2	42.5974	13,929.2	39.0327	13,929.2	56.2165	13,929.2	24.6118	13,929.2	45.924	13,929.2	37.2077	13,929.2	40.1074	13,929.2	26.5072	13,929.2	44.3318	13,929.2	38.7624	13,929.2	40.7729	13,929.2	27.406	13,929.2	40.5552	13,929.2	34.1149	13,929.2	16.3049	13,929.2	43.8108	13,929.2	41.748	13,929.2	41.8655
14,419.9	85.4463	14,419.9	84.2309	14,419.9	85.2087	14,419.9	82.1023	14,419.9	83.3133	14,419.9	77.0949	14,419.9	79.2606	14,419.9	71.6555	14,419.9	73.8228	14,419.9	66.0685	14,419.9	67.6245	14,419.9	55.2119	14,419.9	58.4422	14,419.9	49.7478	14,419.9	57.4483	14,419.9	50.4037	14,419.9	35.4217	14,419.9	47.4233	14,419.9	45.5459	14,419.9	38.8112	14,419.9	56.6224	14,419.9	39.4571	14,419.9	41.9071	14,419.9	36.1821	14,419.9	20.9465	14,419.9	40.8481	14,419.9	43.3714	14,419.9	38.3115	14,419.9	36.8954	14,419.9	34.8375	14,419.9	42.572	14,419.9	31.2337	14,419.9	35.9206	14,419.9	47.2937	14,419.9	40.3359	14,419.9	25.6375
14,928.2	85.4353	14,928.2	84.4279	14,928.2	84.7952	14,928.2	82.5365	14,928.2	82.4991	14,928.2	77.2872	14,928.2	78.2523	14,928.2	72.6914	14,928.2	72.6744	14,928.2	66.2406	14,928.2	65.8286	14,928.2	56.3053	14,928.2	61.803	14,928.2	56.678	14,928.2	49.8348	14,928.2	53.9787	14,928.2	51.8979	14,928.2	51.883	14,928.2	49.1268	14,928.2	43.2522	14,928.2	54.8957	14,928.2	45.7139	14,928.2	41.1673	14,928.2	31.412	14,928.2	34.3098	14,928.2	42.461	14,928.2	36.8136	14,928.2	39.572	14,928.2	42.3385	14,928.2	41.0336	14,928.2	38.0623	14,928.2	33.7152	14,928.2	31.6451	14,928.2	47.1796	14,928.2	42.6175	14,928.2	41.2208
15,455.6	85.0695	15,455.6	84.637	15,455.6	84.4457	15,455.6	82.6651	15,455.6	81.5596	15,455.6	77.8764	15,455.6	77.1408	15,455.6	72.8156	15,455.6	71.6916	15,455.6	66.7881	15,455.6	64.688	15,455.6	56.2246	15,455.6	61.2314	15,455.6	59.2181	15,455.6	59.985	15,455.6	57.4956	15,455.6	55.5181	15,455.6	50.5623	15,455.6	44.1201	15,455.6	47.7263	15,455.6	54.9169	15,455.6	45.0176	15,455.6	35.1567	15,455.6	38.5652	15,455.6	38.9366	15,455.6	41.273	15,455.6	38.3243	15,455.6	43.9081	15,455.6	41.949	15,455.6	42.5141	15,455.6	34.7328	15,455.6	32.4473	15,455.6	37.708	15,455.6	45.9847	15,455.6	44.3423	15,455.6	39.1241
16,000.5	85.2238	16,000.5	85.2036	16,000.5	84.4193	16,000.5	82.8666	16,000.5	81.1056	16,000.5	78.6858	16,000.5	76.4426	16,000.5	72.8708	16,000.5	69.9842	16,000.5	66.9306	16,000.5	64.3418	16,000.5	59.3148	16,000.5	61.3695	16,000.5	59.6867	16,000.5	63.0723	16,000.5	56.9281	16,000.5	55.7165	16,000.5	50.3932	16,000.5	50.6306	16,000.5	47.7708	16,000.5	55.4236	16,000.5	38.9913	16,000.5	39.1616	16,000.5	41.6492	16,000.5	40.9426	16,000.5	34.4908	16,000.5	32.8794	16,000.5	43.9804	16,000.5	43.2964	16,000.5	40.5183	16,000.5	33.7241	16,000.5	0.530679	16,000.5	34.6571	16,000.5	42.0964	16,000.5	43.7029	16,000.5	41.8243
16,564.5	85.1983	16,564.5	85.3182	16,564.5	84.1306	16,564.5	82.7855	16,564.5	80.5137	16,564.5	78.929	16,564.5	75.4248	16,564.5	72.5083	16,564.5	68.6718	16,564.5	66.6305	16,564.5	64.3768	16,564.5	60.6018	16,564.5	63.2444	16,564.5	57.6462	16,564.5	63.0943	16,564.5	53.5485	16,564.5	56.5869	16,564.5	52.0708	16,564.5	52.6053	16,564.5	46.9316	16,564.5	57.3209	16,564.5	34.4289	16,564.5	40.8121	16,564.5	42.8459	16,564.5	41.2951	16,564.5	34.5666	16,564.5	33.4618	16,564.5	43.8301	16,564.5	43.8761	16,564.5	37.5939	16,564.5	41.4234	16,564.5	34.9334	16,564.5	34.5811	16,564.5	37.6922	16,564.5	41.3085	16,564.5	42.6977
17,148.9	84.1533	17,148.9	84.5519	17,148.9	82.8555	17,148.9	82.1765	17,148.9	78.8991	17,148.9	78.4653	17,148.9	73.6976	17,148.9	71.5921	17,148.9	67.1402	17,148.9	65.1978	17,148.9	64.6025	17,148.9	57.2599	17,148.9	58.2404	17,148.9	54.7427	17,148.9	62.0481	17,148.9	52.6056	17,148.9	54.1383	17,148.9	51.1218	17,148.9	51.0288	17,148.9	45.252	17,148.9	56.1067	17,148.9	37.3489	17,148.9	39.4074	17,148.9	42.0082	17,148.9	41.6915	17,148.9	33.8505	17,148.9	39.6106	17,148.9	42.0327	17,148.9	45.4164	17,148.9	29.2449	17,148.9	42.272	17,148.9	36.0781	17,148.9	42.2606	17,148.9	31.9077	17,148.9	44.1528	17,148.9	42.6845
17,752.4	82.3604	17,752.4	82.8608	17,752.4	80.6023	17,752.4	80.7053	17,752.4	76.7359	17,752.4	76.4484	17,752.4	71.1517	17,752.4	68.733	17,752.4	64.0544	17,752.4	60.7611	17,752.4	59.1375	17,752.4	52.9026	17,752.4	58.5837	17,752.4	55.8466	17,752.4	59.2195	17,752.4	51.9711	17,752.4	45.3176	17,752.4	49.3989	17,752.4	46.6827	17,752.4	44.0903	17,752.4	54.7716	17,752.4	39.2337	17,752.4	36.8274	17,752.4	38.963	17,752.4	36.642	17,752.4	35.6965	17,752.4	40.2628	17,752.4	39.3047	17,752.4	44.1428	17,752.4	30.6484	17,752.4	36.4204	17,752.4	25.8119	17,752.4	42.0137	17,752.4	35.355	17,752.4	41.4163	17,752.4	41.6585
18,379.4	80.9247	18,379.4	80.9463	18,379.4	78.9236	18,379.4	78.6303	18,379.4	74.8257	18,379.4	73.3216	18,379.4	69.0111	18,379.4	64.2271	18,379.4	60.7454	18,379.4	52.0882	18,379.4	53.5201	18,379.4	56.742	18,379.4	55.8952	18,379.4	55.742	18,379.4	53.1164	18,379.4	51.3149	18,379.4	43.581	18,379.4	47.3158	18,379.4	48.2155	18,379.4	42.9614	18,379.4	53.6436	18,379.4	36.6251	18,379.4	39.2841	18,379.4	33.7385	18,379.4	28.8656	18,379.4	33.8735	18,379.4	35.5314	18,379.4	34.7194	18,379.4	41.2654	18,379.4	37.0638	18,379.4	31.4991	18,379.4	31.5642	18,379.4	37.4122	18,379.4	32.3919	18,379.4	39.0633	18,379.4	38.2132
19,026.9	79.6026	19,026.9	79.2364	19,026.9	77.6586	19,026.9	76.3086	19,026.9	72.4047	19,026.9	70.0042	19,026.9	65.5153	19,026.9	58.8129	19,026.9	54.4714	19,026.9	52.6532	19,026.9	33.3191	19,026.9	57.7711	19,026.9	46.0568	19,026.9	54.7362	19,026.9	49.1447	19,026.9	48.9465	19,026.9	44.9595	19,026.9	45.6248	19,026.9	47.1431	19,026.9	37.7521	19,026.9	52.7495	19,026.9	36.3055	19,026.9	42.447	19,026.9	33.1184	19,026.9	35.7527	19,026.9	26.2882	19,026.9	36.6213	19,026.9	33.1177	19,026.9	38.1763	19,026.9	38.027	19,026.9	37.065	19,026.9	34.0257	19,026.9	25.3179	19,026.9	33.6464	19,026.9	38.6414	19,026.9	31.302
19,697.8	77.983	19,697.8	77.744	19,697.8	76.0683	19,697.8	73.9954	19,697.8	69.7128	19,697.8	66.3217	19,697.8	60.8184	19,697.8	54.8852	19,697.8	47.1967	19,697.8	57.9628	19,697.8	45.2771	19,697.8	58.3025	19,697.8	44.5871	19,697.8	56.1257	19,697.8	51.8204	19,697.8	49.2177	19,697.8	44.8112	19,697.8	44.1795	19,697.8	45.6047	19,697.8	25.7728	19,697.8	51.6434	19,697.8	39.2237	19,697.8	44.0779	19,697.8	31.7653	19,697.8	38.1156	19,697.8	19.4749	19,697.8	35.7165	19,697.8	32.5681	19,697.8	37.4745	19,697.8	36.7982	19,697.8	36.7605	19,697.8	33.6802	19,697.8	32.3137	19,697.8	35.8674	19,697.8	40.4246	19,697.8	2.22617
19,999.5	77.2521	19,999.5	77.3245	19,999.5	75.3964	19,999.5	72.8558	19,999.5	69.0092	19,999.5	64.062	19,999.5	58.0918	19,999.5	54.9907	19,999.5	47.017	19,999.5	59.578	19,999.5	38.7866	19,999.5	58.5521	19,999.5	49.2151	19,999.5	56.2524	19,999.5	50.5538	19,999.5	50.7953	19,999.5	47.9192	19,999.5	42.7945	19,999.5	46.0722	19,999.5	25.7803	19,999.5	50.9908	19,999.5	35.3584	19,999.5	47.9509	19,999.5	31.0157	19,999.5	41.9265	19,999.5	23.9675	19,999.5	45.3629	19,999.5	31.2866	19,999.5	26.6932	19,999.5	34.698	19,999.5	39.3761	19,999.5	38.1659	19,999.5	35.2485	19,999.5	33.7804	19,999.5	42.1796	19,999.5	25.518
