"CEA2034"													
"On Axis"		"Listening Window"		"Early Reflections"		"Sound Power"		"Sound Power DI"		"Early Reflections DI"		"DI offset"	
"Frequency [Hz]"	"Sound Pessure Level [dB]  / [2.83V 1m] "	"Frequency [Hz]"	"Sound Pessure Level [dB]  / [2.83V 1m] "	"Frequency [Hz]"	"Sound Pessure Level [dB]  / [2.83V 1m] "	"Frequency [Hz]"	"Sound Pessure Level [dB]  / [2.83V 1m] "	"Frequency [Hz]"	"Sound Pessure Level [dB]  / [2.83V 1m] "	"Frequency [Hz]"	"Sound Pessure Level [dB]  / [2.83V 1m] "	"Frequency [Hz]"	"Sound Pessure Level [dB]  / [2.83V 1m] "
20.5078	64.7105	20.5078	64.7441	20.5078	64.846	20.5078	64.9512	20.5078	59.7723	20.5078	59.8775	20.5078	59.9794
21.2402	57.764	21.2402	57.8617	21.2402	58.56	21.2402	59.6472	21.2402	58.194	21.2402	59.2811	21.2402	59.9794
21.9727	56.9746	21.9727	57.0231	21.9727	57.4702	21.9727	58.2195	21.9727	58.7831	21.9727	59.5324	21.9727	59.9794
22.7051	63.7598	22.7051	63.7705	22.7051	63.7906	22.7051	63.9062	22.7051	59.8437	22.7051	59.9594	22.7051	59.9794
23.4375	58.0956	23.4375	58.1464	23.4375	58.2855	23.4375	58.5756	23.4375	59.5502	23.4375	59.8403	23.4375	59.9794
24.1699	60.3207	24.1699	60.3468	24.1699	60.4079	24.1699	60.7083	24.1699	59.6178	24.1699	59.9183	24.1699	59.9794
25.6348	59.4925	25.6348	59.5407	25.6348	59.8411	25.6348	60.5003	25.6348	59.0198	25.6348	59.679	25.6348	59.9794
26.3672	63.8641	26.3672	63.8777	26.3672	63.9188	26.3672	64.1875	26.3672	59.6696	26.3672	59.9383	26.3672	59.9794
27.0996	63.4746	27.0996	63.4897	27.0996	63.5541	27.0996	63.85	27.0996	59.6192	27.0996	59.9151	27.0996	59.9794
27.832	64.2308	27.832	64.2379	27.832	64.2436	27.832	64.4788	27.832	59.7385	27.832	59.9737	27.832	59.9794
29.2969	66.2063	29.2969	66.23	29.2969	66.4052	29.2969	66.8854	29.2969	59.324	29.2969	59.8042	29.2969	59.9794
30.0293	69.8526	30.0293	69.8692	30.0293	69.9538	30.0293	70.2435	30.0293	59.6051	30.0293	59.8947	30.0293	59.9794
31.4941	70.7858	31.4941	70.7956	31.4941	70.8414	31.4941	71.0709	31.4941	59.7042	31.4941	59.9336	31.4941	59.9794
32.2266	71.7829	32.2266	71.795	32.2266	71.8568	32.2266	72.1238	32.2266	59.6506	32.2266	59.9176	32.2266	59.9794
33.6914	75.1399	33.6914	75.1525	33.6914	75.2279	33.6914	75.486	33.6914	59.6459	33.6914	59.904	33.6914	59.9794
34.4238	75.9674	34.4238	75.9782	34.4238	76.0449	34.4238	76.2864	34.4238	59.6712	34.4238	59.9128	34.4238	59.9794
35.8887	78.1122	35.8887	78.1212	35.8887	78.1705	35.8887	78.3795	35.8887	59.7212	35.8887	59.9301	35.8887	59.9794
37.3535	80.4678	37.3535	80.4744	37.3535	80.504	37.3535	80.6682	37.3535	59.7857	37.3535	59.9499	37.3535	59.9794
38.8184	82.4278	38.8184	82.4323	38.8184	82.4484	38.8184	82.5872	38.8184	59.8244	38.8184	59.9632	38.8184	59.9794
39.5508	83.4232	39.5508	83.4268	39.5508	83.4354	39.5508	83.5592	39.5508	59.847	39.5508	59.9708	39.5508	59.9794
41.0156	85.2879	41.0156	85.2871	41.0156	85.2608	41.0156	85.3541	41.0156	59.9124	41.0156	60.0057	41.0156	59.9794
42.4805	87.722	42.4805	87.7231	42.4805	87.7078	42.4805	87.7895	42.4805	59.9129	42.4805	59.9947	42.4805	59.9794
43.9453	89.7137	43.9453	89.714	43.9453	89.6941	43.9453	89.7656	43.9453	59.9277	43.9453	59.9993	43.9453	59.9794
45.4102	91.5076	45.4102	91.5062	45.4102	91.4757	45.4102	91.5285	45.4102	59.9571	45.4102	60.01	45.4102	59.9794
47.6074	94.2087	47.6074	94.2066	47.6074	94.1711	47.6074	94.209	47.6074	59.977	47.6074	60.0149	47.6074	59.9794
49.0723	95.8913	49.0723	95.8883	49.0723	95.8463	49.0723	95.8716	49.0723	59.9961	49.0723	60.0214	49.0723	59.9794
50.5371	97.446	50.5371	97.4422	50.5371	97.3954	50.5371	97.4114	50.5371	60.0102	50.5371	60.0262	50.5371	59.9794
52.7344	99.5163	52.7344	99.5118	52.7344	99.4616	52.7344	99.4696	52.7344	60.0216	52.7344	60.0296	52.7344	59.9794
54.1992	100.696	54.1992	100.691	54.1992	100.637	54.1992	100.638	54.1992	60.0318	54.1992	60.0331	54.1992	59.9794
56.3965	102.135	56.3965	102.13	56.3965	102.074	56.3965	102.07	56.3965	60.0392	56.3965	60.0353	56.3965	59.9794
58.5938	103.195	58.5938	103.189	58.5938	103.131	58.5938	103.122	58.5938	60.0464	58.5938	60.0376	58.5938	59.9794
60.0586	103.659	60.0586	103.652	60.0586	103.591	60.0586	103.577	60.0586	60.054	60.0586	60.0403	60.0586	59.9794
62.2559	104.116	62.2559	104.109	62.2559	104.04	62.2559	104.012	62.2559	60.0756	62.2559	60.0484	62.2559	59.9794
64.4531	104.307	64.4531	104.299	64.4531	104.227	64.4531	104.196	64.4531	60.0821	64.4531	60.0506	64.4531	59.9794
66.6504	104.268	66.6504	104.259	66.6504	104.183	66.6504	104.147	66.6504	60.0917	66.6504	60.0549	66.6504	59.9794
69.5801	104.131	69.5801	104.121	69.5801	104.038	69.5801	103.991	69.5801	60.1089	69.5801	60.0621	69.5801	59.9794
71.7773	103.993	71.7773	103.982	71.7773	103.896	71.7773	103.844	71.7773	60.1172	71.7773	60.0654	71.7773	59.9794
73.9746	103.779	73.9746	103.768	73.9746	103.683	73.9746	103.634	73.9746	60.1136	73.9746	60.0642	73.9746	59.9794
76.9043	103.555	76.9043	103.544	76.9043	103.455	76.9043	103.4	76.9043	60.1233	76.9043	60.0682	76.9043	59.9794
79.834	103.372	79.834	103.36	79.834	103.268	79.834	103.212	79.834	60.1272	79.834	60.0715	79.834	59.9794
82.7637	103.313	82.7637	103.299	82.7637	103.195	82.7637	103.124	82.7637	60.1546	82.7637	60.0832	82.7637	59.9794
85.6934	103.277	85.6934	103.261	85.6934	103.144	85.6934	103.051	85.6934	60.1898	85.6934	60.0965	85.6934	59.9794
88.623	103.307	88.623	103.29	88.623	103.168	88.623	103.067	88.623	60.2031	88.623	60.1013	88.623	59.9794
91.5527	103.314	91.5527	103.3	91.5527	103.199	91.5527	103.133	91.5527	60.1468	91.5527	60.0805	91.5527	59.9794
94.4824	103.085	94.4824	103.072	94.4824	102.984	94.4824	102.959	94.4824	60.0921	94.4824	60.067	94.4824	59.9794
98.1445	103.468	98.1445	103.448	98.1445	103.308	98.1445	103.196	98.1445	60.2315	98.1445	60.1192	98.1445	59.9794
101.807	103.565	101.807	103.546	101.807	103.409	101.807	103.301	101.807	60.2241	101.807	60.1163	101.807	59.9794
105.469	103.684	105.469	103.664	105.469	103.524	105.469	103.416	105.469	60.227	105.469	60.119	105.469	59.9794
109.131	103.859	109.131	103.837	109.131	103.694	109.131	103.584	109.131	60.2327	109.131	60.1227	109.131	59.9794
112.793	104.046	112.793	104.023	112.793	103.868	112.793	103.74	112.793	60.2629	112.793	60.1341	112.793	59.9794
116.455	104.179	116.455	104.156	116.455	104.006	116.455	103.89	116.455	60.2447	116.455	60.129	116.455	59.9794
120.85	104.415	120.85	104.388	120.85	104.214	120.85	104.063	120.85	60.3046	120.85	60.1536	120.85	59.9794
125.244	104.61	125.244	104.581	125.244	104.39	125.244	104.214	125.244	60.3457	125.244	60.1698	125.244	59.9794
129.639	104.759	129.639	104.73	129.639	104.546	129.639	104.381	129.639	60.3284	129.639	60.164	129.639	59.9794
134.033	104.732	134.033	104.705	134.033	104.54	134.033	104.41	134.033	60.2745	134.033	60.1449	134.033	59.9794
138.428	104.852	138.428	104.824	138.428	104.658	138.428	104.551	138.428	60.2519	138.428	60.1451	138.428	59.9794
143.555	105.104	143.555	105.069	143.555	104.86	143.555	104.702	143.555	60.3459	143.555	60.1883	143.555	59.9794
148.682	105.231	148.682	105.193	148.682	104.96	148.682	104.758	148.682	60.4145	148.682	60.2126	148.682	59.9794
153.809	105.329	153.809	105.29	153.809	105.058	153.809	104.861	153.809	60.4092	153.809	60.212	153.809	59.9794
159.668	105.478	159.668	105.436	159.668	105.188	159.668	104.981	159.668	60.435	159.668	60.2272	159.668	59.9794
164.795	105.713	164.795	105.667	164.795	105.381	164.795	105.103	164.795	60.5438	164.795	60.2656	164.795	59.9794
170.654	105.743	170.654	105.699	170.654	105.42	170.654	105.146	170.654	60.5321	170.654	60.2577	170.654	59.9794
176.514	105.687	176.514	105.642	176.514	105.375	176.514	105.143	176.514	60.478	176.514	60.2461	176.514	59.9794
183.105	105.7	183.105	105.651	183.105	105.366	183.105	105.127	183.105	60.5041	183.105	60.2653	183.105	59.9794
189.697	105.843	189.697	105.791	189.697	105.488	189.697	105.222	189.697	60.5477	189.697	60.2817	189.697	59.9794
196.289	105.908	196.289	105.85	196.289	105.522	196.289	105.238	196.289	60.5914	196.289	60.3082	196.289	59.9794
202.881	106.014	202.881	105.952	202.881	105.589	202.881	105.246	202.881	60.6859	202.881	60.3421	202.881	59.9794
210.205	106.064	210.205	105.999	210.205	105.619	210.205	105.255	210.205	60.7237	210.205	60.3598	210.205	59.9794
217.529	106.092	217.529	106.028	217.529	105.639	217.529	105.25	217.529	60.7574	217.529	60.3679	217.529	59.9794
225.586	106.199	225.586	106.13	225.586	105.713	225.586	105.283	225.586	60.826	225.586	60.3961	225.586	59.9794
232.91	106.38	232.91	106.308	232.91	105.858	232.91	105.364	232.91	60.9237	232.91	60.429	232.91	59.9794
241.699	106.203	241.699	106.133	241.699	105.698	241.699	105.217	241.699	60.8953	241.699	60.4138	241.699	59.9794
249.756	106.311	249.756	106.235	249.756	105.775	249.756	105.292	249.756	60.9222	249.756	60.4398	249.756	59.9794
258.545	106.236	258.545	106.164	258.545	105.759	258.545	105.396	258.545	60.7474	258.545	60.3852	258.545	59.9794
268.066	106.056	268.066	105.976	268.066	105.511	268.066	105.083	268.066	60.8718	268.066	60.4439	268.066	59.9794
277.588	106.067	277.588	105.979	277.588	105.533	277.588	105.19	277.588	60.7687	277.588	60.4253	277.588	59.9794
287.109	106.004	287.109	105.9	287.109	105.371	287.109	104.961	287.109	60.9191	287.109	60.5084	287.109	59.9794
297.363	106.049	297.363	105.937	297.363	105.327	297.363	104.793	297.363	61.1241	297.363	60.59	297.363	59.9794
307.617	105.849	307.617	105.738	307.617	105.124	307.617	104.615	307.617	61.1032	307.617	60.5935	307.617	59.9794
318.604	105.94	318.604	105.819	318.604	105.099	318.604	104.409	318.604	61.3898	318.604	60.6998	318.604	59.9794
329.59	105.979	329.59	105.863	329.59	105.138	329.59	104.388	329.59	61.4543	329.59	60.7038	329.59	59.9794
341.309	105.847	341.309	105.714	341.309	104.925	341.309	104.193	341.309	61.5003	341.309	60.7679	341.309	59.9794
353.76	106.033	353.76	105.9	353.76	105.044	353.76	104.102	353.76	61.7777	353.76	60.8358	353.76	59.9794
366.211	105.946	366.211	105.816	366.211	104.983	366.211	104.01	366.211	61.7853	366.211	60.8129	366.211	59.9794
378.662	106.036	378.662	105.893	378.662	104.997	378.662	104.004	378.662	61.8684	378.662	60.8758	378.662	59.9794
392.578	105.894	392.578	105.758	392.578	104.848	392.578	103.743	392.578	61.9941	392.578	60.8896	392.578	59.9794
405.762	106	405.762	105.854	405.762	104.898	405.762	103.76	405.762	62.0724	405.762	60.9351	405.762	59.9794
420.41	105.968	420.41	105.825	420.41	104.841	420.41	103.643	420.41	62.1613	420.41	60.9636	420.41	59.9794
435.059	105.714	435.059	105.566	435.059	104.568	435.059	103.41	435.059	62.1356	435.059	60.9773	435.059	59.9794
450.439	105.726	450.439	105.561	450.439	104.458	450.439	103.131	450.439	62.41	450.439	61.0829	450.439	59.9794
466.553	105.667	466.553	105.508	466.553	104.363	466.553	103.016	466.553	62.4722	466.553	61.125	466.553	59.9794
482.666	105.588	482.666	105.453	482.666	104.337	482.666	102.78	482.666	62.6528	482.666	61.0961	482.666	59.9794
500.244	105.746	500.244	105.595	500.244	104.39	500.244	102.765	500.244	62.8097	500.244	61.1846	500.244	59.9794
517.822	105.242	517.822	105.144	517.822	104.131	517.822	102.407	517.822	62.716	517.822	60.992	517.822	59.9794
536.133	105.312	536.133	105.19	536.133	104.104	536.133	102.221	536.133	62.9487	536.133	61.0656	536.133	59.9794
554.443	105.413	554.443	105.322	554.443	104.41	554.443	102.55	554.443	62.7512	554.443	60.8917	554.443	59.9794
574.219	105.139	574.219	105.013	574.219	104.069	574.219	102.487	574.219	62.5056	574.219	60.9229	574.219	59.9794
594.727	105.893	594.727	105.749	594.727	104.574	594.727	102.574	594.727	63.1548	594.727	61.1547	594.727	59.9794
615.234	106.014	615.234	105.895	615.234	104.822	615.234	102.711	615.234	63.1633	615.234	61.0527	615.234	59.9794
637.207	106.207	637.207	106.086	637.207	105.044	637.207	102.898	637.207	63.1674	637.207	61.0213	637.207	59.9794
659.912	106.039	659.912	105.929	659.912	104.987	659.912	102.936	659.912	62.9728	659.912	60.9215	659.912	59.9794
683.35	106.121	683.35	106.021	683.35	105.071	683.35	103.012	683.35	62.989	683.35	60.9298	683.35	59.9794
706.787	105.411	706.787	105.329	706.787	104.646	706.787	102.682	706.787	62.627	706.787	60.6633	706.787	59.9794
731.689	105.408	731.689	105.254	731.689	104.398	731.689	102.349	731.689	62.8851	731.689	60.8356	731.689	59.9794
758.057	105.938	758.057	105.748	758.057	104.724	758.057	102.433	758.057	63.2942	758.057	61.003	758.057	59.9794
784.424	105.687	784.424	105.497	784.424	104.432	784.424	102.04	784.424	63.4367	784.424	61.044	784.424	59.9794
812.256	105.315	812.256	105.172	812.256	104.405	812.256	102.154	812.256	62.9975	812.256	60.7455	812.256	59.9794
840.82	104.971	840.82	104.769	840.82	104.045	840.82	102.054	840.82	62.6951	840.82	60.7037	840.82	59.9794
870.85	105.357	870.85	105.05	870.85	104.077	870.85	102.025	870.85	63.0047	870.85	60.9524	870.85	59.9794
901.611	105.186	901.611	104.873	901.611	103.878	901.611	101.818	901.611	63.0346	901.611	60.9738	901.611	59.9794
933.105	105.849	933.105	105.456	933.105	104.135	933.105	101.892	933.105	63.5434	933.105	61.2997	933.105	59.9794
966.064	105.927	966.064	105.454	966.064	103.778	966.064	101.489	966.064	63.9443	966.064	61.6557	966.064	59.9794
999.756	106.368	999.756	105.961	999.756	103.88	999.756	101.495	999.756	64.4456	999.756	62.0599	999.756	59.9794
1,034.91	105.794	1,034.91	105.524	1,034.91	103.484	1,034.91	101.004	1,034.91	64.4999	1,034.91	62.0198	1,034.91	59.9794
1,071.53	105.425	1,071.53	105.138	1,071.53	103.268	1,071.53	100.797	1,071.53	64.3195	1,071.53	61.8485	1,071.53	59.9794
1,109.62	105.18	1,109.62	104.881	1,109.62	103.011	1,109.62	100.498	1,109.62	64.3619	1,109.62	61.8486	1,109.62	59.9794
1,148.44	105.365	1,148.44	105.02	1,148.44	103.201	1,148.44	100.546	1,148.44	64.4529	1,148.44	61.7981	1,148.44	59.9794
1,189.45	105.563	1,189.45	105.184	1,189.45	103.171	1,189.45	100.379	1,189.45	64.7841	1,189.45	61.9916	1,189.45	59.9794
1,231.2	105.793	1,231.2	105.374	1,231.2	103.204	1,231.2	100.358	1,231.2	64.9951	1,231.2	62.1497	1,231.2	59.9794
1,274.41	105.141	1,274.41	104.884	1,274.41	102.863	1,274.41	100.172	1,274.41	64.6916	1,274.41	62.0006	1,274.41	59.9794
1,319.82	105.208	1,319.82	104.888	1,319.82	102.82	1,319.82	100.215	1,319.82	64.6519	1,319.82	62.0474	1,319.82	59.9794
1,365.97	105.083	1,365.97	104.782	1,365.97	102.71	1,365.97	100.004	1,365.97	64.7578	1,365.97	62.0515	1,365.97	59.9794
1,414.31	104.705	1,414.31	104.392	1,414.31	102.475	1,414.31	99.8554	1,414.31	64.5162	1,414.31	61.8964	1,414.31	59.9794
1,464.11	104.754	1,464.11	104.356	1,464.11	102.339	1,464.11	99.5551	1,464.11	64.7802	1,464.11	61.9962	1,464.11	59.9794
1,515.38	104.88	1,515.38	104.369	1,515.38	102.114	1,515.38	99.0767	1,515.38	65.2722	1,515.38	62.2349	1,515.38	59.9794
1,568.85	104.83	1,568.85	104.483	1,568.85	102.17	1,568.85	98.754	1,568.85	65.7087	1,568.85	62.293	1,568.85	59.9794
1,624.51	104.466	1,624.51	104.144	1,624.51	101.581	1,624.51	97.9702	1,624.51	66.1529	1,624.51	62.5426	1,624.51	59.9794
1,681.64	103.599	1,681.64	103.187	1,681.64	100.861	1,681.64	97.2489	1,681.64	65.9177	1,681.64	62.3059	1,681.64	59.9794
1,740.97	104.488	1,740.97	103.92	1,740.97	101.274	1,740.97	97.0969	1,740.97	66.8025	1,740.97	62.6254	1,740.97	59.9794
1,802.49	104.5	1,802.49	103.993	1,802.49	101.202	1,802.49	96.95	1,802.49	67.0224	1,802.49	62.7706	1,802.49	59.9794
1,866.21	103.837	1,866.21	103.458	1,866.21	100.802	1,866.21	96.7095	1,866.21	66.728	1,866.21	62.635	1,866.21	59.9794
1,932.13	103.468	1,932.13	103.093	1,932.13	100.478	1,932.13	96.5494	1,932.13	66.5235	1,932.13	62.5945	1,932.13	59.9794
2,000.24	104.883	2,000.24	104.201	2,000.24	101.129	2,000.24	97.142	2,000.24	67.0388	2,000.24	63.052	2,000.24	59.9794
2,070.56	105.662	2,070.56	104.957	2,070.56	101.79	2,070.56	97.8417	2,070.56	67.0948	2,070.56	63.1462	2,070.56	59.9794
2,143.8	105.22	2,143.8	104.594	2,143.8	101.601	2,143.8	97.8469	2,143.8	66.7265	2,143.8	62.9728	2,143.8	59.9794
2,219.24	104.44	2,219.24	103.81	2,219.24	101.023	2,219.24	97.5558	2,219.24	66.2338	2,219.24	62.7664	2,219.24	59.9794
2,297.61	105.632	2,297.61	104.93	2,297.61	101.906	2,297.61	98.1127	2,297.61	66.7963	2,297.61	63.0026	2,297.61	59.9794
2,378.17	106.564	2,378.17	105.879	2,378.17	102.661	2,378.17	98.7915	2,378.17	67.0668	2,378.17	63.1969	2,378.17	59.9794
2,462.4	106.346	2,462.4	105.581	2,462.4	102.4	2,462.4	98.5514	2,462.4	67.0091	2,462.4	63.1604	2,462.4	59.9794
2,548.83	106.444	2,548.83	105.561	2,548.83	102.373	2,548.83	98.5872	2,548.83	66.9527	2,548.83	63.1671	2,548.83	59.9794
2,638.92	106.685	2,638.92	105.805	2,638.92	102.618	2,638.92	98.7155	2,638.92	67.069	2,638.92	63.1666	2,638.92	59.9794
2,731.93	105.978	2,731.93	105.328	2,731.93	102.236	2,731.93	98.4266	2,731.93	66.8804	2,731.93	63.0712	2,731.93	59.9794
2,828.61	106.033	2,828.61	105.352	2,828.61	102.344	2,828.61	98.4174	2,828.61	66.9136	2,828.61	62.9873	2,828.61	59.9794
2,928.22	106.038	2,928.22	105.192	2,928.22	102.159	2,928.22	98.2017	2,928.22	66.97	2,928.22	63.0128	2,928.22	59.9794
3,031.49	105.451	3,031.49	104.758	3,031.49	101.704	3,031.49	97.7815	3,031.49	66.9559	3,031.49	63.0334	3,031.49	59.9794
3,138.43	105.64	3,138.43	105.108	3,138.43	101.928	3,138.43	97.8215	3,138.43	67.2663	3,138.43	63.1604	3,138.43	59.9794
3,249.02	106.189	3,249.02	105.357	3,249.02	102.106	3,249.02	97.9531	3,249.02	67.3831	3,249.02	63.2301	3,249.02	59.9794
3,363.28	105.828	3,363.28	105.054	3,363.28	101.824	3,363.28	97.884	3,363.28	67.1498	3,363.28	63.2099	3,363.28	59.9794
3,481.93	106.071	3,481.93	105.091	3,481.93	101.848	3,481.93	97.8384	3,481.93	67.2324	3,481.93	63.2232	3,481.93	59.9794
3,604.98	105.791	3,604.98	104.969	3,604.98	101.695	3,604.98	97.7312	3,604.98	67.2168	3,604.98	63.2528	3,604.98	59.9794
3,732.42	105.272	3,732.42	104.507	3,732.42	101.384	3,732.42	97.4421	3,732.42	67.0441	3,732.42	63.1022	3,732.42	59.9794
3,863.53	104.908	3,863.53	104.33	3,863.53	101.113	3,863.53	97.1231	3,863.53	67.1862	3,863.53	63.1958	3,863.53	59.9794
3,999.76	105.105	3,999.76	104.559	3,999.76	101.279	3,999.76	97.1696	3,999.76	67.3693	3,999.76	63.2601	3,999.76	59.9794
4,141.11	104.839	4,141.11	104.347	4,141.11	101.157	4,141.11	97.0659	4,141.11	67.2606	4,141.11	63.169	4,141.11	59.9794
4,286.87	105.787	4,286.87	105.2	4,286.87	101.995	4,286.87	97.7021	4,286.87	67.4775	4,286.87	63.1848	4,286.87	59.9794
4,438.48	105.921	4,438.48	105.412	4,438.48	102.154	4,438.48	97.8504	4,438.48	67.5406	4,438.48	63.2368	4,438.48	59.9794
4,594.48	106.92	4,594.48	106.128	4,594.48	102.632	4,594.48	98.0119	4,594.48	68.0956	4,594.48	63.4756	4,594.48	59.9794
4,757.08	107.093	4,757.08	106.267	4,757.08	102.689	4,757.08	97.911	4,757.08	68.3356	4,757.08	63.5575	4,757.08	59.9794
4,924.8	107.118	4,924.8	106.253	4,924.8	102.606	4,924.8	97.7458	4,924.8	68.4865	4,924.8	63.6267	4,924.8	59.9794
5,098.39	107.205	5,098.39	106.221	5,098.39	102.448	5,098.39	97.5002	5,098.39	68.6999	5,098.39	63.7518	5,098.39	59.9794
5,277.83	106.12	5,277.83	105.464	5,277.83	101.732	5,277.83	96.9212	5,277.83	68.5219	5,277.83	63.7106	5,277.83	59.9794
5,463.87	106.134	5,463.87	105.295	5,463.87	101.569	5,463.87	96.664	5,463.87	68.6104	5,463.87	63.7049	5,463.87	59.9794
5,656.49	105.499	5,656.49	104.506	5,656.49	100.907	5,656.49	96.0643	5,656.49	68.4207	5,656.49	63.5779	5,656.49	59.9794
5,856.45	104.987	5,856.45	104.088	5,856.45	100.538	5,856.45	95.7093	5,856.45	68.3582	5,856.45	63.5296	5,856.45	59.9794
6,062.99	105.404	6,062.99	104.475	6,062.99	100.837	6,062.99	95.933	6,062.99	68.5219	6,062.99	63.6175	6,062.99	59.9794
6,276.86	106.161	6,276.86	105.158	6,276.86	101.433	6,276.86	96.4167	6,276.86	68.7209	6,276.86	63.7042	6,276.86	59.9794
6,498.05	106.09	6,498.05	105.077	6,498.05	101.367	6,498.05	96.4636	6,498.05	68.5933	6,498.05	63.6901	6,498.05	59.9794
6,727.29	106.471	6,727.29	105.532	6,727.29	101.742	6,727.29	96.71	6,727.29	68.8011	6,727.29	63.7692	6,727.29	59.9794
6,964.6	106.555	6,964.6	105.807	6,964.6	101.943	6,964.6	96.8452	6,964.6	68.9417	6,964.6	63.8436	6,964.6	59.9794
7,209.96	106.77	7,209.96	105.513	7,209.96	101.688	7,209.96	96.5708	7,209.96	68.9217	7,209.96	63.805	7,209.96	59.9794
7,464.11	105.731	7,464.11	104.752	7,464.11	101.077	7,464.11	96.1037	7,464.11	68.6277	7,464.11	63.6542	7,464.11	59.9794
7,727.78	104.775	7,727.78	103.903	7,727.78	100.291	7,727.78	95.483	7,727.78	68.3994	7,727.78	63.5913	7,727.78	59.9794
8,000.24	104.487	8,000.24	103.789	8,000.24	100.047	8,000.24	95.291	8,000.24	68.4777	8,000.24	63.7213	8,000.24	59.9794
8,282.23	105.897	8,282.23	105.087	8,282.23	101.178	8,282.23	96.2183	8,282.23	68.8482	8,282.23	63.8889	8,282.23	59.9794
8,574.46	107.051	8,574.46	106.247	8,574.46	102.215	8,574.46	97.0788	8,574.46	69.1476	8,574.46	64.0115	8,574.46	59.9794
8,876.22	107.007	8,876.22	106.333	8,876.22	102.298	8,876.22	97.1372	8,876.22	69.1755	8,876.22	64.0148	8,876.22	59.9794
9,189.7	106.324	9,189.7	105.639	9,189.7	101.616	9,189.7	96.4998	9,189.7	69.1186	9,189.7	64.0027	9,189.7	59.9794
9,513.43	105.232	9,513.43	104.707	9,513.43	100.696	9,513.43	95.642	9,513.43	69.0443	9,513.43	63.9902	9,513.43	59.9794
9,848.88	105.562	9,848.88	104.757	9,848.88	100.536	9,848.88	95.4561	9,848.88	69.28	9,848.88	64.2004	9,848.88	59.9794
10,196.8	106.561	10,196.8	105.646	10,196.8	101.24	10,196.8	96.0116	10,196.8	69.6135	10,196.8	64.3855	10,196.8	59.9794
10,556.4	107.355	10,556.4	106.277	10,556.4	101.813	10,556.4	96.3681	10,556.4	69.8887	10,556.4	64.4443	10,556.4	59.9794
10,928.5	107.69	10,928.5	106.447	10,928.5	101.957	10,928.5	96.3118	10,928.5	70.1145	10,928.5	64.4694	10,928.5	59.9794
11,313.7	107.451	11,313.7	106.033	11,313.7	101.49	11,313.7	95.9066	11,313.7	70.1055	11,313.7	64.5218	11,313.7	59.9794
11,712.9	106.249	11,712.9	105.146	11,712.9	100.45	11,712.9	95.2247	11,712.9	69.9007	11,712.9	64.6756	11,712.9	59.9794
12,126	106.227	12,126	105.184	12,126	100.43	12,126	95.2458	12,126	69.9173	12,126	64.7329	12,126	59.9794
12,553.7	106.818	12,553.7	105.578	12,553.7	101.082	12,553.7	95.7007	12,553.7	69.8566	12,553.7	64.475	12,553.7	59.9794
12,996.1	106.824	12,996.1	105.652	12,996.1	101.519	12,996.1	96.2879	12,996.1	69.3436	12,996.1	64.1122	12,996.1	59.9794
13,454.6	105.442	13,454.6	104.992	13,454.6	101.347	13,454.6	96.5806	13,454.6	68.3907	13,454.6	63.6244	13,454.6	59.9794
13,928.5	102.794	13,928.5	103.591	13,928.5	100.73	13,928.5	96.415	13,928.5	67.1559	13,928.5	62.8408	13,928.5	59.9794
14,419.9	100.887	14,419.9	102.636	14,419.9	100.33	14,419.9	96.2885	14,419.9	66.3271	14,419.9	62.2858	14,419.9	59.9794
14,928.2	100.777	14,928.2	102.942	14,928.2	100.54	14,928.2	96.4623	14,928.2	66.4595	14,928.2	62.3821	14,928.2	59.9794
15,454.8	101.939	15,454.8	103.334	15,454.8	100.512	15,454.8	96.3399	15,454.8	66.9738	15,454.8	62.8017	15,454.8	59.9794
15,999.8	102.326	15,999.8	103.108	15,999.8	99.9816	15,999.8	95.7466	15,999.8	67.3408	15,999.8	63.1058	15,999.8	59.9794
16,564.5	102.241	16,564.5	102.506	16,564.5	99.3031	16,564.5	95.0292	16,564.5	67.4561	16,564.5	63.1823	16,564.5	59.9794
17,148.2	103.132	17,148.2	102.718	17,148.2	99.3112	17,148.2	94.8037	17,148.2	67.8941	17,148.2	63.3866	17,148.2	59.9794
17,753.2	104.1	17,753.2	103.373	17,753.2	99.6372	17,753.2	94.9085	17,753.2	68.4439	17,753.2	63.7151	17,753.2	59.9794
18,379.4	103.834	18,379.4	102.875	18,379.4	99.1131	18,379.4	94.3745	18,379.4	68.4798	18,379.4	63.7411	18,379.4	59.9794
19,027.6	103.453	19,027.6	101.946	19,027.6	98.1081	19,027.6	93.3233	19,027.6	68.6018	19,027.6	63.817	19,027.6	59.9794
19,698.5	104.01	19,698.5	101.987	19,698.5	97.6584	19,698.5	92.5514	19,698.5	69.4153	19,698.5	64.3083	19,698.5	59.9794
19,999.5	104.106	19,999.5	101.816	19,999.5	97.2652	19,999.5	91.9197	19,999.5	69.8759	19,999.5	64.5303	19,999.5	59.9794
