"Horizontal Reflections"							
"Front"		"Side"		"Rear"		"Total Horizontal Reflection"	
"Frequency [Hz]"	"Sound Pessure Level [dB]  / [2.83V 1m] "	"Frequency [Hz]"	"Sound Pessure Level [dB]  / [2.83V 1m] "	"Frequency [Hz]"	"Sound Pessure Level [dB]  / [2.83V 1m] "	"Frequency [Hz]"	"Sound Pessure Level [dB]  / [2.83V 1m] "
20.5078	64.7506	20.5078	64.986	20.5078	64.8758	20.5078	64.8828
21.2402	57.8781	21.2402	58.7165	21.2402	60.4157	21.2402	59.575
21.9727	57.0309	21.9727	57.4646	21.9727	58.9341	21.9727	58.2347
22.7051	63.7711	22.7051	63.8379	22.7051	63.821	22.7051	63.8161
23.4375	58.1516	23.4375	58.4647	23.4375	58.2332	23.4375	58.2833
24.1699	60.3463	24.1699	60.4921	24.1699	60.4089	24.1699	60.4201
25.6348	59.5449	25.6348	59.9312	25.6348	60.7093	25.6348	60.2935
26.3672	63.8764	26.3672	63.9578	26.3672	64.0712	26.3672	64.0025
27.0996	63.4885	27.0996	63.5864	27.0996	63.7723	27.0996	63.6671
27.832	64.2345	27.832	64.2556	27.832	64.2697	27.832	64.2589
29.2969	66.2297	29.2969	66.4219	29.2969	67.0015	29.2969	66.7033
30.0293	69.8688	30.0293	69.9885	30.0293	70.2191	30.0293	70.0894
31.4941	70.7942	31.4941	70.8577	31.4941	71.0084	31.4941	70.9259
32.2266	71.7937	32.2266	71.8771	32.2266	72.084	32.2266	71.9718
33.6914	75.1523	33.6914	75.2507	33.6914	75.5161	33.6914	75.3744
34.4238	75.9777	34.4238	76.061	34.4238	76.3068	34.4238	76.1768
35.8887	78.1205	35.8887	78.1873	35.8887	78.3763	35.8887	78.2755
37.3535	80.4735	37.3535	80.519	37.3535	80.6428	37.3535	80.5761
38.8184	82.431	38.8184	82.4576	38.8184	82.5442	38.8184	82.4984
39.5508	83.4253	39.5508	83.4435	39.5508	83.5029	39.5508	83.4715
41.0156	85.2845	41.0156	85.2615	41.0156	85.2321	41.0156	85.2505
42.4805	87.7214	42.4805	87.7167	42.4805	87.704	42.4805	87.7109
43.9453	89.7123	43.9453	89.701	43.9453	89.6764	43.9453	89.6903
45.4102	91.5042	45.4102	91.4794	45.4102	91.4277	45.4102	91.4571
47.6074	94.2046	47.6074	94.1737	47.6074	94.1052	47.6074	94.1438
49.0723	95.8862	49.0723	95.8473	49.0723	95.7599	49.0723	95.8091
50.5371	97.44	50.5371	97.395	50.5371	97.2953	50.5371	97.3516
52.7344	99.5096	52.7344	99.4597	52.7344	99.3544	52.7344	99.4143
54.1992	100.688	54.1992	100.634	54.1992	100.521	54.1992	100.585
56.3965	102.128	56.3965	102.07	56.3965	101.954	56.3965	102.021
58.5938	103.187	58.5938	103.125	58.5938	103.009	58.5938	103.076
60.0586	103.65	60.0586	103.584	60.0586	103.464	60.0586	103.534
62.2559	104.106	62.2559	104.03	62.2559	103.888	62.2559	103.971
64.4531	104.296	64.4531	104.216	64.4531	104.071	64.4531	104.156
66.6504	104.256	66.6504	104.17	66.6504	104.018	66.6504	104.108
69.5801	104.118	69.5801	104.023	69.5801	103.856	69.5801	103.955
71.7773	103.979	71.7773	103.88	71.7773	103.707	71.7773	103.809
73.9746	103.765	73.9746	103.666	73.9746	103.505	73.9746	103.601
76.9043	103.541	76.9043	103.436	76.9043	103.268	76.9043	103.369
79.834	103.356	79.834	103.246	79.834	103.083	79.834	103.183
82.7637	103.295	82.7637	103.17	82.7637	102.981	82.7637	103.096
85.6934	103.257	85.6934	103.116	85.6934	102.884	85.6934	103.024
88.623	103.286	88.623	103.14	88.623	102.889	88.623	103.039
91.5527	103.296	91.5527	103.176	91.5527	102.997	91.5527	103.107
94.4824	103.068	94.4824	102.959	94.4824	102.876	94.4824	102.937
98.1445	103.443	98.1445	103.27	98.1445	103.024	98.1445	103.177
101.807	103.541	101.807	103.373	101.807	103.139	101.807	103.285
105.469	103.659	105.469	103.486	105.469	103.26	105.469	103.403
109.131	103.832	109.131	103.653	109.131	103.437	109.131	103.577
112.793	104.018	112.793	103.823	112.793	103.578	112.793	103.735
116.455	104.15	116.455	103.96	116.455	103.748	116.455	103.888
120.85	104.382	120.85	104.158	120.85	103.894	120.85	104.067
125.244	104.574	125.244	104.328	125.244	104.021	125.244	104.219
129.639	104.724	129.639	104.487	129.639	104.196	129.639	104.384
134.033	104.699	134.033	104.484	134.033	104.263	134.033	104.412
138.428	104.817	138.428	104.595	138.428	104.441	138.428	104.559
143.555	105.061	143.555	104.776	143.555	104.559	143.555	104.721
148.682	105.185	148.682	104.874	148.682	104.559	148.682	104.775
153.809	105.282	153.809	104.971	153.809	104.684	153.809	104.887
159.668	105.427	159.668	105.09	159.668	104.808	159.668	105.013
164.795	105.657	164.795	105.274	164.795	104.859	164.795	105.141
170.654	105.689	170.654	105.318	170.654	104.896	170.654	105.179
176.514	105.632	176.514	105.268	176.514	104.942	176.514	105.175
183.105	105.641	183.105	105.248	183.105	104.935	183.105	105.168
189.697	105.78	189.697	105.361	189.697	105.031	189.697	105.278
196.289	105.838	196.289	105.376	196.289	105.042	196.289	105.301
202.881	105.939	202.881	105.435	202.881	104.999	202.881	105.319
210.205	105.986	210.205	105.455	210.205	104.991	210.205	105.331
217.529	106.014	217.529	105.474	217.529	104.969	217.529	105.332
225.586	106.116	225.586	105.536	225.586	104.992	225.586	105.384
232.91	106.293	232.91	105.675	232.91	104.967	232.91	105.454
241.699	106.118	241.699	105.524	241.699	104.786	241.699	105.283
249.756	106.219	249.756	105.587	249.756	104.857	249.756	105.359
258.545	106.15	258.545	105.578	258.545	105.13	258.545	105.471
268.066	105.96	268.066	105.304	268.066	104.786	268.066	105.182
277.588	105.962	277.588	105.306	277.588	105.113	277.588	105.344
287.109	105.879	287.109	105.064	287.109	104.892	287.109	105.149
297.363	105.914	297.363	104.973	297.363	104.565	297.363	104.972
307.617	105.714	307.617	104.752	307.617	104.367	307.617	104.767
318.604	105.794	318.604	104.704	318.604	103.935	318.604	104.571
329.59	105.839	329.59	104.782	329.59	103.775	329.59	104.534
341.309	105.687	341.309	104.506	341.309	103.661	341.309	104.362
353.76	105.874	353.76	104.635	353.76	103.359	353.76	104.319
366.211	105.791	366.211	104.596	366.211	103.345	366.211	104.278
378.662	105.863	378.662	104.509	378.662	103.347	378.662	104.274
392.578	105.73	392.578	104.382	392.578	102.818	392.578	103.978
405.762	105.824	405.762	104.416	405.762	102.822	405.762	104.017
420.41	105.796	420.41	104.359	420.41	102.482	420.41	103.858
435.059	105.538	435.059	104.091	435.059	102.408	435.059	103.669
450.439	105.529	450.439	103.911	450.439	101.886	450.439	103.41
466.553	105.479	466.553	103.796	466.553	101.701	466.553	103.29
482.666	105.431	482.666	103.903	482.666	101.136	482.666	103.111
500.244	105.57	500.244	103.894	500.244	101.124	500.244	103.151
517.822	105.135	517.822	103.913	517.822	100.718	517.822	102.88
536.133	105.173	536.133	103.782	536.133	100.58	536.133	102.803
554.443	105.306	554.443	104.154	554.443	100.825	554.443	103.056
574.219	104.985	574.219	103.588	574.219	101.068	574.219	102.838
594.727	105.728	594.727	104.181	594.727	100.332	594.727	103.063
615.234	105.88	615.234	104.562	615.234	100.427	615.234	103.283
637.207	106.068	637.207	104.783	637.207	100.571	637.207	103.471
659.912	105.912	659.912	104.78	659.912	100.339	659.912	103.353
683.35	106.011	683.35	104.937	683.35	100.682	683.35	103.54
706.787	105.325	706.787	104.708	706.787	100.904	706.787	103.291
731.689	105.232	731.689	104.285	731.689	100.503	731.689	102.981
758.057	105.714	758.057	104.48	758.057	100.268	758.057	103.15
784.424	105.46	784.424	104.14	784.424	99.2832	784.424	102.676
812.256	105.139	812.256	104.243	812.256	99.2573	812.256	102.595
840.82	104.723	840.82	103.767	840.82	99.4795	840.82	102.321
870.85	104.99	870.85	103.698	870.85	99.9103	870.85	102.507
901.611	104.808	901.611	103.479	901.611	99.8261	901.611	102.341
933.105	105.381	933.105	103.45	933.105	100.142	933.105	102.628
966.064	105.363	966.064	102.629	966.064	99.9239	966.064	102.294
999.756	105.89	999.756	102.414	999.756	99.598	999.756	102.356
1,034.91	105.491	1,034.91	102.55	1,034.91	98.5794	1,034.91	101.955
1,071.53	105.074	1,071.53	102.273	1,071.53	97.8006	1,071.53	101.499
1,109.62	104.812	1,109.62	101.866	1,109.62	97.4694	1,109.62	101.174
1,148.44	104.941	1,148.44	102.048	1,148.44	97.2429	1,148.44	101.243
1,189.45	105.117	1,189.45	101.953	1,189.45	97.3529	1,189.45	101.317
1,231.2	105.303	1,231.2	101.819	1,231.2	96.9828	1,231.2	101.287
1,274.41	104.845	1,274.41	101.673	1,274.41	96.6019	1,274.41	100.945
1,319.82	104.825	1,319.82	101.651	1,319.82	96.4922	1,319.82	100.907
1,365.97	104.713	1,365.97	101.737	1,365.97	95.8144	1,365.97	100.76
1,414.31	104.332	1,414.31	101.633	1,414.31	95.4977	1,414.31	100.488
1,464.11	104.283	1,464.11	101.168	1,464.11	95.1635	1,464.11	100.245
1,515.38	104.322	1,515.38	100.881	1,515.38	94.6196	1,515.38	100.082
1,568.85	104.433	1,568.85	100.765	1,568.85	93.9924	1,568.85	100.014
1,624.51	104.079	1,624.51	100.163	1,624.51	92.6728	1,624.51	99.4616
1,681.64	103.137	1,681.64	99.8613	1,681.64	92.9653	1,681.64	98.8868
1,740.97	103.864	1,740.97	100.095	1,740.97	92.6508	1,740.97	99.3172
1,802.49	103.998	1,802.49	100.164	1,802.49	93.1276	1,802.49	99.4698
1,866.21	103.447	1,866.21	99.7175	1,866.21	91.9449	1,866.21	98.8811
1,932.13	103.031	1,932.13	99.016	1,932.13	91.2493	1,932.13	98.3412
2,000.24	104.14	2,000.24	99.5688	2,000.24	92.0292	2,000.24	99.2433
2,070.56	104.908	2,070.56	100.271	2,070.56	92.7089	2,070.56	99.9836
2,143.8	104.503	2,143.8	100.094	2,143.8	92.9116	2,143.8	99.7102
2,219.24	103.683	2,219.24	99.2643	2,219.24	91.9811	2,219.24	98.8753
2,297.61	104.952	2,297.61	100.242	2,297.61	91.8822	2,297.61	99.9267
2,378.17	105.844	2,378.17	100.884	2,378.17	92.2117	2,378.17	100.701
2,462.4	105.54	2,462.4	100.372	2,462.4	91.855	2,462.4	100.333
2,548.83	105.601	2,548.83	100.235	2,548.83	91.5974	2,548.83	100.317
2,638.92	105.837	2,638.92	100.434	2,638.92	91.2702	2,638.92	100.504
2,731.93	105.229	2,731.93	100.073	2,731.93	90.9554	2,731.93	99.9845
2,828.61	105.265	2,828.61	100.215	2,828.61	90.784	2,828.61	100.038
2,928.22	105.072	2,928.22	99.8834	2,928.22	90.5001	2,928.22	99.7989
3,031.49	104.513	3,031.49	99.2106	3,031.49	89.5041	3,031.49	99.1819
3,138.43	104.886	3,138.43	99.2543	3,138.43	88.9147	3,138.43	99.4151
3,249.02	105.265	3,249.02	99.189	3,249.02	88.9153	3,249.02	99.6619
3,363.28	104.918	3,363.28	98.815	3,363.28	88.9892	3,363.28	99.328
3,481.93	105.037	3,481.93	98.8735	3,481.93	88.81	3,481.93	99.4178
3,604.98	104.803	3,604.98	98.7671	3,604.98	88.5281	3,604.98	99.2133
3,732.42	104.33	3,732.42	98.524	3,732.42	88.1709	3,732.42	98.8042
3,863.53	104.039	3,863.53	98.1778	3,863.53	88.0597	3,863.53	98.5075
3,999.76	104.279	3,999.76	98.822	3,999.76	88.5226	3,999.76	98.8658
4,141.11	104.064	4,141.11	99.0021	4,141.11	88.5689	4,141.11	98.7759
4,286.87	105.125	4,286.87	100.093	4,286.87	88.7572	4,286.87	99.8062
4,438.48	105.321	4,438.48	100.343	4,438.48	89.1357	4,438.48	100.026
4,594.48	106.214	4,594.48	100.23	4,594.48	87.847	4,594.48	100.562
4,757.08	106.342	4,757.08	99.9726	4,757.08	86.9545	4,757.08	100.568
4,924.8	106.272	4,924.8	99.6586	4,924.8	87.2331	4,924.8	100.448
5,098.39	106.227	5,098.39	99.32	5,098.39	87.5498	5,098.39	100.347
5,277.83	105.274	5,277.83	98.9104	5,277.83	87.1673	5,277.83	99.5356
5,463.87	105.195	5,463.87	98.7206	5,463.87	86.6477	5,463.87	99.4169
5,656.49	104.398	5,656.49	98.1133	5,656.49	86.0717	5,656.49	98.6722
5,856.45	103.866	5,856.45	98.1314	5,856.45	85.7707	5,856.45	98.2878
6,062.99	104.271	6,062.99	98.5743	6,062.99	85.2301	6,062.99	98.6776
6,276.86	105.069	6,276.86	99.0564	6,276.86	85.0527	6,276.86	99.3709
6,498.05	104.924	6,498.05	99.1658	6,498.05	84.4981	6,498.05	99.2859
6,727.29	105.431	6,727.29	99.3111	6,727.29	83.6521	6,727.29	99.6766
6,964.6	105.739	6,964.6	99.1046	6,964.6	84.8375	6,964.6	99.8722
7,209.96	105.462	7,209.96	98.6456	7,209.96	84.3249	7,209.96	99.5497
7,464.11	104.676	7,464.11	98.1037	7,464.11	84.2062	7,464.11	98.8316
7,727.78	103.755	7,727.78	97.2265	7,727.78	83.0542	7,727.78	97.9168
8,000.24	103.599	8,000.24	96.9076	8,000.24	82.0176	8,000.24	97.709
8,282.23	105.063	8,282.23	98.213	8,282.23	82.4184	8,282.23	99.1233
8,574.46	106.281	8,574.46	99.3166	8,574.46	82.9803	8,574.46	100.309
8,876.22	106.372	8,876.22	99.2504	8,876.22	83.5376	8,876.22	100.37
9,189.7	105.627	9,189.7	98.2721	9,189.7	82.5997	9,189.7	99.5738
9,513.43	104.687	9,513.43	96.7717	9,513.43	80.8046	9,513.43	98.516
9,848.88	104.671	9,848.88	96.0549	9,848.88	78.8914	9,848.88	98.364
10,196.8	105.605	10,196.8	96.3463	10,196.8	78.9225	10,196.8	99.1946
10,556.4	106.306	10,556.4	96.6296	10,556.4	78.8927	10,556.4	99.834
10,928.5	106.543	10,928.5	96.1717	10,928.5	78.2175	10,928.5	99.9816
11,313.7	106.052	11,313.7	94.9197	11,313.7	76.0684	11,313.7	99.4042
11,712.9	104.915	11,712.9	92.6089	11,712.9	75.5517	11,712.9	98.1656
12,126	104.92	12,126	92.1501	12,126	75.505	12,126	98.1364
12,553.7	105.536	12,553.7	93.1106	12,553.7	77.0542	12,553.7	98.7802
12,996.1	105.745	12,996.1	95.3885	12,996.1	80.4397	12,996.1	99.2008
13,454.6	105.027	13,454.6	97.1934	13,454.6	80.8452	13,454.6	98.8688
13,928.5	103.689	13,928.5	97.5939	13,928.5	80.6488	13,928.5	97.9266
14,419.9	102.745	14,419.9	97.5038	14,419.9	79.5622	14,419.9	97.2175
14,928.2	102.994	14,928.2	97.9834	14,928.2	79.8066	14,928.2	97.5368
15,454.8	103.191	15,454.8	97.7428	15,454.8	79.3496	15,454.8	97.5979
15,999.8	102.783	15,999.8	96.8239	15,999.8	78.967	15,999.8	97.0494
16,564.5	102.158	16,564.5	95.6884	16,564.5	78.6358	16,564.5	96.2978
17,148.2	102.4	17,148.2	95.515	17,148.2	78.3817	17,148.2	96.439
17,753.2	102.916	17,753.2	95.969	17,753.2	78.598	17,753.2	96.939
18,379.4	102.206	18,379.4	95.1105	18,379.4	78.5283	18,379.4	96.2011
19,027.6	101.257	19,027.6	93.6343	19,027.6	77.8054	19,027.6	95.1464
19,698.5	101.368	19,698.5	93.1101	19,698.5	77.6294	19,698.5	95.1368
19,999.5	101.258	19,999.5	92.4566	19,999.5	77.3923	19,999.5	94.9357
