"SPL Vertical"																																																																							
"On-Axis"		"10°"		"-10°"		"20°"		"-20°"		"30°"		"-30°"		"40°"		"-40°"		"50°"		"-50°"		"60°"		"-60°"		"70°"		"-70°"		"80°"		"-80°"		"90°"		"-90°"		"100°"		"-100°"		"110°"		"-110°"		"120°"		"-120°"		"130°"		"-130°"		"140°"		"-140°"		"150°"		"-150°"		"160°"		"-160°"		"170°"		"-170°"		"180°"	
"Frequency [Hz]"	"Sound Pessure Level [dB]  / [2.83V 1m] "	"Frequency [Hz]"	"Sound Pessure Level [dB]  / [2.83V 1m] "	"Frequency [Hz]"	"Sound Pessure Level [dB]  / [2.83V 1m] "	"Frequency [Hz]"	"Sound Pessure Level [dB]  / [2.83V 1m] "	"Frequency [Hz]"	"Sound Pessure Level [dB]  / [2.83V 1m] "	"Frequency [Hz]"	"Sound Pessure Level [dB]  / [2.83V 1m] "	"Frequency [Hz]"	"Sound Pessure Level [dB]  / [2.83V 1m] "	"Frequency [Hz]"	"Sound Pessure Level [dB]  / [2.83V 1m] "	"Frequency [Hz]"	"Sound Pessure Level [dB]  / [2.83V 1m] "	"Frequency [Hz]"	"Sound Pessure Level [dB]  / [2.83V 1m] "	"Frequency [Hz]"	"Sound Pessure Level [dB]  / [2.83V 1m] "	"Frequency [Hz]"	"Sound Pessure Level [dB]  / [2.83V 1m] "	"Frequency [Hz]"	"Sound Pessure Level [dB]  / [2.83V 1m] "	"Frequency [Hz]"	"Sound Pessure Level [dB]  / [2.83V 1m] "	"Frequency [Hz]"	"Sound Pessure Level [dB]  / [2.83V 1m] "	"Frequency [Hz]"	"Sound Pessure Level [dB]  / [2.83V 1m] "	"Frequency [Hz]"	"Sound Pessure Level [dB]  / [2.83V 1m] "	"Frequency [Hz]"	"Sound Pessure Level [dB]  / [2.83V 1m] "	"Frequency [Hz]"	"Sound Pessure Level [dB]  / [2.83V 1m] "	"Frequency [Hz]"	"Sound Pessure Level [dB]  / [2.83V 1m] "	"Frequency [Hz]"	"Sound Pessure Level [dB]  / [2.83V 1m] "	"Frequency [Hz]"	"Sound Pessure Level [dB]  / [2.83V 1m] "	"Frequency [Hz]"	"Sound Pessure Level [dB]  / [2.83V 1m] "	"Frequency [Hz]"	"Sound Pessure Level [dB]  / [2.83V 1m] "	"Frequency [Hz]"	"Sound Pessure Level [dB]  / [2.83V 1m] "	"Frequency [Hz]"	"Sound Pessure Level [dB]  / [2.83V 1m] "	"Frequency [Hz]"	"Sound Pessure Level [dB]  / [2.83V 1m] "	"Frequency [Hz]"	"Sound Pessure Level [dB]  / [2.83V 1m] "	"Frequency [Hz]"	"Sound Pessure Level [dB]  / [2.83V 1m] "	"Frequency [Hz]"	"Sound Pessure Level [dB]  / [2.83V 1m] "	"Frequency [Hz]"	"Sound Pessure Level [dB]  / [2.83V 1m] "	"Frequency [Hz]"	"Sound Pessure Level [dB]  / [2.83V 1m] "	"Frequency [Hz]"	"Sound Pessure Level [dB]  / [2.83V 1m] "	"Frequency [Hz]"	"Sound Pessure Level [dB]  / [2.83V 1m] "	"Frequency [Hz]"	"Sound Pessure Level [dB]  / [2.83V 1m] "	"Frequency [Hz]"	"Sound Pessure Level [dB]  / [2.83V 1m] "
20.5078	64.7105	20.5078	64.4759	20.5078	64.9538	20.5078	64.2552	20.5078	65.2	20.5078	64.0529	20.5078	65.4423	20.5078	63.8729	20.5078	65.6733	20.5078	63.7181	20.5078	65.8849	20.5078	63.5907	20.5078	66.0685	20.5078	63.4923	20.5078	66.2153	20.5078	63.4238	20.5078	66.3168	20.5078	63.3856	20.5078	66.3654	20.5078	63.3782	20.5078	66.3554	20.5078	63.402	20.5078	66.2837	20.5078	63.4581	20.5078	66.1505	20.5078	63.5482	20.5078	65.9602	20.5078	63.6744	20.5078	65.7212	20.5078	63.8385	20.5078	65.4456	20.5078	64.0412	20.5078	65.1482	20.5078	64.2807	20.5078	64.8452	20.5078	64.5517
21.2402	57.764	21.2402	57.5259	21.2402	58.0651	21.2402	57.3567	21.2402	58.4193	21.2402	57.2582	21.2402	58.8128	21.2402	57.2287	21.2402	59.2298	21.2402	57.2642	21.2402	59.6529	21.2402	57.3593	21.2402	60.0651	21.2402	57.5087	21.2402	60.4504	21.2402	57.7071	21.2402	60.7951	21.2402	57.9494	21.2402	61.0881	21.2402	58.2306	21.2402	61.3213	21.2402	58.5448	21.2402	61.49	21.2402	58.885	21.2402	61.5922	21.2402	59.2426	21.2402	61.6285	21.2402	59.6074	21.2402	61.6009	21.2402	59.9687	21.2402	61.5126	21.2402	60.3152	21.2402	61.3674	21.2402	60.6366	21.2402	61.1695	21.2402	60.9239
21.9727	56.9746	21.9727	56.9896	21.9727	57.002	21.9727	57.0472	21.9727	57.0687	21.9727	57.145	21.9727	57.1686	21.9727	57.2788	21.9727	57.2934	21.9727	57.4435	21.9727	57.4337	21.9727	57.6333	21.9727	57.5812	21.9727	57.8429	21.9727	57.7296	21.9727	58.0671	21.9727	57.8774	21.9727	58.3008	21.9727	58.0273	21.9727	58.5388	21.9727	58.1863	21.9727	58.7753	21.9727	58.3625	21.9727	59.0033	21.9727	58.5611	21.9727	59.2143	21.9727	58.78	21.9727	59.3986	21.9727	59.0088	21.9727	59.5451	21.9727	59.2299	21.9727	59.643	21.9727	59.4232	21.9727	59.683	21.9727	59.5705	21.9727	59.659
22.7051	63.7598	22.7051	63.5538	22.7051	63.9732	22.7051	63.3596	22.7051	64.1888	22.7051	63.1809	22.7051	64.401	22.7051	63.0208	22.7051	64.6033	22.7051	62.882	22.7051	64.7888	22.7051	62.7667	22.7051	64.9504	22.7051	62.6768	22.7051	65.081	22.7051	62.6142	22.7051	65.174	22.7051	62.5804	22.7051	65.2235	22.7051	62.5771	22.7051	65.2253	22.7051	62.6058	22.7051	65.1767	22.7051	62.6682	22.7051	65.0777	22.7051	62.7655	22.7051	64.9307	22.7051	62.8984	22.7051	64.7411	22.7051	63.0665	22.7051	64.517	22.7051	63.2674	22.7051	64.2686	22.7051	63.4965	22.7051	64.0077	22.7051	63.7465
23.4375	58.0956	23.4375	57.5519	23.4375	58.6367	23.4375	57.0184	23.4375	59.1623	23.4375	56.5082	23.4375	59.6596	23.4375	56.034	23.4375	60.116	23.4375	55.6079	23.4375	60.519	23.4375	55.2417	23.4375	60.8564	23.4375	54.9459	23.4375	61.1169	23.4375	54.7299	23.4375	61.2897	23.4375	54.6018	23.4375	61.3659	23.4375	54.5684	23.4375	61.3385	23.4375	54.635	23.4375	61.2032	23.4375	54.8051	23.4375	60.9593	23.4375	55.0796	23.4375	60.6101	23.4375	55.4558	23.4375	60.1635	23.4375	55.9258	23.4375	59.6327	23.4375	56.4763	23.4375	59.0355	23.4375	57.0878	23.4375	58.3947	23.4375	57.7363
24.1699	60.3207	24.1699	59.8396	24.1699	60.8035	24.1699	59.3724	24.1699	61.2759	24.1699	58.9313	24.1699	61.7256	24.1699	58.528	24.1699	62.1405	24.1699	58.1736	24.1699	62.5087	24.1699	57.8782	24.1699	62.8189	24.1699	57.6508	24.1699	63.06	24.1699	57.4984	24.1699	63.2225	24.1699	57.4263	24.1699	63.2981	24.1699	57.4375	24.1699	63.2808	24.1699	57.5329	24.1699	63.1673	24.1699	57.7116	24.1699	62.9579	24.1699	57.9707	24.1699	62.6568	24.1699	58.3055	24.1699	62.2726	24.1699	58.7092	24.1699	61.8184	24.1699	59.1721	24.1699	61.3113	24.1699	59.6815	24.1699	60.7716	24.1699	60.2212
25.6348	59.4925	25.6348	59.1006	25.6348	59.9138	25.6348	58.7509	25.6348	60.3502	25.6348	58.4545	25.6348	60.7867	25.6348	58.2199	25.6348	61.2079	25.6348	58.0532	25.6348	61.5991	25.6348	57.9574	25.6348	61.9468	25.6348	57.9335	25.6348	62.2386	25.6348	57.9797	25.6348	62.4647	25.6348	58.0925	25.6348	62.6176	25.6348	58.2666	25.6348	62.6927	25.6348	58.4952	25.6348	62.6887	25.6348	58.7706	25.6348	62.6075	25.6348	59.0845	25.6348	62.4543	25.6348	59.4282	25.6348	62.2369	25.6348	59.7933	25.6348	61.9653	25.6348	60.1715	25.6348	61.6504	25.6348	60.5548	25.6348	61.3034	25.6348	60.935
26.3672	63.8641	26.3672	63.5119	26.3672	64.2241	26.3672	63.1765	26.3672	64.5825	26.3672	62.8664	26.3672	64.9291	26.3672	62.5891	26.3672	65.2536	26.3672	62.3516	26.3672	65.5455	26.3672	62.1602	26.3672	65.7949	26.3672	62.0205	26.3672	65.9923	26.3672	61.9369	26.3672	66.1294	26.3672	61.913	26.3672	66.1999	26.3672	61.9508	26.3672	66.1996	26.3672	62.0505	26.3672	66.1272	26.3672	62.2104	26.3672	65.9842	26.3672	62.4266	26.3672	65.7756	26.3672	62.693	26.3672	65.5092	26.3672	63.0022	26.3672	65.1954	26.3672	63.3451	26.3672	64.8462	26.3672	63.7119	26.3672	64.4742	26.3672	64.092
27.0996	63.4746	27.0996	63.1481	27.0996	63.8146	27.0996	62.8447	27.0996	64.158	27.0996	62.5726	27.0996	64.4935	27.0996	62.3388	27.0996	64.8099	27.0996	62.1491	27.0996	65.0956	27.0996	62.0076	27.0996	65.3397	27.0996	61.9174	27.0996	65.5322	27.0996	61.8797	27.0996	65.6647	27.0996	61.8946	27.0996	65.7311	27.0996	61.9606	27.0996	65.728	27.0996	62.0749	27.0996	65.6553	27.0996	62.2335	27.0996	65.5164	27.0996	62.4317	27.0996	65.3184	27.0996	62.6641	27.0996	65.071	27.0996	62.9255	27.0996	64.7863	27.0996	63.2107	27.0996	64.4771	27.0996	63.5146	27.0996	64.1554	27.0996	63.8317
27.832	64.2308	27.832	63.895	27.832	64.5783	27.832	63.5793	27.832	64.9277	27.832	63.2912	27.832	65.2684	27.832	63.0364	27.832	65.5889	27.832	62.82	27.832	65.8775	27.832	62.6456	27.832	66.123	27.832	62.5163	27.832	66.3148	27.832	62.4346	27.832	66.4439	27.832	62.4021	27.832	66.5032	27.832	62.4201	27.832	66.4885	27.832	62.4892	27.832	66.3985	27.832	62.6093	27.832	66.2355	27.832	62.7796	27.832	66.0055	27.832	62.9981	27.832	65.7181	27.832	63.2619	27.832	65.3857	27.832	63.5662	27.832	65.0229	27.832	63.9045	27.832	64.6453	27.832	64.268
29.2969	66.2063	29.2969	65.9519	29.2969	66.4932	29.2969	65.7367	29.2969	66.803	29.2969	65.5648	29.2969	67.1236	29.2969	65.4378	29.2969	67.4414	29.2969	65.3554	29.2969	67.7422	29.2969	65.3161	29.2969	68.0121	29.2969	65.3181	29.2969	68.2388	29.2969	65.3592	29.2969	68.4122	29.2969	65.4371	29.2969	68.5251	29.2969	65.5493	29.2969	68.574	29.2969	65.6931	29.2969	68.559	29.2969	65.8649	29.2969	68.4839	29.2969	66.0608	29.2969	68.3555	29.2969	66.2766	29.2969	68.183	29.2969	66.5078	29.2969	67.9769	29.2969	66.7501	29.2969	67.7472	29.2969	66.9995	29.2969	67.5032	29.2969	67.2521
30.0293	69.8526	30.0293	69.5885	30.0293	70.1351	30.0293	69.35	30.0293	70.4271	30.0293	69.1425	30.0293	70.7187	30.0293	68.97	30.0293	70.9991	30.0293	68.8348	30.0293	71.2573	30.0293	68.7382	30.0293	71.4824	30.0293	68.6804	30.0293	71.6646	30.0293	68.661	30.0293	71.7956	30.0293	68.6792	30.0293	71.8692	30.0293	68.734	30.0293	71.8817	30.0293	68.8241	30.0293	71.8325	30.0293	68.9481	30.0293	71.724	30.0293	69.1044	30.0293	71.5616	30.0293	69.2911	30.0293	71.3535	30.0293	69.5057	30.0293	71.1099	30.0293	69.7451	30.0293	70.8422	30.0293	70.005	30.0293	70.5619	30.0293	70.2797
31.4941	70.7858	31.4941	70.5576	31.4941	71.0307	31.4941	70.3516	31.4941	71.2852	31.4941	70.1716	31.4941	71.5408	31.4941	70.0203	31.4941	71.7881	31.4941	69.8988	31.4941	72.0169	31.4941	69.8078	31.4941	72.2173	31.4941	69.7473	31.4941	72.3797	31.4941	69.7173	31.4941	72.4961	31.4941	69.7178	31.4941	72.5603	31.4941	69.7489	31.4941	72.5685	31.4941	69.811	31.4941	72.5199	31.4941	69.9043	31.4941	72.4162	31.4941	70.0288	31.4941	72.2626	31.4941	70.1841	31.4941	72.0667	31.4941	70.3687	31.4941	71.8381	31.4941	70.5802	31.4941	71.5876	31.4941	70.8145	31.4941	71.3267	31.4941	71.0659
32.2266	71.7829	32.2266	71.5349	32.2266	72.0484	32.2266	71.3104	32.2266	72.3233	32.2266	71.1142	32.2266	72.5986	32.2266	70.9495	32.2266	72.8643	32.2266	70.8182	32.2266	73.1098	32.2266	70.7214	32.2266	73.3249	32.2266	70.6593	32.2266	73.4999	32.2266	70.6321	32.2266	73.6268	32.2266	70.6397	32.2266	73.6993	32.2266	70.6821	32.2266	73.7137	32.2266	70.759	32.2266	73.6688	32.2266	70.8704	32.2266	73.5666	32.2266	71.0154	32.2266	73.4118	32.2266	71.1929	32.2266	73.2118	32.2266	71.4006	32.2266	72.976	32.2266	71.635	32.2266	72.7151	32.2266	71.8911	32.2266	72.4402	32.2266	72.1623
33.6914	75.1399	33.6914	74.9336	33.6914	75.3624	33.6914	74.7493	33.6914	75.5946	33.6914	74.5909	33.6914	75.8286	33.6914	74.4615	33.6914	76.0558	33.6914	74.3629	33.6914	76.2671	33.6914	74.2961	33.6914	76.4537	33.6914	74.2612	33.6914	76.6074	33.6914	74.2579	33.6914	76.7211	33.6914	74.2853	33.6914	76.7896	33.6914	74.3424	33.6914	76.81	33.6914	74.4275	33.6914	76.7817	33.6914	74.5391	33.6914	76.7066	33.6914	74.6749	33.6914	76.5892	33.6914	74.8328	33.6914	76.436	33.6914	75.01	33.6914	76.2545	33.6914	75.2034	33.6914	76.0532	33.6914	75.4094	33.6914	75.8404	33.6914	75.6236
34.4238	75.9674	34.4238	75.7775	34.4238	76.1739	34.4238	75.6089	34.4238	76.3906	34.4238	75.4653	34.4238	76.6102	34.4238	75.349	34.4238	76.8243	34.4238	75.2612	34.4238	77.0243	34.4238	75.2022	34.4238	77.2013	34.4238	75.172	34.4238	77.3472	34.4238	75.1699	34.4238	77.4552	34.4238	75.195	34.4238	77.52	34.4238	75.2462	34.4238	77.5386	34.4238	75.3224	34.4238	77.5107	34.4238	75.4222	34.4238	77.4381	34.4238	75.5442	34.4238	77.3254	34.4238	75.6867	34.4238	77.1788	34.4238	75.8476	34.4238	77.0062	34.4238	76.0245	34.4238	76.8158	34.4238	76.2143	34.4238	76.6156	34.4238	76.413
35.8887	78.1122	35.8887	77.9198	35.8887	78.3186	35.8887	77.7464	35.8887	78.533	35.8887	77.5959	35.8887	78.7481	35.8887	77.4709	35.8887	78.956	35.8887	77.3733	35.8887	79.1483	35.8887	77.3038	35.8887	79.317	35.8887	77.2628	35.8887	79.4542	35.8887	77.2503	35.8887	79.5535	35.8887	77.2655	35.8887	79.61	35.8887	77.3079	35.8887	79.6209	35.8887	77.3766	35.8887	79.5859	35.8887	77.4703	35.8887	79.507	35.8887	77.5876	35.8887	79.3886	35.8887	77.7271	35.8887	79.2369	35.8887	77.8865	35.8887	79.0596	35.8887	78.0634	35.8887	78.865	35.8887	78.2544	35.8887	78.6611	35.8887	78.4554
37.3535	80.4678	37.3535	80.2878	37.3535	80.6594	37.3535	80.1241	37.3535	80.8569	37.3535	79.9801	37.3535	81.0539	37.3535	79.8586	37.3535	81.2431	37.3535	79.7612	37.3535	81.4168	37.3535	79.6891	37.3535	81.5676	37.3535	79.6428	37.3535	81.6884	37.3535	79.6226	37.3535	81.7732	37.3535	79.6283	37.3535	81.8178	37.3535	79.6594	37.3535	81.8198	37.3535	79.7155	37.3535	81.7791	37.3535	79.7956	37.3535	81.6979	37.3535	79.8988	37.3535	81.5807	37.3535	80.0236	37.3535	81.4334	37.3535	80.1682	37.3535	81.2635	37.3535	80.3303	37.3535	81.0785	37.3535	80.5068	37.3535	80.8863	37.3535	80.6937
38.8184	82.4278	38.8184	82.2572	38.8184	82.6092	38.8184	82.1019	38.8184	82.7959	38.8184	81.9654	38.8184	82.9814	38.8184	81.8504	38.8184	83.1586	38.8184	81.7584	38.8184	83.32	38.8184	81.6904	38.8184	83.4583	38.8184	81.6469	38.8184	83.5669	38.8184	81.6275	38.8184	83.6401	38.8184	81.6321	38.8184	83.6743	38.8184	81.66	38.8184	83.6674	38.8184	81.7102	38.8184	83.6201	38.8184	81.7819	38.8184	83.5352	38.8184	81.8738	38.8184	83.4175	38.8184	81.9848	38.8184	83.2737	38.8184	82.1133	38.8184	83.1112	38.8184	82.2576	38.8184	82.9375	38.8184	82.4155	38.8184	82.7598	38.8184	82.5842
39.5508	83.4232	39.5508	83.2539	39.5508	83.6026	39.5508	83.0994	39.5508	83.7866	39.5508	82.9631	39.5508	83.9687	39.5508	82.8476	39.5508	84.142	39.5508	82.7548	39.5508	84.299	39.5508	82.6855	39.5508	84.4325	39.5508	82.6402	39.5508	84.536	39.5508	82.6187	39.5508	84.604	39.5508	82.6206	39.5508	84.6329	39.5508	82.6453	39.5508	84.6211	39.5508	82.6918	39.5508	84.5691	39.5508	82.7592	39.5508	84.4802	39.5508	82.8464	39.5508	84.3596	39.5508	82.9521	39.5508	84.2139	39.5508	83.0751	39.5508	84.0508	39.5508	83.2139	39.5508	83.878	39.5508	83.3666	39.5508	83.7027	39.5508	83.5306
41.0156	85.2879	41.0156	85.0894	41.0156	85.4935	41.0156	84.9033	41.0156	85.7002	41.0156	84.7341	41.0156	85.9013	41.0156	84.5852	41.0156	86.0896	41.0156	84.4595	41.0156	86.2577	41.0156	84.3589	41.0156	86.3983	41.0156	84.285	41.0156	86.5049	41.0156	84.2385	41.0156	86.5719	41.0156	84.2199	41.0156	86.5954	41.0156	84.2294	41.0156	86.5733	41.0156	84.2666	41.0156	86.506	41.0156	84.3313	41.0156	86.3962	41.0156	84.4227	41.0156	86.249	41.0156	84.54	41.0156	86.0714	41.0156	84.6819	41.0156	85.872	41.0156	84.8465	41.0156	85.6598	41.0156	85.0311	41.0156	85.4437	41.0156	85.2319
42.4805	87.722	42.4805	87.549	42.4805	87.9014	42.4805	87.3869	42.4805	88.082	42.4805	87.2394	42.4805	88.258	42.4805	87.1097	42.4805	88.4231	42.4805	87.0001	42.4805	88.5707	42.4805	86.9126	42.4805	88.6945	42.4805	86.8483	42.4805	88.7886	42.4805	86.8084	42.4805	88.8481	42.4805	86.7934	42.4805	88.8696	42.4805	86.8035	42.4805	88.8515	42.4805	86.8386	42.4805	88.7942	42.4805	86.8983	42.4805	88.7003	42.4805	86.9818	42.4805	88.5743	42.4805	87.0881	42.4805	88.4224	42.4805	87.2155	42.4805	88.2517	42.4805	87.3619	42.4805	88.0696	42.4805	87.5246	42.4805	87.8835	42.4805	87.7
43.9453	89.7137	43.9453	89.5459	43.9453	89.8875	43.9453	89.3884	43.9453	90.062	43.9453	89.245	43.9453	90.2316	43.9453	89.1187	43.9453	90.3902	43.9453	89.0119	43.9453	90.5314	43.9453	88.9265	43.9453	90.649	43.9453	88.8638	43.9453	90.7375	43.9453	88.8246	43.9453	90.7922	43.9453	88.8094	43.9453	90.81	43.9453	88.8184	43.9453	90.7893	43.9453	88.8513	43.9453	90.7308	43.9453	88.9077	43.9453	90.6372	43.9453	88.9868	43.9453	90.5132	43.9453	89.0874	43.9453	90.3647	43.9453	89.2081	43.9453	90.1989	43.9453	89.347	43.9453	90.0231	43.9453	89.5016	43.9453	89.8443	43.9453	89.6687
45.4102	91.5076	45.4102	91.3438	45.4102	91.6761	45.4102	91.1891	45.4102	91.8444	45.4102	91.0473	45.4102	92.007	45.4102	90.9215	45.4102	92.1578	45.4102	90.8142	45.4102	92.2909	45.4102	90.7274	45.4102	92.4005	45.4102	90.6626	45.4102	92.4811	45.4102	90.6207	45.4102	92.5287	45.4102	90.6023	45.4102	92.5402	45.4102	90.6076	45.4102	92.5146	45.4102	90.6365	45.4102	92.4527	45.4102	90.6883	45.4102	92.3574	45.4102	90.7623	45.4102	92.2335	45.4102	90.8574	45.4102	92.0869	45.4102	90.972	45.4102	91.9247	45.4102	91.1043	45.4102	91.754	45.4102	91.2521	45.4102	91.5812	45.4102	91.4123
47.6074	94.2087	47.6074	94.0537	47.6074	94.3677	47.6074	93.9069	47.6074	94.5259	47.6074	93.7719	47.6074	94.6781	47.6074	93.6518	47.6074	94.8186	47.6074	93.5488	47.6074	94.9418	47.6074	93.4651	47.6074	95.0422	47.6074	93.4019	47.6074	95.1149	47.6074	93.3603	47.6074	95.1558	47.6074	93.3408	47.6074	95.1625	47.6074	93.3436	47.6074	95.1341	47.6074	93.3685	47.6074	95.0716	47.6074	93.415	47.6074	94.9781	47.6074	93.4823	47.6074	94.8582	47.6074	93.5694	47.6074	94.7179	47.6074	93.6748	47.6074	94.5639	47.6074	93.797	47.6074	94.4027	47.6074	93.9339	47.6074	94.2406	47.6074	94.0829
49.0723	95.8913	49.0723	95.7393	49.0723	96.0466	49.0723	95.5947	49.0723	96.2005	49.0723	95.4612	49.0723	96.3477	49.0723	95.3418	49.0723	96.483	49.0723	95.2389	49.0723	96.6006	49.0723	95.1547	49.0723	96.6954	49.0723	95.0904	49.0723	96.7626	49.0723	95.0473	49.0723	96.7986	49.0723	95.0257	49.0723	96.801	49.0723	95.026	49.0723	96.7692	49.0723	95.0479	49.0723	96.7043	49.0723	95.091	49.0723	96.6096	49.0723	95.1544	49.0723	96.4898	49.0723	95.2371	49.0723	96.3509	49.0723	95.3379	49.0723	96.1993	49.0723	95.4551	49.0723	96.0416	49.0723	95.5869	49.0723	95.8837	49.0723	95.7308
50.5371	97.446	50.5371	97.2967	50.5371	97.5979	50.5371	97.1542	50.5371	97.7479	50.5371	97.0221	50.5371	97.8908	50.5371	96.9035	50.5371	98.0214	50.5371	96.801	50.5371	98.1343	50.5371	96.7165	50.5371	98.2245	50.5371	96.6517	50.5371	98.2873	50.5371	96.6074	50.5371	98.3194	50.5371	96.5845	50.5371	98.3187	50.5371	96.583	50.5371	98.2846	50.5371	96.6029	50.5371	98.2185	50.5371	96.6436	50.5371	98.1237	50.5371	96.7044	50.5371	98.0049	50.5371	96.7841	50.5371	97.8679	50.5371	96.8815	50.5371	97.7192	50.5371	96.995	50.5371	97.5651	50.5371	97.1228	50.5371	97.4113	50.5371	97.2625
52.7344	99.5163	52.7344	99.3719	52.7344	99.6627	52.7344	99.2336	52.7344	99.8065	52.7344	99.105	52.7344	99.943	52.7344	98.9893	52.7344	100.067	52.7344	98.889	52.7344	100.173	52.7344	98.8061	52.7344	100.257	52.7344	98.7423	52.7344	100.314	52.7344	98.6987	52.7344	100.342	52.7344	98.6758	52.7344	100.338	52.7344	98.674	52.7344	100.303	52.7344	98.6928	52.7344	100.237	52.7344	98.7318	52.7344	100.144	52.7344	98.79	52.7344	100.029	52.7344	98.8663	52.7344	99.8975	52.7344	98.9594	52.7344	99.7555	52.7344	99.0675	52.7344	99.6088	52.7344	99.189	52.7344	99.4627	52.7344	99.3216
54.1992	100.696	54.1992	100.554	54.1992	100.84	54.1992	100.417	54.1992	100.98	54.1992	100.289	54.1992	101.113	54.1992	100.175	54.1992	101.234	54.1992	100.075	54.1992	101.336	54.1992	99.9918	54.1992	101.416	54.1992	99.9278	54.1992	101.47	54.1992	99.8838	54.1992	101.495	54.1992	99.8603	54.1992	101.488	54.1992	99.8575	54.1992	101.451	54.1992	99.8753	54.1992	101.384	54.1992	99.9129	54.1992	101.292	54.1992	99.9694	54.1992	101.178	54.1992	100.044	54.1992	101.048	54.1992	100.134	54.1992	100.909	54.1992	100.239	54.1992	100.766	54.1992	100.357	54.1992	100.623	54.1992	100.486
56.3965	102.135	56.3965	101.997	56.3965	102.275	56.3965	101.865	56.3965	102.41	56.3965	101.74	56.3965	102.538	56.3965	101.628	56.3965	102.653	56.3965	101.531	56.3965	102.75	56.3965	101.45	56.3965	102.825	56.3965	101.387	56.3965	102.875	56.3965	101.344	56.3965	102.896	56.3965	101.321	56.3965	102.887	56.3965	101.318	56.3965	102.849	56.3965	101.336	56.3965	102.783	56.3965	101.372	56.3965	102.692	56.3965	101.427	56.3965	102.582	56.3965	101.498	56.3965	102.457	56.3965	101.585	56.3965	102.324	56.3965	101.686	56.3965	102.187	56.3965	101.798	56.3965	102.052	56.3965	101.921
58.5938	103.195	58.5938	103.061	58.5938	103.33	58.5938	102.931	58.5938	103.461	58.5938	102.81	58.5938	103.583	58.5938	102.7	58.5938	103.692	58.5938	102.605	58.5938	103.784	58.5938	102.526	58.5938	103.854	58.5938	102.465	58.5938	103.899	58.5938	102.423	58.5938	103.916	58.5938	102.401	58.5938	103.905	58.5938	102.399	58.5938	103.865	58.5938	102.417	58.5938	103.8	58.5938	102.453	58.5938	103.712	58.5938	102.506	58.5938	103.606	58.5938	102.576	58.5938	103.487	58.5938	102.66	58.5938	103.36	58.5938	102.756	58.5938	103.231	58.5938	102.863	58.5938	103.103	58.5938	102.98
60.0586	103.659	60.0586	103.527	60.0586	103.791	60.0586	103.399	60.0586	103.919	60.0586	103.28	60.0586	104.038	60.0586	103.171	60.0586	104.144	60.0586	103.076	60.0586	104.232	60.0586	102.998	60.0586	104.298	60.0586	102.938	60.0586	104.34	60.0586	102.896	60.0586	104.354	60.0586	102.874	60.0586	104.34	60.0586	102.872	60.0586	104.299	60.0586	102.889	60.0586	104.233	60.0586	102.924	60.0586	104.146	60.0586	102.977	60.0586	104.041	60.0586	103.044	60.0586	103.925	60.0586	103.125	60.0586	103.802	60.0586	103.218	60.0586	103.676	60.0586	103.322	60.0586	103.553	60.0586	103.434
62.2559	104.116	62.2559	103.986	62.2559	104.246	62.2559	103.859	62.2559	104.371	62.2559	103.739	62.2559	104.486	62.2559	103.63	62.2559	104.588	62.2559	103.534	62.2559	104.671	62.2559	103.454	62.2559	104.732	62.2559	103.392	62.2559	104.768	62.2559	103.348	62.2559	104.777	62.2559	103.323	62.2559	104.759	62.2559	103.318	62.2559	104.713	62.2559	103.332	62.2559	104.644	62.2559	103.364	62.2559	104.554	62.2559	103.413	62.2559	104.448	62.2559	103.477	62.2559	104.332	62.2559	103.554	62.2559	104.21	62.2559	103.643	62.2559	104.087	62.2559	103.743	62.2559	103.966	62.2559	103.851
64.4531	104.307	64.4531	104.179	64.4531	104.434	64.4531	104.054	64.4531	104.556	64.4531	103.935	64.4531	104.668	64.4531	103.828	64.4531	104.767	64.4531	103.733	64.4531	104.846	64.4531	103.654	64.4531	104.904	64.4531	103.592	64.4531	104.937	64.4531	103.549	64.4531	104.943	64.4531	103.525	64.4531	104.922	64.4531	103.52	64.4531	104.876	64.4531	103.533	64.4531	104.806	64.4531	103.564	64.4531	104.717	64.4531	103.612	64.4531	104.612	64.4531	103.674	64.4531	104.499	64.4531	103.748	64.4531	104.38	64.4531	103.834	64.4531	104.262	64.4531	103.93	64.4531	104.145	64.4531	104.034
66.6504	104.268	66.6504	104.139	66.6504	104.395	66.6504	104.013	66.6504	104.517	66.6504	103.893	66.6504	104.628	66.6504	103.784	66.6504	104.724	66.6504	103.688	66.6504	104.802	66.6504	103.607	66.6504	104.857	66.6504	103.544	66.6504	104.887	66.6504	103.5	66.6504	104.891	66.6504	103.476	66.6504	104.868	66.6504	103.471	66.6504	104.819	66.6504	103.484	66.6504	104.747	66.6504	103.516	66.6504	104.657	66.6504	103.563	66.6504	104.553	66.6504	103.625	66.6504	104.44	66.6504	103.699	66.6504	104.323	66.6504	103.785	66.6504	104.206	66.6504	103.879	66.6504	104.091	66.6504	103.982
69.5801	104.131	69.5801	104.001	69.5801	104.258	69.5801	103.873	69.5801	104.378	69.5801	103.752	69.5801	104.488	69.5801	103.639	69.5801	104.581	69.5801	103.54	69.5801	104.655	69.5801	103.456	69.5801	104.707	69.5801	103.39	69.5801	104.733	69.5801	103.343	69.5801	104.733	69.5801	103.316	69.5801	104.706	69.5801	103.309	69.5801	104.655	69.5801	103.321	69.5801	104.582	69.5801	103.351	69.5801	104.49	69.5801	103.398	69.5801	104.386	69.5801	103.46	69.5801	104.273	69.5801	103.535	69.5801	104.156	69.5801	103.62	69.5801	104.04	69.5801	103.715	69.5801	103.926	69.5801	103.817
71.7773	103.993	71.7773	103.864	71.7773	104.118	71.7773	103.737	71.7773	104.237	71.7773	103.616	71.7773	104.343	71.7773	103.503	71.7773	104.434	71.7773	103.404	71.7773	104.506	71.7773	103.319	71.7773	104.554	71.7773	103.253	71.7773	104.578	71.7773	103.205	71.7773	104.575	71.7773	103.177	71.7773	104.547	71.7773	103.17	71.7773	104.494	71.7773	103.181	71.7773	104.42	71.7773	103.211	71.7773	104.329	71.7773	103.257	71.7773	104.225	71.7773	103.318	71.7773	104.114	71.7773	103.391	71.7773	104	71.7773	103.475	71.7773	103.886	71.7773	103.568	71.7773	103.775	71.7773	103.668
73.9746	103.779	73.9746	103.652	73.9746	103.903	73.9746	103.527	73.9746	104.019	73.9746	103.407	73.9746	104.123	73.9746	103.296	73.9746	104.212	73.9746	103.198	73.9746	104.281	73.9746	103.115	73.9746	104.328	73.9746	103.05	73.9746	104.35	73.9746	103.005	73.9746	104.346	73.9746	102.979	73.9746	104.318	73.9746	102.974	73.9746	104.266	73.9746	102.987	73.9746	104.194	73.9746	103.019	73.9746	104.106	73.9746	103.067	73.9746	104.006	73.9746	103.128	73.9746	103.9	73.9746	103.202	73.9746	103.791	73.9746	103.285	73.9746	103.682	73.9746	103.376	73.9746	103.575	73.9746	103.473
76.9043	103.555	76.9043	103.43	76.9043	103.678	76.9043	103.305	76.9043	103.792	76.9043	103.185	76.9043	103.895	76.9043	103.074	76.9043	103.98	76.9043	102.976	76.9043	104.046	76.9043	102.894	76.9043	104.089	76.9043	102.829	76.9043	104.108	76.9043	102.784	76.9043	104.101	76.9043	102.759	76.9043	104.069	76.9043	102.753	76.9043	104.014	76.9043	102.767	76.9043	103.94	76.9043	102.798	76.9043	103.852	76.9043	102.845	76.9043	103.753	76.9043	102.905	76.9043	103.648	76.9043	102.976	76.9043	103.542	76.9043	103.055	76.9043	103.436	76.9043	103.143	76.9043	103.334	76.9043	103.236
79.834	103.372	79.834	103.244	79.834	103.496	79.834	103.117	79.834	103.611	79.834	102.995	79.834	103.713	79.834	102.882	79.834	103.798	79.834	102.782	79.834	103.863	79.834	102.698	79.834	103.904	79.834	102.633	79.834	103.92	79.834	102.589	79.834	103.91	79.834	102.565	79.834	103.877	79.834	102.562	79.834	103.821	79.834	102.578	79.834	103.747	79.834	102.613	79.834	103.66	79.834	102.663	79.834	103.563	79.834	102.726	79.834	103.461	79.834	102.799	79.834	103.358	79.834	102.88	79.834	103.256	79.834	102.968	79.834	103.156	79.834	103.06
82.7637	103.313	82.7637	103.183	82.7637	103.438	82.7637	103.052	82.7637	103.552	82.7637	102.926	82.7637	103.653	82.7637	102.808	82.7637	103.735	82.7637	102.703	82.7637	103.795	82.7637	102.614	82.7637	103.831	82.7637	102.544	82.7637	103.842	82.7637	102.494	82.7637	103.827	82.7637	102.467	82.7637	103.788	82.7637	102.461	82.7637	103.727	82.7637	102.475	82.7637	103.649	82.7637	102.508	82.7637	103.557	82.7637	102.557	82.7637	103.457	82.7637	102.619	82.7637	103.353	82.7637	102.692	82.7637	103.249	82.7637	102.773	82.7637	103.146	82.7637	102.86	82.7637	103.047	82.7637	102.951
85.6934	103.277	85.6934	103.147	85.6934	103.401	85.6934	103.015	85.6934	103.514	85.6934	102.886	85.6934	103.612	85.6934	102.765	85.6934	103.69	85.6934	102.655	85.6934	103.746	85.6934	102.56	85.6934	103.778	85.6934	102.484	85.6934	103.783	85.6934	102.428	85.6934	103.762	85.6934	102.393	85.6934	103.716	85.6934	102.38	85.6934	103.649	85.6934	102.388	85.6934	103.563	85.6934	102.414	85.6934	103.465	85.6934	102.457	85.6934	103.359	85.6934	102.515	85.6934	103.25	85.6934	102.584	85.6934	103.141	85.6934	102.661	85.6934	103.036	85.6934	102.746	85.6934	102.934	85.6934	102.838
88.623	103.307	88.623	103.175	88.623	103.432	88.623	103.041	88.623	103.545	88.623	102.91	88.623	103.643	88.623	102.786	88.623	103.721	88.623	102.673	88.623	103.777	88.623	102.575	88.623	103.808	88.623	102.495	88.623	103.812	88.623	102.435	88.623	103.79	88.623	102.396	88.623	103.742	88.623	102.379	88.623	103.673	88.623	102.384	88.623	103.585	88.623	102.408	88.623	103.484	88.623	102.449	88.623	103.375	88.623	102.505	88.623	103.262	88.623	102.574	88.623	103.149	88.623	102.653	88.623	103.039	88.623	102.74	88.623	102.934	88.623	102.834
91.5527	103.314	91.5527	103.181	91.5527	103.441	91.5527	103.048	91.5527	103.558	91.5527	102.919	91.5527	103.661	91.5527	102.799	91.5527	103.745	91.5527	102.693	91.5527	103.807	91.5527	102.603	91.5527	103.845	91.5527	102.532	91.5527	103.857	91.5527	102.483	91.5527	103.844	91.5527	102.457	91.5527	103.807	91.5527	102.452	91.5527	103.748	91.5527	102.469	91.5527	103.672	91.5527	102.504	91.5527	103.582	91.5527	102.557	91.5527	103.484	91.5527	102.622	91.5527	103.381	91.5527	102.699	91.5527	103.277	91.5527	102.784	91.5527	103.173	91.5527	102.876	91.5527	103.071	91.5527	102.971
94.4824	103.085	94.4824	102.942	94.4824	103.223	94.4824	102.8	94.4824	103.35	94.4824	102.663	94.4824	103.462	94.4824	102.538	94.4824	103.554	94.4824	102.429	94.4824	103.623	94.4824	102.341	94.4824	103.668	94.4824	102.278	94.4824	103.688	94.4824	102.24	94.4824	103.682	94.4824	102.229	94.4824	103.654	94.4824	102.244	94.4824	103.605	94.4824	102.283	94.4824	103.541	94.4824	102.342	94.4824	103.465	94.4824	102.417	94.4824	103.38	94.4824	102.505	94.4824	103.291	94.4824	102.601	94.4824	103.198	94.4824	102.702	94.4824	103.102	94.4824	102.804	94.4824	103.005	94.4824	102.905
98.1445	103.468	98.1445	103.329	98.1445	103.596	98.1445	103.186	98.1445	103.71	98.1445	103.044	98.1445	103.806	98.1445	102.907	98.1445	103.879	98.1445	102.782	98.1445	103.928	98.1445	102.673	98.1445	103.952	98.1445	102.584	98.1445	103.948	98.1445	102.518	98.1445	103.919	98.1445	102.478	98.1445	103.867	98.1445	102.464	98.1445	103.796	98.1445	102.475	98.1445	103.709	98.1445	102.509	98.1445	103.612	98.1445	102.563	98.1445	103.509	98.1445	102.632	98.1445	103.404	98.1445	102.714	98.1445	103.299	98.1445	102.803	98.1445	103.196	98.1445	102.897	98.1445	103.094	98.1445	102.995
101.807	103.565	101.807	103.425	101.807	103.696	101.807	103.279	101.807	103.811	101.807	103.135	101.807	103.908	101.807	102.997	101.807	103.982	101.807	102.871	101.807	104.031	101.807	102.761	101.807	104.054	101.807	102.673	101.807	104.051	101.807	102.609	101.807	104.022	101.807	102.572	101.807	103.97	101.807	102.561	101.807	103.9	101.807	102.576	101.807	103.814	101.807	102.614	101.807	103.72	101.807	102.672	101.807	103.62	101.807	102.745	101.807	103.518	101.807	102.829	101.807	103.416	101.807	102.921	101.807	103.315	101.807	103.018	101.807	103.215	101.807	103.116
105.469	103.684	105.469	103.544	105.469	103.814	105.469	103.397	105.469	103.929	105.469	103.252	105.469	104.024	105.469	103.112	105.469	104.096	105.469	102.984	105.469	104.144	105.469	102.872	105.469	104.165	105.469	102.783	105.469	104.16	105.469	102.718	105.469	104.131	105.469	102.68	105.469	104.079	105.469	102.67	105.469	104.01	105.469	102.686	105.469	103.928	105.469	102.726	105.469	103.836	105.469	102.786	105.469	103.74	105.469	102.862	105.469	103.641	105.469	102.95	105.469	103.542	105.469	103.045	105.469	103.443	105.469	103.143	105.469	103.343	105.469	103.243
109.131	103.859	109.131	103.72	109.131	103.986	109.131	103.574	109.131	104.097	109.131	103.428	109.131	104.189	109.131	103.287	109.131	104.256	109.131	103.158	109.131	104.299	109.131	103.045	109.131	104.316	109.131	102.955	109.131	104.307	109.131	102.89	109.131	104.274	109.131	102.852	109.131	104.222	109.131	102.844	109.131	104.153	109.131	102.863	109.131	104.073	109.131	102.906	109.131	103.986	109.131	102.971	109.131	103.896	109.131	103.051	109.131	103.805	109.131	103.141	109.131	103.714	109.131	103.238	109.131	103.623	109.131	103.336	109.131	103.53	109.131	103.434
112.793	104.046	112.793	103.911	112.793	104.169	112.793	103.768	112.793	104.275	112.793	103.624	112.793	104.359	112.793	103.483	112.793	104.42	112.793	103.353	112.793	104.455	112.793	103.238	112.793	104.464	112.793	103.144	112.793	104.447	112.793	103.074	112.793	104.408	112.793	103.033	112.793	104.348	112.793	103.019	112.793	104.274	112.793	103.033	112.793	104.19	112.793	103.071	112.793	104.101	112.793	103.131	112.793	104.011	112.793	103.206	112.793	103.921	112.793	103.292	112.793	103.834	112.793	103.383	112.793	103.746	112.793	103.476	112.793	103.658	112.793	103.568
116.455	104.179	116.455	104.043	116.455	104.302	116.455	103.9	116.455	104.408	116.455	103.756	116.455	104.493	116.455	103.616	116.455	104.554	116.455	103.488	116.455	104.589	116.455	103.377	116.455	104.598	116.455	103.287	116.455	104.582	116.455	103.223	116.455	104.543	116.455	103.188	116.455	104.486	116.455	103.181	116.455	104.415	116.455	103.201	116.455	104.335	116.455	103.246	116.455	104.253	116.455	103.311	116.455	104.17	116.455	103.391	116.455	104.088	116.455	103.48	116.455	104.008	116.455	103.573	116.455	103.927	116.455	103.667	116.455	103.844	116.455	103.757
120.85	104.415	120.85	104.282	120.85	104.534	120.85	104.139	120.85	104.632	120.85	103.993	120.85	104.707	120.85	103.85	120.85	104.756	120.85	103.716	120.85	104.777	120.85	103.598	120.85	104.771	120.85	103.501	120.85	104.739	120.85	103.43	120.85	104.684	120.85	103.388	120.85	104.613	120.85	103.374	120.85	104.53	120.85	103.389	120.85	104.442	120.85	103.428	120.85	104.355	120.85	103.487	120.85	104.271	120.85	103.562	120.85	104.193	120.85	103.645	120.85	104.12	120.85	103.731	120.85	104.048	120.85	103.817	120.85	103.975	120.85	103.898
125.244	104.61	125.244	104.475	125.244	104.728	125.244	104.33	125.244	104.825	125.244	104.18	125.244	104.897	125.244	104.033	125.244	104.94	125.244	103.895	125.244	104.954	125.244	103.773	125.244	104.939	125.244	103.674	125.244	104.896	125.244	103.601	125.244	104.83	125.244	103.556	125.244	104.745	125.244	103.541	125.244	104.65	125.244	103.554	125.244	104.55	125.244	103.59	125.244	104.453	125.244	103.645	125.244	104.363	125.244	103.714	125.244	104.283	125.244	103.789	125.244	104.211	125.244	103.867	125.244	104.144	125.244	103.942	125.244	104.08	125.244	104.013
129.639	104.759	129.639	104.622	129.639	104.88	129.639	104.474	129.639	104.98	129.639	104.322	129.639	105.056	129.639	104.172	129.639	105.105	129.639	104.032	129.639	105.125	129.639	103.908	129.639	105.117	129.639	103.807	129.639	105.082	129.639	103.732	129.639	105.024	129.639	103.689	129.639	104.946	129.639	103.676	129.639	104.856	129.639	103.692	129.639	104.759	129.639	103.734	129.639	104.663	129.639	103.795	129.639	104.571	129.639	103.87	129.639	104.487	129.639	103.952	129.639	104.41	129.639	104.036	129.639	104.337	129.639	104.117	129.639	104.267	129.639	104.194
134.033	104.732	134.033	104.597	134.033	104.851	134.033	104.454	134.033	104.952	134.033	104.308	134.033	105.031	134.033	104.165	134.033	105.084	134.033	104.032	134.033	105.11	134.033	103.916	134.033	105.11	134.033	103.822	134.033	105.085	134.033	103.755	134.033	105.039	134.033	103.718	134.033	104.975	134.033	103.712	134.033	104.9	134.033	103.734	134.033	104.819	134.033	103.782	134.033	104.738	134.033	103.85	134.033	104.659	134.033	103.932	134.033	104.584	134.033	104.022	134.033	104.512	134.033	104.113	134.033	104.44	134.033	104.203	134.033	104.366	134.033	104.287
138.428	104.852	138.428	104.709	138.428	104.979	138.428	104.557	138.428	105.085	138.428	104.402	138.428	105.168	138.428	104.252	138.428	105.223	138.428	104.114	138.428	105.25	138.428	103.996	138.428	105.25	138.428	103.904	138.428	105.226	138.428	103.843	138.428	105.181	138.428	103.815	138.428	105.122	138.428	103.821	138.428	105.054	138.428	103.859	138.428	104.984	138.428	103.923	138.428	104.915	138.428	104.009	138.428	104.851	138.428	104.109	138.428	104.79	138.428	104.215	138.428	104.73	138.428	104.322	138.428	104.666	138.428	104.422	138.428	104.595	138.428	104.514
143.555	105.104	143.555	104.957	143.555	105.231	143.555	104.797	143.555	105.332	143.555	104.63	143.555	105.404	143.555	104.465	143.555	105.445	143.555	104.312	143.555	105.453	143.555	104.178	143.555	105.43	143.555	104.071	143.555	105.381	143.555	103.998	143.555	105.311	143.555	103.962	143.555	105.228	143.555	103.963	143.555	105.14	143.555	103.999	143.555	105.056	143.555	104.066	143.555	104.981	143.555	104.154	143.555	104.918	143.555	104.256	143.555	104.865	143.555	104.364	143.555	104.818	143.555	104.468	143.555	104.769	143.555	104.564	143.555	104.714	143.555	104.646
148.682	105.231	148.682	105.079	148.682	105.362	148.682	104.91	148.682	105.465	148.682	104.734	148.682	105.537	148.682	104.558	148.682	105.576	148.682	104.393	148.682	105.58	148.682	104.246	148.682	105.551	148.682	104.126	148.682	105.493	148.682	104.041	148.682	105.41	148.682	103.993	148.682	105.312	148.682	103.984	148.682	105.206	148.682	104.01	148.682	105.101	148.682	104.067	148.682	105.005	148.682	104.147	148.682	104.922	148.682	104.242	148.682	104.851	148.682	104.341	148.682	104.79	148.682	104.438	148.682	104.733	148.682	104.528	148.682	104.674	148.682	104.606
153.809	105.329	153.809	105.182	153.809	105.452	153.809	105.018	153.809	105.548	153.809	104.845	153.809	105.612	153.809	104.67	153.809	105.644	153.809	104.502	153.809	105.643	153.809	104.352	153.809	105.611	153.809	104.228	153.809	105.553	153.809	104.139	153.809	105.474	153.809	104.088	153.809	105.382	153.809	104.077	153.809	105.286	153.809	104.105	153.809	105.194	153.809	104.167	153.809	105.112	153.809	104.253	153.809	105.042	153.809	104.355	153.809	104.984	153.809	104.464	153.809	104.932	153.809	104.57	153.809	104.88	153.809	104.667	153.809	104.821	153.809	104.751
159.668	105.478	159.668	105.333	159.668	105.598	159.668	105.17	159.668	105.688	159.668	104.995	159.668	105.745	159.668	104.818	159.668	105.768	159.668	104.648	159.668	105.756	159.668	104.496	159.668	105.713	159.668	104.37	159.668	105.644	159.668	104.28	159.668	105.554	159.668	104.229	159.668	105.454	159.668	104.221	159.668	105.354	159.668	104.253	159.668	105.263	159.668	104.319	159.668	105.186	159.668	104.41	159.668	105.127	159.668	104.515	159.668	105.081	159.668	104.625	159.668	105.044	159.668	104.731	159.668	105.007	159.668	104.824	159.668	104.961	159.668	104.901
164.795	105.713	164.795	105.566	164.795	105.832	164.795	105.397	164.795	105.918	164.795	105.214	164.795	105.968	164.795	105.025	164.795	105.98	164.795	104.84	164.795	105.955	164.795	104.669	164.795	105.894	164.795	104.523	164.795	105.803	164.795	104.411	164.795	105.69	164.795	104.339	164.795	105.565	164.795	104.31	164.795	105.438	164.795	104.324	164.795	105.322	164.795	104.374	164.795	105.225	164.795	104.452	164.795	105.149	164.795	104.548	164.795	105.094	164.795	104.65	164.795	105.051	164.795	104.75	164.795	105.013	164.795	104.838	164.795	104.968	164.795	104.911
170.654	105.743	170.654	105.597	170.654	105.863	170.654	105.431	170.654	105.951	170.654	105.251	170.654	106.003	170.654	105.066	170.654	106.019	170.654	104.887	170.654	105.998	170.654	104.722	170.654	105.941	170.654	104.581	170.654	105.854	170.654	104.472	170.654	105.743	170.654	104.403	170.654	105.618	170.654	104.374	170.654	105.49	170.654	104.385	170.654	105.37	170.654	104.431	170.654	105.266	170.654	104.503	170.654	105.183	170.654	104.592	170.654	105.12	170.654	104.687	170.654	105.072	170.654	104.779	170.654	105.03	170.654	104.861	170.654	104.985	170.654	104.93
176.514	105.687	176.514	105.535	176.514	105.812	176.514	105.364	176.514	105.905	176.514	105.181	176.514	105.964	176.514	104.996	176.514	105.986	176.514	104.818	176.514	105.971	176.514	104.658	176.514	105.921	176.514	104.526	176.514	105.843	176.514	104.43	176.514	105.742	176.514	104.375	176.514	105.63	176.514	104.364	176.514	105.516	176.514	104.394	176.514	105.411	176.514	104.458	176.514	105.324	176.514	104.547	176.514	105.256	176.514	104.651	176.514	105.206	176.514	104.76	176.514	105.166	176.514	104.863	176.514	105.129	176.514	104.953	176.514	105.085	176.514	105.027
183.105	105.7	183.105	105.54	183.105	105.831	183.105	105.356	183.105	105.928	183.105	105.159	183.105	105.987	183.105	104.956	183.105	106.007	183.105	104.76	183.105	105.988	183.105	104.583	183.105	105.935	183.105	104.436	183.105	105.852	183.105	104.33	183.105	105.749	183.105	104.271	183.105	105.635	183.105	104.263	183.105	105.524	183.105	104.301	183.105	105.424	183.105	104.38	183.105	105.343	183.105	104.487	183.105	105.284	183.105	104.612	183.105	105.24	183.105	104.74	183.105	105.206	183.105	104.862	183.105	105.169	183.105	104.968	183.105	105.121	183.105	105.055
189.697	105.843	189.697	105.695	189.697	105.959	189.697	105.522	189.697	106.039	189.697	105.332	189.697	106.079	189.697	105.136	189.697	106.078	189.697	104.944	189.697	106.038	189.697	104.769	189.697	105.962	189.697	104.622	189.697	105.858	189.697	104.513	189.697	105.736	189.697	104.45	189.697	105.609	189.697	104.436	189.697	105.491	189.697	104.468	189.697	105.394	189.697	104.541	189.697	105.325	189.697	104.643	189.697	105.284	189.697	104.761	189.697	105.264	189.697	104.884	189.697	105.255	189.697	104.998	189.697	105.243	189.697	105.095	189.697	105.217	189.697	105.168
196.289	105.908	196.289	105.752	196.289	106.028	196.289	105.569	196.289	106.109	196.289	105.367	196.289	106.146	196.289	105.158	196.289	106.139	196.289	104.954	196.289	106.09	196.289	104.769	196.289	106.001	196.289	104.616	196.289	105.882	196.289	104.508	196.289	105.744	196.289	104.45	196.289	105.601	196.289	104.447	196.289	105.469	196.289	104.493	196.289	105.362	196.289	104.58	196.289	105.29	196.289	104.695	196.289	105.252	196.289	104.823	196.289	105.243	196.289	104.95	196.289	105.249	196.289	105.062	196.289	105.255	196.289	105.152	196.289	105.246	196.289	105.214
202.881	106.014	202.881	105.865	202.881	106.125	202.881	105.684	202.881	106.192	202.881	105.48	202.881	106.215	202.881	105.264	202.881	106.191	202.881	105.048	202.881	106.123	202.881	104.847	202.881	106.015	202.881	104.675	202.881	105.876	202.881	104.547	202.881	105.717	202.881	104.471	202.881	105.553	202.881	104.451	202.881	105.403	202.881	104.485	202.881	105.28	202.881	104.563	202.881	105.197	202.881	104.672	202.881	105.154	202.881	104.794	202.881	105.145	202.881	104.914	202.881	105.156	202.881	105.019	202.881	105.17	202.881	105.1	202.881	105.172	202.881	105.151
210.205	106.064	210.205	105.918	210.205	106.17	210.205	105.74	210.205	106.233	210.205	105.535	210.205	106.25	210.205	105.314	210.205	106.222	210.205	105.09	210.205	106.15	210.205	104.876	210.205	106.038	210.205	104.688	210.205	105.896	210.205	104.541	210.205	105.734	210.205	104.447	210.205	105.571	210.205	104.413	210.205	105.421	210.205	104.437	210.205	105.301	210.205	104.511	210.205	105.221	210.205	104.621	210.205	105.182	210.205	104.749	210.205	105.174	210.205	104.879	210.205	105.183	210.205	104.997	210.205	105.193	210.205	105.09	210.205	105.186	210.205	105.154
217.529	106.092	217.529	105.949	217.529	106.195	217.529	105.773	217.529	106.252	217.529	105.571	217.529	106.261	217.529	105.355	217.529	106.222	217.529	105.134	217.529	106.135	217.529	104.922	217.529	106.009	217.529	104.733	217.529	105.852	217.529	104.578	217.529	105.681	217.529	104.471	217.529	105.512	217.529	104.418	217.529	105.365	217.529	104.422	217.529	105.254	217.529	104.478	217.529	105.187	217.529	104.575	217.529	105.16	217.529	104.697	217.529	105.162	217.529	104.828	217.529	105.176	217.529	104.952	217.529	105.184	217.529	105.055	217.529	105.172	217.529	105.13
225.586	106.199	225.586	106.053	225.586	106.301	225.586	105.87	225.586	106.353	225.586	105.658	225.586	106.352	225.586	105.429	225.586	106.298	225.586	105.195	225.586	106.193	225.586	104.969	225.586	106.045	225.586	104.768	225.586	105.863	225.586	104.605	225.586	105.666	225.586	104.494	225.586	105.472	225.586	104.444	225.586	105.303	225.586	104.455	225.586	105.178	225.586	104.521	225.586	105.106	225.586	104.628	225.586	105.085	225.586	104.76	225.586	105.103	225.586	104.895	225.586	105.14	225.586	105.017	225.586	105.175	225.586	105.111	225.586	105.188	225.586	105.169
232.91	106.38	232.91	106.228	232.91	106.486	232.91	106.038	232.91	106.541	232.91	105.818	232.91	106.543	232.91	105.577	232.91	106.491	232.91	105.329	232.91	106.387	232.91	105.086	232.91	106.236	232.91	104.864	232.91	106.049	232.91	104.679	232.91	105.839	232.91	104.544	232.91	105.626	232.91	104.47	232.91	105.429	232.91	104.46	232.91	105.267	232.91	104.508	232.91	105.154	232.91	104.601	232.91	105.093	232.91	104.72	232.91	105.076	232.91	104.845	232.91	105.086	232.91	104.957	232.91	105.105	232.91	105.043	232.91	105.112	232.91	105.094
241.699	106.203	241.699	106.047	241.699	106.316	241.699	105.856	241.699	106.382	241.699	105.64	241.699	106.396	241.699	105.408	241.699	106.356	241.699	105.172	241.699	106.266	241.699	104.941	241.699	106.13	241.699	104.73	241.699	105.958	241.699	104.551	241.699	105.764	241.699	104.414	241.699	105.565	241.699	104.329	241.699	105.377	241.699	104.299	241.699	105.217	241.699	104.32	241.699	105.094	241.699	104.383	241.699	105.008	241.699	104.474	241.699	104.955	241.699	104.576	241.699	104.923	241.699	104.675	241.699	104.898	241.699	104.759	241.699	104.868	241.699	104.824
249.756	106.311	249.756	106.146	249.756	106.428	249.756	105.941	249.756	106.493	249.756	105.707	249.756	106.504	249.756	105.453	249.756	106.461	249.756	105.194	249.756	106.368	249.756	104.943	249.756	106.235	249.756	104.714	249.756	106.071	249.756	104.521	249.756	105.893	249.756	104.376	249.756	105.715	249.756	104.288	249.756	105.552	249.756	104.259	249.756	105.415	249.756	104.287	249.756	105.306	249.756	104.36	249.756	105.224	249.756	104.464	249.756	105.16	249.756	104.584	249.756	105.106	249.756	104.704	249.756	105.051	249.756	104.815	249.756	104.988	249.756	104.91
258.545	106.236	258.545	106.081	258.545	106.346	258.545	105.89	258.545	106.406	258.545	105.672	258.545	106.414	258.545	105.439	258.545	106.373	258.545	105.205	258.545	106.287	258.545	104.981	258.545	106.166	258.545	104.783	258.545	106.027	258.545	104.624	258.545	105.884	258.545	104.513	258.545	105.755	258.545	104.46	258.545	105.653	258.545	104.467	258.545	105.581	258.545	104.529	258.545	105.539	258.545	104.636	258.545	105.516	258.545	104.773	258.545	105.501	258.545	104.922	258.545	105.481	258.545	105.068	258.545	105.446	258.545	105.199	258.545	105.389	258.545	105.307
268.066	106.056	268.066	105.89	268.066	106.169	268.066	105.68	268.066	106.222	268.066	105.437	268.066	106.214	268.066	105.176	268.066	106.146	268.066	104.911	268.066	106.027	268.066	104.658	268.066	105.87	268.066	104.432	268.066	105.694	268.066	104.246	268.066	105.523	268.066	104.113	268.066	105.378	268.066	104.042	268.066	105.278	268.066	104.038	268.066	105.227	268.066	104.097	268.066	105.215	268.066	104.21	268.066	105.226	268.066	104.362	268.066	105.237	268.066	104.534	268.066	105.23	268.066	104.709	268.066	105.192	268.066	104.872	268.066	105.119	268.066	105.011
277.588	106.067	277.588	105.936	277.588	106.14	277.588	105.756	277.588	106.149	277.588	105.536	277.588	106.095	277.588	105.294	277.588	105.983	277.588	105.044	277.588	105.822	277.588	104.806	277.588	105.63	277.588	104.598	277.588	105.432	277.588	104.438	277.588	105.26	277.588	104.339	277.588	105.141	277.588	104.308	277.588	105.097	277.588	104.347	277.588	105.128	277.588	104.449	277.588	105.217	277.588	104.601	277.588	105.335	277.588	104.785	277.588	105.448	277.588	104.981	277.588	105.529	277.588	105.17	277.588	105.562	277.588	105.334	277.588	105.539	277.588	105.461
287.109	106.004	287.109	105.868	287.109	106.075	287.109	105.679	287.109	106.073	287.109	105.451	287.109	105.995	287.109	105.201	287.109	105.842	287.109	104.95	287.109	105.62	287.109	104.719	287.109	105.346	287.109	104.527	287.109	105.046	287.109	104.393	287.109	104.759	287.109	104.326	287.109	104.531	287.109	104.331	287.109	104.407	287.109	104.404	287.109	104.408	287.109	104.533	287.109	104.526	287.109	104.701	287.109	104.722	287.109	104.889	287.109	104.947	287.109	105.073	287.109	105.154	287.109	105.234	287.109	105.31	287.109	105.351	287.109	105.397	287.109	105.409
297.363	106.049	297.363	105.886	297.363	106.147	297.363	105.67	297.363	106.174	297.363	105.412	297.363	106.122	297.363	105.128	297.363	105.991	297.363	104.835	297.363	105.782	297.363	104.555	297.363	105.504	297.363	104.312	297.363	105.178	297.363	104.129	297.363	104.836	297.363	104.026	297.363	104.521	297.363	104.013	297.363	104.284	297.363	104.087	297.363	104.166	297.363	104.233	297.363	104.184	297.363	104.427	297.363	104.32	297.363	104.639	297.363	104.527	297.363	104.841	297.363	104.753	297.363	105.005	297.363	104.95	297.363	105.11	297.363	105.084	297.363	105.138
307.617	105.849	307.617	105.643	307.617	105.992	307.617	105.39	307.617	106.06	307.617	105.105	307.617	106.044	307.617	104.808	307.617	105.942	307.617	104.517	307.617	105.756	307.617	104.253	307.617	105.493	307.617	104.035	307.617	105.174	307.617	103.881	307.617	104.829	307.617	103.807	307.617	104.501	307.617	103.821	307.617	104.239	307.617	103.921	307.617	104.089	307.617	104.094	307.617	104.072	307.617	104.312	307.617	104.178	307.617	104.546	307.617	104.369	307.617	104.761	307.617	104.594	307.617	104.927	307.617	104.802	307.617	105.023	307.617	104.957	307.617	105.033
318.604	105.94	318.604	105.72	318.604	106.085	318.604	105.435	318.604	106.144	318.604	105.105	318.604	106.113	318.604	104.749	318.604	105.991	318.604	104.393	318.604	105.78	318.604	104.063	318.604	105.488	318.604	103.785	318.604	105.133	318.604	103.582	318.604	104.742	318.604	103.473	318.604	104.355	318.604	103.465	318.604	104.022	318.604	103.553	318.604	103.794	318.604	103.72	318.604	103.703	318.604	103.935	318.604	103.751	318.604	104.164	318.604	103.906	318.604	104.371	318.604	104.117	318.604	104.525	318.604	104.328	318.604	104.603	318.604	104.497	318.604	104.594
329.59	105.979	329.59	105.742	329.59	106.138	329.59	105.438	329.59	106.214	329.59	105.082	329.59	106.203	329.59	104.694	329.59	106.105	329.59	104.296	329.59	105.923	329.59	103.919	329.59	105.665	329.59	103.594	329.59	105.346	329.59	103.35	329.59	104.985	329.59	103.211	329.59	104.614	329.59	103.186	329.59	104.269	329.59	103.268	329.59	103.991	329.59	103.434	329.59	103.817	329.59	103.651	329.59	103.763	329.59	103.88	329.59	103.819	329.59	104.087	329.59	103.95	329.59	104.241	329.59	104.108	329.59	104.322	329.59	104.243	329.59	104.321
341.309	105.847	341.309	105.597	341.309	106.009	341.309	105.27	341.309	106.076	341.309	104.882	341.309	106.046	341.309	104.454	341.309	105.92	341.309	104.016	341.309	105.707	341.309	103.599	341.309	105.42	341.309	103.241	341.309	105.084	341.309	102.976	341.309	104.73	341.309	102.833	341.309	104.396	341.309	102.824	341.309	104.12	341.309	102.94	341.309	103.933	341.309	103.154	341.309	103.848	341.309	103.426	341.309	103.858	341.309	103.713	341.309	103.943	341.309	103.973	341.309	104.069	341.309	104.175	341.309	104.199	341.309	104.299	341.309	104.299	341.309	104.339
353.76	106.033	353.76	105.796	353.76	106.176	353.76	105.473	353.76	106.22	353.76	105.077	353.76	106.161	353.76	104.624	353.76	106.003	353.76	104.135	353.76	105.752	353.76	103.64	353.76	105.42	353.76	103.176	353.76	105.031	353.76	102.785	353.76	104.62	353.76	102.512	353.76	104.23	353.76	102.392	353.76	103.909	353.76	102.433	353.76	103.694	353.76	102.615	353.76	103.6	353.76	102.893	353.76	103.613	353.76	103.209	353.76	103.702	353.76	103.512	353.76	103.823	353.76	103.76	353.76	103.936	353.76	103.93	353.76	104.008	353.76	104.011
366.211	105.946	366.211	105.729	366.211	106.07	366.211	105.428	366.211	106.095	366.211	105.055	366.211	106.017	366.211	104.624	366.211	105.833	366.211	104.156	366.211	105.547	366.211	103.676	366.211	105.17	366.211	103.219	366.211	104.727	366.211	102.823	366.211	104.256	366.211	102.531	366.211	103.818	366.211	102.377	366.211	103.476	366.211	102.375	366.211	103.284	366.211	102.512	366.211	103.256	366.211	102.755	366.211	103.362	366.211	103.052	366.211	103.54	366.211	103.354	366.211	103.728	366.211	103.619	366.211	103.874	366.211	103.817	366.211	103.947	366.211	103.929
378.662	106.036	378.662	105.76	378.662	106.22	378.662	105.407	378.662	106.301	378.662	104.991	378.662	106.269	378.662	104.53	378.662	106.116	378.662	104.042	378.662	105.842	378.662	103.551	378.662	105.45	378.662	103.088	378.662	104.96	378.662	102.692	378.662	104.407	378.662	102.408	378.662	103.855	378.662	102.278	378.662	103.391	378.662	102.32	378.662	103.104	378.662	102.521	378.662	103.043	378.662	102.839	378.662	103.187	378.662	103.211	378.662	103.457	378.662	103.577	378.662	103.757	378.662	103.885	378.662	104.009	378.662	104.099	378.662	104.163	378.662	104.195
392.578	105.894	392.578	105.61	392.578	106.086	392.578	105.249	392.578	106.177	392.578	104.827	392.578	106.159	392.578	104.364	392.578	106.028	392.578	103.881	392.578	105.781	392.578	103.398	392.578	105.422	392.578	102.937	392.578	104.959	392.578	102.523	392.578	104.415	392.578	102.189	392.578	103.833	392.578	101.974	392.578	103.286	392.578	101.911	392.578	102.864	392.578	102.015	392.578	102.651	392.578	102.265	392.578	102.674	392.578	102.608	392.578	102.88	392.578	102.976	392.578	103.168	392.578	103.303	392.578	103.433	392.578	103.536	392.578	103.604	392.578	103.642
405.762	106	405.762	105.707	405.762	106.189	405.762	105.322	405.762	106.266	405.762	104.865	405.762	106.228	405.762	104.358	405.762	106.071	405.762	103.833	405.762	105.8	405.762	103.324	405.762	105.417	405.762	102.865	405.762	104.937	405.762	102.486	405.762	104.379	405.762	102.215	405.762	103.785	405.762	102.072	405.762	103.218	405.762	102.072	405.762	102.764	405.762	102.213	405.762	102.508	405.762	102.471	405.762	102.496	405.762	102.798	405.762	102.695	405.762	103.135	405.762	103.007	405.762	103.422	405.762	103.324	405.762	103.607	405.762	103.557	405.762	103.656
420.41	105.968	420.41	105.675	420.41	106.157	420.41	105.288	420.41	106.236	420.41	104.823	420.41	106.205	420.41	104.304	420.41	106.063	420.41	103.762	420.41	105.812	420.41	103.235	420.41	105.456	420.41	102.765	420.41	105.001	420.41	102.389	420.41	104.46	420.41	102.136	420.41	103.858	420.41	102.023	420.41	103.238	420.41	102.054	420.41	102.674	420.41	102.213	420.41	102.266	420.41	102.466	420.41	102.103	420.41	102.766	420.41	102.205	420.41	103.054	420.41	102.497	420.41	103.276	420.41	102.854	420.41	103.383	420.41	103.162	420.41	103.347
435.059	105.714	435.059	105.432	435.059	105.882	435.059	105.042	435.059	105.932	435.059	104.559	435.059	105.865	435.059	104.007	435.059	105.686	435.059	103.417	435.059	105.403	435.059	102.835	435.059	105.029	435.059	102.315	435.059	104.58	435.059	101.914	435.059	104.081	435.059	101.678	435.059	103.56	435.059	101.629	435.059	103.052	435.059	101.759	435.059	102.608	435.059	102.028	435.059	102.29	435.059	102.381	435.059	102.164	435.059	102.754	435.059	102.256	435.059	103.085	435.059	102.524	435.059	103.323	435.059	102.869	435.059	103.428	435.059	103.18	435.059	103.379
450.439	105.726	450.439	105.445	450.439	105.886	450.439	105.048	450.439	105.925	450.439	104.548	450.439	105.842	450.439	103.961	450.439	105.64	450.439	103.317	450.439	105.325	450.439	102.659	450.439	104.907	450.439	102.041	450.439	104.404	450.439	101.531	450.439	103.842	450.439	101.196	450.439	103.256	450.439	101.079	450.439	102.689	450.439	101.185	450.439	102.19	450.439	101.472	450.439	101.821	450.439	101.866	450.439	101.647	450.439	102.285	450.439	101.705	450.439	102.65	450.439	101.967	450.439	102.902	450.439	102.333	450.439	102.998	450.439	102.683	450.439	102.921
466.553	105.667	466.553	105.381	466.553	105.828	466.553	104.974	466.553	105.863	466.553	104.456	466.553	105.774	466.553	103.841	466.553	105.563	466.553	103.159	466.553	105.24	466.553	102.454	466.553	104.818	466.553	101.79	466.553	104.32	466.553	101.249	466.553	103.777	466.553	100.913	466.553	103.225	466.553	100.836	466.553	102.703	466.553	101.013	466.553	102.251	466.553	101.384	466.553	101.912	466.553	101.853	466.553	101.739	466.553	102.326	466.553	101.773	466.553	102.721	466.553	102.006	466.553	102.98	466.553	102.358	466.553	103.067	466.553	102.714	466.553	102.971
482.666	105.588	482.666	105.31	482.666	105.738	482.666	104.905	482.666	105.762	482.666	104.377	482.666	105.661	482.666	103.737	482.666	105.438	482.666	103.005	482.666	105.099	482.666	102.216	482.666	104.656	482.666	101.428	482.666	104.129	482.666	100.72	482.666	103.551	482.666	100.194	482.666	102.97	482.666	99.9466	482.666	102.438	482.666	100.021	482.666	101.999	482.666	100.376	482.666	101.683	482.666	100.901	482.666	101.511	482.666	101.465	482.666	101.504	482.666	101.956	482.666	101.657	482.666	102.298	482.666	101.923	482.666	102.449	482.666	102.207	482.666	102.407
500.244	105.746	500.244	105.48	500.244	105.873	500.244	105.076	500.244	105.862	500.244	104.533	500.244	105.717	500.244	103.859	500.244	105.441	500.244	103.067	500.244	105.044	500.244	102.188	500.244	104.546	500.244	101.282	500.244	103.976	500.244	100.45	500.244	103.384	500.244	99.83	500.244	102.825	500.244	99.5558	500.244	102.353	500.244	99.6784	500.244	102	500.244	100.124	500.244	101.77	500.244	100.742	500.244	101.665	500.244	101.379	500.244	101.688	500.244	101.922	500.244	101.835	500.244	102.301	500.244	102.07	500.244	102.484	500.244	102.313	500.244	102.476
517.822	105.242	517.822	105.083	517.822	105.268	517.822	104.784	517.822	105.168	517.822	104.343	517.822	104.949	517.822	103.763	517.822	104.62	517.822	103.049	517.822	104.19	517.822	102.22	517.822	103.673	517.822	101.312	517.822	103.098	517.822	100.388	517.822	102.511	517.822	99.5652	517.822	101.981	517.822	99.0078	517.822	101.583	517.822	98.8706	517.822	101.361	517.822	99.1773	517.822	101.304	517.822	99.7829	517.822	101.358	517.822	100.478	517.822	101.469	517.822	101.098	517.822	101.601	517.822	101.552	517.822	101.738	517.822	101.813	517.822	101.853	517.822	101.897
536.133	105.312	536.133	105.207	536.133	105.291	536.133	104.965	536.133	105.148	536.133	104.578	536.133	104.882	536.133	104.035	536.133	104.488	536.133	103.337	536.133	103.959	536.133	102.49	536.133	103.294	536.133	101.521	536.133	102.516	536.133	100.483	536.133	101.688	536.133	99.4793	536.133	100.934	536.133	98.6809	536.133	100.414	536.133	98.3011	536.133	100.245	536.133	98.4629	536.133	100.407	536.133	99.0707	536.133	100.771	536.133	99.8818	536.133	101.195	536.133	100.673	536.133	101.577	536.133	101.314	536.133	101.858	536.133	101.749	536.133	102	536.133	101.972
554.443	105.413	554.443	105.265	554.443	105.487	554.443	105.039	554.443	105.48	554.443	104.719	554.443	105.373	554.443	104.286	554.443	105.141	554.443	103.72	554.443	104.758	554.443	103.01	554.443	104.198	554.443	102.164	554.443	103.443	554.443	101.218	554.443	102.498	554.443	100.249	554.443	101.415	554.443	99.3884	554.443	100.354	554.443	98.8151	554.443	99.6122	554.443	98.6823	554.443	99.4848	554.443	98.9988	554.443	99.9423	554.443	99.6093	554.443	100.647	554.443	100.31	554.443	101.282	554.443	100.949	554.443	101.694	554.443	101.444	554.443	101.845	554.443	101.752
574.219	105.139	574.219	104.856	574.219	105.35	574.219	104.524	574.219	105.465	574.219	104.157	574.219	105.465	574.219	103.757	574.219	105.334	574.219	103.31	574.219	105.061	574.219	102.796	574.219	104.638	574.219	102.202	574.219	104.057	574.219	101.535	574.219	103.307	574.219	100.835	574.219	102.376	574.219	100.195	574.219	101.276	574.219	99.764	574.219	100.11	574.219	99.6956	574.219	99.2231	574.219	100.038	574.219	99.1349	574.219	100.674	574.219	99.9176	574.219	101.408	574.219	101.023	574.219	102.066	574.219	101.958	574.219	102.525	574.219	102.525	574.219	102.7
594.727	105.893	594.727	105.661	594.727	105.976	594.727	105.287	594.727	105.909	594.727	104.784	594.727	105.7	594.727	104.173	594.727	105.356	594.727	103.474	594.727	104.889	594.727	102.709	594.727	104.314	594.727	101.903	594.727	103.656	594.727	101.099	594.727	102.941	594.727	100.367	594.727	102.189	594.727	99.8237	594.727	101.397	594.727	99.6031	594.727	100.545	594.727	99.783	594.727	99.6701	594.727	100.304	594.727	99.0036	594.727	100.989	594.727	98.9532	594.727	101.643	594.727	99.6415	594.727	102.114	594.727	100.662	594.727	102.295	594.727	101.56	594.727	102.12
615.234	106.014	615.234	105.797	615.234	106.098	615.234	105.451	615.234	106.045	615.234	104.979	615.234	105.852	615.234	104.384	615.234	105.51	615.234	103.671	615.234	105.015	615.234	102.845	615.234	104.366	615.234	101.922	615.234	103.577	615.234	100.94	615.234	102.689	615.234	99.9813	615.234	101.772	615.234	99.2043	615.234	100.919	615.234	98.8327	615.234	100.214	615.234	99.0183	615.234	99.7163	615.234	99.6705	615.234	99.4994	615.234	100.514	615.234	99.6532	615.234	101.288	615.234	100.174	615.234	101.83	615.234	100.882	615.234	102.061	615.234	101.535	615.234	101.957
637.207	106.207	637.207	106.024	637.207	106.27	637.207	105.725	637.207	106.206	637.207	105.308	637.207	106.014	637.207	104.77	637.207	105.691	637.207	104.102	637.207	105.238	637.207	103.295	637.207	104.661	637.207	102.345	637.207	103.968	637.207	101.262	637.207	103.172	637.207	100.095	637.207	102.284	637.207	98.9908	637.207	101.32	637.207	98.2713	637.207	100.318	637.207	98.3043	637.207	99.4085	637.207	99.0816	637.207	98.8819	637.207	100.179	637.207	99.0473	637.207	101.191	637.207	99.8378	637.207	101.903	637.207	100.833	637.207	102.232	637.207	101.664	637.207	102.15
659.912	106.039	659.912	105.839	659.912	106.131	659.912	105.542	659.912	106.108	659.912	105.157	659.912	105.963	659.912	104.687	659.912	105.691	659.912	104.131	659.912	105.293	659.912	103.485	659.912	104.779	659.912	102.744	659.912	104.173	659.912	101.9	659.912	103.511	659.912	100.94	659.912	102.833	659.912	99.8732	659.912	102.144	659.912	98.8176	659.912	101.412	659.912	98.1252	659.912	100.614	659.912	98.2454	659.912	99.8638	659.912	99.144	659.912	99.4945	659.912	100.285	659.912	99.7945	659.912	101.215	659.912	100.565	659.912	101.728	659.912	101.329	659.912	101.76
683.35	106.121	683.35	105.84	683.35	106.263	683.35	105.438	683.35	106.259	683.35	104.932	683.35	106.101	683.35	104.333	683.35	105.789	683.35	103.646	683.35	105.324	683.35	102.873	683.35	104.716	683.35	102.034	683.35	103.991	683.35	101.179	683.35	103.205	683.35	100.377	683.35	102.434	683.35	99.7023	683.35	101.744	683.35	99.2456	683.35	101.162	683.35	99.1428	683.35	100.701	683.35	99.5078	683.35	100.438	683.35	100.261	683.35	100.498	683.35	101.129	683.35	100.9	683.35	101.84	683.35	101.476	683.35	102.239	683.35	101.994	683.35	102.28
706.787	105.411	706.787	105.176	706.787	105.51	706.787	104.827	706.787	105.467	706.787	104.389	706.787	105.283	706.787	103.884	706.787	104.967	706.787	103.315	706.787	104.532	706.787	102.663	706.787	103.993	706.787	101.904	706.787	103.374	706.787	101.021	706.787	102.715	706.787	100.037	706.787	102.056	706.787	99.0505	706.787	101.409	706.787	98.3016	706.787	100.753	706.787	98.1611	706.787	100.099	706.787	98.8041	706.787	99.6286	706.787	99.9328	706.787	99.6886	706.787	101.092	706.787	100.388	706.787	101.99	706.787	101.356	706.787	102.496	706.787	102.153	706.787	102.554
731.689	105.408	731.689	105.17	731.689	105.488	731.689	104.788	731.689	105.414	731.689	104.29	731.689	105.194	731.689	103.713	731.689	104.835	731.689	103.082	731.689	104.339	731.689	102.396	731.689	103.715	731.689	101.63	731.689	102.992	731.689	100.757	731.689	102.238	731.689	99.774	731.689	101.543	731.689	98.7271	731.689	100.954	731.689	97.7878	731.689	100.418	731.689	97.365	731.689	99.8554	731.689	97.884	731.689	99.3443	731.689	99.1595	731.689	99.2403	731.689	100.569	731.689	99.8439	731.689	101.671	731.689	100.883	731.689	102.278	731.689	101.821	731.689	102.325
758.057	105.938	758.057	105.706	758.057	106.013	758.057	105.319	758.057	105.933	758.057	104.786	758.057	105.696	758.057	104.125	758.057	105.296	758.057	103.358	758.057	104.725	758.057	102.501	758.057	103.981	758.057	101.562	758.057	103.08	758.057	100.544	758.057	102.076	758.057	99.4503	758.057	101.066	758.057	98.3019	758.057	100.165	758.057	97.2424	758.057	99.4329	758.057	96.725	758.057	98.8682	758.057	97.3043	758.057	98.5464	758.057	98.766	758.057	98.715	758.057	100.342	758.057	99.5151	758.057	101.536	758.057	100.649	758.057	102.167	758.057	101.643	758.057	102.193
784.424	105.687	784.424	105.54	784.424	105.703	784.424	105.257	784.424	105.586	784.424	104.836	784.424	105.329	784.424	104.279	784.424	104.914	784.424	103.588	784.424	104.323	784.424	102.762	784.424	103.549	784.424	101.801	784.424	102.614	784.424	100.71	784.424	101.603	784.424	99.4944	784.424	100.672	784.424	98.1383	784.424	99.9458	784.424	96.6767	784.424	99.3531	784.424	95.5132	784.424	98.6533	784.424	95.6208	784.424	97.7117	784.424	97.1276	784.424	96.8684	784.424	98.8865	784.424	96.9877	784.424	100.144	784.424	98.2046	784.424	100.688	784.424	99.5904	784.424	100.488
812.256	105.315	812.256	105.187	812.256	105.377	812.256	105.002	812.256	105.36	812.256	104.762	812.256	105.248	812.256	104.45	812.256	105.018	812.256	104.022	812.256	104.633	812.256	103.42	812.256	104.05	812.256	102.591	812.256	103.233	812.256	101.522	812.256	102.178	812.256	100.245	812.256	100.971	812.256	98.8034	812.256	99.8186	812.256	97.2047	812.256	98.9621	812.256	95.567	812.256	98.4404	812.256	94.658	812.256	98.0863	812.256	95.5216	812.256	97.8611	812.256	97.3787	812.256	98.0106	812.256	98.9607	812.256	98.6696	812.256	99.8364	812.256	99.4863	812.256	99.9726
840.82	104.971	840.82	104.754	840.82	105.094	840.82	104.496	840.82	105.092	840.82	104.253	840.82	104.957	840.82	104.058	840.82	104.693	840.82	103.878	840.82	104.308	840.82	103.616	840.82	103.805	840.82	103.153	840.82	103.187	840.82	102.39	840.82	102.467	840.82	101.282	840.82	101.669	840.82	99.8516	840.82	100.801	840.82	98.2174	840.82	99.8152	840.82	96.7102	840.82	98.6681	840.82	96.0334	840.82	97.5368	840.82	96.7007	840.82	97.0115	840.82	98.1083	840.82	97.5449	840.82	99.3828	840.82	98.6692	840.82	100.116	840.82	99.6778	840.82	100.206
870.85	105.357	870.85	105.013	870.85	105.487	870.85	104.487	870.85	105.399	870.85	103.863	870.85	105.113	870.85	103.277	870.85	104.66	870.85	102.853	870.85	104.074	870.85	102.604	870.85	103.374	870.85	102.402	870.85	102.573	870.85	102.074	870.85	101.713	870.85	101.474	870.85	100.931	870.85	100.484	870.85	100.396	870.85	98.9935	870.85	100.065	870.85	97.0325	870.85	99.6294	870.85	95.4545	870.85	98.8558	870.85	96.0946	870.85	98.0353	870.85	98.2301	870.85	98.1073	870.85	100.059	870.85	99.282	870.85	101.067	870.85	100.551	870.85	101.215
901.611	105.186	901.611	104.888	901.611	105.287	901.611	104.431	901.611	105.175	901.611	103.866	901.611	104.854	901.611	103.27	901.611	104.36	901.611	102.73	901.611	103.749	901.611	102.288	901.611	103.083	901.611	101.894	901.611	102.411	901.611	101.428	901.611	101.754	901.611	100.77	901.611	101.101	901.611	99.818	901.611	100.411	901.611	98.4805	901.611	99.6187	901.611	96.798	901.611	98.6841	901.611	95.4704	901.611	97.7408	901.611	95.9462	901.611	97.3105	901.611	97.82	901.611	97.9462	901.611	99.5569	901.611	99.2408	901.611	100.59	901.611	100.353	901.611	100.845
933.105	105.849	933.105	105.416	933.105	105.982	933.105	104.716	933.105	105.823	933.105	103.84	933.105	105.406	933.105	102.939	933.105	104.77	933.105	102.174	933.105	103.943	933.105	101.614	933.105	102.929	933.105	101.209	933.105	101.744	933.105	100.889	933.105	100.531	933.105	100.602	933.105	99.6658	933.105	100.229	933.105	99.4256	933.105	99.5196	933.105	99.4679	933.105	98.2043	933.105	99.1746	933.105	96.4358	933.105	98.2227	933.105	95.8622	933.105	96.9904	933.105	97.7265	933.105	97.0829	933.105	99.9451	933.105	98.9221	933.105	101.283	933.105	100.705	933.105	101.54
966.064	105.927	966.064	105.457	966.064	106.043	966.064	104.647	966.064	105.839	966.064	103.585	966.064	105.37	966.064	102.46	966.064	104.688	966.064	101.525	966.064	103.829	966.064	100.931	966.064	102.815	966.064	100.585	966.064	101.674	966.064	100.274	966.064	100.474	966.064	99.8568	966.064	99.3695	966.064	99.2586	966.064	98.5659	966.064	98.332	966.064	98.094	966.064	96.8461	966.064	97.631	966.064	94.9975	966.064	96.666	966.064	94.743	966.064	94.9934	966.064	96.9596	966.064	94.1538	966.064	99.1417	966.064	96.2397	966.064	100.237	966.064	98.7463	966.064	100.119
999.756	106.368	999.756	106.091	999.756	106.306	999.756	105.41	999.756	105.988	999.756	104.307	999.756	105.482	999.756	102.875	999.756	104.821	999.756	101.425	999.756	103.988	999.756	100.481	999.756	102.933	999.756	100.26	999.756	101.612	999.756	100.34	999.756	100.057	999.756	100.238	999.756	98.5639	999.756	99.7557	999.756	97.7791	999.756	98.8044	999.756	97.959	999.756	97.1718	999.756	98.3479	999.756	94.562	999.756	98.0283	999.756	92.1608	999.756	96.4008	999.756	94.0674	999.756	93.799	999.756	97.1579	999.756	94.2433	999.756	98.8174	999.756	97.2023	999.756	98.8571
1,034.91	105.794	1,034.91	105.727	1,034.91	105.547	1,034.91	105.263	1,034.91	105.065	1,034.91	104.34	1,034.91	104.407	1,034.91	102.951	1,034.91	103.615	1,034.91	101.22	1,034.91	102.731	1,034.91	99.5394	1,034.91	101.781	1,034.91	98.5303	1,034.91	100.732	1,034.91	98.4158	1,034.91	99.5088	1,034.91	98.7686	1,034.91	98.1814	1,034.91	99.1083	1,034.91	97.1859	1,034.91	99.107	1,034.91	96.9767	1,034.91	98.487	1,034.91	97.265	1,034.91	97.0315	1,034.91	97.3532	1,034.91	94.928	1,034.91	96.6663	1,034.91	93.9226	1,034.91	94.9755	1,034.91	95.3063	1,034.91	93.7143	1,034.91	96.6706	1,034.91	95.0818	1,034.91	96.618
1,071.53	105.425	1,071.53	105.596	1,071.53	105.094	1,071.53	105.478	1,071.53	104.705	1,071.53	104.951	1,071.53	104.289	1,071.53	103.932	1,071.53	103.804	1,071.53	102.402	1,071.53	103.171	1,071.53	100.516	1,071.53	102.31	1,071.53	98.776	1,071.53	101.171	1,071.53	97.8943	1,071.53	99.7448	1,071.53	97.9585	1,071.53	98.0984	1,071.53	98.3263	1,071.53	96.601	1,071.53	98.3778	1,071.53	96.2376	1,071.53	97.7222	1,071.53	97.1744	1,071.53	96.2119	1,071.53	97.9488	1,071.53	94.4032	1,071.53	97.5101	1,071.53	94.1739	1,071.53	95.6979	1,071.53	95.5959	1,071.53	94.0518	1,071.53	96.6357	1,071.53	95.0146	1,071.53	96.4356
1,109.62	105.18	1,109.62	105.289	1,109.62	104.931	1,109.62	105.205	1,109.62	104.538	1,109.62	104.831	1,109.62	103.979	1,109.62	104.065	1,109.62	103.268	1,109.62	102.846	1,109.62	102.454	1,109.62	101.207	1,109.62	101.549	1,109.62	99.3596	1,109.62	100.483	1,109.62	97.7596	1,109.62	99.1906	1,109.62	96.9502	1,109.62	97.79	1,109.62	97.0687	1,109.62	96.6451	1,109.62	97.5736	1,109.62	96.0324	1,109.62	97.7309	1,109.62	95.974	1,109.62	97.158	1,109.62	96.3664	1,109.62	96.14	1,109.62	96.6367	1,109.62	95.7688	1,109.62	96.1683	1,109.62	96.386	1,109.62	95.2933	1,109.62	96.8249	1,109.62	95.398	1,109.62	96.3707
1,148.44	105.365	1,148.44	105.466	1,148.44	105.096	1,148.44	105.372	1,148.44	104.678	1,148.44	105.029	1,148.44	104.145	1,148.44	104.355	1,148.44	103.55	1,148.44	103.257	1,148.44	102.914	1,148.44	101.693	1,148.44	102.159	1,148.44	99.7573	1,148.44	101.152	1,148.44	97.8009	1,148.44	99.8063	1,148.44	96.4407	1,148.44	98.1202	1,148.44	96.0635	1,148.44	96.1293	1,148.44	96.1758	1,148.44	94.2836	1,148.44	95.9399	1,148.44	94.1633	1,148.44	95.1083	1,148.44	95.527	1,148.44	94.6376	1,148.44	96.3274	1,148.44	95.6669	1,148.44	96.1392	1,148.44	97.0881	1,148.44	95.8313	1,148.44	97.6972	1,148.44	96.3737	1,148.44	97.3142
1,189.45	105.563	1,189.45	105.498	1,189.45	105.317	1,189.45	105.119	1,189.45	104.811	1,189.45	104.476	1,189.45	104.127	1,189.45	103.623	1,189.45	103.356	1,189.45	102.57	1,189.45	102.533	1,189.45	101.286	1,189.45	101.615	1,189.45	99.7732	1,189.45	100.537	1,189.45	98.1525	1,189.45	99.2788	1,189.45	96.7031	1,189.45	97.9231	1,189.45	95.8175	1,189.45	96.6847	1,189.45	95.4672	1,189.45	95.7218	1,189.45	94.8303	1,189.45	95.0689	1,189.45	93.1508	1,189.45	94.8794	1,189.45	91.6977	1,189.45	95.0601	1,189.45	93.9949	1,189.45	95.359	1,189.45	96.9393	1,189.45	96.1383	1,189.45	98.3987	1,189.45	97.4417	1,189.45	98.4324
1,231.2	105.793	1,231.2	105.773	1,231.2	105.45	1,231.2	105.379	1,231.2	104.824	1,231.2	104.67	1,231.2	104.049	1,231.2	103.74	1,231.2	103.249	1,231.2	102.64	1,231.2	102.453	1,231.2	101.365	1,231.2	101.612	1,231.2	99.9387	1,231.2	100.696	1,231.2	98.4587	1,231.2	99.6387	1,231.2	97.0369	1,231.2	98.3233	1,231.2	96.02	1,231.2	96.7632	1,231.2	95.8936	1,231.2	95.1888	1,231.2	96.002	1,231.2	93.9586	1,231.2	95.0265	1,231.2	93.685	1,231.2	92.6971	1,231.2	94.1524	1,231.2	93.1635	1,231.2	94.3774	1,231.2	96.5228	1,231.2	95.0002	1,231.2	98.3166	1,231.2	96.7542	1,231.2	98.2358
1,274.41	105.141	1,274.41	105.329	1,274.41	104.683	1,274.41	105.11	1,274.41	104.129	1,274.41	104.465	1,274.41	103.587	1,274.41	103.503	1,274.41	103.098	1,274.41	102.391	1,274.41	102.633	1,274.41	101.221	1,274.41	102.018	1,274.41	99.963	1,274.41	101.018	1,274.41	98.5154	1,274.41	99.6264	1,274.41	96.7752	1,274.41	98.1639	1,274.41	95.329	1,274.41	96.9566	1,274.41	95.6001	1,274.41	95.9756	1,274.41	96.3341	1,274.41	95.328	1,274.41	95.4983	1,274.41	95.4291	1,274.41	92.3946	1,274.41	95.7148	1,274.41	91.0488	1,274.41	95.2821	1,274.41	95.2622	1,274.41	94.9981	1,274.41	97.7415	1,274.41	96.4784	1,274.41	97.9467
1,319.82	105.208	1,319.82	105.447	1,319.82	104.725	1,319.82	105.236	1,319.82	104.191	1,319.82	104.48	1,319.82	103.675	1,319.82	103.263	1,319.82	103.184	1,319.82	101.921	1,319.82	102.771	1,319.82	100.893	1,319.82	102.332	1,319.82	100.268	1,319.82	101.535	1,319.82	99.5993	1,319.82	100.18	1,319.82	98.1503	1,319.82	98.4925	1,319.82	95.5904	1,319.82	97.0773	1,319.82	94.6477	1,319.82	96.3474	1,319.82	96.2558	1,319.82	95.904	1,319.82	96.2421	1,319.82	95.1747	1,319.82	93.4882	1,319.82	94.6647	1,319.82	91.1764	1,319.82	94.9839	1,319.82	95.2858	1,319.82	95.5773	1,319.82	97.8342	1,319.82	96.7501	1,319.82	97.9922
1,365.97	105.083	1,365.97	105.268	1,365.97	104.747	1,365.97	105.116	1,365.97	104.265	1,365.97	104.423	1,365.97	103.58	1,365.97	103.127	1,365.97	102.895	1,365.97	101.414	1,365.97	102.592	1,365.97	99.7614	1,365.97	102.406	1,365.97	98.8777	1,365.97	101.574	1,365.97	99.0243	1,365.97	99.9608	1,365.97	99.0185	1,365.97	98.0835	1,365.97	97.2759	1,365.97	96.1597	1,365.97	93.9986	1,365.97	94.5317	1,365.97	94.0934	1,365.97	94.361	1,365.97	95.0395	1,365.97	94.9903	1,365.97	93.2661	1,365.97	95.2894	1,365.97	88.0889	1,365.97	95.1485	1,365.97	92.4924	1,365.97	94.743	1,365.97	96.9024	1,365.97	95.8774	1,365.97	97.5135
1,414.31	104.705	1,414.31	104.774	1,414.31	104.41	1,414.31	104.619	1,414.31	103.888	1,414.31	104.091	1,414.31	103.354	1,414.31	103.013	1,414.31	103.154	1,414.31	101.399	1,414.31	103.227	1,414.31	99.4808	1,414.31	102.956	1,414.31	97.806	1,414.31	101.837	1,414.31	97.6084	1,414.31	100.01	1,414.31	98.3211	1,414.31	98.1467	1,414.31	97.3734	1,414.31	96.3409	1,414.31	93.8382	1,414.31	93.8146	1,414.31	92.5829	1,414.31	92.6127	1,414.31	94.8939	1,414.31	94.7846	1,414.31	95.2095	1,414.31	95.7035	1,414.31	92.0251	1,414.31	95.3496	1,414.31	91.1941	1,414.31	95.3117	1,414.31	95.427	1,414.31	95.7654	1,414.31	96.3868
1,464.11	104.754	1,464.11	104.781	1,464.11	104.417	1,464.11	104.591	1,464.11	103.836	1,464.11	104.149	1,464.11	103.378	1,464.11	103.309	1,464.11	103.219	1,464.11	101.963	1,464.11	103.039	1,464.11	100.036	1,464.11	102.405	1,464.11	97.5183	1,464.11	101.153	1,464.11	95.372	1,464.11	99.4502	1,464.11	95.1869	1,464.11	97.459	1,464.11	94.7932	1,464.11	94.9886	1,464.11	91.8329	1,464.11	92.7618	1,464.11	85.9484	1,464.11	93.6985	1,464.11	91.9382	1,464.11	95.4426	1,464.11	95.0574	1,464.11	96.1008	1,464.11	92.9886	1,464.11	95.8766	1,464.11	89.6758	1,464.11	95.5907	1,464.11	93.6523	1,464.11	95.7606	1,464.11	95.5061
1,515.38	104.88	1,515.38	104.677	1,515.38	104.384	1,515.38	103.897	1,515.38	103.681	1,515.38	103.002	1,515.38	103.293	1,515.38	102.12	1,515.38	103.026	1,515.38	100.906	1,515.38	102.428	1,515.38	99.1153	1,515.38	101.153	1,515.38	96.7948	1,515.38	99.1851	1,515.38	94.2473	1,515.38	97.298	1,515.38	93.1483	1,515.38	96.3439	1,515.38	93.8171	1,515.38	95.5271	1,515.38	92.9743	1,515.38	93.7137	1,515.38	88.8706	1,515.38	92.7867	1,515.38	89.764	1,515.38	94.498	1,515.38	92.8013	1,515.38	96.107	1,515.38	91.0093	1,515.38	96.326	1,515.38	86.4611	1,515.38	95.3206	1,515.38	89.5464	1,515.38	94.3044	1,515.38	92.7927
1,568.85	104.83	1,568.85	104.453	1,568.85	104.847	1,568.85	103.591	1,568.85	104.678	1,568.85	102.404	1,568.85	104.214	1,568.85	101.152	1,568.85	103.156	1,568.85	99.6483	1,568.85	101.344	1,568.85	97.5352	1,568.85	99.0984	1,568.85	94.8092	1,568.85	97.2988	1,568.85	91.9951	1,568.85	96.1801	1,568.85	91.5073	1,568.85	95.5433	1,568.85	94.0964	1,568.85	94.4847	1,568.85	95.25	1,568.85	91.6077	1,568.85	93.0471	1,568.85	87.1146	1,568.85	91.6821	1,568.85	89.4065	1,568.85	92.7456	1,568.85	93.8205	1,568.85	90.3993	1,568.85	95.2048	1,568.85	86.9812	1,568.85	94.0726	1,568.85	89.67	1,568.85	93.0726	1,568.85	92.5126
1,624.51	104.466	1,624.51	104.116	1,624.51	104.599	1,624.51	103.27	1,624.51	104.389	1,624.51	101.513	1,624.51	103.569	1,624.51	98.9964	1,624.51	102.08	1,624.51	96.3769	1,624.51	100.395	1,624.51	94.0928	1,624.51	99.0346	1,624.51	93.1395	1,624.51	97.3141	1,624.51	92.9987	1,624.51	93.8914	1,624.51	92.7316	1,624.51	88.7125	1,624.51	95.0822	1,624.51	86.5013	1,624.51	96.1374	1,624.51	88.5687	1,624.51	92.986	1,624.51	88.255	1,624.51	88.297	1,624.51	85.3284	1,624.51	86.9432	1,624.51	90.4257	1,624.51	81.8133	1,624.51	93.9073	1,624.51	77.0243	1,624.51	94.5149	1,624.51	82.3522	1,624.51	93.0198	1,624.51	89.497
1,681.64	103.599	1,681.64	102.867	1,681.64	103.802	1,681.64	101.467	1,681.64	103.606	1,681.64	99.2253	1,681.64	103.071	1,681.64	96.2502	1,681.64	102.153	1,681.64	93.405	1,681.64	100.652	1,681.64	91.7227	1,681.64	98.0646	1,681.64	91.9363	1,681.64	93.7536	1,681.64	92.4213	1,681.64	88.3006	1,681.64	90.9888	1,681.64	86.6447	1,681.64	91.1948	1,681.64	86.8738	1,681.64	92.2533	1,681.64	87.8958	1,681.64	90.2764	1,681.64	88.4905	1,681.64	86.5438	1,681.64	88.211	1,681.64	84.1511	1,681.64	91.071	1,681.64	83.2882	1,681.64	94.5975	1,681.64	82.491	1,681.64	95.9114	1,681.64	84.8416	1,681.64	94.5913	1,681.64	90.6969
1,740.97	104.488	1,740.97	103.173	1,740.97	104.879	1,740.97	100.834	1,740.97	104.554	1,740.97	97.4695	1,740.97	103.505	1,740.97	92.85	1,740.97	101.521	1,740.97	87.1959	1,740.97	98.4944	1,740.97	82.5468	1,740.97	94.609	1,740.97	84.9429	1,740.97	90.2733	1,740.97	89.1761	1,740.97	85.2669	1,740.97	89.7319	1,740.97	78.0682	1,740.97	88.8739	1,740.97	73.8681	1,740.97	90.2793	1,740.97	70.0035	1,740.97	90.605	1,740.97	75.7869	1,740.97	88.8206	1,740.97	72.7903	1,740.97	85.7015	1,740.97	84.171	1,740.97	81.2067	1,740.97	90.048	1,740.97	79.8546	1,740.97	92.1202	1,740.97	83.6904	1,740.97	91.4052	1,740.97	88.1409
1,802.49	104.5	1,802.49	103.256	1,802.49	104.593	1,802.49	100.493	1,802.49	103.862	1,802.49	96.0954	1,802.49	102.393	1,802.49	90.2578	1,802.49	100.227	1,802.49	82.6977	1,802.49	97.3512	1,802.49	71.2731	1,802.49	93.2205	1,802.49	80.9572	1,802.49	87.6796	1,802.49	86.5969	1,802.49	81.1233	1,802.49	89.0179	1,802.49	76.0339	1,802.49	88.706	1,802.49	82.2078	1,802.49	88.1011	1,802.49	62.0632	1,802.49	87.4809	1,802.49	82.5497	1,802.49	85.1783	1,802.49	79.0798	1,802.49	80.9875	1,802.49	87.6163	1,802.49	70.4702	1,802.49	91.8679	1,802.49	79.3176	1,802.49	93.3404	1,802.49	87.668	1,802.49	93.4965	1,802.49	91.8488
1,866.21	103.837	1,866.21	102.937	1,866.21	103.995	1,866.21	101.072	1,866.21	103.484	1,866.21	97.9072	1,866.21	102.434	1,866.21	93.4432	1,866.21	100.954	1,866.21	88.7965	1,866.21	98.6935	1,866.21	87.4776	1,866.21	94.572	1,866.21	88.7708	1,866.21	88.8895	1,866.21	89.3722	1,866.21	85.9981	1,866.21	89.2771	1,866.21	83.2747	1,866.21	89.1383	1,866.21	83.0327	1,866.21	88.5231	1,866.21	87.5707	1,866.21	87.6568	1,866.21	88.6029	1,866.21	87.578	1,866.21	86.8302	1,866.21	85.48	1,866.21	89.9523	1,866.21	74.6627	1,866.21	92.031	1,866.21	78.4464	1,866.21	92.0378	1,866.21	85.0774	1,866.21	90.982	1,866.21	88.8391
1,932.13	103.468	1,932.13	102.774	1,932.13	103.782	1,932.13	101.142	1,932.13	103.745	1,932.13	98.31	1,932.13	102.839	1,932.13	95.2558	1,932.13	100.943	1,932.13	93.8218	1,932.13	98.612	1,932.13	93.0238	1,932.13	96.0699	1,932.13	91.9802	1,932.13	93.2383	1,932.13	91.2021	1,932.13	91.2506	1,932.13	90.2318	1,932.13	90.202	1,932.13	89.9383	1,932.13	88.7959	1,932.13	92.6058	1,932.13	88.8777	1,932.13	92.5218	1,932.13	88.4636	1,932.13	88.1016	1,932.13	85.3884	1,932.13	85.7287	1,932.13	86.8885	1,932.13	79.4057	1,932.13	88.4512	1,932.13	77.976	1,932.13	88.72	1,932.13	85.332	1,932.13	89.0698	1,932.13	87.7429
2,000.24	104.883	2,000.24	104.14	2,000.24	104.667	2,000.24	102.496	2,000.24	103.458	2,000.24	99.9266	2,000.24	101.562	2,000.24	97.0112	2,000.24	99.834	2,000.24	95.6839	2,000.24	98.5223	2,000.24	95.0268	2,000.24	96.9105	2,000.24	93.5038	2,000.24	95.2177	2,000.24	91.972	2,000.24	93.2316	2,000.24	90.529	2,000.24	90.7219	2,000.24	88.3451	2,000.24	90.6046	2,000.24	91.3122	2,000.24	90.5915	2,000.24	92.3513	2,000.24	89.066	2,000.24	88.3294	2,000.24	87.5005	2,000.24	86.0045	2,000.24	86.6672	2,000.24	86.8101	2,000.24	87.4262	2,000.24	79.9882	2,000.24	88.2582	2,000.24	87.3606	2,000.24	89.5952	2,000.24	90.2645
2,070.56	105.662	2,070.56	105.076	2,070.56	105.17	2,070.56	102.791	2,070.56	103.808	2,070.56	99.9105	2,070.56	101.315	2,070.56	98.424	2,070.56	99.3911	2,070.56	96.8219	2,070.56	98.976	2,070.56	94.4909	2,070.56	98.1932	2,070.56	94.1364	2,070.56	97.1509	2,070.56	94.6826	2,070.56	95.7189	2,070.56	94.7743	2,070.56	93.2867	2,070.56	93.0114	2,070.56	91.1318	2,070.56	90.3499	2,070.56	91.0037	2,070.56	92.0772	2,070.56	90.3225	2,070.56	91.2333	2,070.56	88.3861	2,070.56	85.7198	2,070.56	87.6127	2,070.56	87.6606	2,070.56	86.9159	2,070.56	83.9379	2,070.56	86.4564	2,070.56	87.5587	2,070.56	91.4206	2,070.56	92.8687
2,143.8	105.22	2,143.8	104.866	2,143.8	104.93	2,143.8	103.669	2,143.8	104.255	2,143.8	102.007	2,143.8	102.205	2,143.8	99.3293	2,143.8	99.1753	2,143.8	96.0697	2,143.8	98.4764	2,143.8	94.5126	2,143.8	98.3355	2,143.8	93.9828	2,143.8	97.5458	2,143.8	93.0306	2,143.8	96.6279	2,143.8	92.4923	2,143.8	95.1523	2,143.8	92.4308	2,143.8	92.9314	2,143.8	90.682	2,143.8	91.0289	2,143.8	90.4989	2,143.8	90.5758	2,143.8	91.6894	2,143.8	88.6319	2,143.8	87.8103	2,143.8	87.1239	2,143.8	85.6593	2,143.8	85.5505	2,143.8	86.6266	2,143.8	87.645	2,143.8	85.5757	2,143.8	92.8766	2,143.8	92.9788
2,219.24	104.44	2,219.24	104.486	2,219.24	103.953	2,219.24	103.977	2,219.24	103.923	2,219.24	102.634	2,219.24	103.229	2,219.24	99.647	2,219.24	100.876	2,219.24	96.0687	2,219.24	99.1476	2,219.24	95.1037	2,219.24	98.4711	2,219.24	95.3157	2,219.24	97.0525	2,219.24	94.7562	2,219.24	96.1376	2,219.24	93.9706	2,219.24	95.2725	2,219.24	93.7692	2,219.24	94.1472	2,219.24	91.9343	2,219.24	93.3152	2,219.24	89.2771	2,219.24	91.9892	2,219.24	91.7285	2,219.24	89.6659	2,219.24	90.4696	2,219.24	88.9576	2,219.24	85.6633	2,219.24	88.3762	2,219.24	86.9607	2,219.24	88.6	2,219.24	85.3591	2,219.24	91.3898	2,219.24	90.8682
2,297.61	105.632	2,297.61	105.29	2,297.61	104.357	2,297.61	104.028	2,297.61	102.777	2,297.61	101.646	2,297.61	102.761	2,297.61	98.1073	2,297.61	101.847	2,297.61	97.5258	2,297.61	100.239	2,297.61	98.0503	2,297.61	99.4195	2,297.61	97.2265	2,297.61	97.5268	2,297.61	95.2397	2,297.61	94.5977	2,297.61	91.5369	2,297.61	92.6574	2,297.61	91.3694	2,297.61	92.1045	2,297.61	94.1533	2,297.61	93.3316	2,297.61	91.5446	2,297.61	93.1962	2,297.61	89.9135	2,297.61	89.9601	2,297.61	91.2248	2,297.61	88.1108	2,297.61	87.1244	2,297.61	88.205	2,297.61	87.2179	2,297.61	87.1676	2,297.61	85.754	2,297.61	91.0927	2,297.61	91.1814
2,378.17	106.564	2,378.17	106.459	2,378.17	105.485	2,378.17	104.593	2,378.17	103.484	2,378.17	100.749	2,378.17	102.589	2,378.17	99.4254	2,378.17	102.28	2,378.17	99.6207	2,378.17	101.038	2,378.17	97.299	2,378.17	100.038	2,378.17	94.827	2,378.17	99.0113	2,378.17	96.0528	2,378.17	97.0253	2,378.17	96.875	2,378.17	94.4868	2,378.17	93.9764	2,378.17	92.5926	2,378.17	93.3536	2,378.17	91.6486	2,378.17	93.6956	2,378.17	92.7624	2,378.17	89.9303	2,378.17	91.1402	2,378.17	90.4118	2,378.17	87.2243	2,378.17	88.694	2,378.17	87.1016	2,378.17	87.2067	2,378.17	87.3056	2,378.17	87.0936	2,378.17	92.0624	2,378.17	91.174
2,462.4	106.346	2,462.4	106.119	2,462.4	105.285	2,462.4	103.85	2,462.4	103.832	2,462.4	101.899	2,462.4	102.706	2,462.4	100.965	2,462.4	102.248	2,462.4	98.6768	2,462.4	101.338	2,462.4	97.2949	2,462.4	100.247	2,462.4	97.0537	2,462.4	99.1091	2,462.4	95.8244	2,462.4	96.8751	2,462.4	94.246	2,462.4	93.4312	2,462.4	92.6722	2,462.4	92.3725	2,462.4	92.606	2,462.4	92.9629	2,462.4	93.099	2,462.4	91.9754	2,462.4	91.1691	2,462.4	90.6165	2,462.4	89.8978	2,462.4	88.7689	2,462.4	89.4594	2,462.4	88.4625	2,462.4	87.3681	2,462.4	87.1272	2,462.4	86.4545	2,462.4	91.2401	2,462.4	91.2202
2,548.83	106.444	2,548.83	105.372	2,548.83	105.46	2,548.83	103.417	2,548.83	103.563	2,548.83	102.529	2,548.83	102.535	2,548.83	100.588	2,548.83	102.263	2,548.83	97.9852	2,548.83	101.606	2,548.83	98.0887	2,548.83	100.58	2,548.83	98.5758	2,548.83	99.6792	2,548.83	97.5126	2,548.83	97.9263	2,548.83	96.5009	2,548.83	94.7187	2,548.83	94.0228	2,548.83	90.8215	2,548.83	88.9859	2,548.83	92.055	2,548.83	91.7278	2,548.83	93.3459	2,548.83	92.3103	2,548.83	90.5118	2,548.83	89.456	2,548.83	87.3831	2,548.83	89.4966	2,548.83	88.7592	2,548.83	89.0744	2,548.83	85.3599	2,548.83	86.4949	2,548.83	92.396	2,548.83	91.3999
2,638.92	106.685	2,638.92	105.008	2,638.92	106.284	2,638.92	103.759	2,638.92	103.734	2,638.92	102.493	2,638.92	102.22	2,638.92	100.582	2,638.92	102.26	2,638.92	100.549	2,638.92	101.528	2,638.92	99.6892	2,638.92	100.397	2,638.92	97.5693	2,638.92	99.9865	2,638.92	94.8762	2,638.92	98.8533	2,638.92	92.1846	2,638.92	95.501	2,638.92	92.3137	2,638.92	92.2823	2,638.92	93.0154	2,638.92	89.8868	2,638.92	90.9815	2,638.92	91.6575	2,638.92	91.7923	2,638.92	91.8647	2,638.92	90.9949	2,638.92	87.8872	2,638.92	87.5495	2,638.92	85.6982	2,638.92	89.5716	2,638.92	85.4428	2,638.92	87.2844	2,638.92	92.7659	2,638.92	90.9704
2,731.93	105.978	2,731.93	105.047	2,731.93	106.19	2,731.93	103.885	2,731.93	104.396	2,731.93	102.026	2,731.93	101.951	2,731.93	101.485	2,731.93	101.784	2,731.93	101.099	2,731.93	101.524	2,731.93	99.2548	2,731.93	100.011	2,731.93	97.213	2,731.93	98.9176	2,731.93	96.0789	2,731.93	97.6736	2,731.93	95.856	2,731.93	93.0465	2,731.93	94.7465	2,731.93	83.1224	2,731.93	92.2824	2,731.93	86.243	2,731.93	92.0645	2,731.93	89.822	2,731.93	90.99	2,731.93	89.7715	2,731.93	90.3768	2,731.93	86.7856	2,731.93	87.852	2,731.93	84.0776	2,731.93	88.117	2,731.93	85.3224	2,731.93	88.6957	2,731.93	92.8652	2,731.93	90.1643
2,828.61	106.033	2,828.61	105.143	2,828.61	106.087	2,828.61	103.795	2,828.61	104.792	2,828.61	102.584	2,828.61	102.325	2,828.61	102.017	2,828.61	101.212	2,828.61	101.502	2,828.61	100.972	2,828.61	99.4807	2,828.61	99.3882	2,828.61	96.9987	2,828.61	97.9766	2,828.61	96.8756	2,828.61	96.9684	2,828.61	95.7936	2,828.61	93.608	2,828.61	91.9858	2,828.61	88.1672	2,828.61	89.4241	2,828.61	76.7211	2,828.61	88.8494	2,828.61	89.4119	2,828.61	88.1272	2,828.61	90.1213	2,828.61	89.5867	2,828.61	84.6069	2,828.61	88.4309	2,828.61	78.9235	2,828.61	86.6582	2,828.61	85.3161	2,828.61	87.8692	2,828.61	90.7214	2,828.61	88.9679
2,928.22	106.038	2,928.22	105.026	2,928.22	106.09	2,928.22	104.154	2,928.22	104.659	2,928.22	103.06	2,928.22	102.927	2,928.22	102.456	2,928.22	101.482	2,928.22	100.715	2,928.22	100.951	2,928.22	98.4354	2,928.22	99.5695	2,928.22	97.8521	2,928.22	97.1809	2,928.22	95.4674	2,928.22	95.2643	2,928.22	90.2832	2,928.22	92.2485	2,928.22	89.2673	2,928.22	91.5463	2,928.22	88.5988	2,928.22	89.3447	2,928.22	88.1497	2,928.22	87.4947	2,928.22	88.2594	2,928.22	88.7015	2,928.22	85.3957	2,928.22	84.0982	2,928.22	87.6364	2,928.22	83.241	2,928.22	86.4254	2,928.22	87.4471	2,928.22	87.7994	2,928.22	92.7996	2,928.22	89.5755
3,031.49	105.451	3,031.49	104.801	3,031.49	106.14	3,031.49	103.904	3,031.49	104.767	3,031.49	103.156	3,031.49	102.881	3,031.49	102.285	3,031.49	101.845	3,031.49	100.08	3,031.49	100.765	3,031.49	98.7691	3,031.49	99.6094	3,031.49	95.5545	3,031.49	96.7169	3,031.49	89.6835	3,031.49	94.3053	3,031.49	90.9798	3,031.49	93.0279	3,031.49	90.8545	3,031.49	92.2105	3,031.49	89.5119	3,031.49	89.4079	3,031.49	86.0677	3,031.49	88.3064	3,031.49	87.8917	3,031.49	88.4623	3,031.49	85.4256	3,031.49	84.6063	3,031.49	84.4343	3,031.49	83.3663	3,031.49	84.8024	3,031.49	87.9858	3,031.49	88.0747	3,031.49	92.4057	3,031.49	86.4059
3,138.43	105.64	3,138.43	105.418	3,138.43	106.166	3,138.43	104.017	3,138.43	105.504	3,138.43	103.259	3,138.43	102.771	3,138.43	101.824	3,138.43	102.062	3,138.43	100.359	3,138.43	101.023	3,138.43	96.819	3,138.43	99.1522	3,138.43	89.7101	3,138.43	95.7717	3,138.43	93.1937	3,138.43	92.8808	3,138.43	93.757	3,138.43	93.832	3,138.43	87.3283	3,138.43	91.6991	3,138.43	85.9407	3,138.43	88.4687	3,138.43	88.3122	3,138.43	83.8496	3,138.43	85.4335	3,138.43	88.6344	3,138.43	85.9606	3,138.43	86.2212	3,138.43	82.0603	3,138.43	82.2853	3,138.43	82.0403	3,138.43	87.3235	3,138.43	86.5951	3,138.43	90.3589	3,138.43	85.5383
3,249.02	106.189	3,249.02	105.419	3,249.02	105.897	3,249.02	104.282	3,249.02	105.759	3,249.02	103.004	3,249.02	103.767	3,249.02	101.597	3,249.02	101.638	3,249.02	98.818	3,249.02	101.28	3,249.02	92.9772	3,249.02	99.4818	3,249.02	94.5479	3,249.02	97.0068	3,249.02	92.7827	3,249.02	94.9685	3,249.02	88.76	3,249.02	96.0484	3,249.02	90.707	3,249.02	95.2744	3,249.02	89.0871	3,249.02	90.6646	3,249.02	88.538	3,249.02	85.9389	3,249.02	88.5342	3,249.02	87.4152	3,249.02	86.2233	3,249.02	84.6719	3,249.02	84.1774	3,249.02	83.8592	3,249.02	79.9682	3,249.02	88.5847	3,249.02	85.5616	3,249.02	88.9822	3,249.02	86.6104
3,363.28	105.828	3,363.28	105.161	3,363.28	105.816	3,363.28	104.144	3,363.28	105.42	3,363.28	103.449	3,363.28	104.114	3,363.28	101.038	3,363.28	102.146	3,363.28	96.2273	3,363.28	100.886	3,363.28	96.4989	3,363.28	99.4235	3,363.28	94.9947	3,363.28	98.2206	3,363.28	91.8251	3,363.28	96.9977	3,363.28	93.3348	3,363.28	96.3513	3,363.28	93.2526	3,363.28	96.3019	3,363.28	89.6534	3,363.28	92.3083	3,363.28	87.5843	3,363.28	87.442	3,363.28	90.1005	3,363.28	87.6523	3,363.28	88.648	3,363.28	83.6174	3,363.28	86.352	3,363.28	81.0977	3,363.28	81.0921	3,363.28	88.4696	3,363.28	84.7875	3,363.28	90.2286	3,363.28	86.8048
3,481.93	106.071	3,481.93	104.606	3,481.93	105.86	3,481.93	104.067	3,481.93	105.018	3,481.93	103.286	3,481.93	103.919	3,481.93	99.7029	3,481.93	102.436	3,481.93	97.5827	3,481.93	101.148	3,481.93	96.6138	3,481.93	99.1883	3,481.93	94.9126	3,481.93	97.9289	3,481.93	95.5523	3,481.93	96.6099	3,481.93	94.6122	3,481.93	95.1525	3,481.93	92.1605	3,481.93	95.0261	3,481.93	91.148	3,481.93	91.9074	3,481.93	88.7389	3,481.93	86.3741	3,481.93	88.827	3,481.93	87.1179	3,481.93	88.9856	3,481.93	82.9468	3,481.93	86.2434	3,481.93	79.5509	3,481.93	81.7328	3,481.93	87.1596	3,481.93	83.5335	3,481.93	89.1744	3,481.93	87.4024
3,604.98	105.791	3,604.98	104.815	3,604.98	106.098	3,604.98	104.504	3,604.98	105.061	3,604.98	102.708	3,604.98	103.503	3,604.98	99.8556	3,604.98	102.088	3,604.98	99.0234	3,604.98	101.594	3,604.98	97.509	3,604.98	100.533	3,604.98	97.0157	3,604.98	97.8225	3,604.98	94.6634	3,604.98	95.3091	3,604.98	91.7298	3,604.98	92.3473	3,604.98	90.7884	3,604.98	91.4283	3,604.98	89.7314	3,604.98	88.9855	3,604.98	88.8387	3,604.98	83.8565	3,604.98	88.7454	3,604.98	86.278	3,604.98	89.1364	3,604.98	80.3327	3,604.98	87.2583	3,604.98	75.8812	3,604.98	83.1405	3,604.98	85.8694	3,604.98	82.7178	3,604.98	87.8506	3,604.98	84.9831
3,732.42	105.272	3,732.42	104.608	3,732.42	105.498	3,732.42	104.796	3,732.42	104.808	3,732.42	102.24	3,732.42	103.535	3,732.42	100.23	3,732.42	101.741	3,732.42	99.2717	3,732.42	101.201	3,732.42	98.3208	3,732.42	100.135	3,732.42	97.3412	3,732.42	97.8335	3,732.42	93.4562	3,732.42	93.7928	3,732.42	91.1747	3,732.42	85.9581	3,732.42	91.3871	3,732.42	79.9217	3,732.42	89.2223	3,732.42	87.3532	3,732.42	87.2721	3,732.42	86.3631	3,732.42	87.5155	3,732.42	86.7514	3,732.42	88.1089	3,732.42	83.6507	3,732.42	87.7397	3,732.42	75.4048	3,732.42	84.0735	3,732.42	86.2676	3,732.42	83.3547	3,732.42	86.7132	3,732.42	84.4316
3,863.53	104.908	3,863.53	104.831	3,863.53	105.572	3,863.53	104.045	3,863.53	103.99	3,863.53	101.645	3,863.53	103.044	3,863.53	101.141	3,863.53	101.853	3,863.53	99.4889	3,863.53	100.166	3,863.53	98.402	3,863.53	99.3988	3,863.53	94.1312	3,863.53	97.8356	3,863.53	92.4963	3,863.53	94.0128	3,863.53	92.8364	3,863.53	87.4734	3,863.53	89.9699	3,863.53	83.9666	3,863.53	87.8117	3,863.53	86.5965	3,863.53	86.6109	3,863.53	89.3105	3,863.53	85.7721	3,863.53	85.7826	3,863.53	86.4283	3,863.53	85.7551	3,863.53	84.6395	3,863.53	76.1477	3,863.53	82.4552	3,863.53	85.5775	3,863.53	83.5278	3,863.53	88.5442	3,863.53	88.0246
3,999.76	105.105	3,999.76	105.373	3,999.76	105.466	3,999.76	103.796	3,999.76	104.135	3,999.76	101.6	3,999.76	101.934	3,999.76	101.082	3,999.76	100.941	3,999.76	100.165	3,999.76	100.297	3,999.76	96.2099	3,999.76	98.3983	3,999.76	94.9494	3,999.76	96.5209	3,999.76	93.9556	3,999.76	92.2093	3,999.76	87.5445	3,999.76	83.7158	3,999.76	87.5961	3,999.76	84.1256	3,999.76	86.7241	3,999.76	87.959	3,999.76	84.939	3,999.76	86.794	3,999.76	84.0083	3,999.76	82.4665	3,999.76	85.5916	3,999.76	84.1504	3,999.76	84.86	3,999.76	77.5702	3,999.76	83.3947	3,999.76	84.6951	3,999.76	77.6374	3,999.76	88.8103	3,999.76	86.3848
4,141.11	104.839	4,141.11	105.164	4,141.11	105.263	4,141.11	103.363	4,141.11	104.264	4,141.11	102.383	4,141.11	101.607	4,141.11	101.478	4,141.11	100.536	4,141.11	98.5351	4,141.11	99.9037	4,141.11	96.0244	4,141.11	98.4305	4,141.11	93.9101	4,141.11	94.47	4,141.11	88.519	4,141.11	90.2684	4,141.11	91.1539	4,141.11	88.997	4,141.11	89.3756	4,141.11	85.6478	4,141.11	86.6675	4,141.11	87.1241	4,141.11	84.8255	4,141.11	88.8708	4,141.11	83.9422	4,141.11	82.0089	4,141.11	83.0295	4,141.11	80.201	4,141.11	84.4508	4,141.11	78.7456	4,141.11	82.7124	4,141.11	85.585	4,141.11	75.252	4,141.11	84.4327	4,141.11	83.5547
4,286.87	105.787	4,286.87	105.519	4,286.87	105.385	4,286.87	103.534	4,286.87	104.821	4,286.87	103.019	4,286.87	101.968	4,286.87	100.88	4,286.87	99.6349	4,286.87	97.798	4,286.87	99.9681	4,286.87	96.0448	4,286.87	99.0154	4,286.87	91.4104	4,286.87	94.7594	4,286.87	92.5291	4,286.87	91.5512	4,286.87	88.2402	4,286.87	92.3173	4,286.87	85.4823	4,286.87	85.9223	4,286.87	87.8783	4,286.87	81.5168	4,286.87	85.91	4,286.87	88.1923	4,286.87	83.7211	4,286.87	88.0624	4,286.87	83.8021	4,286.87	78.1445	4,286.87	82.5272	4,286.87	75.603	4,286.87	83.098	4,286.87	84.3139	4,286.87	81.0837	4,286.87	83.5698	4,286.87	84.0206
4,438.48	105.921	4,438.48	105.838	4,438.48	105.586	4,438.48	104.458	4,438.48	104.859	4,438.48	103.175	4,438.48	102.128	4,438.48	100.002	4,438.48	99.6071	4,438.48	98.6256	4,438.48	98.7463	4,438.48	93.4353	4,438.48	98.8313	4,438.48	93.2946	4,438.48	95.2361	4,438.48	89.6036	4,438.48	92.0916	4,438.48	89.9132	4,438.48	91.8223	4,438.48	88.5212	4,438.48	86.7679	4,438.48	87.5171	4,438.48	79.8712	4,438.48	85.241	4,438.48	85.4077	4,438.48	84.4949	4,438.48	88.3036	4,438.48	84.7861	4,438.48	85.6046	4,438.48	82.463	4,438.48	73.7316	4,438.48	80.8138	4,438.48	82.4172	4,438.48	80.4921	4,438.48	88.158	4,438.48	87.3037
4,594.48	106.92	4,594.48	105.992	4,594.48	105.63	4,594.48	104.809	4,594.48	105.217	4,594.48	102.956	4,594.48	101.766	4,594.48	100.305	4,594.48	98.5076	4,594.48	96.5265	4,594.48	98.0221	4,594.48	96.2978	4,594.48	97.568	4,594.48	92.4027	4,594.48	95.3575	4,594.48	91.6417	4,594.48	93.5693	4,594.48	91.0424	4,594.48	93.7515	4,594.48	86.6648	4,594.48	89.8692	4,594.48	87.5901	4,594.48	80.2212	4,594.48	86.6675	4,594.48	79.8957	4,594.48	84.8172	4,594.48	83.5896	4,594.48	84.676	4,594.48	86.4235	4,594.48	82.3776	4,594.48	78.9875	4,594.48	81.2907	4,594.48	84.6787	4,594.48	78.15	4,594.48	87.1174	4,594.48	83.7205
4,757.08	107.093	4,757.08	106	4,757.08	105.992	4,757.08	105.05	4,757.08	105.581	4,757.08	102.327	4,757.08	102.921	4,757.08	99.7608	4,757.08	97.4107	4,757.08	97.9496	4,757.08	96.1658	4,757.08	94.4847	4,757.08	96.4841	4,757.08	94.2957	4,757.08	94.8996	4,757.08	92.5641	4,757.08	92.8316	4,757.08	89.4681	4,757.08	93.3799	4,757.08	88.5909	4,757.08	89.3549	4,757.08	86.5902	4,757.08	84.2722	4,757.08	85.7281	4,757.08	76.8844	4,757.08	83.4992	4,757.08	77.3339	4,757.08	86.1531	4,757.08	84.5187	4,757.08	84.4192	4,757.08	77.7729	4,757.08	76.9304	4,757.08	86.814	4,757.08	83.3455	4,757.08	86.6985	4,757.08	80.8057
4,924.8	107.118	4,924.8	106.061	4,924.8	106.309	4,924.8	104.752	4,924.8	105.355	4,924.8	101.642	4,924.8	103.443	4,924.8	100.057	4,924.8	98.289	4,924.8	96.6988	4,924.8	95.4288	4,924.8	95.2226	4,924.8	96.2687	4,924.8	94.3932	4,924.8	96.0516	4,924.8	89.7037	4,924.8	91.3602	4,924.8	88.8889	4,924.8	91.1545	4,924.8	85.8064	4,924.8	87.3342	4,924.8	84.9436	4,924.8	86.8919	4,924.8	84.5214	4,924.8	80.7909	4,924.8	82.7108	4,924.8	74.6232	4,924.8	83.5762	4,924.8	79.2191	4,924.8	83.8416	4,924.8	76.4217	4,924.8	79.2965	4,924.8	86.3221	4,924.8	80.7832	4,924.8	86.9214	4,924.8	86.9301
5,098.39	107.205	5,098.39	105.819	5,098.39	106.551	5,098.39	103.646	5,098.39	104.831	5,098.39	101.499	5,098.39	103.329	5,098.39	99.3719	5,098.39	98.6058	5,098.39	96.1164	5,098.39	95.0883	5,098.39	94.5935	5,098.39	95.975	5,098.39	91.9367	5,098.39	95.6193	5,098.39	91.3247	5,098.39	91.4789	5,098.39	86.8623	5,098.39	87.3411	5,098.39	85.8882	5,098.39	88.0161	5,098.39	83.6042	5,098.39	85.6838	5,098.39	83.2805	5,098.39	78.6606	5,098.39	78.8028	5,098.39	73.9277	5,098.39	79.6681	5,098.39	78.1862	5,098.39	82.3162	5,098.39	72.5744	5,098.39	78.6798	5,098.39	84.6916	5,098.39	69.0163	5,098.39	85.5877	5,098.39	84.628
5,277.83	106.12	5,277.83	105.409	5,277.83	106.641	5,277.83	103.48	5,277.83	105.164	5,277.83	101.597	5,277.83	103.057	5,277.83	98.1983	5,277.83	97.639	5,277.83	95.6143	5,277.83	94.5189	5,277.83	92.5951	5,277.83	94.0337	5,277.83	90.0989	5,277.83	93.9649	5,277.83	84.8252	5,277.83	90.8442	5,277.83	86.5406	5,277.83	84.7065	5,277.83	84.8413	5,277.83	87.1226	5,277.83	83.3662	5,277.83	86.5596	5,277.83	83.8817	5,277.83	78.1111	5,277.83	82.8055	5,277.83	79.3247	5,277.83	78.4845	5,277.83	80.2521	5,277.83	80.9395	5,277.83	74.9694	5,277.83	78.9235	5,277.83	82.4765	5,277.83	71.4843	5,277.83	85.7882	5,277.83	82.3944
5,463.87	106.134	5,463.87	105.082	5,463.87	106.115	5,463.87	102.769	5,463.87	104.655	5,463.87	101.445	5,463.87	102.95	5,463.87	97.1375	5,463.87	97.8577	5,463.87	94.6359	5,463.87	92.6153	5,463.87	91.2712	5,463.87	93.2066	5,463.87	88.07	5,463.87	92.5431	5,463.87	90.5444	5,463.87	89.6833	5,463.87	87.3425	5,463.87	86.317	5,463.87	86.9096	5,463.87	88.0148	5,463.87	84.6873	5,463.87	84.5902	5,463.87	84.2015	5,463.87	78.1946	5,463.87	80.9876	5,463.87	83.0884	5,463.87	80.5363	5,463.87	82.7146	5,463.87	81.562	5,463.87	77.6243	5,463.87	79.2413	5,463.87	84.0047	5,463.87	71.0016	5,463.87	85.7619	5,463.87	79.1148
5,656.49	105.499	5,656.49	104.201	5,656.49	105.435	5,656.49	103.461	5,656.49	104.045	5,656.49	100.261	5,656.49	102.857	5,656.49	97.0059	5,656.49	98.2994	5,656.49	94.8659	5,656.49	91.0434	5,656.49	91.0307	5,656.49	91.7728	5,656.49	89.4577	5,656.49	91.4024	5,656.49	88.1923	5,656.49	89.5976	5,656.49	88.4791	5,656.49	85.1491	5,656.49	85.1328	5,656.49	88.9386	5,656.49	84.475	5,656.49	84.3815	5,656.49	82.0594	5,656.49	50.6348	5,656.49	82.2494	5,656.49	79.1742	5,656.49	81.0247	5,656.49	82.4212	5,656.49	81.385	5,656.49	80.8958	5,656.49	77.1074	5,656.49	84.399	5,656.49	58.9438	5,656.49	84.1437	5,656.49	78.104
5,856.45	104.987	5,856.45	104.317	5,856.45	105.209	5,856.45	102.499	5,856.45	103.428	5,856.45	98.3327	5,856.45	102.026	5,856.45	98.3283	5,856.45	98.7988	5,856.45	94.002	5,856.45	92.3259	5,856.45	92.1403	5,856.45	89.4089	5,856.45	89.8184	5,856.45	89.4012	5,856.45	88.2024	5,856.45	88.0956	5,856.45	83.3689	5,856.45	78.2986	5,856.45	82.8948	5,856.45	88.0306	5,856.45	81.0767	5,856.45	85.6047	5,856.45	81.1448	5,856.45	74.8214	5,856.45	78.1894	5,856.45	78.4766	5,856.45	78.6767	5,856.45	76.8057	5,856.45	82.0824	5,856.45	78.1013	5,856.45	74.6709	5,856.45	82.9339	5,856.45	64.3429	5,856.45	81.8274	5,856.45	78.3174
6,062.99	105.404	6,062.99	104.6	6,062.99	105.592	6,062.99	102.037	6,062.99	103.747	6,062.99	99.6717	6,062.99	101.195	6,062.99	97.978	6,062.99	98.2446	6,062.99	94.7899	6,062.99	92.5332	6,062.99	91.3662	6,062.99	88.0842	6,062.99	86.9148	6,062.99	87.9788	6,062.99	85.9568	6,062.99	87.6304	6,062.99	85.1902	6,062.99	82.2449	6,062.99	84.8782	6,062.99	86.6241	6,062.99	83.2056	6,062.99	85.1115	6,062.99	82.36	6,062.99	74.1147	6,062.99	81.8189	6,062.99	78.1551	6,062.99	80.7155	6,062.99	79.113	6,062.99	82.7793	6,062.99	77.702	6,062.99	80.9881	6,062.99	80.0399	6,062.99	68.2848	6,062.99	80.932	6,062.99	75.6028
6,276.86	106.161	6,276.86	105.088	6,276.86	105.797	6,276.86	102.23	6,276.86	103.991	6,276.86	100.202	6,276.86	101.286	6,276.86	97.6159	6,276.86	97.9324	6,276.86	94.5905	6,276.86	93.1502	6,276.86	90.762	6,276.86	90.0884	6,276.86	90.1879	6,276.86	89.7507	6,276.86	88.416	6,276.86	89.3673	6,276.86	86.0839	6,276.86	85.3863	6,276.86	86.9958	6,276.86	80.0183	6,276.86	85.9531	6,276.86	82.1566	6,276.86	84.3062	6,276.86	72.2484	6,276.86	84.0611	6,276.86	73.0033	6,276.86	81.7405	6,276.86	76.6729	6,276.86	84.3329	6,276.86	77.6783	6,276.86	82.9341	6,276.86	77.6017	6,276.86	74.4209	6,276.86	81.1415	6,276.86	73.1103
6,498.05	106.09	6,498.05	105.051	6,498.05	106.042	6,498.05	102.246	6,498.05	104.004	6,498.05	100.585	6,498.05	101.228	6,498.05	96.5397	6,498.05	98.1274	6,498.05	94.6955	6,498.05	93.3284	6,498.05	93.1269	6,498.05	90.2486	6,498.05	91.7383	6,498.05	91.649	6,498.05	91.3826	6,498.05	91.3266	6,498.05	88.1163	6,498.05	86.865	6,498.05	86.1459	6,498.05	74.8497	6,498.05	85.9778	6,498.05	81.3859	6,498.05	83.3992	6,498.05	73.5326	6,498.05	83.7263	6,498.05	77.2951	6,498.05	82.7763	6,498.05	79.0259	6,498.05	84.2402	6,498.05	79.3607	6,498.05	82.981	6,498.05	80.3556	6,498.05	71.3427	6,498.05	81.2001	6,498.05	74.7596
6,727.29	106.471	6,727.29	105.172	6,727.29	106.468	6,727.29	102.83	6,727.29	104.359	6,727.29	100.26	6,727.29	101.076	6,727.29	96.8153	6,727.29	98.322	6,727.29	95.5983	6,727.29	94.0955	6,727.29	93.3282	6,727.29	89.663	6,727.29	92.9096	6,727.29	89.9622	6,727.29	89.4174	6,727.29	88.7491	6,727.29	86.765	6,727.29	84.0908	6,727.29	83.7984	6,727.29	82.7704	6,727.29	82.2981	6,727.29	85.4562	6,727.29	81.9567	6,727.29	76.0104	6,727.29	81.3133	6,727.29	70.2496	6,727.29	82.2603	6,727.29	77.1288	6,727.29	83.6412	6,727.29	79.3288	6,727.29	82.5027	6,727.29	78.8279	6,727.29	73.6613	6,727.29	79.9401	6,727.29	73.3614
6,964.6	106.555	6,964.6	105.468	6,964.6	106.545	6,964.6	102.997	6,964.6	104.865	6,964.6	100.803	6,964.6	100.824	6,964.6	98.6482	6,964.6	97.2125	6,964.6	95.8555	6,964.6	94.1584	6,964.6	93.5376	6,964.6	89.387	6,964.6	90.5986	6,964.6	88.2239	6,964.6	89.5043	6,964.6	84.0013	6,964.6	85.8257	6,964.6	78.5226	6,964.6	85.319	6,964.6	83.3532	6,964.6	82.9072	6,964.6	86.1446	6,964.6	81.1385	6,964.6	75.9766	6,964.6	80.7805	6,964.6	69.4182	6,964.6	79.4106	6,964.6	78.0281	6,964.6	84.5051	6,964.6	75.2946	6,964.6	82.8956	6,964.6	76.5037	6,964.6	74.228	6,964.6	80.8504	6,964.6	72.4612
7,209.96	106.77	7,209.96	104.984	7,209.96	106.294	7,209.96	103.282	7,209.96	104.681	7,209.96	100.962	7,209.96	101.264	7,209.96	98.9665	7,209.96	97.7247	7,209.96	95.8079	7,209.96	94.5985	7,209.96	93.5037	7,209.96	89.0993	7,209.96	91.1698	7,209.96	83.9848	7,209.96	89.6105	7,209.96	82.8239	7,209.96	88.2667	7,209.96	82.5226	7,209.96	83.3239	7,209.96	85.5205	7,209.96	83.1394	7,209.96	85.4872	7,209.96	81.8793	7,209.96	81.753	7,209.96	81.8344	7,209.96	72.2537	7,209.96	80.9408	7,209.96	76.0728	7,209.96	84.5994	7,209.96	69.2119	7,209.96	82.8476	7,209.96	75.6957	7,209.96	75.2851	7,209.96	78.9616	7,209.96	71.1085
7,464.11	105.731	7,464.11	104.065	7,464.11	105.78	7,464.11	102.683	7,464.11	104.315	7,464.11	100.586	7,464.11	101.426	7,464.11	98.4536	7,464.11	98.1972	7,464.11	96.6357	7,464.11	95.1271	7,464.11	94.0397	7,464.11	89.9551	7,464.11	91.9788	7,464.11	84.0446	7,464.11	87.7313	7,464.11	87.6385	7,464.11	86.1222	7,464.11	85.9946	7,464.11	84.2985	7,464.11	84.839	7,464.11	82.1142	7,464.11	83.1688	7,464.11	80.8286	7,464.11	80.0162	7,464.11	81.0738	7,464.11	69.7101	7,464.11	80.9433	7,464.11	75.3645	7,464.11	83.0885	7,464.11	74.5552	7,464.11	82.2572	7,464.11	73.4064	7,464.11	74.8591	7,464.11	77.8958	7,464.11	69.0765
7,727.78	104.775	7,727.78	103.827	7,727.78	104.878	7,727.78	102.429	7,727.78	103.807	7,727.78	100.828	7,727.78	101.049	7,727.78	98.4467	7,727.78	98.23	7,727.78	97.0132	7,727.78	96.0283	7,727.78	93.9694	7,727.78	90.3663	7,727.78	90.125	7,727.78	86.9411	7,727.78	87.5686	7,727.78	89.4659	7,727.78	84.915	7,727.78	86.2104	7,727.78	82.9894	7,727.78	81.0129	7,727.78	81.1642	7,727.78	81.3608	7,727.78	79.7159	7,727.78	80.9378	7,727.78	78.4794	7,727.78	73.4677	7,727.78	79.4483	7,727.78	71.0921	7,727.78	81.911	7,727.78	76.1169	7,727.78	81.5778	7,727.78	72.6147	7,727.78	75.7229	7,727.78	75.9075	7,727.78	66.3003
8,000.24	104.487	8,000.24	104.377	8,000.24	104.414	8,000.24	102.7	8,000.24	102.808	8,000.24	100.866	8,000.24	100.684	8,000.24	99.3121	8,000.24	98.3111	8,000.24	96.5182	8,000.24	96.1451	8,000.24	92.7663	8,000.24	91.968	8,000.24	89.4157	8,000.24	85.2293	8,000.24	86.9902	8,000.24	86.7323	8,000.24	84.9013	8,000.24	81.9367	8,000.24	82.7019	8,000.24	76.823	8,000.24	81.3809	8,000.24	82.0507	8,000.24	81.2057	8,000.24	79.6282	8,000.24	78.6318	8,000.24	71.8266	8,000.24	79.9619	8,000.24	75.6943	8,000.24	81.3028	8,000.24	75.7826	8,000.24	81.4363	8,000.24	68.6564	8,000.24	76.9159	8,000.24	73.5286	8,000.24	54.7602
8,282.23	105.897	8,282.23	105.842	8,282.23	104.373	8,282.23	103.655	8,282.23	102.22	8,282.23	101.414	8,282.23	100.06	8,282.23	99.8473	8,282.23	97.8089	8,282.23	96.6889	8,282.23	95.8213	8,282.23	92.7782	8,282.23	91.9719	8,282.23	89.66	8,282.23	85.1993	8,282.23	86.3819	8,282.23	85.0274	8,282.23	83.9186	8,282.23	79.6169	8,282.23	82.8087	8,282.23	81.1884	8,282.23	80.9192	8,282.23	78.6649	8,282.23	80.2889	8,282.23	79.4907	8,282.23	79.945	8,282.23	74.1843	8,282.23	79.9697	8,282.23	73.2396	8,282.23	81.8699	8,282.23	71.9377	8,282.23	82.3875	8,282.23	65.5746	8,282.23	78.2977	8,282.23	70.9292	8,282.23	66.6314
8,574.46	107.051	8,574.46	106.537	8,574.46	105.669	8,574.46	104.084	8,574.46	102.357	8,574.46	101.739	8,574.46	100.192	8,574.46	99.3492	8,574.46	98.3293	8,574.46	96.1704	8,574.46	95.3469	8,574.46	92.4851	8,574.46	91.7311	8,574.46	89.342	8,574.46	84.0451	8,574.46	86.6373	8,574.46	78.5584	8,574.46	81.7057	8,574.46	80.6251	8,574.46	79.3514	8,574.46	77.9599	8,574.46	80.4698	8,574.46	72.1304	8,574.46	78.3323	8,574.46	83.0323	8,574.46	78.759	8,574.46	72.513	8,574.46	80.551	8,574.46	71.1118	8,574.46	80.435	8,574.46	70.8064	8,574.46	82.6456	8,574.46	69.6009	8,574.46	79.0657	8,574.46	70.3162	8,574.46	63.3173
8,876.22	107.007	8,876.22	106.307	8,876.22	106.082	8,876.22	104.214	8,876.22	103.217	8,876.22	101.708	8,876.22	100.142	8,876.22	99.043	8,876.22	98.8046	8,876.22	95.9164	8,876.22	95.8117	8,876.22	91.6496	8,876.22	90.0934	8,876.22	87.759	8,876.22	83.3438	8,876.22	85.7107	8,876.22	71.7303	8,876.22	82.526	8,876.22	84.0143	8,876.22	80.0196	8,876.22	82.5416	8,876.22	80.2029	8,876.22	67.1055	8,876.22	80.0822	8,876.22	85.3986	8,876.22	78.741	8,876.22	68.108	8,876.22	80.8796	8,876.22	69.1507	8,876.22	79.174	8,876.22	74.5918	8,876.22	81.6621	8,876.22	68.172	8,876.22	79.7642	8,876.22	72.5176	8,876.22	71.5951
9,189.7	106.324	9,189.7	105.46	9,189.7	105.893	9,189.7	103.622	9,189.7	103.518	9,189.7	101.7	9,189.7	100.504	9,189.7	98.785	9,189.7	98.7912	9,189.7	94.8557	9,189.7	95.7477	9,189.7	91.1312	9,189.7	89.5284	9,189.7	88.7919	9,189.7	83.7745	9,189.7	85.6876	9,189.7	75.9715	9,189.7	83.503	9,189.7	83.2061	9,189.7	79.1653	9,189.7	85.4842	9,189.7	79.6845	9,189.7	75.4374	9,189.7	77.5264	9,189.7	84.9776	9,189.7	80.2569	9,189.7	65.4898	9,189.7	79.2206	9,189.7	67.5129	9,189.7	79.1481	9,189.7	73.662	9,189.7	81.4409	9,189.7	64.8595	9,189.7	78.7978	9,189.7	73.0581	9,189.7	68.6193
9,513.43	105.232	9,513.43	104.534	9,513.43	105.005	9,513.43	103.29	9,513.43	103.026	9,513.43	101.991	9,513.43	100.294	9,513.43	99.5442	9,513.43	98.6699	9,513.43	94.0399	9,513.43	95.2001	9,513.43	91.1098	9,513.43	88.4903	9,513.43	88.1507	9,513.43	84.4029	9,513.43	85.3868	9,513.43	74.2056	9,513.43	82.9109	9,513.43	80.5677	9,513.43	80.7178	9,513.43	86.3151	9,513.43	79.2166	9,513.43	76.6737	9,513.43	76.7176	9,513.43	83.9848	9,513.43	78.952	9,513.43	72.2987	9,513.43	78.5104	9,513.43	66.5611	9,513.43	79.0527	9,513.43	71.2178	9,513.43	80.3927	9,513.43	64.4638	9,513.43	77.1588	9,513.43	70.1298	9,513.43	70.6505
9,848.88	105.562	9,848.88	105.397	9,848.88	104.659	9,848.88	103.878	9,848.88	102.409	9,848.88	102.354	9,848.88	99.9224	9,848.88	99.8482	9,848.88	98.4811	9,848.88	94.9357	9,848.88	94.7817	9,848.88	90.3778	9,848.88	87.6518	9,848.88	88.4812	9,848.88	77.8543	9,848.88	86.8612	9,848.88	67.2166	9,848.88	83.3802	9,848.88	81.4771	9,848.88	81.0678	9,848.88	85.8926	9,848.88	79.1774	9,848.88	74.7618	9,848.88	78.854	9,848.88	84.6239	9,848.88	77.4014	9,848.88	73.9798	9,848.88	80.0101	9,848.88	64.9547	9,848.88	79.9407	9,848.88	67.6744	9,848.88	81.0395	9,848.88	61.4472	9,848.88	78.185	9,848.88	69.0231	9,848.88	69.83
10,196.8	106.561	10,196.8	106.556	10,196.8	104.846	10,196.8	104.943	10,196.8	102.464	10,196.8	102.488	10,196.8	99.5626	10,196.8	99.6978	10,196.8	98.1306	10,196.8	95.9839	10,196.8	94.6545	10,196.8	91.2061	10,196.8	89.1315	10,196.8	88.8708	10,196.8	82.957	10,196.8	87.1151	10,196.8	71.8998	10,196.8	84.0979	10,196.8	79.0788	10,196.8	79.7396	10,196.8	86.0466	10,196.8	78.2656	10,196.8	66.9023	10,196.8	78.7044	10,196.8	86.0089	10,196.8	77.6703	10,196.8	74.5502	10,196.8	80.8175	10,196.8	66.7906	10,196.8	79.3871	10,196.8	66.5662	10,196.8	81.783	10,196.8	63.7653	10,196.8	80.1555	10,196.8	68.7113	10,196.8	71.2665
10,556.4	107.355	10,556.4	106.894	10,556.4	105.317	10,556.4	105.095	10,556.4	103.184	10,556.4	102.155	10,556.4	99.9563	10,556.4	99.1401	10,556.4	97.351	10,556.4	94.9248	10,556.4	94.5459	10,556.4	92.2096	10,556.4	90.2981	10,556.4	88.1466	10,556.4	84.6968	10,556.4	87.1656	10,556.4	80.5211	10,556.4	83.7726	10,556.4	73.6556	10,556.4	79.0633	10,556.4	87.2906	10,556.4	79.7209	10,556.4	73.9215	10,556.4	76.937	10,556.4	86.0247	10,556.4	80.1828	10,556.4	70.5395	10,556.4	79.7062	10,556.4	72.8538	10,556.4	76.932	10,556.4	68.3927	10,556.4	81.3418	10,556.4	62.1664	10,556.4	81.4502	10,556.4	70.2201	10,556.4	72.0168
10,928.5	107.69	10,928.5	106.341	10,928.5	105.827	10,928.5	104.357	10,928.5	103.489	10,928.5	101.763	10,928.5	100.705	10,928.5	98.7104	10,928.5	96.6095	10,928.5	94.3254	10,928.5	93.9264	10,928.5	91.9596	10,928.5	91.0253	10,928.5	89.6162	10,928.5	87.6445	10,928.5	87.4052	10,928.5	82.0416	10,928.5	84.1445	10,928.5	68.3552	10,928.5	81.573	10,928.5	88.4275	10,928.5	80.0597	10,928.5	81.74	10,928.5	79.0544	10,928.5	86.4177	10,928.5	79.8353	10,928.5	75.5329	10,928.5	79.2241	10,928.5	72.5088	10,928.5	76.93	10,928.5	65.6127	10,928.5	80.9687	10,928.5	62.0684	10,928.5	80.7517	10,928.5	68.6033	10,928.5	69.2838
11,313.7	107.451	11,313.7	105.784	11,313.7	106.138	11,313.7	104.66	11,313.7	103.544	11,313.7	101.637	11,313.7	101.018	11,313.7	98.8592	11,313.7	97.5843	11,313.7	94.3257	11,313.7	93.5269	11,313.7	92.4275	11,313.7	92.4913	11,313.7	89.48	11,313.7	89.798	11,313.7	84.2507	11,313.7	79.8978	11,313.7	83.8395	11,313.7	67.1943	11,313.7	81.9218	11,313.7	89.2385	11,313.7	76.4906	11,313.7	83.9196	11,313.7	79.72	11,313.7	86.365	11,313.7	75.3819	11,313.7	78.6191	11,313.7	79.1029	11,313.7	70.3814	11,313.7	76.2662	11,313.7	59.74	11,313.7	80.4242	11,313.7	61.2786	11,313.7	78.5211	11,313.7	59.2138	11,313.7	67.1716
11,712.9	106.249	11,712.9	105.812	11,712.9	105.928	11,712.9	104.944	11,712.9	103.596	11,712.9	102.586	11,712.9	100.959	11,712.9	98.235	11,712.9	97.9966	11,712.9	94.2529	11,712.9	94.0405	11,712.9	92.7512	11,712.9	92.5413	11,712.9	89.7747	11,712.9	90.5438	11,712.9	85.6013	11,712.9	81.3305	11,712.9	83.3945	11,712.9	50.0408	11,712.9	79.9518	11,712.9	88.1071	11,712.9	76.7102	11,712.9	82.2451	11,712.9	77.2213	11,712.9	87.15	11,712.9	75.8479	11,712.9	76.7577	11,712.9	79.448	11,712.9	61.8882	11,712.9	77.0525	11,712.9	64.2851	11,712.9	80.1953	11,712.9	54.7943	11,712.9	77.5548	11,712.9	66.3978	11,712.9	64.5699
12,126	106.227	12,126	106.678	12,126	105.192	12,126	104.87	12,126	103.474	12,126	102.964	12,126	101.112	12,126	98.7091	12,126	97.4645	12,126	94.7942	12,126	95.1008	12,126	92.7794	12,126	93.2299	12,126	89.8801	12,126	90.918	12,126	84.7902	12,126	86.9525	12,126	81.1144	12,126	70.2672	12,126	79.138	12,126	86.3003	12,126	75.9951	12,126	79.6731	12,126	76.7037	12,126	87.0557	12,126	75.6289	12,126	74.9126	12,126	79.6517	12,126	70.0581	12,126	77.7665	12,126	60.7869	12,126	79.7653	12,126	57.9475	12,126	78.3612	12,126	64.3636	12,126	64.7687
12,553.7	106.818	12,553.7	106.407	12,553.7	104.91	12,553.7	104.554	12,553.7	103.558	12,553.7	102.293	12,553.7	102.198	12,553.7	99.1856	12,553.7	98.8317	12,553.7	96.9011	12,553.7	96.23	12,553.7	93.4442	12,553.7	95.4066	12,553.7	88.4586	12,553.7	91.5293	12,553.7	85.3238	12,553.7	86.9928	12,553.7	83.8892	12,553.7	67.3273	12,553.7	80.2741	12,553.7	86.5624	12,553.7	78.5834	12,553.7	83.9805	12,553.7	77.4598	12,553.7	87.5099	12,553.7	79.0352	12,553.7	75.1501	12,553.7	79.7392	12,553.7	72.269	12,553.7	76.7537	12,553.7	65.8999	12,553.7	79.7322	12,553.7	67.2172	12,553.7	78.9123	12,553.7	63.4661	12,553.7	70.2176
12,996.1	106.824	12,996.1	105.792	12,996.1	104.764	12,996.1	104.671	12,996.1	103.712	12,996.1	102.622	12,996.1	102.906	12,996.1	99.0868	12,996.1	100.458	12,996.1	98.0171	12,996.1	97.5544	12,996.1	93.1842	12,996.1	96.2903	12,996.1	90.7133	12,996.1	91.5877	12,996.1	84.854	12,996.1	87.0199	12,996.1	83.3928	12,996.1	66.798	12,996.1	78.536	12,996.1	86.266	12,996.1	79.3708	12,996.1	86.6818	12,996.1	74.1239	12,996.1	88.817	12,996.1	80.8436	12,996.1	76.9369	12,996.1	78.9405	12,996.1	68.5649	12,996.1	76.6238	12,996.1	71.3786	12,996.1	81.4891	12,996.1	63.7472	12,996.1	79.3441	12,996.1	71.7896	12,996.1	72.9774
13,454.6	105.442	13,454.6	105.474	13,454.6	104.161	13,454.6	105.062	13,454.6	104.107	13,454.6	102.698	13,454.6	103.043	13,454.6	100.443	13,454.6	100.901	13,454.6	98.0864	13,454.6	98.9357	13,454.6	94.4793	13,454.6	95.9384	13,454.6	89.303	13,454.6	90.912	13,454.6	85.6046	13,454.6	88.5606	13,454.6	85.9965	13,454.6	77.7943	13,454.6	81.0773	13,454.6	86.3985	13,454.6	80.1638	13,454.6	87.2819	13,454.6	78.3454	13,454.6	89.8618	13,454.6	80.712	13,454.6	77.2223	13,454.6	79.8843	13,454.6	68.4327	13,454.6	79.3834	13,454.6	71.2717	13,454.6	82.9835	13,454.6	49.1969	13,454.6	79.973	13,454.6	72.469	13,454.6	72.5648
13,928.5	102.794	13,928.5	103.966	13,928.5	102.349	13,928.5	105.376	13,928.5	104.53	13,928.5	103.025	13,928.5	103.483	13,928.5	101.071	13,928.5	101.117	13,928.5	98.6688	13,928.5	99.4348	13,928.5	92.5604	13,928.5	95.4176	13,928.5	90.9625	13,928.5	90.6214	13,928.5	86.5528	13,928.5	86.4021	13,928.5	83.2381	13,928.5	78.9765	13,928.5	81.6917	13,928.5	82.8517	13,928.5	78.3121	13,928.5	87.4665	13,928.5	79.212	13,928.5	88.4006	13,928.5	77.2643	13,928.5	77.7924	13,928.5	80.8162	13,928.5	73.235	13,928.5	79.3695	13,928.5	71.979	13,928.5	81.8363	13,928.5	58.6918	13,928.5	76.911	13,928.5	68.8341	13,928.5	66.8935
14,419.9	100.887	14,419.9	103.441	14,419.9	100.556	14,419.9	105.195	14,419.9	104.26	14,419.9	103.94	14,419.9	104.107	14,419.9	101.815	14,419.9	102.086	14,419.9	97.9915	14,419.9	99.4388	14,419.9	92.4252	14,419.9	93.952	14,419.9	89.6541	14,419.9	90.8977	14,419.9	85.6892	14,419.9	84.9016	14,419.9	84.3991	14,419.9	80.2307	14,419.9	80.1423	14,419.9	79.6871	14,419.9	77.7396	14,419.9	86.4765	14,419.9	76.3529	14,419.9	88.5374	14,419.9	77.0765	14,419.9	71.9925	14,419.9	78.5048	14,419.9	75.3137	14,419.9	77.9146	14,419.9	68.5211	14,419.9	81.303	14,419.9	68.5769	14,419.9	76.6312	14,419.9	60.5646	14,419.9	66.9247
14,928.2	100.777	14,928.2	104.023	14,928.2	100.956	14,928.2	105.024	14,928.2	103.888	14,928.2	103.678	14,928.2	104.041	14,928.2	102.204	14,928.2	102.547	14,928.2	97.5532	14,928.2	99.0285	14,928.2	90.9528	14,928.2	93.9742	14,928.2	89.3242	14,928.2	89.0545	14,928.2	85.1691	14,928.2	82.864	14,928.2	83.0815	14,928.2	80.2531	14,928.2	77.8397	14,928.2	80.895	14,928.2	74.8258	14,928.2	85.3078	14,928.2	73.4312	14,928.2	88.2211	14,928.2	78.2696	14,928.2	75.1548	14,928.2	76.6155	14,928.2	76.7299	14,928.2	75.5198	14,928.2	67.218	14,928.2	79.683	14,928.2	68.7653	14,928.2	75.9223	14,928.2	64.9233	14,928.2	67.9277
15,454.8	101.939	15,454.8	104.95	15,454.8	102.235	15,454.8	105.194	15,454.8	104.289	15,454.8	103.363	15,454.8	103.868	15,454.8	101.064	15,454.8	102.395	15,454.8	95.9822	15,454.8	98.5352	15,454.8	90.648	15,454.8	93.0028	15,454.8	87.5018	15,454.8	85.025	15,454.8	81.2578	15,454.8	84.5624	15,454.8	81.36	15,454.8	81.5902	15,454.8	76.7646	15,454.8	81.2605	15,454.8	70.1837	15,454.8	84.7155	15,454.8	74.1515	15,454.8	87.5924	15,454.8	75.9822	15,454.8	78.014	15,454.8	75.7256	15,454.8	65.3771	15,454.8	76.6726	15,454.8	68.0855	15,454.8	78.3588	15,454.8	60.9443	15,454.8	74.2759	15,454.8	67.7043	15,454.8	67.2729
15,999.8	102.326	15,999.8	105.076	15,999.8	102.797	15,999.8	104.96	15,999.8	104.279	15,999.8	103.051	15,999.8	103.435	15,999.8	99.8746	15,999.8	101.824	15,999.8	94.2518	15,999.8	97.0109	15,999.8	89.0679	15,999.8	91.0859	15,999.8	85.1363	15,999.8	83.2415	15,999.8	80.1167	15,999.8	80.635	15,999.8	75.6815	15,999.8	79.7189	15,999.8	76.9592	15,999.8	82.212	15,999.8	63.2764	15,999.8	83.5026	15,999.8	73.921	15,999.8	87.3944	15,999.8	69.4392	15,999.8	75.572	15,999.8	75.1796	15,999.8	63.1483	15,999.8	76.3195	15,999.8	66.1571	15,999.8	76.6827	15,999.8	50.2968	15,999.8	68.5954	15,999.8	63.2507	15,999.8	64.3388
16,564.5	102.241	16,564.5	104.424	16,564.5	102.435	16,564.5	104.647	16,564.5	104.16	16,564.5	102.899	16,564.5	103.199	16,564.5	98.2628	16,564.5	101.127	16,564.5	92.3381	16,564.5	95.7368	16,564.5	86.1566	16,564.5	90.3146	16,564.5	80.7037	16,564.5	79.1193	16,564.5	75.1237	16,564.5	76.9193	16,564.5	75.907	16,564.5	77.8684	16,564.5	74.8463	16,564.5	83.1593	16,564.5	67.6443	16,564.5	82.109	16,564.5	68.9807	16,564.5	86.1958	16,564.5	70.9454	16,564.5	71.6111	16,564.5	71.4944	16,564.5	63.6813	16,564.5	73.3452	16,564.5	61.085	16,564.5	74.5188	16,564.5	56.5141	16,564.5	70.9681	16,564.5	55.3447	16,564.5	67.1594
17,148.2	103.132	17,148.2	104.289	17,148.2	102.967	17,148.2	103.87	17,148.2	103.89	17,148.2	102.296	17,148.2	103.199	17,148.2	97.0517	17,148.2	100.765	17,148.2	91.4836	17,148.2	94.4409	17,148.2	83.916	17,148.2	88.8748	17,148.2	80.6061	17,148.2	78.9452	17,148.2	77.2164	17,148.2	75.0823	17,148.2	75.6054	17,148.2	76.4642	17,148.2	71.2959	17,148.2	83.7413	17,148.2	61.6876	17,148.2	82.142	17,148.2	69.9061	17,148.2	85.5545	17,148.2	69.2192	17,148.2	69.7329	17,148.2	73.0683	17,148.2	65.9278	17,148.2	73.5293	17,148.2	26.2803	17,148.2	76.2513	17,148.2	60.9037	17,148.2	70.7302	17,148.2	59.8459	17,148.2	71.0551
17,753.2	104.1	17,753.2	104.451	17,753.2	104.886	17,753.2	103.406	17,753.2	104.4	17,753.2	101.134	17,753.2	102.98	17,753.2	94.9143	17,753.2	100.112	17,753.2	90.3147	17,753.2	92.8063	17,753.2	83.2468	17,753.2	85.4682	17,753.2	82.6612	17,753.2	80.6154	17,753.2	78.7875	17,753.2	71.7598	17,753.2	71.8868	17,753.2	73.7478	17,753.2	72.562	17,753.2	85.0069	17,753.2	66.2773	17,753.2	83.8202	17,753.2	68.0784	17,753.2	85.4627	17,753.2	68.2775	17,753.2	72.9161	17,753.2	74.8532	17,753.2	59.3972	17,753.2	74.2044	17,753.2	57.8578	17,753.2	75.7523	17,753.2	57.1123	17,753.2	72.3783	17,753.2	64.9014	17,753.2	71.6001
18,379.4	103.834	18,379.4	103.575	18,379.4	105.487	18,379.4	103.271	18,379.4	105.15	18,379.4	100.694	18,379.4	102.732	18,379.4	94.3793	18,379.4	98.4999	18,379.4	90.1666	18,379.4	90.7407	18,379.4	85.3846	18,379.4	83.3926	18,379.4	83.8416	18,379.4	79.0502	18,379.4	77.4213	18,379.4	66.1881	18,379.4	68.8544	18,379.4	66.4682	18,379.4	70.793	18,379.4	85.8487	18,379.4	59.904	18,379.4	85.3141	18,379.4	65.7247	18,379.4	85.2205	18,379.4	69.1892	18,379.4	69.1588	18,379.4	75.5047	18,379.4	60.3515	18,379.4	70.2096	18,379.4	62.9408	18,379.4	72.8446	18,379.4	67.4877	18,379.4	75.0454	18,379.4	71.7727	18,379.4	72.5118
19,027.6	103.453	19,027.6	102.699	19,027.6	104.586	19,027.6	102.835	19,027.6	104.159	19,027.6	100.306	19,027.6	101.961	19,027.6	94.553	19,027.6	97.3574	19,027.6	89.0985	19,027.6	88.85	19,027.6	84.374	19,027.6	82.2225	19,027.6	83.4106	19,027.6	73.438	19,027.6	78.204	19,027.6	53.6709	19,027.6	63.1534	19,027.6	60.915	19,027.6	71.6742	19,027.6	84.4841	19,027.6	70.1992	19,027.6	84.7722	19,027.6	65.6529	19,027.6	83.4704	19,027.6	64.9225	19,027.6	70.1273	19,027.6	75.9623	19,027.6	50.4351	19,027.6	71.6301	19,027.6	63.6238	19,027.6	74.61	19,027.6	62.5924	19,027.6	77.0102	19,027.6	72.2898	19,027.6	73.9098
19,698.5	104.01	19,698.5	102.135	19,698.5	104.765	19,698.5	101.624	19,698.5	102.699	19,698.5	98.7783	19,698.5	99.9432	19,698.5	93.3753	19,698.5	95.3845	19,698.5	87.2831	19,698.5	87.2981	19,698.5	82.519	19,698.5	79.0877	19,698.5	81.9778	19,698.5	70.2744	19,698.5	76.8883	19,698.5	61.1107	19,698.5	52.1991	19,698.5	49.3356	19,698.5	65.7786	19,698.5	83.0656	19,698.5	72.6403	19,698.5	83.5548	19,698.5	62.2186	19,698.5	83.5003	19,698.5	68.4062	19,698.5	65.0745	19,698.5	75.9005	19,698.5	58.3573	19,698.5	72.9623	19,698.5	66.1987	19,698.5	72.8188	19,698.5	67.5296	19,698.5	76.618	19,698.5	73.6694	19,698.5	75.2337
19,999.5	104.106	19,999.5	101.405	19,999.5	104.681	19,999.5	100.617	19,999.5	101.831	19,999.5	97.5319	19,999.5	98.6766	19,999.5	92.3703	19,999.5	93.2427	19,999.5	85.9635	19,999.5	84.4219	19,999.5	81.5328	19,999.5	77.4494	19,999.5	81.1281	19,999.5	73.5477	19,999.5	77.3084	19,999.5	66.1724	19,999.5	62.7382	19,999.5	66.179	19,999.5	57.5586	19,999.5	82.3227	19,999.5	72.6055	19,999.5	83.5905	19,999.5	55.2727	19,999.5	83.4798	19,999.5	71.6767	19,999.5	59.9891	19,999.5	73.8686	19,999.5	64.1313	19,999.5	71.6139	19,999.5	67.0624	19,999.5	71.4158	19,999.5	68.9798	19,999.5	77.6314	19,999.5	73.7305	19,999.5	75.4296
