"Vertical Reflections"					
"Floor Reflection"		"Ceiling Reflection"		"Total Vertical Reflection"	
"Frequency [Hz]"	"Sound Pessure Level [dB]  / [2.83V 1m] "	"Frequency [Hz]"	"Sound Pessure Level [dB]  / [2.83V 1m] "	"Frequency [Hz]"	"Sound Pessure Level [dB]  / [2.83V 1m] "
20.5078	65.4428	20.5078	63.7288	20.5078	64.6698
21.2402	58.8332	21.2402	57.2844	21.2402	58.1275
21.9727	57.1779	21.9727	57.4543	21.9727	57.3183
22.7051	64.401	22.7051	62.891	22.7051	63.7113
23.4375	59.6634	23.4375	55.64	23.4375	58.1018
24.1699	61.7283	24.1699	58.2014	24.1699	60.3134
25.6348	60.7957	25.6348	58.0782	25.6348	59.6461
26.3672	64.9303	26.3672	62.3705	26.3672	63.8364
27.0996	64.4953	27.0996	62.1673	27.0996	63.4854
27.832	65.2701	27.832	62.8369	27.832	64.2217
29.2969	67.1305	29.2969	65.37	29.2969	66.3389
30.0293	70.7213	30.0293	68.8487	30.0293	69.8851
31.4941	71.5429	31.4941	69.9098	31.4941	70.8027
32.2266	72.601	32.2266	70.8307	32.2266	71.8055
33.6914	75.8304	33.6914	74.374	33.6914	75.163
34.4238	76.612	34.4238	75.2712	34.4238	75.9931
35.8887	78.7491	35.8887	77.3832	35.8887	78.1196
37.3535	81.0542	37.3535	79.7702	37.3535	80.4594
38.8184	82.9812	38.8184	81.7669	38.8184	82.4163
39.5508	83.9682	39.5508	82.7632	39.5508	83.4073
41.0156	85.9	41.0156	84.4688	41.0156	85.2431
42.4805	88.2566	42.4805	87.0082	42.4805	87.6771
43.9453	90.23	43.9453	89.0198	43.9453	89.6669
45.4102	92.005	45.4102	90.8218	45.4102	91.4535
47.6074	94.6758	47.6074	93.5559	47.6074	94.1519
49.0723	96.3453	49.0723	95.2458	49.0723	95.8302
50.5371	97.8882	50.5371	96.8077	50.5371	97.3814
52.7344	99.9401	52.7344	98.8955	52.7344	99.4491
54.1992	101.11	54.1992	100.081	54.1992	100.626
56.3965	102.535	56.3965	101.537	56.3965	102.064
58.5938	103.58	58.5938	102.611	58.5938	103.122
60.0586	104.034	60.0586	103.082	60.0586	103.584
62.2559	104.483	62.2559	103.54	62.2559	104.037
64.4531	104.665	64.4531	103.739	64.4531	104.226
66.6504	104.624	66.6504	103.694	66.6504	104.184
69.5801	104.483	69.5801	103.546	69.5801	104.04
71.7773	104.339	71.7773	103.409	71.7773	103.899
73.9746	104.119	73.9746	103.204	73.9746	103.685
76.9043	103.89	76.9043	102.982	76.9043	103.46
79.834	103.708	79.834	102.788	79.834	103.273
82.7637	103.647	82.7637	102.709	82.7637	103.203
85.6934	103.606	85.6934	102.661	85.6934	103.159
88.623	103.637	88.623	102.678	88.623	103.184
91.5527	103.656	91.5527	102.699	91.5527	103.203
94.4824	103.456	94.4824	102.437	94.4824	102.976
98.1445	103.799	98.1445	102.788	98.1445	103.323
101.807	103.901	101.807	102.877	101.807	103.419
105.469	104.017	105.469	102.99	105.469	103.534
109.131	104.181	109.131	103.165	109.131	103.703
112.793	104.352	112.793	103.359	112.793	103.884
116.455	104.486	116.455	103.495	116.455	104.018
120.85	104.699	120.85	103.722	120.85	104.238
125.244	104.888	125.244	103.902	125.244	104.423
129.639	105.047	129.639	104.039	129.639	104.572
134.033	105.022	134.033	104.039	134.033	104.558
138.428	105.159	138.428	104.122	138.428	104.671
143.555	105.394	143.555	104.32	143.555	104.89
148.682	105.526	148.682	104.401	148.682	105
153.809	105.602	153.809	104.51	153.809	105.09
159.668	105.734	159.668	104.656	159.668	105.228
164.795	105.956	164.795	104.847	164.795	105.437
170.654	105.991	170.654	104.894	170.654	105.477
176.514	105.952	176.514	104.826	176.514	105.425
183.105	105.974	183.105	104.769	183.105	105.413
189.697	106.065	189.697	104.953	189.697	105.544
196.289	106.131	196.289	104.963	196.289	105.586
202.881	106.2	202.881	105.056	202.881	105.665
210.205	106.235	210.205	105.097	210.205	105.703
217.529	106.245	217.529	105.141	217.529	105.728
225.586	106.334	225.586	105.202	225.586	105.805
232.91	106.525	232.91	105.335	232.91	105.971
241.699	106.378	241.699	105.178	241.699	105.819
249.756	106.486	249.756	105.202	249.756	105.891
258.545	106.398	258.545	105.213	258.545	105.845
268.066	106.194	268.066	104.92	268.066	105.604
277.588	106.076	277.588	105.052	277.588	105.594
287.109	105.971	287.109	104.961	287.109	105.496
297.363	106.096	297.363	104.846	297.363	105.516
307.617	106.016	307.617	104.532	307.617	105.337
318.604	106.083	318.604	104.411	318.604	105.327
329.59	106.174	329.59	104.314	329.59	105.343
341.309	106.014	341.309	104.037	341.309	105.137
353.76	106.129	353.76	104.152	353.76	105.252
366.211	105.983	366.211	104.169	366.211	105.17
378.662	106.229	378.662	104.059	378.662	105.278
392.578	106.122	392.578	103.899	392.578	105.151
405.762	106.189	405.762	103.859	405.762	105.179
420.41	106.168	420.41	103.789	420.41	105.14
435.059	105.829	435.059	103.446	435.059	104.799
450.439	105.804	450.439	103.345	450.439	104.746
466.553	105.735	466.553	103.188	466.553	104.646
482.666	105.622	482.666	103.03	482.666	104.517
500.244	105.677	500.244	103.091	500.244	104.574
517.822	104.918	517.822	103.056	517.822	104.086
536.133	104.848	536.133	103.333	536.133	104.156
554.443	105.334	554.443	103.703	554.443	104.594
574.219	105.422	574.219	103.306	574.219	104.491
594.727	105.661	594.727	103.493	594.727	104.711
615.234	105.808	615.234	103.678	615.234	104.872
637.207	105.975	637.207	104.097	637.207	105.137
659.912	105.924	659.912	104.129	659.912	105.119
683.35	106.054	683.35	103.658	683.35	105.019
706.787	105.244	706.787	103.316	706.787	104.386
731.689	105.154	731.689	103.097	731.689	104.246
758.057	105.65	758.057	103.378	758.057	104.661
784.424	105.285	784.424	103.587	784.424	104.519
812.256	105.211	812.256	103.984	812.256	104.641
840.82	104.917	840.82	103.855	840.82	104.418
870.85	105.068	870.85	102.92	870.85	104.126
901.611	104.809	901.611	102.782	901.611	103.913
933.105	105.354	933.105	102.277	933.105	104.083
966.064	105.325	966.064	101.685	966.064	103.875
999.756	105.456	999.756	101.707	999.756	103.974
1,034.91	104.402	1,034.91	101.458	1,034.91	103.175
1,071.53	104.282	1,071.53	102.502	1,071.53	103.482
1,109.62	103.959	1,109.62	102.86	1,109.62	103.444
1,148.44	104.149	1,148.44	103.236	1,148.44	103.716
1,189.45	104.138	1,189.45	102.597	1,189.45	103.436
1,231.2	104.088	1,231.2	102.688	1,231.2	103.445
1,274.41	103.625	1,274.41	102.471	1,274.41	103.086
1,319.82	103.703	1,319.82	102.135	1,319.82	102.989
1,365.97	103.616	1,365.97	101.649	1,365.97	102.743
1,414.31	103.477	1,414.31	101.532	1,414.31	102.612
1,464.11	103.486	1,464.11	101.971	1,464.11	102.794
1,515.38	103.342	1,515.38	100.884	1,515.38	102.284
1,568.85	104.062	1,568.85	99.6893	1,568.85	102.404
1,624.51	103.448	1,624.51	96.9445	1,624.51	101.315
1,681.64	102.984	1,681.64	94.2019	1,681.64	100.514
1,740.97	103.367	1,740.97	89.431	1,740.97	100.529
1,802.49	102.407	1,802.49	86.2348	1,802.49	99.5002
1,866.21	102.412	1,866.21	90.7029	1,866.21	99.6853
1,932.13	102.659	1,932.13	94.1337	1,932.13	100.22
2,000.24	101.868	2,000.24	95.9873	2,000.24	99.8551
2,070.56	101.881	2,070.56	96.8663	2,070.56	100.061
2,143.8	102.349	2,143.8	97.1155	2,143.8	100.477
2,219.24	102.859	2,219.24	97.4043	2,219.24	100.937
2,297.61	102.483	2,297.61	97.9022	2,297.61	100.771
2,378.17	102.815	2,378.17	98.9011	2,378.17	101.285
2,462.4	102.981	2,462.4	99.2472	2,462.4	101.503
2,548.83	102.824	2,548.83	99.0628	2,548.83	101.339
2,638.92	102.797	2,638.92	100.293	2,638.92	101.723
2,731.93	102.883	2,731.93	100.716	2,731.93	101.934
2,828.61	103.042	2,828.61	101.13	2,828.61	102.191
2,928.22	103.217	2,928.22	100.836	2,928.22	102.187
3,031.49	103.336	3,031.49	100.625	3,031.49	102.189
3,138.43	103.712	3,138.43	100.127	3,138.43	102.279
3,249.02	104.04	3,249.02	99.0395	3,249.02	102.223
3,363.28	104.094	3,363.28	98.5246	3,363.28	102.147
3,481.93	103.917	3,481.93	98.1637	3,481.93	101.931
3,604.98	103.72	3,604.98	98.9013	3,604.98	101.947
3,732.42	103.538	3,732.42	99.344	3,732.42	101.929
3,863.53	103.049	3,863.53	99.8249	3,863.53	101.73
3,999.76	102.548	3,999.76	99.6053	3,999.76	101.321
4,141.11	102.429	4,141.11	99.2416	4,141.11	101.121
4,286.87	102.654	4,286.87	98.7104	4,286.87	101.115
4,438.48	102.716	4,438.48	98.1288	4,438.48	101.002
4,594.48	102.66	4,594.48	98.1258	4,594.48	100.959
4,757.08	103.1	4,757.08	97.9027	4,757.08	101.236
4,924.8	103.233	4,924.8	97.8146	4,924.8	101.319
5,098.39	102.951	5,098.39	97.1663	5,098.39	100.958
5,277.83	102.927	5,277.83	96.044	5,277.83	100.727
5,463.87	102.635	5,463.87	94.9698	5,463.87	100.311
5,656.49	102.342	5,656.49	94.9381	5,656.49	100.057
5,856.45	101.813	5,856.45	95.6249	5,856.45	99.739
6,062.99	101.618	6,062.99	95.5065	6,062.99	99.5588
6,276.86	101.734	6,276.86	95.161	6,276.86	99.5878
6,498.05	101.752	6,498.05	95.0108	6,498.05	99.576
6,727.29	101.94	6,727.29	95.4755	6,727.29	99.8134
6,964.6	102.042	6,964.6	96.5109	6,964.6	100.103
7,209.96	102.103	7,209.96	96.6689	7,209.96	100.185
7,464.11	101.996	7,464.11	96.7357	7,464.11	100.118
7,727.78	101.605	7,727.78	96.8468	7,727.78	99.8472
8,000.24	100.978	8,000.24	96.964	8,000.24	99.4189
8,282.23	100.394	8,282.23	97.3282	8,282.23	99.1261
8,574.46	100.602	8,574.46	96.8488	8,574.46	99.1191
8,876.22	101.129	8,876.22	96.4964	8,876.22	99.4028
9,189.7	101.386	9,189.7	95.9902	9,189.7	99.4775
9,513.43	101.042	9,513.43	96.311	9,513.43	99.2913
9,848.88	100.58	9,848.88	96.6474	9,848.88	99.0444
10,196.8	100.438	10,196.8	96.8766	10,196.8	99.0124
10,556.4	100.81	10,556.4	96.3598	10,556.4	99.1316
10,928.5	101.103	10,928.5	95.9138	10,928.5	99.241
11,313.7	101.356	11,313.7	96.0732	11,313.7	99.4724
11,712.9	101.427	11,712.9	95.7237	11,712.9	99.4509
12,126	101.33	12,126	96.1423	12,126	99.4686
12,553.7	101.942	12,553.7	97.1038	12,553.7	100.165
12,996.1	102.564	12,996.1	97.4088	12,996.1	100.711
13,454.6	102.878	13,454.6	98.3069	13,454.6	101.168
13,928.5	103.264	13,928.5	98.6453	13,928.5	101.542
14,419.9	103.591	14,419.9	98.89	14,419.9	101.848
14,928.2	103.542	14,928.2	98.9483	14,928.2	101.826
15,454.8	103.59	15,454.8	97.7577	15,454.8	101.587
15,999.8	103.295	15,999.8	96.4293	15,999.8	101.097
16,564.5	103.004	16,564.5	94.688	16,564.5	100.591
17,148.2	102.811	17,148.2	93.506	17,148.2	100.282
17,753.2	102.838	17,753.2	91.6503	17,753.2	100.146
18,379.4	102.906	18,379.4	91.3838	18,379.4	100.191
19,027.6	101.969	19,027.6	91.183	19,027.6	99.3064
19,698.5	100.272	19,698.5	89.8361	19,698.5	97.6382
19,999.5	99.1604	19,999.5	88.7757	19,999.5	96.5304
