"SPL Horizontal"																																																																							
"On-Axis"		"10°"		"-10°"		"20°"		"-20°"		"30°"		"-30°"		"40°"		"-40°"		"50°"		"-50°"		"60°"		"-60°"		"70°"		"-70°"		"80°"		"-80°"		"90°"		"-90°"		"100°"		"-100°"		"110°"		"-110°"		"120°"		"-120°"		"130°"		"-130°"		"140°"		"-140°"		"150°"		"-150°"		"160°"		"-160°"		"170°"		"-170°"		"180°"	
"Frequency [Hz]"	"Sound Pessure Level [dB]  / [2.83V 1m] "	"Frequency [Hz]"	"Sound Pessure Level [dB]  / [2.83V 1m] "	"Frequency [Hz]"	"Sound Pessure Level [dB]  / [2.83V 1m] "	"Frequency [Hz]"	"Sound Pessure Level [dB]  / [2.83V 1m] "	"Frequency [Hz]"	"Sound Pessure Level [dB]  / [2.83V 1m] "	"Frequency [Hz]"	"Sound Pessure Level [dB]  / [2.83V 1m] "	"Frequency [Hz]"	"Sound Pessure Level [dB]  / [2.83V 1m] "	"Frequency [Hz]"	"Sound Pessure Level [dB]  / [2.83V 1m] "	"Frequency [Hz]"	"Sound Pessure Level [dB]  / [2.83V 1m] "	"Frequency [Hz]"	"Sound Pessure Level [dB]  / [2.83V 1m] "	"Frequency [Hz]"	"Sound Pessure Level [dB]  / [2.83V 1m] "	"Frequency [Hz]"	"Sound Pessure Level [dB]  / [2.83V 1m] "	"Frequency [Hz]"	"Sound Pessure Level [dB]  / [2.83V 1m] "	"Frequency [Hz]"	"Sound Pessure Level [dB]  / [2.83V 1m] "	"Frequency [Hz]"	"Sound Pessure Level [dB]  / [2.83V 1m] "	"Frequency [Hz]"	"Sound Pessure Level [dB]  / [2.83V 1m] "	"Frequency [Hz]"	"Sound Pessure Level [dB]  / [2.83V 1m] "	"Frequency [Hz]"	"Sound Pessure Level [dB]  / [2.83V 1m] "	"Frequency [Hz]"	"Sound Pessure Level [dB]  / [2.83V 1m] "	"Frequency [Hz]"	"Sound Pessure Level [dB]  / [2.83V 1m] "	"Frequency [Hz]"	"Sound Pessure Level [dB]  / [2.83V 1m] "	"Frequency [Hz]"	"Sound Pessure Level [dB]  / [2.83V 1m] "	"Frequency [Hz]"	"Sound Pessure Level [dB]  / [2.83V 1m] "	"Frequency [Hz]"	"Sound Pessure Level [dB]  / [2.83V 1m] "	"Frequency [Hz]"	"Sound Pessure Level [dB]  / [2.83V 1m] "	"Frequency [Hz]"	"Sound Pessure Level [dB]  / [2.83V 1m] "	"Frequency [Hz]"	"Sound Pessure Level [dB]  / [2.83V 1m] "	"Frequency [Hz]"	"Sound Pessure Level [dB]  / [2.83V 1m] "	"Frequency [Hz]"	"Sound Pessure Level [dB]  / [2.83V 1m] "	"Frequency [Hz]"	"Sound Pessure Level [dB]  / [2.83V 1m] "	"Frequency [Hz]"	"Sound Pessure Level [dB]  / [2.83V 1m] "	"Frequency [Hz]"	"Sound Pessure Level [dB]  / [2.83V 1m] "	"Frequency [Hz]"	"Sound Pessure Level [dB]  / [2.83V 1m] "	"Frequency [Hz]"	"Sound Pessure Level [dB]  / [2.83V 1m] "	"Frequency [Hz]"	"Sound Pessure Level [dB]  / [2.83V 1m] "	"Frequency [Hz]"	"Sound Pessure Level [dB]  / [2.83V 1m] "
20.5078	74.4702	20.5078	74.6054	20.5078	74.3835	20.5078	74.7881	20.5078	74.3469	20.5078	75.0168	20.5078	74.3616	20.5078	75.2902	20.5078	74.4289	20.5078	75.6063	20.5078	74.5501	20.5078	75.9626	20.5078	74.7265	20.5078	76.3554	20.5078	74.9588	20.5078	76.7786	20.5078	75.2471	20.5078	77.2237	20.5078	75.5904	20.5078	77.6782	20.5078	75.9854	20.5078	78.126	20.5078	76.4261	20.5078	78.547	20.5078	76.902	20.5078	78.9191	20.5078	77.3978	20.5078	79.2196	20.5078	77.8933	20.5078	79.4282	20.5078	78.3642	20.5078	79.5288	20.5078	78.7844	20.5078	79.5119	20.5078	79.1289	20.5078	79.3763
21.9727	72.6276	21.9727	72.7782	21.9727	72.5306	21.9727	72.9811	21.9727	72.4882	21.9727	73.2348	21.9727	72.5011	21.9727	73.537	21.9727	72.5697	21.9727	73.8849	21.9727	72.6944	21.9727	74.2747	21.9727	72.8755	21.9727	74.7012	21.9727	73.1137	21.9727	75.157	21.9727	73.4094	21.9727	75.6322	21.9727	73.7627	21.9727	76.1134	21.9727	74.1725	21.9727	76.5839	21.9727	74.6345	21.9727	77.0232	21.9727	75.1396	21.9727	77.4089	21.9727	75.6721	21.9727	77.718	21.9727	76.2095	21.9727	77.9293	21.9727	76.7241	21.9727	78.026	21.9727	77.1858	21.9727	77.9976	21.9727	77.5662	21.9727	77.8421
23.4375	68.179	23.4375	68.1811	23.4375	68.203	23.4375	68.2109	23.4375	68.2509	23.4375	68.27	23.4375	68.3199	23.4375	68.3592	23.4375	68.4071	23.4375	68.4796	23.4375	68.509	23.4375	68.6314	23.4375	68.6221	23.4375	68.8148	23.4375	68.7434	23.4375	69.0291	23.4375	68.871	23.4375	69.2718	23.4375	69.0047	23.4375	69.5381	23.4375	69.1473	23.4375	69.8192	23.4375	69.3037	23.4375	70.1015	23.4375	69.4805	23.4375	70.3667	23.4375	69.6827	23.4375	70.5932	23.4375	69.9097	23.4375	70.7596	23.4375	70.1526	23.4375	70.8485	23.4375	70.393	23.4375	70.8501	23.4375	70.6058	23.4375	70.7652
24.9023	63.1347	24.9023	63.1066	24.9023	63.1607	24.9023	63.08	24.9023	63.1814	24.9023	63.0593	24.9023	63.1939	24.9023	63.0495	24.9023	63.1956	24.9023	63.0566	24.9023	63.1848	24.9023	63.0871	24.9023	63.1606	24.9023	63.1477	24.9023	63.1241	24.9023	63.2439	24.9023	63.0793	24.9023	63.3778	24.9023	63.0341	24.9023	63.5463	24.9023	63.0004	24.9023	63.7391	24.9023	62.9941	24.9023	63.9394	24.9023	63.0316	24.9023	64.1248	24.9023	63.1257	24.9023	64.2716	24.9023	63.2799	24.9023	64.3581	24.9023	63.4849	24.9023	64.3694	24.9023	63.7192	24.9023	64.2999	24.9023	63.9531	24.9023	64.1554
26.3672	58.5619	26.3672	59.1523	26.3672	58.1161	26.3672	59.892	26.3672	57.8117	26.3672	60.7763	26.3672	57.6595	26.3672	61.7853	26.3672	57.6922	26.3672	62.8871	26.3672	57.96	26.3672	64.0434	26.3672	58.5091	26.3672	65.216	26.3672	59.3515	26.3672	66.3695	26.3672	60.4492	26.3672	67.4731	26.3672	61.7273	26.3672	68.4991	26.3672	63.1012	26.3672	69.4226	26.3672	64.4969	26.3672	70.2206	26.3672	65.8567	26.3672	70.8718	26.3672	67.1376	26.3672	71.3575	26.3672	68.306	26.3672	71.6616	26.3672	69.3351	26.3672	71.772	26.3672	70.2026	26.3672	71.681	26.3672	70.8908	26.3672	71.3863
27.832	73.627	27.832	73.7025	27.832	73.5928	27.832	73.8254	27.832	73.5955	27.832	74.0031	27.832	73.633	27.832	74.2429	27.832	73.7057	27.832	74.5504	27.832	73.8164	27.832	74.9279	27.832	73.9697	27.832	75.3722	27.832	74.1716	27.832	75.8737	27.832	74.4286	27.832	76.4158	27.832	74.7463	27.832	76.9756	27.832	75.1278	27.832	77.5257	27.832	75.5715	27.832	78.0362	27.832	76.0695	27.832	78.4773	27.832	76.606	27.832	78.8221	27.832	77.158	27.832	79.0486	27.832	77.6961	27.832	79.142	27.832	78.1881	27.832	79.0955	27.832	78.6024	27.832	78.9117
29.2969	79.0516	29.2969	79.1381	29.2969	79.0023	29.2969	79.2649	29.2969	78.9881	29.2969	79.4355	29.2969	79.0079	29.2969	79.6533	29.2969	79.0618	29.2969	79.9207	29.2969	79.1509	29.2969	80.2384	29.2969	79.2776	29.2969	80.6042	29.2969	79.4448	29.2969	81.0116	29.2969	79.6558	29.2969	81.4493	29.2969	79.9138	29.2969	81.901	29.2969	80.2209	29.2969	82.3456	29.2969	80.5767	29.2969	82.7587	29.2969	80.9772	29.2969	83.1149	29.2969	81.4128	29.2969	83.39	29.2969	81.8676	29.2969	83.5642	29.2969	82.3195	29.2969	83.6239	29.2969	82.7416	29.2969	83.5636	29.2969	83.106	29.2969	83.3868
30.7617	81.2113	30.7617	81.299	30.7617	81.1583	30.7617	81.4232	30.7617	81.1387	30.7617	81.5862	30.7617	81.1519	30.7617	81.7901	30.7617	81.1983	30.7617	82.0366	30.7617	81.2789	30.7617	82.326	30.7617	81.3956	30.7617	82.6567	30.7617	81.5509	30.7617	83.0238	30.7617	81.7474	30.7617	83.4185	30.7617	81.9878	30.7617	83.8273	30.7617	82.2737	30.7617	84.2321	30.7617	82.6046	30.7617	84.6111	30.7617	82.9767	30.7617	84.9406	30.7617	83.3812	30.7617	85.1977	30.7617	83.8031	30.7617	85.3628	30.7617	84.222	30.7617	85.4222	30.7617	84.6131	30.7617	85.3699	30.7617	84.9501	30.7617	85.2087
32.2266	82.3757	32.2266	82.4607	32.2266	82.3231	32.2266	82.5788	32.2266	82.302	32.2266	82.7313	32.2266	82.3124	32.2266	82.9192	32.2266	82.3546	32.2266	83.1435	32.2266	82.4292	32.2266	83.4039	32.2266	82.5376	32.2266	83.6991	32.2266	82.6812	32.2266	84.0251	32.2266	82.8618	32.2266	84.3748	32.2266	83.0809	32.2266	84.737	32.2266	83.3395	32.2266	85.0962	32.2266	83.6368	32.2266	85.4333	32.2266	83.9693	32.2266	85.7272	32.2266	84.3295	32.2266	85.9569	32.2266	84.7051	32.2266	86.1043	32.2266	85.0784	32.2266	86.1566	32.2266	85.4277	32.2266	86.1085	32.2266	85.7298	32.2266	85.9626
33.6914	83.1719	33.6914	83.2433	33.6914	83.124	33.6914	83.3388	33.6914	83.0993	33.6914	83.4593	33.6914	83.0977	33.6914	83.6056	33.6914	83.1195	33.6914	83.7786	33.6914	83.1654	33.6914	83.9788	33.6914	83.2366	33.6914	84.2056	33.6914	83.3346	33.6914	84.457	33.6914	83.4613	33.6914	84.7282	33.6914	83.6187	33.6914	85.0111	33.6914	83.8084	33.6914	85.2937	33.6914	84.0312	33.6914	85.5601	33.6914	84.2857	33.6914	85.7924	33.6914	84.5675	33.6914	85.9721	33.6914	84.8677	33.6914	86.0831	33.6914	85.1727	33.6914	86.1142	33.6914	85.4643	33.6914	86.061	33.6914	85.7224	33.6914	85.9268
35.1563	85.6038	35.1563	85.6575	35.1563	85.5658	35.1563	85.7277	35.1563	85.5433	35.1563	85.8154	35.1563	85.5361	35.1563	85.9217	35.1563	85.5445	35.1563	86.048	35.1563	85.5693	35.1563	86.1958	35.1563	85.6115	35.1563	86.3658	35.1563	85.6726	35.1563	86.5578	35.1563	85.7546	35.1563	86.7693	35.1563	85.8602	35.1563	86.9948	35.1563	85.9917	35.1563	87.2246	35.1563	86.1517	35.1563	87.4451	35.1563	86.3414	35.1563	87.6396	35.1563	86.5593	35.1563	87.7901	35.1563	86.8003	35.1563	87.8809	35.1563	87.0539	35.1563	87.9008	35.1563	87.3046	35.1563	87.8456	35.1563	87.533	35.1563	87.7191
36.6211	89.719	36.6211	89.7736	36.6211	89.6805	36.6211	89.8447	36.6211	89.6577	36.6211	89.9333	36.6211	89.6507	36.6211	90.0406	36.6211	89.6597	36.6211	90.168	36.6211	89.6853	36.6211	90.3173	36.6211	89.7284	36.6211	90.49	36.6211	89.7903	36.6211	90.6865	36.6211	89.8728	36.6211	90.9053	36.6211	89.9782	36.6211	91.1416	36.6211	90.1093	36.6211	91.3859	36.6211	90.2688	36.6211	91.6236	36.6211	90.4591	36.6211	91.8358	36.6211	90.6804	36.6211	92.0018	36.6211	90.929	36.6211	92.1024	36.6211	91.1957	36.6211	92.1239	36.6211	91.4644	36.6211	92.0613	36.6211	91.7137	36.6211	91.9197
38.0859	93.1069	38.0859	93.1578	38.0859	93.0723	38.0859	93.2255	38.0859	93.054	38.0859	93.3107	38.0859	93.0518	38.0859	93.4142	38.0859	93.0659	38.0859	93.5371	38.0859	93.0966	38.0859	93.6809	38.0859	93.1444	38.0859	93.8469	38.0859	93.21	38.0859	94.0354	38.0859	93.2949	38.0859	94.2452	38.0859	93.4008	38.0859	94.472	38.0859	93.5299	38.0859	94.707	38.0859	93.6847	38.0859	94.9366	38.0859	93.8673	38.0859	95.1429	38.0859	94.078	38.0859	95.3059	38.0859	94.3136	38.0859	95.4068	38.0859	94.5655	38.0859	95.4323	38.0859	94.8189	38.0859	95.3772	38.0859	95.0533	38.0859	95.2462
39.5508	96.1424	39.5508	96.1949	39.5508	96.1068	39.5508	96.2641	39.5508	96.0879	39.5508	96.3503	39.5508	96.0858	39.5508	96.4538	39.5508	96.1004	39.5508	96.5751	39.5508	96.1319	39.5508	96.7149	39.5508	96.1801	39.5508	96.8736	39.5508	96.2455	39.5508	97.0513	39.5508	96.3284	39.5508	97.2465	39.5508	96.43	39.5508	97.4553	39.5508	96.5518	39.5508	97.6697	39.5508	96.6955	39.5508	97.8778	39.5508	96.863	39.5508	98.0633	39.5508	97.0551	39.5508	98.208	39.5508	97.2694	39.5508	98.2952	39.5508	97.4993	39.5508	98.3126	39.5508	97.732	39.5508	98.256	39.5508	97.9492	39.5508	98.1303
41.0156	98.7769	41.0156	98.8311	41.0156	98.7392	41.0156	98.9012	41.0156	98.718	41.0156	98.9872	41.0156	98.7136	41.0156	99.0885	41.0156	98.7257	41.0156	99.2052	41.0156	98.7544	41.0156	99.3372	41.0156	98.7994	41.0156	99.4844	41.0156	98.8604	41.0156	99.6463	41.0156	98.9375	41.0156	99.8215	41.0156	99.0312	41.0156	100.007	41.0156	99.1421	41.0156	100.195	41.0156	99.2717	41.0156	100.376	41.0156	99.4215	41.0156	100.536	41.0156	99.5923	41.0156	100.659	41.0156	99.7828	41.0156	100.729	41.0156	99.9878	41.0156	100.738	41.0156	100.197	41.0156	100.68	41.0156	100.394	41.0156	100.561
42.4805	100.952	42.4805	101.006	42.4805	100.913	42.4805	101.076	42.4805	100.891	42.4805	101.161	42.4805	100.886	42.4805	101.26	42.4805	100.898	42.4805	101.373	42.4805	100.926	42.4805	101.498	42.4805	100.969	42.4805	101.635	42.4805	101.029	42.4805	101.783	42.4805	101.102	42.4805	101.94	42.4805	101.19	42.4805	102.104	42.4805	101.293	42.4805	102.269	42.4805	101.411	42.4805	102.426	42.4805	101.545	42.4805	102.563	42.4805	101.697	42.4805	102.666	42.4805	101.865	42.4805	102.723	42.4805	102.046	42.4805	102.725	42.4805	102.231	42.4805	102.668	42.4805	102.407	42.4805	102.558
43.9453	102.735	43.9453	102.791	43.9453	102.694	43.9453	102.859	43.9453	102.667	43.9453	102.939	43.9453	102.654	43.9453	103.03	43.9453	102.657	43.9453	103.13	43.9453	102.675	43.9453	103.238	43.9453	102.706	43.9453	103.354	43.9453	102.751	43.9453	103.475	43.9453	102.809	43.9453	103.602	43.9453	102.878	43.9453	103.732	43.9453	102.959	43.9453	103.861	43.9453	103.053	43.9453	103.981	43.9453	103.161	43.9453	104.083	43.9453	103.283	43.9453	104.157	43.9453	103.42	43.9453	104.191	43.9453	103.57	43.9453	104.179	43.9453	103.727	43.9453	104.119	43.9453	103.88	43.9453	104.016
45.4102	104.02	45.4102	104.074	45.4102	103.98	45.4102	104.139	45.4102	103.953	45.4102	104.216	45.4102	103.941	45.4102	104.302	45.4102	103.944	45.4102	104.396	45.4102	103.96	45.4102	104.497	45.4102	103.989	45.4102	104.603	45.4102	104.031	45.4102	104.714	45.4102	104.085	45.4102	104.828	45.4102	104.149	45.4102	104.942	45.4102	104.224	45.4102	105.055	45.4102	104.309	45.4102	105.158	45.4102	104.405	45.4102	105.246	45.4102	104.514	45.4102	105.307	45.4102	104.635	45.4102	105.334	45.4102	104.768	45.4102	105.319	45.4102	104.908	45.4102	105.262	45.4102	105.045	45.4102	105.167
46.875	105.009	46.875	105.061	46.875	104.97	46.875	105.126	46.875	104.946	46.875	105.202	46.875	104.937	46.875	105.287	46.875	104.943	46.875	105.379	46.875	104.964	46.875	105.478	46.875	104.998	46.875	105.58	46.875	105.044	46.875	105.685	46.875	105.102	46.875	105.791	46.875	105.17	46.875	105.897	46.875	105.246	46.875	105.998	46.875	105.33	46.875	106.092	46.875	105.423	46.875	106.17	46.875	105.525	46.875	106.225	46.875	105.635	46.875	106.249	46.875	105.754	46.875	106.236	46.875	105.877	46.875	106.187	46.875	105.997	46.875	106.104
48.3398	105.788	48.3398	105.838	48.3398	105.751	48.3398	105.9	48.3398	105.729	48.3398	105.973	48.3398	105.721	48.3398	106.054	48.3398	105.729	48.3398	106.142	48.3398	105.75	48.3398	106.233	48.3398	105.785	48.3398	106.328	48.3398	105.832	48.3398	106.423	48.3398	105.889	48.3398	106.517	48.3398	105.954	48.3398	106.608	48.3398	106.026	48.3398	106.695	48.3398	106.104	48.3398	106.773	48.3398	106.187	48.3398	106.838	48.3398	106.276	48.3398	106.882	48.3398	106.371	48.3398	106.899	48.3398	106.471	48.3398	106.886	48.3398	106.575	48.3398	106.841	48.3398	106.677	48.3398	106.769
51.2695	106.789	51.2695	106.838	51.2695	106.752	51.2695	106.898	51.2695	106.729	51.2695	106.966	51.2695	106.721	51.2695	107.042	51.2695	106.727	51.2695	107.121	51.2695	106.748	51.2695	107.202	51.2695	106.781	51.2695	107.281	51.2695	106.826	51.2695	107.359	51.2695	106.88	51.2695	107.431	51.2695	106.941	51.2695	107.498	51.2695	107.006	51.2695	107.559	51.2695	107.074	51.2695	107.61	51.2695	107.143	51.2695	107.65	51.2695	107.214	51.2695	107.675	51.2695	107.285	51.2695	107.68	51.2695	107.358	51.2695	107.664	51.2695	107.432	51.2695	107.627	51.2695	107.505	51.2695	107.572
52.7344	107.093	52.7344	107.143	52.7344	107.055	52.7344	107.204	52.7344	107.03	52.7344	107.272	52.7344	107.02	52.7344	107.346	52.7344	107.024	52.7344	107.423	52.7344	107.042	52.7344	107.499	52.7344	107.073	52.7344	107.574	52.7344	107.115	52.7344	107.643	52.7344	107.166	52.7344	107.706	52.7344	107.223	52.7344	107.762	52.7344	107.284	52.7344	107.81	52.7344	107.347	52.7344	107.847	52.7344	107.409	52.7344	107.873	52.7344	107.47	52.7344	107.886	52.7344	107.531	52.7344	107.882	52.7344	107.593	52.7344	107.862	52.7344	107.655	52.7344	107.825	52.7344	107.716	52.7344	107.774
54.1992	107.347	54.1992	107.394	54.1992	107.311	54.1992	107.45	54.1992	107.287	54.1992	107.513	54.1992	107.276	54.1992	107.58	54.1992	107.279	54.1992	107.649	54.1992	107.295	54.1992	107.716	54.1992	107.322	54.1992	107.78	54.1992	107.359	54.1992	107.838	54.1992	107.405	54.1992	107.888	54.1992	107.455	54.1992	107.929	54.1992	107.508	54.1992	107.962	54.1992	107.56	54.1992	107.985	54.1992	107.611	54.1992	107.997	54.1992	107.659	54.1992	107.999	54.1992	107.705	54.1992	107.989	54.1992	107.751	54.1992	107.966	54.1992	107.797	54.1992	107.932	54.1992	107.844	54.1992	107.89
55.6641	107.566	55.6641	107.613	55.6641	107.53	55.6641	107.668	55.6641	107.506	55.6641	107.73	55.6641	107.495	55.6641	107.796	55.6641	107.497	55.6641	107.862	55.6641	107.513	55.6641	107.926	55.6641	107.54	55.6641	107.985	55.6641	107.577	55.6641	108.037	55.6641	107.623	55.6641	108.081	55.6641	107.673	55.6641	108.114	55.6641	107.724	55.6641	108.137	55.6641	107.775	55.6641	108.15	55.6641	107.822	55.6641	108.154	55.6641	107.864	55.6641	108.147	55.6641	107.902	55.6641	108.132	55.6641	107.937	55.6641	108.108	55.6641	107.972	55.6641	108.077	55.6641	108.007	55.6641	108.043
58.5938	108.014	58.5938	108.06	58.5938	107.978	58.5938	108.113	58.5938	107.952	58.5938	108.171	58.5938	107.938	58.5938	108.231	58.5938	107.937	58.5938	108.29	58.5938	107.947	58.5938	108.344	58.5938	107.969	58.5938	108.391	58.5938	107.999	58.5938	108.427	58.5938	108.036	58.5938	108.451	58.5938	108.076	58.5938	108.462	58.5938	108.115	58.5938	108.46	58.5938	108.151	58.5938	108.447	58.5938	108.181	58.5938	108.425	58.5938	108.204	58.5938	108.397	58.5938	108.219	58.5938	108.365	58.5938	108.231	58.5938	108.332	58.5938	108.241	58.5938	108.301	58.5938	108.255	58.5938	108.275
60.0586	108.124	60.0586	108.17	60.0586	108.088	60.0586	108.222	60.0586	108.063	60.0586	108.28	60.0586	108.05	60.0586	108.339	60.0586	108.05	60.0586	108.396	60.0586	108.061	60.0586	108.448	60.0586	108.084	60.0586	108.492	60.0586	108.115	60.0586	108.525	60.0586	108.153	60.0586	108.545	60.0586	108.194	60.0586	108.551	60.0586	108.235	60.0586	108.544	60.0586	108.271	60.0586	108.526	60.0586	108.3	60.0586	108.5	60.0586	108.321	60.0586	108.469	60.0586	108.333	60.0586	108.436	60.0586	108.338	60.0586	108.405	60.0586	108.342	60.0586	108.379	60.0586	108.347	60.0586	108.359
62.9883	108.221	62.9883	108.267	62.9883	108.184	62.9883	108.319	62.9883	108.158	62.9883	108.375	62.9883	108.144	62.9883	108.432	62.9883	108.143	62.9883	108.486	62.9883	108.153	62.9883	108.535	62.9883	108.176	62.9883	108.574	62.9883	108.207	62.9883	108.6	62.9883	108.246	62.9883	108.613	62.9883	108.287	62.9883	108.609	62.9883	108.328	62.9883	108.592	62.9883	108.364	62.9883	108.562	62.9883	108.391	62.9883	108.524	62.9883	108.407	62.9883	108.484	62.9883	108.411	62.9883	108.446	62.9883	108.406	62.9883	108.415	62.9883	108.396	62.9883	108.395	62.9883	108.388	62.9883	108.386
64.4531	108.243	64.4531	108.288	64.4531	108.207	64.4531	108.338	64.4531	108.181	64.4531	108.391	64.4531	108.166	64.4531	108.445	64.4531	108.163	64.4531	108.495	64.4531	108.172	64.4531	108.539	64.4531	108.193	64.4531	108.572	64.4531	108.222	64.4531	108.592	64.4531	108.259	64.4531	108.597	64.4531	108.298	64.4531	108.586	64.4531	108.337	64.4531	108.56	64.4531	108.37	64.4531	108.523	64.4531	108.393	64.4531	108.478	64.4531	108.404	64.4531	108.432	64.4531	108.401	64.4531	108.39	64.4531	108.388	64.4531	108.36	64.4531	108.369	64.4531	108.343	64.4531	108.351	64.4531	108.341
67.3828	108.36	67.3828	108.401	67.3828	108.324	67.3828	108.447	67.3828	108.296	67.3828	108.493	67.3828	108.278	67.3828	108.538	67.3828	108.27	67.3828	108.578	67.3828	108.272	67.3828	108.609	67.3828	108.285	67.3828	108.629	67.3828	108.307	67.3828	108.634	67.3828	108.335	67.3828	108.622	67.3828	108.367	67.3828	108.594	67.3828	108.396	67.3828	108.549	67.3828	108.42	67.3828	108.494	67.3828	108.433	67.3828	108.433	67.3828	108.432	67.3828	108.374	67.3828	108.417	67.3828	108.325	67.3828	108.388	67.3828	108.293	67.3828	108.352	67.3828	108.281	67.3828	108.317	67.3828	108.291
68.8477	108.465	68.8477	108.505	68.8477	108.429	68.8477	108.548	68.8477	108.401	68.8477	108.591	68.8477	108.381	68.8477	108.632	68.8477	108.37	68.8477	108.666	68.8477	108.369	68.8477	108.692	68.8477	108.378	68.8477	108.705	68.8477	108.395	68.8477	108.702	68.8477	108.418	68.8477	108.682	68.8477	108.443	68.8477	108.644	68.8477	108.466	68.8477	108.591	68.8477	108.483	68.8477	108.525	68.8477	108.489	68.8477	108.455	68.8477	108.48	68.8477	108.388	68.8477	108.456	68.8477	108.334	68.8477	108.419	68.8477	108.299	68.8477	108.375	68.8477	108.288	68.8477	108.332	68.8477	108.3
71.7773	108.725	71.7773	108.763	71.7773	108.692	71.7773	108.802	71.7773	108.665	71.7773	108.84	71.7773	108.646	71.7773	108.875	71.7773	108.636	71.7773	108.903	71.7773	108.635	71.7773	108.922	71.7773	108.644	71.7773	108.927	71.7773	108.661	71.7773	108.917	71.7773	108.683	71.7773	108.89	71.7773	108.709	71.7773	108.844	71.7773	108.732	71.7773	108.783	71.7773	108.748	71.7773	108.711	71.7773	108.752	71.7773	108.636	71.7773	108.74	71.7773	108.567	71.7773	108.71	71.7773	108.515	71.7773	108.665	71.7773	108.486	71.7773	108.61	71.7773	108.485	71.7773	108.555	71.7773	108.51
74.707	109.246	74.707	109.284	74.707	109.21	74.707	109.324	74.707	109.18	74.707	109.363	74.707	109.158	74.707	109.396	74.707	109.146	74.707	109.422	74.707	109.144	74.707	109.438	74.707	109.152	74.707	109.44	74.707	109.171	74.707	109.425	74.707	109.197	74.707	109.392	74.707	109.227	74.707	109.341	74.707	109.256	74.707	109.275	74.707	109.278	74.707	109.199	74.707	109.287	74.707	109.121	74.707	109.279	74.707	109.052	74.707	109.25	74.707	109.001	74.707	109.203	74.707	108.978	74.707	109.142	74.707	108.986	74.707	109.077	74.707	109.021
77.6367	110.04	77.6367	110.091	77.6367	109.99	77.6367	110.142	77.6367	109.944	77.6367	110.188	77.6367	109.905	77.6367	110.229	77.6367	109.874	77.6367	110.26	77.6367	109.854	77.6367	110.278	77.6367	109.846	77.6367	110.281	77.6367	109.848	77.6367	110.265	77.6367	109.861	77.6367	110.229	77.6367	109.881	77.6367	110.171	77.6367	109.904	77.6367	110.095	77.6367	109.922	77.6367	110.005	77.6367	109.932	77.6367	109.911	77.6367	109.926	77.6367	109.822	77.6367	109.902	77.6367	109.751	77.6367	109.862	77.6367	109.707	77.6367	109.81	77.6367	109.695	77.6367	109.757	77.6367	109.715
79.1016	110.397	79.1016	110.452	79.1016	110.342	79.1016	110.505	79.1016	110.29	79.1016	110.554	79.1016	110.244	79.1016	110.596	79.1016	110.205	79.1016	110.627	79.1016	110.176	79.1016	110.646	79.1016	110.159	79.1016	110.648	79.1016	110.153	79.1016	110.63	79.1016	110.158	79.1016	110.591	79.1016	110.172	79.1016	110.53	79.1016	110.19	79.1016	110.449	79.1016	110.206	79.1016	110.354	79.1016	110.214	79.1016	110.253	79.1016	110.21	79.1016	110.157	79.1016	110.189	79.1016	110.078	79.1016	110.152	79.1016	110.027	79.1016	110.105	79.1016	110.009	79.1016	110.057	79.1016	110.021
82.0313	110.577	82.0313	110.626	82.0313	110.526	82.0313	110.672	82.0313	110.476	82.0313	110.712	82.0313	110.429	82.0313	110.745	82.0313	110.387	82.0313	110.767	82.0313	110.351	82.0313	110.776	82.0313	110.324	82.0313	110.769	82.0313	110.307	82.0313	110.743	82.0313	110.298	82.0313	110.695	82.0313	110.296	82.0313	110.624	82.0313	110.297	82.0313	110.533	82.0313	110.297	82.0313	110.427	82.0313	110.29	82.0313	110.316	82.0313	110.271	82.0313	110.209	82.0313	110.239	82.0313	110.122	82.0313	110.193	82.0313	110.064	82.0313	110.139	82.0313	110.04	82.0313	110.088	82.0313	110.051
84.9609	109.848	84.9609	109.876	84.9609	109.819	84.9609	109.901	84.9609	109.79	84.9609	109.921	84.9609	109.764	84.9609	109.935	84.9609	109.741	84.9609	109.941	84.9609	109.723	84.9609	109.936	84.9609	109.713	84.9609	109.918	84.9609	109.709	84.9609	109.883	84.9609	109.712	84.9609	109.831	84.9609	109.718	84.9609	109.761	84.9609	109.724	84.9609	109.676	84.9609	109.724	84.9609	109.58	84.9609	109.714	84.9609	109.483	84.9609	109.686	84.9609	109.397	84.9609	109.64	84.9609	109.335	84.9609	109.576	84.9609	109.306	84.9609	109.5	84.9609	109.313	84.9609	109.422	84.9609	109.355
87.8906	108.936	87.8906	108.959	87.8906	108.913	87.8906	108.981	87.8906	108.892	87.8906	109	87.8906	108.876	87.8906	109.016	87.8906	108.866	87.8906	109.025	87.8906	108.863	87.8906	109.026	87.8906	108.87	87.8906	109.017	87.8906	108.887	87.8906	108.994	87.8906	108.912	87.8906	108.957	87.8906	108.942	87.8906	108.903	87.8906	108.972	87.8906	108.836	87.8906	108.996	87.8906	108.76	87.8906	109.006	87.8906	108.685	87.8906	108.997	87.8906	108.622	87.8906	108.964	87.8906	108.583	87.8906	108.907	87.8906	108.577	87.8906	108.831	87.8906	108.606	87.8906	108.746	87.8906	108.666
90.8203	108.024	90.8203	108.063	90.8203	107.984	90.8203	108.1	90.8203	107.948	90.8203	108.133	90.8203	107.919	90.8203	108.161	90.8203	107.901	90.8203	108.182	90.8203	107.9	90.8203	108.196	90.8203	107.92	90.8203	108.201	90.8203	107.962	90.8203	108.197	90.8203	108.027	90.8203	108.183	90.8203	108.11	90.8203	108.159	90.8203	108.205	90.8203	108.13	90.8203	108.301	90.8203	108.101	90.8203	108.387	90.8203	108.079	90.8203	108.452	90.8203	108.074	90.8203	108.486	90.8203	108.094	90.8203	108.484	90.8203	108.141	90.8203	108.446	90.8203	108.211	90.8203	108.379	90.8203	108.296
95.2148	107.99	95.2148	108.05	95.2148	107.921	95.2148	108.099	95.2148	107.845	95.2148	108.136	95.2148	107.766	95.2148	108.157	95.2148	107.687	95.2148	108.163	95.2148	107.613	95.2148	108.151	95.2148	107.549	95.2148	108.118	95.2148	107.498	95.2148	108.062	95.2148	107.462	95.2148	107.981	95.2148	107.44	95.2148	107.876	95.2148	107.43	95.2148	107.75	95.2148	107.425	95.2148	107.609	95.2148	107.419	95.2148	107.466	95.2148	107.403	95.2148	107.335	95.2148	107.374	95.2148	107.231	95.2148	107.328	95.2148	107.166	95.2148	107.27	95.2148	107.145	95.2148	107.211	95.2148	107.164
98.1445	107.733	98.1445	107.775	98.1445	107.677	98.1445	107.803	98.1445	107.611	98.1445	107.817	98.1445	107.536	98.1445	107.816	98.1445	107.457	98.1445	107.801	98.1445	107.38	98.1445	107.77	98.1445	107.31	98.1445	107.723	98.1445	107.253	98.1445	107.659	98.1445	107.211	98.1445	107.578	98.1445	107.188	98.1445	107.48	98.1445	107.181	98.1445	107.369	98.1445	107.185	98.1445	107.251	98.1445	107.192	98.1445	107.138	98.1445	107.193	98.1445	107.043	98.1445	107.182	98.1445	106.976	98.1445	107.152	98.1445	106.947	98.1445	107.105	98.1445	106.955	98.1445	107.048	98.1445	106.993
101.074	107.682	101.074	107.721	101.074	107.63	101.074	107.745	101.074	107.566	101.074	107.754	101.074	107.494	101.074	107.748	101.074	107.418	101.074	107.727	101.074	107.343	101.074	107.691	101.074	107.275	101.074	107.638	101.074	107.221	101.074	107.569	101.074	107.183	101.074	107.483	101.074	107.165	101.074	107.381	101.074	107.163	101.074	107.269	101.074	107.174	101.074	107.154	101.074	107.188	101.074	107.047	101.074	107.196	101.074	106.962	101.074	107.188	101.074	106.91	101.074	107.159	101.074	106.897	101.074	107.109	101.074	106.923	101.074	107.044	101.074	106.977
105.469	107.72	105.469	107.755	105.469	107.666	105.469	107.771	105.469	107.595	105.469	107.767	105.469	107.511	105.469	107.743	105.469	107.417	105.469	107.702	105.469	107.32	105.469	107.643	105.469	107.228	105.469	107.567	105.469	107.147	105.469	107.473	105.469	107.083	105.469	107.363	105.469	107.039	105.469	107.239	105.469	107.015	105.469	107.106	105.469	107.006	105.469	106.974	105.469	107.006	105.469	106.853	105.469	107.003	105.469	106.759	105.469	106.988	105.469	106.702	105.469	106.955	105.469	106.688	105.469	106.903	105.469	106.713	105.469	106.837	105.469	106.768
108.398	108.056	108.398	108.085	108.398	108.003	108.398	108.091	108.398	107.93	108.398	108.075	108.398	107.838	108.398	108.036	108.398	107.734	108.398	107.976	108.398	107.623	108.398	107.896	108.398	107.513	108.398	107.797	108.398	107.412	108.398	107.68	108.398	107.325	108.398	107.545	108.398	107.258	108.398	107.396	108.398	107.21	108.398	107.24	108.398	107.18	108.398	107.085	108.398	107.159	108.398	106.946	108.398	107.138	108.398	106.838	108.398	107.108	108.398	106.772	108.398	107.061	108.398	106.754	108.398	106.996	108.398	106.781	108.398	106.919	108.398	106.842
112.793	108.78	112.793	108.8	112.793	108.736	112.793	108.795	112.793	108.67	112.793	108.766	112.793	108.584	112.793	108.715	112.793	108.483	112.793	108.643	112.793	108.372	112.793	108.552	112.793	108.26	112.793	108.442	112.793	108.153	112.793	108.315	112.793	108.057	112.793	108.172	112.793	107.978	112.793	108.016	112.793	107.917	112.793	107.855	112.793	107.87	112.793	107.698	112.793	107.832	112.793	107.557	112.793	107.794	112.793	107.447	112.793	107.748	112.793	107.38	112.793	107.687	112.793	107.362	112.793	107.613	112.793	107.388	112.793	107.53	112.793	107.449
117.188	110.588	117.188	110.605	117.188	110.545	117.188	110.595	117.188	110.477	117.188	110.56	117.188	110.388	117.188	110.5	117.188	110.283	117.188	110.418	117.188	110.169	117.188	110.315	117.188	110.053	117.188	110.192	117.188	109.943	117.188	110.053	117.188	109.848	117.188	109.9	117.188	109.773	117.188	109.739	117.188	109.719	117.188	109.577	117.188	109.683	117.188	109.426	117.188	109.658	117.188	109.299	117.188	109.633	117.188	109.21	117.188	109.6	117.188	109.169	117.188	109.55	117.188	109.177	117.188	109.48	117.188	109.227	117.188	109.395	117.188	109.305
120.117	111.847	120.117	111.866	120.117	111.802	120.117	111.857	120.117	111.732	120.117	111.822	120.117	111.641	120.117	111.761	120.117	111.533	120.117	111.677	120.117	111.417	120.117	111.57	120.117	111.3	120.117	111.444	120.117	111.191	120.117	111.3	120.117	111.097	120.117	111.141	120.117	111.024	120.117	110.974	120.117	110.972	120.117	110.808	120.117	110.94	120.117	110.655	120.117	110.919	120.117	110.529	120.117	110.899	120.117	110.445	120.117	110.87	120.117	110.411	120.117	110.822	120.117	110.428	120.117	110.754	120.117	110.488	120.117	110.667	120.117	110.573
124.512	110.63	124.512	110.662	124.512	110.57	124.512	110.663	124.512	110.481	124.512	110.635	124.512	110.37	124.512	110.579	124.512	110.24	124.512	110.498	124.512	110.102	124.512	110.394	124.512	109.965	124.512	110.268	124.512	109.84	124.512	110.123	124.512	109.735	124.512	109.963	124.512	109.658	124.512	109.794	124.512	109.611	124.512	109.626	124.512	109.591	124.512	109.471	124.512	109.587	124.512	109.344	124.512	109.589	124.512	109.26	124.512	109.583	124.512	109.225	124.512	109.559	124.512	109.239	124.512	109.513	124.512	109.292	124.512	109.445	124.512	109.367
128.906	109.845	128.906	109.872	128.906	109.784	128.906	109.864	128.906	109.69	128.906	109.824	128.906	109.566	128.906	109.753	128.906	109.419	128.906	109.653	128.906	109.256	128.906	109.527	128.906	109.088	128.906	109.377	128.906	108.927	128.906	109.206	128.906	108.783	128.906	109.017	128.906	108.666	128.906	108.817	128.906	108.582	128.906	108.618	128.906	108.53	128.906	108.434	128.906	108.502	128.906	108.282	128.906	108.486	128.906	108.178	128.906	108.471	128.906	108.13	128.906	108.443	128.906	108.136	128.906	108.396	128.906	108.184	128.906	108.331	128.906	108.255
133.301	109.664	133.301	109.691	133.301	109.604	133.301	109.686	133.301	109.511	133.301	109.65	133.301	109.389	133.301	109.586	133.301	109.243	133.301	109.497	133.301	109.082	133.301	109.385	133.301	108.915	133.301	109.253	133.301	108.754	133.301	109.104	133.301	108.61	133.301	108.94	133.301	108.493	133.301	108.767	133.301	108.409	133.301	108.593	133.301	108.358	133.301	108.43	133.301	108.333	133.301	108.292	133.301	108.324	133.301	108.191	133.301	108.318	133.301	108.136	133.301	108.306	133.301	108.125	133.301	108.28	133.301	108.148	133.301	108.24	133.301	108.192
139.16	109.799	139.16	109.812	139.16	109.746	139.16	109.787	139.16	109.653	139.16	109.725	139.16	109.526	139.16	109.633	139.16	109.37	139.16	109.513	139.16	109.194	139.16	109.373	139.16	109.012	139.16	109.218	139.16	108.838	139.16	109.053	139.16	108.687	139.16	108.886	139.16	108.57	139.16	108.725	139.16	108.496	139.16	108.581	139.16	108.465	139.16	108.466	139.16	108.47	139.16	108.391	139.16	108.499	139.16	108.36	139.16	108.536	139.16	108.371	139.16	108.566	139.16	108.414	139.16	108.577	139.16	108.47	139.16	108.563	139.16	108.525
143.555	109.988	143.555	109.991	143.555	109.94	143.555	109.948	143.555	109.846	143.555	109.865	143.555	109.71	143.555	109.746	143.555	109.54	143.555	109.596	143.555	109.345	143.555	109.423	143.555	109.139	143.555	109.234	143.555	108.937	143.555	109.037	143.555	108.757	143.555	108.842	143.555	108.613	143.555	108.659	143.555	108.517	143.555	108.504	143.555	108.47	143.555	108.389	143.555	108.467	143.555	108.324	143.555	108.495	143.555	108.313	143.555	108.537	143.555	108.348	143.555	108.575	143.555	108.412	143.555	108.594	143.555	108.485	143.555	108.586	143.555	108.547
147.949	110.222	147.949	110.22	147.949	110.172	147.949	110.166	147.949	110.07	147.949	110.064	147.949	109.921	147.949	109.919	147.949	109.73	147.949	109.735	147.949	109.509	147.949	109.521	147.949	109.271	147.949	109.283	147.949	109.034	147.949	109.033	147.949	108.816	147.949	108.782	147.949	108.636	147.949	108.548	147.949	108.507	147.949	108.349	147.949	108.434	147.949	108.206	147.949	108.414	147.949	108.133	147.949	108.433	147.949	108.131	147.949	108.472	147.949	108.188	147.949	108.509	147.949	108.281	147.949	108.527	147.949	108.381	147.949	108.514	147.949	108.463
153.809	110.402	153.809	110.401	153.809	110.345	153.809	110.343	153.809	110.231	153.809	110.232	153.809	110.062	153.809	110.073	153.809	109.844	153.809	109.87	153.809	109.586	153.809	109.63	153.809	109.302	153.809	109.359	153.809	109.009	153.809	109.067	153.809	108.725	153.809	108.765	153.809	108.474	153.809	108.469	153.809	108.271	153.809	108.199	153.809	108.13	153.809	107.982	153.809	108.051	153.809	107.836	153.809	108.024	153.809	107.772	153.809	108.03	153.809	107.782	153.809	108.048	153.809	107.842	153.809	108.056	153.809	107.922	153.809	108.04	153.809	107.993
159.668	110.315	159.668	110.309	159.668	110.263	159.668	110.249	159.668	110.155	159.668	110.136	159.668	109.993	159.668	109.975	159.668	109.783	159.668	109.773	159.668	109.534	159.668	109.537	159.668	109.258	159.668	109.273	159.668	108.97	159.668	108.993	159.668	108.69	159.668	108.707	159.668	108.436	159.668	108.433	159.668	108.227	159.668	108.19	159.668	108.076	159.668	108	159.668	107.987	159.668	107.879	159.668	107.954	159.668	107.831	159.668	107.961	159.668	107.845	159.668	107.989	159.668	107.896	159.668	108.015	159.668	107.957	159.668	108.024	159.668	108.004
165.527	109.883	165.527	109.874	165.527	109.833	165.527	109.808	165.527	109.725	165.527	109.688	165.527	109.562	165.527	109.52	165.527	109.35	165.527	109.309	165.527	109.098	165.527	109.063	165.527	108.821	165.527	108.791	165.527	108.534	165.527	108.504	165.527	108.258	165.527	108.219	165.527	108.014	165.527	107.955	165.527	107.821	165.527	107.735	165.527	107.695	165.527	107.584	165.527	107.637	165.527	107.514	165.527	107.641	165.527	107.523	165.527	107.688	165.527	107.592	165.527	107.754	165.527	107.688	165.527	107.813	165.527	107.776	165.527	107.844	165.527	107.832
171.387	108.939	171.387	108.922	171.387	108.895	171.387	108.846	171.387	108.79	171.387	108.713	171.387	108.627	171.387	108.53	171.387	108.413	171.387	108.303	171.387	108.156	171.387	108.04	171.387	107.869	171.387	107.753	171.387	107.568	171.387	107.453	171.387	107.275	171.387	107.159	171.387	107.012	171.387	106.893	171.387	106.799	171.387	106.682	171.387	106.655	171.387	106.548	171.387	106.587	171.387	106.505	171.387	106.591	171.387	106.544	171.387	106.65	171.387	106.639	171.387	106.737	171.387	106.75	171.387	106.823	171.387	106.842	171.387	106.879	171.387	106.888
177.246	107.056	177.246	107.042	177.246	107.004	177.246	106.962	177.246	106.886	177.246	106.819	177.246	106.708	177.246	106.619	177.246	106.478	177.246	106.37	177.246	106.207	177.246	106.079	177.246	105.911	177.246	105.761	177.246	105.61	177.246	105.432	177.246	105.326	177.246	105.115	177.246	105.084	177.246	104.838	177.246	104.904	177.246	104.636	177.246	104.8	177.246	104.534	177.246	104.775	177.246	104.543	177.246	104.819	177.246	104.647	177.246	104.911	177.246	104.806	177.246	105.022	177.246	104.973	177.246	105.122	177.246	105.106	177.246	105.18	177.246	105.178
183.105	103.621	183.105	103.614	183.105	103.553	183.105	103.533	183.105	103.411	183.105	103.382	183.105	103.199	183.105	103.165	183.105	102.924	183.105	102.89	183.105	102.597	183.105	102.564	183.105	102.238	183.105	102.199	183.105	101.867	183.105	101.81	183.105	101.515	183.105	101.425	183.105	101.213	183.105	101.079	183.105	100.992	183.105	100.819	183.105	100.875	183.105	100.688	183.105	100.866	183.105	100.703	183.105	100.952	183.105	100.844	183.105	101.101	183.105	101.056	183.105	101.273	183.105	101.274	183.105	101.423	183.105	101.442	183.105	101.516	183.105	101.526
188.965	102.634	188.965	102.622	188.965	102.568	188.965	102.534	188.965	102.422	188.965	102.375	188.965	102.198	188.965	102.151	188.965	101.9	188.965	101.867	188.965	101.539	188.965	101.531	188.965	101.13	188.965	101.15	188.965	100.693	188.965	100.736	188.965	100.258	188.965	100.31	188.965	99.8605	188.965	99.9049	188.965	99.5394	188.965	99.5674	188.965	99.3272	188.965	99.3484	188.965	99.2415	188.965	99.2804	188.965	99.2766	188.965	99.3552	188.965	99.4034	188.965	99.5215	188.965	99.5768	188.965	99.7072	188.965	99.7465	188.965	99.8484	188.965	99.8669	188.965	99.9054
196.289	106.584	196.289	106.543	196.289	106.546	196.289	106.428	196.289	106.429	196.289	106.243	196.289	106.234	196.289	105.996	196.289	105.963	196.289	105.694	196.289	105.626	196.289	105.347	196.289	105.233	196.289	104.966	196.289	104.802	196.289	104.565	196.289	104.356	196.289	104.168	196.289	103.929	196.289	103.807	196.289	103.559	196.289	103.525	196.289	103.285	196.289	103.362	196.289	103.138	196.289	103.336	196.289	103.127	196.289	103.428	196.289	103.23	196.289	103.585	196.289	103.405	196.289	103.739	196.289	103.598	196.289	103.835	196.289	103.757	196.289	103.843
203.613	108.161	203.613	108.113	203.613	108.121	203.613	107.98	203.613	107.994	203.613	107.766	203.613	107.782	203.613	107.479	203.613	107.491	203.613	107.124	203.613	107.131	203.613	106.712	203.613	106.716	203.613	106.255	203.613	106.266	203.613	105.773	203.613	105.809	203.613	105.294	203.613	105.379	203.613	104.867	203.613	105.018	203.613	104.553	203.613	104.765	203.613	104.411	203.613	104.647	203.613	104.461	203.613	104.668	203.613	104.665	203.613	104.803	203.613	104.942	203.613	105.002	203.613	105.2	203.613	105.209	203.613	105.374	203.613	105.366	203.613	105.429
210.938	109.699	210.938	109.664	210.938	109.647	210.938	109.544	210.938	109.507	210.938	109.342	210.938	109.284	210.938	109.062	210.938	108.983	210.938	108.711	210.938	108.614	210.938	108.294	210.938	108.189	210.938	107.818	210.938	107.725	210.938	107.296	210.938	107.247	210.938	106.753	210.938	106.784	210.938	106.233	210.938	106.377	210.938	105.805	210.938	106.069	210.938	105.552	210.938	105.896	210.938	105.523	210.938	105.874	210.938	105.698	210.938	105.985	210.938	105.989	210.938	106.178	210.938	106.285	210.938	106.385	210.938	106.499	210.938	106.538	210.938	106.585
218.262	109.297	218.262	109.258	218.262	109.244	218.262	109.129	218.262	109.098	218.262	108.916	218.262	108.862	218.262	108.627	218.262	108.545	218.262	108.27	218.262	108.157	218.262	107.855	218.262	107.714	218.262	107.391	218.262	107.241	218.262	106.897	218.262	106.767	218.262	106.397	218.262	106.328	218.262	105.935	218.262	105.964	218.262	105.572	218.262	105.713	218.262	105.372	218.262	105.598	218.262	105.37	218.262	105.62	218.262	105.542	218.262	105.752	218.262	105.809	218.262	105.945	218.262	106.075	218.262	106.143	218.262	106.264	218.262	106.289	218.262	106.337
225.586	108.842	225.586	108.817	225.586	108.763	225.586	108.689	225.586	108.578	225.586	108.464	225.586	108.29	225.586	108.147	225.586	107.903	225.586	107.744	225.586	107.429	225.586	107.263	225.586	106.885	225.586	106.713	225.586	106.296	225.586	106.114	225.586	105.704	225.586	105.502	225.586	105.165	225.586	104.943	225.586	104.751	225.586	104.536	225.586	104.529	225.586	104.382	225.586	104.534	225.586	104.519	225.586	104.744	225.586	104.882	225.586	105.089	225.586	105.335	225.586	105.477	225.586	105.745	225.586	105.821	225.586	106.024	225.586	106.054	225.586	106.129
232.91	109.002	232.91	108.948	232.91	108.953	232.91	108.798	232.91	108.798	232.91	108.556	232.91	108.536	232.91	108.231	232.91	108.165	232.91	107.827	232.91	107.689	232.91	107.35	232.91	107.114	232.91	106.802	232.91	106.452	232.91	106.192	232.91	105.725	232.91	105.541	232.91	104.976	232.91	104.898	232.91	104.283	232.91	104.356	232.91	103.755	232.91	104.039	232.91	103.506	232.91	104.032	232.91	103.591	232.91	104.308	232.91	103.95	232.91	104.729	232.91	104.443	232.91	105.129	232.91	104.923	232.91	105.388	232.91	105.278	232.91	105.442
241.699	108.479	241.699	108.399	241.699	108.46	241.699	108.225	241.699	108.342	241.699	107.961	241.699	108.127	241.699	107.618	241.699	107.819	241.699	107.202	241.699	107.425	241.699	106.721	241.699	106.953	241.699	106.182	241.699	106.412	241.699	105.596	241.699	105.813	241.699	104.984	241.699	105.178	241.699	104.396	241.699	104.544	241.699	103.919	241.699	103.975	241.699	103.666	241.699	103.567	241.699	103.709	241.699	103.417	241.699	104.011	241.699	103.559	241.699	104.429	241.699	103.927	241.699	104.802	241.699	104.38	241.699	105.011	241.699	104.773	241.699	105.001
250.488	108.705	250.488	108.64	250.488	108.653	250.488	108.461	250.488	108.483	250.488	108.173	250.488	108.198	250.488	107.781	250.488	107.803	250.488	107.292	250.488	107.308	250.488	106.711	250.488	106.729	250.488	106.045	250.488	106.085	250.488	105.305	250.488	105.404	250.488	104.52	250.488	104.722	250.488	103.755	250.488	104.089	250.488	103.125	250.488	103.57	250.488	102.775	250.488	103.235	250.488	102.797	250.488	103.137	250.488	103.136	250.488	103.275	250.488	103.615	250.488	103.582	250.488	104.052	250.488	103.944	250.488	104.327	250.488	104.244	250.488	104.389
259.277	109.031	259.277	108.968	259.277	108.99	259.277	108.804	259.277	108.844	259.277	108.545	259.277	108.59	259.277	108.194	259.277	108.23	259.277	107.752	259.277	107.766	259.277	107.218	259.277	107.204	259.277	106.59	259.277	106.551	259.277	105.871	259.277	105.826	259.277	105.08	259.277	105.058	259.277	104.275	259.277	104.306	259.277	103.58	259.277	103.661	259.277	103.165	259.277	103.244	259.277	103.153	259.277	103.146	259.277	103.493	259.277	103.366	259.277	103.993	259.277	103.789	259.277	104.45	259.277	104.253	259.277	104.736	259.277	104.618	259.277	104.793
268.066	108.386	268.066	108.285	268.066	108.385	268.066	108.088	268.066	108.277	268.066	107.804	268.066	108.061	268.066	107.443	268.066	107.736	268.066	107.011	268.066	107.304	268.066	106.51	268.066	106.766	268.066	105.933	268.066	106.126	268.066	105.275	268.066	105.389	268.066	104.541	268.066	104.575	268.066	103.779	268.066	103.728	268.066	103.114	268.066	102.946	268.066	102.752	268.066	102.396	268.066	102.851	268.066	102.26	268.066	103.351	268.066	102.594	268.066	104	268.066	103.242	268.066	104.552	268.066	103.956	268.066	104.856	268.066	104.532	268.066	104.85
276.855	108.759	276.855	108.722	276.855	108.686	276.855	108.569	276.855	108.514	276.855	108.301	276.855	108.255	276.855	107.919	276.855	107.921	276.855	107.429	276.855	107.521	276.855	106.835	276.855	107.059	276.855	106.14	276.855	106.535	276.855	105.346	276.855	105.948	276.855	104.465	276.855	105.299	276.855	103.542	276.855	104.607	276.855	102.691	276.855	103.913	276.855	102.113	276.855	103.296	276.855	102.004	276.855	102.874	276.855	102.355	276.855	102.75	276.855	102.932	276.855	102.931	276.855	103.467	276.855	103.292	276.855	103.793	276.855	103.649	276.855	103.846
287.109	109.055	287.109	109.008	287.109	108.979	287.109	108.844	287.109	108.778	287.109	108.572	287.109	108.46	287.109	108.202	287.109	108.039	287.109	107.743	287.109	107.535	287.109	107.194	287.109	106.967	287.109	106.553	287.109	106.351	287.109	105.814	287.109	105.698	287.109	104.985	287.109	105.016	287.109	104.114	287.109	104.327	287.109	103.321	287.109	103.683	287.109	102.806	287.109	103.19	287.109	102.754	287.109	102.981	287.109	103.144	287.109	103.128	287.109	103.749	287.109	103.558	287.109	104.31	287.109	104.084	287.109	104.662	287.109	104.518	287.109	104.731
297.363	109.831	297.363	109.709	297.363	109.815	297.363	109.467	297.363	109.652	297.363	109.126	297.363	109.339	297.363	108.71	297.363	108.886	297.363	108.235	297.363	108.311	297.363	107.709	297.363	107.641	297.363	107.124	297.363	106.911	297.363	106.461	297.363	106.151	297.363	105.7	297.363	105.379	297.363	104.852	297.363	104.606	297.363	104.006	297.363	103.848	297.363	103.372	297.363	103.176	297.363	103.206	297.363	102.745	297.363	103.563	297.363	102.742	297.363	104.188	297.363	103.199	297.363	104.754	297.363	103.906	297.363	105.049	297.363	104.571	297.363	104.985
307.617	110.291	307.617	110.174	307.617	110.285	307.617	109.939	307.617	110.154	307.617	109.598	307.617	109.9	307.617	109.167	307.617	109.527	307.617	108.667	307.617	109.045	307.617	108.115	307.617	108.465	307.617	107.527	307.617	107.81	307.617	106.91	307.617	107.11	307.617	106.27	307.617	106.404	307.617	105.632	307.617	105.744	307.617	105.058	307.617	105.182	307.617	104.663	307.617	104.767	307.617	104.562	307.617	104.542	307.617	104.767	307.617	104.533	307.617	105.142	307.617	104.729	307.617	105.494	307.617	105.06	307.617	105.681	307.617	105.408	307.617	105.644
319.336	111.928	319.336	111.845	319.336	111.863	319.336	111.618	319.336	111.652	319.336	111.251	319.336	111.295	319.336	110.749	319.336	110.799	319.336	110.114	319.336	110.169	319.336	109.345	319.336	109.417	319.336	108.442	319.336	108.559	319.336	107.418	319.336	107.629	319.336	106.33	319.336	106.69	319.336	105.339	319.336	105.862	319.336	104.744	319.336	105.316	319.336	104.828	319.336	105.209	319.336	105.536	319.336	105.562	319.336	106.508	319.336	106.229	319.336	107.416	319.336	107.001	319.336	108.084	319.336	107.704	319.336	108.443	319.336	108.222	319.336	108.483
329.59	112.62	329.59	112.535	329.59	112.59	329.59	112.343	329.59	112.443	329.59	112.054	329.59	112.179	329.59	111.675	329.59	111.803	329.59	111.206	329.59	111.316	329.59	110.633	329.59	110.715	329.59	109.925	329.59	109.988	329.59	109.035	329.59	109.122	329.59	107.921	329.59	108.104	329.59	106.592	329.59	106.955	329.59	105.247	329.59	105.793	329.59	104.46	329.59	104.937	329.59	104.832	329.59	104.825	329.59	106.057	329.59	105.552	329.59	107.374	329.59	106.69	329.59	108.361	329.59	107.78	329.59	108.894	329.59	108.57	329.59	108.957
341.309	110.443	341.309	110.342	341.309	110.403	341.309	110.11	341.309	110.224	341.309	109.775	341.309	109.924	341.309	109.371	341.309	109.53	341.309	108.931	341.309	109.069	341.309	108.47	341.309	108.562	341.309	107.976	341.309	108.014	341.309	107.409	341.309	107.415	341.309	106.716	341.309	106.742	341.309	105.87	341.309	105.988	341.309	104.947	341.309	105.197	341.309	104.239	341.309	104.532	341.309	104.21	341.309	104.288	341.309	104.981	341.309	104.684	341.309	106.096	341.309	105.573	341.309	107.06	341.309	106.563	341.309	107.625	341.309	107.334	341.309	107.713
353.027	110.426	353.027	110.276	353.027	110.394	353.027	109.954	353.027	110.179	353.027	109.477	353.027	109.789	353.027	108.869	353.027	109.237	353.027	108.154	353.027	108.544	353.027	107.35	353.027	107.728	353.027	106.463	353.027	106.808	353.027	105.484	353.027	105.796	353.027	104.404	353.027	104.703	353.027	103.269	353.027	103.562	353.027	102.295	353.027	102.501	353.027	101.948	353.027	101.835	353.027	102.576	353.027	101.978	353.027	103.861	353.027	102.963	353.027	105.203	353.027	104.318	353.027	106.235	353.027	105.568	353.027	106.812	353.027	106.46	353.027	106.886
366.211	110.57	366.211	110.414	366.211	110.529	366.211	110.072	366.211	110.291	366.211	109.565	366.211	109.867	366.211	108.925	366.211	109.279	366.211	108.186	366.211	108.564	366.211	107.375	366.211	107.761	366.211	106.501	366.211	106.912	366.211	105.537	366.211	106.032	366.211	104.434	366.211	105.102	366.211	103.142	366.211	104.055	366.211	101.724	366.211	102.813	366.211	100.6	366.211	101.39	366.211	100.579	366.211	100.178	366.211	101.781	366.211	100.12	366.211	103.326	366.211	101.455	366.211	104.538	366.211	103.158	366.211	105.171	366.211	104.469	366.211	105.153
379.395	109.975	379.395	109.849	379.395	109.963	379.395	109.593	379.395	109.813	379.395	109.224	379.395	109.531	379.395	108.758	379.395	109.127	379.395	108.211	379.395	108.606	379.395	107.58	379.395	107.97	379.395	106.843	379.395	107.21	379.395	105.952	379.395	106.31	379.395	104.835	379.395	105.249	379.395	103.427	379.395	104.016	379.395	101.76	379.395	102.641	379.395	100.253	379.395	101.296	379.395	99.9282	379.395	100.434	379.395	101.088	379.395	100.588	379.395	102.664	379.395	101.644	379.395	103.876	379.395	102.938	379.395	104.502	379.395	103.97	379.395	104.521
392.578	108.822	392.578	108.676	392.578	108.781	392.578	108.359	392.578	108.563	392.578	107.907	392.578	108.196	392.578	107.374	392.578	107.726	392.578	106.823	392.578	107.205	392.578	106.302	392.578	106.681	392.578	105.818	392.578	106.173	392.578	105.327	392.578	105.662	392.578	104.74	392.578	105.098	392.578	103.959	392.578	104.411	392.578	102.929	392.578	103.543	392.578	101.779	392.578	102.502	392.578	101.036	392.578	101.495	392.578	101.374	392.578	101.045	392.578	102.548	392.578	101.585	392.578	103.719	392.578	102.745	392.578	104.394	392.578	103.828	392.578	104.427
405.762	109.228	405.762	109.039	405.762	109.176	405.762	108.625	405.762	108.886	405.762	108.021	405.762	108.379	405.762	107.283	405.762	107.696	405.762	106.477	405.762	106.895	405.762	105.669	405.762	106.05	405.762	104.891	405.762	105.229	405.762	104.133	405.762	104.47	405.762	103.344	405.762	103.767	405.762	102.492	405.762	103.076	405.762	101.655	405.762	102.38	405.762	101.148	405.762	101.769	405.762	101.421	405.762	101.522	405.762	102.483	405.762	101.949	405.762	103.801	405.762	102.976	405.762	104.885	405.762	104.158	405.762	105.499	405.762	105.091	405.762	105.566
420.41	109.806	420.41	109.618	420.41	109.758	420.41	109.204	420.41	109.479	420.41	108.59	420.41	108.984	420.41	107.814	420.41	108.3	420.41	106.927	420.41	107.468	420.41	105.986	420.41	106.535	420.41	105.035	420.41	105.548	420.41	104.078	420.41	104.534	420.41	103.062	420.41	103.485	420.41	101.907	420.41	102.356	420.41	100.63	420.41	101.114	420.41	99.6481	420.41	99.9119	420.41	99.9001	420.41	99.39	420.41	101.495	420.41	100.27	420.41	103.367	420.41	102.072	420.41	104.801	420.41	103.83	420.41	105.581	420.41	105.075	420.41	105.67
435.059	109.419	435.059	109.191	435.059	109.39	435.059	108.717	435.059	109.113	435.059	108.029	435.059	108.615	435.059	107.192	435.059	107.939	435.059	106.291	435.059	107.134	435.059	105.414	435.059	106.253	435.059	104.605	435.059	105.334	435.059	103.828	435.059	104.388	435.059	102.976	435.059	103.397	435.059	101.94	435.059	102.323	435.059	100.741	435.059	101.16	435.059	99.8172	435.059	100.067	435.059	100.079	435.059	99.5752	435.059	101.615	435.059	100.296	435.059	103.417	435.059	101.93	435.059	104.791	435.059	103.633	435.059	105.517	435.059	104.902	435.059	105.55
451.172	110.303	451.172	110.096	451.172	110.232	451.172	109.615	451.172	109.887	451.172	108.882	451.172	109.292	451.172	107.937	451.172	108.483	451.172	106.839	451.172	107.51	451.172	105.659	451.172	106.44	451.172	104.458	451.172	105.328	451.172	103.233	451.172	104.195	451.172	101.878	451.172	102.989	451.172	100.167	451.172	101.552	451.172	97.8224	451.172	99.611	451.172	95.2281	451.172	96.836	451.172	95.7792	451.172	94.0447	451.172	99.3974	451.172	95.9171	451.172	102.502	451.172	99.9872	451.172	104.518	451.172	102.981	451.172	105.538	451.172	104.809	451.172	105.635
465.82	109.685	465.82	109.489	465.82	109.614	465.82	109.039	465.82	109.283	465.82	108.362	465.82	108.713	465.82	107.508	465.82	107.944	465.82	106.547	465.82	107.036	465.82	105.57	465.82	106.064	465.82	104.659	465.82	105.104	465.82	103.84	465.82	104.2	465.82	103.033	465.82	103.335	465.82	102.049	465.82	102.41	465.82	100.63	465.82	101.254	465.82	98.5413	465.82	99.6564	465.82	96.1259	465.82	97.4827	465.82	95.8755	465.82	95.4256	465.82	98.3395	465.82	95.975	465.82	100.579	465.82	98.552	465.82	101.724	465.82	100.677	465.82	101.749
483.398	110.742	483.398	110.51	483.398	110.673	483.398	109.988	483.398	110.308	483.398	109.209	483.398	109.672	483.398	108.224	483.398	108.815	483.398	107.116	483.398	107.818	483.398	105.995	483.398	106.785	483.398	104.97	483.398	105.808	483.398	104.077	483.398	104.919	483.398	103.228	483.398	104.056	483.398	102.209	483.398	103.065	483.398	100.747	483.398	101.736	483.398	98.7095	483.398	99.8563	483.398	97.1236	483.398	97.5994	483.398	98.6058	483.398	97.0316	483.398	101.585	483.398	99.5889	483.398	103.845	483.398	102.436	483.398	105.039	483.398	104.336	483.398	105.196
499.512	111.106	499.512	110.904	499.512	110.998	499.512	110.401	499.512	110.582	499.512	109.613	499.512	109.872	499.512	108.577	499.512	108.899	499.512	107.355	499.512	107.727	499.512	106.057	499.512	106.473	499.512	104.84	499.512	105.309	499.512	103.855	499.512	104.401	499.512	103.118	499.512	103.784	499.512	102.443	499.512	103.293	499.512	101.51	499.512	102.631	499.512	100.01	499.512	101.483	499.512	98.0031	499.512	99.6064	499.512	97.2462	499.512	97.4032	499.512	99.3561	499.512	97.4418	499.512	101.803	499.512	100.044	499.512	103.189	499.512	102.289	499.512	103.353
517.09	111.644	517.09	111.438	517.09	111.497	517.09	110.892	517.09	111.001	517.09	110.028	517.09	110.174	517.09	108.881	517.09	109.07	517.09	107.514	517.09	107.791	517.09	106.037	517.09	106.507	517.09	104.643	517.09	105.416	517.09	103.583	517.09	104.619	517.09	102.991	517.09	104.01	517.09	102.668	517.09	103.319	517.09	102.176	517.09	102.228	517.09	101.073	517.09	100.429	517.09	99.2615	517.09	97.9273	517.09	98.4345	517.09	97.0404	517.09	100.804	517.09	100.007	517.09	103.647	517.09	103.153	517.09	105.362	517.09	105.105	517.09	105.834
536.133	111.831	536.133	111.539	536.133	111.785	536.133	110.925	536.133	111.389	536.133	110.012	536.133	110.637	536.133	108.827	536.133	109.526	536.133	107.394	536.133	108.06	536.133	105.734	536.133	106.271	536.133	103.858	536.133	104.279	536.133	101.812	536.133	102.435	536.133	99.8388	536.133	101.315	536.133	98.6402	536.133	101.084	536.133	98.8211	536.133	101.11	536.133	99.7812	536.133	100.661	536.133	100.675	536.133	99.2967	536.133	101.329	536.133	97.3129	536.133	102.042	536.133	97.4832	536.133	102.973	536.133	100.352	536.133	103.736	536.133	102.703	536.133	103.775
555.176	110.63	555.176	110.355	555.176	110.601	555.176	109.79	555.176	110.262	555.176	108.962	555.176	109.612	555.176	107.907	555.176	108.656	555.176	106.675	555.176	107.407	555.176	105.321	555.176	105.898	555.176	103.879	555.176	104.215	555.176	102.338	555.176	102.555	555.176	100.608	555.176	101.231	555.176	98.5296	555.176	100.433	555.176	96.0067	555.176	99.9003	555.176	93.8556	555.176	99.0568	555.176	94.6514	555.176	97.3684	555.176	97.5519	555.176	95.0298	555.176	100.17	555.176	95.38	555.176	101.959	555.176	98.7475	555.176	102.833	555.176	101.386	555.176	102.694
574.219	110.387	574.219	110.062	574.219	110.346	574.219	109.38	574.219	109.946	574.219	108.372	574.219	109.207	574.219	107.1	574.219	108.158	574.219	105.663	574.219	106.832	574.219	104.199	574.219	105.277	574.219	102.856	574.219	103.571	574.219	101.709	574.219	101.863	574.219	100.67	574.219	100.401	574.219	99.4535	574.219	99.39	574.219	97.6149	574.219	98.6699	574.219	94.6666	574.219	97.6827	574.219	92.4354	574.219	95.8464	574.219	96.2495	574.219	93.9703	574.219	100.467	574.219	96.3211	574.219	103.091	574.219	100.324	574.219	104.328	574.219	103.021	574.219	104.311
594.727	110.752	594.727	110.429	594.727	110.731	594.727	109.774	594.727	110.362	594.727	108.814	594.727	109.657	594.727	107.587	594.727	108.632	594.727	106.143	594.727	107.316	594.727	104.548	594.727	105.752	594.727	102.883	594.727	104.014	594.727	101.272	594.727	102.253	594.727	99.9034	594.727	100.723	594.727	98.9446	594.727	99.6589	594.727	98.2936	594.727	98.9526	594.727	97.4937	594.727	98.0735	594.727	96.1897	594.727	96.3491	594.727	95.4924	594.727	93.6869	594.727	97.6446	594.727	94.1654	594.727	100.543	594.727	98.2879	594.727	102.269	594.727	101.243	594.727	102.524
615.234	110.825	615.234	110.526	615.234	110.774	615.234	109.877	615.234	110.388	615.234	108.895	615.234	109.685	615.234	107.625	615.234	108.686	615.234	106.145	615.234	107.402	615.234	104.573	615.234	105.839	615.234	103.034	615.234	104.005	615.234	101.598	615.234	101.949	615.234	100.187	615.234	99.8813	615.234	98.5894	615.234	98.2856	615.234	96.5662	615.234	97.5436	615.234	94.23	615.234	97.2106	615.234	93.36	615.234	96.4789	615.234	95.7813	615.234	95.314	615.234	99.0066	615.234	95.9013	615.234	101.443	615.234	98.9141	615.234	102.755	615.234	101.534	615.234	102.819
637.207	110.827	637.207	110.569	637.207	110.709	637.207	109.932	637.207	110.232	637.207	108.93	637.207	109.429	637.207	107.595	637.207	108.344	637.207	105.978	637.207	107.024	637.207	104.175	637.207	105.519	637.207	102.363	637.207	103.879	637.207	100.801	637.207	102.164	637.207	99.6383	637.207	100.47	637.207	98.6089	637.207	98.9258	637.207	96.9675	637.207	97.5606	637.207	93.402	637.207	95.9986	637.207	87.412	637.207	93.3019	637.207	94.6823	637.207	89.8725	637.207	100.352	637.207	94.5327	637.207	103.35	637.207	99.8852	637.207	104.648	637.207	103.04	637.207	104.543
659.18	110.305	659.18	109.999	659.18	110.234	659.18	109.33	659.18	109.793	659.18	108.323	659.18	109.004	659.18	107.022	659.18	107.909	659.18	105.478	659.18	106.571	659.18	103.74	659.18	105.075	659.18	101.855	659.18	103.518	659.18	99.9145	659.18	101.993	659.18	98.221	659.18	100.587	659.18	97.3035	659.18	99.3721	659.18	97.1357	659.18	98.3402	659.18	96.682	659.18	97.2138	659.18	94.5867	659.18	95.2797	659.18	89.873	659.18	91.356	659.18	93.1803	659.18	89.5895	659.18	98.7935	659.18	96.0626	659.18	101.383	659.18	100.092	659.18	101.749
682.617	109.444	682.617	109.131	682.617	109.349	682.617	108.424	682.617	108.853	682.617	107.354	682.617	107.979	682.617	105.976	682.617	106.769	682.617	104.368	682.617	105.281	682.617	102.633	682.617	103.578	682.617	100.881	682.617	101.74	682.617	99.1756	682.617	99.8963	682.617	97.4687	682.617	98.3312	682.617	95.6401	682.617	97.4455	682.617	93.7379	682.617	97.1924	682.617	92.3621	682.617	96.8149	682.617	92.4021	682.617	95.3705	682.617	94.1036	682.617	92.0766	682.617	96.8912	682.617	90.9824	682.617	99.5183	682.617	96.197	682.617	101.095	682.617	99.754	682.617	101.254
707.52	109.98	707.52	109.648	707.52	109.852	707.52	108.878	707.52	109.275	707.52	107.719	707.52	108.304	707.52	106.243	707.52	107.034	707.52	104.531	707.52	105.592	707.52	102.668	707.52	104.101	707.52	100.76	707.52	102.614	707.52	99.0083	707.52	101.1	707.52	97.7428	707.52	99.4937	707.52	97.0403	707.52	97.8101	707.52	96.1941	707.52	96.1325	707.52	93.7511	707.52	94.1814	707.52	85.1487	707.52	90.3919	707.52	88.7913	707.52	76.5273	707.52	98.1078	707.52	92.1203	707.52	102.179	707.52	99.0498	707.52	103.974	707.52	102.545	707.52	104.074
732.422	108.842	732.422	108.47	732.422	108.745	732.422	107.668	732.422	108.185	732.422	106.522	732.422	107.209	732.422	105.156	732.422	105.906	732.422	103.703	732.422	104.39	732.422	102.259	732.422	102.777	732.422	100.838	732.422	101.158	732.422	99.3596	732.422	99.5864	732.422	97.7143	732.422	98.1081	732.422	95.9012	732.422	96.8352	732.422	94.1486	732.422	95.9488	732.422	92.4919	732.422	95.3437	732.422	89.563	732.422	94.1926	732.422	81.0846	732.422	90.6398	732.422	90.1251	732.422	81.8801	732.422	96.9343	732.422	93.0247	732.422	99.8923	732.422	98.4164	732.422	100.364
757.324	110.307	757.324	110.004	757.324	110.195	757.324	109.301	757.324	109.677	757.324	108.233	757.324	108.777	757.324	106.851	757.324	107.539	757.324	105.21	757.324	106.02	757.324	103.362	757.324	104.298	757.324	101.378	757.324	102.49	757.324	99.4195	757.324	100.755	757.324	97.8085	757.324	99.2721	757.324	96.8304	757.324	98.1926	757.324	96.2137	757.324	97.5258	757.324	95.043	757.324	96.921	757.324	91.8615	757.324	95.4893	757.324	86.658	757.324	91.3932	757.324	94.0991	757.324	84.8255	757.324	99.4277	757.324	95.1375	757.324	101.82	757.324	100.094	757.324	102.041
785.156	113.21	785.156	112.896	785.156	113.005	785.156	112.072	785.156	112.322	785.156	110.805	785.156	111.244	785.156	109.222	785.156	109.874	785.156	107.503	785.156	108.318	785.156	105.836	785.156	106.663	785.156	104.336	785.156	104.972	785.156	102.968	785.156	103.29	785.156	101.626	785.156	101.686	785.156	100.439	785.156	100.308	785.156	99.8478	785.156	99.4037	785.156	99.5903	785.156	98.9853	785.156	98.1202	785.156	98.2572	785.156	93.4766	785.156	95.2894	785.156	96.4106	785.156	78.543	785.156	102.878	785.156	96.5408	785.156	105.663	785.156	103.206	785.156	105.761
811.523	111.663	811.523	111.291	811.523	111.521	811.523	110.442	811.523	110.874	811.523	109.194	811.523	109.783	811.523	107.636	811.523	108.344	811.523	105.853	811.523	106.678	811.523	103.936	811.523	104.915	811.523	102.027	811.523	103.19	811.523	100.313	811.523	101.634	811.523	98.9081	811.523	100.351	811.523	97.8773	811.523	99.4088	811.523	97.5441	811.523	98.7767	811.523	98.042	811.523	98.1951	811.523	98.2356	811.523	97.0398	811.523	96.2997	811.523	94.0485	811.523	88.0631	811.523	84.9382	811.523	90.0868	811.523	90.3245	811.523	97.6699	811.523	97.2753	811.523	99.2602
840.82	111.637	840.82	111.247	840.82	111.487	840.82	110.346	840.82	110.801	840.82	108.997	840.82	109.623	840.82	107.304	840.82	108.056	840.82	105.421	840.82	106.268	840.82	103.541	840.82	104.464	840.82	101.85	840.82	102.793	840.82	100.378	840.82	101.289	840.82	98.8334	840.82	99.9506	840.82	96.9033	840.82	98.8755	840.82	95.6204	840.82	98.2344	840.82	96.6885	840.82	97.8811	840.82	97.5483	840.82	97.0307	840.82	95.3502	840.82	94.1459	840.82	83.9043	840.82	82.8479	840.82	94.2149	840.82	91.6219	840.82	99.8886	840.82	98.7511	840.82	100.965
870.117	111.631	870.117	111.306	870.117	111.423	870.117	110.488	870.117	110.699	870.117	109.249	870.117	109.565	870.117	107.663	870.117	108.198	870.117	105.803	870.117	106.77	870.117	103.801	870.117	105.316	870.117	101.944	870.117	103.672	870.117	100.591	870.117	101.569	870.117	99.5466	870.117	99.0058	870.117	97.9055	870.117	97.298	870.117	95.074	870.117	97.9729	870.117	94.4682	870.117	99.0268	870.117	97.4396	870.117	98.6357	870.117	98.288	870.117	95.7269	870.117	95.0432	870.117	87.3927	870.117	79.6802	870.117	88.7187	870.117	92.4812	870.117	95.0976	870.117	96.1913
900.879	111.868	900.879	111.548	900.879	111.671	900.879	110.792	900.879	110.936	900.879	109.728	900.879	109.728	900.879	108.487	900.879	108.2	900.879	107.114	900.879	106.554	900.879	105.514	900.879	104.979	900.879	103.571	900.879	103.569	900.879	101.374	900.879	102.19	900.879	99.3342	900.879	100.487	900.879	97.6102	900.879	98.1993	900.879	95.4282	900.879	96.3995	900.879	92.8783	900.879	97.5205	900.879	94.0403	900.879	98.9525	900.879	95.9715	900.879	97.7002	900.879	95.4575	900.879	89.5055	900.879	96.0381	900.879	92.3167	900.879	99.8598	900.879	100.021	900.879	101.639
933.105	111.907	933.105	111.486	933.105	111.956	933.105	110.786	933.105	111.57	933.105	109.878	933.105	110.731	933.105	108.759	933.105	109.442	933.105	107.342	933.105	107.718	933.105	105.559	933.105	105.664	933.105	103.538	933.105	103.611	933.105	101.808	933.105	102	933.105	100.914	933.105	100.734	933.105	100.222	933.105	98.9542	933.105	98.2141	933.105	96.1856	933.105	93.0636	933.105	96.3731	933.105	88.7469	933.105	99.424	933.105	93.0576	933.105	99.9793	933.105	92.5901	933.105	95.6802	933.105	95.8315	933.105	89.1787	933.105	101.256	933.105	100.241	933.105	102.852
965.332	112.134	965.332	111.752	965.332	112.055	965.332	110.994	965.332	111.522	965.332	110.012	965.332	110.594	965.332	108.909	965.332	109.308	965.332	107.638	965.332	107.672	965.332	106.04	965.332	105.732	965.332	104.03	965.332	103.676	965.332	101.884	965.332	101.906	965.332	100.482	965.332	100.875	965.332	100.19	965.332	100.144	965.332	99.6354	965.332	98.3491	965.332	97.2589	965.332	95.0484	965.332	92.6744	965.332	95.5158	965.332	91.7315	965.332	97.9254	965.332	92.4055	965.332	96.4159	965.332	96.0203	965.332	80.4895	965.332	100.496	965.332	96.1878	965.332	101.058
1,000.49	111.898	1,000.49	111.416	1,000.49	111.82	1,000.49	110.52	1,000.49	111.157	1,000.49	109.398	1,000.49	110.017	1,000.49	108.168	1,000.49	108.587	1,000.49	106.835	1,000.49	107.071	1,000.49	105.325	1,000.49	105.589	1,000.49	103.559	1,000.49	104.052	1,000.49	101.641	1,000.49	102.314	1,000.49	100.148	1,000.49	100.608	1,000.49	99.4298	1,000.49	99.2849	1,000.49	98.4078	1,000.49	97.7581	1,000.49	96.0144	1,000.49	95.0791	1,000.49	94.134	1,000.49	92.2545	1,000.49	93.8738	1,000.49	92.888	1,000.49	87.9308	1,000.49	91.606	1,000.49	94.9237	1,000.49	79.77	1,000.49	101.2	1,000.49	97.3749	1,000.49	101.829
1,035.64	111.783	1,035.64	111.32	1,035.64	111.571	1,035.64	110.368	1,035.64	110.665	1,035.64	109.185	1,035.64	109.278	1,035.64	107.995	1,035.64	107.809	1,035.64	106.867	1,035.64	106.595	1,035.64	105.646	1,035.64	105.574	1,035.64	104.018	1,035.64	104.34	1,035.64	101.808	1,035.64	102.516	1,035.64	99.6906	1,035.64	100.063	1,035.64	98.9718	1,035.64	97.4691	1,035.64	98.3836	1,035.64	95.4088	1,035.64	95.3486	1,035.64	93.8741	1,035.64	90.3236	1,035.64	93.1551	1,035.64	93.9271	1,035.64	93.866	1,035.64	92.5177	1,035.64	92.77	1,035.64	85.6375	1,035.64	80.0507	1,035.64	97.817	1,035.64	94.7009	1,035.64	99.4938
1,072.27	110.7	1,072.27	110.274	1,072.27	110.505	1,072.27	109.368	1,072.27	109.762	1,072.27	108.248	1,072.27	108.74	1,072.27	107.116	1,072.27	107.702	1,072.27	105.984	1,072.27	106.639	1,072.27	104.673	1,072.27	105.276	1,072.27	102.915	1,072.27	103.371	1,072.27	100.575	1,072.27	101.008	1,072.27	98.1974	1,072.27	98.7589	1,072.27	97.2401	1,072.27	97.3331	1,072.27	97.2177	1,072.27	96.4914	1,072.27	95.6777	1,072.27	95.1581	1,072.27	91.4297	1,072.27	93.6495	1,072.27	91.4854	1,072.27	93.7543	1,072.27	92.3222	1,072.27	92.2692	1,072.27	90.277	1,072.27	78.1207	1,072.27	95.4099	1,072.27	92.5715	1,072.27	97.0705
1,108.89	110.196	1,108.89	109.721	1,108.89	110.089	1,108.89	108.837	1,108.89	109.444	1,108.89	107.799	1,108.89	108.507	1,108.89	106.759	1,108.89	107.48	1,108.89	105.679	1,108.89	106.317	1,108.89	104.378	1,108.89	104.841	1,108.89	102.641	1,108.89	102.974	1,108.89	100.384	1,108.89	100.855	1,108.89	98.0795	1,108.89	98.8593	1,108.89	97.2556	1,108.89	97.7419	1,108.89	97.3906	1,108.89	97.3984	1,108.89	95.587	1,108.89	95.8898	1,108.89	90.6175	1,108.89	92.1564	1,108.89	92.0127	1,108.89	91.4562	1,108.89	93.0876	1,108.89	92.0482	1,108.89	91.1504	1,108.89	82.6796	1,108.89	95.9004	1,108.89	91.6021	1,108.89	97.1218
1,148.44	109.941	1,148.44	109.605	1,148.44	109.856	1,148.44	108.885	1,148.44	109.398	1,148.44	107.854	1,148.44	108.622	1,148.44	106.584	1,148.44	107.519	1,148.44	105.177	1,148.44	106.124	1,148.44	103.726	1,148.44	104.615	1,148.44	102.142	1,148.44	103.125	1,148.44	100.14	1,148.44	101.422	1,148.44	97.6525	1,148.44	99.1214	1,148.44	96.1212	1,148.44	96.7987	1,148.44	96.0349	1,148.44	95.9458	1,148.44	93.8936	1,148.44	95.2357	1,148.44	86.6108	1,148.44	92.5963	1,148.44	90.4506	1,148.44	89.9665	1,148.44	92.0494	1,148.44	90.6803	1,148.44	91.7768	1,148.44	84.6743	1,148.44	96.914	1,148.44	91.6502	1,148.44	97.5417
1,189.45	110.05	1,189.45	109.743	1,189.45	109.949	1,189.45	109.002	1,189.45	109.492	1,189.45	107.858	1,189.45	108.687	1,189.45	106.408	1,189.45	107.512	1,189.45	104.858	1,189.45	106.089	1,189.45	103.396	1,189.45	104.684	1,189.45	101.856	1,189.45	103.286	1,189.45	99.7323	1,189.45	101.353	1,189.45	96.9879	1,189.45	98.3396	1,189.45	95.806	1,189.45	95.0338	1,189.45	96.4364	1,189.45	94.8998	1,189.45	94.8531	1,189.45	96.0864	1,189.45	87.2211	1,189.45	94.8687	1,189.45	90.397	1,189.45	91.4758	1,189.45	92.846	1,189.45	90.0013	1,189.45	90.4281	1,189.45	86.423	1,189.45	96.088	1,189.45	93.7769	1,189.45	97.8121
1,230.47	110.163	1,230.47	110.021	1,230.47	109.975	1,230.47	109.404	1,230.47	109.588	1,230.47	108.264	1,230.47	108.971	1,230.47	106.664	1,230.47	108.029	1,230.47	104.908	1,230.47	106.759	1,230.47	103.49	1,230.47	105.23	1,230.47	102.36	1,230.47	103.538	1,230.47	100.739	1,230.47	101.663	1,230.47	97.9836	1,230.47	99.4704	1,230.47	95.2487	1,230.47	96.8058	1,230.47	95.5554	1,230.47	94.7603	1,230.47	95.3239	1,230.47	94.6067	1,230.47	90.3455	1,230.47	93.1329	1,230.47	88.1989	1,230.47	91.1081	1,230.47	92.3314	1,230.47	90.8884	1,230.47	91.4669	1,230.47	84.4459	1,230.47	96.4823	1,230.47	94.4734	1,230.47	98.5001
1,274.41	110.052	1,274.41	109.945	1,274.41	109.879	1,274.41	109.505	1,274.41	109.474	1,274.41	108.649	1,274.41	108.839	1,274.41	107.244	1,274.41	107.865	1,274.41	105.278	1,274.41	106.323	1,274.41	103.13	1,274.41	104.193	1,274.41	101.391	1,274.41	102.081	1,274.41	99.9499	1,274.41	100.654	1,274.41	97.9812	1,274.41	99.32	1,274.41	95.4541	1,274.41	96.9851	1,274.41	94.8991	1,274.41	94.9318	1,274.41	94.6203	1,274.41	94.7812	1,274.41	89.2692	1,274.41	93.0831	1,274.41	88.3767	1,274.41	90.2822	1,274.41	92.8376	1,274.41	91.7236	1,274.41	92.6563	1,274.41	85.0659	1,274.41	97.2596	1,274.41	92.7689	1,274.41	98.5013
1,319.82	109.918	1,319.82	109.762	1,319.82	109.802	1,319.82	109.368	1,319.82	109.405	1,319.82	108.581	1,319.82	108.744	1,319.82	107.123	1,319.82	107.618	1,319.82	104.966	1,319.82	105.741	1,319.82	102.583	1,319.82	103.361	1,319.82	100.754	1,319.82	101.431	1,319.82	99.5763	1,319.82	100.292	1,319.82	98.0513	1,319.82	98.8047	1,319.82	95.1925	1,319.82	95.8327	1,319.82	92.8268	1,319.82	92.2761	1,319.82	93.1968	1,319.82	92.4216	1,319.82	90.3098	1,319.82	92.7147	1,319.82	84.4817	1,319.82	90.3789	1,319.82	90.5984	1,319.82	90.2686	1,319.82	88.8014	1,319.82	86.6782	1,319.82	94.3761	1,319.82	92.3489	1,319.82	96.9205
1,366.7	109.744	1,366.7	109.556	1,366.7	109.578	1,366.7	108.965	1,366.7	109.126	1,366.7	107.84	1,366.7	108.333	1,366.7	106.082	1,366.7	106.949	1,366.7	103.854	1,366.7	104.95	1,366.7	101.514	1,366.7	102.733	1,366.7	99.3882	1,366.7	100.529	1,366.7	97.7993	1,366.7	98.562	1,366.7	96.9202	1,366.7	96.9574	1,366.7	96.1565	1,366.7	95.7244	1,366.7	94.3685	1,366.7	94.8089	1,366.7	91.5483	1,366.7	93.6493	1,366.7	89.6876	1,366.7	89.947	1,366.7	87.2257	1,366.7	84.217	1,366.7	90.0261	1,366.7	86.2865	1,366.7	90.6378	1,366.7	86.1803	1,366.7	94.0079	1,366.7	93.8922	1,366.7	96.6827
1,413.57	109.487	1,413.57	109.135	1,413.57	109.439	1,413.57	108.427	1,413.57	108.837	1,413.57	107.204	1,413.57	107.704	1,413.57	105.374	1,413.57	106.294	1,413.57	103.097	1,413.57	104.796	1,413.57	100.768	1,413.57	102.878	1,413.57	98.4758	1,413.57	100.096	1,413.57	95.8258	1,413.57	97.3186	1,413.57	94.2305	1,413.57	96.0671	1,413.57	95.6479	1,413.57	94.9414	1,413.57	96.1745	1,413.57	92.6178	1,413.57	93.394	1,413.57	92.8281	1,413.57	88.5507	1,413.57	93.188	1,413.57	87.4091	1,413.57	89.8262	1,413.57	90.283	1,413.57	82.5578	1,413.57	90.634	1,413.57	77.9691	1,413.57	93.7172	1,413.57	92.4017	1,413.57	96.1598
1,463.38	109.357	1,463.38	108.955	1,463.38	109.391	1,463.38	108.329	1,463.38	108.753	1,463.38	107.29	1,463.38	107.523	1,463.38	105.63	1,463.38	106.002	1,463.38	103.3	1,463.38	104.23	1,463.38	100.756	1,463.38	102.177	1,463.38	98.7912	1,463.38	100.411	1,463.38	97.0415	1,463.38	99.2923	1,463.38	94.3665	1,463.38	97.9723	1,463.38	93.3132	1,463.38	95.4622	1,463.38	94.3211	1,463.38	92.5164	1,463.38	92.6723	1,463.38	92.5683	1,463.38	89.0258	1,463.38	92.9296	1,463.38	86.8735	1,463.38	91.8389	1,463.38	89.192	1,463.38	91.3672	1,463.38	91.6042	1,463.38	83.9174	1,463.38	94.5637	1,463.38	89.0483	1,463.38	95.5719
1,516.11	110.306	1,516.11	109.998	1,516.11	110.06	1,516.11	109.135	1,516.11	109.472	1,516.11	107.908	1,516.11	108.505	1,516.11	106.201	1,516.11	106.875	1,516.11	103.813	1,516.11	104.688	1,516.11	101.115	1,516.11	102.314	1,516.11	99.0832	1,516.11	99.715	1,516.11	97.8798	1,516.11	97.5262	1,516.11	95.4915	1,516.11	97.0075	1,516.11	91.9634	1,516.11	96.4275	1,516.11	93.3172	1,516.11	94.1918	1,516.11	93.5295	1,516.11	94.1452	1,516.11	90.7461	1,516.11	94.9046	1,516.11	87.7441	1,516.11	91.8387	1,516.11	87.2959	1,516.11	91.446	1,516.11	90.8702	1,516.11	85.8683	1,516.11	96.0352	1,516.11	91.558	1,516.11	97.9799
1,568.85	110.091	1,568.85	109.825	1,568.85	109.991	1,568.85	109.169	1,568.85	109.566	1,568.85	108.098	1,568.85	108.633	1,568.85	106.483	1,568.85	107.071	1,568.85	104.339	1,568.85	105.175	1,568.85	101.834	1,568.85	102.952	1,568.85	99.1395	1,568.85	100.247	1,568.85	97.3233	1,568.85	97.9587	1,568.85	95.8902	1,568.85	96.4752	1,568.85	93.0738	1,568.85	95.2734	1,568.85	92.9694	1,568.85	93.1996	1,568.85	94.0113	1,568.85	92.4462	1,568.85	91.2854	1,568.85	94.2738	1,568.85	85.9218	1,568.85	93.0205	1,568.85	83.2086	1,568.85	91.3901	1,568.85	89.9947	1,568.85	87.6362	1,568.85	96.3423	1,568.85	90.5255	1,568.85	98.1217
1,624.51	109.379	1,624.51	109.286	1,624.51	109.291	1,624.51	108.87	1,624.51	108.891	1,624.51	107.925	1,624.51	108.035	1,624.51	106.341	1,624.51	106.761	1,624.51	104.351	1,624.51	104.795	1,624.51	102.097	1,624.51	102.205	1,624.51	99.4524	1,624.51	100.092	1,624.51	97.0761	1,624.51	98.0616	1,624.51	95.4005	1,624.51	95.4202	1,624.51	93.0678	1,624.51	93.2263	1,624.51	91.5846	1,624.51	91.9848	1,624.51	93.4185	1,624.51	89.4944	1,624.51	93.7947	1,624.51	90.5666	1,624.51	91.3524	1,624.51	93.0977	1,624.51	85.1454	1,624.51	88.443	1,624.51	84.6986	1,624.51	83.5032	1,624.51	95.595	1,624.51	90.6356	1,624.51	97.3905
1,681.64	109.657	1,681.64	109.517	1,681.64	109.71	1,681.64	109.24	1,681.64	109.373	1,681.64	108.014	1,681.64	108.595	1,681.64	105.953	1,681.64	107.137	1,681.64	104.046	1,681.64	105.086	1,681.64	101.981	1,681.64	102.977	1,681.64	99.7512	1,681.64	100.98	1,681.64	97.9369	1,681.64	98.5746	1,681.64	96.1855	1,681.64	96.1994	1,681.64	92.5289	1,681.64	95.3176	1,681.64	91.4191	1,681.64	93.4274	1,681.64	94.242	1,681.64	90.2517	1,681.64	92.5362	1,681.64	90.9152	1,681.64	92.74	1,681.64	92.4897	1,681.64	86.0114	1,681.64	91.9493	1,681.64	84.8667	1,681.64	81.3832	1,681.64	95.4876	1,681.64	90.5641	1,681.64	97.4124
1,741.7	109.943	1,741.7	109.844	1,741.7	109.669	1,741.7	109.256	1,741.7	109.346	1,741.7	108.052	1,741.7	108.819	1,741.7	106.357	1,741.7	107.376	1,741.7	104.442	1,741.7	105.291	1,741.7	102.567	1,741.7	103.352	1,741.7	101.018	1,741.7	101.493	1,741.7	98.6359	1,741.7	99.5184	1,741.7	95.9895	1,741.7	97.1915	1,741.7	94.1094	1,741.7	95.3715	1,741.7	89.2856	1,741.7	93.3522	1,741.7	93.0087	1,741.7	90.568	1,741.7	94.3382	1,741.7	90.7248	1,741.7	88.9396	1,741.7	92.3138	1,741.7	84.8205	1,741.7	88.6962	1,741.7	84.4764	1,741.7	84.6975	1,741.7	94.7426	1,741.7	85.2321	1,741.7	96.0441
1,803.22	109.059	1,803.22	108.885	1,803.22	109.492	1,803.22	108.746	1,803.22	109.354	1,803.22	107.92	1,803.22	108.142	1,803.22	106.096	1,803.22	106.956	1,803.22	103.889	1,803.22	104.898	1,803.22	102.607	1,803.22	101.111	1,803.22	100.593	1,803.22	101.047	1,803.22	98.0782	1,803.22	99.8841	1,803.22	96.7116	1,803.22	94.1564	1,803.22	94.3789	1,803.22	94.1004	1,803.22	87.3489	1,803.22	94.8411	1,803.22	87.4542	1,803.22	95.1874	1,803.22	95.5747	1,803.22	89.9081	1,803.22	95.5637	1,803.22	90.8194	1,803.22	86.3328	1,803.22	87.0558	1,803.22	86.4195	1,803.22	82.4403	1,803.22	96.7373	1,803.22	68.0357	1,803.22	96.4462
1,866.21	107.921	1,866.21	108.182	1,866.21	107.898	1,866.21	107.807	1,866.21	107.84	1,866.21	106.704	1,866.21	107.26	1,866.21	105.002	1,866.21	106.006	1,866.21	103.528	1,866.21	103.518	1,866.21	101.106	1,866.21	101.055	1,866.21	98.2969	1,866.21	100.211	1,866.21	97.6052	1,866.21	98.0601	1,866.21	93.7657	1,866.21	93.7662	1,866.21	90.8387	1,866.21	93.593	1,866.21	93.3103	1,866.21	90.9875	1,866.21	84.5668	1,866.21	89.017	1,866.21	92.6358	1,866.21	90.1837	1,866.21	96.7829	1,866.21	86.1139	1,866.21	93.3213	1,866.21	95.2064	1,866.21	85.0676	1,866.21	85.8732	1,866.21	93.2906	1,866.21	90.4858	1,866.21	90.0491
1,932.13	107.636	1,932.13	107.726	1,932.13	107.575	1,932.13	107.385	1,932.13	107.6	1,932.13	105.943	1,932.13	106.784	1,932.13	103.829	1,932.13	104.951	1,932.13	102.353	1,932.13	103.212	1,932.13	101.461	1,932.13	101.57	1,932.13	99.4104	1,932.13	98.8789	1,932.13	96.7511	1,932.13	97.0442	1,932.13	95.5308	1,932.13	94.9039	1,932.13	93.5563	1,932.13	92.3915	1,932.13	92.6583	1,932.13	92.3679	1,932.13	90.5247	1,932.13	84.7532	1,932.13	85.1338	1,932.13	88.8927	1,932.13	91.1588	1,932.13	81.3534	1,932.13	92.4814	1,932.13	91.7923	1,932.13	85.9359	1,932.13	84.84	1,932.13	86.96	1,932.13	89.1927	1,932.13	92.8873
1,999.51	108.012	1,999.51	107.933	1,999.51	108.227	1,999.51	107.49	1,999.51	107.91	1,999.51	106.235	1,999.51	106.436	1,999.51	104.319	1,999.51	105.149	1,999.51	103.109	1,999.51	104.431	1,999.51	100.979	1,999.51	102.103	1,999.51	97.7887	1,999.51	100.498	1,999.51	96.4824	1,999.51	98.1583	1,999.51	94.859	1,999.51	95.3758	1,999.51	92.8705	1,999.51	94.2636	1,999.51	91.2954	1,999.51	92.2488	1,999.51	85.8249	1,999.51	86.4325	1,999.51	88.8426	1,999.51	85.0204	1,999.51	88.7506	1,999.51	90.2326	1,999.51	85.8058	1,999.51	91.0969	1,999.51	86.8301	1,999.51	83.3398	1,999.51	87.6186	1,999.51	85.3597	1,999.51	90.3475
2,069.82	109.259	2,069.82	109.015	2,069.82	109.217	2,069.82	108.689	2,069.82	108.238	2,069.82	107.387	2,069.82	107.158	2,069.82	105.702	2,069.82	106.121	2,069.82	104.392	2,069.82	104.552	2,069.82	101.568	2,069.82	103.055	2,069.82	99.8613	2,069.82	101.199	2,069.82	97.9268	2,069.82	99.251	2,069.82	93.3314	2,069.82	95.9462	2,069.82	92.6524	2,069.82	92.659	2,069.82	92.9184	2,069.82	93.1459	2,069.82	88.8119	2,069.82	90.1615	2,069.82	88.2333	2,069.82	85.3905	2,069.82	87.8465	2,069.82	90.1001	2,069.82	77.2368	2,069.82	92.8582	2,069.82	84.185	2,069.82	76.7552	2,069.82	91.0276	2,069.82	88.7291	2,069.82	91.9667
2,143.07	109.119	2,143.07	108.748	2,143.07	108.862	2,143.07	108.273	2,143.07	107.875	2,143.07	106.533	2,143.07	107.124	2,143.07	105.515	2,143.07	106.169	2,143.07	104.78	2,143.07	104.355	2,143.07	101.028	2,143.07	102.033	2,143.07	99.5968	2,143.07	100.342	2,143.07	94.9577	2,143.07	96.5942	2,143.07	91.7037	2,143.07	93.154	2,143.07	93.5528	2,143.07	93.0002	2,143.07	91.7639	2,143.07	89.6804	2,143.07	81.1431	2,143.07	89.026	2,143.07	85.8548	2,143.07	89.1088	2,143.07	87.3663	2,143.07	91.4248	2,143.07	83.5669	2,143.07	91.7847	2,143.07	79.8908	2,143.07	77.5007	2,143.07	89.3591	2,143.07	89.1461	2,143.07	92.4987
2,219.24	108.603	2,219.24	108.007	2,219.24	107.928	2,219.24	107.216	2,219.24	107.21	2,219.24	106	2,219.24	106.504	2,219.24	105.043	2,219.24	105.643	2,219.24	103.08	2,219.24	103.753	2,219.24	99.3482	2,219.24	100.653	2,219.24	98.6073	2,219.24	99.3471	2,219.24	93.7798	2,219.24	94.7775	2,219.24	92.8756	2,219.24	92.5892	2,219.24	92.6601	2,219.24	90.9305	2,219.24	89.967	2,219.24	88.1338	2,219.24	83.8751	2,219.24	87.8599	2,219.24	90.1435	2,219.24	89.2444	2,219.24	88.2241	2,219.24	89.6119	2,219.24	86.0383	2,219.24	89.0824	2,219.24	80.5896	2,219.24	81.6504	2,219.24	87.8981	2,219.24	86.3221	2,219.24	93.4877
2,296.88	109.159	2,296.88	108.812	2,296.88	108.345	2,296.88	107.689	2,296.88	107.727	2,296.88	106.166	2,296.88	107.523	2,296.88	105.575	2,296.88	106.026	2,296.88	102.259	2,296.88	103.227	2,296.88	100.97	2,296.88	102.634	2,296.88	97.4095	2,296.88	98.7556	2,296.88	94.4516	2,296.88	95.9254	2,296.88	93.4313	2,296.88	96.9386	2,296.88	88.7274	2,296.88	91.1331	2,296.88	89.6883	2,296.88	90.9553	2,296.88	90.2549	2,296.88	92.0512	2,296.88	92.2004	2,296.88	84.6287	2,296.88	93.1368	2,296.88	85.8525	2,296.88	85.7138	2,296.88	83.7767	2,296.88	88.0949	2,296.88	79.8734	2,296.88	91.0787	2,296.88	82.4767	2,296.88	88.834
2,378.91	109.622	2,378.91	109.487	2,378.91	108.967	2,378.91	108.46	2,378.91	108.315	2,378.91	107.177	2,378.91	107.512	2,378.91	105.857	2,378.91	106.595	2,378.91	103.023	2,378.91	104.579	2,378.91	101.989	2,378.91	103.527	2,378.91	97.4969	2,378.91	99.6528	2,378.91	97.3032	2,378.91	99.19	2,378.91	93.7291	2,378.91	95.0425	2,378.91	88.8359	2,378.91	90.0729	2,378.91	92.5633	2,378.91	94.0135	2,378.91	89.2288	2,378.91	87.917	2,378.91	87.295	2,378.91	83.9915	2,378.91	91.5803	2,378.91	88.4038	2,378.91	90.4768	2,378.91	88.8572	2,378.91	84.8598	2,378.91	84.6279	2,378.91	88.8484	2,378.91	85.8289	2,378.91	83.7943
2,462.4	109.288	2,462.4	108.399	2,462.4	109.046	2,462.4	107.184	2,462.4	107.717	2,462.4	106.731	2,462.4	106.704	2,462.4	105.792	2,462.4	105.997	2,462.4	103.87	2,462.4	104.798	2,462.4	101.073	2,462.4	102.179	2,462.4	99.1198	2,462.4	99.6427	2,462.4	97.2922	2,462.4	97.2079	2,462.4	95.2767	2,462.4	94.6961	2,462.4	93.6228	2,462.4	92.3985	2,462.4	92.3699	2,462.4	90.3485	2,462.4	89.3342	2,462.4	90.2684	2,462.4	86.6786	2,462.4	87.2766	2,462.4	87.5668	2,462.4	87.1199	2,462.4	86.2042	2,462.4	88.4841	2,462.4	80.2211	2,462.4	84.6572	2,462.4	90.5345	2,462.4	77.4939	2,462.4	91.0257
2,548.83	109.357	2,548.83	108.321	2,548.83	109.112	2,548.83	107.345	2,548.83	107.797	2,548.83	106.751	2,548.83	106.736	2,548.83	105.96	2,548.83	106.41	2,548.83	103.548	2,548.83	104.87	2,548.83	101.114	2,548.83	102.639	2,548.83	99.037	2,548.83	100.494	2,548.83	96.6382	2,548.83	98.0554	2,548.83	95.0495	2,548.83	95.4798	2,548.83	93.6559	2,548.83	93.1822	2,548.83	91.3759	2,548.83	90.7121	2,548.83	90.5907	2,548.83	90.2847	2,548.83	85.6892	2,548.83	88.8339	2,548.83	90.9554	2,548.83	86.9434	2,548.83	91.1507	2,548.83	89.9395	2,548.83	82.015	2,548.83	86.7862	2,548.83	88.0795	2,548.83	87.019	2,548.83	89.5533
2,639.65	109.404	2,639.65	108.202	2,639.65	109.056	2,639.65	107.323	2,639.65	107.519	2,639.65	107.099	2,639.65	106.919	2,639.65	106.012	2,639.65	106.428	2,639.65	103.786	2,639.65	104.784	2,639.65	101.847	2,639.65	102.528	2,639.65	99.4361	2,639.65	100.578	2,639.65	97.0867	2,639.65	98.6568	2,639.65	94.8809	2,639.65	96.1271	2,639.65	92.649	2,639.65	93.8084	2,639.65	89.8644	2,639.65	91.185	2,639.65	89.2208	2,639.65	90.6011	2,639.65	88.1107	2,639.65	89.6593	2,639.65	87.6899	2,639.65	85.5514	2,639.65	91.8829	2,639.65	89.0396	2,639.65	75.6013	2,639.65	88.9605	2,639.65	88.5075	2,639.65	85.6013	2,639.65	89.5535
2,731.93	109.049	2,731.93	107.766	2,731.93	108.591	2,731.93	106.958	2,731.93	107.198	2,731.93	106.937	2,731.93	106.755	2,731.93	105.862	2,731.93	106.248	2,731.93	104.099	2,731.93	104.409	2,731.93	102.409	2,731.93	102.733	2,731.93	100.225	2,731.93	100.426	2,731.93	97.277	2,731.93	98.3992	2,731.93	94.4114	2,731.93	95.6768	2,731.93	93.0201	2,731.93	93.8342	2,731.93	91.0307	2,731.93	91.557	2,731.93	91.3546	2,731.93	87.2451	2,731.93	87.7884	2,731.93	89.2748	2,731.93	90.0609	2,731.93	88.1399	2,731.93	90.8321	2,731.93	87.468	2,731.93	76.0709	2,731.93	88.74	2,731.93	89.8238	2,731.93	82.8946	2,731.93	89.5258
2,828.61	111.206	2,828.61	109.963	2,828.61	110.829	2,828.61	109.423	2,828.61	109.545	2,828.61	109.118	2,828.61	109.269	2,828.61	107.695	2,828.61	108.471	2,828.61	106.487	2,828.61	106.953	2,828.61	104.465	2,828.61	105.253	2,828.61	101.662	2,828.61	102.991	2,828.61	98.7696	2,828.61	100.237	2,828.61	95.4876	2,828.61	97.4608	2,828.61	93.6029	2,828.61	94.8291	2,828.61	92.2848	2,828.61	93.5205	2,828.61	91.7479	2,828.61	92.1009	2,828.61	89.2666	2,828.61	89.4255	2,828.61	89.8287	2,828.61	86.8837	2,828.61	92.0348	2,828.61	89.1756	2,828.61	78.1487	2,828.61	88.9904	2,828.61	86.7202	2,828.61	82.7515	2,828.61	86.9137
2,928.22	110.958	2,928.22	109.813	2,928.22	110.594	2,928.22	109.223	2,928.22	109.378	2,928.22	108.548	2,928.22	108.907	2,928.22	107.429	2,928.22	107.793	2,928.22	106.399	2,928.22	106.712	2,928.22	104.005	2,928.22	105.024	2,928.22	101.011	2,928.22	102.632	2,928.22	97.7917	2,928.22	99.1983	2,928.22	94.3792	2,928.22	96.1755	2,928.22	92.4828	2,928.22	93.2966	2,928.22	91.6208	2,928.22	92.0023	2,928.22	90.8002	2,928.22	90.916	2,928.22	88.5651	2,928.22	89.7526	2,928.22	89.9448	2,928.22	88.3243	2,928.22	90.0555	2,928.22	89.0014	2,928.22	79.6761	2,928.22	89.783	2,928.22	89.2055	2,928.22	81.4721	2,928.22	85.4295
3,030.76	110.525	3,030.76	109.695	3,030.76	110.195	3,030.76	109.179	3,030.76	109.365	3,030.76	108.474	3,030.76	108.792	3,030.76	107.331	3,030.76	107.71	3,030.76	105.877	3,030.76	106.698	3,030.76	103.306	3,030.76	104.882	3,030.76	99.9696	3,030.76	101.815	3,030.76	96.7168	3,030.76	98.7153	3,030.76	94.7248	3,030.76	95.6295	3,030.76	92.8282	3,030.76	92.7382	3,030.76	91.3875	3,030.76	90.2641	3,030.76	89.4588	3,030.76	89.6505	3,030.76	88.6824	3,030.76	90.2255	3,030.76	86.4466	3,030.76	85.9919	3,030.76	90.7622	3,030.76	86.5046	3,030.76	63.3141	3,030.76	90.3212	3,030.76	87.2495	3,030.76	78.8436	3,030.76	85.7571
3,137.7	110.717	3,137.7	110.06	3,137.7	110.297	3,137.7	109.682	3,137.7	109.752	3,137.7	108.913	3,137.7	109.097	3,137.7	107.889	3,137.7	107.961	3,137.7	106.377	3,137.7	107.044	3,137.7	103.325	3,137.7	104.845	3,137.7	99.7712	3,137.7	101.368	3,137.7	96.821	3,137.7	98.518	3,137.7	94.5966	3,137.7	95.503	3,137.7	91.5742	3,137.7	93.2713	3,137.7	89.8639	3,137.7	91.778	3,137.7	90.3091	3,137.7	88.7203	3,137.7	87.9965	3,137.7	89.8433	3,137.7	88.1798	3,137.7	87.0911	3,137.7	89.9614	3,137.7	85.4222	3,137.7	60.4747	3,137.7	89.6408	3,137.7	85.9148	3,137.7	83.0266	3,137.7	87.2641
3,249.02	110.181	3,249.02	109.853	3,249.02	109.878	3,249.02	109.604	3,249.02	109.748	3,249.02	108.803	3,249.02	109.067	3,249.02	107.978	3,249.02	108.11	3,249.02	106.209	3,249.02	107.193	3,249.02	103.064	3,249.02	104.615	3,249.02	100.01	3,249.02	101.402	3,249.02	97.6277	3,249.02	98.5123	3,249.02	95.1772	3,249.02	96.2129	3,249.02	92.665	3,249.02	93.2731	3,249.02	90.1668	3,249.02	91.5893	3,249.02	90.2534	3,249.02	89.8577	3,249.02	88.8262	3,249.02	89.8037	3,249.02	87.64	3,249.02	88.7058	3,249.02	89.9071	3,249.02	86.3172	3,249.02	73.3882	3,249.02	89.9588	3,249.02	87.2982	3,249.02	77.6844	3,249.02	84.0057
3,363.28	109.413	3,363.28	109.606	3,363.28	109.468	3,363.28	109.382	3,363.28	109.606	3,363.28	108.694	3,363.28	108.851	3,363.28	108.069	3,363.28	108.174	3,363.28	105.845	3,363.28	107.057	3,363.28	102.818	3,363.28	104.311	3,363.28	100.059	3,363.28	101.51	3,363.28	97.1664	3,363.28	98.6339	3,363.28	94.4063	3,363.28	96.2805	3,363.28	92.2473	3,363.28	93.3803	3,363.28	90.0545	3,363.28	91.5355	3,363.28	90.0518	3,363.28	90.0834	3,363.28	89.739	3,363.28	89.523	3,363.28	88.5627	3,363.28	88.5209	3,363.28	88.3139	3,363.28	86.5451	3,363.28	73.2741	3,363.28	89.3935	3,363.28	86.0598	3,363.28	78.6433	3,363.28	84.1828
3,481.93	108.243	3,481.93	109.088	3,481.93	108.509	3,481.93	108.8	3,481.93	109.09	3,481.93	108.419	3,481.93	108.422	3,481.93	107.545	3,481.93	108	3,481.93	105.391	3,481.93	106.67	3,481.93	102.609	3,481.93	104.066	3,481.93	99.6598	3,481.93	101.724	3,481.93	96.8278	3,481.93	98.7861	3,481.93	93.8628	3,481.93	96.1904	3,481.93	91.7707	3,481.93	93.1474	3,481.93	89.477	3,481.93	91.0921	3,481.93	87.6014	3,481.93	89.4854	3,481.93	88.2042	3,481.93	88.7177	3,481.93	88.1505	3,481.93	87.7217	3,481.93	87.3897	3,481.93	87.0951	3,481.93	77.1818	3,481.93	88.3036	3,481.93	86.2771	3,481.93	73.425	3,481.93	84.726
3,604.98	107.835	3,604.98	109.036	3,604.98	108.376	3,604.98	109.004	3,604.98	109.163	3,604.98	108.432	3,604.98	108.426	3,604.98	107.633	3,604.98	108.038	3,604.98	105.431	3,604.98	106.406	3,604.98	102.768	3,604.98	104.113	3,604.98	100.103	3,604.98	101.925	3,604.98	96.9551	3,604.98	98.5235	3,604.98	94.1744	3,604.98	95.5655	3,604.98	91.6884	3,604.98	92.6621	3,604.98	89.0549	3,604.98	90.3128	3,604.98	88.3607	3,604.98	88.7757	3,604.98	87.2838	3,604.98	87.5486	3,604.98	88.4449	3,604.98	87.3994	3,604.98	84.532	3,604.98	86.8023	3,604.98	77.2979	3,604.98	88.0891	3,604.98	86.8809	3,604.98	67.5064	3,604.98	81.8526
3,732.42	107.883	3,732.42	109.21	3,732.42	108.497	3,732.42	108.859	3,732.42	109.219	3,732.42	108.466	3,732.42	108.616	3,732.42	107.402	3,732.42	107.955	3,732.42	105.373	3,732.42	106.076	3,732.42	103.188	3,732.42	104.371	3,732.42	100.518	3,732.42	101.749	3,732.42	96.972	3,732.42	98.3644	3,732.42	93.707	3,732.42	95.092	3,732.42	91.8736	3,732.42	92.4817	3,732.42	88.9727	3,732.42	89.9992	3,732.42	88.0206	3,732.42	88.9149	3,732.42	86.3978	3,732.42	86.1809	3,732.42	86.2983	3,732.42	87.3741	3,732.42	85.3343	3,732.42	86.8902	3,732.42	78.8934	3,732.42	87.4378	3,732.42	86.7343	3,732.42	60.9368	3,732.42	82.9945
3,864.26	107.327	3,864.26	108.783	3,864.26	108.105	3,864.26	108.369	3,864.26	108.691	3,864.26	108.162	3,864.26	108.177	3,864.26	106.569	3,864.26	107.294	3,864.26	105.206	3,864.26	105.453	3,864.26	102.406	3,864.26	103.77	3,864.26	98.6824	3,864.26	100.656	3,864.26	95.3812	3,864.26	97.0608	3,864.26	90.8602	3,864.26	93.9798	3,864.26	88.9529	3,864.26	91.3614	3,864.26	87.2364	3,864.26	89.2759	3,864.26	86.2502	3,864.26	88.5661	3,864.26	83.8782	3,864.26	85.6439	3,864.26	86.4727	3,864.26	84.7413	3,864.26	84.9892	3,864.26	85.2688	3,864.26	79.8316	3,864.26	86.9777	3,864.26	84.1144	3,864.26	66.9091	3,864.26	80.3439
4,000.49	107.669	4,000.49	108.767	4,000.49	108.269	4,000.49	108.385	4,000.49	108.591	4,000.49	107.636	4,000.49	107.955	4,000.49	105.884	4,000.49	106.683	4,000.49	104.312	4,000.49	105.06	4,000.49	101.063	4,000.49	103.065	4,000.49	97.4354	4,000.49	99.5421	4,000.49	93.7922	4,000.49	96.392	4,000.49	91.699	4,000.49	93.2547	4,000.49	89.2311	4,000.49	90.8719	4,000.49	88.0101	4,000.49	88.062	4,000.49	84.0777	4,000.49	85.4559	4,000.49	82.725	4,000.49	84.8535	4,000.49	84.5365	4,000.49	79.4979	4,000.49	80.7043	4,000.49	82.3401	4,000.49	78.917	4,000.49	84.6184	4,000.49	84.6848	4,000.49	71.7003	4,000.49	83.1108
4,141.11	107.966	4,141.11	108.666	4,141.11	108.435	4,141.11	108.493	4,141.11	108.75	4,141.11	107.541	4,141.11	108.253	4,141.11	106.15	4,141.11	106.73	4,141.11	104.353	4,141.11	105.299	4,141.11	101.439	4,141.11	102.555	4,141.11	97.0214	4,141.11	98.8613	4,141.11	93.7241	4,141.11	95.6995	4,141.11	92.2326	4,141.11	92.5031	4,141.11	86.3795	4,141.11	89.5728	4,141.11	84.6485	4,141.11	87.6897	4,141.11	85.1901	4,141.11	87.3908	4,141.11	84.4367	4,141.11	83.9255	4,141.11	85.8524	4,141.11	79.0315	4,141.11	83.6689	4,141.11	85.3753	4,141.11	80.14	4,141.11	81.8411	4,141.11	84.4198	4,141.11	62.4202	4,141.11	82.0117
4,287.6	107.433	4,287.6	108.018	4,287.6	107.748	4,287.6	108.137	4,287.6	108.209	4,287.6	107.227	4,287.6	107.991	4,287.6	106.015	4,287.6	106.558	4,287.6	103.381	4,287.6	105	4,287.6	99.8584	4,287.6	102.008	4,287.6	95.5763	4,287.6	99.1485	4,287.6	92.3532	4,287.6	96.4989	4,287.6	89.8902	4,287.6	92.3683	4,287.6	88.45	4,287.6	89.6412	4,287.6	86.2104	4,287.6	87.4342	4,287.6	79.9506	4,287.6	84.1509	4,287.6	82.1055	4,287.6	82.8582	4,287.6	85.5528	4,287.6	81.3627	4,287.6	81.3028	4,287.6	85.8403	4,287.6	79.1867	4,287.6	80.3376	4,287.6	83.7897	4,287.6	70.7369	4,287.6	81.6666
4,438.48	107.672	4,438.48	108.388	4,438.48	107.915	4,438.48	108.848	4,438.48	108.686	4,438.48	107.96	4,438.48	108.583	4,438.48	106.43	4,438.48	107.102	4,438.48	103.617	4,438.48	104.96	4,438.48	101.053	4,438.48	102.327	4,438.48	99.515	4,438.48	99.9768	4,438.48	93.457	4,438.48	96.1005	4,438.48	92.5809	4,438.48	92.4218	4,438.48	87.1277	4,438.48	89.5282	4,438.48	85.6742	4,438.48	87.746	4,438.48	84.4059	4,438.48	87.3414	4,438.48	86.8698	4,438.48	83.2472	4,438.48	87.5976	4,438.48	82.9499	4,438.48	80.4286	4,438.48	85.5822	4,438.48	81.2866	4,438.48	83.6016	4,438.48	84.8812	4,438.48	75.836	4,438.48	82.8347
4,595.21	108.405	4,595.21	109.081	4,595.21	108.516	4,595.21	109.831	4,595.21	109.708	4,595.21	108.894	4,595.21	109.389	4,595.21	107.134	4,595.21	107.991	4,595.21	104.998	4,595.21	106.044	4,595.21	103.046	4,595.21	104.18	4,595.21	99.127	4,595.21	101.122	4,595.21	94.4201	4,595.21	98.4214	4,595.21	92.366	4,595.21	94.0384	4,595.21	90.0404	4,595.21	91.7007	4,595.21	88.69	4,595.21	88.947	4,595.21	81.4647	4,595.21	87.1703	4,595.21	87.268	4,595.21	84.1735	4,595.21	87.027	4,595.21	85.2115	4,595.21	78.0334	4,595.21	86.6224	4,595.21	79.4072	4,595.21	83.9839	4,595.21	86.6238	4,595.21	73.7049	4,595.21	83.8861
4,756.35	109.311	4,756.35	109.543	4,756.35	109.102	4,756.35	110.515	4,756.35	110.43	4,756.35	109.688	4,756.35	110.263	4,756.35	108.02	4,756.35	109.002	4,756.35	105.56	4,756.35	107.114	4,756.35	103.241	4,756.35	105.453	4,756.35	100.178	4,756.35	103.121	4,756.35	96.0093	4,756.35	99.597	4,756.35	94.1866	4,756.35	96.1931	4,756.35	93.9086	4,756.35	93.7782	4,756.35	88.8094	4,756.35	89.2481	4,756.35	87.6584	4,756.35	89.7609	4,756.35	88.4631	4,756.35	84.7529	4,756.35	86.3438	4,756.35	86.9141	4,756.35	78.9791	4,756.35	89.4307	4,756.35	84.6969	4,756.35	81.4452	4,756.35	83.6285	4,756.35	80.7375	4,756.35	84.982
4,924.8	109.922	4,924.8	110.094	4,924.8	109.845	4,924.8	110.691	4,924.8	110.881	4,924.8	109.819	4,924.8	110.769	4,924.8	108.04	4,924.8	109.512	4,924.8	105.931	4,924.8	107.574	4,924.8	103.134	4,924.8	105.744	4,924.8	100.129	4,924.8	102.067	4,924.8	96.1562	4,924.8	97.3491	4,924.8	92.8483	4,924.8	95.638	4,924.8	91.7471	4,924.8	92.0103	4,924.8	87.5297	4,924.8	89.8187	4,924.8	87.6682	4,924.8	91.0676	4,924.8	89.5169	4,924.8	84.2457	4,924.8	86.3333	4,924.8	88.4975	4,924.8	80.6283	4,924.8	86.8196	4,924.8	83.3921	4,924.8	83.4645	4,924.8	86.47	4,924.8	82.801	4,924.8	86.5212
5,097.66	108.922	5,097.66	109.236	5,097.66	108.813	5,097.66	109.787	5,097.66	110.32	5,097.66	108.968	5,097.66	110.016	5,097.66	106.957	5,097.66	108.643	5,097.66	105.143	5,097.66	107.201	5,097.66	102.972	5,097.66	104.744	5,097.66	98.8464	5,097.66	101.456	5,097.66	95.7511	5,097.66	99.8526	5,097.66	93.1581	5,097.66	93.7513	5,097.66	91.5225	5,097.66	91.4128	5,097.66	83.2035	5,097.66	89.1067	5,097.66	86.145	5,097.66	88.1303	5,097.66	88.6625	5,097.66	85.7475	5,097.66	83.8901	5,097.66	89.8684	5,097.66	82.9729	5,097.66	88.8588	5,097.66	82.7251	5,097.66	86.0357	5,097.66	82.3371	5,097.66	79.1804	5,097.66	84.5302
5,277.83	108.575	5,277.83	109.131	5,277.83	108.736	5,277.83	109.664	5,277.83	110.04	5,277.83	109.103	5,277.83	110.153	5,277.83	107.542	5,277.83	108.673	5,277.83	104.922	5,277.83	106.9	5,277.83	102.542	5,277.83	104.131	5,277.83	99.7112	5,277.83	101.555	5,277.83	96.5278	5,277.83	98.7547	5,277.83	92.3714	5,277.83	94.5213	5,277.83	89.203	5,277.83	89.7187	5,277.83	86.7262	5,277.83	88.9837	5,277.83	86.5427	5,277.83	86.1549	5,277.83	87.4385	5,277.83	88.4588	5,277.83	81.6393	5,277.83	89.6084	5,277.83	82.3409	5,277.83	85.0967	5,277.83	82.6176	5,277.83	82.0568	5,277.83	81.5625	5,277.83	80.8039	5,277.83	80.4223
5,463.87	107.772	5,463.87	108.955	5,463.87	108.306	5,463.87	109.777	5,463.87	109.81	5,463.87	108.761	5,463.87	110.1	5,463.87	107.355	5,463.87	108.658	5,463.87	104.593	5,463.87	106.901	5,463.87	102.554	5,463.87	104.198	5,463.87	98.7004	5,463.87	102.064	5,463.87	94.209	5,463.87	99.5856	5,463.87	89.1842	5,463.87	94.2292	5,463.87	91.6437	5,463.87	91.0897	5,463.87	87.0414	5,463.87	89.6944	5,463.87	85.9007	5,463.87	85.9983	5,463.87	87.2037	5,463.87	87.8938	5,463.87	83.5882	5,463.87	88.1513	5,463.87	83.6371	5,463.87	85.1009	5,463.87	82.8159	5,463.87	84.2053	5,463.87	79.3889	5,463.87	80.0566	5,463.87	81.3588
5,657.23	106.921	5,657.23	107.872	5,657.23	107.281	5,657.23	108.598	5,657.23	108.722	5,657.23	107.79	5,657.23	109.05	5,657.23	106.379	5,657.23	107.825	5,657.23	104.018	5,657.23	105.413	5,657.23	101.572	5,657.23	103.786	5,657.23	97.8282	5,657.23	100.69	5,657.23	94.3373	5,657.23	98.6169	5,657.23	91.6334	5,657.23	92.8136	5,657.23	90.1	5,657.23	89.4064	5,657.23	84.6209	5,657.23	90.6053	5,657.23	87.5685	5,657.23	84.2081	5,657.23	87.8951	5,657.23	88.9725	5,657.23	84.3119	5,657.23	88.0274	5,657.23	80.2188	5,657.23	84.4185	5,657.23	82.915	5,657.23	81.3505	5,657.23	79.952	5,657.23	77.1853	5,657.23	80.0627
5,856.45	107.393	5,856.45	108.362	5,856.45	108.041	5,856.45	108.919	5,856.45	109.075	5,856.45	108.002	5,856.45	108.984	5,856.45	106.055	5,856.45	108.038	5,856.45	103.997	5,856.45	106.139	5,856.45	100.463	5,856.45	103.395	5,856.45	98.7772	5,856.45	100.282	5,856.45	95.1123	5,856.45	97.9797	5,856.45	89.6976	5,856.45	92.8927	5,856.45	88.0889	5,856.45	89.4275	5,856.45	84.4999	5,856.45	87.9518	5,856.45	88.6886	5,856.45	83.5186	5,856.45	85.4899	5,856.45	85.8055	5,856.45	82.1253	5,856.45	86.1109	5,856.45	76.681	5,856.45	81.2855	5,856.45	81.3204	5,856.45	82.5921	5,856.45	78.974	5,856.45	77.6599	5,856.45	76.9294
6,062.99	107.903	6,062.99	108.118	6,062.99	108.196	6,062.99	108.735	6,062.99	109.068	6,062.99	108.021	6,062.99	109.023	6,062.99	105.755	6,062.99	108.251	6,062.99	103.131	6,062.99	106.032	6,062.99	99.6891	6,062.99	103.061	6,062.99	98.425	6,062.99	100.34	6,062.99	95.1356	6,062.99	96.4546	6,062.99	89.9697	6,062.99	92.647	6,062.99	87.6887	6,062.99	88.5846	6,062.99	86.578	6,062.99	85.3436	6,062.99	88.9159	6,062.99	84.5172	6,062.99	85.8877	6,062.99	83.9703	6,062.99	82.6102	6,062.99	83.3656	6,062.99	78.1563	6,062.99	81.512	6,062.99	79.7482	6,062.99	81.3219	6,062.99	80.5561	6,062.99	78.0899	6,062.99	81.36
6,276.86	108.056	6,276.86	108.166	6,276.86	108.06	6,276.86	108.868	6,276.86	108.954	6,276.86	108.081	6,276.86	109.229	6,276.86	105.585	6,276.86	108.295	6,276.86	102.354	6,276.86	105.912	6,276.86	100.858	6,276.86	102.58	6,276.86	97.4419	6,276.86	100.351	6,276.86	95.6564	6,276.86	97.01	6,276.86	87.7795	6,276.86	93.0293	6,276.86	85.6636	6,276.86	86.832	6,276.86	86.8876	6,276.86	87.836	6,276.86	89.4194	6,276.86	82.8044	6,276.86	86.1378	6,276.86	87.036	6,276.86	81.2437	6,276.86	87.1366	6,276.86	73.1299	6,276.86	83.1683	6,276.86	78.5443	6,276.86	83.1836	6,276.86	80.713	6,276.86	79.1875	6,276.86	82.251
6,498.05	108.376	6,498.05	108.429	6,498.05	108.346	6,498.05	109.403	6,498.05	109.337	6,498.05	108.559	6,498.05	109.807	6,498.05	106.282	6,498.05	108.75	6,498.05	103.09	6,498.05	106.318	6,498.05	101.146	6,498.05	103.456	6,498.05	98.9613	6,498.05	100.705	6,498.05	95.5906	6,498.05	99.1086	6,498.05	93.508	6,498.05	95.061	6,498.05	83.9206	6,498.05	87.3097	6,498.05	89.4768	6,498.05	88.0234	6,498.05	90.731	6,498.05	83.8532	6,498.05	86.9745	6,498.05	87.9099	6,498.05	81.5234	6,498.05	88.5764	6,498.05	76.5296	6,498.05	85.1311	6,498.05	81.3499	6,498.05	85.8351	6,498.05	81.6501	6,498.05	82.0195	6,498.05	85.1662
6,726.56	109.078	6,726.56	109.397	6,726.56	109.463	6,726.56	110.062	6,726.56	110.24	6,726.56	108.254	6,726.56	110.371	6,726.56	106.53	6,726.56	109.02	6,726.56	102.53	6,726.56	106.32	6,726.56	100.827	6,726.56	103.218	6,726.56	99.3896	6,726.56	101.276	6,726.56	96.8389	6,726.56	99.7497	6,726.56	96.523	6,726.56	96.1916	6,726.56	83.4324	6,726.56	89.9075	6,726.56	91.3526	6,726.56	85.1415	6,726.56	91.771	6,726.56	83.8162	6,726.56	89.2466	6,726.56	89.6826	6,726.56	82.5208	6,726.56	90.705	6,726.56	79.8907	6,726.56	87.1348	6,726.56	84.2418	6,726.56	87.4576	6,726.56	85.9157	6,726.56	82.7708	6,726.56	86.6894
6,963.87	107.418	6,963.87	108.14	6,963.87	108.075	6,963.87	109.07	6,963.87	108.915	6,963.87	107.257	6,963.87	109.528	6,963.87	105.307	6,963.87	108.365	6,963.87	102.47	6,963.87	105.514	6,963.87	99.1802	6,963.87	102.998	6,963.87	99.2069	6,963.87	100.703	6,963.87	97.0458	6,963.87	99.3231	6,963.87	97.7183	6,963.87	96.1493	6,963.87	85.7499	6,963.87	93.736	6,963.87	91.6581	6,963.87	75.65	6,963.87	92.2187	6,963.87	81.2715	6,963.87	90.8517	6,963.87	90.0297	6,963.87	83.3046	6,963.87	88.9337	6,963.87	76.7016	6,963.87	83.7155	6,963.87	84.6135	6,963.87	86.3097	6,963.87	86.8742	6,963.87	86.3039	6,963.87	85.6292
7,209.96	105.729	7,209.96	107.121	7,209.96	107.222	7,209.96	108.302	7,209.96	107.958	7,209.96	106.463	7,209.96	108.914	7,209.96	103.722	7,209.96	107.812	7,209.96	99.9372	7,209.96	104.998	7,209.96	97.4051	7,209.96	101.659	7,209.96	97.9679	7,209.96	100.317	7,209.96	96.8667	7,209.96	98.0078	7,209.96	97.4527	7,209.96	96.4776	7,209.96	88.4595	7,209.96	93.3486	7,209.96	92.626	7,209.96	75.6498	7,209.96	91.4275	7,209.96	80.1967	7,209.96	91.3767	7,209.96	91.3221	7,209.96	85.339	7,209.96	89.5585	7,209.96	80.2855	7,209.96	85.0947	7,209.96	84.8814	7,209.96	86.8747	7,209.96	86.4384	7,209.96	87.2635	7,209.96	86.5863
7,464.84	105.6	7,464.84	106.954	7,464.84	107.122	7,464.84	108.035	7,464.84	107.209	7,464.84	105.838	7,464.84	108.406	7,464.84	102.816	7,464.84	107.123	7,464.84	98.4996	7,464.84	103.813	7,464.84	96.4755	7,464.84	100.67	7,464.84	96.6675	7,464.84	98.9848	7,464.84	96.4445	7,464.84	98.6668	7,464.84	97.0459	7,464.84	96.2316	7,464.84	91.8128	7,464.84	93.2098	7,464.84	92.9731	7,464.84	78.383	7,464.84	91.3576	7,464.84	80.9355	7,464.84	92.1396	7,464.84	93.0612	7,464.84	85.5434	7,464.84	90.4436	7,464.84	80.5973	7,464.84	88.4466	7,464.84	83.481	7,464.84	88.7174	7,464.84	87.5963	7,464.84	87.8364	7,464.84	87.3164
7,727.05	106.487	7,727.05	107.852	7,727.05	107.962	7,727.05	108.078	7,727.05	107.219	7,727.05	105.392	7,727.05	108.185	7,727.05	102.571	7,727.05	106.384	7,727.05	98.0188	7,727.05	103.028	7,727.05	95.5688	7,727.05	99.5087	7,727.05	97.4792	7,727.05	98.9697	7,727.05	95.5807	7,727.05	98.0694	7,727.05	97.5368	7,727.05	96.2079	7,727.05	95.0663	7,727.05	94.5836	7,727.05	92.7297	7,727.05	80.0399	7,727.05	92.019	7,727.05	83.9702	7,727.05	94.2607	7,727.05	92.7234	7,727.05	86.8949	7,727.05	89.8144	7,727.05	81.6603	7,727.05	90.3822	7,727.05	86.6278	7,727.05	89.8601	7,727.05	88.0208	7,727.05	88.5106	7,727.05	88.8628
7,999.51	106.628	7,999.51	108.997	7,999.51	108.312	7,999.51	108.662	7,999.51	107.838	7,999.51	105.76	7,999.51	108.516	7,999.51	102.434	7,999.51	106.624	7,999.51	98.4373	7,999.51	102.592	7,999.51	92.9185	7,999.51	98.3426	7,999.51	97.5989	7,999.51	99.0974	7,999.51	93.1652	7,999.51	97.7918	7,999.51	97.5828	7,999.51	95.6639	7,999.51	96.5776	7,999.51	95.945	7,999.51	91.8541	7,999.51	86.7681	7,999.51	92.2961	7,999.51	84.5571	7,999.51	95.9202	7,999.51	92.2125	7,999.51	88.8468	7,999.51	89.805	7,999.51	83.7049	7,999.51	92.0337	7,999.51	87.6853	7,999.51	91.0293	7,999.51	88.7677	7,999.51	90.3216	7,999.51	90.15
8,282.23	107.81	8,282.23	109.993	8,282.23	109.222	8,282.23	109.07	8,282.23	108.692	8,282.23	105.639	8,282.23	108.983	8,282.23	101.895	8,282.23	106.597	8,282.23	98.4243	8,282.23	102.341	8,282.23	91.0308	8,282.23	97.8107	8,282.23	96.8924	8,282.23	99.2496	8,282.23	91.742	8,282.23	97.5278	8,282.23	97.6124	8,282.23	94.7835	8,282.23	97.8992	8,282.23	95.8377	8,282.23	91.6098	8,282.23	88.184	8,282.23	93.393	8,282.23	87.6328	8,282.23	97.1595	8,282.23	92.6924	8,282.23	90.7638	8,282.23	91.4134	8,282.23	85.6366	8,282.23	94.2845	8,282.23	88.1251	8,282.23	92.342	8,282.23	90.2054	8,282.23	91.3457	8,282.23	90.8655
8,573.73	108.566	8,573.73	110.606	8,573.73	109.506	8,573.73	108.859	8,573.73	109.443	8,573.73	105.354	8,573.73	109.288	8,573.73	101.914	8,573.73	106.381	8,573.73	97.172	8,573.73	102.406	8,573.73	89.9491	8,573.73	97.6641	8,573.73	96.0681	8,573.73	98.123	8,573.73	91.1527	8,573.73	96.7136	8,573.73	95.8795	8,573.73	93.8273	8,573.73	98.9336	8,573.73	95.3538	8,573.73	92.0686	8,573.73	89.6092	8,573.73	94.9925	8,573.73	91.1249	8,573.73	96.8826	8,573.73	94.2138	8,573.73	90.4835	8,573.73	91.7947	8,573.73	85.5126	8,573.73	95.4409	8,573.73	86.2956	8,573.73	92.8466	8,573.73	89.0629	8,573.73	93.0762	8,573.73	89.3867
8,876.95	107.805	8,876.95	108.896	8,876.95	108.011	8,876.95	106.48	8,876.95	108.786	8,876.95	103.253	8,876.95	108.905	8,876.95	99.2661	8,876.95	105.392	8,876.95	95.6492	8,876.95	100.935	8,876.95	90.709	8,876.95	95.1224	8,876.95	92.7844	8,876.95	96.4437	8,876.95	89.7005	8,876.95	93.6925	8,876.95	90.3816	8,876.95	88.8923	8,876.95	95.2254	8,876.95	94.119	8,876.95	89.4902	8,876.95	89.2072	8,876.95	92.7133	8,876.95	91.55	8,876.95	93.0392	8,876.95	96.0663	8,876.95	87.0677	8,876.95	91.4	8,876.95	76.1732	8,876.95	94.7244	8,876.95	80.0234	8,876.95	92.3663	8,876.95	82.6546	8,876.95	91.3876	8,876.95	88.3182
9,188.96	108.832	9,188.96	107.45	9,188.96	107.986	9,188.96	103.329	9,188.96	109.3	9,188.96	98.9742	9,188.96	108.863	9,188.96	91.8259	9,188.96	104.362	9,188.96	94.8838	9,188.96	99.7383	9,188.96	88.5354	9,188.96	93.5388	9,188.96	81.5148	9,188.96	94.7325	9,188.96	77.938	9,188.96	90.8623	9,188.96	81.1293	9,188.96	87.5375	9,188.96	76.5783	9,188.96	94.0317	9,188.96	83.7454	9,188.96	93.1834	9,188.96	73.8629	9,188.96	88.8231	9,188.96	76.4708	9,188.96	95.5728	9,188.96	71.8188	9,188.96	91.4348	9,188.96	83.251	9,188.96	95.0702	9,188.96	85.1057	9,188.96	92.9906	9,188.96	88.3519	9,188.96	89.6026	9,188.96	90.3338
9,514.16	111.026	9,514.16	110.097	9,514.16	108.928	9,514.16	106.231	9,514.16	110.443	9,514.16	102.439	9,514.16	109.645	9,514.16	99.113	9,514.16	104.487	9,514.16	98.7829	9,514.16	100.74	9,514.16	97.9459	9,514.16	95.0351	9,514.16	94.7322	9,514.16	94.7288	9,514.16	94.4355	9,514.16	87.7348	9,514.16	86.9161	9,514.16	89.3275	9,514.16	90.4764	9,514.16	91.9358	9,514.16	84.6249	9,514.16	92.316	9,514.16	85.5776	9,514.16	84.6005	9,514.16	90.7913	9,514.16	95.6525	9,514.16	81.2688	9,514.16	93.2587	9,514.16	85.0345	9,514.16	97.3994	9,514.16	90.1116	9,514.16	94.8258	9,514.16	92.5604	9,514.16	93.0994	9,514.16	92.2585
9,849.61	111.837	9,849.61	111.23	9,849.61	109.192	9,849.61	107.265	9,849.61	111.273	9,849.61	103.776	9,849.61	109.8	9,849.61	100.587	9,849.61	104.279	9,849.61	99.8673	9,849.61	100.693	9,849.61	100.88	9,849.61	95.2468	9,849.61	94.1807	9,849.61	95.9257	9,849.61	97.5604	9,849.61	83.6878	9,849.61	85.5365	9,849.61	90.995	9,849.61	91.3713	9,849.61	88.4019	9,849.61	78.8934	9,849.61	88.85	9,849.61	79.5962	9,849.61	87.0851	9,849.61	89.5358	9,849.61	97.1879	9,849.61	78.9806	9,849.61	94.5228	9,849.61	84.454	9,849.61	97.7956	9,849.61	88.5926	9,849.61	94.6185	9,849.61	93.1189	9,849.61	94.1219	9,849.61	92.3981
10,196.8	112.381	10,196.8	111.351	10,196.8	109.469	10,196.8	107.128	10,196.8	112.218	10,196.8	103.682	10,196.8	110.429	10,196.8	100.755	10,196.8	104.62	10,196.8	100.533	10,196.8	101.035	10,196.8	102.784	10,196.8	96.6806	10,196.8	92.1761	10,196.8	94.9985	10,196.8	96.227	10,196.8	87.9514	10,196.8	89.7995	10,196.8	94.0929	10,196.8	93.134	10,196.8	88.1161	10,196.8	82.2326	10,196.8	87.6439	10,196.8	82.6694	10,196.8	91.116	10,196.8	86.6037	10,196.8	98.2889	10,196.8	76.7065	10,196.8	94.7883	10,196.8	82.8756	10,196.8	97.7185	10,196.8	86.8734	10,196.8	94.5992	10,196.8	92.3616	10,196.8	95.1535	10,196.8	92.8405
10,555.7	113.451	10,555.7	111.521	10,555.7	110.698	10,555.7	106.534	10,555.7	113.288	10,555.7	102.632	10,555.7	111.149	10,555.7	99.4679	10,555.7	105.555	10,555.7	98.5997	10,555.7	101.807	10,555.7	103.502	10,555.7	101.042	10,555.7	92.5533	10,555.7	94.1518	10,555.7	95.4602	10,555.7	94.3277	10,555.7	94.2179	10,555.7	96.7113	10,555.7	95.0018	10,555.7	90.6495	10,555.7	90.1959	10,555.7	84.1232	10,555.7	88.7446	10,555.7	92.3949	10,555.7	88.4705	10,555.7	96.8668	10,555.7	70.2411	10,555.7	93.5452	10,555.7	81.9915	10,555.7	97.0761	10,555.7	88.4608	10,555.7	94.4009	10,555.7	92.7888	10,555.7	94.7752	10,555.7	93.1264
10,927.7	113.428	10,927.7	110.934	10,927.7	110.752	10,927.7	105.928	10,927.7	113.454	10,927.7	100.9	10,927.7	111.052	10,927.7	98.6235	10,927.7	105.362	10,927.7	96.9024	10,927.7	101.613	10,927.7	103.581	10,927.7	102.801	10,927.7	95.5185	10,927.7	93.7674	10,927.7	93.2519	10,927.7	97.1936	10,927.7	98.4781	10,927.7	96.009	10,927.7	95.2878	10,927.7	92.4367	10,927.7	92.3087	10,927.7	86.7904	10,927.7	87.047	10,927.7	91.2831	10,927.7	91.3782	10,927.7	92.4182	10,927.7	77.6809	10,927.7	89.6214	10,927.7	85.5937	10,927.7	94.8172	10,927.7	90.6816	10,927.7	93.7693	10,927.7	94.4408	10,927.7	94.0677	10,927.7	93.1195
11,313	114.6	11,313	111.572	11,313	111.479	11,313	106.258	11,313	114.359	11,313	101.843	11,313	111.501	11,313	98.3432	11,313	106.056	11,313	96.6182	11,313	101.579	11,313	104.59	11,313	103.742	11,313	98.5516	11,313	96.7896	11,313	90.8526	11,313	97.6633	11,313	101.594	11,313	95.6637	11,313	93.9263	11,313	94.1507	11,313	93.0614	11,313	92.9856	11,313	81.0335	11,313	86.903	11,313	93.677	11,313	92.1688	11,313	83.8996	11,313	86.3971	11,313	89.6682	11,313	94.2844	11,313	93.222	11,313	94.164	11,313	96.6706	11,313	95.0703	11,313	93.8692
11,712.9	115.698	11,712.9	111.916	11,712.9	112.594	11,712.9	106.916	11,712.9	115.434	11,712.9	100.691	11,712.9	112.437	11,712.9	98.5821	11,712.9	106.763	11,712.9	97.6189	11,712.9	101.501	11,712.9	105.399	11,712.9	105.567	11,712.9	101.176	11,712.9	98.1037	11,712.9	94.593	11,712.9	98.9952	11,712.9	103.825	11,712.9	95.7726	11,712.9	90.1067	11,712.9	94.4072	11,712.9	91.0622	11,712.9	97.1754	11,712.9	78.1224	11,712.9	87.1843	11,712.9	92.3783	11,712.9	98.1043	11,712.9	86.3596	11,712.9	92.0463	11,712.9	91.9404	11,712.9	96.813	11,712.9	94.6819	11,712.9	96.7394	11,712.9	98.8095	11,712.9	96.8876	11,712.9	96.3955
12,126	115.478	12,126	111.376	12,126	112.844	12,126	105.509	12,126	115.449	12,126	100.601	12,126	112.327	12,126	97.8878	12,126	106.789	12,126	95.0042	12,126	100.577	12,126	107.136	12,126	106.495	12,126	103.164	12,126	95.8542	12,126	98.8125	12,126	99.5964	12,126	102.685	12,126	94.9498	12,126	80.5828	12,126	92.9261	12,126	74.4472	12,126	98.2564	12,126	82.7161	12,126	93.0961	12,126	90.3845	12,126	101.143	12,126	89.0667	12,126	95.67	12,126	93.6701	12,126	98.9352	12,126	96.1177	12,126	98.7607	12,126	100.862	12,126	99.0171	12,126	98.519
12,553.7	115.007	12,553.7	110.934	12,553.7	111.588	12,553.7	106.063	12,553.7	114.318	12,553.7	101.214	12,553.7	111.317	12,553.7	99.3604	12,553.7	106.224	12,553.7	96.3738	12,553.7	99.3443	12,553.7	109.003	12,553.7	105.947	12,553.7	106.403	12,553.7	95.9959	12,553.7	101.42	12,553.7	99.1834	12,553.7	100.474	12,553.7	94.2567	12,553.7	90.5196	12,553.7	90.7854	12,553.7	93.0949	12,553.7	97.2511	12,553.7	84.4253	12,553.7	94.4728	12,553.7	91.4182	12,553.7	100.435	12,553.7	91.5564	12,553.7	96.3182	12,553.7	96.2328	12,553.7	99.901	12,553.7	98.0365	12,553.7	99.9524	12,553.7	102.331	12,553.7	99.6632	12,553.7	99.6489
12,996.1	114.106	12,996.1	110.669	12,996.1	110.261	12,996.1	106.333	12,996.1	112.53	12,996.1	100.944	12,996.1	109.62	12,996.1	98.9363	12,996.1	104.118	12,996.1	99.1164	12,996.1	96.3537	12,996.1	109.481	12,996.1	104.592	12,996.1	107.752	12,996.1	95.7552	12,996.1	103.638	12,996.1	96.4654	12,996.1	99.0327	12,996.1	90.8828	12,996.1	92.5944	12,996.1	80.0834	12,996.1	96.5208	12,996.1	92.6328	12,996.1	87.8428	12,996.1	91.4476	12,996.1	95.9097	12,996.1	97.202	12,996.1	91.8058	12,996.1	94.5684	12,996.1	96.5968	12,996.1	98.6054	12,996.1	98.7869	12,996.1	99.2455	12,996.1	102.517	12,996.1	99.703	12,996.1	99.3684
13,454.6	113.27	13,454.6	110.118	13,454.6	108.474	13,454.6	105.588	13,454.6	110.998	13,454.6	101.546	13,454.6	107.727	13,454.6	100.088	13,454.6	102.724	13,454.6	100.003	13,454.6	93.5744	13,454.6	109.097	13,454.6	103.562	13,454.6	107.006	13,454.6	98.2594	13,454.6	104.395	13,454.6	94.7682	13,454.6	99.774	13,454.6	87.534	13,454.6	92.5177	13,454.6	78.2362	13,454.6	95.1137	13,454.6	88.7013	13,454.6	86.1936	13,454.6	79.6544	13,454.6	97.3147	13,454.6	89.9012	13,454.6	91.4892	13,454.6	92.2486	13,454.6	96.13	13,454.6	97.0365	13,454.6	98.4714	13,454.6	98.1925	13,454.6	101.873	13,454.6	98.6622	13,454.6	98.3919
13,929.2	115.168	13,929.2	111.89	13,929.2	112.552	13,929.2	106.864	13,929.2	111.838	13,929.2	101.615	13,929.2	106.581	13,929.2	102.769	13,929.2	100.369	13,929.2	105.182	13,929.2	92.6638	13,929.2	107.586	13,929.2	101.262	13,929.2	106.711	13,929.2	96.8216	13,929.2	102.132	13,929.2	96.361	13,929.2	101.702	13,929.2	83.5262	13,929.2	94.3656	13,929.2	87.7192	13,929.2	91.469	13,929.2	83.3689	13,929.2	78.786	13,929.2	81.7891	13,929.2	90.4701	13,929.2	91.7523	13,929.2	82.0448	13,929.2	91.9849	13,929.2	89.737	13,929.2	96.9369	13,929.2	94.9708	13,929.2	96.9994	13,929.2	99.0885	13,929.2	97.7551	13,929.2	96.2158
14,419.9	115.7	14,419.9	112.054	14,419.9	114.879	14,419.9	106.593	14,419.9	114.344	14,419.9	102.29	14,419.9	109	14,419.9	100.638	14,419.9	103.803	14,419.9	109.126	14,419.9	89.9222	14,419.9	107.503	14,419.9	106.715	14,419.9	105.667	14,419.9	105.088	14,419.9	102.849	14,419.9	100.345	14,419.9	102.261	14,419.9	95.7333	14,419.9	96.3483	14,419.9	97.5807	14,419.9	94.3876	14,419.9	86.4421	14,419.9	93.2217	14,419.9	88.6415	14,419.9	83.8012	14,419.9	97.842	14,419.9	85.678	14,419.9	94.7203	14,419.9	90.8615	14,419.9	97.6602	14,419.9	95.9756	14,419.9	94.2794	14,419.9	100.639	14,419.9	99.879	14,419.9	96.6784
14,928.2	114.522	14,928.2	110.638	14,928.2	115.373	14,928.2	104.849	14,928.2	115.625	14,928.2	103.423	14,928.2	109.717	14,928.2	103.166	14,928.2	107.48	14,928.2	110.601	14,928.2	93.7534	14,928.2	110.099	14,928.2	108.847	14,928.2	106.362	14,928.2	110.16	14,928.2	107.103	14,928.2	101.875	14,928.2	101.032	14,928.2	103.288	14,928.2	95.5901	14,928.2	99.1941	14,928.2	99.2109	14,928.2	85.1277	14,928.2	95.0728	14,928.2	99.5134	14,928.2	85.3801	14,928.2	102.021	14,928.2	89.8659	14,928.2	97.6286	14,928.2	96.7098	14,928.2	99.5306	14,928.2	101.875	14,928.2	93.1797	14,928.2	105.158	14,928.2	103.765	14,928.2	100.522
15,455.6	112.69	15,455.6	108.455	15,455.6	109.789	15,455.6	103.869	15,455.6	111.793	15,455.6	102.857	15,455.6	107.13	15,455.6	104.527	15,455.6	104.925	15,455.6	105.737	15,455.6	93.2438	15,455.6	107.974	15,455.6	104.537	15,455.6	103.461	15,455.6	107.969	15,455.6	104.752	15,455.6	96.0764	15,455.6	90.3235	15,455.6	101.542	15,455.6	94.1348	15,455.6	93.2026	15,455.6	98.2925	15,455.6	80.5864	15,455.6	93.9413	15,455.6	99.9137	15,455.6	91.3549	15,455.6	102.233	15,455.6	87.78	15,455.6	96.6458	15,455.6	96.3125	15,455.6	99.2437	15,455.6	101.224	15,455.6	94.0678	15,455.6	104.598	15,455.6	102.821	15,455.6	99.6862
16,000.5	112.784	16,000.5	108.238	16,000.5	109.294	16,000.5	102.755	16,000.5	107.748	16,000.5	96.2382	16,000.5	102.239	16,000.5	101.923	16,000.5	97.0988	16,000.5	102.477	16,000.5	87.2045	16,000.5	103.455	16,000.5	95.488	16,000.5	98.7226	16,000.5	98.9076	16,000.5	96.5774	16,000.5	85.3615	16,000.5	92.6245	16,000.5	92.6672	16,000.5	93.7045	16,000.5	86.0469	16,000.5	93.1075	16,000.5	78.1476	16,000.5	90.5348	16,000.5	93.4971	16,000.5	87.4806	16,000.5	99.4755	16,000.5	87.3988	16,000.5	93.0346	16,000.5	91.4015	16,000.5	96.9481	16,000.5	96.2572	16,000.5	94.7093	16,000.5	99.5181	16,000.5	98.2641	16,000.5	95.3389
16,564.5	111.988	16,564.5	107.459	16,564.5	110.316	16,564.5	101.433	16,564.5	107.607	16,564.5	93.188	16,564.5	101.645	16,564.5	98.2499	16,564.5	95.5366	16,564.5	103.933	16,564.5	92.686	16,564.5	102.126	16,564.5	97.1094	16,564.5	93.0792	16,564.5	97.8494	16,564.5	84.1566	16,564.5	92.7151	16,564.5	93.6313	16,564.5	91.6621	16,564.5	93.0138	16,564.5	84.305	16,564.5	91.5781	16,564.5	74.7924	16,564.5	91.4198	16,564.5	88.5076	16,564.5	88.2454	16,564.5	98.5461	16,564.5	87.435	16,564.5	92.5479	16,564.5	86.4665	16,564.5	97.1407	16,564.5	91.8357	16,564.5	94.9153	16,564.5	95.9079	16,564.5	97.0817	16,564.5	93.3933
17,148.9	111.72	17,148.9	107.15	17,148.9	111.352	17,148.9	100.373	17,148.9	107.77	17,148.9	89.4023	17,148.9	101.01	17,148.9	95.8578	17,148.9	95.9199	17,148.9	105.757	17,148.9	96.9056	17,148.9	101.204	17,148.9	97.4891	17,148.9	81.7303	17,148.9	99.0523	17,148.9	94.4645	17,148.9	97.9189	17,148.9	88.3338	17,148.9	92.6807	17,148.9	91.8305	17,148.9	94.09	17,148.9	93.8833	17,148.9	81.9938	17,148.9	91.5841	17,148.9	85.9897	17,148.9	89.3059	17,148.9	95.9733	17,148.9	86.518	17,148.9	91.7019	17,148.9	83.8741	17,148.9	95.9451	17,148.9	88.0031	17,148.9	93.4995	17,148.9	93.8825	17,148.9	96.1385	17,148.9	91.9099
17,752.4	111.73	17,752.4	106.974	17,752.4	112.939	17,752.4	99.246	17,752.4	109.047	17,752.4	82.8174	17,752.4	101.881	17,752.4	93.6664	17,752.4	98.3781	17,752.4	106.407	17,752.4	100.22	17,752.4	100.036	17,752.4	97.9171	17,752.4	87.9161	17,752.4	101.436	17,752.4	97.4584	17,752.4	101.71	17,752.4	94.5016	17,752.4	95.0734	17,752.4	94.3429	17,752.4	96.5839	17,752.4	92.2278	17,752.4	84.7446	17,752.4	91.0211	17,752.4	85.5301	17,752.4	90.0892	17,752.4	91.5387	17,752.4	85.9522	17,752.4	90.9713	17,752.4	81.9645	17,752.4	94.7339	17,752.4	88.6107	17,752.4	91.5119	17,752.4	95.0748	17,752.4	95.5289	17,752.4	91.2239
18,379.4	109.422	18,379.4	104.242	18,379.4	111.9	18,379.4	95.6354	18,379.4	107.383	18,379.4	76.1364	18,379.4	100.077	18,379.4	88.6404	18,379.4	97.226	18,379.4	104.073	18,379.4	99.5296	18,379.4	96.2079	18,379.4	93.8947	18,379.4	93.7445	18,379.4	100.034	18,379.4	92.6886	18,379.4	100.37	18,379.4	93.0689	18,379.4	92.8048	18,379.4	90.0432	18,379.4	90.0176	18,379.4	86.8148	18,379.4	80.5266	18,379.4	87.0283	18,379.4	81.0308	18,379.4	88.5186	18,379.4	86.1664	18,379.4	82.0502	18,379.4	87.226	18,379.4	81.186	18,379.4	91.7151	18,379.4	90.5234	18,379.4	87.9334	18,379.4	95.8316	18,379.4	92.1688	18,379.4	89.057
19,026.9	106.135	19,026.9	100.342	19,026.9	110.017	19,026.9	91.1635	19,026.9	104.765	19,026.9	74.0695	19,026.9	97.1385	19,026.9	79.1201	19,026.9	94.7623	19,026.9	99.0854	19,026.9	97.696	19,026.9	90.6477	19,026.9	89.6627	19,026.9	93.0228	19,026.9	96.5821	19,026.9	80.4665	19,026.9	96.3411	19,026.9	81.8623	19,026.9	87.0008	19,026.9	77.9528	19,026.9	81.6556	19,026.9	79.247	19,026.9	75.1665	19,026.9	79.189	19,026.9	70.4558	19,026.9	85.341	19,026.9	85.7683	19,026.9	79.1516	19,026.9	83.682	19,026.9	79.922	19,026.9	88.8662	19,026.9	90.562	19,026.9	85.3638	19,026.9	95.2981	19,026.9	87.9226	19,026.9	85.7561
19,697.8	102.117	19,697.8	96.2059	19,697.8	107.534	19,697.8	85.0634	19,697.8	101.711	19,697.8	84.0769	19,697.8	94.2684	19,697.8	86.3152	19,697.8	92.094	19,697.8	93.483	19,697.8	95.6772	19,697.8	83.6446	19,697.8	86.837	19,697.8	85.0677	19,697.8	94.9588	19,697.8	81.2264	19,697.8	92.1232	19,697.8	83.8056	19,697.8	81.3388	19,697.8	83.4917	19,697.8	86.7722	19,697.8	69.1614	19,697.8	78.1697	19,697.8	72.0483	19,697.8	73.9598	19,697.8	81.2633	19,697.8	85.6352	19,697.8	77.6663	19,697.8	82.1143	19,697.8	78.898	19,697.8	87.6025	19,697.8	89.2788	19,697.8	83.9469	19,697.8	94.0944	19,697.8	85.7116	19,697.8	83.2937
19,999.5	100.378	19,999.5	94.9759	19,999.5	106.183	19,999.5	86.3411	19,999.5	100.035	19,999.5	84.0363	19,999.5	92.0598	19,999.5	89.6661	19,999.5	89.2321	19,999.5	94.4438	19,999.5	93.5368	19,999.5	81.7013	19,999.5	85.5062	19,999.5	79.819	19,999.5	93.7252	19,999.5	80.8118	19,999.5	89.5766	19,999.5	83.1429	19,999.5	79.2205	19,999.5	82.4435	19,999.5	87.1291	19,999.5	73.9433	19,999.5	78.2896	19,999.5	59.5993	19,999.5	76.0496	19,999.5	81.3027	19,999.5	85.2969	19,999.5	76.441	19,999.5	81.184	19,999.5	78.0335	19,999.5	86.7263	19,999.5	88.3855	19,999.5	83.5611	19,999.5	93.4118	19,999.5	84.2364	19,999.5	81.5662
