"SPL Vertical"																																																																							
"On-Axis"		"10°"		"-10°"		"20°"		"-20°"		"30°"		"-30°"		"40°"		"-40°"		"50°"		"-50°"		"60°"		"-60°"		"70°"		"-70°"		"80°"		"-80°"		"90°"		"-90°"		"100°"		"-100°"		"110°"		"-110°"		"120°"		"-120°"		"130°"		"-130°"		"140°"		"-140°"		"150°"		"-150°"		"160°"		"-160°"		"170°"		"-170°"		"180°"	
"Frequency [Hz]"	"Sound Pessure Level [dB]  / [2.83V 1m] "	"Frequency [Hz]"	"Sound Pessure Level [dB]  / [2.83V 1m] "	"Frequency [Hz]"	"Sound Pessure Level [dB]  / [2.83V 1m] "	"Frequency [Hz]"	"Sound Pessure Level [dB]  / [2.83V 1m] "	"Frequency [Hz]"	"Sound Pessure Level [dB]  / [2.83V 1m] "	"Frequency [Hz]"	"Sound Pessure Level [dB]  / [2.83V 1m] "	"Frequency [Hz]"	"Sound Pessure Level [dB]  / [2.83V 1m] "	"Frequency [Hz]"	"Sound Pessure Level [dB]  / [2.83V 1m] "	"Frequency [Hz]"	"Sound Pessure Level [dB]  / [2.83V 1m] "	"Frequency [Hz]"	"Sound Pessure Level [dB]  / [2.83V 1m] "	"Frequency [Hz]"	"Sound Pessure Level [dB]  / [2.83V 1m] "	"Frequency [Hz]"	"Sound Pessure Level [dB]  / [2.83V 1m] "	"Frequency [Hz]"	"Sound Pessure Level [dB]  / [2.83V 1m] "	"Frequency [Hz]"	"Sound Pessure Level [dB]  / [2.83V 1m] "	"Frequency [Hz]"	"Sound Pessure Level [dB]  / [2.83V 1m] "	"Frequency [Hz]"	"Sound Pessure Level [dB]  / [2.83V 1m] "	"Frequency [Hz]"	"Sound Pessure Level [dB]  / [2.83V 1m] "	"Frequency [Hz]"	"Sound Pessure Level [dB]  / [2.83V 1m] "	"Frequency [Hz]"	"Sound Pessure Level [dB]  / [2.83V 1m] "	"Frequency [Hz]"	"Sound Pessure Level [dB]  / [2.83V 1m] "	"Frequency [Hz]"	"Sound Pessure Level [dB]  / [2.83V 1m] "	"Frequency [Hz]"	"Sound Pessure Level [dB]  / [2.83V 1m] "	"Frequency [Hz]"	"Sound Pessure Level [dB]  / [2.83V 1m] "	"Frequency [Hz]"	"Sound Pessure Level [dB]  / [2.83V 1m] "	"Frequency [Hz]"	"Sound Pessure Level [dB]  / [2.83V 1m] "	"Frequency [Hz]"	"Sound Pessure Level [dB]  / [2.83V 1m] "	"Frequency [Hz]"	"Sound Pessure Level [dB]  / [2.83V 1m] "	"Frequency [Hz]"	"Sound Pessure Level [dB]  / [2.83V 1m] "	"Frequency [Hz]"	"Sound Pessure Level [dB]  / [2.83V 1m] "	"Frequency [Hz]"	"Sound Pessure Level [dB]  / [2.83V 1m] "	"Frequency [Hz]"	"Sound Pessure Level [dB]  / [2.83V 1m] "	"Frequency [Hz]"	"Sound Pessure Level [dB]  / [2.83V 1m] "	"Frequency [Hz]"	"Sound Pessure Level [dB]  / [2.83V 1m] "	"Frequency [Hz]"	"Sound Pessure Level [dB]  / [2.83V 1m] "	"Frequency [Hz]"	"Sound Pessure Level [dB]  / [2.83V 1m] "	"Frequency [Hz]"	"Sound Pessure Level [dB]  / [2.83V 1m] "
20.5078	48.2797	20.5078	46.9817	20.5078	49.1793	20.5078	45.227	20.5078	49.7226	20.5078	43.044	20.5078	49.9231	20.5078	41.0868	20.5078	49.7643	20.5078	41.3063	20.5078	49.1936	20.5078	43.7845	20.5078	48.1068	20.5078	46.5617	20.5078	46.3139	20.5078	48.9447	20.5078	43.5141	20.5078	50.9073	20.5078	39.9893	20.5078	52.523	20.5078	40.7687	20.5078	53.8554	20.5078	45.2884	20.5078	54.9473	20.5078	48.9381	20.5078	55.8246	20.5078	51.594	20.5078	56.5004	20.5078	53.5501	20.5078	56.9785	20.5078	54.9921	20.5078	57.2549	20.5078	56.0306	20.5078	57.319	20.5078	56.7355	20.5078	57.1539
21.9727	53.2011	21.9727	52.3421	21.9727	53.8047	21.9727	51.1936	21.9727	54.1692	21.9727	49.7026	21.9727	54.2952	21.9727	47.8093	21.9727	54.1688	21.9727	45.5519	21.9727	53.759	21.9727	43.5623	21.9727	53.0131	21.9727	43.6071	21.9727	51.8479	21.9727	45.8007	21.9727	50.1372	21.9727	48.353	21.9727	47.7377	21.9727	50.5511	21.9727	44.8974	21.9727	52.3365	21.9727	44.0932	21.9727	53.7651	21.9727	46.8517	21.9727	54.8895	21.9727	49.9583	21.9727	55.7438	21.9727	52.3531	21.9727	56.3457	21.9727	54.097	21.9727	56.6993	21.9727	55.3291	21.9727	56.7979	21.9727	56.1494	21.9727	56.6243
23.4375	51.7933	23.4375	50.6894	23.4375	52.5523	23.4375	49.2013	23.4375	52.9928	23.4375	47.3306	23.4375	53.1192	23.4375	45.3817	23.4375	52.9121	23.4375	44.5818	23.4375	52.3226	23.4375	46.0394	23.4375	51.2623	23.4375	48.5463	23.4375	49.5883	23.4375	50.95	23.4375	47.1459	23.4375	52.9906	23.4375	44.451	23.4375	54.6837	23.4375	44.8803	23.4375	56.0816	23.4375	48.4421	23.4375	57.2271	23.4375	51.7454	23.4375	58.1481	23.4375	54.2633	23.4375	58.8601	23.4375	56.1479	23.4375	59.369	23.4375	57.5443	23.4375	59.6723	23.4375	58.5492	23.4375	59.7611	23.4375	59.2264	23.4375	59.6199
24.9023	53.1599	24.9023	52.1688	24.9023	53.8517	24.9023	50.8782	24.9023	54.2522	24.9023	49.3634	24.9023	54.3585	24.9023	47.9753	24.9023	54.1508	24.9023	47.5609	24.9023	53.5884	24.9023	48.6858	24.9023	52.6074	24.9023	50.6769	24.9023	51.1344	24.9023	52.7438	24.9023	49.2111	24.9023	54.5928	24.9023	47.6058	24.9023	56.1745	24.9023	48.2843	24.9023	57.5048	24.9023	50.9446	24.9023	58.6075	24.9023	53.6841	24.9023	59.5011	24.9023	55.9251	24.9023	60.1958	24.9023	57.6639	24.9023	60.6948	24.9023	58.977	24.9023	60.9945	24.9023	59.9318	24.9023	61.0858	24.9023	60.5785	24.9023	60.954
26.3672	55.3563	26.3672	54.5975	26.3672	55.902	26.3672	53.6632	26.3672	56.2186	26.3672	52.6575	26.3672	56.2934	26.3672	51.8254	26.3672	56.1089	26.3672	51.5661	26.3672	55.6436	26.3672	52.1556	26.3672	54.8803	26.3672	53.4184	26.3672	53.8454	26.3672	54.9525	26.3672	52.7272	26.3672	56.476	26.3672	52.0903	26.3672	57.8655	26.3672	52.6644	26.3672	59.0814	26.3672	54.3196	26.3672	60.1157	26.3672	56.2776	26.3672	60.9695	26.3672	58.0637	26.3672	61.6436	26.3672	59.5384	26.3672	62.1361	26.3672	60.6901	26.3672	62.4413	26.3672	61.541	26.3672	62.5496	26.3672	62.1186	26.3672	62.4478
27.832	56.6493	27.832	55.9469	27.832	57.1615	27.832	55.0978	27.832	57.4639	27.832	54.2071	27.832	57.5428	27.832	53.4953	27.832	57.3836	27.832	53.2913	27.832	56.9721	27.832	53.8151	27.832	56.305	27.832	54.9408	27.832	55.4277	27.832	56.344	27.832	54.5289	27.832	57.7708	27.832	54.0662	27.832	59.0943	27.832	54.5684	27.832	60.2656	27.832	55.9696	27.832	61.2693	27.832	57.7015	27.832	62.1015	27.832	59.3436	27.832	62.7603	27.832	60.7339	27.832	63.2422	27.832	61.8369	27.832	63.5406	27.832	62.6601	27.832	63.6459	27.832	63.2227	27.832	63.5452
29.2969	58.5663	29.2969	57.9348	29.2969	59.0321	29.2969	57.1782	29.2969	59.3118	29.2969	56.3832	29.2969	59.3913	29.2969	55.7187	29.2969	59.2579	29.2969	55.4349	29.2969	58.9012	29.2969	55.7364	29.2969	58.3233	29.2969	56.5969	29.2969	57.5682	29.2969	57.7886	29.2969	56.7878	29.2969	59.0769	29.2969	56.3241	29.2969	60.3167	29.2969	56.5989	29.2969	61.4383	29.2969	57.6706	29.2969	62.4126	29.2969	59.1493	29.2969	63.2274	29.2969	60.6412	29.2969	63.8762	29.2969	61.9482	29.2969	64.353	29.2969	63.0047	29.2969	64.6498	29.2969	63.8011	29.2969	64.7567	29.2969	64.3479	29.2969	64.661
30.7617	59.7719	30.7617	59.1722	30.7617	60.2223	30.7617	58.4673	30.7617	60.5003	30.7617	57.7457	30.7617	60.5911	30.7617	57.167	30.7617	60.4829	30.7617	56.9498	30.7617	60.1683	30.7617	57.2603	30.7617	59.6541	30.7617	58.0699	30.7617	58.9872	30.7617	59.1847	30.7617	58.3093	30.7617	60.3994	30.7617	57.9145	30.7617	61.5792	30.7617	58.1541	30.7617	62.6546	30.7617	59.0993	30.7617	63.5938	30.7617	60.4458	30.7617	64.3817	30.7617	61.8438	30.7617	65.0096	30.7617	63.0939	30.7617	65.4702	30.7617	64.1185	30.7617	65.7548	30.7617	64.8986	30.7617	65.8529	30.7617	65.439	30.7617	65.7523
32.2266	60.8662	32.2266	60.3632	32.2266	61.2501	32.2266	59.7947	32.2266	61.4846	32.2266	59.2538	32.2266	61.5509	32.2266	58.8827	32.2266	61.438	32.2266	58.8434	32.2266	61.144	32.2266	59.2315	32.2266	60.6885	32.2266	60.0036	32.2266	60.1399	32.2266	61.0145	32.2266	59.6592	32.2266	62.1117	32.2266	59.5152	32.2266	63.1878	32.2266	59.9488	32.2266	64.1809	32.2266	60.9369	32.2266	65.0578	32.2266	62.2121	32.2266	65.8006	32.2266	63.5053	32.2266	66.3976	32.2266	64.6598	32.2266	66.8391	32.2266	65.6093	32.2266	67.1151	32.2266	66.3347	32.2266	67.215	32.2266	66.8373	32.2266	67.1266
33.6914	61.9903	33.6914	61.5633	33.6914	62.3282	33.6914	61.104	33.6914	62.5429	33.6914	60.7019	33.6914	62.6144	33.6914	60.4774	33.6914	62.5324	33.6914	60.5492	33.6914	62.2981	33.6914	60.9722	33.6914	61.9329	33.6914	61.7008	33.6914	61.4977	33.6914	62.6217	33.6914	61.1211	33.6914	63.6162	33.6914	61.0046	33.6914	64.5958	33.6914	61.338	33.6914	65.5042	33.6914	62.1429	33.6914	66.3081	33.6914	63.2464	33.6914	66.9872	33.6914	64.4268	33.6914	67.527	33.6914	65.5265	33.6914	67.9158	33.6914	66.463	33.6914	68.1422	33.6914	67.202	33.6914	68.1948	33.6914	67.7342	33.6914	68.0624
35.1563	63.5679	35.1563	63.1986	35.1563	63.8653	35.1563	62.808	35.1563	64.0593	35.1563	62.4705	35.1563	64.1311	35.1563	62.2823	35.1563	64.0722	35.1563	62.3364	35.1563	63.8859	35.1563	62.6818	35.1563	63.5945	35.1563	63.2943	35.1563	63.254	35.1563	64.0924	35.1563	62.9709	35.1563	64.9792	35.1563	62.9006	35.1563	65.8733	35.1563	63.187	35.1563	66.7179	35.1563	63.8588	35.1563	67.4759	35.1563	64.7999	35.1563	68.123	35.1563	65.8367	35.1563	68.642	35.1563	66.8276	35.1563	69.0189	35.1563	67.6872	35.1563	69.2414	35.1563	68.3737	35.1563	69.2978	35.1563	68.871	35.1563	69.1773
36.6211	64.7892	36.6211	64.473	36.6211	65.0491	36.6211	64.1485	36.6211	65.2215	36.6211	63.8829	36.6211	65.2876	36.6211	63.7573	36.6211	65.2397	36.6211	63.8461	36.6211	65.083	36.6211	64.1859	36.6211	64.8417	36.6211	64.7562	36.6211	64.5711	36.6211	65.4913	36.6211	64.3685	36.6211	66.3106	36.6211	64.3654	36.6211	67.1432	36.6211	64.6747	36.6211	67.9364	36.6211	65.3137	36.6211	68.6537	36.6211	66.186	36.6211	69.27	36.6211	67.1461	36.6211	69.7669	36.6211	68.0698	36.6211	70.1294	36.6211	68.877	36.6211	70.3446	36.6211	69.5254	36.6211	70.4007	36.6211	69.997	36.6211	70.2875
38.0859	66.0898	38.0859	65.8314	38.0859	66.3072	38.0859	65.5754	38.0859	66.4542	38.0859	65.3794	38.0859	66.5133	38.0859	65.3092	38.0859	66.4785	38.0859	65.4225	38.0859	66.3567	38.0859	65.7466	38.0859	66.1739	38.0859	66.2663	38.0859	65.9828	38.0859	66.9313	38.0859	65.8684	38.0859	67.6768	38.0859	65.9358	38.0859	68.4421	38.0859	66.2672	38.0859	69.179	38.0859	66.8695	38.0859	69.852	38.0859	67.665	38.0859	70.4352	38.0859	68.5368	38.0859	70.9091	38.0859	69.3801	38.0859	71.2578	38.0859	70.1223	38.0859	71.4678	38.0859	70.7218	38.0859	71.5273	38.0859	71.1586	38.0859	71.4265
39.5508	67.4742	39.5508	67.251	39.5508	67.6649	39.5508	67.0332	39.5508	67.797	39.5508	66.8693	39.5508	67.8549	39.5508	66.8136	39.5508	67.8336	39.5508	66.9138	39.5508	67.7402	39.5508	67.1946	39.5508	67.5984	39.5508	67.6481	39.5508	67.4546	39.5508	68.2366	39.5508	67.3796	39.5508	68.9072	39.5508	67.4584	39.5508	69.6065	39.5508	67.7577	39.5508	70.2893	39.5508	68.2872	39.5508	70.9199	39.5508	68.9895	39.5508	71.4716	39.5508	69.7699	39.5508	71.9233	39.5508	70.5358	39.5508	72.2581	39.5508	71.2184	39.5508	72.4619	39.5508	71.7747	39.5508	72.5227	39.5508	72.1819	39.5508	72.4312
41.0156	69.1047	41.0156	68.8835	41.0156	69.2932	41.0156	68.6607	41.0156	69.4273	41.0156	68.4765	41.0156	69.4936	41.0156	68.3769	41.0156	69.4875	41.0156	68.4055	41.0156	69.4139	41.0156	68.5908	41.0156	69.2912	41.0156	68.9362	41.0156	69.1547	41.0156	69.4177	41.0156	69.0599	41.0156	69.9933	41.0156	69.0764	41.0156	70.6147	41.0156	69.2668	41.0156	71.2369	41.0156	69.6562	41.0156	71.8225	41.0156	70.2147	41.0156	72.3418	41.0156	70.8702	41.0156	72.7714	41.0156	71.5395	41.0156	73.0927	41.0156	72.1527	41.0156	73.2903	41.0156	72.6618	41.0156	73.3521	41.0156	73.0384	41.0156	73.2694
42.4805	69.6536	42.4805	69.4461	42.4805	69.834	42.4805	69.2437	42.4805	69.9643	42.4805	69.0872	42.4805	70.0307	42.4805	69.022	42.4805	70.0282	42.4805	69.0887	42.4805	69.9626	42.4805	69.3114	42.4805	69.8534	42.4805	69.6885	42.4805	69.738	42.4805	70.1934	42.4805	69.6733	42.4805	70.7833	42.4805	69.7281	42.4805	71.4116	42.4805	69.9604	42.4805	72.0354	42.4805	70.3881	42.4805	72.6194	42.4805	70.9753	42.4805	73.1357	42.4805	71.6481	42.4805	73.562	42.4805	72.3255	42.4805	73.8803	42.4805	72.941	42.4805	74.0758	42.4805	73.4494	42.4805	74.1367	42.4805	73.8245	42.4805	74.0544
43.9453	70.8283	43.9453	70.6589	43.9453	70.9796	43.9453	70.4999	43.9453	71.0923	43.9453	70.3865	43.9453	71.1538	43.9453	70.356	43.9453	71.1601	43.9453	70.4414	43.9453	71.1178	43.9453	70.6614	43.9453	71.0456	43.9453	71.0149	43.9453	70.9779	43.9453	71.4806	43.9453	70.9639	43.9453	72.0236	43.9453	71.0598	43.9453	72.6043	43.9453	71.3101	43.9453	73.1847	43.9453	71.7259	43.9453	73.7322	43.9453	72.2754	43.9453	74.2198	43.9453	72.8969	43.9453	74.6255	43.9453	73.5209	43.9453	74.9311	43.9453	74.0885	43.9453	75.1217	43.9453	74.558	43.9453	75.1855	43.9453	74.904	43.9453	75.1141
45.4102	71.8481	45.4102	71.7046	45.4102	71.98	45.4102	71.5756	45.4102	72.0813	45.4102	71.4923	45.4102	72.1403	45.4102	71.4873	45.4102	72.1536	45.4102	71.5884	45.4102	72.1271	45.4102	71.8112	45.4102	72.0786	45.4102	72.1541	45.4102	72.0391	45.4102	72.5985	45.4102	72.0523	45.4102	73.1139	45.4102	72.167	45.4102	73.6648	45.4102	72.4209	45.4102	74.2166	45.4102	72.8232	45.4102	74.7384	45.4102	73.3463	45.4102	75.2044	45.4102	73.9357	45.4102	75.5927	45.4102	74.5287	45.4102	75.8854	45.4102	75.0704	45.4102	76.0676	45.4102	75.5205	45.4102	76.1276	45.4102	75.8538	45.4102	76.0574
46.875	73.0859	46.875	72.9538	46.875	73.2097	46.875	72.8363	46.875	73.308	46.875	72.7606	46.875	73.3705	46.875	72.7553	46.875	73.3942	46.875	72.8446	46.875	73.3847	46.875	73.0429	46.875	73.3578	46.875	73.3504	46.875	73.3405	46.875	73.7526	46.875	73.3703	46.875	74.2238	46.875	73.488	46.875	74.7328	46.875	73.7256	46.875	75.2477	46.875	74.0914	46.875	75.7394	46.875	74.5637	46.875	76.1824	46.875	75.0966	46.875	76.555	46.875	75.6352	46.875	76.839	46.875	76.1295	46.875	77.0196	46.875	76.5411	46.875	77.0851	46.875	76.845	46.875	77.0277
48.3398	73.8862	48.3398	73.7782	48.3398	73.9941	48.3398	73.6914	48.3398	74.0862	48.3398	73.6502	48.3398	74.1526	48.3398	73.6791	48.3398	74.1909	48.3398	73.7979	48.3398	74.2068	48.3398	74.0172	48.3398	74.2151	48.3398	74.3349	48.3398	74.2409	48.3398	74.7366	48.3398	74.3164	48.3398	75.1988	48.3398	74.4754	48.3398	75.6934	48.3398	74.7419	48.3398	76.1915	48.3398	75.1193	48.3398	76.6665	48.3398	75.5857	48.3398	77.0948	48.3398	76.0999	48.3398	77.4558	48.3398	76.6137	48.3398	77.7323	48.3398	77.0824	48.3398	77.9098	48.3398	77.4712	48.3398	77.9771	48.3398	77.7569	48.3398	77.927
51.2695	75.9811	51.2695	75.894	51.2695	76.071	51.2695	75.8258	51.2695	76.1515	51.2695	75.7948	51.2695	76.2151	51.2695	75.8195	51.2695	76.26	51.2695	75.9155	51.2695	76.2903	51.2695	76.0921	51.2695	76.3173	51.2695	76.3499	51.2695	76.3595	51.2695	76.6804	51.2695	76.4403	51.2695	77.0671	51.2695	76.5846	51.2695	77.4881	51.2695	76.8107	51.2695	77.9195	51.2695	77.1231	51.2695	78.3375	51.2695	77.5081	51.2695	78.7197	51.2695	77.936	51.2695	79.0461	51.2695	78.3687	51.2695	79.2994	51.2695	78.7681	51.2695	79.465	51.2695	79.1025	51.2695	79.5321	51.2695	79.3489	51.2695	79.4939
52.7344	76.8277	52.7344	76.761	52.7344	76.9037	52.7344	76.7173	52.7344	76.9783	52.7344	76.7118	52.7344	77.0451	52.7344	76.7591	52.7344	77.1019	52.7344	76.8712	52.7344	77.1524	52.7344	77.0546	52.7344	77.2058	52.7344	77.3088	52.7344	77.277	52.7344	77.6256	52.7344	77.3846	52.7344	77.9908	52.7344	77.5476	52.7344	78.3856	52.7344	77.7795	52.7344	78.7891	52.7344	78.0826	52.7344	79.18	52.7344	78.4451	52.7344	79.5381	52.7344	78.8418	52.7344	79.8447	52.7344	79.2403	52.7344	80.0835	52.7344	79.6076	52.7344	80.2408	52.7344	79.9149	52.7344	80.3062	52.7344	80.1411	52.7344	80.2733
54.1992	77.782	54.1992	77.7214	54.1992	77.8523	54.1992	77.6824	54.1992	77.923	54.1992	77.6783	54.1992	77.9881	54.1992	77.7219	54.1992	78.0459	54.1992	77.8237	54.1992	78.0992	54.1992	77.9898	54.1992	78.1558	54.1992	78.2203	54.1992	78.2283	54.1992	78.5089	54.1992	78.3326	54.1992	78.8435	54.1992	78.4851	54.1992	79.2075	54.1992	78.6978	54.1992	79.582	54.1992	78.9737	54.1992	79.9472	54.1992	79.3033	54.1992	80.2837	54.1992	79.6653	54.1992	80.5735	54.1992	80.031	54.1992	80.8004	54.1992	80.3697	54.1992	80.951	54.1992	80.6543	54.1992	81.015	54.1992	80.8642	54.1992	80.9863
55.6641	78.6447	55.6641	78.5912	55.6641	78.7088	55.6641	78.5586	55.6641	78.7752	55.6641	78.5584	55.6641	78.8386	55.6641	78.6019	55.6641	78.8974	55.6641	78.6983	55.6641	78.9539	55.6641	78.853	55.6641	79.0146	55.6641	79.0665	55.6641	79.0905	55.6641	79.3336	55.6641	79.1952	55.6641	79.644	55.6641	79.3428	55.6641	79.983	55.6641	79.5438	55.6641	80.3335	55.6641	79.8011	55.6641	80.677	55.6641	80.1068	55.6641	80.9951	55.6641	80.4423	55.6641	81.2704	55.6641	80.7817	55.6641	81.4872	55.6641	81.0969	55.6641	81.6322	55.6641	81.3622	55.6641	81.6953	55.6641	81.5578	55.6641	81.6707
58.5938	80.1011	58.5938	80.0597	58.5938	80.155	58.5938	80.0388	58.5938	80.2147	58.5938	80.0474	58.5938	80.2762	58.5938	80.0943	58.5938	80.3383	58.5938	80.1867	58.5938	80.403	58.5938	80.3289	58.5938	80.4755	58.5938	80.5213	58.5938	80.5641	58.5938	80.7601	58.5938	80.6787	58.5938	81.0368	58.5938	80.8289	58.5938	81.3394	58.5938	81.0212	58.5938	81.6534	58.5938	81.2564	58.5938	81.9626	58.5938	81.5273	58.5938	82.2503	58.5938	81.8194	58.5938	82.5007	58.5938	82.1124	58.5938	82.699	58.5938	82.3838	58.5938	82.8331	58.5938	82.6122	58.5938	82.8938	58.5938	82.7803	58.5938	82.8762
60.0586	80.7704	60.0586	80.7346	60.0586	80.8201	60.0586	80.7196	60.0586	80.8782	60.0586	80.7332	60.0586	80.941	60.0586	80.7826	60.0586	81.0074	60.0586	80.8738	60.0586	81.0789	60.0586	81.0105	60.0586	81.1596	60.0586	81.1929	60.0586	81.2562	60.0586	81.4176	60.0586	81.3765	60.0586	81.6772	60.0586	81.528	60.0586	81.9612	60.0586	81.7156	60.0586	82.2564	60.0586	81.9393	60.0586	82.5479	60.0586	82.1929	60.0586	82.8204	60.0586	82.4635	60.0586	83.0586	60.0586	82.7334	60.0586	83.2488	60.0586	82.9824	60.0586	83.379	60.0586	83.1913	60.0586	83.4406	60.0586	83.3438	60.0586	83.4288
62.9883	82.0598	62.9883	82.0335	62.9883	82.1019	62.9883	82.0278	62.9883	82.156	62.9883	82.0479	62.9883	82.2193	62.9883	82.0987	62.9883	82.2909	62.9883	82.1843	62.9883	82.3713	62.9883	82.3072	62.9883	82.4629	62.9883	82.4674	62.9883	82.5693	62.9883	82.6626	62.9883	82.6949	62.9883	82.8873	62.9883	82.8439	62.9883	83.1334	62.9883	83.0185	62.9883	83.3905	62.9883	83.218	62.9883	83.6464	62.9883	83.4373	62.9883	83.8878	62.9883	83.6668	62.9883	84.1014	62.9883	83.8928	62.9883	84.2747	62.9883	84.0995	62.9883	84.3968	62.9883	84.2712	62.9883	84.4595	62.9883	84.3941	62.9883	84.4586
64.4531	82.6254	64.4531	82.6026	64.4531	82.6646	64.4531	82.6001	64.4531	82.7169	64.4531	82.622	64.4531	82.7802	64.4531	82.6724	64.4531	82.8534	64.4531	82.7544	64.4531	82.9368	64.4531	82.8701	64.4531	83.0318	64.4531	83.0196	64.4531	83.1411	64.4531	83.2009	64.4531	83.2676	64.4531	83.4093	64.4531	83.4141	64.4531	83.6379	64.4531	83.5819	64.4531	83.8773	64.4531	83.7698	64.4531	84.1165	64.4531	83.9733	64.4531	84.3434	64.4531	84.184	64.4531	84.5455	64.4531	84.3901	64.4531	84.7108	64.4531	84.5775	64.4531	84.829	64.4531	84.7321	64.4531	84.8922	64.4531	84.8414	64.4531	84.8964
67.3828	83.5592	67.3828	83.5411	67.3828	83.5948	67.3828	83.5429	67.3828	83.6459	67.3828	83.5671	67.3828	83.7108	67.3828	83.6162	67.3828	83.7885	67.3828	83.6921	67.3828	83.8787	67.3828	83.796	67.3828	83.9813	67.3828	83.9278	67.3828	84.097	67.3828	84.0861	67.3828	84.2263	67.3828	84.2674	67.3828	84.3698	67.3828	84.4664	67.3828	84.527	67.3828	84.6758	67.3828	84.696	67.3828	84.8867	67.3828	84.873	67.3828	85.0888	67.3828	85.0513	67.3828	85.2713	67.3828	85.2221	67.3828	85.4236	67.3828	85.3746	67.3828	85.5362	67.3828	85.4976	67.3828	85.602	67.3828	85.5808	67.3828	85.6169
68.8477	83.9262	68.8477	83.9103	68.8477	83.9601	68.8477	83.9143	68.8477	84.0106	68.8477	83.9399	68.8477	84.0764	68.8477	83.9889	68.8477	84.1564	68.8477	84.0624	68.8477	84.2498	68.8477	84.1614	68.8477	84.3561	68.8477	84.2856	68.8477	84.475	68.8477	84.4337	68.8477	84.6059	68.8477	84.6027	68.8477	84.7482	68.8477	84.7882	68.8477	84.9009	68.8477	84.9836	68.8477	85.0615	68.8477	85.1811	68.8477	85.2264	68.8477	85.3713	68.8477	85.3899	68.8477	85.5443	68.8477	85.5443	68.8477	85.6901	68.8477	85.6804	68.8477	85.7998	68.8477	85.7884	68.8477	85.8665	68.8477	85.8593	68.8477	85.8865
71.7773	84.6934	71.7773	84.6817	71.7773	84.7238	71.7773	84.6893	71.7773	84.7721	71.7773	84.7166	71.7773	84.8376	71.7773	84.7642	71.7773	84.9193	71.7773	84.8324	71.7773	85.0158	71.7773	84.9212	71.7773	85.1255	71.7773	85.0302	71.7773	85.2467	71.7773	85.1585	71.7773	85.3773	71.7773	85.3038	71.7773	85.5149	71.7773	85.4628	71.7773	85.6571	71.7773	85.6309	71.7773	85.8011	71.7773	85.8019	71.7773	85.9435	71.7773	85.9683	71.7773	86.0798	71.7773	86.1218	71.7773	86.2046	71.7773	86.2538	71.7773	86.3111	71.7773	86.3567	71.7773	86.3921	71.7773	86.4241	71.7773	86.4408	71.7773	86.4523
74.707	85.3792	74.707	85.3714	74.707	85.4061	74.707	85.3822	74.707	85.4521	74.707	85.411	74.707	85.517	74.707	85.4574	74.707	85.5996	74.707	85.5207	74.707	85.6983	74.707	85.6003	74.707	85.8108	74.707	85.6957	74.707	85.9339	74.707	85.806	74.707	86.0643	74.707	85.9297	74.707	86.1982	74.707	86.0647	74.707	86.3318	74.707	86.2076	74.707	86.4618	74.707	86.3539	74.707	86.5848	74.707	86.498	74.707	86.6973	74.707	86.6333	74.707	86.7954	74.707	86.7526	74.707	86.8748	74.707	86.8492	74.707	86.9305	74.707	86.9177	74.707	86.9582	74.707	86.9543
77.6367	85.8441	77.6367	85.8387	77.6367	85.8688	77.6367	85.8512	77.6367	85.9133	77.6367	85.8802	77.6367	85.9779	77.6367	85.9242	77.6367	86.0615	77.6367	85.9819	77.6367	86.1622	77.6367	86.0523	77.6367	86.2767	77.6367	86.1343	77.6367	86.4011	77.6367	86.2274	77.6367	86.5306	77.6367	86.3306	77.6367	86.6602	77.6367	86.4426	77.6367	86.7853	77.6367	86.5615	77.6367	86.9016	77.6367	86.6843	77.6367	87.0059	77.6367	86.8072	77.6367	87.0954	77.6367	86.925	77.6367	87.1678	77.6367	87.0323	77.6367	87.2206	77.6367	87.1233	77.6367	87.2515	77.6367	87.1933	77.6367	87.2581	77.6367	87.2388
79.1016	86.0115	79.1016	86.0068	79.1016	86.0355	79.1016	86.0198	79.1016	86.0798	79.1016	86.0486	79.1016	86.1445	79.1016	86.0914	79.1016	86.2289	79.1016	86.1466	79.1016	86.3305	79.1016	86.2127	79.1016	86.4461	79.1016	86.2888	79.1016	86.5711	79.1016	86.3742	79.1016	86.7002	79.1016	86.4683	79.1016	86.8279	79.1016	86.5701	79.1016	86.9491	79.1016	86.6783	79.1016	87.0592	79.1016	86.7906	79.1016	87.1551	79.1016	86.9039	79.1016	87.2342	79.1016	87.014	79.1016	87.2949	79.1016	87.1159	79.1016	87.3357	79.1016	87.2046	79.1016	87.3552	79.1016	87.2755	79.1016	87.3519	79.1016	87.3252
82.0313	86.4106	82.0313	86.4052	82.0313	86.4352	82.0313	86.4169	82.0313	86.4802	82.0313	86.4431	82.0313	86.5463	82.0313	86.4814	82.0313	86.6323	82.0313	86.5297	82.0313	86.7358	82.0313	86.5862	82.0313	86.8527	82.0313	86.6499	82.0313	86.9779	82.0313	86.72	82.0313	87.105	82.0313	86.7963	82.0313	87.2279	82.0313	86.8787	82.0313	87.3405	82.0313	86.9668	82.0313	87.4381	82.0313	87.0596	82.0313	87.5172	82.0313	87.1555	82.0313	87.5759	82.0313	87.2516	82.0313	87.6138	82.0313	87.3444	82.0313	87.6309	82.0313	87.4297	82.0313	87.6277	82.0313	87.5037	82.0313	87.6047	82.0313	87.5628
84.9609	86.6651	84.9609	86.6607	84.9609	86.6895	84.9609	86.6736	84.9609	86.7359	84.9609	86.7007	84.9609	86.8046	84.9609	86.7391	84.9609	86.8947	84.9609	86.7858	84.9609	87.0033	84.9609	86.8386	84.9609	87.126	84.9609	86.8962	84.9609	87.2564	84.9609	86.9578	84.9609	87.3877	84.9609	87.0232	84.9609	87.5124	84.9609	87.0929	84.9609	87.6236	84.9609	87.1672	84.9609	87.716	84.9609	87.2464	84.9609	87.7858	84.9609	87.3298	84.9609	87.8312	84.9609	87.4161	84.9609	87.8526	84.9609	87.5029	84.9609	87.8512	84.9609	87.587	84.9609	87.8293	84.9609	87.6651	84.9609	87.7892	84.9609	87.7335
87.8906	86.8259	87.8906	86.8221	87.8906	86.8497	87.8906	86.8352	87.8906	86.8956	87.8906	86.8616	87.8906	86.9645	87.8906	86.8976	87.8906	87.0554	87.8906	86.9402	87.8906	87.1655	87.8906	86.9867	87.8906	87.2897	87.8906	87.0354	87.8906	87.4216	87.8906	87.0855	87.8906	87.5533	87.8906	87.1372	87.8906	87.6766	87.8906	87.1912	87.8906	87.7839	87.8906	87.2487	87.8906	87.8689	87.8906	87.3111	87.8906	87.9275	87.8906	87.3791	87.8906	87.9582	87.8906	87.4527	87.8906	87.9616	87.8906	87.5312	87.8906	87.9405	87.8906	87.6124	87.8906	87.8987	87.8906	87.6934	87.8906	87.8407	87.8906	87.7709
90.8203	87.0622	90.8203	87.0592	90.8203	87.0837	90.8203	87.0713	90.8203	87.1262	90.8203	87.0944	90.8203	87.1908	90.8203	87.1245	90.8203	87.2767	90.8203	87.1581	90.8203	87.3811	90.8203	87.1924	90.8203	87.499	90.8203	87.2256	90.8203	87.6235	90.8203	87.257	90.8203	87.7464	90.8203	87.2869	90.8203	87.859	90.8203	87.3168	90.8203	87.9532	90.8203	87.3491	90.8203	88.0222	90.8203	87.3862	90.8203	88.062	90.8203	87.4307	90.8203	88.0712	90.8203	87.4843	90.8203	88.0514	90.8203	87.5477	90.8203	88.0068	90.8203	87.6205	90.8203	87.9432	90.8203	87.7003	90.8203	87.8668	90.8203	87.784
95.2148	87.2456	95.2148	87.2382	95.2148	87.27	95.2148	87.2442	95.2148	87.3138	95.2148	87.2595	95.2148	87.3779	95.2148	87.2798	95.2148	87.4614	95.2148	87.3014	95.2148	87.5611	95.2148	87.3213	95.2148	87.672	95.2148	87.3376	95.2148	87.7871	95.2148	87.3497	95.2148	87.8984	95.2148	87.3585	95.2148	87.9972	95.2148	87.366	95.2148	88.0757	95.2148	87.3754	95.2148	88.1273	95.2148	87.3907	95.2148	88.1479	95.2148	87.4158	95.2148	88.1365	95.2148	87.4539	95.2148	88.0952	95.2148	87.5071	95.2148	88.0287	95.2148	87.5759	95.2148	87.9439	95.2148	87.6586	95.2148	87.8488	95.2148	87.7514
98.1445	87.2024	98.1445	87.1972	98.1445	87.2263	98.1445	87.2065	98.1445	87.2713	98.1445	87.226	98.1445	87.3385	98.1445	87.2511	98.1445	87.4268	98.1445	87.2773	98.1445	87.533	98.1445	87.3013	98.1445	87.6517	98.1445	87.3209	98.1445	87.7754	98.1445	87.335	98.1445	87.8953	98.1445	87.3444	98.1445	88.0024	98.1445	87.3511	98.1445	88.0877	98.1445	87.3585	98.1445	88.1442	98.1445	87.3711	98.1445	88.1671	98.1445	87.3932	98.1445	88.1552	98.1445	87.4292	98.1445	88.1104	98.1445	87.4818	98.1445	88.038	98.1445	87.5521	98.1445	87.9458	98.1445	87.6386	98.1445	87.8426	98.1445	87.7375
101.074	87.2543	101.074	87.2499	101.074	87.2765	101.074	87.2591	101.074	87.3191	101.074	87.2772	101.074	87.3835	101.074	87.2994	101.074	87.4687	101.074	87.3213	101.074	87.5717	101.074	87.3392	101.074	87.6871	101.074	87.3508	101.074	87.8076	101.074	87.3551	101.074	87.9242	101.074	87.3531	101.074	88.0274	101.074	87.3469	101.074	88.108	101.074	87.3408	101.074	88.1584	101.074	87.3396	101.074	88.1736	101.074	87.349	101.074	88.1519	101.074	87.3742	101.074	88.0957	101.074	87.4193	101.074	88.0109	101.074	87.4859	101.074	87.906	101.074	87.5734	101.074	87.7914	101.074	87.6775
105.469	87.3107	105.469	87.3064	105.469	87.3313	105.469	87.3144	105.469	87.3713	105.469	87.3298	105.469	87.4318	105.469	87.3475	105.469	87.5123	105.469	87.3631	105.469	87.6098	105.469	87.3726	105.469	87.7192	105.469	87.3735	105.469	87.833	105.469	87.3648	105.469	87.9425	105.469	87.3473	105.469	88.0378	105.469	87.3239	105.469	88.1095	105.469	87.299	105.469	88.1493	105.469	87.2787	105.469	88.1521	105.469	87.2699	105.469	88.1161	105.469	87.2793	105.469	88.0439	105.469	87.3123	105.469	87.9423	105.469	87.3722	105.469	87.8212	105.469	87.4588	105.469	87.6924	105.469	87.5681
108.398	87.2815	108.398	87.2777	108.398	87.3016	108.398	87.2858	108.398	87.3408	108.398	87.301	108.398	87.4006	108.398	87.318	108.398	87.4802	108.398	87.3321	108.398	87.5769	108.398	87.3392	108.398	87.6854	108.398	87.3365	108.398	87.7985	108.398	87.3231	108.398	87.9072	108.398	87.2996	108.398	88.0015	108.398	87.2689	108.398	88.0716	108.398	87.236	108.398	88.1089	108.398	87.2073	108.398	88.1077	108.398	87.1904	108.398	88.0664	108.398	87.1929	108.398	87.9873	108.398	87.2212	108.398	87.8777	108.398	87.2791	108.398	87.748	108.398	87.3669	108.398	87.6112	108.398	87.4803
112.793	87.4062	112.793	87.3992	112.793	87.4278	112.793	87.4029	112.793	87.4668	112.793	87.4123	112.793	87.5243	112.793	87.4224	112.793	87.5996	112.793	87.4283	112.793	87.6902	112.793	87.4258	112.793	87.7911	112.793	87.4121	112.793	87.8953	112.793	87.3859	112.793	87.9941	112.793	87.3481	112.793	88.0777	112.793	87.3018	112.793	88.1361	112.793	87.2524	112.793	88.1608	112.793	87.2071	112.793	88.146	112.793	87.1745	112.793	88.09	112.793	87.1635	112.793	87.9958	112.793	87.1816	112.793	87.8708	112.793	87.2337	112.793	87.7269	112.793	87.3207	112.793	87.5779	112.793	87.4383
117.188	87.4398	117.188	87.4272	117.188	87.4651	117.188	87.4237	117.188	87.5059	117.188	87.4247	117.188	87.5634	117.188	87.4252	117.188	87.637	117.188	87.4206	117.188	87.7245	117.188	87.4069	117.188	87.8213	117.188	87.3812	117.188	87.9209	117.188	87.3426	117.188	88.0146	117.188	87.2921	117.188	88.0925	117.188	87.2332	117.188	88.1444	117.188	87.1715	117.188	88.1615	117.188	87.1151	117.188	88.1375	117.188	87.0733	117.188	88.0703	117.188	87.0559	117.188	87.9628	117.188	87.0713	117.188	87.8231	117.188	87.1252	117.188	87.6635	117.188	87.2183	117.188	87.4993	117.188	87.3463
120.117	87.3256	120.117	87.3143	120.117	87.3505	120.117	87.3125	120.117	87.3915	120.117	87.3157	120.117	87.4501	120.117	87.3189	120.117	87.5258	120.117	87.3173	120.117	87.6166	120.117	87.3067	120.117	87.7181	120.117	87.2843	120.117	87.8238	120.117	87.2489	120.117	87.9249	120.117	87.2016	120.117	88.0112	120.117	87.1458	120.117	88.0721	120.117	87.0873	120.117	88.0979	120.117	87.0342	120.117	88.0817	120.117	86.9961	120.117	88.0207	120.117	86.9829	120.117	87.9172	120.117	87.003	120.117	87.779	120.117	87.0621	120.117	87.6186	120.117	87.1608	120.117	87.4515	120.117	87.294
124.512	87.4784	124.512	87.4648	124.512	87.5029	124.512	87.4583	124.512	87.5406	124.512	87.4545	124.512	87.5928	124.512	87.4486	124.512	87.6592	124.512	87.4358	124.512	87.738	124.512	87.4117	124.512	87.8254	124.512	87.3735	124.512	87.9155	124.512	87.3201	124.512	88.0001	124.512	87.2527	124.512	88.0696	124.512	87.1749	124.512	88.1135	124.512	87.0933	124.512	88.1222	124.512	87.017	124.512	88.0886	124.512	86.9568	124.512	88.0099	124.512	86.9241	124.512	87.8886	124.512	86.9291	124.512	87.7331	124.512	86.9785	124.512	87.5568	124.512	87.074	124.512	87.3766	124.512	87.2104
128.906	87.3347	128.906	87.3168	128.906	87.3633	128.906	87.306	128.906	87.4047	128.906	87.2979	128.906	87.4601	128.906	87.2876	128.906	87.5291	128.906	87.2701	128.906	87.6098	128.906	87.241	128.906	87.6986	128.906	87.1972	128.906	87.7895	128.906	87.1373	128.906	87.8743	128.906	87.0626	128.906	87.9431	128.906	86.977	128.906	87.9848	128.906	86.8873	128.906	87.9895	128.906	86.8032	128.906	87.9496	128.906	86.7362	128.906	87.8622	128.906	86.6987	128.906	87.7298	128.906	86.7019	128.906	87.5614	128.906	86.753	128.906	87.3713	128.906	86.854	128.906	87.1777	128.906	86.9996
133.301	87.2247	133.301	87.202	133.301	87.2573	133.301	87.1861	133.301	87.3018	133.301	87.1727	133.301	87.359	133.301	87.1572	133.301	87.4284	133.301	87.1346	133.301	87.5084	133.301	87.1002	133.301	87.5955	133.301	87.051	133.301	87.684	133.301	86.9855	133.301	87.7662	133.301	86.9048	133.301	87.8321	133.301	86.8129	133.301	87.8706	133.301	86.7171	133.301	87.8714	133.301	86.6272	133.301	87.8266	133.301	86.5555	133.301	87.733	133.301	86.515	133.301	87.5932	133.301	86.5172	133.301	87.4162	133.301	86.5701	133.301	87.2168	133.301	86.6753	133.301	87.0139	133.301	86.8275
139.16	87.1006	139.16	87.0737	139.16	87.1351	139.16	87.0517	139.16	87.1789	139.16	87.031	139.16	87.2328	139.16	87.0069	139.16	87.2964	139.16	86.9748	139.16	87.3688	139.16	86.9303	139.16	87.4472	139.16	86.87	139.16	87.5268	139.16	86.7928	139.16	87.6006	139.16	86.6999	139.16	87.6588	139.16	86.5956	139.16	87.6903	139.16	86.4877	139.16	87.6843	139.16	86.3866	139.16	87.6325	139.16	86.3055	139.16	87.531	139.16	86.2581	139.16	87.3822	139.16	86.2566	139.16	87.1951	139.16	86.3092	139.16	86.9852	139.16	86.4179	139.16	86.772	139.16	86.5767
143.555	87.0173	143.555	86.9853	143.555	87.0557	143.555	86.9576	143.555	87.1018	143.555	86.9306	143.555	87.1559	143.555	86.9001	143.555	87.2177	143.555	86.8614	143.555	87.2858	143.555	86.8101	143.555	87.3577	143.555	86.7428	143.555	87.4289	143.555	86.6584	143.555	87.4928	143.555	86.5579	143.555	87.5402	143.555	86.4461	143.555	87.5607	143.555	86.3306	143.555	87.5442	143.555	86.2225	143.555	87.4826	143.555	86.135	143.555	87.3725	143.555	86.0823	143.555	87.2162	143.555	86.0769	143.555	87.0231	143.555	86.1271	143.555	86.8084	143.555	86.2349	143.555	86.5918	143.555	86.3943
147.949	86.9316	147.949	86.8936	147.949	86.974	147.949	86.8581	147.949	87.0218	147.949	86.8221	147.949	87.0752	147.949	86.7818	147.949	87.1341	147.949	86.7328	147.949	87.1976	147.949	86.6708	147.949	87.2639	147.949	86.5927	147.949	87.3291	147.949	86.4974	147.949	87.387	147.949	86.3864	147.949	87.4289	147.949	86.2645	147.949	87.4442	147.949	86.1402	147.949	87.4223	147.949	86.0249	147.949	87.3548	147.949	85.9325	147.949	87.2377	147.949	85.8777	147.949	87.0733	147.949	85.8732	147.949	86.8707	147.949	85.9274	147.949	86.6455	147.949	86.042	147.949	86.4181	147.949	86.2104
153.809	86.8243	153.809	86.7839	153.809	86.8663	153.809	86.7435	153.809	86.9111	153.809	86.7001	153.809	86.9594	153.809	86.6502	153.809	87.0114	153.809	86.5895	153.809	87.0673	153.809	86.5143	153.809	87.1258	153.809	86.4217	153.809	87.1839	153.809	86.311	153.809	87.2357	153.809	86.1844	153.809	87.2723	153.809	86.0474	153.809	87.2829	153.809	85.9091	153.809	87.2561	153.809	85.7822	153.809	87.1827	153.809	85.6813	153.809	87.0583	153.809	85.6217	153.809	86.8848	153.809	85.6166	153.809	86.6713	153.809	85.6745	153.809	86.4342	153.809	85.7963	153.809	86.1943	153.809	85.9747
159.668	86.7521	159.668	86.7081	159.668	86.7959	159.668	86.6627	159.668	86.8401	159.668	86.6138	159.668	86.885	159.668	86.5582	159.668	86.9312	159.668	86.492	159.668	86.979	159.668	86.4113	159.668	87.0283	159.668	86.3134	159.668	87.0768	159.668	86.1976	159.668	87.1195	159.668	86.0659	159.668	87.1483	159.668	85.9238	159.668	87.1523	159.668	85.7808	159.668	87.1201	159.668	85.6492	159.668	87.0424	159.668	85.5442	159.668	86.9144	159.668	85.4809	159.668	86.7379	159.668	85.4727	159.668	86.5223	159.668	85.5278	159.668	86.2837	159.668	85.6475	159.668	86.0434	159.668	85.8244
165.527	86.7788	165.527	86.732	165.527	86.8212	165.527	86.6796	165.527	86.8596	165.527	86.6199	165.527	86.8951	165.527	86.5504	165.527	86.9289	165.527	86.4679	165.527	86.963	165.527	86.3695	165.527	86.9986	165.527	86.2533	165.527	87.0353	165.527	86.1197	165.527	87.0694	165.527	85.9718	165.527	87.0933	165.527	85.8165	165.527	87.0963	165.527	85.6641	165.527	87.0661	165.527	85.5282	165.527	86.9921	165.527	85.4242	165.527	86.868	165.527	85.3671	165.527	86.694	165.527	85.3693	165.527	86.4785	165.527	85.4376	165.527	86.2368	165.527	85.5711	165.527	85.9898	165.527	85.7607
171.387	86.6991	171.387	86.6518	171.387	86.7419	171.387	86.5987	171.387	86.7804	171.387	86.5377	171.387	86.8148	171.387	86.4652	171.387	86.8456	171.387	86.377	171.387	86.8736	171.387	86.2691	171.387	86.8994	171.387	86.1392	171.387	86.9222	171.387	85.9876	171.387	86.9386	171.387	85.8183	171.387	86.9419	171.387	85.6397	171.387	86.9228	171.387	85.4643	171.387	86.8709	171.387	85.3081	171.387	86.7775	171.387	85.1885	171.387	86.6377	171.387	85.1217	171.387	86.4528	171.387	85.1193	171.387	86.231	171.387	85.1867	171.387	85.9868	171.387	85.3206	171.387	85.7395	171.387	85.5106
177.246	86.5506	177.246	86.5018	177.246	86.5959	177.246	86.4497	177.246	86.637	177.246	86.3933	177.246	86.6737	177.246	86.3299	177.246	86.7068	177.246	86.2551	177.246	86.7385	177.246	86.1641	177.246	86.7707	177.246	86.053	177.246	86.8035	177.246	85.9195	177.246	86.8331	177.246	85.7652	177.246	86.8511	177.246	85.5955	177.246	86.845	177.246	85.4208	177.246	86.8008	177.246	85.2558	177.246	86.707	177.246	85.1183	177.246	86.5575	177.246	85.0268	177.246	86.3546	177.246	84.9973	177.246	86.11	177.246	85.0402	177.246	85.8431	177.246	85.1577	177.246	85.5786	177.246	85.3426
183.105	86.3122	183.105	86.2476	183.105	86.3689	183.105	86.1766	183.105	86.416	183.105	86.0997	183.105	86.453	183.105	86.0156	183.105	86.4808	183.105	85.9214	183.105	86.5024	183.105	85.8135	183.105	86.5214	183.105	85.6888	183.105	86.5401	183.105	85.5461	183.105	86.5572	183.105	85.3875	183.105	86.5664	183.105	85.2192	183.105	86.5567	183.105	85.0518	183.105	86.5144	183.105	84.8999	183.105	86.4269	183.105	84.7804	183.105	86.2867	183.105	84.71	183.105	86.0942	183.105	84.7025	183.105	85.8587	183.105	84.7656	183.105	85.5979	183.105	84.8992	183.105	85.3349	183.105	85.0945
188.965	86.2521	188.965	86.1819	188.965	86.3083	188.965	86.0993	188.965	86.349	188.965	86.0052	188.965	86.3741	188.965	85.8992	188.965	86.3854	188.965	85.7795	188.965	86.387	188.965	85.6439	188.965	86.3835	188.965	85.4905	188.965	86.3787	188.965	85.3196	188.965	86.3728	188.965	85.1345	188.965	86.3606	188.965	84.9427	188.965	86.3318	188.965	84.7561	188.965	86.2728	188.965	84.5901	188.965	86.1712	188.965	84.4619	188.965	86.0189	188.965	84.388	188.965	85.8161	188.965	84.3811	188.965	85.572	188.965	84.4478	188.965	85.3037	188.965	84.5865	188.965	85.0341	188.965	84.7876
196.289	86.2501	196.289	86.1825	196.289	86.3006	196.289	86.0999	196.289	86.3319	196.289	86.0034	196.289	86.3434	196.289	85.8926	196.289	86.3366	196.289	85.7656	196.289	86.3153	196.289	85.6202	196.289	86.285	196.289	85.4545	196.289	86.2507	196.289	85.2691	196.289	86.2147	196.289	85.068	196.289	86.1741	196.289	84.8596	196.289	86.1207	196.289	84.6568	196.289	86.0428	196.289	84.4756	196.289	85.9287	196.289	84.3339	196.289	85.7709	196.289	84.2477	196.289	85.5691	196.289	84.2288	196.289	85.3319	196.289	84.2824	196.289	85.0754	196.289	84.4063	196.289	84.821	196.289	84.5911
203.613	86.1438	203.613	86.0787	203.613	86.1878	203.613	85.9945	203.613	86.2092	203.613	85.8922	203.613	86.2085	203.613	85.7718	203.613	86.1883	203.613	85.6319	203.613	86.1544	203.613	85.4708	203.613	86.1134	203.613	85.2873	203.613	86.0713	203.613	85.0829	203.613	86.0302	203.613	84.8627	203.613	85.986	203.613	84.6364	203.613	85.9291	203.613	84.418	203.613	85.846	203.613	84.2247	203.613	85.7241	203.613	84.0746	203.613	85.5559	203.613	83.9836	203.613	85.3421	203.613	83.9626	203.613	85.0929	203.613	84.0159	203.613	84.8259	203.613	84.1409	203.613	84.5635	203.613	84.3285
210.938	86.0775	210.938	86.0032	210.938	86.1276	210.938	85.9078	210.938	86.1507	210.938	85.793	210.938	86.1457	210.938	85.6589	210.938	86.114	210.938	85.5036	210.938	86.0606	210.938	85.325	210.938	85.993	210.938	85.1217	210.938	85.9189	210.938	84.8954	210.938	85.8437	210.938	84.6519	210.938	85.7674	210.938	84.4023	210.938	85.6838	210.938	84.1626	210.938	85.5817	210.938	83.9521	210.938	85.4489	210.938	83.7905	210.938	85.2766	210.938	83.6942	210.938	85.0632	210.938	83.6735	210.938	84.8163	210.938	83.7306	210.938	84.5514	210.938	83.8606	210.938	84.2894	210.938	84.0524
218.262	85.879	218.262	85.7978	218.262	85.9389	218.262	85.6988	218.262	85.9738	218.262	85.584	218.262	85.9817	218.262	85.4531	218.262	85.9631	218.262	85.3036	218.262	85.9216	218.262	85.1322	218.262	85.8627	218.262	84.9362	218.262	85.7921	218.262	84.7157	218.262	85.7131	218.262	84.4754	218.262	85.6243	218.262	84.2254	218.262	85.5198	218.262	83.981	218.262	85.3903	218.262	83.7616	218.262	85.227	218.262	83.5871	218.262	85.0253	218.262	83.475	218.262	84.7874	218.262	83.4363	218.262	84.5239	218.262	83.4748	218.262	84.2517	218.262	83.5871	218.262	83.9915	218.262	83.764
225.586	85.8492	225.586	85.763	225.586	85.9047	225.586	85.6509	225.586	85.9263	225.586	85.5166	225.586	85.9133	225.586	85.3619	225.586	85.8697	225.586	85.1868	225.586	85.8037	225.586	84.9901	225.586	85.7267	225.586	84.7714	225.586	85.6495	225.586	84.533	225.586	85.5784	225.586	84.2821	225.586	85.5121	225.586	84.0312	225.586	85.4408	225.586	83.7977	225.586	85.3499	225.586	83.6019	225.586	85.2248	225.586	83.4627	225.586	85.0567	225.586	83.3939	225.586	84.8451	225.586	83.4014	225.586	84.5991	225.586	83.483	225.586	84.335	225.586	83.6305	225.586	84.0727	225.586	83.832
232.91	85.9656	232.91	85.8731	232.91	86.0204	232.91	85.7491	232.91	86.032	232.91	85.5982	232.91	85.9974	232.91	85.4227	232.91	85.9182	232.91	85.2226	232.91	85.8016	232.91	84.9965	232.91	85.6596	232.91	84.7443	232.91	85.5073	232.91	84.4688	232.91	85.3584	232.91	84.1783	232.91	85.2204	232.91	83.8877	232.91	85.0921	232.91	83.6173	232.91	84.9637	232.91	83.3906	232.91	84.8219	232.91	83.229	232.91	84.6553	232.91	83.1465	232.91	84.4594	232.91	83.1467	232.91	84.2383	232.91	83.2229	232.91	84.0028	232.91	83.3621	232.91	83.7677	232.91	83.549
241.699	85.8732	241.699	85.7695	241.699	85.9452	241.699	85.6403	241.699	85.9795	241.699	85.4896	241.699	85.9721	241.699	85.3181	241.699	85.9229	241.699	85.1236	241.699	85.836	241.699	84.9021	241.699	85.7193	241.699	84.6504	241.699	85.582	241.699	84.3689	241.699	85.432	241.699	84.0639	241.699	85.2721	241.699	83.7493	241.699	85.0995	241.699	83.4464	241.699	84.9071	241.699	83.1805	241.699	84.6875	241.699	82.9763	241.699	84.4385	241.699	82.851	241.699	84.1651	241.699	82.8107	241.699	83.8806	241.699	82.8509	241.699	83.6024	241.699	82.9613	241.699	83.3477	241.699	83.1304
250.488	85.629	250.488	85.5048	250.488	85.7127	250.488	85.3492	250.488	85.7482	250.488	85.1692	250.488	85.7314	250.488	84.9687	250.488	85.6636	250.488	84.7472	250.488	85.5524	250.488	84.5012	250.488	85.4102	250.488	84.2271	250.488	85.2514	250.488	83.9242	250.488	85.0873	250.488	83.5985	250.488	84.9217	250.488	83.2643	250.488	84.7493	250.488	82.9443	250.488	84.558	250.488	82.6667	250.488	84.3354	250.488	82.4579	250.488	84.0757	250.488	82.3358	250.488	83.784	250.488	82.3044	250.488	83.4761	250.488	82.3565	250.488	83.1737	250.488	82.4797	250.488	82.8976	250.488	82.663
259.277	86.0916	259.277	85.9673	259.277	86.1709	259.277	85.8057	259.277	86.1984	259.277	85.6128	259.277	86.1706	259.277	85.3917	259.277	86.0888	259.277	85.1419	259.277	85.9601	259.277	84.8602	259.277	85.7965	259.277	84.5433	259.277	85.6126	259.277	84.1908	259.277	85.4213	259.277	83.8085	259.277	85.2293	259.277	83.4111	259.277	85.0337	259.277	83.0232	259.277	84.8236	259.277	82.6775	259.277	84.585	259.277	82.4084	259.277	84.3077	259.277	82.2432	259.277	83.9911	259.277	82.1945	259.277	83.6461	259.277	82.258	259.277	83.293	259.277	82.4187	259.277	82.9559	259.277	82.6577
268.066	85.5414	268.066	85.4	268.066	85.6427	268.066	85.2307	268.066	85.6928	268.066	85.0438	268.066	85.6851	268.066	84.8453	268.066	85.6193	268.066	84.6352	268.066	85.5024	268.066	84.4096	268.066	85.3478	268.066	84.1625	268.066	85.1726	268.066	83.8905	268.066	84.992	268.066	83.5957	268.066	84.8147	268.066	83.2889	268.066	84.6391	268.066	82.9904	268.066	84.4555	268.066	82.7271	268.066	84.2519	268.066	82.5273	268.066	84.0209	268.066	82.4115	268.066	83.7644	268.066	82.3867	268.066	83.4938	268.066	82.4457	268.066	83.2252	268.066	82.5733	268.066	82.9744	268.066	82.7537
276.855	85.6242	276.855	85.4612	276.855	85.7342	276.855	85.2548	276.855	85.7834	276.855	85.0145	276.855	85.7683	276.855	84.7475	276.855	85.69	276.855	84.4576	276.855	85.5557	276.855	84.146	276.855	85.3768	276.855	83.8125	276.855	85.1672	276.855	83.4586	276.855	84.9388	276.855	83.0902	276.855	84.698	276.855	82.7202	276.855	84.4427	276.855	82.3686	276.855	84.1651	276.855	82.061	276.855	83.8563	276.855	81.8225	276.855	83.5142	276.855	81.6713	276.855	83.149	276.855	81.6125	276.855	82.7822	276.855	81.6401	276.855	82.4408	276.855	81.743	276.855	82.147	276.855	81.9131
287.109	85.8361	287.109	85.6954	287.109	85.9181	287.109	85.5045	287.109	85.935	287.109	85.271	287.109	85.8844	287.109	84.9998	287.109	85.7706	287.109	84.6927	287.109	85.6044	287.109	84.3489	287.109	85.4027	287.109	83.9678	287.109	85.1848	287.109	83.5527	287.109	84.967	287.109	83.1136	287.109	84.7566	287.109	82.6705	287.109	84.5484	287.109	82.2534	287.109	84.3267	287.109	81.8988	287.109	84.0724	287.109	81.6407	287.109	83.7724	287.109	81.5007	287.109	83.4266	287.109	81.4814	287.109	83.0499	287.109	81.57	287.109	82.6686	287.109	81.7477	287.109	82.3107	287.109	81.9988
297.363	85.6926	297.363	85.5708	297.363	85.7589	297.363	85.402	297.363	85.7629	297.363	85.194	297.363	85.7021	297.363	84.9509	297.363	85.5806	297.363	84.6731	297.363	85.4095	297.363	84.358	297.363	85.2052	297.363	84.0029	297.363	84.986	297.363	83.609	297.363	84.7674	297.363	83.1852	297.363	84.557	297.363	82.7509	297.363	84.3526	297.363	82.3373	297.363	84.1438	297.363	81.9835	297.363	83.917	297.363	81.7277	297.363	83.6619	297.363	81.5952	297.363	83.3754	297.363	81.5899	297.363	83.0643	297.363	81.6954	297.363	82.7427	297.363	81.8861	297.363	82.4279	297.363	82.1368
307.617	85.8602	307.617	85.7398	307.617	85.9249	307.617	85.5743	307.617	85.9239	307.617	85.3712	307.617	85.8519	307.617	85.1328	307.617	85.711	307.617	84.8563	307.617	85.5121	307.617	84.5363	307.617	85.2728	307.617	84.1689	307.617	85.0125	307.617	83.7562	307.617	84.7451	307.617	83.3094	307.617	84.4738	307.617	82.8517	307.617	84.1912	307.617	82.4171	307.617	83.8868	307.617	82.045	307.617	83.5562	307.617	81.7704	307.617	83.2082	307.617	81.6115	307.617	82.8633	307.617	81.5642	307.617	82.5453	307.617	81.6063	307.617	82.271	307.617	81.711	307.617	82.044	307.617	81.8589
319.336	85.4755	319.336	85.329	319.336	85.5699	319.336	85.1461	319.336	85.5981	319.336	84.9387	319.336	85.552	319.336	84.7118	319.336	85.4325	319.336	84.4615	319.336	85.2516	319.336	84.1781	319.336	85.0314	319.336	83.8505	319.336	84.7987	319.336	83.473	319.336	84.576	319.336	83.0509	319.336	84.3707	319.336	82.6052	319.336	84.171	319.336	82.1741	319.336	83.9527	319.336	81.8071	319.336	83.6932	319.336	81.5511	319.336	83.3859	319.336	81.431	319.336	83.046	319.336	81.4387	319.336	82.7042	319.336	81.541	319.336	82.3911	319.336	81.7006	319.336	82.1224	319.336	81.8952
329.59	85.4299	329.59	85.2761	329.59	85.5256	329.59	85.0805	329.59	85.5484	329.59	84.857	329.59	85.49	329.59	84.6121	329.59	85.3508	329.59	84.3435	329.59	85.1414	329.59	84.0418	329.59	84.8817	329.59	83.6953	329.59	84.5968	329.59	83.2963	329.59	84.3095	329.59	82.8473	329.59	84.0317	329.59	82.3659	329.59	83.7589	329.59	81.8879	329.59	83.4739	329.59	81.4634	329.59	83.1585	329.59	81.1449	329.59	82.8075	329.59	80.9657	329.59	82.4361	329.59	80.9244	329.59	82.076	329.59	80.9892	329.59	81.7588	329.59	81.1195	329.59	81.4989	329.59	81.29
341.309	85.4139	341.309	85.2691	341.309	85.5032	341.309	85.0863	341.309	85.5224	341.309	84.8804	341.309	85.4652	341.309	84.6584	341.309	85.3358	341.309	84.4178	341.309	85.1498	341.309	84.1479	341.309	84.9312	341.309	83.8359	341.309	84.7052	341.309	83.4732	341.309	84.4888	341.309	83.0615	341.309	84.2825	341.309	82.6172	341.309	84.0692	341.309	82.1736	341.309	83.823	341.309	81.7766	341.309	83.5229	341.309	81.4732	341.309	83.1664	341.309	81.2939	341.309	82.7744	341.309	81.239	341.309	82.3864	341.309	81.2831	341.309	82.0429	341.309	81.3941	341.309	81.7662	341.309	81.5542
353.027	85.051	353.027	84.8307	353.027	85.194	353.027	84.5594	353.027	85.2392	353.027	84.2632	353.027	85.1769	353.027	83.9599	353.027	85.0112	353.027	83.6546	353.027	84.7616	353.027	83.339	353.027	84.461	353.027	82.9967	353.027	84.1489	353.027	82.6121	353.027	83.8574	353.027	82.1793	353.027	83.5968	353.027	81.7106	353.027	83.3498	353.027	81.2417	353.027	83.0822	353.027	80.8298	353.027	82.7642	353.027	80.5379	353.027	82.3907	353.027	80.4051	353.027	81.9889	353.027	80.4224	353.027	81.6087	353.027	80.5395	353.027	81.2942	353.027	80.6986	353.027	81.0558	353.027	80.8682
366.211	85.1461	366.211	84.9456	366.211	85.2725	366.211	84.6922	366.211	85.3083	366.211	84.4064	366.211	85.2472	366.211	84.1018	366.211	85.0958	366.211	83.7814	366.211	84.8751	366.211	83.4384	366.211	84.6176	366.211	83.0598	366.211	84.3574	366.211	82.6327	366.211	84.1146	366.211	82.1501	366.211	83.881	366.211	81.6161	366.211	83.6187	366.211	81.0504	366.211	83.2756	366.211	80.4904	366.211	82.8085	366.211	79.9886	366.211	82.2057	366.211	79.5983	366.211	81.5026	366.211	79.3524	366.211	80.7835	366.211	79.25	366.211	80.1549	366.211	79.2713	366.211	79.6938	366.211	79.4106
379.395	85.3917	379.395	85.1874	379.395	85.5062	379.395	84.9182	379.395	85.5102	379.395	84.6068	379.395	85.3934	379.395	84.2686	379.395	85.1619	379.395	83.909	379.395	84.8433	379.395	83.5259	379.395	84.4887	379.395	83.1155	379.395	84.1651	379.395	82.678	379.395	83.9308	379.395	82.2219	379.395	83.8016	379.395	81.7648	379.395	83.7356	379.395	81.3315	379.395	83.6538	379.395	80.9498	379.395	83.4785	379.395	80.6452	379.395	83.1634	379.395	80.4359	379.395	82.7076	379.395	80.3309	379.395	82.1555	379.395	80.334	379.395	81.585	379.395	80.4513	379.395	81.0797	379.395	80.6965
392.578	85.2188	392.578	85.0085	392.578	85.3574	392.578	84.7546	392.578	85.3984	392.578	84.4785	392.578	85.3247	392.578	84.1875	392.578	85.134	392.578	83.8728	392.578	84.842	392.578	83.5154	392.578	84.4859	392.578	83.097	392.578	84.1212	392.578	82.6113	392.578	83.8071	392.578	82.0734	392.578	83.5788	392.578	81.5236	392.578	83.4248	392.578	81.0248	392.578	83.2911	392.578	80.6457	392.578	83.1124	392.578	80.4341	392.578	82.8467	392.578	80.3934	392.578	82.4938	392.578	80.4844	392.578	82.0932	392.578	80.6524	392.578	81.7025	392.578	80.8572	392.578	81.3651	392.578	81.0894
405.762	84.5369	405.762	84.2935	405.762	84.7027	405.762	84.0162	405.762	84.7547	405.762	83.7428	405.762	84.672	405.762	83.4911	405.762	84.4541	405.762	83.253	405.762	84.1261	405.762	83	405.762	83.7423	405.762	82.6985	405.762	83.3812	405.762	82.3254	405.762	83.1213	405.762	81.8784	405.762	82.9989	405.762	81.3817	405.762	82.9803	405.762	80.8865	405.762	82.98	405.762	80.4627	405.762	82.909	405.762	80.178	405.762	82.7135	405.762	80.0681	405.762	82.39	405.762	80.1204	405.762	81.9798	405.762	80.2884	405.762	81.5481	405.762	80.5257	405.762	81.1509	405.762	80.8118
420.41	85.6545	420.41	85.2839	420.41	85.9066	420.41	84.8374	420.41	86.0077	420.41	84.3608	420.41	85.9377	420.41	83.8905	420.41	85.6903	420.41	83.4407	420.41	85.2754	420.41	83.0009	420.41	84.7252	420.41	82.5464	420.41	84.1013	420.41	82.0561	420.41	83.4941	420.41	81.5297	420.41	82.9986	420.41	80.9961	420.41	82.6656	420.41	80.514	420.41	82.4677	420.41	80.1567	420.41	82.325	420.41	79.983	420.41	82.1641	420.41	80.0054	420.41	81.9566	420.41	80.1831	420.41	81.7167	420.41	80.4456	420.41	81.4723	420.41	80.7274	420.41	81.2345	420.41	80.9916
435.059	85.6075	435.059	85.3365	435.059	85.7841	435.059	85.0111	435.059	85.8373	435.059	84.6718	435.059	85.7535	435.059	84.3437	435.059	85.5357	435.059	84.025	435.059	85.2038	435.059	83.6881	435.059	84.7952	435.059	83.2948	435.059	84.361	435.059	82.8159	435.059	83.9531	435.059	82.248	435.059	83.6001	435.059	81.6245	435.059	83.288	435.059	81.0189	435.059	82.9638	435.059	80.5321	435.059	82.5697	435.059	80.2502	435.059	82.0865	435.059	80.1912	435.059	81.5622	435.059	80.2902	435.059	81.1025	435.059	80.4426	435.059	80.8037	435.059	80.5632	435.059	80.6727	435.059	80.6251
451.172	85.3204	451.172	84.9803	451.172	85.5245	451.172	84.5588	451.172	85.5581	451.172	84.1212	451.172	85.4094	451.172	83.7206	451.172	85.0902	451.172	83.3729	451.172	84.6394	451.172	83.0486	451.172	84.1277	451.172	82.6902	451.172	83.6529	451.172	82.2423	451.172	83.3074	451.172	81.6755	451.172	83.1205	451.172	81.0042	451.172	83.0237	451.172	80.3005	451.172	82.8838	451.172	79.6942	451.172	82.5744	451.172	79.3279	451.172	82.0322	451.172	79.2582	451.172	81.296	451.172	79.3981	451.172	80.5284	451.172	79.5835	451.172	79.9615	451.172	79.6875	451.172	79.7178	451.172	79.6931
465.82	85.1319	465.82	84.8445	465.82	85.2941	465.82	84.4862	465.82	85.2949	465.82	84.1182	465.82	85.1178	465.82	83.7857	465.82	84.7667	465.82	83.4936	465.82	84.2707	465.82	83.2024	465.82	83.6953	465.82	82.8468	465.82	83.1522	465.82	82.3632	465.82	82.7782	465.82	81.7076	465.82	82.655	465.82	80.866	465.82	82.7244	465.82	79.8642	465.82	82.8067	465.82	78.7837	465.82	82.7033	465.82	77.7722	465.82	82.27	465.82	77.0035	465.82	81.4423	465.82	76.5676	465.82	80.2544	465.82	76.414	465.82	78.8788	465.82	76.4742	465.82	77.6351	465.82	76.8249
483.398	85.0245	483.398	84.5495	483.398	85.2884	483.398	83.9588	483.398	85.2934	483.398	83.4029	483.398	85.0214	483.398	83.0445	483.398	84.4746	483.398	82.955	483.398	83.6812	483.398	83.0541	483.398	82.7277	483.398	83.1781	483.398	81.823	483.398	83.1835	483.398	81.3276	483.398	82.9899	483.398	81.5283	483.398	82.5753	483.398	82.2835	483.398	81.965	483.398	83.1658	483.398	81.2273	483.398	83.833	483.398	80.4715	483.398	84.1158	483.398	79.8333	483.398	83.9608	483.398	79.4411	483.398	83.3895	483.398	79.3864	483.398	82.4921	483.398	79.7211	483.398	81.4343	483.398	80.4405
499.512	87.0047	499.512	86.472	499.512	87.2885	499.512	85.7169	499.512	87.3172	499.512	84.8094	499.512	87.0903	499.512	83.8926	499.512	86.6058	499.512	83.1761	499.512	85.8562	499.512	82.8326	499.512	84.8317	499.512	82.8515	499.512	83.5417	499.512	83.0563	499.512	82.094	499.512	83.2608	499.512	80.8804	499.512	83.3616	499.512	80.6069	499.512	83.3391	499.512	81.4744	499.512	83.2305	499.512	82.7924	499.512	83.1042	499.512	83.9321	499.512	83.0358	499.512	84.6588	499.512	83.0857	499.512	84.9498	499.512	83.2859	499.512	84.8717	499.512	83.633	499.512	84.5371	499.512	84.0813
517.09	87.2861	517.09	86.8546	517.09	87.5182	517.09	86.2381	517.09	87.5482	517.09	85.4699	517.09	87.3789	517.09	84.6117	517.09	87.0158	517.09	83.7562	517.09	86.4634	517.09	83.0116	517.09	85.7232	517.09	82.4597	517.09	84.7948	517.09	82.117	517.09	83.6894	517.09	81.9425	517.09	82.4782	517.09	81.8854	517.09	81.3973	517.09	81.9254	517.09	80.8984	517.09	82.0737	517.09	81.2791	517.09	82.3458	517.09	82.2316	517.09	82.7311	517.09	83.2288	517.09	83.1855	517.09	83.9727	517.09	83.648	517.09	84.3848	517.09	84.0586	517.09	84.4924	517.09	84.3605
536.133	86.5346	536.133	86.0966	536.133	86.7606	536.133	85.4719	536.133	86.7703	536.133	84.7161	536.133	86.5733	536.133	83.921	536.133	86.1896	536.133	83.2	536.133	85.6477	536.133	82.6427	536.133	84.9824	536.133	82.2628	536.133	84.2313	536.133	81.9986	536.133	83.4322	536.133	81.7731	536.133	82.6305	536.133	81.5556	536.133	81.9061	536.133	81.3881	536.133	81.4061	536.133	81.3684	536.133	81.3086	536.133	81.5823	536.133	81.6652	536.133	82.0252	536.133	82.3062	536.133	82.5918	536.133	82.9757	536.133	83.1424	536.133	83.4901	536.133	83.5642	536.133	83.766	536.133	83.7854
555.176	87.2028	555.176	86.7702	555.176	87.3937	555.176	86.106	555.176	87.3414	555.176	85.2355	555.176	87.0509	555.176	84.2111	555.176	86.5339	555.176	83.126	555.176	85.8127	555.176	82.1146	555.176	84.9261	555.176	81.3118	555.176	83.9375	555.176	80.7762	555.176	82.9389	555.176	80.4616	555.176	82.0396	555.176	80.2839	555.176	81.3331	555.176	80.2117	555.176	80.8735	555.176	80.2931	555.176	80.6925	555.176	80.5995	555.176	80.8168	555.176	81.1274	555.176	81.2234	555.176	81.7627	555.176	81.7923	555.176	82.3451	555.176	82.348	555.176	82.7431	555.176	82.7406	555.176	82.8821
574.219	86.9588	574.219	86.6144	574.219	87.108	574.219	86.0878	574.219	87.0556	574.219	85.4016	574.219	86.8	574.219	84.5901	574.219	86.3452	574.219	83.6994	574.219	85.7027	574.219	82.7836	574.219	84.8978	574.219	81.8968	574.219	83.977	574.219	81.0847	574.219	83.0168	574.219	80.3813	574.219	82.1217	574.219	79.8185	574.219	81.4011	574.219	79.4481	574.219	80.9291	574.219	79.3495	574.219	80.7267	574.219	79.5864	574.219	80.7776	574.219	80.1238	574.219	81.0365	574.219	80.809	574.219	81.4176	574.219	81.453	574.219	81.8011	574.219	81.913	574.219	82.0656	574.219	82.1189
594.727	86.6188	594.727	86.2573	594.727	86.7637	594.727	85.7037	594.727	86.6836	594.727	85.003	594.727	86.382	594.727	84.221	594.727	85.8741	594.727	83.4325	594.727	85.1881	594.727	82.6946	594.727	84.3713	594.727	82.0205	594.727	83.4946	594.727	81.3799	594.727	82.6505	594.727	80.7331	594.727	81.9264	594.727	80.079	594.727	81.3661	594.727	79.5017	594.727	80.9635	594.727	79.1838	594.727	80.7169	594.727	79.3111	594.727	80.6752	594.727	79.8815	594.727	80.8878	594.727	80.6714	594.727	81.3023	594.727	81.4155	594.727	81.7588	594.727	81.9383	594.727	82.085	594.727	82.1631
615.234	86.8326	615.234	86.4586	615.234	86.971	615.234	85.8715	615.234	86.866	615.234	85.116	615.234	86.5199	615.234	84.265	615.234	85.9431	615.234	83.4142	615.234	85.1552	615.234	82.653	615.234	84.1918	615.234	82.019	615.234	83.118	615.234	81.4758	615.234	82.0478	615.234	80.9427	615.234	81.137	615.234	80.3552	615.234	80.5052	615.234	79.7293	615.234	80.137	615.234	79.2195	615.234	79.9263	615.234	79.0969	615.234	79.8415	615.234	79.5164	615.234	79.9849	615.234	80.2943	615.234	80.4279	615.234	81.0784	615.234	81.0341	615.234	81.6087	615.234	81.5469	615.234	81.7679
637.207	86.5241	637.207	86.1346	637.207	86.6964	637.207	85.5459	637.207	86.6439	637.207	84.7938	637.207	86.3657	637.207	83.9382	637.207	85.8658	637.207	83.0624	637.207	85.154	637.207	82.2554	637.207	84.2504	637.207	81.5772	637.207	83.1994	637.207	81.0278	637.207	82.0923	637.207	80.5501	637.207	81.081	637.207	80.07	637.207	80.3325	637.207	79.5579	637.207	79.9164	637.207	79.0966	637.207	79.7663	637.207	78.9049	637.207	79.7886	637.207	79.1844	637.207	79.9599	637.207	79.8532	637.207	80.2915	637.207	80.5886	637.207	80.7264	637.207	81.1057	637.207	81.1126	637.207	81.2768
659.18	86.316	659.18	85.9507	659.18	86.4379	659.18	85.3565	659.18	86.3205	659.18	84.5722	659.18	85.98	659.18	83.6638	659.18	85.4405	659.18	82.7158	659.18	84.7304	659.18	81.8077	659.18	83.8841	659.18	80.9855	659.18	82.9499	659.18	80.2549	659.18	81.9995	659.18	79.6007	659.18	81.1227	659.18	79.015	659.18	80.39	659.18	78.523	659.18	79.8158	659.18	78.2107	659.18	79.3973	659.18	78.2242	659.18	79.2078	659.18	78.6608	659.18	79.3735	659.18	79.4156	659.18	79.878	659.18	80.2202	659.18	80.4915	659.18	80.8219	659.18	80.9471	659.18	81.0767
682.617	86.2827	682.617	85.9297	682.617	86.3783	682.617	85.3302	682.617	86.222	682.617	84.525	682.617	85.827	682.617	83.5983	682.617	85.2093	682.617	82.6745	682.617	84.3879	682.617	81.8727	682.617	83.3949	682.617	81.2336	682.617	82.3013	682.617	80.6925	682.617	81.2543	682.617	80.137	682.617	80.4566	682.617	79.4855	682.617	80.0028	682.617	78.7468	682.617	79.7353	682.617	78.0818	682.617	79.4009	682.617	77.8197	682.617	78.9466	682.617	78.2127	682.617	78.6669	682.617	79.0816	682.617	78.9434	682.617	79.9837	682.617	79.6725	682.617	80.5823	682.617	80.3792	682.617	80.7221
707.52	87.0604	707.52	86.6983	707.52	87.1405	707.52	86.0564	707.52	86.9536	707.52	85.1659	707.52	86.5214	707.52	84.1018	707.52	85.8663	707.52	82.9869	707.52	85.0055	707.52	81.964	707.52	83.9517	707.52	81.1282	707.52	82.7312	707.52	80.4781	707.52	81.4339	707.52	79.9395	707.52	80.2896	707.52	79.4302	707.52	79.6192	707.52	78.9166	707.52	79.4946	707.52	78.4737	707.52	79.5913	707.52	78.3366	707.52	79.6093	707.52	78.7619	707.52	79.6066	707.52	79.6681	707.52	79.8846	707.52	80.6413	707.52	80.5131	707.52	81.3068	707.52	81.1645	707.52	81.4842
732.422	87.2661	732.422	86.9816	732.422	87.2671	732.422	86.4112	732.422	87.0007	732.422	85.5715	732.422	86.4943	732.422	84.512	732.422	85.7835	732.422	83.335	732.422	84.9056	732.422	82.2053	732.422	83.8933	732.422	81.2998	732.422	82.7848	732.422	80.6869	732.422	81.6634	732.422	80.2621	732.422	80.701	732.422	79.8386	732.422	80.0837	732.422	79.291	732.422	79.7856	732.422	78.6688	732.422	79.5572	732.422	78.2856	732.422	79.2569	732.422	78.5543	732.422	79.1028	732.422	79.4386	732.422	79.453	732.422	80.4356	732.422	80.2251	732.422	81.1174	732.422	80.9567	732.422	81.2979
757.324	87.2057	757.324	86.9412	757.324	87.1755	757.324	86.3796	757.324	86.8705	757.324	85.5418	757.324	86.3238	757.324	84.4852	757.324	85.5752	757.324	83.3197	757.324	84.6597	757.324	82.2023	757.324	83.5965	757.324	81.2784	757.324	82.3972	757.324	80.5896	757.324	81.1168	757.324	80.0515	757.324	79.9519	757.324	79.5353	757.324	79.2472	757.324	78.9659	757.324	79.1348	757.324	78.4047	757.324	79.2563	757.324	78.1116	757.324	79.2002	757.324	78.3985	757.324	78.9641	757.324	79.2103	757.324	78.9712	757.324	80.1051	757.324	79.5159	757.324	80.6768	757.324	80.2662	757.324	80.7308
785.156	87.2683	785.156	86.9455	785.156	87.2866	785.156	86.3281	785.156	87.0114	785.156	85.4556	785.156	86.4699	785.156	84.4055	785.156	85.7004	785.156	83.2922	785.156	84.7414	785.156	82.2349	785.156	83.6137	785.156	81.298	785.156	82.3063	785.156	80.4556	785.156	80.7964	785.156	79.6191	785.156	79.153	785.156	78.6973	785.156	77.7458	785.156	77.6649	785.156	77.1844	785.156	76.7045	785.156	77.4827	785.156	76.3857	785.156	78.0276	785.156	77.2073	785.156	78.541	785.156	78.6993	785.156	79.1698	785.156	80.0593	785.156	79.9808	785.156	80.8881	785.156	80.7262	785.156	81.0914
811.523	86.7739	811.523	86.5863	811.523	86.6314	811.523	86.0559	811.523	86.1907	811.523	85.1921	811.523	85.5029	811.523	84.04	811.523	84.6341	811.523	82.7127	811.523	83.6479	811.523	81.4285	811.523	82.5798	811.523	80.4642	811.523	81.4229	811.523	79.9382	811.523	80.1581	811.523	79.66	811.523	78.8363	811.523	79.303	811.523	77.6644	811.523	78.6225	811.523	76.9151	811.523	77.5743	811.523	76.6257	811.523	76.5411	811.523	76.6562	811.523	76.4584	811.523	77.0749	811.523	77.5983	811.523	77.9897	811.523	79.0076	811.523	79.1077	811.523	79.9731	811.523	79.9688	811.523	80.2932
840.82	86.6463	840.82	86.4924	840.82	86.4728	840.82	85.9888	840.82	86.008	840.82	85.1264	840.82	85.3063	840.82	83.9204	840.82	84.4383	840.82	82.4415	840.82	83.4706	840.82	80.8779	840.82	82.4335	840.82	79.5845	840.82	81.3076	840.82	78.916	840.82	80.0476	840.82	78.831	840.82	78.6385	840.82	78.9026	840.82	77.1695	840.82	78.7077	840.82	75.8753	840.82	78.0089	840.82	75.0231	840.82	76.8781	840.82	74.7891	840.82	76.0938	840.82	75.4043	840.82	76.7803	840.82	76.8579	840.82	78.3662	840.82	78.5038	840.82	79.6244	840.82	79.6824	840.82	80.0856
870.117	86.9805	870.117	86.9343	870.117	86.7192	870.117	86.5791	870.117	86.1701	870.117	85.9173	870.117	85.3813	870.117	84.9458	870.117	84.4292	870.117	83.6689	870.117	83.4034	870.117	82.1473	870.117	82.3864	870.117	80.5903	870.117	81.4508	870.117	79.3964	870.117	80.668	870.117	78.8804	870.117	80.0585	870.117	78.8786	870.117	79.451	870.117	78.9633	870.117	78.4179	870.117	78.8781	870.117	76.4061	870.117	78.6834	870.117	73.4243	870.117	78.7147	870.117	73.2733	870.117	79.2368	870.117	76.6443	870.117	80.0469	870.117	79.1919	870.117	80.716	870.117	80.5145	870.117	80.9399
900.879	89.2522	900.879	89.1301	900.879	88.9979	900.879	88.649	900.879	88.3937	900.879	87.8606	900.879	87.5071	900.879	86.8197	900.879	86.431	900.879	85.5379	900.879	85.2466	900.879	83.9742	900.879	83.9839	900.879	82.1307	900.879	82.6371	900.879	80.2934	900.879	81.3076	900.879	79.2011	900.879	80.4215	900.879	79.2312	900.879	80.3918	900.879	79.6762	900.879	80.6508	900.879	79.8727	900.879	80.0169	900.879	79.8993	900.879	77.3621	900.879	80.4605	900.879	73.302	900.879	81.8951	900.879	77.5979	900.879	83.5386	900.879	82.1049	900.879	84.7087	900.879	84.3404	900.879	85.0651
933.105	88.4512	933.105	88.1529	933.105	88.3169	933.105	87.4318	933.105	87.7979	933.105	86.4044	933.105	86.9725	933.105	85.3087	933.105	85.9357	933.105	84.3562	933.105	84.778	933.105	83.4817	933.105	83.5425	933.105	82.3881	933.105	82.1925	933.105	80.8207	933.105	80.682	933.105	78.7474	933.105	79.2848	933.105	76.549	933.105	78.9492	933.105	75.1165	933.105	79.8399	933.105	75.0084	933.105	80.3805	933.105	76.1625	933.105	79.0271	933.105	78.4727	933.105	73.2218	933.105	81.1209	933.105	65.7523	933.105	83.2411	933.105	78.8457	933.105	84.438	933.105	82.9659	933.105	84.4765
965.332	88.6539	965.332	88.6292	965.332	88.2511	965.332	88.1	965.332	87.5173	965.332	87.0278	965.332	86.5729	965.332	85.4786	965.332	85.5553	965.332	83.7392	965.332	84.5648	965.332	82.3198	965.332	83.5855	965.332	81.5126	965.332	82.4686	965.332	81.0624	965.332	81.0183	965.332	80.6241	965.332	79.2052	965.332	80.0793	965.332	77.7801	965.332	79.367	965.332	78.2499	965.332	78.2346	965.332	79.7711	965.332	76.29	965.332	80.4137	965.332	74.0433	965.332	79.1679	965.332	74.8941	965.332	74.8497	965.332	77.7176	965.332	68.6447	965.332	79.2486	965.332	75.3577	965.332	78.7424
1,000.49	88.9825	1,000.49	88.864	1,000.49	88.5899	1,000.49	88.2308	1,000.49	87.7271	1,000.49	87.1023	1,000.49	86.5052	1,000.49	85.5302	1,000.49	85.121	1,000.49	83.6295	1,000.49	83.7984	1,000.49	81.6208	1,000.49	82.6621	1,000.49	79.8503	1,000.49	81.6631	1,000.49	78.6971	1,000.49	80.6201	1,000.49	78.3117	1,000.49	79.3552	1,000.49	78.4318	1,000.49	78.0262	1,000.49	78.5635	1,000.49	77.4818	1,000.49	78.297	1,000.49	77.9514	1,000.49	77.5566	1,000.49	78.0271	1,000.49	77.0019	1,000.49	76.5276	1,000.49	77.7518	1,000.49	73.9013	1,000.49	79.3124	1,000.49	75.2274	1,000.49	80.3606	1,000.49	78.5306	1,000.49	80.2272
1,035.64	88.644	1,035.64	88.5266	1,035.64	88.2331	1,035.64	87.8693	1,035.64	87.3547	1,035.64	86.7033	1,035.64	86.1389	1,035.64	85.1089	1,035.64	84.7804	1,035.64	83.2084	1,035.64	83.4543	1,035.64	81.1305	1,035.64	82.2005	1,035.64	79.0185	1,035.64	80.9416	1,035.64	77.213	1,035.64	79.6148	1,035.64	76.3286	1,035.64	78.3005	1,035.64	76.4541	1,035.64	77.3994	1,035.64	76.7776	1,035.64	77.4578	1,035.64	76.6316	1,035.64	77.9823	1,035.64	76.1961	1,035.64	77.5485	1,035.64	76.7694	1,035.64	74.7729	1,035.64	78.7733	1,035.64	70.5062	1,035.64	80.7624	1,035.64	75.6242	1,035.64	81.8408	1,035.64	79.8791	1,035.64	81.6773
1,072.27	88.5168	1,072.27	88.5937	1,072.27	87.8186	1,072.27	87.9099	1,072.27	86.7031	1,072.27	86.4018	1,072.27	85.4272	1,072.27	84.1606	1,072.27	84.2326	1,072.27	81.6769	1,072.27	83.2096	1,072.27	79.9556	1,072.27	82.2007	1,072.27	79.3339	1,072.27	80.8879	1,072.27	78.8987	1,072.27	79.0133	1,072.27	77.8962	1,072.27	76.6712	1,072.27	76.1164	1,072.27	74.9332	1,072.27	73.6622	1,072.27	75.8158	1,072.27	70.5211	1,072.27	78.2296	1,072.27	68.8105	1,072.27	79.4379	1,072.27	74.183	1,072.27	77.8661	1,072.27	79.1922	1,072.27	71.4782	1,072.27	82.2728	1,072.27	75.368	1,072.27	83.7465	1,072.27	81.3492	1,072.27	83.6069
1,108.89	87.2891	1,108.89	87.7868	1,108.89	86.3228	1,108.89	87.6931	1,108.89	85.0554	1,108.89	86.8986	1,108.89	83.7694	1,108.89	85.3218	1,108.89	82.835	1,108.89	82.962	1,108.89	82.4386	1,108.89	80.1024	1,108.89	82.323	1,108.89	77.7729	1,108.89	81.9702	1,108.89	76.9927	1,108.89	80.9702	1,108.89	77.0217	1,108.89	79.1665	1,108.89	77.1698	1,108.89	76.586	1,108.89	77.3371	1,108.89	73.6136	1,108.89	76.813	1,108.89	74.5801	1,108.89	74.1106	1,108.89	78.8194	1,108.89	64.6257	1,108.89	81.0613	1,108.89	68.2726	1,108.89	80.608	1,108.89	75.6764	1,108.89	77.0984	1,108.89	77.604	1,108.89	73.0383	1,108.89	76.1658
1,148.44	86.5303	1,148.44	86.4272	1,148.44	86.2643	1,148.44	86.0335	1,148.44	85.5919	1,148.44	85.3939	1,148.44	84.5615	1,148.44	84.4441	1,148.44	83.2993	1,148.44	83.0109	1,148.44	81.9457	1,148.44	80.9286	1,148.44	80.6006	1,148.44	78.3398	1,148.44	79.3146	1,148.44	76.2294	1,148.44	78.1303	1,148.44	75.6364	1,148.44	77.1542	1,148.44	75.8082	1,148.44	76.2836	1,148.44	75.9388	1,148.44	74.704	1,148.44	75.7159	1,148.44	72.0782	1,148.44	74.5183	1,148.44	73.8084	1,148.44	71.4225	1,148.44	77.5517	1,148.44	65.6468	1,148.44	78.7106	1,148.44	64.1026	1,148.44	77.0654	1,148.44	66.2986	1,148.44	72.5015	1,148.44	67.0113
1,189.45	86.5665	1,189.45	86.3188	1,189.45	86.2586	1,189.45	85.6243	1,189.45	85.3786	1,189.45	84.61	1,189.45	84.074	1,189.45	83.3718	1,189.45	82.6447	1,189.45	81.9416	1,189.45	81.3639	1,189.45	80.2748	1,189.45	80.2454	1,189.45	78.3194	1,189.45	79.0365	1,189.45	76.2491	1,189.45	77.446	1,189.45	74.8484	1,189.45	75.5102	1,189.45	74.9274	1,189.45	74.0376	1,189.45	75.6876	1,189.45	73.4486	1,189.45	75.8195	1,189.45	72.7007	1,189.45	74.5526	1,189.45	72.4601	1,189.45	71.3171	1,189.45	73.8562	1,189.45	66.9378	1,189.45	74.641	1,189.45	69.1083	1,189.45	73.9862	1,189.45	72.3704	1,189.45	73.3404	1,189.45	73.3983
1,230.47	86.4513	1,230.47	86.0568	1,230.47	86.1624	1,230.47	85.0849	1,230.47	85.1948	1,230.47	83.7036	1,230.47	83.7155	1,230.47	82.0979	1,230.47	82.0459	1,230.47	80.4263	1,230.47	80.5016	1,230.47	78.7684	1,230.47	79.1542	1,230.47	77.0536	1,230.47	77.7856	1,230.47	75.1107	1,230.47	76.0749	1,230.47	73.2459	1,230.47	73.9755	1,230.47	72.9918	1,230.47	72.3473	1,230.47	74.3448	1,230.47	72.031	1,230.47	75.1883	1,230.47	72.029	1,230.47	74.4515	1,230.47	71.8303	1,230.47	71.6971	1,230.47	71.9036	1,230.47	67.9076	1,230.47	72.1901	1,230.47	69.4003	1,230.47	72.3298	1,230.47	72.0899	1,230.47	72.5781	1,230.47	72.8639
1,274.41	86.3395	1,274.41	85.9068	1,274.41	86.0544	1,274.41	84.9039	1,274.41	84.971	1,274.41	83.4257	1,274.41	83.1994	1,274.41	81.4608	1,274.41	81.1025	1,274.41	79.024	1,274.41	79.1778	1,274.41	76.5489	1,274.41	77.7708	1,274.41	74.776	1,274.41	76.8109	1,274.41	73.1836	1,274.41	75.8172	1,274.41	70.2283	1,274.41	74.2957	1,274.41	66.412	1,274.41	72.3035	1,274.41	69.5937	1,274.41	70.5461	1,274.41	72.8795	1,274.41	69.5134	1,274.41	73.4087	1,274.41	69.7121	1,274.41	71.3812	1,274.41	70.0627	1,274.41	67.3481	1,274.41	68.965	1,274.41	68.541	1,274.41	69.124	1,274.41	72.1722	1,274.41	71.9198	1,274.41	73.2621
1,319.82	86.0845	1,319.82	85.6731	1,319.82	85.7359	1,319.82	84.6177	1,319.82	84.6325	1,319.82	83.0547	1,319.82	82.8906	1,319.82	80.9853	1,319.82	80.6382	1,319.82	78.2168	1,319.82	78.0935	1,319.82	74.8638	1,319.82	75.8479	1,319.82	72.8862	1,319.82	74.5058	1,319.82	73.2117	1,319.82	73.649	1,319.82	73.0012	1,319.82	72.0621	1,319.82	70.772	1,319.82	69.1627	1,319.82	68.0479	1,319.82	67.9043	1,319.82	70.4904	1,319.82	70.1287	1,319.82	72.0041	1,319.82	72.0927	1,319.82	70.059	1,319.82	72.593	1,319.82	64.4124	1,319.82	70.34	1,319.82	64.6424	1,319.82	67.1461	1,319.82	69.9667	1,319.82	70.7677	1,319.82	72.126
1,366.7	86.0454	1,366.7	85.4966	1,366.7	85.8731	1,366.7	84.3157	1,366.7	84.8881	1,366.7	82.5609	1,366.7	83.0501	1,366.7	80.2381	1,366.7	80.4272	1,366.7	77.2207	1,366.7	77.3103	1,366.7	73.1368	1,366.7	74.5294	1,366.7	68.0701	1,366.7	73.2423	1,366.7	67.1754	1,366.7	73.2553	1,366.7	69.1543	1,366.7	72.9286	1,366.7	68.4996	1,366.7	70.6285	1,366.7	65.4757	1,366.7	66.1433	1,366.7	67.5808	1,366.7	66.7719	1,366.7	69.9441	1,366.7	69.6681	1,366.7	69.3707	1,366.7	71.4669	1,366.7	66.9015	1,366.7	71.1614	1,366.7	63.5183	1,366.7	68.2748	1,366.7	67.3252	1,366.7	69.1983	1,366.7	70.4179
1,413.57	85.5271	1,413.57	85.0048	1,413.57	85.2947	1,413.57	83.7755	1,413.57	84.1934	1,413.57	81.837	1,413.57	82.0647	1,413.57	79.2374	1,413.57	78.697	1,413.57	76.058	1,413.57	74.414	1,413.57	71.8943	1,413.57	72.1567	1,413.57	64.7276	1,413.57	72.317	1,413.57	55.7233	1,413.57	72.6204	1,413.57	63.1327	1,413.57	72.6717	1,413.57	63.2226	1,413.57	71.3243	1,413.57	59.9278	1,413.57	68.4618	1,413.57	60.3895	1,413.57	66.0481	1,413.57	63.9044	1,413.57	62.2646	1,413.57	67.0774	1,413.57	65.7792	1,413.57	68.2269	1,413.57	70.0123	1,413.57	68.2354	1,413.57	70.2422	1,413.57	69.1325	1,413.57	69.3033	1,413.57	69.5675
1,463.38	85.2599	1,463.38	84.4975	1,463.38	84.8703	1,463.38	82.9168	1,463.38	83.1268	1,463.38	80.826	1,463.38	80.0111	1,463.38	78.3128	1,463.38	75.7056	1,463.38	75.2654	1,463.38	71.2696	1,463.38	71.4407	1,463.38	70.2145	1,463.38	66.3018	1,463.38	71.0576	1,463.38	58.4239	1,463.38	71.4081	1,463.38	49.5668	1,463.38	71.5308	1,463.38	58.6236	1,463.38	70.5308	1,463.38	58.0348	1,463.38	67.7578	1,463.38	34.3263	1,463.38	66.0076	1,463.38	60.3736	1,463.38	65.2795	1,463.38	65.1375	1,463.38	61.7745	1,463.38	66.3725	1,463.38	62.8429	1,463.38	67.2282	1,463.38	68.9563	1,463.38	69.4787	1,463.38	71.6377	1,463.38	71.4728
1,516.11	85.0578	1,516.11	84.5877	1,516.11	84.4548	1,516.11	83.1805	1,516.11	82.5112	1,516.11	80.7895	1,516.11	78.7556	1,516.11	77.1951	1,516.11	72.086	1,516.11	72.5974	1,516.11	59.3696	1,516.11	68.8035	1,516.11	68.6751	1,516.11	66.0938	1,516.11	72.1832	1,516.11	60.6001	1,516.11	73.3106	1,516.11	50.3697	1,516.11	74.0062	1,516.11	61.8321	1,516.11	73.3549	1,516.11	60.7979	1,516.11	70.239	1,516.11	45.9369	1,516.11	67.5215	1,516.11	57.8064	1,516.11	66.9262	1,516.11	57.456	1,516.11	64.6177	1,516.11	57.6809	1,516.11	55.3667	1,516.11	64.0874	1,516.11	65.6411	1,516.11	70.5075	1,516.11	72.5124	1,516.11	73.4816
1,568.85	84.9838	1,568.85	84.6473	1,568.85	84.5019	1,568.85	83.5338	1,568.85	82.5085	1,568.85	81.2436	1,568.85	77.5558	1,568.85	77.2466	1,568.85	63.2488	1,568.85	70.9021	1,568.85	69.5255	1,568.85	61.2977	1,568.85	74.4734	1,568.85	58.3799	1,568.85	74.9001	1,568.85	56.1105	1,568.85	73.8052	1,568.85	56.8503	1,568.85	74.4157	1,568.85	65.5292	1,568.85	74.9409	1,568.85	64.531	1,568.85	72.456	1,568.85	54.0299	1,568.85	69.5616	1,568.85	56.4358	1,568.85	69.9323	1,568.85	55.9462	1,568.85	68.2305	1,568.85	60.7434	1,568.85	64.6963	1,568.85	61.3994	1,568.85	56.4589	1,568.85	70.3104	1,568.85	70.4799	1,568.85	73.2665
1,624.51	85.3892	1,624.51	84.949	1,624.51	84.8828	1,624.51	83.9885	1,624.51	82.2151	1,624.51	82.1842	1,624.51	75.0161	1,624.51	79.2095	1,624.51	66.8617	1,624.51	75.2519	1,624.51	75.1468	1,624.51	70.5959	1,624.51	77.1519	1,624.51	64.558	1,624.51	76.7079	1,624.51	61.8019	1,624.51	74.362	1,624.51	68.0116	1,624.51	72.8877	1,624.51	71.5636	1,624.51	74.2319	1,624.51	69.6486	1,624.51	72.3035	1,624.51	54.0411	1,624.51	68.3624	1,624.51	63.2232	1,624.51	71.0224	1,624.51	65.0736	1,624.51	70.5458	1,624.51	66.4965	1,624.51	66.8221	1,624.51	64.1266	1,624.51	57.9854	1,624.51	68.1472	1,624.51	67.718	1,624.51	71.102
1,681.64	85.5173	1,681.64	84.9545	1,681.64	84.5999	1,681.64	83.5749	1,681.64	81.1808	1,681.64	81.5005	1,681.64	73.4559	1,681.64	78.5852	1,681.64	65.4628	1,681.64	75.2204	1,681.64	72.1345	1,681.64	71.3708	1,681.64	76.013	1,681.64	64.6017	1,681.64	77.9637	1,681.64	43.0436	1,681.64	77.2578	1,681.64	58.2398	1,681.64	75.211	1,681.64	61.7893	1,681.64	76.2387	1,681.64	64.8856	1,681.64	76.15	1,681.64	64.7612	1,681.64	72.644	1,681.64	62.541	1,681.64	69.1253	1,681.64	65.2801	1,681.64	68.6357	1,681.64	66.7832	1,681.64	67.5853	1,681.64	64.1587	1,681.64	55.0522	1,681.64	65.5803	1,681.64	67.0367	1,681.64	69.732
1,741.7	85.8689	1,741.7	85.3143	1,741.7	84.7536	1,741.7	83.6514	1,741.7	80.9216	1,741.7	81.3645	1,741.7	71.3186	1,741.7	78.8529	1,741.7	65.8422	1,741.7	76.0772	1,741.7	71.3863	1,741.7	72.0103	1,741.7	73.6739	1,741.7	64.7102	1,741.7	76.8527	1,741.7	62.4259	1,741.7	77.7591	1,741.7	62.7274	1,741.7	75.6797	1,741.7	62.0035	1,741.7	73.9726	1,741.7	67.2445	1,741.7	74.8647	1,741.7	68.2736	1,741.7	73.9792	1,741.7	63.5929	1,741.7	70.6025	1,741.7	65.963	1,741.7	65.9589	1,741.7	70.7503	1,741.7	69.1233	1,741.7	69.4035	1,741.7	66.9961	1,741.7	67.6041	1,741.7	64.1819	1,741.7	68.8136
1,803.22	85.9025	1,803.22	85.7443	1,803.22	84.3096	1,803.22	84.1568	1,803.22	80.2654	1,803.22	81.5413	1,803.22	71.2334	1,803.22	78.2158	1,803.22	65.445	1,803.22	74.1999	1,803.22	74.0634	1,803.22	69.8071	1,803.22	75.7636	1,803.22	65.885	1,803.22	76.5274	1,803.22	65.8106	1,803.22	77.3103	1,803.22	62.9459	1,803.22	76.9343	1,803.22	61.666	1,803.22	75.6538	1,803.22	66.9629	1,803.22	73.8477	1,803.22	67.2381	1,803.22	72.3683	1,803.22	61.3401	1,803.22	70.5492	1,803.22	65.1947	1,803.22	67.6098	1,803.22	70.505	1,803.22	64.3694	1,803.22	69.3263	1,803.22	61.2281	1,803.22	67.483	1,803.22	69.8859	1,803.22	70.2399
1,866.21	85.7306	1,866.21	86.1017	1,866.21	83.7064	1,866.21	84.824	1,866.21	79.642	1,866.21	82.1015	1,866.21	70.2106	1,866.21	78.2669	1,866.21	69.7441	1,866.21	72.8994	1,866.21	77.1357	1,866.21	65.3252	1,866.21	78.2793	1,866.21	60.977	1,866.21	77.9951	1,866.21	63.6063	1,866.21	77.6769	1,866.21	60.9728	1,866.21	76.4218	1,866.21	56.5431	1,866.21	75.6156	1,866.21	65.2238	1,866.21	75.7073	1,866.21	62.476	1,866.21	75.139	1,866.21	62.3616	1,866.21	72.4124	1,866.21	66.3654	1,866.21	63.8705	1,866.21	65.4928	1,866.21	67.545	1,866.21	64.395	1,866.21	52.1598	1,866.21	67.0609	1,866.21	68.8768	1,866.21	70.6154
1,932.13	86.4372	1,932.13	86.053	1,932.13	84.3578	1,932.13	84.1477	1,932.13	78.8632	1,932.13	81.577	1,932.13	64.0235	1,932.13	78.1475	1,932.13	72.1507	1,932.13	71.691	1,932.13	77.2879	1,932.13	56.8231	1,932.13	77.7017	1,932.13	65.4137	1,932.13	76.2033	1,932.13	64.0923	1,932.13	75.9635	1,932.13	67.463	1,932.13	76.0726	1,932.13	72.4861	1,932.13	73.1715	1,932.13	72.6693	1,932.13	69.7751	1,932.13	63.1365	1,932.13	74.0156	1,932.13	65.1367	1,932.13	75.3555	1,932.13	67.0647	1,932.13	70.6616	1,932.13	57.2222	1,932.13	59.2542	1,932.13	63.1337	1,932.13	65.3992	1,932.13	68.4766	1,932.13	65.7889	1,932.13	70.2557
1,999.51	86.7351	1,999.51	86.1907	1,999.51	84.8062	1,999.51	83.7233	1,999.51	79.6412	1,999.51	80.1631	1,999.51	66.2998	1,999.51	75.6305	1,999.51	74.2788	1,999.51	67.0843	1,999.51	78.8188	1,999.51	66.1001	1,999.51	79.8617	1,999.51	69.0825	1,999.51	79.2877	1,999.51	68.1121	1,999.51	78.1359	1,999.51	65.8309	1,999.51	77.5825	1,999.51	69.8738	1,999.51	76.522	1,999.51	73.6383	1,999.51	73.1159	1,999.51	71.2944	1,999.51	71.1747	1,999.51	65.9619	1,999.51	72.7211	1,999.51	65.7907	1,999.51	72.8906	1,999.51	52.3737	1,999.51	67.8327	1,999.51	62.5575	1,999.51	62.8192	1,999.51	66.8366	1,999.51	68.6665	1,999.51	69.549
2,069.82	86.4768	2,069.82	86.0445	2,069.82	84.792	2,069.82	83.6151	2,069.82	79.922	2,069.82	79.0137	2,069.82	68.6955	2,069.82	72.0547	2,069.82	77.0249	2,069.82	61.0916	2,069.82	80.9245	2,069.82	64.6896	2,069.82	81.478	2,069.82	71.5368	2,069.82	80.4777	2,069.82	73.5132	2,069.82	78.8768	2,069.82	73.2094	2,069.82	77.94	2,069.82	73.6703	2,069.82	77.9687	2,069.82	75.3681	2,069.82	76.3432	2,069.82	73.3645	2,069.82	73.8113	2,069.82	66.2281	2,069.82	71.0118	2,069.82	61.947	2,069.82	70.5986	2,069.82	56.5206	2,069.82	69.6607	2,069.82	55.523	2,069.82	64.8807	2,069.82	52.3531	2,069.82	72.8791	2,069.82	66.4274
2,143.07	86.4629	2,143.07	85.7558	2,143.07	84.7572	2,143.07	83.2858	2,143.07	79.1264	2,143.07	78.6796	2,143.07	70.4355	2,143.07	69.4887	2,143.07	78.6794	2,143.07	61.8111	2,143.07	81.1231	2,143.07	67.5005	2,143.07	80.8445	2,143.07	69.1547	2,143.07	79.2145	2,143.07	71.5399	2,143.07	77.1607	2,143.07	72.6903	2,143.07	75.2528	2,143.07	70.9502	2,143.07	74.7432	2,143.07	72.3878	2,143.07	75.818	2,143.07	73.1802	2,143.07	76.2056	2,143.07	70.0642	2,143.07	73.5133	2,143.07	66.9484	2,143.07	66.6862	2,143.07	64.8138	2,143.07	69.6009	2,143.07	55.4541	2,143.07	55.844	2,143.07	55.0431	2,143.07	72.5695	2,143.07	69.552
2,219.24	87.0079	2,219.24	85.9338	2,219.24	85.8397	2,219.24	83.3765	2,219.24	79.6426	2,219.24	77.858	2,219.24	70.7814	2,219.24	68.4611	2,219.24	79.4913	2,219.24	72.3132	2,219.24	81.0081	2,219.24	73.7489	2,219.24	81.5559	2,219.24	72.053	2,219.24	81.8713	2,219.24	69.6903	2,219.24	80.7079	2,219.24	73.9252	2,219.24	78.8205	2,219.24	73.4558	2,219.24	77.8654	2,219.24	68.0446	2,219.24	75.559	2,219.24	72.2366	2,219.24	75.3602	2,219.24	73.8595	2,219.24	73.6441	2,219.24	71.3054	2,219.24	70.1349	2,219.24	64.656	2,219.24	69.5993	2,219.24	50.6323	2,219.24	65.5992	2,219.24	62.098	2,219.24	73.5211	2,219.24	68.7891
2,296.88	87.1925	2,296.88	85.526	2,296.88	85.8949	2,296.88	81.7742	2,296.88	79.5285	2,296.88	75.9416	2,296.88	66.9347	2,296.88	70.3036	2,296.88	80.1515	2,296.88	73.7643	2,296.88	83.805	2,296.88	78.384	2,296.88	83.8557	2,296.88	80.6342	2,296.88	82.452	2,296.88	78.4955	2,296.88	80.5763	2,296.88	74.9321	2,296.88	77.1696	2,296.88	77.7135	2,296.88	76.1702	2,296.88	76.1548	2,296.88	77.4288	2,296.88	69.9426	2,296.88	77.1001	2,296.88	70.742	2,296.88	75.8036	2,296.88	70.3906	2,296.88	67.1146	2,296.88	69.2042	2,296.88	66.6394	2,296.88	53.5656	2,296.88	65.5906	2,296.88	68.0117	2,296.88	73.8937	2,296.88	71.8081
2,378.91	87.3605	2,378.91	84.8091	2,378.91	86.2975	2,378.91	80.6964	2,378.91	80.1502	2,378.91	77.1565	2,378.91	62.2932	2,378.91	75.8835	2,378.91	79.1128	2,378.91	80.6677	2,378.91	83.9696	2,378.91	80.9036	2,378.91	83.8948	2,378.91	79.545	2,378.91	81.7777	2,378.91	79.858	2,378.91	80.7037	2,378.91	78.2966	2,378.91	78.1331	2,378.91	76.2949	2,378.91	75.4711	2,378.91	76.5762	2,378.91	77.0879	2,378.91	72.9764	2,378.91	73.8787	2,378.91	59.2828	2,378.91	75.2021	2,378.91	69.2493	2,378.91	71.0942	2,378.91	70.2602	2,378.91	68.8495	2,378.91	57.9523	2,378.91	62.8634	2,378.91	65.9755	2,378.91	73.2265	2,378.91	72.0911
2,462.4	87.2921	2,462.4	85.1787	2,462.4	86.8398	2,462.4	82.2021	2,462.4	81.6251	2,462.4	74.2341	2,462.4	71.4404	2,462.4	76.268	2,462.4	80.6601	2,462.4	81.3202	2,462.4	83.0924	2,462.4	80.3849	2,462.4	82.7776	2,462.4	78.2879	2,462.4	80.8469	2,462.4	78.4251	2,462.4	79.5123	2,462.4	77.7551	2,462.4	78.5762	2,462.4	75.6892	2,462.4	75.8991	2,462.4	74.6298	2,462.4	74.3349	2,462.4	73.2993	2,462.4	73.0194	2,462.4	72.6417	2,462.4	75.1289	2,462.4	72.5493	2,462.4	71.528	2,462.4	69.5362	2,462.4	67.3905	2,462.4	63.4099	2,462.4	65.7858	2,462.4	58.483	2,462.4	73.8485	2,462.4	71.7723
2,548.83	85.9278	2,548.83	85.0152	2,548.83	86.0952	2,548.83	80.9483	2,548.83	83.0627	2,548.83	73.3608	2,548.83	72.1178	2,548.83	80.7528	2,548.83	80.9013	2,548.83	81.8539	2,548.83	83.5576	2,548.83	80.7834	2,548.83	83.1354	2,548.83	79.2185	2,548.83	81.6025	2,548.83	77.4933	2,548.83	79.5523	2,548.83	76.8054	2,548.83	78.1961	2,548.83	76.4444	2,548.83	73.8815	2,548.83	74.9612	2,548.83	70.427	2,548.83	73.4082	2,548.83	72.8699	2,548.83	72.0145	2,548.83	73.8779	2,548.83	71.9047	2,548.83	72.8207	2,548.83	70.5795	2,548.83	70.4732	2,548.83	63.7861	2,548.83	68.8595	2,548.83	57.4983	2,548.83	74.2352	2,548.83	70.6716
2,639.65	85.7843	2,639.65	84.0215	2,639.65	85.1755	2,639.65	78.8793	2,639.65	82.6321	2,639.65	79.4835	2,639.65	76.95	2,639.65	81.97	2,639.65	80.1258	2,639.65	81.8111	2,639.65	83.7806	2,639.65	81.2142	2,639.65	83.673	2,639.65	80.7055	2,639.65	81.4789	2,639.65	79.4453	2,639.65	79.7032	2,639.65	77.9794	2,639.65	78.924	2,639.65	75.8847	2,639.65	76.5331	2,639.65	72.2546	2,639.65	72.6643	2,639.65	72.379	2,639.65	71.6015	2,639.65	72.4267	2,639.65	74.6212	2,639.65	70.3618	2,639.65	70.8593	2,639.65	69.0217	2,639.65	69.4596	2,639.65	65.0999	2,639.65	58.353	2,639.65	60.6115	2,639.65	70.694	2,639.65	66.6554
2,731.93	85.6884	2,731.93	84.0537	2,731.93	85.191	2,731.93	81.1282	2,731.93	82.2923	2,731.93	81.1645	2,731.93	77.8455	2,731.93	81.7223	2,731.93	80.8503	2,731.93	81.7081	2,731.93	83.5004	2,731.93	81.2087	2,731.93	83.6474	2,731.93	79.3153	2,731.93	81.338	2,731.93	76.0817	2,731.93	76.723	2,731.93	72.8912	2,731.93	75.0296	2,731.93	73.3524	2,731.93	73.8789	2,731.93	72.9426	2,731.93	74.5811	2,731.93	69.551	2,731.93	74.4531	2,731.93	69.9149	2,731.93	75.8835	2,731.93	69.8269	2,731.93	72.7494	2,731.93	70.0931	2,731.93	63.3477	2,731.93	65.7597	2,731.93	65.6978	2,731.93	64.7027	2,731.93	73.3909	2,731.93	67.2029
2,828.61	84.8571	2,828.61	83.928	2,828.61	84.5289	2,828.61	82.0863	2,828.61	82.6588	2,828.61	81.83	2,828.61	78.905	2,828.61	81.9517	2,828.61	80.9875	2,828.61	81.4813	2,828.61	83.6749	2,828.61	80.5051	2,828.61	83.6258	2,828.61	78.5999	2,828.61	81.7631	2,828.61	77.0149	2,828.61	77.8914	2,828.61	76.2158	2,828.61	75.1211	2,828.61	75.6914	2,828.61	74.6924	2,828.61	74.9599	2,828.61	74.1418	2,828.61	72.2884	2,828.61	74.9388	2,828.61	71.448	2,828.61	75.1142	2,828.61	69.8214	2,828.61	72.337	2,828.61	66.9301	2,828.61	64.5689	2,828.61	64.9342	2,828.61	66.0373	2,828.61	64.6095	2,828.61	72.6586	2,828.61	66.4126
2,928.22	85.6627	2,928.22	84.6162	2,928.22	84.6531	2,928.22	82.5492	2,928.22	82.7079	2,928.22	81.9925	2,928.22	80.406	2,928.22	82.3707	2,928.22	81.241	2,928.22	82.1822	2,928.22	83.7808	2,928.22	80.0897	2,928.22	84.1433	2,928.22	78.7837	2,928.22	82.063	2,928.22	79.3503	2,928.22	77.093	2,928.22	78.2301	2,928.22	73.5804	2,928.22	75.7175	2,928.22	75.4477	2,928.22	73.3813	2,928.22	75.9743	2,928.22	71.6763	2,928.22	76.0891	2,928.22	70.7185	2,928.22	75.613	2,928.22	68.772	2,928.22	72.5727	2,928.22	68.2253	2,928.22	54.6074	2,928.22	63.3239	2,928.22	69.2035	2,928.22	64.9217	2,928.22	73.3281	2,928.22	66.616
3,030.76	85.3749	3,030.76	84.7222	3,030.76	84.5721	3,030.76	82.7987	3,030.76	83.0289	3,030.76	82.1629	3,030.76	81.544	3,030.76	82.4707	3,030.76	82.6364	3,030.76	81.2886	3,030.76	84.0425	3,030.76	80.5562	3,030.76	83.5954	3,030.76	80.2585	3,030.76	82.031	3,030.76	77.7184	3,030.76	78.674	3,030.76	74.2164	3,030.76	75.0402	3,030.76	74.1149	3,030.76	76.1473	3,030.76	74.7472	3,030.76	76.758	3,030.76	72.7312	3,030.76	76.6735	3,030.76	71.5938	3,030.76	75.5252	3,030.76	71.3484	3,030.76	73.7999	3,030.76	67.7427	3,030.76	64.9079	3,030.76	64.3583	3,030.76	68.2715	3,030.76	63.7859	3,030.76	71.1809	3,030.76	67.2567
3,137.7	85.5809	3,137.7	84.8819	3,137.7	84.4599	3,137.7	82.9654	3,137.7	83.2259	3,137.7	83.1153	3,137.7	81.7743	3,137.7	82.9415	3,137.7	82.5938	3,137.7	82.7086	3,137.7	84.354	3,137.7	82.4741	3,137.7	83.8603	3,137.7	79.8387	3,137.7	81.7187	3,137.7	77.493	3,137.7	79.2236	3,137.7	77.8945	3,137.7	77.5072	3,137.7	76.703	3,137.7	76.5034	3,137.7	75.1804	3,137.7	75.8108	3,137.7	72.6144	3,137.7	76.1991	3,137.7	72.1615	3,137.7	75.2205	3,137.7	71.9901	3,137.7	73.09	3,137.7	69.7202	3,137.7	61.6896	3,137.7	64.4102	3,137.7	69.7825	3,137.7	64.6465	3,137.7	72.0386	3,137.7	65.3634
3,249.02	85.9915	3,249.02	84.9248	3,249.02	84.5736	3,249.02	83.7964	3,249.02	83.1645	3,249.02	83.5155	3,249.02	82.7437	3,249.02	83.283	3,249.02	82.1596	3,249.02	83.2654	3,249.02	84.2617	3,249.02	81.3374	3,249.02	84.8788	3,249.02	80.4751	3,249.02	82.4383	3,249.02	80.8051	3,249.02	79.88	3,249.02	78.7883	3,249.02	79.2203	3,249.02	75.4075	3,249.02	78.6338	3,249.02	73.3554	3,249.02	76.1968	3,249.02	72.8422	3,249.02	76.4412	3,249.02	69.9746	3,249.02	73.8471	3,249.02	71.1012	3,249.02	74.873	3,249.02	71.5753	3,249.02	66.092	3,249.02	64.2261	3,249.02	69.9479	3,249.02	64.824	3,249.02	73.2827	3,249.02	70.1045
3,363.28	85.631	3,363.28	85.0961	3,363.28	84.9825	3,363.28	84.2109	3,363.28	83.6962	3,363.28	83.5665	3,363.28	83.1517	3,363.28	83.9261	3,363.28	82.9122	3,363.28	83.4235	3,363.28	84.5018	3,363.28	83.0062	3,363.28	85.4927	3,363.28	82.0911	3,363.28	84.2165	3,363.28	78.7278	3,363.28	82.0486	3,363.28	74.72	3,363.28	79.7708	3,363.28	74.9926	3,363.28	79.1871	3,363.28	75.1138	3,363.28	75.9129	3,363.28	72.9384	3,363.28	76.0999	3,363.28	71.8402	3,363.28	72.7059	3,363.28	69.8375	3,363.28	73.5441	3,363.28	70.0409	3,363.28	66.1736	3,363.28	65.483	3,363.28	69.3045	3,363.28	61.7194	3,363.28	72.2571	3,363.28	63.9077
3,481.93	85.5078	3,481.93	85.4492	3,481.93	84.8369	3,481.93	84.1569	3,481.93	84.779	3,481.93	84.0631	3,481.93	84.2256	3,481.93	84.1682	3,481.93	83.2156	3,481.93	84.1654	3,481.93	84.3636	3,481.93	83.7339	3,481.93	84.788	3,481.93	80.3843	3,481.93	84.302	3,481.93	78.46	3,481.93	83.7996	3,481.93	78.8389	3,481.93	80.1705	3,481.93	76.2672	3,481.93	79.41	3,481.93	73.9449	3,481.93	75.9349	3,481.93	71.0864	3,481.93	75.0822	3,481.93	71.4639	3,481.93	71.519	3,481.93	70.2558	3,481.93	72.2843	3,481.93	68.9948	3,481.93	64.9998	3,481.93	65.7896	3,481.93	69.2957	3,481.93	63.6993	3,481.93	72.6424	3,481.93	65.1603
3,604.98	86.3394	3,604.98	85.7218	3,604.98	84.4318	3,604.98	84.5717	3,604.98	84.7774	3,604.98	84.1053	3,604.98	85.3085	3,604.98	84.5466	3,604.98	83.142	3,604.98	85.4209	3,604.98	83.787	3,604.98	82.9898	3,604.98	84.8534	3,604.98	80.3948	3,604.98	83.9922	3,604.98	79.5158	3,604.98	83.5148	3,604.98	76.1786	3,604.98	80.0752	3,604.98	73.1572	3,604.98	74.9132	3,604.98	73.8358	3,604.98	75.312	3,604.98	71.4141	3,604.98	74.189	3,604.98	70.551	3,604.98	70.5542	3,604.98	70.826	3,604.98	69.1276	3,604.98	68.4771	3,604.98	57.2315	3,604.98	64.7662	3,604.98	69.7164	3,604.98	64.9388	3,604.98	72.2387	3,604.98	68.0804
3,732.42	86.1193	3,732.42	85.8368	3,732.42	84.7763	3,732.42	84.3855	3,732.42	84.3327	3,732.42	83.6005	3,732.42	85.4144	3,732.42	85.7921	3,732.42	83.1995	3,732.42	84.3337	3,732.42	82.9031	3,732.42	81.5606	3,732.42	84.7814	3,732.42	80.5313	3,732.42	83.6	3,732.42	76.8976	3,732.42	82.2111	3,732.42	76.3485	3,732.42	78.7746	3,732.42	75.372	3,732.42	71.0387	3,732.42	73.2555	3,732.42	72.1255	3,732.42	72.826	3,732.42	75.4229	3,732.42	70.602	3,732.42	72.8016	3,732.42	71.3693	3,732.42	68.923	3,732.42	69.2895	3,732.42	54.0833	3,732.42	67.1832	3,732.42	69.8104	3,732.42	53.9663	3,732.42	71.6967	3,732.42	68.4919
3,864.26	86.8363	3,864.26	86.6072	3,864.26	85.2007	3,864.26	83.7989	3,864.26	84.6567	3,864.26	84.9795	3,864.26	86.0113	3,864.26	86.1069	3,864.26	84.0246	3,864.26	83.2538	3,864.26	82.0292	3,864.26	81.6194	3,864.26	84.1262	3,864.26	79.6696	3,864.26	83.6072	3,864.26	78.9637	3,864.26	81.5191	3,864.26	78.9475	3,864.26	76.591	3,864.26	75.6769	3,864.26	68.8228	3,864.26	74.2313	3,864.26	71.1764	3,864.26	73.0228	3,864.26	74.8204	3,864.26	71.5054	3,864.26	72.6269	3,864.26	72.656	3,864.26	68.0217	3,864.26	68.7847	3,864.26	55.3368	3,864.26	65.3671	3,864.26	70.5126	3,864.26	49.2168	3,864.26	71.944	3,864.26	62.7016
4,000.49	86.9221	4,000.49	86.151	4,000.49	84.9263	4,000.49	83.7512	4,000.49	85.6191	4,000.49	85.8512	4,000.49	86.8085	4,000.49	85.4639	4,000.49	84.4902	4,000.49	83.2958	4,000.49	81.4196	4,000.49	82.4495	4,000.49	83.1037	4,000.49	82.3271	4,000.49	82.5375	4,000.49	80.3383	4,000.49	79.4828	4,000.49	76.3062	4,000.49	75.996	4,000.49	75.0704	4,000.49	72.92	4,000.49	74.1247	4,000.49	73.5578	4,000.49	72.7462	4,000.49	75.5133	4,000.49	70.9509	4,000.49	72.3326	4,000.49	71.5571	4,000.49	68.0508	4,000.49	69.7545	4,000.49	52.6796	4,000.49	65.3594	4,000.49	71.2211	4,000.49	55.8924	4,000.49	71.0257	4,000.49	65.152
4,141.11	87.9851	4,141.11	85.9625	4,141.11	85.3572	4,141.11	84.1904	4,141.11	85.0264	4,141.11	85.9083	4,141.11	87.3934	4,141.11	84.9647	4,141.11	84.9874	4,141.11	83.6015	4,141.11	81.4631	4,141.11	83.6661	4,141.11	83.2788	4,141.11	81.7972	4,141.11	82.3351	4,141.11	77.3716	4,141.11	76.0488	4,141.11	77.0869	4,141.11	69.3503	4,141.11	75.9409	4,141.11	71.5019	4,141.11	72.1657	4,141.11	76.1568	4,141.11	72.6621	4,141.11	74.6851	4,141.11	71.1688	4,141.11	72.8392	4,141.11	70.9463	4,141.11	70.6506	4,141.11	69.2613	4,141.11	60.0683	4,141.11	66.6374	4,141.11	70.6338	4,141.11	59.124	4,141.11	69.3036	4,141.11	67.7247
4,287.6	87.8952	4,287.6	85.041	4,287.6	86.257	4,287.6	84.8831	4,287.6	84.92	4,287.6	86.465	4,287.6	86.9016	4,287.6	84.1039	4,287.6	84.7859	4,287.6	85.2406	4,287.6	80.8957	4,287.6	83.837	4,287.6	83.4077	4,287.6	80.7752	4,287.6	82.0145	4,287.6	80.6474	4,287.6	76.6081	4,287.6	76.5745	4,287.6	68.1389	4,287.6	72.808	4,287.6	71.4649	4,287.6	72.6321	4,287.6	76.582	4,287.6	72.8997	4,287.6	77.8048	4,287.6	70.4429	4,287.6	73.5464	4,287.6	69.3078	4,287.6	75.2984	4,287.6	69.228	4,287.6	58.061	4,287.6	63.5299	4,287.6	66.6424	4,287.6	61.3255	4,287.6	68.3687	4,287.6	66.6283
4,438.48	87.9941	4,438.48	85.033	4,438.48	86.2019	4,438.48	86.0416	4,438.48	85.6061	4,438.48	85.4349	4,438.48	87.6167	4,438.48	85.1327	4,438.48	84.9973	4,438.48	84.8488	4,438.48	80.8765	4,438.48	81.8054	4,438.48	82.5671	4,438.48	81.188	4,438.48	81.9284	4,438.48	75.9458	4,438.48	76.1887	4,438.48	76.0477	4,438.48	72.0341	4,438.48	75.0994	4,438.48	66.6766	4,438.48	71.8901	4,438.48	75.8012	4,438.48	72.7746	4,438.48	77.6599	4,438.48	71.8184	4,438.48	71.206	4,438.48	69.6743	4,438.48	75.5533	4,438.48	69.8347	4,438.48	62.3359	4,438.48	64.4675	4,438.48	64.4221	4,438.48	56.4123	4,438.48	68.3785	4,438.48	45.4593
4,595.21	87.977	4,595.21	85.7415	4,595.21	87.0383	4,595.21	86.38	4,595.21	84.4016	4,595.21	85.3331	4,595.21	87.7214	4,595.21	85.5729	4,595.21	85.6983	4,595.21	84.334	4,595.21	80.1107	4,595.21	82.2755	4,595.21	80.9349	4,595.21	80.4617	4,595.21	79.5415	4,595.21	80.5059	4,595.21	77.6737	4,595.21	77.4257	4,595.21	75.3702	4,595.21	71.8837	4,595.21	66.1074	4,595.21	74.5277	4,595.21	71.2721	4,595.21	73.1898	4,595.21	74.2202	4,595.21	70.9036	4,595.21	69.2366	4,595.21	70.693	4,595.21	72.7007	4,595.21	70.2101	4,595.21	63.2658	4,595.21	66.5242	4,595.21	68.0622	4,595.21	56.0818	4,595.21	68.5975	4,595.21	63.5925
4,756.35	87.9686	4,756.35	85.8744	4,756.35	87.8997	4,756.35	86.4308	4,756.35	84.3624	4,756.35	85.6975	4,756.35	87.2178	4,756.35	85.7412	4,756.35	86.0024	4,756.35	83.6137	4,756.35	80.5758	4,756.35	83.0596	4,756.35	81.1376	4,756.35	82.1797	4,756.35	78.9553	4,756.35	78.0457	4,756.35	78.3015	4,756.35	74.8018	4,756.35	77.2534	4,756.35	74.43	4,756.35	69.8051	4,756.35	73.3495	4,756.35	67.8866	4,756.35	71.2583	4,756.35	74.3757	4,756.35	69.8068	4,756.35	68.0764	4,756.35	69.9709	4,756.35	69.6927	4,756.35	70.4434	4,756.35	64.0389	4,756.35	65.5932	4,756.35	66.9771	4,756.35	63.1699	4,756.35	66.9355	4,756.35	61.4091
4,924.8	87.1036	4,924.8	86.483	4,924.8	87.8151	4,924.8	86.2984	4,924.8	85.5473	4,924.8	86.1648	4,924.8	86.8856	4,924.8	85.0897	4,924.8	85.9133	4,924.8	83.8728	4,924.8	81.8665	4,924.8	83.6588	4,924.8	82.6007	4,924.8	78.9955	4,924.8	80.951	4,924.8	78.6174	4,924.8	78.9078	4,924.8	75.8316	4,924.8	78.9253	4,924.8	71.6539	4,924.8	72.227	4,924.8	72.8294	4,924.8	63.9587	4,924.8	73.1796	4,924.8	73.2837	4,924.8	70.0096	4,924.8	70.948	4,924.8	69.2085	4,924.8	68.3976	4,924.8	70.0345	4,924.8	61.6162	4,924.8	66.4433	4,924.8	61.7655	4,924.8	49.6319	4,924.8	67.1415	4,924.8	55.9666
5,097.66	87.7623	5,097.66	86.6119	5,097.66	87.5408	5,097.66	86.5373	5,097.66	85.3122	5,097.66	86.2898	5,097.66	87.0325	5,097.66	84.8569	5,097.66	86.2089	5,097.66	84.4625	5,097.66	80.5287	5,097.66	82.0439	5,097.66	84.06	5,097.66	80.3187	5,097.66	82.9159	5,097.66	78.3893	5,097.66	80.373	5,097.66	73.6115	5,097.66	79.8956	5,097.66	74.2977	5,097.66	71.7919	5,097.66	72.8447	5,097.66	57.2972	5,097.66	71.8602	5,097.66	71.3172	5,097.66	70.8781	5,097.66	72.1294	5,097.66	69.7321	5,097.66	69.7119	5,097.66	70.0993	5,097.66	55.4972	5,097.66	68.653	5,097.66	57.3498	5,097.66	62.7846	5,097.66	65.4381	5,097.66	59.1184
5,277.83	87.5924	5,277.83	86.7201	5,277.83	87.8321	5,277.83	86.8723	5,277.83	85.4748	5,277.83	86.1139	5,277.83	86.6338	5,277.83	85.1063	5,277.83	85.8589	5,277.83	84.1222	5,277.83	81.2006	5,277.83	82.5016	5,277.83	83.4707	5,277.83	80.1107	5,277.83	83.4834	5,277.83	78.5953	5,277.83	82.2853	5,277.83	76.5534	5,277.83	78.0625	5,277.83	73.9577	5,277.83	67.8845	5,277.83	71.8251	5,277.83	55.5521	5,277.83	72.5581	5,277.83	69.5908	5,277.83	70.8362	5,277.83	68.1371	5,277.83	69.4399	5,277.83	71.1642	5,277.83	70.1522	5,277.83	63.3144	5,277.83	67.1458	5,277.83	62.2598	5,277.83	63.7974	5,277.83	68.2364	5,277.83	59.0079
5,463.87	87.1654	5,463.87	86.966	5,463.87	87.5913	5,463.87	86.9984	5,463.87	85.7906	5,463.87	86.2751	5,463.87	86.0266	5,463.87	84.9439	5,463.87	86.1938	5,463.87	83.8494	5,463.87	80.0223	5,463.87	82.3208	5,463.87	80.8769	5,463.87	81.3927	5,463.87	83.441	5,463.87	76.896	5,463.87	81.8298	5,463.87	74.7818	5,463.87	77.1564	5,463.87	74.0076	5,463.87	65.4861	5,463.87	71.767	5,463.87	62.6529	5,463.87	71.7219	5,463.87	65.882	5,463.87	71.4599	5,463.87	60.7836	5,463.87	68.7384	5,463.87	68.5785	5,463.87	70.7741	5,463.87	65.3365	5,463.87	67.513	5,463.87	64.1605	5,463.87	66.1137	5,463.87	65.4874	5,463.87	56.4321
5,657.23	87.3587	5,657.23	87.2085	5,657.23	87.4733	5,657.23	86.9783	5,657.23	85.9012	5,657.23	86.356	5,657.23	85.7557	5,657.23	84.9252	5,657.23	86.1662	5,657.23	83.8554	5,657.23	80.763	5,657.23	82.8143	5,657.23	79.6401	5,657.23	79.7044	5,657.23	84.1978	5,657.23	77.755	5,657.23	80.9219	5,657.23	76.2592	5,657.23	75.4796	5,657.23	72.1394	5,657.23	62.8268	5,657.23	71.8213	5,657.23	61.9841	5,657.23	70.752	5,657.23	70.5312	5,657.23	70.4521	5,657.23	63.0652	5,657.23	68.7017	5,657.23	68.6852	5,657.23	70.3433	5,657.23	64.4018	5,657.23	68.2164	5,657.23	61.8385	5,657.23	65.4484	5,657.23	63.8676	5,657.23	57.1137
5,856.45	87.5293	5,856.45	87.2623	5,856.45	87.0871	5,856.45	87.1778	5,856.45	86.0564	5,856.45	86.3599	5,856.45	85.4929	5,856.45	84.9181	5,856.45	87.1066	5,856.45	83.8867	5,856.45	83.1469	5,856.45	82.3657	5,856.45	77.4256	5,856.45	79.7232	5,856.45	85.2811	5,856.45	75.9757	5,856.45	79.5526	5,856.45	75.7068	5,856.45	69.107	5,856.45	72.2076	5,856.45	67.8268	5,856.45	72.4468	5,856.45	63.3951	5,856.45	70.9211	5,856.45	70.0763	5,856.45	70.0644	5,856.45	60.9847	5,856.45	68.5072	5,856.45	64.1322	5,856.45	70.3492	5,856.45	59.0085	5,856.45	69.2759	5,856.45	51.9648	5,856.45	66.2742	5,856.45	62.8912	5,856.45	57.5124
6,062.99	87.7657	6,062.99	87.3784	6,062.99	87.5049	6,062.99	87.331	6,062.99	86.2228	6,062.99	86.1024	6,062.99	84.889	6,062.99	85.1259	6,062.99	86.6849	6,062.99	83.847	6,062.99	85.1482	6,062.99	82.2674	6,062.99	78.5691	6,062.99	79.8207	6,062.99	83.9178	6,062.99	77.8733	6,062.99	80.3867	6,062.99	74.4673	6,062.99	73.7527	6,062.99	71.4983	6,062.99	72.2865	6,062.99	72.3397	6,062.99	63.417	6,062.99	69.5058	6,062.99	71.3537	6,062.99	70.1588	6,062.99	65.5449	6,062.99	68.5693	6,062.99	60.7509	6,062.99	69.8166	6,062.99	56.8204	6,062.99	69.6287	6,062.99	52.3867	6,062.99	65.7492	6,062.99	62.7424	6,062.99	58.2009
6,276.86	87.8403	6,276.86	87.227	6,276.86	87.2533	6,276.86	87.3636	6,276.86	86.5941	6,276.86	85.8815	6,276.86	85.1129	6,276.86	84.9495	6,276.86	85.328	6,276.86	83.5651	6,276.86	85.1343	6,276.86	82.6675	6,276.86	79.3896	6,276.86	79.4429	6,276.86	82.2349	6,276.86	77.1398	6,276.86	79.8991	6,276.86	74.849	6,276.86	75.3274	6,276.86	71.5302	6,276.86	74.7754	6,276.86	71.7359	6,276.86	63.6922	6,276.86	68.7499	6,276.86	70.5288	6,276.86	69.8335	6,276.86	65.8852	6,276.86	68.039	6,276.86	58.2906	6,276.86	69.2355	6,276.86	61.479	6,276.86	68.8995	6,276.86	54.8539	6,276.86	66.1078	6,276.86	63.2099	6,276.86	54.481
6,498.05	87.8709	6,498.05	87.4838	6,498.05	87.4025	6,498.05	87.0778	6,498.05	86.3559	6,498.05	85.6386	6,498.05	85.5868	6,498.05	84.757	6,498.05	84.9531	6,498.05	83.608	6,498.05	84.6532	6,498.05	82.3208	6,498.05	79.8486	6,498.05	78.9767	6,498.05	81.3386	6,498.05	76.0349	6,498.05	78.8079	6,498.05	72.1077	6,498.05	74.8281	6,498.05	71.0788	6,498.05	73.2972	6,498.05	70.4729	6,498.05	64.7477	6,498.05	67.25	6,498.05	67.4629	6,498.05	69.0933	6,498.05	64.924	6,498.05	66.2882	6,498.05	56.5625	6,498.05	69.067	6,498.05	64.501	6,498.05	68.7627	6,498.05	56.3651	6,498.05	65.9288	6,498.05	57.6969	6,498.05	56.8392
6,726.56	87.8334	6,726.56	87.6512	6,726.56	87.5672	6,726.56	86.9058	6,726.56	86.4521	6,726.56	85.4318	6,726.56	85.2511	6,726.56	84.5695	6,726.56	84.5399	6,726.56	83.4359	6,726.56	83.8569	6,726.56	81.8989	6,726.56	79.2638	6,726.56	78.0507	6,726.56	78.8539	6,726.56	76.0044	6,726.56	75.7253	6,726.56	71.5917	6,726.56	73.363	6,726.56	69.2463	6,726.56	69.1657	6,726.56	69.583	6,726.56	62.4676	6,726.56	67.0289	6,726.56	68.2554	6,726.56	67.8984	6,726.56	67.5541	6,726.56	64.757	6,726.56	56.073	6,726.56	67.4252	6,726.56	59.8719	6,726.56	68.5149	6,726.56	49.3709	6,726.56	65.23	6,726.56	58.4594	6,726.56	55.827
6,963.87	87.9653	6,963.87	87.441	6,963.87	87.5035	6,963.87	86.6954	6,963.87	86.5936	6,963.87	85.278	6,963.87	85.3616	6,963.87	84.2686	6,963.87	84.5244	6,963.87	83.1676	6,963.87	82.7022	6,963.87	81.4524	6,963.87	75.5199	6,963.87	78.1346	6,963.87	75.8438	6,963.87	74.7662	6,963.87	73.7357	6,963.87	70.4127	6,963.87	66.0018	6,963.87	68.51	6,963.87	68.8558	6,963.87	66.9318	6,963.87	59.9232	6,963.87	65.8535	6,963.87	66.9292	6,963.87	67.0919	6,963.87	68.5374	6,963.87	64.3558	6,963.87	57.2529	6,963.87	66.8772	6,963.87	56.8976	6,963.87	67.9074	6,963.87	50.1431	6,963.87	65.6792	6,963.87	55.8984	6,963.87	56.7329
7,209.96	87.8717	7,209.96	87.4899	7,209.96	87.4459	7,209.96	86.7514	7,209.96	86.3563	7,209.96	85.0853	7,209.96	84.9167	7,209.96	84.0662	7,209.96	83.807	7,209.96	82.9373	7,209.96	82.4186	7,209.96	81.1321	7,209.96	72.0858	7,209.96	77.6239	7,209.96	73.0281	7,209.96	74.4451	7,209.96	72.6155	7,209.96	70.1219	7,209.96	67.8086	7,209.96	68.9179	7,209.96	70.4992	7,209.96	66.3399	7,209.96	59.2881	7,209.96	63.1884	7,209.96	67.6405	7,209.96	66.0301	7,209.96	65.6632	7,209.96	63.6928	7,209.96	60.1523	7,209.96	66.2764	7,209.96	58.214	7,209.96	67.6751	7,209.96	50.4283	7,209.96	65.34	7,209.96	58.2263	7,209.96	57.4853
7,464.84	87.7828	7,464.84	87.5616	7,464.84	87.6002	7,464.84	86.8759	7,464.84	86.6352	7,464.84	84.6509	7,464.84	85.398	7,464.84	83.894	7,464.84	83.402	7,464.84	82.6358	7,464.84	81.6036	7,464.84	80.7492	7,464.84	73.7306	7,464.84	77.5799	7,464.84	67.2139	7,464.84	74.5397	7,464.84	73.7405	7,464.84	69.8012	7,464.84	69.7967	7,464.84	68.7532	7,464.84	70.1845	7,464.84	66.1111	7,464.84	57.0695	7,464.84	62.181	7,464.84	66.8831	7,464.84	64.6733	7,464.84	62.0278	7,464.84	63.2382	7,464.84	55.6612	7,464.84	65.0687	7,464.84	59.2591	7,464.84	66.5276	7,464.84	46.6994	7,464.84	65.4142	7,464.84	53.6182	7,464.84	57.9106
7,727.05	87.5481	7,727.05	87.6516	7,727.05	87.281	7,727.05	86.6367	7,727.05	86.4109	7,727.05	84.6468	7,727.05	85.2757	7,727.05	83.6403	7,727.05	83.4122	7,727.05	81.987	7,727.05	81.2822	7,727.05	80.1381	7,727.05	75.9597	7,727.05	76.5365	7,727.05	71.3631	7,727.05	73.5842	7,727.05	75.8568	7,727.05	69.4477	7,727.05	71.4256	7,727.05	68.0274	7,727.05	67.8105	7,727.05	65.6583	7,727.05	58.1002	7,727.05	62.7675	7,727.05	66.5084	7,727.05	63.2219	7,727.05	65.252	7,727.05	61.9719	7,727.05	57.0332	7,727.05	63.9117	7,727.05	60.3751	7,727.05	65.4418	7,727.05	52.393	7,727.05	65.355	7,727.05	55.1465	7,727.05	57.5018
7,999.51	87.5823	7,999.51	87.8155	7,999.51	87.1475	7,999.51	86.4136	7,999.51	86.381	7,999.51	84.7522	7,999.51	85.2241	7,999.51	83.2987	7,999.51	83.3495	7,999.51	81.5658	7,999.51	80.2979	7,999.51	79.4321	7,999.51	74.4773	7,999.51	75.8444	7,999.51	74.9873	7,999.51	72.9493	7,999.51	78.2272	7,999.51	68.9652	7,999.51	74.3128	7,999.51	67.7778	7,999.51	67.5422	7,999.51	64.5352	7,999.51	53.0438	7,999.51	62.4935	7,999.51	60.562	7,999.51	62.6197	7,999.51	54.7095	7,999.51	61.8389	7,999.51	57.8091	7,999.51	62.9812	7,999.51	60.5033	7,999.51	65.3672	7,999.51	50.7371	7,999.51	64.1104	7,999.51	50.3324	7,999.51	57.7104
8,282.23	87.6784	8,282.23	87.6643	8,282.23	87.0336	8,282.23	86.4984	8,282.23	86.2906	8,282.23	84.7775	8,282.23	85.0209	8,282.23	82.7868	8,282.23	83.1411	8,282.23	81.0999	8,282.23	79.0664	8,282.23	78.6086	8,282.23	75.5938	8,282.23	75.5553	8,282.23	76.1379	8,282.23	71.5177	8,282.23	78.0024	8,282.23	68.1238	8,282.23	72.5425	8,282.23	66.8939	8,282.23	69.4988	8,282.23	63.4874	8,282.23	52.5379	8,282.23	60.6386	8,282.23	62.724	8,282.23	61.4082	8,282.23	55.1985	8,282.23	60.8492	8,282.23	61.5119	8,282.23	61.8948	8,282.23	59.5872	8,282.23	64.0362	8,282.23	54.1028	8,282.23	63.0122	8,282.23	45.7868	8,282.23	58.0685
8,573.73	87.8022	8,573.73	87.6523	8,573.73	87.3172	8,573.73	86.555	8,573.73	86.5938	8,573.73	84.5728	8,573.73	85.3027	8,573.73	82.3076	8,573.73	83.2472	8,573.73	80.2984	8,573.73	79.783	8,573.73	77.7517	8,573.73	77.0401	8,573.73	74.5292	8,573.73	75.3669	8,573.73	70.6029	8,573.73	76.886	8,573.73	66.0966	8,573.73	69.2907	8,573.73	65.5728	8,573.73	68.0953	8,573.73	61.8307	8,573.73	48.1458	8,573.73	58.5017	8,573.73	53.6191	8,573.73	58.9678	8,573.73	57.0756	8,573.73	59.0602	8,573.73	60.1883	8,573.73	60.2502	8,573.73	59.8317	8,573.73	62.687	8,573.73	50.4689	8,573.73	61.6886	8,573.73	42.16	8,573.73	58.6008
8,876.95	87.7543	8,876.95	87.5311	8,876.95	87.636	8,876.95	86.4931	8,876.95	86.5719	8,876.95	84.233	8,876.95	85.0667	8,876.95	82.0545	8,876.95	83.4585	8,876.95	79.5446	8,876.95	80.9263	8,876.95	76.7109	8,876.95	79.0159	8,876.95	73.8636	8,876.95	72.4184	8,876.95	69.4834	8,876.95	72.1445	8,876.95	66.1829	8,876.95	69.0109	8,876.95	64.8601	8,876.95	70.7775	8,876.95	60.4093	8,876.95	59.9139	8,876.95	57.7568	8,876.95	52.5056	8,876.95	58.5426	8,876.95	54.1065	8,876.95	58.0858	8,876.95	61.0313	8,876.95	59.1201	8,876.95	57.6984	8,876.95	61.6179	8,876.95	52.8263	8,876.95	62.5348	8,876.95	51.2908	8,876.95	58.7601
9,188.96	87.7435	9,188.96	87.3112	9,188.96	87.722	9,188.96	86.2734	9,188.96	86.6096	9,188.96	84.4241	9,188.96	84.5364	9,188.96	81.6519	9,188.96	83.0154	9,188.96	79.012	9,188.96	81.992	9,188.96	76.4384	9,188.96	80.3364	9,188.96	73.6756	9,188.96	69.2762	9,188.96	69.0979	9,188.96	67.2162	9,188.96	65.2845	9,188.96	68.9912	9,188.96	63.5921	9,188.96	69.4861	9,188.96	58.5668	9,188.96	62.3909	9,188.96	56.2626	9,188.96	56.3968	9,188.96	57.7086	9,188.96	53.0118	9,188.96	56.8099	9,188.96	57.9057	9,188.96	57.963	9,188.96	57.4597	9,188.96	60.8712	9,188.96	47.2734	9,188.96	62.0631	9,188.96	42.2788	9,188.96	58.0515
9,514.16	87.9891	9,514.16	87.2701	9,514.16	88.2014	9,514.16	86.2426	9,514.16	86.6343	9,514.16	84.0291	9,514.16	84.1962	9,514.16	81.0499	9,514.16	82.5269	9,514.16	79.1138	9,514.16	81.7727	9,514.16	76.0315	9,514.16	80.2189	9,514.16	72.2897	9,514.16	72.3922	9,514.16	66.63	9,514.16	70.0435	9,514.16	64.0194	9,514.16	70.5831	9,514.16	61.221	9,514.16	68.0613	9,514.16	56.1063	9,514.16	63.8194	9,514.16	54.6561	9,514.16	56.0154	9,514.16	54.6015	9,514.16	58.7972	9,514.16	55.6049	9,514.16	47.4194	9,514.16	54.1954	9,514.16	52.7057	9,514.16	59.1208	9,514.16	52.1198	9,514.16	60.9492	9,514.16	49.3729	9,514.16	56.9563
9,849.61	88.027	9,849.61	87.0702	9,849.61	88.511	9,849.61	86.1128	9,849.61	86.8994	9,849.61	83.6132	9,849.61	84.218	9,849.61	81.0687	9,849.61	82.6758	9,849.61	78.7559	9,849.61	81.788	9,849.61	75.2518	9,849.61	79.659	9,849.61	71.033	9,849.61	72.1669	9,849.61	65.9942	9,849.61	71.3032	9,849.61	62.6371	9,849.61	67.7874	9,849.61	59.9853	9,849.61	63.9622	9,849.61	55.1963	9,849.61	58.5128	9,849.61	52.4584	9,849.61	42.8924	9,849.61	54.5193	9,849.61	59.9237	9,849.61	55.2758	9,849.61	52.5523	9,849.61	49.7901	9,849.61	50.8195	9,849.61	59.1931	9,849.61	53.015	9,849.61	58.7983	9,849.61	42.3074	9,849.61	58.2438
10,196.8	88.4075	10,196.8	87.3691	10,196.8	88.8967	10,196.8	85.8302	10,196.8	87.1784	10,196.8	83.3025	10,196.8	84.4002	10,196.8	80.6425	10,196.8	82.4811	10,196.8	77.978	10,196.8	80.7218	10,196.8	74.9149	10,196.8	77.9206	10,196.8	69.6898	10,196.8	68.4776	10,196.8	63.4056	10,196.8	67.3841	10,196.8	60.9654	10,196.8	66.6227	10,196.8	57.7071	10,196.8	63.2107	10,196.8	53.2453	10,196.8	48.8978	10,196.8	49.4555	10,196.8	50.9639	10,196.8	54.3731	10,196.8	58.4594	10,196.8	54.5896	10,196.8	55.3201	10,196.8	42.0996	10,196.8	57.1899	10,196.8	57.8481	10,196.8	55.6105	10,196.8	57.8987	10,196.8	40.9811	10,196.8	57.0237
10,555.7	88.5143	10,555.7	87.5349	10,555.7	88.7785	10,555.7	85.7391	10,555.7	87.3167	10,555.7	82.7949	10,555.7	84.4138	10,555.7	79.9764	10,555.7	82.1594	10,555.7	77.7265	10,555.7	79.8491	10,555.7	73.251	10,555.7	76.2671	10,555.7	67.4709	10,555.7	67.7576	10,555.7	61.1983	10,555.7	69.639	10,555.7	58.2402	10,555.7	65.0563	10,555.7	54.6089	10,555.7	59.9542	10,555.7	45.9993	10,555.7	52.6342	10,555.7	48.2757	10,555.7	44.1334	10,555.7	52.4583	10,555.7	53.3754	10,555.7	51.1284	10,555.7	53.4411	10,555.7	35.871	10,555.7	55.7772	10,555.7	54.903	10,555.7	55.12	10,555.7	54.8977	10,555.7	44.3062	10,555.7	56.1256
10,927.7	88.8271	10,927.7	87.9489	10,927.7	88.952	10,927.7	85.9569	10,927.7	87.2582	10,927.7	82.6619	10,927.7	84.5318	10,927.7	79.9667	10,927.7	81.8374	10,927.7	76.6907	10,927.7	79.1609	10,927.7	71.8568	10,927.7	75.5329	10,927.7	65.6403	10,927.7	68.1028	10,927.7	60.4642	10,927.7	67.9633	10,927.7	57.8176	10,927.7	63.3939	10,927.7	55.8082	10,927.7	53.3835	10,927.7	50.3651	10,927.7	53.0949	10,927.7	42.1628	10,927.7	50.3265	10,927.7	53.6493	10,927.7	51.8259	10,927.7	48.0583	10,927.7	54.0598	10,927.7	35.4046	10,927.7	47.5757	10,927.7	54.2688	10,927.7	56.4639	10,927.7	55.1175	10,927.7	50.6772	10,927.7	55.5967
11,313	89.0892	11,313	88.3821	11,313	88.8337	11,313	86.15	11,313	87.0367	11,313	82.9263	11,313	84.379	11,313	79.1196	11,313	81.3812	11,313	75.4343	11,313	77.3764	11,313	70.8579	11,313	73.1148	11,313	63.1842	11,313	65.429	11,313	58.2496	11,313	65.1379	11,313	53.9402	11,313	61.3698	11,313	52.1953	11,313	54.4641	11,313	47.5306	11,313	41.9101	11,313	47.3768	11,313	48.5777	11,313	46.375	11,313	53.6123	11,313	49.6999	11,313	50.7542	11,313	45.5149	11,313	51.4076	11,313	48.5681	11,313	54.6737	11,313	51.75	11,313	50.3813	11,313	53.4483
11,712.9	89.3263	11,712.9	88.5246	11,712.9	88.8615	11,712.9	86.348	11,712.9	86.6359	11,712.9	82.8417	11,712.9	83.7288	11,712.9	78.5635	11,712.9	80.5553	11,712.9	73.8896	11,712.9	75.8263	11,712.9	67.6332	11,712.9	71.2014	11,712.9	62.8845	11,712.9	67.1131	11,712.9	60.3414	11,712.9	66.0446	11,712.9	58.3231	11,712.9	58.5028	11,712.9	54.8778	11,712.9	60.1913	11,712.9	49.5454	11,712.9	55.6846	11,712.9	52.4608	11,712.9	49.8224	11,712.9	44.8687	11,712.9	53.1667	11,712.9	49.0558	11,712.9	47.7158	11,712.9	48.9789	11,712.9	51.5665	11,712.9	42.9983	11,712.9	54.5452	11,712.9	51.8303	11,712.9	50.4681	11,712.9	54.9897
12,126	89.6124	12,126	88.692	12,126	89.0862	12,126	86.2557	12,126	86.5911	12,126	82.7505	12,126	83.4485	12,126	78.3272	12,126	79.9168	12,126	73.2859	12,126	74.8618	12,126	69.1367	12,126	70.8698	12,126	64.8677	12,126	67.8431	12,126	61.6487	12,126	65.9898	12,126	58.8668	12,126	55.2736	12,126	56.3097	12,126	60.727	12,126	51.8362	12,126	59.658	12,126	54.5091	12,126	43.9716	12,126	45.3595	12,126	53.0125	12,126	51.7138	12,126	52.4338	12,126	51.3467	12,126	55.0548	12,126	49.6916	12,126	51.814	12,126	52.0052	12,126	48.4515	12,126	54.6418
12,553.7	89.8049	12,553.7	88.6576	12,553.7	89.2706	12,553.7	86.0252	12,553.7	86.8946	12,553.7	82.9582	12,553.7	83.5142	12,553.7	77.9413	12,553.7	79.2828	12,553.7	74.4745	12,553.7	74.4415	12,553.7	68.1584	12,553.7	70.8766	12,553.7	65.6993	12,553.7	67.3863	12,553.7	62.4112	12,553.7	66.157	12,553.7	61.8657	12,553.7	60.0886	12,553.7	58.3769	12,553.7	53.4859	12,553.7	54.1152	12,553.7	56.4485	12,553.7	56.6949	12,553.7	49.1657	12,553.7	47.7906	12,553.7	56.1154	12,553.7	53.7255	12,553.7	50.6788	12,553.7	52.124	12,553.7	55.9803	12,553.7	54.6566	12,553.7	48.8361	12,553.7	52.3838	12,553.7	48.2903	12,553.7	54.5186
12,996.1	89.7419	12,996.1	88.1517	12,996.1	89.2413	12,996.1	85.7896	12,996.1	87.1982	12,996.1	82.7527	12,996.1	83.4404	12,996.1	78.2083	12,996.1	78.5325	12,996.1	73.9146	12,996.1	74.838	12,996.1	70.2617	12,996.1	70.94	12,996.1	69.0495	12,996.1	68.911	12,996.1	66.6072	12,996.1	69.0483	12,996.1	63.7089	12,996.1	60.7786	12,996.1	58.8616	12,996.1	56.561	12,996.1	57.2369	12,996.1	56.0088	12,996.1	57.2402	12,996.1	52.2176	12,996.1	51.6373	12,996.1	50.5956	12,996.1	56.5808	12,996.1	51.26	12,996.1	54.3552	12,996.1	42.2289	12,996.1	57.5669	12,996.1	46.7318	12,996.1	55.119	12,996.1	45.894	12,996.1	55.5376
13,454.6	89.4433	13,454.6	87.6911	13,454.6	89.0797	13,454.6	85.4277	13,454.6	87.4759	13,454.6	82.7689	13,454.6	83.3174	13,454.6	78.1153	13,454.6	77.7119	13,454.6	74.4577	13,454.6	74.6696	13,454.6	71.9749	13,454.6	63.8429	13,454.6	70.7551	13,454.6	69.1073	13,454.6	66.9302	13,454.6	66.1901	13,454.6	65.2012	13,454.6	58.6381	13,454.6	60.6403	13,454.6	60.4436	13,454.6	57.0336	13,454.6	55.6934	13,454.6	57.5193	13,454.6	56.5367	13,454.6	51.9847	13,454.6	51.8703	13,454.6	56.9176	13,454.6	54.8843	13,454.6	51.5375	13,454.6	50.6077	13,454.6	58.8158	13,454.6	42.3483	13,454.6	56.4084	13,454.6	43.7215	13,454.6	55.3755
13,929.2	88.8824	13,929.2	87.3755	13,929.2	88.5907	13,929.2	85.3254	13,929.2	87.4084	13,929.2	82.2006	13,929.2	82.9438	13,929.2	77.8758	13,929.2	78.1737	13,929.2	73.2025	13,929.2	75.0519	13,929.2	73.716	13,929.2	68.3156	13,929.2	70.924	13,929.2	68.3959	13,929.2	67.2238	13,929.2	62.9611	13,929.2	63.6383	13,929.2	55.9755	13,929.2	59.6598	13,929.2	61.0568	13,929.2	57.8874	13,929.2	55.068	13,929.2	54.7905	13,929.2	57.3726	13,929.2	50.4849	13,929.2	53.3698	13,929.2	55.8889	13,929.2	50.78	13,929.2	50.5841	13,929.2	40.3766	13,929.2	57.5512	13,929.2	44.0681	13,929.2	56.0789	13,929.2	31.1501	13,929.2	55.0195
14,419.9	88.4618	14,419.9	87.6215	14,419.9	88.2624	14,419.9	85.3925	14,419.9	86.9636	14,419.9	81.8581	14,419.9	82.9343	14,419.9	77.4966	14,419.9	79.2385	14,419.9	73.7022	14,419.9	74.9268	14,419.9	74.5626	14,419.9	71.4504	14,419.9	69.8196	14,419.9	69.9454	14,419.9	66.4868	14,419.9	62.6214	14,419.9	62.602	14,419.9	59.6269	14,419.9	58.986	14,419.9	61.0342	14,419.9	57.0452	14,419.9	56.0245	14,419.9	53.5083	14,419.9	49.6338	14,419.9	52.8261	14,419.9	45.0548	14,419.9	52.9883	14,419.9	46.0724	14,419.9	51.6484	14,419.9	47.376	14,419.9	57.5089	14,419.9	48.7071	14,419.9	57.677	14,419.9	45.1198	14,419.9	53.9776
14,928.2	88.38	14,928.2	88.0948	14,928.2	88.2384	14,928.2	85.4376	14,928.2	86.8224	14,928.2	81.4913	14,928.2	83.1645	14,928.2	76.9945	14,928.2	79.4725	14,928.2	74.786	14,928.2	75.1524	14,928.2	74.3963	14,928.2	74.1632	14,928.2	68.8446	14,928.2	71.114	14,928.2	65.6427	14,928.2	61.7195	14,928.2	61.6806	14,928.2	60.1261	14,928.2	58.4306	14,928.2	59.7277	14,928.2	56.3122	14,928.2	57.2349	14,928.2	53.2713	14,928.2	49.0689	14,928.2	53.117	14,928.2	45.6959	14,928.2	51.7588	14,928.2	45.3604	14,928.2	50.5471	14,928.2	53.0346	14,928.2	57.3484	14,928.2	49.2602	14,928.2	56.2192	14,928.2	42.9408	14,928.2	51.4997
15,455.6	88.22	15,455.6	88.0008	15,455.6	88.1857	15,455.6	84.8232	15,455.6	86.4747	15,455.6	80.7223	15,455.6	82.9683	15,455.6	76.5647	15,455.6	78.2483	15,455.6	74.8845	15,455.6	73.1912	15,455.6	71.97	15,455.6	71.3134	15,455.6	66.6798	15,455.6	70.5142	15,455.6	62.4023	15,455.6	61.2772	15,455.6	58.8914	15,455.6	53.578	15,455.6	54.7663	15,455.6	60.0615	15,455.6	51.9386	15,455.6	52.9292	15,455.6	50.266	15,455.6	53.0247	15,455.6	48.6543	15,455.6	49.9618	15,455.6	50.7516	15,455.6	45.0444	15,455.6	48.4453	15,455.6	48.8236	15,455.6	56.3123	15,455.6	47.9695	15,455.6	52.9042	15,455.6	46.3585	15,455.6	51.4872
16,000.5	88.111	16,000.5	87.8881	16,000.5	88.0486	16,000.5	84.2923	16,000.5	86.196	16,000.5	79.8356	16,000.5	82.441	16,000.5	76.2076	16,000.5	76.711	16,000.5	73.6673	16,000.5	72.9514	16,000.5	69.3522	16,000.5	72.7426	16,000.5	65.1883	16,000.5	67.4815	16,000.5	61.0679	16,000.5	50.2302	16,000.5	59.0776	16,000.5	58.7192	16,000.5	54.4197	16,000.5	62.1759	16,000.5	51.7731	16,000.5	54.912	16,000.5	45.8913	16,000.5	54.6747	16,000.5	49.1516	16,000.5	50.5993	16,000.5	47.2905	16,000.5	48.5275	16,000.5	45.9009	16,000.5	45.6511	16,000.5	55.0355	16,000.5	44.1846	16,000.5	54.1188	16,000.5	45.4959	16,000.5	53.1086
16,564.5	87.5341	16,564.5	87.2394	16,564.5	87.503	16,564.5	83.5378	16,564.5	86.0605	16,564.5	78.6834	16,564.5	82.3231	16,564.5	75.4325	16,564.5	75.7601	16,564.5	71.7787	16,564.5	72.0265	16,564.5	68.7886	16,564.5	71.6101	16,564.5	65.3354	16,564.5	67.8371	16,564.5	61.772	16,564.5	60.4736	16,564.5	58.7645	16,564.5	59.0085	16,564.5	54.0074	16,564.5	63.2597	16,564.5	50.4584	16,564.5	58.1784	16,564.5	44.6826	16,564.5	54.7045	16,564.5	47.5217	16,564.5	45.3007	16,564.5	49.6436	16,564.5	47.497	16,564.5	45.1614	16,564.5	46.0686	16,564.5	53.7199	16,564.5	45.9459	16,564.5	51.8714	16,564.5	46.5771	16,564.5	49.9946
17,148.9	87.0385	17,148.9	86.4024	17,148.9	86.8908	17,148.9	82.6802	17,148.9	85.5163	17,148.9	77.3314	17,148.9	81.6426	17,148.9	73.4364	17,148.9	75.5333	17,148.9	68.5302	17,148.9	72.1023	17,148.9	68.1544	17,148.9	70.8258	17,148.9	63.2107	17,148.9	69.8684	17,148.9	60.4029	17,148.9	57.624	17,148.9	56.2451	17,148.9	54.8195	17,148.9	52.3732	17,148.9	60.9724	17,148.9	41.9256	17,148.9	58.1679	17,148.9	46.9454	17,148.9	55.8485	17,148.9	41.4993	17,148.9	34.1125	17,148.9	44.2967	17,148.9	47.0985	17,148.9	41.9945	17,148.9	45.9278	17,148.9	48.5567	17,148.9	47.1057	17,148.9	50.9057	17,148.9	45.131	17,148.9	47.7174
17,752.4	86.9052	17,752.4	85.8994	17,752.4	86.5669	17,752.4	82.1491	17,752.4	84.8148	17,752.4	76.5937	17,752.4	80.8204	17,752.4	71.5029	17,752.4	75.4225	17,752.4	67.8888	17,752.4	71.2651	17,752.4	66.39	17,752.4	69.1021	17,752.4	60.2858	17,752.4	68.4007	17,752.4	56.3332	17,752.4	52.8216	17,752.4	52.2249	17,752.4	50.5872	17,752.4	48.6008	17,752.4	58.4456	17,752.4	31.686	17,752.4	55.1118	17,752.4	43.0279	17,752.4	51.4792	17,752.4	35.7715	17,752.4	37.0415	17,752.4	27.1706	17,752.4	45.233	17,752.4	31.1672	17,752.4	50.1765	17,752.4	47.6319	17,752.4	47.2337	17,752.4	45.0054	17,752.4	45.9879	17,752.4	44.5796
18,379.4	86.9438	18,379.4	85.5647	18,379.4	86.4043	18,379.4	81.5901	18,379.4	83.8244	18,379.4	76.1327	18,379.4	79.2731	18,379.4	70.2378	18,379.4	73.8926	18,379.4	67.6095	18,379.4	70.4367	18,379.4	65.2952	18,379.4	68.2758	18,379.4	59.4519	18,379.4	64.7455	18,379.4	50.8439	18,379.4	56.115	18,379.4	51.6604	18,379.4	46.6307	18,379.4	42.1382	18,379.4	56.4092	18,379.4	44.5189	18,379.4	56.2281	18,379.4	36.7986	18,379.4	52.0078	18,379.4	36.8793	18,379.4	35.0948	18,379.4	42.1098	18,379.4	41.319	18,379.4	40.0709	18,379.4	44.2681	18,379.4	43.3057	18,379.4	45.5522	18,379.4	44.2589	18,379.4	46.1449	18,379.4	47.6959
19,026.9	86.9893	19,026.9	85.3703	19,026.9	86.167	19,026.9	81.0884	19,026.9	82.7026	19,026.9	74.8987	19,026.9	77.0524	19,026.9	68.8912	19,026.9	70.7903	19,026.9	68.1047	19,026.9	68.3175	19,026.9	66.0748	19,026.9	66.575	19,026.9	59.8262	19,026.9	62.2036	19,026.9	56.2515	19,026.9	56.7726	19,026.9	53.1265	19,026.9	48.9776	19,026.9	37.2043	19,026.9	56.2286	19,026.9	45.5164	19,026.9	58.4528	19,026.9	36.405	19,026.9	51.7386	19,026.9	41.1495	19,026.9	41.4428	19,026.9	46.6417	19,026.9	44.1055	19,026.9	42.8238	19,026.9	36.8001	19,026.9	37.1635	19,026.9	46.4633	19,026.9	47.9391	19,026.9	49.8344	19,026.9	49.6339
19,697.8	86.5398	19,697.8	85.1063	19,697.8	85.6255	19,697.8	80.2822	19,697.8	81.9642	19,697.8	72.4695	19,697.8	74.718	19,697.8	68.2663	19,697.8	67.8843	19,697.8	70.2751	19,697.8	67.4252	19,697.8	68.0572	19,697.8	63.2249	19,697.8	62.061	19,697.8	62.1146	19,697.8	58.9236	19,697.8	55.6593	19,697.8	54.7007	19,697.8	50.0003	19,697.8	44.9157	19,697.8	58.0813	19,697.8	45.9576	19,697.8	60.0492	19,697.8	40.4429	19,697.8	49.5888	19,697.8	43.3059	19,697.8	39.3902	19,697.8	47.5585	19,697.8	47.2389	19,697.8	35.9156	19,697.8	36.6259	19,697.8	44.4528	19,697.8	48.5134	19,697.8	47.5075	19,697.8	46.1582	19,697.8	48.6473
19,999.5	86.3641	19,999.5	84.8374	19,999.5	85.5188	19,999.5	79.9603	19,999.5	81.2305	19,999.5	71.6991	19,999.5	74.2088	19,999.5	68.3616	19,999.5	66.6992	19,999.5	70.7486	19,999.5	68.8097	19,999.5	68.0665	19,999.5	63.7768	19,999.5	62.0827	19,999.5	61.9289	19,999.5	59.1418	19,999.5	51.6541	19,999.5	55.758	19,999.5	53.0433	19,999.5	46.1287	19,999.5	60.4147	19,999.5	44.9613	19,999.5	61.6686	19,999.5	43.1404	19,999.5	49.6867	19,999.5	43.9834	19,999.5	44.3884	19,999.5	50.8554	19,999.5	42.0534	19,999.5	41.6373	19,999.5	44.1383	19,999.5	50.4834	19,999.5	39.8116	19,999.5	49.368	19,999.5	50.227	19,999.5	50.6665
