"SPL Horizontal"																																																																							
"On-Axis"		"10°"		"-10°"		"20°"		"-20°"		"30°"		"-30°"		"40°"		"-40°"		"50°"		"-50°"		"60°"		"-60°"		"70°"		"-70°"		"80°"		"-80°"		"90°"		"-90°"		"100°"		"-100°"		"110°"		"-110°"		"120°"		"-120°"		"130°"		"-130°"		"140°"		"-140°"		"150°"		"-150°"		"160°"		"-160°"		"170°"		"-170°"		"180°"	
"Frequency [Hz]"	"Sound Pessure Level [dB]  / [2.83V 1m] "	"Frequency [Hz]"	"Sound Pessure Level [dB]  / [2.83V 1m] "	"Frequency [Hz]"	"Sound Pessure Level [dB]  / [2.83V 1m] "	"Frequency [Hz]"	"Sound Pessure Level [dB]  / [2.83V 1m] "	"Frequency [Hz]"	"Sound Pessure Level [dB]  / [2.83V 1m] "	"Frequency [Hz]"	"Sound Pessure Level [dB]  / [2.83V 1m] "	"Frequency [Hz]"	"Sound Pessure Level [dB]  / [2.83V 1m] "	"Frequency [Hz]"	"Sound Pessure Level [dB]  / [2.83V 1m] "	"Frequency [Hz]"	"Sound Pessure Level [dB]  / [2.83V 1m] "	"Frequency [Hz]"	"Sound Pessure Level [dB]  / [2.83V 1m] "	"Frequency [Hz]"	"Sound Pessure Level [dB]  / [2.83V 1m] "	"Frequency [Hz]"	"Sound Pessure Level [dB]  / [2.83V 1m] "	"Frequency [Hz]"	"Sound Pessure Level [dB]  / [2.83V 1m] "	"Frequency [Hz]"	"Sound Pessure Level [dB]  / [2.83V 1m] "	"Frequency [Hz]"	"Sound Pessure Level [dB]  / [2.83V 1m] "	"Frequency [Hz]"	"Sound Pessure Level [dB]  / [2.83V 1m] "	"Frequency [Hz]"	"Sound Pessure Level [dB]  / [2.83V 1m] "	"Frequency [Hz]"	"Sound Pessure Level [dB]  / [2.83V 1m] "	"Frequency [Hz]"	"Sound Pessure Level [dB]  / [2.83V 1m] "	"Frequency [Hz]"	"Sound Pessure Level [dB]  / [2.83V 1m] "	"Frequency [Hz]"	"Sound Pessure Level [dB]  / [2.83V 1m] "	"Frequency [Hz]"	"Sound Pessure Level [dB]  / [2.83V 1m] "	"Frequency [Hz]"	"Sound Pessure Level [dB]  / [2.83V 1m] "	"Frequency [Hz]"	"Sound Pessure Level [dB]  / [2.83V 1m] "	"Frequency [Hz]"	"Sound Pessure Level [dB]  / [2.83V 1m] "	"Frequency [Hz]"	"Sound Pessure Level [dB]  / [2.83V 1m] "	"Frequency [Hz]"	"Sound Pessure Level [dB]  / [2.83V 1m] "	"Frequency [Hz]"	"Sound Pessure Level [dB]  / [2.83V 1m] "	"Frequency [Hz]"	"Sound Pessure Level [dB]  / [2.83V 1m] "	"Frequency [Hz]"	"Sound Pessure Level [dB]  / [2.83V 1m] "	"Frequency [Hz]"	"Sound Pessure Level [dB]  / [2.83V 1m] "	"Frequency [Hz]"	"Sound Pessure Level [dB]  / [2.83V 1m] "	"Frequency [Hz]"	"Sound Pessure Level [dB]  / [2.83V 1m] "	"Frequency [Hz]"	"Sound Pessure Level [dB]  / [2.83V 1m] "	"Frequency [Hz]"	"Sound Pessure Level [dB]  / [2.83V 1m] "	"Frequency [Hz]"	"Sound Pessure Level [dB]  / [2.83V 1m] "
20.5078	48.2797	20.5078	48.156	20.5078	48.0618	20.5078	47.6827	20.5078	47.4809	20.5078	46.8249	20.5078	46.4817	20.5078	45.5269	20.5078	44.9694	20.5078	43.7694	20.5078	42.8479	20.5078	41.8941	20.5078	40.4266	20.5078	41.4256	20.5078	39.9444	20.5078	43.4766	20.5078	42.7577	20.5078	46.3685	20.5078	46.0873	20.5078	48.9678	20.5078	48.851	20.5078	51.1076	20.5078	51.0532	20.5078	52.8381	20.5078	52.809	20.5078	54.2231	20.5078	54.205	20.5078	55.3099	20.5078	55.2974	20.5078	56.1299	20.5078	56.121	20.5078	56.7034	20.5078	56.6975	20.5078	57.0425	20.5078	57.0396	20.5078	57.1539
21.9727	53.2011	21.9727	53.1177	21.9727	53.0554	21.9727	52.7996	21.9727	52.6719	21.9727	52.2273	21.9727	52.0269	21.9727	51.3641	21.9727	51.0777	21.9727	50.1541	21.9727	49.7584	21.9727	48.5288	21.9727	47.986	21.9727	46.48	21.9727	45.7518	21.9727	44.4525	21.9727	43.6574	21.9727	44.1049	21.9727	43.7527	21.9727	46.1462	21.9727	46.2329	21.9727	48.7833	21.9727	48.9815	21.9727	51.0675	21.9727	51.2593	21.9727	52.8829	21.9727	53.0424	21.9727	54.2816	21.9727	54.4059	21.9727	55.3214	21.9727	55.4121	21.9727	56.0432	21.9727	56.1024	21.9727	56.4728	21.9727	56.5021	21.9727	56.6243
23.4375	51.7933	23.4375	51.6739	23.4375	51.6034	23.4375	51.2371	23.4375	51.0904	23.4375	50.4525	23.4375	50.2161	23.4375	49.272	23.4375	48.9205	23.4375	47.6647	23.4375	47.1567	23.4375	45.8132	23.4375	45.1275	23.4375	44.7539	23.4375	44.1089	23.4375	45.9866	23.4375	45.7179	23.4375	48.6168	23.4375	48.5783	23.4375	51.2175	23.4375	51.2445	23.4375	53.4081	23.4375	53.4444	23.4375	55.1876	23.4375	55.2181	23.4375	56.6113	23.4375	56.6333	23.4375	57.7269	23.4375	57.7415	23.4375	58.5678	23.4375	58.5767	23.4375	59.1556	23.4375	59.1606	23.4375	59.5039	23.4375	59.5061	23.4375	59.6199
24.9023	53.1599	24.9023	53.0305	24.9023	53.0067	24.9023	52.6114	24.9023	52.5641	24.9023	51.8843	24.9023	51.8148	24.9023	50.8315	24.9023	50.744	24.9023	49.4892	24.9023	49.3967	24.9023	48.1314	24.9023	48.0685	24.9023	47.591	24.9023	47.6064	24.9023	48.684	24.9023	48.7595	24.9023	50.826	24.9023	50.9005	24.9023	53.0739	24.9023	53.1252	24.9023	55.0578	24.9023	55.0876	24.9023	56.7153	24.9023	56.7295	24.9023	58.0635	24.9023	58.0678	24.9023	59.1306	24.9023	59.1295	24.9023	59.9397	24.9023	59.9363	24.9023	60.5072	24.9023	60.5037	24.9023	60.8433	24.9023	60.8412	24.9023	60.954
26.3672	55.3563	26.3672	55.2503	26.3672	55.239	26.3672	54.9205	26.3672	54.8982	26.3672	54.3706	26.3672	54.3379	26.3672	53.6243	26.3672	53.5824	26.3672	52.7682	26.3672	52.7188	26.3672	52.0326	26.3672	51.9787	26.3672	51.8334	26.3672	51.7782	26.3672	52.503	26.3672	52.4482	26.3672	53.8847	26.3672	53.8301	26.3672	55.5377	26.3672	55.4834	26.3672	57.1463	26.3672	57.0936	26.3672	58.5744	26.3672	58.525	26.3672	59.7795	26.3672	59.7352	26.3672	60.7548	26.3672	60.7173	26.3672	61.5043	26.3672	61.4749	26.3672	62.0335	26.3672	62.0133	26.3672	62.347	26.3672	62.3368	26.3672	62.4478
27.832	56.6493	27.832	56.5541	27.832	56.5402	27.832	56.2575	27.832	56.2269	27.832	55.77	27.832	55.7166	27.832	55.1262	27.832	55.0378	27.832	54.4203	27.832	54.2775	27.832	53.8615	27.832	53.642	27.832	53.7742	27.832	53.4756	27.832	54.3917	27.832	54.0541	27.832	55.6013	27.832	55.2787	27.832	57.0738	27.832	56.7945	27.832	58.5429	27.832	58.3112	27.832	59.8726	27.832	59.6845	27.832	61.0098	27.832	60.8597	27.832	61.9376	27.832	61.8215	27.832	62.6535	27.832	62.5685	27.832	63.1588	27.832	63.103	27.832	63.4555	27.832	63.4279	27.832	63.5452
29.2969	58.5663	29.2969	58.4846	29.2969	58.4673	29.2969	58.2251	29.2969	58.1889	29.2969	57.7984	29.2969	57.7399	29.2969	57.2353	29.2969	57.1485	29.2969	56.6115	29.2969	56.4879	29.2969	56.0852	29.2969	55.9172	29.2969	55.9043	29.2969	55.6949	29.2969	56.2875	29.2969	56.0593	29.2969	57.2248	29.2969	57.0077	29.2969	58.4854	29.2969	58.2967	29.2969	59.82	29.2969	59.6633	29.2969	61.0718	29.2969	60.9445	29.2969	62.1652	29.2969	62.0637	29.2969	63.0691	29.2969	62.9906	29.2969	63.7725	29.2969	63.715	29.2969	64.2725	29.2969	64.2347	29.2969	64.5685	29.2969	64.5498	29.2969	64.661
30.7617	59.7719	30.7617	59.7018	30.7617	59.6745	30.7617	59.4682	30.7617	59.4116	30.7617	59.0843	30.7617	58.9942	30.7617	58.5836	30.7617	58.4538	30.7617	58.0408	30.7617	57.865	30.7617	57.5997	30.7617	57.3772	30.7617	57.4707	30.7617	57.2165	30.7617	57.8331	30.7617	57.5796	30.7617	58.6845	30.7617	58.4626	30.7617	59.8406	30.7617	59.6624	30.7617	61.086	30.7617	60.9483	30.7617	62.2722	30.7617	62.1673	30.7617	63.3205	30.7617	63.2412	30.7617	64.1945	30.7617	64.1358	30.7617	64.8791	30.7617	64.8374	30.7617	65.3681	30.7617	65.3413	30.7617	65.6594	30.7617	65.6463	30.7617	65.7523
32.2266	60.8662	32.2266	60.8011	32.2266	60.7854	32.2266	60.5955	32.2266	60.5634	32.2266	60.2678	32.2266	60.2176	32.2266	59.8597	32.2266	59.789	32.2266	59.453	32.2266	59.36	32.2266	59.1833	32.2266	59.0693	32.2266	59.2192	32.2266	59.0914	32.2266	59.6749	32.2266	59.5462	32.2266	60.5194	32.2266	60.4019	32.2266	61.6011	32.2266	61.5005	32.2266	62.7517	32.2266	62.6686	32.2266	63.8505	32.2266	63.7832	32.2266	64.8282	32.2266	64.7747	32.2266	65.6489	32.2266	65.6077	32.2266	66.2954	32.2266	66.2653	32.2266	66.7595	32.2266	66.7397	32.2266	67.0371	32.2266	67.0273	32.2266	67.1266
33.6914	61.9903	33.6914	61.9314	33.6914	61.928	33.6914	61.757	33.6914	61.7505	33.6914	61.4868	33.6914	61.4777	33.6914	61.1627	33.6914	61.1514	33.6914	60.8591	33.6914	60.8461	33.6914	60.6885	33.6914	60.6733	33.6914	60.7785	33.6914	60.7602	33.6914	61.2106	33.6914	61.188	33.6914	61.9628	33.6914	61.9356	33.6914	62.9238	33.6914	62.8928	33.6914	63.9605	33.6914	63.9276	33.6914	64.9676	33.6914	64.9348	33.6914	65.8773	33.6914	65.8467	33.6914	66.6502	33.6914	66.6236	33.6914	67.2647	33.6914	67.2434	33.6914	67.7087	33.6914	67.6938	33.6914	67.9756	33.6914	67.968	33.6914	68.0624
35.1563	63.5679	35.1563	63.5208	35.1563	63.5131	35.1563	63.3778	35.1563	63.3618	35.1563	63.1578	35.1563	63.1325	35.1563	62.8985	35.1563	62.8624	35.1563	62.6628	35.1563	62.6143	35.1563	62.5402	35.1563	62.4781	35.1563	62.6291	35.1563	62.5546	35.1563	62.9956	35.1563	62.9125	35.1563	63.6327	35.1563	63.5467	35.1563	64.4627	35.1563	64.3794	35.1563	65.38	35.1563	65.3033	35.1563	66.2907	35.1563	66.2229	35.1563	67.1276	35.1563	67.07	35.1563	67.8478	35.1563	67.801	35.1563	68.4252	35.1563	68.3897	35.1563	68.8445	35.1563	68.8207	35.1563	69.0967	35.1563	69.0848	35.1563	69.1773
36.6211	64.7892	36.6211	64.7471	36.6211	64.7445	36.6211	64.6243	36.6211	64.6185	36.6211	64.44	36.6211	64.4297	36.6211	64.2306	36.6211	64.2137	36.6211	64.0539	36.6211	64.0275	36.6211	63.9877	36.6211	63.9486	36.6211	64.113	36.6211	64.0591	36.6211	64.4809	36.6211	64.4128	36.6211	65.0831	36.6211	65.0049	36.6211	65.8551	36.6211	65.7725	36.6211	66.7079	36.6211	66.6264	36.6211	67.5586	36.6211	67.4828	36.6211	68.3453	36.6211	68.2784	36.6211	69.0258	36.6211	68.9701	36.6211	69.5737	36.6211	69.5307	36.6211	69.9724	36.6211	69.9432	36.6211	70.2121	36.6211	70.1973	36.6211	70.2875
38.0859	66.0898	38.0859	66.058	38.0859	66.052	38.0859	65.9627	38.0859	65.9501	38.0859	65.8226	38.0859	65.8018	38.0859	65.6712	38.0859	65.64	38.0859	65.5591	38.0859	65.5148	38.0859	65.5502	38.0859	65.4905	38.0859	65.7074	38.0859	65.6319	38.0859	66.0681	38.0859	65.9794	38.0859	66.625	38.0859	66.5283	38.0859	67.3275	38.0859	67.2291	38.0859	68.1036	38.0859	68.0093	38.0859	68.883	38.0859	68.7971	38.0859	69.6096	38.0859	69.535	38.0859	70.243	38.0859	70.1815	38.0859	70.7558	38.0859	70.7089	38.0859	71.1305	38.0859	71.0988	38.0859	71.356	38.0859	71.34	38.0859	71.4265
39.5508	67.4742	39.5508	67.4501	39.5508	67.4406	39.5508	67.3739	39.5508	67.3545	39.5508	67.2618	39.5508	67.2321	39.5508	67.1429	39.5508	67.1022	39.5508	67.0596	39.5508	67.0075	39.5508	67.0646	39.5508	67.0014	39.5508	67.2094	39.5508	67.1369	39.5508	67.5268	39.5508	67.4482	39.5508	68.0152	39.5508	67.9347	39.5508	68.6372	39.5508	68.5589	39.5508	69.3345	39.5508	69.2618	39.5508	70.0454	39.5508	69.9804	39.5508	70.7168	39.5508	70.6611	39.5508	71.3084	39.5508	71.263	39.5508	71.7916	39.5508	71.7571	39.5508	72.1471	39.5508	72.1239	39.5508	72.3626	39.5508	72.3509	39.5508	72.4312
41.0156	69.1047	41.0156	69.0938	41.0156	69.0624	41.0156	69.0338	41.0156	68.9716	41.0156	68.9372	41.0156	68.8458	41.0156	68.8265	41.0156	68.7093	41.0156	68.7348	41.0156	68.5974	41.0156	68.7044	41.0156	68.5551	41.0156	68.7795	41.0156	68.6293	41.0156	68.9945	41.0156	68.8548	41.0156	69.3597	41.0156	69.2399	41.0156	69.856	41.0156	69.7609	41.0156	70.4405	41.0156	70.3698	41.0156	71.0596	41.0156	71.0101	41.0156	71.662	41.0156	71.629	41.0156	72.205	41.0156	72.1841	41.0156	72.6563	41.0156	72.6437	41.0156	72.9931	41.0156	72.9861	41.0156	73.2004	41.0156	73.1973	41.0156	73.2694
42.4805	69.6536	42.4805	69.6194	42.4805	69.6387	42.4805	69.5404	42.4805	69.5789	42.4805	69.4307	42.4805	69.4877	42.4805	69.3148	42.4805	69.3889	42.4805	69.2286	42.4805	69.3165	42.4805	69.2167	42.4805	69.3128	42.4805	69.3241	42.4805	69.4203	42.4805	69.5823	42.4805	69.6697	42.4805	69.9958	42.4805	70.0669	42.4805	70.5382	42.4805	70.589	42.4805	71.1611	42.4805	71.1916	42.4805	71.8087	42.4805	71.8221	42.4805	72.4302	42.4805	72.4311	42.4805	72.9844	42.4805	72.9779	42.4805	73.4412	42.4805	73.4319	42.4805	73.7796	42.4805	73.7713	42.4805	73.9864	42.4805	73.9816	42.4805	74.0544
43.9453	70.8283	43.9453	70.8099	43.9453	70.8083	43.9453	70.7577	43.9453	70.7539	43.9453	70.6844	43.9453	70.6774	43.9453	70.6124	43.9453	70.6004	43.9453	70.5724	43.9453	70.5532	43.9453	70.6011	43.9453	70.5725	43.9453	70.7342	43.9453	70.6945	43.9453	70.9954	43.9453	70.9442	43.9453	71.3872	43.9453	71.3259	43.9453	71.8879	43.9453	71.8196	43.9453	72.458	43.9453	72.3868	43.9453	73.0505	43.9453	72.9808	43.9453	73.6208	43.9453	73.5566	43.9453	74.1314	43.9453	74.076	43.9453	74.5533	43.9453	74.5094	43.9453	74.8658	43.9453	74.8355	43.9453	75.0554	43.9453	75.0398	43.9453	75.1141
45.4102	71.8481	45.4102	71.8428	45.4102	71.8227	45.4102	71.8108	45.4102	71.7706	45.4102	71.7639	45.4102	71.7034	45.4102	71.722	45.4102	71.6414	45.4102	71.7123	45.4102	71.6124	45.4102	71.7662	45.4102	71.6492	45.4102	71.9137	45.4102	71.7835	45.4102	72.1743	45.4102	72.0363	45.4102	72.5498	45.4102	72.4103	45.4102	73.0217	45.4102	72.8869	45.4102	73.5562	45.4102	73.431	45.4102	74.1118	45.4102	74.0001	45.4102	74.648	45.4102	74.5523	45.4102	75.1296	45.4102	75.0515	45.4102	75.5287	45.4102	75.4693	45.4102	75.8247	45.4102	75.7847	45.4102	76.0036	45.4102	75.9835	45.4102	76.0574
46.875	73.0859	46.875	73.0786	46.875	73.0683	46.875	73.0495	46.875	73.0293	46.875	73.009	46.875	72.9798	46.875	72.9741	46.875	72.9374	46.875	72.9685	46.875	72.9264	46.875	73.0196	46.875	72.9744	46.875	73.1536	46.875	73.108	46.875	73.3887	46.875	73.345	46.875	73.7283	46.875	73.6881	46.875	74.1582	46.875	74.1224	46.875	74.6496	46.875	74.6184	46.875	75.1658	46.875	75.1391	46.875	75.669	46.875	75.6466	46.875	76.1253	46.875	76.1072	46.875	76.507	46.875	76.4932	46.875	76.7933	46.875	76.7839	46.875	76.9696	46.875	76.9649	46.875	77.0277
48.3398	73.8862	48.3398	73.8766	48.3398	73.8799	48.3398	73.8544	48.3398	73.8611	48.3398	73.8294	48.3398	73.8399	48.3398	73.8176	48.3398	73.8323	48.3398	73.8408	48.3398	73.8596	48.3398	73.923	48.3398	73.9453	48.3398	74.0862	48.3398	74.1107	48.3398	74.3442	48.3398	74.3689	48.3398	74.697	48.3398	74.72	48.3398	75.1299	48.3398	75.1492	48.3398	75.6155	48.3398	75.6301	48.3398	76.1201	48.3398	76.1298	48.3398	76.609	48.3398	76.6144	48.3398	77.051	48.3398	77.0532	48.3398	77.4205	48.3398	77.4207	48.3398	77.6977	48.3398	77.6971	48.3398	77.8692	48.3398	77.8687	48.3398	77.927
51.2695	75.9811	51.2695	75.9772	51.2695	75.9756	51.2695	75.9666	51.2695	75.9632	51.2695	75.9568	51.2695	75.9516	51.2695	75.9601	51.2695	75.9529	51.2695	75.9925	51.2695	75.9833	51.2695	76.0719	51.2695	76.0605	51.2695	76.215	51.2695	76.2012	51.2695	76.4325	51.2695	76.4165	51.2695	76.7262	51.2695	76.7082	51.2695	77.0866	51.2695	77.067	51.2695	77.4939	51.2695	77.4736	51.2695	77.922	51.2695	77.9017	51.2695	78.3418	51.2695	78.3227	51.2695	78.7255	51.2695	78.7088	51.2695	79.0492	51.2695	79.0356	51.2695	79.2934	51.2695	79.2838	51.2695	79.4443	51.2695	79.4394	51.2695	79.4939
52.7344	76.8277	52.7344	76.8279	52.7344	76.8261	52.7344	76.829	52.7344	76.8251	52.7344	76.8374	52.7344	76.8311	52.7344	76.8634	52.7344	76.8542	52.7344	76.9203	52.7344	76.9073	52.7344	77.022	52.7344	77.0047	52.7344	77.1811	52.7344	77.1588	52.7344	77.4052	52.7344	77.3776	52.7344	77.6942	52.7344	77.6616	52.7344	78.0389	52.7344	78.0025	52.7344	78.4224	52.7344	78.3836	52.7344	78.8216	52.7344	78.7826	52.7344	79.2113	52.7344	79.1743	52.7344	79.5667	52.7344	79.534	52.7344	79.866	52.7344	79.8395	52.7344	80.0913	52.7344	80.0726	52.7344	80.2296	52.7344	80.22	52.7344	80.2733
54.1992	77.782	54.1992	77.7834	54.1992	77.7808	54.1992	77.7869	54.1992	77.7817	54.1992	77.7982	54.1992	77.7902	54.1992	77.8259	54.1992	77.8151	54.1992	77.8814	54.1992	77.8676	54.1992	77.977	54.1992	77.96	54.1992	78.1236	54.1992	78.1033	54.1992	78.3282	54.1992	78.3047	54.1992	78.5915	54.1992	78.565	54.1992	78.9063	54.1992	78.8775	54.1992	79.2579	54.1992	79.2278	54.1992	79.6261	54.1992	79.5961	54.1992	79.9878	54.1992	79.9594	54.1992	80.3197	54.1992	80.2945	54.1992	80.6006	54.1992	80.5802	54.1992	80.8131	54.1992	80.7987	54.1992	80.9442	54.1992	80.9368	54.1992	80.9863
55.6641	78.6447	55.6641	78.6479	55.6641	78.6435	55.6641	78.6548	55.6641	78.646	55.6641	78.6702	55.6641	78.657	55.6641	78.7018	55.6641	78.6842	55.6641	78.7594	55.6641	78.7374	55.6641	78.8536	55.6641	78.8272	55.6641	78.9939	55.6641	78.9635	55.6641	79.1866	55.6641	79.1525	55.6641	79.4324	55.6641	79.3953	55.6641	79.7253	55.6641	79.6863	55.6641	80.0524	55.6641	80.0128	55.6641	80.3956	55.6641	80.357	55.6641	80.7336	55.6641	80.6979	55.6641	81.0447	55.6641	81.0135	55.6641	81.3086	55.6641	81.2837	55.6641	81.5086	55.6641	81.4911	55.6641	81.6318	55.6641	81.6229	55.6641	81.6707
58.5938	80.1011	58.5938	80.106	58.5938	80.102	58.5938	80.1179	58.5938	80.1098	58.5938	80.1408	58.5938	80.1284	58.5938	80.1807	58.5938	80.1639	58.5938	80.2454	58.5938	80.2238	58.5938	80.3428	58.5938	80.3162	58.5938	80.4801	58.5938	80.4484	58.5938	80.6616	58.5938	80.625	58.5938	80.8871	58.5938	80.8463	58.5938	81.1513	58.5938	81.1075	58.5938	81.4434	58.5938	81.3982	58.5938	81.7482	58.5938	81.7036	58.5938	82.0477	58.5938	82.006	58.5938	82.3232	58.5938	82.2866	58.5938	82.557	58.5938	82.5275	58.5938	82.734	58.5938	82.7134	58.5938	82.8427	58.5938	82.8321	58.5938	82.8762
60.0586	80.7704	60.0586	80.7771	60.0586	80.7718	60.0586	80.7929	60.0586	80.7823	60.0586	80.8211	60.0586	80.8054	60.0586	80.8667	60.0586	80.846	60.0586	80.9361	60.0586	80.9106	60.0586	81.0358	60.0586	81.0059	60.0586	81.1717	60.0586	81.1377	60.0586	81.347	60.0586	81.3097	60.0586	81.5616	60.0586	81.5218	60.0586	81.8106	60.0586	81.7694	60.0586	82.0845	60.0586	82.0432	60.0586	82.3697	60.0586	82.3299	60.0586	82.65	60.0586	82.6133	60.0586	82.9082	60.0586	82.8763	60.0586	83.1278	60.0586	83.1022	60.0586	83.2944	60.0586	83.2765	60.0586	83.397	60.0586	83.3878	60.0586	83.4288
62.9883	82.0598	62.9883	82.0666	62.9883	82.0644	62.9883	82.0857	62.9883	82.0812	62.9883	82.119	62.9883	82.1125	62.9883	82.1701	62.9883	82.1615	62.9883	82.243	62.9883	82.2325	62.9883	82.342	62.9883	82.3298	62.9883	82.4709	62.9883	82.4569	62.9883	82.6316	62.9883	82.6159	62.9883	82.8236	62.9883	82.8062	62.9883	83.043	62.9883	83.024	62.9883	83.2822	62.9883	83.2622	62.9883	83.5305	62.9883	83.5101	62.9883	83.7745	62.9883	83.7547	62.9883	83.9998	62.9883	83.9818	62.9883	84.192	62.9883	84.1771	62.9883	84.3386	62.9883	84.3279	62.9883	84.4295	62.9883	84.4239	62.9883	84.4586
64.4531	82.6254	64.4531	82.6327	64.4531	82.6308	64.4531	82.6532	64.4531	82.6495	64.4531	82.6887	64.4531	82.6831	64.4531	82.7417	64.4531	82.7344	64.4531	82.8157	64.4531	82.8065	64.4531	82.9139	64.4531	82.9029	64.4531	83.0392	64.4531	83.0262	64.4531	83.1929	64.4531	83.178	64.4531	83.3744	64.4531	83.3575	64.4531	83.58	64.4531	83.5613	64.4531	83.803	64.4531	83.783	64.4531	84.0339	64.4531	84.0133	64.4531	84.2606	64.4531	84.2405	64.4531	84.4699	64.4531	84.4515	64.4531	84.6486	64.4531	84.6334	64.4531	84.7849	64.4531	84.774	64.4531	84.8695	64.4531	84.8637	64.4531	84.8964
67.3828	83.5592	67.3828	83.5676	67.3828	83.5656	67.3828	83.5911	67.3828	83.5871	67.3828	83.6307	67.3828	83.6249	67.3828	83.6878	67.3828	83.6803	67.3828	83.764	67.3828	83.7552	67.3828	83.8612	67.3828	83.8511	67.3828	83.9807	67.3828	83.9695	67.3828	84.1229	67.3828	84.1107	67.3828	84.2867	67.3828	84.2736	67.3828	84.4691	67.3828	84.4551	67.3828	84.6647	67.3828	84.6501	67.3828	84.8658	67.3828	84.851	67.3828	85.0628	67.3828	85.0484	67.3828	85.2446	67.3828	85.2315	67.3828	85.4001	67.3828	85.3892	67.3828	85.5191	67.3828	85.5111	67.3828	85.5931	67.3828	85.5889	67.3828	85.6169
68.8477	83.9262	68.8477	83.9346	68.8477	83.9336	68.8477	83.959	68.8477	83.9571	68.8477	84	68.8477	83.9974	68.8477	84.0584	68.8477	84.0553	68.8477	84.1355	68.8477	84.1318	68.8477	84.2322	68.8477	84.2281	68.8477	84.3491	68.8477	84.3447	68.8477	84.4863	68.8477	84.4814	68.8477	84.6425	68.8477	84.6369	68.8477	84.8147	68.8477	84.8083	68.8477	84.9982	68.8477	84.991	68.8477	85.186	68.8477	85.1781	68.8477	85.3694	68.8477	85.3612	68.8477	85.5387	68.8477	85.5308	68.8477	85.6836	68.8477	85.6767	68.8477	85.7945	68.8477	85.7894	68.8477	85.8638	68.8477	85.861	68.8477	85.8865
71.7773	84.6934	71.7773	84.7013	71.7773	84.7027	71.7773	84.7265	71.7773	84.7291	71.7773	84.7689	71.7773	84.7727	71.7773	84.8286	71.7773	84.8334	71.7773	84.9055	71.7773	84.9112	71.7773	84.9996	71.7773	85.0058	71.7773	85.1104	71.7773	85.1167	71.7773	85.2371	71.7773	85.243	71.7773	85.378	71.7773	85.3829	71.7773	85.5304	71.7773	85.5339	71.7773	85.6904	71.7773	85.6922	71.7773	85.8526	71.7773	85.8525	71.7773	86.01	71.7773	86.0083	71.7773	86.1547	71.7773	86.152	71.7773	86.2784	71.7773	86.2754	71.7773	86.3732	71.7773	86.3706	71.7773	86.4326	71.7773	86.4311	71.7773	86.4523
74.707	85.3792	74.707	85.3872	74.707	85.3896	74.707	85.4133	74.707	85.418	74.707	85.4571	74.707	85.4639	74.707	85.5179	74.707	85.5266	74.707	85.5947	74.707	85.6051	74.707	85.6865	74.707	85.698	74.707	85.7917	74.707	85.8038	74.707	85.9089	74.707	85.921	74.707	86.0361	74.707	86.0475	74.707	86.1707	74.707	86.1809	74.707	86.3094	74.707	86.3178	74.707	86.4481	74.707	86.4545	74.707	86.5815	74.707	86.5858	74.707	86.7035	74.707	86.7059	74.707	86.8075	74.707	86.8085	74.707	86.8872	74.707	86.8874	74.707	86.9373	74.707	86.9373	74.707	86.9543
77.6367	85.8441	77.6367	85.8534	77.6367	85.8539	77.6367	85.8814	77.6367	85.8824	77.6367	85.9273	77.6367	85.9287	77.6367	85.9897	77.6367	85.9914	77.6367	86.0668	77.6367	86.0686	77.6367	86.1567	77.6367	86.1581	77.6367	86.257	77.6367	86.2579	77.6367	86.3655	77.6367	86.3654	77.6367	86.4799	77.6367	86.4785	77.6367	86.5977	77.6367	86.5948	77.6367	86.7162	77.6367	86.7117	77.6367	86.8321	77.6367	86.8261	77.6367	86.9418	77.6367	86.9347	77.6367	87.0407	77.6367	87.0333	77.6367	87.1241	77.6367	87.1174	77.6367	87.1873	77.6367	87.1822	77.6367	87.2264	77.6367	87.2236	77.6367	87.2388
79.1016	86.0115	79.1016	86.0218	79.1016	86.0206	79.1016	86.051	79.1016	86.0487	79.1016	86.0982	79.1016	86.0947	79.1016	86.1615	79.1016	86.1569	79.1016	86.2389	79.1016	86.2331	79.1016	86.3279	79.1016	86.321	79.1016	86.426	79.1016	86.4178	79.1016	86.5306	79.1016	86.5211	79.1016	86.6391	79.1016	86.6285	79.1016	86.7493	79.1016	86.7374	79.1016	86.8586	79.1016	86.8456	79.1016	86.9642	79.1016	86.9506	79.1016	87.063	79.1016	87.0494	79.1016	87.1514	79.1016	87.1387	79.1016	87.2254	79.1016	87.2145	79.1016	87.2811	79.1016	87.2731	79.1016	87.3151	79.1016	87.3109	79.1016	87.3252
82.0313	86.4106	82.0313	86.4217	82.0313	86.4191	82.0313	86.4517	82.0313	86.4467	82.0313	86.4995	82.0313	86.492	82.0313	86.5627	82.0313	86.553	82.0313	86.6388	82.0313	86.6268	82.0313	86.7246	82.0313	86.7106	82.0313	86.8171	82.0313	86.8011	82.0313	86.9131	82.0313	86.8954	82.0313	87.0101	82.0313	86.9909	82.0313	87.1057	82.0313	87.0852	82.0313	87.1977	82.0313	87.1764	82.0313	87.2841	82.0313	87.2629	82.0313	87.3631	82.0313	87.3427	82.0313	87.4323	82.0313	87.4138	82.0313	87.4892	82.0313	87.4739	82.0313	87.5312	82.0313	87.5202	82.0313	87.5563	82.0313	87.5505	82.0313	87.5628
84.9609	86.6651	84.9609	86.6773	84.9609	86.6735	84.9609	86.7095	84.9609	86.7021	84.9609	86.76	84.9609	86.7491	84.9609	86.8262	84.9609	86.8122	84.9609	86.9047	84.9609	86.8879	84.9609	86.992	84.9609	86.9728	84.9609	87.0842	84.9609	87.0631	84.9609	87.1778	84.9609	87.1552	84.9609	87.2697	84.9609	87.2461	84.9609	87.3574	84.9609	87.3334	84.9609	87.4389	84.9609	87.4152	84.9609	87.5129	84.9609	87.4901	84.9609	87.5782	84.9609	87.5571	84.9609	87.6336	84.9609	87.6152	84.9609	87.6781	84.9609	87.6632	84.9609	87.7103	84.9609	87.6998	84.9609	87.729	84.9609	87.7236	84.9609	87.7335
87.8906	86.8259	87.8906	86.8388	87.8906	86.8341	87.8906	86.8721	87.8906	86.8628	87.8906	86.9238	87.8906	86.9102	87.8906	86.9909	87.8906	86.9735	87.8906	87.0696	87.8906	87.0489	87.8906	87.1557	87.8906	87.1323	87.8906	87.245	87.8906	87.2195	87.8906	87.3333	87.8906	87.3063	87.8906	87.4172	87.8906	87.3895	87.8906	87.4941	87.8906	87.4665	87.8906	87.5624	87.8906	87.5354	87.8906	87.621	87.8906	87.5955	87.8906	87.6697	87.8906	87.6465	87.8906	87.7087	87.8906	87.6886	87.8906	87.7382	87.8906	87.7221	87.8906	87.7583	87.8906	87.7471	87.8906	87.7692	87.8906	87.7634	87.8906	87.7709
90.8203	87.0622	90.8203	87.0762	90.8203	87.0679	90.8203	87.1091	90.8203	87.0926	90.8203	87.1587	90.8203	87.1346	90.8203	87.2219	90.8203	87.1909	90.8203	87.2948	90.8203	87.2575	90.8203	87.3727	90.8203	87.3303	90.8203	87.4512	90.8203	87.4047	90.8203	87.5261	90.8203	87.4767	90.8203	87.5939	90.8203	87.5428	90.8203	87.652	90.8203	87.6006	90.8203	87.699	90.8203	87.6489	90.8203	87.7348	90.8203	87.6875	90.8203	87.7602	90.8203	87.7172	90.8203	87.7764	90.8203	87.7394	90.8203	87.7854	90.8203	87.756	90.8203	87.7888	90.8203	87.7682	90.8203	87.788	90.8203	87.7774	90.8203	87.784
95.2148	87.2456	95.2148	87.2617	95.2148	87.2478	95.2148	87.295	95.2148	87.2676	95.2148	87.3431	95.2148	87.3034	95.2148	87.4027	95.2148	87.3521	95.2148	87.4695	95.2148	87.4097	95.2148	87.5387	95.2148	87.4719	95.2148	87.6056	95.2148	87.5342	95.2148	87.666	95.2148	87.5922	95.2148	87.7164	95.2148	87.6427	95.2148	87.7548	95.2148	87.6833	95.2148	87.7801	95.2148	87.713	95.2148	87.7932	95.2148	87.7321	95.2148	87.7957	95.2148	87.7424	95.2148	87.7904	95.2148	87.7462	95.2148	87.7806	95.2148	87.7465	95.2148	87.7693	95.2148	87.7461	95.2148	87.759	95.2148	87.7472	95.2148	87.7514
98.1445	87.2024	98.1445	87.2137	98.1445	87.2114	98.1445	87.2441	98.1445	87.2397	98.1445	87.2915	98.1445	87.2853	98.1445	87.3521	98.1445	87.3445	98.1445	87.4213	98.1445	87.4129	98.1445	87.494	98.1445	87.4854	98.1445	87.5649	98.1445	87.5567	98.1445	87.6293	98.1445	87.6222	98.1445	87.6834	98.1445	87.6779	98.1445	87.7247	98.1445	87.721	98.1445	87.752	98.1445	87.7503	98.1445	87.7662	98.1445	87.7663	98.1445	87.7693	98.1445	87.7708	98.1445	87.7645	98.1445	87.7668	98.1445	87.7556	98.1445	87.758	98.1445	87.7462	98.1445	87.7483	98.1445	87.7396	98.1445	87.7407	98.1445	87.7375
101.074	87.2543	101.074	87.2643	101.074	87.2638	101.074	87.2927	101.074	87.292	101.074	87.3374	101.074	87.3365	101.074	87.3947	101.074	87.3938	101.074	87.4599	101.074	87.4594	101.074	87.5279	101.074	87.5281	101.074	87.5934	101.074	87.5946	101.074	87.6514	101.074	87.6539	101.074	87.698	101.074	87.702	101.074	87.7307	101.074	87.7361	101.074	87.7484	101.074	87.755	101.074	87.7519	101.074	87.7595	101.074	87.7439	101.074	87.7518	101.074	87.7281	101.074	87.7357	101.074	87.7094	101.074	87.7159	101.074	87.6922	101.074	87.697	101.074	87.6807	101.074	87.6833	101.074	87.6775
105.469	87.3107	105.469	87.3183	105.469	87.3212	105.469	87.3432	105.469	87.349	105.469	87.383	105.469	87.3919	105.469	87.4343	105.469	87.4463	105.469	87.4923	105.469	87.5076	105.469	87.5519	105.469	87.5705	105.469	87.6076	105.469	87.6296	105.469	87.6547	105.469	87.6798	105.469	87.6889	105.469	87.7168	105.469	87.7078	105.469	87.7378	105.469	87.7107	105.469	87.7419	105.469	87.6987	105.469	87.7299	105.469	87.6751	105.469	87.7049	105.469	87.6448	105.469	87.6715	105.469	87.6136	105.469	87.6355	105.469	87.5874	105.469	87.603	105.469	87.5712	105.469	87.5793	105.469	87.5681
108.398	87.2815	108.398	87.2889	108.398	87.292	108.398	87.3133	108.398	87.3198	108.398	87.3523	108.398	87.3626	108.398	87.4021	108.398	87.4171	108.398	87.4582	108.398	87.4784	108.398	87.5151	108.398	87.5413	108.398	87.5674	108.398	87.6	108.398	87.6102	108.398	87.6492	108.398	87.6394	108.398	87.6844	108.398	87.6525	108.398	87.7025	108.398	87.6489	108.398	87.7022	108.398	87.6301	108.398	87.6844	108.398	87.5997	108.398	87.6524	108.398	87.5633	108.398	87.611	108.398	87.5273	108.398	87.5667	108.398	87.4981	108.398	87.5263	108.398	87.4813	108.398	87.496	108.398	87.4803
112.793	87.4062	112.793	87.415	112.793	87.4136	112.793	87.439	112.793	87.4364	112.793	87.4759	112.793	87.4728	112.793	87.5221	112.793	87.5191	112.793	87.573	112.793	87.5712	112.793	87.6234	112.793	87.6237	112.793	87.6678	112.793	87.6711	112.793	87.701	112.793	87.7083	112.793	87.7191	112.793	87.7307	112.793	87.7194	112.793	87.7353	112.793	87.7014	112.793	87.7211	112.793	87.6668	112.793	87.6893	112.793	87.6199	112.793	87.6434	112.793	87.5668	112.793	87.5894	112.793	87.515	112.793	87.5344	112.793	87.4723	112.793	87.4865	112.793	87.4453	112.793	87.4528	112.793	87.4383
117.188	87.4398	117.188	87.4467	117.188	87.4476	117.188	87.4677	117.188	87.4695	117.188	87.5006	117.188	87.5034	117.188	87.5421	117.188	87.5458	117.188	87.5878	117.188	87.5924	117.188	87.6326	117.188	87.6381	117.188	87.6709	117.188	87.6773	117.188	87.6976	117.188	87.7049	117.188	87.7085	117.188	87.7165	117.188	87.7008	117.188	87.7093	117.188	87.6738	117.188	87.6824	117.188	87.6293	117.188	87.6377	117.188	87.5717	117.188	87.5794	117.188	87.5075	117.188	87.5142	117.188	87.4449	117.188	87.4502	117.188	87.3924	117.188	87.3961	117.188	87.3578	117.188	87.3597	117.188	87.3463
120.117	87.3256	120.117	87.3369	120.117	87.3295	120.117	87.3624	120.117	87.3478	120.117	87.4001	120.117	87.3789	120.117	87.4466	120.117	87.4194	120.117	87.4976	120.117	87.4654	120.117	87.5477	120.117	87.5118	120.117	87.5916	120.117	87.5533	120.117	87.624	120.117	87.5846	120.117	87.6403	120.117	87.6015	120.117	87.6377	120.117	87.6008	120.117	87.6153	120.117	87.5815	120.117	87.5748	120.117	87.545	120.117	87.5203	120.117	87.4951	120.117	87.4582	120.117	87.4381	120.117	87.3967	120.117	87.3817	120.117	87.3442	120.117	87.3343	120.117	87.3082	120.117	87.3034	120.117	87.294
124.512	87.4784	124.512	87.4735	124.512	87.4947	124.512	87.4795	124.512	87.5217	124.512	87.4947	124.512	87.5576	124.512	87.5166	124.512	87.5993	124.512	87.5415	124.512	87.6429	124.512	87.5651	124.512	87.6837	124.512	87.5827	124.512	87.7164	124.512	87.5899	124.512	87.736	124.512	87.583	124.512	87.7381	124.512	87.5597	124.512	87.7198	124.512	87.5198	124.512	87.68	124.512	87.4654	124.512	87.6203	124.512	87.4014	124.512	87.5448	124.512	87.3349	124.512	87.4604	124.512	87.2745	124.512	87.3756	124.512	87.2291	124.512	87.3001	124.512	87.2061	124.512	87.2428	124.512	87.2104
128.906	87.3347	128.906	87.3406	128.906	87.3404	128.906	87.3569	128.906	87.3573	128.906	87.3817	128.906	87.3842	128.906	87.4117	128.906	87.4183	128.906	87.4429	128.906	87.4557	128.906	87.4706	128.906	87.4917	128.906	87.4899	128.906	87.5207	128.906	87.4959	128.906	87.5373	128.906	87.4847	128.906	87.5367	128.906	87.4542	128.906	87.5155	128.906	87.4041	128.906	87.4726	128.906	87.3372	128.906	87.4093	128.906	87.2586	128.906	87.3302	128.906	87.1765	128.906	87.2425	128.906	87.1004	128.906	87.1557	128.906	87.0403	128.906	87.0802	128.906	87.0048	128.906	87.0258	128.906	86.9996
133.301	87.2247	133.301	87.2394	133.301	87.22	133.301	87.2629	133.301	87.2255	133.301	87.2931	133.301	87.2401	133.301	87.3269	133.301	87.2619	133.301	87.3604	133.301	87.2876	133.301	87.389	133.301	87.3129	133.301	87.4076	133.301	87.3328	133.301	87.4117	133.301	87.3421	133.301	87.3972	133.301	87.3361	133.301	87.3618	133.301	87.3114	133.301	87.3053	133.301	87.2667	133.301	87.2304	133.301	87.2033	133.301	87.1425	133.301	87.1257	133.301	87.0498	133.301	87.0412	133.301	86.9623	133.301	86.9593	133.301	86.8905	133.301	86.8904	133.301	86.8435	133.301	86.8441	133.301	86.8275
139.16	87.1006	139.16	87.1185	139.16	87.0901	139.16	87.1429	139.16	87.0869	139.16	87.1722	139.16	87.0902	139.16	87.2037	139.16	87.0983	139.16	87.234	139.16	87.1086	139.16	87.2587	139.16	87.1174	139.16	87.2729	139.16	87.1207	139.16	87.2718	139.16	87.1139	139.16	87.2512	139.16	87.0932	139.16	87.2086	139.16	87.0557	139.16	87.1436	139.16	87.0007	139.16	87.0586	139.16	86.9298	139.16	86.9593	139.16	86.8479	139.16	86.8538	139.16	86.7624	139.16	86.7526	139.16	86.6829	139.16	86.6666	139.16	86.6197	139.16	86.6057	139.16	86.5821	139.16	86.5767
143.555	87.0173	143.555	87.0268	143.555	87.0137	143.555	87.0419	143.555	87.0156	143.555	87.0614	143.555	87.0218	143.555	87.0833	143.555	87.0304	143.555	87.1044	143.555	87.0386	143.555	87.1206	143.555	87.043	143.555	87.1273	143.555	87.0394	143.555	87.1197	143.555	87.0237	143.555	87.0935	143.555	86.9924	143.555	87.0461	143.555	86.9431	143.555	86.9768	143.555	86.8757	143.555	86.8879	143.555	86.7925	143.555	86.785	143.555	86.6989	143.555	86.6763	143.555	86.6028	143.555	86.5724	143.555	86.5145	143.555	86.4845	143.555	86.4445	143.555	86.4227	143.555	86.4023	143.555	86.3943
147.949	86.9316	147.949	86.9336	147.949	86.9336	147.949	86.9393	147.949	86.9392	147.949	86.948	147.949	86.9474	147.949	86.9578	147.949	86.9563	147.949	86.9662	147.949	86.9632	147.949	86.9696	147.949	86.9647	147.949	86.964	147.949	86.9568	147.949	86.945	147.949	86.9355	147.949	86.9089	147.949	86.8971	147.949	86.8533	147.949	86.8395	147.949	86.7778	147.949	86.7627	147.949	86.6849	147.949	86.6693	147.949	86.5802	147.949	86.5649	147.949	86.472	147.949	86.458	147.949	86.3705	147.949	86.359	147.949	86.287	147.949	86.2787	147.949	86.2313	147.949	86.2269	147.949	86.2104
153.809	86.8243	153.809	86.8314	153.809	86.8187	153.809	86.8395	153.809	86.8147	153.809	86.8476	153.809	86.812	153.809	86.8539	153.809	86.8093	153.809	86.856	153.809	86.8047	153.809	86.8505	153.809	86.7954	153.809	86.8337	153.809	86.7777	153.809	86.8017	153.809	86.7478	153.809	86.7513	153.809	86.7021	153.809	86.6806	153.809	86.6383	153.809	86.5902	153.809	86.556	153.809	86.4833	153.809	86.4576	153.809	86.3663	153.809	86.3485	153.809	86.2481	153.809	86.237	153.809	86.1396	153.809	86.1335	153.809	86.0519	153.809	86.0491	153.809	85.9948	153.809	85.9938	153.809	85.9747
159.668	86.7521	159.668	86.7561	159.668	86.7472	159.668	86.7594	159.668	86.7413	159.668	86.7613	159.668	86.7339	159.668	86.7609	159.668	86.724	159.668	86.7565	159.668	86.71	159.668	86.7451	159.668	86.6895	159.668	86.7234	159.668	86.6594	159.668	86.6876	159.668	86.6167	159.668	86.6343	159.668	86.5585	159.668	86.5615	159.668	86.4834	159.668	86.4694	159.668	86.3919	159.668	86.3607	159.668	86.287	159.668	86.2415	159.668	86.1747	159.668	86.1204	159.668	86.0634	159.668	86.0079	159.668	85.9631	159.668	85.9151	159.668	85.8842	159.668	85.8517	159.668	85.836	159.668	85.8244
165.527	86.7788	165.527	86.7802	165.527	86.7731	165.527	86.7771	165.527	86.7629	165.527	86.7694	165.527	86.7484	165.527	86.7565	165.527	86.7292	165.527	86.7374	165.527	86.7043	165.527	86.7103	165.527	86.6722	165.527	86.673	165.527	86.6305	165.527	86.6227	165.527	86.5769	165.527	86.5571	165.527	86.5092	165.527	86.4752	165.527	86.4264	165.527	86.3775	165.527	86.3296	165.527	86.2671	165.527	86.2217	165.527	86.1497	165.527	86.1087	165.527	86.0332	165.527	85.9982	165.527	85.9272	165.527	85.8996	165.527	85.8412	165.527	85.8222	165.527	85.7838	165.527	85.7741	165.527	85.7607
171.387	86.6991	171.387	86.6969	171.387	86.6967	171.387	86.69	171.387	86.6895	171.387	86.6778	171.387	86.6768	171.387	86.6592	171.387	86.6574	171.387	86.6322	171.387	86.6293	171.387	86.5943	171.387	86.5899	171.387	86.5426	171.387	86.5362	171.387	86.4745	171.387	86.4654	171.387	86.3883	171.387	86.376	171.387	86.2845	171.387	86.2685	171.387	86.1657	171.387	86.146	171.387	86.0372	171.387	86.0144	171.387	85.9066	171.387	85.8819	171.387	85.7825	171.387	85.758	171.387	85.6738	171.387	85.652	171.387	85.5885	171.387	85.5721	171.387	85.5327	171.387	85.5239	171.387	85.5106
177.246	86.5506	177.246	86.5404	177.246	86.556	177.246	86.5253	177.246	86.5568	177.246	86.5054	177.246	86.5535	177.246	86.4806	177.246	86.546	177.246	86.4501	177.246	86.5331	177.246	86.4121	177.246	86.5125	177.246	86.3636	177.246	86.4803	177.246	86.3012	177.246	86.432	177.246	86.2217	177.246	86.3632	177.246	86.1231	177.246	86.2709	177.246	86.0063	177.246	86.155	177.246	85.8755	177.246	86.019	177.246	85.7383	177.246	85.8701	177.246	85.6052	177.246	85.7193	177.246	85.4885	177.246	85.5792	177.246	85.4	177.246	85.463	177.246	85.3493	177.246	85.3815	177.246	85.3426
183.105	86.3122	183.105	86.3185	183.105	86.2958	183.105	86.3143	183.105	86.2707	183.105	86.2994	183.105	86.2386	183.105	86.2743	183.105	86.2012	183.105	86.2389	183.105	86.1595	183.105	86.1925	183.105	86.1136	183.105	86.1338	183.105	86.0617	183.105	86.0609	183.105	86.001	183.105	85.9721	183.105	85.9284	183.105	85.867	183.105	85.8415	183.105	85.7471	183.105	85.7397	183.105	85.6169	183.105	85.6251	183.105	85.4833	183.105	85.5032	183.105	85.3558	183.105	85.3819	183.105	85.2446	183.105	85.2711	183.105	85.1595	183.105	85.1807	183.105	85.108	183.105	85.1198	183.105	85.0945
188.965	86.2521	188.965	86.2619	188.965	86.2263	188.965	86.2557	188.965	86.1853	188.965	86.2342	188.965	86.1311	188.965	86.1984	188.965	86.0658	188.965	86.1492	188.965	85.9917	188.965	86.0865	188.965	85.91	188.965	86.0098	188.965	85.8213	188.965	85.9179	188.965	85.725	188.965	85.8098	188.965	85.6203	188.965	85.6856	188.965	85.5067	188.965	85.5473	188.965	85.3852	188.965	85.3999	188.965	85.259	188.965	85.2504	188.965	85.1337	188.965	85.108	188.965	85.0166	188.965	84.9827	188.965	84.9162	188.965	84.8834	188.965	84.8404	188.965	84.817	188.965	84.796	188.965	84.7876
196.289	86.2501	196.289	86.2474	196.289	86.2327	196.289	86.2254	196.289	86.1955	196.289	86.1858	196.289	86.1395	196.289	86.1305	196.289	86.0667	196.289	86.0615	196.289	85.9792	196.289	85.9798	196.289	85.8785	196.289	85.8855	196.289	85.7657	196.289	85.7783	196.289	85.6417	196.289	85.6578	196.289	85.5071	196.289	85.5243	196.289	85.3636	196.289	85.38	196.289	85.2144	196.289	85.2292	196.289	85.0651	196.289	85.0782	196.289	84.9231	196.289	84.9349	196.289	84.7969	196.289	84.8076	196.289	84.6949	196.289	84.704	196.289	84.624	196.289	84.6303	196.289	84.5888	196.289	84.5911
203.613	86.1438	203.613	86.1289	203.613	86.1353	203.613	86.0912	203.613	86.1038	203.613	86.0326	203.613	86.0508	203.613	85.9554	203.613	85.9785	203.613	85.8622	203.613	85.8887	203.613	85.7552	203.613	85.7832	203.613	85.6357	203.613	85.6629	203.613	85.5047	203.613	85.5286	203.613	85.3632	203.613	85.3813	203.613	85.2129	203.613	85.2231	203.613	85.0571	203.613	85.058	203.613	84.9009	203.613	84.8924	203.613	84.7509	203.613	84.7343	203.613	84.6145	203.613	84.5927	203.613	84.4988	203.613	84.4761	203.613	84.4098	203.613	84.391	203.613	84.3519	203.613	84.3413	203.613	84.3285
210.938	86.0775	210.938	86.0638	210.938	86.0644	210.938	86.0235	210.938	86.0258	210.938	85.9576	210.938	85.9637	210.938	85.868	210.938	85.8806	210.938	85.7568	210.938	85.7789	210.938	85.6262	210.938	85.6606	210.938	85.4784	210.938	85.5266	210.938	85.3157	210.938	85.3778	210.938	85.1411	210.938	85.2152	210.938	84.9592	210.938	85.0412	210.938	84.7759	210.938	84.8605	210.938	84.5991	210.938	84.6801	210.938	84.4371	210.938	84.5089	210.938	84.2977	210.938	84.3561	210.938	84.1868	210.938	84.2299	210.938	84.1081	210.938	84.1358	210.938	84.0631	210.938	84.0765	210.938	84.0524
218.262	85.879	218.262	85.8709	218.262	85.8608	218.262	85.8367	218.262	85.8174	218.262	85.7775	218.262	85.7509	218.262	85.6951	218.262	85.664	218.262	85.5912	218.262	85.5593	218.262	85.4672	218.262	85.4387	218.262	85.3238	218.262	85.3034	218.262	85.162	218.262	85.154	218.262	84.9835	218.262	84.9909	218.262	84.7919	218.262	84.8159	218.262	84.5934	218.262	84.6327	218.262	84.3968	218.262	84.4473	218.262	84.2126	218.262	84.2682	218.262	84.0513	218.262	84.105	218.262	83.9214	218.262	83.9669	218.262	83.8286	218.262	83.8612	218.262	83.7759	218.262	83.7927	218.262	83.764
225.586	85.8492	225.586	85.8543	225.586	85.8102	225.586	85.8249	225.586	85.7395	225.586	85.7621	225.586	85.6412	225.586	85.668	225.586	85.5203	225.586	85.5454	225.586	85.3823	225.586	85.3974	225.586	85.2329	225.586	85.2274	225.586	85.077	225.586	85.0395	225.586	84.919	225.586	84.8387	225.586	84.7625	225.586	84.6326	225.586	84.6106	225.586	84.4306	225.586	84.4665	225.586	84.2437	225.586	84.3327	225.586	84.0832	225.586	84.2114	225.586	83.9577	225.586	84.104	225.586	83.8719	225.586	84.0113	225.586	83.8254	225.586	83.934	225.586	83.8141	225.586	83.8734	225.586	83.832
232.91	85.9656	232.91	85.9709	232.91	85.9202	232.91	85.9374	232.91	85.8349	232.91	85.8672	232.91	85.7115	232.91	85.7635	232.91	85.5528	232.91	85.6296	232.91	85.3628	232.91	85.4686	232.91	85.1461	232.91	85.2839	232.91	84.9089	232.91	85.0794	232.91	84.6588	232.91	84.8604	232.91	84.4063	232.91	84.6344	232.91	84.1642	232.91	84.411	232.91	83.9471	232.91	84.2014	232.91	83.7683	232.91	84.0161	232.91	83.6367	232.91	83.8625	232.91	83.5536	232.91	83.7432	232.91	83.5131	232.91	83.6555	232.91	83.5051	232.91	83.593	232.91	83.5193	232.91	83.549
241.699	85.8732	241.699	85.8555	241.699	85.8536	241.699	85.8018	241.699	85.7967	241.699	85.7145	241.699	85.7039	241.699	85.5965	241.699	85.5771	241.699	85.4501	241.699	85.4184	241.699	85.2774	241.699	85.2296	241.699	85.0795	241.699	85.012	241.699	84.8585	241.699	84.7676	241.699	84.618	241.699	84.5007	241.699	84.3656	241.699	84.2198	241.699	84.1123	241.699	83.9388	241.699	83.8726	241.699	83.6762	241.699	83.6603	241.699	83.4517	241.699	83.4851	241.699	83.2808	241.699	83.3496	241.699	83.1702	241.699	83.2497	241.699	83.116	241.699	83.1783	241.699	83.1069	241.699	83.1304
250.488	85.629	250.488	85.6114	250.488	85.6005	250.488	85.549	250.488	85.5268	250.488	85.4445	250.488	85.4102	250.488	85.3012	250.488	85.2547	250.488	85.1233	250.488	85.0649	250.488	84.9142	250.488	84.8457	250.488	84.6774	250.488	84.602	250.488	84.4167	250.488	84.3389	250.488	84.1376	250.488	84.0629	250.488	83.8492	250.488	83.7829	250.488	83.5647	250.488	83.511	250.488	83.3014	250.488	83.2619	250.488	83.0765	250.488	83.0503	250.488	82.9025	250.488	82.8865	250.488	82.7829	250.488	82.7733	250.488	82.7109	250.488	82.7053	250.488	82.6746	250.488	82.6719	250.488	82.663
259.277	86.0916	259.277	86.0771	259.277	86.0608	259.277	86.019	259.277	85.9842	259.277	85.9198	259.277	85.8629	259.277	85.7821	259.277	85.6989	259.277	85.6081	259.277	85.495	259.277	85.3992	259.277	85.2547	259.277	85.1567	259.277	84.9815	259.277	84.8821	259.277	84.6803	259.277	84.5795	259.277	84.3582	259.277	84.2566	259.277	84.026	259.277	83.9262	259.277	83.6992	259.277	83.6056	259.277	83.397	259.277	83.3147	259.277	83.1381	259.277	83.0712	259.277	82.9357	259.277	82.8861	259.277	82.7935	259.277	82.7607	259.277	82.7061	259.277	82.6879	259.277	82.6635	259.277	82.6577
268.066	85.5414	268.066	85.5077	268.066	85.5264	268.066	85.4291	268.066	85.4608	268.066	85.3115	268.066	85.3451	268.066	85.1614	268.066	85.182	268.066	84.985	268.066	84.9759	268.066	84.7872	268.066	84.7328	268.066	84.5711	268.066	84.4597	268.066	84.3393	268.066	84.1657	268.066	84.0954	268.066	83.862	268.066	83.8458	268.066	83.5626	268.066	83.6015	268.066	83.2852	268.066	83.3764	268.066	83.0482	268.066	83.1843	268.066	82.868	268.066	83.0341	268.066	82.7527	268.066	82.926	268.066	82.6989	268.066	82.8515	268.066	82.693	268.066	82.7976	268.066	82.7164	268.066	82.7537
276.855	85.6242	276.855	85.5638	276.855	85.6323	276.855	85.4503	276.855	85.5898	276.855	85.2843	276.855	85.4977	276.855	85.0679	276.855	85.3567	276.855	84.8051	276.855	85.1667	276.855	84.5014	276.855	84.9273	276.855	84.1645	276.855	84.6393	276.855	83.8044	276.855	84.3059	276.855	83.4342	276.855	83.9349	276.855	83.0713	276.855	83.54	276.855	82.736	276.855	83.1422	276.855	82.449	276.855	82.7686	276.855	82.2262	276.855	82.448	276.855	82.0731	276.855	82.2034	276.855	81.9825	276.855	82.0427	276.855	81.9375	276.855	81.956	276.855	81.9187	276.855	81.9208	276.855	81.9131
287.109	85.8361	287.109	85.8476	287.109	85.7734	287.109	85.8058	287.109	85.6633	287.109	85.7104	287.109	85.5109	287.109	85.5615	287.109	85.3215	287.109	85.3595	287.109	85.099	287.109	85.1046	287.109	84.8448	287.109	84.7974	287.109	84.5591	287.109	84.441	287.109	84.2428	287.109	84.0428	287.109	83.9008	287.109	83.6177	287.109	83.5447	287.109	83.1896	287.109	83.1933	287.109	82.7905	287.109	82.8696	287.109	82.4541	287.109	82.5945	287.109	82.2056	287.109	82.3801	287.109	82.0526	287.109	82.2257	287.109	81.9828	287.109	82.1201	287.109	81.9726	287.109	82.048	287.109	81.9988
297.363	85.6926	297.363	85.6735	297.363	85.6524	297.363	85.6003	297.363	85.5509	297.363	85.4802	297.363	85.3898	297.363	85.3203	297.363	85.1742	297.363	85.1254	297.363	84.9105	297.363	84.897	297.363	84.6056	297.363	84.6342	297.363	84.2659	297.363	84.3358	297.363	83.8989	297.363	84.0042	297.363	83.5159	297.363	83.6487	297.363	83.1351	297.363	83.2877	297.363	82.7828	297.363	82.9471	297.363	82.4883	297.363	82.655	297.363	82.2746	297.363	82.4327	297.363	82.1486	297.363	82.2863	297.363	82.0974	297.363	82.2039	297.363	82.0949	297.363	82.1622	297.363	82.1138	297.363	82.1368
307.617	85.8602	307.617	85.8334	307.617	85.836	307.617	85.7561	307.617	85.761	307.617	85.6296	307.617	85.6353	307.617	85.4564	307.617	85.4583	307.617	85.2402	307.617	85.2286	307.617	84.9844	307.617	84.9439	307.617	84.6926	307.617	84.6013	307.617	84.3683	307.617	84.1997	307.617	84.0175	307.617	83.7428	307.617	83.6512	307.617	83.2453	307.617	83.2869	307.617	82.7382	307.617	82.9477	307.617	82.2703	307.617	82.6555	307.617	81.899	307.617	82.4228	307.617	81.6686	307.617	82.2464	307.617	81.5875	307.617	82.1083	307.617	81.6252	307.617	81.9849	307.617	81.7309	307.617	81.8589
319.336	85.4755	319.336	85.4305	319.336	85.4676	319.336	85.3329	319.336	85.4085	319.336	85.1848	319.336	85.3013	319.336	84.9885	319.336	85.1496	319.336	84.7466	319.336	84.9561	319.336	84.4611	319.336	84.7216	319.336	84.1352	319.336	84.445	319.336	83.7753	319.336	84.1251	319.336	83.3932	319.336	83.7636	319.336	83.0092	319.336	83.3695	319.336	82.6513	319.336	82.9627	319.336	82.3509	319.336	82.5755	319.336	82.1324	319.336	82.2475	319.336	82.0024	319.336	82.013	319.336	81.9446	319.336	81.8848	319.336	81.9271	319.336	81.8472	319.336	81.9171	319.336	81.8637	319.336	81.8952
329.59	85.4299	329.59	85.4072	329.59	85.3962	329.59	85.3272	329.59	85.3086	329.59	85.1906	329.59	85.1717	329.59	84.9976	329.59	84.9901	329.59	84.7473	329.59	84.7669	329.59	84.437	329.59	84.5028	329.59	84.0638	329.59	84.1959	329.59	83.6284	329.59	83.8438	329.59	83.1406	329.59	83.4481	329.59	82.6255	329.59	83.0183	329.59	82.1257	329.59	82.5762	329.59	81.6964	329.59	82.1568	329.59	81.3879	329.59	81.8012	329.59	81.2216	329.59	81.543	329.59	81.1775	329.59	81.3916	329.59	81.2063	329.59	81.3262	329.59	81.2551	329.59	81.306	329.59	81.29
341.309	85.4139	341.309	85.406	341.309	85.3691	341.309	85.3451	341.309	85.2761	341.309	85.2341	341.309	85.1433	341.309	85.0766	341.309	84.9797	341.309	84.8738	341.309	84.7919	341.309	84.6222	341.309	84.5812	341.309	84.3139	341.309	84.343	341.309	83.9405	341.309	84.0698	341.309	83.4995	341.309	83.7559	341.309	83.0026	341.309	83.4037	341.309	82.4834	341.309	83.0281	341.309	81.9986	341.309	82.6567	341.309	81.6155	341.309	82.3241	341.309	81.3843	341.309	82.0592	341.309	81.3101	341.309	81.8713	341.309	81.3516	341.309	81.7451	341.309	81.4488	341.309	81.6493	341.309	81.5542
353.027	85.051	353.027	85.0746	353.027	84.951	353.027	85.0234	353.027	84.7771	353.027	84.9025	353.027	84.5369	353.027	84.7184	353.027	84.2418	353.027	84.4762	353.027	83.9051	353.027	84.1776	353.027	83.5388	353.027	83.8207	353.027	83.1518	353.027	83.4014	353.027	82.7493	353.027	82.9189	353.027	82.3367	353.027	82.3838	353.027	81.9257	353.027	81.8272	353.027	81.5407	353.027	81.3062	353.027	81.2174	353.027	80.895	353.027	80.9919	353.027	80.6544	353.027	80.8796	353.027	80.5937	353.027	80.8612	353.027	80.6615	353.027	80.8879	353.027	80.7762	353.027	80.9033	353.027	80.8682
366.211	85.1461	366.211	85.145	366.211	85.0851	366.211	85.0881	366.211	84.9603	366.211	84.9855	366.211	84.7756	366.211	84.847	366.211	84.5378	366.211	84.6781	366.211	84.2537	366.211	84.475	366.211	83.9256	366.211	84.2241	366.211	83.5484	366.211	83.9037	366.211	83.1106	366.211	83.4915	366.211	82.6001	366.211	82.9731	366.211	82.0141	366.211	82.3525	366.211	81.3715	366.211	81.662	366.211	80.722	366.211	80.9666	366.211	80.1433	366.211	80.353	366.211	79.7133	366.211	79.8962	366.211	79.4671	366.211	79.6177	366.211	79.3759	366.211	79.4775	366.211	79.3745	366.211	79.4106
379.395	85.3917	379.395	85.3575	379.395	85.3457	379.395	85.2504	379.395	85.2171	379.395	85.0823	379.395	85.0087	379.395	84.8687	379.395	84.7287	379.395	84.6258	379.395	84.3902	379.395	84.3681	379.395	84.0105	379.395	84.1039	379.395	83.6094	379.395	83.8328	379.395	83.2053	379.395	83.5454	379.395	82.8112	379.395	83.2277	379.395	82.4319	379.395	82.8689	379.395	82.0655	379.395	82.4699	379.395	81.7109	379.395	82.0487	379.395	81.376	379.395	81.6392	379.395	81.0812	379.395	81.2803	379.395	80.8535	379.395	81.0003	379.395	80.7129	379.395	80.8075	379.395	80.6632	379.395	80.6965
392.578	85.2188	392.578	85.1723	392.578	85.1957	392.578	85.0604	392.578	85.1028	392.578	84.8907	392.578	84.9434	392.578	84.6719	392.578	84.7213	392.578	84.4113	392.578	84.4391	392.578	84.1124	392.578	84.0964	392.578	83.7761	392.578	83.6909	392.578	83.4032	392.578	83.2235	392.578	82.9995	392.578	82.7045	392.578	82.5804	392.578	82.1622	392.578	82.1725	392.578	81.6465	392.578	81.8095	392.578	81.2211	392.578	81.5229	392.578	80.9404	392.578	81.329	392.578	80.8208	392.578	81.2207	392.578	80.8317	392.578	81.1692	392.578	80.9146	392.578	81.1364	392.578	81.0125	392.578	81.0894
405.762	84.5369	405.762	84.4716	405.762	84.5114	405.762	84.3235	405.762	84.3979	405.762	84.1102	405.762	84.2079	405.762	83.8563	405.762	83.9589	405.762	83.5869	405.762	83.6682	405.762	83.3207	405.762	83.3483	405.762	83.0642	405.762	83.0038	405.762	82.8115	405.762	82.6332	405.762	82.5497	405.762	82.2366	405.762	82.2686	405.762	81.8238	405.762	81.9691	405.762	81.4215	405.762	81.6668	405.762	81.0704	405.762	81.3894	405.762	80.813	405.762	81.1659	405.762	80.6729	405.762	81.0117	405.762	80.6413	405.762	80.9196	405.762	80.6814	405.762	80.8631	405.762	80.7488	405.762	80.8118
420.41	85.6545	420.41	85.5564	420.41	85.6327	420.41	85.3435	420.41	85.4904	420.41	85.0258	420.41	85.2317	420.41	84.6177	420.41	84.8638	420.41	84.1371	420.41	84.3963	420.41	83.6047	420.41	83.8397	420.41	83.0438	420.41	83.2051	420.41	82.4824	420.41	82.5072	420.41	81.9552	420.41	81.7726	420.41	81.5045	420.41	81.0516	420.41	81.1728	420.41	80.4274	420.41	80.9852	420.41	80.0022	420.41	80.9335	420.41	79.8464	420.41	80.9751	420.41	79.946	420.41	81.0503	420.41	80.2082	420.41	81.103	420.41	80.5199	420.41	81.0915	420.41	80.7962	420.41	80.9916
435.059	85.6075	435.059	85.5208	435.059	85.6172	435.059	85.3593	435.059	85.5519	435.059	85.1287	435.059	85.4159	435.059	84.8365	435.059	85.2137	435.059	84.4884	435.059	84.9457	435.059	84.0853	435.059	84.605	435.059	83.6238	435.059	84.1762	435.059	83.0999	435.059	83.6387	435.059	82.5188	435.059	82.976	435.059	81.9071	435.059	82.191	435.059	81.3218	435.059	81.3307	435.059	80.846	435.059	80.5105	435.059	80.5564	435.059	79.9066	435.059	80.4738	435.059	79.6652	435.059	80.5404	435.059	79.7772	435.059	80.6501	435.059	80.0843	435.059	80.7006	435.059	80.4057	435.059	80.6251
451.172	85.3204	451.172	85.2735	451.172	85.265	451.172	85.1234	451.172	85.1186	451.172	84.8789	451.172	84.9018	451.172	84.5542	451.172	84.6386	451.172	84.1637	451.172	84.3477	451.172	83.7154	451.172	84.0331	451.172	83.2069	451.172	83.6793	451.172	82.6271	451.172	83.2543	451.172	81.9658	451.172	82.7206	451.172	81.2317	451.172	82.0513	451.172	80.4749	451.172	81.2503	451.172	79.803	451.172	80.3812	451.172	79.3568	451.172	79.5927	451.172	79.222	451.172	79.0882	451.172	79.3447	451.172	78.9858	451.172	79.5631	451.172	79.1941	451.172	79.7123	451.172	79.492	451.172	79.6931
465.82	85.1319	465.82	85.0912	465.82	85.0741	465.82	84.9583	465.82	84.9243	465.82	84.7511	465.82	84.7016	465.82	84.4942	465.82	84.4336	465.82	84.211	465.82	84.1485	465.82	83.9127	465.82	83.8643	465.82	83.5893	465.82	83.5778	465.82	83.2069	465.82	83.262	465.82	82.7167	465.82	82.8727	465.82	82.0701	465.82	82.3615	465.82	81.2373	465.82	81.6906	465.82	80.2309	465.82	80.848	465.82	79.1335	465.82	79.8662	465.82	78.1112	465.82	78.8418	465.82	77.3572	465.82	77.9331	465.82	76.9541	465.82	77.2918	465.82	76.8179	465.82	76.9527	465.82	76.8249
483.398	85.0245	483.398	84.9518	483.398	84.9264	483.398	84.7218	483.398	84.6625	483.398	84.3655	483.398	84.2611	483.398	83.9338	483.398	83.7809	483.398	83.4976	483.398	83.3119	483.398	83.1373	483.398	82.9546	483.398	82.9161	483.398	82.7736	483.398	82.8462	483.398	82.7563	483.398	82.8769	483.398	82.823	483.398	82.919	483.398	82.8753	483.398	82.8829	483.398	82.8368	483.398	82.7066	483.398	82.6659	483.398	82.3682	483.398	82.3546	483.398	81.893	483.398	81.9263	483.398	81.3538	483.398	81.4347	483.398	80.8613	483.398	80.9608	483.398	80.5312	483.398	80.6003	483.398	80.4405
499.512	87.0047	499.512	86.9003	499.512	86.9217	499.512	86.6127	499.512	86.6483	499.512	86.1489	499.512	86.1839	499.512	85.5236	499.512	85.5356	499.512	84.7675	499.512	84.7304	499.512	83.9414	499.512	83.8343	499.512	83.1529	499.512	82.9734	499.512	82.557	499.512	82.3276	499.512	82.2997	499.512	82.0521	499.512	82.4139	499.512	82.1616	499.512	82.7852	499.512	82.5226	499.512	83.2395	499.512	82.9638	499.512	83.6416	499.512	83.3631	499.512	83.9248	499.512	83.6639	499.512	84.0792	499.512	83.8588	499.512	84.1303	499.512	83.9707	499.512	84.1188	499.512	84.0349	499.512	84.0813
517.09	87.2861	517.09	87.1833	517.09	87.2457	517.09	86.9359	517.09	87.0626	517.09	86.5422	517.09	86.7353	517.09	85.9988	517.09	86.2584	517.09	85.3005	517.09	85.6215	517.09	84.4427	517.09	84.8116	517.09	83.4344	517.09	83.8247	517.09	82.3344	517.09	82.696	517.09	81.3158	517.09	81.5621	517.09	80.697	517.09	80.7243	517.09	80.7483	517.09	80.5357	517.09	81.3757	517.09	81.0365	517.09	82.2265	517.09	81.8929	517.09	83.0205	517.09	82.7616	517.09	83.6385	517.09	83.4689	517.09	84.0589	517.09	83.9651	517.09	84.2949	517.09	84.2555	517.09	84.3605
536.133	86.5346	536.133	86.4949	536.133	86.4489	536.133	86.3302	536.133	86.2392	536.133	86.0417	536.133	85.9083	536.133	85.6296	536.133	85.46	536.133	85.0893	536.133	84.8961	536.133	84.4086	536.133	84.2149	536.133	83.567	536.133	83.4118	536.133	82.5498	536.133	82.4893	536.133	81.3916	536.133	81.4882	536.133	80.272	536.133	80.5484	536.133	79.5979	536.133	79.9569	536.133	79.7566	536.133	80.0075	536.133	80.6099	536.133	80.6737	536.133	81.6727	536.133	81.6155	536.133	82.6048	536.133	82.5126	536.133	83.2788	536.133	83.2019	536.133	83.6703	536.133	83.6292	536.133	83.7854
555.176	87.2028	555.176	87.1082	555.176	87.1774	555.176	86.9008	555.176	87.0264	555.176	86.5877	555.176	86.7449	555.176	86.1713	555.176	86.3262	555.176	85.6438	555.176	85.757	555.176	84.9817	555.176	85.0138	555.176	84.1439	555.176	84.0593	555.176	83.0764	555.176	82.8452	555.176	81.7367	555.176	81.3303	555.176	80.1702	555.176	79.5542	555.176	78.7097	555.176	77.8653	555.176	78.1262	555.176	77.1645	555.176	78.8334	555.176	77.9772	555.176	80.1627	555.176	79.4954	555.176	81.4024	555.176	80.9118	555.176	82.2881	555.176	81.9618	555.176	82.777	555.176	82.6131	555.176	82.8821
574.219	86.9588	574.219	86.8899	574.219	86.9212	574.219	86.715	574.219	86.7832	574.219	86.4414	574.219	86.555	574.219	86.0782	574.219	86.2455	574.219	85.6289	574.219	85.854	574.219	85.0807	574.219	85.3608	574.219	84.397	574.219	84.7236	574.219	83.5171	574.219	83.8799	574.219	82.3717	574.219	82.7618	574.219	80.9288	574.219	81.3326	574.219	79.3292	574.219	79.6906	574.219	78.1446	574.219	78.2982	574.219	78.1741	574.219	77.9684	574.219	79.2497	574.219	78.8222	574.219	80.5067	574.219	80.0706	574.219	81.4642	574.219	81.1335	574.219	82.0024	574.219	81.8271	574.219	82.1189
594.727	86.6188	594.727	86.5643	594.727	86.552	594.727	86.3947	594.727	86.3707	594.727	86.1271	594.727	86.0927	594.727	85.7833	594.727	85.7406	594.727	85.3778	594.727	85.3317	594.727	84.9031	594.727	84.864	594.727	84.321	594.727	84.3059	594.727	83.5658	594.727	83.5956	594.727	82.5629	594.727	82.6538	594.727	81.2688	594.727	81.4179	594.727	79.7672	594.727	79.931	594.727	78.4758	594.727	78.5564	594.727	78.1556	594.727	78.0894	594.727	78.9822	594.727	78.8572	594.727	80.2263	594.727	80.1311	594.727	81.2859	594.727	81.2337	594.727	81.9471	594.727	81.9257	594.727	82.1631
615.234	86.8326	615.234	86.7425	615.234	86.7893	615.234	86.5306	615.234	86.6129	615.234	86.2169	615.234	86.3159	615.234	85.8236	615.234	85.9199	615.234	85.3669	615.234	85.4455	615.234	84.8443	615.234	84.8985	615.234	84.2229	615.234	84.2565	615.234	83.4361	615.234	83.4633	615.234	82.3934	615.234	82.4354	615.234	81.0131	615.234	81.0863	615.234	79.3165	615.234	79.406	615.234	77.6977	615.234	77.7112	615.234	77.1541	615.234	76.9788	615.234	78.1023	615.234	77.8364	615.234	79.5772	615.234	79.362	615.234	80.7994	615.234	80.666	615.234	81.5406	615.234	81.4788	615.234	81.7679
637.207	86.5241	637.207	86.4467	637.207	86.4809	637.207	86.2571	637.207	86.3281	637.207	85.9824	637.207	86.0913	637.207	85.6591	637.207	85.8011	637.207	85.3134	637.207	85.4771	637.207	84.9369	637.207	85.1107	637.207	84.4731	637.207	84.655	637.207	83.825	637.207	84.0283	637.207	82.8764	637.207	83.1288	637.207	81.5236	637.207	81.8524	637.207	79.7508	637.207	80.1307	637.207	77.8894	637.207	78.0927	637.207	77.0028	637.207	76.5438	637.207	77.7919	637.207	76.7792	637.207	79.2532	637.207	78.3161	637.207	80.4594	637.207	79.8341	637.207	81.1461	637.207	80.8433	637.207	81.2768
659.18	86.316	659.18	86.2403	659.18	86.2287	659.18	86.0084	659.18	85.9884	659.18	85.6456	659.18	85.6235	659.18	85.1969	659.18	85.1798	659.18	84.7185	659.18	84.7099	659.18	84.2514	659.18	84.2471	659.18	83.7843	659.18	83.7739	659.18	83.236	659.18	83.2108	659.18	82.4753	659.18	82.4329	659.18	81.3634	659.18	81.3043	659.18	79.8172	659.18	79.7314	659.18	77.9967	659.18	77.8323	659.18	76.7485	659.18	76.4084	659.18	77.1722	659.18	76.7147	659.18	78.6494	659.18	78.2554	659.18	80.0131	659.18	79.747	659.18	80.8436	659.18	80.7113	659.18	81.0767
682.617	86.2827	682.617	86.1829	682.617	86.2011	682.617	85.9219	682.617	85.9416	682.617	85.5396	682.617	85.535	682.617	85.0904	682.617	85.0384	682.617	84.6286	682.617	84.5237	682.617	84.1832	682.617	84.0456	682.617	83.7278	682.617	83.5999	682.617	83.1695	682.617	83.1023	682.617	82.3671	682.617	82.4059	682.617	81.1682	682.617	81.3391	682.617	79.4693	682.617	79.7494	682.617	77.4167	682.617	77.6336	682.617	75.9809	682.617	75.6845	682.617	76.5091	682.617	75.671	682.617	78.1786	682.617	77.414	682.617	79.647	682.617	79.1563	682.617	80.5103	682.617	80.2775	682.617	80.7221
707.52	87.0604	707.52	86.9553	707.52	86.9724	707.52	86.6662	707.52	86.7059	707.52	86.2288	707.52	86.2978	707.52	85.7067	707.52	85.806	707.52	85.1773	707.52	85.2968	707.52	84.6936	707.52	84.816	707.52	84.2368	707.52	84.3502	707.52	83.6996	707.52	83.8118	707.52	82.9122	707.52	83.0567	707.52	81.6758	707.52	81.9135	707.52	79.7908	707.52	80.2085	707.52	77.2168	707.52	77.878	707.52	75.0589	707.52	75.6243	707.52	75.9085	707.52	75.7088	707.52	78.3149	707.52	77.8409	707.52	80.1837	707.52	79.8098	707.52	81.2172	707.52	81.024	707.52	81.4842
732.422	87.2661	732.422	87.1497	732.422	87.1682	732.422	86.8226	732.422	86.8651	732.422	86.3057	732.422	86.3813	732.422	85.6494	732.422	85.765	732.422	84.9439	732.422	85.0923	732.422	84.3015	732.422	84.4534	732.422	83.788	732.422	83.9058	732.422	83.3419	732.422	83.416	732.422	82.7743	732.422	82.8427	732.422	81.844	732.422	81.9765	732.422	80.328	732.422	80.592	732.422	78.1444	732.422	78.5284	732.422	75.988	732.422	76.126	732.422	76.0623	732.422	75.4133	732.422	78.106	732.422	77.3035	732.422	79.9638	732.422	79.4197	732.422	81.0332	732.422	80.7715	732.422	81.2979
757.324	87.2057	757.324	87.0869	757.324	87.1153	757.324	86.7784	757.324	86.8161	757.324	86.3194	757.324	86.3339	757.324	85.7723	757.324	85.7317	757.324	85.2153	757.324	85.1119	757.324	84.7126	757.324	84.5809	757.324	84.2645	757.324	84.1712	757.324	83.7804	757.324	83.7872	757.324	83.0981	757.324	83.2366	757.324	82.0222	757.324	82.2988	757.324	80.3432	757.324	80.7591	757.324	77.8922	757.324	78.4501	757.324	75.0931	757.324	75.6534	757.324	74.6057	757.324	74.5999	757.324	76.944	757.324	76.5809	757.324	79.1333	757.324	78.8155	757.324	80.3862	757.324	80.2148	757.324	80.7308
785.156	87.2683	785.156	87.1323	785.156	87.1578	785.156	86.7627	785.156	86.8115	785.156	86.1997	785.156	86.268	785.156	85.5227	785.156	85.602	785.156	84.8553	785.156	84.9239	785.156	84.3283	785.156	84.3491	785.156	83.981	785.156	83.9261	785.156	83.6891	785.156	83.5749	785.156	83.2111	785.156	83.1037	785.156	82.2777	785.156	82.269	785.156	80.618	785.156	80.8022	785.156	77.9557	785.156	78.4014	785.156	74.4857	785.156	75.0117	785.156	73.6962	785.156	73.351	785.156	76.7001	785.156	76.1491	785.156	79.2601	785.156	78.9461	785.156	80.6785	785.156	80.5468	785.156	81.0914
811.523	86.7739	811.523	86.6436	811.523	86.6381	811.523	86.2492	811.523	86.2408	811.523	85.6071	811.523	85.5999	811.523	84.7711	811.523	84.7671	811.523	83.8671	811.523	83.8591	811.523	83.0993	811.523	83.0635	811.523	82.6363	811.523	82.5453	811.523	82.4221	811.523	82.278	811.523	82.1733	811.523	82.0187	811.523	81.5575	811.523	81.4535	811.523	80.2914	811.523	80.2952	811.523	78.1553	811.523	78.2958	811.523	75.3108	811.523	75.4827	811.523	73.9869	811.523	73.7735	811.523	76.0511	811.523	75.6821	811.523	78.4299	811.523	78.2049	811.523	79.8576	811.523	79.7608	811.523	80.2932
840.82	86.6463	840.82	86.5078	840.82	86.5147	840.82	86.0994	840.82	86.1097	840.82	85.4259	840.82	85.431	840.82	84.5234	840.82	84.5047	840.82	83.5046	840.82	83.4298	840.82	82.5957	840.82	82.4283	840.82	82.0429	840.82	81.7822	840.82	81.8491	840.82	81.5568	840.82	81.6974	840.82	81.4523	840.82	81.182	840.82	81.0343	840.82	79.9425	840.82	79.9215	840.82	77.6004	840.82	77.7466	840.82	73.8356	840.82	74.1925	840.82	71.4162	840.82	71.3698	840.82	74.8241	840.82	74.3012	840.82	77.978	840.82	77.5847	840.82	79.6375	840.82	79.4374	840.82	80.0856
870.117	86.9805	870.117	86.8392	870.117	86.8812	870.117	86.4628	870.117	86.5364	870.117	85.8549	870.117	85.947	870.117	85.0234	870.117	85.1259	870.117	84.008	870.117	84.1126	870.117	82.9442	870.117	83.0072	870.117	82.1052	870.117	82.0138	870.117	81.7139	870.117	81.3725	870.117	81.5941	870.117	81.0817	870.117	81.2473	870.117	80.7664	870.117	80.1867	870.117	79.9177	870.117	78.029	870.117	78.0746	870.117	74.8244	870.117	75.0191	870.117	73.7132	870.117	73.0027	870.117	76.6122	870.117	75.6707	870.117	79.1942	870.117	78.6246	870.117	80.5834	870.117	80.3268	870.117	80.9399
900.879	89.2522	900.879	89.0995	900.879	89.1053	900.879	88.6519	900.879	88.6664	900.879	87.929	900.879	87.957	900.879	86.97	900.879	87.0202	900.879	85.8522	900.879	85.9413	900.879	84.7332	900.879	84.8726	900.879	83.872	900.879	84.0208	900.879	83.4602	900.879	83.5195	900.879	83.3105	900.879	83.2427	900.879	82.895	900.879	82.7961	900.879	81.5987	900.879	81.6483	900.879	78.6424	900.879	79.0821	900.879	72.9822	900.879	73.8148	900.879	74.1186	900.879	71.8768	900.879	79.9643	900.879	78.66	900.879	83.1426	900.879	82.4664	900.879	84.6833	900.879	84.3892	900.879	85.0651
933.105	88.4512	933.105	88.2637	933.105	88.3327	933.105	87.7688	933.105	87.8986	933.105	86.9639	933.105	87.137	933.105	85.8784	933.105	86.0562	933.105	84.6233	933.105	84.7323	933.105	83.4285	933.105	83.3886	933.105	82.5907	933.105	82.4275	933.105	82.2743	933.105	82.1423	933.105	82.3138	933.105	82.299	933.105	82.2537	933.105	82.3267	933.105	81.51	933.105	81.6755	933.105	79.3089	933.105	79.7297	933.105	73.7963	933.105	75.1294	933.105	65.6748	933.105	64.1189	933.105	77.3353	933.105	75.4824	933.105	81.9445	933.105	80.9873	933.105	84.0007	933.105	83.5623	933.105	84.4765
965.332	88.6539	965.332	88.5166	965.332	88.5767	965.332	88.1584	965.332	88.2788	965.332	87.5618	965.332	87.7412	965.332	86.7021	965.332	86.9372	965.332	85.5686	965.332	85.8526	965.332	84.2217	965.332	84.5325	965.332	82.8946	965.332	83.1668	965.332	82.0012	965.332	82.1422	965.332	81.748	965.332	81.7716	965.332	81.7708	965.332	81.8222	965.332	81.4714	965.332	81.6826	965.332	80.3039	965.332	80.7648	965.332	77.551	965.332	78.4055	965.332	71.1331	965.332	72.9964	965.332	58.5199	965.332	39.161	965.332	73.8282	965.332	72.7758	965.332	77.7626	965.332	77.4383	965.332	78.7424
1,000.49	88.9825	1,000.49	88.82	1,000.49	88.8729	1,000.49	88.3797	1,000.49	88.483	1,000.49	87.6465	1,000.49	87.797	1,000.49	86.6089	1,000.49	86.8095	1,000.49	85.2854	1,000.49	85.5586	1,000.49	83.7947	1,000.49	84.1745	1,000.49	82.4886	1,000.49	82.9356	1,000.49	81.9025	1,000.49	82.212	1,000.49	82.1013	1,000.49	82.1226	1,000.49	82.4324	1,000.49	82.2858	1,000.49	82.2046	1,000.49	82.1119	1,000.49	80.8977	1,000.49	81.0508	1,000.49	77.8048	1,000.49	78.4168	1,000.49	70.9249	1,000.49	72.5089	1,000.49	68.5078	1,000.49	65.6495	1,000.49	76.3329	1,000.49	75.2076	1,000.49	79.4623	1,000.49	79.0323	1,000.49	80.2272
1,035.64	88.644	1,035.64	88.4669	1,035.64	88.5322	1,035.64	88.0024	1,035.64	88.1156	1,035.64	87.2338	1,035.64	87.3779	1,035.64	86.1415	1,035.64	86.3197	1,035.64	84.7445	1,035.64	84.9809	1,035.64	83.1619	1,035.64	83.4834	1,035.64	81.6947	1,035.64	82.1077	1,035.64	80.8367	1,035.64	81.3021	1,035.64	80.8759	1,035.64	81.2991	1,035.64	81.3676	1,035.64	81.6839	1,035.64	81.492	1,035.64	81.7354	1,035.64	80.4976	1,035.64	80.7873	1,035.64	77.3888	1,035.64	77.9785	1,035.64	68.5688	1,035.64	70.6236	1,035.64	69.8483	1,035.64	67.3678	1,035.64	77.979	1,035.64	77.1112	1,035.64	80.9499	1,035.64	80.5917	1,035.64	81.6773
1,072.27	88.5168	1,072.27	88.387	1,072.27	88.3781	1,072.27	87.9513	1,072.27	87.9672	1,072.27	87.1396	1,072.27	87.2394	1,072.27	85.874	1,072.27	86.1152	1,072.27	84.12	1,072.27	84.5155	1,072.27	82.0014	1,072.27	82.4767	1,072.27	80.0411	1,072.27	80.4647	1,072.27	79.2017	1,072.27	79.5685	1,072.27	79.8092	1,072.27	80.1278	1,072.27	81.0055	1,072.27	81.1198	1,072.27	81.8369	1,072.27	81.6866	1,072.27	81.6111	1,072.27	81.2879	1,072.27	79.6303	1,072.27	79.3071	1,072.27	75.1182	1,072.27	74.9592	1,072.27	74.8062	1,072.27	73.9539	1,072.27	80.1127	1,072.27	79.4113	1,072.27	82.8904	1,072.27	82.5417	1,072.27	83.6069
1,108.89	87.2891	1,108.89	87.2505	1,108.89	87.2478	1,108.89	87.1294	1,108.89	87.1161	1,108.89	86.8719	1,108.89	86.854	1,108.89	86.3373	1,108.89	86.347	1,108.89	85.3191	1,108.89	85.3985	1,108.89	83.6	1,108.89	83.7673	1,108.89	81.0541	1,108.89	81.2334	1,108.89	78.1434	1,108.89	77.9691	1,108.89	77.042	1,108.89	76.2739	1,108.89	78.4868	1,108.89	78.0249	1,108.89	80.2105	1,108.89	80.1209	1,108.89	81.2339	1,108.89	81.2566	1,108.89	81.2147	1,108.89	81.2441	1,108.89	79.7911	1,108.89	79.9066	1,108.89	76.6879	1,108.89	77.1089	1,108.89	73.8076	1,108.89	74.308	1,108.89	75.1373	1,108.89	75.0936	1,108.89	76.1658
1,148.44	86.5303	1,148.44	86.483	1,148.44	86.3828	1,148.44	86.2596	1,148.44	86.0727	1,148.44	85.9014	1,148.44	85.6618	1,148.44	85.4105	1,148.44	85.1665	1,148.44	84.6913	1,148.44	84.4858	1,148.44	83.5572	1,148.44	83.4243	1,148.44	81.8161	1,148.44	81.799	1,148.44	79.4845	1,148.44	79.6262	1,148.44	77.3781	1,148.44	77.5699	1,148.44	76.9767	1,148.44	76.952	1,148.44	77.6987	1,148.44	77.5805	1,148.44	78.1275	1,148.44	78.1298	1,148.44	77.7492	1,148.44	77.9552	1,148.44	76.2585	1,148.44	76.7297	1,148.44	73.1905	1,148.44	74.007	1,148.44	68.5442	1,148.44	69.3319	1,148.44	66.6204	1,148.44	65.8891	1,148.44	67.0113
1,189.45	86.5665	1,189.45	86.3743	1,189.45	86.4216	1,189.45	85.8937	1,189.45	85.9592	1,189.45	85.2235	1,189.45	85.26	1,189.45	84.4565	1,189.45	84.4224	1,189.45	83.5886	1,189.45	83.4799	1,189.45	82.4713	1,189.45	82.3387	1,189.45	80.8965	1,189.45	80.8243	1,189.45	78.8504	1,189.45	78.8706	1,189.45	77.0798	1,189.45	76.9878	1,189.45	76.9149	1,189.45	76.5315	1,189.45	77.7423	1,189.45	77.4313	1,189.45	78.0401	1,189.45	78.0412	1,189.45	77.0663	1,189.45	77.4151	1,189.45	74.2482	1,189.45	74.926	1,189.45	69.1625	1,189.45	69.2714	1,189.45	68.8697	1,189.45	64.7037	1,189.45	72.5479	1,189.45	71.105	1,189.45	73.3983
1,230.47	86.4513	1,230.47	86.2962	1,230.47	86.2993	1,230.47	85.8574	1,230.47	85.841	1,230.47	85.1865	1,230.47	85.115	1,230.47	84.3526	1,230.47	84.2099	1,230.47	83.4012	1,230.47	83.2205	1,230.47	82.313	1,230.47	82.1432	1,230.47	80.9994	1,230.47	80.837	1,230.47	79.3424	1,230.47	79.1516	1,230.47	77.417	1,230.47	77.2484	1,230.47	76.0978	1,230.47	76.0566	1,230.47	76.3568	1,230.47	76.3165	1,230.47	76.9315	1,230.47	76.8708	1,230.47	76.2336	1,230.47	76.3866	1,230.47	73.2078	1,230.47	74.0158	1,230.47	65.987	1,230.47	68.4163	1,230.47	66.5214	1,230.47	64.187	1,230.47	71.8232	1,230.47	70.5812	1,230.47	72.8639
1,274.41	86.3395	1,274.41	86.1862	1,274.41	86.1582	1,274.41	85.7114	1,274.41	85.6661	1,274.41	84.9605	1,274.41	84.9125	1,274.41	83.9925	1,274.41	83.9495	1,274.41	82.8656	1,274.41	82.815	1,274.41	81.6283	1,274.41	81.5321	1,274.41	80.2703	1,274.41	80.109	1,274.41	78.6864	1,274.41	78.5298	1,274.41	76.926	1,274.41	76.846	1,274.41	75.8098	1,274.41	75.5848	1,274.41	76.1781	1,274.41	75.667	1,274.41	76.8832	1,274.41	76.5128	1,274.41	76.4803	1,274.41	76.5756	1,274.41	73.974	1,274.41	74.743	1,274.41	67.5263	1,274.41	69.26	1,274.41	65.7733	1,274.41	60.4682	1,274.41	71.9691	1,274.41	70.5402	1,274.41	73.2621
1,319.82	86.0845	1,319.82	85.9281	1,319.82	85.917	1,319.82	85.4794	1,319.82	85.4417	1,319.82	84.8042	1,319.82	84.7144	1,319.82	83.9551	1,319.82	83.7999	1,319.82	82.9125	1,319.82	82.7146	1,319.82	81.5872	1,319.82	81.3983	1,319.82	79.9188	1,319.82	79.8082	1,319.82	78.0196	1,319.82	78.0873	1,319.82	76.3165	1,319.82	76.5974	1,319.82	75.581	1,319.82	75.8012	1,319.82	76.119	1,319.82	76.0394	1,319.82	76.8748	1,319.82	76.7798	1,319.82	76.591	1,319.82	76.8575	1,319.82	74.3216	1,319.82	75.267	1,319.82	68.372	1,319.82	70.5429	1,319.82	63.0874	1,319.82	60.1712	1,319.82	70.473	1,319.82	69.1763	1,319.82	72.126
1,366.7	86.0454	1,366.7	85.827	1,366.7	85.9073	1,366.7	85.2916	1,366.7	85.4086	1,366.7	84.5166	1,366.7	84.6074	1,366.7	83.6071	1,366.7	83.6422	1,366.7	82.6134	1,366.7	82.6406	1,366.7	81.4458	1,366.7	81.5336	1,366.7	79.9544	1,366.7	80.0774	1,366.7	78.1334	1,366.7	78.17	1,366.7	76.2663	1,366.7	76.1826	1,366.7	75.0039	1,366.7	74.9445	1,366.7	75.1569	1,366.7	75.0539	1,366.7	76.1736	1,366.7	75.9878	1,366.7	76.4147	1,366.7	76.3718	1,366.7	74.6905	1,366.7	75.0772	1,366.7	69.7249	1,366.7	70.9555	1,366.7	64.1758	1,366.7	61.9206	1,366.7	69.2677	1,366.7	66.9011	1,366.7	70.4179
1,413.57	85.5271	1,413.57	85.3134	1,413.57	85.3354	1,413.57	84.7066	1,413.57	84.7731	1,413.57	83.7794	1,413.57	83.9157	1,413.57	82.6687	1,413.57	82.8792	1,413.57	81.526	1,413.57	81.7907	1,413.57	80.4065	1,413.57	80.6777	1,413.57	79.2016	1,413.57	79.3939	1,413.57	77.6973	1,413.57	77.742	1,413.57	75.6995	1,413.57	75.6364	1,413.57	73.6214	1,413.57	73.4517	1,413.57	73.4226	1,413.57	72.974	1,413.57	74.6831	1,413.57	74.5478	1,413.57	74.8713	1,413.57	75.5785	1,413.57	72.9979	1,413.57	74.6891	1,413.57	68.2907	1,413.57	70.9611	1,413.57	63.3551	1,413.57	64.3044	1,413.57	67.8431	1,413.57	67.288	1,413.57	69.5675
1,463.38	85.2599	1,463.38	84.9492	1,463.38	85.2546	1,463.38	84.4189	1,463.38	84.8702	1,463.38	83.7115	1,463.38	84.1418	1,463.38	82.787	1,463.38	83.1793	1,463.38	81.6118	1,463.38	82.0749	1,463.38	80.2975	1,463.38	80.8627	1,463.38	79.0518	1,463.38	79.5375	1,463.38	77.8663	1,463.38	78.0676	1,463.38	76.4484	1,463.38	76.4232	1,463.38	74.6221	1,463.38	74.5683	1,463.38	73.2586	1,463.38	73.064	1,463.38	73.63	1,463.38	73.6637	1,463.38	73.9516	1,463.38	75.0034	1,463.38	72.3962	1,463.38	74.6371	1,463.38	68.306	1,463.38	71.692	1,463.38	65.8965	1,463.38	67.7811	1,463.38	69.8499	1,463.38	69.8987	1,463.38	71.4728
1,516.11	85.0578	1,516.11	84.7687	1,516.11	85.001	1,516.11	84.2133	1,516.11	84.57	1,516.11	83.4981	1,516.11	83.8093	1,516.11	82.668	1,516.11	82.8594	1,516.11	81.6566	1,516.11	81.8569	1,516.11	80.3674	1,516.11	80.7639	1,516.11	78.8378	1,516.11	79.4411	1,516.11	77.3558	1,516.11	77.9586	1,516.11	76.1795	1,516.11	76.6477	1,516.11	74.9987	1,516.11	75.416	1,516.11	73.7045	1,516.11	73.9436	1,516.11	73.5878	1,516.11	73.6011	1,516.11	74.0762	1,516.11	74.5101	1,516.11	72.5831	1,516.11	73.8008	1,516.11	66.9284	1,516.11	69.6634	1,516.11	65.8056	1,516.11	66.053	1,516.11	71.8912	1,516.11	71.5195	1,516.11	73.4816
1,568.85	84.9838	1,568.85	84.7238	1,568.85	84.7291	1,568.85	83.9855	1,568.85	84.0369	1,568.85	82.9976	1,568.85	83.0438	1,568.85	82.1098	1,568.85	81.9654	1,568.85	81.3994	1,568.85	81.0372	1,568.85	80.4646	1,568.85	80.2038	1,568.85	78.8991	1,568.85	79.0385	1,568.85	76.8576	1,568.85	77.311	1,568.85	75.4697	1,568.85	75.7765	1,568.85	75.1326	1,568.85	75.1618	1,568.85	74.4956	1,568.85	74.1764	1,568.85	73.8552	1,568.85	72.9404	1,568.85	74.0668	1,568.85	73.6376	1,568.85	73.1468	1,568.85	73.7072	1,568.85	68.411	1,568.85	69.7362	1,568.85	61.1778	1,568.85	60.8488	1,568.85	70.7087	1,568.85	70.9982	1,568.85	73.2665
1,624.51	85.3892	1,624.51	85.0922	1,624.51	85.0921	1,624.51	84.2371	1,624.51	84.2526	1,624.51	82.9652	1,624.51	82.9839	1,624.51	81.5763	1,624.51	81.4774	1,624.51	80.562	1,624.51	80.1253	1,624.51	80.044	1,624.51	79.3191	1,624.51	79.2798	1,624.51	78.565	1,624.51	77.5304	1,624.51	76.8235	1,624.51	75.2424	1,624.51	74.2901	1,624.51	74.37	1,624.51	73.6863	1,624.51	74.5862	1,624.51	74.1744	1,624.51	74.8729	1,624.51	73.6388	1,624.51	75.0801	1,624.51	73.5991	1,624.51	73.9726	1,624.51	74.1163	1,624.51	70.0382	1,624.51	71.9656	1,624.51	61.8845	1,624.51	61.2707	1,624.51	68.0066	1,624.51	67.4469	1,624.51	71.102
1,681.64	85.5173	1,681.64	85.3606	1,681.64	85.2676	1,681.64	84.715	1,681.64	84.7162	1,681.64	83.6227	1,681.64	83.8309	1,681.64	82.1916	1,681.64	82.5162	1,681.64	80.7309	1,681.64	80.9033	1,681.64	79.8229	1,681.64	79.526	1,681.64	79.2444	1,681.64	78.6711	1,681.64	77.8528	1,681.64	77.414	1,681.64	75.2766	1,681.64	74.4914	1,681.64	73.5865	1,681.64	71.0399	1,681.64	73.8645	1,681.64	71.9461	1,681.64	74.255	1,681.64	72.8605	1,681.64	74.8105	1,681.64	72.7433	1,681.64	74.1718	1,681.64	72.7478	1,681.64	70.2669	1,681.64	71.0748	1,681.64	63.222	1,681.64	64.2621	1,681.64	68.273	1,681.64	64.9466	1,681.64	69.732
1,741.7	85.8689	1,741.7	85.6993	1,741.7	85.8012	1,741.7	85.2846	1,741.7	85.5493	1,741.7	84.605	1,741.7	85.0043	1,741.7	83.4435	1,741.7	83.9436	1,741.7	81.6246	1,741.7	82.3626	1,741.7	79.6794	1,741.7	80.7443	1,741.7	78.759	1,741.7	79.7868	1,741.7	78.1217	1,741.7	79.0676	1,741.7	76.1098	1,741.7	77.1833	1,741.7	72.7891	1,741.7	73.4748	1,741.7	71.5347	1,741.7	71.6572	1,741.7	72.8654	1,741.7	73.6475	1,741.7	73.7466	1,741.7	74.424	1,741.7	73.0743	1,741.7	73.9105	1,741.7	70.1504	1,741.7	71.9407	1,741.7	64.3292	1,741.7	67.6187	1,741.7	66.6905	1,741.7	66.3316	1,741.7	68.8136
1,803.22	85.9025	1,803.22	85.8016	1,803.22	85.6732	1,803.22	85.4066	1,803.22	85.2166	1,803.22	84.8204	1,803.22	84.5898	1,803.22	83.9933	1,803.22	83.6976	1,803.22	82.7223	1,803.22	82.4231	1,803.22	80.9944	1,803.22	80.8855	1,803.22	79.3989	1,803.22	79.5882	1,803.22	78.2406	1,803.22	78.6494	1,803.22	76.7128	1,803.22	77.2371	1,803.22	74.712	1,803.22	74.81	1,803.22	73.0168	1,803.22	72.5479	1,803.22	73.0799	1,803.22	73.1044	1,803.22	74.805	1,803.22	74.3081	1,803.22	74.7942	1,803.22	74.1929	1,803.22	71.7095	1,803.22	71.8603	1,803.22	65.9349	1,803.22	66.1198	1,803.22	67.9234	1,803.22	67.5154	1,803.22	70.2399
1,866.21	85.7306	1,866.21	85.6112	1,866.21	85.4864	1,866.21	85.1255	1,866.21	85.0068	1,866.21	84.4066	1,866.21	84.3536	1,866.21	83.5213	1,866.21	83.4203	1,866.21	82.3084	1,866.21	82.1251	1,866.21	80.6899	1,866.21	80.6409	1,866.21	79.1576	1,866.21	79.3019	1,866.21	77.7952	1,866.21	78.1913	1,866.21	75.7555	1,866.21	76.8184	1,866.21	73.7793	1,866.21	74.6071	1,866.21	72.9163	1,866.21	72.2425	1,866.21	72.5047	1,866.21	71.8894	1,866.21	74.1824	1,866.21	73.2628	1,866.21	75.0129	1,866.21	73.8354	1,866.21	72.8055	1,866.21	71.6674	1,866.21	66.8183	1,866.21	66.3625	1,866.21	68.531	1,866.21	67.6877	1,866.21	70.6154
1,932.13	86.4372	1,932.13	86.2522	1,932.13	86.2219	1,932.13	85.692	1,932.13	85.6182	1,932.13	84.8376	1,932.13	84.7919	1,932.13	83.7951	1,932.13	83.9231	1,932.13	82.4969	1,932.13	82.8567	1,932.13	80.786	1,932.13	81.4154	1,932.13	79.0963	1,932.13	79.8944	1,932.13	78.2709	1,932.13	78.5881	1,932.13	77.2411	1,932.13	77.4083	1,932.13	74.9077	1,932.13	75.7809	1,932.13	72.6217	1,932.13	73.1171	1,932.13	71.1439	1,932.13	71.3793	1,932.13	72.2987	1,932.13	72.4382	1,932.13	73.5139	1,932.13	74.1307	1,932.13	71.443	1,932.13	73.0359	1,932.13	65.7098	1,932.13	66.1455	1,932.13	67.081	1,932.13	67.1067	1,932.13	70.2557
1,999.51	86.7351	1,999.51	86.5718	1,999.51	86.5887	1,999.51	86.1544	1,999.51	85.9745	1,999.51	85.465	1,999.51	84.9443	1,999.51	84.5622	1,999.51	83.8521	1,999.51	83.4026	1,999.51	82.746	1,999.51	81.8701	1,999.51	81.204	1,999.51	80.2056	1,999.51	79.6535	1,999.51	78.9654	1,999.51	78.7058	1,999.51	77.6501	1,999.51	77.4469	1,999.51	75.607	1,999.51	75.8117	1,999.51	74.2572	1,999.51	74.2705	1,999.51	73.1333	1,999.51	72.2177	1,999.51	72.741	1,999.51	71.1199	1,999.51	73.9717	1,999.51	73.0332	1,999.51	72.1795	1,999.51	72.9119	1,999.51	64.7951	1,999.51	66.1898	1,999.51	65.5141	1,999.51	65.7759	1,999.51	69.549
2,069.82	86.4768	2,069.82	86.5019	2,069.82	86.2117	2,069.82	86.1821	2,069.82	85.5769	2,069.82	85.4763	2,069.82	84.5063	2,069.82	84.6704	2,069.82	83.3522	2,069.82	83.8021	2,069.82	82.4172	2,069.82	82.4374	2,069.82	81.0811	2,069.82	80.4665	2,069.82	78.9809	2,069.82	78.8047	2,069.82	77.5359	2,069.82	77.7698	2,069.82	76.3436	2,069.82	75.9827	2,069.82	74.0323	2,069.82	74.5693	2,069.82	73.3789	2,069.82	74.7129	2,069.82	73.454	2,069.82	74.9038	2,069.82	72.7725	2,069.82	75.7705	2,069.82	73.4321	2,069.82	74.6254	2,069.82	73.0348	2,069.82	69.6657	2,069.82	68.3069	2,069.82	65.4577	2,069.82	61.8303	2,069.82	66.4274
2,143.07	86.4629	2,143.07	86.2558	2,143.07	86.2934	2,143.07	85.653	2,143.07	85.9561	2,143.07	84.8694	2,143.07	85.5298	2,143.07	84.095	2,143.07	84.7986	2,143.07	83.1952	2,143.07	83.6749	2,143.07	81.7757	2,143.07	82.3627	2,143.07	79.7295	2,143.07	80.6197	2,143.07	77.5879	2,143.07	78.9084	2,143.07	76.612	2,143.07	77.8778	2,143.07	75.9835	2,143.07	75.3116	2,143.07	74.3878	2,143.07	72.3982	2,143.07	74.313	2,143.07	72.9635	2,143.07	75.2347	2,143.07	72.4393	2,143.07	76.2686	2,143.07	73.8604	2,143.07	75.2305	2,143.07	74.4623	2,143.07	70.13	2,143.07	70.7924	2,143.07	67.2076	2,143.07	67.17	2,143.07	69.552
2,219.24	87.0079	2,219.24	86.8419	2,219.24	86.9371	2,219.24	86.451	2,219.24	86.663	2,219.24	85.8812	2,219.24	86.1804	2,219.24	84.8468	2,219.24	85.4531	2,219.24	83.3134	2,219.24	84.4256	2,219.24	81.5933	2,219.24	83.3875	2,219.24	79.6545	2,219.24	81.9976	2,219.24	77.9202	2,219.24	79.8326	2,219.24	76.2297	2,219.24	78.6474	2,219.24	73.9407	2,219.24	77.5188	2,219.24	72.4873	2,219.24	75.3042	2,219.24	70.8226	2,219.24	74.7818	2,219.24	70.8817	2,219.24	73.2415	2,219.24	74.0619	2,219.24	74.3298	2,219.24	73.9189	2,219.24	76.0669	2,219.24	69.8457	2,219.24	72.7608	2,219.24	66.9448	2,219.24	67.169	2,219.24	68.7891
2,296.88	87.1925	2,296.88	87.1099	2,296.88	86.9472	2,296.88	86.6724	2,296.88	86.6881	2,296.88	86.0777	2,296.88	86.412	2,296.88	85.3823	2,296.88	85.673	2,296.88	84.2806	2,296.88	84.4314	2,296.88	82.6012	2,296.88	82.9377	2,296.88	80.7535	2,296.88	81.2556	2,296.88	79.158	2,296.88	79.6361	2,296.88	77.9786	2,296.88	78.2228	2,296.88	75.7184	2,296.88	76.2685	2,296.88	72.7282	2,296.88	73.9097	2,296.88	73.6677	2,296.88	74.4153	2,296.88	72.9853	2,296.88	73.8456	2,296.88	75.385	2,296.88	73.6191	2,296.88	76.2604	2,296.88	76.2453	2,296.88	72.9444	2,296.88	74.0248	2,296.88	71.4678	2,296.88	69.0587	2,296.88	71.8081
2,378.91	87.3605	2,378.91	87.4106	2,378.91	87.1475	2,378.91	87.0927	2,378.91	87.0147	2,378.91	86.475	2,378.91	86.5612	2,378.91	85.6758	2,378.91	85.4514	2,378.91	84.4905	2,378.91	84.4412	2,378.91	82.8493	2,378.91	83.532	2,378.91	80.8424	2,378.91	81.6451	2,378.91	78.4977	2,378.91	79.9744	2,378.91	76.9326	2,378.91	79.9681	2,378.91	75.4475	2,378.91	78.6102	2,378.91	73.5073	2,378.91	74.295	2,378.91	73.9017	2,378.91	74.0328	2,378.91	72.3851	2,378.91	73.9915	2,378.91	72.6547	2,378.91	71.9605	2,378.91	74.5208	2,378.91	74.5342	2,378.91	72.2001	2,378.91	72.8568	2,378.91	72.858	2,378.91	68.4472	2,378.91	72.0911
2,462.4	87.2921	2,462.4	87.3929	2,462.4	87.2484	2,462.4	87.2059	2,462.4	87.2263	2,462.4	86.6597	2,462.4	86.7644	2,462.4	85.9483	2,462.4	85.979	2,462.4	85.0189	2,462.4	85.0156	2,462.4	83.6537	2,462.4	83.7569	2,462.4	82.0671	2,462.4	82.2242	2,462.4	79.9587	2,462.4	80.241	2,462.4	78.055	2,462.4	78.4616	2,462.4	77.1931	2,462.4	77.2148	2,462.4	74.9453	2,462.4	74.8187	2,462.4	75.2136	2,462.4	73.8289	2,462.4	73.5283	2,462.4	73.9202	2,462.4	70.8036	2,462.4	71.3459	2,462.4	74.2854	2,462.4	75.153	2,462.4	71.8059	2,462.4	73.1953	2,462.4	68.227	2,462.4	68.5547	2,462.4	71.7723
2,548.83	85.9278	2,548.83	86.0992	2,548.83	85.8867	2,548.83	86.1434	2,548.83	85.9162	2,548.83	85.7776	2,548.83	85.6983	2,548.83	85.1047	2,548.83	85.0466	2,548.83	84.4955	2,548.83	83.9976	2,548.83	83.4727	2,548.83	83.0513	2,548.83	81.5321	2,548.83	81.7271	2,548.83	79.686	2,548.83	79.3146	2,548.83	78.1335	2,548.83	77.6904	2,548.83	76.7476	2,548.83	77.004	2,548.83	74.5547	2,548.83	74.5688	2,548.83	74.6158	2,548.83	73.9257	2,548.83	75.1484	2,548.83	74.4277	2,548.83	71.3831	2,548.83	70.2082	2,548.83	74.5437	2,548.83	72.6697	2,548.83	72.6786	2,548.83	73.1575	2,548.83	69.7244	2,548.83	64.5101	2,548.83	70.6716
2,639.65	85.7843	2,639.65	85.8522	2,639.65	85.8568	2,639.65	85.9556	2,639.65	85.9656	2,639.65	85.9875	2,639.65	85.9142	2,639.65	85.3285	2,639.65	85.4866	2,639.65	83.7903	2,639.65	84.3711	2,639.65	82.5628	2,639.65	82.9524	2,639.65	81.2314	2,639.65	81.5758	2,639.65	78.6452	2,639.65	79.6018	2,639.65	76.6263	2,639.65	77.5953	2,639.65	75.8088	2,639.65	77.3425	2,639.65	72.8618	2,639.65	75.3249	2,639.65	71.4946	2,639.65	72.0697	2,639.65	74.0248	2,639.65	74.527	2,639.65	71.2234	2,639.65	72.3948	2,639.65	70.9029	2,639.65	71.0323	2,639.65	69.3577	2,639.65	70.5867	2,639.65	63.7157	2,639.65	66.0094	2,639.65	66.6554
2,731.93	85.6884	2,731.93	85.6771	2,731.93	85.5912	2,731.93	85.7161	2,731.93	85.4421	2,731.93	85.7867	2,731.93	85.3848	2,731.93	85.3597	2,731.93	85.0494	2,731.93	84.1612	2,731.93	83.9719	2,731.93	82.886	2,731.93	82.364	2,731.93	81.4785	2,731.93	80.8017	2,731.93	79.4614	2,731.93	79.1523	2,731.93	77.1927	2,731.93	77.0008	2,731.93	75.5735	2,731.93	75.9708	2,731.93	73.9194	2,731.93	74.9494	2,731.93	71.4565	2,731.93	72.3253	2,731.93	74.1256	2,731.93	73.8062	2,731.93	73.2874	2,731.93	72.8039	2,731.93	73.2237	2,731.93	71.7263	2,731.93	71.1591	2,731.93	71.6444	2,731.93	65.6066	2,731.93	65.3487	2,731.93	67.2029
2,828.61	84.8571	2,828.61	85.1193	2,828.61	84.9871	2,828.61	85.3334	2,828.61	85.2055	2,828.61	85.1937	2,828.61	85.1858	2,828.61	84.8359	2,828.61	84.87	2,828.61	83.5219	2,828.61	83.9481	2,828.61	81.8238	2,828.61	82.3125	2,828.61	80.8423	2,828.61	80.394	2,828.61	78.8266	2,828.61	78.3951	2,828.61	76.5812	2,828.61	76.3619	2,828.61	76.0659	2,828.61	74.8245	2,828.61	74.4714	2,828.61	74.1694	2,828.61	70.5351	2,828.61	70.4693	2,828.61	73.181	2,828.61	73.411	2,828.61	72.7826	2,828.61	72.8857	2,828.61	71.7364	2,828.61	71.2788	2,828.61	69.7993	2,828.61	70.2926	2,828.61	63.1716	2,828.61	64.4321	2,828.61	66.4126
2,928.22	85.6627	2,928.22	85.9039	2,928.22	85.6988	2,928.22	86.157	2,928.22	85.8951	2,928.22	85.9142	2,928.22	85.8476	2,928.22	85.4646	2,928.22	85.3712	2,928.22	84.5511	2,928.22	84.5864	2,928.22	82.8039	2,928.22	83.0132	2,928.22	81.086	2,928.22	81.035	2,928.22	79.232	2,928.22	79.3119	2,928.22	76.6573	2,928.22	77.2827	2,928.22	75.5338	2,928.22	75.7126	2,928.22	75.3029	2,928.22	74.6044	2,928.22	71.914	2,928.22	71.831	2,928.22	72.4533	2,928.22	72.8005	2,928.22	72.3863	2,928.22	74.4144	2,928.22	71.825	2,928.22	72.2709	2,928.22	70.6615	2,928.22	73.0571	2,928.22	66.2684	2,928.22	65.5266	2,928.22	66.616
3,030.76	85.3749	3,030.76	85.82	3,030.76	85.5669	3,030.76	86.2364	3,030.76	86.0022	3,030.76	86.113	3,030.76	85.9521	3,030.76	85.3459	3,030.76	85.4318	3,030.76	84.3654	3,030.76	84.5059	3,030.76	82.9059	3,030.76	83.078	3,030.76	80.5426	3,030.76	81.1304	3,030.76	79.1408	3,030.76	79.0513	3,030.76	77.0037	3,030.76	77.0966	3,030.76	75.015	3,030.76	74.8875	3,030.76	75.3319	3,030.76	74.8941	3,030.76	72.3514	3,030.76	72.2586	3,030.76	71.8935	3,030.76	70.4415	3,030.76	72.5193	3,030.76	72.8927	3,030.76	71.9599	3,030.76	72.2113	3,030.76	71.898	3,030.76	71.758	3,030.76	65.3461	3,030.76	67.3649	3,030.76	67.2567
3,137.7	85.5809	3,137.7	85.7949	3,137.7	85.8263	3,137.7	86.2286	3,137.7	85.9521	3,137.7	86.1556	3,137.7	86.0691	3,137.7	85.6096	3,137.7	85.7996	3,137.7	84.481	3,137.7	84.5651	3,137.7	82.945	3,137.7	82.9587	3,137.7	80.9919	3,137.7	81.0655	3,137.7	78.5564	3,137.7	79.016	3,137.7	77.1087	3,137.7	77.4455	3,137.7	73.9659	3,137.7	74.8488	3,137.7	73.8251	3,137.7	73.7268	3,137.7	72.9041	3,137.7	72.9316	3,137.7	72.9132	3,137.7	72.2761	3,137.7	73.4561	3,137.7	73.5795	3,137.7	72.577	3,137.7	72.2322	3,137.7	71.1959	3,137.7	71.8752	3,137.7	66.1734	3,137.7	67.8256	3,137.7	65.3634
3,249.02	85.9915	3,249.02	86.1417	3,249.02	86.2077	3,249.02	86.6984	3,249.02	86.2178	3,249.02	86.5748	3,249.02	86.5798	3,249.02	86.1885	3,249.02	86.0703	3,249.02	85.014	3,249.02	84.7675	3,249.02	83.3008	3,249.02	83.1965	3,249.02	81.6216	3,249.02	81.5125	3,249.02	79.0507	3,249.02	79.9094	3,249.02	77.1014	3,249.02	77.8738	3,249.02	75.2098	3,249.02	75.496	3,249.02	73.7776	3,249.02	73.5974	3,249.02	72.9612	3,249.02	73.765	3,249.02	72.0963	3,249.02	70.2657	3,249.02	74.6247	3,249.02	72.5269	3,249.02	74.1397	3,249.02	72.2334	3,249.02	73.0339	3,249.02	72.7072	3,249.02	66.0861	3,249.02	64.234	3,249.02	70.1045
3,363.28	85.631	3,363.28	86.1105	3,363.28	85.6135	3,363.28	86.454	3,363.28	86.1761	3,363.28	86.5268	3,363.28	86.5385	3,363.28	86.0376	3,363.28	85.7785	3,363.28	84.9969	3,363.28	84.7967	3,363.28	83.6175	3,363.28	83.6992	3,363.28	81.7766	3,363.28	82.0577	3,363.28	79.6868	3,363.28	79.6537	3,363.28	77.3009	3,363.28	77.3835	3,363.28	76.2392	3,363.28	76.0287	3,363.28	74.1153	3,363.28	73.8183	3,363.28	73.5076	3,363.28	73.0289	3,363.28	72.3426	3,363.28	72.5392	3,363.28	73.8726	3,363.28	73.9738	3,363.28	73.7504	3,363.28	72.7562	3,363.28	73.4781	3,363.28	73.2308	3,363.28	62.2369	3,363.28	68.4755	3,363.28	63.9077
3,481.93	85.5078	3,481.93	86.0306	3,481.93	85.8763	3,481.93	86.3788	3,481.93	86.3747	3,481.93	86.5293	3,481.93	86.4878	3,481.93	85.7779	3,481.93	86.096	3,481.93	84.8436	3,481.93	84.9979	3,481.93	83.4254	3,481.93	83.8282	3,481.93	81.359	3,481.93	82.0766	3,481.93	79.8383	3,481.93	79.6215	3,481.93	77.4966	3,481.93	77.5171	3,481.93	75.7237	3,481.93	76.1354	3,481.93	74.6498	3,481.93	73.2762	3,481.93	74.0763	3,481.93	72.7645	3,481.93	71.3693	3,481.93	71.9757	3,481.93	73.5331	3,481.93	73.2542	3,481.93	72.2264	3,481.93	72.2986	3,481.93	72.7044	3,481.93	73.4387	3,481.93	63.9899	3,481.93	67.9689	3,481.93	65.1603
3,604.98	86.3394	3,604.98	86.4721	3,604.98	86.6566	3,604.98	87.0211	3,604.98	86.4048	3,604.98	87.0667	3,604.98	86.7776	3,604.98	86.7696	3,604.98	86.9156	3,604.98	85.536	3,604.98	85.7586	3,604.98	84.1274	3,604.98	84.2518	3,604.98	82.3583	3,604.98	82.2352	3,604.98	80.3186	3,604.98	80.2983	3,604.98	78.2279	3,604.98	78.5026	3,604.98	76.1142	3,604.98	76.5523	3,604.98	74.0559	3,604.98	75.1048	3,604.98	73.4657	3,604.98	74.067	3,604.98	70.9137	3,604.98	70.5543	3,604.98	73.5319	3,604.98	71.4941	3,604.98	73.7445	3,604.98	71.9619	3,604.98	74.2806	3,604.98	73.6782	3,604.98	67.4982	3,604.98	68.9663	3,604.98	68.0804
3,732.42	86.1193	3,732.42	86.385	3,732.42	85.9231	3,732.42	86.7724	3,732.42	86.5892	3,732.42	87.131	3,732.42	87.0066	3,732.42	86.8498	3,732.42	86.3861	3,732.42	85.7776	3,732.42	85.6274	3,732.42	84.3886	3,732.42	84.4437	3,732.42	82.6284	3,732.42	82.8609	3,732.42	80.2237	3,732.42	80.069	3,732.42	77.874	3,732.42	77.7866	3,732.42	76.2329	3,732.42	76.0864	3,732.42	74.5705	3,732.42	73.6207	3,732.42	74.0794	3,732.42	74.2256	3,732.42	72.073	3,732.42	74.3867	3,732.42	73.6453	3,732.42	73.6338	3,732.42	73.358	3,732.42	72.6959	3,732.42	75.2043	3,732.42	73.3955	3,732.42	68.1689	3,732.42	70.0734	3,732.42	68.4919
3,864.26	86.8363	3,864.26	87.0362	3,864.26	86.6829	3,864.26	87.0917	3,864.26	87.1709	3,864.26	87.363	3,864.26	87.1757	3,864.26	87.0685	3,864.26	87.0888	3,864.26	86.3441	3,864.26	86.3773	3,864.26	84.8815	3,864.26	84.9709	3,864.26	82.8893	3,864.26	83.4185	3,864.26	80.3873	3,864.26	81.2804	3,864.26	77.4851	3,864.26	79.236	3,864.26	75.7222	3,864.26	76.42	3,864.26	72.8249	3,864.26	74.2772	3,864.26	72.3916	3,864.26	71.6254	3,864.26	72.9461	3,864.26	75.2411	3,864.26	72.3226	3,864.26	75.3131	3,864.26	72.7582	3,864.26	73.9275	3,864.26	74.2721	3,864.26	73.056	3,864.26	67.2389	3,864.26	69.3796	3,864.26	62.7016
4,000.49	86.9221	4,000.49	86.8542	4,000.49	86.9166	4,000.49	87.0119	4,000.49	86.8013	4,000.49	86.8445	4,000.49	86.5316	4,000.49	86.52	4,000.49	86.6425	4,000.49	85.7512	4,000.49	86.0754	4,000.49	84.2066	4,000.49	84.5373	4,000.49	82.7118	4,000.49	82.4726	4,000.49	80.1194	4,000.49	80.4393	4,000.49	77.7379	4,000.49	78.604	4,000.49	75.8266	4,000.49	76.2748	4,000.49	75.0667	4,000.49	75.0127	4,000.49	72.1483	4,000.49	72.0803	4,000.49	72.9411	4,000.49	70.1727	4,000.49	73.6072	4,000.49	72.9529	4,000.49	71.6902	4,000.49	72.8867	4,000.49	72.3735	4,000.49	72.5634	4,000.49	68.5645	4,000.49	68.6589	4,000.49	65.152
4,141.11	87.9851	4,141.11	87.3757	4,141.11	87.6179	4,141.11	87.4655	4,141.11	86.7642	4,141.11	87.348	4,141.11	87.0963	4,141.11	87.0244	4,141.11	86.8781	4,141.11	85.868	4,141.11	86.1091	4,141.11	84.2128	4,141.11	84.5621	4,141.11	82.4746	4,141.11	82.7808	4,141.11	79.6494	4,141.11	80.4906	4,141.11	77.9033	4,141.11	78.0086	4,141.11	75.9485	4,141.11	76.3255	4,141.11	74.0859	4,141.11	74.2998	4,141.11	72.2414	4,141.11	70.6469	4,141.11	70.9665	4,141.11	72.1411	4,141.11	73.5214	4,141.11	72.4911	4,141.11	72.9219	4,141.11	72.9919	4,141.11	73.3022	4,141.11	72.1618	4,141.11	70.868	4,141.11	68.1329	4,141.11	67.7247
4,287.6	87.8952	4,287.6	87.7048	4,287.6	87.1398	4,287.6	86.9422	4,287.6	87.0723	4,287.6	87.231	4,287.6	87.01	4,287.6	86.3808	4,287.6	86.684	4,287.6	85.6238	4,287.6	86.057	4,287.6	84.0377	4,287.6	84.2482	4,287.6	81.1066	4,287.6	82.0555	4,287.6	78.6368	4,287.6	80.0804	4,287.6	76.7174	4,287.6	77.5501	4,287.6	75.3484	4,287.6	75.3577	4,287.6	74.1911	4,287.6	73.5141	4,287.6	72.3617	4,287.6	73.1066	4,287.6	72.7977	4,287.6	67.95	4,287.6	73.3331	4,287.6	72.7586	4,287.6	72.6189	4,287.6	72.034	4,287.6	73.8011	4,287.6	71.8937	4,287.6	65.0775	4,287.6	71.3708	4,287.6	66.6283
4,438.48	87.9941	4,438.48	87.7329	4,438.48	87.9042	4,438.48	87.2839	4,438.48	87.385	4,438.48	87.1495	4,438.48	86.6721	4,438.48	86.579	4,438.48	86.5194	4,438.48	85.6657	4,438.48	85.4907	4,438.48	84.3073	4,438.48	84.0825	4,438.48	82.5818	4,438.48	82.3601	4,438.48	79.9813	4,438.48	79.8257	4,438.48	76.6162	4,438.48	77.3722	4,438.48	73.5029	4,438.48	75.6085	4,438.48	72.8508	4,438.48	71.868	4,438.48	71.2988	4,438.48	70.9179	4,438.48	71.2085	4,438.48	71.7893	4,438.48	73.2662	4,438.48	71.933	4,438.48	72.1069	4,438.48	71.2777	4,438.48	68.672	4,438.48	70.4613	4,438.48	63.9864	4,438.48	69.0493	4,438.48	45.4593
4,595.21	87.977	4,595.21	87.4571	4,595.21	87.4934	4,595.21	86.9419	4,595.21	86.5092	4,595.21	86.3304	4,595.21	86.2558	4,595.21	86.3527	4,595.21	86.2106	4,595.21	84.9364	4,595.21	85.9943	4,595.21	83.7803	4,595.21	84.0827	4,595.21	82.2232	4,595.21	81.9441	4,595.21	80.0258	4,595.21	79.4925	4,595.21	77.1551	4,595.21	77.3524	4,595.21	74.849	4,595.21	74.9657	4,595.21	72.4804	4,595.21	72.4801	4,595.21	70.4661	4,595.21	71.9442	4,595.21	68.8521	4,595.21	68.0918	4,595.21	74.1248	4,595.21	72.2131	4,595.21	72.3878	4,595.21	73.0349	4,595.21	71.2412	4,595.21	70.7203	4,595.21	68.7425	4,595.21	66.7453	4,595.21	63.5925
4,756.35	87.9686	4,756.35	87.0731	4,756.35	86.8198	4,756.35	85.9839	4,756.35	86.6364	4,756.35	86.6438	4,756.35	86.3543	4,756.35	85.699	4,756.35	86.4661	4,756.35	85.3693	4,756.35	85.3283	4,756.35	83.8968	4,756.35	84.0691	4,756.35	81.2729	4,756.35	82.0949	4,756.35	78.5381	4,756.35	79.1437	4,756.35	76.6054	4,756.35	77.1855	4,756.35	74.6086	4,756.35	74.7766	4,756.35	72.7999	4,756.35	72.5444	4,756.35	72.4422	4,756.35	71.3805	4,756.35	70.6718	4,756.35	71.3461	4,756.35	71.1395	4,756.35	69.761	4,756.35	73.6335	4,756.35	73.1845	4,756.35	72.5755	4,756.35	71.933	4,756.35	66.8792	4,756.35	69.7701	4,756.35	61.4091
4,924.8	87.1036	4,924.8	86.3802	4,924.8	87.0111	4,924.8	85.8348	4,924.8	85.8068	4,924.8	85.294	4,924.8	85.3223	4,924.8	85.8711	4,924.8	85.8703	4,924.8	84.6387	4,924.8	85.2213	4,924.8	83.6559	4,924.8	83.4931	4,924.8	82.0111	4,924.8	81.4406	4,924.8	79.4934	4,924.8	79.2167	4,924.8	77.0747	4,924.8	77.0855	4,924.8	74.061	4,924.8	74.4057	4,924.8	70.5227	4,924.8	72.0415	4,924.8	70.5534	4,924.8	68.4589	4,924.8	70.3642	4,924.8	70.5138	4,924.8	71.0412	4,924.8	70.9132	4,924.8	72.5447	4,924.8	72.1276	4,924.8	71.0749	4,924.8	70.7534	4,924.8	64.7362	4,924.8	66.6524	4,924.8	55.9666
5,097.66	87.7623	5,097.66	87.4483	5,097.66	86.6975	5,097.66	86.1748	5,097.66	86.322	5,097.66	86.0787	5,097.66	86.1481	5,097.66	85.971	5,097.66	85.8962	5,097.66	85.7231	5,097.66	85.086	5,097.66	83.8066	5,097.66	83.6491	5,097.66	81.4717	5,097.66	81.301	5,097.66	80.123	5,097.66	79.2559	5,097.66	77.1804	5,097.66	76.9298	5,097.66	74.4491	5,097.66	74.2109	5,097.66	71.8891	5,097.66	73.4099	5,097.66	69.7583	5,097.66	70.2287	5,097.66	70.7494	5,097.66	68.8224	5,097.66	71.0899	5,097.66	70.1252	5,097.66	71.9351	5,097.66	72.7339	5,097.66	70.6673	5,097.66	70.9014	5,097.66	69.2005	5,097.66	68.2345	5,097.66	59.1184
5,277.83	87.5924	5,277.83	86.925	5,277.83	87.5023	5,277.83	86.3424	5,277.83	86.9069	5,277.83	86.3514	5,277.83	86.0126	5,277.83	86.3602	5,277.83	85.9921	5,277.83	84.9063	5,277.83	84.9643	5,277.83	84.0417	5,277.83	83.6264	5,277.83	82.0861	5,277.83	82.4111	5,277.83	78.4583	5,277.83	79.9367	5,277.83	75.8103	5,277.83	77.3049	5,277.83	74.1435	5,277.83	74.5451	5,277.83	71.8007	5,277.83	72.5155	5,277.83	70.6749	5,277.83	70.5306	5,277.83	68.6457	5,277.83	70.3067	5,277.83	69.2333	5,277.83	69.237	5,277.83	72.8084	5,277.83	72.252	5,277.83	71.0803	5,277.83	72.7924	5,277.83	62.6177	5,277.83	69.8195	5,277.83	59.0079
5,463.87	87.1654	5,463.87	86.9161	5,463.87	87.184	5,463.87	86.4873	5,463.87	86.8477	5,463.87	85.8308	5,463.87	86.159	5,463.87	85.3543	5,463.87	85.976	5,463.87	85.0097	5,463.87	85.6209	5,463.87	83.7523	5,463.87	84.1728	5,463.87	81.9244	5,463.87	82.4575	5,463.87	80.3336	5,463.87	80.0626	5,463.87	76.832	5,463.87	77.527	5,463.87	74.9492	5,463.87	75.4648	5,463.87	72.0092	5,463.87	73.2427	5,463.87	70.4741	5,463.87	71.6084	5,463.87	71.2503	5,463.87	69.1299	5,463.87	69.7088	5,463.87	69.5343	5,463.87	73.1811	5,463.87	72.8086	5,463.87	71.7506	5,463.87	71.7366	5,463.87	67.2713	5,463.87	69.697	5,463.87	56.4321
5,657.23	87.3587	5,657.23	87.2098	5,657.23	87.2708	5,657.23	86.6468	5,657.23	87.1896	5,657.23	86.4822	5,657.23	86.1837	5,657.23	85.842	5,657.23	85.71	5,657.23	85.1729	5,657.23	84.8855	5,657.23	84.5474	5,657.23	84.4274	5,657.23	82.548	5,657.23	82.8431	5,657.23	80.2022	5,657.23	80.2038	5,657.23	77.441	5,657.23	77.6322	5,657.23	74.4989	5,657.23	74.838	5,657.23	72.4765	5,657.23	72.6471	5,657.23	70.2849	5,657.23	70.6051	5,657.23	70.6571	5,657.23	68.9505	5,657.23	70.7118	5,657.23	69.5813	5,657.23	72.1596	5,657.23	72.02	5,657.23	70.8511	5,657.23	71.0604	5,657.23	64.7577	5,657.23	68.6968	5,657.23	57.1137
5,856.45	87.5293	5,856.45	87.7452	5,856.45	88.0013	5,856.45	87.203	5,856.45	87.5811	5,856.45	85.7958	5,856.45	86.1242	5,856.45	85.2406	5,856.45	85.7166	5,856.45	85.0962	5,856.45	85.7447	5,856.45	84.6536	5,856.45	84.5508	5,856.45	82.2752	5,856.45	82.5251	5,856.45	79.6394	5,856.45	80.2447	5,856.45	76.5649	5,856.45	77.7874	5,856.45	73.8783	5,856.45	74.4894	5,856.45	71.1161	5,856.45	72.7015	5,856.45	70.0516	5,856.45	70.0233	5,856.45	69.6552	5,856.45	70.5146	5,856.45	69.8051	5,856.45	66.6618	5,856.45	72.827	5,856.45	72.6997	5,856.45	70.5875	5,856.45	71.1603	5,856.45	64.7584	5,856.45	68.6715	5,856.45	57.5124
6,062.99	87.7657	6,062.99	87.9404	6,062.99	87.7637	6,062.99	87.3528	6,062.99	87.6507	6,062.99	86.2373	6,062.99	86.1368	6,062.99	85.4408	6,062.99	85.4916	6,062.99	85.3632	6,062.99	85.1684	6,062.99	84.4397	6,062.99	84.5671	6,062.99	81.9104	6,062.99	82.7459	6,062.99	79.9014	6,062.99	79.9002	6,062.99	77.3813	6,062.99	77.176	6,062.99	74.1936	6,062.99	73.922	6,062.99	71.3153	6,062.99	72.3841	6,062.99	70.0749	6,062.99	69.7213	6,062.99	70.3998	6,062.99	68.9105	6,062.99	68.9806	6,062.99	69.0625	6,062.99	71.8319	6,062.99	72.0737	6,062.99	69.9113	6,062.99	70.2626	6,062.99	64.6104	6,062.99	66.578	6,062.99	58.2009
6,276.86	87.8403	6,276.86	87.8865	6,276.86	88.3409	6,276.86	87.2928	6,276.86	87.6922	6,276.86	85.7366	6,276.86	86.2956	6,276.86	85.0184	6,276.86	85.6503	6,276.86	85.0958	6,276.86	85.5329	6,276.86	84.2282	6,276.86	84.1689	6,276.86	81.3489	6,276.86	81.9056	6,276.86	79.0569	6,276.86	79.2992	6,276.86	75.8048	6,276.86	76.3699	6,276.86	72.5973	6,276.86	73.3916	6,276.86	70.4658	6,276.86	71.3953	6,276.86	69.2163	6,276.86	68.4868	6,276.86	67.697	6,276.86	67.8618	6,276.86	68.1214	6,276.86	67.1934	6,276.86	70.9024	6,276.86	71.1157	6,276.86	69.6286	6,276.86	70.2422	6,276.86	63.2183	6,276.86	66.4541	6,276.86	54.481
6,498.05	87.8709	6,498.05	87.939	6,498.05	88.0712	6,498.05	87.2322	6,498.05	87.5135	6,498.05	85.8391	6,498.05	86.1427	6,498.05	85.1152	6,498.05	85.3846	6,498.05	84.8872	6,498.05	84.9353	6,498.05	83.51	6,498.05	83.6497	6,498.05	80.451	6,498.05	81.087	6,498.05	78.0306	6,498.05	78.4892	6,498.05	75.5687	6,498.05	75.7885	6,498.05	72.5198	6,498.05	71.9668	6,498.05	69.0326	6,498.05	70.3047	6,498.05	65.6836	6,498.05	66.0265	6,498.05	67.5643	6,498.05	66.9132	6,498.05	66.8987	6,498.05	67.6808	6,498.05	70.9993	6,498.05	70.7198	6,498.05	69.1055	6,498.05	69.2965	6,498.05	61.6881	6,498.05	66.4087	6,498.05	56.8392
6,726.56	87.8334	6,726.56	87.7162	6,726.56	88.002	6,726.56	86.9296	6,726.56	87.1464	6,726.56	85.6907	6,726.56	86.0651	6,726.56	85.0219	6,726.56	85.3222	6,726.56	84.5147	6,726.56	84.6235	6,726.56	82.8725	6,726.56	82.7335	6,726.56	80.0594	6,726.56	80.1402	6,726.56	77.771	6,726.56	77.6153	6,726.56	74.1881	6,726.56	74.549	6,726.56	71.4069	6,726.56	71.0486	6,726.56	68.8497	6,726.56	69.2411	6,726.56	65.9082	6,726.56	64.9149	6,726.56	66.8911	6,726.56	62.223	6,726.56	66.2955	6,726.56	65.655	6,726.56	70.0028	6,726.56	69.1905	6,726.56	68.7724	6,726.56	68.7652	6,726.56	61.1346	6,726.56	64.9671	6,726.56	55.827
6,963.87	87.9653	6,963.87	87.5719	6,963.87	87.6553	6,963.87	86.5939	6,963.87	86.7793	6,963.87	85.6754	6,963.87	85.9893	6,963.87	84.6918	6,963.87	85.0883	6,963.87	84.0278	6,963.87	83.9984	6,963.87	82.0921	6,963.87	81.9642	6,963.87	79.4982	6,963.87	79.0953	6,963.87	76.7981	6,963.87	76.4342	6,963.87	73.8943	6,963.87	74.1716	6,963.87	71.1273	6,963.87	70.5145	6,963.87	68.3129	6,963.87	68.5944	6,963.87	65.671	6,963.87	65.8458	6,963.87	65.6951	6,963.87	64.4073	6,963.87	66.7867	6,963.87	65.5867	6,963.87	69.6505	6,963.87	68.6358	6,963.87	68.292	6,963.87	68.3701	6,963.87	60.6657	6,963.87	63.9777	6,963.87	56.7329
7,209.96	87.8717	7,209.96	87.4292	7,209.96	87.4179	7,209.96	86.5788	7,209.96	86.5615	7,209.96	85.8564	7,209.96	86.0113	7,209.96	84.7393	7,209.96	84.723	7,209.96	83.4828	7,209.96	83.0578	7,209.96	81.544	7,209.96	80.926	7,209.96	79.3962	7,209.96	78.4346	7,209.96	76.5997	7,209.96	76.379	7,209.96	73.6621	7,209.96	73.1042	7,209.96	70.659	7,209.96	69.8646	7,209.96	67.9609	7,209.96	68.2773	7,209.96	66.061	7,209.96	63.2689	7,209.96	63.1411	7,209.96	61.8767	7,209.96	66.0466	7,209.96	62.9756	7,209.96	67.6643	7,209.96	66.6348	7,209.96	67.2922	7,209.96	67.7987	7,209.96	58.8723	7,209.96	63.1566	7,209.96	57.4853
7,464.84	87.7828	7,464.84	86.9414	7,464.84	87.196	7,464.84	86.2658	7,464.84	86.1585	7,464.84	85.6474	7,464.84	85.9372	7,464.84	84.0731	7,464.84	84.1799	7,464.84	82.9057	7,464.84	82.6132	7,464.84	81.1611	7,464.84	80.854	7,464.84	79.0766	7,464.84	78.5776	7,464.84	76.5346	7,464.84	76.4764	7,464.84	73.9453	7,464.84	73.4902	7,464.84	70.711	7,464.84	69.9302	7,464.84	67.9371	7,464.84	68.3034	7,464.84	65.5827	7,464.84	65.3187	7,464.84	62.6553	7,464.84	62.4177	7,464.84	65.8856	7,464.84	64.0467	7,464.84	67.5946	7,464.84	66.4326	7,464.84	67.2576	7,464.84	67.469	7,464.84	56.08	7,464.84	63.4781	7,464.84	57.9106
7,727.05	87.5481	7,727.05	86.663	7,727.05	86.8637	7,727.05	86.0407	7,727.05	86.0923	7,727.05	85.5537	7,727.05	85.7133	7,727.05	83.3665	7,727.05	83.6761	7,727.05	82.1549	7,727.05	82.2096	7,727.05	80.7904	7,727.05	80.987	7,727.05	78.757	7,727.05	78.9154	7,727.05	76.0377	7,727.05	76.6044	7,727.05	72.7837	7,727.05	73.3501	7,727.05	69.6784	7,727.05	70.2807	7,727.05	66.4935	7,727.05	67.6145	7,727.05	64.8153	7,727.05	64.0821	7,727.05	61.6065	7,727.05	62.9318	7,727.05	64.8112	7,727.05	62.5232	7,727.05	66.7772	7,727.05	65.6715	7,727.05	66.6961	7,727.05	67.4262	7,727.05	54.1893	7,727.05	60.8109	7,727.05	57.5018
7,999.51	87.5823	7,999.51	86.6565	7,999.51	86.9612	7,999.51	86.1944	7,999.51	86.348	7,999.51	85.0876	7,999.51	85.7361	7,999.51	82.8614	7,999.51	83.372	7,999.51	82.1619	7,999.51	82.389	7,999.51	80.8198	7,999.51	81.1977	7,999.51	78.3782	7,999.51	78.6681	7,999.51	75.2453	7,999.51	76.2126	7,999.51	72.4998	7,999.51	72.0507	7,999.51	68.3698	7,999.51	68.9446	7,999.51	65.7157	7,999.51	66.5445	7,999.51	63.6555	7,999.51	62.6449	7,999.51	60.4699	7,999.51	61.6061	7,999.51	63.2896	7,999.51	63.39	7,999.51	65.7528	7,999.51	64.9346	7,999.51	66.2109	7,999.51	66.541	7,999.51	53.7865	7,999.51	59.9297	7,999.51	57.7104
8,282.23	87.6784	8,282.23	87.0993	8,282.23	87.2252	8,282.23	86.3401	8,282.23	86.6093	8,282.23	84.896	8,282.23	85.4884	8,282.23	82.8654	8,282.23	83.2923	8,282.23	82.3108	8,282.23	82.3007	8,282.23	80.3234	8,282.23	80.7262	8,282.23	77.8651	8,282.23	77.7473	8,282.23	74.0255	8,282.23	75.0911	8,282.23	70.9421	8,282.23	70.6397	8,282.23	67.5821	8,282.23	67.5727	8,282.23	63.7791	8,282.23	64.8843	8,282.23	62.4349	8,282.23	61.9855	8,282.23	58.7423	8,282.23	60.4691	8,282.23	62.8578	8,282.23	60.8145	8,282.23	64.3251	8,282.23	63.6099	8,282.23	65.7971	8,282.23	65.4459	8,282.23	54.632	8,282.23	58.7206	8,282.23	58.0685
8,573.73	87.8022	8,573.73	87.4876	8,573.73	87.6484	8,573.73	86.6438	8,573.73	86.8794	8,573.73	84.8018	8,573.73	85.3631	8,573.73	83.1515	8,573.73	83.4898	8,573.73	82.238	8,573.73	82.36	8,573.73	79.7061	8,573.73	80.3119	8,573.73	76.3932	8,573.73	76.8253	8,573.73	72.8565	8,573.73	73.9344	8,573.73	69.3799	8,573.73	69.3421	8,573.73	66.4072	8,573.73	67.5662	8,573.73	62.9539	8,573.73	64.5091	8,573.73	61.1	8,573.73	60.9828	8,573.73	59.5491	8,573.73	60.6765	8,573.73	61.5317	8,573.73	58.6611	8,573.73	61.409	8,573.73	61.9674	8,573.73	64.6594	8,573.73	64.7759	8,573.73	52.2402	8,573.73	57.3088	8,573.73	58.6008
8,876.95	87.7543	8,876.95	87.6174	8,876.95	88.0238	8,876.95	86.6081	8,876.95	86.9071	8,876.95	84.5213	8,876.95	85.2129	8,876.95	83.3345	8,876.95	83.6735	8,876.95	82.1236	8,876.95	82.3559	8,876.95	79.0943	8,876.95	79.9552	8,876.95	75.5984	8,876.95	76.2224	8,876.95	72.649	8,876.95	73.9063	8,876.95	69.483	8,876.95	69.805	8,876.95	65.89	8,876.95	67.7084	8,876.95	62.581	8,876.95	64.6036	8,876.95	59.8291	8,876.95	61.7561	8,876.95	58.7464	8,876.95	61.058	8,876.95	58.7244	8,876.95	58.0861	8,876.95	59.2508	8,876.95	61.446	8,876.95	63.513	8,876.95	64.1047	8,876.95	55.4606	8,876.95	56.7095	8,876.95	58.7601
9,188.96	87.7435	9,188.96	88.0999	9,188.96	88.3007	9,188.96	86.6259	9,188.96	87.0378	9,188.96	84.586	9,188.96	85.0114	9,188.96	83.4962	9,188.96	83.8701	9,188.96	81.7342	9,188.96	81.9697	9,188.96	78.6019	9,188.96	79.3096	9,188.96	75.7885	9,188.96	76.0184	9,188.96	72.5786	9,188.96	74.209	9,188.96	69.8961	9,188.96	69.6517	9,188.96	66.1324	9,188.96	67.3842	9,188.96	62.2676	9,188.96	64.2016	9,188.96	58.4666	9,188.96	61.0571	9,188.96	58.0957	9,188.96	60.7509	9,188.96	58.874	9,188.96	58.6607	9,188.96	58.9239	9,188.96	60.554	9,188.96	63.4608	9,188.96	63.0611	9,188.96	52.8637	9,188.96	56.9683	9,188.96	58.0515
9,514.16	87.9891	9,514.16	88.3575	9,514.16	88.4446	9,514.16	86.7687	9,514.16	86.8971	9,514.16	84.877	9,514.16	85.0463	9,514.16	83.5846	9,514.16	83.7078	9,514.16	81.4112	9,514.16	81.1895	9,514.16	78.5335	9,514.16	78.9295	9,514.16	76.3077	9,514.16	76.1883	9,514.16	72.5927	9,514.16	74.2159	9,514.16	69.6868	9,514.16	69.832	9,514.16	65.757	9,514.16	67.6013	9,514.16	62.8574	9,514.16	63.8229	9,514.16	58.3786	9,514.16	61.0847	9,514.16	60.3636	9,514.16	59.4485	9,514.16	58.2977	9,514.16	55.8673	9,514.16	56.7366	9,514.16	61.2951	9,514.16	63.208	9,514.16	62.4774	9,514.16	52.0612	9,514.16	57.968	9,514.16	56.9563
9,849.61	88.027	9,849.61	88.3542	9,849.61	88.4814	9,849.61	86.7414	9,849.61	86.9074	9,849.61	84.9452	9,849.61	85.1226	9,849.61	83.0391	9,849.61	83.2847	9,849.61	81.0027	9,849.61	80.7411	9,849.61	78.5473	9,849.61	79.2652	9,849.61	76.1514	9,849.61	75.894	9,849.61	72.178	9,849.61	73.2166	9,849.61	69.1014	9,849.61	68.3139	9,849.61	64.148	9,849.61	66.3428	9,849.61	62.0832	9,849.61	61.9244	9,849.61	59.6147	9,849.61	59.8987	9,849.61	56.7902	9,849.61	59.3319	9,849.61	56.7391	9,849.61	52.0233	9,849.61	56.7707	9,849.61	59.4698	9,849.61	61.3437	9,849.61	61.5476	9,849.61	47.7511	9,849.61	56.2456	9,849.61	58.2438
10,196.8	88.4075	10,196.8	88.2317	10,196.8	88.4757	10,196.8	86.7169	10,196.8	86.7862	10,196.8	84.6943	10,196.8	85.1029	10,196.8	82.1945	10,196.8	82.5215	10,196.8	80.676	10,196.8	80.7412	10,196.8	77.9216	10,196.8	79.0081	10,196.8	74.7986	10,196.8	74.9659	10,196.8	70.3614	10,196.8	71.7783	10,196.8	67.8613	10,196.8	67.1437	10,196.8	62.2054	10,196.8	64.4958	10,196.8	61.2425	10,196.8	60.254	10,196.8	58.9498	10,196.8	57.7371	10,196.8	50.974	10,196.8	57.2634	10,196.8	55.3643	10,196.8	47.4291	10,196.8	53.6637	10,196.8	57.6205	10,196.8	59.6146	10,196.8	60.2419	10,196.8	47.8913	10,196.8	56.8964	10,196.8	57.0237
10,555.7	88.5143	10,555.7	88.0093	10,555.7	88.39	10,555.7	86.7846	10,555.7	86.8415	10,555.7	84.3129	10,555.7	85.0327	10,555.7	81.486	10,555.7	81.8717	10,555.7	80.4593	10,555.7	80.6421	10,555.7	76.9099	10,555.7	77.9932	10,555.7	73.5109	10,555.7	73.1801	10,555.7	68.8388	10,555.7	70.2244	10,555.7	66.6126	10,555.7	66.1066	10,555.7	61.5699	10,555.7	64.0827	10,555.7	60.7809	10,555.7	60.1635	10,555.7	55.1108	10,555.7	57.1224	10,555.7	54.3967	10,555.7	56.731	10,555.7	52.8701	10,555.7	47.8773	10,555.7	49.2068	10,555.7	57.0393	10,555.7	59.3079	10,555.7	57.9278	10,555.7	48.8421	10,555.7	57.2085	10,555.7	56.1256
10,927.7	88.8271	10,927.7	87.9952	10,927.7	88.3828	10,927.7	86.9279	10,927.7	87.004	10,927.7	84.0421	10,927.7	84.989	10,927.7	81.1779	10,927.7	81.6772	10,927.7	80.1754	10,927.7	80.4215	10,927.7	76.2082	10,927.7	77.213	10,927.7	73.3233	10,927.7	72.8918	10,927.7	69.6884	10,927.7	70.824	10,927.7	67.6821	10,927.7	66.5905	10,927.7	63.1098	10,927.7	64.9124	10,927.7	63.0358	10,927.7	61.3866	10,927.7	56.6486	10,927.7	55.6685	10,927.7	54.0989	10,927.7	57.1462	10,927.7	50.3809	10,927.7	52.7994	10,927.7	52.9112	10,927.7	56.0069	10,927.7	59.9496	10,927.7	58.7447	10,927.7	46.5229	10,927.7	57.5304	10,927.7	55.5967
11,313	89.0892	11,313	87.992	11,313	88.5394	11,313	87.2221	11,313	87.3574	11,313	83.9756	11,313	85.1065	11,313	81.4511	11,313	82.2819	11,313	80.2432	11,313	80.7179	11,313	76.2248	11,313	77.2486	11,313	73.0459	11,313	73.4165	11,313	69.7256	11,313	70.6798	11,313	66.6316	11,313	66.0111	11,313	62.1392	11,313	63.2864	11,313	61.9559	11,313	58.429	11,313	55.4755	11,313	53.6096	11,313	54.1019	11,313	57.6685	11,313	49.4605	11,313	51.6612	11,313	55.0399	11,313	57.1046	11,313	58.314	11,313	57.7452	11,313	43.4815	11,313	56.4737	11,313	53.4483
11,712.9	89.3263	11,712.9	88.2664	11,712.9	88.6811	11,712.9	87.4937	11,712.9	87.4783	11,712.9	84.1393	11,712.9	85.0799	11,712.9	81.8445	11,712.9	82.566	11,712.9	79.8146	11,712.9	80.3155	11,712.9	76.0535	11,712.9	76.9198	11,712.9	72.4213	11,712.9	72.3413	11,712.9	69.7264	11,712.9	69.5627	11,712.9	66.0509	11,712.9	64.7773	11,712.9	62.3149	11,712.9	61.9752	11,712.9	61.887	11,712.9	58.9573	11,712.9	55.9164	11,712.9	55.5875	11,712.9	48.7968	11,712.9	54.7637	11,712.9	48.8821	11,712.9	49.6919	11,712.9	54.0694	11,712.9	55.8561	11,712.9	56.4634	11,712.9	55.5806	11,712.9	34.8772	11,712.9	55.7992	11,712.9	54.9897
12,126	89.6124	12,126	88.6075	12,126	89.1021	12,126	87.5969	12,126	87.6712	12,126	84.3446	12,126	85.1397	12,126	81.6358	12,126	82.2536	12,126	79.1317	12,126	79.2083	12,126	75.9306	12,126	76.448	12,126	71.5659	12,126	70.4824	12,126	67.9713	12,126	67.2875	12,126	64.4589	12,126	62.1404	12,126	60.6836	12,126	60.3798	12,126	60.407	12,126	58.1288	12,126	53.8003	12,126	55.0389	12,126	49.1479	12,126	54.126	12,126	50.526	12,126	47.5905	12,126	53.7707	12,126	55.1808	12,126	54.5312	12,126	50.1507	12,126	32.7488	12,126	54.8924	12,126	54.6418
12,553.7	89.8049	12,553.7	88.9044	12,553.7	89.3867	12,553.7	87.653	12,553.7	87.8074	12,553.7	84.0992	12,553.7	85.2888	12,553.7	80.6244	12,553.7	81.7803	12,553.7	77.7969	12,553.7	77.9767	12,553.7	74.6076	12,553.7	74.4261	12,553.7	69.3021	12,553.7	67.8272	12,553.7	65.1631	12,553.7	64.9941	12,553.7	57.8588	12,553.7	63.5436	12,553.7	54.6674	12,553.7	58.8254	12,553.7	56.473	12,553.7	56.8189	12,553.7	51.6283	12,553.7	55.576	12,553.7	42.61	12,553.7	58.3298	12,553.7	49.3421	12,553.7	45.6306	12,553.7	54.0535	12,553.7	54.0445	12,553.7	51.778	12,553.7	48.0991	12,553.7	43.8449	12,553.7	52.1915	12,553.7	54.5186
12,996.1	89.7419	12,996.1	88.9209	12,996.1	89.1904	12,996.1	87.485	12,996.1	87.4869	12,996.1	83.8292	12,996.1	84.7666	12,996.1	79.5933	12,996.1	80.7688	12,996.1	75.8959	12,996.1	76.3985	12,996.1	69.8452	12,996.1	72.3399	12,996.1	58.8569	12,996.1	66.994	12,996.1	61.8745	12,996.1	66.0491	12,996.1	58.7151	12,996.1	64.8873	12,996.1	55.6032	12,996.1	60.0056	12,996.1	46.3572	12,996.1	55.2225	12,996.1	38.9586	12,996.1	55.3027	12,996.1	35.3666	12,996.1	57.4218	12,996.1	45.7381	12,996.1	45.2781	12,996.1	49.7578	12,996.1	52.7739	12,996.1	51.4994	12,996.1	45.1626	12,996.1	41.3233	12,996.1	54.4347	12,996.1	55.5376
13,454.6	89.4433	13,454.6	88.6186	13,454.6	88.8816	13,454.6	87.1958	13,454.6	86.8164	13,454.6	83.4386	13,454.6	84.075	13,454.6	78.388	13,454.6	79.3824	13,454.6	74.7049	13,454.6	74.5795	13,454.6	65.5197	13,454.6	70.5641	13,454.6	66.1796	13,454.6	70.8601	13,454.6	66.42	13,454.6	67.944	13,454.6	62.8734	13,454.6	65.5116	13,454.6	61.126	13,454.6	58.585	13,454.6	55.2535	13,454.6	57.3038	13,454.6	46.1175	13,454.6	54.7277	13,454.6	49.7937	13,454.6	57.3995	13,454.6	48.3015	13,454.6	45.0576	13,454.6	46.4602	13,454.6	53.588	13,454.6	53.8614	13,454.6	51.8262	13,454.6	49.4211	13,454.6	51.7232	13,454.6	55.3755
13,929.2	88.8824	13,929.2	88.174	13,929.2	88.2014	13,929.2	86.7159	13,929.2	86.562	13,929.2	82.6642	13,929.2	83.7209	13,929.2	77.1122	13,929.2	78.5101	13,929.2	72.2727	13,929.2	73.5543	13,929.2	69.6008	13,929.2	69.5172	13,929.2	68.7867	13,929.2	71.0165	13,929.2	68.0828	13,929.2	67.2412	13,929.2	64.4577	13,929.2	64.8825	13,929.2	61.7476	13,929.2	56.0137	13,929.2	55.5711	13,929.2	58.2394	13,929.2	50.7677	13,929.2	56.1599	13,929.2	49.6512	13,929.2	55.4751	13,929.2	45.3643	13,929.2	44.7332	13,929.2	42.6003	13,929.2	52.6049	13,929.2	52.6508	13,929.2	48.7121	13,929.2	50.159	13,929.2	52.9295	13,929.2	55.0195
14,419.9	88.4618	14,419.9	87.8653	14,419.9	87.9079	14,419.9	86.5971	14,419.9	86.3628	14,419.9	82.5112	14,419.9	83.3147	14,419.9	77.3741	14,419.9	76.9131	14,419.9	70.9141	14,419.9	70.2555	14,419.9	69.4032	14,419.9	67.968	14,419.9	66.6542	14,419.9	68.7726	14,419.9	65.7659	14,419.9	65.0081	14,419.9	62.1568	14,419.9	63.9517	14,419.9	60.3181	14,419.9	57.0643	14,419.9	55.9764	14,419.9	54.6403	14,419.9	52.9781	14,419.9	53.2803	14,419.9	38.3406	14,419.9	47.0893	14,419.9	41.5883	14,419.9	46.6353	14,419.9	40.946	14,419.9	44.1232	14,419.9	44.4259	14,419.9	45.8295	14,419.9	49.7443	14,419.9	53.2843	14,419.9	53.9776
14,928.2	88.38	14,928.2	87.5935	14,928.2	87.9494	14,928.2	86.4676	14,928.2	86.2897	14,928.2	81.744	14,928.2	82.8236	14,928.2	75.5044	14,928.2	75.2039	14,928.2	68.2815	14,928.2	70.1566	14,928.2	70.2739	14,928.2	67.2476	14,928.2	69.1034	14,928.2	69.2758	14,928.2	67.1849	14,928.2	66.1957	14,928.2	64.862	14,928.2	63.1916	14,928.2	60.3183	14,928.2	58.6393	14,928.2	56.2533	14,928.2	58.9836	14,928.2	55.8128	14,928.2	54.7685	14,928.2	46.0735	14,928.2	48.1319	14,928.2	41.4579	14,928.2	46.8768	14,928.2	40.2527	14,928.2	45.3557	14,928.2	45.9167	14,928.2	43.9414	14,928.2	48.8651	14,928.2	54.0136	14,928.2	51.4997
15,455.6	88.22	15,455.6	87.5059	15,455.6	87.8087	15,455.6	86.2142	15,455.6	86.1753	15,455.6	81.1327	15,455.6	81.9959	15,455.6	74.0649	15,455.6	73.0018	15,455.6	70.1096	15,455.6	70.7593	15,455.6	73.196	15,455.6	71.0164	15,455.6	72.1295	15,455.6	72.1477	15,455.6	70.5308	15,455.6	67.3469	15,455.6	67.0069	15,455.6	64.8922	15,455.6	63.6695	15,455.6	61.3135	15,455.6	59.3815	15,455.6	61.0283	15,455.6	57.0289	15,455.6	58.0239	15,455.6	48.8463	15,455.6	52.0163	15,455.6	40.1277	15,455.6	35.1398	15,455.6	43.9038	15,455.6	40.3798	15,455.6	43.8867	15,455.6	39.1379	15,455.6	46.0967	15,455.6	53.4546	15,455.6	51.4872
16,000.5	88.111	16,000.5	87.2705	16,000.5	87.7389	16,000.5	86.1124	16,000.5	85.4133	16,000.5	80.8985	16,000.5	80.352	16,000.5	73.642	16,000.5	71.4535	16,000.5	71.438	16,000.5	71.4111	16,000.5	73.5476	16,000.5	69.9428	16,000.5	71.3281	16,000.5	70.0902	16,000.5	69.4429	16,000.5	66.5419	16,000.5	66.3307	16,000.5	63.8524	16,000.5	61.5689	16,000.5	61.3118	16,000.5	57.1564	16,000.5	59.5221	16,000.5	56.522	16,000.5	56.3209	16,000.5	47.0257	16,000.5	53.0061	16,000.5	46.7236	16,000.5	38.6866	16,000.5	41.0084	16,000.5	45.3739	16,000.5	43.4497	16,000.5	40.9362	16,000.5	43.5556	16,000.5	53.7383	16,000.5	53.1086
16,564.5	87.5341	16,564.5	86.7493	16,564.5	87.2478	16,564.5	85.6307	16,564.5	84.6747	16,564.5	79.7214	16,564.5	78.77	16,564.5	72.984	16,564.5	72.796	16,564.5	71.9643	16,564.5	70.9604	16,564.5	74.057	16,564.5	68.9794	16,564.5	71.5065	16,564.5	69.7725	16,564.5	69.6067	16,564.5	68.258	16,564.5	66.6309	16,564.5	64.9243	16,564.5	61.3643	16,564.5	61.9115	16,564.5	59.4721	16,564.5	60.2756	16,564.5	53.9806	16,564.5	53.1116	16,564.5	42.3084	16,564.5	51.9005	16,564.5	47.5708	16,564.5	40.733	16,564.5	39.6327	16,564.5	38.9741	16,564.5	48.3025	16,564.5	45.7687	16,564.5	42.2306	16,564.5	53.6389	16,564.5	49.9946
17,148.9	87.0385	17,148.9	86.1052	17,148.9	86.729	17,148.9	84.6642	17,148.9	83.8236	17,148.9	78.1204	17,148.9	77.8611	17,148.9	72.8483	17,148.9	72.9616	17,148.9	71.9024	17,148.9	69.7147	17,148.9	73.7008	17,148.9	69.86	17,148.9	72.1065	17,148.9	71.3326	17,148.9	69.7268	17,148.9	68.6061	17,148.9	66.0013	17,148.9	64.4574	17,148.9	60.8867	17,148.9	61.1296	17,148.9	58.0187	17,148.9	58.9501	17,148.9	54.5385	17,148.9	52.2751	17,148.9	43.2785	17,148.9	50.9836	17,148.9	45.1649	17,148.9	43.7004	17,148.9	42.0037	17,148.9	46.8263	17,148.9	50.3105	17,148.9	46.4183	17,148.9	45.9528	17,148.9	53.1861	17,148.9	47.7174
17,752.4	86.9052	17,752.4	85.7657	17,752.4	86.4808	17,752.4	83.5779	17,752.4	83.5152	17,752.4	76.3189	17,752.4	77.6988	17,752.4	72.1392	17,752.4	72.4301	17,752.4	71.344	17,752.4	69.9649	17,752.4	74.2206	17,752.4	72.5237	17,752.4	72.4444	17,752.4	71.9539	17,752.4	68.893	17,752.4	68.3871	17,752.4	64.6915	17,752.4	64.2969	17,752.4	59.8763	17,752.4	61.8862	17,752.4	57.4438	17,752.4	58.8654	17,752.4	52.5187	17,752.4	51.1557	17,752.4	39.8301	17,752.4	50.9839	17,752.4	30.5229	17,752.4	42.5028	17,752.4	39.8385	17,752.4	45.2474	17,752.4	51.1116	17,752.4	46.7757	17,752.4	48.1257	17,752.4	52.2785	17,752.4	44.5796
18,379.4	86.9438	18,379.4	85.5158	18,379.4	86.0849	18,379.4	82.5003	18,379.4	83.12	18,379.4	74.7602	18,379.4	77.5563	18,379.4	72.8668	18,379.4	71.7893	18,379.4	72.5707	18,379.4	72.4217	18,379.4	73.9406	18,379.4	73.9665	18,379.4	71.7987	18,379.4	72.1608	18,379.4	68.8106	18,379.4	68.4288	18,379.4	64.9804	18,379.4	63.7064	18,379.4	59.4441	18,379.4	60.4422	18,379.4	56.2339	18,379.4	56.5785	18,379.4	53.0151	18,379.4	45.0315	18,379.4	44.548	18,379.4	49.2959	18,379.4	39.072	18,379.4	37.1033	18,379.4	33.6166	18,379.4	48.8371	18,379.4	52.8341	18,379.4	46.987	18,379.4	47.6989	18,379.4	45.9152	18,379.4	47.6959
19,026.9	86.9893	19,026.9	85.2503	19,026.9	85.9218	19,026.9	81.6242	19,026.9	82.6187	19,026.9	73.0477	19,026.9	76.6489	19,026.9	72.8221	19,026.9	70.9421	19,026.9	73.1149	19,026.9	74.1296	19,026.9	73.8354	19,026.9	74.5168	19,026.9	71.3441	19,026.9	72.5655	19,026.9	68.7028	19,026.9	68.0916	19,026.9	64.9269	19,026.9	64.3475	19,026.9	59.8791	19,026.9	60.3149	19,026.9	56.2678	19,026.9	56.7315	19,026.9	48.1807	19,026.9	40.047	19,026.9	45.9171	19,026.9	49.2023	19,026.9	44.8788	19,026.9	42.8575	19,026.9	33.6785	19,026.9	48.7656	19,026.9	48.2042	19,026.9	48.7572	19,026.9	46.8414	19,026.9	40.3503	19,026.9	49.6339
19,697.8	86.5398	19,697.8	84.5542	19,697.8	85.4491	19,697.8	80.5056	19,697.8	82.0108	19,697.8	72.4204	19,697.8	75.3342	19,697.8	73.5324	19,697.8	73.3478	19,697.8	74.6462	19,697.8	75.5521	19,697.8	74.2641	19,697.8	75.1395	19,697.8	71.1918	19,697.8	72.4328	19,697.8	67.9408	19,697.8	68.1474	19,697.8	64.6664	19,697.8	64.6445	19,697.8	60.1169	19,697.8	61.107	19,697.8	57.3995	19,697.8	57.4829	19,697.8	48.2192	19,697.8	45.7266	19,697.8	48.3635	19,697.8	50.3477	19,697.8	43.7697	19,697.8	43.591	19,697.8	38.3967	19,697.8	40.3199	19,697.8	49.5877	19,697.8	51.484	19,697.8	45.3629	19,697.8	34.752	19,697.8	48.6473
19,999.5	86.3641	19,999.5	84.0353	19,999.5	85.1697	19,999.5	80.1269	19,999.5	81.5687	19,999.5	72.508	19,999.5	74.9891	19,999.5	74.3352	19,999.5	74.0161	19,999.5	74.928	19,999.5	75.6938	19,999.5	74.0208	19,999.5	74.8301	19,999.5	70.2202	19,999.5	71.0998	19,999.5	66.5237	19,999.5	68.3206	19,999.5	64.2519	19,999.5	64.9563	19,999.5	59.8302	19,999.5	62.1199	19,999.5	57.1351	19,999.5	57.1607	19,999.5	46.0009	19,999.5	46.757	19,999.5	50.7621	19,999.5	49.735	19,999.5	46.3975	19,999.5	33.8865	19,999.5	53.9492	19,999.5	39.5053	19,999.5	53.3339	19,999.5	53.6321	19,999.5	50.1494	19,999.5	45.8251	19,999.5	50.6665
