"SPL Vertical"																																																																							
"On-Axis"		"10°"		"-10°"		"20°"		"-20°"		"30°"		"-30°"		"40°"		"-40°"		"50°"		"-50°"		"60°"		"-60°"		"70°"		"-70°"		"80°"		"-80°"		"90°"		"-90°"		"100°"		"-100°"		"110°"		"-110°"		"120°"		"-120°"		"130°"		"-130°"		"140°"		"-140°"		"150°"		"-150°"		"160°"		"-160°"		"170°"		"-170°"		"180°"	
"Frequency [Hz]"	"Sound Pessure Level [dB]  / [2.83V 1m] "	"Frequency [Hz]"	"Sound Pessure Level [dB]  / [2.83V 1m] "	"Frequency [Hz]"	"Sound Pessure Level [dB]  / [2.83V 1m] "	"Frequency [Hz]"	"Sound Pessure Level [dB]  / [2.83V 1m] "	"Frequency [Hz]"	"Sound Pessure Level [dB]  / [2.83V 1m] "	"Frequency [Hz]"	"Sound Pessure Level [dB]  / [2.83V 1m] "	"Frequency [Hz]"	"Sound Pessure Level [dB]  / [2.83V 1m] "	"Frequency [Hz]"	"Sound Pessure Level [dB]  / [2.83V 1m] "	"Frequency [Hz]"	"Sound Pessure Level [dB]  / [2.83V 1m] "	"Frequency [Hz]"	"Sound Pessure Level [dB]  / [2.83V 1m] "	"Frequency [Hz]"	"Sound Pessure Level [dB]  / [2.83V 1m] "	"Frequency [Hz]"	"Sound Pessure Level [dB]  / [2.83V 1m] "	"Frequency [Hz]"	"Sound Pessure Level [dB]  / [2.83V 1m] "	"Frequency [Hz]"	"Sound Pessure Level [dB]  / [2.83V 1m] "	"Frequency [Hz]"	"Sound Pessure Level [dB]  / [2.83V 1m] "	"Frequency [Hz]"	"Sound Pessure Level [dB]  / [2.83V 1m] "	"Frequency [Hz]"	"Sound Pessure Level [dB]  / [2.83V 1m] "	"Frequency [Hz]"	"Sound Pessure Level [dB]  / [2.83V 1m] "	"Frequency [Hz]"	"Sound Pessure Level [dB]  / [2.83V 1m] "	"Frequency [Hz]"	"Sound Pessure Level [dB]  / [2.83V 1m] "	"Frequency [Hz]"	"Sound Pessure Level [dB]  / [2.83V 1m] "	"Frequency [Hz]"	"Sound Pessure Level [dB]  / [2.83V 1m] "	"Frequency [Hz]"	"Sound Pessure Level [dB]  / [2.83V 1m] "	"Frequency [Hz]"	"Sound Pessure Level [dB]  / [2.83V 1m] "	"Frequency [Hz]"	"Sound Pessure Level [dB]  / [2.83V 1m] "	"Frequency [Hz]"	"Sound Pessure Level [dB]  / [2.83V 1m] "	"Frequency [Hz]"	"Sound Pessure Level [dB]  / [2.83V 1m] "	"Frequency [Hz]"	"Sound Pessure Level [dB]  / [2.83V 1m] "	"Frequency [Hz]"	"Sound Pessure Level [dB]  / [2.83V 1m] "	"Frequency [Hz]"	"Sound Pessure Level [dB]  / [2.83V 1m] "	"Frequency [Hz]"	"Sound Pessure Level [dB]  / [2.83V 1m] "	"Frequency [Hz]"	"Sound Pessure Level [dB]  / [2.83V 1m] "	"Frequency [Hz]"	"Sound Pessure Level [dB]  / [2.83V 1m] "	"Frequency [Hz]"	"Sound Pessure Level [dB]  / [2.83V 1m] "	"Frequency [Hz]"	"Sound Pessure Level [dB]  / [2.83V 1m] "	"Frequency [Hz]"	"Sound Pessure Level [dB]  / [2.83V 1m] "
20.5078	50.7704	20.5078	50.8436	20.5078	50.7234	20.5078	50.9754	20.5078	50.6924	20.5078	51.2102	20.5078	50.6975	20.5078	51.5907	20.5078	50.7958	20.5078	52.1422	20.5078	51.0771	20.5078	52.8619	20.5078	51.6326	20.5078	53.7205	20.5078	52.5013	20.5078	54.6728	20.5078	53.635	20.5078	55.6706	20.5078	54.9228	20.5078	56.6712	20.5078	56.2446	20.5078	57.64	20.5078	57.5058	20.5078	58.5492	20.5078	58.6434	20.5078	59.3764	20.5078	59.6195	20.5078	60.1021	20.5078	60.4129	20.5078	60.7085	20.5078	61.0133	20.5078	61.179	20.5078	61.4178	20.5078	61.4983	20.5078	61.6286	20.5078	61.6522
21.9727	53.1893	21.9727	53.1085	21.9727	53.269	21.9727	53.05	21.9727	53.3386	21.9727	53.0486	21.9727	53.4064	21.9727	53.1451	21.9727	53.4999	21.9727	53.3773	21.9727	53.6667	21.9727	53.7684	21.9727	53.9672	21.9727	54.3186	21.9727	54.454	21.9727	55.0045	21.9727	55.1447	21.9727	55.7869	21.9727	56.0066	21.9727	56.6217	21.9727	56.9683	21.9727	57.4672	21.9727	57.9464	21.9727	58.2878	21.9727	58.8683	21.9727	59.054	21.9727	59.6802	21.9727	59.741	21.9727	60.3472	21.9727	60.3278	21.9727	60.8492	21.9727	60.7956	21.9727	61.1768	21.9727	61.1276	21.9727	61.3287	21.9727	61.3094
23.4375	53.9429	23.4375	53.8837	23.4375	54.0083	23.4375	53.8627	23.4375	54.0647	23.4375	53.9235	23.4375	54.1176	23.4375	54.1119	23.4375	54.1978	23.4375	54.4628	23.4375	54.3628	23.4375	54.9877	23.4375	54.6877	23.4375	55.6701	23.4375	55.2374	23.4375	56.472	23.4375	56.0294	23.4375	57.3465	23.4375	57.0159	23.4375	58.2484	23.4375	58.106	23.4375	59.1391	23.4375	59.2025	23.4375	59.9876	23.4375	60.2266	23.4375	60.7689	23.4375	61.1239	23.4375	61.4616	23.4375	61.8611	23.4375	62.0468	23.4375	62.4198	23.4375	62.5069	23.4375	62.7926	23.4375	62.8255	23.4375	62.9799	23.4375	62.9875
24.9023	55.3509	24.9023	55.3578	24.9023	55.3656	24.9023	55.4125	24.9023	55.3896	24.9023	55.5487	24.9023	55.4283	24.9023	55.7997	24.9023	55.5094	24.9023	56.1885	24.9023	55.683	24.9023	56.7204	24.9023	56.0126	24.9023	57.3804	24.9023	56.552	24.9023	58.1385	24.9023	57.3145	24.9023	58.9578	24.9023	58.2595	24.9023	59.8012	24.9023	59.3078	24.9023	60.6355	24.9023	60.3715	24.9023	61.4323	24.9023	61.3761	24.9023	62.1673	24.9023	62.2672	24.9023	62.8191	24.9023	63.009	24.9023	63.3677	24.9023	63.5809	24.9023	63.7947	24.9023	63.9728	24.9023	64.0829	24.9023	64.1832	24.9023	64.2167
26.3672	58.1856	26.3672	58.1609	26.3672	58.224	26.3672	58.1683	26.3672	58.2675	26.3672	58.2328	26.3672	58.3196	26.3672	58.3815	26.3672	58.3982	26.3672	58.6374	26.3672	58.5361	26.3672	59.0138	26.3672	58.7775	26.3672	59.5095	26.3672	59.166	26.3672	60.109	26.3672	59.7259	26.3672	60.7859	26.3672	60.4472	26.3672	61.5087	26.3672	61.2838	26.3672	62.2454	26.3672	62.1693	26.3672	62.9658	26.3672	63.035	26.3672	63.6426	26.3672	63.8236	26.3672	64.2514	26.3672	64.4925	26.3672	64.7698	26.3672	65.0141	26.3672	65.1774	26.3672	65.373	26.3672	65.4556	26.3672	65.5638	26.3672	65.5887
27.832	60.1513	27.832	60.135	27.832	60.1807	27.832	60.1462	27.832	60.217	27.832	60.2051	27.832	60.2647	27.832	60.3342	27.832	60.3407	27.832	60.554	27.832	60.4744	27.832	60.8779	27.832	60.7044	27.832	61.3086	27.832	61.0684	27.832	61.8366	27.832	61.5873	27.832	62.4421	27.832	62.2522	27.832	63.099	27.832	63.0231	27.832	63.7783	27.832	63.8407	27.832	64.4514	27.832	64.6424	27.832	65.0911	27.832	65.3741	27.832	65.6726	27.832	65.9948	27.832	66.1727	27.832	66.4773	27.832	66.5704	27.832	66.806	27.832	66.8469	27.832	66.9749	27.832	66.9859
29.2969	62.0513	29.2969	62.0207	29.2969	62.0953	29.2969	62.0158	29.2969	62.1475	29.2969	62.054	29.2969	62.2115	29.2969	62.155	29.2969	62.3009	29.2969	62.3374	29.2969	62.4395	29.2969	62.6147	29.2969	62.6587	29.2969	62.9916	29.2969	62.9895	29.2969	63.4621	29.2969	63.4514	29.2969	64.0108	29.2969	64.0408	29.2969	64.6147	29.2969	64.7277	29.2969	65.2475	29.2969	65.4632	29.2969	65.8815	29.2969	66.1918	29.2969	66.49	29.2969	66.8626	29.2969	67.0477	29.2969	67.435	29.2969	67.5312	29.2969	67.8807	29.2969	67.919	29.2969	68.1827	29.2969	68.1922	29.2969	68.3337	29.2969	68.3344
30.7617	64.0567	30.7617	64.0075	30.7617	64.1172	30.7617	63.9797	30.7617	64.1845	30.7617	63.9877	30.7617	64.2606	30.7617	64.0483	30.7617	64.3555	30.7617	64.178	30.7617	64.4865	30.7617	64.39	30.7617	64.6776	30.7617	64.6914	30.7617	64.9535	30.7617	65.0807	30.7617	65.3325	30.7617	65.5477	30.7617	65.8172	30.7617	66.0745	30.7617	66.3898	30.7617	66.6384	30.7617	67.0143	30.7617	67.2137	30.7617	67.6445	30.7617	67.7745	30.7617	68.2342	30.7617	68.2953	30.7617	68.7434	30.7617	68.7523	30.7617	69.1423	30.7617	69.1231	30.7617	69.4114	30.7617	69.3884	30.7617	69.5415	30.7617	69.5318
32.2266	65.5883	32.2266	65.5468	32.2266	65.6434	32.2266	65.5276	32.2266	65.7083	32.2266	65.5427	32.2266	65.7851	32.2266	65.6063	32.2266	65.8822	32.2266	65.7325	32.2266	66.0144	32.2266	65.9326	32.2266	66.2019	32.2266	66.213	32.2266	66.4655	32.2266	66.5732	32.2266	66.8208	32.2266	67.005	32.2266	67.2707	32.2266	67.4936	32.2266	67.8006	32.2266	68.0189	32.2266	68.38	32.2266	68.5578	32.2266	68.9679	32.2266	69.0859	32.2266	69.5215	32.2266	69.5787	32.2266	70.0027	32.2266	70.0127	32.2266	70.3818	32.2266	70.3659	32.2266	70.6389	32.2266	70.6188	32.2266	70.7639	32.2266	70.7553
33.6914	67.321	33.6914	67.2749	33.6914	67.3812	33.6914	67.2501	33.6914	67.452	33.6914	67.257	33.6914	67.5347	33.6914	67.3077	33.6914	67.6358	33.6914	67.4142	33.6914	67.7671	33.6914	67.5868	33.6914	67.9444	33.6914	67.832	33.6914	68.1845	33.6914	68.1503	33.6914	68.501	33.6914	68.536	33.6914	68.8976	33.6914	68.9771	33.6914	69.3648	33.6914	69.4563	33.6914	69.8787	33.6914	69.9528	33.6914	70.4048	33.6914	70.4437	33.6914	70.905	33.6914	70.9055	33.6914	71.3432	33.6914	71.315	33.6914	71.6902	33.6914	71.6506	33.6914	71.9257	33.6914	71.8928	33.6914	72.0383	33.6914	72.0257
35.1562	68.9307	35.1562	68.8844	35.1562	68.9921	35.1562	68.8593	35.1562	69.0658	35.1562	68.8638	35.1562	69.1529	35.1562	68.9077	35.1562	69.2586	35.1562	69.0014	35.1562	69.3922	35.1562	69.1537	35.1562	69.5663	35.1562	69.3706	35.1562	69.7942	35.1562	69.6536	35.1562	70.0867	35.1562	69.9989	35.1562	70.4471	35.1562	70.3971	35.1562	70.868	35.1562	70.8337	35.1562	71.3299	35.1562	71.2903	35.1562	71.8035	35.1562	71.7461	35.1562	72.255	35.1562	72.1787	35.1562	72.6515	35.1562	72.5657	35.1562	72.9652	35.1562	72.886	35.1562	73.1762	35.1562	73.1202	35.1562	73.273	35.1562	73.2528
36.6211	70.3899	36.6211	70.3392	36.6211	70.4556	36.6211	70.3089	36.6211	70.5336	36.6211	70.3062	36.6211	70.6242	36.6211	70.3399	36.6211	70.7311	36.6211	70.4187	36.6211	70.8616	36.6211	70.5506	36.6211	71.0254	36.6211	70.7412	36.6211	71.2336	36.6211	70.9924	36.6211	71.4955	36.6211	71.3018	36.6211	71.8153	36.6211	71.6617	36.6211	72.188	36.6211	72.0598	36.6211	72.5987	36.6211	72.4799	36.6211	73.0227	36.6211	72.9027	36.6211	73.4299	36.6211	73.307	36.6211	73.7898	36.6211	73.6715	36.6211	74.0754	36.6211	73.9752	36.6211	74.2669	36.6211	74.1993	36.6211	74.3524	36.6211	74.3285
38.0859	71.7313	38.0859	71.6852	38.0859	71.7943	38.0859	71.6603	38.0859	71.8718	38.0859	71.6628	38.0859	71.9641	38.0859	71.6997	38.0859	72.0741	38.0859	71.7783	38.0859	72.2075	38.0859	71.9051	38.0859	72.3719	38.0859	72.0848	38.0859	72.576	38.0859	72.319	38.0859	72.827	38.0859	72.6057	38.0859	73.1278	38.0859	72.9385	38.0859	73.4742	38.0859	73.307	38.0859	73.8531	38.0859	73.6969	38.0859	74.243	38.0859	74.0906	38.0859	74.6175	38.0859	74.4689	38.0859	74.9484	38.0859	74.8114	38.0859	75.211	38.0859	75.0983	38.0859	75.3861	38.0859	75.3115	38.0859	75.4623	38.0859	75.4362
39.5508	73.0005	39.5508	72.9542	39.5508	73.0647	39.5508	72.9292	39.5508	73.1446	39.5508	72.9305	39.5508	73.2405	39.5508	72.964	39.5508	73.3543	39.5508	73.0355	39.5508	73.4905	39.5508	73.1505	39.5508	73.6548	39.5508	73.313	39.5508	73.8535	39.5508	73.5249	39.5508	74.0919	39.5508	73.7847	39.5508	74.3719	39.5508	74.0874	39.5508	74.6893	39.5508	74.4244	39.5508	75.033	39.5508	74.7832	39.5508	75.3847	39.5508	75.1483	39.5508	75.7211	39.5508	75.5018	39.5508	76.0172	39.5508	75.8248	39.5508	76.2503	39.5508	76.0983	39.5508	76.4028	39.5508	76.3047	39.5508	76.4637	39.5508	76.4298
41.0156	74.2172	41.0156	74.1758	41.0156	74.2774	41.0156	74.1559	41.0156	74.3549	41.0156	74.1614	41.0156	74.4496	41.0156	74.1968	41.0156	74.5631	41.0156	74.2665	41.0156	74.6984	41.0156	74.3749	41.0156	74.8595	41.0156	74.5252	41.0156	75.0509	41.0156	74.7189	41.0156	75.276	41.0156	74.9551	41.0156	75.5358	41.0156	75.2298	41.0156	75.8267	41.0156	75.536	41.0156	76.139	41.0156	75.8631	41.0156	76.4572	41.0156	76.1975	41.0156	76.7612	41.0156	76.5231	41.0156	77.0287	41.0156	76.8225	41.0156	77.2388	41.0156	77.0776	41.0156	77.3751	41.0156	77.2719	41.0156	77.4271	41.0156	77.3915
42.4805	74.9413	42.4805	74.8785	42.4805	75.0211	42.4805	74.8361	42.4805	75.1154	42.4805	74.8179	42.4805	75.2228	42.4805	74.8285	42.4805	75.3434	42.4805	74.8724	42.4805	75.478	42.4805	74.9538	42.4805	75.6292	42.4805	75.0758	42.4805	75.8002	42.4805	75.2403	42.4805	75.994	42.4805	75.4469	42.4805	76.2125	42.4805	75.6924	42.4805	76.4546	42.4805	75.9707	42.4805	76.7143	42.4805	76.2723	42.4805	76.9802	42.4805	76.5844	42.4805	77.2357	42.4805	76.8919	42.4805	77.4614	42.4805	77.1776	42.4805	77.6378	42.4805	77.4244	42.4805	77.7489	42.4805	77.6158	42.4805	77.7838	42.4805	77.7385
43.9453	75.3212	43.9453	75.2738	43.9453	75.3868	43.9453	75.2469	43.9453	75.4687	43.9453	75.2438	43.9453	75.5659	43.9453	75.2676	43.9453	75.6784	43.9453	75.3217	43.9453	75.8069	43.9453	75.409	43.9453	75.9533	43.9453	75.5319	43.9453	76.1199	43.9453	75.6915	43.9453	76.3088	43.9453	75.8872	43.9453	76.5207	43.9453	76.1165	43.9453	76.7537	43.9453	76.3739	43.9453	77.0021	43.9453	76.6514	43.9453	77.2551	43.9453	76.9378	43.9453	77.4979	43.9453	77.2195	43.9453	77.7127	43.9453	77.4811	43.9453	77.8819	43.9453	77.7064	43.9453	77.9902	43.9453	77.8803	43.9453	78.0276	43.9453	77.9901
45.4102	75.8483	45.4102	75.8021	45.4102	75.9119	45.4102	75.7754	45.4102	75.9913	45.4102	75.7705	45.4102	76.0856	45.4102	75.7902	45.4102	76.1946	45.4102	75.8374	45.4102	76.3189	45.4102	75.9145	45.4102	76.4595	45.4102	76.0238	45.4102	76.6178	45.4102	76.1664	45.4102	76.7953	45.4102	76.3423	45.4102	76.9921	45.4102	76.5494	45.4102	77.2061	45.4102	76.7835	45.4102	77.4322	45.4102	77.0375	45.4102	77.6608	45.4102	77.3017	45.4102	77.8789	45.4102	77.5635	45.4102	78.0705	45.4102	77.8087	45.4102	78.2197	45.4102	78.0221	45.4102	78.3125	45.4102	78.1891	45.4102	78.3397	45.4102	78.2977
46.875	76.2087	46.875	76.1594	46.875	76.2764	46.875	76.1301	46.875	76.3607	46.875	76.1232	46.875	76.4606	46.875	76.1408	46.875	76.5755	46.875	76.1853	46.875	76.705	46.875	76.2589	46.875	76.8494	46.875	76.3632	46.875	77.0092	46.875	76.4992	46.875	77.1845	46.875	76.6668	46.875	77.3748	46.875	76.8639	46.875	77.5779	46.875	77.0868	46.875	77.7888	46.875	77.3289	46.875	77.9994	46.875	77.5812	46.875	78.1979	46.875	77.8323	46.875	78.3704	46.875	78.0688	46.875	78.5024	46.875	78.2761	46.875	78.5812	46.875	78.4406	46.875	78.5983	46.875	78.5506
48.3398	76.5314	48.3398	76.4823	48.3398	76.5996	48.3398	76.4539	48.3398	76.6854	48.3398	76.448	48.3398	76.7875	48.3398	76.4661	48.3398	76.9047	48.3398	76.5101	48.3398	77.0361	48.3398	76.5813	48.3398	77.1811	48.3398	76.6808	48.3398	77.339	48.3398	76.8093	48.3398	77.5092	48.3398	76.9664	48.3398	77.6907	48.3398	77.1503	48.3398	77.8809	48.3398	77.3576	48.3398	78.0755	48.3398	77.5829	48.3398	78.2672	48.3398	77.8181	48.3398	78.446	48.3398	78.0531	48.3398	78.5995	48.3398	78.2755	48.3398	78.7149	48.3398	78.4722	48.3398	78.7808	48.3398	78.6302	48.3398	78.7896	48.3398	78.7385
51.2695	77.0291	51.2695	76.9774	51.2695	77.1005	51.2695	76.9467	51.2695	77.19	51.2695	76.9379	51.2695	77.2962	51.2695	76.952	51.2695	77.4171	51.2695	76.9898	51.2695	77.5508	51.2695	77.0519	51.2695	77.6953	51.2695	77.1387	51.2695	77.8484	51.2695	77.2503	51.2695	78.0083	51.2695	77.3863	51.2695	78.1727	51.2695	77.5454	51.2695	78.339	51.2695	77.725	51.2695	78.5034	51.2695	77.921	51.2695	78.6603	51.2695	78.1273	51.2695	78.8022	51.2695	78.3354	51.2695	78.9196	51.2695	78.5354	51.2695	79.0028	51.2695	78.7157	51.2695	79.0427	51.2695	78.865	51.2695	79.0334	51.2695	78.9732
52.7344	77.2392	52.7344	77.1896	52.7344	77.309	52.7344	77.1613	52.7344	77.3977	52.7344	77.1547	52.7344	77.5037	52.7344	77.1704	52.7344	77.625	52.7344	77.2087	52.7344	77.7593	52.7344	77.2698	52.7344	77.9041	52.7344	77.3536	52.7344	78.0567	52.7344	77.46	52.7344	78.2145	52.7344	77.5883	52.7344	78.3747	52.7344	77.7375	52.7344	78.5341	52.7344	77.9053	52.7344	78.689	52.7344	78.0882	52.7344	78.834	52.7344	78.2807	52.7344	78.9624	52.7344	78.4757	52.7344	79.0661	52.7344	78.6641	52.7344	79.1364	52.7344	78.8356	52.7344	79.1659	52.7344	78.9795	52.7344	79.1496	52.7344	79.0864
54.1992	77.4731	54.1992	77.4229	54.1992	77.5435	54.1992	77.3935	54.1992	77.6328	54.1992	77.3855	54.1992	77.7392	54.1992	77.3988	54.1992	77.8605	54.1992	77.4335	54.1992	77.9942	54.1992	77.4893	54.1992	78.1371	54.1992	77.5659	54.1992	78.2862	54.1992	77.663	54.1992	78.4381	54.1992	77.7799	54.1992	78.5896	54.1992	77.9156	54.1992	78.7373	54.1992	78.0683	54.1992	78.8774	54.1992	78.2351	54.1992	79.0052	54.1992	78.4117	54.1992	79.115	54.1992	78.5918	54.1992	79.2002	54.1992	78.7675	54.1992	79.2536	54.1992	78.9297	54.1992	79.2693	54.1992	79.0685	54.1992	79.2433	54.1992	79.1753
55.6641	77.6265	55.6641	77.5764	55.6641	77.6961	55.6641	77.5465	55.6641	77.7842	55.6641	77.5369	55.6641	77.889	55.6641	77.5475	55.6641	78.0083	55.6641	77.5778	55.6641	78.139	55.6641	77.6276	55.6641	78.2779	55.6641	77.6963	55.6641	78.4215	55.6641	77.7834	55.6641	78.5661	55.6641	77.8886	55.6641	78.7081	55.6641	78.0109	55.6641	78.8441	55.6641	78.1491	55.6641	78.9706	55.6641	78.3009	55.6641	79.0832	55.6641	78.4628	55.6641	79.1774	55.6641	78.6293	55.6641	79.2473	55.6641	78.7935	55.6641	79.2871	55.6641	78.9471	55.6641	79.2917	55.6641	79.081	55.6641	79.2583	55.6641	79.1869
58.5938	78.0856	58.5938	78.0315	58.5938	78.1576	58.5938	77.9959	58.5938	78.2463	58.5938	77.9788	58.5938	78.3497	58.5938	77.98	58.5938	78.4653	58.5938	77.9989	58.5938	78.5897	58.5938	78.035	58.5938	78.7193	58.5938	78.0876	58.5938	78.8502	58.5938	78.1562	58.5938	78.9782	58.5938	78.2404	58.5938	79.0998	58.5938	78.3396	58.5938	79.2115	58.5938	78.4531	58.5938	79.3102	58.5938	78.5794	58.5938	79.393	58.5938	78.716	58.5938	79.4566	58.5938	78.8591	58.5938	79.4972	58.5938	79.0033	58.5938	79.5111	58.5938	79.1416	58.5938	79.4953	58.5938	79.2665	58.5938	79.4482	58.5938	79.3707
60.0586	78.15	60.0586	78.0931	60.0586	78.2251	60.0586	78.055	60.0586	78.3171	60.0586	78.0355	60.0586	78.4238	60.0586	78.0343	60.0586	78.5422	60.0586	78.0504	60.0586	78.6688	60.0586	78.083	60.0586	78.7991	60.0586	78.1313	60.0586	78.9287	60.0586	78.1945	60.0586	79.0531	60.0586	78.2719	60.0586	79.1681	60.0586	78.3631	60.0586	79.2702	60.0586	78.4673	60.0586	79.3565	60.0586	78.5834	60.0586	79.4248	60.0586	78.7095	60.0586	79.4726	60.0586	78.8425	60.0586	79.4976	60.0586	78.9777	60.0586	79.4976	60.0586	79.1092	60.0586	79.4704	60.0586	79.2303	60.0586	79.4155	60.0586	79.3342
62.9883	78.5206	62.9883	78.4661	62.9883	78.5926	62.9883	78.4295	62.9883	78.6811	62.9883	78.4106	62.9883	78.7838	62.9883	78.4085	62.9883	78.898	62.9883	78.4221	62.9883	79.0197	62.9883	78.4502	62.9883	79.1445	62.9883	78.4915	62.9883	79.2675	62.9883	78.5453	62.9883	79.3839	62.9883	78.6107	62.9883	79.4891	62.9883	78.6872	62.9883	79.5793	62.9883	78.7746	62.9883	79.6516	62.9883	78.8723	62.9883	79.7038	62.9883	78.9793	62.9883	79.7345	62.9883	79.0936	62.9883	79.7426	62.9883	79.212	62.9883	79.7272	62.9883	79.33	62.9883	79.688	62.9883	79.442	62.9883	79.6256	62.9883	79.5423
64.4531	78.6413	64.4531	78.5871	64.4531	78.7133	64.4531	78.5509	64.4531	78.8019	64.4531	78.5323	64.4531	78.905	64.4531	78.5304	64.4531	79.0197	64.4531	78.5439	64.4531	79.1419	64.4531	78.5714	64.4531	79.2671	64.4531	78.6115	64.4531	79.3901	64.4531	78.6631	64.4531	79.5057	64.4531	78.7253	64.4531	79.6092	64.4531	78.7977	64.4531	79.6964	64.4531	78.8799	64.4531	79.7642	64.4531	78.9716	64.4531	79.8106	64.4531	79.0721	64.4531	79.8344	64.4531	79.18	64.4531	79.8352	64.4531	79.2927	64.4531	79.8128	64.4531	79.4062	64.4531	79.7675	64.4531	79.5157	64.4531	79.7009	64.4531	79.6156
67.3828	78.9088	67.3828	78.8534	67.3828	78.9822	67.3828	78.8162	67.3828	79.0723	67.3828	78.7965	67.3828	79.1769	67.3828	78.7933	67.3828	79.2926	67.3828	78.8048	67.3828	79.4153	67.3828	78.8293	67.3828	79.5398	67.3828	78.8651	67.3828	79.6606	67.3828	78.9107	67.3828	79.7722	67.3828	78.9651	67.3828	79.8692	67.3828	79.0276	67.3828	79.9474	67.3828	79.0981	67.3828	80.0034	67.3828	79.1766	67.3828	80.0356	67.3828	79.2632	67.3828	80.0434	67.3828	79.3573	67.3828	80.0274	67.3828	79.4576	67.3828	79.9891	67.3828	79.5616	67.3828	79.9306	67.3828	79.6655	67.3828	79.8546	67.3828	79.7648
68.8477	79.081	68.8477	79.0239	68.8477	79.1558	68.8477	78.9847	68.8477	79.247	68.8477	78.963	68.8477	79.3523	68.8477	78.9573	68.8477	79.4683	68.8477	78.9662	68.8477	79.5906	68.8477	78.9877	68.8477	79.714	68.8477	79.02	68.8477	79.8328	68.8477	79.0616	68.8477	79.9413	68.8477	79.1114	68.8477	80.0341	68.8477	79.1687	68.8477	80.1067	68.8477	79.2334	68.8477	80.1561	68.8477	79.3058	68.8477	80.1807	68.8477	79.3862	68.8477	80.1802	68.8477	79.4744	68.8477	80.156	68.8477	79.5697	68.8477	80.1099	68.8477	79.6699	68.8477	80.0447	68.8477	79.7719	68.8477	79.9639	68.8477	79.8715
71.7773	79.4275	71.7773	79.3688	71.7773	79.504	71.7773	79.3281	71.7773	79.5971	71.7773	79.3049	71.7773	79.7043	71.7773	79.2977	71.7773	79.8221	71.7773	79.3047	71.7773	79.9458	71.7773	79.3238	71.7773	80.0702	71.7773	79.353	71.7773	80.1892	71.7773	79.3904	71.7773	80.2965	71.7773	79.4347	71.7773	80.3865	71.7773	79.4852	71.7773	80.4542	71.7773	79.5417	71.7773	80.4961	71.7773	79.6048	71.7773	80.5106	71.7773	79.6751	71.7773	80.4979	71.7773	79.7535	71.7773	80.46	71.7773	79.84	71.7773	80.4001	71.7773	79.934	71.7773	80.3226	71.7773	80.0331	71.7773	80.2322	71.7773	80.134
74.707	79.8749	74.707	79.8155	74.707	79.9503	74.707	79.7722	74.707	80.0404	74.707	79.7444	74.707	80.1427	74.707	79.7307	74.707	80.2539	74.707	79.7292	74.707	80.3692	74.707	79.7378	74.707	80.4834	74.707	79.7544	74.707	80.5904	74.707	79.777	74.707	80.6839	74.707	79.8044	74.707	80.7581	74.707	79.836	74.707	80.8079	74.707	79.872	74.707	80.8299	74.707	79.9135	74.707	80.8231	74.707	79.962	74.707	80.7882	74.707	80.0195	74.707	80.7287	74.707	80.0875	74.707	80.6494	74.707	80.1667	74.707	80.5563	74.707	80.2564	74.707	80.4558	74.707	80.3541
77.6367	80.2719	77.6367	80.2102	77.6367	80.3486	77.6367	80.1638	77.6367	80.4389	77.6367	80.1321	77.6367	80.5403	77.6367	80.1137	77.6367	80.6491	77.6367	80.1066	77.6367	80.7608	77.6367	80.1086	77.6367	80.8697	77.6367	80.1175	77.6367	80.9696	77.6367	80.1312	77.6367	81.0542	77.6367	80.1484	77.6367	81.1174	77.6367	80.1685	77.6367	81.1542	77.6367	80.1917	77.6367	81.1614	77.6367	80.2194	77.6367	81.1382	77.6367	80.2536	77.6367	81.0864	77.6367	80.2971	77.6367	81.0103	77.6367	80.3523	77.6367	80.9161	77.6367	80.4211	77.6367	80.8113	77.6367	80.5038	77.6367	80.7034	77.6367	80.5991
79.1016	80.4061	79.1016	80.3432	79.1016	80.4842	79.1016	80.2957	79.1016	80.5761	79.1016	80.2632	79.1016	80.679	79.1016	80.2441	79.1016	80.7894	79.1016	80.2365	79.1016	80.9024	79.1016	80.2381	79.1016	81.0124	79.1016	80.2465	79.1016	81.113	79.1016	80.2596	79.1016	81.1977	79.1016	80.2758	79.1016	81.2602	79.1016	80.2946	79.1016	81.2954	79.1016	80.316	79.1016	81.3	79.1016	80.3415	79.1016	81.2732	79.1016	80.3732	79.1016	81.217	79.1016	80.414	79.1016	81.1361	79.1016	80.4668	79.1016	81.0372	79.1016	80.5336	79.1016	80.9283	79.1016	80.6155	79.1016	80.8172	79.1016	80.7111
82.0312	80.6661	82.0312	80.6035	82.0312	80.7442	82.0312	80.5565	82.0312	80.8361	82.0312	80.5246	82.0312	80.9394	82.0312	80.5062	82.0312	81.0502	82.0312	80.4991	82.0312	81.1636	82.0312	80.5008	82.0312	81.2738	82.0312	80.5087	82.0312	81.3743	82.0312	80.5205	82.0312	81.4582	82.0312	80.5344	82.0312	81.5191	82.0312	80.5495	82.0312	81.5515	82.0312	80.5661	82.0312	81.5519	82.0312	80.5856	82.0312	81.5197	82.0312	80.6105	82.0312	81.4569	82.0312	80.6441	82.0312	81.3687	82.0312	80.6901	82.0312	81.2627	82.0312	80.7514	82.0312	81.1476	82.0312	80.8297	82.0312	81.0322	82.0312	80.9244
84.9609	80.9626	84.9609	80.8986	84.9609	81.0422	84.9609	80.8505	84.9609	81.1359	84.9609	80.8177	84.9609	81.241	84.9609	80.7985	84.9609	81.3534	84.9609	80.7905	84.9609	81.4682	84.9609	80.7911	84.9609	81.5791	84.9609	80.7973	84.9609	81.6794	84.9609	80.8068	84.9609	81.7618	84.9609	80.8176	84.9609	81.8198	84.9609	80.8288	84.9609	81.8479	84.9609	80.8406	84.9609	81.8426	84.9609	80.8546	84.9609	81.8033	84.9609	80.8735	84.9609	81.7326	84.9609	80.9012	84.9609	81.6362	84.9609	80.9418	84.9609	81.5223	84.9609	80.9989	84.9609	81.4004	84.9609	81.0749	84.9609	81.2801	84.9609	81.1696
87.8906	81.2741	87.8906	81.2071	87.8906	81.3547	87.8906	81.1542	87.8906	81.4475	87.8906	81.1149	87.8906	81.5497	87.8906	81.088	87.8906	81.658	87.8906	81.0714	87.8906	81.7676	87.8906	81.0627	87.8906	81.8729	87.8906	81.0593	87.8906	81.9677	87.8906	81.0589	87.8906	82.0448	87.8906	81.0597	87.8906	82.0976	87.8906	81.0608	87.8906	82.1202	87.8906	81.0626	87.8906	82.1084	87.8906	81.0668	87.8906	82.0611	87.8906	81.0766	87.8906	81.9804	87.8906	81.0964	87.8906	81.8722	87.8906	81.1311	87.8906	81.7454	87.8906	81.1851	87.8906	81.6108	87.8906	81.2616	87.8906	81.4793	87.8906	81.3607
90.8203	81.7005	90.8203	81.6307	90.8203	81.7814	90.8203	81.5726	90.8203	81.8717	90.8203	81.5262	90.8203	81.9691	90.8203	81.4905	90.8203	82.0701	90.8203	81.4638	90.8203	82.1706	90.8203	81.444	90.8203	82.2653	90.8203	81.4286	90.8203	82.3482	90.8203	81.4154	90.8203	82.4126	90.8203	81.4026	90.8203	82.4518	90.8203	81.3893	90.8203	82.4599	90.8203	81.3761	90.8203	82.4327	90.8203	81.3649	90.8203	82.3691	90.8203	81.3592	90.8203	82.2716	90.8203	81.3643	90.8203	82.147	90.8203	81.3858	90.8203	82.0052	90.8203	81.4296	90.8203	81.8584	90.8203	81.4995	90.8203	81.7188	90.8203	81.5969
95.2148	82.0602	95.2148	81.9977	95.2148	82.1322	95.2148	81.9446	95.2148	82.2128	95.2148	81.9003	95.2148	82.3001	95.2148	81.863	95.2148	82.3911	95.2148	81.8307	95.2148	82.4821	95.2148	81.8008	95.2148	82.5678	95.2148	81.7708	95.2148	82.6421	95.2148	81.7388	95.2148	82.698	95.2148	81.7034	95.2148	82.7282	95.2148	81.6646	95.2148	82.7262	95.2148	81.624	95.2148	82.687	95.2148	81.5851	95.2148	82.609	95.2148	81.5531	95.2148	82.4948	95.2148	81.5349	95.2148	82.3514	95.2148	81.5382	95.2148	82.19	95.2148	81.5702	95.2148	82.0245	95.2148	81.636	95.2148	81.8693	95.2148	81.7369
98.1445	82.1948	98.1445	82.1239	98.1445	82.2772	98.1445	82.0656	98.1445	82.3689	98.1445	82.0198	98.1445	82.4673	98.1445	81.9857	98.1445	82.5688	98.1445	81.9615	98.1445	82.6688	98.1445	81.9444	98.1445	82.7623	98.1445	81.9315	98.1445	82.8431	98.1445	81.92	98.1445	82.9045	98.1445	81.9072	98.1445	82.9395	98.1445	81.8918	98.1445	82.942	98.1445	81.8738	98.1445	82.9077	98.1445	81.8552	98.1445	82.8354	98.1445	81.8397	98.1445	82.7281	98.1445	81.833	98.1445	82.5933	98.1445	81.8422	98.1445	82.4424	98.1445	81.8741	98.1445	82.2889	98.1445	81.9346	98.1445	82.1464	98.1445	82.026
101.074	82.461	101.074	82.3943	101.074	82.5363	101.074	82.3371	101.074	82.6185	101.074	82.2894	101.074	82.7056	101.074	82.2505	101.074	82.7947	101.074	82.2189	101.074	82.8821	101.074	82.1925	101.074	82.9632	101.074	82.1688	101.074	83.0326	101.074	82.1452	101.074	83.0839	101.074	82.12	101.074	83.1101	101.074	82.092	101.074	83.1051	101.074	82.0616	101.074	83.0644	101.074	82.031	101.074	82.9864	101.074	82.0045	101.074	82.8741	101.074	81.9879	101.074	82.7346	101.074	81.9885	101.074	82.5797	101.074	82.0138	101.074	82.4231	101.074	82.0696	101.074	82.2789	101.074	82.1587
105.469	82.8182	105.469	82.749	105.469	82.8941	105.469	82.6875	105.469	82.9752	105.469	82.6336	105.469	83.0591	105.469	82.5865	105.469	83.1428	105.469	82.5446	105.469	83.2226	105.469	82.5055	105.469	83.2938	105.469	82.4668	105.469	83.3507	105.469	82.4259	105.469	83.3869	105.469	82.3812	105.469	83.3957	105.469	82.3319	105.469	83.371	105.469	82.2791	105.469	83.3086	105.469	82.2256	105.469	83.2077	105.469	82.1769	105.469	83.0719	105.469	82.14	105.469	82.9095	105.469	82.1236	105.469	82.7335	105.469	82.1365	105.469	82.5591	105.469	82.1859	105.469	82.4021	105.469	82.2751
108.398	83.1491	108.398	83.0806	108.398	83.2246	108.398	83.0203	108.398	83.3054	108.398	82.9686	108.398	83.3892	108.398	82.9247	108.398	83.4729	108.398	82.8872	108.398	83.5531	108.398	82.8538	108.398	83.6252	108.398	82.8217	108.398	83.6838	108.398	82.7881	108.398	83.7227	108.398	82.751	108.398	83.735	108.398	82.7092	108.398	83.7147	108.398	82.6633	108.398	83.6574	108.398	82.6158	108.398	83.5621	108.398	82.5715	108.398	83.4324	108.398	82.5375	108.398	83.2764	108.398	82.5221	108.398	83.1068	108.398	82.5342	108.398	82.9388	108.398	82.5809	108.398	82.7877	108.398	82.666
112.793	83.4957	112.793	83.424	112.793	83.5717	112.793	83.3581	112.793	83.6503	112.793	83.2988	112.793	83.7294	112.793	83.2458	112.793	83.8068	112.793	83.1984	112.793	83.8795	112.793	83.1549	112.793	83.9439	112.793	83.1129	112.793	83.9954	112.793	83.0701	112.793	84.0282	112.793	83.0246	112.793	84.0357	112.793	82.9754	112.793	84.0116	112.793	82.9232	112.793	83.9512	112.793	82.8707	112.793	83.853	112.793	82.823	112.793	83.7197	112.793	82.787	112.793	83.5595	112.793	82.7716	112.793	83.3846	112.793	82.7853	112.793	83.2107	112.793	82.8356	112.793	83.0533	112.793	82.9256
117.188	83.7635	117.188	83.6911	117.188	83.8392	117.188	83.6233	117.188	83.9164	117.188	83.5609	117.188	83.9931	117.188	83.5042	117.188	84.0673	117.188	83.4523	117.188	84.1363	117.188	83.4035	117.188	84.1969	117.188	83.3559	117.188	84.2445	117.188	83.307	117.188	84.2733	117.188	83.255	117.188	84.2768	117.188	83.1991	117.188	84.2484	117.188	83.14	117.188	84.183	117.188	83.0807	117.188	84.0788	117.188	83.0264	117.188	83.9388	117.188	82.9845	117.188	83.771	117.188	82.9641	117.188	83.5887	117.188	82.9745	117.188	83.4079	117.188	83.0234	117.188	83.2453	117.188	83.1143
120.117	83.9001	120.117	83.8225	120.117	83.9804	120.117	83.7494	120.117	84.0613	120.117	83.6821	120.117	84.1407	120.117	83.6215	120.117	84.2165	120.117	83.567	120.117	84.2863	120.117	83.5176	120.117	84.3472	120.117	83.4711	120.117	84.3949	120.117	83.4255	120.117	84.424	120.117	83.3785	120.117	84.4281	120.117	83.3292	120.117	84.4008	120.117	83.2778	120.117	84.3372	120.117	83.2268	120.117	84.2354	120.117	83.1807	120.117	84.0983	120.117	83.1463	120.117	83.934	120.117	83.1322	120.117	83.7554	120.117	83.1471	120.117	83.5783	120.117	83.1982	120.117	83.4186	120.117	83.2893
124.512	84.2496	124.512	84.1728	124.512	84.3265	124.512	84.0977	124.512	84.4017	124.512	84.0258	124.512	84.4733	124.512	83.9581	124.512	84.5399	124.512	83.8945	124.512	84.5996	124.512	83.8343	124.512	84.65	124.512	83.7758	124.512	84.6877	124.512	83.7176	124.512	84.7076	124.512	83.6581	124.512	84.7036	124.512	83.5967	124.512	84.6694	124.512	83.5344	124.512	84.5999	124.512	83.4741	124.512	84.4931	124.512	83.4207	124.512	84.3515	124.512	83.3814	124.512	84.1831	124.512	83.3645	124.512	84.0006	124.512	83.3788	124.512	83.8197	124.512	83.4309	124.512	83.6565	124.512	83.5242
128.906	84.4322	128.906	84.3531	128.906	84.5106	128.906	84.2754	128.906	84.5867	128.906	84.2004	128.906	84.6585	128.906	84.129	128.906	84.7246	128.906	84.0611	128.906	84.7831	128.906	83.9957	128.906	84.8318	128.906	83.9312	128.906	84.8671	128.906	83.8657	128.906	84.8838	128.906	83.7977	128.906	84.8755	128.906	83.7268	128.906	84.8355	128.906	83.6541	128.906	84.7585	128.906	83.5831	128.906	84.6422	128.906	83.5195	128.906	84.4893	128.906	83.4712	128.906	84.3083	128.906	83.4475	128.906	84.1127	128.906	83.4579	128.906	83.9197	128.906	83.5098	128.906	83.7463	128.906	83.6067
133.301	84.5486	133.301	84.4655	133.301	84.6301	133.301	84.3829	133.301	84.7077	133.301	84.3029	133.301	84.7796	133.301	84.2267	133.301	84.8443	133.301	84.1544	133.301	84.9005	133.301	84.0853	133.301	84.9461	133.301	84.0176	133.301	84.9779	133.301	83.9495	133.301	84.9913	133.301	83.8792	133.301	84.9801	133.301	83.8062	133.301	84.9375	133.301	83.7316	133.301	84.8579	133.301	83.6588	133.301	84.7391	133.301	83.5938	133.301	84.5834	133.301	83.5446	133.301	84.3994	133.301	83.5209	133.301	84.2007	133.301	83.5321	133.301	84.0043	133.301	83.5857	133.301	83.8276	133.301	83.6851
139.16	84.7459	139.16	84.6556	139.16	84.8319	139.16	84.5637	139.16	84.9111	139.16	84.4727	139.16	84.9818	139.16	84.3847	139.16	85.0425	139.16	84.3005	139.16	85.0925	139.16	84.2201	139.16	85.1303	139.16	84.1421	139.16	85.1533	139.16	84.0651	139.16	85.1572	139.16	83.9875	139.16	85.1362	139.16	83.9087	139.16	85.0838	139.16	83.8301	139.16	84.9946	139.16	83.7548	139.16	84.8666	139.16	83.6885	139.16	84.7025	139.16	83.6392	139.16	84.5112	139.16	83.616	139.16	84.3068	139.16	83.6281	139.16	84.1064	139.16	83.6827	139.16	83.9271	139.16	83.7831
143.555	84.8524	143.555	84.761	143.555	84.9371	143.555	84.6656	143.555	85.013	143.555	84.5688	143.555	85.0789	143.555	84.4729	143.555	85.1344	143.555	84.3791	143.555	85.1792	143.555	84.2876	143.555	85.2125	143.555	84.1977	143.555	85.2322	143.555	84.1084	143.555	85.234	143.555	84.0186	143.555	85.2117	143.555	83.9285	143.555	85.1581	143.555	83.8399	143.555	85.067	143.555	83.7568	143.555	84.9355	143.555	83.6855	143.555	84.7662	143.555	83.6343	143.555	84.5678	143.555	83.6126	143.555	84.3546	143.555	83.6292	143.555	84.1443	143.555	83.691	143.555	83.9547	143.555	83.8005
147.949	84.9844	147.949	84.8886	147.949	85.0708	147.949	84.7863	147.949	85.1453	147.949	84.6808	147.949	85.2067	147.949	84.5745	147.949	85.2547	147.949	84.4693	147.949	85.2895	147.949	84.3654	147.949	85.3114	147.949	84.2623	147.949	85.3191	147.949	84.159	147.949	85.3093	147.949	84.0545	147.949	85.2766	147.949	83.9493	147.949	85.2138	147.949	83.8456	147.949	85.1147	147.949	83.7482	147.949	84.9757	147.949	83.6646	147.949	84.7984	147.949	83.6043	147.949	84.591	147.949	83.5775	147.949	84.3672	147.949	83.594	147.949	84.1451	147.949	83.6603	147.949	83.9435	147.949	83.7782
153.809	85.0519	153.809	84.9513	153.809	85.1418	153.809	84.8431	153.809	85.2183	153.809	84.7311	153.809	85.2798	153.809	84.6181	153.809	85.3255	153.809	84.5066	153.809	85.3553	153.809	84.3973	153.809	85.3686	153.809	84.2902	153.809	85.364	153.809	84.1842	153.809	85.3381	153.809	84.0783	153.809	85.2863	153.809	83.9727	153.809	85.2031	153.809	83.8689	153.809	85.0844	153.809	83.7711	153.809	84.929	153.809	83.6858	153.809	84.7407	153.809	83.6217	153.809	84.5289	153.809	83.5886	153.809	84.3077	153.809	83.5957	153.809	84.0941	153.809	83.6499	153.809	83.9049	153.809	83.754
159.668	85.1616	159.668	85.0662	159.668	85.2454	159.668	84.962	159.668	85.3158	159.668	84.8525	159.668	85.3725	159.668	84.741	159.668	85.4165	159.668	84.6299	159.668	85.4491	159.668	84.5203	159.668	85.4709	159.668	84.4125	159.668	85.4804	159.668	84.3057	159.668	85.4729	159.668	84.1991	159.668	85.4411	159.668	84.0931	159.668	85.3765	159.668	83.9895	159.668	85.2718	159.668	83.8927	159.668	85.1241	159.668	83.8096	159.668	84.9367	159.668	83.7489	159.668	84.72	159.668	83.7204	159.668	84.4901	159.668	83.7332	159.668	84.2661	159.668	83.7943	159.668	84.0667	159.668	83.9064
165.527	85.3074	165.527	85.2167	165.527	85.3852	165.527	85.1162	165.527	85.4484	165.527	85.0095	165.527	85.4974	165.527	84.9003	165.527	85.5342	165.527	84.7916	165.527	85.5619	165.527	84.6851	165.527	85.5829	165.527	84.581	165.527	85.5977	165.527	84.479	165.527	85.6028	165.527	84.3787	165.527	85.5911	165.527	84.2806	165.527	85.5527	165.527	84.1871	165.527	85.4782	165.527	84.1027	165.527	85.3616	165.527	84.0344	165.527	85.2034	165.527	83.9909	165.527	85.011	165.527	83.9813	165.527	84.7985	165.527	84.0133	165.527	84.5837	165.527	84.0919	165.527	84.3849	165.527	84.2174
171.387	85.3616	171.387	85.266	171.387	85.4408	171.387	85.1581	171.387	85.5012	171.387	85.043	171.387	85.5426	171.387	84.9257	171.387	85.5675	171.387	84.8101	171.387	85.5797	171.387	84.6985	171.387	85.5834	171.387	84.5919	171.387	85.5807	171.387	84.4898	171.387	85.5704	171.387	84.3918	171.387	85.5468	171.387	84.298	171.387	85.5014	171.387	84.2103	171.387	85.4254	171.387	84.1329	171.387	85.313	171.387	84.072	171.387	85.1642	171.387	84.0354	171.387	84.9858	171.387	84.0308	171.387	84.7905	171.387	84.0646	171.387	84.594	171.387	84.1403	171.387	84.412	171.387	84.2577
177.246	85.4241	177.246	85.3257	177.246	85.5006	177.246	85.2103	177.246	85.5528	177.246	85.0837	177.246	85.5807	177.246	84.9519	177.246	85.5876	177.246	84.8198	177.246	85.5786	177.246	84.6905	177.246	85.5593	177.246	84.5653	177.246	85.5337	177.246	84.4445	177.246	85.5021	177.246	84.328	177.246	85.4602	177.246	84.2165	177.246	85.4	177.246	84.1129	177.246	85.3129	177.246	84.0221	177.246	85.1926	177.246	83.9513	177.246	85.0389	177.246	83.9085	177.246	84.8581	177.246	83.9012	177.246	84.6621	177.246	83.9349	177.246	84.4659	177.246	84.0116	177.246	84.2844	177.246	84.1299
183.105	85.3829	183.105	85.2753	183.105	85.4621	183.105	85.1439	183.105	85.5109	183.105	84.9954	183.105	85.5304	183.105	84.8372	183.105	85.5245	183.105	84.6763	183.105	85.4992	183.105	84.5186	183.105	85.4609	183.105	84.3679	183.105	85.4144	183.105	84.226	183.105	85.3609	183.105	84.094	183.105	85.2972	183.105	83.9727	183.105	85.2162	183.105	83.8643	183.105	85.1101	183.105	83.773	183.105	84.9737	183.105	83.7045	183.105	84.8073	183.105	83.6656	183.105	84.6182	183.105	83.6623	183.105	84.4186	183.105	83.6988	183.105	84.2228	183.105	83.7762	183.105	84.0441	183.105	83.8928
188.965	85.419	188.965	85.318	188.965	85.4897	188.965	85.1899	188.965	85.5294	188.965	85.0393	188.965	85.5396	188.965	84.8716	188.965	85.5244	188.965	84.6923	188.965	85.4895	188.965	84.506	188.965	85.4411	188.965	84.3168	188.965	85.3836	188.965	84.1282	188.965	85.3179	188.965	83.9437	188.965	85.2403	188.965	83.7679	188.965	85.1433	188.965	83.6071	188.965	85.0186	188.965	83.4698	188.965	84.8602	188.965	83.366	188.965	84.6678	188.965	83.3052	188.965	84.4483	188.965	83.2948	188.965	84.2143	188.965	83.3383	188.965	83.9816	188.965	83.435	188.965	83.7657	188.965	83.58
196.289	85.3499	196.289	85.2409	196.289	85.4307	196.289	85.1089	196.289	85.4807	196.289	84.96	196.289	85.4995	196.289	84.8008	196.289	85.49	196.289	84.6367	196.289	85.4567	196.289	84.4719	196.289	85.405	196.289	84.3083	196.289	85.3392	196.289	84.1468	196.289	85.2606	196.289	83.9875	196.289	85.1667	196.289	83.8318	196.289	85.0525	196.289	83.683	196.289	84.9121	196.289	83.5478	196.289	84.7427	196.289	83.4356	196.289	84.5461	196.289	83.3574	196.289	84.3299	196.289	83.3233	196.289	84.1063	196.289	83.3402	196.289	83.8894	196.289	83.4102	196.289	83.6933	196.289	83.5302
203.613	85.4373	203.613	85.3478	203.613	85.4907	203.613	85.2259	203.613	85.5069	203.613	85.078	203.613	85.4891	203.613	84.9111	203.613	85.4439	203.613	84.732	203.613	85.3802	203.613	84.5465	203.613	85.3063	203.613	84.3591	203.613	85.227	203.613	84.1731	203.613	85.1411	203.613	83.9919	203.613	85.0417	203.613	83.8192	203.613	84.9186	203.613	83.6604	203.613	84.7642	203.613	83.5224	203.613	84.5775	203.613	83.4132	203.613	84.3663	203.613	83.3399	203.613	84.1457	203.613	83.3073	203.613	83.9331	203.613	83.3171	203.613	83.7427	203.613	83.3679	203.613	83.5828	203.613	83.4573
210.938	85.5119	210.938	85.3995	210.938	85.5844	210.938	85.2527	210.938	85.6138	210.938	85.0788	210.938	85.6008	210.938	84.8855	210.938	85.5497	210.938	84.6796	210.938	85.4688	210.938	84.4668	210.938	85.3683	210.938	84.2511	210.938	85.2579	210.938	84.0358	210.938	85.1443	210.938	83.8245	210.938	85.0283	210.938	83.6225	210.938	84.9055	210.938	83.4383	210.938	84.7685	210.938	83.2831	210.938	84.6112	210.938	83.1699	210.938	84.4318	210.938	83.1099	210.938	84.2338	210.938	83.1097	210.938	84.025	210.938	83.1687	210.938	83.8152	210.938	83.2798	210.938	83.6143	210.938	83.4322
218.262	85.4597	218.262	85.3497	218.262	85.5293	218.262	85.2053	218.262	85.556	218.262	85.0344	218.262	85.5415	218.262	84.8457	218.262	85.4917	218.262	84.6471	218.262	85.4153	218.262	84.4446	218.262	85.322	218.262	84.2421	218.262	85.2188	218.262	84.0416	218.262	85.1074	218.262	83.8448	218.262	84.9835	218.262	83.6543	218.262	84.8391	218.262	83.4757	218.262	84.6675	218.262	83.3176	218.262	84.4677	218.262	83.1913	218.262	84.2468	218.262	83.1078	218.262	84.0182	218.262	83.075	218.262	83.797	218.262	83.0948	218.262	83.595	218.262	83.1634	218.262	83.4192	218.262	83.2738
225.586	85.4546	225.586	85.3526	225.586	85.5085	225.586	85.2086	225.586	85.5121	225.586	85.0312	225.586	85.4683	225.586	84.8301	225.586	85.3854	225.586	84.6147	225.586	85.2766	225.586	84.3929	225.586	85.157	225.586	84.1708	225.586	85.04	225.586	83.9532	225.586	84.9316	225.586	83.7448	225.586	84.829	225.586	83.5511	225.586	84.7213	225.586	83.38	225.586	84.5961	225.586	83.2412	225.586	84.4458	225.586	83.1451	225.586	84.2714	225.586	83.0994	225.586	84.0822	225.586	83.107	225.586	83.8908	225.586	83.1639	225.586	83.7078	225.586	83.2613	225.586	83.5395	225.586	83.3891
232.91	85.6093	232.91	85.5013	232.91	85.6651	232.91	85.3485	232.91	85.6643	232.91	85.1598	232.91	85.6076	232.91	84.9447	232.91	85.5007	232.91	84.7114	232.91	85.3553	232.91	84.4661	232.91	85.187	232.91	84.2134	232.91	85.0124	232.91	83.9574	232.91	84.8438	232.91	83.703	232.91	84.6857	232.91	83.4588	232.91	84.5335	232.91	83.2374	232.91	84.378	232.91	83.0551	232.91	84.2119	232.91	82.9283	232.91	84.0345	232.91	82.8685	232.91	83.8521	232.91	82.8775	232.91	83.6731	232.91	82.9459	232.91	83.5031	232.91	83.0568	232.91	83.3432	232.91	83.1931
241.699	85.6262	241.699	85.5061	241.699	85.6936	241.699	85.3416	241.699	85.7036	241.699	85.143	241.699	85.6561	241.699	84.9205	241.699	85.5561	241.699	84.6826	241.699	85.4135	241.699	84.4349	241.699	85.2412	241.699	84.1797	241.699	85.0523	241.699	83.9177	241.699	84.8565	241.699	83.6497	241.699	84.6573	241.699	83.38	241.699	84.4522	241.699	83.1188	241.699	84.2369	241.699	82.8828	241.699	84.0094	241.699	82.6929	241.699	83.7741	241.699	82.5689	241.699	83.5407	241.699	82.5221	241.699	83.3194	241.699	82.5505	241.699	83.1166	241.699	82.6402	241.699	82.9339	241.699	82.7729
250.488	85.4702	250.488	85.336	250.488	85.5441	250.488	85.1507	250.488	85.5531	250.488	84.9271	250.488	85.4986	250.488	84.6791	250.488	85.3885	250.488	84.4193	250.488	85.2359	250.488	84.1569	250.488	85.057	250.488	83.8966	250.488	84.8661	250.488	83.6389	250.488	84.6711	250.488	83.383	250.488	84.4708	250.488	83.13	250.488	84.2574	250.488	82.8861	250.488	84.0231	250.488	82.6645	250.488	83.7674	250.488	82.4836	250.488	83.501	250.488	82.3615	250.488	83.242	250.488	82.3089	250.488	83.0082	250.488	82.324	250.488	82.8085	250.488	82.394	250.488	82.6417	250.488	82.5033
259.277	85.8254	259.277	85.6967	259.277	85.8927	259.277	85.5152	259.277	85.8951	259.277	85.2924	259.277	85.8346	259.277	85.0414	259.277	85.7196	259.277	84.7745	259.277	85.5637	259.277	84.5013	259.277	85.384	259.277	84.2273	259.277	85.1964	259.277	83.9544	259.277	85.0102	259.277	83.682	259.277	84.8248	259.277	83.4107	259.277	84.6309	259.277	83.1449	259.277	84.4162	259.277	82.8961	259.277	84.1733	259.277	82.6832	259.277	83.9054	259.277	82.528	259.277	83.6254	259.277	82.4491	259.277	83.3505	259.277	82.4536	259.277	83.0953	259.277	82.5352	259.277	82.869	259.277	82.6788
268.066	85.5339	268.066	85.3938	268.066	85.6092	268.066	85.1998	268.066	85.6145	268.066	84.9663	268.066	85.5508	268.066	84.7095	268.066	85.427	268.066	84.4448	268.066	85.2599	268.066	84.1842	268.066	85.0714	268.066	83.9356	268.066	84.8835	268.066	83.702	268.066	84.7103	268.066	83.4837	268.066	84.553	268.066	83.2813	268.066	84.4003	268.066	83.0986	268.066	84.2373	268.066	82.9441	268.066	84.0557	268.066	82.8301	268.066	83.8599	268.066	82.7684	268.066	83.6634	268.066	82.7654	268.066	83.48	268.066	82.8173	268.066	83.3156	268.066	82.9115	268.066	83.1676	268.066	83.0321
276.855	85.7142	276.855	85.5734	276.855	85.7789	276.855	85.3625	276.855	85.7664	276.855	85.0923	276.855	85.6812	276.855	84.7771	276.855	85.5339	276.855	84.4335	276.855	85.3413	276.855	84.079	276.855	85.1244	276.855	83.7294	276.855	84.9035	276.855	83.3974	276.855	84.6923	276.855	83.092	276.855	84.4918	276.855	82.8197	276.855	84.2906	276.855	82.5865	276.855	84.0724	276.855	82.4005	276.855	83.828	276.855	82.2712	276.855	83.563	276.855	82.2068	276.855	83.2968	276.855	82.2092	276.855	83.0519	276.855	82.2705	276.855	82.841	276.855	82.3754	276.855	82.6626	276.855	82.5086
287.109	86.1197	287.109	86.0191	287.109	86.1429	287.109	85.8477	287.109	86.087	287.109	85.6148	287.109	85.9556	287.109	85.3308	287.109	85.7594	287.109	85.0062	287.109	85.5156	287.109	84.6504	287.109	85.2476	287.109	84.2719	287.109	84.9802	287.109	83.8798	287.109	84.7337	287.109	83.4857	287.109	84.5165	287.109	83.1062	287.109	84.3227	287.109	82.7634	287.109	84.1358	287.109	82.4836	287.109	83.9395	287.109	82.2911	287.109	83.7263	287.109	82.2008	287.109	83.5006	287.109	82.2115	287.109	83.2731	287.109	82.3061	287.109	83.0527	287.109	82.458	287.109	82.8422	287.109	82.6421
297.363	86.1479	297.363	86.0513	297.363	86.1599	297.363	85.8791	297.363	86.0851	297.363	85.6452	297.363	85.9289	297.363	85.3658	297.363	85.7061	297.363	85.0564	297.363	85.4397	297.363	84.7292	297.363	85.1581	297.363	84.3907	297.363	84.8888	297.363	84.043	297.363	84.6506	297.363	83.6872	297.363	84.4482	297.363	83.3301	297.363	84.2739	297.363	82.9891	297.363	84.115	297.363	82.6948	297.363	83.9616	297.363	82.4854	297.363	83.8099	297.363	82.3923	297.363	83.6595	297.363	82.4237	297.363	83.5079	297.363	82.5579	297.363	83.3474	297.363	82.7533	297.363	83.1683	297.363	82.9666
307.617	86.4475	307.617	86.3291	307.617	86.4811	307.617	86.1358	307.617	86.4239	307.617	85.8803	307.617	86.2766	307.617	85.5761	307.617	86.0484	307.617	85.2371	307.617	85.7584	307.617	84.8762	307.617	85.4346	307.617	84.5048	307.617	85.1075	307.617	84.1324	307.617	84.7997	307.617	83.7666	307.617	84.5179	307.617	83.4155	307.617	84.2535	307.617	83.0914	307.617	83.9964	307.617	82.8134	307.617	83.749	307.617	82.6076	307.617	83.5297	307.617	82.4989	307.617	83.3583	307.617	82.4981	307.617	83.2358	307.617	82.5907	307.617	83.1382	307.617	82.7386	307.617	83.032	307.617	82.8966
319.336	86.1791	319.336	86.0708	319.336	86.205	319.336	85.8903	319.336	86.1432	319.336	85.6508	319.336	85.9949	319.336	85.3663	319.336	85.7692	319.336	85.0488	319.336	85.4844	319.336	84.7077	319.336	85.1682	319.336	84.3494	319.336	84.8539	319.336	83.9798	319.336	84.5708	319.336	83.6076	319.336	84.3325	319.336	83.2475	319.336	84.1304	319.336	82.9224	319.336	83.9421	319.336	82.6618	319.336	83.7504	319.336	82.4956	319.336	83.5584	319.336	82.4417	319.336	83.3869	319.336	82.4954	319.336	83.2537	319.336	82.6261	319.336	83.1535	319.336	82.788	319.336	83.0583	319.336	82.9391
329.59	86.5117	329.59	86.3901	329.59	86.5402	329.59	86.187	329.59	86.4703	329.59	85.9189	329.59	86.3047	329.59	85.6036	329.59	86.0542	329.59	85.2567	329.59	85.7377	329.59	84.8883	329.59	85.3806	329.59	84.5025	329.59	85.0109	329.59	84.099	329.59	84.6514	329.59	83.6791	329.59	84.3135	329.59	83.2516	329.59	83.9952	329.59	82.8385	329.59	83.6895	329.59	82.4772	329.59	83.3971	329.59	82.2129	329.59	83.1338	329.59	82.0812	329.59	82.924	329.59	82.0868	329.59	82.7798	329.59	82.1951	329.59	82.6852	329.59	82.3481	329.59	82.6014	329.59	82.4923
341.309	86.2721	341.309	86.1291	341.309	86.3223	341.309	85.9086	341.309	86.2722	341.309	85.6315	341.309	86.1243	341.309	85.3201	341.309	85.8925	341.309	84.994	341.309	85.6023	341.309	84.6652	341.309	85.2882	341.309	84.3364	341.309	84.9849	341.309	84.0031	341.309	84.716	341.309	83.6593	341.309	84.4848	341.309	83.3063	341.309	84.2765	341.309	82.9601	341.309	84.0723	341.309	82.6552	341.309	83.8654	341.309	82.4388	341.309	83.6671	341.309	82.3522	341.309	83.4974	341.309	82.4058	341.309	83.3655	341.309	82.5676	341.309	83.2562	341.309	82.7776	341.309	83.1365	341.309	82.9779
353.027	86.3819	353.027	86.206	353.027	86.4417	353.027	85.9277	353.027	86.3795	353.027	85.5679	353.027	86.1977	353.027	85.1538	353.027	85.9088	353.027	84.715	353.027	85.5375	353.027	84.2781	353.027	85.1209	353.027	83.8595	353.027	84.7022	353.027	83.4629	353.027	84.3166	353.027	83.0819	353.027	83.9751	353.027	82.7092	353.027	83.6624	353.027	82.3484	353.027	83.3561	353.027	82.0239	353.027	83.0543	353.027	81.7807	353.027	82.788	353.027	81.6684	353.027	82.6004	353.027	81.7092	353.027	82.5051	353.027	81.8739	353.027	82.4627	353.027	82.0908	353.027	82.4057	353.027	82.2833
366.211	86.4908	366.211	86.3479	366.211	86.5192	366.211	86.0999	366.211	86.4302	366.211	85.7624	366.211	86.228	366.211	85.3569	366.211	85.9253	366.211	84.9082	366.211	85.5462	366.211	84.4413	366.211	85.127	366.211	83.9762	366.211	84.7118	366.211	83.5248	366.211	84.3377	366.211	83.0913	366.211	84.0153	366.211	82.6775	366.211	83.7225	366.211	82.2902	366.211	83.4215	366.211	81.9504	366.211	83.0926	366.211	81.6937	366.211	82.7581	366.211	81.5591	366.211	82.4742	366.211	81.5638	366.211	82.2869	366.211	81.6822	366.211	82.1863	366.211	81.8523	366.211	82.1131	366.211	82.0074
379.395	87.0444	379.395	86.9276	379.395	87.0454	379.395	86.7038	379.395	86.9276	379.395	86.3867	379.395	86.6953	379.395	85.9932	379.395	86.362	379.395	85.5416	379.395	85.9524	379.395	85.0486	379.395	85.502	379.395	84.5282	379.395	85.0518	379.395	83.9901	379.395	84.6347	379.395	83.4418	379.395	84.2604	379.395	82.8933	379.395	83.9116	379.395	82.365	379.395	83.5604	379.395	81.8953	379.395	83.1963	379.395	81.5402	379.395	82.8438	379.395	81.3551	379.395	82.5516	379.395	81.3601	379.395	82.352	379.395	81.5162	379.395	82.2254	379.395	81.7415	379.395	82.1114	379.395	81.9541
392.578	86.5856	392.578	86.4393	392.578	86.626	392.578	86.1987	392.578	86.5549	392.578	85.8813	392.578	86.3738	392.578	85.508	392.578	86.0931	392.578	85.1001	392.578	85.7348	392.578	84.6749	392.578	85.3337	392.578	84.2431	392.578	84.9332	392.578	83.8089	392.578	84.5694	392.578	83.3733	392.578	84.2518	392.578	82.9403	392.578	83.9555	392.578	82.5234	392.578	83.641	392.578	82.1526	392.578	83.291	392.578	81.8749	392.578	82.939	392.578	81.74	392.578	82.6582	392.578	81.7693	392.578	82.5028	392.578	81.9295	392.578	82.45	392.578	82.1408	392.578	82.4143	392.578	82.3177
405.762	86.3894	405.762	86.2588	405.762	86.3837	405.762	86.0013	405.762	86.2433	405.762	85.6378	405.762	85.9817	405.762	85.1983	405.762	85.6253	405.762	84.718	405.762	85.2137	405.762	84.2288	405.762	84.7966	405.762	83.7521	405.762	84.4226	405.762	83.2955	405.762	84.118	405.762	82.8575	405.762	83.8704	405.762	82.4387	405.762	83.6331	405.762	82.0528	405.762	83.3562	405.762	81.7336	405.762	83.0246	405.762	81.529	405.762	82.6818	405.762	81.479	405.762	82.4129	405.762	81.5847	405.762	82.2792	405.762	81.7936	405.762	82.257	405.762	82.0201	405.762	82.2546	405.762	82.1855
420.41	86.8511	420.41	86.7361	420.41	86.8337	420.41	86.4978	420.41	86.6812	420.41	86.1519	420.41	86.3982	420.41	85.7199	420.41	85.998	420.41	85.2262	420.41	85.5082	420.41	84.6923	420.41	84.9743	420.41	84.1321	420.41	84.4574	420.41	83.549	420.41	84.0138	420.41	82.9393	420.41	83.6602	420.41	82.3018	420.41	83.3563	420.41	81.6548	420.41	83.0306	420.41	81.053	420.41	82.6366	420.41	80.5949	420.41	82.2006	420.41	80.3896	420.41	81.8218	420.41	80.4761	420.41	81.599	420.41	80.7704	420.41	81.5279	420.41	81.1145	420.41	81.4941	420.41	81.3729
435.059	86.5214	435.059	86.4607	435.059	86.4455	435.059	86.2725	435.059	86.2346	435.059	85.9759	435.059	85.9024	435.059	85.5971	435.059	85.4773	435.059	85.1635	435.059	85.0051	435.059	84.6966	435.059	84.5489	435.059	84.207	435.059	84.1734	435.059	83.6952	435.059	83.9128	435.059	83.1596	435.059	83.7412	435.059	82.6065	435.059	83.5795	435.059	82.0608	435.059	83.3407	435.059	81.5731	435.059	82.9835	435.059	81.2147	435.059	82.548	435.059	81.0511	435.059	82.1491	435.059	81.0967	435.059	81.9001	435.059	81.2911	435.059	81.8111	435.059	81.5257	435.059	81.7826	435.059	81.7024
451.172	86.9645	451.172	86.8113	451.172	86.952	451.172	86.5102	451.172	86.766	451.172	86.0887	451.172	86.4091	451.172	85.5836	451.172	85.8985	451.172	85.0353	451.172	85.274	451.172	84.4768	451.172	84.6066	451.172	83.9208	451.172	83.9959	451.172	83.3546	451.172	83.5353	451.172	82.7491	451.172	83.2491	451.172	82.0798	451.172	83.0618	451.172	81.3572	451.172	82.8503	451.172	80.6602	451.172	82.5337	451.172	80.1509	451.172	82.1361	451.172	80.0063	451.172	81.7859	451.172	80.2592	451.172	81.615	451.172	80.7408	451.172	81.6169	451.172	81.2183	451.172	81.6426	451.172	81.5333
465.82	86.6949	465.82	86.5767	465.82	86.6464	465.82	86.3077	465.82	86.4285	465.82	85.9177	465.82	86.0504	465.82	85.449	465.82	85.5348	465.82	84.9485	465.82	84.9242	465.82	84.4529	465.82	84.2891	465.82	83.9731	465.82	83.7271	465.82	83.4885	465.82	83.3298	465.82	82.9571	465.82	83.1182	465.82	82.3374	465.82	83.008	465.82	81.6151	465.82	82.8576	465.82	80.8342	465.82	82.5581	465.82	80.128	465.82	82.1009	465.82	79.7024	465.82	81.6007	465.82	79.6978	465.82	81.2299	465.82	80.0333	465.82	81.0587	465.82	80.4705	465.82	80.9749	465.82	80.8062
483.398	86.8838	483.398	86.7333	483.398	86.8564	483.398	86.4228	483.398	86.6429	483.398	85.984	483.398	86.2438	483.398	85.463	483.398	85.6703	483.398	84.9153	483.398	84.9559	483.398	84.3905	483.398	84.1762	483.398	83.91	483.398	83.4651	483.398	83.4543	483.398	82.9815	483.398	82.9696	483.398	82.795	483.398	82.3923	483.398	82.797	483.398	81.6794	483.398	82.7769	483.398	80.8457	483.398	82.5723	483.398	80.0148	483.398	82.1592	483.398	79.4444	483.398	81.6695	483.398	79.384	483.398	81.3083	483.398	79.7954	483.398	81.1525	483.398	80.3703	483.398	81.0589	483.398	80.8257
499.512	86.9654	499.512	86.7725	499.512	86.9564	499.512	86.3923	499.512	86.7403	499.512	85.8569	499.512	86.3172	499.512	85.2234	499.512	85.6938	499.512	84.5736	499.512	84.8951	499.512	83.9941	499.512	83.9904	499.512	83.5366	499.512	83.1269	499.512	83.1849	499.512	82.5203	499.512	82.8629	499.512	82.3212	499.512	82.4774	499.512	82.446	499.512	81.9606	499.512	82.635	499.512	81.3015	499.512	82.6583	499.512	80.5819	499.512	82.4301	499.512	80.0017	499.512	82.0245	499.512	79.8001	499.512	81.6206	499.512	80.0309	499.512	81.3494	499.512	80.4818	499.512	81.1587	499.512	80.8937
517.09	87.8762	517.09	87.6934	517.09	87.835	517.09	87.2936	517.09	87.5716	517.09	86.6993	517.09	87.0926	517.09	85.9574	517.09	86.4089	517.09	85.1464	517.09	85.5412	517.09	84.3715	517.09	84.5383	517.09	83.7312	517.09	83.5096	517.09	83.2601	517.09	82.6514	517.09	82.8974	517.09	82.1742	517.09	82.5198	517.09	82.1034	517.09	82.006	517.09	82.2147	517.09	81.2951	517.09	82.2401	517.09	80.4475	517.09	82.0604	517.09	79.7165	517.09	81.7498	517.09	79.4779	517.09	81.4925	517.09	79.8435	517.09	81.3802	517.09	80.4833	517.09	81.2885	517.09	81.0156
536.133	88.6897	536.133	88.4897	536.133	88.6379	536.133	88.0434	536.133	88.3349	536.133	87.3691	536.133	87.785	536.133	86.507	536.133	86.9972	536.133	85.5319	536.133	85.9916	536.133	84.5605	536.133	84.813	536.133	83.7288	536.133	83.5538	536.133	83.1218	536.133	82.3781	536.133	82.7024	536.133	81.4927	536.133	82.3257	536.133	81.0083	536.133	81.8231	536.133	80.8171	536.133	81.0772	536.133	80.6955	536.133	80.0908	536.133	80.5193	536.133	79.1022	536.133	80.362	536.133	78.6317	536.133	80.384	536.133	78.9916	536.133	80.5686	536.133	79.7779	536.133	80.6637	536.133	80.4184
555.176	89.8272	555.176	89.676	555.176	89.7509	555.176	89.2985	555.176	89.4458	555.176	88.6986	555.176	88.9107	555.176	87.8889	555.176	88.1466	555.176	86.9029	555.176	87.1621	555.176	85.8122	555.176	85.987	555.176	84.7422	555.176	84.7081	555.176	83.8517	555.176	83.525	555.176	83.2434	555.176	82.726	555.176	82.8652	555.176	82.4299	555.176	82.5311	555.176	82.3713	555.176	82.0341	555.176	82.1327	555.176	81.2322	555.176	81.4433	555.176	80.107	555.176	80.288	555.176	78.8517	555.176	78.9883	555.176	77.9096	555.176	78.101	555.176	77.5981	555.176	77.7873	555.176	77.6695
574.219	89.4842	574.219	89.3682	574.219	89.3937	574.219	89.0352	574.219	89.1105	574.219	88.4851	574.219	88.6463	574.219	87.7356	574.219	88.0084	574.219	86.8301	574.219	87.2006	574.219	85.8437	574.219	86.2299	574.219	84.8817	574.219	85.1288	574.219	84.0553	574.219	83.9994	574.219	83.4296	574.219	83.0519	574.219	82.9771	574.219	82.5243	574.219	82.5872	574.219	82.4381	574.219	82.125	574.219	82.5204	574.219	81.4968	574.219	82.4428	574.219	80.7104	574.219	82.0307	574.219	79.9273	574.219	81.3256	574.219	79.4212	574.219	80.5566	574.219	79.3376	574.219	79.9556	574.219	79.558
594.727	88.4915	594.727	88.4655	594.727	88.3458	594.727	88.2523	594.727	88.045	594.727	87.8416	594.727	87.6038	594.727	87.2355	594.727	87.0334	594.727	86.4583	594.727	86.3402	594.727	85.569	594.727	85.5321	594.727	84.6698	594.727	84.6403	594.727	83.8876	594.727	83.756	594.727	83.3083	594.727	83.0452	594.727	82.9072	594.727	82.6664	594.727	82.5613	594.727	82.6141	594.727	82.1383	594.727	82.7008	594.727	81.5793	594.727	82.7108	594.727	80.9457	594.727	82.5238	594.727	80.423	594.727	82.1422	594.727	80.2163	594.727	81.6584	594.727	80.3637	594.727	81.1717	594.727	80.7256
615.234	88.5559	615.234	88.4727	615.234	88.4247	615.234	88.1733	615.234	88.0916	615.234	87.6671	615.234	87.5772	615.234	86.9775	615.234	86.905	615.234	86.1474	615.234	86.0932	615.234	85.2488	615.234	85.155	615.234	84.3899	615.234	84.1207	615.234	83.6958	615.234	83.0861	615.234	83.2419	615.234	82.2532	615.234	82.9823	615.234	81.8505	615.234	82.766	615.234	81.9071	615.234	82.4275	615.234	82.184	615.234	81.8706	615.234	82.3941	615.234	81.1323	615.234	82.3844	615.234	80.4412	615.234	82.1591	615.234	80.1447	615.234	81.8041	615.234	80.3684	615.234	81.3738	615.234	80.8681
637.207	88.6086	637.207	88.5568	637.207	88.4887	637.207	88.3153	637.207	88.2218	637.207	87.8771	637.207	87.8282	637.207	87.2454	637.207	87.3092	637.207	86.4344	637.207	86.6392	637.207	85.4776	637.207	85.7763	637.207	84.4481	637.207	84.695	637.207	83.4818	637.207	83.4461	637.207	82.7542	637.207	82.2384	637.207	82.3663	637.207	81.4376	637.207	82.2339	637.207	81.2792	637.207	82.1465	637.207	81.5827	637.207	81.9273	637.207	81.9938	637.207	81.5515	637.207	82.298	637.207	81.1967	637.207	82.4424	637.207	81.1435	637.207	82.4376	637.207	81.4643	637.207	82.2727	637.207	81.9231
659.18	88.7544	659.18	88.8057	659.18	88.5167	659.18	88.6411	659.18	88.1313	659.18	88.2439	659.18	87.6374	659.18	87.6097	659.18	87.0662	659.18	86.7486	659.18	86.4343	659.18	85.6942	659.18	85.7409	659.18	84.5235	659.18	84.968	659.18	83.3787	659.18	84.0911	659.18	82.4557	659.18	83.1062	659.18	81.9026	659.18	82.084	659.18	81.6773	659.18	81.2316	659.18	81.5575	659.18	80.8286	659.18	81.3124	659.18	80.9335	659.18	80.8621	659.18	81.284	659.18	80.3722	659.18	81.5929	659.18	80.2034	659.18	81.7064	659.18	80.5347	659.18	81.5461	659.18	81.1027
682.617	88.4242	682.617	88.5893	682.617	88.0681	682.617	88.5409	682.617	87.5631	682.617	88.2761	682.617	86.9653	682.617	87.8052	682.617	86.3334	682.617	87.1445	682.617	85.7066	682.617	86.3178	682.617	85.0872	682.617	85.3786	682.617	84.444	682.617	84.4379	682.617	83.7428	682.617	83.6556	682.617	82.9804	682.617	83.1395	682.617	82.2148	682.617	82.8231	682.617	81.5742	682.617	82.4975	682.617	81.1798	682.617	81.9686	682.617	80.9871	682.617	81.1896	682.617	80.8197	682.617	80.3549	682.617	80.6268	682.617	79.8724	682.617	80.5158	682.617	79.9485	682.617	80.4597	682.617	80.2672
707.52	88.3085	707.52	88.4913	707.52	87.9527	707.52	88.4915	707.52	87.454	707.52	88.3114	707.52	86.8663	707.52	87.9539	707.52	86.2565	707.52	87.4131	707.52	85.6763	707.52	86.6792	707.52	85.13	707.52	85.7688	707.52	84.5735	707.52	84.7845	707.52	83.9598	707.52	83.958	707.52	83.3095	707.52	83.5366	707.52	82.7471	707.52	83.4957	707.52	82.399	707.52	83.4935	707.52	82.1842	707.52	83.151	707.52	81.8201	707.52	82.2328	707.52	81.0811	707.52	80.7018	707.52	80.0033	707.52	78.8876	707.52	78.901	707.52	77.6556	707.52	78.0667	707.52	77.5445
732.422	87.6421	732.422	87.9418	732.422	87.1308	732.422	88.0503	732.422	86.4278	732.422	87.992	732.422	85.6207	732.422	87.7567	732.422	84.8678	732.422	87.2782	732.422	84.3437	732.422	86.4527	732.422	84.1093	732.422	85.2062	732.422	84.0085	732.422	83.6541	732.422	83.728	732.422	82.4194	732.422	82.9803	732.422	82.4402	732.422	81.8171	732.422	83.492	732.422	81.2667	732.422	84.5511	732.422	82.4254	732.422	85.0941	732.422	84.0657	732.422	85.0259	732.422	84.9599	732.422	84.4393	732.422	84.9092	732.422	83.5747	732.422	84.1681	732.422	82.8387	732.422	83.2314	732.422	82.6764
757.324	88.7529	757.324	88.5639	757.324	88.5455	757.324	88.1001	757.324	87.8948	757.324	87.6084	757.324	86.7844	757.324	87.374	757.324	85.2314	757.324	87.4151	757.324	83.4214	757.324	87.3932	757.324	82.1672	757.324	86.8987	757.324	82.6112	757.324	85.6123	757.324	84.0026	757.324	83.2634	757.324	84.8225	757.324	79.9154	757.324	84.2449	757.324	78.6241	757.324	81.476	757.324	81.5717	757.324	75.8296	757.324	84.339	757.324	79.1758	757.324	86.0223	757.324	84.3612	757.324	86.9243	757.324	86.8592	757.324	87.3772	757.324	87.8522	757.324	87.6471	757.324	88.0388	757.324	87.882
785.156	90.8345	785.156	90.5836	785.156	90.7089	785.156	89.9123	785.156	90.2491	785.156	88.823	785.156	89.4681	785.156	87.4871	785.156	88.3143	785.156	86.4178	785.156	86.6328	785.156	86.1744	785.156	84.1818	785.156	86.4992	785.156	81.1081	785.156	86.6291	785.156	80.1703	785.156	86.0492	785.156	82.5755	785.156	84.4637	785.156	84.4506	785.156	81.6272	785.156	84.5246	785.156	78.0161	785.156	82.1586	785.156	77.9614	785.156	75.5868	785.156	81.105	785.156	76.763	785.156	83.6011	785.156	83.2279	785.156	85.2818	785.156	86.0373	785.156	86.417	785.156	87.0616	785.156	87.0635
811.523	90.6797	811.523	90.7806	811.523	90.2898	811.523	90.4916	811.523	89.7059	811.523	89.7285	811.523	88.9896	811.523	88.472	811.523	88.1282	811.523	86.9084	811.523	86.9894	811.523	85.6298	811.523	85.2878	811.523	85.2499	811.523	82.6134	811.523	85.4319	811.523	79.2854	811.523	85.3924	811.523	79.7662	811.523	84.6988	811.523	82.8803	811.523	83.2176	811.523	84.378	811.523	81.0893	811.523	83.6699	811.523	79.2069	811.523	80.2167	811.523	79.2272	811.523	74.9811	811.523	80.8676	811.523	79.4194	811.523	82.6838	811.523	83.2368	811.523	84.0927	811.523	84.743	811.523	84.8683
840.82	90.7828	840.82	91.1197	840.82	90.2175	840.82	91.0964	840.82	89.5626	840.82	90.5962	840.82	88.9344	840.82	89.5351	840.82	88.3537	840.82	87.9318	840.82	87.6693	840.82	86.0933	840.82	86.5629	840.82	84.7601	840.82	84.6159	840.82	84.3858	840.82	81.4869	840.82	84.3781	840.82	78.8059	840.82	84.0166	840.82	80.7926	840.82	83.0188	840.82	83.1869	840.82	81.4859	840.82	83.6144	840.82	79.983	840.82	81.6896	840.82	79.4245	840.82	77.1198	840.82	80.1654	840.82	77.0998	840.82	81.6613	840.82	81.5832	840.82	83.1552	840.82	83.6958	840.82	84.0119
870.117	90.4614	870.117	90.9669	870.117	89.7465	870.117	91.1083	870.117	88.993	870.117	90.7644	870.117	88.3467	870.117	89.8535	870.117	87.8586	870.117	88.3657	870.117	87.4095	870.117	86.5007	870.117	86.6965	870.117	84.9018	870.117	85.2931	870.117	84.2818	870.117	82.7662	870.117	84.2961	870.117	79.7026	870.117	84.0711	870.117	80.3381	870.117	83.1494	870.117	82.867	870.117	81.5252	870.117	83.6868	870.117	79.7421	870.117	82.2548	870.117	78.9333	870.117	78.2	870.117	79.5503	870.117	75.0091	870.117	80.8146	870.117	79.0198	870.117	81.9527	870.117	81.6553	870.117	82.4098
900.879	90.6648	900.879	91.2812	900.879	89.8507	900.879	91.5482	900.879	89.0132	900.879	91.3399	900.879	88.3273	900.879	90.562	900.879	87.878	900.879	89.1696	900.879	87.5473	900.879	87.2418	900.879	87.0167	900.879	85.1862	900.879	85.8617	900.879	83.8609	900.879	83.566	900.879	83.6407	900.879	79.6448	900.879	83.7597	900.879	77.5269	900.879	83.4959	900.879	81.2228	900.879	82.635	900.879	83.602	900.879	81.2768	900.879	83.6359	900.879	79.8046	900.879	81.3793	900.879	79.1102	900.879	78.2362	900.879	79.9906	900.879	79.5831	900.879	81.5566	900.879	81.8909	900.879	82.4456
933.105	90.4556	933.105	90.9965	933.105	89.6255	933.105	91.1929	933.105	88.6195	933.105	90.9931	933.105	87.6531	933.105	90.3295	933.105	86.9629	933.105	89.1296	933.105	86.5922	933.105	87.3747	933.105	86.2817	933.105	85.2629	933.105	85.6073	933.105	83.4683	933.105	84.1455	933.105	82.7218	933.105	81.6601	933.105	82.5773	933.105	79.4857	933.105	82.1344	933.105	80.7653	933.105	81.1964	933.105	82.5993	933.105	80.3398	933.105	82.5673	933.105	80.2049	933.105	80.2649	933.105	80.5133	933.105	76.8066	933.105	80.7832	933.105	77.707	933.105	80.9811	933.105	80.0545	933.105	80.9578
965.332	90.497	965.332	90.9901	965.332	89.7809	965.332	91.1692	965.332	88.9579	965.332	90.963	965.332	88.1394	965.332	90.3179	965.332	87.3885	965.332	89.2048	965.332	86.7147	965.332	87.6512	965.332	86.04	965.332	85.853	965.332	85.1281	965.332	84.3369	965.332	83.5755	965.332	83.6379	965.332	80.9591	965.332	83.447	965.332	78.259	965.332	83.0094	965.332	79.635	965.332	81.9522	965.332	82.0132	965.332	80.3803	965.332	82.4525	965.332	78.8816	965.332	80.8224	965.332	78.4064	965.332	78.523	965.332	79.2434	965.332	79.1616	965.332	80.5178	965.332	80.8302	965.332	81.2547
1,000.49	90.6449	1,000.49	91.0522	1,000.49	89.911	1,000.49	91.1096	1,000.49	88.9335	1,000.49	90.81	1,000.49	87.8596	1,000.49	90.1102	1,000.49	86.872	1,000.49	88.9052	1,000.49	86.1438	1,000.49	87.0509	1,000.49	85.685	1,000.49	84.4842	1,000.49	85.176	1,000.49	81.7435	1,000.49	84.0856	1,000.49	80.7496	1,000.49	81.8554	1,000.49	81.6894	1,000.49	78.518	1,000.49	82.3975	1,000.49	78.2778	1,000.49	82.0752	1,000.49	80.9609	1,000.49	80.9269	1,000.49	81.7003	1,000.49	79.8263	1,000.49	79.8017	1,000.49	79.8676	1,000.49	76.5733	1,000.49	80.8553	1,000.49	78.2202	1,000.49	81.7859	1,000.49	80.9681	1,000.49	82.0008
1,035.64	90.3679	1,035.64	90.6992	1,035.64	89.807	1,035.64	90.7727	1,035.64	89.0434	1,035.64	90.5569	1,035.64	88.1362	1,035.64	90.0036	1,035.64	87.2005	1,035.64	89.0066	1,035.64	86.3889	1,035.64	87.3836	1,035.64	85.8024	1,035.64	84.9092	1,035.64	85.2799	1,035.64	81.5953	1,035.64	84.3349	1,035.64	79.3333	1,035.64	82.2872	1,035.64	80.419	1,035.64	78.5686	1,035.64	81.7062	1,035.64	77.1941	1,035.64	81.6996	1,035.64	80.9869	1,035.64	80.6172	1,035.64	82.8367	1,035.64	79.245	1,035.64	81.8534	1,035.64	78.9906	1,035.64	78.1485	1,035.64	80.3399	1,035.64	77.4749	1,035.64	81.8598	1,035.64	80.9393	1,035.64	82.3227
1,072.27	90.5245	1,072.27	90.6941	1,072.27	90.0158	1,072.27	90.5389	1,072.27	89.243	1,072.27	90.1141	1,072.27	88.2847	1,072.27	89.4839	1,072.27	87.0742	1,072.27	88.7085	1,072.27	85.5889	1,072.27	87.7888	1,072.27	84.208	1,072.27	86.62	1,072.27	83.4452	1,072.27	85.0822	1,072.27	83.0562	1,072.27	83.3201	1,072.27	82.0462	1,072.27	81.9371	1,072.27	79.37	1,072.27	81.2078	1,072.27	75.9618	1,072.27	80.4831	1,072.27	78.503	1,072.27	79.2689	1,072.27	81.0987	1,072.27	77.7587	1,072.27	80.7855	1,072.27	77.1318	1,072.27	77.582	1,072.27	78.5638	1,072.27	75.9519	1,072.27	80.4714	1,072.27	79.4731	1,072.27	81.0716
1,108.89	90.0749	1,108.89	90.4145	1,108.89	89.4887	1,108.89	90.4363	1,108.89	88.7684	1,108.89	90.1556	1,108.89	87.9172	1,108.89	89.6332	1,108.89	86.8301	1,108.89	88.9003	1,108.89	85.5459	1,108.89	87.8961	1,108.89	84.3488	1,108.89	86.4865	1,108.89	83.5107	1,108.89	84.5936	1,108.89	82.932	1,108.89	82.4638	1,108.89	82.0625	1,108.89	80.971	1,108.89	80.0821	1,108.89	80.729	1,108.89	76.5231	1,108.89	80.9208	1,108.89	76.4933	1,108.89	80.6925	1,108.89	80.1234	1,108.89	79.7458	1,108.89	81.241	1,108.89	78.1239	1,108.89	79.6175	1,108.89	77.2449	1,108.89	77.5074	1,108.89	78.6851	1,108.89	78.8547	1,108.89	79.7884
1,148.44	89.6187	1,148.44	89.9352	1,148.44	89.1236	1,148.44	90.0372	1,148.44	88.4371	1,148.44	89.8471	1,148.44	87.5328	1,148.44	89.3421	1,148.44	86.3734	1,148.44	88.5942	1,148.44	84.9445	1,148.44	87.6514	1,148.44	83.3359	1,148.44	86.3876	1,148.44	81.7861	1,148.44	84.5555	1,148.44	80.6062	1,148.44	82.1299	1,148.44	79.8914	1,148.44	79.9807	1,148.44	79.1744	1,148.44	79.2975	1,148.44	77.7778	1,148.44	79.266	1,148.44	76.7987	1,148.44	79.0282	1,148.44	78.7384	1,148.44	78.6107	1,148.44	80.1523	1,148.44	78.0802	1,148.44	78.9817	1,148.44	78.0173	1,148.44	77.3917	1,148.44	79.1887	1,148.44	79.1413	1,148.44	80.1084
1,189.45	89.3494	1,189.45	89.5909	1,189.45	88.823	1,189.45	89.5642	1,189.45	88.0573	1,189.45	89.2911	1,189.45	87.1205	1,189.45	88.7731	1,189.45	86.0199	1,189.45	88.0251	1,189.45	84.8024	1,189.45	87.0531	1,189.45	83.6612	1,189.45	85.7455	1,189.45	82.682	1,189.45	83.8402	1,189.45	81.6035	1,189.45	81.1723	1,189.45	80.1447	1,189.45	78.5762	1,189.45	78.3203	1,189.45	77.9848	1,189.45	76.0928	1,189.45	78.5327	1,189.45	75.2613	1,189.45	78.9019	1,189.45	78.1476	1,189.45	78.9511	1,189.45	79.8463	1,189.45	78.6563	1,189.45	78.9464	1,189.45	78.393	1,189.45	77.228	1,189.45	78.7014	1,189.45	77.8674	1,189.45	78.8435
1,230.47	89.2769	1,230.47	89.5448	1,230.47	88.5767	1,230.47	89.4188	1,230.47	87.5848	1,230.47	88.9988	1,230.47	86.5514	1,230.47	88.3386	1,230.47	85.5315	1,230.47	87.3715	1,230.47	84.4509	1,230.47	85.996	1,230.47	83.3919	1,230.47	84.3075	1,230.47	82.3699	1,230.47	82.4674	1,230.47	81.0953	1,230.47	80.1151	1,230.47	79.4123	1,230.47	76.7508	1,230.47	77.8952	1,230.47	74.8617	1,230.47	77.097	1,230.47	76.7408	1,230.47	77.1516	1,230.47	78.3526	1,230.47	78.3625	1,230.47	78.535	1,230.47	78.8719	1,230.47	77.5214	1,230.47	77.9242	1,230.47	76.8174	1,230.47	77.6433	1,230.47	77.4207	1,230.47	78.3044	1,230.47	78.2372
1,274.41	88.9451	1,274.41	89.3105	1,274.41	88.2104	1,274.41	89.2119	1,274.41	87.2924	1,274.41	88.7236	1,274.41	86.1979	1,274.41	87.9585	1,274.41	84.8813	1,274.41	86.9397	1,274.41	83.5546	1,274.41	85.565	1,274.41	82.4207	1,274.41	83.8363	1,274.41	81.4553	1,274.41	82.1191	1,274.41	80.4954	1,274.41	80.5423	1,274.41	79.1282	1,274.41	78.1015	1,274.41	77.4253	1,274.41	73.6199	1,274.41	76.4813	1,274.41	72.2355	1,274.41	75.7483	1,274.41	76.7318	1,274.41	75.3234	1,274.41	79.1046	1,274.41	77.1887	1,274.41	79.0738	1,274.41	77.7817	1,274.41	78.2774	1,274.41	77.2968	1,274.41	78.7663	1,274.41	78.3062	1,274.41	79.1933
1,319.82	88.4955	1,319.82	89.0257	1,319.82	87.7168	1,319.82	89.1316	1,319.82	86.9348	1,319.82	88.7297	1,319.82	86.099	1,319.82	87.7916	1,319.82	84.8419	1,319.82	86.4276	1,319.82	83.1804	1,319.82	84.8232	1,319.82	81.6926	1,319.82	82.9366	1,319.82	80.8537	1,319.82	80.8362	1,319.82	80.2618	1,319.82	79.5166	1,319.82	78.8674	1,319.82	78.7766	1,319.82	76.6788	1,319.82	76.7913	1,319.82	75.3856	1,319.82	73.5342	1,319.82	75.2232	1,319.82	73.6823	1,319.82	76.878	1,319.82	76.7328	1,319.82	78.7358	1,319.82	77.7822	1,319.82	78.3581	1,319.82	77.3001	1,319.82	77.6615	1,319.82	77.736	1,319.82	78.6336	1,319.82	78.8413
1,366.7	88.0667	1,366.7	88.7967	1,366.7	87.2472	1,366.7	89.1053	1,366.7	86.4758	1,366.7	88.8358	1,366.7	85.5426	1,366.7	88.006	1,366.7	84.4562	1,366.7	86.6767	1,366.7	83.53	1,366.7	84.9645	1,366.7	82.558	1,366.7	82.9144	1,366.7	81.2963	1,366.7	80.2564	1,366.7	80.0336	1,366.7	76.997	1,366.7	78.4844	1,366.7	74.7831	1,366.7	75.6863	1,366.7	73.8824	1,366.7	73.6901	1,366.7	71.4038	1,366.7	75.9296	1,366.7	71.304	1,366.7	76.6455	1,366.7	76.2878	1,366.7	76.821	1,366.7	78.7458	1,366.7	77.4577	1,366.7	78.6065	1,366.7	77.1508	1,366.7	77.9089	1,366.7	77.5437	1,366.7	78.088
1,413.57	88.2536	1,413.57	89.0141	1,413.57	87.1946	1,413.57	89.0254	1,413.57	86.545	1,413.57	88.6471	1,413.57	85.8801	1,413.57	88.1979	1,413.57	84.7778	1,413.57	87.4077	1,413.57	83.618	1,413.57	86.0641	1,413.57	82.3931	1,413.57	84.4746	1,413.57	80.8184	1,413.57	82.6773	1,413.57	79.9459	1,413.57	80.0261	1,413.57	79.4339	1,413.57	77.7063	1,413.57	77.2247	1,413.57	77.9864	1,413.57	71.9615	1,413.57	77.0311	1,413.57	70.4015	1,413.57	72.7378	1,413.57	75.18	1,413.57	76.0684	1,413.57	77.9566	1,413.57	77.9217	1,413.57	77.4247	1,413.57	76.9997	1,413.57	77.6084	1,413.57	77.3021	1,413.57	79.1381	1,413.57	78.8488
1,463.38	88.9937	1,463.38	89.5492	1,463.38	88.296	1,463.38	89.6373	1,463.38	87.6693	1,463.38	89.3839	1,463.38	86.4223	1,463.38	88.8558	1,463.38	84.8878	1,463.38	87.9941	1,463.38	84.2695	1,463.38	86.9093	1,463.38	83.7583	1,463.38	85.76	1,463.38	82.232	1,463.38	84.164	1,463.38	81.1951	1,463.38	81.4765	1,463.38	81.5287	1,463.38	79.3558	1,463.38	80.2925	1,463.38	80.007	1,463.38	76.0644	1,463.38	79.4529	1,463.38	70.1122	1,463.38	74.7261	1,463.38	71.9178	1,463.38	74.2093	1,463.38	76.0171	1,463.38	76.892	1,463.38	76.3222	1,463.38	76.6974	1,463.38	78.266	1,463.38	77.994	1,463.38	80.5445	1,463.38	80.2726
1,516.11	89.1341	1,516.11	89.787	1,516.11	88.6773	1,516.11	89.9743	1,516.11	87.9376	1,516.11	89.4534	1,516.11	86.0524	1,516.11	88.4719	1,516.11	84.5269	1,516.11	87.434	1,516.11	84.6318	1,516.11	86.5921	1,516.11	84.6349	1,516.11	85.8949	1,516.11	83.1398	1,516.11	84.8295	1,516.11	80.4	1,516.11	82.3879	1,516.11	79.4686	1,516.11	79.2666	1,516.11	80.3923	1,516.11	80.4916	1,516.11	79.4374	1,516.11	81.3905	1,516.11	76.083	1,516.11	77.6989	1,516.11	73.4853	1,516.11	69.7018	1,516.11	73.3537	1,516.11	73.3038	1,516.11	72.2071	1,516.11	74.7875	1,516.11	73.1029	1,516.11	77.1382	1,516.11	78.757	1,516.11	79.9065
1,568.85	89.0686	1,568.85	89.7983	1,568.85	88.3213	1,568.85	90.1355	1,568.85	87.4294	1,568.85	89.7749	1,568.85	85.9874	1,568.85	88.6489	1,568.85	84.7831	1,568.85	87.0677	1,568.85	84.1645	1,568.85	85.5307	1,568.85	83.4689	1,568.85	84.0354	1,568.85	82.1221	1,568.85	82.1352	1,568.85	80.1276	1,568.85	78.2794	1,568.85	79.2567	1,568.85	68.2011	1,568.85	79.4179	1,568.85	73.1717	1,568.85	78.1832	1,568.85	78.1363	1,568.85	75.9113	1,568.85	77.7851	1,568.85	73.6166	1,568.85	72.8137	1,568.85	74.5819	1,568.85	74.3265	1,568.85	74.0715	1,568.85	75.9445	1,568.85	73.479	1,568.85	75.5445	1,568.85	76.64	1,568.85	77.1198
1,624.51	88.4502	1,624.51	89.7161	1,624.51	87.7727	1,624.51	90.4199	1,624.51	86.8653	1,624.51	89.8901	1,624.51	85.4595	1,624.51	88.4211	1,624.51	85.3849	1,624.51	86.4802	1,624.51	85.03	1,624.51	84.8447	1,624.51	83.8446	1,624.51	83.9612	1,624.51	82.5621	1,624.51	82.9015	1,624.51	80.8361	1,624.51	80.8214	1,624.51	79.2235	1,624.51	77.1311	1,624.51	78.7531	1,624.51	69.6005	1,624.51	78.5193	1,624.51	72.4198	1,624.51	77.6388	1,624.51	75.8695	1,624.51	70.9652	1,624.51	72.1264	1,624.51	72.808	1,624.51	70.8069	1,624.51	75.8116	1,624.51	73.7357	1,624.51	74.0518	1,624.51	74.8881	1,624.51	75.4594	1,624.51	75.7925
1,681.64	89.0206	1,681.64	89.9229	1,681.64	88.0784	1,681.64	90.4873	1,681.64	86.2825	1,681.64	89.7186	1,681.64	85.585	1,681.64	88.3837	1,681.64	86.0208	1,681.64	87.1804	1,681.64	84.98	1,681.64	85.2138	1,681.64	83.4885	1,681.64	82.8295	1,681.64	82.8482	1,681.64	81.0829	1,681.64	81.5706	1,681.64	78.1234	1,681.64	78.715	1,681.64	74.4203	1,681.64	77.1676	1,681.64	71.1065	1,681.64	77.151	1,681.64	68.1538	1,681.64	76.0521	1,681.64	69.181	1,681.64	73.6312	1,681.64	68.5145	1,681.64	72.6333	1,681.64	70.9078	1,681.64	73.1377	1,681.64	74.7444	1,681.64	73.7558	1,681.64	75.8307	1,681.64	75.5795	1,681.64	75.7961
1,741.7	89.8382	1,741.7	90.4121	1,741.7	87.9744	1,741.7	90.1273	1,741.7	86.3751	1,741.7	89.3943	1,741.7	86.3701	1,741.7	88.2322	1,741.7	86.1223	1,741.7	86.89	1,741.7	84.9057	1,741.7	84.8019	1,741.7	83.9023	1,741.7	81.2017	1,741.7	83.7708	1,741.7	78.1211	1,741.7	83.2059	1,741.7	77.7902	1,741.7	81.3214	1,741.7	77.1458	1,741.7	79.4108	1,741.7	74.2017	1,741.7	77.6737	1,741.7	71.5128	1,741.7	74.9686	1,741.7	71.9661	1,741.7	75.9201	1,741.7	71.8809	1,741.7	76.5009	1,741.7	73.6513	1,741.7	75.1469	1,741.7	74.1467	1,741.7	74.9111	1,741.7	73.6662	1,741.7	77.456	1,741.7	76.3234
1,803.22	89.3299	1,803.22	91.1027	1,803.22	87.7073	1,803.22	91.2481	1,803.22	86.2457	1,803.22	89.6514	1,803.22	86.3593	1,803.22	88.1157	1,803.22	87.3008	1,803.22	87.071	1,803.22	86.1142	1,803.22	84.3064	1,803.22	84.042	1,803.22	80.2153	1,803.22	82.9963	1,803.22	78.0714	1,803.22	82.7172	1,803.22	76.1426	1,803.22	81.2284	1,803.22	74.9646	1,803.22	78.2443	1,803.22	76.7643	1,803.22	77.7992	1,803.22	77.0659	1,803.22	75.4168	1,803.22	73.9772	1,803.22	76.8807	1,803.22	66.2163	1,803.22	79.5377	1,803.22	68.3832	1,803.22	75.7918	1,803.22	74.3503	1,803.22	75.7471	1,803.22	74.4126	1,803.22	78.2099	1,803.22	75.7313
1,866.21	89.5888	1,866.21	90.7554	1,866.21	87.3813	1,866.21	91.2144	1,866.21	85.6826	1,866.21	90.2343	1,866.21	87.5388	1,866.21	87.813	1,866.21	87.9454	1,866.21	86.0122	1,866.21	87.0692	1,866.21	84.3882	1,866.21	85.6191	1,866.21	80.3204	1,866.21	83.2377	1,866.21	77.6687	1,866.21	82.3498	1,866.21	78.5823	1,866.21	81.7298	1,866.21	74.8878	1,866.21	78.3052	1,866.21	76.047	1,866.21	79.5667	1,866.21	77.9647	1,866.21	79.2565	1,866.21	74.1876	1,866.21	73.8654	1,866.21	64.5604	1,866.21	79.3163	1,866.21	70.0799	1,866.21	76.9408	1,866.21	75.2111	1,866.21	70.7212	1,866.21	74.6597	1,866.21	76.7339	1,866.21	75.1792
1,932.13	89.3414	1,932.13	90.3415	1,932.13	87.3583	1,932.13	90.6111	1,932.13	86.6165	1,932.13	90.2109	1,932.13	87.6642	1,932.13	88.4232	1,932.13	88.1586	1,932.13	85.2695	1,932.13	87.9009	1,932.13	82.5689	1,932.13	86.4666	1,932.13	80.365	1,932.13	83.2139	1,932.13	76.4896	1,932.13	80.9516	1,932.13	73.2295	1,932.13	82.3094	1,932.13	58.03	1,932.13	79.3808	1,932.13	72.0758	1,932.13	76.5508	1,932.13	75.9388	1,932.13	81.2223	1,932.13	75.9926	1,932.13	77.196	1,932.13	73.0229	1,932.13	78.002	1,932.13	69.9045	1,932.13	77.6964	1,932.13	71.5413	1,932.13	74.0527	1,932.13	70.4904	1,932.13	74.546	1,932.13	73.6748
1,999.51	89.3601	1,999.51	90.5031	1,999.51	87.1722	1,999.51	91.115	1,999.51	86.7378	1,999.51	90.2753	1,999.51	88.399	1,999.51	87.7988	1,999.51	88.6241	1,999.51	85.7039	1,999.51	87.8182	1,999.51	83.4693	1,999.51	86.5291	1,999.51	78.6855	1,999.51	85.3915	1,999.51	72.5794	1,999.51	83.1615	1,999.51	75.7019	1,999.51	83.4437	1,999.51	72.0589	1,999.51	83.1044	1,999.51	73.9441	1,999.51	68.5511	1,999.51	71.8672	1,999.51	80.124	1,999.51	69.7362	1,999.51	81.2274	1,999.51	74.0739	1,999.51	78.5454	1,999.51	69.145	1,999.51	79.1486	1,999.51	71.0748	1,999.51	77.2773	1,999.51	73.0005	1,999.51	72.1351	1,999.51	69.3999
2,069.82	88.6905	2,069.82	90.8381	2,069.82	85.5382	2,069.82	91.258	2,069.82	86.575	2,069.82	90.8109	2,069.82	88.2965	2,069.82	88.4092	2,069.82	89.8907	2,069.82	84.6969	2,069.82	88.8467	2,069.82	81.3598	2,069.82	87.0832	2,069.82	74.4311	2,069.82	86.9514	2,069.82	63.6698	2,069.82	85.4446	2,069.82	71.0679	2,069.82	83.5376	2,069.82	68.8981	2,069.82	84.8631	2,069.82	75.2146	2,069.82	81.1584	2,069.82	74.9684	2,069.82	76.1255	2,069.82	73.9202	2,069.82	81.6304	2,069.82	76.7757	2,069.82	80.5692	2,069.82	66.2192	2,069.82	74.3419	2,069.82	63.933	2,069.82	78.1057	2,069.82	75.8483	2,069.82	70.5228	2,069.82	74.5429
2,143.07	88.8624	2,143.07	91.2872	2,143.07	85.9473	2,143.07	91.8993	2,143.07	85.5413	2,143.07	90.3373	2,143.07	88.7443	2,143.07	87.5609	2,143.07	89.3231	2,143.07	85.0374	2,143.07	88.089	2,143.07	81.6185	2,143.07	87.4331	2,143.07	75.4638	2,143.07	86.4268	2,143.07	67.4515	2,143.07	84.2792	2,143.07	70.5577	2,143.07	80.7717	2,143.07	67.9755	2,143.07	82.8878	2,143.07	78.6503	2,143.07	82.5482	2,143.07	79.4335	2,143.07	80.2022	2,143.07	77.4045	2,143.07	69.9185	2,143.07	75.4149	2,143.07	80.667	2,143.07	65.0026	2,143.07	74.3448	2,143.07	69.7425	2,143.07	77.3182	2,143.07	70.2249	2,143.07	75.942	2,143.07	65.9989
2,219.24	88.6418	2,219.24	91.2219	2,219.24	85.014	2,219.24	91.4153	2,219.24	85.7624	2,219.24	90.1031	2,219.24	88.1392	2,219.24	86.8906	2,219.24	88.6377	2,219.24	81.8342	2,219.24	88.0811	2,219.24	79.0301	2,219.24	86.1336	2,219.24	72.6796	2,219.24	81.9576	2,219.24	72.1678	2,219.24	79.823	2,219.24	73.9679	2,219.24	76.9307	2,219.24	73.891	2,219.24	70.6315	2,219.24	79.7298	2,219.24	78.5702	2,219.24	78.8348	2,219.24	79.3212	2,219.24	74.2125	2,219.24	77.5435	2,219.24	69.4763	2,219.24	70.9319	2,219.24	66.7935	2,219.24	74.6679	2,219.24	66.6409	2,219.24	76.8831	2,219.24	69.9818	2,219.24	75.1602	2,219.24	71.6692
2,296.88	87.1829	2,296.88	90.1867	2,296.88	82.9019	2,296.88	90.5025	2,296.88	84.7737	2,296.88	88.4564	2,296.88	88.8123	2,296.88	85.8149	2,296.88	88.9788	2,296.88	79.457	2,296.88	87.5326	2,296.88	67.8788	2,296.88	85.1426	2,296.88	72.4714	2,296.88	81.621	2,296.88	70.5667	2,296.88	77.9945	2,296.88	74.5736	2,296.88	75.922	2,296.88	73.2019	2,296.88	70.8879	2,296.88	71.3893	2,296.88	72.0887	2,296.88	71.8487	2,296.88	79.3803	2,296.88	71.2084	2,296.88	77.0244	2,296.88	70.7461	2,296.88	74.4429	2,296.88	61.6043	2,296.88	49.9655	2,296.88	51.4841	2,296.88	74.3243	2,296.88	69.5321	2,296.88	71.2653	2,296.88	72.1332
2,378.91	86.2095	2,378.91	89.2708	2,378.91	79.4423	2,378.91	90.348	2,378.91	84.9954	2,378.91	89.1804	2,378.91	88.278	2,378.91	85.2207	2,378.91	88.9751	2,378.91	79.7557	2,378.91	87.6965	2,378.91	70.5949	2,378.91	84.1953	2,378.91	73.9288	2,378.91	81.0698	2,378.91	76.6625	2,378.91	79.4301	2,378.91	73.2761	2,378.91	76.0568	2,378.91	72.7574	2,378.91	74.094	2,378.91	68.6667	2,378.91	70.2964	2,378.91	65.0612	2,378.91	76.1968	2,378.91	72.7179	2,378.91	77.5219	2,378.91	72.8068	2,378.91	73.3976	2,378.91	57.9961	2,378.91	72.0135	2,378.91	57.8443	2,378.91	64.3238	2,378.91	66.7669	2,378.91	70.1709	2,378.91	71.2448
2,462.4	84.5416	2,462.4	89.2958	2,462.4	77.5135	2,462.4	90.6456	2,462.4	85.0895	2,462.4	88.8232	2,462.4	88.1886	2,462.4	84.0821	2,462.4	88.3384	2,462.4	77.7605	2,462.4	87.1453	2,462.4	71.905	2,462.4	84.0897	2,462.4	73.8104	2,462.4	78.9648	2,462.4	76.5033	2,462.4	76.1359	2,462.4	76.4455	2,462.4	72.7656	2,462.4	75.0943	2,462.4	68.5108	2,462.4	75.2315	2,462.4	69.5987	2,462.4	72.3921	2,462.4	71.3298	2,462.4	72.6355	2,462.4	77.2805	2,462.4	74.2315	2,462.4	72.2133	2,462.4	67.4992	2,462.4	68.6328	2,462.4	57.4625	2,462.4	65.025	2,462.4	66.0074	2,462.4	69.3908	2,462.4	70.8513
2,548.83	83.484	2,548.83	88.8276	2,548.83	78.2173	2,548.83	90.1492	2,548.83	86.4779	2,548.83	88.559	2,548.83	89.0298	2,548.83	84.7791	2,548.83	88.3555	2,548.83	76.2243	2,548.83	85.8908	2,548.83	71.5576	2,548.83	82.7449	2,548.83	76.3276	2,548.83	78.0393	2,548.83	79.0148	2,548.83	74.0197	2,548.83	79.0611	2,548.83	73.3705	2,548.83	76.2775	2,548.83	59.2462	2,548.83	75.359	2,548.83	67.0883	2,548.83	74.6611	2,548.83	66.5516	2,548.83	71.0269	2,548.83	76.2592	2,548.83	74.224	2,548.83	73.9346	2,548.83	72.1974	2,548.83	62.2906	2,548.83	60.6181	2,548.83	66.096	2,548.83	69.3421	2,548.83	71.8507	2,548.83	73.3505
2,639.65	83.584	2,639.65	89.3337	2,639.65	79.4968	2,639.65	90.2053	2,639.65	87.0064	2,639.65	88.5635	2,639.65	89.0654	2,639.65	84.5899	2,639.65	88.2903	2,639.65	75.3218	2,639.65	85.268	2,639.65	73.5273	2,639.65	80.8572	2,639.65	78.5934	2,639.65	76.2451	2,639.65	78.6703	2,639.65	72.7143	2,639.65	79.8502	2,639.65	69.9611	2,639.65	78.9053	2,639.65	64.2952	2,639.65	77.0385	2,639.65	65.3532	2,639.65	76.4424	2,639.65	67.5571	2,639.65	72.8939	2,639.65	72.988	2,639.65	73.5663	2,639.65	74.159	2,639.65	73.1421	2,639.65	69.3007	2,639.65	62.2908	2,639.65	66.2271	2,639.65	70.0387	2,639.65	75.7298	2,639.65	76.1966
2,731.93	83.0118	2,731.93	89.4397	2,731.93	81.4233	2,731.93	90.6724	2,731.93	88.1473	2,731.93	88.7494	2,731.93	89.2384	2,731.93	83.8024	2,731.93	87.8753	2,731.93	72.0163	2,731.93	84.5314	2,731.93	75.6963	2,731.93	79.0182	2,731.93	80.4715	2,731.93	71.4528	2,731.93	81.1163	2,731.93	68.808	2,731.93	80.7965	2,731.93	62.1792	2,731.93	79.4689	2,731.93	70.2306	2,731.93	76.5838	2,731.93	69.0455	2,731.93	75.9485	2,731.93	67.6633	2,731.93	73.8829	2,731.93	72.5232	2,731.93	72.5222	2,731.93	73.0904	2,731.93	73.4047	2,731.93	70.7841	2,731.93	64.4428	2,731.93	66.5655	2,731.93	68.7304	2,731.93	76.0693	2,731.93	75.6355
2,828.61	82.3746	2,828.61	89.4411	2,828.61	82.9228	2,828.61	91.0969	2,828.61	88.967	2,828.61	89.1263	2,828.61	89.5288	2,828.61	82.5426	2,828.61	87.2306	2,828.61	65.4118	2,828.61	83.3966	2,828.61	77.5807	2,828.61	77.5395	2,828.61	81.7981	2,828.61	66.6074	2,828.61	82.1138	2,828.61	68.6529	2,828.61	81.0813	2,828.61	60.9104	2,828.61	79.5061	2,828.61	69.4149	2,828.61	77.2566	2,828.61	67.5923	2,828.61	76.1284	2,828.61	65.6234	2,828.61	74.5876	2,828.61	72.5078	2,828.61	72.3008	2,828.61	71.9486	2,828.61	73.7043	2,828.61	70.8165	2,828.61	67.5659	2,828.61	66.967	2,828.61	65.8528	2,828.61	75.8325	2,828.61	74.6864
2,928.22	83.884	2,928.22	90.7812	2,928.22	85.1161	2,928.22	91.5649	2,928.22	89.8978	2,928.22	88.8908	2,928.22	89.9013	2,928.22	82.6624	2,928.22	87.1561	2,928.22	69.3717	2,928.22	82.6593	2,928.22	80.5842	2,928.22	77.4488	2,928.22	83.0199	2,928.22	69.0906	2,928.22	82.9747	2,928.22	68.6577	2,928.22	81.5897	2,928.22	62.6526	2,928.22	80.4403	2,928.22	68.8328	2,928.22	78.1391	2,928.22	69.1076	2,928.22	76.587	2,928.22	66.1615	2,928.22	75.4146	2,928.22	72.5571	2,928.22	72.7818	2,928.22	71.822	2,928.22	73.298	2,928.22	71.1686	2,928.22	68.97	2,928.22	67.8925	2,928.22	64.0858	2,928.22	75.145	2,928.22	73.7522
3,030.76	86.0747	3,030.76	92.0499	3,030.76	86.4703	3,030.76	92.821	3,030.76	90.7338	3,030.76	89.7394	3,030.76	90.177	3,030.76	81.6061	3,030.76	86.8389	3,030.76	75.7829	3,030.76	82.424	3,030.76	82.6989	3,030.76	77.2769	3,030.76	84.1502	3,030.76	70.6535	3,030.76	83.5705	3,030.76	72.1226	3,030.76	81.8638	3,030.76	69.4288	3,030.76	79.8116	3,030.76	71.6216	3,030.76	77.7476	3,030.76	74.1857	3,030.76	76.0273	3,030.76	66.9261	3,030.76	74.9382	3,030.76	69.8326	3,030.76	72.3212	3,030.76	70.4764	3,030.76	73.0881	3,030.76	68.2593	3,030.76	68.8255	3,030.76	68.3142	3,030.76	68.1653	3,030.76	74.7408	3,030.76	73.0354
3,137.7	87.7945	3,137.7	93.2716	3,137.7	85.3623	3,137.7	92.9975	3,137.7	90.142	3,137.7	88.277	3,137.7	89.6245	3,137.7	76.1668	3,137.7	85.6202	3,137.7	80.2929	3,137.7	81.657	3,137.7	84.2498	3,137.7	78.9815	3,137.7	84.6825	3,137.7	74.132	3,137.7	82.9817	3,137.7	75.1758	3,137.7	80.691	3,137.7	75.3457	3,137.7	79.7551	3,137.7	67.5282	3,137.7	77.5987	3,137.7	75.6064	3,137.7	74.7365	3,137.7	68.5747	3,137.7	75.5551	3,137.7	59.8202	3,137.7	72.5833	3,137.7	68.1865	3,137.7	71.3762	3,137.7	71.5775	3,137.7	69.3375	3,137.7	71.7092	3,137.7	68.6134	3,137.7	75.8498	3,137.7	75.7771
3,249.02	87.3002	3,249.02	92.8198	3,249.02	81.9009	3,249.02	91.7781	3,249.02	88.8469	3,249.02	85.1204	3,249.02	88.2353	3,249.02	61.2385	3,249.02	83.893	3,249.02	81.4758	3,249.02	80.443	3,249.02	84.1779	3,249.02	80.4731	3,249.02	83.3583	3,249.02	77.7068	3,249.02	82.5873	3,249.02	77.0767	3,249.02	82.7754	3,249.02	77.8003	3,249.02	79.6295	3,249.02	72.7299	3,249.02	78.4799	3,249.02	77.5435	3,249.02	75.0913	3,249.02	70.811	3,249.02	74.0013	3,249.02	61.6581	3,249.02	75.3276	3,249.02	69.0874	3,249.02	72.0597	3,249.02	72.8236	3,249.02	70.5404	3,249.02	73.1241	3,249.02	63.9975	3,249.02	74.6563	3,249.02	73.4824
3,363.28	85.2006	3,363.28	91.7412	3,363.28	81.3584	3,363.28	90.6104	3,363.28	88.2107	3,363.28	83.7785	3,363.28	86.3972	3,363.28	68.8016	3,363.28	80.689	3,363.28	81.5667	3,363.28	80.4436	3,363.28	83.2461	3,363.28	81.2061	3,363.28	83.9261	3,363.28	80.8009	3,363.28	84.5754	3,363.28	81.4666	3,363.28	82.3583	3,363.28	79.452	3,363.28	80.7887	3,363.28	76.342	3,363.28	79.5431	3,363.28	79.1543	3,363.28	77.0285	3,363.28	70.6279	3,363.28	74.4588	3,363.28	59.0268	3,363.28	73.4327	3,363.28	71.9774	3,363.28	73.099	3,363.28	71.6871	3,363.28	71.4136	3,363.28	71.6485	3,363.28	64.1662	3,363.28	74.2804	3,363.28	73.65
3,481.93	83.5777	3,481.93	91.3949	3,481.93	83.0348	3,481.93	90.4247	3,481.93	88.4263	3,481.93	83.1289	3,481.93	85.5477	3,481.93	72.7507	3,481.93	76.1847	3,481.93	81.9739	3,481.93	81.4652	3,481.93	84.8306	3,481.93	82.6256	3,481.93	86.4567	3,481.93	81.2486	3,481.93	84.3339	3,481.93	83.7146	3,481.93	84.1649	3,481.93	79.9286	3,481.93	82.1416	3,481.93	79.9774	3,481.93	79.0682	3,481.93	80.2041	3,481.93	77.4272	3,481.93	71.3822	3,481.93	75.7343	3,481.93	57.7981	3,481.93	74.5571	3,481.93	72.1272	3,481.93	73.1369	3,481.93	72.314	3,481.93	72.1069	3,481.93	72.7639	3,481.93	67.7521	3,481.93	74.9036	3,481.93	74.0406
3,604.98	81.9947	3,604.98	91.5381	3,604.98	84.6954	3,604.98	90.8958	3,604.98	89.2255	3,604.98	82.3533	3,604.98	86.1898	3,604.98	76.7252	3,604.98	70.8579	3,604.98	82.6243	3,604.98	82.6828	3,604.98	86.8351	3,604.98	84.2982	3,604.98	86.5998	3,604.98	82.918	3,604.98	85.8169	3,604.98	84.2697	3,604.98	84.5023	3,604.98	78.9078	3,604.98	80.7803	3,604.98	78.324	3,604.98	79.5482	3,604.98	81.2474	3,604.98	76.1813	3,604.98	75.1798	3,604.98	74.8567	3,604.98	53.1574	3,604.98	74.8637	3,604.98	71.028	3,604.98	73.9006	3,604.98	72.9015	3,604.98	71.1336	3,604.98	71.7217	3,604.98	67.8399	3,604.98	74.4724	3,604.98	74.8105
3,732.42	81.9302	3,732.42	91.952	3,732.42	86.0126	3,732.42	90.575	3,732.42	89.8882	3,732.42	80.6466	3,732.42	86.79	3,732.42	76.941	3,732.42	67.3692	3,732.42	85.1185	3,732.42	83.7833	3,732.42	87.2757	3,732.42	85.1806	3,732.42	86.7539	3,732.42	84.3168	3,732.42	85.5386	3,732.42	83.6988	3,732.42	81.5831	3,732.42	73.6312	3,732.42	80.4379	3,732.42	77.8005	3,732.42	77.0356	3,732.42	80.189	3,732.42	74.393	3,732.42	78.7762	3,732.42	72.8373	3,732.42	63.5942	3,732.42	72.8251	3,732.42	71.5848	3,732.42	74.4744	3,732.42	73.8139	3,732.42	73.1992	3,732.42	71.6882	3,732.42	64.9805	3,732.42	74.791	3,732.42	75.0328
3,864.26	84.0011	3,864.26	92.4472	3,864.26	85.7071	3,864.26	90.2531	3,864.26	90.3125	3,864.26	80.9041	3,864.26	86.9606	3,864.26	79.5566	3,864.26	63.1397	3,864.26	87.1696	3,864.26	83.3983	3,864.26	87.7438	3,864.26	85.6686	3,864.26	86.872	3,864.26	84.6799	3,864.26	82.2016	3,864.26	83.3717	3,864.26	82.503	3,864.26	77.0085	3,864.26	79.665	3,864.26	74.7815	3,864.26	77.3093	3,864.26	80.6261	3,864.26	74.2709	3,864.26	78.0575	3,864.26	72.0682	3,864.26	61.2406	3,864.26	69.1482	3,864.26	72.7078	3,864.26	70.8729	3,864.26	72.7855	3,864.26	72.4194	3,864.26	69.0591	3,864.26	63.7174	3,864.26	75.2624	3,864.26	73.7507
4,000.49	84.652	4,000.49	91.6194	4,000.49	84.0171	4,000.49	89.0019	4,000.49	90.294	4,000.49	78.1663	4,000.49	87.8849	4,000.49	83.585	4,000.49	68.5301	4,000.49	88.1336	4,000.49	81.8202	4,000.49	87.4145	4,000.49	85.0565	4,000.49	83.4985	4,000.49	82.7545	4,000.49	83.5467	4,000.49	81.0062	4,000.49	82.2787	4,000.49	74.185	4,000.49	79.2943	4,000.49	69.0038	4,000.49	77.5566	4,000.49	79.3004	4,000.49	75.3677	4,000.49	75.9414	4,000.49	73.1578	4,000.49	59.4232	4,000.49	69.3121	4,000.49	74.4359	4,000.49	69.0841	4,000.49	70.8431	4,000.49	70.4729	4,000.49	67.5158	4,000.49	69.1802	4,000.49	75.9506	4,000.49	71.1751
4,141.11	83.9876	4,141.11	90.702	4,141.11	82.4328	4,141.11	88.3834	4,141.11	89.4904	4,141.11	78.984	4,141.11	87.2582	4,141.11	85.275	4,141.11	71.8955	4,141.11	88.1903	4,141.11	84.2264	4,141.11	85.9534	4,141.11	84.8995	4,141.11	85.1628	4,141.11	82.4719	4,141.11	83.1422	4,141.11	78.3716	4,141.11	81.0586	4,141.11	75.4185	4,141.11	80.6817	4,141.11	63.3369	4,141.11	77.3836	4,141.11	79.5936	4,141.11	75.809	4,141.11	75.2582	4,141.11	72.619	4,141.11	66.0683	4,141.11	70.8563	4,141.11	74.1472	4,141.11	67.7973	4,141.11	69.3208	4,141.11	68.3071	4,141.11	71.1205	4,141.11	67.0907	4,141.11	74.9719	4,141.11	70.7176
4,287.6	82.7926	4,287.6	89.6108	4,287.6	83.0538	4,287.6	88.1529	4,287.6	89.0716	4,287.6	79.0595	4,287.6	86.3148	4,287.6	86.5351	4,287.6	75.4543	4,287.6	87.3726	4,287.6	85.0997	4,287.6	86.5118	4,287.6	85.704	4,287.6	84.7379	4,287.6	83.3245	4,287.6	83.9218	4,287.6	75.2817	4,287.6	82.9721	4,287.6	77.9203	4,287.6	78.8421	4,287.6	70.8315	4,287.6	77.6886	4,287.6	78.5477	4,287.6	75.3773	4,287.6	77.8098	4,287.6	72.4911	4,287.6	68.2023	4,287.6	70.454	4,287.6	71.2923	4,287.6	68.2453	4,287.6	73.6448	4,287.6	68.7699	4,287.6	73.0997	4,287.6	67.0424	4,287.6	74.5271	4,287.6	72.9362
4,438.48	81.0694	4,438.48	89.1528	4,438.48	83.2139	4,438.48	88.4068	4,438.48	88.735	4,438.48	78.2185	4,438.48	86.468	4,438.48	86.7581	4,438.48	75.6745	4,438.48	88.0692	4,438.48	85.157	4,438.48	87.5338	4,438.48	87.1193	4,438.48	84.5459	4,438.48	82.9445	4,438.48	83.9283	4,438.48	74.2049	4,438.48	80.4965	4,438.48	79.907	4,438.48	80.6639	4,438.48	67.1717	4,438.48	76.4051	4,438.48	77.739	4,438.48	75.1326	4,438.48	76.8848	4,438.48	71.6254	4,438.48	68.8814	4,438.48	70.8515	4,438.48	69.6859	4,438.48	64.3717	4,438.48	74.4752	4,438.48	67.8134	4,438.48	71.3485	4,438.48	64.4414	4,438.48	74.2722	4,438.48	70.1
4,595.21	79.2524	4,595.21	89.0184	4,595.21	85.0271	4,595.21	87.8964	4,595.21	88.4381	4,595.21	77.8754	4,595.21	84.756	4,595.21	87.6038	4,595.21	77.3811	4,595.21	88.6378	4,595.21	85.4818	4,595.21	86.783	4,595.21	86.1071	4,595.21	84.3313	4,595.21	79.66	4,595.21	81.8689	4,595.21	76.3212	4,595.21	81.3684	4,595.21	80.0397	4,595.21	78.8548	4,595.21	68.4315	4,595.21	77.7073	4,595.21	71.3367	4,595.21	75.0139	4,595.21	75.1745	4,595.21	72.4492	4,595.21	68.247	4,595.21	68.6834	4,595.21	71.2013	4,595.21	64.0261	4,595.21	72.5266	4,595.21	65.3993	4,595.21	71.8772	4,595.21	67.0122	4,595.21	74.5199	4,595.21	70.0048
4,756.35	78.7535	4,756.35	89.0033	4,756.35	85.0315	4,756.35	87.0912	4,756.35	88.3719	4,756.35	79.3244	4,756.35	84.3007	4,756.35	88.6592	4,756.35	79.7796	4,756.35	89.0725	4,756.35	84.3799	4,756.35	86.0003	4,756.35	84.7921	4,756.35	82.9937	4,756.35	79.2875	4,756.35	82.2628	4,756.35	81.2592	4,756.35	80.4915	4,756.35	79.3278	4,756.35	79.8687	4,756.35	70.6586	4,756.35	77.7436	4,756.35	68.3031	4,756.35	75.6934	4,756.35	74.5986	4,756.35	73.961	4,756.35	72.3889	4,756.35	71.6555	4,756.35	70.5521	4,756.35	63.9251	4,756.35	70.7324	4,756.35	64.4871	4,756.35	70.1856	4,756.35	61.6204	4,756.35	73.2434	4,756.35	69.9121
4,924.8	79.6646	4,924.8	88.918	4,924.8	85.1835	4,924.8	85.6351	4,924.8	88.5099	4,924.8	82.2691	4,924.8	84.9296	4,924.8	89.4107	4,924.8	80.9139	4,924.8	88.1376	4,924.8	83.7545	4,924.8	84.671	4,924.8	84.909	4,924.8	83.5336	4,924.8	83.468	4,924.8	82.4803	4,924.8	82.2407	4,924.8	81.8579	4,924.8	80.0799	4,924.8	80.2824	4,924.8	74.8709	4,924.8	77.7983	4,924.8	63.158	4,924.8	75.4192	4,924.8	73.7619	4,924.8	73.9248	4,924.8	72.5442	4,924.8	73.1866	4,924.8	72.8936	4,924.8	69.404	4,924.8	68.2359	4,924.8	59.0396	4,924.8	71.1035	4,924.8	68.1197	4,924.8	73.8474	4,924.8	50.4704
5,097.66	80.2877	5,097.66	88.8289	5,097.66	84.5183	5,097.66	83.6999	5,097.66	87.8592	5,097.66	84.5992	5,097.66	84.4528	5,097.66	89.3922	5,097.66	82.7788	5,097.66	87.3322	5,097.66	81.5211	5,097.66	84.1774	5,097.66	83.2844	5,097.66	83.9926	5,097.66	86.5101	5,097.66	83.4743	5,097.66	81.4475	5,097.66	81.5553	5,097.66	78.4946	5,097.66	80.6704	5,097.66	76.4261	5,097.66	77.7864	5,097.66	66.7448	5,097.66	76.1845	5,097.66	73.165	5,097.66	73.4348	5,097.66	73.1725	5,097.66	72.9733	5,097.66	73.2173	5,097.66	68.3209	5,097.66	69.9902	5,097.66	62.3148	5,097.66	69.0948	5,097.66	63.6737	5,097.66	72.8717	5,097.66	65.8355
5,277.83	81.0401	5,277.83	88.9477	5,277.83	85.1326	5,277.83	81.9101	5,277.83	87.4121	5,277.83	85.9695	5,277.83	84.4491	5,277.83	89.4172	5,277.83	85.5344	5,277.83	86.5983	5,277.83	83.9826	5,277.83	84.1409	5,277.83	83.6595	5,277.83	83.9412	5,277.83	87.4287	5,277.83	82.917	5,277.83	81.9373	5,277.83	81.2144	5,277.83	76.3619	5,277.83	80.5495	5,277.83	76.945	5,277.83	77.273	5,277.83	42.1486	5,277.83	75.3454	5,277.83	71.2737	5,277.83	71.5694	5,277.83	70.9563	5,277.83	70.9904	5,277.83	69.7341	5,277.83	69.4387	5,277.83	68.1527	5,277.83	61.1122	5,277.83	70.437	5,277.83	66.1249	5,277.83	70.4297	5,277.83	61.1886
5,463.87	82.567	5,463.87	89.2435	5,463.87	84.6235	5,463.87	78.4269	5,463.87	87.531	5,463.87	87.8558	5,463.87	83.9365	5,463.87	89.0696	5,463.87	87.2075	5,463.87	85.8803	5,463.87	85.8636	5,463.87	83.6644	5,463.87	84.5892	5,463.87	84.1576	5,463.87	86.6472	5,463.87	80.4132	5,463.87	80.9912	5,463.87	80.5655	5,463.87	76.7671	5,463.87	79.8721	5,463.87	76.8106	5,463.87	76.6149	5,463.87	64.11	5,463.87	74.8454	5,463.87	69.3997	5,463.87	72.8131	5,463.87	67.5731	5,463.87	70.9345	5,463.87	72.8994	5,463.87	68.747	5,463.87	68.3204	5,463.87	61.6547	5,463.87	72.1583	5,463.87	65.4747	5,463.87	72.8457	5,463.87	57.5777
5,657.23	84.2476	5,657.23	89.2586	5,657.23	84.3645	5,657.23	73.1315	5,657.23	87.5287	5,657.23	88.931	5,657.23	83.9681	5,657.23	88.2198	5,657.23	87.0802	5,657.23	84.8697	5,657.23	84.4966	5,657.23	83.3232	5,657.23	84.1749	5,657.23	82.8977	5,657.23	86.6656	5,657.23	82.4321	5,657.23	78.8322	5,657.23	80.4462	5,657.23	76.5424	5,657.23	80.3614	5,657.23	76.7663	5,657.23	76.3538	5,657.23	71.592	5,657.23	74.4433	5,657.23	72.9825	5,657.23	72.9241	5,657.23	70.3509	5,657.23	71.0032	5,657.23	69.6406	5,657.23	68.1105	5,657.23	66.6803	5,657.23	64.6378	5,657.23	70.7157	5,657.23	49.6013	5,657.23	69.6645	5,657.23	55.5667
5,856.45	85.8459	5,856.45	89.1771	5,856.45	84.6048	5,856.45	78.5576	5,856.45	88.0181	5,856.45	89.7377	5,856.45	84.5893	5,856.45	86.3265	5,856.45	87.7868	5,856.45	84.6578	5,856.45	84.4404	5,856.45	82.7321	5,856.45	83.2302	5,856.45	83.219	5,856.45	86.0996	5,856.45	82.9102	5,856.45	78.7274	5,856.45	80.5621	5,856.45	75.0056	5,856.45	79.2316	5,856.45	78.1111	5,856.45	76.2989	5,856.45	73.9621	5,856.45	73.4413	5,856.45	72.9922	5,856.45	71.8646	5,856.45	71.1849	5,856.45	69.3945	5,856.45	72.0525	5,856.45	69.6891	5,856.45	69.4034	5,856.45	55.9811	5,856.45	70.424	5,856.45	62.4841	5,856.45	70.1711	5,856.45	56.8718
6,062.99	86.6475	6,062.99	88.6008	6,062.99	84.8306	6,062.99	82.7499	6,062.99	88.0038	6,062.99	89.4426	6,062.99	84.8439	6,062.99	84.6503	6,062.99	87.2671	6,062.99	84.3969	6,062.99	83.9545	6,062.99	83.3493	6,062.99	83.6472	6,062.99	83.3051	6,062.99	85.6046	6,062.99	81.6593	6,062.99	81.6003	6,062.99	78.2312	6,062.99	76.796	6,062.99	79.4274	6,062.99	79.9267	6,062.99	76.6011	6,062.99	73.6609	6,062.99	74.203	6,062.99	76.8875	6,062.99	73.6438	6,062.99	73.4617	6,062.99	70.3143	6,062.99	73.4452	6,062.99	69.9446	6,062.99	68.1002	6,062.99	64.8291	6,062.99	70.3535	6,062.99	56.7796	6,062.99	72.0451	6,062.99	45.2417
6,276.86	87.1514	6,276.86	88.5417	6,276.86	85.6142	6,276.86	84.8696	6,276.86	88.5102	6,276.86	89.0799	6,276.86	85.2287	6,276.86	84.5115	6,276.86	87.1223	6,276.86	83.779	6,276.86	84.3686	6,276.86	84.6134	6,276.86	82.6341	6,276.86	81.9416	6,276.86	85.5412	6,276.86	82.7917	6,276.86	81.3676	6,276.86	79.2069	6,276.86	75.7962	6,276.86	80.6189	6,276.86	80.3759	6,276.86	77.5475	6,276.86	68.6065	6,276.86	74.6012	6,276.86	76.0276	6,276.86	74.43	6,276.86	69.1478	6,276.86	70.722	6,276.86	71.4438	6,276.86	71.1616	6,276.86	67.4762	6,276.86	64.517	6,276.86	70.9641	6,276.86	58.6667	6,276.86	70.8867	6,276.86	55.2598
6,498.05	87.9452	6,498.05	88.564	6,498.05	85.8454	6,498.05	86.3379	6,498.05	88.1063	6,498.05	88.913	6,498.05	84.7656	6,498.05	83.5198	6,498.05	86.797	6,498.05	84.0768	6,498.05	85.8803	6,498.05	84.9408	6,498.05	81.1399	6,498.05	81.51	6,498.05	84.1009	6,498.05	82.9532	6,498.05	79.3652	6,498.05	80.4051	6,498.05	69.7997	6,498.05	79.8598	6,498.05	76.5329	6,498.05	77.893	6,498.05	69.6971	6,498.05	73.5045	6,498.05	71.6254	6,498.05	74.2541	6,498.05	69.1172	6,498.05	69.9958	6,498.05	67.7546	6,498.05	71.1109	6,498.05	68.2896	6,498.05	64.7035	6,498.05	68.9505	6,498.05	56.8707	6,498.05	72.6765	6,498.05	59.4456
6,726.56	88.6272	6,726.56	88.7528	6,726.56	86.7379	6,726.56	87.4852	6,726.56	88.533	6,726.56	88.944	6,726.56	84.8294	6,726.56	82.8773	6,726.56	85.5661	6,726.56	85.0734	6,726.56	85.4483	6,726.56	84.6716	6,726.56	77.9874	6,726.56	81.9996	6,726.56	80.0703	6,726.56	82.3512	6,726.56	74.5172	6,726.56	79.7072	6,726.56	53.6145	6,726.56	78.7942	6,726.56	73.062	6,726.56	77.649	6,726.56	68.1674	6,726.56	73.5564	6,726.56	70.285	6,726.56	74.0811	6,726.56	67.8848	6,726.56	69.9236	6,726.56	65.8702	6,726.56	70.7095	6,726.56	70.1487	6,726.56	64.8169	6,726.56	68.5792	6,726.56	61.4793	6,726.56	71.9556	6,726.56	63.5178
6,963.87	89.2218	6,963.87	88.6303	6,963.87	86.9812	6,963.87	88.2294	6,963.87	88.2786	6,963.87	88.6174	6,963.87	84.5371	6,963.87	83.5157	6,963.87	83.896	6,963.87	85.4825	6,963.87	84.2119	6,963.87	84.4084	6,963.87	73.9947	6,963.87	81.7632	6,963.87	77.4727	6,963.87	82.0852	6,963.87	66.9498	6,963.87	80.0472	6,963.87	66.5169	6,963.87	78.8259	6,963.87	72.8706	6,963.87	77.5825	6,963.87	66.7611	6,963.87	73.6058	6,963.87	66.8923	6,963.87	73.6009	6,963.87	63.7485	6,963.87	71.3237	6,963.87	66.5574	6,963.87	70.5028	6,963.87	70.8726	6,963.87	66.1857	6,963.87	67.7832	6,963.87	64.9105	6,963.87	71.4144	6,963.87	63.0905
7,209.96	89.8099	7,209.96	88.4185	7,209.96	87.4201	7,209.96	88.8424	7,209.96	88.0562	7,209.96	87.9117	7,209.96	85.1326	7,209.96	84.0062	7,209.96	82.5956	7,209.96	85.0779	7,209.96	82.9365	7,209.96	84.8968	7,209.96	74.6663	7,209.96	81.2682	7,209.96	72.871	7,209.96	81.7993	7,209.96	75.1351	7,209.96	80.3588	7,209.96	71.286	7,209.96	78.3508	7,209.96	72.0108	7,209.96	77.0113	7,209.96	51.7961	7,209.96	72.7307	7,209.96	65.9399	7,209.96	72.3701	7,209.96	66.1156	7,209.96	70.9767	7,209.96	63.945	7,209.96	70.0997	7,209.96	70.5605	7,209.96	65.363	7,209.96	65.4232	7,209.96	64.5007	7,209.96	71.5492	7,209.96	62.9879
7,464.84	89.8707	7,464.84	87.6344	7,464.84	87.8636	7,464.84	89.3724	7,464.84	88.2331	7,464.84	86.3543	7,464.84	86.0227	7,464.84	85.0271	7,464.84	83.129	7,464.84	84.942	7,464.84	83.1282	7,464.84	85.1957	7,464.84	74.9454	7,464.84	80.7565	7,464.84	63.4178	7,464.84	80.59	7,464.84	78.7072	7,464.84	80.2162	7,464.84	72.0683	7,464.84	76.8042	7,464.84	71.6304	7,464.84	76.7025	7,464.84	48.2101	7,464.84	72.5529	7,464.84	62.978	7,464.84	70.3998	7,464.84	67.2003	7,464.84	71.1883	7,464.84	57.3219	7,464.84	68.4451	7,464.84	69.7001	7,464.84	66.7031	7,464.84	62.9616	7,464.84	65.8291	7,464.84	70.1522	7,464.84	62.7423
7,727.05	89.6483	7,727.05	87.7562	7,727.05	88.2331	7,727.05	89.2627	7,727.05	87.7036	7,727.05	84.6793	7,727.05	86.4825	7,727.05	86.3619	7,727.05	84.3361	7,727.05	84.6849	7,727.05	82.638	7,727.05	84.5433	7,727.05	74.5775	7,727.05	81.2931	7,727.05	75.8852	7,727.05	79.7397	7,727.05	80.7047	7,727.05	80.7653	7,727.05	76.3578	7,727.05	77.6316	7,727.05	69.4489	7,727.05	76.3477	7,727.05	52.3028	7,727.05	73.4902	7,727.05	58.3604	7,727.05	68.8919	7,727.05	63.035	7,727.05	71.4773	7,727.05	55.9515	7,727.05	69.1305	7,727.05	68.0001	7,727.05	67.234	7,727.05	59.7703	7,727.05	65.9077	7,727.05	69.168	7,727.05	61.9951
7,999.51	89.3378	7,999.51	88.0034	7,999.51	88.3184	7,999.51	88.414	7,999.51	87.4044	7,999.51	85.1965	7,999.51	86.3604	7,999.51	86.4474	7,999.51	83.4997	7,999.51	84.3671	7,999.51	81.5891	7,999.51	84.7151	7,999.51	65.9098	7,999.51	81.2979	7,999.51	80.5437	7,999.51	79.9215	7,999.51	80.4292	7,999.51	79.8886	7,999.51	77.6635	7,999.51	76.9736	7,999.51	68.1528	7,999.51	74.8763	7,999.51	57.835	7,999.51	71.2274	7,999.51	61.264	7,999.51	66.0634	7,999.51	68.7543	7,999.51	68.8863	7,999.51	57.0632	7,999.51	67.7731	7,999.51	66.8242	7,999.51	66.2331	7,999.51	59.102	7,999.51	64.2445	7,999.51	65.7408	7,999.51	55.1757
8,282.23	89.1643	8,282.23	87.8878	8,282.23	88.2782	8,282.23	87.4153	8,282.23	86.5917	8,282.23	86.0378	8,282.23	86.1034	8,282.23	85.5399	8,282.23	83.8708	8,282.23	85.7008	8,282.23	81.612	8,282.23	83.439	8,282.23	78.3732	8,282.23	81.4153	8,282.23	80.688	8,282.23	78.5569	8,282.23	78.4298	8,282.23	77.6	8,282.23	74.4104	8,282.23	75.0603	8,282.23	68.5482	8,282.23	73.5662	8,282.23	61.1446	8,282.23	70.5856	8,282.23	58.4305	8,282.23	65.8688	8,282.23	67.6538	8,282.23	68.1643	8,282.23	50.01	8,282.23	66.3031	8,282.23	58.9202	8,282.23	66.8921	8,282.23	61.7749	8,282.23	65.0525	8,282.23	62.1794	8,282.23	49.6022
8,573.73	89.1857	8,573.73	87.9081	8,573.73	88.1443	8,573.73	86.8513	8,573.73	85.8199	8,573.73	86.2694	8,573.73	85.1869	8,573.73	85.8922	8,573.73	84.3215	8,573.73	85.3373	8,573.73	83.337	8,573.73	82.6042	8,573.73	80.6515	8,573.73	81.4645	8,573.73	80.4605	8,573.73	78.435	8,573.73	74.3734	8,573.73	77.7124	8,573.73	70.6413	8,573.73	75.6647	8,573.73	72.5056	8,573.73	71.9711	8,573.73	53.7758	8,573.73	70.3104	8,573.73	60.8078	8,573.73	66.4478	8,573.73	64.9359	8,573.73	67.667	8,573.73	62.2313	8,573.73	65.5985	8,573.73	66.0883	8,573.73	67.0647	8,573.73	61.3251	8,573.73	64.7999	8,573.73	52.1037	8,573.73	45.9728
8,876.95	89.2057	8,876.95	87.7008	8,876.95	87.7672	8,876.95	86.1213	8,876.95	85.602	8,876.95	86.2969	8,876.95	84.3413	8,876.95	85.7791	8,876.95	84.6875	8,876.95	84.3486	8,876.95	84.3093	8,876.95	84.172	8,876.95	82.4285	8,876.95	78.9288	8,876.95	78.0717	8,876.95	77.0777	8,876.95	68.3018	8,876.95	73.7604	8,876.95	70.4817	8,876.95	71.9968	8,876.95	72.9034	8,876.95	70.6069	8,876.95	59.9823	8,876.95	69.7498	8,876.95	60.7922	8,876.95	65.477	8,876.95	64.851	8,876.95	66.8436	8,876.95	63.5955	8,876.95	62.0211	8,876.95	62.8471	8,876.95	66.1302	8,876.95	59.6303	8,876.95	63.215	8,876.95	54.5245	8,876.95	54.1644
9,188.96	88.9021	9,188.96	87.1245	9,188.96	86.9267	9,188.96	86.7869	9,188.96	84.6561	9,188.96	85.9628	9,188.96	83.5243	9,188.96	85.7979	9,188.96	84.6398	9,188.96	84.729	9,188.96	83.8672	9,188.96	82.4908	9,188.96	82.3055	9,188.96	79.1161	9,188.96	73.3262	9,188.96	75.7784	9,188.96	74.6547	9,188.96	77.198	9,188.96	72.368	9,188.96	75.9451	9,188.96	68.9839	9,188.96	72.8705	9,188.96	66.0082	9,188.96	71.4315	9,188.96	51.0342	9,188.96	68.9548	9,188.96	63.1867	9,188.96	67.3469	9,188.96	57.4152	9,188.96	65.7841	9,188.96	55.9191	9,188.96	66.8218	9,188.96	59.2681	9,188.96	62.3435	9,188.96	44.9043	9,188.96	43.7631
9,514.16	88.1704	9,514.16	86.8886	9,514.16	86.4872	9,514.16	86.8692	9,514.16	83.6119	9,514.16	85.9512	9,514.16	84.0889	9,514.16	85.9803	9,514.16	84.5647	9,514.16	84.1125	9,514.16	83.3473	9,514.16	82.5779	9,514.16	79.175	9,514.16	78.8304	9,514.16	76.4173	9,514.16	76.536	9,514.16	74.6658	9,514.16	75.4617	9,514.16	67.3991	9,514.16	74.6862	9,514.16	62.1858	9,514.16	72.5271	9,514.16	65.7958	9,514.16	68.7933	9,514.16	59.8334	9,514.16	68.0635	9,514.16	64.7551	9,514.16	66.0387	9,514.16	58.851	9,514.16	64.8663	9,514.16	34.3734	9,514.16	63.8877	9,514.16	57.226	9,514.16	61.3942	9,514.16	50.2351	9,514.16	54.3015
9,849.61	87.6582	9,849.61	87.2809	9,849.61	85.8405	9,849.61	86.6009	9,849.61	83.5971	9,849.61	85.8592	9,849.61	84.7313	9,849.61	85.2368	9,849.61	84.3096	9,849.61	84.461	9,849.61	81.6117	9,849.61	82.1807	9,849.61	77.4382	9,849.61	78.6664	9,849.61	75.9988	9,849.61	76.3333	9,849.61	71.4903	9,849.61	76.53	9,849.61	61.0531	9,849.61	75.466	9,849.61	61.1433	9,849.61	73.6811	9,849.61	61.4316	9,849.61	69.4954	9,849.61	53.7415	9,849.61	68.3806	9,849.61	59.2467	9,849.61	67.0202	9,849.61	51.8363	9,849.61	65.5433	9,849.61	57.5006	9,849.61	63.7082	9,849.61	60.2703	9,849.61	61.7473	9,849.61	55.7602	9,849.61	54.9339
10,196.8	87.2895	10,196.8	87.1207	10,196.8	85.2908	10,196.8	86.2467	10,196.8	84.5084	10,196.8	85.5776	10,196.8	85.287	10,196.8	84.8477	10,196.8	83.6314	10,196.8	84.0147	10,196.8	80.0055	10,196.8	81.2657	10,196.8	76.2053	10,196.8	78.8075	10,196.8	74.387	10,196.8	76.5148	10,196.8	71.7593	10,196.8	74.7912	10,196.8	64.1984	10,196.8	72.774	10,196.8	59.7088	10,196.8	71.2604	10,196.8	57.8102	10,196.8	66.9012	10,196.8	58.462	10,196.8	65.011	10,196.8	53.9243	10,196.8	64.5858	10,196.8	57.1125	10,196.8	62.8558	10,196.8	56.4185	10,196.8	62.1076	10,196.8	59.4448	10,196.8	59.2261	10,196.8	58.299	10,196.8	53.5413
10,555.7	86.9234	10,555.7	86.9599	10,555.7	84.9939	10,555.7	86.4124	10,555.7	84.8836	10,555.7	85.4302	10,555.7	85.4543	10,555.7	84.2185	10,555.7	83.5319	10,555.7	83.1674	10,555.7	78.8814	10,555.7	81.3954	10,555.7	76.1757	10,555.7	77.4671	10,555.7	74.7306	10,555.7	74.2572	10,555.7	73.1482	10,555.7	73.3495	10,555.7	65.8478	10,555.7	72.8104	10,555.7	60.324	10,555.7	71.3223	10,555.7	55.5209	10,555.7	66.4118	10,555.7	63.1297	10,555.7	64.6945	10,555.7	53.4982	10,555.7	62.7906	10,555.7	59.6023	10,555.7	61.5356	10,555.7	56.9758	10,555.7	60.4048	10,555.7	57.3312	10,555.7	58.7768	10,555.7	57.3446	10,555.7	51.4974
10,927.7	86.2097	10,927.7	86.6613	10,927.7	85.0669	10,927.7	86.8511	10,927.7	85.2837	10,927.7	85.3475	10,927.7	85.0765	10,927.7	82.7616	10,927.7	81.9544	10,927.7	83.2606	10,927.7	74.9646	10,927.7	79.5059	10,927.7	77.346	10,927.7	77.0044	10,927.7	74.5902	10,927.7	75.3744	10,927.7	73.7006	10,927.7	73.4831	10,927.7	67.0806	10,927.7	71.8429	10,927.7	48.2416	10,927.7	71.3504	10,927.7	62.3832	10,927.7	65.9855	10,927.7	64.6341	10,927.7	64.7023	10,927.7	57.1863	10,927.7	61.9129	10,927.7	63.3687	10,927.7	61.7181	10,927.7	57.1192	10,927.7	59.6503	10,927.7	58.5435	10,927.7	58.7109	10,927.7	57.0355	10,927.7	51.0214
11,313	85.5247	11,313	86.6559	11,313	85.3427	11,313	87.351	11,313	85.9464	11,313	84.9118	11,313	84.0766	11,313	83.2621	11,313	80.5254	11,313	82.2205	11,313	75.1996	11,313	79.1003	11,313	78.8632	11,313	76.8719	11,313	74.9913	11,313	75.4597	11,313	72.2646	11,313	74.2233	11,313	69.2799	11,313	72.6292	11,313	54.2376	11,313	71.3284	11,313	59.3712	11,313	66.1382	11,313	64.9961	11,313	64.9466	11,313	63.5749	11,313	62.9909	11,313	64.0377	11,313	61.8878	11,313	59.537	11,313	63.0204	11,313	56.8459	11,313	59.6841	11,313	53.9828	11,313	54.422
11,712.9	84.648	11,712.9	86.9103	11,712.9	85.9299	11,712.9	87.6665	11,712.9	85.1882	11,712.9	85.2571	11,712.9	82.4761	11,712.9	83.3332	11,712.9	80.3642	11,712.9	81.8225	11,712.9	78.2248	11,712.9	79.6069	11,712.9	80.6818	11,712.9	78.3021	11,712.9	70.7991	11,712.9	75.6395	11,712.9	70.0561	11,712.9	72.7815	11,712.9	69.4819	11,712.9	68.7966	11,712.9	53.8133	11,712.9	69.4075	11,712.9	53.8444	11,712.9	63.6448	11,712.9	63.7553	11,712.9	63.4076	11,712.9	65.0348	11,712.9	62.1012	11,712.9	59.6504	11,712.9	59.8714	11,712.9	51.9798	11,712.9	60.653	11,712.9	49.9057	11,712.9	58.3224	11,712.9	51.8955	11,712.9	52.5893
12,126	84.735	12,126	87.1858	12,126	86.68	12,126	87.6635	12,126	85.2139	12,126	86.249	12,126	81.9096	12,126	83.2808	12,126	80.0982	12,126	81.73	12,126	80.9376	12,126	81.488	12,126	81.0306	12,126	77.3067	12,126	62.7986	12,126	73.2323	12,126	69.3093	12,126	71.0182	12,126	68.7436	12,126	68.1758	12,126	54.1285	12,126	66.5338	12,126	53.1911	12,126	61.6807	12,126	61.9487	12,126	61.7095	12,126	64.1502	12,126	56.6064	12,126	50.5691	12,126	61.232	12,126	54.552	12,126	59.0736	12,126	45.5749	12,126	54.5286	12,126	56.093	12,126	56.8082
12,553.7	86.3823	12,553.7	86.9092	12,553.7	87.1131	12,553.7	87.5388	12,553.7	84.9033	12,553.7	86.8498	12,553.7	81.7153	12,553.7	83.4843	12,553.7	80.1311	12,553.7	83.0348	12,553.7	81.1081	12,553.7	81.4241	12,553.7	77.8556	12,553.7	76.0923	12,553.7	69.3692	12,553.7	71.47	12,553.7	68.9637	12,553.7	68.3025	12,553.7	65.851	12,553.7	68.8844	12,553.7	59.8009	12,553.7	67.0047	12,553.7	56.8715	12,553.7	63.7907	12,553.7	58.38	12,553.7	60.7824	12,553.7	58.2483	12,553.7	60.9294	12,553.7	49.372	12,553.7	60.2223	12,553.7	48.6016	12,553.7	55.2038	12,553.7	48.7711	12,553.7	58.1879	12,553.7	51.2012	12,553.7	57.5416
12,996.1	88.2984	12,996.1	87.3471	12,996.1	87.4421	12,996.1	87.6337	12,996.1	84.3117	12,996.1	86.9396	12,996.1	81.2764	12,996.1	84.4023	12,996.1	80.5653	12,996.1	83.1926	12,996.1	80.4863	12,996.1	80.7745	12,996.1	74.515	12,996.1	75.3442	12,996.1	72.5419	12,996.1	72.5508	12,996.1	62.8663	12,996.1	69.0355	12,996.1	63.4205	12,996.1	68.4953	12,996.1	62.9985	12,996.1	67.2876	12,996.1	56.0533	12,996.1	64.0235	12,996.1	52.9389	12,996.1	58.7704	12,996.1	52.575	12,996.1	60.6109	12,996.1	38.9116	12,996.1	60.0284	12,996.1	37.341	12,996.1	54.5378	12,996.1	51.6276	12,996.1	56.8827	12,996.1	49.7681	12,996.1	58.1064
13,454.6	89.529	13,454.6	88.6784	13,454.6	87.5565	13,454.6	87.6054	13,454.6	84.4908	13,454.6	86.5908	13,454.6	82.5566	13,454.6	84.5492	13,454.6	81.5028	13,454.6	82.9267	13,454.6	78.5207	13,454.6	79.1115	13,454.6	73.3387	13,454.6	74.5284	13,454.6	70.3733	13,454.6	70.4591	13,454.6	56.0356	13,454.6	66.5751	13,454.6	57.2544	13,454.6	65.1556	13,454.6	61.724	13,454.6	64.2483	13,454.6	48.6725	13,454.6	62.0925	13,454.6	47.6499	13,454.6	55.6427	13,454.6	42.9154	13,454.6	60.0827	13,454.6	25.2652	13,454.6	55.7435	13,454.6	49.5555	13,454.6	54.8372	13,454.6	49.5414	13,454.6	57.5495	13,454.6	48.4582	13,454.6	56.6124
13,929.2	90.105	13,929.2	90.1029	13,929.2	87.5743	13,929.2	88.3493	13,929.2	85.122	13,929.2	86.4735	13,929.2	83.4847	13,929.2	84.7026	13,929.2	81.2922	13,929.2	82.1274	13,929.2	77.4438	13,929.2	78.0559	13,929.2	72.0296	13,929.2	72.8943	13,929.2	66.8026	13,929.2	68.6219	13,929.2	55.0314	13,929.2	65.3694	13,929.2	54.8532	13,929.2	61.5547	13,929.2	64.3685	13,929.2	61.1981	13,929.2	52.5382	13,929.2	58.2545	13,929.2	45.7157	13,929.2	55.6098	13,929.2	40.1293	13,929.2	56.8504	13,929.2	38.6436	13,929.2	49.3711	13,929.2	51.8305	13,929.2	50.9049	13,929.2	43.134	13,929.2	55.7974	13,929.2	50.1783	13,929.2	52.0136
14,419.9	90.3387	14,419.9	90.7854	14,419.9	87.8949	14,419.9	89.2629	14,419.9	85.3084	14,419.9	86.6986	14,419.9	83.4846	14,419.9	84.4505	14,419.9	80.5412	14,419.9	81.1608	14,419.9	76.2152	14,419.9	76.794	14,419.9	69.5209	14,419.9	71.7524	14,419.9	67.233	14,419.9	67.8904	14,419.9	60.3305	14,419.9	65.1179	14,419.9	51.5878	14,419.9	60.2847	14,419.9	65.9397	14,419.9	58.611	14,419.9	58.7669	14,419.9	54.7987	14,419.9	41.0518	14,419.9	55.56	14,419.9	41.351	14,419.9	52.8385	14,419.9	43.4224	14,419.9	43.7092	14,419.9	51.9766	14,419.9	46.2845	14,419.9	44.7847	14,419.9	52.3339	14,419.9	47.6388	14,419.9	49.9847
14,928.2	90.6443	14,928.2	91.2948	14,928.2	88.1312	14,928.2	90.0019	14,928.2	85.2418	14,928.2	87.3915	14,928.2	82.8195	14,928.2	84.2909	14,928.2	78.9339	14,928.2	80.5929	14,928.2	74.28	14,928.2	75.5073	14,928.2	65.8732	14,928.2	70.3417	14,928.2	68.3826	14,928.2	66.2839	14,928.2	53.1452	14,928.2	63.0442	14,928.2	52.5941	14,928.2	57.0909	14,928.2	65.0433	14,928.2	54.2544	14,928.2	60.854	14,928.2	51.2344	14,928.2	38.5043	14,928.2	51.6965	14,928.2	33.4791	14,928.2	49.1865	14,928.2	42.0655	14,928.2	42.1561	14,928.2	52.3073	14,928.2	46.123	14,928.2	45.6803	14,928.2	46.788	14,928.2	46.8195	14,928.2	46.968
15,455.6	90.596	15,455.6	91.416	15,455.6	88.0454	15,455.6	90.1927	15,455.6	84.6488	15,455.6	87.5578	15,455.6	81.019	15,455.6	83.8215	15,455.6	75.6967	15,455.6	79.6349	15,455.6	70.7519	15,455.6	73.9486	15,455.6	61.2254	15,455.6	68.0588	15,455.6	66.2899	15,455.6	62.0016	15,455.6	55.2955	15,455.6	56.1522	15,455.6	53.7829	15,455.6	47.3283	15,455.6	63.2306	15,455.6	36.0041	15,455.6	60.5252	15,455.6	39.4015	15,455.6	45.7802	15,455.6	45.2943	15,455.6	39.7111	15,455.6	32.3714	15,455.6	39.3636	15,455.6	41.1383	15,455.6	50.4421	15,455.6	41.5816	15,455.6	45.591	15,455.6	42.5392	15,455.6	46.104	15,455.6	48.2075
16,000.5	89.955	16,000.5	90.9818	16,000.5	87.5521	16,000.5	89.7956	16,000.5	83.7622	16,000.5	87.0377	16,000.5	78.755	16,000.5	82.8172	16,000.5	72.0879	16,000.5	78.2438	16,000.5	68.3387	16,000.5	72.0783	16,000.5	64.6291	16,000.5	64.9281	16,000.5	58.7821	16,000.5	53.5463	16,000.5	59.7093	16,000.5	43.179	16,000.5	52.3904	16,000.5	44.6493	16,000.5	63.8127	16,000.5	45.2401	16,000.5	59.3396	16,000.5	38.3504	16,000.5	47.9571	16,000.5	46.0395	16,000.5	45.9246	16,000.5	34.8054	16,000.5	45.6734	16,000.5	30.7561	16,000.5	45.1955	16,000.5	29.7334	16,000.5	40.0777	16,000.5	34.4182	16,000.5	41.8866	16,000.5	46.7106
16,564.5	88.7545	16,564.5	90.1549	16,564.5	86.4454	16,564.5	89.1127	16,564.5	82.6434	16,564.5	86.2203	16,564.5	76.7907	16,564.5	81.7362	16,564.5	70.1391	16,564.5	76.8032	16,564.5	67.3678	16,564.5	70.377	16,564.5	61.9725	16,564.5	61.2685	16,564.5	60.9322	16,564.5	53.3157	16,564.5	52.7714	16,564.5	53.5165	16,564.5	51.1669	16,564.5	49.4289	16,564.5	63.4501	16,564.5	48.7977	16,564.5	60.2464	16,564.5	42.223	16,564.5	34.2407	16,564.5	49.6067	16,564.5	45.7084	16,564.5	36.8577	16,564.5	45.4673	16,564.5	40.776	16,564.5	35.7242	16,564.5	28.3406	16,564.5	35.121	16,564.5	41.0416	16,564.5	39.128	16,564.5	45.6909
17,148.9	87.2726	17,148.9	88.9619	17,148.9	85.1334	17,148.9	88.0645	17,148.9	81.1425	17,148.9	85.1493	17,148.9	75.0422	17,148.9	80.486	17,148.9	70.6292	17,148.9	75.1982	17,148.9	66.4824	17,148.9	68.1647	17,148.9	60.3008	17,148.9	59.5466	17,148.9	54.0053	17,148.9	57.2791	17,148.9	37.1349	17,148.9	55.7927	17,148.9	52.1366	17,148.9	51.1337	17,148.9	62.5049	17,148.9	50.521	17,148.9	60.4322	17,148.9	47.6145	17,148.9	37.3468	17,148.9	49.6099	17,148.9	47.6299	17,148.9	40.2424	17,148.9	48.0284	17,148.9	39.0297	17,148.9	43.7405	17,148.9	42.5498	17,148.9	42.829	17,148.9	42.6276	17,148.9	45.2406	17,148.9	44.5845
17,752.4	86.4248	17,752.4	87.6618	17,752.4	84.293	17,752.4	86.8799	17,752.4	79.8391	17,752.4	83.9364	17,752.4	74.1655	17,752.4	79.2906	17,752.4	69.9883	17,752.4	73.716	17,752.4	64.103	17,752.4	66.2467	17,752.4	54.4609	17,752.4	60.9525	17,752.4	53.2121	17,752.4	57.5364	17,752.4	39.0013	17,752.4	54.1037	17,752.4	54.2603	17,752.4	49.1303	17,752.4	61.7456	17,752.4	48.0748	17,752.4	58.616	17,752.4	44.812	17,752.4	48.1828	17,752.4	47.3394	17,752.4	48.3636	17,752.4	38.8291	17,752.4	48.064	17,752.4	42.4601	17,752.4	40.3937	17,752.4	45.3885	17,752.4	46.4115	17,752.4	45.2594	17,752.4	40.012	17,752.4	45.3082
18,379.4	86.0225	18,379.4	86.6093	18,379.4	83.6952	18,379.4	85.7192	18,379.4	79.2492	18,379.4	82.7967	18,379.4	73.3884	18,379.4	78.4134	18,379.4	67.5305	18,379.4	72.4447	18,379.4	59.6735	18,379.4	64.3851	18,379.4	46.9366	18,379.4	59.2778	18,379.4	52.2738	18,379.4	52.1614	18,379.4	22.8561	18,379.4	47.4149	18,379.4	48.8754	18,379.4	35.2571	18,379.4	61.4431	18,379.4	36.6742	18,379.4	55.231	18,379.4	36.2155	18,379.4	48.6916	18,379.4	34.701	18,379.4	44.6852	18,379.4	33.3243	18,379.4	48.7212	18,379.4	41.3542	18,379.4	32.0263	18,379.4	42.4287	18,379.4	44.0228	18,379.4	49.0441	18,379.4	39.5666	18,379.4	50.3781
19,026.9	85.4105	19,026.9	85.4778	19,026.9	83.3012	19,026.9	84.4998	19,026.9	78.6815	19,026.9	81.5876	19,026.9	71.9339	19,026.9	77.0238	19,026.9	64.1229	19,026.9	70.6468	19,026.9	55.8119	19,026.9	61.5849	19,026.9	55.536	19,026.9	52.6521	19,026.9	54.7342	19,026.9	39.3869	19,026.9	44.1558	19,026.9	41.8281	19,026.9	49.766	19,026.9	40.3048	19,026.9	60.6921	19,026.9	33.5649	19,026.9	55.774	19,026.9	35.96	19,026.9	48.4691	19,026.9	38.1665	19,026.9	46.0292	19,026.9	35.6982	19,026.9	52.4286	19,026.9	42.2444	19,026.9	43.9883	19,026.9	42.6605	19,026.9	39.8777	19,026.9	46.1843	19,026.9	45.7524	19,026.9	48.4428
19,697.8	84.7691	19,697.8	84.2617	19,697.8	82.6684	19,697.8	83.46	19,697.8	78.3352	19,697.8	80.4801	19,697.8	71.4095	19,697.8	75.7937	19,697.8	61.5617	19,697.8	69.4748	19,697.8	51.4159	19,697.8	58.7062	19,697.8	50.7838	19,697.8	50.5391	19,697.8	56.0415	19,697.8	41.0909	19,697.8	44.4499	19,697.8	47.6101	19,697.8	45.229	19,697.8	44.9968	19,697.8	60.6292	19,697.8	37.0998	19,697.8	55.0223	19,697.8	29.9036	19,697.8	49.5001	19,697.8	41.4485	19,697.8	47.9514	19,697.8	40.1757	19,697.8	52.8676	19,697.8	41.5607	19,697.8	45.6002	19,697.8	44.8801	19,697.8	46.0822	19,697.8	48.5184	19,697.8	47.5172	19,697.8	46.7745
19,999.5	84.3906	19,999.5	83.7453	19,999.5	82.2665	19,999.5	83.0889	19,999.5	78.2781	19,999.5	80.2232	19,999.5	71.7673	19,999.5	75.429	19,999.5	60.2559	19,999.5	68.7341	19,999.5	50.0062	19,999.5	58.7095	19,999.5	49.536	19,999.5	54.2651	19,999.5	57.0182	19,999.5	46.567	19,999.5	50.5069	19,999.5	44.8438	19,999.5	38.3193	19,999.5	48.1635	19,999.5	57.8795	19,999.5	40.7174	19,999.5	52.2344	19,999.5	46.8531	19,999.5	36.5005	19,999.5	41.4259	19,999.5	53.3256	19,999.5	45.1024	19,999.5	49.6101	19,999.5	46.7915	19,999.5	53.6832	19,999.5	47.9315	19,999.5	47.9627	19,999.5	53.0382	19,999.5	49.6654	19,999.5	48.8754
