"SPL Vertical"																																																																							
"On-Axis"		"10°"		"-10°"		"20°"		"-20°"		"30°"		"-30°"		"40°"		"-40°"		"50°"		"-50°"		"60°"		"-60°"		"70°"		"-70°"		"80°"		"-80°"		"90°"		"-90°"		"100°"		"-100°"		"110°"		"-110°"		"120°"		"-120°"		"130°"		"-130°"		"140°"		"-140°"		"150°"		"-150°"		"160°"		"-160°"		"170°"		"-170°"		"180°"	
"Frequency [Hz]"	"Sound Pessure Level [dB]  / [2.83V 1m] "	"Frequency [Hz]"	"Sound Pessure Level [dB]  / [2.83V 1m] "	"Frequency [Hz]"	"Sound Pessure Level [dB]  / [2.83V 1m] "	"Frequency [Hz]"	"Sound Pessure Level [dB]  / [2.83V 1m] "	"Frequency [Hz]"	"Sound Pessure Level [dB]  / [2.83V 1m] "	"Frequency [Hz]"	"Sound Pessure Level [dB]  / [2.83V 1m] "	"Frequency [Hz]"	"Sound Pessure Level [dB]  / [2.83V 1m] "	"Frequency [Hz]"	"Sound Pessure Level [dB]  / [2.83V 1m] "	"Frequency [Hz]"	"Sound Pessure Level [dB]  / [2.83V 1m] "	"Frequency [Hz]"	"Sound Pessure Level [dB]  / [2.83V 1m] "	"Frequency [Hz]"	"Sound Pessure Level [dB]  / [2.83V 1m] "	"Frequency [Hz]"	"Sound Pessure Level [dB]  / [2.83V 1m] "	"Frequency [Hz]"	"Sound Pessure Level [dB]  / [2.83V 1m] "	"Frequency [Hz]"	"Sound Pessure Level [dB]  / [2.83V 1m] "	"Frequency [Hz]"	"Sound Pessure Level [dB]  / [2.83V 1m] "	"Frequency [Hz]"	"Sound Pessure Level [dB]  / [2.83V 1m] "	"Frequency [Hz]"	"Sound Pessure Level [dB]  / [2.83V 1m] "	"Frequency [Hz]"	"Sound Pessure Level [dB]  / [2.83V 1m] "	"Frequency [Hz]"	"Sound Pessure Level [dB]  / [2.83V 1m] "	"Frequency [Hz]"	"Sound Pessure Level [dB]  / [2.83V 1m] "	"Frequency [Hz]"	"Sound Pessure Level [dB]  / [2.83V 1m] "	"Frequency [Hz]"	"Sound Pessure Level [dB]  / [2.83V 1m] "	"Frequency [Hz]"	"Sound Pessure Level [dB]  / [2.83V 1m] "	"Frequency [Hz]"	"Sound Pessure Level [dB]  / [2.83V 1m] "	"Frequency [Hz]"	"Sound Pessure Level [dB]  / [2.83V 1m] "	"Frequency [Hz]"	"Sound Pessure Level [dB]  / [2.83V 1m] "	"Frequency [Hz]"	"Sound Pessure Level [dB]  / [2.83V 1m] "	"Frequency [Hz]"	"Sound Pessure Level [dB]  / [2.83V 1m] "	"Frequency [Hz]"	"Sound Pessure Level [dB]  / [2.83V 1m] "	"Frequency [Hz]"	"Sound Pessure Level [dB]  / [2.83V 1m] "	"Frequency [Hz]"	"Sound Pessure Level [dB]  / [2.83V 1m] "	"Frequency [Hz]"	"Sound Pessure Level [dB]  / [2.83V 1m] "	"Frequency [Hz]"	"Sound Pessure Level [dB]  / [2.83V 1m] "	"Frequency [Hz]"	"Sound Pessure Level [dB]  / [2.83V 1m] "	"Frequency [Hz]"	"Sound Pessure Level [dB]  / [2.83V 1m] "	"Frequency [Hz]"	"Sound Pessure Level [dB]  / [2.83V 1m] "
20.5078	58.085	20.5078	57.889	20.5078	58.2723	20.5078	57.7182	20.5078	58.4262	20.5078	57.6145	20.5078	58.5306	20.5078	57.6236	20.5078	58.5788	20.5078	57.7851	20.5078	58.576	20.5078	58.121	20.5078	58.5441	20.5078	58.6268	20.5078	58.5277	20.5078	59.273	20.5078	58.5964	20.5078	60.0141	20.5078	58.8319	20.5078	60.8007	20.5078	59.2928	20.5078	61.5867	20.5078	59.976	20.5078	62.3328	20.5078	60.8115	20.5078	63.0062	20.5078	61.6973	20.5078	63.5792	20.5078	62.5384	20.5078	64.0282	20.5078	63.2664	20.5078	64.3332	20.5078	63.8392	20.5078	64.4773	20.5078	64.2354	20.5078	64.4474
23.4375	61.0517	23.4375	60.9262	23.4375	61.1862	23.4375	60.8387	23.4375	61.3075	23.4375	60.8228	23.4375	61.4017	23.4375	60.9123	23.4375	61.4644	23.4375	61.1334	23.4375	61.5028	23.4375	61.4975	23.4375	61.5395	23.4375	61.9973	23.4375	61.6149	23.4375	62.6079	23.4375	61.7848	23.4375	63.294	23.4375	62.1059	23.4375	64.0165	23.4375	62.6106	23.4375	64.7377	23.4375	63.2844	23.4375	65.4239	23.4375	64.0678	23.4375	66.0453	23.4375	64.8805	23.4375	66.576	23.4375	65.6472	23.4375	66.9934	23.4375	66.3106	23.4375	67.2782	23.4375	66.8336	23.4375	67.4141	23.4375	67.1958	23.4375	67.3891
26.3672	65.148	26.3672	65.0962	26.3672	65.2233	26.3672	65.0843	26.3672	65.3092	26.3672	65.1303	26.3672	65.3983	26.3672	65.2516	26.3672	65.489	26.3672	65.4616	26.3672	65.588	26.3672	65.7666	26.3672	65.7105	26.3672	66.164	26.3672	65.8802	26.3672	66.642	26.3672	66.1257	26.3672	67.1813	26.3672	66.4719	26.3672	67.7578	26.3672	66.9291	26.3672	68.3447	26.3672	67.4847	26.3672	68.915	26.3672	68.1034	26.3672	69.4426	26.3672	68.7363	26.3672	69.903	26.3672	69.3334	26.3672	70.274	26.3672	69.8519	26.3672	70.5363	26.3672	70.2602	26.3672	70.6743	26.3672	70.5385	26.3672	70.6769
29.2969	68.1199	29.2969	68.0807	29.2969	68.1833	29.2969	68.077	29.2969	68.2623	29.2969	68.1211	29.2969	68.3514	29.2969	68.2251	29.2969	68.4498	29.2969	68.3986	29.2969	68.5618	29.2969	68.6471	29.2969	68.6974	29.2969	68.9705	29.2969	68.8721	29.2969	69.3622	29.2969	69.1041	29.2969	69.8093	29.2969	69.4094	29.2969	70.2942	29.2969	69.795	29.2969	70.7956	29.2969	70.2532	29.2969	71.2903	29.2969	70.7602	29.2969	71.7547	29.2969	71.2808	29.2969	72.1655	29.2969	71.7756	29.2969	72.5013	29.2969	72.2083	29.2969	72.7434	29.2969	72.55	29.2969	72.8767	29.2969	72.7811	29.2969	72.8908
32.2266	70.8387	32.2266	70.807	32.2266	70.8951	32.2266	70.8071	32.2266	70.9703	32.2266	70.8473	32.2266	71.0609	32.2266	70.9355	32.2266	71.1664	32.2266	71.0786	32.2266	71.2892	32.2266	71.2809	32.2266	71.4357	32.2266	71.5435	32.2266	71.6151	32.2266	71.8628	32.2266	71.838	32.2266	72.2309	32.2266	72.1136	32.2266	72.6354	32.2266	72.4454	32.2266	73.0601	32.2266	72.8273	32.2266	73.4859	32.2266	73.2428	32.2266	73.8921	32.2266	73.6665	32.2266	74.2578	32.2266	74.0685	32.2266	74.5627	32.2266	74.4193	32.2266	74.789	32.2266	74.6942	32.2266	74.922	32.2266	74.8752	32.2266	74.9521
35.1563	73.4102	35.1563	73.3742	35.1563	73.4697	35.1563	73.3666	35.1563	73.5487	35.1563	73.3927	35.1563	73.6448	35.1563	73.458	35.1563	73.7569	35.1563	73.5675	35.1563	73.8861	35.1563	73.7246	35.1563	74.0353	35.1563	73.9309	35.1563	74.2093	35.1563	74.1849	35.1563	74.4137	35.1563	74.4819	35.1563	74.6531	35.1563	74.8135	35.1563	74.929	35.1563	75.1674	35.1563	75.2371	35.1563	75.5287	35.1563	75.5663	35.1563	75.8798	35.1563	75.8986	35.1563	76.202	35.1563	76.2121	35.1563	76.4769	35.1563	76.4837	35.1563	76.6878	35.1563	76.6929	35.1563	76.8211	35.1563	76.824	35.1563	76.8677
38.0859	75.376	38.0859	75.3359	38.0859	75.4383	38.0859	75.3214	38.0859	75.5199	38.0859	75.336	38.0859	75.6189	38.0859	75.3837	38.0859	75.7339	38.0859	75.4679	38.0859	75.865	38.0859	75.5915	38.0859	76.013	38.0859	75.756	38.0859	76.1798	38.0859	75.9612	38.0859	76.368	38.0859	76.2043	38.0859	76.5795	38.0859	76.4796	38.0859	76.8144	38.0859	76.7781	38.0859	77.069	38.0859	77.0878	38.0859	77.3354	38.0859	77.3941	38.0859	77.6002	38.0859	77.6807	38.0859	77.8469	38.0859	77.9308	38.0859	78.0575	38.0859	78.1291	38.0859	78.2149	38.0859	78.2626	38.0859	78.3061	38.0859	78.3228
41.0156	77.0405	41.0156	76.9998	41.0156	77.1025	41.0156	76.9826	41.0156	77.1839	41.0156	76.9914	41.0156	77.2828	41.0156	77.0284	41.0156	77.3979	41.0156	77.0961	41.0156	77.528	41.0156	77.1962	41.0156	77.6727	41.0156	77.3301	41.0156	77.8317	41.0156	77.4977	41.0156	78.0054	41.0156	77.6975	41.0156	78.1938	41.0156	77.9256	41.0156	78.3957	41.0156	78.1756	41.0156	78.6079	41.0156	78.4383	41.0156	78.8242	41.0156	78.702	41.0156	79.0349	41.0156	78.9529	41.0156	79.2273	41.0156	79.1765	41.0156	79.3877	41.0156	79.359	41.0156	79.5026	41.0156	79.4886	41.0156	79.5613	41.0156	79.5572
43.9453	78.2309	43.9453	78.1818	43.9453	78.3001	43.9453	78.1542	43.9453	78.3877	43.9453	78.1496	43.9453	78.4921	43.9453	78.1696	43.9453	78.6115	43.9453	78.2157	43.9453	78.744	43.9453	78.2892	43.9453	78.888	43.9453	78.3913	43.9453	79.0417	43.9453	78.5225	43.9453	79.2036	43.9453	78.6822	43.9453	79.3719	43.9453	78.8682	43.9453	79.5447	43.9453	79.0762	43.9453	79.7186	43.9453	79.2996	43.9453	79.8887	43.9453	79.529	43.9453	80.0479	43.9453	79.7531	43.9453	80.1871	43.9453	79.9593	43.9453	80.2961	43.9453	80.135	43.9453	80.3651	43.9453	80.2693	43.9453	80.3861	43.9453	80.3543
46.875	79.2043	46.875	79.1532	46.875	79.2743	46.875	79.1221	46.875	79.3621	46.875	79.1118	46.875	79.4659	46.875	79.1232	46.875	79.5839	46.875	79.157	46.875	79.7136	46.875	79.2142	46.875	79.8525	46.875	79.2954	46.875	79.9979	46.875	79.4014	46.875	80.1472	46.875	79.5318	46.875	80.2977	46.875	79.6857	46.875	80.4469	46.875	79.8601	46.875	80.5917	46.875	80.0501	46.875	80.728	46.875	80.2486	46.875	80.8504	46.875	80.4462	46.875	80.9525	46.875	80.6322	46.875	81.0266	46.875	80.7955	46.875	81.0656	46.875	80.9262	46.875	81.0634	46.875	81.0168
49.8047	79.8718	49.8047	79.8168	49.8047	79.9451	49.8047	79.7808	49.8047	80.0357	49.8047	79.7641	49.8047	80.1419	49.8047	79.767	49.8047	80.2617	49.8047	79.7899	49.8047	80.392	49.8047	79.8331	49.8047	80.5299	49.8047	79.8972	49.8047	80.6716	49.8047	79.9827	49.8047	80.8137	49.8047	80.0899	49.8047	80.9528	49.8047	80.2181	49.8047	81.0854	49.8047	80.3659	49.8047	81.2084	49.8047	80.5299	49.8047	81.3181	49.8047	80.7046	49.8047	81.4104	49.8047	80.8825	49.8047	81.4805	49.8047	81.0546	49.8047	81.5231	49.8047	81.2113	49.8047	81.5333	49.8047	81.3433	49.8047	81.5073	49.8047	81.4435
52.7344	80.3331	52.7344	80.277	52.7344	80.407	52.7344	80.2391	52.7344	80.4979	52.7344	80.2193	52.7344	80.6041	52.7344	80.2175	52.7344	80.7234	52.7344	80.2333	52.7344	80.8525	52.7344	80.2669	52.7344	80.9877	52.7344	80.3182	52.7344	81.1249	52.7344	80.3877	52.7344	81.2599	52.7344	80.4757	52.7344	81.3885	52.7344	80.5822	52.7344	81.5068	52.7344	80.7064	52.7344	81.6115	52.7344	80.8462	52.7344	81.6993	52.7344	80.9979	52.7344	81.7669	52.7344	81.1558	52.7344	81.8109	52.7344	81.3126	52.7344	81.828	52.7344	81.4599	52.7344	81.8154	52.7344	81.5897	52.7344	81.771	52.7344	81.6951
55.6641	80.7624	55.6641	80.7041	55.6641	80.8382	55.6641	80.6633	55.6641	80.9305	55.6641	80.6396	55.6641	81.0379	55.6641	80.6325	55.6641	81.1577	55.6641	80.6414	55.6641	81.2867	55.6641	80.6659	55.6641	81.4207	55.6641	80.7059	55.6641	81.555	55.6641	80.7616	55.6641	81.685	55.6641	80.8335	55.6641	81.8058	55.6641	80.9218	55.6641	81.9133	55.6641	81.0268	55.6641	82.0038	55.6641	81.1473	55.6641	82.0741	55.6641	81.2811	55.6641	82.1215	55.6641	81.4239	55.6641	82.1437	55.6641	81.5698	55.6641	82.1387	55.6641	81.7119	55.6641	82.1055	55.6641	81.8425	55.6641	82.0437	55.6641	81.9549
58.5938	81.0252	58.5938	80.9642	58.5938	81.1037	58.5938	80.9207	58.5938	81.1987	58.5938	80.894	58.5938	81.3088	58.5938	80.8833	58.5938	81.431	58.5938	80.8878	58.5938	81.5619	58.5938	80.9066	58.5938	81.6968	58.5938	80.9394	58.5938	81.8309	58.5938	80.9862	58.5938	81.9587	58.5938	81.0474	58.5938	82.0753	58.5938	81.1235	58.5938	82.1758	58.5938	81.2151	58.5938	82.2565	58.5938	81.3219	58.5938	82.3141	58.5938	81.4427	58.5938	82.3463	58.5938	81.5746	58.5938	82.3514	58.5938	81.7129	58.5938	82.3289	58.5938	81.8516	58.5938	82.2788	58.5938	81.9837	58.5938	82.2024	58.5938	82.1026
61.5234	81.2813	61.5234	81.2162	61.5234	81.3626	61.5234	81.1672	61.5234	81.4593	61.5234	81.1337	61.5234	81.5694	61.5234	81.1146	61.5234	81.6903	61.5234	81.109	61.5234	81.818	61.5234	81.1159	61.5234	81.9478	61.5234	81.1347	61.5234	82.0745	61.5234	81.1653	61.5234	82.1926	61.5234	81.2083	61.5234	82.2967	61.5234	81.2646	61.5234	82.382	61.5234	81.3353	61.5234	82.4445	61.5234	81.4211	61.5234	82.4814	61.5234	81.5222	61.5234	82.491	61.5234	81.637	61.5234	82.4726	61.5234	81.7626	61.5234	82.427	61.5234	81.8941	61.5234	82.3559	61.5234	82.0255	61.5234	82.2622	61.5234	82.1503
64.4531	81.4743	64.4531	81.4063	64.4531	81.5574	64.4531	81.3534	64.4531	81.655	64.4531	81.3149	64.4531	81.7651	64.4531	81.2895	64.4531	81.8848	64.4531	81.2761	64.4531	82.0103	64.4531	81.2735	64.4531	82.1367	64.4531	81.2812	64.4531	82.2585	64.4531	81.2989	64.4531	82.37	64.4531	81.3274	64.4531	82.4657	64.4531	81.3678	64.4531	82.5405	64.4531	81.422	64.4531	82.5905	64.4531	81.4915	64.4531	82.6129	64.4531	81.5776	64.4531	82.606	64.4531	81.68	64.4531	82.5702	64.4531	81.7968	64.4531	82.5069	64.4531	81.9243	64.4531	82.419	64.4531	82.0569	64.4531	82.3108	64.4531	82.188
67.3828	81.671	67.3828	81.6015	67.3828	81.7546	67.3828	81.5458	67.3828	81.8516	67.3828	81.503	67.3828	81.9602	67.3828	81.4718	67.3828	82.0776	67.3828	81.4508	67.3828	82.1998	67.3828	81.4387	67.3828	82.3219	67.3828	81.4348	67.3828	82.4384	67.3828	81.439	67.3828	82.5434	67.3828	81.4522	67.3828	82.6313	67.3828	81.4762	67.3828	82.6967	67.3828	81.5133	67.3828	82.7354	67.3828	81.5663	67.3828	82.7447	67.3828	81.6374	67.3828	82.7232	67.3828	81.7277	67.3828	82.6715	67.3828	81.8365	67.3828	82.5918	67.3828	81.9606	67.3828	82.4882	67.3828	82.0949	67.3828	82.3662	67.3828	82.2326
70.3125	81.7281	70.3125	81.6538	70.3125	81.8174	70.3125	81.5941	70.3125	81.9207	70.3125	81.5484	70.3125	82.0358	70.3125	81.5151	70.3125	82.1595	70.3125	81.4925	70.3125	82.2872	70.3125	81.4793	70.3125	82.4136	70.3125	81.4746	70.3125	82.5328	70.3125	81.478	70.3125	82.6386	70.3125	81.4902	70.3125	82.725	70.3125	81.513	70.3125	82.787	70.3125	81.5488	70.3125	82.8203	70.3125	81.6002	70.3125	82.8225	70.3125	81.6696	70.3125	82.7929	70.3125	81.7584	70.3125	82.7325	70.3125	81.8662	70.3125	82.6443	70.3125	81.9902	70.3125	82.533	70.3125	82.1258	70.3125	82.4047	70.3125	82.2664
73.2422	81.8095	73.2422	81.7372	73.2422	81.8969	73.2422	81.6798	73.2422	81.9984	73.2422	81.6365	73.2422	82.1118	73.2422	81.6059	73.2422	82.2338	73.2422	81.5862	73.2422	82.3601	73.2422	81.5758	73.2422	82.4855	73.2422	81.5735	73.2422	82.6041	73.2422	81.5789	73.2422	82.7099	73.2422	81.5924	73.2422	82.7969	73.2422	81.6153	73.2422	82.8599	73.2422	81.6499	73.2422	82.8946	73.2422	81.6988	73.2422	82.8982	73.2422	81.7648	73.2422	82.8697	73.2422	81.8495	73.2422	82.81	73.2422	81.9531	73.2422	82.7221	73.2422	82.0735	73.2422	82.6109	73.2422	82.2063	73.2422	82.4827	73.2422	82.3452
76.1719	81.9563	76.1719	81.8808	76.1719	82.0472	76.1719	81.8209	76.1719	82.1524	76.1719	81.7757	76.1719	82.2696	76.1719	81.7437	76.1719	82.3953	76.1719	81.7231	76.1719	82.525	76.1719	81.7122	76.1719	82.6533	76.1719	81.7096	76.1719	82.7742	76.1719	81.7146	76.1719	82.8814	76.1719	81.7273	76.1719	82.969	76.1719	81.749	76.1719	83.0314	76.1719	81.7819	76.1719	83.0643	76.1719	81.8288	76.1719	83.0648	76.1719	81.8926	76.1719	83.0318	76.1719	81.9755	76.1719	82.9665	76.1719	82.0782	76.1719	82.8722	76.1719	82.199	76.1719	82.7542	76.1719	82.334	76.1719	82.6197	76.1719	82.4768
79.1016	81.9629	79.1016	81.8888	79.1016	82.0524	79.1016	81.83	79.1016	82.1562	79.1016	81.7856	79.1016	82.2721	79.1016	81.7543	79.1016	82.3969	79.1016	81.7341	79.1016	82.5261	79.1016	81.7232	79.1016	82.6547	79.1016	81.7203	79.1016	82.7769	79.1016	81.7246	79.1016	82.8865	79.1016	81.7362	79.1016	82.9773	79.1016	81.7563	79.1016	83.0436	79.1016	81.7874	79.1016	83.0804	79.1016	81.8324	79.1016	83.0842	79.1016	81.8945	79.1016	83.0535	79.1016	81.9765	79.1016	82.9889	79.1016	82.0794	79.1016	82.8934	79.1016	82.2019	79.1016	82.7727	79.1016	82.3399	79.1016	82.6342	79.1016	82.4868
82.0313	82.2125	82.0313	82.1365	82.0313	82.3002	82.0313	82.0725	82.0313	82.3985	82.0313	82.0197	82.0313	82.5049	82.0313	81.9767	82.0313	82.6163	82.0313	81.9418	82.0313	82.7285	82.0313	81.9132	82.0313	82.8366	82.0313	81.8894	82.0313	82.9354	82.0313	81.87	82.0313	83.0192	82.0313	81.8554	82.0313	83.0826	82.0313	81.8474	82.0313	83.1207	82.0313	81.849	82.0313	83.1294	82.0313	81.8643	82.0313	83.1061	82.0313	81.898	82.0313	83.0498	82.0313	81.9541	82.0313	82.9622	82.0313	82.0351	82.0313	82.8472	82.0313	82.1411	82.0313	82.7113	82.0313	82.269	82.0313	82.5632	82.0313	82.4125
84.9609	82.4608	84.9609	82.3821	84.9609	82.5473	84.9609	82.3111	84.9609	82.6404	84.9609	82.2468	84.9609	82.7382	84.9609	82.1877	84.9609	82.8374	84.9609	82.1321	84.9609	82.934	84.9609	82.0783	84.9609	83.0231	84.9609	82.0252	84.9609	83.0993	84.9609	81.9726	84.9609	83.1573	84.9609	81.9217	84.9609	83.1916	84.9609	81.8751	84.9609	83.1976	84.9609	81.8373	84.9609	83.1717	84.9609	81.8138	84.9609	83.1121	84.9609	81.8112	84.9609	83.0191	84.9609	81.8357	84.9609	82.8957	84.9609	81.8919	84.9609	82.7478	84.9609	81.9817	84.9609	82.5837	84.9609	82.103	84.9609	82.414	84.9609	82.2501
87.8906	82.1743	87.8906	82.1016	87.8906	82.2627	87.8906	82.0441	87.8906	82.3657	87.8906	82.0006	87.8906	82.481	87.8906	81.9688	87.8906	82.605	87.8906	81.9462	87.8906	82.7329	87.8906	81.9302	87.8906	82.8592	87.8906	81.919	87.8906	82.9776	87.8906	81.9115	87.8906	83.0816	87.8906	81.9079	87.8906	83.1649	87.8906	81.9099	87.8906	83.2213	87.8906	81.9209	87.8906	83.2461	87.8906	81.945	87.8906	83.2357	87.8906	81.9874	87.8906	83.189	87.8906	82.0523	87.8906	83.1071	87.8906	82.1424	87.8906	82.9941	87.8906	82.2577	87.8906	82.8568	87.8906	82.3947	87.8906	82.7041	87.8906	82.5466
90.8203	82.1129	90.8203	82.0368	90.8203	82.2042	90.8203	81.9762	90.8203	82.3091	90.8203	81.9304	90.8203	82.4251	90.8203	81.8978	90.8203	82.5486	90.8203	81.8763	90.8203	82.6752	90.8203	81.8633	90.8203	82.7999	90.8203	81.8571	90.8203	82.917	90.8203	81.8561	90.8203	83.0208	90.8203	81.8601	90.8203	83.1054	90.8203	81.8704	90.8203	83.1649	90.8203	81.8894	90.8203	83.1945	90.8203	81.921	90.8203	83.1903	90.8203	81.9694	90.8203	83.1504	90.8203	82.0388	90.8203	83.0755	90.8203	82.1317	90.8203	82.9689	90.8203	82.2481	90.8203	82.8372	90.8203	82.3846	90.8203	82.689	90.8203	82.5346
93.75	82.4449	93.75	82.3609	93.75	82.539	93.75	82.2877	93.75	82.6416	93.75	82.2251	93.75	82.75	93.75	82.1721	93.75	82.861	93.75	82.1272	93.75	82.9707	93.75	82.0889	93.75	83.0746	93.75	82.0559	93.75	83.1681	93.75	82.0277	93.75	83.2461	93.75	82.0046	93.75	83.3037	93.75	81.9886	93.75	83.336	93.75	81.9829	93.75	83.3389	93.75	81.9919	93.75	83.3091	93.75	82.0207	93.75	83.2453	93.75	82.0739	93.75	83.1485	93.75	82.1548	93.75	83.0227	93.75	82.264	93.75	82.8748	93.75	82.3985	93.75	82.7141	93.75	82.5517
96.6797	82.441	96.6797	82.36	96.6797	82.5303	96.6797	82.2875	96.6797	82.6265	96.6797	82.2227	96.6797	82.7273	96.6797	82.164	96.6797	82.8294	96.6797	82.1094	96.6797	82.9286	96.6797	82.0569	96.6797	83.0204	96.6797	82.005	96.6797	83.0998	96.6797	81.9534	96.6797	83.1618	96.6797	81.903	96.6797	83.2013	96.6797	81.8566	96.6797	83.2134	96.6797	81.8186	96.6797	83.1942	96.6797	81.7952	96.6797	83.1408	96.6797	81.7934	96.6797	83.0525	96.6797	81.8201	96.6797	82.9311	96.6797	81.8804	96.6797	82.7819	96.6797	81.9765	96.6797	82.6131	96.6797	82.1061	96.6797	82.4358	96.6797	82.2627
102.539	82.4697	102.539	82.3857	102.539	82.5638	102.539	82.3128	102.539	82.6661	102.539	82.2505	102.539	82.7732	102.539	82.1974	102.539	82.8815	102.539	82.1515	102.539	82.9865	102.539	82.1104	102.539	83.0836	102.539	82.0721	102.539	83.168	102.539	82.0354	102.539	83.2351	102.539	82.0008	102.539	83.2803	102.539	81.9701	102.539	83.2993	102.539	81.9472	102.539	83.2884	102.539	81.9375	102.539	83.2448	102.539	81.9474	102.539	83.1675	102.539	81.9831	102.539	83.058	102.539	82.0495	102.539	82.9206	102.539	82.1481	102.539	82.7629	102.539	82.2769	102.539	82.5951	102.539	82.4292
105.469	82.4554	105.469	82.3678	105.469	82.5519	105.469	82.2902	105.469	82.6549	105.469	82.2226	105.469	82.7612	105.469	82.164	105.469	82.867	105.469	82.1125	105.469	82.9678	105.469	82.066	105.469	83.0595	105.469	82.0227	105.469	83.1377	105.469	81.9814	105.469	83.1982	105.469	81.9426	105.469	83.2369	105.469	81.9084	105.469	83.2498	105.469	81.8824	105.469	83.2334	105.469	81.87	105.469	83.1852	105.469	81.8778	105.469	83.1042	105.469	81.9118	105.469	82.9916	105.469	81.9769	105.469	82.8518	105.469	82.0748	105.469	82.6921	105.469	82.2034	105.469	82.5229	105.469	82.356
108.398	82.5561	108.398	82.464	108.398	82.6556	108.398	82.3807	108.398	82.7596	108.398	82.3067	108.398	82.8649	108.398	82.2411	108.398	82.9673	108.398	82.1824	108.398	83.0626	108.398	82.1288	108.398	83.1468	108.398	82.0785	108.398	83.2157	108.398	82.0306	108.398	83.2657	108.398	81.9855	108.398	83.2933	108.398	81.9452	108.398	83.295	108.398	81.9135	108.398	83.2681	108.398	81.8958	108.398	83.2104	108.398	81.8983	108.398	83.1213	108.398	81.9274	108.398	83.0023	108.398	81.988	108.398	82.8577	108.398	82.082	108.398	82.6952	108.398	82.2075	108.398	82.5248	108.398	82.3583
111.328	82.6564	111.328	82.5589	111.328	82.7606	111.328	82.4698	111.328	82.8687	111.328	82.3893	111.328	82.9772	111.328	82.317	111.328	83.082	111.328	82.2514	111.328	83.1789	111.328	82.1908	111.328	83.2637	111.328	82.1336	111.328	83.3323	111.328	82.0792	111.328	83.3809	111.328	82.0282	111.328	83.4059	111.328	81.9829	111.328	83.4041	111.328	81.9474	111.328	83.3725	111.328	81.9271	111.328	83.309	111.328	81.9286	111.328	83.213	111.328	81.9584	111.328	83.0863	111.328	82.0214	111.328	82.9334	111.328	82.1195	111.328	82.7621	111.328	82.2507	111.328	82.5831	111.328	82.4086
117.188	82.6643	117.188	82.5621	117.188	82.7711	117.188	82.4668	117.188	82.8794	117.188	82.379	117.188	82.9854	117.188	82.2986	117.188	83.0848	117.188	82.2242	117.188	83.1737	117.188	82.1541	117.188	83.2483	117.188	82.087	117.188	83.3053	117.188	82.0223	117.188	83.3419	117.188	81.9607	117.188	83.3554	117.188	81.905	117.188	83.3432	117.188	81.8597	117.188	83.303	117.188	81.831	117.188	83.2327	117.188	81.8259	117.188	83.1314	117.188	81.8512	117.188	83.0003	117.188	81.9122	117.188	82.8434	117.188	82.0107	117.188	82.6679	117.188	82.1442	117.188	82.4846	117.188	82.3058
120.117	82.7649	120.117	82.6617	120.117	82.8723	120.117	82.5654	120.117	82.9801	120.117	82.4775	120.117	83.084	120.117	82.3981	120.117	83.1795	120.117	82.3263	120.117	83.2624	120.117	82.2604	120.117	83.3288	120.117	82.1988	120.117	83.3757	120.117	82.1405	120.117	83.4008	120.117	82.0857	120.117	83.4023	120.117	82.0362	120.117	83.3787	120.117	81.9957	120.117	83.3288	120.117	81.9695	120.117	83.2522	120.117	81.9637	120.117	83.1489	120.117	81.9844	120.117	83.0208	120.117	82.0364	120.117	82.8721	120.117	82.1218	120.117	82.7096	120.117	82.2389	120.117	82.5427	120.117	82.3822
125.977	82.7419	125.977	82.6375	125.977	82.8478	125.977	82.5366	125.977	82.9521	125.977	82.4406	125.977	83.0514	125.977	82.3496	125.977	83.1415	125.977	82.2632	125.977	83.2188	125.977	82.1805	125.977	83.2795	125.977	82.101	125.977	83.3203	125.977	82.0247	125.977	83.3384	125.977	81.9529	125.977	83.3312	125.977	81.8879	125.977	83.2967	125.977	81.8339	125.977	83.2331	125.977	81.7958	125.977	83.1398	125.977	81.7795	125.977	83.0175	125.977	81.7909	125.977	82.8693	125.977	81.835	125.977	82.7011	125.977	81.9145	125.977	82.5216	125.977	82.0289	125.977	82.342	125.977	82.1742
128.906	82.6735	128.906	82.574	128.906	82.7743	128.906	82.4769	128.906	82.8739	128.906	82.3824	128.906	82.9692	128.906	82.2897	128.906	83.0563	128.906	82.1973	128.906	83.1314	128.906	82.1038	128.906	83.1906	128.906	82.0082	128.906	83.2302	128.906	81.911	128.906	83.2467	128.906	81.8139	128.906	83.2369	128.906	81.7208	128.906	83.1976	128.906	81.6374	128.906	83.1262	128.906	81.5707	128.906	83.0209	128.906	81.529	128.906	82.8818	128.906	81.5207	128.906	82.7119	128.906	81.5527	128.906	82.5179	128.906	81.6296	128.906	82.3106	128.906	81.7513	128.906	82.1039	128.906	81.9128
134.766	82.4487	134.766	82.3427	134.766	82.5604	134.766	82.2447	134.766	82.6741	134.766	82.1556	134.766	82.7857	134.766	82.0748	134.766	82.8908	134.766	82.0005	134.766	82.9853	134.766	81.9306	134.766	83.0661	134.766	81.8633	134.766	83.1306	134.766	81.7982	134.766	83.1766	134.766	81.7363	134.766	83.2018	134.766	81.681	134.766	83.2033	134.766	81.6373	134.766	83.1773	134.766	81.612	134.766	83.12	134.766	81.6128	134.766	83.0283	134.766	81.6467	134.766	82.9011	134.766	81.7192	134.766	82.7415	134.766	81.8323	134.766	82.5568	134.766	81.9828	134.766	82.359	134.766	82.1626
137.695	82.4241	137.695	82.3101	137.695	82.5428	137.695	82.2041	137.695	82.6615	137.695	82.1081	137.695	82.7751	137.695	82.0222	137.695	82.8789	137.695	81.9453	137.695	82.9689	137.695	81.8755	137.695	83.0424	137.695	81.8112	137.695	83.0978	137.695	81.7517	137.695	83.1343	137.695	81.698	137.695	83.1513	137.695	81.6529	137.695	83.1474	137.695	81.6209	137.695	83.1203	137.695	81.608	137.695	83.0666	137.695	81.6207	137.695	82.983	137.695	81.6649	137.695	82.8678	137.695	81.7446	137.695	82.7223	137.695	81.8606	137.695	82.5525	137.695	82.0093	137.695	82.3682	137.695	82.1825
143.555	82.415	143.555	82.2817	143.555	82.5465	143.555	82.1516	143.555	82.6707	143.555	82.0283	143.555	82.782	143.555	81.9138	143.555	82.8754	143.555	81.8087	143.555	82.9475	143.555	81.7126	143.555	82.9962	143.555	81.6249	143.555	83.0214	143.555	81.5458	143.555	83.024	143.555	81.4766	143.555	83.0056	143.555	81.4203	143.555	82.9675	143.555	81.3811	143.555	82.9098	143.555	81.3644	143.555	82.8312	143.555	81.3755	143.555	82.7296	143.555	81.419	143.555	82.6033	143.555	81.4975	143.555	82.4532	143.555	81.6109	143.555	82.2837	143.555	81.7553	143.555	82.1032	143.555	81.923
149.414	82.4761	149.414	82.334	149.414	82.6118	149.414	82.191	149.414	82.7354	149.414	82.051	149.414	82.8411	149.414	81.9167	149.414	82.9239	149.414	81.7894	149.414	82.9804	149.414	81.6694	149.414	83.0088	149.414	81.557	149.414	83.0091	149.414	81.4531	149.414	82.9831	149.414	81.3599	149.414	82.9335	149.414	81.2812	149.414	82.863	149.414	81.2218	149.414	82.7734	149.414	81.1873	149.414	82.6653	149.414	81.1831	149.414	82.5381	149.414	81.2135	149.414	82.3914	149.414	81.2809	149.414	82.2266	149.414	81.3849	149.414	82.0481	149.414	81.5219	149.414	81.8641	149.414	81.6849
155.273	82.5719	155.273	82.4248	155.273	82.7088	155.273	82.272	155.273	82.8303	155.273	82.1173	155.273	82.9315	155.273	81.9634	155.273	83.0082	155.273	81.8119	155.273	83.0574	155.273	81.6644	155.273	83.0776	155.273	81.5224	155.273	83.0688	155.273	81.3888	155.273	83.0325	155.273	81.2674	155.273	82.9712	155.273	81.1638	155.273	82.8869	155.273	81.0841	155.273	82.7811	155.273	81.0344	155.273	82.6539	155.273	81.0201	155.273	82.5049	155.273	81.0452	155.273	82.3343	155.273	81.1117	155.273	82.1446	155.273	81.2191	155.273	81.9421	155.273	81.364	155.273	81.7365	155.273	81.5398
158.203	82.582	158.203	82.4404	158.203	82.7145	158.203	82.2937	158.203	82.8328	158.203	82.1451	158.203	82.9321	158.203	81.9966	158.203	83.0082	158.203	81.8492	158.203	83.0579	158.203	81.7033	158.203	83.08	158.203	81.5603	158.203	83.0744	158.203	81.4226	158.203	83.0429	158.203	81.2943	158.203	82.9875	158.203	81.1815	158.203	82.9102	158.203	81.0914	158.203	82.8115	158.203	81.0315	158.203	82.6905	158.203	81.0088	158.203	82.5452	158.203	81.0285	158.203	82.3747	158.203	81.0938	158.203	82.1808	158.203	81.2047	158.203	81.97	158.203	81.3576	158.203	81.7533	158.203	81.5444
164.063	82.4778	164.063	82.337	164.063	82.6108	164.063	82.1933	164.063	82.7301	164.063	82.0505	164.063	82.8296	164.063	81.9106	164.063	82.9043	164.063	81.7741	164.063	82.9508	164.063	81.6411	164.063	82.9674	164.063	81.5118	164.063	82.9552	164.063	81.3881	164.063	82.9167	164.063	81.2732	164.063	82.856	164.063	81.1728	164.063	82.7768	164.063	81.0935	164.063	82.6813	164.063	81.0426	164.063	82.5697	164.063	81.0269	164.063	82.4399	164.063	81.0511	164.063	82.2899	164.063	81.1179	164.063	82.1195	164.063	81.2264	164.063	81.9326	164.063	81.372	164.063	81.7375	164.063	81.5463
169.922	82.3016	169.922	82.1591	169.922	82.435	169.922	82.0133	169.922	82.5526	169.922	81.8687	169.922	82.6486	169.922	81.7284	169.922	82.718	169.922	81.5938	169.922	82.7579	169.922	81.4657	169.922	82.768	169.922	81.3452	169.922	82.7504	169.922	81.2342	169.922	82.7095	169.922	81.1366	169.922	82.6507	169.922	81.0574	169.922	82.579	169.922	81.0022	169.922	82.4972	169.922	80.9765	169.922	82.4047	169.922	80.9844	169.922	82.2986	169.922	81.0279	169.922	82.1746	169.922	81.1072	169.922	82.0308	169.922	81.22	169.922	81.8694	169.922	81.3614	169.922	81.697	169.922	81.5239
175.781	82.1784	175.781	82.0243	175.781	82.3213	175.781	81.8657	175.781	82.446	175.781	81.7079	175.781	82.5458	175.781	81.5546	175.781	82.6156	175.781	81.4078	175.781	82.6524	175.781	81.2686	175.781	82.6559	175.781	81.1384	175.781	82.6286	175.781	81.0199	175.781	82.5755	175.781	80.9171	175.781	82.5029	175.781	80.8357	175.781	82.417	175.781	80.7813	175.781	82.3218	175.781	80.759	175.781	82.218	175.781	80.7719	175.781	82.103	175.781	80.8207	175.781	81.9732	175.781	80.9041	175.781	81.8264	175.781	81.0191	175.781	81.6643	175.781	81.1606	175.781	81.493	175.781	81.3217
181.641	82.1543	181.641	81.9909	181.641	82.3021	181.641	81.8187	181.641	82.4275	181.641	81.6433	181.641	82.5241	181.641	81.4689	181.641	82.5873	181.641	81.298	181.641	82.6148	181.641	81.1329	181.641	82.607	181.641	80.9759	181.641	82.5669	181.641	80.831	181.641	82.5002	181.641	80.7039	181.641	82.4138	181.641	80.6018	181.641	82.3142	181.641	80.5316	181.641	82.2054	181.641	80.4991	181.641	82.0875	181.641	80.5072	181.641	81.9576	181.641	80.5561	181.641	81.8114	181.641	80.6436	181.641	81.647	181.641	80.7658	181.641	81.4669	181.641	80.9175	181.641	81.2783	181.641	81.0915
190.43	82.1128	190.43	81.9652	190.43	82.2444	190.43	81.8076	190.43	82.3532	190.43	81.6446	190.43	82.433	190.43	81.4788	190.43	82.4791	190.43	81.3114	190.43	82.4893	190.43	81.1432	190.43	82.465	190.43	80.9761	190.43	82.4105	190.43	80.8145	190.43	82.3335	190.43	80.6656	190.43	82.2427	190.43	80.5386	190.43	82.1456	190.43	80.4433	190.43	82.0456	190.43	80.3879	190.43	81.9403	190.43	80.3776	190.43	81.823	190.43	80.4135	190.43	81.6861	190.43	80.4939	190.43	81.5252	190.43	80.6149	190.43	81.3426	190.43	80.7703	190.43	81.147	190.43	80.9516
196.289	81.9693	196.289	81.819	196.289	82.1037	196.289	81.661	196.289	82.2134	196.289	81.5017	196.289	82.2908	196.289	81.3451	196.289	82.3302	196.289	81.1928	196.289	82.3296	196.289	81.0454	196.289	82.291	196.289	80.9039	196.289	82.221	196.289	80.7713	196.289	82.13	196.289	80.6528	196.289	82.0307	196.289	80.5558	196.289	81.9342	196.289	80.4879	196.289	81.846	196.289	80.4552	196.289	81.7642	196.289	80.4609	196.289	81.6799	196.289	80.5051	196.289	81.5819	196.289	80.5854	196.289	81.4619	196.289	80.6978	196.289	81.3188	196.289	80.8367	196.289	81.159	196.289	80.9941
202.148	81.9063	202.148	81.7397	202.148	82.0517	202.148	81.5618	202.148	82.1659	202.148	81.3813	202.148	82.2405	202.148	81.2046	202.148	82.2697	202.148	81.0354	202.148	82.2518	202.148	80.8761	202.148	82.1894	202.148	80.729	202.148	82.0908	202.148	80.5976	202.148	81.9688	202.148	80.4872	202.148	81.8396	202.148	80.404	202.148	81.7183	202.148	80.3535	202.148	81.6143	202.148	80.339	202.148	81.5277	202.148	80.3603	202.148	81.4494	202.148	80.4145	202.148	81.3659	202.148	80.4972	202.148	81.2663	202.148	80.6039	202.148	81.1466	202.148	80.7297	202.148	81.0108	202.148	80.8683
210.938	81.878	210.938	81.7047	210.938	82.0251	210.938	81.5131	210.938	82.1375	210.938	81.31	210.938	82.2077	210.938	81.1004	210.938	82.2301	210.938	80.8879	210.938	82.2026	210.938	80.676	210.938	82.1268	210.938	80.4698	210.938	82.0098	210.938	80.2773	210.938	81.8637	210.938	80.109	210.938	81.7046	210.938	79.9766	210.938	81.5488	210.938	79.8897	210.938	81.4079	210.938	79.8535	210.938	81.2839	210.938	79.8668	210.938	81.1694	210.938	79.9239	210.938	81.0517	210.938	80.0167	210.938	80.9198	210.938	80.138	210.938	80.7701	210.938	80.2814	210.938	80.6071	210.938	80.4407
216.797	81.6946	216.797	81.5164	216.797	81.8498	216.797	81.3258	216.797	81.9713	216.797	81.1307	216.797	82.0496	216.797	80.9366	216.797	82.0781	216.797	80.7458	216.797	82.0542	216.797	80.5599	216.797	81.9809	216.797	80.3815	216.797	81.8671	216.797	80.2161	216.797	81.7277	216.797	80.0726	216.797	81.5817	216.797	79.9614	216.797	81.4471	216.797	79.8917	216.797	81.3347	216.797	79.8686	216.797	81.2435	216.797	79.8915	216.797	81.1612	216.797	79.9554	216.797	81.0704	216.797	80.0536	216.797	80.9575	216.797	80.1794	216.797	80.8182	216.797	80.3273	216.797	80.6583	216.797	80.4903
225.586	81.8212	225.586	81.6265	225.586	81.9812	225.586	81.4074	225.586	82.0959	225.586	81.1729	225.586	82.1563	225.586	80.9301	225.586	82.1558	225.586	80.6845	225.586	82.0917	225.586	80.4414	225.586	81.9669	225.586	80.2085	225.586	81.791	225.586	79.9963	225.586	81.582	225.586	79.8188	225.586	81.3647	225.586	79.69	225.586	81.1663	225.586	79.6202	225.586	81.0074	225.586	79.6119	225.586	80.8935	225.586	79.659	225.586	80.813	225.586	79.7492	225.586	80.7437	225.586	79.8685	225.586	80.6641	225.586	80.0051	225.586	80.5624	225.586	80.1504	225.586	80.4377	225.586	80.2973
234.375	81.8151	234.375	81.6175	234.375	81.9821	234.375	81.4009	234.375	82.1058	234.375	81.1739	234.375	82.1748	234.375	80.9414	234.375	82.1803	234.375	80.7055	234.375	82.118	234.375	80.4676	234.375	81.9892	234.375	80.2317	234.375	81.8031	234.375	80.0069	234.375	81.5772	234.375	79.8069	234.375	81.3367	234.375	79.6477	234.375	81.11	234.375	79.5425	234.375	80.9192	234.375	79.497	234.375	80.7717	234.375	79.5074	234.375	80.6571	234.375	79.5629	234.375	80.5542	234.375	79.6506	234.375	80.4433	234.375	79.7606	234.375	80.3152	234.375	79.8875	234.375	80.1731	234.375	80.0271
240.234	81.6032	240.234	81.3817	240.234	81.7934	240.234	81.1435	240.234	81.9374	240.234	80.9	240.234	82.0219	240.234	80.6581	240.234	82.0375	240.234	80.4203	240.234	81.9799	240.234	80.1879	240.234	81.8511	240.234	79.9641	240.234	81.6614	240.234	79.7572	240.234	81.4304	240.234	79.581	240.234	81.1869	240.234	79.4507	240.234	80.963	240.234	79.3783	240.234	80.7839	240.234	79.367	240.234	80.6571	240.234	79.4099	240.234	80.5688	240.234	79.4934	240.234	80.4926	240.234	79.6031	240.234	80.4039	240.234	79.7289	240.234	80.2909	240.234	79.8659	240.234	80.1561	240.234	80.0106
249.023	81.7723	249.023	81.5096	249.023	81.9873	249.023	81.2137	249.023	82.1406	249.023	80.8976	249.023	82.2211	249.023	80.5708	249.023	82.2213	249.023	80.2391	249.023	82.1385	249.023	79.9068	249.023	81.9755	249.023	79.5811	249.023	81.7426	249.023	79.2752	249.023	81.4591	249.023	79.0087	249.023	81.1538	249.023	78.8041	249.023	80.8604	249.023	78.6786	249.023	80.6077	249.023	78.6371	249.023	80.4072	249.023	78.6701	249.023	80.2478	249.023	78.7587	249.023	80.1037	249.023	78.8838	249.023	79.95	249.023	79.0331	249.023	79.7748	249.023	79.2017	249.023	79.5826	249.023	79.3872
257.813	81.7985	257.813	81.5608	257.813	81.9946	257.813	81.2964	257.813	82.1349	257.813	81.0179	257.813	82.2078	257.813	80.7338	257.813	82.2056	257.813	80.447	257.813	82.1248	257.813	80.1578	257.813	81.9679	257.813	79.8681	257.813	81.7447	257.813	79.5855	257.813	81.4751	257.813	79.3255	257.813	81.1888	257.813	79.1094	257.813	80.9209	257.813	78.9574	257.813	80.7006	257.813	78.882	257.813	80.5372	257.813	78.8829	257.813	80.4152	257.813	78.9489	257.813	80.3032	257.813	79.0652	257.813	80.1715	257.813	79.2189	257.813	80.0059	257.813	79.4011	257.813	79.8108	257.813	79.603
266.602	81.3913	266.602	81.0908	266.602	81.6395	266.602	80.757	266.602	81.8194	266.602	80.4094	266.602	81.9194	266.602	80.0648	266.602	81.9325	266.602	79.7347	266.602	81.8566	266.602	79.426	266.602	81.6954	266.602	79.1441	266.602	81.4607	266.602	78.8969	266.602	81.1749	266.602	78.6965	266.602	80.8718	266.602	78.5566	266.602	80.592	266.602	78.4875	266.602	80.3695	266.602	78.4903	266.602	80.2157	266.602	78.5559	266.602	80.1125	266.602	78.6689	266.602	80.0232	266.602	78.8151	266.602	79.9129	266.602	78.9852	266.602	79.7639	266.602	79.1745	266.602	79.5796	266.602	79.3768
278.32	81.4838	278.32	81.2826	278.32	81.6227	278.32	81.0247	278.32	81.693	278.32	80.7141	278.32	81.6896	278.32	80.3535	278.32	81.6094	278.32	79.9465	278.32	81.4547	278.32	79.5023	278.32	81.2351	278.32	79.0413	278.32	80.9719	278.32	78.5992	278.32	80.7004	278.32	78.2255	278.32	80.466	278.32	77.9724	278.32	80.3098	278.32	77.8741	278.32	80.2473	278.32	77.9307	278.32	80.2549	278.32	78.1085	278.32	80.2792	278.32	78.359	278.32	80.2641	278.32	78.6397	278.32	80.1735	278.32	78.9267	278.32	80.0013	278.32	79.2124	278.32	79.7658	278.32	79.4953
287.109	81.4197	287.109	81.2493	287.109	81.5421	287.109	81.0435	287.109	81.6002	287.109	80.8086	287.109	81.578	287.109	80.5423	287.109	81.4628	287.109	80.2368	287.109	81.2479	287.109	79.8851	287.109	80.9365	287.109	79.4886	287.109	80.5485	287.109	79.0648	287.109	80.1286	287.109	78.6507	287.109	79.7492	287.109	78.2984	287.109	79.4935	287.109	78.061	287.109	79.4137	287.109	77.9713	287.109	79.491	287.109	78.028	287.109	79.6424	287.109	78.1996	287.109	79.7709	287.109	78.4442	287.109	79.8089	287.109	78.7259	287.109	79.7325	287.109	79.0199	287.109	79.5538	287.109	79.3049
295.898	81.6857	295.898	81.441	295.898	81.8815	295.898	81.1727	295.898	82.0015	295.898	80.8988	295.898	82.0219	295.898	80.624	295.898	81.9236	295.898	80.3402	295.898	81.6935	295.898	80.0326	295.898	81.3267	295.898	79.6907	295.898	80.8334	295.898	79.317	295.898	80.25	295.898	78.9326	295.898	79.6541	295.898	78.5758	295.898	79.1631	295.898	78.2929	295.898	78.8897	295.898	78.1214	295.898	78.8632	295.898	78.0749	295.898	79	295.898	78.1396	295.898	79.1671	295.898	78.2855	295.898	79.2622	295.898	78.4815	295.898	79.2431	295.898	78.7027	295.898	79.119	295.898	78.9255
307.617	81.85	307.617	81.4983	307.617	82.1324	307.617	81.109	307.617	82.3198	307.617	80.7156	307.617	82.3933	307.617	80.345	307.617	82.3394	307.617	80.012	307.617	82.1482	307.617	79.7182	307.617	81.8139	307.617	79.4593	307.617	81.3382	307.617	79.2342	307.617	80.741	307.617	79.0497	307.617	80.0765	307.617	78.9196	307.617	79.4487	307.617	78.8568	307.617	78.9974	307.617	78.8654	307.617	78.8258	307.617	78.9363	307.617	78.9175	307.617	79.051	307.617	79.1485	307.617	79.1879	307.617	79.3824	307.617	79.3283	307.617	79.5363	307.617	79.4558	307.617	79.5873	307.617	79.5509
319.336	82.0096	319.336	81.6532	319.336	82.2838	319.336	81.2376	319.336	82.4577	319.336	80.7877	319.336	82.5186	319.336	80.3261	319.336	82.4571	319.336	79.8691	319.336	82.2662	319.336	79.4279	319.336	81.9406	319.336	79.0147	319.336	81.4802	319.336	78.6496	319.336	80.8983	319.336	78.3622	319.336	80.2348	319.336	78.1835	319.336	79.5705	319.336	78.1305	319.336	79.023	319.336	78.1938	319.336	78.6983	319.336	78.3388	319.336	78.6187	319.336	78.5197	319.336	78.706	319.336	78.6959	319.336	78.8467	319.336	78.8417	319.336	78.9594	319.336	78.9459	319.336	79.0121	319.336	79.0046
331.055	81.8002	331.055	81.4533	331.055	82.0624	331.055	81.0421	331.055	82.2258	331.055	80.592	331.055	82.2821	331.055	80.1291	331.055	82.2258	331.055	79.6748	331.055	82.0524	331.055	79.2457	331.055	81.7586	331.055	78.8569	331.055	81.3457	331.055	78.5285	331.055	80.8276	331.055	78.2862	331.055	80.2428	331.055	78.1538	331.055	79.6647	331.055	78.1403	331.055	79.1933	331.055	78.2305	331.055	78.9122	331.055	78.389	331.055	78.8331	331.055	78.5729	331.055	78.8885	331.055	78.7463	331.055	78.9852	331.055	78.8882	331.055	79.0576	331.055	78.9917	331.055	79.0811	331.055	79.0568
342.773	81.8382	342.773	81.4492	342.773	82.1175	342.773	80.9667	342.773	82.2769	342.773	80.4134	342.773	82.3103	342.773	79.8166	342.773	82.2133	342.773	79.2067	342.773	81.9816	342.773	78.6181	342.773	81.6118	342.773	78.0927	342.773	81.1062	342.773	77.6832	342.773	80.4837	342.773	77.4435	342.773	79.7965	342.773	77.4059	342.773	79.1453	342.773	77.5586	342.773	78.6657	342.773	77.8456	342.773	78.4582	342.773	78.191	342.773	78.5086	342.773	78.5262	342.773	78.7023	342.773	78.8053	342.773	78.9155	342.773	79.0067	342.773	79.0757	342.773	79.1287	342.773	79.1623	342.773	79.1788
354.492	82.0456	354.492	81.7556	354.492	82.2331	354.492	81.3679	354.492	82.3142	354.492	80.8864	354.492	82.2845	354.492	80.3142	354.492	82.1388	354.492	79.6559	354.492	81.8699	354.492	78.9246	354.492	81.4694	354.492	78.1566	354.492	80.9324	354.492	77.4263	354.492	80.2674	354.492	76.8491	354.492	79.5148	354.492	76.5448	354.492	78.7678	354.492	76.5643	354.492	78.1712	354.492	76.8471	354.492	77.8569	354.492	77.2655	354.492	77.8424	354.492	77.6975	354.492	78.0171	354.492	78.0641	354.492	78.2403	354.492	78.3295	354.492	78.4212	354.492	78.4884	354.492	78.5265	354.492	78.5504
366.211	82.1491	366.211	81.8627	366.211	82.3359	366.211	81.4853	366.211	82.4151	366.211	81.0225	366.211	82.3798	366.211	80.4744	366.211	82.2233	366.211	79.8358	366.211	81.9377	366.211	79.1039	366.211	81.5146	366.211	78.2942	366.211	80.9482	366.211	77.4611	366.211	80.2463	366.211	76.7152	366.211	79.4488	366.211	76.2069	366.211	78.6487	366.211	76.0492	366.211	77.9898	366.211	76.2279	366.211	77.5998	366.211	76.6106	366.211	77.4913	366.211	77.0414	366.211	77.5574	366.211	77.4102	366.211	77.6726	366.211	77.6654	366.211	77.7681	366.211	77.8021	366.211	77.8271	366.211	77.8451
377.93	82.1805	377.93	81.9078	377.93	82.3644	377.93	81.5601	377.93	82.4485	377.93	81.1486	377.93	82.4251	377.93	80.6745	377.93	82.2874	377.93	80.1268	377.93	82.0256	377.93	79.4899	377.93	81.6264	377.93	78.759	377.93	81.077	377.93	77.962	377.93	80.3764	377.93	77.1798	377.93	79.5582	377.93	76.5476	377.93	78.7205	377.93	76.2081	377.93	78.0344	377.93	76.2166	377.93	77.6664	377.93	76.4957	377.93	77.6364	377.93	76.8994	377.93	77.798	377.93	77.3011	377.93	77.9784	377.93	77.6306	377.93	78.0824	377.93	77.8673	377.93	78.0915	377.93	78.0179
392.578	81.5	392.578	81.2617	392.578	81.6692	392.578	80.9614	392.578	81.7598	392.578	80.6015	392.578	81.7603	392.578	80.1766	392.578	81.6564	392.578	79.6736	392.578	81.4307	392.578	79.079	392.578	81.0649	392.578	78.3924	392.578	80.5444	392.578	77.6452	392.578	79.8687	392.578	76.9172	392.578	79.0713	392.578	76.3355	392.578	78.2456	392.578	76.0287	392.578	77.5512	392.578	76.0433	392.578	77.1462	392.578	76.3058	392.578	77.0626	392.578	76.6795	392.578	77.1824	392.578	77.0427	392.578	77.3551	392.578	77.3237	392.578	77.4921	392.578	77.4978	392.578	77.5664	392.578	77.5725
407.227	81.4461	407.227	81.098	407.227	81.7007	407.227	80.6779	407.227	81.8431	407.227	80.2027	407.227	81.8584	407.227	79.674	407.227	81.7339	407.227	79.0759	407.227	81.4545	407.227	78.3851	407.227	81.0022	407.227	77.5933	407.227	80.3583	407.227	76.7375	407.227	79.515	407.227	75.9286	407.227	78.5033	407.227	75.3488	407.227	77.4397	407.227	75.1652	407.227	76.5598	407.227	75.3937	407.227	76.1214	407.227	75.8831	407.227	76.1657	407.227	76.4407	407.227	76.4832	407.227	76.9273	407.227	76.847	407.227	77.27	407.227	77.1478	407.227	77.4458	407.227	77.358	407.227	77.4657
421.875	81.7578	421.875	81.4303	421.875	82.0009	421.875	81.035	421.875	82.1465	421.875	80.586	421.875	82.1849	421.875	80.0845	421.875	82.1067	421.875	79.5137	421.875	81.8994	421.875	78.8456	421.875	81.5467	421.875	78.0588	421.875	81.0304	421.875	77.1637	421.875	80.3369	421.875	76.2305	421.875	79.47	421.875	75.409	421.875	78.473	421.875	74.8977	421.875	77.4535	421.875	74.8211	421.875	76.5781	421.875	75.1159	421.875	75.9998	421.875	75.5865	421.875	75.7605	421.875	76.0416	421.875	75.7884	421.875	76.3578	421.875	75.9759	421.875	76.4814	421.875	76.219	421.875	76.4171
436.523	82.3106	436.523	81.9813	436.523	82.5391	436.523	81.5726	436.523	82.6491	436.523	81.1005	436.523	82.6283	436.523	80.5651	436.523	82.4673	436.523	79.9463	436.523	82.1571	436.523	79.2151	436.523	81.6881	436.523	78.3577	436.523	81.0551	436.523	77.4084	436.523	80.2693	436.523	76.4878	436.523	79.3839	436.523	75.8137	436.523	78.5196	436.523	75.6041	436.523	77.8468	436.523	75.8866	436.523	77.4752	436.523	76.4639	436.523	77.3533	436.523	77.0879	436.523	77.3411	436.523	77.5854	436.523	77.3613	436.523	77.8695	436.523	77.4352	436.523	77.9235	436.523	77.5958	436.523	77.7968
451.172	82.9576	451.172	82.696	451.172	83.1276	451.172	82.3617	451.172	83.1865	451.172	81.9642	451.172	83.1175	451.172	81.4938	451.172	82.9054	451.172	80.9193	451.172	82.5337	451.172	80.1993	451.172	81.9841	451.172	79.3018	451.172	81.2384	451.172	78.2312	451.172	80.2896	451.172	77.0676	451.172	79.1704	451.172	76.015	451.172	78.0009	451.172	75.381	451.172	77.0109	451.172	75.3609	451.172	76.4207	451.172	75.8177	451.172	76.2234	451.172	76.4289	451.172	76.2217	451.172	76.9359	451.172	76.2807	451.172	77.2057	451.172	76.416	451.172	77.2044	451.172	76.6711	451.172	76.9834
465.82	82.8932	465.82	82.6083	465.82	83.102	465.82	82.287	465.82	83.1971	465.82	81.9461	465.82	83.1552	465.82	81.5603	465.82	82.9661	465.82	81.0679	465.82	82.6239	465.82	80.3981	465.82	82.1196	465.82	79.5019	465.82	81.437	465.82	78.3815	465.82	80.5597	465.82	77.1326	465.82	79.4965	465.82	76.0024	465.82	78.3334	465.82	75.3613	465.82	77.287	465.82	75.413	465.82	76.637	465.82	75.9536	465.82	76.4679	465.82	76.6155	465.82	76.5812	465.82	77.1483	465.82	76.7588	465.82	77.4454	465.82	76.9381	465.82	77.4962	465.82	77.1441	465.82	77.3606
483.398	82.5011	483.398	82.1969	483.398	82.7139	483.398	81.861	483.398	82.803	483.398	81.5523	483.398	82.7627	483.398	81.2803	483.398	82.598	483.398	80.9842	483.398	82.3105	483.398	80.5643	483.398	81.8922	483.398	79.9311	483.398	81.3283	483.398	79.038	483.398	80.6079	483.398	77.9045	483.398	79.7431	483.398	76.6589	483.398	78.793	483.398	75.5931	483.398	77.8663	483.398	75.0884	483.398	77.068	483.398	75.2694	483.398	76.4248	483.398	75.8446	483.398	75.9146	483.398	76.4281	483.398	75.5971	483.398	76.7756	483.398	75.6191	483.398	76.785	483.398	75.9899	483.398	76.472
500.977	82.345	500.977	81.9091	500.977	82.6624	500.977	81.4365	500.977	82.8221	500.977	81.0233	500.977	82.8181	500.977	80.7103	500.977	82.6568	500.977	80.4372	500.977	82.342	500.977	80.0796	500.977	81.867	500.977	79.5233	500.977	81.2163	500.977	78.71	500.977	80.3775	500.977	77.6603	500.977	79.3722	500.977	76.5105	500.977	78.308	500.977	75.5548	500.977	77.4047	500.977	75.1508	500.977	76.8778	500.977	75.3925	500.977	76.7224	500.977	76.0028	500.977	76.7466	500.977	76.6412	500.977	76.8166	500.977	77.1035	500.977	76.9338	500.977	77.3124	500.977	77.1147	500.977	77.2844
518.555	82.1371	518.555	81.6734	518.555	82.4089	518.555	81.0714	518.555	82.4899	518.555	80.4486	518.555	82.4078	518.555	79.9369	518.555	82.1918	518.555	79.5817	518.555	81.8589	518.555	79.2979	518.555	81.4119	518.555	78.9445	518.555	80.844	518.555	78.4214	518.555	80.1487	518.555	77.7138	518.555	79.3309	518.555	76.908	518.555	78.4156	518.555	76.1989	518.555	77.4363	518.555	75.8331	518.555	76.4118	518.555	75.9371	518.555	75.376	518.555	76.3914	518.555	74.5352	518.555	76.933	518.555	74.3551	518.555	77.3129	518.555	75.0382	518.555	77.35	518.555	76.0887	518.555	76.9389
536.133	82.8547	536.133	82.438	536.133	82.9859	536.133	81.7545	536.133	82.8423	536.133	80.8855	536.133	82.4453	536.133	80.0038	536.133	81.8178	536.133	79.3275	536.133	80.9808	536.133	78.9566	536.133	79.9621	536.133	78.7724	536.133	78.8398	536.133	78.5636	536.133	77.8377	536.133	78.188	536.133	77.3393	536.133	77.6271	536.133	77.5082	536.133	76.9944	536.133	77.9403	536.133	76.5282	536.133	78.057	536.133	76.4771	536.133	77.4981	536.133	76.8609	536.133	76.219	536.133	77.4181	536.133	74.8184	536.133	77.8153	536.133	74.7069	536.133	77.7892	536.133	75.9416	536.133	77.1648
553.711	82.7766	553.711	82.4105	553.711	82.9222	553.711	81.8324	553.711	82.8529	553.711	81.0804	553.711	82.5767	553.711	80.2347	553.711	82.097	553.711	79.4069	553.711	81.4039	553.711	78.6861	553.711	80.4693	553.711	78.0791	553.711	79.2559	553.711	77.5159	553.711	77.7752	553.711	76.925	553.711	76.2583	553.711	76.3084	553.711	75.3353	553.711	75.7773	553.711	75.4367	553.711	75.5118	553.711	75.9481	553.711	75.6109	553.711	76.0508	553.711	75.962	553.711	75.4114	553.711	76.3101	553.711	74.2254	553.711	76.4017	553.711	73.438	553.711	76.0452	553.711	73.9781	553.711	75.157
574.219	82.9944	574.219	82.539	574.219	83.1692	574.219	81.8319	574.219	83.0694	574.219	80.9664	574.219	82.7159	574.219	80.1079	574.219	82.1366	574.219	79.4175	574.219	81.3593	574.219	78.91	574.219	80.4003	574.219	78.4285	574.219	79.2603	574.219	77.7795	574.219	77.9577	574.219	76.8567	574.219	76.6366	574.219	75.712	574.219	75.6765	574.219	74.6492	574.219	75.4011	574.219	74.2087	574.219	75.5131	574.219	74.6499	574.219	75.3977	574.219	75.5619	574.219	74.7597	574.219	76.396	574.219	73.9153	574.219	76.8339	574.219	73.8219	574.219	76.7207	574.219	74.813	574.219	75.9988
594.727	83.2696	594.727	82.9219	594.727	83.3514	594.727	82.3195	594.727	83.1712	594.727	81.4949	594.727	82.7478	594.727	80.5214	594.727	82.11	594.727	79.5286	594.727	81.287	594.727	78.6616	594.727	80.3012	594.727	77.9658	594.727	79.1784	594.727	77.324	594.727	77.9894	594.727	76.5457	594.727	76.9042	594.727	75.5064	594.727	76.1363	594.727	74.2769	594.727	75.6858	594.727	73.2933	594.727	75.2444	594.727	73.2473	594.727	74.5397	594.727	74.1944	594.727	73.7771	594.727	75.4366	594.727	73.7522	594.727	76.4132	594.727	74.7496	594.727	76.8789	594.727	75.9616	594.727	76.7332
615.234	83.302	615.234	82.9958	615.234	83.2933	615.234	82.3612	615.234	83.0137	615.234	81.4451	615.234	82.5135	615.234	80.3913	615.234	81.825	615.234	79.4425	615.234	80.9472	615.234	78.8028	615.234	79.8542	615.234	78.43	615.234	78.5374	615.234	78.0678	615.234	77.1138	615.234	77.4591	615.234	75.9945	615.234	76.4523	615.234	75.6973	615.234	75.0355	615.234	76.0214	615.234	73.4902	615.234	76.1616	615.234	72.6518	615.234	75.5384	615.234	73.2078	615.234	74.0439	615.234	74.4773	615.234	72.5107	615.234	75.5291	615.234	72.7943	615.234	75.9513	615.234	74.3787	615.234	75.5814
638.672	83.6772	638.672	83.2956	638.672	83.7456	638.672	82.5543	638.672	83.5284	638.672	81.396	638.672	83.043	638.672	79.8143	638.672	82.3021	638.672	78.0301	638.672	81.3091	638.672	76.737	638.672	80.0459	638.672	76.6026	638.672	78.4719	638.672	77.1701	638.672	76.6098	638.672	77.607	638.672	74.9171	638.672	77.5285	638.672	74.5485	638.672	76.8573	638.672	75.501	638.672	75.7079	638.672	76.2687	638.672	74.5316	638.672	75.9316	638.672	74.1645	638.672	74.1906	638.672	74.8557	638.672	71.7111	638.672	75.8029	638.672	71.8517	638.672	76.2577	638.672	74.2227	638.672	75.8157
659.18	83.4985	659.18	83.3229	659.18	83.3417	659.18	82.7843	659.18	82.8983	659.18	81.8689	659.18	82.223	659.18	80.5864	659.18	81.3687	659.18	79.0109	659.18	80.3699	659.18	77.3867	659.18	79.2224	659.18	76.1967	659.18	77.8784	659.18	75.7911	659.18	76.3007	659.18	75.8803	659.18	74.6687	659.18	75.923	659.18	73.7125	659.18	75.6301	659.18	74.0807	659.18	75.0201	659.18	74.9914	659.18	74.4112	659.18	75.3682	659.18	74.2865	659.18	74.7678	659.18	74.7418	659.18	73.3699	659.18	75.2899	659.18	72.4879	659.18	75.3885	659.18	73.3829	659.18	74.7249
682.617	83.7342	682.617	83.5993	682.617	83.5456	682.617	83.1208	682.617	83.0761	682.617	82.2931	682.617	82.3962	682.617	81.1229	682.617	81.5865	682.617	79.6509	682.617	80.6909	682.617	78.0136	682.617	79.6752	682.617	76.5145	682.617	78.4447	682.617	75.5073	682.617	76.9276	682.617	75.007	682.617	75.2554	682.617	74.6592	682.617	74.0657	682.617	74.1852	682.617	74.1076	682.617	73.6656	682.617	74.8621	682.617	73.5475	682.617	75.2634	682.617	74.1728	682.617	74.8298	682.617	75.2118	682.617	73.7827	682.617	76.0525	682.617	73.3563	682.617	76.2791	682.617	74.4021	682.617	75.6911
706.055	84.0845	706.055	83.9416	706.055	83.8821	706.055	83.4207	706.055	83.3918	706.055	82.5157	706.055	82.6848	706.055	81.2534	706.055	81.8231	706.055	79.72	706.055	80.8324	706.055	78.112	706.055	79.6909	706.055	76.7537	706.055	78.3345	706.055	75.9049	706.055	76.6853	706.055	75.457	706.055	74.7653	706.055	75.0328	706.055	73.0729	706.055	74.339	706.055	72.7379	706.055	73.3763	706.055	73.6402	706.055	72.6514	706.055	74.2972	706.055	73.0268	706.055	73.9234	706.055	74.4166	706.055	72.8498	706.055	75.8141	706.055	72.9861	706.055	76.5174	706.055	74.7708	706.055	76.1949
732.422	83.5463	732.422	83.542	732.422	83.2276	732.422	83.1966	732.422	82.629	732.422	82.5095	732.422	81.8208	732.422	81.4884	732.422	80.8907	732.422	80.1522	732.422	79.907	732.422	78.5778	732.422	78.8646	732.422	77.0058	732.422	77.6599	732.422	75.8567	732.422	76.1245	732.422	75.3353	732.422	74.151	732.422	75.0866	732.422	72.1222	732.422	74.605	732.422	71.4507	732.422	73.658	732.422	72.3387	732.422	72.5218	732.422	72.9591	732.422	72.2427	732.422	72.3504	732.422	73.371	732.422	70.8307	732.422	74.7564	732.422	70.8583	732.422	75.3845	732.422	73.0879	732.422	74.8606
758.789	83.6031	758.789	83.7694	758.789	83.1297	758.789	83.5529	758.789	82.4445	758.789	82.9049	758.789	81.6525	758.789	81.8187	758.789	80.8352	758.789	80.346	758.789	80.0087	758.789	78.6228	758.789	79.118	758.789	76.9107	758.789	78.0679	758.789	75.5716	758.789	76.7417	758.789	74.784	758.789	75.0133	758.789	74.2814	758.789	72.9381	758.789	73.6312	758.789	71.5675	758.789	72.6765	758.789	72.3333	758.789	71.9	758.789	73.5805	758.789	72.3228	758.789	73.4985	758.789	73.8777	758.789	71.8291	758.789	75.4111	758.789	71.1034	758.789	76.1375	758.789	73.5756	758.789	75.6129
785.156	83.2434	785.156	83.4599	785.156	82.711	785.156	83.2883	785.156	81.9418	785.156	82.689	785.156	81.0172	785.156	81.6936	785.156	80.0379	785.156	80.4438	785.156	79.117	785.156	79.1622	785.156	78.2926	785.156	77.9923	785.156	77.4275	785.156	76.8816	785.156	76.2095	785.156	75.7123	785.156	74.2359	785.156	74.4768	785.156	71.3541	785.156	73.2711	785.156	69.6667	785.156	72.1874	785.156	71.4689	785.156	71.4028	785.156	72.8884	785.156	71.4554	785.156	72.1778	785.156	72.6641	785.156	69.0175	785.156	74.1875	785.156	67.4973	785.156	74.9579	785.156	71.6666	785.156	74.305
811.523	83.0685	811.523	83.441	811.523	82.3868	811.523	83.3597	811.523	81.4816	811.523	82.684	811.523	80.4102	811.523	81.3653	811.523	79.3001	811.523	79.5579	811.523	78.3575	811.523	77.7737	811.523	77.7041	811.523	76.7007	811.523	77.2114	811.523	76.3562	811.523	76.5135	811.523	76.1016	811.523	75.0748	811.523	75.4329	811.523	72.1811	811.523	74.0872	811.523	67.9062	811.523	71.9166	811.523	69.1679	811.523	69.3552	811.523	72.3108	811.523	69.1974	811.523	72.5616	811.523	71.8692	811.523	69.4296	811.523	74.0917	811.523	65.1936	811.523	74.8962	811.523	70.5087	811.523	73.9471
840.82	83.0557	840.82	83.1615	840.82	82.6547	840.82	82.9663	840.82	81.9191	840.82	82.3719	840.82	80.8721	840.82	81.2257	840.82	79.6772	840.82	79.4089	840.82	78.5881	840.82	77.0337	840.82	77.7995	840.82	74.9948	840.82	77.3769	840.82	74.7589	840.82	77.187	840.82	75.7119	840.82	76.7521	840.82	76.4016	840.82	75.223	840.82	76.2922	840.82	70.9815	840.82	75.2056	840.82	57.8745	840.82	72.9904	840.82	69.4606	840.82	69.9679	840.82	73.656	840.82	69.1858	840.82	73.3556	840.82	71.3397	840.82	69.4053	840.82	72.4509	840.82	67.1179	840.82	71.0979
870.117	83.3439	870.117	83.3975	870.117	82.7947	870.117	83.0273	870.117	81.7571	870.117	82.2895	870.117	80.3755	870.117	81.1374	870.117	78.9084	870.117	79.4017	870.117	77.5716	870.117	76.835	870.117	76.4154	870.117	73.2992	870.117	75.4981	870.117	70.2876	870.117	75.1098	870.117	71.4633	870.117	75.4006	870.117	73.8395	870.117	75.7665	870.117	75.1456	870.117	75.2049	870.117	75.2582	870.117	72.7075	870.117	74.3147	870.117	67.9405	870.117	72.8654	870.117	68.7706	870.117	72.3735	870.117	71.4756	870.117	73.1336	870.117	71.0064	870.117	73.2959	870.117	69.873	870.117	71.758
902.344	83.5913	902.344	83.7008	902.344	82.9402	902.344	83.3503	902.344	81.7703	902.344	82.6113	902.344	80.2829	902.344	81.473	902.344	78.8102	902.344	79.8827	902.344	77.5786	902.344	77.8237	902.344	76.5471	902.344	75.3299	902.344	75.5745	902.344	72.6049	902.344	74.6273	902.344	70.6981	902.344	73.8152	902.344	71.0234	902.344	73.1827	902.344	72.3096	902.344	72.3875	902.344	72.9474	902.344	71.1047	902.344	72.4745	902.344	70.5187	902.344	71.109	902.344	71.6323	902.344	70.447	902.344	72.1941	902.344	71.7974	902.344	71.5939	902.344	73.0912	902.344	71.8207	902.344	72.9797
931.641	83.7138	931.641	83.8291	931.641	82.9296	931.641	83.3062	931.641	81.5563	931.641	82.2451	931.641	79.8407	931.641	80.7747	931.641	78.1726	931.641	78.9922	931.641	76.8177	931.641	76.902	931.641	75.6905	931.641	74.4092	931.641	74.5987	931.641	71.5135	931.641	73.6453	931.641	69.1927	931.641	73.2701	931.641	69.4601	931.641	73.4006	931.641	71.0878	931.641	73.0037	931.641	72.1831	931.641	71.0782	931.641	72.4114	931.641	68.5845	931.641	72.1565	931.641	69.7788	931.641	72.3614	931.641	71.0101	931.641	73.2986	931.641	70.2009	931.641	73.7658	931.641	70.4889	931.641	72.7264
966.797	83.9528	966.797	84.1858	966.797	82.9345	966.797	83.6398	966.797	81.2931	966.797	82.4365	966.797	79.4366	966.797	80.7297	966.797	77.9106	966.797	78.5818	966.797	76.906	966.797	75.9821	966.797	76.1454	966.797	73.1113	966.797	75.2923	966.797	70.6392	966.797	74.0828	966.797	69.2765	966.797	72.4833	966.797	68.934	966.797	71.3555	966.797	69.3289	966.797	71.4928	966.797	70.1325	966.797	71.3118	966.797	70.7423	966.797	70.2135	966.797	70.8869	966.797	70.3211	966.797	71.1697	966.797	70.7204	966.797	72.2463	966.797	70.0703	966.797	73.2528	966.797	71.1748	966.797	72.9832
999.023	83.8619	999.023	84.0508	999.023	82.8988	999.023	83.4639	999.023	81.283	999.023	82.2338	999.023	79.2866	999.023	80.5534	999.023	77.4376	999.023	78.5054	999.023	76.2743	999.023	76.0085	999.023	75.6762	999.023	72.9994	999.023	75.065	999.023	69.8246	999.023	74.0253	999.023	67.9099	999.023	72.6265	999.023	68.4705	999.023	71.7926	999.023	70.013	999.023	71.6444	999.023	71.074	999.023	70.0183	999.023	71.2091	999.023	64.8335	999.023	70.6901	999.023	64.7171	999.023	70.9222	999.023	67.6435	999.023	72.6226	999.023	67.5157	999.023	73.9634	999.023	70.5661	999.023	73.4835
1,034.18	83.577	1,034.18	84.0158	1,034.18	82.4281	1,034.18	83.6728	1,034.18	80.7202	1,034.18	82.6143	1,034.18	78.7568	1,034.18	81.0628	1,034.18	77.1383	1,034.18	79.2278	1,034.18	76.3139	1,034.18	77.0607	1,034.18	75.9504	1,034.18	74.2398	1,034.18	75.5128	1,034.18	70.1797	1,034.18	74.7102	1,034.18	63.3586	1,034.18	73.4719	1,034.18	56.7712	1,034.18	72.2889	1,034.18	64.7934	1,034.18	71.974	1,034.18	68.1935	1,034.18	71.6056	1,034.18	69.2588	1,034.18	69.8023	1,034.18	69.1926	1,034.18	68.2333	1,034.18	69.6417	1,034.18	68.5132	1,034.18	71.4158	1,034.18	67.3753	1,034.18	72.6714	1,034.18	68.642	1,034.18	71.8521
1,072.27	83.4865	1,072.27	83.8337	1,072.27	82.3692	1,072.27	83.3853	1,072.27	80.5423	1,072.27	82.2016	1,072.27	78.2739	1,072.27	80.5251	1,072.27	76.3793	1,072.27	78.6826	1,072.27	75.6281	1,072.27	76.7367	1,072.27	75.5034	1,072.27	74.4213	1,072.27	75.1721	1,072.27	71.446	1,072.27	74.256	1,072.27	67.6271	1,072.27	72.7462	1,072.27	63.2583	1,072.27	71.4765	1,072.27	61.6434	1,072.27	71.6052	1,072.27	63.9783	1,072.27	71.4823	1,072.27	66.0685	1,072.27	68.7249	1,072.27	67.2148	1,072.27	64.9243	1,072.27	68.7692	1,072.27	67.4796	1,072.27	71.2987	1,072.27	67.6893	1,072.27	72.7859	1,072.27	68.5862	1,072.27	71.8487
1,110.35	83.291	1,110.35	83.7287	1,110.35	82.053	1,110.35	83.3691	1,110.35	79.9302	1,110.35	82.1708	1,110.35	77.1494	1,110.35	80.2066	1,110.35	75.0512	1,110.35	77.7608	1,110.35	74.7152	1,110.35	75.2871	1,110.35	74.9587	1,110.35	73.1454	1,110.35	74.9245	1,110.35	71.2482	1,110.35	74.442	1,110.35	69.0579	1,110.35	73.3851	1,110.35	65.993	1,110.35	71.7186	1,110.35	62.8696	1,110.35	70.2801	1,110.35	64.002	1,110.35	70.4707	1,110.35	66.4095	1,110.35	70.8442	1,110.35	67.0241	1,110.35	69.507	1,110.35	67.0362	1,110.35	66.7201	1,110.35	69.0526	1,110.35	66.7186	1,110.35	71.1101	1,110.35	69.4353	1,110.35	71.2449
1,148.44	83.3334	1,148.44	83.5769	1,148.44	81.9851	1,148.44	82.8678	1,148.44	79.4052	1,148.44	81.3359	1,148.44	75.9403	1,148.44	79.1446	1,148.44	73.6306	1,148.44	76.4975	1,148.44	73.822	1,148.44	73.6149	1,148.44	74.5047	1,148.44	70.9075	1,148.44	74.7735	1,148.44	68.9876	1,148.44	74.433	1,148.44	67.7178	1,148.44	73.1773	1,148.44	66.3698	1,148.44	71.2698	1,148.44	65.1524	1,148.44	71.0676	1,148.44	65.1461	1,148.44	71.9035	1,148.44	65.836	1,148.44	70.6163	1,148.44	65.6888	1,148.44	67.8309	1,148.44	65.9195	1,148.44	67.1173	1,148.44	69.0034	1,148.44	66.068	1,148.44	71.3951	1,148.44	68.1701	1,148.44	71.1908
1,189.45	83.5031	1,189.45	83.661	1,189.45	81.9393	1,189.45	82.6415	1,189.45	78.7902	1,189.45	80.7701	1,189.45	74.4279	1,189.45	78.4216	1,189.45	72.3499	1,189.45	75.7327	1,189.45	73.4931	1,189.45	72.474	1,189.45	74.3152	1,189.45	68.5157	1,189.45	74.5816	1,189.45	65.0963	1,189.45	74.5241	1,189.45	63.8845	1,189.45	73.7399	1,189.45	63.3882	1,189.45	71.6896	1,189.45	63.4717	1,189.45	68.9009	1,189.45	64.83	1,189.45	67.7354	1,189.45	66.0727	1,189.45	67.8997	1,189.45	65.9163	1,189.45	67.7753	1,189.45	65.2458	1,189.45	65.6661	1,189.45	67.7531	1,189.45	64.717	1,189.45	70.414	1,189.45	68.8931	1,189.45	70.8835
1,230.47	83.307	1,230.47	83.703	1,230.47	81.4267	1,230.47	82.7653	1,230.47	77.8224	1,230.47	80.7253	1,230.47	72.9991	1,230.47	78.0307	1,230.47	72.0559	1,230.47	75.0088	1,230.47	73.8172	1,230.47	71.2317	1,230.47	74.5797	1,230.47	65.6459	1,230.47	74.7345	1,230.47	58.6618	1,230.47	74.8118	1,230.47	56.8024	1,230.47	74.4387	1,230.47	56.473	1,230.47	72.8088	1,230.47	59.7905	1,230.47	69.9914	1,230.47	64.1615	1,230.47	69.0146	1,230.47	67.241	1,230.47	69.465	1,230.47	68.0854	1,230.47	68.8909	1,230.47	66.7773	1,230.47	67.0595	1,230.47	67.5514	1,230.47	64.4617	1,230.47	70.6814	1,230.47	68.97	1,230.47	71.5698
1,274.41	83.1817	1,274.41	83.5867	1,274.41	81.2004	1,274.41	82.6102	1,274.41	77.1429	1,274.41	80.3884	1,274.41	71.2402	1,274.41	77.474	1,274.41	71.5312	1,274.41	74.6653	1,274.41	74.26	1,274.41	71.518	1,274.41	75.0714	1,274.41	66.3749	1,274.41	74.7388	1,274.41	56.4178	1,274.41	74.269	1,274.41	49.0016	1,274.41	73.9032	1,274.41	55.3409	1,274.41	73.0458	1,274.41	54.7936	1,274.41	71.3605	1,274.41	46.4009	1,274.41	69.2048	1,274.41	61.2647	1,274.41	67.2093	1,274.41	65.8453	1,274.41	66.8508	1,274.41	66.3269	1,274.41	65.9688	1,274.41	66.8164	1,274.41	62.8149	1,274.41	70.2191	1,274.41	69.0157	1,274.41	71.7073
1,318.36	82.8312	1,318.36	83.3645	1,318.36	80.6706	1,318.36	82.4457	1,318.36	76.194	1,318.36	80.0856	1,318.36	69.8662	1,318.36	76.6057	1,318.36	73.7293	1,318.36	73.5984	1,318.36	76.8146	1,318.36	71.9283	1,318.36	77.197	1,318.36	68.9578	1,318.36	75.998	1,318.36	63.3253	1,318.36	74.2706	1,318.36	60.0481	1,318.36	72.9003	1,318.36	58.0215	1,318.36	72.0757	1,318.36	54.1571	1,318.36	71.5288	1,318.36	51.2226	1,318.36	70.1994	1,318.36	58.978	1,318.36	68.3052	1,318.36	65.5532	1,318.36	68.6277	1,318.36	67.7067	1,318.36	66.3598	1,318.36	68.2682	1,318.36	58.7141	1,318.36	70.1748	1,318.36	67.2505	1,318.36	70.7149
1,365.23	82.2792	1,365.23	82.8875	1,365.23	80.2227	1,365.23	82.4793	1,365.23	75.3247	1,365.23	80.7635	1,365.23	67.7069	1,365.23	77.1715	1,365.23	73.8969	1,365.23	71.9312	1,365.23	77.022	1,365.23	69.4183	1,365.23	77.4497	1,365.23	68.8835	1,365.23	76.4551	1,365.23	67.9368	1,365.23	75.2315	1,365.23	67.8185	1,365.23	74.3992	1,365.23	66.5038	1,365.23	72.999	1,365.23	62.6264	1,365.23	70.4614	1,365.23	57.2259	1,365.23	69.8205	1,365.23	56.9308	1,365.23	69.2319	1,365.23	63.0984	1,365.23	66.2347	1,365.23	66.2817	1,365.23	64.9182	1,365.23	67.4635	1,365.23	58.1699	1,365.23	68.9446	1,365.23	65.2974	1,365.23	69.3861
1,415.04	82.0468	1,415.04	82.4431	1,415.04	79.6994	1,415.04	81.9534	1,415.04	73.2287	1,415.04	80.5601	1,415.04	66.1573	1,415.04	77.3126	1,415.04	74.9111	1,415.04	71.1433	1,415.04	77.5682	1,415.04	64.0296	1,415.04	77.6529	1,415.04	64.4611	1,415.04	76.2672	1,415.04	65.9189	1,415.04	74.8822	1,415.04	66.7861	1,415.04	74.5439	1,415.04	66.3113	1,415.04	73.9185	1,415.04	65.4944	1,415.04	71.873	1,415.04	64.583	1,415.04	70.26	1,415.04	60.5859	1,415.04	68.3751	1,415.04	53.3786	1,415.04	66.2767	1,415.04	61.8181	1,415.04	66.5965	1,415.04	65.692	1,415.04	56.7839	1,415.04	68.4843	1,415.04	66.1429	1,415.04	69.7026
1,464.84	82.4879	1,464.84	82.7547	1,464.84	79.3984	1,464.84	81.3946	1,464.84	71.4836	1,464.84	79.5261	1,464.84	67.9707	1,464.84	76.4487	1,464.84	75.5983	1,464.84	70.4288	1,464.84	78.1174	1,464.84	59.2216	1,464.84	78.2222	1,464.84	53.1979	1,464.84	76.95	1,464.84	57.9393	1,464.84	75.2341	1,464.84	58.9059	1,464.84	73.8222	1,464.84	58.7604	1,464.84	72.8061	1,464.84	62.3432	1,464.84	71.5128	1,464.84	66.0273	1,464.84	69.4818	1,464.84	65.8126	1,464.84	67.0507	1,464.84	60.2639	1,464.84	64.4288	1,464.84	56.6684	1,464.84	62.6173	1,464.84	65.6471	1,464.84	56.4103	1,464.84	68.9532	1,464.84	64.5519	1,464.84	69.1555
1,514.65	82.7712	1,514.65	83.269	1,514.65	79.5199	1,514.65	81.3614	1,514.65	71.8734	1,514.65	77.9884	1,514.65	67.4768	1,514.65	74.701	1,514.65	76.184	1,514.65	71.7263	1,514.65	78.5676	1,514.65	68.8626	1,514.65	78.4056	1,514.65	65.4225	1,514.65	77.0733	1,514.65	61.4434	1,514.65	75.5417	1,514.65	56.609	1,514.65	74.2756	1,514.65	54.6062	1,514.65	73.0423	1,514.65	56.6477	1,514.65	71.9074	1,514.65	62.274	1,514.65	71.0619	1,514.65	65.5467	1,514.65	69.3258	1,514.65	65.5036	1,514.65	64.9356	1,514.65	60.7849	1,514.65	58.5866	1,514.65	64.3529	1,514.65	52.5043	1,514.65	69.6374	1,514.65	62.0967	1,514.65	69.3001
1,570.31	82.3518	1,570.31	83.006	1,570.31	79.1706	1,570.31	81.413	1,570.31	70.291	1,570.31	77.6815	1,570.31	69.2367	1,570.31	72.8922	1,570.31	77.4486	1,570.31	69.733	1,570.31	79.6022	1,570.31	68.5722	1,570.31	79.4961	1,570.31	67.5354	1,570.31	77.8929	1,570.31	67.6175	1,570.31	75.4528	1,570.31	67.7288	1,570.31	73.4498	1,570.31	66.5355	1,570.31	72.4116	1,570.31	64.8146	1,570.31	71.6298	1,570.31	60.525	1,570.31	71.6518	1,570.31	58.8731	1,570.31	70.8669	1,570.31	64.3756	1,570.31	66.3486	1,570.31	64.6653	1,570.31	63.08	1,570.31	62.9337	1,570.31	52.3293	1,570.31	67.5544	1,570.31	65.0016	1,570.31	69.529
1,623.05	82.2516	1,623.05	82.9522	1,623.05	78.9379	1,623.05	81.7131	1,623.05	68.764	1,623.05	78.978	1,623.05	70.7167	1,623.05	75.3643	1,623.05	77.7416	1,623.05	70.6099	1,623.05	79.3956	1,623.05	63.7682	1,623.05	78.7762	1,623.05	60.7605	1,623.05	76.9381	1,623.05	65.9476	1,623.05	75.1311	1,623.05	69.5182	1,623.05	74.1236	1,623.05	68.63	1,623.05	73.3553	1,623.05	63.2356	1,623.05	73.0034	1,623.05	57.7246	1,623.05	73.0066	1,623.05	57.6694	1,623.05	71.0591	1,623.05	39.4647	1,623.05	67.9729	1,623.05	61.6327	1,623.05	65.304	1,623.05	66.119	1,623.05	55.6515	1,623.05	67.9391	1,623.05	65.2561	1,623.05	68.8953
1,681.64	82.078	1,681.64	82.3811	1,681.64	79.061	1,681.64	80.8959	1,681.64	68.2189	1,681.64	78.2768	1,681.64	72.4484	1,681.64	75.1094	1,681.64	78.9247	1,681.64	70.0934	1,681.64	80.4241	1,681.64	59.7126	1,681.64	79.668	1,681.64	61.1165	1,681.64	77.5066	1,681.64	63.9772	1,681.64	75.1788	1,681.64	67.8302	1,681.64	74.1625	1,681.64	69.5723	1,681.64	73.6071	1,681.64	68.7908	1,681.64	72.3389	1,681.64	66.4543	1,681.64	72.6228	1,681.64	63.4059	1,681.64	72.7953	1,681.64	59.2575	1,681.64	69.0611	1,681.64	59.9729	1,681.64	63.5659	1,681.64	65.2842	1,681.64	57.313	1,681.64	68.8031	1,681.64	63.4973	1,681.64	69.2749
1,740.23	82.2208	1,740.23	82.107	1,740.23	79.4498	1,740.23	80.5003	1,740.23	69.5163	1,740.23	78.3907	1,740.23	72.003	1,740.23	75.399	1,740.23	78.8138	1,740.23	69.9639	1,740.23	80.528	1,740.23	68.9473	1,740.23	79.739	1,740.23	68.9122	1,740.23	77.3661	1,740.23	65.8298	1,740.23	74.5917	1,740.23	66.8188	1,740.23	72.9352	1,740.23	65.575	1,740.23	72.2561	1,740.23	62.3225	1,740.23	71.4531	1,740.23	64.9969	1,740.23	71.386	1,740.23	65.7241	1,740.23	71.942	1,740.23	61.1965	1,740.23	69.2701	1,740.23	58.876	1,740.23	63.7295	1,740.23	65.8185	1,740.23	56.0463	1,740.23	68.8225	1,740.23	64.357	1,740.23	69.659
1,801.76	82.1786	1,801.76	81.9647	1,801.76	79.2971	1,801.76	79.8989	1,801.76	69.356	1,801.76	76.9254	1,801.76	73.3543	1,801.76	72.7824	1,801.76	79.2822	1,801.76	68.784	1,801.76	80.5991	1,801.76	71.3762	1,801.76	79.6469	1,801.76	72.2256	1,801.76	77.1403	1,801.76	69.3771	1,801.76	74.4233	1,801.76	65.416	1,801.76	73.3542	1,801.76	65.1326	1,801.76	73.5022	1,801.76	63.0794	1,801.76	72.7169	1,801.76	52.6152	1,801.76	70.831	1,801.76	65.3772	1,801.76	70.7759	1,801.76	66.4255	1,801.76	68.2007	1,801.76	57.3934	1,801.76	64.936	1,801.76	65.0731	1,801.76	62.0952	1,801.76	69.7705	1,801.76	69.2878	1,801.76	71.1951
1,866.21	81.9767	1,866.21	82.009	1,866.21	79.6412	1,866.21	80.4496	1,866.21	71.9705	1,866.21	77.1335	1,866.21	72.9179	1,866.21	72.4777	1,866.21	79.2285	1,866.21	70.4075	1,866.21	80.5988	1,866.21	73.9077	1,866.21	79.3104	1,866.21	74.336	1,866.21	76.5387	1,866.21	72.3224	1,866.21	74.1093	1,866.21	71.577	1,866.21	73.2169	1,866.21	73.4601	1,866.21	73.3372	1,866.21	73.4342	1,866.21	73.1464	1,866.21	68.7889	1,866.21	70.6384	1,866.21	53.62	1,866.21	70.988	1,866.21	67.1462	1,866.21	68.5255	1,866.21	66.8986	1,866.21	65.0259	1,866.21	66.4266	1,866.21	65.4155	1,866.21	72.2103	1,866.21	68.694	1,866.21	73.1748
1,930.66	80.8365	1,930.66	81.5909	1,930.66	78.1428	1,930.66	80.5218	1,930.66	71.8949	1,930.66	76.0866	1,930.66	73.7861	1,930.66	69.5994	1,930.66	78.849	1,930.66	70.1466	1,930.66	80.7201	1,930.66	73.7337	1,930.66	80.3645	1,930.66	75.555	1,930.66	77.8613	1,930.66	74.7765	1,930.66	73.4411	1,930.66	72.7912	1,930.66	69.604	1,930.66	73.1324	1,930.66	70.0638	1,930.66	73.4155	1,930.66	70.9679	1,930.66	70.7624	1,930.66	68.84	1,930.66	63.8229	1,930.66	69.3222	1,930.66	53.0808	1,930.66	69.3424	1,930.66	60.9298	1,930.66	64.9034	1,930.66	63.3265	1,930.66	60.2282	1,930.66	69.745	1,930.66	69.1773	1,930.66	72.7662
2,000.98	81.297	2,000.98	81.6745	2,000.98	78.4369	2,000.98	80.6226	2,000.98	72.1721	2,000.98	77.7867	2,000.98	74.0553	2,000.98	73.4684	2,000.98	78.9071	2,000.98	71.9632	2,000.98	80.8647	2,000.98	72.8459	2,000.98	80.6667	2,000.98	74.4435	2,000.98	78.344	2,000.98	74.4436	2,000.98	73.541	2,000.98	72.6042	2,000.98	68.5924	2,000.98	71.266	2,000.98	70.6116	2,000.98	70.5637	2,000.98	71.9425	2,000.98	68.8218	2,000.98	69.1947	2,000.98	66.4192	2,000.98	68.2139	2,000.98	64.2995	2,000.98	67.7677	2,000.98	65.142	2,000.98	66.4991	2,000.98	66.2276	2,000.98	65.4297	2,000.98	68.914	2,000.98	71.1376	2,000.98	72.4965
2,071.29	81.7443	2,071.29	82.4941	2,071.29	78.3737	2,071.29	80.6748	2,071.29	73.7025	2,071.29	76.8954	2,071.29	75.0838	2,071.29	74.6356	2,071.29	79.0517	2,071.29	75.6804	2,071.29	80.7199	2,071.29	75.8837	2,071.29	80.4065	2,071.29	75.4556	2,071.29	78.0377	2,071.29	73.5297	2,071.29	73.5395	2,071.29	70.1701	2,071.29	69.5762	2,071.29	69.5733	2,071.29	71.1526	2,071.29	70.0677	2,071.29	72.3025	2,071.29	67.5154	2,071.29	69.9591	2,071.29	65.5933	2,071.29	68.7287	2,071.29	65.3304	2,071.29	65.4134	2,071.29	59.9733	2,071.29	64.4735	2,071.29	64.9811	2,071.29	65.75	2,071.29	69.932	2,071.29	72.1599	2,071.29	73.0663
2,144.53	81.1581	2,144.53	82.3535	2,144.53	78.0583	2,144.53	81.5266	2,144.53	74.317	2,144.53	78.9304	2,144.53	75.3627	2,144.53	77.0206	2,144.53	78.5084	2,144.53	77.3129	2,144.53	80.0648	2,144.53	77.1278	2,144.53	80.1011	2,144.53	76.0536	2,144.53	78.5414	2,144.53	74.2126	2,144.53	75.261	2,144.53	72.3181	2,144.53	69.6241	2,144.53	71.3749	2,144.53	67.6283	2,144.53	70.4697	2,144.53	71.8588	2,144.53	67.4453	2,144.53	70.5969	2,144.53	65.3669	2,144.53	69.9219	2,144.53	67.5432	2,144.53	65.0935	2,144.53	65.9147	2,144.53	60.3333	2,144.53	63.3564	2,144.53	65.9458	2,144.53	70.5189	2,144.53	73.193	2,144.53	74.362
2,217.77	80.2488	2,217.77	81.7286	2,217.77	77.6305	2,217.77	81.2321	2,217.77	75.4017	2,217.77	78.6208	2,217.77	76.4916	2,217.77	77.777	2,217.77	79.0933	2,217.77	78.0019	2,217.77	80.5292	2,217.77	76.6077	2,217.77	80.1133	2,217.77	75.4322	2,217.77	77.9731	2,217.77	74.8023	2,217.77	75.3086	2,217.77	73.3863	2,217.77	71.8034	2,217.77	71.5575	2,217.77	64.3821	2,217.77	71.1734	2,217.77	71.125	2,217.77	69.5284	2,217.77	71.0745	2,217.77	66.2247	2,217.77	67.9038	2,217.77	67.7058	2,217.77	63.1049	2,217.77	67.6586	2,217.77	49.9747	2,217.77	64.096	2,217.77	66.0417	2,217.77	68.3789	2,217.77	72.5154	2,217.77	72.3448
2,296.88	80.348	2,296.88	81.9742	2,296.88	76.7927	2,296.88	81.1765	2,296.88	75.6152	2,296.88	79.5097	2,296.88	76.9865	2,296.88	79.708	2,296.88	78.864	2,296.88	78.8773	2,296.88	80.6394	2,296.88	76.2447	2,296.88	81.0849	2,296.88	74.9033	2,296.88	79.4254	2,296.88	74.6866	2,296.88	76.1023	2,296.88	73.8201	2,296.88	72.108	2,296.88	72.4048	2,296.88	65.3251	2,296.88	70.2301	2,296.88	69.263	2,296.88	68.4467	2,296.88	72.0808	2,296.88	69.4732	2,296.88	68.7367	2,296.88	70.1186	2,296.88	62.8561	2,296.88	69.5915	2,296.88	61.0302	2,296.88	67.7251	2,296.88	68.5715	2,296.88	69.2552	2,296.88	72.6174	2,296.88	72.9922
2,378.91	79.7665	2,378.91	81.5647	2,378.91	76.4239	2,378.91	79.8114	2,378.91	76.4669	2,378.91	78.6219	2,378.91	77.164	2,378.91	80.1812	2,378.91	78.1865	2,378.91	80.2626	2,378.91	80.3389	2,378.91	79.4045	2,378.91	81.2291	2,378.91	78.2632	2,378.91	80.0204	2,378.91	76.8144	2,378.91	76.8959	2,378.91	74.1283	2,378.91	73.5311	2,378.91	70.1451	2,378.91	69.1785	2,378.91	66.3366	2,378.91	66.8404	2,378.91	63.8696	2,378.91	71.6713	2,378.91	67.0599	2,378.91	71.8901	2,378.91	70.1368	2,378.91	65.2409	2,378.91	71.2857	2,378.91	65.5631	2,378.91	69.8717	2,378.91	70.8033	2,378.91	68.9077	2,378.91	75.6347	2,378.91	74.9323
2,460.94	80.3685	2,460.94	82.9061	2,460.94	77.4754	2,460.94	82.3871	2,460.94	78.0977	2,460.94	79.7386	2,460.94	79.1785	2,460.94	79.1485	2,460.94	79.5789	2,460.94	80.401	2,460.94	80.7041	2,460.94	80.034	2,460.94	81.8129	2,460.94	77.9925	2,460.94	80.862	2,460.94	75.9917	2,460.94	76.7894	2,460.94	74.6072	2,460.94	70.5811	2,460.94	73.0387	2,460.94	67.1404	2,460.94	71.0221	2,460.94	66.5573	2,460.94	66.7974	2,460.94	70.1261	2,460.94	65.9236	2,460.94	69.5728	2,460.94	68.2389	2,460.94	67.459	2,460.94	68.1455	2,460.94	60.2702	2,460.94	70.0655	2,460.94	66.5006	2,460.94	69.3784	2,460.94	75.1465	2,460.94	72.9302
2,548.83	80.8302	2,548.83	82.6591	2,548.83	77.2915	2,548.83	82.2081	2,548.83	78.3458	2,548.83	80.7765	2,548.83	80.422	2,548.83	80.4123	2,548.83	80.4396	2,548.83	80.389	2,548.83	80.7058	2,548.83	80.6174	2,548.83	82.0734	2,548.83	79.4887	2,548.83	81.6534	2,548.83	76.7832	2,548.83	78.4859	2,548.83	74.7077	2,548.83	74.1588	2,548.83	74.4396	2,548.83	70.5147	2,548.83	72.7811	2,548.83	56.4186	2,548.83	67.0877	2,548.83	69.9429	2,548.83	65.8842	2,548.83	70.0726	2,548.83	68.7897	2,548.83	68.5793	2,548.83	66.0525	2,548.83	60.3058	2,548.83	69.58	2,548.83	64.2759	2,548.83	72.3689	2,548.83	73.4705	2,548.83	73.7875
2,639.65	81.5659	2,639.65	82.606	2,639.65	77.9961	2,639.65	81.1692	2,639.65	78.8902	2,639.65	80.5501	2,639.65	81.347	2,639.65	81.4116	2,639.65	81.1921	2,639.65	81.867	2,639.65	80.8747	2,639.65	81.5189	2,639.65	82.1105	2,639.65	80.1306	2,639.65	81.915	2,639.65	77.4183	2,639.65	78.2558	2,639.65	74.1064	2,639.65	70.2003	2,639.65	72.9558	2,639.65	69.03	2,639.65	72.2491	2,639.65	68.1807	2,639.65	67.1462	2,639.65	68.6408	2,639.65	63.6512	2,639.65	69.6386	2,639.65	69.8545	2,639.65	69.1426	2,639.65	67.1015	2,639.65	59.0637	2,639.65	67.7864	2,639.65	65.5059	2,639.65	71.7374	2,639.65	75.3916	2,639.65	75.0899
2,733.4	81.5111	2,733.4	83.0126	2,733.4	79.0637	2,733.4	81.8469	2,733.4	80.4151	2,733.4	80.4674	2,733.4	82.2565	2,733.4	81.6888	2,733.4	81.956	2,733.4	82.6078	2,733.4	81.0683	2,733.4	80.9214	2,733.4	82.1409	2,733.4	77.6697	2,733.4	82.3766	2,733.4	75.3151	2,733.4	79.42	2,733.4	72.8535	2,733.4	72.2302	2,733.4	70.57	2,733.4	59.1157	2,733.4	71.1698	2,733.4	66.0637	2,733.4	69.0287	2,733.4	72.2806	2,733.4	63.4608	2,733.4	68.9218	2,733.4	69.5657	2,733.4	70.0552	2,733.4	67.4247	2,733.4	64.3989	2,733.4	66.3365	2,733.4	67.7859	2,733.4	70.595	2,733.4	75.0549	2,733.4	73.5761
2,827.15	81.2039	2,827.15	82.9302	2,827.15	78.6936	2,827.15	81.9187	2,827.15	81.0146	2,827.15	81.1912	2,827.15	83.1287	2,827.15	82.3317	2,827.15	82.4057	2,827.15	82.5888	2,827.15	81.3892	2,827.15	80.9698	2,827.15	82.7598	2,827.15	77.5963	2,827.15	82.726	2,827.15	75.6317	2,827.15	79.3467	2,827.15	75.1242	2,827.15	73.5499	2,827.15	72.5809	2,827.15	69.2912	2,827.15	70.3998	2,827.15	53.961	2,827.15	68.5375	2,827.15	72.5034	2,827.15	61.9064	2,827.15	70.4259	2,827.15	68.6564	2,827.15	68.4262	2,827.15	68.5276	2,827.15	60.9723	2,827.15	66.7446	2,827.15	66.7059	2,827.15	71.421	2,827.15	74.0413	2,827.15	72.3835
2,926.76	80.7634	2,926.76	82.4457	2,926.76	78.3083	2,926.76	81.8552	2,926.76	81.6088	2,926.76	81.8591	2,926.76	83.9364	2,926.76	82.7821	2,926.76	82.9008	2,926.76	81.8316	2,926.76	81.2146	2,926.76	79.189	2,926.76	82.5295	2,926.76	77.2286	2,926.76	82.6857	2,926.76	75.5963	2,926.76	79.9227	2,926.76	72.8205	2,926.76	75.7152	2,926.76	70.5342	2,926.76	72.0321	2,926.76	68.9159	2,926.76	55.8586	2,926.76	66.5611	2,926.76	71.6906	2,926.76	64.8902	2,926.76	71.0118	2,926.76	69.2562	2,926.76	70.0736	2,926.76	68.8115	2,926.76	62.2995	2,926.76	60.1889	2,926.76	67.9881	2,926.76	69.4434	2,926.76	73.4625	2,926.76	70.8295
3,032.23	80.9846	3,032.23	82.3126	3,032.23	77.2033	3,032.23	80.9304	3,032.23	81.3737	3,032.23	82.2116	3,032.23	84.3218	3,032.23	83.3911	3,032.23	83.4938	3,032.23	81.1029	3,032.23	81.9212	3,032.23	79.5729	3,032.23	83.1565	3,032.23	78.0856	3,032.23	83.5005	3,032.23	75.325	3,032.23	81.2776	3,032.23	74.7019	3,032.23	77.5346	3,032.23	73.4507	3,032.23	73.8487	3,032.23	71.8833	3,032.23	56.6343	3,032.23	68.7226	3,032.23	71.3301	3,032.23	63.9609	3,032.23	68.1004	3,032.23	69.1126	3,032.23	68.9786	3,032.23	69.5911	3,032.23	59.9332	3,032.23	58.4947	3,032.23	66.4038	3,032.23	68.6473	3,032.23	72.888	3,032.23	70.612
3,137.7	81.9783	3,137.7	82.3621	3,137.7	78.6357	3,137.7	80.7488	3,137.7	81.3038	3,137.7	81.987	3,137.7	84.3279	3,137.7	82.119	3,137.7	83.4055	3,137.7	81.0933	3,137.7	81.9972	3,137.7	79.9718	3,137.7	83.7309	3,137.7	78.6249	3,137.7	84.0317	3,137.7	78.7765	3,137.7	81.3732	3,137.7	76.4928	3,137.7	77.6586	3,137.7	71.4361	3,137.7	74.8384	3,137.7	69.3825	3,137.7	61.5142	3,137.7	69.5703	3,137.7	72.0901	3,137.7	66.0175	3,137.7	68.2205	3,137.7	68.8992	3,137.7	69.9005	3,137.7	70.5092	3,137.7	62.7388	3,137.7	63.9763	3,137.7	62.4895	3,137.7	68.186	3,137.7	70.7627	3,137.7	69.431
3,249.02	82.3038	3,249.02	81.9962	3,249.02	79.7125	3,249.02	81.052	3,249.02	81.4163	3,249.02	81.9719	3,249.02	84.462	3,249.02	81.4843	3,249.02	83.4296	3,249.02	81.2294	3,249.02	81.5783	3,249.02	81.3825	3,249.02	83.696	3,249.02	80.1898	3,249.02	84.2047	3,249.02	76.6781	3,249.02	81.3637	3,249.02	73.6622	3,249.02	77.399	3,249.02	72.4815	3,249.02	74.8454	3,249.02	69.1507	3,249.02	59.2587	3,249.02	68.7832	3,249.02	73.2538	3,249.02	68.6254	3,249.02	65.1503	3,249.02	69.1177	3,249.02	69.76	3,249.02	69.8301	3,249.02	63.8996	3,249.02	61.746	3,249.02	61.0626	3,249.02	68.3193	3,249.02	70.6574	3,249.02	69.3199
3,363.28	82.2281	3,363.28	81.7676	3,363.28	80.507	3,363.28	80.6937	3,363.28	81.8333	3,363.28	81.6881	3,363.28	84.252	3,363.28	82.1289	3,363.28	83.297	3,363.28	82.3029	3,363.28	81.3733	3,363.28	81.0024	3,363.28	82.8519	3,363.28	77.7745	3,363.28	83.2465	3,363.28	77.1746	3,363.28	80.8861	3,363.28	77.6783	3,363.28	77.3008	3,363.28	74.7628	3,363.28	75.4458	3,363.28	68.9073	3,363.28	65.5914	3,363.28	64.8576	3,363.28	71.901	3,363.28	67.1268	3,363.28	67.5001	3,363.28	67.6369	3,363.28	64.5137	3,363.28	67.3688	3,363.28	62.6451	3,363.28	61.5841	3,363.28	63.8103	3,363.28	68.8538	3,363.28	70.9462	3,363.28	68.5261
3,483.4	83.0077	3,483.4	82.4135	3,483.4	81.4246	3,483.4	81.3521	3,483.4	82.1315	3,483.4	81.7912	3,483.4	84.0122	3,483.4	82.4481	3,483.4	82.701	3,483.4	82.9045	3,483.4	80.6241	3,483.4	80.8361	3,483.4	82.218	3,483.4	79.7881	3,483.4	82.7822	3,483.4	78.196	3,483.4	80.7859	3,483.4	74.843	3,483.4	75.5279	3,483.4	73.3328	3,483.4	68.9828	3,483.4	70.836	3,483.4	65.4674	3,483.4	68.1228	3,483.4	69.0825	3,483.4	68.7029	3,483.4	65.2633	3,483.4	68.0886	3,483.4	64.927	3,483.4	68.0719	3,483.4	65.8125	3,483.4	56.0612	3,483.4	65.3091	3,483.4	70.6139	3,483.4	72.1821	3,483.4	70.5408
3,606.45	83.263	3,606.45	82.9316	3,606.45	82.3882	3,606.45	81.8764	3,606.45	82.1369	3,606.45	81.3904	3,606.45	83.3625	3,606.45	82.7025	3,606.45	82.4581	3,606.45	82.6683	3,606.45	79.8289	3,606.45	81.986	3,606.45	80.8935	3,606.45	79.8348	3,606.45	82.2218	3,606.45	74.6783	3,606.45	80.2655	3,606.45	74.9775	3,606.45	72.8052	3,606.45	74.0451	3,606.45	64.5801	3,606.45	69.2704	3,606.45	53.533	3,606.45	65.7015	3,606.45	65.9521	3,606.45	71.5333	3,606.45	56.6957	3,606.45	71.3565	3,606.45	66.8347	3,606.45	70.0818	3,606.45	71.1348	3,606.45	62.0796	3,606.45	62.0595	3,606.45	69.0711	3,606.45	72.1146	3,606.45	70.6986
3,732.42	82.7226	3,732.42	82.7642	3,732.42	81.2963	3,732.42	81.6162	3,732.42	82.065	3,732.42	82.974	3,732.42	82.7559	3,732.42	83.5791	3,732.42	81.3139	3,732.42	82.7463	3,732.42	79.1927	3,732.42	81.6949	3,732.42	79.5048	3,732.42	78.9243	3,732.42	80.1825	3,732.42	78.1112	3,732.42	78.7535	3,732.42	74.5462	3,732.42	73.8507	3,732.42	72.2008	3,732.42	62.9963	3,732.42	71.914	3,732.42	63.5668	3,732.42	60.6477	3,732.42	57.8059	3,732.42	67.6572	3,732.42	64.3743	3,732.42	71.0575	3,732.42	67.093	3,732.42	68.6221	3,732.42	69.2882	3,732.42	49.0655	3,732.42	67.0819	3,732.42	69.1535	3,732.42	68.7896	3,732.42	67.1603
3,864.26	83.678	3,864.26	82.9909	3,864.26	82.6032	3,864.26	81.4761	3,864.26	81.9293	3,864.26	82.597	3,864.26	82.0777	3,864.26	83.8791	3,864.26	80.7911	3,864.26	82.5867	3,864.26	79.196	3,864.26	80.3288	3,864.26	80.3756	3,864.26	79.4694	3,864.26	81.1468	3,864.26	76.3132	3,864.26	79.2085	3,864.26	72.8826	3,864.26	73.9867	3,864.26	72.2379	3,864.26	66.1017	3,864.26	71.2226	3,864.26	68.2164	3,864.26	64.492	3,864.26	72.0918	3,864.26	67.1494	3,864.26	63.9201	3,864.26	69.0803	3,864.26	66.9677	3,864.26	67.2467	3,864.26	64.7192	3,864.26	62.8767	3,864.26	66.2204	3,864.26	66.9227	3,864.26	68.1676	3,864.26	68.8877
3,999.02	84.59	3,999.02	83.9202	3,999.02	83.892	3,999.02	81.9689	3,999.02	83.2495	3,999.02	82.7246	3,999.02	82.4882	3,999.02	83.403	3,999.02	80.9387	3,999.02	82.5578	3,999.02	79.8419	3,999.02	81.9931	3,999.02	80.8158	3,999.02	78.7875	3,999.02	81.2304	3,999.02	78.8432	3,999.02	78.8801	3,999.02	77.0175	3,999.02	72.7472	3,999.02	73.0559	3,999.02	63.7851	3,999.02	71.7404	3,999.02	62.883	3,999.02	65.0854	3,999.02	69.2015	3,999.02	65.6007	3,999.02	67.7182	3,999.02	69.0981	3,999.02	67.6344	3,999.02	64.8957	3,999.02	67.2356	3,999.02	64.3272	3,999.02	64.6027	3,999.02	61.8269	3,999.02	68.3233	3,999.02	69.2915
4,139.65	85.1063	4,139.65	83.5728	4,139.65	84.3695	4,139.65	81.978	4,139.65	83.8872	4,139.65	83.2431	4,139.65	83.428	4,139.65	83.061	4,139.65	81.281	4,139.65	82.2851	4,139.65	79.6713	4,139.65	80.6779	4,139.65	81.4516	4,139.65	80.779	4,139.65	81.4228	4,139.65	77.7512	4,139.65	77.3034	4,139.65	70.2499	4,139.65	74.2866	4,139.65	72.2314	4,139.65	69.5576	4,139.65	70.2914	4,139.65	64.1963	4,139.65	62.3956	4,139.65	68.4053	4,139.65	66.6067	4,139.65	65.7957	4,139.65	69.1805	4,139.65	66.6804	4,139.65	66.0312	4,139.65	63.5365	4,139.65	68.4494	4,139.65	56.1503	4,139.65	61.5132	4,139.65	65.0986	4,139.65	69.9344
4,286.13	85.7261	4,286.13	83.9159	4,286.13	84.8613	4,286.13	82.3015	4,286.13	83.731	4,286.13	83.9736	4,286.13	83.4024	4,286.13	83.436	4,286.13	81.6447	4,286.13	82.4293	4,286.13	79.7594	4,286.13	82.6629	4,286.13	81.1173	4,286.13	79.4323	4,286.13	81.092	4,286.13	78.6964	4,286.13	79.2085	4,286.13	76.6553	4,286.13	78.6187	4,286.13	71.8637	4,286.13	71.8322	4,286.13	71.803	4,286.13	57.7652	4,286.13	65.9674	4,286.13	69.2792	4,286.13	58.2627	4,286.13	65.1083	4,286.13	68.5744	4,286.13	61.0437	4,286.13	63.6208	4,286.13	63.6045	4,286.13	63.6918	4,286.13	59.2072	4,286.13	57.9323	4,286.13	61.9142	4,286.13	63.049
4,438.48	85.4283	4,438.48	83.7902	4,438.48	85.2213	4,438.48	83.8262	4,438.48	84.6599	4,438.48	84.4439	4,438.48	84.272	4,438.48	83.3254	4,438.48	82.571	4,438.48	83.1711	4,438.48	80.4473	4,438.48	81.1024	4,438.48	80.9916	4,438.48	80.7355	4,438.48	80.9304	4,438.48	76.4075	4,438.48	80.5858	4,438.48	71.3185	4,438.48	79.8513	4,438.48	72.5766	4,438.48	75.1778	4,438.48	70.6402	4,438.48	63.0272	4,438.48	69.2065	4,438.48	69.5195	4,438.48	61.2546	4,438.48	66.6521	4,438.48	66.3229	4,438.48	61.7894	4,438.48	65.6626	4,438.48	65.2533	4,438.48	61.1508	4,438.48	65.2053	4,438.48	61.8966	4,438.48	62.6853	4,438.48	66.0958
4,593.75	85.7664	4,593.75	84.3734	4,593.75	85.4829	4,593.75	84.2633	4,593.75	84.2182	4,593.75	84.2213	4,593.75	84.2979	4,593.75	83.4098	4,593.75	83.7104	4,593.75	83.4346	4,593.75	81.8728	4,593.75	81.6081	4,593.75	81.4421	4,593.75	77.763	4,593.75	81.9491	4,593.75	77.4007	4,593.75	82.2563	4,593.75	75.6347	4,593.75	79.5616	4,593.75	70.5901	4,593.75	69.3745	4,593.75	71.5499	4,593.75	63.3739	4,593.75	70.1036	4,593.75	65.5828	4,593.75	64.1655	4,593.75	65.9006	4,593.75	66.687	4,593.75	60.6365	4,593.75	65.6468	4,593.75	66.5469	4,593.75	60.558	4,593.75	63.4168	4,593.75	54.0119	4,593.75	65.336	4,593.75	64.0313
4,757.81	85.2002	4,757.81	84.4	4,757.81	85.6689	4,757.81	84.371	4,757.81	84.8711	4,757.81	83.9967	4,757.81	83.7318	4,757.81	84.1953	4,757.81	83.0113	4,757.81	83.2765	4,757.81	82.3116	4,757.81	80.3055	4,757.81	82.0524	4,757.81	79.3241	4,757.81	81.9736	4,757.81	75.2914	4,757.81	81.9403	4,757.81	74.1143	4,757.81	79.7722	4,757.81	72.4155	4,757.81	70.6673	4,757.81	69.763	4,757.81	42.8327	4,757.81	68.9764	4,757.81	61.2949	4,757.81	65.6715	4,757.81	65.3997	4,757.81	66.4361	4,757.81	58.175	4,757.81	66.1071	4,757.81	65.4558	4,757.81	62.0381	4,757.81	61.934	4,757.81	58.6661	4,757.81	63.0777	4,757.81	64.4809
4,924.8	85.0312	4,924.8	85.0738	4,924.8	85.2762	4,924.8	83.9175	4,924.8	85.4285	4,924.8	83.9554	4,924.8	84.8192	4,924.8	84.4574	4,924.8	83.5174	4,924.8	82.748	4,924.8	82.409	4,924.8	80.9149	4,924.8	82.3391	4,924.8	78.1998	4,924.8	81.438	4,924.8	77.1009	4,924.8	81.557	4,924.8	73.2879	4,924.8	79.4555	4,924.8	69.5929	4,924.8	71.2897	4,924.8	69.9084	4,924.8	58.3357	4,924.8	68.6102	4,924.8	60.235	4,924.8	66.8638	4,924.8	63.0923	4,924.8	67.5537	4,924.8	59.1864	4,924.8	65.0233	4,924.8	66.2715	4,924.8	63.7432	4,924.8	60.4068	4,924.8	51.9896	4,924.8	65.1496	4,924.8	65.7363
5,097.66	85.0917	5,097.66	84.5914	5,097.66	84.5672	5,097.66	83.5868	5,097.66	84.8056	5,097.66	84.5081	5,097.66	84.816	5,097.66	84.4067	5,097.66	83.7316	5,097.66	82.6459	5,097.66	82.4096	5,097.66	80.8383	5,097.66	81.666	5,097.66	77.8203	5,097.66	81.2563	5,097.66	75.5304	5,097.66	81.1775	5,097.66	75.5263	5,097.66	78.4654	5,097.66	71.5736	5,097.66	73.7517	5,097.66	69.0765	5,097.66	60.7046	5,097.66	69.6268	5,097.66	58.315	5,097.66	65.8205	5,097.66	58.9474	5,097.66	67.3223	5,097.66	60.6805	5,097.66	67.3441	5,097.66	66.2899	5,097.66	64.0286	5,097.66	64.3897	5,097.66	56.2712	5,097.66	61.2921	5,097.66	65.0204
5,279.3	84.8559	5,279.3	84.411	5,279.3	84.2461	5,279.3	83.6219	5,279.3	84.562	5,279.3	84.3816	5,279.3	84.634	5,279.3	83.709	5,279.3	83.4272	5,279.3	83.1005	5,279.3	82.0722	5,279.3	80.5205	5,279.3	81.8659	5,279.3	79.8921	5,279.3	80.8644	5,279.3	78.2793	5,279.3	78.2535	5,279.3	74.6446	5,279.3	75.1856	5,279.3	72.7159	5,279.3	71.652	5,279.3	69.8546	5,279.3	60.3674	5,279.3	70.0326	5,279.3	60.9305	5,279.3	67.6936	5,279.3	56.7997	5,279.3	67.112	5,279.3	58.0376	5,279.3	66.9744	5,279.3	64.8622	5,279.3	65.5428	5,279.3	60.2211	5,279.3	53.1853	5,279.3	62.2829	5,279.3	65.6468
5,463.87	84.8658	5,463.87	84.2967	5,463.87	83.7426	5,463.87	83.7013	5,463.87	83.7306	5,463.87	83.6035	5,463.87	84.7328	5,463.87	83.3509	5,463.87	83.9774	5,463.87	83.0519	5,463.87	82.003	5,463.87	82.2634	5,463.87	81.0802	5,463.87	80.7328	5,463.87	79.5862	5,463.87	77.2246	5,463.87	76.9698	5,463.87	76.1043	5,463.87	72.3917	5,463.87	70.083	5,463.87	66.3024	5,463.87	67.9365	5,463.87	66.3432	5,463.87	68.7635	5,463.87	62.2255	5,463.87	65.486	5,463.87	64.9184	5,463.87	66.9223	5,463.87	62.4903	5,463.87	66.8274	5,463.87	61.5599	5,463.87	62.9518	5,463.87	56.2057	5,463.87	55.6487	5,463.87	55.2094	5,463.87	63.6444
5,657.23	84.15	5,657.23	84.0257	5,657.23	83.5723	5,657.23	84.0615	5,657.23	83.0738	5,657.23	83.1912	5,657.23	83.9504	5,657.23	82.9407	5,657.23	83.2573	5,657.23	82.8626	5,657.23	81.1425	5,657.23	82.0631	5,657.23	79.3299	5,657.23	78.5184	5,657.23	77.3832	5,657.23	75.4333	5,657.23	75.5225	5,657.23	72.756	5,657.23	74.9829	5,657.23	70.9547	5,657.23	66.5002	5,657.23	67.585	5,657.23	66.446	5,657.23	66.8545	5,657.23	59.357	5,657.23	66.228	5,657.23	66.6635	5,657.23	64.0511	5,657.23	58.0676	5,657.23	65.9682	5,657.23	65.404	5,657.23	63.8551	5,657.23	60.984	5,657.23	53.1619	5,657.23	60.3602	5,657.23	62.4143
5,856.45	83.9971	5,856.45	84.6096	5,856.45	83.5115	5,856.45	83.8618	5,856.45	83.3075	5,856.45	82.404	5,856.45	83.4011	5,856.45	82.7088	5,856.45	82.63	5,856.45	83.1418	5,856.45	81.2092	5,856.45	81.6073	5,856.45	79.667	5,856.45	78.4542	5,856.45	77.4853	5,856.45	76.7759	5,856.45	77.2317	5,856.45	72.0633	5,856.45	76.3167	5,856.45	70.1117	5,856.45	66.1337	5,856.45	66.7171	5,856.45	65.1874	5,856.45	65.4472	5,856.45	55.3917	5,856.45	65.2376	5,856.45	63.4694	5,856.45	63.0254	5,856.45	61.3314	5,856.45	65.7228	5,856.45	62.5601	5,856.45	63.2391	5,856.45	59.6629	5,856.45	50.528	5,856.45	59.6898	5,856.45	60.879
6,061.52	84.5224	6,061.52	84.8001	6,061.52	83.5684	6,061.52	83.6097	6,061.52	83.3912	6,061.52	82.2763	6,061.52	83.382	6,061.52	82.4596	6,061.52	82.6367	6,061.52	82.7064	6,061.52	81.2482	6,061.52	81.551	6,061.52	79.2498	6,061.52	79.2444	6,061.52	76.7969	6,061.52	75.9023	6,061.52	77.3812	6,061.52	72.6039	6,061.52	77.0616	6,061.52	69.3549	6,061.52	69.2453	6,061.52	67.3357	6,061.52	62.3891	6,061.52	66.4202	6,061.52	59.118	6,061.52	64.3426	6,061.52	59.9639	6,061.52	62.7974	6,061.52	58.4739	6,061.52	65.4386	6,061.52	62.1389	6,061.52	64.2977	6,061.52	56.533	6,061.52	48.2802	6,061.52	59.2292	6,061.52	56.9858
6,275.39	85.2366	6,275.39	85.2606	6,275.39	84.3623	6,275.39	83.6081	6,275.39	83.8131	6,275.39	82.1065	6,275.39	83.1853	6,275.39	82.0239	6,275.39	81.8731	6,275.39	82.253	6,275.39	80.0462	6,275.39	80.6292	6,275.39	78.7813	6,275.39	77.6704	6,275.39	76.6997	6,275.39	74.5558	6,275.39	77.3598	6,275.39	72.0721	6,275.39	74.2392	6,275.39	68.591	6,275.39	67.9198	6,275.39	65.8875	6,275.39	51.852	6,275.39	65.4856	6,275.39	60.0206	6,275.39	63.3898	6,275.39	62.8884	6,275.39	61.4953	6,275.39	58.309	6,275.39	64.8965	6,275.39	62.1532	6,275.39	64.6949	6,275.39	60.461	6,275.39	49.5397	6,275.39	58.9792	6,275.39	56.4966
6,498.05	85.1897	6,498.05	85.2178	6,498.05	84.5282	6,498.05	83.4832	6,498.05	84.2578	6,498.05	82.0181	6,498.05	83.6738	6,498.05	82.261	6,498.05	82.4007	6,498.05	81.8338	6,498.05	80.8839	6,498.05	79.0084	6,498.05	79.1842	6,498.05	76.7726	6,498.05	76.7359	6,498.05	75.0217	6,498.05	74.8316	6,498.05	71.5745	6,498.05	72.1774	6,498.05	67.6778	6,498.05	68.6472	6,498.05	66.0375	6,498.05	51.9727	6,498.05	64.4426	6,498.05	52.2021	6,498.05	63.8737	6,498.05	64.2117	6,498.05	63.1126	6,498.05	54.1744	6,498.05	63.4935	6,498.05	64.2264	6,498.05	64.8866	6,498.05	59.2552	6,498.05	48.7645	6,498.05	58.8687	6,498.05	51.2237
6,726.56	85.3498	6,726.56	85.4857	6,726.56	84.9462	6,726.56	83.6236	6,726.56	84.5121	6,726.56	82.3996	6,726.56	83.4484	6,726.56	82.0034	6,726.56	82.5192	6,726.56	80.9184	6,726.56	81.704	6,726.56	79.0575	6,726.56	80.0139	6,726.56	77.7238	6,726.56	76.5082	6,726.56	75.0194	6,726.56	73.3551	6,726.56	72.4646	6,726.56	72.0316	6,726.56	68.106	6,726.56	65.3498	6,726.56	65.4321	6,726.56	63.4812	6,726.56	64.5251	6,726.56	56.6581	6,726.56	63.8806	6,726.56	65.7507	6,726.56	63.6003	6,726.56	58.264	6,726.56	63.4231	6,726.56	59.96	6,726.56	64.8624	6,726.56	57.8165	6,726.56	50.681	6,726.56	57.1975	6,726.56	50.165
6,963.87	85.6155	6,963.87	85.3018	6,963.87	85.2497	6,963.87	83.7208	6,963.87	84.8487	6,963.87	82.7717	6,963.87	83.6524	6,963.87	81.2183	6,963.87	82.0815	6,963.87	80.7335	6,963.87	81.2866	6,963.87	78.884	6,963.87	80.3096	6,963.87	76.9793	6,963.87	77.4642	6,963.87	74.016	6,963.87	75.4271	6,963.87	70.7463	6,963.87	73.6182	6,963.87	65.4872	6,963.87	61.8341	6,963.87	63.587	6,963.87	68.1407	6,963.87	62.7604	6,963.87	54.2112	6,963.87	63.4842	6,963.87	63.9874	6,963.87	62.0777	6,963.87	50.6902	6,963.87	61.3116	6,963.87	61.7578	6,963.87	63.9765	6,963.87	53.612	6,963.87	55.4113	6,963.87	58.4479	6,963.87	51.2674
7,209.96	85.3752	7,209.96	84.8493	7,209.96	85.1906	7,209.96	84.2536	7,209.96	84.5943	7,209.96	82.5699	7,209.96	83.8082	7,209.96	80.8736	7,209.96	82.2887	7,209.96	80.8513	7,209.96	80.7011	7,209.96	78.3817	7,209.96	79.346	7,209.96	76.1006	7,209.96	78.1255	7,209.96	73.3753	7,209.96	77.8622	7,209.96	70.2642	7,209.96	73.6653	7,209.96	66.577	7,209.96	60.9445	7,209.96	63.6904	7,209.96	67.8559	7,209.96	62.2672	7,209.96	53.9858	7,209.96	61.9704	7,209.96	62.4216	7,209.96	62.5769	7,209.96	55.7384	7,209.96	59.7215	7,209.96	63.8603	7,209.96	64.8057	7,209.96	52.2765	7,209.96	56.788	7,209.96	57.718	7,209.96	53.3296
7,464.84	85.1433	7,464.84	84.6822	7,464.84	85.3289	7,464.84	84.4881	7,464.84	84.3039	7,464.84	82.2537	7,464.84	83.6677	7,464.84	81.356	7,464.84	82.4372	7,464.84	80.3784	7,464.84	80.6813	7,464.84	78.3965	7,464.84	78.805	7,464.84	76.1685	7,464.84	78.2186	7,464.84	73.5606	7,464.84	77.328	7,464.84	69.1238	7,464.84	73.9745	7,464.84	65.4442	7,464.84	65.2178	7,464.84	62.1269	7,464.84	69.9867	7,464.84	62.7834	7,464.84	56.8462	7,464.84	58.8382	7,464.84	64.5839	7,464.84	61.8853	7,464.84	56.7688	7,464.84	58.9081	7,464.84	61.4684	7,464.84	65.0723	7,464.84	54.0445	7,464.84	55.9161	7,464.84	57.7991	7,464.84	51.88
7,728.52	85.2567	7,728.52	84.9532	7,728.52	85.4768	7,728.52	84.5086	7,728.52	84.2849	7,728.52	82.6171	7,728.52	83.4693	7,728.52	81.5182	7,728.52	82.3152	7,728.52	80.1288	7,728.52	80.1891	7,728.52	78.6057	7,728.52	77.6127	7,728.52	75.009	7,728.52	77.1123	7,728.52	71.5104	7,728.52	75.997	7,728.52	66.7261	7,728.52	71.8277	7,728.52	63.2998	7,728.52	66.6627	7,728.52	61.4107	7,728.52	67.3701	7,728.52	60.142	7,728.52	50.6936	7,728.52	56.3629	7,728.52	61.3802	7,728.52	60.4006	7,728.52	57.3647	7,728.52	59.1678	7,728.52	58.0355	7,728.52	63.2303	7,728.52	53.0435	7,728.52	49.5297	7,728.52	55.5216	7,728.52	51.6582
8,000.98	85.4872	8,000.98	85.3642	8,000.98	85.7433	8,000.98	84.8735	8,000.98	84.4734	8,000.98	82.7563	8,000.98	83.4113	8,000.98	81.5295	8,000.98	82.0536	8,000.98	80.3186	8,000.98	79.9355	8,000.98	77.9165	8,000.98	77.7305	8,000.98	73.507	8,000.98	77.018	8,000.98	69.9305	8,000.98	72.4965	8,000.98	65.2144	8,000.98	65.3417	8,000.98	63.0424	8,000.98	60.6463	8,000.98	59.9324	8,000.98	64.5157	8,000.98	58.3969	8,000.98	49.6527	8,000.98	58.88	8,000.98	55.3737	8,000.98	59.1431	8,000.98	51.7441	8,000.98	58.1651	8,000.98	56.0849	8,000.98	62.2475	8,000.98	44.5525	8,000.98	49.261	8,000.98	53.7975	8,000.98	51.8661
8,282.23	85.7571	8,282.23	85.599	8,282.23	85.9337	8,282.23	85.0498	8,282.23	84.4531	8,282.23	82.7019	8,282.23	83.5093	8,282.23	81.5175	8,282.23	81.7667	8,282.23	79.6908	8,282.23	79.402	8,282.23	76.8806	8,282.23	76.3888	8,282.23	73.2145	8,282.23	74.0957	8,282.23	70.3045	8,282.23	66.2042	8,282.23	65.4115	8,282.23	64.9618	8,282.23	62.2142	8,282.23	58.3291	8,282.23	59.9203	8,282.23	60.0085	8,282.23	59.2519	8,282.23	50.3585	8,282.23	59.9884	8,282.23	54.5399	8,282.23	58.9009	8,282.23	49.0425	8,282.23	59.8842	8,282.23	58.4202	8,282.23	63.1187	8,282.23	53.6826	8,282.23	46.5714	8,282.23	55.7513	8,282.23	55.8437
8,575.2	85.6426	8,575.2	85.4728	8,575.2	85.9027	8,575.2	84.7561	8,575.2	84.5773	8,575.2	82.5724	8,575.2	83.5521	8,575.2	81.0876	8,575.2	81.2888	8,575.2	78.7475	8,575.2	78.8583	8,575.2	75.903	8,575.2	76.4808	8,575.2	73.3321	8,575.2	73.025	8,575.2	69.7955	8,575.2	68.2938	8,575.2	65.6442	8,575.2	66.1571	8,575.2	60.8375	8,575.2	58.2268	8,575.2	59.5916	8,575.2	59.5018	8,575.2	55.207	8,575.2	57.2741	8,575.2	60.2934	8,575.2	45.7609	8,575.2	56.846	8,575.2	48.5426	8,575.2	60.1958	8,575.2	54.9114	8,575.2	61.3616	8,575.2	52.7363	8,575.2	31.76	8,575.2	51.0535	8,575.2	56.2531
8,876.95	84.9922	8,876.95	84.9059	8,876.95	85.4954	8,876.95	84.3705	8,876.95	84.618	8,876.95	82.3463	8,876.95	83.4449	8,876.95	80.5232	8,876.95	80.9328	8,876.95	77.473	8,876.95	78.6612	8,876.95	75.1232	8,876.95	76.5551	8,876.95	72.4751	8,876.95	73.0566	8,876.95	69.5976	8,876.95	72.5368	8,876.95	65.9559	8,876.95	67.7414	8,876.95	60.2465	8,876.95	62.9384	8,876.95	59.7633	8,876.95	61.831	8,876.95	55.6426	8,876.95	56.4609	8,876.95	60.5141	8,876.95	47.4851	8,876.95	54.9793	8,876.95	46.4914	8,876.95	59.4094	8,876.95	55.025	8,876.95	60.7126	8,876.95	54.2317	8,876.95	42.5498	8,876.95	53.2297	8,876.95	57.0526
9,190.43	84.3126	9,190.43	84.3863	9,190.43	85.0339	9,190.43	83.7987	9,190.43	84.5038	9,190.43	82.0865	9,190.43	83.1201	9,190.43	79.6355	9,190.43	80.2778	9,190.43	76.419	9,190.43	77.9782	9,190.43	73.3147	9,190.43	75.6894	9,190.43	72.2863	9,190.43	72.6478	9,190.43	68.7167	9,190.43	70.9086	9,190.43	65.7437	9,190.43	65.2466	9,190.43	57.2014	9,190.43	59.793	9,190.43	59.0225	9,190.43	58.2369	9,190.43	52.0213	9,190.43	50.181	9,190.43	59.0011	9,190.43	47.9855	9,190.43	54.9283	9,190.43	39.8958	9,190.43	59.1311	9,190.43	52.4215	9,190.43	59.4072	9,190.43	53.2624	9,190.43	48.3989	9,190.43	54.0787	9,190.43	56.9746
9,512.7	84.0967	9,512.7	84.5029	9,512.7	84.5747	9,512.7	83.7274	9,512.7	84.4005	9,512.7	82.2118	9,512.7	82.719	9,512.7	78.9549	9,512.7	79.4687	9,512.7	76.9558	9,512.7	77.4953	9,512.7	72.2456	9,512.7	74.5344	9,512.7	72.6714	9,512.7	72.0975	9,512.7	68.5348	9,512.7	69.8737	9,512.7	64.8753	9,512.7	56.476	9,512.7	59.0517	9,512.7	62.2294	9,512.7	59.0157	9,512.7	63.5447	9,512.7	54.4574	9,512.7	47.5754	9,512.7	58.7224	9,512.7	58.3171	9,512.7	54.7471	9,512.7	43.6542	9,512.7	56.2104	9,512.7	58.0369	9,512.7	59.5161	9,512.7	49.0614	9,512.7	50.1485	9,512.7	54.2294	9,512.7	57.5061
9,849.61	84.034	9,849.61	84.5691	9,849.61	84.4725	9,849.61	83.8623	9,849.61	84.4113	9,849.61	81.7419	9,849.61	82.3011	9,849.61	78.461	9,849.61	79.0073	9,849.61	76.4009	9,849.61	76.6522	9,849.61	72.9555	9,849.61	74.0927	9,849.61	72.1103	9,849.61	72.0278	9,849.61	69.2829	9,849.61	69.0116	9,849.61	63.7862	9,849.61	63.6522	9,849.61	58.006	9,849.61	65.522	9,849.61	57.2246	9,849.61	64.6842	9,849.61	54.3714	9,849.61	53.537	9,849.61	57.5129	9,849.61	59.5134	9,849.61	54.6763	9,849.61	44.1571	9,849.61	56.5601	9,849.61	56.6139	9,849.61	59.4851	9,849.61	46.091	9,849.61	49.285	9,849.61	55.1001	9,849.61	59.7943
10,195.3	84.0612	10,195.3	84.6761	10,195.3	84.4175	10,195.3	83.7834	10,195.3	84.2321	10,195.3	81.1502	10,195.3	81.8582	10,195.3	77.8672	10,195.3	78.7994	10,195.3	76.0433	10,195.3	76.3434	10,195.3	72.738	10,195.3	73.4107	10,195.3	72.3978	10,195.3	72.8328	10,195.3	69.2944	10,195.3	68.8473	10,195.3	65.2973	10,195.3	66.4563	10,195.3	56.8852	10,195.3	66.0407	10,195.3	55.7615	10,195.3	65.8218	10,195.3	54.1818	10,195.3	52.1102	10,195.3	55.9079	10,195.3	58.6343	10,195.3	56.595	10,195.3	53.9928	10,195.3	56.519	10,195.3	55.7894	10,195.3	59.3587	10,195.3	49.0392	10,195.3	50.7163	10,195.3	56.856	10,195.3	60.7318
10,555.7	84.1048	10,555.7	84.5051	10,555.7	84.4311	10,555.7	83.4492	10,555.7	83.9695	10,555.7	80.2695	10,555.7	81.4318	10,555.7	77.8934	10,555.7	78.9977	10,555.7	75.4379	10,555.7	76.4124	10,555.7	73.5395	10,555.7	73.6851	10,555.7	72.0873	10,555.7	72.8082	10,555.7	68.8748	10,555.7	68.2969	10,555.7	65.7625	10,555.7	67.2564	10,555.7	54.8087	10,555.7	67.3016	10,555.7	55.9016	10,555.7	65.4909	10,555.7	54.4296	10,555.7	55.6272	10,555.7	52.2324	10,555.7	55.1374	10,555.7	57.3156	10,555.7	53.3903	10,555.7	56.5662	10,555.7	57.3723	10,555.7	58.4938	10,555.7	50.9718	10,555.7	50.5975	10,555.7	56.9241	10,555.7	60.8639
10,927.7	83.9259	10,927.7	84.1031	10,927.7	84.2192	10,927.7	82.5739	10,927.7	83.3141	10,927.7	79.5672	10,927.7	81.0966	10,927.7	78.2409	10,927.7	79.3105	10,927.7	76.1285	10,927.7	76.8546	10,927.7	73.012	10,927.7	73.8999	10,927.7	72.1236	10,927.7	71.7789	10,927.7	67.3264	10,927.7	63.6883	10,927.7	65.5008	10,927.7	65.8346	10,927.7	56.3095	10,927.7	66.803	10,927.7	55.1896	10,927.7	65.9328	10,927.7	53.8345	10,927.7	51.9847	10,927.7	52.4612	10,927.7	52.3893	10,927.7	55.7831	10,927.7	53.2507	10,927.7	55.7853	10,927.7	55.4565	10,927.7	56.0287	10,927.7	52.2633	10,927.7	42.3302	10,927.7	52.7922	10,927.7	59.1919
11,314.5	84.3282	11,314.5	83.8653	11,314.5	83.8085	11,314.5	81.6321	11,314.5	82.2813	11,314.5	79.6331	11,314.5	81.0041	11,314.5	79.08	11,314.5	79.6303	11,314.5	76.0848	11,314.5	76.9636	11,314.5	72.5713	11,314.5	72.5647	11,314.5	70.2278	11,314.5	67.3578	11,314.5	66.8317	11,314.5	65.5488	11,314.5	64.1986	11,314.5	64.2597	11,314.5	58.352	11,314.5	68.2696	11,314.5	55.0517	11,314.5	65.8232	11,314.5	54.2839	11,314.5	50.6095	11,314.5	53.3746	11,314.5	48.4737	11,314.5	54.2938	11,314.5	50.449	11,314.5	56.1035	11,314.5	55.0415	11,314.5	56.1424	11,314.5	52.7658	11,314.5	43.1694	11,314.5	53.0543	11,314.5	57.7627
11,712.9	84.9315	11,712.9	83.4499	11,712.9	83.5142	11,712.9	80.6436	11,712.9	80.9043	11,712.9	80.2664	11,712.9	80.7055	11,712.9	78.9225	11,712.9	79.4158	11,712.9	75.4747	11,712.9	76.262	11,712.9	69.456	11,712.9	72.0029	11,712.9	71.5172	11,712.9	65.7688	11,712.9	67.3017	11,712.9	67.4105	11,712.9	63.93	11,712.9	62.608	11,712.9	59.0109	11,712.9	68.6911	11,712.9	53.6532	11,712.9	67.6587	11,712.9	55.7605	11,712.9	37.1923	11,712.9	52.5044	11,712.9	51.198	11,712.9	53.5305	11,712.9	50.2449	11,712.9	53.9963	11,712.9	52.1538	11,712.9	48.4774	11,712.9	50.0933	11,712.9	39.914	11,712.9	52.0043	11,712.9	52.6299
12,126	85.6585	12,126	83.5177	12,126	83.8552	12,126	80.9827	12,126	81.2846	12,126	80.4246	12,126	80.6917	12,126	77.8239	12,126	78.0159	12,126	73.3505	12,126	74.7252	12,126	70.7637	12,126	70.709	12,126	70.4919	12,126	68.4913	12,126	65.7701	12,126	66.8689	12,126	61.5136	12,126	61.8071	12,126	56.198	12,126	67.2455	12,126	48.9882	12,126	65.7695	12,126	53.4724	12,126	41.7185	12,126	48.78	12,126	49.633	12,126	52.0653	12,126	44.7798	12,126	49.0405	12,126	46.5982	12,126	46.0752	12,126	50.0817	12,126	44.2299	12,126	48.143	12,126	41.945
12,553.7	85.5826	12,553.7	83.2211	12,553.7	84.1741	12,553.7	81.4794	12,553.7	81.9309	12,553.7	79.7126	12,553.7	80.2734	12,553.7	76.668	12,553.7	77.1175	12,553.7	73.0689	12,553.7	74.636	12,553.7	71.1321	12,553.7	71.2982	12,553.7	69.1685	12,553.7	68.6372	12,553.7	64.4267	12,553.7	63.2878	12,553.7	58.5525	12,553.7	58.0146	12,553.7	54.7088	12,553.7	65.0841	12,553.7	40.6669	12,553.7	65.1924	12,553.7	53.0675	12,553.7	32.5265	12,553.7	46.4207	12,553.7	47.6073	12,553.7	47.8082	12,553.7	45.6853	12,553.7	39.8765	12,553.7	51.2931	12,553.7	38.4389	12,553.7	46.4247	12,553.7	46.3091	12,553.7	38.9409	12,553.7	50.2348
12,996.1	84.6994	12,996.1	82.8651	12,996.1	83.5282	12,996.1	81.4401	12,996.1	81.9919	12,996.1	78.581	12,996.1	79.4953	12,996.1	76.0635	12,996.1	76.4443	12,996.1	73.8187	12,996.1	74.5581	12,996.1	69.5487	12,996.1	71.514	12,996.1	67.4067	12,996.1	67.9802	12,996.1	63.1713	12,996.1	60.6024	12,996.1	55.4125	12,996.1	58.495	12,996.1	53.103	12,996.1	64.0247	12,996.1	36.6175	12,996.1	65.5129	12,996.1	52.0654	12,996.1	39.633	12,996.1	43.9622	12,996.1	52.6284	12,996.1	42.3715	12,996.1	52.3424	12,996.1	44.1336	12,996.1	54.7231	12,996.1	50.0569	12,996.1	41.5491	12,996.1	48.4822	12,996.1	48.7085	12,996.1	56.5025
13,453.1	83.5008	13,453.1	82.9475	13,453.1	82.714	13,453.1	81.2928	13,453.1	81.7853	13,453.1	78.2096	13,453.1	78.8085	13,453.1	75.9017	13,453.1	75.8073	13,453.1	73.1733	13,453.1	73.4903	13,453.1	66.9815	13,453.1	69.0013	13,453.1	64.3945	13,453.1	64.6467	13,453.1	61.2137	13,453.1	60.5224	13,453.1	54.1243	13,453.1	57.7591	13,453.1	47.8901	13,453.1	63.7509	13,453.1	25.4827	13,453.1	64.4887	13,453.1	48.7042	13,453.1	41.9561	13,453.1	40.8907	13,453.1	53.4256	13,453.1	42.7138	13,453.1	51.4673	13,453.1	50.3557	13,453.1	53.1134	13,453.1	52.6625	13,453.1	44.6831	13,453.1	44.9069	13,453.1	49.3263	13,453.1	58.0331
13,927.7	83.6286	13,927.7	83.546	13,927.7	83.0381	13,927.7	81.8054	13,927.7	81.9481	13,927.7	78.9403	13,927.7	78.7876	13,927.7	75.7067	13,927.7	75.364	13,927.7	70.9474	13,927.7	71.7252	13,927.7	62.9699	13,927.7	64.7566	13,927.7	59.3812	13,927.7	59.2223	13,927.7	51.9245	13,927.7	56.5263	13,927.7	47.7688	13,927.7	49.4973	13,927.7	43.2603	13,927.7	62.7513	13,927.7	36.6876	13,927.7	63.0956	13,927.7	43.0682	13,927.7	36.7578	13,927.7	43.753	13,927.7	50.4753	13,927.7	44.7557	13,927.7	47.4988	13,927.7	48.7645	13,927.7	46.9326	13,927.7	51.3988	13,927.7	40.3309	13,927.7	33.2608	13,927.7	41.9361	13,927.7	56.8592
14,419.9	85.1765	14,419.9	84.7032	14,419.9	84.5697	14,419.9	82.8567	14,419.9	82.5717	14,419.9	79.4676	14,419.9	78.6231	14,419.9	74.8505	14,419.9	74.021	14,419.9	67.3481	14,419.9	68.4161	14,419.9	51.4162	14,419.9	57.2663	14,419.9	58.7666	14,419.9	52.956	14,419.9	56.5051	14,419.9	46.89	14,419.9	51.5951	14,419.9	49.075	14,419.9	53.6506	14,419.9	61.6577	14,419.9	45.5539	14,419.9	63.2034	14,419.9	48.1034	14,419.9	33.8631	14,419.9	48.0108	14,419.9	52.5558	14,419.9	51.6484	14,419.9	52.5123	14,419.9	50.4535	14,419.9	48.919	14,419.9	49.118	14,419.9	37.5431	14,419.9	48.6252	14,419.9	51.1875	14,419.9	55.7535
14,929.7	86.0311	14,929.7	85.3995	14,929.7	85.4103	14,929.7	83.0143	14,929.7	82.6943	14,929.7	78.822	14,929.7	78.0596	14,929.7	73.0712	14,929.7	71.8367	14,929.7	62.25	14,929.7	63.1838	14,929.7	56.272	14,929.7	55.0478	14,929.7	64.323	14,929.7	55.9988	14,929.7	61.7682	14,929.7	48.0856	14,929.7	56.5945	14,929.7	56.4448	14,929.7	58.5282	14,929.7	61.6136	14,929.7	49.7986	14,929.7	64.3766	14,929.7	52.0848	14,929.7	38.4296	14,929.7	51.8787	14,929.7	54.8259	14,929.7	54.8562	14,929.7	55.2021	14,929.7	54.3784	14,929.7	52.9708	14,929.7	52.653	14,929.7	37.9066	14,929.7	50.9733	14,929.7	54.302	14,929.7	57.2599
15,454.1	86.3081	15,454.1	85.6679	15,454.1	85.5986	15,454.1	82.6068	15,454.1	82.4881	15,454.1	78.0217	15,454.1	77.3648	15,454.1	71.0312	15,454.1	70.0153	15,454.1	64.6103	15,454.1	62.0916	15,454.1	58.4554	15,454.1	63.6414	15,454.1	67.1169	15,454.1	58.7629	15,454.1	63.8369	15,454.1	54.0519	15,454.1	56.049	15,454.1	57.446	15,454.1	60.3718	15,454.1	63.2181	15,454.1	52.9001	15,454.1	65.7097	15,454.1	53.5434	15,454.1	45.5675	15,454.1	54.5809	15,454.1	54.8161	15,454.1	56.4372	15,454.1	57.2456	15,454.1	54.6848	15,454.1	57.4803	15,454.1	50.5916	15,454.1	42.9183	15,454.1	53.2814	15,454.1	53.8717	15,454.1	57.9564
15,999	86.0475	15,999	85.3929	15,999	85.5241	15,999	81.9493	15,999	82.1944	15,999	77.468	15,999	76.5799	15,999	69.9749	15,999	69.4493	15,999	68.401	15,999	67.645	15,999	61.0968	15,999	65.7994	15,999	67.9398	15,999	59.2556	15,999	65.2466	15,999	58.4327	15,999	54.6651	15,999	62.2395	15,999	60.5277	15,999	63.0645	15,999	53.9073	15,999	66.8781	15,999	53.3773	15,999	46.4692	15,999	56.1146	15,999	56.6342	15,999	57.2975	15,999	58.6702	15,999	54.1398	15,999	61.0879	15,999	45.4878	15,999	49.9343	15,999	57.1228	15,999	56.8478	15,999	59.3855
16,564.5	85.6174	16,564.5	85.0666	16,564.5	85.2275	16,564.5	81.5879	16,564.5	81.6813	16,564.5	77.2772	16,564.5	76.2533	16,564.5	72.4398	16,564.5	70.775	16,564.5	69.0547	16,564.5	70.7181	16,564.5	61.61	16,564.5	66.369	16,564.5	67.383	16,564.5	61.4967	16,564.5	65.1488	16,564.5	60.9507	16,564.5	51.7863	16,564.5	64.1172	16,564.5	60.4068	16,564.5	64.6646	16,564.5	55.3672	16,564.5	67.2118	16,564.5	53.1453	16,564.5	48.2147	16,564.5	58.1602	16,564.5	59.404	16,564.5	57.5341	16,564.5	60.7558	16,564.5	54.241	16,564.5	62.7287	16,564.5	53.783	16,564.5	52.653	16,564.5	60.6053	16,564.5	59.1568	16,564.5	60.6286
17,147.5	85.274	17,147.5	84.5816	17,147.5	84.8786	17,147.5	80.9666	17,147.5	81.0924	17,147.5	76.3697	17,147.5	76.3095	17,147.5	72.9971	17,147.5	72.2011	17,147.5	67.91	17,147.5	70.0828	17,147.5	57.6846	17,147.5	66.6331	17,147.5	65.614	17,147.5	64.7273	17,147.5	63.9873	17,147.5	54.2282	17,147.5	50.6692	17,147.5	62.805	17,147.5	58.8764	17,147.5	65.548	17,147.5	53.7961	17,147.5	67.3129	17,147.5	50.3304	17,147.5	44.589	17,147.5	57.8455	17,147.5	59.2563	17,147.5	54.9152	17,147.5	60.9191	17,147.5	54.4337	17,147.5	62.672	17,147.5	57.8556	17,147.5	50.698	17,147.5	61.6946	17,147.5	59.7905	17,147.5	61.2981
17,753.9	84.6864	17,753.9	83.7839	17,753.9	84.4461	17,753.9	80.161	17,753.9	80.6479	17,753.9	75.75	17,753.9	76.1984	17,753.9	72.4315	17,753.9	72.6716	17,753.9	66.5287	17,753.9	69.0089	17,753.9	48.7661	17,753.9	66.3748	17,753.9	65.1453	17,753.9	60.1859	17,753.9	61.9846	17,753.9	57.7413	17,753.9	48.1809	17,753.9	61.5806	17,753.9	56.3384	17,753.9	66.1851	17,753.9	53.3111	17,753.9	67.6096	17,753.9	46.0967	17,753.9	46.1247	17,753.9	55.6217	17,753.9	56.4453	17,753.9	53.8378	17,753.9	59.9564	17,753.9	56.1445	17,753.9	61.9554	17,753.9	61.1192	17,753.9	46.5423	17,753.9	61.3753	17,753.9	59.5794	17,753.9	63.3731
18,377.9	83.4565	18,377.9	82.9168	18,377.9	83.426	18,377.9	79.5135	18,377.9	79.9878	18,377.9	75.9917	18,377.9	76.1591	18,377.9	71.8012	18,377.9	72.1276	18,377.9	65.2098	18,377.9	67.5947	18,377.9	54.2032	18,377.9	64.0316	18,377.9	62.6469	18,377.9	58.7906	18,377.9	59.9448	18,377.9	58.1905	18,377.9	47.7524	18,377.9	61.8243	18,377.9	55.1936	18,377.9	66.3252	18,377.9	52.9855	18,377.9	66.4307	18,377.9	41.7132	18,377.9	41.4968	18,377.9	54.8786	18,377.9	54.7667	18,377.9	53.284	18,377.9	59.8197	18,377.9	57.7797	18,377.9	61.1633	18,377.9	61.7891	18,377.9	48.3076	18,377.9	60.7405	18,377.9	60.2636	18,377.9	63.9776
19,028.3	82.5213	19,028.3	82.2004	19,028.3	82.5397	19,028.3	79.0316	19,028.3	79.1949	19,028.3	75.5936	19,028.3	75.5456	19,028.3	70.4624	19,028.3	71.0645	19,028.3	62.803	19,028.3	65.8936	19,028.3	58.2676	19,028.3	63.2617	19,028.3	59.2686	19,028.3	58.3928	19,028.3	56.545	19,028.3	53.8433	19,028.3	47.1473	19,028.3	60.0556	19,028.3	52.4491	19,028.3	65.4442	19,028.3	51.5535	19,028.3	64.1553	19,028.3	41.0126	19,028.3	40.2846	19,028.3	52.464	19,028.3	52.8641	19,028.3	51.765	19,028.3	58.7492	19,028.3	57.7891	19,028.3	59.7309	19,028.3	61.3408	19,028.3	48.6444	19,028.3	59.8038	19,028.3	58.9312	19,028.3	63.6985
19,699.2	82.3091	19,699.2	81.5599	19,699.2	82.1514	19,699.2	78.0264	19,699.2	78.6461	19,699.2	73.7895	19,699.2	74.8875	19,699.2	67.5003	19,699.2	69.784	19,699.2	58.5564	19,699.2	62.8169	19,699.2	58.5862	19,699.2	61.9136	19,699.2	56.3359	19,699.2	52.2834	19,699.2	53.0738	19,699.2	52.7759	19,699.2	46.6898	19,699.2	58.7051	19,699.2	50.4569	19,699.2	63.8379	19,699.2	48.5284	19,699.2	62.0602	19,699.2	39.2403	19,699.2	44.2413	19,699.2	49.6441	19,699.2	51.1596	19,699.2	50.8752	19,699.2	56.5897	19,699.2	57.197	19,699.2	57.1714	19,699.2	60.5768	19,699.2	52.912	19,699.2	58.9145	19,699.2	56.6727	19,699.2	63.0447
19,998	82.0222	19,998	81.1878	19,998	81.6764	19,998	77.5685	19,998	77.8114	19,998	73.2875	19,998	74.1818	19,998	65.6078	19,998	68.6802	19,998	57.546	19,998	60.562	19,998	58.9317	19,998	60.8156	19,998	56.2223	19,998	53.6251	19,998	52.1498	19,998	53.128	19,998	48.7837	19,998	58.0459	19,998	47.7999	19,998	63.4102	19,998	45.3479	19,998	60.2095	19,998	36.5349	19,998	46.1916	19,998	49.8375	19,998	49.6965	19,998	49.6849	19,998	57.251	19,998	55.7556	19,998	57.0313	19,998	59.8187	19,998	54.8392	19,998	57.7262	19,998	56.9022	19,998	62.6536
