"SPL Horizontal"																																																																							
"On-Axis"		"10°"		"-10°"		"20°"		"-20°"		"30°"		"-30°"		"40°"		"-40°"		"50°"		"-50°"		"60°"		"-60°"		"70°"		"-70°"		"80°"		"-80°"		"90°"		"-90°"		"100°"		"-100°"		"110°"		"-110°"		"120°"		"-120°"		"130°"		"-130°"		"140°"		"-140°"		"150°"		"-150°"		"160°"		"-160°"		"170°"		"-170°"		"180°"	
"Frequency [Hz]"	"Sound Pessure Level [dB]  / [2.83V 1m] "	"Frequency [Hz]"	"Sound Pessure Level [dB]  / [2.83V 1m] "	"Frequency [Hz]"	"Sound Pessure Level [dB]  / [2.83V 1m] "	"Frequency [Hz]"	"Sound Pessure Level [dB]  / [2.83V 1m] "	"Frequency [Hz]"	"Sound Pessure Level [dB]  / [2.83V 1m] "	"Frequency [Hz]"	"Sound Pessure Level [dB]  / [2.83V 1m] "	"Frequency [Hz]"	"Sound Pessure Level [dB]  / [2.83V 1m] "	"Frequency [Hz]"	"Sound Pessure Level [dB]  / [2.83V 1m] "	"Frequency [Hz]"	"Sound Pessure Level [dB]  / [2.83V 1m] "	"Frequency [Hz]"	"Sound Pessure Level [dB]  / [2.83V 1m] "	"Frequency [Hz]"	"Sound Pessure Level [dB]  / [2.83V 1m] "	"Frequency [Hz]"	"Sound Pessure Level [dB]  / [2.83V 1m] "	"Frequency [Hz]"	"Sound Pessure Level [dB]  / [2.83V 1m] "	"Frequency [Hz]"	"Sound Pessure Level [dB]  / [2.83V 1m] "	"Frequency [Hz]"	"Sound Pessure Level [dB]  / [2.83V 1m] "	"Frequency [Hz]"	"Sound Pessure Level [dB]  / [2.83V 1m] "	"Frequency [Hz]"	"Sound Pessure Level [dB]  / [2.83V 1m] "	"Frequency [Hz]"	"Sound Pessure Level [dB]  / [2.83V 1m] "	"Frequency [Hz]"	"Sound Pessure Level [dB]  / [2.83V 1m] "	"Frequency [Hz]"	"Sound Pessure Level [dB]  / [2.83V 1m] "	"Frequency [Hz]"	"Sound Pessure Level [dB]  / [2.83V 1m] "	"Frequency [Hz]"	"Sound Pessure Level [dB]  / [2.83V 1m] "	"Frequency [Hz]"	"Sound Pessure Level [dB]  / [2.83V 1m] "	"Frequency [Hz]"	"Sound Pessure Level [dB]  / [2.83V 1m] "	"Frequency [Hz]"	"Sound Pessure Level [dB]  / [2.83V 1m] "	"Frequency [Hz]"	"Sound Pessure Level [dB]  / [2.83V 1m] "	"Frequency [Hz]"	"Sound Pessure Level [dB]  / [2.83V 1m] "	"Frequency [Hz]"	"Sound Pessure Level [dB]  / [2.83V 1m] "	"Frequency [Hz]"	"Sound Pessure Level [dB]  / [2.83V 1m] "	"Frequency [Hz]"	"Sound Pessure Level [dB]  / [2.83V 1m] "	"Frequency [Hz]"	"Sound Pessure Level [dB]  / [2.83V 1m] "	"Frequency [Hz]"	"Sound Pessure Level [dB]  / [2.83V 1m] "	"Frequency [Hz]"	"Sound Pessure Level [dB]  / [2.83V 1m] "	"Frequency [Hz]"	"Sound Pessure Level [dB]  / [2.83V 1m] "	"Frequency [Hz]"	"Sound Pessure Level [dB]  / [2.83V 1m] "	"Frequency [Hz]"	"Sound Pessure Level [dB]  / [2.83V 1m] "
20.5078	58.085	20.5078	58.068	20.5078	58.0674	20.5078	58.0251	20.5078	58.016	20.5078	57.9755	20.5078	57.9419	20.5078	57.9499	20.5078	57.8675	20.5078	57.9903	20.5078	57.8288	20.5078	58.1445	20.5078	57.8742	20.5078	58.4543	20.5078	58.0566	20.5078	58.9386	20.5078	58.4177	20.5078	59.5829	20.5078	58.9683	20.5078	60.3419	20.5078	59.68	20.5078	61.1545	20.5078	60.4942	20.5078	61.9591	20.5078	61.3417	20.5078	62.7033	20.5078	62.1588	20.5078	63.3466	20.5078	62.8948	20.5078	63.8595	20.5078	63.5128	20.5078	64.2217	20.5078	63.9874	20.5078	64.4201	20.5078	64.302	20.5078	64.4474
23.4375	61.0517	23.4375	61.0463	23.4375	61.0428	23.4375	61.0341	23.4375	61.021	23.4375	61.0323	23.4375	60.9974	23.4375	61.0673	23.4375	60.9929	23.4375	61.1732	23.4375	61.0383	23.4375	61.3859	23.4375	61.1709	23.4375	61.7335	23.4375	61.4275	23.4375	62.2256	23.4375	61.8321	23.4375	62.8466	23.4375	62.3852	23.4375	63.5588	23.4375	63.06	23.4375	64.3124	23.4375	63.81	23.4375	65.0566	23.4375	64.581	23.4375	65.746	23.4375	65.3213	23.4375	66.3444	23.4375	65.9882	23.4375	66.8243	23.4375	66.5485	23.4375	67.166	23.4375	66.9784	23.4375	67.3566	23.4375	67.2617	23.4375	67.3891
26.3672	65.148	26.3672	65.1586	26.3672	65.1482	26.3672	65.1846	26.3672	65.1601	26.3672	65.2367	26.3672	65.1908	26.3672	65.3302	26.3672	65.2527	26.3672	65.4837	26.3672	65.3632	26.3672	65.7153	26.3672	65.5418	26.3672	66.0386	26.3672	65.8064	26.3672	66.4572	26.3672	66.1679	26.3672	66.9621	26.3672	66.6255	26.3672	67.5313	26.3672	67.1645	26.3672	68.1339	26.3672	67.7578	26.3672	68.7343	26.3672	68.3708	26.3672	69.298	26.3672	68.9666	26.3672	69.7937	26.3672	69.5106	26.3672	70.196	26.3672	69.9736	26.3672	70.4852	26.3672	70.3324	26.3672	70.648	26.3672	70.5703	26.3672	70.6769
29.2969	68.1199	29.2969	68.1312	29.2969	68.1245	29.2969	68.162	29.2969	68.1456	29.2969	68.2192	29.2969	68.188	29.2969	68.3135	29.2969	68.2599	29.2969	68.4572	29.2969	68.3727	29.2969	68.6626	29.2969	68.5392	29.2969	68.9393	29.2969	68.7714	29.2969	69.2903	29.2969	69.0772	29.2969	69.7105	29.2969	69.4571	29.2969	70.1849	29.2969	69.9021	29.2969	70.6907	29.2969	70.3939	29.2969	71.2001	29.2969	70.9067	29.2969	71.6836	29.2969	71.4108	29.2969	72.1134	29.2969	71.8764	29.2969	72.4652	29.2969	72.2767	29.2969	72.7201	29.2969	72.5893	29.2969	72.8644	29.2969	72.7975	29.2969	72.8908
32.2266	70.8387	32.2266	70.8529	32.2266	70.8441	32.2266	70.889	32.2266	70.8693	32.2266	70.9517	32.2266	70.9173	32.2266	71.0477	32.2266	70.9932	32.2266	71.1849	32.2266	71.1043	32.2266	71.3711	32.2266	71.2586	32.2266	71.6123	32.2266	71.4638	32.2266	71.9107	32.2266	71.7253	32.2266	72.2628	32.2266	72.0437	32.2266	72.6585	32.2266	72.4134	32.2266	73.081	32.2266	72.8219	32.2266	73.5091	32.2266	73.2501	32.2266	73.9184	32.2266	73.6749	32.2266	74.2851	32.2266	74.0713	32.2266	74.5871	32.2266	74.4156	32.2266	74.8067	32.2266	74.6869	32.2266	74.9308	32.2266	74.8692	32.2266	74.9521
35.1563	73.4102	35.1563	73.4265	35.1563	73.4141	35.1563	73.4644	35.1563	73.4384	35.1563	73.5267	35.1563	73.4848	35.1563	73.6175	35.1563	73.5564	35.1563	73.7415	35.1563	73.6577	35.1563	73.9036	35.1563	73.7936	35.1563	74.1076	35.1563	73.969	35.1563	74.3549	35.1563	74.1873	35.1563	74.6434	35.1563	74.4492	35.1563	74.9662	35.1563	74.7512	35.1563	75.3117	35.1563	75.0847	35.1563	75.6635	35.1563	75.4361	35.1563	76.0024	35.1563	75.7874	35.1563	76.3082	35.1563	76.1183	35.1563	76.5618	35.1563	76.4084	35.1563	76.7467	35.1563	76.6391	35.1563	76.851	35.1563	76.7956	35.1563	76.8677
38.0859	75.376	38.0859	75.3909	38.0859	75.3811	38.0859	75.4266	38.0859	75.4063	38.0859	75.4848	38.0859	75.4525	38.0859	75.5679	38.0859	75.5216	38.0859	75.6788	38.0859	75.616	38.0859	75.8203	38.0859	75.7387	38.0859	75.9948	38.0859	75.8926	38.0859	76.2033	38.0859	76.0798	38.0859	76.4442	38.0859	76.3006	38.0859	76.7129	38.0859	76.5525	38.0859	77.0006	38.0859	76.8295	38.0859	77.2948	38.0859	77.1213	38.0859	77.5802	38.0859	77.414	38.0859	77.8397	38.0859	77.6912	38.0859	78.0565	38.0859	77.9353	38.0859	78.2159	38.0859	78.1303	38.0859	78.3069	38.0859	78.2625	38.0859	78.3228
41.0156	77.0405	41.0156	77.0546	41.0156	77.0462	41.0156	77.0889	41.0156	77.0717	41.0156	77.1444	41.0156	77.1172	41.0156	77.2221	41.0156	77.1836	41.0156	77.3235	41.0156	77.272	41.0156	77.45	41.0156	77.3837	41.0156	77.6027	41.0156	77.5201	41.0156	77.7816	41.0156	77.6821	41.0156	77.9854	41.0156	77.8697	41.0156	78.2105	41.0156	78.0808	41.0156	78.4504	41.0156	78.3112	41.0156	78.6954	41.0156	78.5532	41.0156	78.9335	41.0156	78.7961	41.0156	79.1506	41.0156	79.0268	41.0156	79.3327	41.0156	79.231	41.0156	79.467	41.0156	79.3947	41.0156	79.5438	41.0156	79.5062	41.0156	79.5572
43.9453	78.2309	43.9453	78.2449	43.9453	78.2358	43.9453	78.2779	43.9453	78.2595	43.9453	78.3301	43.9453	78.3019	43.9453	78.4018	43.9453	78.3632	43.9453	78.4934	43.9453	78.4434	43.9453	78.6052	43.9453	78.5428	43.9453	78.7372	43.9453	78.6618	43.9453	78.8892	43.9453	78.8005	43.9453	79.0598	43.9453	78.9583	43.9453	79.2464	43.9453	79.1338	43.9453	79.4439	43.9453	79.3237	43.9453	79.6452	43.9453	79.5224	43.9453	79.8409	43.9453	79.722	43.9453	80.0197	43.9453	79.9121	43.9453	80.1699	43.9453	80.0811	43.9453	80.2808	43.9453	80.2175	43.9453	80.344	43.9453	80.311	43.9453	80.3543
46.875	79.2043	46.875	79.2199	46.875	79.2067	46.875	79.2533	46.875	79.2271	46.875	79.3045	46.875	79.2652	46.875	79.3728	46.875	79.3206	46.875	79.458	46.875	79.393	46.875	79.5593	46.875	79.4818	46.875	79.6763	46.875	79.5867	46.875	79.8081	46.875	79.7071	46.875	79.9534	46.875	79.8423	46.875	80.1098	46.875	79.9909	46.875	80.2737	46.875	80.1503	46.875	80.4395	46.875	80.3164	46.875	80.6001	46.875	80.4829	46.875	80.7466	46.875	80.6418	46.875	80.8694	46.875	80.7837	46.875	80.9597	46.875	80.8988	46.875	81.0103	46.875	80.9787	46.875	81.0168
49.8047	79.8718	49.8047	79.8863	49.8047	79.8747	49.8047	79.918	49.8047	79.8951	49.8047	79.9664	49.8047	79.9325	49.8047	80.0304	49.8047	79.9861	49.8047	80.1092	49.8047	80.055	49.8047	80.2014	49.8047	80.1382	49.8047	80.3061	49.8047	80.2346	49.8047	80.422	49.8047	80.3429	49.8047	80.5475	49.8047	80.4622	49.8047	80.6809	49.8047	80.5907	49.8047	80.8191	49.8047	80.7264	49.8047	80.9581	49.8047	80.866	49.8047	81.0922	49.8047	81.0047	49.8047	81.2146	49.8047	81.1363	49.8047	81.3175	49.8047	81.2532	49.8047	81.3936	49.8047	81.3478	49.8047	81.4368	49.8047	81.413	49.8047	81.4435
52.7344	80.3331	52.7344	80.3463	52.7344	80.337	52.7344	80.3763	52.7344	80.3578	52.7344	80.4222	52.7344	80.395	52.7344	80.4829	52.7344	80.4475	52.7344	80.5566	52.7344	80.5138	52.7344	80.6419	52.7344	80.5922	52.7344	80.737	52.7344	80.6812	52.7344	80.8403	52.7344	80.7791	52.7344	80.95	52.7344	80.8842	52.7344	81.0644	52.7344	80.9951	52.7344	81.181	52.7344	81.1098	52.7344	81.2967	52.7344	81.2258	52.7344	81.4074	52.7344	81.3397	52.7344	81.5077	52.7344	81.4468	52.7344	81.5918	52.7344	81.5416	52.7344	81.6539	52.7344	81.6181	52.7344	81.6893	52.7344	81.6706	52.7344	81.6951
55.6641	80.7624	55.6641	80.7755	55.6641	80.7661	55.6641	80.8048	55.6641	80.7864	55.6641	80.8493	55.6641	80.8224	55.6641	80.9075	55.6641	80.873	55.6641	80.9775	55.6641	80.9363	55.6641	81.0573	55.6641	81.0103	55.6641	81.1447	55.6641	81.0931	55.6641	81.2378	55.6641	81.1824	55.6641	81.3347	55.6641	81.2765	55.6641	81.4336	55.6641	81.3737	55.6641	81.5326	55.6641	81.4722	55.6641	81.6293	55.6641	81.57	55.6641	81.7206	55.6641	81.6647	55.6641	81.8027	55.6641	81.7528	55.6641	81.8712	55.6641	81.8302	55.6641	81.9216	55.6641	81.8924	55.6641	81.9503	55.6641	81.9351	55.6641	81.9549
58.5938	81.0252	58.5938	81.0371	58.5938	81.0301	58.5938	81.0653	58.5938	81.0515	58.5938	81.1085	58.5938	81.0886	58.5938	81.165	58.5938	81.1398	58.5938	81.2327	58.5938	81.2031	58.5938	81.309	58.5938	81.2761	58.5938	81.3917	58.5938	81.3564	58.5938	81.4784	58.5938	81.4415	58.5938	81.5669	58.5938	81.5292	58.5938	81.6556	58.5938	81.6175	58.5938	81.7425	58.5938	81.7048	58.5938	81.8259	58.5938	81.7893	58.5938	81.9036	58.5938	81.8691	58.5938	81.9727	58.5938	81.9419	58.5938	82.0302	58.5938	82.0048	58.5938	82.0727	58.5938	82.0545	58.5938	82.0974	58.5938	82.0879	58.5938	82.1026
61.5234	81.2813	61.5234	81.2931	61.5234	81.285	61.5234	81.3197	61.5234	81.3037	61.5234	81.3598	61.5234	81.3368	61.5234	81.4116	61.5234	81.3825	61.5234	81.4727	61.5234	81.4386	61.5234	81.5406	61.5234	81.5028	61.5234	81.6126	61.5234	81.5723	61.5234	81.6861	61.5234	81.6445	61.5234	81.7592	61.5234	81.7172	61.5234	81.8299	61.5234	81.7885	61.5234	81.897	61.5234	81.8568	61.5234	81.9592	61.5234	81.9211	61.5234	82.0153	61.5234	81.9804	61.5234	82.064	61.5234	82.0334	61.5234	82.1035	61.5234	82.0787	61.5234	82.132	61.5234	82.1145	61.5234	82.148	61.5234	82.1389	61.5234	82.1503
64.4531	81.4743	64.4531	81.4853	64.4531	81.4776	64.4531	81.5101	64.4531	81.4951	64.4531	81.5473	64.4531	81.5257	64.4531	81.5949	64.4531	81.5679	64.4531	81.6506	64.4531	81.6193	64.4531	81.7115	64.4531	81.6775	64.4531	81.775	64.4531	81.7395	64.4531	81.8383	64.4531	81.8026	64.4531	81.8994	64.4531	81.8646	64.4531	81.9566	64.4531	81.9234	64.4531	82.0088	64.4531	81.9778	64.4531	82.0553	64.4531	82.0271	64.4531	82.0957	64.4531	82.0707	64.4531	82.1297	64.4531	82.1084	64.4531	82.1567	64.4531	82.1398	64.4531	82.1759	64.4531	82.164	64.4531	82.1865	64.4531	82.1804	64.4531	82.188
67.3828	81.671	67.3828	81.6801	67.3828	81.6749	67.3828	81.7018	67.3828	81.6917	67.3828	81.7347	67.3828	81.7203	67.3828	81.777	67.3828	81.759	67.3828	81.8262	67.3828	81.8055	67.3828	81.8794	67.3828	81.8571	67.3828	81.934	67.3828	81.911	67.3828	81.9871	67.3828	81.9645	67.3828	82.0367	67.3828	82.0152	67.3828	82.0812	67.3828	82.0613	67.3828	82.1197	67.3828	82.1018	67.3828	82.152	67.3828	82.1362	67.3828	82.1783	67.3828	82.1648	67.3828	82.1992	67.3828	82.188	67.3828	82.215	67.3828	82.2063	67.3828	82.2258	67.3828	82.2198	67.3828	82.2317	67.3828	82.2286	67.3828	82.2326
70.3125	81.7281	70.3125	81.7299	70.3125	81.7399	70.3125	81.7447	70.3125	81.7647	70.3125	81.7712	70.3125	81.8014	70.3125	81.8076	70.3125	81.848	70.3125	81.8514	70.3125	81.902	70.3125	81.8997	70.3125	81.9603	70.3125	81.9497	70.3125	82.0197	70.3125	81.9987	70.3125	82.0771	70.3125	82.0446	70.3125	82.1297	70.3125	82.086	70.3125	82.1754	70.3125	82.1221	70.3125	82.2128	70.3125	82.1531	70.3125	82.2415	70.3125	82.1796	70.3125	82.2616	70.3125	82.2025	70.3125	82.274	70.3125	82.2223	70.3125	82.2797	70.3125	82.2397	70.3125	82.2798	70.3125	82.2545	70.3125	82.2751	70.3125	82.2664
73.2422	81.8095	73.2422	81.8157	73.2422	81.8173	73.2422	81.8354	73.2422	81.8389	73.2422	81.8671	73.2422	81.8732	73.2422	81.9085	73.2422	81.9183	73.2422	81.9571	73.2422	81.9716	73.2422	82.0098	73.2422	82.03	73.2422	82.0634	73.2422	82.0902	73.2422	82.115	73.2422	82.1487	73.2422	82.1622	73.2422	82.2025	73.2422	82.2034	73.2422	82.2493	73.2422	82.2377	73.2422	82.2875	73.2422	82.2653	73.2422	82.3163	73.2422	82.2869	73.2422	82.3363	73.2422	82.3038	73.2422	82.3483	73.2422	82.3173	73.2422	82.3537	73.2422	82.3283	73.2422	82.3542	73.2422	82.3376	73.2422	82.351	73.2422	82.3452
76.1719	81.9563	76.1719	81.9634	76.1719	81.9634	76.1719	81.9842	76.1719	81.9846	76.1719	82.0172	76.1719	82.0187	76.1719	82.0601	76.1719	82.0639	76.1719	82.1102	76.1719	82.1175	76.1719	82.1642	76.1719	82.1764	76.1719	82.2188	76.1719	82.2369	76.1719	82.271	76.1719	82.2956	76.1719	82.3182	76.1719	82.3493	76.1719	82.3584	76.1719	82.3954	76.1719	82.3909	76.1719	82.4323	76.1719	82.4158	76.1719	82.4592	76.1719	82.434	76.1719	82.4767	76.1719	82.4469	76.1719	82.4859	76.1719	82.4564	76.1719	82.4887	76.1719	82.4639	76.1719	82.487	76.1719	82.4706	76.1719	82.4826	76.1719	82.4768
79.1016	81.9629	79.1016	81.9687	79.1016	81.9712	79.1016	81.9879	79.1016	81.9933	79.1016	82.0192	79.1016	82.0282	79.1016	82.0606	79.1016	82.0742	79.1016	82.1093	79.1016	82.1286	79.1016	82.1625	79.1016	82.1885	79.1016	82.2167	79.1016	82.2504	79.1016	82.2691	79.1016	82.3107	79.1016	82.3169	79.1016	82.3661	79.1016	82.3582	79.1016	82.4138	79.1016	82.3919	79.1016	82.4518	79.1016	82.418	79.1016	82.4794	79.1016	82.4372	79.1016	82.4966	79.1016	82.4512	79.1016	82.5048	79.1016	82.4617	79.1016	82.5058	79.1016	82.4704	79.1016	82.5018	79.1016	82.4786	79.1016	82.4949	79.1016	82.4868
82.0313	82.2125	82.0313	82.224	82.0313	82.2111	82.0313	82.2449	82.0313	82.2198	82.0313	82.2738	82.0313	82.2379	82.0313	82.3086	82.0313	82.2641	82.0313	82.3468	82.0313	82.2963	82.0313	82.3855	82.0313	82.3319	82.0313	82.4218	82.0313	82.3679	82.0313	82.4527	82.0313	82.4014	82.0313	82.476	82.0313	82.4295	82.0313	82.49	82.0313	82.45	82.0313	82.4942	82.0313	82.4617	82.0313	82.4894	82.0313	82.4644	82.0313	82.4774	82.0313	82.4594	82.0313	82.4609	82.0313	82.4488	82.0313	82.4433	82.0313	82.4358	82.0313	82.4277	82.0313	82.4235	82.0313	82.4169	82.0313	82.415	82.0313	82.4125
84.9609	82.4608	84.9609	82.4815	84.9609	82.4466	84.9609	82.5076	84.9609	82.4389	84.9609	82.5376	84.9609	82.4371	84.9609	82.5691	84.9609	82.4399	84.9609	82.5994	84.9609	82.4455	84.9609	82.6253	84.9609	82.4514	84.9609	82.6434	84.9609	82.455	84.9609	82.6507	84.9609	82.4539	84.9609	82.645	84.9609	82.4459	84.9609	82.6249	84.9609	82.4296	84.9609	82.5906	84.9609	82.4051	84.9609	82.5438	84.9609	82.3736	84.9609	82.4879	84.9609	82.3379	84.9609	82.4276	84.9609	82.3021	84.9609	82.3684	84.9609	82.271	84.9609	82.3161	84.9609	82.2495	84.9609	82.2754	84.9609	82.2417	84.9609	82.2501
87.8906	82.1743	87.8906	82.178	87.8906	82.1847	87.8906	82.1954	87.8906	82.2084	87.8906	82.2252	87.8906	82.2441	87.8906	82.2652	87.8906	82.2894	87.8906	82.3125	87.8906	82.3413	87.8906	82.3636	87.8906	82.3962	87.8906	82.4147	87.8906	82.4505	87.8906	82.4619	87.8906	82.5005	87.8906	82.5021	87.8906	82.5428	87.8906	82.5329	87.8906	82.5749	87.8906	82.5532	87.8906	82.5955	87.8906	82.5632	87.8906	82.6046	87.8906	82.5647	87.8906	82.6034	87.8906	82.5603	87.8906	82.5945	87.8906	82.5533	87.8906	82.5811	87.8906	82.547	87.8906	82.5667	87.8906	82.5442	87.8906	82.5544	87.8906	82.5466
90.8203	82.1129	90.8203	82.1125	90.8203	82.1268	90.8203	82.1253	90.8203	82.1537	90.8203	82.1503	90.8203	82.1925	90.8203	82.1857	90.8203	82.2411	90.8203	82.229	90.8203	82.2968	90.8203	82.2772	90.8203	82.3565	90.8203	82.327	90.8203	82.4165	90.8203	82.3749	90.8203	82.4729	90.8203	82.4177	90.8203	82.5222	90.8203	82.4531	90.8203	82.5614	90.8203	82.4798	90.8203	82.5886	90.8203	82.4976	90.8203	82.6031	90.8203	82.5079	90.8203	82.6056	90.8203	82.5128	90.8203	82.5983	90.8203	82.5152	90.8203	82.5841	90.8203	82.5183	90.8203	82.5666	90.8203	82.5243	90.8203	82.5492	90.8203	82.5346
93.75	82.4449	93.75	82.447	93.75	82.4512	93.75	82.457	93.75	82.466	93.75	82.4737	93.75	82.4885	93.75	82.4957	93.75	82.5177	93.75	82.5208	93.75	82.5517	93.75	82.5466	93.75	82.5879	93.75	82.5707	93.75	82.6235	93.75	82.5906	93.75	82.6552	93.75	82.6041	93.75	82.6802	93.75	82.61	93.75	82.6958	93.75	82.6079	93.75	82.7004	93.75	82.5987	93.75	82.6936	93.75	82.5844	93.75	82.6767	93.75	82.5683	93.75	82.652	93.75	82.5538	93.75	82.623	93.75	82.5446	93.75	82.5941	93.75	82.5434	93.75	82.5692	93.75	82.5517
96.6797	82.441	96.6797	82.4543	96.6797	82.4342	96.6797	82.4737	96.6797	82.4337	96.6797	82.4979	96.6797	82.4388	96.6797	82.5253	96.6797	82.448	96.6797	82.5532	96.6797	82.4596	96.6797	82.5788	96.6797	82.471	96.6797	82.5988	96.6797	82.4797	96.6797	82.61	96.6797	82.483	96.6797	82.6096	96.6797	82.4787	96.6797	82.5959	96.6797	82.4652	96.6797	82.5682	96.6797	82.4421	96.6797	82.5279	96.6797	82.4106	96.6797	82.4778	96.6797	82.3733	96.6797	82.4226	96.6797	82.3344	96.6797	82.3679	96.6797	82.299	96.6797	82.3197	96.6797	82.2724	96.6797	82.2833	96.6797	82.2593	96.6797	82.2627
102.539	82.4697	102.539	82.4743	102.539	82.4721	102.539	82.4855	102.539	82.4812	102.539	82.5026	102.539	82.4965	102.539	82.5241	102.539	82.5166	102.539	82.548	102.539	82.5399	102.539	82.5719	102.539	82.5642	102.539	82.5929	102.539	82.5868	102.539	82.6082	102.539	82.6048	102.539	82.6152	102.539	82.6156	102.539	82.6121	102.539	82.617	102.539	82.5982	102.539	82.6079	102.539	82.5745	102.539	82.5884	102.539	82.5435	102.539	82.5603	102.539	82.509	102.539	82.5268	102.539	82.4759	102.539	82.4922	102.539	82.449	102.539	82.4616	102.539	82.4326	102.539	82.4394	102.539	82.4292
105.469	82.4554	105.469	82.4566	105.469	82.4599	105.469	82.4632	105.469	82.4702	105.469	82.4744	105.469	82.4858	105.469	82.4888	105.469	82.5056	105.469	82.5046	105.469	82.5282	105.469	82.5198	105.469	82.5515	105.469	82.5318	105.469	82.5729	105.469	82.5382	105.469	82.5896	105.469	82.5368	105.469	82.5987	105.469	82.5263	105.469	82.5979	105.469	82.5066	105.469	82.5859	105.469	82.4789	105.469	82.5624	105.469	82.446	105.469	82.5291	105.469	82.412	105.469	82.489	105.469	82.3819	105.469	82.4466	105.469	82.3602	105.469	82.4071	105.469	82.3509	105.469	82.3755	105.469	82.356
108.398	82.5561	108.398	82.5598	108.398	82.5564	108.398	82.567	108.398	82.5604	108.398	82.5772	108.398	82.5678	108.398	82.5894	108.398	82.5779	108.398	82.6019	108.398	82.5895	108.398	82.6129	108.398	82.6009	108.398	82.6201	108.398	82.6101	108.398	82.6212	108.398	82.6147	108.398	82.614	108.398	82.6125	108.398	82.5972	108.398	82.6017	108.398	82.5706	108.398	82.5814	108.398	82.5354	108.398	82.5517	108.398	82.4944	108.398	82.5144	108.398	82.4516	108.398	82.473	108.398	82.4121	108.398	82.4318	108.398	82.3808	108.398	82.396	108.398	82.362	108.398	82.3702	108.398	82.3583
111.328	82.6564	111.328	82.6607	111.328	82.6555	111.328	82.6681	111.328	82.6578	111.328	82.678	111.328	82.6628	111.328	82.6896	111.328	82.6696	111.328	82.7013	111.328	82.6772	111.328	82.7112	111.328	82.6839	111.328	82.717	111.328	82.6876	111.328	82.7162	111.328	82.6863	111.328	82.7069	111.328	82.6779	111.328	82.6875	111.328	82.6609	111.328	82.6577	111.328	82.6348	111.328	82.6186	111.328	82.6001	111.328	82.573	111.328	82.5591	111.328	82.525	111.328	82.5154	111.328	82.4796	111.328	82.4737	111.328	82.4423	111.328	82.439	111.328	82.4176	111.328	82.4162	111.328	82.4086
117.188	82.6643	117.188	82.6578	117.188	82.6719	117.188	82.6527	117.188	82.6804	117.188	82.649	117.188	82.6891	117.188	82.6461	117.188	82.6974	117.188	82.6433	117.188	82.7041	117.188	82.6393	117.188	82.7078	117.188	82.6322	117.188	82.7067	117.188	82.6201	117.188	82.6988	117.188	82.6011	117.188	82.6823	117.188	82.5738	117.188	82.6559	117.188	82.5382	117.188	82.6189	117.188	82.4952	117.188	82.5724	117.188	82.4477	117.188	82.5187	117.188	82.3998	117.188	82.4617	117.188	82.3568	117.188	82.4065	117.188	82.324	117.188	82.3589	117.188	82.306	117.188	82.324	117.188	82.3058
120.117	82.7649	120.117	82.7481	120.117	82.7812	120.117	82.7308	120.117	82.7966	120.117	82.7131	120.117	82.8111	120.117	82.6951	120.117	82.8241	120.117	82.6763	120.117	82.8349	120.117	82.6564	120.117	82.8424	120.117	82.6343	120.117	82.845	120.117	82.6092	120.117	82.8406	120.117	82.58	120.117	82.8273	120.117	82.5465	120.117	82.8033	120.117	82.5091	120.117	82.7676	120.117	82.4693	120.117	82.7204	120.117	82.4302	120.117	82.6634	120.117	82.3954	120.117	82.5999	120.117	82.3696	120.117	82.5346	120.117	82.357	120.117	82.473	120.117	82.3607	120.117	82.4206	120.117	82.3822
125.977	82.7419	125.977	82.7425	125.977	82.7388	125.977	82.7403	125.977	82.7334	125.977	82.7348	125.977	82.7259	125.977	82.7254	125.977	82.7163	125.977	82.7112	125.977	82.7044	125.977	82.6913	125.977	82.6894	125.977	82.6645	125.977	82.6704	125.977	82.6297	125.977	82.646	125.977	82.5862	125.977	82.6147	125.977	82.534	125.977	82.5754	125.977	82.4744	125.977	82.5278	125.977	82.4099	125.977	82.4724	125.977	82.3443	125.977	82.4114	125.977	82.2826	125.977	82.3481	125.977	82.2302	125.977	82.2875	125.977	82.1923	125.977	82.2349	125.977	82.173	125.977	82.1956	125.977	82.1742
128.906	82.6735	128.906	82.6724	128.906	82.672	128.906	82.6686	128.906	82.6678	128.906	82.6617	128.906	82.6603	128.906	82.6508	128.906	82.6492	128.906	82.6349	128.906	82.6335	128.906	82.6121	128.906	82.6119	128.906	82.5807	128.906	82.5831	128.906	82.5388	128.906	82.5455	128.906	82.4851	128.906	82.4978	128.906	82.4193	128.906	82.439	128.906	82.3426	128.906	82.3696	128.906	82.2577	128.906	82.2911	128.906	82.1696	128.906	82.2071	128.906	82.0847	128.906	82.1227	128.906	82.0102	128.906	82.0443	128.906	81.9532	128.906	81.979	128.906	81.9195	128.906	81.9335	128.906	81.9128
134.766	82.4487	134.766	82.4498	134.766	82.4477	134.766	82.4513	134.766	82.4465	134.766	82.4537	134.766	82.4451	134.766	82.457	134.766	82.4432	134.766	82.4609	134.766	82.4407	134.766	82.4644	134.766	82.4369	134.766	82.4659	134.766	82.431	134.766	82.4632	134.766	82.4215	134.766	82.454	134.766	82.4071	134.766	82.4366	134.766	82.3865	134.766	82.4099	134.766	82.3591	134.766	82.3742	134.766	82.3255	134.766	82.3316	134.766	82.2873	134.766	82.2857	134.766	82.2479	134.766	82.241	134.766	82.2115	134.766	82.2028	134.766	82.1825	134.766	82.1755	134.766	82.1652	134.766	82.1626
137.695	82.4241	137.695	82.4177	137.695	82.4286	137.695	82.41	137.695	82.4307	137.695	82.4021	137.695	82.4304	137.695	82.3948	137.695	82.4281	137.695	82.3888	137.695	82.4239	137.695	82.3842	137.695	82.4179	137.695	82.3804	137.695	82.4097	137.695	82.376	137.695	82.3989	137.695	82.3692	137.695	82.3844	137.695	82.3584	137.695	82.3655	137.695	82.3423	137.695	82.3419	137.695	82.3203	137.695	82.3139	137.695	82.2934	137.695	82.283	137.695	82.2637	137.695	82.2515	137.695	82.2342	137.695	82.2226	137.695	82.2087	137.695	82.1997	137.695	82.1906	137.695	82.1857	137.695	82.1825
143.555	82.415	143.555	82.4014	143.555	82.42	143.555	82.38	143.555	82.4165	143.555	82.3518	143.555	82.4053	143.555	82.3186	143.555	82.3875	143.555	82.282	143.555	82.3645	143.555	82.2439	143.555	82.3375	143.555	82.2052	143.555	82.3077	143.555	82.1669	143.555	82.2754	143.555	82.1293	143.555	82.2408	143.555	82.0924	143.555	82.2038	143.555	82.0564	143.555	82.1642	143.555	82.0218	143.555	82.1226	143.555	81.9894	143.555	82.0798	143.555	81.961	143.555	82.0377	143.555	81.9382	143.555	81.9984	143.555	81.9233	143.555	81.9647	143.555	81.9179	143.555	81.939	143.555	81.923
149.414	82.4761	149.414	82.4618	149.414	82.4777	149.414	82.4356	149.414	82.467	149.414	82.3984	149.414	82.4446	149.414	82.3521	149.414	82.4119	149.414	82.2982	149.414	82.3705	149.414	82.2388	149.414	82.3223	149.414	82.1754	149.414	82.2687	149.414	82.1096	149.414	82.211	149.414	82.0427	149.414	82.1503	149.414	81.976	149.414	82.0873	149.414	81.9111	149.414	82.0229	149.414	81.8499	149.414	81.9585	149.414	81.7947	149.414	81.8955	149.414	81.7478	149.414	81.8361	149.414	81.7117	149.414	81.7829	149.414	81.6883	149.414	81.7383	149.414	81.6793	149.414	81.7051	149.414	81.6849
155.273	82.5719	155.273	82.5596	155.273	82.5694	155.273	82.533	155.273	82.5522	155.273	82.4931	155.273	82.521	155.273	82.4412	155.273	82.4772	155.273	82.379	155.273	82.4222	155.273	82.308	155.273	82.358	155.273	82.2298	155.273	82.2862	155.273	82.1461	155.273	82.2086	155.273	82.0584	155.273	82.1267	155.273	81.9689	155.273	82.042	155.273	81.88	155.273	81.9562	155.273	81.7947	155.273	81.8715	155.273	81.7164	155.273	81.7901	155.273	81.6487	155.273	81.7151	155.273	81.5949	155.273	81.6497	155.273	81.5577	155.273	81.5969	155.273	81.5391	155.273	81.5595	155.273	81.5398
158.203	82.582	158.203	82.5736	158.203	82.5761	158.203	82.5514	158.203	82.5558	158.203	82.5164	158.203	82.5218	158.203	82.4702	158.203	82.4752	158.203	82.4141	158.203	82.4177	158.203	82.3494	158.203	82.351	158.203	82.2774	158.203	82.2769	158.203	82.199	158.203	82.1971	158.203	82.1153	158.203	82.1133	158.203	82.0278	158.203	82.0269	158.203	81.9385	158.203	81.9399	158.203	81.8502	158.203	81.8545	158.203	81.7663	158.203	81.7733	158.203	81.6908	158.203	81.6996	158.203	81.6278	158.203	81.6368	158.203	81.5808	158.203	81.5881	158.203	81.5525	158.203	81.5566	158.203	81.5444
164.063	82.4778	164.063	82.4653	164.063	82.476	164.063	82.4396	164.063	82.4593	164.063	82.4024	164.063	82.4284	164.063	82.3558	164.063	82.3842	164.063	82.302	164.063	82.3284	164.063	82.2429	164.063	82.263	164.063	82.1799	164.063	82.19	164.063	82.1139	164.063	82.1116	164.063	82.0456	164.063	82.0296	164.063	81.9753	164.063	81.9464	164.063	81.9038	164.063	81.8641	164.063	81.8325	164.063	81.7854	164.063	81.7632	164.063	81.7132	164.063	81.6985	164.063	81.6505	164.063	81.6415	164.063	81.6004	164.063	81.5954	164.063	81.5653	164.063	81.5629	164.063	81.5471	164.063	81.5463
169.922	82.3016	169.922	82.2736	169.922	82.3129	169.922	82.2306	169.922	82.3068	169.922	82.1752	169.922	82.284	169.922	82.1111	169.922	82.246	169.922	82.0421	169.922	82.1951	169.922	81.9719	169.922	82.1341	169.922	81.9038	169.922	82.0658	169.922	81.8402	169.922	81.9932	169.922	81.7824	169.922	81.9189	169.922	81.7309	169.922	81.8456	169.922	81.6856	169.922	81.7756	169.922	81.646	169.922	81.7112	169.922	81.6117	169.922	81.6544	169.922	81.5824	169.922	81.6069	169.922	81.5582	169.922	81.5699	169.922	81.5398	169.922	81.5439	169.922	81.5279	169.922	81.5288	169.922	81.5239
175.781	82.1784	175.781	82.1539	175.781	82.1832	175.781	82.1103	175.781	82.1687	175.781	82.0497	175.781	82.1366	175.781	81.975	175.781	82.0895	175.781	81.8903	175.781	82.0303	175.781	81.7999	175.781	81.9627	175.781	81.7086	175.781	81.8897	175.781	81.6206	175.781	81.8145	175.781	81.5399	175.781	81.7397	175.781	81.4695	175.781	81.6674	175.781	81.4114	175.781	81.5994	175.781	81.3665	175.781	81.5374	175.781	81.3346	175.781	81.4823	175.781	81.3146	175.781	81.435	175.781	81.3049	175.781	81.3957	175.781	81.3037	175.781	81.3642	175.781	81.3096	175.781	81.3397	175.781	81.3217
181.641	82.1543	181.641	82.1474	181.641	82.1386	181.641	82.1182	181.641	82.1009	181.641	82.0686	181.641	82.0433	181.641	82.001	181.641	81.9686	181.641	81.9189	181.641	81.8807	181.641	81.8261	181.641	81.7838	181.641	81.7267	181.641	81.6824	181.641	81.6252	181.641	81.5808	181.641	81.5255	181.641	81.483	181.641	81.4316	181.641	81.3925	181.641	81.3469	181.641	81.3122	181.641	81.274	181.641	81.2441	181.641	81.2142	181.641	81.1894	181.641	81.168	181.641	81.148	181.641	81.1343	181.641	81.1191	181.641	81.1115	181.641	81.1012	181.641	81.0977	181.641	81.0925	181.641	81.0915
190.43	82.1128	190.43	82.1073	190.43	82.0947	190.43	82.08	190.43	82.0529	190.43	82.0336	190.43	81.9884	190.43	81.9717	190.43	81.9037	190.43	81.8982	190.43	81.8022	190.43	81.817	190.43	81.6882	190.43	81.7316	190.43	81.5664	190.43	81.6448	190.43	81.4418	190.43	81.5588	190.43	81.3195	190.43	81.4748	190.43	81.2049	190.43	81.394	190.43	81.1028	190.43	81.3169	190.43	81.0177	190.43	81.2439	190.43	80.9533	190.43	81.1751	190.43	80.9117	190.43	81.1107	190.43	80.893	190.43	81.0512	190.43	80.8956	190.43	80.9975	190.43	80.9164	190.43	80.9516
196.289	81.9693	196.289	81.9378	196.289	81.974	196.289	81.8822	196.289	81.9511	196.289	81.807	196.289	81.9019	196.289	81.718	196.289	81.8295	196.289	81.622	196.289	81.7381	196.289	81.5256	196.289	81.6331	196.289	81.4348	196.289	81.5204	196.289	81.3539	196.289	81.4059	196.289	81.2856	196.289	81.2953	196.289	81.2304	196.289	81.1938	196.289	81.1873	196.289	81.1062	196.289	81.1536	196.289	81.0359	196.289	81.126	196.289	80.9855	196.289	81.1014	196.289	80.9556	196.289	81.0768	196.289	80.945	196.289	81.0505	196.289	80.9508	196.289	81.0224	196.289	80.9688	196.289	80.9941
202.148	81.9063	202.148	81.8571	202.148	81.9228	202.148	81.7774	202.148	81.9063	202.148	81.6721	202.148	81.859	202.148	81.5479	202.148	81.7844	202.148	81.4133	202.148	81.6878	202.148	81.2778	202.148	81.5755	202.148	81.1511	202.148	81.454	202.148	81.0414	202.148	81.3303	202.148	80.9551	202.148	81.2111	202.148	80.895	202.148	81.1026	202.148	80.8604	202.148	81.0098	202.148	80.8474	202.148	80.9367	202.148	80.8496	202.148	80.8852	202.148	80.8597	202.148	80.8551	202.148	80.8706	202.148	80.8438	202.148	80.877	202.148	80.8463	202.148	80.8761	202.148	80.8566	202.148	80.8683
210.938	81.878	210.938	81.8325	210.938	81.8875	210.938	81.7512	210.938	81.8623	210.938	81.6365	210.938	81.8056	210.938	81.4926	210.938	81.7217	210.938	81.3255	210.938	81.6164	210.938	81.1433	210.938	81.4959	210.938	80.9555	210.938	81.3664	210.938	80.7732	210.938	81.234	210.938	80.6079	210.938	81.1044	210.938	80.4701	210.938	80.9821	210.938	80.3677	210.938	80.871	210.938	80.3046	210.938	80.7738	210.938	80.2791	210.938	80.6917	210.938	80.285	210.938	80.6244	210.938	80.313	210.938	80.5696	210.938	80.3532	210.938	80.5237	210.938	80.3973	210.938	80.4821	210.938	80.4407
216.797	81.6946	216.797	81.6647	216.797	81.6884	216.797	81.5991	216.797	81.6479	216.797	81.5004	216.797	81.5772	216.797	81.3731	216.797	81.482	216.797	81.224	216.797	81.3694	216.797	81.0611	216.797	81.2475	216.797	80.8941	216.797	81.1241	216.797	80.7333	216.797	81.0064	216.797	80.5893	216.797	80.9001	216.797	80.4712	216.797	80.8091	216.797	80.3858	216.797	80.7349	216.797	80.3359	216.797	80.6773	216.797	80.32	216.797	80.6341	216.797	80.3324	216.797	80.6018	216.797	80.3643	216.797	80.5758	216.797	80.4064	216.797	80.5513	216.797	80.4504	216.797	80.5238	216.797	80.4903
225.586	81.8212	225.586	81.8128	225.586	81.7832	225.586	81.7588	225.586	81.7	225.586	81.6623	225.586	81.5751	225.586	81.5278	225.586	81.4149	225.586	81.3619	225.586	81.2284	225.586	81.1728	225.586	81.0267	225.586	80.9707	225.586	80.8235	225.586	80.7675	225.586	80.6328	225.586	80.5766	225.586	80.468	225.586	80.4115	225.586	80.34	225.586	80.2838	225.586	80.2547	225.586	80.2009	225.586	80.2121	225.586	80.1636	225.586	80.206	225.586	80.1657	225.586	80.2253	225.586	80.1948	225.586	80.2562	225.586	80.2357	225.586	80.2851	225.586	80.2736	225.586	80.3009	225.586	80.2973
234.375	81.8151	234.375	81.7787	234.375	81.8072	234.375	81.7025	234.375	81.7523	234.375	81.5928	234.375	81.6497	234.375	81.4567	234.375	81.5017	234.375	81.3022	234.375	81.3131	234.375	81.1372	234.375	81.0921	234.375	80.9694	234.375	80.8499	234.375	80.8061	234.375	80.6011	234.375	80.654	234.375	80.3626	234.375	80.5185	234.375	80.1522	234.375	80.4039	234.375	79.9855	234.375	80.3122	234.375	79.8731	234.375	80.2429	234.375	79.8176	234.375	80.1919	234.375	79.8134	234.375	80.1526	234.375	79.8476	234.375	80.1168	234.375	79.9041	234.375	80.0767	234.375	79.9678	234.375	80.0271
240.234	81.6032	240.234	81.525	240.234	81.6321	240.234	81.4016	240.234	81.6104	240.234	81.2396	240.234	81.539	240.234	81.048	240.234	81.4213	240.234	80.8386	240.234	81.2627	240.234	80.6247	240.234	81.0713	240.234	80.4207	240.234	80.8573	240.234	80.2408	240.234	80.6332	240.234	80.0966	240.234	80.4137	240.234	79.9959	240.234	80.2146	240.234	79.9404	240.234	80.0507	240.234	79.9256	240.234	79.9335	240.234	79.9412	240.234	79.8682	240.234	79.9734	240.234	79.8519	240.234	80.0073	240.234	79.8741	240.234	80.0297	240.234	79.9192	240.234	80.0318	240.234	79.9697	240.234	80.0106
249.023	81.7723	249.023	81.7194	249.023	81.7705	249.023	81.6136	249.023	81.7136	249.023	81.4587	249.023	81.6033	249.023	81.26	249.023	81.4431	249.023	81.0245	249.023	81.2386	249.023	80.7613	249.023	80.998	249.023	80.4817	249.023	80.7319	249.023	80.1996	249.023	80.4538	249.023	79.9313	249.023	80.1796	249.023	79.6941	249.023	79.9268	249.023	79.5043	249.023	79.7122	249.023	79.3728	249.023	79.5486	249.023	79.3018	249.023	79.4415	249.023	79.2834	249.023	79.3868	249.023	79.3016	249.023	79.3719	249.023	79.3361	249.023	79.3786	249.023	79.3687	249.023	79.3884	249.023	79.3872
257.813	81.7985	257.813	81.7358	257.813	81.8082	257.813	81.6239	257.813	81.7638	257.813	81.4691	257.813	81.6669	257.813	81.2804	257.813	81.5212	257.813	81.0685	257.813	81.3325	257.813	80.8456	257.813	81.1087	257.813	80.6238	257.813	80.8596	257.813	80.4147	257.813	80.597	257.813	80.2278	257.813	80.3345	257.813	80.0697	257.813	80.0876	257.813	79.9439	257.813	79.8718	257.813	79.8499	257.813	79.7006	257.813	79.7839	257.813	79.5826	257.813	79.7388	257.813	79.519	257.813	79.7059	257.813	79.503	257.813	79.6762	257.813	79.5217	257.813	79.6428	257.813	79.5596	257.813	79.603
266.602	81.3913	266.602	81.3151	266.602	81.4053	266.602	81.1787	266.602	81.3581	266.602	80.9872	266.602	81.2532	266.602	80.7495	266.602	81.0966	266.602	80.479	266.602	80.8964	266.602	80.1929	266.602	80.6625	266.602	79.9127	266.602	80.4069	266.602	79.6614	266.602	80.1432	266.602	79.4604	266.602	79.8863	266.602	79.3244	266.602	79.6522	266.602	79.2573	266.602	79.4561	266.602	79.2505	266.602	79.3105	266.602	79.2853	266.602	79.2227	266.602	79.3382	266.602	79.192	266.602	79.3867	266.602	79.2095	266.602	79.4137	266.602	79.2591	266.602	79.4105	266.602	79.3213	266.602	79.3768
278.32	81.4838	278.32	81.4281	278.32	81.4707	278.32	81.3056	278.32	81.3904	278.32	81.1208	278.32	81.2478	278.32	80.8813	278.32	81.0519	278.32	80.5974	278.32	80.8153	278.32	80.2827	278.32	80.5544	278.32	79.9548	278.32	80.288	278.32	79.6355	278.32	80.0361	278.32	79.3498	278.32	79.8174	278.32	79.1237	278.32	79.646	278.32	78.9787	278.32	79.5298	278.32	78.9246	278.32	79.4684	278.32	78.9555	278.32	79.4536	278.32	79.0504	278.32	79.4707	278.32	79.1792	278.32	79.5014	278.32	79.3111	278.32	79.5265	278.32	79.4214	278.32	79.5286	278.32	79.4953
287.109	81.4197	287.109	81.3437	287.109	81.4229	287.109	81.2004	287.109	81.3508	287.109	80.9981	287.109	81.2039	287.109	80.7478	287.109	80.9868	287.109	80.4634	287.109	80.7088	287.109	80.1619	287.109	80.385	287.109	79.8625	287.109	80.037	287.109	79.5861	287.109	79.6925	287.109	79.3526	287.109	79.383	287.109	79.1781	287.109	79.1389	287.109	79.0718	287.109	78.9816	287.109	79.0328	287.109	78.9171	287.109	79.0509	287.109	78.9341	287.109	79.108	287.109	79.0073	287.109	79.1819	287.109	79.1062	287.109	79.2508	287.109	79.2019	287.109	79.296	287.109	79.2724	287.109	79.3049
295.898	81.6857	295.898	81.5905	295.898	81.7017	295.898	81.4203	295.898	81.636	295.898	81.1817	295.898	81.4881	295.898	80.8847	295.898	81.2594	295.898	80.5432	295.898	80.9543	295.898	80.1761	295.898	80.5812	295.898	79.8076	295.898	80.1548	295.898	79.4662	295.898	79.6985	295.898	79.1806	295.898	79.2456	295.898	78.9742	295.898	78.8383	295.898	78.858	295.898	78.5214	295.898	78.826	295.898	78.329	295.898	78.8565	295.898	78.2717	295.898	78.9186	295.898	78.3317	295.898	78.9796	295.898	78.4697	295.898	79.012	295.898	78.6398	295.898	78.9968	295.898	78.8014	295.898	78.9255
307.617	81.85	307.617	81.7136	307.617	81.8988	307.617	81.4916	307.617	81.8616	307.617	81.1901	307.617	81.743	307.617	80.8208	307.617	81.5504	307.617	80.4014	307.617	81.294	307.617	79.9579	307.617	80.9867	307.617	79.525	307.617	80.6446	307.617	79.1443	307.617	80.2881	307.617	78.8582	307.617	79.9412	307.617	78.6984	307.617	79.6318	307.617	78.6743	307.617	79.3872	307.617	78.7682	307.617	79.2293	307.617	78.9403	307.617	79.167	307.617	79.1427	307.617	79.1915	307.617	79.3312	307.617	79.2776	307.617	79.4725	307.617	79.3899	307.617	79.5475	307.617	79.4914	307.617	79.5509
319.336	82.0096	319.336	81.897	319.336	82.0273	319.336	81.6877	319.336	81.953	319.336	81.3825	319.336	81.7912	319.336	80.9856	319.336	81.548	319.336	80.5072	319.336	81.2318	319.336	79.967	319.336	80.855	319.336	79.3975	319.336	80.4349	319.336	78.8473	319.336	79.9955	319.336	78.3787	319.336	79.5686	319.336	78.0541	319.336	79.1912	319.336	77.9135	319.336	78.8999	319.336	77.9535	319.336	78.7206	319.336	78.1283	319.336	78.658	319.336	78.3712	319.336	78.6928	319.336	78.6181	319.336	78.7872	319.336	78.8215	319.336	78.8963	319.336	78.9537	319.336	78.9792	319.336	79.0046
331.055	81.8002	331.055	81.7031	331.055	81.8121	331.055	81.5164	331.055	81.7442	331.055	81.2366	331.055	81.6026	331.055	80.8628	331.055	81.3945	331.055	80.3982	331.055	81.1287	331.055	79.8547	331.055	80.8159	331.055	79.2582	331.055	80.4697	331.055	78.6561	331.055	80.1071	331.055	78.1209	331.055	79.7494	331.055	77.7399	331.055	79.4217	331.055	77.5818	331.055	79.1503	331.055	77.657	331.055	78.9582	331.055	77.9074	331.055	78.8574	331.055	78.2392	331.055	78.8438	331.055	78.5648	331.055	78.8949	331.055	78.8245	331.055	78.9748	331.055	78.9897	331.055	79.0418	331.055	79.0568
342.773	81.8382	342.773	81.778	342.773	81.7919	342.773	81.6133	342.773	81.6374	342.773	81.3461	342.773	81.3745	342.773	80.9786	342.773	81.0063	342.773	80.5148	342.773	80.5419	342.773	79.9635	342.773	80.0004	342.773	79.3435	342.773	79.4162	342.773	78.6917	342.773	78.8437	342.773	78.0714	342.773	78.3565	342.773	77.5731	342.773	78.0325	342.773	77.2923	342.773	77.9222	342.773	77.2825	342.773	78.0207	342.773	77.5178	342.773	78.2683	342.773	77.9058	342.773	78.5795	342.773	78.338	342.773	78.8749	342.773	78.7269	342.773	79.0953	342.773	79.0168	342.773	79.2032	342.773	79.1788
354.492	82.0456	354.492	81.9483	354.492	82.0549	354.492	81.7639	354.492	81.9739	354.492	81.4913	354.492	81.7982	354.492	81.1283	354.492	81.5227	354.492	80.6733	354.492	81.1426	354.492	80.1284	354.492	80.6555	354.492	79.5038	354.492	80.0655	354.492	78.8268	354.492	79.3895	354.492	78.1516	354.492	78.6672	354.492	77.5662	354.492	77.9725	354.492	77.1783	354.492	77.415	354.492	77.0676	354.492	77.1096	354.492	77.2294	354.492	77.1104	354.492	77.5708	354.492	77.3663	354.492	77.9646	354.492	77.7513	354.492	78.3012	354.492	78.134	354.492	78.5087	354.492	78.4186	354.492	78.5504
366.211	82.1491	366.211	82.0245	366.211	82.1924	366.211	81.8143	366.211	82.1564	366.211	81.512	366.211	82.04	366.211	81.1104	366.211	81.8398	366.211	80.6028	366.211	81.5503	366.211	79.9869	366.211	81.1658	366.211	79.2703	366.211	80.682	366.211	78.4799	366.211	80.1004	366.211	77.6768	366.211	79.4341	366.211	76.9679	366.211	78.7177	366.211	76.4911	366.211	78.0179	366.211	76.3491	366.211	77.4356	366.211	76.5295	366.211	77.0786	366.211	76.906	366.211	77.0009	366.211	77.3215	366.211	77.1581	366.211	77.6549	366.211	77.4314	366.211	77.8374	366.211	77.6921	366.211	77.8451
377.93	82.1805	377.93	82.1051	377.93	82.1789	377.93	81.9484	377.93	82.1039	377.93	81.7052	377.93	81.958	377.93	81.3692	377.93	81.7432	377.93	80.9333	377.93	81.4607	377.93	80.3921	377.93	81.1114	377.93	79.7448	377.93	80.6972	377.93	79.0031	377.93	80.2239	377.93	78.2038	377.93	79.7047	377.93	77.4257	377.93	79.1658	377.93	76.7966	377.93	78.6508	377.93	76.4578	377.93	78.2182	377.93	76.4741	377.93	77.9261	377.93	76.7732	377.93	77.8033	377.93	77.1968	377.93	77.8272	377.93	77.5969	377.93	77.9278	377.93	77.8818	377.93	78.017	377.93	78.0179
392.578	81.5	392.578	81.4462	392.578	81.4745	392.578	81.3104	392.578	81.3722	392.578	81.0892	392.578	81.1957	392.578	80.7784	392.578	80.9479	392.578	80.3727	392.578	80.6314	392.578	79.8665	392.578	80.2498	392.578	79.2573	392.578	79.8089	392.578	78.5519	392.578	79.319	392.578	77.7791	392.578	78.7998	392.578	77.0073	392.578	78.2841	392.578	76.357	392.578	77.8209	392.578	75.9753	392.578	77.4684	392.578	75.95	392.578	77.2739	392.578	76.2312	392.578	77.2464	392.578	76.6646	392.578	77.3433	392.578	77.0918	392.578	77.4848	392.578	77.4092	392.578	77.5844	392.578	77.5725
407.227	81.4461	407.227	81.413	407.227	81.3701	407.227	81.2713	407.227	81.1867	407.227	81.0211	407.227	80.901	407.227	80.6611	407.227	80.5232	407.227	80.1871	407.227	80.0691	407.227	79.5931	407.227	79.5604	407.227	78.8738	407.227	79.0247	407.227	78.0328	407.227	78.4949	407.227	77.0976	407.227	78.008	407.227	76.1474	407.227	77.603	407.227	75.3425	407.227	77.3149	407.227	74.9018	407.227	77.1657	407.227	74.9617	407.227	77.1541	407.227	75.4353	407.227	77.2499	407.227	76.0875	407.227	77.397	407.227	76.7086	407.227	77.5261	407.227	77.1816	407.227	77.5682	407.227	77.4657
421.875	81.7578	421.875	81.7442	421.875	81.6842	421.875	81.6435	421.875	81.5221	421.875	81.4533	421.875	81.2695	421.875	81.1678	421.875	80.925	421.875	80.7775	421.875	80.4888	421.875	80.2698	421.875	79.9648	421.875	79.6303	421.875	79.3629	421.875	78.8471	421.875	78.7032	421.875	77.9205	421.875	78.0218	421.875	76.8827	421.875	77.3745	421.875	75.8311	421.875	76.8338	421.875	74.9598	421.875	76.4691	421.875	74.5099	421.875	76.3118	421.875	74.5845	421.875	76.3313	421.875	75.0334	421.875	76.4444	421.875	75.599	421.875	76.5503	421.875	76.0902	421.875	76.5614	421.875	76.4171
436.523	82.3106	436.523	82.3075	436.523	82.203	436.523	82.1996	436.523	81.9787	436.523	81.9907	436.523	81.6319	436.523	81.682	436.523	81.1587	436.523	81.2715	436.523	80.5586	436.523	80.7544	436.523	79.8372	436.523	80.1255	436.523	79.0122	436.523	79.3836	436.523	78.1236	436.523	78.542	436.523	77.2505	436.523	77.6462	436.523	76.5214	436.523	76.7986	436.523	76.089	436.523	76.1666	436.523	76.0451	436.523	75.9201	436.523	76.34	436.523	76.0977	436.523	76.8138	436.523	76.5582	436.523	77.2952	436.523	77.0922	436.523	77.6606	436.523	77.5356	436.523	77.8384	436.523	77.7968
451.172	82.9576	451.172	82.9035	451.172	82.913	451.172	82.7642	451.172	82.7547	451.172	82.5496	451.172	82.468	451.172	82.263	451.172	82.0395	451.172	81.8995	451.172	81.4565	451.172	81.4457	451.172	80.7076	451.172	80.8817	451.172	79.785	451.172	80.1841	451.172	78.6916	451.172	79.3341	451.172	77.4618	451.172	78.3312	451.172	76.2043	451.172	77.2227	451.172	75.1574	451.172	76.1524	451.172	74.6474	451.172	75.3865	451.172	74.8168	451.172	75.1827	451.172	75.4392	451.172	75.5237	451.172	76.155	451.172	76.1171	451.172	76.7164	451.172	76.6624	451.172	77.0056	451.172	76.9834
465.82	82.8932	465.82	82.6823	465.82	83.0103	465.82	82.3914	465.82	83.0191	465.82	82.0336	465.82	82.9053	465.82	81.6192	465.82	82.6541	465.82	81.1547	465.82	82.2503	465.82	80.6421	465.82	81.6771	465.82	80.08	465.82	80.9163	465.82	79.4679	465.82	79.9492	465.82	78.8138	465.82	78.7638	465.82	78.1467	465.82	77.3783	465.82	77.5288	465.82	75.9047	465.82	77.0558	465.82	74.6591	465.82	76.8218	465.82	74.1366	465.82	76.852	465.82	74.5226	465.82	77.065	465.82	75.4107	465.82	77.3123	465.82	76.3146	465.82	77.4471	465.82	76.988	465.82	77.3606
483.398	82.5011	483.398	82.375	483.398	82.5518	483.398	82.1743	483.398	82.5245	483.398	81.8988	483.398	82.4135	483.398	81.547	483.398	82.2088	483.398	81.1152	483.398	81.8958	483.398	80.5956	483.398	81.4554	483.398	79.9762	483.398	80.8652	483.398	79.2424	483.398	80.1017	483.398	78.3841	483.398	79.1454	483.398	77.4127	483.398	77.9958	483.398	76.3949	483.398	76.7077	483.398	75.4967	483.398	75.4642	483.398	74.9719	483.398	74.6247	483.398	74.986	483.398	74.5121	483.398	75.4178	483.398	75.015	483.398	75.9632	483.398	75.7051	483.398	76.3624	483.398	76.2422	483.398	76.472
500.977	82.345	500.977	82.2017	500.977	82.4406	500.977	82.013	500.977	82.4815	500.977	81.7753	500.977	82.456	500.977	81.4773	500.977	82.3477	500.977	81.1	500.977	82.1343	500.977	80.6185	500.977	81.7886	500.977	80.0062	500.977	81.2792	500.977	79.243	500.977	80.572	500.977	78.3298	500.977	79.6341	500.977	77.3186	500.977	78.4457	500.977	76.3575	500.977	77.0374	500.977	75.7072	500.977	75.5826	500.977	75.6002	500.977	74.521	500.977	75.9951	500.977	74.3675	500.977	76.5992	500.977	75.0568	500.977	77.1189	500.977	76.0183	500.977	77.3757	500.977	76.8189	500.977	77.2844
518.555	82.1371	518.555	82.0376	518.555	82.1341	518.555	81.84	518.555	82.0401	518.555	81.5617	518.555	81.8778	518.555	81.2233	518.555	81.671	518.555	80.8372	518.555	81.4316	518.555	80.3982	518.555	81.1514	518.555	79.8811	518.555	80.8017	518.555	79.247	518.555	80.3394	518.555	78.456	518.555	79.7153	518.555	77.4906	518.555	78.8848	518.555	76.4033	518.555	77.8278	518.555	75.3976	518.555	76.6011	518.555	74.8526	518.555	75.4427	518.555	75.0343	518.555	74.8179	518.555	75.7242	518.555	75.0355	518.555	76.4579	518.555	75.7856	518.555	76.9099	518.555	76.5275	518.555	76.9389
536.133	82.8547	536.133	82.7073	536.133	82.8698	536.133	82.4379	536.133	82.7554	536.133	82.0701	536.133	82.5225	536.133	81.6364	536.133	82.1841	536.133	81.1664	536.133	81.7476	536.133	80.6705	536.133	81.2081	536.133	80.1276	536.133	80.5447	536.133	79.4826	536.133	79.7201	536.133	78.6575	536.133	78.685	536.133	77.5711	536.133	77.3903	536.133	76.1808	536.133	75.8318	536.133	74.6054	536.133	74.1934	536.133	73.4035	536.133	73.1181	536.133	73.4494	536.133	73.3866	536.133	74.6196	536.133	74.6537	536.133	75.9437	536.133	75.9769	536.133	76.8489	536.133	76.8635	536.133	77.1648
553.711	82.7766	553.711	82.6106	553.711	82.8188	553.711	82.3274	553.711	82.7479	553.711	81.9474	553.711	82.5881	553.711	81.4975	553.711	82.3685	553.711	81.0001	553.711	82.1084	553.711	80.4618	553.711	81.8028	553.711	79.8654	553.711	81.4162	553.711	79.1697	553.711	80.8857	553.711	78.3184	553.711	80.1279	553.711	77.2573	553.711	79.0421	553.711	75.9723	553.711	77.5096	553.711	74.5808	553.711	75.4082	553.711	73.482	553.711	72.7664	553.711	73.2428	553.711	70.5455	553.711	73.867	553.711	70.8631	553.711	74.7123	553.711	72.7767	553.711	75.2318	553.711	74.352	553.711	75.157
574.219	82.9944	574.219	82.818	574.219	83.0058	574.219	82.497	574.219	82.8628	574.219	82.0802	574.219	82.6022	574.219	81.6341	574.219	82.2777	574.219	81.2163	574.219	81.941	574.219	80.8423	574.219	81.6187	574.219	80.4673	574.219	81.2945	574.219	79.9959	574.219	80.9101	574.219	79.3088	574.219	80.3807	574.219	78.2824	574.219	79.6104	574.219	76.8085	574.219	78.5023	574.219	74.8788	574.219	76.9778	574.219	72.9484	574.219	75.0719	574.219	72.3897	574.219	73.2832	574.219	73.5986	574.219	72.8406	574.219	75.0769	574.219	73.9455	574.219	75.941	574.219	75.2646	574.219	75.9988
594.727	83.2696	594.727	83.0994	594.727	83.208	594.727	82.7	594.727	82.9309	594.727	82.0966	594.727	82.4766	594.727	81.3491	594.727	81.9148	594.727	80.5596	594.727	81.3469	594.727	79.8532	594.727	80.8789	594.727	79.307	594.727	80.5577	594.727	78.8749	594.727	80.3236	594.727	78.3938	594.727	80.0297	594.727	77.6647	594.727	79.5023	594.727	76.5313	594.727	78.578	594.727	74.9875	594.727	77.1218	594.727	73.4959	594.727	75.115	594.727	73.2257	594.727	73.1126	594.727	74.4295	594.727	72.7894	594.727	75.8574	594.727	74.3189	594.727	76.7028	594.727	75.8997	594.727	76.7332
615.234	83.302	615.234	83.1489	615.234	83.2751	615.234	82.8245	615.234	83.0669	615.234	82.3472	615.234	82.6859	615.234	81.7517	615.234	82.1576	615.234	81.0913	615.234	81.5301	615.234	80.4269	615.234	80.8714	615.234	79.7934	615.234	80.2461	615.234	79.1609	615.234	79.6744	615.234	78.4217	615.234	79.1021	615.234	77.4098	615.234	78.4083	615.234	75.9289	615.234	77.4448	615.234	73.8021	615.234	76.0862	615.234	71.2075	615.234	74.3509	615.234	69.9894	615.234	72.7696	615.234	71.7233	615.234	72.5573	615.234	73.918	615.234	73.7515	615.234	75.2439	615.234	75.0101	615.234	75.5814
638.672	83.6772	638.672	83.4987	638.672	83.6518	638.672	83.1165	638.672	83.4313	638.672	82.5494	638.672	83.034	638.672	81.8506	638.672	82.4967	638.672	81.121	638.672	81.884	638.672	80.4898	638.672	81.2831	638.672	80.0377	638.672	80.7677	638.672	79.712	638.672	80.3398	638.672	79.3306	638.672	79.9007	638.672	78.6567	638.672	79.2797	638.672	77.4428	638.672	78.2793	638.672	75.4168	638.672	76.6984	638.672	72.3524	638.672	74.3973	638.672	69.3728	638.672	71.8215	638.672	70.6676	638.672	71.3045	638.672	73.5875	638.672	73.2831	638.672	75.3473	638.672	75.0871	638.672	75.8157
659.18	83.4985	659.18	83.3391	659.18	83.4663	659.18	82.9829	659.18	83.2503	659.18	82.4361	659.18	82.8654	659.18	81.7345	659.18	82.3475	659.18	80.965	659.18	81.7701	659.18	80.2648	659.18	81.2416	659.18	79.7573	659.18	80.855	659.18	79.4397	659.18	80.6058	659.18	79.1465	659.18	80.3622	659.18	78.6316	659.18	79.9205	659.18	77.6497	659.18	79.0671	659.18	75.9778	659.18	77.5904	659.18	73.4906	659.18	75.2841	659.18	70.8664	659.18	72.2069	659.18	70.7936	659.18	70.2776	659.18	72.8518	659.18	71.817	659.18	74.3775	659.18	73.8292	659.18	74.7249
682.617	83.7342	682.617	83.5889	682.617	83.6809	682.617	83.2402	682.617	83.4234	682.617	82.682	682.617	82.9508	682.617	81.9288	682.617	82.2643	682.617	81.0463	682.617	81.4095	682.617	80.174	682.617	80.5149	682.617	79.4894	682.617	79.7906	682.617	79.072	682.617	79.3993	682.617	78.789	682.617	79.2684	682.617	78.3643	682.617	79.1132	682.617	77.5124	682.617	78.6223	682.617	75.9966	682.617	77.55	682.617	73.7292	682.617	75.7375	682.617	71.5065	682.617	73.3718	682.617	71.7764	682.617	72.0152	682.617	73.834	682.617	73.1958	682.617	75.3297	682.617	74.8956	682.617	75.6911
706.055	84.0845	706.055	83.9091	706.055	84.046	706.055	83.5044	706.055	83.7947	706.055	82.8502	706.055	83.3174	706.055	81.9435	706.055	82.5978	706.055	80.8418	706.055	81.6451	706.055	79.7299	706.055	80.5455	706.055	78.9244	706.055	79.5154	706.055	78.625	706.055	78.8363	706.055	78.6134	706.055	78.5697	706.055	78.4228	706.055	78.409	706.055	77.6357	706.055	77.9187	706.055	75.9095	706.055	76.7241	706.055	72.9671	706.055	74.5096	706.055	69.8156	706.055	71.3421	706.055	71.0832	706.055	70.124	706.055	74.1164	706.055	72.7951	706.055	75.8594	706.055	75.1773	706.055	76.1949
732.422	83.5463	732.422	83.4635	732.422	83.4668	732.422	83.2011	732.422	83.2225	732.422	82.728	732.422	82.7918	732.422	82.014	732.422	82.1442	732.422	81.0603	732.422	81.2655	732.422	79.9489	732.422	80.2048	732.422	78.8898	732.422	79.1363	732.422	78.1499	732.422	78.3482	732.422	77.7755	732.422	78.001	732.422	77.4487	732.422	77.8676	732.422	76.7092	732.422	77.491	732.422	75.1267	732.422	76.4323	732.422	72.3018	732.422	74.2693	732.422	68.6867	732.422	70.6335	732.422	69.2327	732.422	67.8149	732.422	72.5321	732.422	70.7738	732.422	74.4839	732.422	73.6761	732.422	74.8606
758.789	83.6031	758.789	83.5031	758.789	83.5198	758.789	83.1881	758.789	83.2605	758.789	82.6111	758.789	82.8052	758.789	81.7275	758.789	82.1159	758.789	80.5368	758.789	81.1685	758.789	79.1792	758.789	80.0167	758.789	78.0589	758.789	78.884	758.789	77.6456	758.789	78.1499	758.789	77.813	758.789	77.9881	758.789	77.9045	758.789	78.0568	758.789	77.3447	758.789	77.8125	758.789	75.6964	758.789	76.8026	758.789	72.4507	758.789	74.5981	758.789	67.9959	758.789	70.729	758.789	69.6464	758.789	67.4969	758.789	73.5052	758.789	70.9733	758.789	75.4091	758.789	74.2093	758.789	75.6129
785.156	83.2434	785.156	83.1857	785.156	83.1402	785.156	82.9598	785.156	82.8743	785.156	82.5347	785.156	82.4359	785.156	81.8482	785.156	81.7958	785.156	80.8288	785.156	80.9031	785.156	79.4655	785.156	79.7229	785.156	77.964	785.156	78.3439	785.156	76.9043	785.156	77.1497	785.156	76.7493	785.156	76.6972	785.156	77.0005	785.156	76.927	785.156	76.7853	785.156	77.0918	785.156	75.4499	785.156	76.5065	785.156	72.2259	785.156	74.6129	785.156	65.3083	785.156	70.4916	785.156	65.0107	785.156	62.8886	785.156	71.4407	785.156	67.6765	785.156	74.0121	785.156	72.5099	785.156	74.305
811.523	83.0685	811.523	82.9903	811.523	83.0139	811.523	82.7892	811.523	82.8297	811.523	82.445	811.523	82.5262	811.523	81.8708	811.523	82.0719	811.523	80.9242	811.523	81.3602	811.523	79.4718	811.523	80.2356	811.523	77.5569	811.523	78.5833	811.523	75.866	811.523	76.5811	811.523	75.6814	811.523	75.2342	811.523	76.5878	811.523	75.5436	811.523	77.0738	811.523	76.4057	811.523	76.3377	811.523	76.4879	811.523	73.7749	811.523	75.1438	811.523	68.0341	811.523	71.607	811.523	63.5787	811.523	64.0848	811.523	70.5964	811.523	66.3382	811.523	73.5866	811.523	71.9331	811.523	73.9471
840.82	83.0557	840.82	82.85	840.82	83.0201	840.82	82.4647	840.82	82.7423	840.82	81.9868	840.82	82.2813	840.82	81.4581	840.82	81.7176	840.82	80.8135	840.82	81.0824	840.82	79.9	840.82	80.3094	840.82	78.5739	840.82	79.2752	840.82	76.8786	840.82	77.9277	840.82	75.3721	840.82	76.4931	840.82	74.9593	840.82	75.582	840.82	75.3387	840.82	75.4756	840.82	75.2974	840.82	75.4628	840.82	73.9984	840.82	74.6532	840.82	70.706	840.82	72.33	840.82	65.0355	840.82	67.5812	840.82	66.5714	840.82	64.0786	840.82	70.3883	840.82	68.8452	840.82	71.0979
870.117	83.3439	870.117	83.1394	870.117	83.2954	870.117	82.6928	870.117	83.0011	870.117	82.0341	870.117	82.4851	870.117	81.2006	870.117	81.7827	870.117	80.2124	870.117	80.9215	870.117	79.0578	870.117	79.8976	870.117	77.7423	870.117	78.6859	870.117	76.4291	870.117	77.3355	870.117	75.5365	870.117	76.1378	870.117	75.3229	870.117	75.5691	870.117	75.3252	870.117	75.625	870.117	74.7764	870.117	75.6134	870.117	73.0634	870.117	74.8067	870.117	69.8084	870.117	72.6521	870.117	67.0431	870.117	68.9206	870.117	69.2991	870.117	67.0709	870.117	71.5276	870.117	69.9332	870.117	71.758
902.344	83.5913	902.344	83.3572	902.344	83.5522	902.344	82.9005	902.344	83.2414	902.344	82.3107	902.344	82.7074	902.344	81.6591	902.344	82.0264	902.344	80.9143	902.344	81.2516	902.344	79.9197	902.344	80.3521	902.344	78.487	902.344	79.2115	902.344	76.6055	902.344	77.729	902.344	74.8702	902.344	76.0457	902.344	74.378	902.344	74.833	902.344	74.7296	902.344	74.6875	902.344	74.4817	902.344	74.8823	902.344	72.7465	902.344	74.3019	902.344	69.0153	902.344	72.2725	902.344	66.4061	902.344	68.9144	902.344	70.0066	902.344	68.518	902.344	72.5591	902.344	71.4357	902.344	72.9797
931.641	83.7138	931.641	83.5353	931.641	83.6232	931.641	83.1024	931.641	83.269	931.641	82.4492	931.641	82.6811	931.641	81.6202	931.641	81.9105	931.641	80.64	931.641	81.002	931.641	79.4793	931.641	79.9539	931.641	78.0897	931.641	78.7209	931.641	76.5728	931.641	77.3205	931.641	75.434	931.641	76.0418	931.641	75.228	931.641	75.4499	931.641	75.4845	931.641	75.5949	931.641	75.163	931.641	75.6705	931.641	73.4343	931.641	74.842	931.641	69.409	931.641	72.5113	931.641	64.6807	931.641	68.6307	931.641	69.0267	931.641	67.9052	931.641	72.1759	931.641	71.1001	931.641	72.7264
966.797	83.9528	966.797	83.7245	966.797	83.8535	966.797	83.2013	966.797	83.4152	966.797	82.4459	966.797	82.6627	966.797	81.5596	966.797	81.6907	966.797	80.6378	966.797	80.6571	966.797	79.6655	966.797	79.6681	966.797	78.4763	966.797	78.6385	966.797	76.9036	966.797	77.3594	966.797	75.1805	966.797	75.8242	966.797	74.3533	966.797	74.671	966.797	74.7747	966.797	74.6078	966.797	74.964	966.797	74.7937	966.797	73.6259	966.797	73.924	966.797	69.7307	966.797	71.1529	966.797	64.5768	966.797	66.4982	966.797	69.1465	966.797	67.5404	966.797	72.3863	966.797	71.3931	966.797	72.9832
999.023	83.8619	999.023	83.6473	999.023	83.7351	999.023	83.1021	999.023	83.2707	999.023	82.2761	999.023	82.4898	999.023	81.2804	999.023	81.4659	999.023	80.2513	999.023	80.3534	999.023	79.2276	999.023	79.3097	999.023	78.0723	999.023	78.3024	999.023	76.6129	999.023	77.0676	999.023	75.0258	999.023	75.4218	999.023	74.2252	999.023	73.8864	999.023	74.6086	999.023	73.6405	999.023	74.8367	999.023	74.1012	999.023	73.5955	999.023	73.5844	999.023	69.8196	999.023	70.9631	999.023	64.4641	999.023	65.4208	999.023	69.2044	999.023	66.9249	999.023	72.743	999.023	71.7455	999.023	73.4835
1,034.18	83.577	1,034.18	83.3123	1,034.18	83.5324	1,034.18	82.7617	1,034.18	83.1624	1,034.18	81.9651	1,034.18	82.4646	1,034.18	80.9978	1,034.18	81.4741	1,034.18	79.9661	1,034.18	80.2922	1,034.18	78.9264	1,034.18	79.0673	1,034.18	77.7835	1,034.18	77.8631	1,034.18	76.3653	1,034.18	76.5433	1,034.18	74.8027	1,034.18	74.9641	1,034.18	73.9505	1,034.18	73.51	1,034.18	74.2099	1,034.18	73.1027	1,034.18	74.3259	1,034.18	73.412	1,034.18	73.074	1,034.18	73.0018	1,034.18	69.5156	1,034.18	70.681	1,034.18	63.456	1,034.18	64.9771	1,034.18	66.8319	1,034.18	64.4402	1,034.18	70.8675	1,034.18	70.0243	1,034.18	71.8521
1,072.27	83.4865	1,072.27	83.2534	1,072.27	83.4148	1,072.27	82.7169	1,072.27	83.0273	1,072.27	81.8955	1,072.27	82.3171	1,072.27	80.8711	1,072.27	81.3197	1,072.27	79.7822	1,072.27	80.1392	1,072.27	78.6781	1,072.27	78.9054	1,072.27	77.3604	1,072.27	77.6379	1,072.27	75.5016	1,072.27	76.1593	1,072.27	73.1801	1,072.27	74.2697	1,072.27	71.9556	1,072.27	72.318	1,072.27	72.7852	1,072.27	71.7566	1,072.27	73.4441	1,072.27	72.6556	1,072.27	72.5386	1,072.27	73.0224	1,072.27	69.5	1,072.27	71.4963	1,072.27	65.5739	1,072.27	66.7492	1,072.27	68.2574	1,072.27	63.561	1,072.27	71.3324	1,072.27	69.4996	1,072.27	71.8487
1,110.35	83.291	1,110.35	83.0207	1,110.35	83.2624	1,110.35	82.4624	1,110.35	82.9039	1,110.35	81.6103	1,110.35	82.1815	1,110.35	80.4822	1,110.35	81.0981	1,110.35	79.1903	1,110.35	79.7573	1,110.35	77.9259	1,110.35	78.379	1,110.35	76.7123	1,110.35	77.1225	1,110.35	75.2191	1,110.35	75.8316	1,110.35	73.1267	1,110.35	74.1631	1,110.35	71.2619	1,110.35	72.1979	1,110.35	71.6673	1,110.35	71.3259	1,110.35	72.8232	1,110.35	72.1655	1,110.35	72.4562	1,110.35	72.5853	1,110.35	69.5184	1,110.35	71.0566	1,110.35	64.5936	1,110.35	66.4893	1,110.35	67.9521	1,110.35	63.0178	1,110.35	71.1068	1,110.35	68.552	1,110.35	71.2449
1,148.44	83.3334	1,148.44	83.0812	1,148.44	83.2853	1,148.44	82.5099	1,148.44	82.9296	1,148.44	81.5895	1,148.44	82.232	1,148.44	80.3306	1,148.44	81.1651	1,148.44	78.8893	1,148.44	79.7959	1,148.44	77.5806	1,148.44	78.3688	1,148.44	76.5191	1,148.44	77.175	1,148.44	75.3014	1,148.44	76.1311	1,148.44	73.4154	1,148.44	74.7237	1,148.44	71.1511	1,148.44	72.6318	1,148.44	70.6166	1,148.44	70.8604	1,148.44	71.5764	1,148.44	71.0786	1,148.44	71.2088	1,148.44	71.4709	1,148.44	68.0913	1,148.44	69.9691	1,148.44	63.9423	1,148.44	65.2873	1,148.44	68.163	1,148.44	62.6297	1,148.44	71.0826	1,148.44	68.5402	1,148.44	71.1908
1,189.45	83.5031	1,189.45	83.29	1,189.45	83.403	1,189.45	82.7376	1,189.45	83.0032	1,189.45	81.808	1,189.45	82.2984	1,189.45	80.4921	1,189.45	81.2627	1,189.45	78.9175	1,189.45	79.9051	1,189.45	77.4168	1,189.45	78.3833	1,189.45	76.2319	1,189.45	77.0249	1,189.45	75.0441	1,189.45	75.9397	1,189.45	73.2718	1,189.45	74.6507	1,189.45	71.0994	1,189.45	72.6293	1,189.45	70.623	1,189.45	70.548	1,189.45	71.6373	1,189.45	70.6139	1,189.45	71.2783	1,189.45	71.467	1,189.45	68.1321	1,189.45	70.5531	1,189.45	63.3097	1,189.45	66.5643	1,189.45	67.2721	1,189.45	63.2202	1,189.45	70.496	1,189.45	68.4382	1,189.45	70.8835
1,230.47	83.307	1,230.47	83.1302	1,230.47	83.1937	1,230.47	82.6627	1,230.47	82.7919	1,230.47	81.8757	1,230.47	82.102	1,230.47	80.7146	1,230.47	81.1023	1,230.47	79.1889	1,230.47	79.7762	1,230.47	77.5144	1,230.47	78.2252	1,230.47	76.0588	1,230.47	76.759	1,230.47	74.8163	1,230.47	75.6136	1,230.47	73.2351	1,230.47	74.4858	1,230.47	71.1863	1,230.47	72.8904	1,230.47	70.4119	1,230.47	71.1468	1,230.47	71.3392	1,230.47	70.852	1,230.47	71.1707	1,230.47	71.5373	1,230.47	68.1726	1,230.47	70.8008	1,230.47	62.0865	1,230.47	67.063	1,230.47	66.9419	1,230.47	63.9479	1,230.47	70.9364	1,230.47	69.1685	1,230.47	71.5698
1,274.41	83.1817	1,274.41	82.9892	1,274.41	83.0695	1,274.41	82.5361	1,274.41	82.6479	1,274.41	81.8323	1,274.41	81.9322	1,274.41	80.7921	1,274.41	80.8928	1,274.41	79.3213	1,274.41	79.4602	1,274.41	77.5626	1,274.41	77.6699	1,274.41	76.0707	1,274.41	75.8939	1,274.41	75.1186	1,274.41	74.6837	1,274.41	73.9015	1,274.41	73.8644	1,274.41	71.532	1,274.41	72.6068	1,274.41	69.1491	1,274.41	70.7386	1,274.41	70.1403	1,274.41	70.1522	1,274.41	71.0752	1,274.41	71.2276	1,274.41	69.0544	1,274.41	70.9221	1,274.41	63.4369	1,274.41	67.4951	1,274.41	67.1334	1,274.41	63.8083	1,274.41	71.2283	1,274.41	69.0012	1,274.41	71.7073
1,318.36	82.8312	1,318.36	82.6356	1,318.36	82.726	1,318.36	82.1947	1,318.36	82.3264	1,318.36	81.5444	1,318.36	81.6651	1,318.36	80.6043	1,318.36	80.7027	1,318.36	79.2274	1,318.36	79.3193	1,318.36	77.4333	1,318.36	77.4671	1,318.36	75.7084	1,318.36	75.4387	1,318.36	74.6506	1,318.36	73.9388	1,318.36	73.7715	1,318.36	73.0932	1,318.36	72.0476	1,318.36	71.9213	1,318.36	69.7062	1,318.36	70.0294	1,318.36	69.5821	1,318.36	69.3073	1,318.36	70.45	1,318.36	70.1076	1,318.36	68.7841	1,318.36	69.3763	1,318.36	63.1793	1,318.36	65.2547	1,318.36	65.6326	1,318.36	62.2535	1,318.36	70.0388	1,318.36	68.1732	1,318.36	70.7149
1,365.23	82.2792	1,365.23	82.0977	1,365.23	82.1037	1,365.23	81.6222	1,365.23	81.6089	1,365.23	80.9546	1,365.23	80.8988	1,365.23	80.1065	1,365.23	80.0154	1,365.23	78.9382	1,365.23	78.8453	1,365.23	77.2976	1,365.23	77.2206	1,365.23	75.298	1,365.23	75.1525	1,365.23	73.5057	1,365.23	73.1385	1,365.23	72.3217	1,365.23	71.9047	1,365.23	71.2142	1,365.23	70.9287	1,365.23	69.9757	1,365.23	69.2546	1,365.23	69.7589	1,365.23	67.8589	1,365.23	70.1185	1,365.23	68.4011	1,365.23	68.7654	1,365.23	68.4021	1,365.23	64.2899	1,365.23	65.2769	1,365.23	63.8368	1,365.23	59.8602	1,365.23	68.4107	1,365.23	66.4114	1,365.23	69.3861
1,415.04	82.0468	1,415.04	81.7918	1,415.04	81.8697	1,415.04	81.1906	1,415.04	81.2734	1,415.04	80.3888	1,415.04	80.4166	1,415.04	79.4821	1,415.04	79.5298	1,415.04	78.3632	1,415.04	78.634	1,415.04	76.8003	1,415.04	77.4286	1,415.04	74.7593	1,415.04	75.5909	1,415.04	72.7046	1,415.04	73.2591	1,415.04	71.2154	1,415.04	71.4699	1,415.04	69.9335	1,415.04	70.5577	1,415.04	68.7074	1,415.04	69.066	1,415.04	68.9393	1,415.04	66.8957	1,415.04	69.6736	1,415.04	67.2445	1,415.04	68.5954	1,415.04	68.3459	1,415.04	65.324	1,415.04	66.3578	1,415.04	65.694	1,415.04	61.1146	1,415.04	69.0992	1,415.04	66.4538	1,415.04	69.7026
1,464.84	82.4879	1,464.84	82.188	1,464.84	82.3315	1,464.84	81.4407	1,464.84	81.7888	1,464.84	80.3969	1,464.84	80.971	1,464.84	79.2585	1,464.84	80.019	1,464.84	78.0157	1,464.84	79.0033	1,464.84	76.4347	1,464.84	77.8089	1,464.84	74.4608	1,464.84	76.2228	1,464.84	72.6298	1,464.84	74.2	1,464.84	71.4582	1,464.84	72.217	1,464.84	70.0671	1,464.84	70.8385	1,464.84	67.4997	1,464.84	69.3863	1,464.84	66.3091	1,464.84	67.5127	1,464.84	67.8865	1,464.84	67.4687	1,464.84	67.4627	1,464.84	68.2747	1,464.84	64.0582	1,464.84	66.4438	1,464.84	65.1422	1,464.84	60.7032	1,464.84	68.8677	1,464.84	65.2763	1,464.84	69.1555
1,514.65	82.7712	1,514.65	82.549	1,514.65	82.5699	1,514.65	81.8542	1,514.65	82.0209	1,514.65	80.797	1,514.65	81.179	1,514.65	79.6335	1,514.65	80.1485	1,514.65	78.4706	1,514.65	79.0609	1,514.65	77.0634	1,514.65	77.9206	1,514.65	75.1764	1,514.65	76.5625	1,514.65	73.1452	1,514.65	74.8525	1,514.65	71.7781	1,514.65	73.0297	1,514.65	70.704	1,514.65	71.4595	1,514.65	68.6187	1,514.65	69.7961	1,514.65	66.6988	1,514.65	68.0144	1,514.65	67.5856	1,514.65	68.0319	1,514.65	67.0799	1,514.65	68.959	1,514.65	62.6051	1,514.65	67.7389	1,514.65	63.8146	1,514.65	63.3127	1,514.65	68.7247	1,514.65	65.6771	1,514.65	69.3001
1,570.31	82.3518	1,570.31	82.1685	1,570.31	82.2551	1,570.31	81.6587	1,570.31	81.7834	1,570.31	80.7942	1,570.31	80.8348	1,570.31	79.71	1,570.31	79.5729	1,570.31	78.5759	1,570.31	78.407	1,570.31	77.3274	1,570.31	77.4721	1,570.31	75.7338	1,570.31	76.312	1,570.31	73.8776	1,570.31	74.4313	1,570.31	72.4785	1,570.31	72.1969	1,570.31	71.6168	1,570.31	70.8653	1,570.31	69.9007	1,570.31	70.0083	1,570.31	67.3001	1,570.31	68.2177	1,570.31	67.348	1,570.31	67.31	1,570.31	67.468	1,570.31	68.8018	1,570.31	63.8471	1,570.31	68.2829	1,570.31	62.9086	1,570.31	64.7946	1,570.31	68.4148	1,570.31	66.5812	1,570.31	69.529
1,623.05	82.2516	1,623.05	81.9881	1,623.05	82.0904	1,623.05	81.3134	1,623.05	81.5	1,623.05	80.3214	1,623.05	80.4903	1,623.05	79.2092	1,623.05	79.1754	1,623.05	78.144	1,623.05	77.8162	1,623.05	77.0262	1,623.05	76.6494	1,623.05	75.537	1,623.05	75.5283	1,623.05	73.6279	1,623.05	73.9881	1,623.05	72.1342	1,623.05	71.9388	1,623.05	71.4845	1,623.05	70.2214	1,623.05	70.1445	1,623.05	69.3328	1,623.05	67.7909	1,623.05	67.9774	1,623.05	67.7708	1,623.05	66.3963	1,623.05	68.396	1,623.05	66.8014	1,623.05	65.918	1,623.05	66.0618	1,623.05	63.295	1,623.05	62.0856	1,623.05	68.0103	1,623.05	64.9962	1,623.05	68.8953
1,681.64	82.078	1,681.64	81.7088	1,681.64	81.9725	1,681.64	81.0042	1,681.64	81.3764	1,681.64	80.0282	1,681.64	80.4204	1,681.64	78.7242	1,681.64	79.24	1,681.64	77.2572	1,681.64	77.9564	1,681.64	76.0174	1,681.64	76.7613	1,681.64	74.8645	1,681.64	75.6316	1,681.64	73.2416	1,681.64	74.1666	1,681.64	71.3682	1,681.64	72.1938	1,681.64	70.3056	1,681.64	70.5037	1,681.64	69.2595	1,681.64	69.4776	1,681.64	67.0635	1,681.64	67.659	1,681.64	67.1405	1,681.64	65.7481	1,681.64	68.7999	1,681.64	67.1978	1,681.64	67.3511	1,681.64	67.8351	1,681.64	64.8204	1,681.64	65.0844	1,681.64	68.509	1,681.64	65.585	1,681.64	69.2749
1,740.23	82.2208	1,740.23	81.8706	1,740.23	82.1092	1,740.23	81.1071	1,740.23	81.5871	1,740.23	80.021	1,740.23	80.7368	1,740.23	78.7529	1,740.23	79.5981	1,740.23	77.4727	1,740.23	78.3062	1,740.23	76.1774	1,740.23	77.1603	1,740.23	74.6817	1,740.23	76.2175	1,740.23	72.9328	1,740.23	75.0126	1,740.23	71.2368	1,740.23	73.1695	1,740.23	70.0599	1,740.23	71.2243	1,740.23	68.9891	1,740.23	70.0617	1,740.23	66.964	1,740.23	68.7547	1,740.23	65.7766	1,740.23	66.9495	1,740.23	67.7045	1,740.23	67.713	1,740.23	68.0622	1,740.23	68.8546	1,740.23	66.6006	1,740.23	67.8289	1,740.23	68.3533	1,740.23	68.0294	1,740.23	69.659
1,801.76	82.1786	1,801.76	82.0512	1,801.76	82.0031	1,801.76	81.6265	1,801.76	81.5475	1,801.76	80.9073	1,801.76	80.867	1,801.76	79.8455	1,801.76	79.9616	1,801.76	78.432	1,801.76	78.7674	1,801.76	76.9332	1,801.76	77.3971	1,801.76	75.5826	1,801.76	76.1717	1,801.76	73.977	1,801.76	75.0173	1,801.76	71.7569	1,801.76	73.4749	1,801.76	69.9405	1,801.76	71.912	1,801.76	69.0927	1,801.76	71.1446	1,801.76	67.399	1,801.76	69.819	1,801.76	66.2624	1,801.76	67.2253	1,801.76	67.9533	1,801.76	67.8933	1,801.76	68.3487	1,801.76	68.7481	1,801.76	68.9689	1,801.76	66.4117	1,801.76	71.1382	1,801.76	67.9562	1,801.76	71.1951
1,866.21	81.9767	1,866.21	81.8997	1,866.21	81.7462	1,866.21	81.3533	1,866.21	81.319	1,866.21	80.4935	1,866.21	80.5413	1,866.21	79.5586	1,866.21	79.3182	1,866.21	78.4511	1,866.21	77.7955	1,866.21	77.1111	1,866.21	76.4096	1,866.21	75.8467	1,866.21	75.465	1,866.21	74.5592	1,866.21	74.2028	1,866.21	72.6008	1,866.21	71.9251	1,866.21	70.4733	1,866.21	69.7235	1,866.21	69.7133	1,866.21	69.3741	1,866.21	68.4468	1,866.21	68.6062	1,866.21	65.7796	1,866.21	66.4052	1,866.21	66.8126	1,866.21	66.098	1,866.21	67.922	1,866.21	66.8951	1,866.21	70.1795	1,866.21	66.4174	1,866.21	73.3144	1,866.21	69.6453	1,866.21	73.1748
1,930.66	80.8365	1,930.66	80.8078	1,930.66	80.5839	1,930.66	80.3846	1,930.66	80.3571	1,930.66	79.6562	1,930.66	80.2289	1,930.66	78.5881	1,930.66	79.8168	1,930.66	77.2063	1,930.66	78.6705	1,930.66	76.0322	1,930.66	76.8649	1,930.66	75.3507	1,930.66	75.1466	1,930.66	74.4515	1,930.66	73.7832	1,930.66	72.8563	1,930.66	71.7744	1,930.66	71.5555	1,930.66	68.9843	1,930.66	71.0203	1,930.66	68.1859	1,930.66	69.5599	1,930.66	67.9723	1,930.66	67.8527	1,930.66	65.2471	1,930.66	67.944	1,930.66	65.4017	1,930.66	65.5056	1,930.66	66.3432	1,930.66	68.3415	1,930.66	62.7163	1,930.66	72.8457	1,930.66	68.1658	1,930.66	72.7662
2,000.98	81.297	2,000.98	81.1414	2,000.98	81.1885	2,000.98	80.8784	2,000.98	81.0349	2,000.98	80.6227	2,000.98	81.0109	2,000.98	80.0154	2,000.98	80.8376	2,000.98	78.6167	2,000.98	80.1132	2,000.98	76.5688	2,000.98	78.7324	2,000.98	74.9265	2,000.98	77.1391	2,000.98	73.7986	2,000.98	75.8782	2,000.98	71.7284	2,000.98	74.2826	2,000.98	69.5373	2,000.98	71.4028	2,000.98	69.1581	2,000.98	69.1849	2,000.98	67.3399	2,000.98	69.4176	2,000.98	66.0528	2,000.98	67.9838	2,000.98	68.8595	2,000.98	67.3262	2,000.98	66.3315	2,000.98	69.0496	2,000.98	63.9485	2,000.98	65.5553	2,000.98	71.5592	2,000.98	67.3346	2,000.98	72.4965
2,071.29	81.7443	2,071.29	81.4761	2,071.29	81.7839	2,071.29	81.2811	2,071.29	81.5098	2,071.29	81.3664	2,071.29	81.3293	2,071.29	81.476	2,071.29	81.443	2,071.29	80.8485	2,071.29	81.1587	2,071.29	78.9981	2,071.29	79.8555	2,071.29	76.5351	2,071.29	77.9344	2,071.29	74.9425	2,071.29	76.5319	2,071.29	73.1619	2,071.29	75.2456	2,071.29	69.6049	2,071.29	72.574	2,071.29	68.2466	2,071.29	70.1426	2,071.29	68.3799	2,071.29	70.4158	2,071.29	64.1733	2,071.29	68.6144	2,071.29	68.2191	2,071.29	67.4381	2,071.29	69.0684	2,071.29	69.1993	2,071.29	65.6695	2,071.29	66.8825	2,071.29	71.7373	2,071.29	69.0709	2,071.29	73.0663
2,144.53	81.1581	2,144.53	81.1234	2,144.53	81.0545	2,144.53	80.7402	2,144.53	80.7368	2,144.53	80.4387	2,144.53	80.2443	2,144.53	80.7744	2,144.53	80.1711	2,144.53	80.8988	2,144.53	80.1534	2,144.53	79.8868	2,144.53	79.2353	2,144.53	78.0379	2,144.53	77.416	2,144.53	76.5635	2,144.53	75.9142	2,144.53	75.0411	2,144.53	74.826	2,144.53	71.7973	2,144.53	72.2038	2,144.53	69.5675	2,144.53	68.6944	2,144.53	69.5392	2,144.53	68.778	2,144.53	63.2362	2,144.53	66.2022	2,144.53	66.6629	2,144.53	64.7625	2,144.53	69.745	2,144.53	68.9045	2,144.53	66.2614	2,144.53	65.0419	2,144.53	72.5032	2,144.53	68.4135	2,144.53	74.362
2,217.77	80.2488	2,217.77	80.2666	2,217.77	80.226	2,217.77	80.0159	2,217.77	79.9814	2,217.77	79.4863	2,217.77	79.5872	2,217.77	79.3453	2,217.77	79.5221	2,217.77	79.7057	2,217.77	79.8469	2,217.77	79.3721	2,217.77	79.7292	2,217.77	77.8426	2,217.77	78.3126	2,217.77	76.4178	2,217.77	75.8291	2,217.77	75.6238	2,217.77	74.3219	2,217.77	73.4202	2,217.77	72.9733	2,217.77	70.5875	2,217.77	69.4515	2,217.77	71.315	2,217.77	67.9806	2,217.77	69.1027	2,217.77	68.2817	2,217.77	65.4978	2,217.77	63.7102	2,217.77	69.9016	2,217.77	69.2086	2,217.77	68.1844	2,217.77	69.4747	2,217.77	71.7399	2,217.77	65.3802	2,217.77	72.3448
2,296.88	80.348	2,296.88	80.3926	2,296.88	80.8484	2,296.88	80.8142	2,296.88	81.3616	2,296.88	80.9447	2,296.88	81.5054	2,296.88	80.3866	2,296.88	81.3454	2,296.88	79.7765	2,296.88	81.4548	2,296.88	79.179	2,296.88	81.4489	2,296.88	77.6301	2,296.88	80.3334	2,296.88	75.5145	2,296.88	78.3101	2,296.88	74.3689	2,296.88	76.8279	2,296.88	72.6675	2,296.88	75.452	2,296.88	69.8027	2,296.88	72.4359	2,296.88	70.3659	2,296.88	70.5287	2,296.88	69.3303	2,296.88	70.2007	2,296.88	67.7914	2,296.88	63.8362	2,296.88	70.8475	2,296.88	67.3136	2,296.88	68.7488	2,296.88	70.5126	2,296.88	71.771	2,296.88	70.0278	2,296.88	72.9922
2,378.91	79.7665	2,378.91	80.5113	2,378.91	80.7896	2,378.91	82.1917	2,378.91	82.4947	2,378.91	83.0101	2,378.91	83.2948	2,378.91	82.2456	2,378.91	82.5185	2,378.91	81.0783	2,378.91	81.2474	2,378.91	80.4166	2,378.91	80.9568	2,378.91	79.0394	2,378.91	80.3482	2,378.91	76.5635	2,378.91	78.3099	2,378.91	74.9265	2,378.91	76.3967	2,378.91	73.8432	2,378.91	75.8414	2,378.91	71.1912	2,378.91	73.7615	2,378.91	69.3649	2,378.91	70.784	2,378.91	66.1442	2,378.91	70.9076	2,378.91	64.8473	2,378.91	66.9681	2,378.91	70.7293	2,378.91	67.9835	2,378.91	69.5841	2,378.91	71.2942	2,378.91	73.5596	2,378.91	71.3271	2,378.91	74.9323
2,460.94	80.3685	2,460.94	81.3077	2,460.94	80.291	2,460.94	82.5593	2,460.94	81.5992	2,460.94	83.2412	2,460.94	82.9403	2,460.94	82.8036	2,460.94	82.7443	2,460.94	81.6393	2,460.94	81.0039	2,460.94	80.4452	2,460.94	79.1163	2,460.94	79.2007	2,460.94	78.1177	2,460.94	77.4689	2,460.94	76.5603	2,460.94	75.5927	2,460.94	73.9483	2,460.94	73.9374	2,460.94	72.4741	2,460.94	72.3234	2,460.94	71.4862	2,460.94	72.1861	2,460.94	69.858	2,460.94	70.6214	2,460.94	69.8359	2,460.94	61.6906	2,460.94	66.4449	2,460.94	67.9527	2,460.94	63.725	2,460.94	67.6585	2,460.94	69.2025	2,460.94	70.2439	2,460.94	70.9861	2,460.94	72.9302
2,548.83	80.8302	2,548.83	81.4452	2,548.83	80.7976	2,548.83	82.5766	2,548.83	81.4709	2,548.83	83.2283	2,548.83	82.6735	2,548.83	82.7521	2,548.83	83.1232	2,548.83	81.2827	2,548.83	82.1915	2,548.83	79.5024	2,548.83	80.3907	2,548.83	77.9239	2,548.83	78.7786	2,548.83	76.4266	2,548.83	77.2101	2,548.83	75.1408	2,548.83	74.9884	2,548.83	73.7792	2,548.83	72.9489	2,548.83	71.9496	2,548.83	71.5348	2,548.83	71.5429	2,548.83	69.6645	2,548.83	70.8126	2,548.83	69.0478	2,548.83	67.868	2,548.83	67.4599	2,548.83	69.289	2,548.83	65.0769	2,548.83	70.5226	2,548.83	66.9184	2,548.83	73.1916	2,548.83	69.3659	2,548.83	73.7875
2,639.65	81.5659	2,639.65	81.7917	2,639.65	81.408	2,639.65	82.6024	2,639.65	81.6883	2,639.65	83.5294	2,639.65	82.783	2,639.65	83.4998	2,639.65	83.5012	2,639.65	82.1688	2,639.65	82.8956	2,639.65	80.0894	2,639.65	81.1209	2,639.65	78.2039	2,639.65	79.2707	2,639.65	76.2847	2,639.65	77.8638	2,639.65	73.8501	2,639.65	76.0202	2,639.65	71.6716	2,639.65	73.6085	2,639.65	70.1796	2,639.65	71.9618	2,639.65	69.748	2,639.65	70.9077	2,639.65	68.8809	2,639.65	69.7777	2,639.65	68.1706	2,639.65	68.2755	2,639.65	70.1198	2,639.65	68.146	2,639.65	69.0476	2,639.65	68.3255	2,639.65	73.9199	2,639.65	70.1214	2,639.65	75.0899
2,733.4	81.5111	2,733.4	81.9214	2,733.4	81.4908	2,733.4	82.5499	2,733.4	81.7699	2,733.4	83.2047	2,733.4	82.3843	2,733.4	83.4977	2,733.4	83.0564	2,733.4	82.8062	2,733.4	82.8208	2,733.4	81.0475	2,733.4	81.3549	2,733.4	78.847	2,733.4	79.2359	2,733.4	76.8946	2,733.4	77.4927	2,733.4	75.0225	2,733.4	75.8587	2,733.4	72.6228	2,733.4	73.5307	2,733.4	70.6917	2,733.4	71.1907	2,733.4	70.7588	2,733.4	70.1617	2,733.4	67.9746	2,733.4	70.2084	2,733.4	66.5032	2,733.4	68.3653	2,733.4	71.3462	2,733.4	68.7488	2,733.4	68.529	2,733.4	69.9967	2,733.4	72.4977	2,733.4	66.9949	2,733.4	73.5761
2,827.15	81.2039	2,827.15	82.05	2,827.15	81.5504	2,827.15	82.868	2,827.15	82.443	2,827.15	83.3216	2,827.15	82.8828	2,827.15	83.5326	2,827.15	83.2044	2,827.15	82.9039	2,827.15	83.1082	2,827.15	81.2877	2,827.15	81.9513	2,827.15	79.1884	2,827.15	79.8867	2,827.15	77.0144	2,827.15	77.7394	2,827.15	74.9843	2,827.15	75.9843	2,827.15	72.8378	2,827.15	73.8521	2,827.15	70.657	2,827.15	71.1294	2,827.15	70.6565	2,827.15	69.9261	2,827.15	69.1885	2,827.15	69.7462	2,827.15	67.0018	2,827.15	67.7494	2,827.15	71.8921	2,827.15	69.0359	2,827.15	68.2864	2,827.15	70.808	2,827.15	69.735	2,827.15	67.5746	2,827.15	72.3835
2,926.76	80.7634	2,926.76	81.9602	2,926.76	81.3013	2,926.76	82.9797	2,926.76	82.625	2,926.76	83.3172	2,926.76	83.0538	2,926.76	83.339	2,926.76	83.0506	2,926.76	82.8223	2,926.76	82.8943	2,926.76	81.4815	2,926.76	81.9453	2,926.76	79.4055	2,926.76	79.8736	2,926.76	77.2751	2,926.76	77.323	2,926.76	75.4053	2,926.76	75.3366	2,926.76	72.6064	2,926.76	73.3857	2,926.76	69.2173	2,926.76	71.0224	2,926.76	70.0872	2,926.76	69.8817	2,926.76	68.2268	2,926.76	69.9356	2,926.76	65.6229	2,926.76	68.5611	2,926.76	73.0066	2,926.76	70.0087	2,926.76	71.6535	2,926.76	72.3234	2,926.76	68.8722	2,926.76	68.0331	2,926.76	70.8295
3,032.23	80.9846	3,032.23	82.1205	3,032.23	81.405	3,032.23	83.274	3,032.23	82.8382	3,032.23	83.4501	3,032.23	83.3853	3,032.23	82.8182	3,032.23	82.8169	3,032.23	81.9489	3,032.23	82.1235	3,032.23	80.8208	3,032.23	81.5568	3,032.23	79.0728	3,032.23	80.4492	3,032.23	76.946	3,032.23	78.5705	3,032.23	75.5606	3,032.23	76.3858	3,032.23	74.1177	3,032.23	74.4105	3,032.23	70.5154	3,032.23	71.6003	3,032.23	68.8411	3,032.23	68.3853	3,032.23	67.4418	3,032.23	67.7883	3,032.23	63.5446	3,032.23	64.8031	3,032.23	72.9087	3,032.23	68.8207	3,032.23	71.2381	3,032.23	72.883	3,032.23	67.9453	3,032.23	69.8618	3,032.23	70.612
3,137.7	81.9783	3,137.7	82.3954	3,137.7	82.0764	3,137.7	83.5507	3,137.7	82.9533	3,137.7	84.1952	3,137.7	83.8591	3,137.7	83.4492	3,137.7	83.6145	3,137.7	81.9474	3,137.7	82.4664	3,137.7	80.6574	3,137.7	81.3846	3,137.7	79.393	3,137.7	80.3677	3,137.7	77.2324	3,137.7	78.6496	3,137.7	74.942	3,137.7	76.4764	3,137.7	73.5292	3,137.7	74.7085	3,137.7	70.3152	3,137.7	72.612	3,137.7	67.9164	3,137.7	69.2713	3,137.7	69.4927	3,137.7	68.1065	3,137.7	61.5804	3,137.7	66.0451	3,137.7	69.0416	3,137.7	67.8914	3,137.7	68.2656	3,137.7	71.1799	3,137.7	65.4262	3,137.7	67.8378	3,137.7	69.431
3,249.02	82.3038	3,249.02	82.4503	3,249.02	82.1666	3,249.02	83.0065	3,249.02	82.6037	3,249.02	83.4713	3,249.02	83.5687	3,249.02	83.0567	3,249.02	83.6204	3,249.02	81.9035	3,249.02	82.5434	3,249.02	80.3945	3,249.02	81.1297	3,249.02	78.8443	3,249.02	79.7295	3,249.02	77.0414	3,249.02	78.2083	3,249.02	74.9297	3,249.02	76.5106	3,249.02	73.2354	3,249.02	75.2525	3,249.02	71.3684	3,249.02	73.7827	3,249.02	68.5472	3,249.02	70.4623	3,249.02	69.3243	3,249.02	69.0785	3,249.02	67.9042	3,249.02	67.37	3,249.02	69.681	3,249.02	67.8574	3,249.02	70.2571	3,249.02	71.7473	3,249.02	61.601	3,249.02	65.6969	3,249.02	69.3199
3,363.28	82.2281	3,363.28	82.3103	3,363.28	82.3362	3,363.28	82.7657	3,363.28	82.4871	3,363.28	82.9794	3,363.28	83.0197	3,363.28	82.6684	3,363.28	83.2164	3,363.28	81.9384	3,363.28	82.5802	3,363.28	80.8081	3,363.28	81.2366	3,363.28	79.2967	3,363.28	79.6972	3,363.28	77.1466	3,363.28	78.2486	3,363.28	74.7557	3,363.28	75.5876	3,363.28	73.3851	3,363.28	73.1146	3,363.28	71.9267	3,363.28	73.2597	3,363.28	68.9378	3,363.28	71.2999	3,363.28	67.541	3,363.28	68.0206	3,363.28	68.1997	3,363.28	68.1757	3,363.28	71.5214	3,363.28	64.2422	3,363.28	70.4435	3,363.28	70.0469	3,363.28	66.5193	3,363.28	64.1977	3,363.28	68.5261
3,483.4	83.0077	3,483.4	82.8988	3,483.4	83.2551	3,483.4	82.9499	3,483.4	83.4078	3,483.4	82.9127	3,483.4	83.2931	3,483.4	82.4407	3,483.4	83.0249	3,483.4	81.4898	3,483.4	82.4815	3,483.4	80.4115	3,483.4	81.579	3,483.4	79.209	3,483.4	80.504	3,483.4	77.246	3,483.4	79.0373	3,483.4	74.3245	3,483.4	76.8943	3,483.4	72.0318	3,483.4	74.1227	3,483.4	71.4335	3,483.4	72.5267	3,483.4	69.5803	3,483.4	70.9609	3,483.4	67.0744	3,483.4	68.1342	3,483.4	65.9664	3,483.4	68.3227	3,483.4	70.6821	3,483.4	65.8828	3,483.4	68.9214	3,483.4	70.0894	3,483.4	67.3568	3,483.4	67.2504	3,483.4	70.5408
3,606.45	83.263	3,606.45	82.9004	3,606.45	83.0453	3,606.45	82.9004	3,606.45	82.8744	3,606.45	83.2397	3,606.45	83.1377	3,606.45	82.9307	3,606.45	82.9302	3,606.45	81.9278	3,606.45	82.0287	3,606.45	80.376	3,606.45	80.5519	3,606.45	79.3201	3,606.45	79.3762	3,606.45	78.487	3,606.45	78.8501	3,606.45	76.5361	3,606.45	77.4118	3,606.45	73.3529	3,606.45	74.6558	3,606.45	71.4281	3,606.45	73.3644	3,606.45	70.3632	3,606.45	71.6581	3,606.45	69.5881	3,606.45	66.487	3,606.45	67.3252	3,606.45	68.0127	3,606.45	70.4874	3,606.45	68.1226	3,606.45	72.234	3,606.45	70.9515	3,606.45	55.961	3,606.45	65.3665	3,606.45	70.6986
3,732.42	82.7226	3,732.42	82.7794	3,732.42	83.0667	3,732.42	82.8165	3,732.42	83.1084	3,732.42	83.0357	3,732.42	82.9	3,732.42	83.4094	3,732.42	83.3557	3,732.42	82.9987	3,732.42	83.5477	3,732.42	81.2789	3,732.42	82.4346	3,732.42	78.9557	3,732.42	80.0239	3,732.42	77.036	3,732.42	78.0807	3,732.42	75.6859	3,732.42	77.1291	3,732.42	73.7338	3,732.42	75.1529	3,732.42	71.8884	3,732.42	73.2276	3,732.42	69.6436	3,732.42	72.5238	3,732.42	69.9003	3,732.42	69.1425	3,732.42	73.1211	3,732.42	72.905	3,732.42	73.4119	3,732.42	74.5225	3,732.42	73.7097	3,732.42	72.444	3,732.42	66.7479	3,732.42	64.637	3,732.42	67.1603
3,864.26	83.678	3,864.26	83.211	3,864.26	83.5349	3,864.26	83.289	3,864.26	83.2906	3,864.26	83.4541	3,864.26	83.2691	3,864.26	83.4464	3,864.26	83.4034	3,864.26	83.4036	3,864.26	83.8675	3,864.26	82.6562	3,864.26	83.8065	3,864.26	80.8185	3,864.26	82.4008	3,864.26	77.7816	3,864.26	79.5975	3,864.26	74.8355	3,864.26	76.9642	3,864.26	72.7686	3,864.26	74.9409	3,864.26	72.6407	3,864.26	71.7784	3,864.26	71.5478	3,864.26	70.578	3,864.26	62.563	3,864.26	69.1632	3,864.26	68.2455	3,864.26	68.6211	3,864.26	73.9287	3,864.26	73.6272	3,864.26	73.3248	3,864.26	74.9088	3,864.26	67.6219	3,864.26	68.911	3,864.26	68.8877
3,999.02	84.59	3,999.02	83.4998	3,999.02	83.982	3,999.02	82.6715	3,999.02	82.759	3,999.02	83.2332	3,999.02	82.8865	3,999.02	83.9718	3,999.02	83.658	3,999.02	83.8764	3,999.02	84.071	3,999.02	82.9502	3,999.02	83.6687	3,999.02	81.5267	3,999.02	82.3689	3,999.02	79.346	3,999.02	80.2976	3,999.02	76.6822	3,999.02	77.4865	3,999.02	73.727	3,999.02	74.5059	3,999.02	72.3486	3,999.02	73.3205	3,999.02	71.5634	3,999.02	72.2113	3,999.02	68.4226	3,999.02	67.6632	3,999.02	65.1775	3,999.02	64.6689	3,999.02	71.9676	3,999.02	69.8767	3,999.02	72.3742	3,999.02	74.2682	3,999.02	68.0847	3,999.02	69.8566	3,999.02	69.2915
4,139.65	85.1063	4,139.65	83.9443	4,139.65	84.5276	4,139.65	82.988	4,139.65	83.1957	4,139.65	83.8341	4,139.65	83.0353	4,139.65	84.6194	4,139.65	83.9246	4,139.65	84.2952	4,139.65	84.4809	4,139.65	83.0385	4,139.65	83.7309	4,139.65	81.222	4,139.65	82.3567	4,139.65	79.1884	4,139.65	80.5313	4,139.65	77.2232	4,139.65	78.0464	4,139.65	73.7659	4,139.65	74.9945	4,139.65	70.3904	4,139.65	72.3602	4,139.65	70.1313	4,139.65	71.8542	4,139.65	69.7783	4,139.65	70.7178	4,139.65	65.7672	4,139.65	68.3879	4,139.65	69.6826	4,139.65	60.187	4,139.65	71.0744	4,139.65	71.6487	4,139.65	67.3347	4,139.65	66.3853	4,139.65	69.9344
4,286.13	85.7261	4,286.13	84.4865	4,286.13	85.2409	4,286.13	82.8897	4,286.13	83.2463	4,286.13	82.7771	4,286.13	82.9321	4,286.13	84.1103	4,286.13	84.5157	4,286.13	84.55	4,286.13	85.0129	4,286.13	83.2244	4,286.13	84.1761	4,286.13	80.6189	4,286.13	82.3255	4,286.13	77.9131	4,286.13	80.2082	4,286.13	75.542	4,286.13	78.4682	4,286.13	72.9139	4,286.13	76.1206	4,286.13	71.1386	4,286.13	73.3872	4,286.13	69.5901	4,286.13	71.5217	4,286.13	69.9342	4,286.13	70.4449	4,286.13	71.2399	4,286.13	71.0979	4,286.13	69.1938	4,286.13	64.3435	4,286.13	70.5891	4,286.13	70.7514	4,286.13	55.7893	4,286.13	69.5149	4,286.13	63.049
4,438.48	85.4283	4,438.48	83.9774	4,438.48	85.0172	4,438.48	82.8663	4,438.48	83.4648	4,438.48	83.9193	4,438.48	83.0521	4,438.48	84.921	4,438.48	84.0773	4,438.48	84.7869	4,438.48	84.9617	4,438.48	83.7578	4,438.48	84.1068	4,438.48	81.6593	4,438.48	81.8319	4,438.48	78.8754	4,438.48	79.6464	4,438.48	76.4786	4,438.48	76.9794	4,438.48	73.6829	4,438.48	74.0105	4,438.48	70.4332	4,438.48	72.2384	4,438.48	67.9878	4,438.48	72.0598	4,438.48	66.1951	4,438.48	69.2232	4,438.48	68.2257	4,438.48	69.704	4,438.48	69.2451	4,438.48	66.3309	4,438.48	70.436	4,438.48	66.8832	4,438.48	64.3838	4,438.48	65.8046	4,438.48	66.0958
4,593.75	85.7664	4,593.75	84.4946	4,593.75	85.2442	4,593.75	83.0536	4,593.75	83.8737	4,593.75	83.1432	4,593.75	83.4879	4,593.75	84.0402	4,593.75	84.2093	4,593.75	83.9059	4,593.75	84.4134	4,593.75	81.9415	4,593.75	83.4318	4,593.75	79.619	4,593.75	82.0177	4,593.75	77.5236	4,593.75	79.2172	4,593.75	75.4822	4,593.75	76.5755	4,593.75	73.0623	4,593.75	74.5781	4,593.75	72.249	4,593.75	72.0491	4,593.75	70.7057	4,593.75	71.0672	4,593.75	67.4394	4,593.75	70.1561	4,593.75	68.2711	4,593.75	70.9515	4,593.75	68.7703	4,593.75	69.3564	4,593.75	71.3229	4,593.75	66.6234	4,593.75	64.5411	4,593.75	68.0392	4,593.75	64.0313
4,757.81	85.2002	4,757.81	84.0572	4,757.81	84.782	4,757.81	82.9986	4,757.81	83.6253	4,757.81	83.3297	4,757.81	83.4639	4,757.81	83.8942	4,757.81	84.1609	4,757.81	83.4979	4,757.81	84.3019	4,757.81	82.612	4,757.81	83.1062	4,757.81	80.7459	4,757.81	80.9585	4,757.81	78.1811	4,757.81	79.207	4,757.81	75.7499	4,757.81	76.9226	4,757.81	72.7826	4,757.81	73.9706	4,757.81	69.2205	4,757.81	71.8758	4,757.81	66.1133	4,757.81	70.3995	4,757.81	64.4159	4,757.81	66.1825	4,757.81	65.3514	4,757.81	67.4516	4,757.81	64.9371	4,757.81	66.2103	4,757.81	67.5951	4,757.81	66.5838	4,757.81	61.6021	4,757.81	67.2114	4,757.81	64.4809
4,924.8	85.0312	4,924.8	84.367	4,924.8	84.7992	4,924.8	83.6603	4,924.8	84.2144	4,924.8	83.2692	4,924.8	83.6687	4,924.8	83.5719	4,924.8	83.5778	4,924.8	83.121	4,924.8	83.2823	4,924.8	81.1982	4,924.8	82.2078	4,924.8	79.276	4,924.8	81.1454	4,924.8	77.4258	4,924.8	78.7631	4,924.8	75.1765	4,924.8	76.707	4,924.8	72.4134	4,924.8	74.6928	4,924.8	71.3777	4,924.8	71.6528	4,924.8	69.6714	4,924.8	69.7334	4,924.8	66.0745	4,924.8	67.5328	4,924.8	66.4278	4,924.8	66.6962	4,924.8	63.4641	4,924.8	66.4389	4,924.8	69.7898	4,924.8	66.1167	4,924.8	64.4281	4,924.8	67.6665	4,924.8	65.7363
5,097.66	85.0917	5,097.66	84.8287	5,097.66	85.0378	5,097.66	83.9879	5,097.66	84.6205	5,097.66	83.1973	5,097.66	83.9108	5,097.66	83.1192	5,097.66	83.8691	5,097.66	82.583	5,097.66	83.8869	5,097.66	81.7992	5,097.66	82.9584	5,097.66	80.0067	5,097.66	81.3653	5,097.66	77.8727	5,097.66	79.4106	5,097.66	75.7943	5,097.66	77.1884	5,097.66	72.8043	5,097.66	74.7858	5,097.66	69.8004	5,097.66	71.7255	5,097.66	67.7951	5,097.66	69.9137	5,097.66	64.7504	5,097.66	68.2587	5,097.66	67.8255	5,097.66	66.8246	5,097.66	62.6155	5,097.66	64.809	5,097.66	68.518	5,097.66	65.496	5,097.66	62.0872	5,097.66	66.0693	5,097.66	65.0204
5,279.3	84.8559	5,279.3	84.8306	5,279.3	84.8655	5,279.3	84.2677	5,279.3	84.7506	5,279.3	83.1463	5,279.3	83.6328	5,279.3	82.9544	5,279.3	82.7762	5,279.3	82.7821	5,279.3	82.4449	5,279.3	81.6616	5,279.3	81.9123	5,279.3	80.0755	5,279.3	81.0071	5,279.3	77.6215	5,279.3	78.5781	5,279.3	74.4878	5,279.3	76.6185	5,279.3	71.4705	5,279.3	74.0943	5,279.3	69.6656	5,279.3	71.1894	5,279.3	68.3302	5,279.3	69.3003	5,279.3	64.6551	5,279.3	66.8064	5,279.3	64.8205	5,279.3	65.7844	5,279.3	60.4936	5,279.3	65.4102	5,279.3	68.1254	5,279.3	65.0434	5,279.3	64.1287	5,279.3	66.9591	5,279.3	65.6468
5,463.87	84.8658	5,463.87	85.3228	5,463.87	85.1582	5,463.87	84.5967	5,463.87	85.1894	5,463.87	82.6265	5,463.87	83.7122	5,463.87	81.9379	5,463.87	82.7051	5,463.87	81.8674	5,463.87	82.8418	5,463.87	81.4155	5,463.87	82.5154	5,463.87	79.5601	5,463.87	81.0724	5,463.87	77.0596	5,463.87	78.9546	5,463.87	74.6822	5,463.87	76.644	5,463.87	72.3536	5,463.87	74.4853	5,463.87	69.4269	5,463.87	71.5652	5,463.87	67.5429	5,463.87	68.9814	5,463.87	65.9301	5,463.87	67.2582	5,463.87	66.4867	5,463.87	61.7611	5,463.87	60.7909	5,463.87	62.5009	5,463.87	67.5631	5,463.87	65.5743	5,463.87	59.6222	5,463.87	65.3283	5,463.87	63.6444
5,657.23	84.15	5,657.23	84.9045	5,657.23	84.612	5,657.23	83.9973	5,657.23	84.9254	5,657.23	81.9575	5,657.23	83.2843	5,657.23	81.8883	5,657.23	82.312	5,657.23	82.4025	5,657.23	82.303	5,657.23	81.7349	5,657.23	82.2101	5,657.23	80.3121	5,657.23	81.0083	5,657.23	77.8504	5,657.23	78.738	5,657.23	74.8631	5,657.23	75.913	5,657.23	72.4386	5,657.23	73.4406	5,657.23	70.3428	5,657.23	70.8119	5,657.23	66.0645	5,657.23	68.2354	5,657.23	64.9833	5,657.23	67.4073	5,657.23	60.9192	5,657.23	65.7201	5,657.23	62.7936	5,657.23	57.5444	5,657.23	67.1985	5,657.23	64.3456	5,657.23	60.9001	5,657.23	66.3366	5,657.23	62.4143
5,856.45	83.9971	5,856.45	85.1268	5,856.45	84.4992	5,856.45	84.1234	5,856.45	85.0081	5,856.45	82.3671	5,856.45	83.2763	5,856.45	82.2718	5,856.45	82.0403	5,856.45	82.556	5,856.45	82.5848	5,856.45	81.8634	5,856.45	82.4013	5,856.45	79.7893	5,856.45	80.725	5,856.45	76.9196	5,856.45	78.4954	5,856.45	73.9338	5,856.45	75.8222	5,856.45	70.8205	5,856.45	73.6096	5,856.45	68.8583	5,856.45	70.6064	5,856.45	67.0063	5,856.45	67.4761	5,856.45	65.6464	5,856.45	65.0233	5,856.45	60.7059	5,856.45	62.8496	5,856.45	61.4384	5,856.45	58.0195	5,856.45	65.9772	5,856.45	61.7649	5,856.45	59.4544	5,856.45	65.5482	5,856.45	60.879
6,061.52	84.5224	6,061.52	85.5763	6,061.52	85.0262	6,061.52	84.4877	6,061.52	85.336	6,061.52	82.7289	6,061.52	83.3749	6,061.52	82.6578	6,061.52	82.4005	6,061.52	82.5625	6,061.52	82.3506	6,061.52	81.3331	6,061.52	81.9415	6,061.52	78.9557	6,061.52	80.3295	6,061.52	76.1624	6,061.52	77.436	6,061.52	74.0248	6,061.52	74.8607	6,061.52	71.2656	6,061.52	71.7434	6,061.52	69.0711	6,061.52	68.7141	6,061.52	65.8193	6,061.52	66.4637	6,061.52	65.1211	6,061.52	64.8675	6,061.52	59.5267	6,061.52	64.388	6,061.52	61.4121	6,061.52	58.9	6,061.52	64.8385	6,061.52	61.2996	6,061.52	57.5527	6,061.52	63.5608	6,061.52	56.9858
6,275.39	85.2366	6,275.39	85.7278	6,275.39	85.6755	6,275.39	84.5681	6,275.39	85.5483	6,275.39	83.1558	6,275.39	83.4728	6,275.39	82.4683	6,275.39	82.6779	6,275.39	82.5527	6,275.39	82.7779	6,275.39	81.348	6,275.39	81.8782	6,275.39	79.084	6,275.39	79.9953	6,275.39	76.4721	6,275.39	77.1957	6,275.39	73.0001	6,275.39	74.3899	6,275.39	69.4895	6,275.39	71.3518	6,275.39	67.3981	6,275.39	68.8029	6,275.39	63.1619	6,275.39	66.8219	6,275.39	64.1413	6,275.39	62.9879	6,275.39	55.905	6,275.39	60.8306	6,275.39	61.1303	6,275.39	58.6118	6,275.39	64.8234	6,275.39	60.8804	6,275.39	58.9193	6,275.39	63.6064	6,275.39	56.4966
6,498.05	85.1897	6,498.05	85.6553	6,498.05	85.6673	6,498.05	84.597	6,498.05	85.313	6,498.05	83.3933	6,498.05	83.6525	6,498.05	82.9385	6,498.05	82.9838	6,498.05	82.6318	6,498.05	82.4239	6,498.05	81.5005	6,498.05	81.6668	6,498.05	79.6177	6,498.05	80.013	6,498.05	76.5525	6,498.05	77.3948	6,498.05	72.7191	6,498.05	74.4354	6,498.05	70.2487	6,498.05	71.0576	6,498.05	67.9902	6,498.05	69.9864	6,498.05	62.7665	6,498.05	67.1033	6,498.05	63.4173	6,498.05	64.3768	6,498.05	60.5162	6,498.05	64.556	6,498.05	60.326	6,498.05	55.4692	6,498.05	62.5476	6,498.05	61.2399	6,498.05	57.4562	6,498.05	62.0341	6,498.05	51.2237
6,726.56	85.3498	6,726.56	85.7106	6,726.56	85.5899	6,726.56	84.8819	6,726.56	85.0341	6,726.56	84.0216	6,726.56	83.6434	6,726.56	82.9627	6,726.56	83.0846	6,726.56	82.4873	6,726.56	82.1932	6,726.56	81.3189	6,726.56	81.4187	6,726.56	79.2963	6,726.56	79.9226	6,726.56	75.9128	6,726.56	77.2123	6,726.56	72.6423	6,726.56	73.9898	6,726.56	70.3061	6,726.56	70.4962	6,726.56	68.0983	6,726.56	69.7148	6,726.56	64.5339	6,726.56	67.3085	6,726.56	62.5775	6,726.56	62.1465	6,726.56	60.4637	6,726.56	63.75	6,726.56	58.4267	6,726.56	53.3446	6,726.56	62.496	6,726.56	61.53	6,726.56	55.8133	6,726.56	60.6473	6,726.56	50.165
6,963.87	85.6155	6,963.87	85.564	6,963.87	85.5338	6,963.87	84.6515	6,963.87	84.6938	6,963.87	83.9131	6,963.87	83.8241	6,963.87	82.4949	6,963.87	82.8135	6,963.87	82.151	6,963.87	81.8647	6,963.87	81.4159	6,963.87	81.3242	6,963.87	79.3942	6,963.87	79.9106	6,963.87	76.0153	6,963.87	76.918	6,963.87	72.9352	6,963.87	73.7137	6,963.87	71.0333	6,963.87	70.8223	6,963.87	68.505	6,963.87	68.8087	6,963.87	65.6407	6,963.87	65.9017	6,963.87	62.6948	6,963.87	62.6681	6,963.87	61.3701	6,963.87	62.6503	6,963.87	55.1736	6,963.87	57.7849	6,963.87	62.4732	6,963.87	59.8793	6,963.87	58.0327	6,963.87	61.4539	6,963.87	51.2674
7,209.96	85.3752	7,209.96	85.1248	7,209.96	85.2274	7,209.96	84.448	7,209.96	84.31	7,209.96	83.6661	7,209.96	83.6097	7,209.96	82.1551	7,209.96	82.3466	7,209.96	82.106	7,209.96	81.3391	7,209.96	81.337	7,209.96	80.983	7,209.96	79.4044	7,209.96	79.4375	7,209.96	76.0244	7,209.96	76.3989	7,209.96	71.8896	7,209.96	72.955	7,209.96	70.3312	7,209.96	69.0615	7,209.96	67.2919	7,209.96	67.3642	7,209.96	64.2819	7,209.96	64.5608	7,209.96	62.2159	7,209.96	62.7241	7,209.96	59.6888	7,209.96	59.0505	7,209.96	54.6078	7,209.96	58.0603	7,209.96	62.2805	7,209.96	57.8074	7,209.96	57.5965	7,209.96	59.6152	7,209.96	53.3296
7,464.84	85.1433	7,464.84	84.749	7,464.84	84.8999	7,464.84	84.3216	7,464.84	83.9107	7,464.84	83.3352	7,464.84	83.5418	7,464.84	81.6786	7,464.84	82.0719	7,464.84	81.6823	7,464.84	81.1785	7,464.84	81.1069	7,464.84	80.4757	7,464.84	79.0273	7,464.84	79.015	7,464.84	75.382	7,464.84	75.7697	7,464.84	71.8645	7,464.84	72.0269	7,464.84	69.8405	7,464.84	68.3191	7,464.84	65.8095	7,464.84	66.9243	7,464.84	63.1118	7,464.84	63.1759	7,464.84	62.0135	7,464.84	62.9086	7,464.84	57.5314	7,464.84	57.8473	7,464.84	52.3774	7,464.84	56.317	7,464.84	61.0001	7,464.84	56.4277	7,464.84	58.2504	7,464.84	57.123	7,464.84	51.88
7,728.52	85.2567	7,728.52	84.782	7,728.52	84.785	7,728.52	84.3257	7,728.52	83.7772	7,728.52	83.2683	7,728.52	83.5341	7,728.52	81.5799	7,728.52	81.9202	7,728.52	81.4846	7,728.52	81.2198	7,728.52	80.5659	7,728.52	79.9452	7,728.52	78.0041	7,728.52	78.1467	7,728.52	74.3865	7,728.52	74.5882	7,728.52	70.4163	7,728.52	71.1478	7,728.52	67.5997	7,728.52	68.0256	7,728.52	64.3131	7,728.52	65.8929	7,728.52	62.9315	7,728.52	61.5734	7,728.52	62.6139	7,728.52	64.007	7,728.52	56.6612	7,728.52	59.857	7,728.52	45.3293	7,728.52	54.9499	7,728.52	57.9623	7,728.52	54.8585	7,728.52	56.147	7,728.52	54.5456	7,728.52	51.6582
8,000.98	85.4872	8,000.98	85.141	8,000.98	85.0747	8,000.98	84.6691	8,000.98	84.3944	8,000.98	83.3584	8,000.98	83.9987	8,000.98	81.8272	8,000.98	82.2511	8,000.98	81.3253	8,000.98	81.4379	8,000.98	79.7582	8,000.98	79.606	8,000.98	76.7718	8,000.98	77.5428	8,000.98	73.8946	8,000.98	73.9349	8,000.98	68.3437	8,000.98	71.0859	8,000.98	67.0818	8,000.98	67.2053	8,000.98	64.8557	8,000.98	64.4816	8,000.98	59.3132	8,000.98	60.7677	8,000.98	62.4668	8,000.98	62.9048	8,000.98	55.8176	8,000.98	58.2564	8,000.98	38.3565	8,000.98	56.7934	8,000.98	58.6508	8,000.98	51.3499	8,000.98	55.7451	8,000.98	57.2535	8,000.98	51.8661
8,282.23	85.7571	8,282.23	85.5781	8,282.23	85.4674	8,282.23	84.9724	8,282.23	84.9985	8,282.23	83.3695	8,282.23	84.276	8,282.23	81.9683	8,282.23	82.6777	8,282.23	81.1603	8,282.23	81.4722	8,282.23	79.4245	8,282.23	79.1952	8,282.23	76.5491	8,282.23	77.2306	8,282.23	73.5685	8,282.23	74.5756	8,282.23	68.0151	8,282.23	71.4951	8,282.23	66.7585	8,282.23	67.4405	8,282.23	64.1132	8,282.23	65.7498	8,282.23	60.1864	8,282.23	63.2504	8,282.23	63.1785	8,282.23	63.4163	8,282.23	54.891	8,282.23	56.8801	8,282.23	42.9453	8,282.23	59.4796	8,282.23	57.6019	8,282.23	50.1149	8,282.23	56.4319	8,282.23	56.8162	8,282.23	55.8437
8,575.2	85.6426	8,575.2	85.5065	8,575.2	85.4469	8,575.2	84.8909	8,575.2	85.0337	8,575.2	83.2582	8,575.2	84.2691	8,575.2	81.7554	8,575.2	82.6516	8,575.2	80.3629	8,575.2	81.1143	8,575.2	78.7329	8,575.2	78.5684	8,575.2	76.1204	8,575.2	77.3331	8,575.2	73.545	8,575.2	75.0159	8,575.2	69.3041	8,575.2	71.6773	8,575.2	65.1348	8,575.2	67.3199	8,575.2	63.9182	8,575.2	65.86	8,575.2	61.1773	8,575.2	64.2502	8,575.2	62.9483	8,575.2	63.492	8,575.2	53.776	8,575.2	59.0401	8,575.2	40.0646	8,575.2	57.8714	8,575.2	56.7538	8,575.2	48.2795	8,575.2	56.3223	8,575.2	57.5138	8,575.2	56.2531
8,876.95	84.9922	8,876.95	85.1802	8,876.95	85.0119	8,876.95	84.5918	8,876.95	84.8818	8,876.95	82.9596	8,876.95	83.9596	8,876.95	81.217	8,876.95	82.2079	8,876.95	79.281	8,876.95	80.2304	8,876.95	77.5437	8,876.95	77.9248	8,876.95	74.6156	8,876.95	77.1475	8,876.95	73.1698	8,876.95	74.838	8,876.95	67.7427	8,876.95	71.5321	8,876.95	64.5909	8,876.95	67.3263	8,876.95	64.1249	8,876.95	65.9171	8,876.95	59.5066	8,876.95	63.7729	8,876.95	61.5657	8,876.95	62.468	8,876.95	56.2061	8,876.95	59.7218	8,876.95	47.4994	8,876.95	58.2011	8,876.95	56.5144	8,876.95	46.2864	8,876.95	57.9163	8,876.95	57.9759	8,876.95	57.0526
9,190.43	84.3126	9,190.43	84.8757	9,190.43	84.457	9,190.43	84.2886	9,190.43	84.5885	9,190.43	82.5387	9,190.43	83.5127	9,190.43	80.4407	9,190.43	81.399	9,190.43	78.3846	9,190.43	78.8633	9,190.43	76.8448	9,190.43	77.3756	9,190.43	74.6947	9,190.43	76.6089	9,190.43	72.7321	9,190.43	74.2981	9,190.43	67.5032	9,190.43	71.1444	9,190.43	64.2998	9,190.43	66.9508	9,190.43	62.766	9,190.43	64.6276	9,190.43	60.2274	9,190.43	63.7736	9,190.43	60.3073	9,190.43	60.43	9,190.43	56.1136	9,190.43	58.8952	9,190.43	49.773	9,190.43	57.2061	9,190.43	56.4584	9,190.43	43.1157	9,190.43	57.8856	9,190.43	57.9943	9,190.43	56.9746
9,512.7	84.0967	9,512.7	84.7364	9,512.7	84.4259	9,512.7	84.1683	9,512.7	84.4723	9,512.7	82.358	9,512.7	83.249	9,512.7	79.7413	9,512.7	80.7262	9,512.7	78.0328	9,512.7	78.2742	9,512.7	76.5394	9,512.7	76.973	9,512.7	74.8067	9,512.7	75.9424	9,512.7	71.9244	9,512.7	73.3478	9,512.7	68.3242	9,512.7	70.5783	9,512.7	63.7067	9,512.7	66.2535	9,512.7	61.6459	9,512.7	62.7637	9,512.7	59.7145	9,512.7	62.6428	9,512.7	59.5256	9,512.7	59.1417	9,512.7	52.328	9,512.7	55.2586	9,512.7	48.1465	9,512.7	53.4793	9,512.7	56.8183	9,512.7	36.2305	9,512.7	56.4527	9,512.7	56.8868	9,512.7	57.5061
9,849.61	84.034	9,849.61	84.7603	9,849.61	84.4953	9,849.61	84.1981	9,849.61	84.6882	9,849.61	82.2402	9,849.61	83.2066	9,849.61	79.4553	9,849.61	80.3612	9,849.61	77.6854	9,849.61	78.1612	9,849.61	76.1588	9,849.61	76.9108	9,849.61	74.2379	9,849.61	75.6899	9,849.61	71.5927	9,849.61	73.2203	9,849.61	68.6888	9,849.61	70.2707	9,849.61	61.7357	9,849.61	65.8642	9,849.61	59.8726	9,849.61	62.8595	9,849.61	59.5195	9,849.61	62.5861	9,849.61	58.8337	9,849.61	58.1985	9,849.61	49.6391	9,849.61	56.1226	9,849.61	36.2446	9,849.61	50.0632	9,849.61	56.0988	9,849.61	44.0982	9,849.61	56.9895	9,849.61	57.1012	9,849.61	59.7943
10,195.3	84.0612	10,195.3	84.7702	10,195.3	84.7623	10,195.3	84.2503	10,195.3	84.8933	10,195.3	82.2559	10,195.3	83.1339	10,195.3	79.1726	10,195.3	80.1139	10,195.3	77.5055	10,195.3	78.5581	10,195.3	75.7368	10,195.3	76.9455	10,195.3	73.5343	10,195.3	75.5808	10,195.3	71.2572	10,195.3	72.6997	10,195.3	68.5454	10,195.3	69.6743	10,195.3	60.1944	10,195.3	65.5803	10,195.3	59.5606	10,195.3	61.9072	10,195.3	59.8899	10,195.3	61.7017	10,195.3	57.7557	10,195.3	56.8243	10,195.3	47.6696	10,195.3	56.3766	10,195.3	35.125	10,195.3	51.839	10,195.3	55.9672	10,195.3	46.9813	10,195.3	56.6634	10,195.3	56.0824	10,195.3	60.7318
10,555.7	84.1048	10,555.7	84.506	10,555.7	84.8243	10,555.7	83.8521	10,555.7	84.73	10,555.7	81.6908	10,555.7	82.6429	10,555.7	78.9688	10,555.7	79.8758	10,555.7	77.2442	10,555.7	78.8221	10,555.7	75.0801	10,555.7	76.456	10,555.7	72.7872	10,555.7	75.2402	10,555.7	70.8203	10,555.7	71.91	10,555.7	68.4537	10,555.7	69.5174	10,555.7	59.6458	10,555.7	65.5598	10,555.7	59.59	10,555.7	60.619	10,555.7	60.4114	10,555.7	61.376	10,555.7	56.3898	10,555.7	54.8375	10,555.7	42.2006	10,555.7	57.2796	10,555.7	48.1764	10,555.7	51.9635	10,555.7	54.3795	10,555.7	45.2148	10,555.7	54.7601	10,555.7	53.1843	10,555.7	60.8639
10,927.7	83.9259	10,927.7	83.7718	10,927.7	84.717	10,927.7	82.8746	10,927.7	84.0827	10,927.7	80.696	10,927.7	81.5632	10,927.7	78.4543	10,927.7	79.9047	10,927.7	75.9732	10,927.7	78.1569	10,927.7	73.7588	10,927.7	75.9041	10,927.7	70.4113	10,927.7	73.6095	10,927.7	68.8864	10,927.7	70.6141	10,927.7	65.5739	10,927.7	68.7384	10,927.7	58.1128	10,927.7	64.8434	10,927.7	58.6889	10,927.7	58.5392	10,927.7	58.3288	10,927.7	60.6911	10,927.7	55.1611	10,927.7	52.8585	10,927.7	46.0263	10,927.7	57.9428	10,927.7	50.1215	10,927.7	49.8059	10,927.7	52.8634	10,927.7	42.3089	10,927.7	54.492	10,927.7	55.0457	10,927.7	59.1919
11,314.5	84.3282	11,314.5	83.1232	11,314.5	84.5647	11,314.5	81.3433	11,314.5	82.713	11,314.5	79.548	11,314.5	80.5279	11,314.5	77.6042	11,314.5	79.2035	11,314.5	75.4153	11,314.5	77.1251	11,314.5	71.414	11,314.5	73.8631	11,314.5	68.6971	11,314.5	70.618	11,314.5	65.8096	11,314.5	69.1677	11,314.5	64.5904	11,314.5	67.9895	11,314.5	58.3236	11,314.5	64.7963	11,314.5	55.8838	11,314.5	57.564	11,314.5	56.5036	11,314.5	58.9548	11,314.5	51.3121	11,314.5	50.8001	11,314.5	40.8424	11,314.5	56.288	11,314.5	48.5978	11,314.5	50.7982	11,314.5	53.0804	11,314.5	30.3013	11,314.5	51.3884	11,314.5	54.6027	11,314.5	57.7627
11,712.9	84.9315	11,712.9	82.8159	11,712.9	84.2279	11,712.9	79.9249	11,712.9	81.2246	11,712.9	78.9592	11,712.9	79.8299	11,712.9	77.0116	11,712.9	78.7545	11,712.9	73.4446	11,712.9	75.165	11,712.9	69.4974	11,712.9	71.7083	11,712.9	68.2796	11,712.9	70.7267	11,712.9	66.2062	11,712.9	69.6282	11,712.9	64.9321	11,712.9	68.8729	11,712.9	57.163	11,712.9	64.0495	11,712.9	54.3878	11,712.9	57.1678	11,712.9	55.7994	11,712.9	58.824	11,712.9	50.3412	11,712.9	49.3338	11,712.9	43.1679	11,712.9	55.4999	11,712.9	41.3907	11,712.9	50.458	11,712.9	50.8556	11,712.9	48.2521	11,712.9	49.9001	11,712.9	53.3707	11,712.9	52.6299
12,126	85.6585	12,126	82.9684	12,126	84.4693	12,126	80.4887	12,126	81.2145	12,126	79.6758	12,126	80.7601	12,126	76.6464	12,126	78.4115	12,126	74.0431	12,126	75.0058	12,126	71.0774	12,126	73.17	12,126	71.273	12,126	72.6185	12,126	68.0732	12,126	70.3403	12,126	65.5539	12,126	68.1361	12,126	59.0102	12,126	64.3505	12,126	56.9086	12,126	57.1324	12,126	55.3693	12,126	56.717	12,126	52.7546	12,126	51.4426	12,126	45.229	12,126	54.6709	12,126	34.2832	12,126	45.7106	12,126	44.6573	12,126	42.5341	12,126	47.2305	12,126	45.5359	12,126	41.945
12,553.7	85.5826	12,553.7	83.1679	12,553.7	84.3673	12,553.7	81.4627	12,553.7	82.0489	12,553.7	79.4582	12,553.7	81.176	12,553.7	76.44	12,553.7	78.3803	12,553.7	74.6547	12,553.7	76.1816	12,553.7	73.6651	12,553.7	75.3635	12,553.7	72.0665	12,553.7	73.9126	12,553.7	68.5234	12,553.7	70.7484	12,553.7	65.7233	12,553.7	68.4392	12,553.7	55.7318	12,553.7	64.619	12,553.7	57.0714	12,553.7	56.9316	12,553.7	56.0889	12,553.7	59.8026	12,553.7	53.2743	12,553.7	47.4995	12,553.7	39.0738	12,553.7	52.1801	12,553.7	47.1032	12,553.7	42.0545	12,553.7	43.667	12,553.7	41.7876	12,553.7	40.7843	12,553.7	47.1568	12,553.7	50.2348
12,996.1	84.6994	12,996.1	82.8182	12,996.1	83.817	12,996.1	81.5536	12,996.1	82.393	12,996.1	78.8236	12,996.1	80.9447	12,996.1	76.7329	12,996.1	78.4823	12,996.1	76.0028	12,996.1	77.4732	12,996.1	74.1164	12,996.1	76.3039	12,996.1	71.0699	12,996.1	73.9667	12,996.1	68.0278	12,996.1	70.9891	12,996.1	66.0977	12,996.1	69.0123	12,996.1	55.4041	12,996.1	65.1289	12,996.1	56.9953	12,996.1	55.0422	12,996.1	54.9077	12,996.1	61.1324	12,996.1	52.6804	12,996.1	42.4856	12,996.1	39.9699	12,996.1	54.5558	12,996.1	52.9583	12,996.1	37.2426	12,996.1	51.813	12,996.1	47.5949	12,996.1	48.2211	12,996.1	54.5079	12,996.1	56.5025
13,453.1	83.5008	13,453.1	82.6816	13,453.1	83.0212	13,453.1	81.633	13,453.1	82.3636	13,453.1	79.441	13,453.1	80.4038	13,453.1	78.2397	13,453.1	79.3779	13,453.1	76.6379	13,453.1	78.4242	13,453.1	73.8062	13,453.1	76.1707	13,453.1	70.8815	13,453.1	73.4804	13,453.1	68.4594	13,453.1	71.84	13,453.1	67.6602	13,453.1	69.9174	13,453.1	57.8513	13,453.1	66.9191	13,453.1	57.1548	13,453.1	53.8121	13,453.1	55.4924	13,453.1	62.1309	13,453.1	51.6912	13,453.1	32.5351	13,453.1	41.5168	13,453.1	57.5654	13,453.1	57.1691	13,453.1	43.8374	13,453.1	55.1788	13,453.1	51.5266	13,453.1	48.7521	13,453.1	57.4115	13,453.1	58.0331
13,927.7	83.6286	13,927.7	83.3141	13,927.7	83.6312	13,927.7	82.2568	13,927.7	83.0825	13,927.7	80.7574	13,927.7	81.2592	13,927.7	79.0211	13,927.7	80.645	13,927.7	76.3966	13,927.7	78.6367	13,927.7	73.1724	13,927.7	75.3349	13,927.7	70.8674	13,927.7	73.246	13,927.7	68.25	13,927.7	71.949	13,927.7	67.9829	13,927.7	69.887	13,927.7	59.48	13,927.7	66.9125	13,927.7	55.9781	13,927.7	51.8048	13,927.7	55.4749	13,927.7	61.4947	13,927.7	50.5487	13,927.7	46.2978	13,927.7	45.5183	13,927.7	58.2512	13,927.7	58.6272	13,927.7	47.7728	13,927.7	55.8738	13,927.7	53.2034	13,927.7	48.4958	13,927.7	59.3996	13,927.7	56.8592
14,419.9	85.1765	14,419.9	84.2481	14,419.9	85.2432	14,419.9	83.0014	14,419.9	84.2705	14,419.9	81.3375	14,419.9	82.8035	14,419.9	78.6606	14,419.9	81.3562	14,419.9	74.9174	14,419.9	78.2197	14,419.9	71.8987	14,419.9	74.3101	14,419.9	69.2632	14,419.9	72.2081	14,419.9	66.18	14,419.9	70.7256	14,419.9	66.3353	14,419.9	69.0339	14,419.9	59.4817	14,419.9	66.3392	14,419.9	54.5377	14,419.9	53.9024	14,419.9	54.285	14,419.9	59.5361	14,419.9	47.4981	14,419.9	50.6976	14,419.9	45.611	14,419.9	58.4062	14,419.9	58.1172	14,419.9	50.0505	14,419.9	55.5491	14,419.9	53.5108	14,419.9	51.4243	14,419.9	59.7278	14,419.9	55.7535
14,929.7	86.0311	14,929.7	84.8801	14,929.7	85.9626	14,929.7	83.516	14,929.7	84.7199	14,929.7	81.2825	14,929.7	83.2644	14,929.7	77.6594	14,929.7	80.8919	14,929.7	72.8996	14,929.7	76.6348	14,929.7	70.0651	14,929.7	72.6851	14,929.7	66.8187	14,929.7	70.2711	14,929.7	63.1255	14,929.7	69.4217	14,929.7	65.2447	14,929.7	68.5006	14,929.7	59.8345	14,929.7	66.2689	14,929.7	50.9447	14,929.7	56.4393	14,929.7	53.6426	14,929.7	57.8164	14,929.7	42.9402	14,929.7	51.1024	14,929.7	48.8969	14,929.7	58.092	14,929.7	57.7807	14,929.7	50.8039	14,929.7	56.5196	14,929.7	53.5625	14,929.7	54.1184	14,929.7	58.5674	14,929.7	57.2599
15,454.1	86.3081	15,454.1	85.21	15,454.1	86.0576	15,454.1	83.9557	15,454.1	84.6663	15,454.1	81.074	15,454.1	83.0973	15,454.1	76.8992	15,454.1	79.7337	15,454.1	72.0118	15,454.1	74.7774	15,454.1	68.9334	15,454.1	71.4859	15,454.1	66.5771	15,454.1	69.7709	15,454.1	63.3611	15,454.1	69.3767	15,454.1	66.7739	15,454.1	69.2367	15,454.1	61.8592	15,454.1	66.7811	15,454.1	48.0244	15,454.1	58.9804	15,454.1	55.3936	15,454.1	57.9637	15,454.1	46.3649	15,454.1	53.7004	15,454.1	52.6055	15,454.1	58.2974	15,454.1	59.3751	15,454.1	53.5238	15,454.1	58.1752	15,454.1	56.0173	15,454.1	57.5252	15,454.1	59.9405	15,454.1	57.9564
15,999	86.0475	15,999	85.1416	15,999	85.6178	15,999	83.9501	15,999	84.2429	15,999	80.6528	15,999	82.608	15,999	75.9918	15,999	78.4117	15,999	70.3484	15,999	73.998	15,999	67.8787	15,999	70.6653	15,999	66.911	15,999	70.8786	15,999	64.2751	15,999	70.0032	15,999	67.8213	15,999	70.4142	15,999	64.1791	15,999	67.5874	15,999	45.1267	15,999	61.2617	15,999	56.8416	15,999	58.6939	15,999	45.5841	15,999	56.6297	15,999	53.9907	15,999	59.8254	15,999	61.2	15,999	55.4406	15,999	59.8816	15,999	58.4563	15,999	60.3297	15,999	62.2064	15,999	59.3855
16,564.5	85.6174	16,564.5	84.9492	16,564.5	85.117	16,564.5	83.1838	16,564.5	83.7996	16,564.5	79.0237	16,564.5	81.5286	16,564.5	73.0311	16,564.5	77.0308	16,564.5	66.0674	16,564.5	73.2408	16,564.5	66.8332	16,564.5	69.4147	16,564.5	66.4184	16,564.5	70.5654	16,564.5	63.1832	16,564.5	69.7366	16,564.5	67.5515	16,564.5	70.1007	16,564.5	64.3906	16,564.5	67.1493	16,564.5	47.0795	16,564.5	62.1123	16,564.5	56.1504	16,564.5	55.7274	16,564.5	43.4681	16,564.5	57.1965	16,564.5	52.6916	16,564.5	58.7936	16,564.5	60.9964	16,564.5	55.4722	16,564.5	59.9662	16,564.5	59.2961	16,564.5	62.3859	16,564.5	61.6956	16,564.5	60.6286
17,147.5	85.274	17,147.5	84.3613	17,147.5	84.7602	17,147.5	81.4688	17,147.5	83.1163	17,147.5	75.7155	17,147.5	79.8869	17,147.5	67.2616	17,147.5	74.818	17,147.5	61.9847	17,147.5	70.5662	17,147.5	64.6542	17,147.5	67.2103	17,147.5	64.9889	17,147.5	67.7458	17,147.5	61.6251	17,147.5	67.3009	17,147.5	63.9523	17,147.5	67.0558	17,147.5	60.4115	17,147.5	64.2085	17,147.5	44.7481	17,147.5	58.721	17,147.5	53.1179	17,147.5	47.8483	17,147.5	47.5396	17,147.5	52.1403	17,147.5	47.2707	17,147.5	55.7047	17,147.5	58.4178	17,147.5	51.638	17,147.5	58.2139	17,147.5	57.4972	17,147.5	62.6758	17,147.5	59.9644	17,147.5	61.2981
17,753.9	84.6864	17,753.9	83.6232	17,753.9	84.2783	17,753.9	79.4438	17,753.9	82.2239	17,753.9	71.688	17,753.9	78.1743	17,753.9	63.5039	17,753.9	71.8838	17,753.9	62.5236	17,753.9	67.2918	17,753.9	62.8565	17,753.9	65.6335	17,753.9	63.0869	17,753.9	63.6171	17,753.9	58.792	17,753.9	62.629	17,753.9	58.6901	17,753.9	61.2865	17,753.9	55.3304	17,753.9	58.5521	17,753.9	17.5562	17,753.9	48.9476	17,753.9	48.4738	17,753.9	46.5493	17,753.9	49.6352	17,753.9	39.3535	17,753.9	43.2328	17,753.9	52.1093	17,753.9	54.9815	17,753.9	36.0532	17,753.9	59.1394	17,753.9	51.7371	17,753.9	63.1198	17,753.9	61.1687	17,753.9	63.3731
18,377.9	83.4565	18,377.9	82.2177	18,377.9	83.172	18,377.9	76.7744	18,377.9	81.0237	18,377.9	68.1479	18,377.9	76.0918	18,377.9	65.3172	18,377.9	69.1602	18,377.9	64.6006	18,377.9	64.7663	18,377.9	63.2773	18,377.9	63.908	18,377.9	62.2123	18,377.9	61.0489	18,377.9	55.381	18,377.9	58.3789	18,377.9	57.1348	18,377.9	54.4232	18,377.9	53.3992	18,377.9	52.6887	18,377.9	46.4903	18,377.9	49.4934	18,377.9	52.6308	18,377.9	51.6128	18,377.9	49.8729	18,377.9	52.5054	18,377.9	49.8485	18,377.9	51.2874	18,377.9	56.1164	18,377.9	48.3203	18,377.9	61.0435	18,377.9	48.3873	18,377.9	62.8438	18,377.9	62.7562	18,377.9	63.9776
19,028.3	82.5213	19,028.3	81.2676	19,028.3	82.2385	19,028.3	75.3501	19,028.3	79.9974	19,028.3	68.4245	19,028.3	74.7977	19,028.3	67.4403	19,028.3	68.5403	19,028.3	65.2476	19,028.3	65.2289	19,028.3	61.9961	19,028.3	64.3922	19,028.3	60.5008	19,028.3	59.7929	19,028.3	52.076	19,028.3	56.8264	19,028.3	57.7459	19,028.3	50.716	19,028.3	55.2049	19,028.3	47.3731	19,028.3	51.8238	19,028.3	54.1129	19,028.3	54.5794	19,028.3	54.6111	19,028.3	50.6974	19,028.3	55.394	19,028.3	51.7772	19,028.3	53.466	19,028.3	56.7471	19,028.3	52.1344	19,028.3	61.9014	19,028.3	48.0082	19,028.3	61.8448	19,028.3	63.6037	19,028.3	63.6985
19,699.2	82.3091	19,699.2	80.8108	19,699.2	82.0253	19,699.2	75.1612	19,699.2	79.7428	19,699.2	69.6744	19,699.2	74.9292	19,699.2	68.2007	19,699.2	68.5724	19,699.2	65.4873	19,699.2	65.6512	19,699.2	60.2215	19,699.2	64.7553	19,699.2	58.6376	19,699.2	55.9123	19,699.2	48.8033	19,699.2	52.5892	19,699.2	58.3559	19,699.2	41.1945	19,699.2	56.288	19,699.2	46.757	19,699.2	55.3906	19,699.2	53.2699	19,699.2	55.1358	19,699.2	54.4379	19,699.2	50.9921	19,699.2	57.5751	19,699.2	52.3099	19,699.2	54.2591	19,699.2	58.5735	19,699.2	52.749	19,699.2	61.9544	19,699.2	50.5518	19,699.2	60.1284	19,699.2	63.5876	19,699.2	63.0447
19,998	82.0222	19,998	80.4729	19,998	81.6314	19,998	75.0266	19,998	79.3059	19,998	69.9638	19,998	74.2886	19,998	68.0114	19,998	67.5329	19,998	65.2202	19,998	64.2848	19,998	58.9874	19,998	64.0313	19,998	56.4301	19,998	48.8231	19,998	50.1487	19,998	49.6177	19,998	58.4112	19,998	37.678	19,998	56.3231	19,998	40.8622	19,998	56.5131	19,998	52.83	19,998	56.0887	19,998	55.4415	19,998	49.7486	19,998	58.198	19,998	53.0527	19,998	55.0076	19,998	59.406	19,998	51.3182	19,998	61.4394	19,998	53.0843	19,998	59.3683	19,998	63.3885	19,998	62.6536
