"SPL Horizontal"																																																																							
"On-Axis"		"10°"		"-10°"		"20°"		"-20°"		"30°"		"-30°"		"40°"		"-40°"		"50°"		"-50°"		"60°"		"-60°"		"70°"		"-70°"		"80°"		"-80°"		"90°"		"-90°"		"100°"		"-100°"		"110°"		"-110°"		"120°"		"-120°"		"130°"		"-130°"		"140°"		"-140°"		"150°"		"-150°"		"160°"		"-160°"		"170°"		"-170°"		"180°"	
"Frequency [Hz]"	"Sound Pessure Level [dB]  / [2.83V 1m] "	"Frequency [Hz]"	"Sound Pessure Level [dB]  / [2.83V 1m] "	"Frequency [Hz]"	"Sound Pessure Level [dB]  / [2.83V 1m] "	"Frequency [Hz]"	"Sound Pessure Level [dB]  / [2.83V 1m] "	"Frequency [Hz]"	"Sound Pessure Level [dB]  / [2.83V 1m] "	"Frequency [Hz]"	"Sound Pessure Level [dB]  / [2.83V 1m] "	"Frequency [Hz]"	"Sound Pessure Level [dB]  / [2.83V 1m] "	"Frequency [Hz]"	"Sound Pessure Level [dB]  / [2.83V 1m] "	"Frequency [Hz]"	"Sound Pessure Level [dB]  / [2.83V 1m] "	"Frequency [Hz]"	"Sound Pessure Level [dB]  / [2.83V 1m] "	"Frequency [Hz]"	"Sound Pessure Level [dB]  / [2.83V 1m] "	"Frequency [Hz]"	"Sound Pessure Level [dB]  / [2.83V 1m] "	"Frequency [Hz]"	"Sound Pessure Level [dB]  / [2.83V 1m] "	"Frequency [Hz]"	"Sound Pessure Level [dB]  / [2.83V 1m] "	"Frequency [Hz]"	"Sound Pessure Level [dB]  / [2.83V 1m] "	"Frequency [Hz]"	"Sound Pessure Level [dB]  / [2.83V 1m] "	"Frequency [Hz]"	"Sound Pessure Level [dB]  / [2.83V 1m] "	"Frequency [Hz]"	"Sound Pessure Level [dB]  / [2.83V 1m] "	"Frequency [Hz]"	"Sound Pessure Level [dB]  / [2.83V 1m] "	"Frequency [Hz]"	"Sound Pessure Level [dB]  / [2.83V 1m] "	"Frequency [Hz]"	"Sound Pessure Level [dB]  / [2.83V 1m] "	"Frequency [Hz]"	"Sound Pessure Level [dB]  / [2.83V 1m] "	"Frequency [Hz]"	"Sound Pessure Level [dB]  / [2.83V 1m] "	"Frequency [Hz]"	"Sound Pessure Level [dB]  / [2.83V 1m] "	"Frequency [Hz]"	"Sound Pessure Level [dB]  / [2.83V 1m] "	"Frequency [Hz]"	"Sound Pessure Level [dB]  / [2.83V 1m] "	"Frequency [Hz]"	"Sound Pessure Level [dB]  / [2.83V 1m] "	"Frequency [Hz]"	"Sound Pessure Level [dB]  / [2.83V 1m] "	"Frequency [Hz]"	"Sound Pessure Level [dB]  / [2.83V 1m] "	"Frequency [Hz]"	"Sound Pessure Level [dB]  / [2.83V 1m] "	"Frequency [Hz]"	"Sound Pessure Level [dB]  / [2.83V 1m] "	"Frequency [Hz]"	"Sound Pessure Level [dB]  / [2.83V 1m] "	"Frequency [Hz]"	"Sound Pessure Level [dB]  / [2.83V 1m] "	"Frequency [Hz]"	"Sound Pessure Level [dB]  / [2.83V 1m] "	"Frequency [Hz]"	"Sound Pessure Level [dB]  / [2.83V 1m] "	"Frequency [Hz]"	"Sound Pessure Level [dB]  / [2.83V 1m] "
20.5078	43.7571	20.5078	43.6912	20.5078	43.8007	20.5078	43.6057	20.5078	43.822	20.5078	43.5062	20.5078	43.8236	20.5078	43.4011	20.5078	43.8091	20.5078	43.3002	20.5078	43.7826	20.5078	43.2134	20.5078	43.7483	20.5078	43.149	20.5078	43.7099	20.5078	43.1128	20.5078	43.6711	20.5078	43.1069	20.5078	43.6352	20.5078	43.1302	20.5078	43.6052	20.5078	43.1783	20.5078	43.5832	20.5078	43.2442	20.5078	43.5705	20.5078	43.3196	20.5078	43.5669	20.5078	43.3956	20.5078	43.5709	20.5078	43.4645	20.5078	43.5792	20.5078	43.5202	20.5078	43.5872	20.5078	43.5594	20.5078	43.5898	20.5078	43.5819
21.9727	33.5376	21.9727	33.3056	21.9727	33.7345	21.9727	33.0337	21.9727	33.8958	21.9727	32.7117	21.9727	34.0176	21.9727	32.3272	21.9727	34.0945	21.9727	31.8695	21.9727	34.1214	21.9727	31.3356	21.9727	34.0938	21.9727	30.7352	21.9727	34.0081	21.9727	30.096	21.9727	33.8602	21.9727	29.4639	21.9727	33.646	21.9727	28.8971	21.9727	33.3618	21.9727	28.4514	21.9727	33.0051	21.9727	28.1618	21.9727	32.5765	21.9727	28.0333	21.9727	32.0812	21.9727	28.0499	21.9727	31.5304	21.9727	28.1906	21.9727	30.9429	21.9727	28.441	21.9727	30.3446	21.9727	28.7939	21.9727	29.7667	21.9727	29.2412
23.4375	42.5617	23.4375	42.474	23.4375	42.6	23.4375	42.3344	23.4375	42.5923	23.4375	42.1422	23.4375	42.5426	23.4375	41.8992	23.4375	42.4548	23.4375	41.6099	23.4375	42.3329	23.4375	41.2822	23.4375	42.1804	23.4375	40.9276	23.4375	42.001	23.4375	40.561	23.4375	41.7986	23.4375	40.2004	23.4375	41.5774	23.4375	39.8651	23.4375	41.3415	23.4375	39.5743	23.4375	41.0955	23.4375	39.3439	23.4375	40.8432	23.4375	39.1853	23.4375	40.5885	23.4375	39.1028	23.4375	40.3352	23.4375	39.0948	23.4375	40.0873	23.4375	39.1541	23.4375	39.8498	23.4375	39.2705	23.4375	39.6288	23.4375	39.4325
24.9023	38.303	24.9023	37.9797	24.9023	38.5568	24.9023	37.5916	24.9023	38.7407	24.9023	37.1489	24.9023	38.8569	24.9023	36.6682	24.9023	38.9091	24.9023	36.173	24.9023	38.9017	24.9023	35.6915	24.9023	38.8389	24.9023	35.2534	24.9023	38.7245	24.9023	34.8843	24.9023	38.5615	24.9023	34.6001	24.9023	38.3523	24.9023	34.4047	24.9023	38.099	24.9023	34.2919	24.9023	37.8042	24.9023	34.2502	24.9023	37.4718	24.9023	34.2695	24.9023	37.1075	24.9023	34.3443	24.9023	36.7203	24.9023	34.474	24.9023	36.3216	24.9023	34.6606	24.9023	35.9255	24.9023	34.9047	24.9023	35.5477	24.9023	35.2032
26.3672	42.9149	26.3672	43.0382	26.3672	42.8072	26.3672	43.1708	26.3672	42.7204	26.3672	43.3066	26.3672	42.6582	26.3672	43.44	26.3672	42.6222	26.3672	43.5662	26.3672	42.6119	26.3672	43.6815	26.3672	42.6248	26.3672	43.7826	26.3672	42.6571	26.3672	43.867	26.3672	42.7047	26.3672	43.932	26.3672	42.7638	26.3672	43.9756	26.3672	42.8312	26.3672	43.9963	26.3672	42.9049	26.3672	43.9932	26.3672	42.984	26.3672	43.9665	26.3672	43.0683	26.3672	43.9176	26.3672	43.1583	26.3672	43.8491	26.3672	43.254	26.3672	43.7646	26.3672	43.355	26.3672	43.6686	26.3672	43.4597	26.3672	43.5654
27.832	44.963	27.832	44.9841	27.832	44.9255	27.832	44.9879	27.832	44.8735	27.832	44.974	27.832	44.8094	27.832	44.9435	27.832	44.7358	27.832	44.8979	27.832	44.6554	27.832	44.8397	27.832	44.5703	27.832	44.7713	27.832	44.4828	27.832	44.6956	27.832	44.3947	27.832	44.6148	27.832	44.3078	27.832	44.5311	27.832	44.2239	27.832	44.4459	27.832	44.1451	27.832	44.3605	27.832	44.0738	27.832	44.2764	27.832	44.0129	27.832	44.1953	27.832	43.9653	27.832	44.1192	27.832	43.9338	27.832	44.0512	27.832	43.9207	27.832	43.9944	27.832	43.9269	27.832	43.952
29.2969	45.9224	29.2969	46.0313	29.2969	45.8125	29.2969	46.1353	29.2969	45.7051	29.2969	46.23	29.2969	45.6034	29.2969	46.3113	29.2969	45.5101	29.2969	46.3756	29.2969	45.4276	29.2969	46.4203	29.2969	45.358	29.2969	46.4441	29.2969	45.3031	29.2969	46.447	29.2969	45.2644	29.2969	46.4302	29.2969	45.243	29.2969	46.3958	29.2969	45.2398	29.2969	46.3463	29.2969	45.2551	29.2969	46.2843	29.2969	45.2887	29.2969	46.2125	29.2969	45.3397	29.2969	46.1328	29.2969	45.4061	29.2969	46.047	29.2969	45.4852	29.2969	45.9562	29.2969	45.5736	29.2969	45.8617	29.2969	45.668	29.2969	45.7649
30.7617	50.1952	30.7617	50.2816	30.7617	50.0948	30.7617	50.3509	30.7617	49.9837	30.7617	50.4004	30.7617	49.8647	30.7617	50.4274	30.7617	49.741	30.7617	50.4301	30.7617	49.6156	30.7617	50.4074	30.7617	49.4914	30.7617	50.3593	30.7617	49.3714	30.7617	50.287	30.7617	49.2585	30.7617	50.1926	30.7617	49.1555	30.7617	50.0794	30.7617	49.0652	30.7617	49.9516	30.7617	48.9902	30.7617	49.8138	30.7617	48.9331	30.7617	49.6711	30.7617	48.8961	30.7617	49.5286	30.7617	48.881	30.7617	49.3912	30.7617	48.8891	30.7617	49.2635	30.7617	48.9208	30.7617	49.1495	30.7617	48.9757	30.7617	49.0526
32.2266	52.4808	32.2266	52.5564	32.2266	52.4001	32.2266	52.6242	32.2266	52.3169	32.2266	52.6814	32.2266	52.2336	32.2266	52.7256	32.2266	52.1525	32.2266	52.7546	32.2266	52.0754	32.2266	52.7665	32.2266	52.0042	32.2266	52.7601	32.2266	51.9405	32.2266	52.7352	32.2266	51.8856	32.2266	52.6924	32.2266	51.8409	32.2266	52.6331	32.2266	51.8072	32.2266	52.5601	32.2266	51.7853	32.2266	52.4767	32.2266	51.7756	32.2266	52.3867	32.2266	51.7782	32.2266	52.2943	32.2266	51.7929	32.2266	52.2032	32.2266	51.8195	32.2266	52.1168	32.2266	51.8577	32.2266	52.0375	32.2266	51.9071	32.2266	51.9673
33.6914	54.6672	33.6914	54.7794	33.6914	54.5553	33.6914	54.8881	33.6914	54.4469	33.6914	54.9893	33.6914	54.3446	33.6914	55.0787	33.6914	54.2506	33.6914	55.1521	33.6914	54.1666	33.6914	55.2059	33.6914	54.0938	33.6914	55.2374	33.6914	54.0334	33.6914	55.2446	33.6914	53.9862	33.6914	55.2269	33.6914	53.9529	33.6914	55.1851	33.6914	53.9343	33.6914	55.121	33.6914	53.931	33.6914	55.0375	33.6914	53.9437	33.6914	54.9382	33.6914	53.9728	33.6914	54.8273	33.6914	54.0185	33.6914	54.7092	33.6914	54.0808	33.6914	54.5885	33.6914	54.1588	33.6914	54.4693	33.6914	54.2512	33.6914	54.3557
35.1562	57.8028	35.1562	57.9079	35.1562	57.6977	35.1562	58.0092	35.1562	57.5959	35.1562	58.103	35.1562	57.5006	35.1562	58.1855	35.1562	57.4143	35.1562	58.2537	35.1562	57.3389	35.1562	58.3048	35.1562	57.2759	35.1562	58.3369	35.1562	57.2261	35.1562	58.3487	35.1562	57.1902	35.1562	58.3399	35.1562	57.1685	35.1562	58.3107	35.1562	57.1611	35.1562	58.2624	35.1562	57.1683	35.1562	58.1968	35.1562	57.1901	35.1562	58.1164	35.1562	57.2266	35.1562	58.0243	35.1562	57.2777	35.1562	57.9237	35.1562	57.3428	35.1562	57.8184	35.1562	57.4208	35.1562	57.712	35.1562	57.51	35.1562	57.6081
36.6211	59.7962	36.6211	59.8932	36.6211	59.6947	36.6211	59.9822	36.6211	59.5924	36.6211	60.0599	36.6211	59.4929	36.6211	60.1236	36.6211	59.3995	36.6211	60.1711	36.6211	59.3149	36.6211	60.2008	36.6211	59.2416	36.6211	60.2121	36.6211	59.1811	36.6211	60.2046	36.6211	59.1347	36.6211	60.179	36.6211	59.103	36.6211	60.1364	36.6211	59.0862	36.6211	60.0787	36.6211	59.0845	36.6211	60.0079	36.6211	59.0978	36.6211	59.9265	36.6211	59.1258	36.6211	59.8372	36.6211	59.168	36.6211	59.7428	36.6211	59.2236	36.6211	59.646	36.6211	59.2915	36.6211	59.5497	36.6211	59.3699	36.6211	59.4567
38.0859	62.1615	38.0859	62.2529	38.0859	62.0652	38.0859	62.3362	38.0859	61.9672	38.0859	62.4085	38.0859	61.8707	38.0859	62.4669	38.0859	61.7785	38.0859	62.5094	38.0859	61.6932	38.0859	62.5342	38.0859	61.6171	38.0859	62.5404	38.0859	61.5519	38.0859	62.5278	38.0859	61.4992	38.0859	62.4968	38.0859	61.46	38.0859	62.4487	38.0859	61.4351	38.0859	62.3853	38.0859	61.425	38.0859	62.3091	38.0859	61.4298	38.0859	62.2228	38.0859	61.4495	38.0859	62.1294	38.0859	61.4839	38.0859	62.0323	38.0859	61.5322	38.0859	61.9345	38.0859	61.5934	38.0859	61.8391	38.0859	61.6662	38.0859	61.7488
39.5508	64.3649	39.5508	64.4405	39.5508	64.2822	39.5508	64.5063	39.5508	64.1951	39.5508	64.5597	39.5508	64.1067	39.5508	64.5987	39.5508	64.0194	39.5508	64.6215	39.5508	63.9358	39.5508	64.6272	39.5508	63.8581	39.5508	64.6153	39.5508	63.7882	39.5508	64.5862	39.5508	63.7276	39.5508	64.5409	39.5508	63.6777	39.5508	64.481	39.5508	63.6395	39.5508	64.409	39.5508	63.6138	39.5508	64.3274	39.5508	63.6013	39.5508	64.2393	39.5508	63.6024	39.5508	64.1478	39.5508	63.6173	39.5508	64.0561	39.5508	63.6459	39.5508	63.9672	39.5508	63.6879	39.5508	63.8838	39.5508	63.7423	39.5508	63.8082
41.0156	66.2992	41.0156	66.3748	41.0156	66.217	41.0156	66.4407	41.0156	66.1309	41.0156	66.4945	41.0156	66.0439	41.0156	66.534	41.0156	65.9589	41.0156	66.5577	41.0156	65.8783	41.0156	66.5646	41.0156	65.8043	41.0156	66.5548	41.0156	65.7388	41.0156	66.5287	41.0156	65.6834	41.0156	66.4876	41.0156	65.6392	41.0156	66.4334	41.0156	65.6074	41.0156	66.3683	41.0156	65.5887	41.0156	66.295	41.0156	65.5835	41.0156	66.2159	41.0156	65.592	41.0156	66.1337	41.0156	65.614	41.0156	66.0508	41.0156	65.6487	41.0156	65.9692	41.0156	65.6953	41.0156	65.891	41.0156	65.7523	41.0156	65.8181
42.4805	68.425	42.4805	68.5163	42.4805	68.3228	42.4805	68.5936	42.4805	68.2131	42.4805	68.6541	42.4805	68.0995	42.4805	68.6957	42.4805	67.9854	42.4805	68.7166	42.4805	67.8741	42.4805	68.7157	42.4805	67.7688	42.4805	68.6927	42.4805	67.6722	42.4805	68.6481	42.4805	67.5865	42.4805	68.583	42.4805	67.5138	42.4805	68.4995	42.4805	67.4554	42.4805	68.4003	42.4805	67.4126	42.4805	68.2891	42.4805	67.3863	42.4805	68.1697	42.4805	67.3773	42.4805	68.0467	42.4805	67.3864	42.4805	67.9245	42.4805	67.4138	42.4805	67.8074	42.4805	67.4595	42.4805	67.6994	42.4805	67.5233	42.4805	67.6038
43.9453	70.1834	43.9453	70.2508	43.9453	70.1055	43.9453	70.3059	43.9453	70.0196	43.9453	70.3468	43.9453	69.9282	43.9453	70.372	43.9453	69.8338	43.9453	70.3806	43.9453	69.7391	43.9453	70.3718	43.9453	69.6468	43.9453	70.3455	43.9453	69.5594	43.9453	70.3019	43.9453	69.4792	43.9453	70.2421	43.9453	69.4083	43.9453	70.1675	43.9453	69.3487	43.9453	70.0804	43.9453	69.302	43.9453	69.9837	43.9453	69.2694	43.9453	69.8807	43.9453	69.252	43.9453	69.7753	43.9453	69.2504	43.9453	69.6716	43.9453	69.2653	43.9453	69.5734	43.9453	69.2966	43.9453	69.4844	43.9453	69.3442	43.9453	69.4072
45.4102	71.702	45.4102	71.7507	45.4102	71.6473	45.4102	71.7923	45.4102	71.5879	45.4102	71.8255	45.4102	71.5248	45.4102	71.8491	45.4102	71.4596	45.4102	71.8621	45.4102	71.3936	45.4102	71.8635	45.4102	71.3286	45.4102	71.8525	45.4102	71.2664	45.4102	71.829	45.4102	71.2092	45.4102	71.7931	45.4102	71.1588	45.4102	71.7456	45.4102	71.1171	45.4102	71.6877	45.4102	71.0857	45.4102	71.6214	45.4102	71.0656	45.4102	71.549	45.4102	71.0575	45.4102	71.4734	45.4102	71.0617	45.4102	71.3975	45.4102	71.0781	45.4102	71.3243	45.4102	71.1065	45.4102	71.2567	45.4102	71.1463	45.4102	71.1968
46.875	72.9573	46.875	72.9891	46.875	72.9263	46.875	73.0198	46.875	72.8979	46.875	73.0477	46.875	72.8738	46.875	73.0714	46.875	72.8553	46.875	73.0901	46.875	72.8434	46.875	73.1031	46.875	72.839	46.875	73.1108	46.875	72.842	46.875	73.1139	46.875	72.8524	46.875	73.1133	46.875	72.8694	46.875	73.1106	46.875	72.892	46.875	73.1068	46.875	72.9187	46.875	73.103	46.875	72.9476	46.875	73.0997	46.875	72.9769	46.875	73.0969	46.875	73.0047	46.875	73.0943	46.875	73.0295	46.875	73.091	46.875	73.0502	46.875	73.086	46.875	73.0664	46.875	73.0781
48.3398	74.5429	48.3398	74.5882	48.3398	74.4916	48.3398	74.6252	48.3398	74.4368	48.3398	74.652	48.3398	74.3808	48.3398	74.6669	48.3398	74.326	48.3398	74.6691	48.3398	74.2744	48.3398	74.6584	48.3398	74.2277	48.3398	74.6354	48.3398	74.1874	48.3398	74.6014	48.3398	74.1544	48.3398	74.5587	48.3398	74.1292	48.3398	74.5098	48.3398	74.1118	48.3398	74.4577	48.3398	74.1018	48.3398	74.4052	48.3398	74.0984	48.3398	74.3548	48.3398	74.1008	48.3398	74.3083	48.3398	74.1081	48.3398	74.2669	48.3398	74.1193	48.3398	74.2309	48.3398	74.1341	48.3398	74.2001	48.3398	74.1523	48.3398	74.1741
51.2695	77.086	51.2695	77.1461	51.2695	77.0177	51.2695	77.1955	51.2695	76.9438	51.2695	77.2322	51.2695	76.867	51.2695	77.2542	51.2695	76.7899	51.2695	77.2604	51.2695	76.7148	51.2695	77.2502	51.2695	76.644	51.2695	77.2236	51.2695	76.579	51.2695	77.1817	51.2695	76.5214	51.2695	77.126	51.2695	76.4722	51.2695	77.059	51.2695	76.4322	51.2695	76.9836	51.2695	76.4019	51.2695	76.9032	51.2695	76.3816	51.2695	76.8211	51.2695	76.3716	51.2695	76.7405	51.2695	76.3721	51.2695	76.6641	51.2695	76.3831	51.2695	76.5941	51.2695	76.4048	51.2695	76.5323	51.2695	76.437	51.2695	76.4797
52.7344	78.38	52.7344	78.4336	52.7344	78.3171	52.7344	78.4759	52.7344	78.2471	52.7344	78.5052	52.7344	78.1721	52.7344	78.52	52.7344	78.0944	52.7344	78.5194	52.7344	78.0162	52.7344	78.5029	52.7344	77.9396	52.7344	78.4706	52.7344	77.8665	52.7344	78.4234	52.7344	77.7987	52.7344	78.3629	52.7344	77.738	52.7344	78.2913	52.7344	77.6856	52.7344	78.2112	52.7344	77.6429	52.7344	78.1259	52.7344	77.6109	52.7344	78.0388	52.7344	77.5904	52.7344	77.953	52.7344	77.5822	52.7344	77.8716	52.7344	77.5867	52.7344	77.7972	52.7344	77.6042	52.7344	77.7319	52.7344	77.6345	52.7344	77.6773
54.1992	79.5016	54.1992	79.5482	54.1992	79.4473	54.1992	79.5852	54.1992	79.3871	54.1992	79.611	54.1992	79.3229	54.1992	79.6243	54.1992	79.2569	54.1992	79.624	54.1992	79.1908	54.1992	79.6096	54.1992	79.1264	54.1992	79.5814	54.1992	79.0656	54.1992	79.54	54.1992	79.0097	54.1992	79.4869	54.1992	78.96	54.1992	79.4241	54.1992	78.9177	54.1992	79.3543	54.1992	78.8835	54.1992	79.2805	54.1992	78.858	54.1992	79.2058	54.1992	78.8418	54.1992	79.1331	54.1992	78.8352	54.1992	79.0652	54.1992	78.8384	54.1992	79.0042	54.1992	78.8516	54.1992	78.9515	54.1992	78.8749	54.1992	78.9082
55.6641	80.6462	55.6641	80.6889	55.6641	80.5962	55.6641	80.7224	55.6641	80.5406	55.6641	80.7451	55.6641	80.4814	55.6641	80.7558	55.6641	80.4205	55.6641	80.7536	55.6641	80.3595	55.6641	80.738	55.6641	80.3001	55.6641	80.7094	55.6641	80.244	55.6641	80.6685	55.6641	80.1923	55.6641	80.6168	55.6641	80.1461	55.6641	80.5566	55.6641	80.1066	55.6641	80.4903	55.6641	80.0743	55.6641	80.421	55.6641	80.0498	55.6641	80.3515	55.6641	80.0335	55.6641	80.2848	55.6641	80.0258	55.6641	80.2231	55.6641	80.0268	55.6641	80.1684	55.6641	80.0368	55.6641	80.1219	55.6641	80.0559	55.6641	80.0843
58.5938	82.7772	58.5938	82.8278	58.5938	82.7196	58.5938	82.8693	58.5938	82.6574	58.5938	82.8997	58.5938	82.593	58.5938	82.9177	58.5938	82.5286	58.5938	82.9222	58.5938	82.4666	58.5938	82.9129	58.5938	82.4086	58.5938	82.8903	58.5938	82.3564	58.5938	82.8553	58.5938	82.311	58.5938	82.8095	58.5938	82.2733	58.5938	82.7552	58.5938	82.2438	58.5938	82.6948	58.5938	82.2228	58.5938	82.631	58.5938	82.2103	58.5938	82.5665	58.5938	82.206	58.5938	82.5036	58.5938	82.2098	58.5938	82.4444	58.5938	82.2214	58.5938	82.3903	58.5938	82.2406	58.5938	82.3423	58.5938	82.2673	58.5938	82.3012
60.0586	83.7615	60.0586	83.8106	60.0586	83.704	60.0586	83.8492	60.0586	83.6403	60.0586	83.8756	60.0586	83.5728	60.0586	83.8886	60.0586	83.504	60.0586	83.8876	60.0586	83.4363	60.0586	83.8724	60.0586	83.3718	60.0586	83.8437	60.0586	83.3125	60.0586	83.8028	60.0586	83.2598	60.0586	83.7514	60.0586	83.2151	60.0586	83.6919	60.0586	83.1791	60.0586	83.627	60.0586	83.1524	60.0586	83.5592	60.0586	83.1349	60.0586	83.4914	60.0586	83.1268	60.0586	83.4258	60.0586	83.1278	60.0586	83.3643	60.0586	83.1376	60.0586	83.3084	60.0586	83.156	60.0586	83.2591	60.0586	83.1825	60.0586	83.217
62.9883	85.3921	62.9883	85.4347	62.9883	85.3399	62.9883	85.4662	62.9883	85.2804	62.9883	85.4849	62.9883	85.2159	62.9883	85.4901	62.9883	85.1487	62.9883	85.4813	62.9883	85.0812	62.9883	85.4587	62.9883	85.0156	62.9883	85.4233	62.9883	84.954	62.9883	85.3766	62.9883	84.898	62.9883	85.3205	62.9883	84.8492	62.9883	85.2576	62.9883	84.8085	62.9883	85.1906	62.9883	84.7764	62.9883	85.1222	62.9883	84.7535	62.9883	85.0551	62.9883	84.7396	62.9883	84.9914	62.9883	84.7346	62.9883	84.933	62.9883	84.7384	62.9883	84.8812	62.9883	84.7507	62.9883	84.8367	62.9883	84.7712	62.9883	84.7999
64.4531	86.0669	64.4531	86.108	64.4531	86.0161	64.4531	86.1376	64.4531	85.9576	64.4531	86.1545	64.4531	85.8938	64.4531	86.1577	64.4531	85.827	64.4531	86.147	64.4531	85.7596	64.4531	86.1228	64.4531	85.694	64.4531	86.0859	64.4531	85.6321	64.4531	86.0381	64.4531	85.5759	64.4531	85.9814	64.4531	85.5266	64.4531	85.9184	64.4531	85.4854	64.4531	85.8516	64.4531	85.4529	64.4531	85.784	64.4531	85.4294	64.4531	85.718	64.4531	85.4149	64.4531	85.6558	64.4531	85.4094	64.4531	85.599	64.4531	85.4124	64.4531	85.5488	64.4531	85.4238	64.4531	85.5059	64.4531	85.4432	64.4531	85.4706
67.3828	87.0498	67.3828	87.0874	67.3828	87.0018	67.3828	87.1131	67.3828	86.9456	67.3828	87.1257	67.3828	86.8833	67.3828	87.1246	67.3828	86.8174	67.3828	87.1096	67.3828	86.7503	67.3828	87.0813	67.3828	86.6843	67.3828	87.041	67.3828	86.6217	67.3828	86.9904	67.3828	86.5644	67.3828	86.9318	67.3828	86.5138	67.3828	86.8678	67.3828	86.4711	67.3828	86.8013	67.3828	86.4371	67.3828	86.7348	67.3828	86.412	67.3828	86.6709	67.3828	86.3959	67.3828	86.6114	67.3828	86.3886	67.3828	86.5579	67.3828	86.3896	67.3828	86.5111	67.3828	86.3986	67.3828	86.4717	67.3828	86.4154	67.3828	86.4398
68.8477	87.3776	68.8477	87.4139	68.8477	87.3307	68.8477	87.438	68.8477	87.2753	68.8477	87.4489	68.8477	87.2135	68.8477	87.4458	68.8477	87.1479	68.8477	87.4288	68.8477	87.0809	68.8477	87.3986	68.8477	87.0149	68.8477	87.3564	68.8477	86.9521	68.8477	87.3041	68.8477	86.8945	68.8477	87.2442	68.8477	86.8437	68.8477	87.1792	68.8477	86.8006	68.8477	87.1121	68.8477	86.7661	68.8477	87.0456	68.8477	86.7403	68.8477	86.9821	68.8477	86.7233	68.8477	86.9236	68.8477	86.7148	68.8477	86.8714	68.8477	86.7144	68.8477	86.8264	68.8477	86.7218	68.8477	86.7889	68.8477	86.7367	68.8477	86.759
71.7773	87.881	71.7773	87.9157	71.7773	87.8354	71.7773	87.9377	71.7773	87.7806	71.7773	87.9463	71.7773	87.7189	71.7773	87.9408	71.7773	87.6529	71.7773	87.9215	71.7773	87.5849	71.7773	87.8892	71.7773	87.5177	71.7773	87.8454	71.7773	87.4534	71.7773	87.7919	71.7773	87.3943	71.7773	87.7314	71.7773	87.3419	71.7773	87.6664	71.7773	87.2976	71.7773	87.5998	71.7773	87.2622	71.7773	87.5343	71.7773	87.2359	71.7773	87.4722	71.7773	87.2187	71.7773	87.4151	71.7773	87.2103	71.7773	87.3644	71.7773	87.2101	71.7773	87.3206	71.7773	87.2177	71.7773	87.2841	71.7773	87.2326	71.7773	87.2548
74.707	88.1852	74.707	88.2185	74.707	88.1402	74.707	88.2389	74.707	88.0855	74.707	88.2453	74.707	88.0233	74.707	88.2376	74.707	87.9561	74.707	88.2158	74.707	87.8863	74.707	88.1811	74.707	87.8168	74.707	88.1349	74.707	87.7499	74.707	88.0792	74.707	87.6878	74.707	88.0166	74.707	87.6324	74.707	87.9498	74.707	87.5852	74.707	87.8817	74.707	87.547	74.707	87.8147	74.707	87.5183	74.707	87.7514	74.707	87.499	74.707	87.6933	74.707	87.4889	74.707	87.6418	74.707	87.4875	74.707	87.5974	74.707	87.4943	74.707	87.5604	74.707	87.5089	74.707	87.5309
77.6367	88.2937	77.6367	88.3195	77.6367	88.2567	77.6367	88.3328	77.6367	88.2101	77.6367	88.333	77.6367	88.1559	77.6367	88.3198	77.6367	88.0964	77.6367	88.294	77.6367	88.0341	77.6367	88.2565	77.6367	87.9714	77.6367	88.2091	77.6367	87.9107	77.6367	88.1541	77.6367	87.854	77.6367	88.0941	77.6367	87.8031	77.6367	88.0318	77.6367	87.7594	77.6367	87.97	77.6367	87.7237	77.6367	87.9112	77.6367	87.6963	77.6367	87.8571	77.6367	87.677	77.6367	87.8093	77.6367	87.6656	77.6367	87.7683	77.6367	87.6613	77.6367	87.7344	77.6367	87.6636	77.6367	87.7073	77.6367	87.6721	77.6367	87.6867
79.1016	88.3615	79.1016	88.388	79.1016	88.3237	79.1016	88.4018	79.1016	88.2763	79.1016	88.4023	79.1016	88.2214	79.1016	88.3893	79.1016	88.1613	79.1016	88.3634	79.1016	88.0987	79.1016	88.3258	79.1016	88.036	79.1016	88.2782	79.1016	87.9756	79.1016	88.223	79.1016	87.9196	79.1016	88.1629	79.1016	87.8698	79.1016	88.1007	79.1016	87.8274	79.1016	88.0392	79.1016	87.793	79.1016	87.9809	79.1016	87.7671	79.1016	87.9276	79.1016	87.7492	79.1016	87.8807	79.1016	87.7389	79.1016	87.8407	79.1016	87.7355	79.1016	87.8078	79.1016	87.7383	79.1016	87.7815	79.1016	87.747	79.1016	87.7613
82.0312	88.473	82.0312	88.501	82.0312	88.4331	82.0312	88.5159	82.0312	88.383	82.0312	88.5168	82.0312	88.3251	82.0312	88.5038	82.0312	88.2618	82.0312	88.4776	82.0312	88.196	82.0312	88.4394	82.0312	88.1303	82.0312	88.3913	82.0312	88.0673	82.0312	88.3357	82.0312	88.0094	82.0312	88.2753	82.0312	87.9583	82.0312	88.2129	82.0312	87.9155	82.0312	88.1514	82.0312	87.8816	82.0312	88.093	82.0312	87.8568	82.0312	88.0396	82.0312	87.8408	82.0312	87.9922	82.0312	87.8328	82.0312	87.9513	82.0312	87.8321	82.0312	87.9169	82.0312	87.8378	82.0312	87.8887	82.0312	87.8493	82.0312	87.8663
84.9609	88.5632	84.9609	88.5942	84.9609	88.5198	84.9609	88.6116	84.9609	88.466	84.9609	88.6146	84.9609	88.4043	84.9609	88.6032	84.9609	88.3372	84.9609	88.5781	84.9609	88.268	84.9609	88.5408	84.9609	88.1994	84.9609	88.4933	84.9609	88.1344	84.9609	88.4381	84.9609	88.0755	84.9609	88.3779	84.9609	88.0245	84.9609	88.3157	84.9609	87.9829	84.9609	88.2542	84.9609	87.9512	84.9609	88.1957	84.9609	87.9295	84.9609	88.1418	84.9609	87.9172	84.9609	88.0938	84.9609	87.9133	84.9609	88.0519	84.9609	87.9166	84.9609	88.0161	84.9609	87.9262	84.9609	87.986	84.9609	87.9412	84.9609	87.9611
87.8906	88.8022	87.8906	88.8327	87.8906	88.7585	87.8906	88.8489	87.8906	88.7034	87.8906	88.8502	87.8906	88.6392	87.8906	88.8369	87.8906	88.5685	87.8906	88.8099	87.8906	88.4943	87.8906	88.7706	87.8906	88.4199	87.8906	88.7213	87.8906	88.3483	87.8906	88.6644	87.8906	88.2823	87.8906	88.6027	87.8906	88.2244	87.8906	88.5389	87.8906	88.1765	87.8906	88.4757	87.8906	88.1395	87.8906	88.415	87.8906	88.1139	87.8906	88.3585	87.8906	88.0993	87.8906	88.307	87.8906	88.0948	87.8906	88.261	87.8906	88.0994	87.8906	88.2205	87.8906	88.1117	87.8906	88.1852	87.8906	88.1306	87.8906	88.1553
90.8203	89.0197	90.8203	89.0467	90.8203	88.9796	90.8203	89.0596	90.8203	88.9281	90.8203	89.0578	90.8203	88.8675	90.8203	89.0419	90.8203	88.8006	90.8203	89.0128	90.8203	88.7303	90.8203	88.9724	90.8203	88.6599	90.8203	88.923	90.8203	88.5922	90.8203	88.8674	90.8203	88.5302	90.8203	88.8083	90.8203	88.4761	90.8203	88.7487	90.8203	88.4317	90.8203	88.6909	90.8203	88.3979	90.8203	88.6367	90.8203	88.3749	90.8203	88.5874	90.8203	88.3623	90.8203	88.5433	90.8203	88.3591	90.8203	88.5044	90.8203	88.3641	90.8203	88.4703	90.8203	88.3758	90.8203	88.4405	90.8203	88.393	90.8203	88.4147
95.2148	89.4115	95.2148	89.4348	95.2148	89.3738	95.2148	89.4426	95.2148	89.3233	95.2148	89.4349	95.2148	89.2623	95.2148	89.412	95.2148	89.1937	95.2148	89.3755	95.2148	89.1204	95.2148	89.3275	95.2148	89.0459	95.2148	89.2705	95.2148	88.9733	95.2148	89.2077	95.2148	88.9056	95.2148	89.1423	95.2148	88.8455	95.2148	89.0774	95.2148	88.7948	95.2148	89.0155	95.2148	88.7547	95.2148	88.9586	95.2148	88.7257	95.2148	88.9079	95.2148	88.7076	95.2148	88.8636	95.2148	88.6995	95.2148	88.8254	95.2148	88.7002	95.2148	88.7927	95.2148	88.7082	95.2148	88.7648	95.2148	88.7223	95.2148	88.7413
98.1445	89.5976	98.1445	89.6185	98.1445	89.5624	98.1445	89.6243	98.1445	89.5148	98.1445	89.6146	98.1445	89.4569	98.1445	89.5902	98.1445	89.3915	98.1445	89.5523	98.1445	89.3216	98.1445	89.5031	98.1445	89.2505	98.1445	89.445	98.1445	89.1813	98.1445	89.3814	98.1445	89.1169	98.1445	89.3153	98.1445	89.0596	98.1445	89.25	98.1445	89.0111	98.1445	89.1881	98.1445	88.9723	98.1445	89.1318	98.1445	88.9435	98.1445	89.0823	98.1445	88.9242	98.1445	89.0401	98.1445	88.9136	98.1445	89.0049	98.1445	88.9104	98.1445	88.9762	98.1445	88.9135	98.1445	88.9532	98.1445	88.922	98.1445	88.9353
101.074	89.5151	101.074	89.5365	101.074	89.4794	101.074	89.5426	101.074	89.4312	101.074	89.5334	101.074	89.3727	101.074	89.5096	101.074	89.3069	101.074	89.4727	101.074	89.237	101.074	89.4249	101.074	89.1663	101.074	89.3691	101.074	89.0983	101.074	89.3086	101.074	89.0359	101.074	89.2466	101.074	88.9816	101.074	89.1863	101.074	88.937	101.074	89.1303	101.074	88.9033	101.074	89.0802	101.074	88.8802	101.074	89.0368	101.074	88.8673	101.074	89.0002	101.074	88.8632	101.074	88.9697	101.074	88.8662	101.074	88.944	101.074	88.8748	101.074	88.9222	101.074	88.8876	101.074	88.9035
105.469	89.0864	105.469	89.1053	105.469	89.0518	105.469	89.1076	105.469	89.0033	105.469	89.0932	105.469	88.9435	105.469	89.0627	105.469	88.8755	105.469	89.0177	105.469	88.8026	105.469	88.9609	105.469	88.7285	105.469	88.8953	105.469	88.6567	105.469	88.8246	105.469	88.5904	105.469	88.7528	105.469	88.5321	105.469	88.6836	105.469	88.4835	105.469	88.6201	105.469	88.4454	105.469	88.5647	105.469	88.4177	105.469	88.5185	105.469	88.3995	105.469	88.4816	105.469	88.3896	105.469	88.4531	105.469	88.3862	105.469	88.4314	105.469	88.388	105.469	88.415	105.469	88.3937	105.469	88.4027
108.398	88.7722	108.398	88.7944	108.398	88.7343	108.398	88.7999	108.398	88.6824	108.398	88.7888	108.398	88.619	108.398	88.7618	108.398	88.5473	108.398	88.7209	108.398	88.4712	108.398	88.6684	108.398	88.3943	108.398	88.6077	108.398	88.3208	108.398	88.5423	108.398	88.254	108.398	88.4759	108.398	88.197	108.398	88.4119	108.398	88.1515	108.398	88.3532	108.398	88.1185	108.398	88.3017	108.398	88.0976	108.398	88.2582	108.398	88.0877	108.398	88.2225	108.398	88.0868	108.398	88.1937	108.398	88.0927	108.398	88.1701	108.398	88.1033	108.398	88.1502	108.398	88.117	108.398	88.1327
112.793	88.3591	112.793	88.3789	112.793	88.3224	112.793	88.3811	112.793	88.2705	112.793	88.3658	112.793	88.2059	112.793	88.3344	112.793	88.1318	112.793	88.2887	112.793	88.0519	112.793	88.232	112.793	87.9703	112.793	88.1676	112.793	87.8912	112.793	88.0996	112.793	87.8184	112.793	88.0318	112.793	87.7552	112.793	87.9678	112.793	87.7041	112.793	87.9101	112.793	87.6663	112.793	87.8603	112.793	87.6422	112.793	87.8187	112.793	87.6307	112.793	87.7844	112.793	87.6301	112.793	87.756	112.793	87.6379	112.793	87.7316	112.793	87.6518	112.793	87.7095	112.793	87.6693	112.793	87.6888
117.188	88.0071	117.188	88.0246	117.188	87.9722	117.188	88.024	117.188	87.9219	117.188	88.0054	117.188	87.8588	117.188	87.9699	117.188	87.7863	117.188	87.9196	117.188	87.7083	117.188	87.8578	117.188	87.6288	117.188	87.7883	117.188	87.552	117.188	87.7153	117.188	87.4816	117.188	87.6435	117.188	87.4207	117.188	87.5766	117.188	87.3714	117.188	87.5179	117.188	87.3349	117.188	87.469	117.188	87.3109	117.188	87.4302	117.188	87.2984	117.188	87.4007	117.188	87.2954	117.188	87.3783	117.188	87.2995	117.188	87.3608	117.188	87.3084	117.188	87.3461	117.188	87.3199	117.188	87.3326
120.117	87.9096	120.117	87.927	120.117	87.8744	120.117	87.9259	120.117	87.8231	120.117	87.9064	120.117	87.7585	120.117	87.8699	120.117	87.684	120.117	87.8186	120.117	87.6036	120.117	87.7558	120.117	87.5218	120.117	87.6854	120.117	87.4428	120.117	87.6118	120.117	87.3709	120.117	87.5394	120.117	87.3092	120.117	87.4723	120.117	87.26	120.117	87.4134	120.117	87.2244	120.117	87.3647	120.117	87.202	120.117	87.3265	120.117	87.1915	120.117	87.2976	120.117	87.1906	120.117	87.2761	120.117	87.1966	120.117	87.2594	120.117	87.2068	120.117	87.2454	120.117	87.2192	120.117	87.2322
124.512	87.7741	124.512	87.7864	124.512	87.7426	124.512	87.779	124.512	87.6938	124.512	87.7523	124.512	87.6302	124.512	87.708	124.512	87.5556	124.512	87.6489	124.512	87.4743	124.512	87.5788	124.512	87.391	124.512	87.5019	124.512	87.3106	124.512	87.4234	124.512	87.2375	124.512	87.348	124.512	87.1754	124.512	87.2802	124.512	87.1266	124.512	87.2233	124.512	87.0923	124.512	87.1789	124.512	87.0718	124.512	87.1471	124.512	87.0632	124.512	87.1264	124.512	87.0638	124.512	87.1141	124.512	87.0702	124.512	87.1068	124.512	87.0791	124.512	87.1014	124.512	87.0881	124.512	87.0956
128.906	87.5962	128.906	87.6069	128.906	87.5658	128.906	87.5974	128.906	87.5175	128.906	87.5681	128.906	87.4541	128.906	87.5207	128.906	87.3791	128.906	87.458	128.906	87.2969	128.906	87.384	128.906	87.2122	128.906	87.3032	128.906	87.1299	128.906	87.2208	128.906	87.0545	128.906	87.1421	128.906	86.9899	128.906	87.0714	128.906	86.9386	128.906	87.0122	128.906	86.9018	128.906	86.9665	128.906	86.8791	128.906	86.9342	128.906	86.8684	128.906	86.9138	128.906	86.867	128.906	86.9025	128.906	86.8713	128.906	86.8969	128.906	86.8781	128.906	86.8935	128.906	86.8848	128.906	86.89
133.301	87.543	133.301	87.5614	133.301	87.5044	133.301	87.5588	133.301	87.4476	133.301	87.5354	133.301	87.3758	133.301	87.4928	133.301	87.293	133.301	87.4338	133.301	87.2039	133.301	87.3624	133.301	87.1136	133.301	87.2833	133.301	87.0272	133.301	87.2018	133.301	86.9496	133.301	87.1233	133.301	86.8847	133.301	87.0522	133.301	86.8353	133.301	86.9923	133.301	86.8023	133.301	86.9453	133.301	86.7852	133.301	86.9112	133.301	86.7817	133.301	86.8883	133.301	86.7885	133.301	86.8736	133.301	86.8015	133.301	86.8636	133.301	86.8171	133.301	86.8549	133.301	86.8321	133.301	86.8448
139.16	87.3892	139.16	87.4048	139.16	87.3514	139.16	87.3977	139.16	87.2935	139.16	87.3685	139.16	87.2187	139.16	87.3194	139.16	87.1311	139.16	87.2538	139.16	87.0359	139.16	87.1762	139.16	86.9387	139.16	87.0922	139.16	86.8453	139.16	87.0076	139.16	86.7612	139.16	86.928	139.16	86.691	139.16	86.8584	139.16	86.6381	139.16	86.8018	139.16	86.6038	139.16	86.7596	139.16	86.5875	139.16	86.7309	139.16	86.5869	139.16	86.7132	139.16	86.5982	139.16	86.7027	139.16	86.6168	139.16	86.695	139.16	86.638	139.16	86.6865	139.16	86.6581	139.16	86.6746
143.555	87.3853	143.555	87.3942	143.555	87.3518	143.555	87.3781	143.555	87.2959	143.555	87.3378	143.555	87.2207	143.555	87.276	143.555	87.1308	143.555	87.1965	143.555	87.0316	143.555	87.1048	143.555	86.9291	143.555	87.0073	143.555	86.8297	143.555	86.911	143.555	86.7393	143.555	86.8226	143.555	86.663	143.555	86.7478	143.555	86.6045	143.555	86.6901	143.555	86.5656	143.555	86.6506	143.555	86.5456	143.555	86.6279	143.555	86.5422	143.555	86.6183	143.555	86.5512	143.555	86.617	143.555	86.5675	143.555	86.6184	143.555	86.5859	143.555	86.6182	143.555	86.602	143.555	86.6131
147.949	87.331	147.949	87.3412	147.949	87.2942	147.949	87.3241	147.949	87.2332	147.949	87.2804	147.949	87.1514	147.949	87.2121	147.949	87.0535	147.949	87.1231	147.949	86.9453	147.949	87.0186	147.949	86.833	147.949	86.9052	147.949	86.7233	147.949	86.7906	147.949	86.6225	147.949	86.6823	147.949	86.5358	147.949	86.5875	147.949	86.4671	147.949	86.5112	147.949	86.4182	147.949	86.4562	147.949	86.3886	147.949	86.4219	147.949	86.3759	147.949	86.4052	147.949	86.3759	147.949	86.4009	147.949	86.3836	147.949	86.4031	147.949	86.3939	147.949	86.4064	147.949	86.4025	147.949	86.4068
153.809	87.307	153.809	87.3202	153.809	87.2668	153.809	87.306	153.809	87.2013	153.809	87.2653	153.809	87.1133	153.809	87.2003	153.809	87.0073	153.809	87.1144	153.809	86.8885	153.809	87.0122	153.809	86.7635	153.809	86.8995	153.809	86.639	153.809	86.7826	153.809	86.5221	153.809	86.6684	153.809	86.4188	153.809	86.5632	153.809	86.3338	153.809	86.4722	153.809	86.2696	153.809	86.3985	153.809	86.2265	153.809	86.3429	153.809	86.2025	153.809	86.3036	153.809	86.1942	153.809	86.277	153.809	86.197	153.809	86.2589	153.809	86.2066	153.809	86.2449	153.809	86.219	153.809	86.232
159.668	87.207	159.668	87.2237	159.668	87.1644	159.668	87.2137	159.668	87.098	159.668	87.1776	159.668	87.0108	159.668	87.1173	159.668	86.9072	159.668	87.0365	159.668	86.7921	159.668	86.9398	159.668	86.6715	159.668	86.8334	159.668	86.5516	159.668	86.7242	159.668	86.4388	159.668	86.619	159.668	86.3388	159.668	86.524	159.668	86.2562	159.668	86.4435	159.668	86.1941	159.668	86.3797	159.668	86.1535	159.668	86.332	159.668	86.1333	159.668	86.2974	159.668	86.1306	159.668	86.2716	159.668	86.1413	159.668	86.2503	159.668	86.1604	159.668	86.2295	159.668	86.1837	159.668	86.2073
165.527	87.1484	165.527	87.1666	165.527	87.1048	165.527	87.1585	165.527	87.038	165.527	87.125	165.527	86.952	165.527	87.0682	165.527	86.8517	165.527	86.992	165.527	86.7436	165.527	86.9016	165.527	86.6346	165.527	86.8032	165.527	86.5321	165.527	86.7039	165.527	86.4428	165.527	86.611	165.527	86.3721	165.527	86.5309	165.527	86.3232	165.527	86.4683	165.527	86.2971	165.527	86.4255	165.527	86.2915	165.527	86.4019	165.527	86.3025	165.527	86.3939	165.527	86.3241	165.527	86.3961	165.527	86.3501	165.527	86.4022	165.527	86.3748	165.527	86.4064	165.527	86.3937	165.527	86.4043
171.387	87.2549	171.387	87.2604	171.387	87.2189	171.387	87.2352	171.387	87.1543	171.387	87.1809	171.387	87.0649	171.387	87.1011	171.387	86.9559	171.387	87.0008	171.387	86.8342	171.387	86.8869	171.387	86.7077	171.387	86.7672	171.387	86.5853	171.387	86.6505	171.387	86.4754	171.387	86.545	171.387	86.3857	171.387	86.4578	171.387	86.3214	171.387	86.3938	171.387	86.2847	171.387	86.3546	171.387	86.274	171.387	86.3386	171.387	86.2846	171.387	86.3411	171.387	86.309	171.387	86.3552	171.387	86.3389	171.387	86.3731	171.387	86.3664	171.387	86.3874	171.387	86.3855	171.387	86.3925
177.246	87.2625	177.246	87.2715	177.246	87.2202	177.246	87.2464	177.246	87.1469	177.246	87.1883	177.246	87.0465	177.246	87.1001	177.246	86.9246	177.246	86.9866	177.246	86.7878	177.246	86.8547	177.246	86.6441	177.246	86.7131	177.246	86.5021	177.246	86.5715	177.246	86.3704	177.246	86.4396	177.246	86.257	177.246	86.326	177.246	86.1677	177.246	86.2368	177.246	86.1056	177.246	86.1742	177.246	86.0704	177.246	86.1369	177.246	86.0587	177.246	86.1202	177.246	86.0642	177.246	86.1171	177.246	86.0796	177.246	86.1204	177.246	86.0978	177.246	86.1235	177.246	86.113	177.246	86.1218
183.105	87.1084	183.105	87.1281	183.105	87.0538	183.105	87.1116	183.105	86.9672	183.105	87.0595	183.105	86.853	183.105	86.9742	183.105	86.7171	183.105	86.8602	183.105	86.567	183.105	86.7238	183.105	86.4109	183.105	86.5738	183.105	86.2581	183.105	86.4202	183.105	86.1177	183.105	86.2742	183.105	85.9978	183.105	86.146	183.105	85.9049	183.105	86.0438	183.105	85.8422	183.105	85.9714	183.105	85.8097	183.105	85.9284	183.105	85.8036	183.105	85.9095	183.105	85.8173	183.105	85.9067	183.105	85.8422	183.105	85.9107	183.105	85.87	183.105	85.9132	183.105	85.8935	183.105	85.9083
188.965	86.9845	188.965	87.014	188.965	86.9203	188.965	87.008	188.965	86.8243	188.965	86.9667	188.965	86.7005	188.965	86.8922	188.965	86.5546	188.965	86.7881	188.965	86.3936	188.965	86.6598	188.965	86.226	188.965	86.5146	188.965	86.061	188.965	86.3612	188.965	85.9081	188.965	86.2098	188.965	85.7758	188.965	86.0702	188.965	85.6711	188.965	85.9512	188.965	85.5979	188.965	85.8583	188.965	85.5567	188.965	85.7928	188.965	85.5446	188.965	85.7512	188.965	85.5555	188.965	85.7268	188.965	85.5817	188.965	85.7108	188.965	85.6149	188.965	85.6954	188.965	85.6476	188.965	85.675
196.289	86.873	196.289	86.8858	196.289	86.8276	196.289	86.8665	196.289	86.7511	196.289	86.8172	196.289	86.6466	196.289	86.7415	196.289	86.5192	196.289	86.6443	196.289	86.3756	196.289	86.5316	196.289	86.2241	196.289	86.4103	196.289	86.0736	196.289	86.2876	196.289	85.9333	196.289	86.1707	196.289	85.8118	196.289	86.0657	196.289	85.7157	196.289	85.9772	196.289	85.649	196.289	85.9078	196.289	85.6121	196.289	85.857	196.289	85.6023	196.289	85.8219	196.289	85.6139	196.289	85.7975	196.289	85.6398	196.289	85.7781	196.289	85.6724	196.289	85.7584	196.289	85.7054	196.289	85.7346
203.613	86.9286	203.613	86.9237	203.613	86.8956	203.613	86.8814	203.613	86.8261	203.613	86.8044	203.613	86.7236	203.613	86.6974	203.613	86.5938	203.613	86.5671	203.613	86.4441	203.613	86.4223	203.613	86.2838	203.613	86.273	203.613	86.1236	203.613	86.1301	203.613	85.9746	203.613	86.0038	203.613	85.8471	203.613	85.9024	203.613	85.749	203.613	85.8306	203.613	85.685	203.613	85.7887	203.613	85.6552	203.613	85.7728	203.613	85.6551	203.613	85.7755	203.613	85.677	203.613	85.7878	203.613	85.7113	203.613	85.8003	203.613	85.7481	203.613	85.8057	203.613	85.7793	203.613	85.7992
210.938	86.863	210.938	86.8749	210.938	86.8126	210.938	86.847	210.938	86.7266	210.938	86.7803	210.938	86.6099	210.938	86.6774	210.938	86.4688	210.938	86.5433	210.938	86.3116	210.938	86.3853	210.938	86.1477	210.938	86.213	210.938	85.9876	210.938	86.0382	210.938	85.8418	210.938	85.8738	210.938	85.7194	210.938	85.7328	210.938	85.6272	210.938	85.6253	210.938	85.5682	210.938	85.5572	210.938	85.5411	210.938	85.5277	210.938	85.5408	210.938	85.5302	210.938	85.5588	210.938	85.5533	210.938	85.5852	210.938	85.5842	210.938	85.6102	210.938	85.6112	210.938	85.6256	210.938	85.6263
218.262	86.726	218.262	86.7396	218.262	86.6735	218.262	86.7138	218.262	86.5842	218.262	86.6505	218.262	86.4627	218.262	86.5537	218.262	86.3155	218.262	86.4293	218.262	86.1509	218.262	86.2852	218.262	85.979	218.262	86.1311	218.262	85.8106	218.262	85.9773	218.262	85.6568	218.262	85.8346	218.262	85.5275	218.262	85.7119	218.262	85.4302	218.262	85.616	218.262	85.3682	218.262	85.5494	218.262	85.3409	218.262	85.5108	218.262	85.3429	218.262	85.4945	218.262	85.366	218.262	85.4925	218.262	85.4003	218.262	85.4956	218.262	85.4365	218.262	85.4957	218.262	85.4669	218.262	85.487
225.586	86.6731	225.586	86.6921	225.586	86.6129	225.586	86.669	225.586	86.5143	225.586	86.6052	225.586	86.3822	225.586	86.5041	225.586	86.2239	225.586	86.3717	225.586	86.0489	225.586	86.2162	225.586	85.8689	225.586	86.0484	225.586	85.6969	225.586	85.8809	225.586	85.546	225.586	85.7271	225.586	85.4274	225.586	85.5991	225.586	85.3484	225.586	85.506	225.586	85.3109	225.586	85.4516	225.586	85.3111	225.586	85.4332	225.586	85.3402	225.586	85.4428	225.586	85.3865	225.586	85.4686	225.586	85.4377	225.586	85.498	225.586	85.4829	225.586	85.5199	225.586	85.5139	225.586	85.5264
232.91	86.6865	232.91	86.7087	232.91	86.6177	232.91	86.6839	232.91	86.5049	232.91	86.6142	232.91	86.3531	232.91	86.504	232.91	86.1698	232.91	86.3597	232.91	85.9647	232.91	86.1904	232.91	85.7496	232.91	86.007	232.91	85.5382	232.91	85.8223	232.91	85.3454	232.91	85.6501	232.91	85.1851	232.91	85.5037	232.91	85.0686	232.91	85.3933	232.91	85.0021	232.91	85.3239	232.91	84.9848	232.91	85.2931	232.91	85.0097	232.91	85.2918	232.91	85.0646	232.91	85.306	232.91	85.1347	232.91	85.3209	232.91	85.2058	232.91	85.3235	232.91	85.2656	232.91	85.3059
241.699	86.6135	241.699	86.6233	241.699	86.5542	241.699	86.585	241.699	86.4467	241.699	86.5021	241.699	86.2949	241.699	86.3799	241.699	86.1058	241.699	86.2254	241.699	85.8894	241.699	86.0474	241.699	85.659	241.699	85.8557	241.699	85.4303	241.699	85.6618	241.699	85.2201	241.699	85.4773	241.699	85.0445	241.699	85.3139	241.699	84.9159	241.699	85.1818	241.699	84.8406	241.699	85.0882	241.699	84.8169	241.699	85.0353	241.699	84.8361	241.699	85.0192	241.699	84.8841	241.699	85.0292	241.699	84.945	241.699	85.0506	241.699	85.0034	241.699	85.0678	241.699	85.047	241.699	85.0687
250.488	86.4586	250.488	86.4712	250.488	86.3926	250.488	86.431	250.488	86.2748	250.488	86.3414	250.488	86.1092	250.488	86.2075	250.488	85.9031	250.488	86.0374	250.488	85.6669	250.488	85.8415	250.488	85.4144	250.488	85.6327	250.488	85.1623	250.488	85.4255	250.488	84.9291	250.488	85.2343	250.488	84.7331	250.488	85.0715	250.488	84.5891	250.488	84.9452	250.488	84.5051	250.488	84.8584	250.488	84.4799	250.488	84.8087	250.488	84.5034	250.488	84.7892	250.488	84.5596	250.488	84.7894	250.488	84.6302	250.488	84.7968	250.488	84.6987	250.488	84.7992	250.488	84.7529	250.488	84.7865
259.277	86.7218	259.277	86.7221	259.277	86.6687	259.277	86.6712	259.277	86.5629	259.277	86.5727	259.277	86.4066	259.277	86.4323	259.277	86.2046	259.277	86.2579	259.277	85.9645	259.277	86.0596	259.277	85.6977	259.277	85.8498	259.277	85.4189	259.277	85.6427	259.277	85.1464	259.277	85.4522	259.277	84.9008	259.277	85.2901	259.277	84.702	259.277	85.1639	259.277	84.5661	259.277	85.0751	259.277	84.5004	259.277	85.019	259.277	84.5011	259.277	84.987	259.277	84.5535	259.277	84.9678	259.277	84.6366	259.277	84.9499	259.277	84.7286	259.277	84.9226	259.277	84.8125	259.277	84.878
268.066	86.3273	268.066	86.3124	268.066	86.2871	268.066	86.2436	268.066	86.1933	268.066	86.1245	268.066	86.0497	268.066	85.9612	268.066	85.8626	268.066	85.7633	268.066	85.6413	268.066	85.5435	268.066	85.398	268.066	85.318	268.066	85.1481	268.066	85.1055	268.066	84.9095	268.066	84.9246	268.066	84.7014	268.066	84.7902	268.066	84.5415	268.066	84.7095	268.066	84.4426	268.066	84.6803	268.066	84.409	268.066	84.692	268.066	84.4348	268.066	84.7286	268.066	84.5043	268.066	84.7731	268.066	84.5964	268.066	84.8095	268.066	84.6891	268.066	84.825	268.066	84.7644	268.066	84.811
276.855	86.3837	276.855	86.3907	276.855	86.3191	276.855	86.3394	276.855	86.1985	276.855	86.2304	276.855	86.025	276.855	86.0661	276.855	85.8043	276.855	85.8515	276.855	85.546	276.855	85.5955	276.855	85.265	276.855	85.3111	276.855	84.9809	276.855	85.0168	276.855	84.7159	276.855	84.7359	276.855	84.4902	276.855	84.4939	276.855	84.3182	276.855	84.3131	276.855	84.2054	276.855	84.2053	276.855	84.1486	276.855	84.167	276.855	84.1381	276.855	84.1803	276.855	84.1604	276.855	84.2199	276.855	84.2007	276.855	84.2622	276.855	84.2444	276.855	84.2903	276.855	84.2793	276.855	84.2963
287.109	86.5403	287.109	86.5622	287.109	86.4612	287.109	86.525	287.109	86.3292	287.109	86.4295	287.109	86.15	287.109	86.2795	287.109	85.9304	287.109	86.0816	287.109	85.6776	287.109	85.8452	287.109	85.4002	287.109	85.5829	287.109	85.1095	287.109	85.3103	287.109	84.822	287.109	85.0459	287.109	84.559	287.109	84.8092	287.109	84.3441	287.109	84.6186	287.109	84.1972	287.109	84.4865	287.109	84.127	287.109	84.4159	287.109	84.1282	287.109	84.3988	287.109	84.1825	287.109	84.4166	287.109	84.2651	287.109	84.4464	287.109	84.3509	287.109	84.4658	287.109	84.4198	287.109	84.4592
297.363	86.2016	297.363	86.1911	297.363	86.1551	297.363	86.1269	297.363	86.0507	297.363	86.015	297.363	85.8904	297.363	85.863	297.363	85.6788	297.363	85.6799	297.363	85.4233	297.363	85.4755	297.363	85.1343	297.363	85.2605	297.363	84.8269	297.363	85.0456	297.363	84.5224	297.363	84.8419	297.363	84.2478	297.363	84.6607	297.363	84.0319	297.363	84.5122	297.363	83.8969	297.363	84.4038	297.363	83.8506	297.363	84.3382	297.363	83.8826	297.363	84.3109	297.363	83.968	297.363	84.3107	297.363	84.0763	297.363	84.3214	297.363	84.1801	297.363	84.3256	297.363	84.2603	297.363	84.3084
307.617	86.2456	307.617	86.2749	307.617	86.1586	307.617	86.243	307.617	86.0195	307.617	86.1491	307.617	85.836	307.617	85.9968	307.617	85.6174	307.617	85.7946	307.617	85.3745	307.617	85.5572	307.617	85.1182	307.617	85.3043	307.617	84.8581	307.617	85.0585	307.617	84.6026	307.617	84.8415	307.617	84.3614	307.617	84.6691	307.617	84.1475	307.617	84.5484	307.617	83.9781	307.617	84.477	307.617	83.8702	307.617	84.4443	307.617	83.8334	307.617	84.4339	307.617	83.8651	307.617	84.4275	307.617	83.9494	307.617	84.4078	307.617	84.0632	307.617	84.3622	307.617	84.182	307.617	84.2858
319.336	86.0007	319.336	86.0405	319.336	85.8927	319.336	86.0113	319.336	85.7192	319.336	85.9148	319.336	85.4862	319.336	85.7545	319.336	85.2039	319.336	85.5368	319.336	84.8876	319.336	85.2731	319.336	84.5581	319.336	84.9808	319.336	84.2404	319.336	84.6849	319.336	83.96	319.336	84.4148	319.336	83.7386	319.336	84.1988	319.336	83.5904	319.336	84.0562	319.336	83.5212	319.336	83.9922	319.336	83.5286	319.336	83.9971	319.336	83.6021	319.336	84.0498	319.336	83.7239	319.336	84.1229	319.336	83.87	319.336	84.1874	319.336	84.0136	319.336	84.2187	319.336	84.13	319.336	84.201
329.59	85.956	329.59	85.9662	329.59	85.8768	329.59	85.9111	329.59	85.7269	329.59	85.7952	329.59	85.5071	329.59	85.6234	329.59	85.2222	329.59	85.4015	329.59	84.8824	329.59	85.1367	329.59	84.5047	329.59	84.8399	329.59	84.1142	329.59	84.5289	329.59	83.7429	329.59	84.2298	329.59	83.4256	329.59	83.9744	329.59	83.1924	329.59	83.7914	329.59	83.0615	329.59	83.6955	329.59	83.0351	329.59	83.6798	329.59	83.0995	329.59	83.719	329.59	83.2296	329.59	83.7789	329.59	83.3941	329.59	83.8268	329.59	83.5607	329.59	83.8376	329.59	83.7016	329.59	83.7969
341.309	85.7862	341.309	85.7696	341.309	85.7329	341.309	85.6882	341.309	85.6081	341.309	85.5498	341.309	85.4142	341.309	85.3638	341.309	85.1577	341.309	85.1409	341.309	84.8493	341.309	84.8925	341.309	84.5041	341.309	84.6302	341.309	84.1423	341.309	84.3663	341.309	83.7895	341.309	84.1145	341.309	83.4761	341.309	83.8901	341.309	83.2335	341.309	83.71	341.309	83.0857	341.309	83.588	341.309	83.0406	341.309	83.53	341.309	83.0858	341.309	83.5286	341.309	83.1928	341.309	83.5631	341.309	83.3271	341.309	83.6058	341.309	83.4566	341.309	83.6299	341.309	83.5578	341.309	83.6166
353.027	85.5548	353.027	85.5237	353.027	85.5038	353.027	85.4155	353.027	85.3689	353.027	85.2375	353.027	85.1519	353.027	84.9996	353.027	84.8586	353.027	84.7143	353.027	84.5002	353.027	84.3965	353.027	84.0942	353.027	84.0643	353.027	83.6648	353.027	83.7392	353.027	83.243	353.027	83.4452	353.027	82.8641	353.027	83.2053	353.027	82.5631	353.027	83.037	353.027	82.3676	353.027	82.9459	353.027	82.2901	353.027	82.9236	353.027	82.3227	353.027	82.9497	353.027	82.4385	353.027	82.9964	353.027	82.5994	353.027	83.0354	353.027	82.7662	353.027	83.0424	353.027	82.9069	353.027	83.0014
366.211	85.4544	366.211	85.4015	366.211	85.436	366.211	85.2799	366.211	85.3461	366.211	85.0951	366.211	85.1859	366.211	84.8549	366.211	84.9576	366.211	84.5694	366.211	84.6638	366.211	84.25	366.211	84.3084	366.211	83.91	366.211	83.8985	366.211	83.565	366.211	83.4484	366.211	83.235	366.211	82.9842	366.211	82.9433	366.211	82.5461	366.211	82.7134	366.211	82.1839	366.211	82.5611	366.211	81.9436	366.211	82.486	366.211	81.8473	366.211	82.4701	366.211	81.881	366.211	82.4832	366.211	82.0018	366.211	82.4933	366.211	82.1571	366.211	82.4748	366.211	82.3032	366.211	82.4126
379.395	85.4942	379.395	85.4726	379.395	85.4478	379.395	85.3835	379.395	85.3348	379.395	85.2292	379.395	85.1581	379.395	85.0147	379.395	84.923	379.395	84.7489	379.395	84.6362	379.395	84.4448	379.395	84.3074	379.395	84.1197	379.395	83.9488	379.395	83.7926	379.395	83.577	379.395	83.4813	379.395	83.2125	379.395	83.2001	379.395	82.8789	379.395	82.9607	379.395	82.5997	379.395	82.7739	379.395	82.3946	379.395	82.6487	379.395	82.276	379.395	82.5858	379.395	82.2444	379.395	82.5714	379.395	82.2853	379.395	82.5779	379.395	82.3702	379.395	82.5739	379.395	82.4643	379.395	82.5374
392.578	85.0109	392.578	85.0161	392.578	84.9357	392.578	84.9529	392.578	84.7935	392.578	84.8268	392.578	84.5923	392.578	84.6459	392.578	84.3434	392.578	84.4192	392.578	84.0598	392.578	84.1556	392.578	83.7526	392.578	83.8641	392.578	83.4296	392.578	83.5555	392.578	83.0963	392.578	83.245	392.578	82.7603	392.578	82.9521	392.578	82.4372	392.578	82.6979	392.578	82.1524	392.578	82.4997	392.578	81.9362	392.578	82.3646	392.578	81.8117	392.578	82.2867	392.578	81.783	392.578	82.2481	392.578	81.8324	392.578	82.2235	392.578	81.9276	392.578	82.1882	392.578	82.0345	392.578	82.1259
405.762	84.4249	405.762	84.3977	405.762	84.3706	405.762	84.2955	405.762	84.236	405.762	84.1315	405.762	84.0298	405.762	83.9239	405.762	83.7668	405.762	83.6917	405.762	83.4654	405.762	83.4525	405.762	83.1456	405.762	83.2193	405.762	82.8248	405.762	83	405.762	82.5158	405.762	82.7969	405.762	82.227	405.762	82.6078	405.762	81.965	405.762	82.4289	405.762	81.7393	405.762	82.2588	405.762	81.5633	405.762	82.1016	405.762	81.4497	405.762	81.9662	405.762	81.4042	405.762	81.8587	405.762	81.4196	405.762	81.7762	405.762	81.4778	405.762	81.706	405.762	81.5557	405.762	81.6344
420.41	84.1868	420.41	84.1577	420.41	84.1106	420.41	84.0291	420.41	83.9361	420.41	83.8191	420.41	83.6827	420.41	83.5561	420.41	83.3804	420.41	83.2742	420.41	83.0652	420.41	83.0035	420.41	82.7704	420.41	82.761	420.41	82.5134	420.41	82.545	420.41	82.2874	420.41	82.3402	420.41	82.0635	420.41	82.1289	420.41	81.8065	420.41	81.9014	420.41	81.4952	420.41	81.659	420.41	81.1385	420.41	81.4112	420.41	80.7797	420.41	81.1693	420.41	80.4823	420.41	80.9432	420.41	80.299	420.41	80.7391	420.41	80.2438	420.41	80.5594	420.41	80.2923	420.41	80.4067
435.059	83.6785	435.059	83.5604	435.059	83.6302	435.059	83.299	435.059	83.4099	435.059	82.9374	435.059	83.0327	435.059	82.5436	435.059	82.5414	435.059	82.2082	435.059	82.0141	435.059	82.0197	435.059	81.5608	435.059	82.0175	435.059	81.2921	435.059	82.1619	435.059	81.2575	435.059	82.3573	435.059	81.4059	435.059	82.5036	435.059	81.616	435.059	82.5309	435.059	81.7646	435.059	82.4088	435.059	81.7735	435.059	82.143	435.059	81.621	435.059	81.7687	435.059	81.3373	435.059	81.3432	435.059	80.9927	435.059	80.9376	435.059	80.6792	435.059	80.624	435.059	80.4838	435.059	80.4621
451.172	86.3362	451.172	86.1862	451.172	86.2568	451.172	85.7936	451.172	85.9572	451.172	85.1467	451.172	85.4421	451.172	84.243	451.172	84.713	451.172	83.1108	451.172	83.7777	451.172	81.8559	451.172	82.6728	451.172	80.7354	451.172	81.5114	451.172	80.1452	451.172	80.5447	451.172	80.3089	451.172	80.1215	451.172	81.0029	451.172	80.3935	451.172	81.8368	451.172	81.1217	451.172	82.5657	451.172	81.9446	451.172	83.1015	451.172	82.6362	451.172	83.4389	451.172	83.1181	451.172	83.6097	451.172	83.3999	451.172	83.663	451.172	83.5352	451.172	83.6529	451.172	83.5915	451.172	83.6235
465.82	86.7253	465.82	86.6234	465.82	86.6632	465.82	86.3534	465.82	86.4355	465.82	85.9055	465.82	86.036	465.82	85.2645	465.82	85.4559	465.82	84.4168	465.82	84.6886	465.82	83.3656	465.82	83.738	465.82	82.1695	465.82	82.6393	465.82	81.0095	465.82	81.4974	465.82	80.2278	465.82	80.5354	465.82	80.1374	465.82	80.0602	465.82	80.6775	465.82	80.2337	465.82	81.5004	465.82	80.8915	465.82	82.3215	465.82	81.7274	465.82	83.015	465.82	82.5239	465.82	83.546	465.82	83.1829	465.82	83.9099	465.82	83.6735	465.82	84.1066	465.82	83.9903	465.82	84.1341
483.398	86.2122	483.398	86.1549	483.398	86.1585	483.398	85.9788	483.398	85.991	483.398	85.6661	483.398	85.6975	483.398	85.1904	483.398	85.2579	483.398	84.521	483.398	84.6484	483.398	83.6309	483.398	83.8491	483.398	82.5171	483.398	82.8584	483.398	81.2487	483.398	81.7225	483.398	80.0556	483.398	80.5854	483.398	79.3644	483.398	79.7267	483.398	79.489	483.398	79.4507	483.398	80.2291	483.398	79.8018	483.398	81.1405	483.398	80.5173	483.398	81.9393	483.398	81.3032	483.398	82.5266	483.398	81.9911	483.398	82.8939	483.398	82.5171	483.398	83.0614	483.398	82.8688	483.398	83.0497
499.512	85.9648	499.512	85.9006	499.512	85.9286	499.512	85.7366	499.512	85.7835	499.512	85.4637	499.512	85.5157	499.512	85.0639	499.512	85.1107	499.512	84.5131	499.512	84.5563	499.512	83.7883	499.512	83.8471	499.512	82.8823	499.512	82.9906	499.512	81.8348	499.512	82.0231	499.512	80.7847	499.512	81.0399	499.512	80.0058	499.512	80.2298	499.512	79.7895	499.512	79.8393	499.512	80.1643	499.512	79.9934	499.512	80.8662	499.512	80.5564	499.512	81.6083	499.512	81.2653	499.512	82.2266	499.512	81.9211	499.512	82.6566	499.512	82.4299	499.512	82.8846	499.512	82.7637	499.512	82.917
517.09	85.8646	517.09	85.7843	517.09	85.8478	517.09	85.598	517.09	85.7348	517.09	85.2913	517.09	85.5174	517.09	84.8468	517.09	85.1789	517.09	84.2467	517.09	84.6973	517.09	83.4766	517.09	84.053	517.09	82.5378	517.09	83.2383	517.09	81.4751	517.09	82.2747	517.09	80.431	517.09	81.2441	517.09	79.6832	517.09	80.3304	517.09	79.5162	517.09	79.8099	517.09	79.9312	517.09	79.8752	517.09	80.6428	517.09	80.427	517.09	81.3719	517.09	81.1737	517.09	81.9791	517.09	81.8697	517.09	82.4226	517.09	82.3904	517.09	82.696	517.09	82.6969	517.09	82.7927
536.133	85.5615	536.133	85.5161	536.133	85.5087	536.133	85.3719	536.133	85.3542	536.133	85.1221	536.133	85.0924	536.133	84.7505	536.133	84.713	536.133	84.2308	536.133	84.2005	536.133	83.5297	536.133	83.5345	536.133	82.6184	536.133	82.6989	536.133	81.4995	536.133	81.702	536.133	80.2659	536.133	80.6155	536.133	79.1924	536.133	79.6276	536.133	78.7161	536.133	79.0445	536.133	79.0526	536.133	79.0997	536.133	79.9141	536.133	79.7053	536.133	80.8781	536.133	80.5524	536.133	81.6992	536.133	81.3773	536.133	82.2844	536.133	82.0394	536.133	82.6092	536.133	82.4788	536.133	82.6722
555.176	86.0329	555.176	85.9468	555.176	86.0471	555.176	85.7865	555.176	85.98	555.176	85.5364	555.176	85.8137	555.176	85.1692	555.176	85.524	555.176	84.6491	555.176	85.0822	555.176	83.9381	555.176	84.4561	555.176	83.0036	555.176	83.6137	555.176	81.8367	555.176	82.5349	555.176	80.4975	555.176	81.239	555.176	79.2094	555.176	79.8492	555.176	78.4172	555.176	78.688	555.176	78.4818	555.176	78.2185	555.176	79.211	555.176	78.5925	555.176	80.1267	555.176	79.445	555.176	80.9198	555.176	80.3492	555.176	81.4764	555.176	81.0836	555.176	81.7711	555.176	81.5735	555.176	81.803
574.219	85.9025	574.219	85.8365	574.219	85.906	574.219	85.7007	574.219	85.8449	574.219	85.4809	574.219	85.7051	574.219	85.1551	574.219	85.4602	574.219	84.6914	574.219	85.0766	574.219	84.0466	574.219	84.5218	574.219	83.1725	574.219	83.7736	574.219	82.0358	574.219	82.831	574.219	80.67	574.219	81.7357	574.219	79.2902	574.219	80.6144	574.219	78.4076	574.219	79.7256	574.219	78.5074	574.219	79.3809	574.219	79.3863	574.219	79.66	574.219	80.4579	574.219	80.3112	574.219	81.3573	574.219	81.0276	574.219	81.9624	574.219	81.6343	574.219	82.2615	574.219	82.0632	574.219	82.2828
594.727	85.5434	594.727	85.5289	594.727	85.5072	594.727	85.4504	594.727	85.4266	594.727	85.2893	594.727	85.2958	594.727	85.0206	594.727	85.0933	594.727	84.6107	594.727	84.7812	594.727	84.0147	594.727	84.311	594.727	83.1794	594.727	83.6339	594.727	82.0575	594.727	82.7173	594.727	80.6509	594.727	81.5723	594.727	79.1263	594.727	80.3159	594.727	77.9981	594.727	79.2675	594.727	77.9282	594.727	78.9003	594.727	78.8463	594.727	79.3792	594.727	80.0828	594.727	80.3307	594.727	81.1924	594.727	81.3104	594.727	82.0221	594.727	82.0829	594.727	82.5321	594.727	82.5596	594.727	82.7119
615.234	85.7527	615.234	85.8057	615.234	85.6669	615.234	85.818	615.234	85.5466	615.234	85.7704	615.234	85.381	615.234	85.6319	615.234	85.1497	615.234	85.3598	615.234	84.8191	615.234	84.8998	615.234	84.3419	615.234	84.1847	615.234	83.6629	615.234	83.1374	615.234	82.7315	615.234	81.6859	615.234	81.5288	615.234	79.8265	615.234	80.1283	615.234	77.8429	615.234	78.8281	615.234	76.6972	615.234	78.225	615.234	77.2585	615.234	78.688	615.234	78.7479	615.234	79.7806	615.234	80.1822	615.234	80.8797	615.234	81.244	615.234	81.6834	615.234	81.9038	615.234	82.1185	615.234	82.1896
637.207	85.7323	637.207	85.7852	637.207	85.6547	637.207	85.8206	637.207	85.5475	637.207	85.8399	637.207	85.4086	637.207	85.8272	637.207	85.2303	637.207	85.7442	637.207	84.9893	637.207	85.5333	637.207	84.6415	637.207	85.1244	637.207	84.128	637.207	84.4408	637.207	83.3911	637.207	83.4094	637.207	82.3971	637.207	81.996	637.207	81.1782	637.207	80.3228	637.207	79.9156	637.207	78.9211	637.207	79.0323	637.207	78.6477	637.207	78.9954	637.207	79.5237	637.207	79.751	637.207	80.7199	637.207	80.7905	637.207	81.7013	637.207	81.7018	637.207	82.3066	637.207	82.2959	637.207	82.5045
659.18	86.3254	659.18	86.3629	659.18	86.2178	659.18	86.3272	659.18	86.0494	659.18	86.2221	659.18	85.8295	659.18	86.0502	659.18	85.5566	659.18	85.8003	659.18	85.2105	659.18	85.4397	659.18	84.7511	659.18	84.9174	659.18	84.1252	659.18	84.1781	659.18	83.2755	659.18	83.1804	659.18	82.1543	659.18	81.9319	659.18	80.7661	659.18	80.5777	659.18	79.3045	659.18	79.5493	659.18	78.3708	659.18	79.4286	659.18	78.6336	659.18	80.2076	659.18	79.798	659.18	81.2755	659.18	81.0766	659.18	82.1671	659.18	82.0647	659.18	82.7132	659.18	82.6663	659.18	82.8802
682.617	86.3555	682.617	86.3504	682.617	86.3138	682.617	86.3096	682.617	86.2083	682.617	86.2323	682.617	86.026	682.617	86.1056	682.617	85.7617	682.617	85.9062	682.617	85.4091	682.617	85.5946	682.617	84.942	682.617	85.1077	682.617	84.3025	682.617	84.3615	682.617	83.4077	682.617	83.275	682.617	82.1701	682.617	81.8338	682.617	80.5394	682.617	80.2378	682.617	78.6402	682.617	79.1019	682.617	77.1464	682.617	79.1049	682.617	77.1944	682.617	80.0191	682.617	78.597	682.617	81.1253	682.617	80.2033	682.617	82.0118	682.617	81.4668	682.617	82.5296	682.617	82.2751	682.617	82.625
707.52	85.7684	707.52	85.8407	707.52	85.6755	707.52	85.8752	707.52	85.578	707.52	85.8615	707.52	85.4783	707.52	85.7895	707.52	85.3601	707.52	85.6386	707.52	85.1926	707.52	85.3724	707.52	84.9308	707.52	84.9375	707.52	84.5131	707.52	84.2632	707.52	83.8648	707.52	83.2664	707.52	82.9079	707.52	81.8852	707.52	81.5742	707.52	80.1898	707.52	79.8498	707.52	78.6478	707.52	77.9679	707.52	78.1837	707.52	76.8409	707.52	78.9975	707.52	77.4376	707.52	80.2117	707.52	78.9907	707.52	81.1849	707.52	80.4106	707.52	81.7198	707.52	81.3499	707.52	81.7792
732.422	85.9052	732.422	85.885	732.422	85.8426	732.422	85.7914	732.422	85.7126	732.422	85.6474	732.422	85.5464	732.422	85.4698	732.422	85.3626	732.422	85.2489	732.422	85.1422	732.422	84.9383	732.422	84.833	732.422	84.4628	732.422	84.3751	732.422	83.7363	732.422	83.7145	732.422	82.6758	732.422	82.7961	732.422	81.218	732.422	81.5549	732.422	79.4108	732.422	79.957	732.422	77.7494	732.422	78.1982	732.422	77.3905	732.422	77.1147	732.422	78.5333	732.422	77.6336	732.422	80.0008	732.422	79.1061	732.422	81.1071	732.422	80.4915	732.422	81.7136	732.422	81.4138	732.422	81.8174
757.324	86.3545	757.324	86.2987	757.324	86.3081	757.324	86.167	757.324	86.1507	757.324	85.9959	757.324	85.8989	757.324	85.8134	757.324	85.5992	757.324	85.6132	757.324	85.3056	757.324	85.3456	757.324	85.0208	757.324	84.927	757.324	84.6589	757.324	84.2546	757.324	84.0776	757.324	83.2185	757.324	83.1404	757.324	81.7288	757.324	81.7565	757.324	79.7993	757.324	79.9235	757.324	77.8202	757.324	77.9175	757.324	76.9398	757.324	76.7457	757.324	77.8559	757.324	77.434	757.324	79.4851	757.324	79.1076	757.324	80.862	757.324	80.6119	757.324	81.6947	757.324	81.5723	757.324	81.9329
785.156	86.3438	785.156	86.3123	785.156	86.2915	785.156	86.204	785.156	86.1711	785.156	86.0465	785.156	86.0109	785.156	85.8745	785.156	85.831	785.156	85.7073	785.156	85.6265	785.156	85.521	785.156	85.3659	785.156	85.2353	785.156	84.9952	785.156	84.7289	785.156	84.4397	785.156	83.8668	785.156	83.6046	785.156	82.5246	785.156	82.3775	785.156	80.6358	785.156	80.6493	785.156	78.4125	785.156	78.4525	785.156	76.9429	785.156	76.5133	785.156	77.4732	785.156	76.4546	785.156	78.9964	785.156	77.9911	785.156	80.2693	785.156	79.5538	785.156	80.9659	785.156	80.5992	785.156	81.07
811.523	86.1386	811.523	86.0895	811.523	86.1215	811.523	85.9903	811.523	86.0279	811.523	85.8621	811.523	85.8577	811.523	85.7214	811.523	85.6329	811.523	85.564	811.523	85.3906	811.523	85.359	811.523	85.1463	811.523	85.0514	811.523	84.8575	811.523	84.5592	811.523	84.424	811.523	83.7689	811.523	83.7144	811.523	82.5486	811.523	82.5876	811.523	80.8097	811.523	80.9222	811.523	78.7156	811.523	78.7357	811.523	77.1943	811.523	76.6715	811.523	77.4918	811.523	76.3719	811.523	78.9093	811.523	77.8409	811.523	80.1871	811.523	79.4444	811.523	80.9049	811.523	80.5278	811.523	81.0141
840.82	86.4058	840.82	86.3251	840.82	86.2583	840.82	86.0359	840.82	85.9377	840.82	85.6329	840.82	85.5553	840.82	85.2601	840.82	85.2356	840.82	85.0399	840.82	85.0483	840.82	84.9686	840.82	84.9513	840.82	84.8929	840.82	84.803	840.82	84.6044	840.82	84.4409	840.82	83.9338	840.82	83.7481	840.82	82.7687	840.82	82.6535	840.82	81.0586	840.82	81.0879	840.82	78.9571	840.82	79.0127	840.82	77.323	840.82	76.8594	840.82	77.4733	840.82	76.3511	840.82	78.8514	840.82	77.9569	840.82	80.171	840.82	79.7386	840.82	80.994	840.82	80.8489	840.82	81.2399
870.117	86.2552	870.117	86.1643	870.117	86.2346	870.117	85.9636	870.117	86.0799	870.117	85.6621	870.117	85.7648	870.117	85.3107	870.117	85.3082	870.117	84.9853	870.117	84.8047	870.117	84.7174	870.117	84.3835	870.117	84.454	870.117	84.0941	870.117	84.0894	870.117	83.8241	870.117	83.4988	870.117	83.3483	870.117	82.5331	870.117	82.4436	870.117	81.0402	870.117	80.981	870.117	79.0502	870.117	79.0481	870.117	77.399	870.117	77.3074	870.117	77.66	870.117	77.0732	870.117	79.239	870.117	78.3548	870.117	80.6378	870.117	79.875	870.117	81.4032	870.117	80.9801	870.117	81.5061
900.879	86.8224	900.879	86.7514	900.879	86.6575	900.879	86.4661	900.879	86.3015	900.879	86.0395	900.879	85.8422	900.879	85.5568	900.879	85.3758	900.879	85.0878	900.879	84.9783	900.879	84.6785	900.879	84.6654	900.879	84.3269	900.879	84.3587	900.879	83.9336	900.879	83.9238	900.879	83.3001	900.879	83.2428	900.879	82.2008	900.879	82.2124	900.879	80.4742	900.879	80.6836	900.879	78.171	900.879	78.4763	900.879	76.1311	900.879	75.8221	900.879	76.2662	900.879	74.9019	900.879	78.1565	900.879	76.9476	900.879	79.9194	900.879	79.1902	900.879	80.9388	900.879	80.5936	900.879	81.1595
933.105	86.7845	933.105	86.6771	933.105	86.7116	933.105	86.3839	933.105	86.4562	933.105	85.9185	933.105	86.0204	933.105	85.3656	933.105	85.44	933.105	84.8807	933.105	84.817	933.105	84.5663	933.105	84.3117	933.105	84.3562	933.105	84.0199	933.105	84.0814	933.105	83.8236	933.105	83.5691	933.105	83.4443	933.105	82.631	933.105	82.6127	933.105	81.021	933.105	81.1302	933.105	78.4982	933.105	78.8515	933.105	75.5489	933.105	75.9607	933.105	75.283	933.105	74.4271	933.105	77.6302	933.105	76.1178	933.105	79.5205	933.105	78.3792	933.105	80.456	933.105	79.8815	933.105	80.5585
965.332	87.3262	965.332	87.1319	965.332	87.2508	965.332	86.725	965.332	86.8904	965.332	86.1732	965.332	86.2932	965.332	85.5418	965.332	85.5811	965.332	84.933	965.332	84.9236	965.332	84.5095	965.332	84.4443	965.332	84.3405	965.332	84.1252	965.332	84.221	965.332	83.8375	965.332	83.8132	965.332	83.4298	965.332	82.8647	965.332	82.7325	965.332	81.2261	965.332	81.5141	965.332	78.7906	965.332	79.4907	965.332	75.7819	965.332	76.5341	965.332	74.4339	965.332	74.0785	965.332	76.4079	965.332	75.3555	965.332	78.6189	965.332	77.8477	965.332	79.8636	965.332	79.4778	965.332	80.133
1,000.49	88.0221	1,000.49	87.9324	1,000.49	87.8367	1,000.49	87.5332	1,000.49	87.4342	1,000.49	86.8495	1,000.49	86.8636	1,000.49	85.9969	1,000.49	86.1577	1,000.49	85.1694	1,000.49	85.3793	1,000.49	84.5422	1,000.49	84.6785	1,000.49	84.1714	1,000.49	84.2191	1,000.49	83.981	1,000.49	83.9508	1,000.49	83.7561	1,000.49	83.5764	1,000.49	83.1547	1,000.49	82.7949	1,000.49	81.81	1,000.49	81.4374	1,000.49	79.4461	1,000.49	79.4273	1,000.49	76.3046	1,000.49	76.8834	1,000.49	75.0056	1,000.49	75.0997	1,000.49	77.0752	1,000.49	76.1733	1,000.49	79.2429	1,000.49	78.3854	1,000.49	80.4437	1,000.49	79.9791	1,000.49	80.6714
1,035.64	88.0042	1,035.64	87.9017	1,035.64	87.8886	1,035.64	87.6	1,035.64	87.5208	1,035.64	87.0685	1,035.64	86.8977	1,035.64	86.2645	1,035.64	86.0703	1,035.64	85.2416	1,035.64	85.1507	1,035.64	84.2282	1,035.64	84.2906	1,035.64	83.5009	1,035.64	83.6081	1,035.64	83.0881	1,035.64	83.1077	1,035.64	82.7395	1,035.64	82.6483	1,035.64	82.1469	1,035.64	81.9556	1,035.64	81.0338	1,035.64	80.684	1,035.64	79.1523	1,035.64	78.528	1,035.64	76.5007	1,035.64	75.5986	1,035.64	74.73	1,035.64	74.1681	1,035.64	76.3797	1,035.64	76.3294	1,035.64	78.8515	1,035.64	78.8622	1,035.64	80.4024	1,035.64	80.4047	1,035.64	80.9069
1,072.27	89.044	1,072.27	88.9296	1,072.27	88.921	1,072.27	88.573	1,072.27	88.5551	1,072.27	87.9893	1,072.27	87.9544	1,072.27	87.2621	1,072.27	87.1799	1,072.27	86.5344	1,072.27	86.3571	1,072.27	85.9328	1,072.27	85.6465	1,072.27	85.5059	1,072.27	85.1382	1,072.27	85.2191	1,072.27	84.7402	1,072.27	84.9253	1,072.27	84.2478	1,072.27	84.3289	1,072.27	83.4477	1,072.27	83.0464	1,072.27	82.0452	1,072.27	80.7096	1,072.27	79.528	1,072.27	77.2198	1,072.27	75.1554	1,072.27	74.8567	1,072.27	71.4093	1,072.27	77.1056	1,072.27	75.6783	1,072.27	79.8927	1,072.27	79.3505	1,072.27	81.5459	1,072.27	81.3325	1,072.27	82.0251
1,108.89	90.7322	1,108.89	90.6633	1,108.89	90.564	1,108.89	90.3328	1,108.89	90.1564	1,108.89	89.6993	1,108.89	89.498	1,108.89	88.7601	1,108.89	88.5943	1,108.89	87.6459	1,108.89	87.5208	1,108.89	86.6741	1,108.89	86.5093	1,108.89	86.1464	1,108.89	85.87	1,108.89	85.9963	1,108.89	85.6326	1,108.89	85.8675	1,108.89	85.4825	1,108.89	85.4008	1,108.89	85.0757	1,108.89	84.2739	1,108.89	84.1178	1,108.89	82.1532	1,108.89	82.2323	1,108.89	78.9501	1,108.89	78.7713	1,108.89	76.9407	1,108.89	73.2023	1,108.89	79.0468	1,108.89	74.7225	1,108.89	81.5064	1,108.89	79.6737	1,108.89	82.901	1,108.89	82.2548	1,108.89	83.1946
1,148.44	90.5374	1,148.44	90.4242	1,148.44	90.3899	1,148.44	90.0667	1,148.44	89.962	1,148.44	89.4664	1,148.44	89.2603	1,148.44	88.6116	1,148.44	88.3202	1,148.44	87.5213	1,148.44	87.1862	1,148.44	86.3715	1,148.44	85.9986	1,148.44	85.5385	1,148.44	85.1022	1,148.44	85.2218	1,148.44	84.7451	1,148.44	85.1087	1,148.44	84.6938	1,148.44	84.6966	1,148.44	84.4976	1,148.44	83.542	1,148.44	83.723	1,148.44	81.2072	1,148.44	81.8706	1,148.44	77.2854	1,148.44	78.1572	1,148.44	73.8544	1,148.44	71.1414	1,148.44	77.0534	1,148.44	72.537	1,148.44	80.4784	1,148.44	78.3875	1,148.44	82.1473	1,148.44	81.2281	1,148.44	82.3576
1,189.45	90.2964	1,189.45	90.2524	1,189.45	90.0983	1,189.45	89.9234	1,189.45	89.6876	1,189.45	89.2706	1,189.45	89.0396	1,189.45	88.2893	1,189.45	88.0872	1,189.45	87.0658	1,189.45	86.8536	1,189.45	85.8109	1,189.45	85.5894	1,189.45	84.8181	1,189.45	84.6553	1,189.45	84.3275	1,189.45	84.1927	1,189.45	84.2713	1,189.45	84.0685	1,189.45	84.1949	1,189.45	83.962	1,189.45	83.5042	1,189.45	83.4267	1,189.45	81.5868	1,189.45	81.9927	1,189.45	77.6288	1,189.45	79.0617	1,189.45	71.7949	1,189.45	73.2993	1,189.45	75.2114	1,189.45	68.7177	1,189.45	79.4862	1,189.45	76.3089	1,189.45	81.4528	1,189.45	80.1639	1,189.45	81.6794
1,230.47	90.3472	1,230.47	90.2397	1,230.47	90.2412	1,230.47	89.9336	1,230.47	89.8722	1,230.47	89.4124	1,230.47	89.1975	1,230.47	88.6366	1,230.47	88.2515	1,230.47	87.5766	1,230.47	87.1411	1,230.47	86.31	1,230.47	85.9617	1,230.47	85.1651	1,230.47	84.873	1,230.47	84.6693	1,230.47	84.2429	1,230.47	84.8422	1,230.47	84.2007	1,230.47	84.9457	1,230.47	84.269	1,230.47	84.3051	1,230.47	83.8376	1,230.47	82.4981	1,230.47	82.3382	1,230.47	78.9224	1,230.47	79.0644	1,230.47	72.2299	1,230.47	72.5054	1,230.47	71.5426	1,230.47	66.967	1,230.47	77.3389	1,230.47	74.9118	1,230.47	79.8022	1,230.47	78.611	1,230.47	80.1031
1,274.41	89.9758	1,274.41	89.8186	1,274.41	89.8663	1,274.41	89.4537	1,274.41	89.4902	1,274.41	88.9302	1,274.41	88.8454	1,274.41	88.1946	1,274.41	87.8599	1,274.41	87.133	1,274.41	86.4958	1,274.41	85.7725	1,274.41	84.995	1,274.41	84.5378	1,274.41	83.9202	1,274.41	84.0222	1,274.41	83.5791	1,274.41	84.1773	1,274.41	83.7048	1,274.41	84.5168	1,274.41	83.9004	1,274.41	84.5031	1,274.41	83.7951	1,274.41	83.4776	1,274.41	82.9832	1,274.41	80.7339	1,274.41	80.9192	1,274.41	75.4223	1,274.41	76.4205	1,274.41	72.1216	1,274.41	66.7308	1,274.41	77.1452	1,274.41	74.3374	1,274.41	79.9766	1,274.41	79.1468	1,274.41	80.6283
1,319.82	89.9025	1,319.82	89.7239	1,319.82	89.7838	1,319.82	89.3528	1,319.82	89.3428	1,319.82	88.8485	1,319.82	88.602	1,319.82	88.0763	1,319.82	87.5527	1,319.82	86.8303	1,319.82	86.1521	1,319.82	85.12	1,319.82	84.4759	1,319.82	83.2916	1,319.82	82.8972	1,319.82	81.8644	1,319.82	81.868	1,319.82	81.2329	1,319.82	81.6382	1,319.82	81.5775	1,319.82	82.1031	1,319.82	82.242	1,319.82	82.429	1,319.82	81.9654	1,319.82	81.7042	1,319.82	79.9817	1,319.82	79.3155	1,319.82	76.1782	1,319.82	74.297	1,319.82	73.2283	1,319.82	67.4226	1,319.82	75.9097	1,319.82	73.6162	1,319.82	78.5691	1,319.82	77.6676	1,319.82	79.1648
1,366.7	89.5278	1,366.7	89.4688	1,366.7	89.3075	1,366.7	89.1867	1,366.7	88.8357	1,366.7	88.7153	1,366.7	88.1921	1,366.7	88.0227	1,366.7	87.3506	1,366.7	87.0452	1,366.7	86.1307	1,366.7	85.7415	1,366.7	84.4435	1,366.7	84.1578	1,366.7	82.7335	1,366.7	82.511	1,366.7	81.7175	1,366.7	81.2929	1,366.7	81.4101	1,366.7	80.9848	1,366.7	81.5535	1,366.7	81.2711	1,366.7	81.7158	1,366.7	80.9585	1,366.7	81.1679	1,366.7	78.679	1,366.7	79.0867	1,366.7	73.0004	1,366.7	73.7611	1,366.7	71.2175	1,366.7	52.9816	1,366.7	76.9709	1,366.7	73.3165	1,366.7	79.4764	1,366.7	77.9372	1,366.7	79.6642
1,413.57	89.4455	1,413.57	89.2379	1,413.57	89.4274	1,413.57	88.7743	1,413.57	89.1441	1,413.57	88.0817	1,413.57	88.5317	1,413.57	87.2024	1,413.57	87.5991	1,413.57	86.0874	1,413.57	86.2882	1,413.57	84.6804	1,413.57	84.4822	1,413.57	83.1158	1,413.57	82.4079	1,413.57	81.9941	1,413.57	80.8993	1,413.57	81.619	1,413.57	80.5632	1,413.57	81.1867	1,413.57	80.9008	1,413.57	80.6699	1,413.57	81.2651	1,413.57	80.1329	1,413.57	81.2576	1,413.57	78.3026	1,413.57	80.3852	1,413.57	73.4098	1,413.57	77.5398	1,413.57	69.7853	1,413.57	69.579	1,413.57	75.1388	1,413.57	69.9216	1,413.57	77.5501	1,413.57	76.1745	1,413.57	77.868
1,463.38	89.7738	1,463.38	89.64	1,463.38	89.7407	1,463.38	89.2138	1,463.38	89.5593	1,463.38	88.5359	1,463.38	89.0468	1,463.38	87.601	1,463.38	88.2204	1,463.38	86.3366	1,463.38	87.1416	1,463.38	84.8472	1,463.38	85.5571	1,463.38	83.3373	1,463.38	83.3364	1,463.38	82.2914	1,463.38	81.2905	1,463.38	82.0796	1,463.38	80.4557	1,463.38	81.6358	1,463.38	80.4897	1,463.38	80.6792	1,463.38	80.7999	1,463.38	80.055	1,463.38	80.5177	1,463.38	78.2108	1,463.38	79.2113	1,463.38	72.3202	1,463.38	76.3196	1,463.38	68.0075	1,463.38	67.1636	1,463.38	74.3564	1,463.38	69.6782	1,463.38	77.3833	1,463.38	76.7539	1,463.38	78.3128
1,516.11	90.0626	1,516.11	90.0232	1,516.11	89.713	1,516.11	89.7831	1,516.11	89.1133	1,516.11	89.3396	1,516.11	88.5216	1,516.11	88.4986	1,516.11	87.8439	1,516.11	87.4202	1,516.11	86.8948	1,516.11	86.3875	1,516.11	85.5731	1,516.11	85.0685	1,516.11	83.7589	1,516.11	83.2042	1,516.11	81.6531	1,516.11	81.942	1,516.11	80.2349	1,516.11	81.5637	1,516.11	80.0919	1,516.11	80.7303	1,516.11	80.3233	1,516.11	79.5582	1,516.11	80.3376	1,516.11	77.5185	1,516.11	79.6668	1,516.11	71.5837	1,516.11	76.782	1,516.11	65.4241	1,516.11	67.4205	1,516.11	74.9227	1,516.11	69.7808	1,516.11	78.6361	1,516.11	76.5602	1,516.11	79.0474
1,568.85	90.0126	1,568.85	89.9733	1,568.85	89.5054	1,568.85	89.5129	1,568.85	88.7053	1,568.85	88.93	1,568.85	87.9763	1,568.85	88.3749	1,568.85	87.2418	1,568.85	87.7564	1,568.85	86.2058	1,568.85	86.8886	1,568.85	84.8778	1,568.85	85.4644	1,568.85	83.1845	1,568.85	83.2634	1,568.85	80.9479	1,568.85	81.3503	1,568.85	79.1993	1,568.85	81.3666	1,568.85	78.9063	1,568.85	81.571	1,568.85	79.1023	1,568.85	80.8118	1,568.85	79.2921	1,568.85	79.4366	1,568.85	78.7664	1,568.85	75.7533	1,568.85	75.85	1,568.85	66.104	1,568.85	66.2715	1,568.85	73.659	1,568.85	67.2702	1,568.85	77.6194	1,568.85	74.6587	1,568.85	77.7057
1,624.51	88.6481	1,624.51	88.455	1,624.51	88.4853	1,624.51	88.1198	1,624.51	87.6628	1,624.51	87.5782	1,624.51	86.4888	1,624.51	86.9602	1,624.51	85.7055	1,624.51	86.3351	1,624.51	85.0673	1,624.51	85.4492	1,624.51	83.8954	1,624.51	84.1428	1,624.51	82.2946	1,624.51	82.3187	1,624.51	80.4408	1,624.51	80.4982	1,624.51	78.3392	1,624.51	80.5036	1,624.51	77.2111	1,624.51	81.2896	1,624.51	77.9185	1,624.51	80.8118	1,624.51	79.0544	1,624.51	78.6902	1,624.51	78.7707	1,624.51	74.2725	1,624.51	76.1392	1,624.51	62.7187	1,624.51	71.4619	1,624.51	70.1585	1,624.51	63.6184	1,624.51	76.6962	1,624.51	70.0267	1,624.51	76.8571
1,681.64	88.3212	1,681.64	88.2823	1,681.64	88.0159	1,681.64	87.9199	1,681.64	87.2678	1,681.64	87.2583	1,681.64	86.1439	1,681.64	86.6383	1,681.64	85.1733	1,681.64	86.1488	1,681.64	84.493	1,681.64	85.272	1,681.64	83.3314	1,681.64	83.8419	1,681.64	81.5642	1,681.64	82.0448	1,681.64	79.6754	1,681.64	79.9056	1,681.64	77.5256	1,681.64	79.3695	1,681.64	76.176	1,681.64	80.9726	1,681.64	77.8389	1,681.64	81.1727	1,681.64	79.6555	1,681.64	79.13	1,681.64	79.5617	1,681.64	74.6146	1,681.64	77.1521	1,681.64	64.9907	1,681.64	71.923	1,681.64	68.4491	1,681.64	59.6578	1,681.64	75.8578	1,681.64	70.6981	1,681.64	76.553
1,741.7	88.5386	1,741.7	88.7465	1,741.7	88.1653	1,741.7	88.6	1,741.7	87.6861	1,741.7	88.0859	1,741.7	86.7765	1,741.7	87.3883	1,741.7	85.4732	1,741.7	86.6245	1,741.7	84.5334	1,741.7	85.716	1,741.7	83.7971	1,741.7	84.6715	1,741.7	82.5584	1,741.7	83.6233	1,741.7	80.7001	1,741.7	82.2985	1,741.7	78.3674	1,741.7	81.0763	1,741.7	77.1526	1,741.7	81.6534	1,741.7	78.8219	1,741.7	82.3981	1,741.7	80.279	1,741.7	81.426	1,741.7	79.7749	1,741.7	78.1107	1,741.7	77.5434	1,741.7	71.1507	1,741.7	73.9886	1,741.7	61.1855	1,741.7	64.8057	1,741.7	73.0787	1,741.7	69.1171	1,741.7	75.1556
1,803.22	89.1062	1,803.22	89.2685	1,803.22	88.5865	1,803.22	89.1859	1,803.22	87.8097	1,803.22	88.776	1,803.22	86.7347	1,803.22	88.1447	1,803.22	85.2652	1,803.22	87.6329	1,803.22	84.1462	1,803.22	87.0104	1,803.22	83.4149	1,803.22	85.955	1,803.22	82.4191	1,803.22	84.6447	1,803.22	81.0835	1,803.22	83.4407	1,803.22	79.1773	1,803.22	82.8027	1,803.22	77.544	1,803.22	82.9356	1,803.22	78.2777	1,803.22	83.7511	1,803.22	80.3297	1,803.22	83.4647	1,803.22	80.7153	1,803.22	80.6605	1,803.22	78.8845	1,803.22	74.7512	1,803.22	74.7217	1,803.22	70.3458	1,803.22	54.8995	1,803.22	75.1047	1,803.22	73.8364	1,803.22	77.1999
1,866.21	87.386	1,866.21	87.5579	1,866.21	86.4832	1,866.21	87.3841	1,866.21	85.2545	1,866.21	86.9715	1,866.21	84.1706	1,866.21	86.1435	1,866.21	82.6524	1,866.21	85.5127	1,866.21	80.7871	1,866.21	85.3255	1,866.21	79.5195	1,866.21	84.8866	1,866.21	78.5882	1,866.21	83.8316	1,866.21	77.8201	1,866.21	81.921	1,866.21	76.944	1,866.21	81.0083	1,866.21	75.0662	1,866.21	81.5782	1,866.21	75.2845	1,866.21	82.4087	1,866.21	78.496	1,866.21	82.6177	1,866.21	79.7979	1,866.21	80.1116	1,866.21	79.293	1,866.21	74.0142	1,866.21	76.838	1,866.21	70.8827	1,866.21	68.9753	1,866.21	73.7049	1,866.21	69.1964	1,866.21	73.8916
1,932.13	85.8008	1,932.13	86.1618	1,932.13	84.9559	1,932.13	86.1073	1,932.13	83.8374	1,932.13	85.6342	1,932.13	83.1323	1,932.13	84.6724	1,932.13	82.5331	1,932.13	83.3875	1,932.13	81.0258	1,932.13	82.4376	1,932.13	79.2829	1,932.13	82.1529	1,932.13	78.7594	1,932.13	81.6355	1,932.13	78.6026	1,932.13	79.6307	1,932.13	78.0872	1,932.13	78.3078	1,932.13	76.9624	1,932.13	79.075	1,932.13	75.0403	1,932.13	78.7053	1,932.13	76.3078	1,932.13	78.7734	1,932.13	77.9047	1,932.13	77.0891	1,932.13	77.8466	1,932.13	71.044	1,932.13	75.7809	1,932.13	70.829	1,932.13	67.1726	1,932.13	73.0197	1,932.13	64.326	1,932.13	70.9653
1,999.51	83.7037	1,999.51	84.292	1,999.51	83.5326	1,999.51	84.0509	1,999.51	83.8506	1,999.51	82.9833	1,999.51	83.8111	1,999.51	82.302	1,999.51	83.5828	1,999.51	81.5361	1,999.51	83.1918	1,999.51	80.0483	1,999.51	82.2547	1,999.51	79.2345	1,999.51	81.3962	1,999.51	79.0762	1,999.51	80.588	1,999.51	77.4599	1,999.51	79.2047	1,999.51	74.9077	1,999.51	78.1571	1,999.51	76.8849	1,999.51	77.0055	1,999.51	77.6448	1,999.51	76.8049	1,999.51	76.2327	1,999.51	78.111	1,999.51	73.3944	1,999.51	79.2801	1,999.51	66.425	1,999.51	77.2629	1,999.51	69.0647	1,999.51	69.1426	1,999.51	71.3818	1,999.51	55.5545	1,999.51	67.7093
2,069.82	85.2084	2,069.82	84.6366	2,069.82	85.6388	2,069.82	84.0517	2,069.82	85.8134	2,069.82	83.2045	2,069.82	85.7022	2,069.82	81.8245	2,069.82	85.1586	2,069.82	80.193	2,069.82	84.356	2,069.82	78.7694	2,069.82	83.4212	2,069.82	77.5726	2,069.82	82.1218	2,069.82	76.3838	2,069.82	80.7336	2,069.82	74.3257	2,069.82	80.025	2,069.82	69.6027	2,069.82	79.122	2,069.82	68.9885	2,069.82	77.0685	2,069.82	73.8359	2,069.82	76.2749	2,069.82	74.4305	2,069.82	77.3564	2,069.82	71.0619	2,069.82	78.7	2,069.82	59.9328	2,069.82	76.8491	2,069.82	63.856	2,069.82	70.0868	2,069.82	68.3909	2,069.82	58.9851	2,069.82	66.9119
2,143.07	86.3895	2,143.07	85.9342	2,143.07	86.5763	2,143.07	85.3186	2,143.07	86.2847	2,143.07	84.5849	2,143.07	85.7459	2,143.07	83.3533	2,143.07	85.2243	2,143.07	81.6029	2,143.07	84.4144	2,143.07	80.1443	2,143.07	83.567	2,143.07	79.2157	2,143.07	82.3193	2,143.07	78.4394	2,143.07	80.3879	2,143.07	77.3827	2,143.07	79.1783	2,143.07	75.4302	2,143.07	78.3936	2,143.07	72.1239	2,143.07	76.5313	2,143.07	72.4911	2,143.07	75.3762	2,143.07	73.1985	2,143.07	76.4095	2,143.07	71.0786	2,143.07	76.7458	2,143.07	65.621	2,143.07	75.2519	2,143.07	57.815	2,143.07	70.1617	2,143.07	67.9741	2,143.07	58.7771	2,143.07	67.9605
2,219.24	85.8105	2,219.24	85.5162	2,219.24	85.7162	2,219.24	84.9434	2,219.24	85.3881	2,219.24	84.3912	2,219.24	84.7078	2,219.24	83.3414	2,219.24	83.7687	2,219.24	82.0206	2,219.24	82.9884	2,219.24	80.9465	2,219.24	82.2385	2,219.24	79.451	2,219.24	81.1089	2,219.24	78.0374	2,219.24	79.8245	2,219.24	76.9307	2,219.24	79.0852	2,219.24	75.5975	2,219.24	77.7379	2,219.24	73.714	2,219.24	75.5014	2,219.24	74.2363	2,219.24	75.1677	2,219.24	76.1492	2,219.24	77.0682	2,219.24	75.8574	2,219.24	77.1054	2,219.24	71.9305	2,219.24	74.3304	2,219.24	61.2699	2,219.24	70.1653	2,219.24	61.864	2,219.24	57.5028	2,219.24	62.8139
2,296.88	85.4844	2,296.88	85.3505	2,296.88	85.6847	2,296.88	84.8345	2,296.88	85.382	2,296.88	83.7706	2,296.88	84.7173	2,296.88	82.9304	2,296.88	84.016	2,296.88	81.9112	2,296.88	82.6839	2,296.88	80.2444	2,296.88	81.3901	2,296.88	77.7928	2,296.88	80.0609	2,296.88	76.3766	2,296.88	78.0304	2,296.88	76.4398	2,296.88	76.9475	2,296.88	74.054	2,296.88	75.0506	2,296.88	72.8236	2,296.88	71.7732	2,296.88	72.582	2,296.88	73.0988	2,296.88	73.9875	2,296.88	76.8238	2,296.88	74.9875	2,296.88	77.8083	2,296.88	70.7223	2,296.88	76.3628	2,296.88	63.7897	2,296.88	71.3816	2,296.88	64.7869	2,296.88	61.8195	2,296.88	62.9345
2,378.91	87.1872	2,378.91	87.0513	2,378.91	86.8006	2,378.91	86.1548	2,378.91	86.3325	2,378.91	85.2213	2,378.91	85.4675	2,378.91	84.1656	2,378.91	84.1707	2,378.91	82.6976	2,378.91	82.7782	2,378.91	80.9874	2,378.91	80.8179	2,378.91	79.8419	2,378.91	78.9104	2,378.91	78.5553	2,378.91	78.3822	2,378.91	75.9673	2,378.91	77.2632	2,378.91	74.8488	2,378.91	75.8836	2,378.91	72.0902	2,378.91	74.4004	2,378.91	69.2193	2,378.91	72.4743	2,378.91	69.932	2,378.91	74.5631	2,378.91	72.492	2,378.91	76.6512	2,378.91	71.8541	2,378.91	75.562	2,378.91	63.8469	2,378.91	69.0067	2,378.91	63.8016	2,378.91	60.8932	2,378.91	62.1244
2,462.4	86.4975	2,462.4	86.6982	2,462.4	85.9439	2,462.4	86.4316	2,462.4	85.4632	2,462.4	85.8232	2,462.4	84.6674	2,462.4	84.8182	2,462.4	83.3021	2,462.4	83.6477	2,462.4	81.8086	2,462.4	82.1849	2,462.4	80.327	2,462.4	80.9896	2,462.4	79.4749	2,462.4	79.8593	2,462.4	78.6261	2,462.4	77.989	2,462.4	77.1402	2,462.4	76.5119	2,462.4	75.6609	2,462.4	75.7114	2,462.4	74.1778	2,462.4	74.8792	2,462.4	71.583	2,462.4	75.3785	2,462.4	71.5754	2,462.4	75.7914	2,462.4	75.2113	2,462.4	74.1447	2,462.4	74.7177	2,462.4	70.3853	2,462.4	70.4836	2,462.4	68.7359	2,462.4	60.4131	2,462.4	67.5046
2,548.83	85.5107	2,548.83	85.6209	2,548.83	85.3296	2,548.83	85.6312	2,548.83	84.8086	2,548.83	85.2339	2,548.83	84.3319	2,548.83	84.4497	2,548.83	83.6883	2,548.83	83.1143	2,548.83	82.0507	2,548.83	81.7652	2,548.83	79.892	2,548.83	79.9643	2,548.83	78.2756	2,548.83	77.9202	2,548.83	77.9579	2,548.83	76.4604	2,548.83	77.076	2,548.83	74.9107	2,548.83	75.0472	2,548.83	73.2371	2,548.83	73.6451	2,548.83	72.9114	2,548.83	71.208	2,548.83	73.3345	2,548.83	69.5963	2,548.83	75.2201	2,548.83	73.8885	2,548.83	73.8343	2,548.83	75.0797	2,548.83	71.4579	2,548.83	71.1384	2,548.83	66.5912	2,548.83	67.0937	2,548.83	64.2373
2,639.65	86.8286	2,639.65	87.0105	2,639.65	86.29	2,639.65	86.8496	2,639.65	85.6566	2,639.65	86.5379	2,639.65	85.4152	2,639.65	85.8681	2,639.65	84.619	2,639.65	84.5065	2,639.65	83.2912	2,639.65	83.0086	2,639.65	81.5203	2,639.65	81.4156	2,639.65	79.5186	2,639.65	79.545	2,639.65	77.8967	2,639.65	77.2532	2,639.65	76.7566	2,639.65	75.6464	2,639.65	75.015	2,639.65	74.6221	2,639.65	73.6086	2,639.65	72.817	2,639.65	72.1558	2,639.65	73.5331	2,639.65	69.424	2,639.65	74.3672	2,639.65	71.7324	2,639.65	73.0964	2,639.65	73.8789	2,639.65	68.6202	2,639.65	71.517	2,639.65	69.845	2,639.65	59.8431	2,639.65	67.9092
2,731.93	86.4883	2,731.93	86.9571	2,731.93	85.7543	2,731.93	86.8571	2,731.93	85.1344	2,731.93	86.6525	2,731.93	84.6978	2,731.93	85.9731	2,731.93	83.932	2,731.93	84.773	2,731.93	82.8833	2,731.93	83.4598	2,731.93	81.4469	2,731.93	81.8857	2,731.93	79.5677	2,731.93	80.1921	2,731.93	77.5348	2,731.93	78.7502	2,731.93	75.751	2,731.93	76.6047	2,731.93	73.7932	2,731.93	75.3946	2,731.93	72.3554	2,731.93	74.687	2,731.93	72.4697	2,731.93	74.7706	2,731.93	70.1702	2,731.93	75.779	2,731.93	71.197	2,731.93	74.5012	2,731.93	73.5962	2,731.93	71.8371	2,731.93	71.719	2,731.93	70.4295	2,731.93	65.5362	2,731.93	66.3525
2,828.61	87.4761	2,828.61	87.7178	2,828.61	86.7197	2,828.61	87.6794	2,828.61	85.6379	2,828.61	87.2902	2,828.61	84.9214	2,828.61	86.7161	2,828.61	84.2516	2,828.61	85.6972	2,828.61	83.4207	2,828.61	84.0105	2,828.61	81.9285	2,828.61	82.3937	2,828.61	79.9607	2,828.61	80.3852	2,828.61	78.0975	2,828.61	78.4523	2,828.61	76.269	2,828.61	77.2172	2,828.61	74.654	2,828.61	74.9908	2,828.61	72.6878	2,828.61	74.3598	2,828.61	72.5121	2,828.61	76.1028	2,828.61	69.72	2,828.61	76.0714	2,828.61	70.4281	2,828.61	73.867	2,828.61	74.184	2,828.61	69.4632	2,828.61	73.0878	2,828.61	70.6133	2,828.61	59.6649	2,828.61	70.3968
2,928.22	88.101	2,928.22	88.4289	2,928.22	87.5447	2,928.22	88.3494	2,928.22	86.8623	2,928.22	87.847	2,928.22	85.9363	2,928.22	87.2904	2,928.22	85.2069	2,928.22	86.4397	2,928.22	84.4086	2,928.22	85.0168	2,928.22	83.0507	2,928.22	83.1808	2,928.22	81.1129	2,928.22	81.4522	2,928.22	79.0979	2,928.22	79.8092	2,928.22	77.8032	2,928.22	78.1964	2,928.22	76.2337	2,928.22	77.2374	2,928.22	74.3201	2,928.22	75.7801	2,928.22	73.5695	2,928.22	74.9772	2,928.22	70.8043	2,928.22	75.9906	2,928.22	69.4094	2,928.22	75.052	2,928.22	74.2648	2,928.22	73.1218	2,928.22	75.0085	2,928.22	73.7774	2,928.22	68.6016	2,928.22	70.6054
3,030.76	88.2276	3,030.76	88.2947	3,030.76	87.7794	3,030.76	88.4043	3,030.76	87.3439	3,030.76	88.1008	3,030.76	86.767	3,030.76	87.4071	3,030.76	86.0174	3,030.76	86.5578	3,030.76	85.1709	3,030.76	85.156	3,030.76	84.1483	3,030.76	83.0792	3,030.76	82.4009	3,030.76	81.2723	3,030.76	79.8846	3,030.76	79.3617	3,030.76	78.0722	3,030.76	77.3857	3,030.76	76.5058	3,030.76	76.4141	3,030.76	73.692	3,030.76	74.8646	3,030.76	74.353	3,030.76	75.8301	3,030.76	73.9002	3,030.76	76.2484	3,030.76	70.2975	3,030.76	74.9697	3,030.76	74.0478	3,030.76	72.9375	3,030.76	75.2978	3,030.76	73.2077	3,030.76	69.4253	3,030.76	68.6959
3,137.7	87.6757	3,137.7	87.9542	3,137.7	87.4025	3,137.7	88.0653	3,137.7	87.3102	3,137.7	87.8369	3,137.7	86.9335	3,137.7	87.103	3,137.7	86.2092	3,137.7	86.3528	3,137.7	85.2678	3,137.7	85.277	3,137.7	84.1116	3,137.7	83.1376	3,137.7	82.388	3,137.7	81.2634	3,137.7	79.9682	3,137.7	79.7028	3,137.7	78.7152	3,137.7	76.7479	3,137.7	77.2073	3,137.7	77.1785	3,137.7	73.8915	3,137.7	75.5363	3,137.7	73.7261	3,137.7	71.8253	3,137.7	74.1815	3,137.7	75.0593	3,137.7	69.4506	3,137.7	74.7526	3,137.7	73.7401	3,137.7	75.5201	3,137.7	75.0982	3,137.7	74.7698	3,137.7	73.2764	3,137.7	65.1421
3,249.02	87.9756	3,249.02	88.1351	3,249.02	87.691	3,249.02	88.1176	3,249.02	87.8491	3,249.02	88.0684	3,249.02	87.6226	3,249.02	87.2183	3,249.02	86.8521	3,249.02	86.6116	3,249.02	85.5584	3,249.02	85.7414	3,249.02	84.3355	3,249.02	83.6313	3,249.02	82.8715	3,249.02	81.48	3,249.02	80.294	3,249.02	79.3451	3,249.02	78.1871	3,249.02	76.837	3,249.02	77.6076	3,249.02	75.3705	3,249.02	75.1637	3,249.02	75.6918	3,249.02	72.3478	3,249.02	73.7676	3,249.02	74.8345	3,249.02	74.8172	3,249.02	71.7442	3,249.02	74.1764	3,249.02	72.3105	3,249.02	74.2528	3,249.02	74.137	3,249.02	73.1945	3,249.02	71.801	3,249.02	70.1831
3,363.28	88.1046	3,363.28	88.3282	3,363.28	88.3308	3,363.28	88.2149	3,363.28	88.7867	3,363.28	88.1233	3,363.28	88.4082	3,363.28	87.6087	3,363.28	87.3672	3,363.28	86.227	3,363.28	85.8325	3,363.28	85.1274	3,363.28	84.068	3,363.28	84.2753	3,363.28	82.3003	3,363.28	82.1235	3,363.28	80.3382	3,363.28	80.6325	3,363.28	78.3113	3,363.28	78.2575	3,363.28	77.283	3,363.28	75.1847	3,363.28	75.6963	3,363.28	77.1158	3,363.28	72.5347	3,363.28	75.2181	3,363.28	73.0037	3,363.28	73.5786	3,363.28	71.3738	3,363.28	73.9014	3,363.28	71.5937	3,363.28	74.4309	3,363.28	74.0488	3,363.28	73.9154	3,363.28	70.1162	3,363.28	69.4426
3,481.93	88.2297	3,481.93	88.2454	3,481.93	88.4348	3,481.93	88.5205	3,481.93	88.7655	3,481.93	88.4594	3,481.93	88.2016	3,481.93	88.0888	3,481.93	87.3646	3,481.93	86.4864	3,481.93	85.3445	3,481.93	84.5268	3,481.93	83.4561	3,481.93	83.4421	3,481.93	81.8854	3,481.93	80.9743	3,481.93	78.9079	3,481.93	79.8089	3,481.93	75.7701	3,481.93	78.2069	3,481.93	74.6163	3,481.93	73.8736	3,481.93	72.2824	3,481.93	74.6092	3,481.93	70.4892	3,481.93	77.0822	3,481.93	73.7077	3,481.93	76.1363	3,481.93	72.4742	3,481.93	74.6232	3,481.93	69.6914	3,481.93	71.2984	3,481.93	73.4851	3,481.93	72.8282	3,481.93	67.1771	3,481.93	71.427
3,604.98	88.3648	3,604.98	87.8436	3,604.98	89.2978	3,604.98	88.4643	3,604.98	88.843	3,604.98	87.9738	3,604.98	88.2754	3,604.98	87.92	3,604.98	87.3684	3,604.98	86.7483	3,604.98	85.5429	3,604.98	84.6459	3,604.98	83.6313	3,604.98	82.6919	3,604.98	81.2401	3,604.98	80.2251	3,604.98	79.6004	3,604.98	79.1951	3,604.98	76.5488	3,604.98	78.4972	3,604.98	74.9171	3,604.98	74.622	3,604.98	74.193	3,604.98	73.6488	3,604.98	71.3515	3,604.98	74.2268	3,604.98	75.2733	3,604.98	75.9341	3,604.98	74.631	3,604.98	74.4915	3,604.98	70.4979	3,604.98	70.9802	3,604.98	73.0338	3,604.98	73.5099	3,604.98	67.9572	3,604.98	69.4266
3,732.42	88.6677	3,732.42	88.192	3,732.42	88.9894	3,732.42	87.8708	3,732.42	89.0783	3,732.42	88.3701	3,732.42	88.4213	3,732.42	87.4031	3,732.42	86.7777	3,732.42	86.9486	3,732.42	84.9641	3,732.42	85.7273	3,732.42	82.1601	3,732.42	82.5967	3,732.42	79.481	3,732.42	80.3777	3,732.42	77.4572	3,732.42	76.4271	3,732.42	75.9841	3,732.42	75.791	3,732.42	73.6793	3,732.42	73.4494	3,732.42	73.1788	3,732.42	73.1228	3,732.42	70.0186	3,732.42	73.8536	3,732.42	71.4446	3,732.42	74.6321	3,732.42	73.8615	3,732.42	73.4873	3,732.42	68.7067	3,732.42	70.6186	3,732.42	72.0267	3,732.42	71.9041	3,732.42	69.6214	3,732.42	65.843
3,864.26	90.0648	3,864.26	89.3094	3,864.26	89.6773	3,864.26	88.5779	3,864.26	90.047	3,864.26	89.1041	3,864.26	89.2335	3,864.26	88.1598	3,864.26	87.1214	3,864.26	87.691	3,864.26	84.6783	3,864.26	85.9267	3,864.26	81.799	3,864.26	83.1833	3,864.26	79.4959	3,864.26	81.6034	3,864.26	77.2802	3,864.26	78.4345	3,864.26	74.4298	3,864.26	75.7389	3,864.26	70.8475	3,864.26	73.0319	3,864.26	70.6776	3,864.26	74.1321	3,864.26	71.1199	3,864.26	72.5909	3,864.26	67.6968	3,864.26	72.7892	3,864.26	71.2899	3,864.26	72.6551	3,864.26	68.5628	3,864.26	73.1427	3,864.26	73.5085	3,864.26	73.6392	3,864.26	72.3446	3,864.26	66.4909
4,000.49	89.9688	4,000.49	89.6078	4,000.49	90.325	4,000.49	89.0817	4,000.49	90.1323	4,000.49	88.7141	4,000.49	88.5179	4,000.49	88.5095	4,000.49	86.0559	4,000.49	86.7966	4,000.49	82.9611	4,000.49	84.3982	4,000.49	80.8684	4,000.49	83.2839	4,000.49	78.5935	4,000.49	80.8347	4,000.49	76.9429	4,000.49	77.4692	4,000.49	75.1907	4,000.49	74.4414	4,000.49	72.9676	4,000.49	70.6999	4,000.49	70.2748	4,000.49	71.6308	4,000.49	69.1825	4,000.49	72.3809	4,000.49	66.5957	4,000.49	71.9566	4,000.49	70.1507	4,000.49	71.9981	4,000.49	68.875	4,000.49	72.3526	4,000.49	69.4507	4,000.49	72.2854	4,000.49	69.6594	4,000.49	64.8626
4,141.11	90.0767	4,141.11	89.5762	4,141.11	91.0298	4,141.11	89.7399	4,141.11	89.8945	4,141.11	88.1815	4,141.11	87.9569	4,141.11	88.2123	4,141.11	85.8141	4,141.11	86.777	4,141.11	83.0994	4,141.11	84.9144	4,141.11	81.255	4,141.11	83.3308	4,141.11	79.7584	4,141.11	81.483	4,141.11	78.0132	4,141.11	78.2071	4,141.11	74.9167	4,141.11	76.3528	4,141.11	73.4783	4,141.11	73.9895	4,141.11	71.9424	4,141.11	71.3834	4,141.11	70.9378	4,141.11	73.5001	4,141.11	70.5246	4,141.11	72.4249	4,141.11	71.582	4,141.11	71.9292	4,141.11	70.1218	4,141.11	71.198	4,141.11	69.5813	4,141.11	70.0484	4,141.11	70.3829	4,141.11	65.1045
4,287.6	90.6745	4,287.6	90.6578	4,287.6	91.0774	4,287.6	90.6793	4,287.6	89.8946	4,287.6	90.4598	4,287.6	88.4967	4,287.6	88.9698	4,287.6	86.5014	4,287.6	88.6748	4,287.6	85.616	4,287.6	86.9185	4,287.6	82.6673	4,287.6	83.021	4,287.6	80.8762	4,287.6	81.6841	4,287.6	79.9952	4,287.6	77.6807	4,287.6	78.889	4,287.6	77.0172	4,287.6	76.4189	4,287.6	73.7779	4,287.6	75.4558	4,287.6	70.4663	4,287.6	73.7651	4,287.6	70.9393	4,287.6	72.046	4,287.6	72.5876	4,287.6	71.9342	4,287.6	73.219	4,287.6	71.4906	4,287.6	71.5481	4,287.6	70.4155	4,287.6	74.925	4,287.6	70.7131	4,287.6	68.9577
4,438.48	91.7961	4,438.48	92.057	4,438.48	90.9242	4,438.48	91.0685	4,438.48	91.3037	4,438.48	92.1199	4,438.48	89.4146	4,438.48	91.3685	4,438.48	87.1269	4,438.48	89.5037	4,438.48	83.7622	4,438.48	87.1871	4,438.48	83.0097	4,438.48	84.969	4,438.48	83.0803	4,438.48	80.5234	4,438.48	79.9469	4,438.48	77.5586	4,438.48	78.7693	4,438.48	75.9774	4,438.48	77.1588	4,438.48	75.5214	4,438.48	75.5586	4,438.48	69.9428	4,438.48	73.4387	4,438.48	73.1998	4,438.48	70.6774	4,438.48	75.1137	4,438.48	70.7463	4,438.48	73.0507	4,438.48	70.908	4,438.48	73.2484	4,438.48	69.7936	4,438.48	75.9239	4,438.48	73.6256	4,438.48	70.451
4,595.21	92.7205	4,595.21	91.9691	4,595.21	92.0874	4,595.21	91.9553	4,595.21	91.1701	4,595.21	91.9208	4,595.21	89.2813	4,595.21	92.1019	4,595.21	85.9435	4,595.21	89.6937	4,595.21	82.5558	4,595.21	88.0413	4,595.21	83.7009	4,595.21	86.4208	4,595.21	82.581	4,595.21	82.696	4,595.21	81.1987	4,595.21	81.4762	4,595.21	79.1019	4,595.21	78.6634	4,595.21	76.4481	4,595.21	77.2673	4,595.21	75.7673	4,595.21	75.9032	4,595.21	73.0825	4,595.21	73.6588	4,595.21	74.6013	4,595.21	74.968	4,595.21	69.6856	4,595.21	73.6873	4,595.21	69.8431	4,595.21	73.2654	4,595.21	68.2736	4,595.21	74.6106	4,595.21	72.0972	4,595.21	64.6256
4,756.35	92.9506	4,756.35	92.1599	4,756.35	93.3084	4,756.35	92.4033	4,756.35	89.9818	4,756.35	91.0743	4,756.35	88.5933	4,756.35	91.1438	4,756.35	86.4572	4,756.35	91.0506	4,756.35	87.406	4,756.35	89.4968	4,756.35	84.281	4,756.35	86.2914	4,756.35	79.4942	4,756.35	85.3536	4,756.35	79.143	4,756.35	82.9486	4,756.35	78.1499	4,756.35	80.8088	4,756.35	75.7205	4,756.35	78.0738	4,756.35	74.1316	4,756.35	77.6392	4,756.35	66.5489	4,756.35	75.7734	4,756.35	69.8859	4,756.35	75.7777	4,756.35	72.5417	4,756.35	76.3979	4,756.35	69.3646	4,756.35	74.679	4,756.35	61.5134	4,756.35	71.3775	4,756.35	71.4762	4,756.35	57.135
4,924.8	92.2526	4,924.8	92.675	4,924.8	90.8578	4,924.8	90.4377	4,924.8	90.7219	4,924.8	91.591	4,924.8	86.6697	4,924.8	90.8705	4,924.8	85.5151	4,924.8	91.0101	4,924.8	82.5821	4,924.8	89.7799	4,924.8	75.875	4,924.8	87.0657	4,924.8	79.332	4,924.8	84.3081	4,924.8	76.3366	4,924.8	82.1903	4,924.8	73.7745	4,924.8	80.3298	4,924.8	64.7649	4,924.8	78.8598	4,924.8	62.9369	4,924.8	76.1765	4,924.8	72.817	4,924.8	78.118	4,924.8	69.0008	4,924.8	78.139	4,924.8	70.2589	4,924.8	76.9537	4,924.8	73.3904	4,924.8	74.5103	4,924.8	67.1854	4,924.8	71.1288	4,924.8	72.1223	4,924.8	69.7314
5,097.66	91.9886	5,097.66	90.5777	5,097.66	90.9469	5,097.66	91.1992	5,097.66	87.7431	5,097.66	91.0907	5,097.66	85.362	5,097.66	91.7269	5,097.66	82.502	5,097.66	91.1017	5,097.66	81.9593	5,097.66	89.5179	5,097.66	81.1835	5,097.66	88.3823	5,097.66	78.7155	5,097.66	84.8581	5,097.66	77.0087	5,097.66	82.292	5,097.66	75.5668	5,097.66	80.4564	5,097.66	77.924	5,097.66	80.3241	5,097.66	74.1357	5,097.66	75.209	5,097.66	68.2794	5,097.66	78.9842	5,097.66	66.4349	5,097.66	78.074	5,097.66	73.2261	5,097.66	77.8884	5,097.66	75.4267	5,097.66	75.0288	5,097.66	70.5148	5,097.66	68.8168	5,097.66	75.2217	5,097.66	71.87
5,277.83	89.9956	5,277.83	91.0449	5,277.83	89.7694	5,277.83	90.5979	5,277.83	87.2284	5,277.83	89.6168	5,277.83	86.2693	5,277.83	90.3689	5,277.83	85.9574	5,277.83	90.2095	5,277.83	85.9016	5,277.83	88.5285	5,277.83	81.6411	5,277.83	86.8244	5,277.83	78.4574	5,277.83	84.494	5,277.83	77.0602	5,277.83	81.3111	5,277.83	78.1356	5,277.83	78.6101	5,277.83	77.7013	5,277.83	77.1521	5,277.83	74.0809	5,277.83	76.1363	5,277.83	71.7546	5,277.83	73.9373	5,277.83	69.6972	5,277.83	76.0424	5,277.83	68.6442	5,277.83	75.5063	5,277.83	73.302	5,277.83	73.642	5,277.83	72.0022	5,277.83	72.4331	5,277.83	72.3145	5,277.83	73.754
5,463.87	89.2586	5,463.87	90.1272	5,463.87	86.7448	5,463.87	88.5686	5,463.87	87.0715	5,463.87	88.6599	5,463.87	85.5764	5,463.87	88.5264	5,463.87	84.4313	5,463.87	88.2749	5,463.87	80.8853	5,463.87	87.2484	5,463.87	79.9452	5,463.87	84.7925	5,463.87	79.0084	5,463.87	81.4246	5,463.87	77.6622	5,463.87	79.6571	5,463.87	77.452	5,463.87	77.3157	5,463.87	76.0515	5,463.87	75.0309	5,463.87	72.0146	5,463.87	74.0682	5,463.87	68.8599	5,463.87	74.9701	5,463.87	66.1021	5,463.87	74.9496	5,463.87	71.1697	5,463.87	74.2899	5,463.87	70.7905	5,463.87	71.1609	5,463.87	72.5956	5,463.87	70.6863	5,463.87	70.5919	5,463.87	73.9328
5,657.23	88.5179	5,657.23	88.889	5,657.23	87.6635	5,657.23	89.3455	5,657.23	84.8418	5,657.23	88.0405	5,657.23	85.1054	5,657.23	87.513	5,657.23	83.516	5,657.23	87.0139	5,657.23	82.3902	5,657.23	85.964	5,657.23	81.2722	5,657.23	83.1731	5,657.23	78.9886	5,657.23	79.728	5,657.23	79.0854	5,657.23	76.7651	5,657.23	77.6002	5,657.23	74.5254	5,657.23	76.4148	5,657.23	71.3826	5,657.23	74.1376	5,657.23	71.7327	5,657.23	69.4785	5,657.23	73.063	5,657.23	66.3975	5,657.23	72.6558	5,657.23	69.1253	5,657.23	73.5877	5,657.23	69.7467	5,657.23	67.9453	5,657.23	70.9463	5,657.23	68.7869	5,657.23	66.1186	5,657.23	71.3615
5,856.45	88.6751	5,856.45	90.425	5,856.45	86.1179	5,856.45	89.0318	5,856.45	86.503	5,856.45	87.2109	5,856.45	85.5966	5,856.45	86.6023	5,856.45	84.4735	5,856.45	86.6505	5,856.45	83.2789	5,856.45	85.1587	5,856.45	82.111	5,856.45	82.3171	5,856.45	80.0512	5,856.45	80.156	5,856.45	79.4582	5,856.45	77.5033	5,856.45	78.4392	5,856.45	74.2983	5,856.45	77.8535	5,856.45	72.1245	5,856.45	75.2624	5,856.45	72.958	5,856.45	72.8302	5,856.45	71.4744	5,856.45	68.5859	5,856.45	72.522	5,856.45	67.8644	5,856.45	73.7027	5,856.45	70.2334	5,856.45	70.2388	5,856.45	71.6509	5,856.45	67.906	5,856.45	69.6098	5,856.45	71.1045
6,062.99	88.9005	6,062.99	90.0741	6,062.99	87.9269	6,062.99	89.4083	6,062.99	87.3154	6,062.99	87.2302	6,062.99	86.5244	6,062.99	85.6596	6,062.99	84.3294	6,062.99	85.9324	6,062.99	82.8691	6,062.99	84.13	6,062.99	82.2856	6,062.99	81.5625	6,062.99	80.85	6,062.99	79.5482	6,062.99	79.6498	6,062.99	76.0089	6,062.99	77.6086	6,062.99	74.8899	6,062.99	77.2353	6,062.99	71.428	6,062.99	75.1645	6,062.99	72.9318	6,062.99	69.7435	6,062.99	71.5389	6,062.99	66.1989	6,062.99	72.7581	6,062.99	69.4134	6,062.99	72.8942	6,062.99	69.9303	6,062.99	67.3176	6,062.99	71.8023	6,062.99	62.8077	6,062.99	68.8786	6,062.99	72.1057
6,276.86	89.3818	6,276.86	90.499	6,276.86	88.2809	6,276.86	90.1922	6,276.86	87.889	6,276.86	87.565	6,276.86	86.6096	6,276.86	85.7444	6,276.86	84.394	6,276.86	84.6009	6,276.86	83.0443	6,276.86	83.2456	6,276.86	82.3857	6,276.86	81.0694	6,276.86	80.8521	6,276.86	78.7132	6,276.86	79.2771	6,276.86	76.0141	6,276.86	77.3725	6,276.86	72.7856	6,276.86	77.6603	6,276.86	69.2443	6,276.86	75.703	6,276.86	69.9586	6,276.86	71.1351	6,276.86	72.0446	6,276.86	68.2058	6,276.86	71.6335	6,276.86	61.4589	6,276.86	72.7617	6,276.86	70.1611	6,276.86	65.5516	6,276.86	70.2446	6,276.86	66.5682	6,276.86	63.5873	6,276.86	72.3534
6,498.05	89.6766	6,498.05	90.3517	6,498.05	89.7207	6,498.05	89.2773	6,498.05	89.0983	6,498.05	86.6381	6,498.05	87.425	6,498.05	84.7875	6,498.05	85.4277	6,498.05	84.4182	6,498.05	84.5719	6,498.05	83.0722	6,498.05	83.3888	6,498.05	80.7764	6,498.05	81.926	6,498.05	78.4463	6,498.05	80.2397	6,498.05	75.8238	6,498.05	77.722	6,498.05	72.975	6,498.05	77.1092	6,498.05	70.1916	6,498.05	75.6271	6,498.05	67.9118	6,498.05	72.4161	6,498.05	70.0101	6,498.05	68.4173	6,498.05	71.2479	6,498.05	65.0621	6,498.05	72.7809	6,498.05	67.1929	6,498.05	67.4044	6,498.05	67.8407	6,498.05	65.8316	6,498.05	66.1139	6,498.05	71.2245
6,726.56	90.7422	6,726.56	89.8954	6,726.56	91.076	6,726.56	89.0357	6,726.56	89.7313	6,726.56	86.3261	6,726.56	88.1235	6,726.56	84.5825	6,726.56	86.6809	6,726.56	84.143	6,726.56	86.0217	6,726.56	82.8806	6,726.56	84.5513	6,726.56	80.627	6,726.56	81.912	6,726.56	79.5131	6,726.56	79.7259	6,726.56	77.071	6,726.56	77.3743	6,726.56	72.3377	6,726.56	76.4562	6,726.56	69.0047	6,726.56	75.3246	6,726.56	67.3652	6,726.56	69.4783	6,726.56	68.1496	6,726.56	68.0198	6,726.56	71.998	6,726.56	64.2835	6,726.56	73.0413	6,726.56	65.6202	6,726.56	67.7079	6,726.56	68.1868	6,726.56	67.919	6,726.56	63.7901	6,726.56	69.3208
6,963.87	91.4067	6,963.87	90.6551	6,963.87	91.3752	6,963.87	88.8417	6,963.87	90.4144	6,963.87	85.7313	6,963.87	88.7215	6,963.87	84.5807	6,963.87	87.6715	6,963.87	84.8883	6,963.87	86.6196	6,963.87	84.436	6,963.87	84.4623	6,963.87	82.6101	6,963.87	81.7776	6,963.87	79.8698	6,963.87	79.7917	6,963.87	76.3611	6,963.87	77.5389	6,963.87	73.9498	6,963.87	75.757	6,963.87	71.8466	6,963.87	75.1124	6,963.87	68.7939	6,963.87	72.0972	6,963.87	69.3545	6,963.87	69.4478	6,963.87	72.8989	6,963.87	60.0867	6,963.87	73.0043	6,963.87	68.2461	6,963.87	67.5115	6,963.87	69.2044	6,963.87	66.0647	6,963.87	61.4285	6,963.87	66.5725
7,209.96	92.3966	7,209.96	91.8282	7,209.96	92.3144	7,209.96	90.1159	7,209.96	90.749	7,209.96	86.2277	7,209.96	88.9065	7,209.96	84.4611	7,209.96	87.7033	7,209.96	85.3927	7,209.96	86.1782	7,209.96	85.4583	7,209.96	83.4801	7,209.96	83.6553	7,209.96	80.8637	7,209.96	80.6728	7,209.96	79.4947	7,209.96	78.671	7,209.96	77.2281	7,209.96	75.6592	7,209.96	76.7922	7,209.96	74.0765	7,209.96	76.562	7,209.96	71.4089	7,209.96	74.3395	7,209.96	70.0105	7,209.96	70.2903	7,209.96	73.139	7,209.96	62.5257	7,209.96	75.0877	7,209.96	67.2566	7,209.96	68.9065	7,209.96	68.3556	7,209.96	63.021	7,209.96	65.7906	7,209.96	67.8599
7,464.84	93.42	7,464.84	92.7339	7,464.84	93.1606	7,464.84	91.0104	7,464.84	91.2292	7,464.84	87.2615	7,464.84	88.143	7,464.84	84.4715	7,464.84	86.2068	7,464.84	85.7827	7,464.84	85.3441	7,464.84	85.8933	7,464.84	83.4469	7,464.84	84.4386	7,464.84	81.5345	7,464.84	81.9461	7,464.84	80.7469	7,464.84	79.1501	7,464.84	78.4613	7,464.84	75.9505	7,464.84	76.893	7,464.84	74.3517	7,464.84	75.7659	7,464.84	72.7896	7,464.84	73.5553	7,464.84	71.3074	7,464.84	71.674	7,464.84	73.2852	7,464.84	68.0268	7,464.84	75.3963	7,464.84	66.4518	7,464.84	70.3141	7,464.84	68.5917	7,464.84	55.1576	7,464.84	67.0445	7,464.84	69.9398
7,727.05	93.7263	7,727.05	93.1005	7,727.05	93.0656	7,727.05	91.8258	7,727.05	90.2392	7,727.05	88.442	7,727.05	86.8125	7,727.05	84.5213	7,727.05	85.1583	7,727.05	85.4634	7,727.05	85.1289	7,727.05	85.8583	7,727.05	85.1819	7,727.05	84.7872	7,727.05	83.4825	7,727.05	82.4002	7,727.05	82.2523	7,727.05	79.6364	7,727.05	80.386	7,727.05	75.3181	7,727.05	78.2386	7,727.05	73.5931	7,727.05	77.1774	7,727.05	73.0211	7,727.05	75.2132	7,727.05	70.1191	7,727.05	71.5658	7,727.05	72.3016	7,727.05	66.8525	7,727.05	74.0239	7,727.05	67.5254	7,727.05	69.6496	7,727.05	66.2462	7,727.05	55.0403	7,727.05	67.6769	7,727.05	71.5977
7,999.51	93.1712	7,999.51	92.558	7,999.51	92.1562	7,999.51	91.3609	7,999.51	88.9521	7,999.51	88.1385	7,999.51	86.0621	7,999.51	83.9195	7,999.51	85.5149	7,999.51	85.065	7,999.51	86.7575	7,999.51	85.7125	7,999.51	86.181	7,999.51	83.9932	7,999.51	83.8751	7,999.51	81.5342	7,999.51	82.273	7,999.51	79.2771	7,999.51	79.3223	7,999.51	75.6267	7,999.51	77.1518	7,999.51	72.7566	7,999.51	76.8152	7,999.51	71.0637	7,999.51	74.9283	7,999.51	70.3407	7,999.51	71.2906	7,999.51	71.2915	7,999.51	66.565	7,999.51	72.7808	7,999.51	65.7432	7,999.51	68.6504	7,999.51	63.7854	7,999.51	58.1084	7,999.51	65.4811	7,999.51	71.4278
8,282.23	92.7916	8,282.23	91.6637	8,282.23	91.8657	8,282.23	91.0408	8,282.23	89.1065	8,282.23	88.6901	8,282.23	87.8895	8,282.23	85.2807	8,282.23	86.2953	8,282.23	84.3975	8,282.23	86.3515	8,282.23	84.4208	8,282.23	86.2133	8,282.23	83.4692	8,282.23	83.9816	8,282.23	80.7751	8,282.23	81.4773	8,282.23	77.7825	8,282.23	78.2843	8,282.23	74.3066	8,282.23	76.6332	8,282.23	73.1226	8,282.23	75.9099	8,282.23	69.616	8,282.23	74.7454	8,282.23	69.9146	8,282.23	72.6016	8,282.23	71.6502	8,282.23	66.9585	8,282.23	72.0729	8,282.23	65.1363	8,282.23	67.9143	8,282.23	62.4901	8,282.23	56.3627	8,282.23	66.9961	8,282.23	67.1729
8,573.73	92.7604	8,573.73	91.1371	8,573.73	91.5133	8,573.73	89.933	8,573.73	89.3538	8,573.73	88.8855	8,573.73	87.7363	8,573.73	86.5601	8,573.73	86.3814	8,573.73	85.5935	8,573.73	86.7717	8,573.73	85.1782	8,573.73	86.1778	8,573.73	82.6159	8,573.73	83.8035	8,573.73	79.3768	8,573.73	81.6487	8,573.73	76.1453	8,573.73	78.8009	8,573.73	72.3887	8,573.73	76.0607	8,573.73	69.259	8,573.73	74.7823	8,573.73	66.9411	8,573.73	74.6055	8,573.73	67.3709	8,573.73	72.8611	8,573.73	69.8362	8,573.73	68.9445	8,573.73	71.0011	8,573.73	64.234	8,573.73	67.4625	8,573.73	65.3703	8,573.73	55.753	8,573.73	66.8168	8,573.73	66.503
8,876.95	92.3898	8,876.95	90.7482	8,876.95	91.2671	8,876.95	89.3872	8,876.95	89.5402	8,876.95	88.6743	8,876.95	87.8021	8,876.95	86.6245	8,876.95	86.9094	8,876.95	85.9597	8,876.95	86.6463	8,876.95	84.7928	8,876.95	86.0287	8,876.95	82.5266	8,876.95	83.5418	8,876.95	79.3917	8,876.95	81.1802	8,876.95	76.2363	8,876.95	77.4911	8,876.95	71.0627	8,876.95	75.746	8,876.95	70.0347	8,876.95	74.3512	8,876.95	64.581	8,876.95	73.4657	8,876.95	66.7079	8,876.95	70.8983	8,876.95	69.2887	8,876.95	69.2435	8,876.95	70.5795	8,876.95	62.2049	8,876.95	66.0013	8,876.95	62.6609	8,876.95	57.5741	8,876.95	65.9557	8,876.95	67.9854
9,188.96	91.7508	9,188.96	90.4693	9,188.96	91.0695	9,188.96	88.8789	9,188.96	89.5539	9,188.96	88.5949	9,188.96	87.3772	9,188.96	86.8038	9,188.96	87.2066	9,188.96	85.6406	9,188.96	86.7392	9,188.96	84.5371	9,188.96	85.4248	9,188.96	82.5222	9,188.96	82.3644	9,188.96	79.1805	9,188.96	80.0779	9,188.96	76.0258	9,188.96	77.5759	9,188.96	70.4161	9,188.96	73.8334	9,188.96	68.9895	9,188.96	72.6782	9,188.96	62.927	9,188.96	72.7954	9,188.96	64.596	9,188.96	70.4044	9,188.96	68.2227	9,188.96	69.4215	9,188.96	69.6548	9,188.96	57.0677	9,188.96	65.6947	9,188.96	58.8407	9,188.96	52.2944	9,188.96	65.2123	9,188.96	65.5556
9,514.16	91.5903	9,514.16	90.0049	9,514.16	91.3872	9,514.16	89.1804	9,514.16	89.566	9,514.16	88.7658	9,514.16	87.7394	9,514.16	87.001	9,514.16	87.6641	9,514.16	85.1045	9,514.16	86.5844	9,514.16	84.0886	9,514.16	84.3884	9,514.16	82.0142	9,514.16	81.4614	9,514.16	78.1291	9,514.16	79.8035	9,514.16	74.884	9,514.16	76.8487	9,514.16	70.4274	9,514.16	74.8293	9,514.16	70.0374	9,514.16	72.3742	9,514.16	64.887	9,514.16	72.135	9,514.16	67.2951	9,514.16	70.7549	9,514.16	67.9043	9,514.16	68.8907	9,514.16	68.1461	9,514.16	62.1254	9,514.16	62.7041	9,514.16	57.3888	9,514.16	58.0949	9,514.16	64.0042	9,514.16	64.5256
9,849.61	91.1067	9,849.61	89.7298	9,849.61	90.8097	9,849.61	89.1048	9,849.61	89.1575	9,849.61	89.1298	9,849.61	87.3743	9,849.61	87.8169	9,849.61	87.067	9,849.61	84.9145	9,849.61	85.554	9,849.61	83.0441	9,849.61	83.9445	9,849.61	80.809	9,849.61	81.6556	9,849.61	77.3179	9,849.61	79.8498	9,849.61	74.1451	9,849.61	76.3094	9,849.61	69.7758	9,849.61	74.3315	9,849.61	66.6758	9,849.61	71.4385	9,849.61	62.257	9,849.61	71.7562	9,849.61	64.9949	9,849.61	69.2452	9,849.61	67.6283	9,849.61	67.9615	9,849.61	67.5933	9,849.61	59.0158	9,849.61	59.126	9,849.61	61.1244	9,849.61	54.7526	9,849.61	63.0587	9,849.61	61.0464
10,196.8	90.5275	10,196.8	89.6698	10,196.8	90.0635	10,196.8	88.924	10,196.8	88.7209	10,196.8	88.9489	10,196.8	87.1508	10,196.8	86.9965	10,196.8	86.4382	10,196.8	84.8821	10,196.8	85.2317	10,196.8	83.4417	10,196.8	83.3515	10,196.8	80.035	10,196.8	79.9412	10,196.8	77.4108	10,196.8	77.9814	10,196.8	73.9808	10,196.8	74.1101	10,196.8	68.788	10,196.8	70.8139	10,196.8	66.3718	10,196.8	68.5597	10,196.8	63.9564	10,196.8	69.6129	10,196.8	63.3758	10,196.8	66.3055	10,196.8	64.6978	10,196.8	66.0008	10,196.8	66.3102	10,196.8	58.0146	10,196.8	58.7873	10,196.8	59.9866	10,196.8	58.1655	10,196.8	64.5137	10,196.8	60.8407
10,555.7	89.815	10,555.7	89.8006	10,555.7	89.1048	10,555.7	88.963	10,555.7	87.9447	10,555.7	88.8791	10,555.7	86.6757	10,555.7	86.5617	10,555.7	85.2852	10,555.7	84.5905	10,555.7	84.326	10,555.7	83.3769	10,555.7	82.4035	10,555.7	79.752	10,555.7	79.0123	10,555.7	77.2192	10,555.7	76.0517	10,555.7	73.1475	10,555.7	71.9669	10,555.7	69.0944	10,555.7	70.249	10,555.7	65.005	10,555.7	67.2976	10,555.7	63.9791	10,555.7	67.3537	10,555.7	62.4517	10,555.7	64.9268	10,555.7	63.816	10,555.7	64.0748	10,555.7	65.0713	10,555.7	59.4509	10,555.7	62.1473	10,555.7	61.2959	10,555.7	56.0728	10,555.7	62.781	10,555.7	55.3997
10,927.7	89.3318	10,927.7	89.708	10,927.7	88.6597	10,927.7	89.0107	10,927.7	87.7458	10,927.7	88.5564	10,927.7	86.7402	10,927.7	86.5303	10,927.7	84.7906	10,927.7	84.1842	10,927.7	84.1082	10,927.7	82.5497	10,927.7	81.7094	10,927.7	78.5555	10,927.7	77.8184	10,927.7	75.6857	10,927.7	74.7804	10,927.7	72.3871	10,927.7	71.5636	10,927.7	67.8153	10,927.7	68.1542	10,927.7	65.5974	10,927.7	67.3013	10,927.7	61.7582	10,927.7	62.655	10,927.7	59.8203	10,927.7	63.5872	10,927.7	61.5385	10,927.7	62.7434	10,927.7	63.6573	10,927.7	56.0675	10,927.7	61.8389	10,927.7	61.7073	10,927.7	58.6944	10,927.7	63.1989	10,927.7	56.4205
11,313	88.8292	11,313	89.4949	11,313	88.482	11,313	88.9605	11,313	87.6829	11,313	88.3178	11,313	87.1573	11,313	86.3733	11,313	85.0211	11,313	83.8839	11,313	83.7998	11,313	82.3905	11,313	80.2906	11,313	79.438	11,313	76.0079	11,313	75.6124	11,313	73.3674	11,313	72.4479	11,313	71.1673	11,313	67.1146	11,313	67.012	11,313	63.8915	11,313	67.1671	11,313	60.9204	11,313	60.4381	11,313	58.1987	11,313	63.5523	11,313	57.421	11,313	61.9901	11,313	63.0047	11,313	56.5924	11,313	61.6959	11,313	60.6866	11,313	58.7563	11,313	63.6724	11,313	61.8575
11,712.9	87.9148	11,712.9	88.8622	11,712.9	88.304	11,712.9	88.9971	11,712.9	87.9786	11,712.9	88.1197	11,712.9	87.16	11,712.9	86.2731	11,712.9	85.0138	11,712.9	83.3847	11,712.9	83.1393	11,712.9	81.7933	11,712.9	79.2433	11,712.9	78.9859	11,712.9	76.0952	11,712.9	74.6545	11,712.9	72.9734	11,712.9	70.8971	11,712.9	71.0915	11,712.9	66.6621	11,712.9	68.1711	11,712.9	64.2265	11,712.9	66.1465	11,712.9	58.615	11,712.9	63.8496	11,712.9	57.5849	11,712.9	65.7034	11,712.9	59.1547	11,712.9	59.2053	11,712.9	62.3793	11,712.9	59.4208	11,712.9	58.2735	11,712.9	59.74	11,712.9	58.3752	11,712.9	63.0121	11,712.9	59.6484
12,126	87.3013	12,126	87.9951	12,126	87.9431	12,126	88.6704	12,126	88.0687	12,126	87.8067	12,126	86.9208	12,126	85.9304	12,126	84.2717	12,126	82.7215	12,126	82.0691	12,126	80.7536	12,126	78.9717	12,126	77.6104	12,126	75.4064	12,126	73.6088	12,126	72.9127	12,126	70.3657	12,126	70.1701	12,126	64.0184	12,126	66.9697	12,126	64.6541	12,126	65.5974	12,126	57.7429	12,126	62.9083	12,126	55.8008	12,126	64.421	12,126	56.3264	12,126	60.0454	12,126	60.3639	12,126	59.9453	12,126	56.3568	12,126	55.9634	12,126	53.0662	12,126	59.0075	12,126	55.6636
12,553.7	86.8663	12,553.7	87.5983	12,553.7	87.3889	12,553.7	87.9474	12,553.7	87.6847	12,553.7	86.8217	12,553.7	86.1881	12,553.7	84.7429	12,553.7	83.5002	12,553.7	81.8428	12,553.7	81.0909	12,553.7	79.1757	12,553.7	78.2953	12,553.7	75.3401	12,553.7	73.3403	12,553.7	71.1597	12,553.7	71.0023	12,553.7	68.5321	12,553.7	68.2258	12,553.7	62.3804	12,553.7	64.4773	12,553.7	63.5229	12,553.7	62.0021	12,553.7	54.6372	12,553.7	58.412	12,553.7	54.3502	12,553.7	62.9304	12,553.7	52.7326	12,553.7	58.9442	12,553.7	56.9935	12,553.7	58.0497	12,553.7	48.5493	12,553.7	53.4312	12,553.7	45.7645	12,553.7	55.5795	12,553.7	45.6148
12,996.1	86.4436	12,996.1	87.158	12,996.1	86.8112	12,996.1	87.1427	12,996.1	87.0334	12,996.1	85.4291	12,996.1	85.6726	12,996.1	83.3722	12,996.1	82.6366	12,996.1	80.326	12,996.1	79.7446	12,996.1	77.2529	12,996.1	76.1743	12,996.1	73.6651	12,996.1	70.6704	12,996.1	69.018	12,996.1	67.4657	12,996.1	65.8511	12,996.1	64.5122	12,996.1	60.9177	12,996.1	60.0741	12,996.1	60.8433	12,996.1	60.6241	12,996.1	48.6762	12,996.1	57.0589	12,996.1	49.4789	12,996.1	61.6082	12,996.1	51.0655	12,996.1	58.4952	12,996.1	54.4887	12,996.1	56.5526	12,996.1	49.4716	12,996.1	55.2134	12,996.1	48.0569	12,996.1	48.9165	12,996.1	48.1603
13,454.6	85.5523	13,454.6	86.4167	13,454.6	86.2269	13,454.6	86.2813	13,454.6	86.277	13,454.6	84.331	13,454.6	84.6749	13,454.6	82.1751	13,454.6	81.2705	13,454.6	78.9344	13,454.6	77.041	13,454.6	76.0344	13,454.6	72.8279	13,454.6	72.1022	13,454.6	69.2786	13,454.6	67.8029	13,454.6	65.8559	13,454.6	63.5768	13,454.6	63.7743	13,454.6	59.8414	13,454.6	61.4006	13,454.6	59.6221	13,454.6	60.4244	13,454.6	43.9768	13,454.6	57.1654	13,454.6	38.636	13,454.6	58.9902	13,454.6	49.2317	13,454.6	56.5745	13,454.6	52.5266	13,454.6	54.602	13,454.6	41.8995	13,454.6	55.813	13,454.6	47.8244	13,454.6	43.4324	13,454.6	49.3873
13,929.2	85.0577	13,929.2	85.5425	13,929.2	85.7585	13,929.2	85.5088	13,929.2	85.2603	13,929.2	83.5877	13,929.2	83.5295	13,929.2	80.9864	13,929.2	79.0111	13,929.2	77.3478	13,929.2	75.1772	13,929.2	74.3972	13,929.2	70.7964	13,929.2	70.2212	13,929.2	66.1069	13,929.2	65.1876	13,929.2	62.3121	13,929.2	60.5514	13,929.2	61.4049	13,929.2	56.7157	13,929.2	58.1308	13,929.2	56.3119	13,929.2	56.4706	13,929.2	50.6364	13,929.2	53.6393	13,929.2	43.4086	13,929.2	54.5133	13,929.2	50.4684	13,929.2	51.7112	13,929.2	45.8715	13,929.2	53.4286	13,929.2	41.8559	13,929.2	52.0671	13,929.2	43.8459	13,929.2	41.343	13,929.2	45.3711
14,419.9	84.5146	14,419.9	84.8512	14,419.9	84.9568	14,419.9	84.677	14,419.9	84.6452	14,419.9	82.4987	14,419.9	82.3398	14,419.9	79.2296	14,419.9	77.5869	14,419.9	75.0879	14,419.9	74.1193	14,419.9	71.1757	14,419.9	68.824	14,419.9	66.1972	14,419.9	63.5802	14,419.9	60.2618	14,419.9	61.5311	14,419.9	56.2233	14,419.9	58.8106	14,419.9	54.03	14,419.9	56.3823	14,419.9	50.248	14,419.9	55.2354	14,419.9	43.6208	14,419.9	52.9149	14,419.9	45.2984	14,419.9	55.8629	14,419.9	46.4277	14,419.9	52.6091	14,419.9	46.4711	14,419.9	53.2766	14,419.9	37.3534	14,419.9	49.9189	14,419.9	43.855	14,419.9	44.2307	14,419.9	42.2554
14,928.2	84.0361	14,928.2	84.3231	14,928.2	84.4292	14,928.2	83.815	14,928.2	84.2655	14,928.2	80.9472	14,928.2	81.725	14,928.2	76.8747	14,928.2	77.2457	14,928.2	72.7969	14,928.2	72.7342	14,928.2	66.324	14,928.2	67.0529	14,928.2	57.4431	14,928.2	62.6744	14,928.2	32.2789	14,928.2	58.7919	14,928.2	47.1403	14,928.2	57.3439	14,928.2	41.6735	14,928.2	56.4013	14,928.2	35.3251	14,928.2	54.6051	14,928.2	34.5291	14,928.2	50.9564	14,928.2	34.8782	14,928.2	54.8733	14,928.2	30.8922	14,928.2	49.4076	14,928.2	44.8937	14,928.2	52.7795	14,928.2	32.2679	14,928.2	49.3356	14,928.2	44.6402	14,928.2	45.977	14,928.2	48.0781
15,455.6	83.7064	15,455.6	84.1333	15,455.6	84.3089	15,455.6	83.2423	15,455.6	84.0717	15,455.6	79.665	15,455.6	81.0314	15,455.6	75.2004	15,455.6	76.0723	15,455.6	69.7101	15,455.6	70.8883	15,455.6	61.4206	15,455.6	63.0489	15,455.6	54.099	15,455.6	55.3373	15,455.6	59.1708	15,455.6	54.8002	15,455.6	54.9175	15,455.6	55.541	15,455.6	48.817	15,455.6	54.8152	15,455.6	47.1925	15,455.6	52.8019	15,455.6	37.4999	15,455.6	50.6938	15,455.6	39.5112	15,455.6	53.6091	15,455.6	40.1515	15,455.6	53.8923	15,455.6	41.9668	15,455.6	51.7577	15,455.6	24.9897	15,455.6	44.8167	15,455.6	35.8775	15,455.6	45.447	15,455.6	47.0079
16,000.5	83.5256	16,000.5	84.0456	16,000.5	84.1594	16,000.5	83.2168	16,000.5	83.8159	16,000.5	78.7535	16,000.5	80.3241	16,000.5	73.759	16,000.5	74.4111	16,000.5	67.3644	16,000.5	69.3635	16,000.5	61.3072	16,000.5	60.6348	16,000.5	59.3553	16,000.5	63.9714	16,000.5	62.2147	16,000.5	64.0908	16,000.5	59.3497	16,000.5	62.4441	16,000.5	53.5105	16,000.5	60.6734	16,000.5	50.9197	16,000.5	58.3681	16,000.5	49.2741	16,000.5	56.4976	16,000.5	46.7717	16,000.5	52.8073	16,000.5	34.3341	16,000.5	55.9673	16,000.5	44.4752	16,000.5	52.8538	16,000.5	34.941	16,000.5	42.4699	16,000.5	41.9782	16,000.5	43.674	16,000.5	48.6244
16,564.5	83.577	16,564.5	84.1293	16,564.5	84.1247	16,564.5	83.2717	16,564.5	83.672	16,564.5	78.3325	16,564.5	79.6518	16,564.5	72.9029	16,564.5	73.2932	16,564.5	66.3739	16,564.5	68.3596	16,564.5	62.2399	16,564.5	64.1708	16,564.5	65.3684	16,564.5	68.7553	16,564.5	64.9693	16,564.5	68.2994	16,564.5	61.4691	16,564.5	66.4993	16,564.5	56.9316	16,564.5	64.247	16,564.5	52.8659	16,564.5	61.4711	16,564.5	52.8814	16,564.5	59.6696	16,564.5	48.9588	16,564.5	57.6191	16,564.5	33.7669	16,564.5	57.1077	16,564.5	45.8879	16,564.5	54.6234	16,564.5	31.0291	16,564.5	44.9548	16,564.5	45.3171	16,564.5	42.849	16,564.5	50.1097
17,148.9	84.4624	17,148.9	84.1853	17,148.9	84.3193	17,148.9	83.1918	17,148.9	83.6075	17,148.9	78.3497	17,148.9	79.6118	17,148.9	73.0434	17,148.9	74.0007	17,148.9	63.7236	17,148.9	68.7773	17,148.9	65.2675	17,148.9	69.0041	17,148.9	69.9007	17,148.9	71.39	17,148.9	68.7785	17,148.9	70.4954	17,148.9	64.2439	17,148.9	68.5306	17,148.9	59.0762	17,148.9	66.1972	17,148.9	55.87	17,148.9	62.9482	17,148.9	55.6164	17,148.9	60.701	17,148.9	49.4067	17,148.9	59.2773	17,148.9	43.4653	17,148.9	60.335	17,148.9	45.6378	17,148.9	55.8532	17,148.9	47.2022	17,148.9	45.0655	17,148.9	48.1293	17,148.9	43.4611	17,148.9	49.1946
17,752.4	85.4162	17,752.4	83.9423	17,752.4	84.5996	17,752.4	82.8798	17,752.4	82.9419	17,752.4	79.0977	17,752.4	79.896	17,752.4	73.7168	17,752.4	74.9699	17,752.4	63.743	17,752.4	69.8698	17,752.4	69.9882	17,752.4	70.922	17,752.4	72.2086	17,752.4	73.3082	17,752.4	70.8335	17,752.4	71.61	17,752.4	65.7646	17,752.4	69.1257	17,752.4	59.984	17,752.4	67.032	17,752.4	56.5017	17,752.4	64.0003	17,752.4	56.0661	17,752.4	60.8404	17,752.4	47.3405	17,752.4	58.839	17,752.4	44.8468	17,752.4	60.4261	17,752.4	44.8362	17,752.4	55.5356	17,752.4	50.8435	17,752.4	44.05	17,752.4	49.0904	17,752.4	44.1157	17,752.4	50.2057
18,379.4	85.8767	18,379.4	83.1707	18,379.4	84.4227	18,379.4	82.0924	18,379.4	81.7699	18,379.4	79.1678	18,379.4	79.522	18,379.4	73.5829	18,379.4	75.1955	18,379.4	68.4903	18,379.4	70.9183	18,379.4	72.4519	18,379.4	73.2243	18,379.4	72.8465	18,379.4	74.3652	18,379.4	71.1571	18,379.4	72.1379	18,379.4	64.7661	18,379.4	69.3736	18,379.4	59.9847	18,379.4	67.0556	18,379.4	56.3471	18,379.4	64.0086	18,379.4	54.1647	18,379.4	60.4918	18,379.4	48.3852	18,379.4	59.8056	18,379.4	43.9993	18,379.4	59.2639	18,379.4	38.8021	18,379.4	56.3845	18,379.4	51.352	18,379.4	47.5731	18,379.4	50.0253	18,379.4	48.3603	18,379.4	51.4042
19,026.9	84.8807	19,026.9	81.2149	19,026.9	83.0286	19,026.9	79.6828	19,026.9	79.1498	19,026.9	76.8207	19,026.9	78.3204	19,026.9	71.1823	19,026.9	74.0668	19,026.9	71.4936	19,026.9	72.6293	19,026.9	72.353	19,026.9	72.7284	19,026.9	70.7145	19,026.9	73.0382	19,026.9	68.1551	19,026.9	70.6363	19,026.9	61.9514	19,026.9	67.3519	19,026.9	57.1229	19,026.9	65.7348	19,026.9	52.753	19,026.9	61.9865	19,026.9	51.6537	19,026.9	59.6582	19,026.9	46.8159	19,026.9	58.3839	19,026.9	42.4341	19,026.9	58.3558	19,026.9	33.1023	19,026.9	56.1808	19,026.9	49.67	19,026.9	45.1343	19,026.9	49.1174	19,026.9	50.4738	19,026.9	51.4108
19,697.8	82.2798	19,697.8	77.622	19,697.8	80.1181	19,697.8	75.4449	19,697.8	75.3972	19,697.8	72.3528	19,697.8	75.5817	19,697.8	69.1604	19,697.8	71.3563	19,697.8	71.4026	19,697.8	72.3142	19,697.8	69.7746	19,697.8	70.5054	19,697.8	66.9209	19,697.8	70.2617	19,697.8	63.0661	19,697.8	66.6337	19,697.8	58.3408	19,697.8	63.3749	19,697.8	53.8334	19,697.8	61.6957	19,697.8	51.8297	19,697.8	58.2499	19,697.8	46.9637	19,697.8	55.1829	19,697.8	41.5405	19,697.8	54.3259	19,697.8	34.7247	19,697.8	52.2497	19,697.8	35.8287	19,697.8	51.7763	19,697.8	45.1782	19,697.8	41.3867	19,697.8	44.6409	19,697.8	49.0802	19,697.8	48.2816
19,999.5	80.7113	19,999.5	75.4269	19,999.5	78.2593	19,999.5	72.9388	19,999.5	73.2944	19,999.5	69.9541	19,999.5	73.5214	19,999.5	69.342	19,999.5	70.2586	19,999.5	71.0274	19,999.5	71.0773	19,999.5	67.9245	19,999.5	69.7708	19,999.5	64.4074	19,999.5	68.3747	19,999.5	61.504	19,999.5	64.4688	19,999.5	57.3431	19,999.5	61.4175	19,999.5	54.0604	19,999.5	59.5107	19,999.5	54.8198	19,999.5	55.2729	19,999.5	48.2599	19,999.5	52.1433	19,999.5	44.7293	19,999.5	53.8798	19,999.5	24.2782	19,999.5	46.8951	19,999.5	42.5625	19,999.5	52.8634	19,999.5	48.894	19,999.5	42.1435	19,999.5	43.5593	19,999.5	50.7256	19,999.5	46.4726
