"SPL Vertical"																																																																							
"On-Axis"		"10°"		"-10°"		"20°"		"-20°"		"30°"		"-30°"		"40°"		"-40°"		"50°"		"-50°"		"60°"		"-60°"		"70°"		"-70°"		"80°"		"-80°"		"90°"		"-90°"		"100°"		"-100°"		"110°"		"-110°"		"120°"		"-120°"		"130°"		"-130°"		"140°"		"-140°"		"150°"		"-150°"		"160°"		"-160°"		"170°"		"-170°"		"180°"	
"Frequency [Hz]"	"Sound Pessure Level [dB]  / [2.83V 1m] "	"Frequency [Hz]"	"Sound Pessure Level [dB]  / [2.83V 1m] "	"Frequency [Hz]"	"Sound Pessure Level [dB]  / [2.83V 1m] "	"Frequency [Hz]"	"Sound Pessure Level [dB]  / [2.83V 1m] "	"Frequency [Hz]"	"Sound Pessure Level [dB]  / [2.83V 1m] "	"Frequency [Hz]"	"Sound Pessure Level [dB]  / [2.83V 1m] "	"Frequency [Hz]"	"Sound Pessure Level [dB]  / [2.83V 1m] "	"Frequency [Hz]"	"Sound Pessure Level [dB]  / [2.83V 1m] "	"Frequency [Hz]"	"Sound Pessure Level [dB]  / [2.83V 1m] "	"Frequency [Hz]"	"Sound Pessure Level [dB]  / [2.83V 1m] "	"Frequency [Hz]"	"Sound Pessure Level [dB]  / [2.83V 1m] "	"Frequency [Hz]"	"Sound Pessure Level [dB]  / [2.83V 1m] "	"Frequency [Hz]"	"Sound Pessure Level [dB]  / [2.83V 1m] "	"Frequency [Hz]"	"Sound Pessure Level [dB]  / [2.83V 1m] "	"Frequency [Hz]"	"Sound Pessure Level [dB]  / [2.83V 1m] "	"Frequency [Hz]"	"Sound Pessure Level [dB]  / [2.83V 1m] "	"Frequency [Hz]"	"Sound Pessure Level [dB]  / [2.83V 1m] "	"Frequency [Hz]"	"Sound Pessure Level [dB]  / [2.83V 1m] "	"Frequency [Hz]"	"Sound Pessure Level [dB]  / [2.83V 1m] "	"Frequency [Hz]"	"Sound Pessure Level [dB]  / [2.83V 1m] "	"Frequency [Hz]"	"Sound Pessure Level [dB]  / [2.83V 1m] "	"Frequency [Hz]"	"Sound Pessure Level [dB]  / [2.83V 1m] "	"Frequency [Hz]"	"Sound Pessure Level [dB]  / [2.83V 1m] "	"Frequency [Hz]"	"Sound Pessure Level [dB]  / [2.83V 1m] "	"Frequency [Hz]"	"Sound Pessure Level [dB]  / [2.83V 1m] "	"Frequency [Hz]"	"Sound Pessure Level [dB]  / [2.83V 1m] "	"Frequency [Hz]"	"Sound Pessure Level [dB]  / [2.83V 1m] "	"Frequency [Hz]"	"Sound Pessure Level [dB]  / [2.83V 1m] "	"Frequency [Hz]"	"Sound Pessure Level [dB]  / [2.83V 1m] "	"Frequency [Hz]"	"Sound Pessure Level [dB]  / [2.83V 1m] "	"Frequency [Hz]"	"Sound Pessure Level [dB]  / [2.83V 1m] "	"Frequency [Hz]"	"Sound Pessure Level [dB]  / [2.83V 1m] "	"Frequency [Hz]"	"Sound Pessure Level [dB]  / [2.83V 1m] "	"Frequency [Hz]"	"Sound Pessure Level [dB]  / [2.83V 1m] "	"Frequency [Hz]"	"Sound Pessure Level [dB]  / [2.83V 1m] "	"Frequency [Hz]"	"Sound Pessure Level [dB]  / [2.83V 1m] "
20.5078	43.7571	20.5078	43.6698	20.5078	43.8244	20.5078	43.5637	20.5078	43.8729	20.5078	43.4434	20.5078	43.906	20.5078	43.3163	20.5078	43.9273	20.5078	43.1916	20.5078	43.9403	20.5078	43.0792	20.5078	43.9476	20.5078	42.9879	20.5078	43.9508	20.5078	42.9244	20.5078	43.9506	20.5078	42.8925	20.5078	43.9476	20.5078	42.8929	20.5078	43.9415	20.5078	42.9239	20.5078	43.9316	20.5078	42.9816	20.5078	43.9162	20.5078	43.061	20.5078	43.893	20.5078	43.1565	20.5078	43.8591	20.5078	43.2622	20.5078	43.8119	20.5078	43.372	20.5078	43.7499	20.5078	43.4802	20.5078	43.6728	20.5078	43.5819
21.9727	33.5376	21.9727	32.8367	21.9727	34.1817	21.9727	32.0905	21.9727	34.7558	21.9727	31.307	21.9727	35.2472	21.9727	30.4898	21.9727	35.6454	21.9727	29.6378	21.9727	35.9437	21.9727	28.7467	21.9727	36.1388	21.9727	27.8106	21.9727	36.2302	21.9727	26.826	21.9727	36.2182	21.9727	25.7999	21.9727	36.1022	21.9727	24.767	21.9727	35.8789	21.9727	23.8206	21.9727	35.5419	21.9727	23.151	21.9727	35.0819	21.9727	23.0213	21.9727	34.4882	21.9727	23.5921	21.9727	33.7499	21.9727	24.7501	21.9727	32.8585	21.9727	26.2178	21.9727	31.8084	21.9727	27.7596	21.9727	30.5996	21.9727	29.2412
23.4375	42.5617	23.4375	42.3259	23.4375	42.7435	23.4375	42.0393	23.4375	42.8702	23.4375	41.7072	23.4375	42.9421	23.4375	41.3374	23.4375	42.9607	23.4375	40.9404	23.4375	42.9279	23.4375	40.5289	23.4375	42.8461	23.4375	40.1176	23.4375	42.7177	23.4375	39.7232	23.4375	42.5454	23.4375	39.3632	23.4375	42.3325	23.4375	39.055	23.4375	42.0828	23.4375	38.8148	23.4375	41.8007	23.4375	38.6553	23.4375	41.4916	23.4375	38.5845	23.4375	41.1609	23.4375	38.6044	23.4375	40.8151	23.4375	38.7106	23.4375	40.4607	23.4375	38.8932	23.4375	40.1057	23.4375	39.1389	23.4375	39.7592	23.4375	39.4325
24.9023	38.303	24.9023	37.8121	24.9023	38.7233	24.9023	37.2559	24.9023	39.0707	24.9023	36.644	24.9023	39.3442	24.9023	35.9921	24.9023	39.5436	24.9023	35.3225	24.9023	39.6685	24.9023	34.6645	24.9023	39.7189	24.9023	34.0521	24.9023	39.695	24.9023	33.5207	24.9023	39.598	24.9023	33.1012	24.9023	39.4298	24.9023	32.8163	24.9023	39.1925	24.9023	32.6772	24.9023	38.8883	24.9023	32.6857	24.9023	38.5191	24.9023	32.8365	24.9023	38.0868	24.9023	33.1195	24.9023	37.5945	24.9023	33.5199	24.9023	37.0476	24.9023	34.0178	24.9023	36.4559	24.9023	34.5883	24.9023	35.8342	24.9023	35.2032
26.3672	42.9149	26.3672	42.907	26.3672	42.9466	26.3672	42.9178	26.3672	43.0058	26.3672	42.942	26.3672	43.093	26.3672	42.9746	26.3672	43.2053	26.3672	43.0117	26.3672	43.3356	26.3672	43.0503	26.3672	43.4739	26.3672	43.0884	26.3672	43.6091	26.3672	43.1249	26.3672	43.73	26.3672	43.1595	26.3672	43.8279	26.3672	43.1925	26.3672	43.8964	26.3672	43.2247	26.3672	43.9327	26.3672	43.2576	26.3672	43.9369	26.3672	43.2928	26.3672	43.912	26.3672	43.3325	26.3672	43.8633	26.3672	43.3784	26.3672	43.7974	26.3672	43.4323	26.3672	43.7215	26.3672	43.4947	26.3672	43.6423	26.3672	43.5654
27.832	44.963	27.832	44.8829	27.832	45.0349	27.832	44.7953	27.832	45.0978	27.832	44.7012	27.832	45.1505	27.832	44.6019	27.832	45.1914	27.832	44.4988	27.832	45.2183	27.832	44.3936	27.832	45.2281	27.832	44.2885	27.832	45.2176	27.832	44.1855	27.832	45.1837	27.832	44.0875	27.832	45.1245	27.832	43.9972	27.832	45.0392	27.832	43.9179	27.832	44.9295	27.832	43.8532	27.832	44.7987	27.832	43.8067	27.832	44.6525	27.832	43.7821	27.832	44.4978	27.832	43.7825	27.832	44.3426	27.832	43.8104	27.832	44.1951	27.832	43.8671	27.832	44.0629	27.832	43.952
29.2969	45.9224	29.2969	45.9739	29.2969	45.8798	29.2969	46.0296	29.2969	45.8493	29.2969	46.0839	29.2969	45.8317	29.2969	46.1314	29.2969	45.8263	29.2969	46.1672	29.2969	45.8302	29.2969	46.1879	29.2969	45.8398	29.2969	46.1918	29.2969	45.8509	29.2969	46.1787	29.2969	45.8595	29.2969	46.1502	29.2969	45.8627	29.2969	46.109	29.2969	45.8587	29.2969	46.0588	29.2969	45.8476	29.2969	46.0038	29.2969	45.8306	29.2969	45.948	29.2969	45.8103	29.2969	45.8951	29.2969	45.7898	29.2969	45.8485	29.2969	45.7725	29.2969	45.8104	29.2969	45.7612	29.2969	45.7823	29.2969	45.7581	29.2969	45.7649
30.7617	50.1952	30.7617	50.2652	30.7617	50.1118	30.7617	50.3185	30.7617	50.0186	30.7617	50.3521	30.7617	49.9195	30.7617	50.3641	30.7617	49.8176	30.7617	50.3533	30.7617	49.7156	30.7617	50.3195	30.7617	49.6153	30.7617	50.2634	30.7617	49.5181	30.7617	50.1865	30.7617	49.4246	30.7617	50.0911	30.7617	49.3353	30.7617	49.9801	30.7617	49.251	30.7617	49.8571	30.7617	49.1729	30.7617	49.7263	30.7617	49.1032	30.7617	49.5923	30.7617	49.0449	30.7617	49.4601	30.7617	49.0021	30.7617	49.3351	30.7617	48.9787	30.7617	49.2224	30.7617	48.9781	30.7617	49.1269	30.7617	49.0026	30.7617	49.0526
32.2266	52.4808	32.2266	52.5431	32.2266	52.4129	32.2266	52.5973	32.2266	52.3419	32.2266	52.6412	32.2266	52.2702	32.2266	52.673	32.2266	52.2003	32.2266	52.691	32.2266	52.1341	32.2266	52.6943	32.2266	52.0733	32.2266	52.6821	32.2266	52.0189	32.2266	52.6547	32.2266	51.9715	32.2266	52.6127	32.2266	51.9314	32.2266	52.5574	32.2266	51.8986	32.2266	52.491	32.2266	51.8735	32.2266	52.416	32.2266	51.8564	32.2266	52.3355	32.2266	51.8479	32.2266	52.2529	32.2266	51.8491	32.2266	52.1717	32.2266	51.8609	32.2266	52.0951	32.2266	51.8842	32.2266	52.0263	32.2266	51.9197	32.2266	51.9673
33.6914	54.6672	33.6914	54.765	33.6914	54.5704	33.6914	54.8599	33.6914	54.4778	33.6914	54.9478	33.6914	54.3918	33.6914	55.0248	33.6914	54.3136	33.6914	55.0872	33.6914	54.2437	33.6914	55.1322	33.6914	54.182	33.6914	55.1578	33.6914	54.1283	33.6914	55.163	33.6914	54.0826	33.6914	55.1473	33.6914	54.0455	33.6914	55.1112	33.6914	54.0184	33.6914	55.0559	33.6914	54.0031	33.6914	54.9832	33.6914	54.0019	33.6914	54.8956	33.6914	54.0169	33.6914	54.7961	33.6914	54.0498	33.6914	54.6882	33.6914	54.1014	33.6914	54.5758	33.6914	54.1711	33.6914	54.4635	33.6914	54.2569	33.6914	54.3557
35.1562	57.8028	35.1562	57.8809	35.1562	57.7245	35.1562	57.955	35.1562	57.6494	35.1562	58.0219	35.1562	57.5805	35.1562	58.0784	35.1562	57.5199	35.1562	58.1225	35.1562	57.4687	35.1562	58.1525	35.1562	57.4271	35.1562	58.1677	35.1562	57.3947	35.1562	58.1677	35.1562	57.3707	35.1562	58.153	35.1562	57.3546	35.1562	58.1243	35.1562	57.3461	35.1562	58.0831	35.1562	57.3455	35.1562	58.0308	35.1562	57.3535	35.1562	57.9695	35.1562	57.3709	35.1562	57.9012	35.1562	57.3984	35.1562	57.8283	35.1562	57.4365	35.1562	57.7534	35.1562	57.4849	35.1562	57.6792	35.1562	57.5426	35.1562	57.6081
36.6211	59.7962	36.6211	59.8668	36.6211	59.7208	36.6211	59.9297	36.6211	59.6442	36.6211	59.9821	36.6211	59.5695	36.6211	60.0222	36.6211	59.4998	36.6211	60.0485	36.6211	59.4374	36.6211	60.0605	36.6211	59.3839	36.6211	60.058	36.6211	59.34	36.6211	60.0415	36.6211	59.3056	36.6211	60.0119	36.6211	59.2806	36.6211	59.9705	36.6211	59.2646	36.6211	59.919	36.6211	59.2573	36.6211	59.8594	36.6211	59.2588	36.6211	59.7937	36.6211	59.2693	36.6211	59.7245	36.6211	59.2888	36.6211	59.6539	36.6211	59.3176	36.6211	59.5843	36.6211	59.3555	36.6211	59.518	36.6211	59.4022	36.6211	59.4567
38.0859	62.1615	38.0859	62.2311	38.0859	62.0865	38.0859	62.2921	38.0859	62.0094	38.0859	62.342	38.0859	61.9335	38.0859	62.3787	38.0859	61.8616	38.0859	62.4008	38.0859	61.7961	38.0859	62.4077	38.0859	61.7384	38.0859	62.3994	38.0859	61.6894	38.0859	62.3766	38.0859	61.6491	38.0859	62.3405	38.0859	61.6176	38.0859	62.2925	38.0859	61.5947	38.0859	62.2346	38.0859	61.5804	38.0859	62.1689	38.0859	61.5751	38.0859	62.098	38.0859	61.5791	38.0859	62.0241	38.0859	61.5929	38.0859	61.95	38.0859	61.6169	38.0859	61.8779	38.0859	61.6512	38.0859	61.8102	38.0859	61.6954	38.0859	61.7488
39.5508	64.3649	39.5508	64.4234	39.5508	64.2988	39.5508	64.4719	39.5508	64.2279	39.5508	64.5082	39.5508	64.155	39.5508	64.5308	39.5508	64.0828	39.5508	64.5389	39.5508	64.0134	39.5508	64.5322	39.5508	63.9485	39.5508	64.5111	39.5508	63.8892	39.5508	64.4764	39.5508	63.8363	39.5508	64.4296	39.5508	63.7902	39.5508	64.3723	39.5508	63.7515	39.5508	64.3066	39.5508	63.721	39.5508	64.2345	39.5508	63.6994	39.5508	64.1587	39.5508	63.6879	39.5508	64.0814	39.5508	63.6876	39.5508	64.0052	39.5508	63.6993	39.5508	63.9328	39.5508	63.7236	39.5508	63.8663	39.5508	63.7601	39.5508	63.8082
41.0156	66.2992	41.0156	66.3499	41.0156	66.2414	41.0156	66.3912	41.0156	66.1786	41.0156	66.4214	41.0156	66.1136	41.0156	66.4393	41.0156	66.0487	41.0156	66.4445	41.0156	65.9859	41.0156	66.4367	41.0156	65.9272	41.0156	66.4166	41.0156	65.8736	41.0156	66.385	41.0156	65.8263	41.0156	66.3433	41.0156	65.7858	41.0156	66.2932	41.0156	65.7527	41.0156	66.2363	41.0156	65.7278	41.0156	66.1749	41.0156	65.7115	41.0156	66.1108	41.0156	65.7047	41.0156	66.0462	41.0156	65.7077	41.0156	65.9828	41.0156	65.7208	41.0156	65.9226	41.0156	65.7439	41.0156	65.8672	41.0156	65.7766	41.0156	65.8181
42.4805	68.425	42.4805	68.4645	42.4805	68.3745	42.4805	68.4915	42.4805	68.3152	42.4805	68.5047	42.4805	68.249	42.4805	68.5033	42.4805	68.178	42.4805	68.487	42.4805	68.1042	42.4805	68.4561	42.4805	68.0291	42.4805	68.4114	42.4805	67.9543	42.4805	68.3541	42.4805	67.8811	42.4805	68.286	42.4805	67.8107	42.4805	68.209	42.4805	67.7448	42.4805	68.1257	42.4805	67.6851	42.4805	68.0387	42.4805	67.6338	42.4805	67.9509	42.4805	67.5929	42.4805	67.8654	42.4805	67.5647	42.4805	67.7852	42.4805	67.5509	42.4805	67.7132	42.4805	67.5526	42.4805	67.652	42.4805	67.5703	42.4805	67.6038
43.9453	70.1834	43.9453	70.2082	43.9453	70.1493	43.9453	70.2228	43.9453	70.1072	43.9453	70.2263	43.9453	70.0583	43.9453	70.2182	43.9453	70.0038	43.9453	70.1982	43.9453	69.9448	43.9453	70.1664	43.9453	69.8822	43.9453	70.1235	43.9453	69.817	43.9453	70.0703	43.9453	69.7501	43.9453	70.0081	43.9453	69.6829	43.9453	69.9385	43.9453	69.6168	43.9453	69.8635	43.9453	69.554	43.9453	69.7854	43.9453	69.4969	43.9453	69.7068	43.9453	69.4482	43.9453	69.6306	43.9453	69.4105	43.9453	69.5596	43.9453	69.3863	43.9453	69.497	43.9453	69.3772	43.9453	69.4454	43.9453	69.3842	43.9453	69.4072
45.4102	71.702	45.4102	71.722	45.4102	71.677	45.4102	71.7362	45.4102	71.6478	45.4102	71.7438	45.4102	71.6149	45.4102	71.7442	45.4102	71.5789	45.4102	71.7369	45.4102	71.54	45.4102	71.7216	45.4102	71.4985	45.4102	71.6985	45.4102	71.4547	45.4102	71.6677	45.4102	71.4093	45.4102	71.6299	45.4102	71.363	45.4102	71.586	45.4102	71.3172	45.4102	71.5369	45.4102	71.2736	45.4102	71.4842	45.4102	71.2344	45.4102	71.4293	45.4102	71.2018	45.4102	71.3742	45.4102	71.1779	45.4102	71.3211	45.4102	71.1646	45.4102	71.2723	45.4102	71.1632	45.4102	71.2301	45.4102	71.1741	45.4102	71.1968
46.875	72.9573	46.875	72.9784	46.875	72.9384	46.875	73.0002	46.875	72.9228	46.875	73.0214	46.875	72.9116	46.875	73.0407	46.875	72.9052	46.875	73.0573	46.875	72.9038	46.875	73.0706	46.875	72.9071	46.875	73.0807	46.875	72.9145	46.875	73.0876	46.875	72.9252	46.875	73.0919	46.875	72.9387	46.875	73.0943	46.875	72.9542	46.875	73.0954	46.875	72.9713	46.875	73.0956	46.875	72.9892	46.875	73.0952	46.875	73.0074	46.875	73.0944	46.875	73.0251	46.875	73.0927	46.875	73.0417	46.875	73.0898	46.875	73.0563	46.875	73.0851	46.875	73.0685	46.875	73.0781
48.3398	74.5429	48.3398	74.5694	48.3398	74.5096	48.3398	74.5876	48.3398	74.4715	48.3398	74.5964	48.3398	74.4306	48.3398	74.5952	48.3398	74.389	48.3398	74.5839	48.3398	74.3488	48.3398	74.5631	48.3398	74.3114	48.3398	74.534	48.3398	74.2781	48.3398	74.4979	48.3398	74.2496	48.3398	74.4568	48.3398	74.2261	48.3398	74.4128	48.3398	74.2076	48.3398	74.3681	48.3398	74.1935	48.3398	74.3251	48.3398	74.183	48.3398	74.2854	48.3398	74.1756	48.3398	74.2508	48.3398	74.1705	48.3398	74.2222	48.3398	74.1675	48.3398	74.2001	48.3398	74.1667	48.3398	74.1843	48.3398	74.1686	48.3398	74.1741
51.2695	77.086	51.2695	77.0896	51.2695	77.0745	51.2695	77.0849	51.2695	77.0559	51.2695	77.0714	51.2695	77.0309	51.2695	77.0492	51.2695	77.0002	51.2695	77.0184	51.2695	76.9647	51.2695	76.9797	51.2695	76.925	51.2695	76.934	51.2695	76.882	51.2695	76.8826	51.2695	76.8363	51.2695	76.8271	51.2695	76.7888	51.2695	76.7696	51.2695	76.7403	51.2695	76.712	51.2695	76.6921	51.2695	76.6567	51.2695	76.6454	51.2695	76.6058	51.2695	76.6015	51.2695	76.5615	51.2695	76.5621	51.2695	76.5256	51.2695	76.5287	51.2695	76.4994	51.2695	76.5029	51.2695	76.484	51.2695	76.4862	51.2695	76.4797
52.7344	78.38	52.7344	78.3769	52.7344	78.3746	52.7344	78.365	52.7344	78.3608	52.7344	78.3445	52.7344	78.339	52.7344	78.3154	52.7344	78.3096	52.7344	78.2782	52.7344	78.273	52.7344	78.2336	52.7344	78.2298	52.7344	78.1824	52.7344	78.1807	52.7344	78.126	52.7344	78.1265	52.7344	78.0657	52.7344	78.0685	52.7344	78.0033	52.7344	78.0079	52.7344	77.9409	52.7344	77.9466	52.7344	77.8804	52.7344	77.8865	52.7344	77.8241	52.7344	77.8299	52.7344	77.7743	52.7344	77.7793	52.7344	77.733	52.7344	77.7369	52.7344	77.7022	52.7344	77.7047	52.7344	77.6833	52.7344	77.6845	52.7344	77.6773
54.1992	79.5016	54.1992	79.494	54.1992	79.502	54.1992	79.4792	54.1992	79.4953	54.1992	79.4574	54.1992	79.4814	54.1992	79.4287	54.1992	79.4606	54.1992	79.3936	54.1992	79.433	54.1992	79.3529	54.1992	79.3989	54.1992	79.3072	54.1992	79.3588	54.1992	79.2579	54.1992	79.3134	54.1992	79.2062	54.1992	79.2639	54.1992	79.1537	54.1992	79.2114	54.1992	79.1022	54.1992	79.1578	54.1992	79.0534	54.1992	79.1048	54.1992	79.0091	54.1992	79.0545	54.1992	78.971	54.1992	79.009	54.1992	78.9408	54.1992	78.9701	54.1992	78.9197	54.1992	78.9396	54.1992	78.9086	54.1992	78.9187	54.1992	78.9082
55.6641	80.6462	55.6641	80.6355	55.6641	80.65	55.6641	80.618	55.6641	80.6468	55.6641	80.5938	55.6641	80.6366	55.6641	80.5632	55.6641	80.6195	55.6641	80.5269	55.6641	80.5956	55.6641	80.4855	55.6641	80.5652	55.6641	80.4401	55.6641	80.5285	55.6641	80.3918	55.6641	80.4864	55.6641	80.342	55.6641	80.4397	55.6641	80.2923	55.6641	80.3897	55.6641	80.2443	55.6641	80.3381	55.6641	80.1998	55.6641	80.2867	55.6641	80.1603	55.6641	80.2375	55.6641	80.1275	55.6641	80.1924	55.6641	80.1026	55.6641	80.1531	55.6641	80.0867	55.6641	80.1212	55.6641	80.0805	55.6641	80.098	55.6641	80.0843
58.5938	82.7772	58.5938	82.7625	58.5938	82.785	58.5938	82.741	58.5938	82.7859	58.5938	82.713	58.5938	82.7801	58.5938	82.6793	58.5938	82.7679	58.5938	82.6406	58.5938	82.7496	58.5938	82.598	58.5938	82.7258	58.5938	82.5528	58.5938	82.697	58.5938	82.5065	58.5938	82.6638	58.5938	82.4608	58.5938	82.6269	58.5938	82.4172	58.5938	82.5873	58.5938	82.3775	58.5938	82.5459	58.5938	82.3432	58.5938	82.5037	58.5938	82.3156	58.5938	82.4618	58.5938	82.2957	58.5938	82.4215	58.5938	82.2842	58.5938	82.3841	58.5938	82.2814	58.5938	82.3507	58.5938	82.2872	58.5938	82.3227	58.5938	82.3012
60.0586	83.7615	60.0586	83.7422	60.0586	83.7729	60.0586	83.7151	60.0586	83.776	60.0586	83.681	60.0586	83.7711	60.0586	83.6405	60.0586	83.7584	60.0586	83.5948	60.0586	83.7382	60.0586	83.5451	60.0586	83.7111	60.0586	83.493	60.0586	83.6778	60.0586	83.4401	60.0586	83.6391	60.0586	83.3883	60.0586	83.596	60.0586	83.3394	60.0586	83.5497	60.0586	83.2952	60.0586	83.5013	60.0586	83.2573	60.0586	83.4521	60.0586	83.2272	60.0586	83.4034	60.0586	83.206	60.0586	83.3568	60.0586	83.1942	60.0586	83.3134	60.0586	83.1923	60.0586	83.2748	60.0586	83.2001	60.0586	83.2422	60.0586	83.217
62.9883	85.3921	62.9883	85.3655	62.9883	85.4095	62.9883	85.3305	62.9883	85.4175	62.9883	85.288	62.9883	85.4159	62.9883	85.2391	62.9883	85.405	62.9883	85.1851	62.9883	85.3852	62.9883	85.1278	62.9883	85.357	62.9883	85.0689	62.9883	85.3214	62.9883	85.0103	62.9883	85.2794	62.9883	84.9541	62.9883	85.2322	62.9883	84.9021	62.9883	85.1811	62.9883	84.8562	62.9883	85.1273	62.9883	84.8181	62.9883	85.0725	62.9883	84.7891	62.9883	85.0178	62.9883	84.7702	62.9883	84.965	62.9883	84.7619	62.9883	84.9153	62.9883	84.7644	62.9883	84.8702	62.9883	84.7773	62.9883	84.8313	62.9883	84.7999
64.4531	86.0669	64.4531	86.0372	64.4531	86.0872	64.4531	85.999	64.4531	86.0976	64.4531	85.9531	64.4531	86.0981	64.4531	85.901	64.4531	86.0887	64.4531	85.8442	64.4531	86.0699	64.4531	85.7843	64.4531	86.0424	64.4531	85.7234	64.4531	86.0071	64.4531	85.6635	64.4531	85.965	64.4531	85.6065	64.4531	85.9175	64.4531	85.5546	64.4531	85.8659	64.4531	85.5094	64.4531	85.8114	64.4531	85.4726	64.4531	85.7556	64.4531	85.4455	64.4531	85.6997	64.4531	85.429	64.4531	85.6453	64.4531	85.4235	64.4531	85.5937	64.4531	85.429	64.4531	85.5464	64.4531	85.4449	64.4531	85.5049	64.4531	85.4706
67.3828	87.0498	67.3828	87.0148	67.3828	87.0748	67.3828	86.9707	67.3828	87.0892	67.3828	86.9189	67.3828	87.0928	67.3828	86.8609	67.3828	87.0856	67.3828	86.7986	67.3828	87.068	67.3828	86.7338	67.3828	87.041	67.3828	86.6688	67.3828	87.0054	67.3828	86.6059	67.3828	86.9627	67.3828	86.547	67.3828	86.914	67.3828	86.4944	67.3828	86.8608	67.3828	86.4499	67.3828	86.8046	67.3828	86.415	67.3828	86.7467	67.3828	86.3909	67.3828	86.6884	67.3828	86.3782	67.3828	86.631	67.3828	86.3773	67.3828	86.576	67.3828	86.3878	67.3828	86.5248	67.3828	86.409	67.3828	86.4789	67.3828	86.4398
68.8477	87.3776	68.8477	87.3397	68.8477	87.4052	68.8477	87.2927	68.8477	87.4218	68.8477	87.2377	68.8477	87.4271	68.8477	87.1767	68.8477	87.4212	68.8477	87.1114	68.8477	87.4045	68.8477	87.0441	68.8477	87.3779	68.8477	86.9769	68.8477	87.3424	68.8477	86.9122	68.8477	87.2994	68.8477	86.8523	68.8477	87.2502	68.8477	86.7992	68.8477	87.1962	68.8477	86.7548	68.8477	87.1389	68.8477	86.7206	68.8477	87.0796	68.8477	86.6978	68.8477	87.0197	68.8477	86.687	68.8477	86.9604	68.8477	86.6884	68.8477	86.9032	68.8477	86.7014	68.8477	86.8495	68.8477	86.7254	68.8477	86.8009	68.8477	86.759
71.7773	87.881	71.7773	87.8382	71.7773	87.913	71.7773	87.7858	71.7773	87.9333	71.7773	87.7254	71.7773	87.9415	71.7773	87.659	71.7773	87.9377	71.7773	87.5888	71.7773	87.9224	71.7773	87.5171	71.7773	87.8965	71.7773	87.4465	71.7773	87.8612	71.7773	87.3794	71.7773	87.8179	71.7773	87.3181	71.7773	87.7681	71.7773	87.2649	71.7773	87.7133	71.7773	87.2216	71.7773	87.6549	71.7773	87.1897	71.7773	87.5943	71.7773	87.1701	71.7773	87.5326	71.7773	87.1633	71.7773	87.4711	71.7773	87.1693	71.7773	87.411	71.7773	87.1872	71.7773	87.3539	71.7773	87.2162	71.7773	87.3012	71.7773	87.2548
74.707	88.1852	74.707	88.1389	74.707	88.22	74.707	88.0826	74.707	88.2423	74.707	88.018	74.707	88.2518	74.707	87.9473	74.707	88.2483	74.707	87.873	74.707	88.2326	74.707	87.7975	74.707	88.2054	74.707	87.7234	74.707	88.1682	74.707	87.6535	74.707	88.1225	74.707	87.59	74.707	88.0699	74.707	87.5352	74.707	88.0121	74.707	87.491	74.707	87.9506	74.707	87.4588	74.707	87.8867	74.707	87.4394	74.707	87.8219	74.707	87.4333	74.707	87.7574	74.707	87.4403	74.707	87.6945	74.707	87.4597	74.707	87.6347	74.707	87.4904	74.707	87.5796	74.707	87.5309
77.6367	88.2937	77.6367	88.245	77.6367	88.3312	77.6367	88.1866	77.6367	88.3564	77.6367	88.1205	77.6367	88.3688	77.6367	88.0489	77.6367	88.3684	77.6367	87.9744	77.6367	88.3557	77.6367	87.8998	77.6367	88.3318	77.6367	87.8276	77.6367	88.298	77.6367	87.7605	77.6367	88.256	77.6367	87.7009	77.6367	88.2073	77.6367	87.651	77.6367	88.1535	77.6367	87.6122	77.6367	88.096	77.6367	87.5859	77.6367	88.0359	77.6367	87.5726	77.6367	87.9744	77.6367	87.5724	77.6367	87.9125	77.6367	87.5848	77.6367	87.8514	77.6367	87.609	77.6367	87.7924	77.6367	87.6435	77.6367	87.7369	77.6367	87.6867
79.1016	88.3615	79.1016	88.3111	79.1016	88.4005	79.1016	88.2508	79.1016	88.4269	79.1016	88.1828	79.1016	88.4402	79.1016	88.1093	79.1016	88.4405	79.1016	88.0331	79.1016	88.4283	79.1016	87.957	79.1016	88.4048	79.1016	87.8838	79.1016	88.3714	79.1016	87.8162	79.1016	88.3297	79.1016	87.7566	79.1016	88.2815	79.1016	87.7073	79.1016	88.2283	79.1016	87.6697	79.1016	88.1715	79.1016	87.6452	79.1016	88.1123	79.1016	87.6342	79.1016	88.0515	79.1016	87.6367	79.1016	87.9902	79.1016	87.652	79.1016	87.9292	79.1016	87.6789	79.1016	87.8697	79.1016	87.7159	79.1016	87.8132	79.1016	87.7613
82.0312	88.473	82.0312	88.4195	82.0312	88.5146	82.0312	88.3558	82.0312	88.5431	82.0312	88.284	82.0312	88.5579	82.0312	88.2069	82.0312	88.5591	82.0312	88.1271	82.0312	88.5475	82.0312	88.0479	82.0312	88.5241	82.0312	87.972	82.0312	88.4905	82.0312	87.9024	82.0312	88.4486	82.0312	87.8416	82.0312	88.4001	82.0312	87.7919	82.0312	88.3465	82.0312	87.755	82.0312	88.2893	82.0312	87.7318	82.0312	88.2295	82.0312	87.7229	82.0312	88.1678	82.0312	87.7281	82.0312	88.1051	82.0312	87.7465	82.0312	88.0423	82.0312	87.7769	82.0312	87.9806	82.0312	87.8174	82.0312	87.9213	82.0312	87.8663
84.9609	88.5632	84.9609	88.5081	84.9609	88.6059	84.9609	88.4425	84.9609	88.6349	84.9609	88.3686	84.9609	88.6498	84.9609	88.2893	84.9609	88.6507	84.9609	88.2075	84.9609	88.6383	84.9609	88.1265	84.9609	88.6141	84.9609	88.0495	84.9609	88.5797	84.9609	87.9794	84.9609	88.5371	84.9609	87.9188	84.9609	88.4883	84.9609	87.8701	84.9609	88.4349	84.9609	87.8348	84.9609	88.3783	84.9609	87.8138	84.9609	88.3195	84.9609	87.8075	84.9609	88.2591	84.9609	87.8154	84.9609	88.1978	84.9609	87.8364	84.9609	88.1362	84.9609	87.869	84.9609	88.0754	84.9609	87.9113	84.9609	88.0165	84.9609	87.9611
87.8906	88.8022	87.8906	88.745	87.8906	88.8464	87.8906	88.6766	87.8906	88.8761	87.8906	88.5994	87.8906	88.8909	87.8906	88.5165	87.8906	88.8909	87.8906	88.431	87.8906	88.8769	87.8906	88.3462	87.8906	88.8503	87.8906	88.2653	87.8906	88.813	87.8906	88.1915	87.8906	88.767	87.8906	88.1275	87.8906	88.7143	87.8906	88.0755	87.8906	88.6567	87.8906	88.0373	87.8906	88.5958	87.8906	88.0137	87.8906	88.5325	87.8906	88.0051	87.8906	88.4677	87.8906	88.0111	87.8906	88.4023	87.8906	88.0308	87.8906	88.3372	87.8906	88.0626	87.8906	88.2733	87.8906	88.1048	87.8906	88.2121	87.8906	88.1553
90.8203	89.0197	90.8203	88.9593	90.8203	89.0672	90.8203	88.8881	90.8203	89.1005	90.8203	88.8086	90.8203	89.1189	90.8203	88.7239	90.8203	89.1225	90.8203	88.6373	90.8203	89.1122	90.8203	88.5524	90.8203	89.0895	90.8203	88.4723	90.8203	89.0561	90.8203	88.4003	90.8203	89.0142	90.8203	88.3391	90.8203	88.9656	90.8203	88.291	90.8203	88.912	90.8203	88.2574	90.8203	88.8546	90.8203	88.2393	90.8203	88.7945	90.8203	88.2366	90.8203	88.7322	90.8203	88.2488	90.8203	88.6682	90.8203	88.2746	90.8203	88.6033	90.8203	88.3123	90.8203	88.5384	90.8203	88.3597	90.8203	88.4749	90.8203	88.4147
95.2148	89.4115	95.2148	89.3497	95.2148	89.4592	95.2148	89.2758	95.2148	89.4912	95.2148	89.1925	95.2148	89.507	95.2148	89.1032	95.2148	89.5069	95.2148	89.0112	95.2148	89.4918	95.2148	88.9204	95.2148	89.4635	95.2148	88.8341	95.2148	89.4241	95.2148	88.7559	95.2148	89.376	95.2148	88.6886	95.2148	89.3215	95.2148	88.6347	95.2148	89.2623	95.2148	88.596	95.2148	89.2001	95.2148	88.5734	95.2148	89.1356	95.2148	88.5672	95.2148	89.0696	95.2148	88.5769	95.2148	89.0026	95.2148	88.6011	95.2148	88.9351	95.2148	88.6381	95.2148	88.868	95.2148	88.6856	95.2148	88.8029	95.2148	88.7413
98.1445	89.5976	98.1445	89.5329	98.1445	89.6481	98.1445	89.4565	98.1445	89.6828	98.1445	89.3713	98.1445	89.701	98.1445	89.2809	98.1445	89.7026	98.1445	89.1888	98.1445	89.6886	98.1445	89.0988	98.1445	89.6607	98.1445	89.0143	98.1445	89.6212	98.1445	88.9386	98.1445	89.5725	98.1445	88.8744	98.1445	89.517	98.1445	88.8237	98.1445	89.4567	98.1445	88.788	98.1445	89.3934	98.1445	88.7679	98.1445	89.3279	98.1445	88.7635	98.1445	89.2612	98.1445	88.774	98.1445	89.1938	98.1445	88.7982	98.1445	89.1263	98.1445	88.8345	98.1445	89.0598	98.1445	88.8809	98.1445	88.9956	98.1445	88.9353
101.074	89.5151	101.074	89.4476	101.074	89.5683	101.074	89.3684	101.074	89.6057	101.074	89.2807	101.074	89.6263	101.074	89.188	101.074	89.6303	101.074	89.0944	101.074	89.6187	101.074	89.0037	101.074	89.5934	101.074	88.9199	101.074	89.5566	101.074	88.8463	101.074	89.5109	101.074	88.7858	101.074	89.4588	101.074	88.7404	101.074	89.4022	101.074	88.7114	101.074	89.3429	101.074	88.699	101.074	89.2818	101.074	88.7028	101.074	89.2193	101.074	88.7215	101.074	89.1559	101.074	88.7531	101.074	89.0919	101.074	88.7956	101.074	89.0278	101.074	88.8465	101.074	88.9645	101.074	88.9035
105.469	89.0864	105.469	89.0205	105.469	89.1362	105.469	88.9412	105.469	89.1686	105.469	88.8515	105.469	89.1828	105.469	88.7553	105.469	89.1793	105.469	88.6567	105.469	89.1597	105.469	88.5597	105.469	89.1261	105.469	88.4685	105.469	89.0816	105.469	88.3868	105.469	89.0292	105.469	88.3179	105.469	88.9716	105.469	88.2643	105.469	88.9112	105.469	88.2275	105.469	88.8494	105.469	88.2085	105.469	88.7869	105.469	88.2069	105.469	88.7238	105.469	88.2218	105.469	88.66	105.469	88.2513	105.469	88.5952	105.469	88.2931	105.469	88.53	105.469	88.3445	105.469	88.4653	105.469	88.4027
108.398	88.7722	108.398	88.7054	108.398	88.8234	108.398	88.6254	108.398	88.8572	108.398	88.5357	108.398	88.8728	108.398	88.4402	108.398	88.8707	108.398	88.3429	108.398	88.8523	108.398	88.2481	108.398	88.8199	108.398	88.1599	108.398	88.7766	108.398	88.0819	108.398	88.7256	108.398	88.0174	108.398	88.67	108.398	87.9686	108.398	88.612	108.398	87.9369	108.398	88.5534	108.398	87.923	108.398	88.4948	108.398	87.9263	108.398	88.4361	108.398	87.9454	108.398	88.3769	108.398	87.9783	108.398	88.3166	108.398	88.0224	108.398	88.2553	108.398	88.0748	108.398	88.1935	108.398	88.1327
112.793	88.3591	112.793	88.2862	112.793	88.4155	112.793	88.1997	112.793	88.4537	112.793	88.1032	112.793	88.4727	112.793	88.0008	112.793	88.473	112.793	87.8969	112.793	88.4559	112.793	87.7961	112.793	88.4238	112.793	87.7028	112.793	88.3797	112.793	87.6207	112.793	88.3268	112.793	87.5532	112.793	88.2683	112.793	87.5028	112.793	88.2067	112.793	87.4708	112.793	88.1437	112.793	87.4578	112.793	88.0803	112.793	87.4631	112.793	88.0165	112.793	87.4851	112.793	87.9521	112.793	87.5216	112.793	87.8868	112.793	87.5697	112.793	87.8207	112.793	87.6264	112.793	87.7542	112.793	87.6888
117.188	88.0071	117.188	87.9367	117.188	88.0601	117.188	87.8519	117.188	88.0941	117.188	87.7562	117.188	88.1085	117.188	87.6539	117.188	88.1039	117.188	87.5495	117.188	88.0822	117.188	87.4478	117.188	88.0461	117.188	87.3532	117.188	87.9993	117.188	87.2698	117.188	87.9452	117.188	87.2011	117.188	87.8871	117.188	87.1494	117.188	87.8275	117.188	87.1165	117.188	87.7677	117.188	87.1027	117.188	87.7083	117.188	87.1074	117.188	87.6487	117.188	87.1292	117.188	87.5882	117.188	87.1657	117.188	87.5261	117.188	87.2138	117.188	87.4622	117.188	87.2706	117.188	87.3973	117.188	87.3326
120.117	87.9096	120.117	87.8392	120.117	87.9622	120.117	87.7541	120.117	87.9951	120.117	87.658	120.117	88.0076	120.117	87.5553	120.117	88.0004	120.117	87.4508	120.117	87.9754	120.117	87.3492	120.117	87.9357	120.117	87.2552	120.117	87.8849	120.117	87.1727	120.117	87.8272	120.117	87.1051	120.117	87.7662	120.117	87.0547	120.117	87.7048	120.117	87.023	120.117	87.6446	120.117	87.0102	120.117	87.5861	120.117	87.0154	120.117	87.5287	120.117	87.0371	120.117	87.4715	120.117	87.0726	120.117	87.4133	120.117	87.1191	120.117	87.3537	120.117	87.1733	120.117	87.293	120.117	87.2322
124.512	87.7741	124.512	87.7002	124.512	87.8293	124.512	87.611	124.512	87.8638	124.512	87.5105	124.512	87.8768	124.512	87.4035	124.512	87.8688	124.512	87.295	124.512	87.8419	124.512	87.1903	124.512	87.7992	124.512	87.0942	124.512	87.7449	124.512	87.0109	124.512	87.6832	124.512	86.944	124.512	87.6184	124.512	86.8958	124.512	87.5539	124.512	86.8674	124.512	87.4918	124.512	86.8588	124.512	87.4328	124.512	86.8687	124.512	87.3765	124.512	86.8948	124.512	87.3218	124.512	86.934	124.512	87.2671	124.512	86.9828	124.512	87.2113	124.512	87.0377	124.512	87.154	124.512	87.0956
128.906	87.5962	128.906	87.5198	128.906	87.6532	128.906	87.4275	128.906	87.6888	128.906	87.3234	128.906	87.702	128.906	87.2124	128.906	87.6937	128.906	87.0999	128.906	87.6658	128.906	86.991	128.906	87.6216	128.906	86.891	128.906	87.5655	128.906	86.8041	128.906	87.5018	128.906	86.7339	128.906	87.435	128.906	86.6831	128.906	87.3685	128.906	86.6528	128.906	87.3044	128.906	86.6431	128.906	87.2434	128.906	86.6527	128.906	87.1851	128.906	86.6795	128.906	87.1281	128.906	86.7201	128.906	87.0708	128.906	86.7712	128.906	87.0121	128.906	86.8289	128.906	86.9516	128.906	86.89
133.301	87.543	133.301	87.4621	133.301	87.6042	133.301	87.3649	133.301	87.6433	133.301	87.2561	133.301	87.6593	133.301	87.1409	133.301	87.6529	133.301	87.0249	133.301	87.6261	133.301	86.9136	133.301	87.5822	133.301	86.8122	133.301	87.5258	133.301	86.7253	133.301	87.4615	133.301	86.6565	133.301	87.3939	133.301	86.6081	133.301	87.3266	133.301	86.5811	133.301	87.2621	133.301	86.5755	133.301	87.201	133.301	86.5895	133.301	87.1428	133.301	86.6207	133.301	87.086	133.301	86.6656	133.301	87.0287	133.301	86.7204	133.301	86.9697	133.301	86.7813	133.301	86.9082	133.301	86.8448
139.16	87.3892	139.16	87.3038	139.16	87.4535	139.16	87.201	139.16	87.4944	139.16	87.0857	139.16	87.5109	139.16	86.9634	139.16	87.5039	139.16	86.8401	139.16	87.4757	139.16	86.722	139.16	87.4299	139.16	86.6147	139.16	87.3712	139.16	86.5232	139.16	87.3048	139.16	86.4515	139.16	87.2354	139.16	86.4023	139.16	87.1667	139.16	86.3765	139.16	87.1013	139.16	86.3738	139.16	87.0396	139.16	86.3923	139.16	86.981	139.16	86.4289	139.16	86.9238	139.16	86.4797	139.16	86.8657	139.16	86.5404	139.16	86.8052	139.16	86.6066	139.16	86.7413	139.16	86.6746
143.555	87.3853	143.555	87.294	143.555	87.4534	143.555	87.1836	143.555	87.4959	143.555	87.059	143.555	87.5119	143.555	86.9262	143.555	87.5023	143.555	86.7917	143.555	87.4697	143.555	86.6623	143.555	87.4183	143.555	86.5442	143.555	87.3532	143.555	86.4432	143.555	87.2802	143.555	86.364	143.555	87.2046	143.555	86.3095	143.555	87.1307	143.555	86.2814	143.555	87.0611	143.555	86.2791	143.555	86.9965	143.555	86.3004	143.555	86.9356	143.555	86.3419	143.555	86.8764	143.555	86.3989	143.555	86.8161	143.555	86.4664	143.555	86.7526	143.555	86.5392	143.555	86.6849	143.555	86.6131
147.949	87.331	147.949	87.2357	147.949	87.4011	147.949	87.1194	147.949	87.4436	147.949	86.987	147.949	87.4573	147.949	86.8445	147.949	87.4431	147.949	86.6985	147.949	87.4034	147.949	86.5556	147.949	87.3424	147.949	86.4225	147.949	87.2657	147.949	86.3052	147.949	87.1795	147.949	86.209	147.949	87.0899	147.949	86.138	147.949	87.002	147.949	86.0947	147.949	86.919	147.949	86.0796	147.949	86.8421	147.949	86.0914	147.949	86.7704	147.949	86.1271	147.949	86.7015	147.949	86.1819	147.949	86.6324	147.949	86.2505	147.949	86.5608	147.949	86.3272	147.949	86.4855	147.949	86.4068
153.809	87.307	153.809	87.2003	153.809	87.3872	153.809	87.0715	153.809	87.4378	153.809	86.9261	153.809	87.4572	153.809	86.7705	153.809	87.4458	153.809	86.6117	153.809	87.4056	153.809	86.4565	153.809	87.3403	153.809	86.3119	153.809	87.255	153.809	86.1839	153.809	87.156	153.809	86.0778	153.809	87.0496	153.809	85.9976	153.809	86.9419	153.809	85.9456	153.809	86.8376	153.809	85.9226	153.809	86.7395	153.809	85.9274	153.809	86.6481	153.809	85.9572	153.809	86.5622	153.809	86.0079	153.809	86.4795	153.809	86.0741	153.809	86.3976	153.809	86.1505	153.809	86.3151	153.809	86.232
159.668	87.207	159.668	87.1092	159.668	87.2788	159.668	86.9895	159.668	87.3222	159.668	86.853	159.668	87.3366	159.668	86.7061	159.668	87.3231	159.668	86.5554	159.668	87.2843	159.668	86.408	159.668	87.2246	159.668	86.2704	159.668	87.1488	159.668	86.1486	159.668	87.0626	159.668	86.0478	159.668	86.9709	159.668	85.9717	159.668	86.8781	159.668	85.9225	159.668	86.7871	159.668	85.9011	159.668	86.6995	159.668	85.9065	159.668	86.6155	159.668	85.936	159.668	86.5339	159.668	85.9858	159.668	86.4534	159.668	86.051	159.668	86.3723	159.668	86.1264	159.668	86.2901	159.668	86.2073
165.527	87.1484	165.527	87.0497	165.527	87.2226	165.527	86.9308	165.527	87.2697	165.527	86.7976	165.527	87.2891	165.527	86.6567	165.527	87.2823	165.527	86.5155	165.527	87.2526	165.527	86.3812	165.527	87.2052	165.527	86.2606	165.527	87.1461	165.527	86.1594	165.527	87.0812	165.527	86.0819	165.527	87.0154	165.527	86.0308	165.527	86.952	165.527	86.007	165.527	86.8917	165.527	86.01	165.527	86.8334	165.527	86.0376	165.527	86.7748	165.527	86.0865	165.527	86.713	165.527	86.1526	165.527	86.6456	165.527	86.2309	165.527	86.5713	165.527	86.3165	165.527	86.4903	165.527	86.4043
171.387	87.2549	171.387	87.1484	171.387	87.3319	171.387	87.0175	171.387	87.3765	171.387	86.8687	171.387	87.3874	171.387	86.7096	171.387	87.3661	171.387	86.5483	171.387	87.3163	171.387	86.3935	171.387	87.2438	171.387	86.2531	171.387	87.1563	171.387	86.1346	171.387	87.0622	171.387	86.0437	171.387	86.9695	171.387	85.9844	171.387	86.8846	171.387	85.9581	171.387	86.8109	171.387	85.964	171.387	86.7487	171.387	85.9989	171.387	86.6953	171.387	86.0575	171.387	86.6458	171.387	86.1333	171.387	86.5946	171.387	86.219	171.387	86.5369	171.387	86.3075	171.387	86.4697	171.387	86.3925
177.246	87.2625	177.246	87.1547	177.246	87.3383	177.246	87.0197	177.246	87.3792	177.246	86.8638	177.246	87.3844	177.246	86.6942	177.246	87.3553	177.246	86.5191	177.246	87.2955	177.246	86.3468	177.246	87.2108	177.246	86.1854	177.246	87.1083	177.246	86.0426	177.246	86.9961	177.246	85.9248	177.246	86.8821	177.246	85.8372	177.246	86.7729	177.246	85.7828	177.246	86.6729	177.246	85.7621	177.246	86.5836	177.246	85.7735	177.246	86.5038	177.246	85.8128	177.246	86.4302	177.246	85.8741	177.246	86.3584	177.246	85.9507	177.246	86.2843	177.246	86.0353	177.246	86.2055	177.246	86.1218
183.105	87.1084	183.105	86.9922	183.105	87.1908	183.105	86.847	183.105	87.2366	183.105	86.6793	183.105	87.2452	183.105	86.4966	183.105	87.2181	183.105	86.3077	183.105	87.1591	183.105	86.1215	183.105	87.0735	183.105	85.947	183.105	86.9685	183.105	85.7925	183.105	86.8518	183.105	85.6654	183.105	86.7314	183.105	85.5713	183.105	86.6143	183.105	85.514	183.105	86.5057	183.105	85.4944	183.105	86.4081	183.105	85.5105	183.105	86.3211	183.105	85.5578	183.105	86.2415	183.105	85.6293	183.105	86.1644	183.105	85.7169	183.105	86.085	183.105	85.8123	183.105	85.9999	183.105	85.9083
188.965	86.9845	188.965	86.8638	188.965	87.0712	188.965	86.7139	188.965	87.1213	188.965	86.5413	188.965	87.134	188.965	86.3536	188.965	87.1107	188.965	86.1596	188.965	87.0547	188.965	85.9681	188.965	86.9711	188.965	85.7879	188.965	86.8659	188.965	85.627	188.965	86.746	188.965	85.4925	188.965	86.6185	188.965	85.3898	188.965	86.4899	188.965	85.3228	188.965	86.3658	188.965	85.2928	188.965	86.25	188.965	85.2989	188.965	86.1438	188.965	85.3373	188.965	86.0462	188.965	85.4018	188.965	85.9539	188.965	85.4848	188.965	85.8632	188.965	85.5782	188.965	85.7706	188.965	85.675
196.289	86.873	196.289	86.765	196.289	86.9503	196.289	86.6307	196.289	86.9944	196.289	86.4761	196.289	87.005	196.289	86.3088	196.289	86.9837	196.289	86.1368	196.289	86.9342	196.289	85.9686	196.289	86.8615	196.289	85.8123	196.289	86.7718	196.289	85.6751	196.289	86.671	196.289	85.5628	196.289	86.5651	196.289	85.4793	196.289	86.4588	196.289	85.4267	196.289	86.3555	196.289	85.405	196.289	86.2573	196.289	85.4125	196.289	86.1645	196.289	85.4458	196.289	86.0763	196.289	85.5002	196.289	85.9908	196.289	85.5701	196.289	85.906	196.289	85.6499	196.289	85.8206	196.289	85.7346
203.613	86.9286	203.613	86.8384	203.613	86.9846	203.613	86.718	203.613	87.0049	203.613	86.573	203.613	86.9906	203.613	86.4106	203.613	86.9458	203.613	86.2387	203.613	86.8766	203.613	86.066	203.613	86.7912	203.613	85.9011	203.613	86.6979	203.613	85.7522	203.613	86.6041	203.613	85.6266	203.613	86.515	203.613	85.5301	203.613	86.4329	203.613	85.4668	203.613	86.3572	203.613	85.438	203.613	86.2858	203.613	85.4428	203.613	86.2154	203.613	85.4778	203.613	86.1428	203.613	85.5377	203.613	86.0655	203.613	85.6158	203.613	85.9821	203.613	85.7051	203.613	85.8927	203.613	85.7992
210.938	86.863	210.938	86.7463	210.938	86.9397	210.938	86.5955	210.938	86.9729	210.938	86.4184	210.938	86.9618	210.938	86.224	210.938	86.909	210.938	86.0222	210.938	86.8202	210.938	85.8232	210.938	86.7041	210.938	85.637	210.938	86.5716	210.938	85.473	210.938	86.4346	210.938	85.3391	210.938	86.3039	210.938	85.2417	210.938	86.1883	210.938	85.1844	210.938	86.0923	210.938	85.1682	210.938	86.0162	210.938	85.1907	210.938	85.9556	210.938	85.2467	210.938	85.9031	210.938	85.328	210.938	85.85	210.938	85.4251	210.938	85.7887	210.938	85.5275	210.938	85.7144	210.938	85.6263
218.262	86.726	218.262	86.6126	218.262	86.7995	218.262	86.4646	218.262	86.83	218.262	86.2896	218.262	86.8177	218.262	86.0968	218.262	86.7658	218.262	85.8964	218.262	86.6804	218.262	85.6989	218.262	86.5701	218.262	85.5147	218.262	86.4451	218.262	85.3532	218.262	86.3157	218.262	85.2223	218.262	86.1909	218.262	85.1278	218.262	86.0775	218.262	85.0728	218.262	85.9794	218.262	85.0575	218.262	85.8971	218.262	85.0792	218.262	85.828	218.262	85.1323	218.262	85.7669	218.262	85.2087	218.262	85.7076	218.262	85.2993	218.262	85.6437	218.262	85.3948	218.262	85.5706	218.262	85.487
225.586	86.6731	225.586	86.5636	225.586	86.7391	225.586	86.4161	225.586	86.7588	225.586	86.2384	225.586	86.7332	225.586	86.0403	225.586	86.6665	225.586	85.8325	225.586	86.5667	225.586	85.6266	225.586	86.4445	225.586	85.4342	225.586	86.3124	225.586	85.2664	225.586	86.1829	225.586	85.1328	225.586	86.0662	225.586	85.0409	225.586	85.9693	225.586	84.9947	225.586	85.8944	225.586	84.9942	225.586	85.8394	225.586	85.0355	225.586	85.7983	225.586	85.1106	225.586	85.763	225.586	85.2088	225.586	85.7246	225.586	85.3181	225.586	85.6754	225.586	85.4271	225.586	85.6099	225.586	85.5264
232.91	86.6865	232.91	86.5788	232.91	86.7482	232.91	86.4305	232.91	86.7606	232.91	86.2495	232.91	86.7241	232.91	86.0454	232.91	86.6422	232.91	85.8287	232.91	86.5219	232.91	85.6103	232.91	86.3732	232.91	85.4015	232.91	86.2087	232.91	85.2131	232.91	86.0426	232.91	85.0553	232.91	85.8882	232.91	84.9367	232.91	85.7569	232.91	84.8634	232.91	85.6552	232.91	84.838	232.91	85.5837	232.91	84.8585	232.91	85.5371	232.91	84.9182	232.91	85.5051	232.91	85.006	232.91	85.4756	232.91	85.1086	232.91	85.4371	232.91	85.2124	232.91	85.3816	232.91	85.3059
241.699	86.6135	241.699	86.5059	241.699	86.6771	241.699	86.3607	241.699	86.6931	241.699	86.1861	241.699	86.661	241.699	85.9915	241.699	86.5833	241.699	85.7864	241.699	86.4664	241.699	85.5804	241.699	86.3189	241.699	85.3821	241.699	86.1521	241.699	85.1995	241.699	85.9779	241.699	85.0402	241.699	85.8082	241.699	84.9108	241.699	85.6538	241.699	84.8174	241.699	85.5226	241.699	84.7641	241.699	85.4187	241.699	84.7518	241.699	85.3411	241.699	84.7774	241.699	85.2839	241.699	84.8333	241.699	85.2373	241.699	84.9084	241.699	85.1909	241.699	84.9905	241.699	85.136	241.699	85.0687
250.488	86.4586	250.488	86.3336	250.488	86.5322	250.488	86.1647	250.488	86.5499	250.488	85.9623	250.488	86.5116	250.488	85.7384	250.488	86.421	250.488	85.5057	250.488	86.2859	250.488	85.2766	250.488	86.1176	250.488	85.0621	250.488	85.9299	250.488	84.8712	250.488	85.7372	250.488	84.7109	250.488	85.5531	250.488	84.586	250.488	85.389	250.488	84.5001	250.488	85.2522	250.488	84.4549	250.488	85.1457	250.488	84.4498	250.488	85.0668	250.488	84.4812	250.488	85.0087	250.488	84.5416	250.488	84.9609	250.488	84.6204	250.488	84.9129	250.488	84.7056	250.488	84.8561	250.488	84.7865
259.277	86.7218	259.277	86.6044	259.277	86.7915	259.277	86.4461	259.277	86.81	259.277	86.2562	259.277	86.7773	259.277	86.046	259.277	86.6967	259.277	85.8275	259.277	86.5747	259.277	85.6123	259.277	86.4197	259.277	85.4101	259.277	86.2416	259.277	85.2281	259.277	86.0506	259.277	85.0711	259.277	85.8571	259.277	84.9412	259.277	85.671	259.277	84.8398	259.277	85.5014	259.277	84.7676	259.277	85.3556	259.277	84.7253	259.277	85.2367	259.277	84.7126	259.277	85.1428	259.277	84.7275	259.277	85.0674	259.277	84.7649	259.277	85.0023	259.277	84.8176	259.277	84.9401	259.277	84.878
268.066	86.3273	268.066	86.2003	268.066	86.404	268.066	86.0302	268.066	86.4267	268.066	85.8269	268.066	86.3956	268.066	85.6024	268.066	86.3154	268.066	85.37	268.066	86.1948	268.066	85.143	268.066	86.0458	268.066	84.934	268.066	85.8818	268.066	84.7535	268.066	85.7156	268.066	84.6093	268.066	85.5576	268.066	84.5062	268.066	85.4149	268.066	84.4456	268.066	85.2921	268.066	84.4261	268.066	85.191	268.066	84.4436	268.066	85.1107	268.066	84.4918	268.066	85.0471	268.066	84.5623	268.066	84.993	268.066	84.6452	268.066	84.9402	268.066	84.7308	268.066	84.8809	268.066	84.811
276.855	86.3837	276.855	86.2435	276.855	86.4688	276.855	86.0556	276.855	86.4943	276.855	85.8295	276.855	86.4589	276.855	85.5763	276.855	86.3658	276.855	85.3087	276.855	86.2223	276.855	85.0396	276.855	86.0405	276.855	84.7818	276.855	85.8352	276.855	84.5467	276.855	85.6218	276.855	84.3438	276.855	85.4142	276.855	84.1796	276.855	85.2228	276.855	84.0582	276.855	85.054	276.855	83.9817	276.855	84.91	276.855	83.9502	276.855	84.7895	276.855	83.9615	276.855	84.6867	276.855	84.011	276.855	84.5932	276.855	84.0906	276.855	84.5002	276.855	84.1895	276.855	84.4015	276.855	84.2963
287.109	86.5403	287.109	86.4111	287.109	86.6098	287.109	86.2299	287.109	86.6149	287.109	86.0066	287.109	86.5551	287.109	85.7525	287.109	86.4344	287.109	85.4793	287.109	86.2617	287.109	85.1995	287.109	86.0512	287.109	84.9252	287.109	85.8209	287.109	84.6692	287.109	85.5906	287.109	84.4444	287.109	85.378	287.109	84.2628	287.109	85.1955	287.109	84.1342	287.109	85.0478	287.109	84.064	287.109	84.9322	287.109	84.0509	287.109	84.8415	287.109	84.0875	287.109	84.7664	287.109	84.161	287.109	84.6978	287.109	84.2564	287.109	84.6274	287.109	84.3596	287.109	84.5489	287.109	84.4592
297.363	86.2016	297.363	86.0615	297.363	86.2825	297.363	85.871	297.363	86.2992	297.363	85.6423	297.363	86.2512	297.363	85.3892	297.363	86.1422	297.363	85.1254	297.363	85.9794	297.363	84.8631	297.363	85.7734	297.363	84.6117	297.363	85.5384	297.363	84.3786	297.363	85.2924	297.363	84.1702	297.363	85.0573	297.363	83.9947	297.363	84.8555	297.363	83.862	297.363	84.7046	297.363	83.7831	297.363	84.61	297.363	83.766	297.363	84.5621	297.363	83.811	297.363	84.5401	297.363	83.9082	297.363	84.5198	297.363	84.0385	297.363	84.4809	297.363	84.179	297.363	84.4112	297.363	84.3084
307.617	86.2456	307.617	86.1128	307.617	86.3157	307.617	85.9234	307.617	86.3219	307.617	85.688	307.617	86.2675	307.617	85.4211	307.617	86.1604	307.617	85.1402	307.617	86.0115	307.617	84.8639	307.617	85.8322	307.617	84.6097	307.617	85.6325	307.617	84.3911	307.617	85.4202	307.617	84.2158	307.617	85.202	307.617	84.0862	307.617	84.9877	307.617	84.0007	307.617	84.7916	307.617	83.9566	307.617	84.6303	307.617	83.9514	307.617	84.5157	307.617	83.982	307.617	84.447	307.617	84.0425	307.617	84.4096	307.617	84.1227	307.617	84.3818	307.617	84.2087	307.617	84.3439	307.617	84.2858
319.336	86.0007	319.336	85.8738	319.336	86.0599	319.336	85.6864	319.336	86.0483	319.336	85.4497	319.336	85.969	319.336	85.1774	319.336	85.8311	319.336	84.8855	319.336	85.6503	319.336	84.5916	319.336	85.4459	319.336	84.3135	319.336	85.2377	319.336	84.0682	319.336	85.0411	319.336	83.87	319.336	84.8643	319.336	83.7293	319.336	84.7103	319.336	83.6511	319.336	84.5797	319.336	83.635	319.336	84.4749	319.336	83.6749	319.336	84.3989	319.336	83.7595	319.336	84.351	319.336	83.8726	319.336	84.323	319.336	83.9954	319.336	84.2995	319.336	84.1097	319.336	84.2631	319.336	84.201
329.59	85.956	329.59	85.8443	329.59	85.9959	329.59	85.67	329.59	85.9596	329.59	85.4459	329.59	85.8487	329.59	85.187	329.59	85.6712	329.59	84.9094	329.59	85.4423	329.59	84.6288	329.59	85.1825	329.59	84.3593	329.59	84.9159	329.59	84.1132	329.59	84.6645	329.59	83.9001	329.59	84.4441	329.59	83.7277	329.59	84.2622	329.59	83.6021	329.59	84.1195	329.59	83.5276	329.59	84.0136	329.59	83.5047	329.59	83.9411	329.59	83.5284	329.59	83.8972	329.59	83.5867	329.59	83.8736	329.59	83.6623	329.59	83.8578	329.59	83.7371	329.59	83.836	329.59	83.7969
341.309	85.7862	341.309	85.6436	341.309	85.8594	341.309	85.4428	341.309	85.8568	341.309	85.1979	341.309	85.7774	341.309	84.9245	341.309	85.6271	341.309	84.6378	341.309	85.4183	341.309	84.3511	341.309	85.1696	341.309	84.0758	341.309	84.9033	341.309	83.8208	341.309	84.6413	341.309	83.5947	341.309	84.402	341.309	83.4065	341.309	84.1977	341.309	83.2662	341.309	84.0346	341.309	83.183	341.309	83.9142	341.309	83.1625	341.309	83.834	341.309	83.202	341.309	83.7862	341.309	83.2888	341.309	83.7575	341.309	83.4021	341.309	83.7302	341.309	83.518	341.309	83.687	341.309	83.6166
353.027	85.5548	353.027	85.4131	353.027	85.6145	353.027	85.2006	353.027	85.5866	353.027	84.9324	353.027	85.4717	353.027	84.6267	353.027	85.2777	353.027	84.3033	353.027	85.0202	353.027	83.9813	353.027	84.7217	353.027	83.6769	353.027	84.409	353.027	83.4014	353.027	84.1088	353.027	83.1607	353.027	83.8428	353.027	82.9577	353.027	83.6245	353.027	82.7956	353.027	83.4587	353.027	82.6807	353.027	83.3424	353.027	82.6212	353.027	83.2674	353.027	82.6224	353.027	83.2206	353.027	82.6801	353.027	83.1859	353.027	82.7784	353.027	83.1461	353.027	82.8933	353.027	83.0869	353.027	83.0014
366.211	85.4544	366.211	85.294	366.211	85.5413	366.211	85.0734	366.211	85.5454	366.211	84.8081	366.211	85.4633	366.211	84.5149	366.211	85.2982	366.211	84.2094	366.211	85.0616	366.211	83.9047	366.211	84.7724	366.211	83.6108	366.211	84.4553	366.211	83.3337	366.211	84.1353	366.211	83.0766	366.211	83.8331	366.211	82.8412	366.211	83.5615	366.211	82.6303	366.211	83.3268	366.211	82.4501	366.211	83.1303	366.211	82.311	366.211	82.9701	366.211	82.2249	366.211	82.8402	366.211	82.1995	366.211	82.73	366.211	82.2324	366.211	82.6269	366.211	82.3101	366.211	82.5215	366.211	82.4126
379.395	85.4942	379.395	85.3562	379.395	85.5522	379.395	85.1494	379.395	85.5245	379.395	84.8887	379.395	85.4121	379.395	84.5915	379.395	85.2236	379.395	84.2755	379.395	84.9745	379.395	83.9572	379.395	84.6857	379.395	83.6498	379.395	84.3784	379.395	83.3621	379.395	84.0695	379.395	83.099	379.395	83.7695	379.395	82.8632	379.395	83.4848	379.395	82.6592	379.395	83.2236	379.395	82.4951	379.395	82.9998	379.395	82.382	379.395	82.829	379.395	82.329	379.395	82.7184	379.395	82.3359	379.395	82.6586	379.395	82.3891	379.395	82.6252	379.395	82.4648	379.395	82.5907	379.395	82.5374
392.578	85.0109	392.578	84.846	392.578	85.1006	392.578	84.6219	392.578	85.1049	392.578	84.3582	392.578	85.0216	392.578	84.0748	392.578	84.8576	392.578	83.7887	392.578	84.63	392.578	83.5114	392.578	84.3638	392.578	83.2477	392.578	84.0867	392.578	82.9978	392.578	83.8201	392.578	82.7602	392.578	83.5732	392.578	82.5353	392.578	83.3424	392.578	82.3286	392.578	83.12	392.578	82.1512	392.578	82.9037	392.578	82.0183	392.578	82.7018	392.578	81.9436	392.578	82.5283	392.578	81.9314	392.578	82.3924	392.578	81.9718	392.578	82.2902	392.578	82.0439	392.578	82.2065	392.578	82.1259
405.762	84.4249	405.762	84.2805	405.762	84.4837	405.762	84.0625	405.762	84.4543	405.762	83.7916	405.762	84.3429	405.762	83.4953	405.762	84.1641	405.762	83.2031	405.762	83.9389	405.762	82.9399	405.762	83.6911	405.762	82.7191	405.762	83.442	405.762	82.5391	405.762	83.2056	405.762	82.3853	405.762	82.9865	405.762	82.238	405.762	82.7822	405.762	82.0819	405.762	82.5886	405.762	81.9145	405.762	82.4047	405.762	81.7492	405.762	82.2337	405.762	81.6121	405.762	82.0807	405.762	81.5296	405.762	81.9481	405.762	81.5136	405.762	81.8333	405.762	81.5557	405.762	81.7296	405.762	81.6344
420.41	84.1868	420.41	84.0156	420.41	84.2613	420.41	83.7677	420.41	84.2282	420.41	83.4699	420.41	84.0885	420.41	83.1531	420.41	83.8585	420.41	82.8482	420.41	83.5724	420.41	82.5798	420.41	83.2774	420.41	82.3592	420.41	83.019	420.41	82.1804	420.41	82.8186	420.41	82.0212	420.41	82.6606	420.41	81.8515	420.41	82.502	420.41	81.6453	420.41	82.2975	420.41	81.3916	420.41	82.0243	420.41	81.1023	420.41	81.6912	420.41	80.8131	420.41	81.3348	420.41	80.5716	420.41	81.0017	420.41	80.4174	420.41	80.7282	420.41	80.3651	420.41	80.5293	420.41	80.4067
435.059	83.6785	435.059	83.48	435.059	83.7356	435.059	83.1707	435.059	83.6368	435.059	82.7962	435.059	83.3868	435.059	82.4141	435.059	83.0153	435.059	82.0852	435.059	82.5847	435.059	81.8591	435.059	82.1894	435.059	81.7574	435.059	81.9305	435.059	81.7654	435.059	81.8625	435.059	81.8362	435.059	81.9552	435.059	81.9076	435.059	82.1136	435.059	81.9199	435.059	82.2323	435.059	81.8306	435.059	82.2358	435.059	81.6248	435.059	82.0898	435.059	81.3209	435.059	81.8003	435.059	80.9723	435.059	81.411	435.059	80.6592	435.059	80.9976	435.059	80.4682	435.059	80.6534	435.059	80.4621
451.172	86.3362	451.172	85.9813	451.172	86.4902	451.172	85.4426	451.172	86.4321	451.172	84.7488	451.172	86.155	451.172	83.9482	451.172	85.6589	451.172	83.1185	451.172	84.9584	451.172	82.3686	451.172	84.0997	451.172	81.8196	451.172	83.1867	451.172	81.5571	451.172	82.4	451.172	81.5844	451.172	81.9522	451.172	81.8258	451.172	81.946	451.172	82.1741	451.172	82.2809	451.172	82.5366	451.172	82.752	451.172	82.8539	451.172	83.1911	451.172	83.1014	451.172	83.5109	451.172	83.2815	451.172	83.6885	451.172	83.4144	451.172	83.7408	451.172	83.524	451.172	83.7055	451.172	83.6235
465.82	86.7253	465.82	86.4749	465.82	86.8124	465.82	86.067	465.82	86.7325	465.82	85.512	465.82	86.4834	465.82	84.8306	465.82	86.0663	465.82	84.0619	465.82	85.4892	465.82	83.272	465.82	84.773	465.82	82.5546	465.82	83.963	465.82	82.0159	465.82	83.146	465.82	81.7377	465.82	82.4596	465.82	81.7397	465.82	82.061	465.82	81.9746	465.82	82.0356	465.82	82.3568	465.82	82.3262	465.82	82.7978	465.82	82.7811	465.82	83.2264	465.82	83.254	465.82	83.5951	465.82	83.6531	465.82	83.8769	465.82	83.9372	465.82	84.0589	465.82	84.0961	465.82	84.1341
483.398	86.2122	483.398	86.0121	483.398	86.2916	483.398	85.6909	483.398	86.2479	483.398	85.2485	483.398	86.0759	483.398	84.6881	483.398	85.7695	483.398	84.0239	483.398	85.3268	483.398	83.2896	483.398	84.7592	483.398	82.5503	483.398	84.1012	483.398	81.9059	483.398	83.4176	483.398	81.4681	483.398	82.8	483.398	81.3058	483.398	82.3448	483.398	81.3997	483.398	82.1149	483.398	81.6603	483.398	82.109	483.398	81.9875	483.398	82.2672	483.398	82.3112	483.398	82.5048	483.398	82.594	483.398	82.7445	483.398	82.8185	483.398	82.9317	483.398	82.9739	483.398	83.0367	483.398	83.0497
499.512	85.9648	499.512	85.7692	499.512	86.0383	499.512	85.455	499.512	85.985	499.512	85.0265	499.512	85.7993	499.512	84.4913	499.512	85.4761	499.512	83.8655	499.512	85.0157	499.512	83.1792	499.512	84.4301	499.512	82.4827	499.512	83.7525	499.512	81.847	499.512	83.0471	499.512	81.3521	499.512	82.4149	499.512	81.0606	499.512	81.9764	499.512	80.9903	499.512	81.8175	499.512	81.1112	499.512	81.9307	499.512	81.3667	499.512	82.2169	499.512	81.6988	499.512	82.5487	499.512	82.0586	499.512	82.8254	499.512	82.4056	499.512	82.9893	499.512	82.703	499.512	83.0188	499.512	82.917
517.09	85.8646	517.09	85.6933	517.09	85.9181	517.09	85.4079	517.09	85.851	517.09	85.0132	517.09	85.6624	517.09	84.516	517.09	85.3546	517.09	83.9285	517.09	84.9345	517.09	83.2743	517.09	84.4165	517.09	82.5955	517.09	83.8256	517.09	81.9572	517.09	83.2012	517.09	81.4419	517.09	82.6004	517.09	81.1254	517.09	82.0983	517.09	81.0428	517.09	81.7752	517.09	81.1712	517.09	81.6837	517.09	81.4454	517.09	81.812	517.09	81.7903	517.09	82.0817	517.09	82.1414	517.09	82.3871	517.09	82.4493	517.09	82.6385	517.09	82.676	517.09	82.781	517.09	82.7927
536.133	85.5615	536.133	85.3599	536.133	85.6341	536.133	85.0392	536.133	85.5715	536.133	84.6129	536.133	85.3727	536.133	84.0973	536.133	85.0435	536.133	83.5128	536.133	84.5977	536.133	82.8873	536.133	84.0593	536.133	82.2626	536.133	83.4617	536.133	81.6971	536.133	82.8484	536.133	81.2587	536.133	82.2743	536.133	81.0039	536.133	81.8077	536.133	80.9525	536.133	81.5207	536.133	81.0805	536.133	81.4595	536.133	81.3364	536.133	81.6103	536.133	81.6629	536.133	81.8981	536.133	82.0067	536.133	82.2223	536.133	82.3185	536.133	82.4937	536.133	82.553	536.133	82.6528	536.133	82.6722
555.176	86.0329	555.176	85.8126	555.176	86.1152	555.176	85.4671	555.176	86.0482	555.176	85.008	555.176	85.8262	555.176	84.445	555.176	85.4542	555.176	83.7871	555.176	84.9518	555.176	83.0493	555.176	84.354	555.176	82.2644	555.176	83.7062	555.176	81.4963	555.176	83.0541	555.176	80.8446	555.176	82.4373	555.176	80.4184	555.176	81.8941	555.176	80.2745	555.176	81.4754	555.176	80.3755	555.176	81.2395	555.176	80.6217	555.176	81.2125	555.176	80.9193	555.176	81.3512	555.176	81.212	555.176	81.5587	555.176	81.4716	555.176	81.7377	555.176	81.677	555.176	81.8262	555.176	81.803
574.219	85.9025	574.219	85.6673	574.219	86.018	574.219	85.3275	574.219	86.0019	574.219	84.9013	574.219	85.8447	574.219	84.408	574.219	85.5403	574.219	83.8641	574.219	85.0902	574.219	83.2798	574.219	84.5097	574.219	82.6613	574.219	83.8344	574.219	82.0218	574.219	83.1238	574.219	81.4004	574.219	82.4614	574.219	80.8759	574.219	81.9452	574.219	80.5512	574.219	81.6588	574.219	80.493	574.219	81.6258	574.219	80.6772	574.219	81.7851	574.219	81.0103	574.219	82.0251	574.219	81.3941	574.219	82.2427	574.219	81.7603	574.219	82.3735	574.219	82.0663	574.219	82.3886	574.219	82.2828
594.727	85.5434	594.727	85.2717	594.727	85.6841	594.727	84.8872	594.727	85.6792	594.727	84.4127	594.727	85.5185	594.727	83.8755	594.727	85.2015	594.727	83.3028	594.727	84.744	594.727	82.7162	594.727	84.1814	594.727	82.1308	594.727	83.566	594.727	81.5635	594.727	82.9575	594.727	81.05	594.727	82.4088	594.727	80.656	594.727	81.9609	594.727	80.4638	594.727	81.6522	594.727	80.5254	594.727	81.5291	594.727	80.8193	594.727	81.6224	594.727	81.2596	594.727	81.8987	594.727	81.7439	594.727	82.2517	594.727	82.1865	594.727	82.5563	594.727	82.5241	594.727	82.7228	594.727	82.7119
615.234	85.7527	615.234	85.4429	615.234	85.8996	615.234	84.9875	615.234	85.8759	615.234	84.4169	615.234	85.682	615.234	83.777	615.234	85.3274	615.234	83.126	615.234	84.8322	615.234	82.5211	615.234	84.2294	615.234	81.9969	615.234	83.562	615.234	81.553	615.234	82.8764	615.234	81.1669	615.234	82.2166	615.234	80.8298	615.234	81.6361	615.234	80.5774	615.234	81.2178	615.234	80.4822	615.234	81.0566	615.234	80.5979	615.234	81.1773	615.234	80.9023	615.234	81.485	615.234	81.3044	615.234	81.829	615.234	81.6995	615.234	82.0928	615.234	82.0096	615.234	82.2187	615.234	82.1896
637.207	85.7323	637.207	85.334	637.207	85.9911	637.207	84.8352	637.207	86.0792	637.207	84.2769	637.207	85.9763	637.207	83.6916	637.207	85.6767	637.207	83.0958	637.207	85.195	637.207	82.4917	637.207	84.5718	637.207	81.8795	637.207	83.8706	637.207	81.2754	637.207	83.1628	637.207	80.7237	637.207	82.5071	637.207	80.2961	637.207	81.9542	637.207	80.0669	637.207	81.5758	637.207	80.0769	637.207	81.4623	637.207	80.3111	637.207	81.6391	637.207	80.7119	637.207	82.0007	637.207	81.2053	637.207	82.3726	637.207	81.716	637.207	82.6157	637.207	82.1712	637.207	82.6626	637.207	82.5045
659.18	86.3254	659.18	85.9484	659.18	86.5393	659.18	85.4346	659.18	86.5743	659.18	84.8207	659.18	86.4237	659.18	84.1489	659.18	86.0894	659.18	83.4601	659.18	85.586	659.18	82.7844	659.18	84.9502	659.18	82.1364	659.18	84.2463	659.18	81.5172	659.18	83.5483	659.18	80.9279	659.18	82.897	659.18	80.3936	659.18	82.2796	659.18	79.9854	659.18	81.6942	659.18	79.8145	659.18	81.265	659.18	79.9721	659.18	81.2223	659.18	80.4509	659.18	81.6301	659.18	81.1351	659.18	82.2429	659.18	81.8623	659.18	82.7512	659.18	82.4825	659.18	82.9794	659.18	82.8802
682.617	86.3555	682.617	86.1153	682.617	86.4331	682.617	85.7366	682.617	86.3354	682.617	85.2565	682.617	86.0577	682.617	84.7199	682.617	85.6025	682.617	84.17	682.617	84.9857	682.617	83.6415	682.617	84.2454	682.617	83.1597	682.617	83.4466	682.617	82.7428	682.617	82.6718	682.617	82.4026	682.617	81.9905	682.617	82.1434	682.617	81.4262	682.617	81.9646	682.617	80.9688	682.617	81.87	682.617	80.643	682.617	81.8745	682.617	80.5553	682.617	81.9923	682.617	80.8057	682.617	82.2076	682.617	81.3319	682.617	82.4532	682.617	81.9254	682.617	82.6259	682.617	82.3895	682.617	82.625
707.52	85.7684	707.52	85.5546	707.52	85.7892	707.52	85.1798	707.52	85.6011	707.52	84.6947	707.52	85.204	707.52	84.1623	707.52	84.6209	707.52	83.6372	707.52	83.9044	707.52	83.1414	707.52	83.1299	707.52	82.6613	707.52	82.3714	707.52	82.1713	707.52	81.6758	707.52	81.6755	707.52	81.0573	707.52	81.2376	707.52	80.5199	707.52	80.9633	707.52	80.0892	707.52	80.9224	707.52	79.8262	707.52	81.0827	707.52	79.8053	707.52	81.343	707.52	80.0571	707.52	81.6055	707.52	80.5176	707.52	81.8003	707.52	81.0451	707.52	81.8733	707.52	81.4953	707.52	81.7792
732.422	85.9052	732.422	85.5957	732.422	86.0159	732.422	85.1008	732.422	85.9334	732.422	84.4642	732.422	85.6694	732.422	83.7643	732.422	85.2349	732.422	83.099	732.422	84.6445	732.422	82.5478	732.422	83.933	732.422	82.1244	732.422	83.1713	732.422	81.7659	732.422	82.4534	732.422	81.3809	732.422	81.8351	732.422	80.9272	732.422	81.2845	732.422	80.4662	732.422	80.741	732.422	80.1508	732.422	80.252	732.422	80.1197	732.422	80.0242	732.422	80.3809	732.422	80.2309	732.422	80.8196	732.422	80.7627	732.422	81.2877	732.422	81.3304	732.422	81.6544	732.422	81.7116	732.422	81.8174
757.324	86.3545	757.324	85.964	757.324	86.5072	757.324	85.3773	757.324	86.4107	757.324	84.6647	757.324	86.0799	757.324	83.9121	757.324	85.5512	757.324	83.1984	757.324	84.8787	757.324	82.5734	757.324	84.133	757.324	82.0485	757.324	83.3939	757.324	81.6003	757.324	82.725	757.324	81.1822	757.324	82.1375	757.324	80.7513	757.324	81.5898	757.324	80.318	757.324	81.0537	757.324	79.9932	757.324	80.59	757.324	79.9569	757.324	80.3454	757.324	80.2921	757.324	80.4374	757.324	80.8649	757.324	80.8282	757.324	81.4367	757.324	81.3354	757.324	81.8231	757.324	81.751	757.324	81.9329
785.156	86.3438	785.156	85.8476	785.156	86.6192	785.156	85.1923	785.156	86.6343	785.156	84.4637	785.156	86.3694	785.156	83.762	785.156	85.8294	785.156	83.1727	785.156	85.0563	785.156	82.7321	785.156	84.14	785.156	82.4104	785.156	83.2133	785.156	82.1257	785.156	82.4101	785.156	81.7807	785.156	81.7829	785.156	81.3059	785.156	81.2622	785.156	80.7073	785.156	80.7452	785.156	80.1079	785.156	80.2482	785.156	79.7237	785.156	79.9526	785.156	79.7123	785.156	80.0211	785.156	80.0255	785.156	80.3756	785.156	80.4711	785.156	80.7793	785.156	80.8607	785.156	81.0405	785.156	81.07
811.523	86.1386	811.523	85.7793	811.523	86.3276	811.523	85.2786	811.523	86.3283	811.523	84.6833	811.523	86.1221	811.523	84.0469	811.523	85.6899	811.523	83.4103	811.523	85.0286	811.523	82.7973	811.523	84.1773	811.523	82.2315	811.523	83.247	811.523	81.7445	811.523	82.4136	811.523	81.3514	811.523	81.7949	811.523	81.0146	811.523	81.3117	811.523	80.6603	811.523	80.7815	811.523	80.2577	811.523	80.1497	811.523	79.8992	811.523	79.5953	811.523	79.7806	811.523	79.4179	811.523	80.0142	811.523	79.7304	811.523	80.4679	811.523	80.3054	811.523	80.8727	811.523	80.8059	811.523	81.0141
840.82	86.4058	840.82	85.9991	840.82	86.6445	840.82	85.48	840.82	86.6735	840.82	84.9112	840.82	86.4694	840.82	84.3551	840.82	86.0267	840.82	83.8609	840.82	85.3583	840.82	83.4336	840.82	84.5054	840.82	83.0174	840.82	83.5582	840.82	82.5323	840.82	82.6574	840.82	81.9359	840.82	81.9068	840.82	81.2495	840.82	81.2536	840.82	80.5424	840.82	80.5693	840.82	79.9108	840.82	79.9061	840.82	79.4823	840.82	79.5625	840.82	79.406	840.82	79.7344	840.82	79.7444	840.82	80.2483	840.82	80.3486	840.82	80.806	840.82	80.9283	840.82	81.1845	840.82	81.2399
870.117	86.2552	870.117	85.929	870.117	86.4424	870.117	85.489	870.117	86.4788	870.117	84.9865	870.117	86.3425	870.117	84.4845	870.117	85.9973	870.117	84.0248	870.117	85.409	870.117	83.611	870.117	84.5722	870.117	83.2209	870.117	83.563	870.117	82.8216	870.117	82.5947	870.117	82.3667	870.117	81.9077	870.117	81.8001	870.117	81.4528	870.117	81.0955	870.117	80.9064	870.117	80.3267	870.117	80.0869	870.117	79.7237	870.117	79.223	870.117	79.5947	870.117	78.8959	870.117	80.0276	870.117	79.4229	870.117	80.7369	870.117	80.3787	870.117	81.322	870.117	81.1737	870.117	81.5061
900.879	86.8224	900.879	86.6542	900.879	86.7756	900.879	86.228	900.879	86.5766	900.879	85.5505	900.879	86.2739	900.879	84.702	900.879	85.8702	900.879	83.8257	900.879	85.3186	900.879	83.0461	900.879	84.5603	900.879	82.3863	900.879	83.5975	900.879	81.8207	900.879	82.5751	900.879	81.3803	900.879	81.7476	900.879	81.1101	900.879	81.2029	900.879	80.9272	900.879	80.7332	900.879	80.6351	900.879	80.1706	900.879	80.1175	900.879	79.6533	900.879	79.5376	900.879	79.5173	900.879	79.3727	900.879	79.907	900.879	79.896	900.879	80.5712	900.879	80.6819	900.879	81.0939	900.879	81.1595
933.105	86.7845	933.105	86.649	933.105	86.644	933.105	86.2309	933.105	86.2739	933.105	85.5586	933.105	85.7564	933.105	84.6997	933.105	85.1703	933.105	83.7726	933.105	84.5403	933.105	82.9195	933.105	83.8291	933.105	82.2202	933.105	83.0073	933.105	81.6359	933.105	82.1667	933.105	81.0719	933.105	81.5441	933.105	80.4899	933.105	81.2608	933.105	79.9596	933.105	81.0953	933.105	79.5916	933.105	80.756	933.105	79.4152	933.105	80.1928	933.105	79.3927	933.105	79.661	933.105	79.5346	933.105	79.5637	933.105	79.8753	933.105	79.9609	933.105	80.3059	933.105	80.4236	933.105	80.5585
965.332	87.3262	965.332	87.1757	965.332	87.1831	965.332	86.6907	965.332	86.8157	965.332	85.8737	965.332	86.2973	965.332	84.7916	965.332	85.6734	965.332	83.6013	965.332	84.9405	965.332	82.5167	965.332	84.0523	965.332	81.6513	965.332	82.9629	965.332	80.9082	965.332	81.7208	965.332	80.1417	965.332	80.5527	965.332	79.414	965.332	79.7482	965.332	79.016	965.332	79.3811	965.332	79.0926	965.332	79.3043	965.332	79.3982	965.332	79.3369	965.332	79.6275	965.332	79.3652	965.332	79.7157	965.332	79.4412	965.332	79.8103	965.332	79.6919	965.332	80.0021	965.332	80.01	965.332	80.133
1,000.49	88.0221	1,000.49	87.8175	1,000.49	87.8687	1,000.49	87.2693	1,000.49	87.4116	1,000.49	86.435	1,000.49	86.7702	1,000.49	85.3867	1,000.49	86.0679	1,000.49	84.2102	1,000.49	85.3414	1,000.49	83.0392	1,000.49	84.5193	1,000.49	82.047	1,000.49	83.5145	1,000.49	81.2948	1,000.49	82.3657	1,000.49	80.6151	1,000.49	81.3109	1,000.49	79.7725	1,000.49	80.5966	1,000.49	78.7634	1,000.49	80.1404	1,000.49	78.0537	1,000.49	79.657	1,000.49	78.1999	1,000.49	79.052	1,000.49	78.956	1,000.49	78.6094	1,000.49	79.7354	1,000.49	78.7913	1,000.49	80.3072	1,000.49	79.5412	1,000.49	80.6416	1,000.49	80.2927	1,000.49	80.6714
1,035.64	88.0042	1,035.64	87.7195	1,035.64	87.8621	1,035.64	87.0502	1,035.64	87.3337	1,035.64	86.0903	1,035.64	86.5665	1,035.64	84.9582	1,035.64	85.7607	1,035.64	83.7404	1,035.64	85.0122	1,035.64	82.4678	1,035.64	84.2201	1,035.64	81.2692	1,035.64	83.2396	1,035.64	80.4816	1,035.64	82.163	1,035.64	80.2229	1,035.64	81.3556	1,035.64	80.0466	1,035.64	80.909	1,035.64	79.4642	1,035.64	80.3861	1,035.64	78.4154	1,035.64	79.4439	1,035.64	77.407	1,035.64	78.2279	1,035.64	77.3909	1,035.64	77.3682	1,035.64	78.5592	1,035.64	77.6112	1,035.64	79.9479	1,035.64	78.8632	1,035.64	80.8159	1,035.64	80.1876	1,035.64	80.9069
1,072.27	89.044	1,072.27	88.9061	1,072.27	88.7547	1,072.27	88.2285	1,072.27	88.1545	1,072.27	86.921	1,072.27	87.3617	1,072.27	85.012	1,072.27	86.4809	1,072.27	82.901	1,072.27	85.544	1,072.27	81.5183	1,072.27	84.469	1,072.27	81.3858	1,072.27	83.1878	1,072.27	81.8499	1,072.27	81.9302	1,072.27	82.142	1,072.27	81.0837	1,072.27	81.9673	1,072.27	80.5344	1,072.27	81.4591	1,072.27	80.0453	1,072.27	80.9113	1,072.27	79.8458	1,072.27	80.4117	1,072.27	79.895	1,072.27	79.9651	1,072.27	79.6747	1,072.27	79.9253	1,072.27	79.4237	1,072.27	80.6432	1,072.27	80.1767	1,072.27	81.621	1,072.27	81.4468	1,072.27	82.0251
1,108.89	90.7322	1,108.89	90.566	1,108.89	90.543	1,108.89	89.9759	1,108.89	90.0091	1,108.89	88.8354	1,108.89	89.1839	1,108.89	87.068	1,108.89	88.238	1,108.89	84.8105	1,108.89	87.3448	1,108.89	82.5653	1,108.89	86.4454	1,108.89	81.0682	1,108.89	85.2649	1,108.89	80.5504	1,108.89	83.6964	1,108.89	80.4625	1,108.89	82.2696	1,108.89	80.3119	1,108.89	81.8565	1,108.89	80.1966	1,108.89	82.2033	1,108.89	80.5291	1,108.89	82.4951	1,108.89	81.2369	1,108.89	82.3958	1,108.89	81.8165	1,108.89	81.7952	1,108.89	82.1385	1,108.89	81.0162	1,108.89	82.5353	1,108.89	81.2543	1,108.89	83.069	1,108.89	82.4553	1,108.89	83.1946
1,148.44	90.5374	1,148.44	90.3889	1,148.44	90.3341	1,148.44	89.8312	1,148.44	89.8391	1,148.44	88.7701	1,148.44	89.167	1,148.44	87.1278	1,148.44	88.4346	1,148.44	84.9818	1,148.44	87.6317	1,148.44	82.8061	1,148.44	86.5925	1,148.44	81.6396	1,148.44	85.1265	1,148.44	81.9624	1,148.44	83.2212	1,148.44	82.7099	1,148.44	81.3497	1,148.44	82.8468	1,148.44	80.459	1,148.44	82.0305	1,148.44	80.7858	1,148.44	80.5131	1,148.44	81.5867	1,148.44	79.2497	1,148.44	82.0465	1,148.44	79.2549	1,148.44	81.6044	1,148.44	80.1944	1,148.44	80.4602	1,148.44	81.2865	1,148.44	80.3186	1,148.44	82.1458	1,148.44	81.5669	1,148.44	82.3576
1,189.45	90.2964	1,189.45	90.2041	1,189.45	90.0443	1,189.45	89.7377	1,189.45	89.4521	1,189.45	88.8479	1,189.45	88.5702	1,189.45	87.5403	1,189.45	87.5755	1,189.45	85.9221	1,189.45	86.7242	1,189.45	84.1367	1,189.45	86.0461	1,189.45	82.3715	1,189.45	85.133	1,189.45	81.3561	1,189.45	83.4938	1,189.45	81.8045	1,189.45	81.1172	1,189.45	82.4964	1,189.45	79.0165	1,189.45	82.2355	1,189.45	78.7732	1,189.45	81.0062	1,189.45	80.1665	1,189.45	79.7461	1,189.45	81.6126	1,189.45	79.8704	1,189.45	81.9231	1,189.45	80.9585	1,189.45	80.8	1,189.45	81.8006	1,189.45	79.6135	1,189.45	82.0983	1,189.45	80.4294	1,189.45	81.6794
1,230.47	90.3472	1,230.47	90.14	1,230.47	90.134	1,230.47	89.5641	1,230.47	89.5042	1,230.47	88.6645	1,230.47	88.6103	1,230.47	87.481	1,230.47	87.7575	1,230.47	86.0947	1,230.47	87.1619	1,230.47	84.5873	1,230.47	86.6354	1,230.47	82.9623	1,230.47	85.6782	1,230.47	81.5606	1,230.47	83.9952	1,230.47	81.7203	1,230.47	81.8652	1,230.47	83.144	1,230.47	79.9186	1,230.47	83.8873	1,230.47	78.5738	1,230.47	83.2001	1,230.47	78.8358	1,230.47	81.2345	1,230.47	80.4086	1,230.47	79.4376	1,230.47	81.0204	1,230.47	79.5111	1,230.47	80.1971	1,230.47	80.1288	1,230.47	79.319	1,230.47	80.3141	1,230.47	79.573	1,230.47	80.1031
1,274.41	89.9758	1,274.41	89.9289	1,274.41	89.7044	1,274.41	89.5335	1,274.41	89.1627	1,274.41	88.8035	1,274.41	88.4359	1,274.41	87.7841	1,274.41	87.6103	1,274.41	86.4578	1,274.41	86.7113	1,274.41	84.7306	1,274.41	85.7758	1,274.41	82.5952	1,274.41	84.7959	1,274.41	80.2201	1,274.41	83.6974	1,274.41	78.6342	1,274.41	82.5303	1,274.41	79.8815	1,274.41	81.3469	1,274.41	81.724	1,274.41	80.3316	1,274.41	82.1132	1,274.41	80.7423	1,274.41	80.834	1,274.41	82.1769	1,274.41	78.5055	1,274.41	82.3518	1,274.41	78.2871	1,274.41	80.4962	1,274.41	80.2265	1,274.41	77.9946	1,274.41	81.1904	1,274.41	78.7772	1,274.41	80.6283
1,319.82	89.9025	1,319.82	89.6708	1,319.82	89.9319	1,319.82	89.2626	1,319.82	89.7501	1,319.82	88.7073	1,319.82	89.2605	1,319.82	87.9433	1,319.82	88.272	1,319.82	86.8364	1,319.82	86.7148	1,319.82	85.2446	1,319.82	84.9492	1,319.82	83.2628	1,319.82	83.5216	1,319.82	81.689	1,319.82	82.2116	1,319.82	80.5563	1,319.82	80.7967	1,319.82	79.2061	1,319.82	79.9638	1,319.82	79.4048	1,319.82	79.2811	1,319.82	80.7225	1,319.82	78.4015	1,319.82	80.5713	1,319.82	80.3507	1,319.82	77.8571	1,319.82	82.6488	1,319.82	75.9409	1,319.82	82.8205	1,319.82	78.1164	1,319.82	81.3622	1,319.82	79.1531	1,319.82	79.6918	1,319.82	79.1648
1,366.7	89.5278	1,366.7	89.5844	1,366.7	89.3306	1,366.7	89.1483	1,366.7	89.1815	1,366.7	88.0316	1,366.7	88.9216	1,366.7	86.4624	1,366.7	88.2341	1,366.7	84.9588	1,366.7	87.0742	1,366.7	83.5119	1,366.7	85.8417	1,366.7	81.5284	1,366.7	84.7209	1,366.7	79.8947	1,366.7	83.0654	1,366.7	79.7635	1,366.7	80.5057	1,366.7	79.4468	1,366.7	78.5455	1,366.7	79.7547	1,366.7	77.811	1,366.7	80.8062	1,366.7	76.8248	1,366.7	80.7097	1,366.7	79.3504	1,366.7	78.6667	1,366.7	81.6553	1,366.7	75.3717	1,366.7	81.1757	1,366.7	76.0225	1,366.7	79.2991	1,366.7	78.7632	1,366.7	79.0853	1,366.7	79.6642
1,413.57	89.4455	1,413.57	89.4341	1,413.57	89.1163	1,413.57	88.6552	1,413.57	88.9579	1,413.57	87.1448	1,413.57	89.024	1,413.57	85.5114	1,413.57	88.8294	1,413.57	84.3438	1,413.57	87.9154	1,413.57	83.2963	1,413.57	86.3628	1,413.57	81.2415	1,413.57	84.7195	1,413.57	77.7807	1,413.57	82.9826	1,413.57	75.7177	1,413.57	80.7065	1,413.57	75.5163	1,413.57	78.7873	1,413.57	76.6527	1,413.57	78.3409	1,413.57	79.5751	1,413.57	78.7003	1,413.57	81.0528	1,413.57	80.9549	1,413.57	79.452	1,413.57	81.5919	1,413.57	75.3636	1,413.57	79.3766	1,413.57	74.7943	1,413.57	77.7605	1,413.57	76.7044	1,413.57	78.1509	1,413.57	77.868
1,463.38	89.7738	1,463.38	89.6296	1,463.38	89.6863	1,463.38	88.491	1,463.38	89.9794	1,463.38	86.5537	1,463.38	90.2207	1,463.38	84.542	1,463.38	89.7567	1,463.38	82.8899	1,463.38	87.9702	1,463.38	82.1619	1,463.38	85.0485	1,463.38	81.507	1,463.38	82.4786	1,463.38	79.4036	1,463.38	81.0749	1,463.38	76.1681	1,463.38	79.8106	1,463.38	73.6915	1,463.38	79.1444	1,463.38	71.79	1,463.38	79.6659	1,463.38	75.4887	1,463.38	77.9292	1,463.38	78.3573	1,463.38	79.1917	1,463.38	77.8766	1,463.38	81.8535	1,463.38	75.5498	1,463.38	80.4841	1,463.38	74.4285	1,463.38	76.523	1,463.38	77.7097	1,463.38	76.3155	1,463.38	78.3128
1,516.11	90.0626	1,516.11	89.0531	1,516.11	90.6496	1,516.11	87.849	1,516.11	90.5754	1,516.11	86.7259	1,516.11	89.8555	1,516.11	85.4354	1,516.11	88.7784	1,516.11	83.5508	1,516.11	87.3484	1,516.11	81.9977	1,516.11	85.6	1,516.11	81.1315	1,516.11	84.0897	1,516.11	80.3702	1,516.11	83.1251	1,516.11	79.2328	1,516.11	82.0306	1,516.11	77.794	1,516.11	80.862	1,516.11	74.2629	1,516.11	80.7652	1,516.11	60.6702	1,516.11	77.9877	1,516.11	67.36	1,516.11	75.508	1,516.11	73.7574	1,516.11	80.0914	1,516.11	74.4176	1,516.11	80.6192	1,516.11	73.5996	1,516.11	78.734	1,516.11	77.6079	1,516.11	78.1678	1,516.11	79.0474
1,568.85	90.0126	1,568.85	88.9277	1,568.85	90.7637	1,568.85	88.1042	1,568.85	90.5342	1,568.85	87.5064	1,568.85	89.2118	1,568.85	86.2164	1,568.85	87.4814	1,568.85	83.3561	1,568.85	86.3627	1,568.85	79.7111	1,568.85	85.9308	1,568.85	78.7814	1,568.85	85.3691	1,568.85	80.2912	1,568.85	84.3475	1,568.85	81.0497	1,568.85	82.8343	1,568.85	81.0834	1,568.85	80.9249	1,568.85	80.1653	1,568.85	79.9644	1,568.85	77.392	1,568.85	77.9604	1,568.85	73.1132	1,568.85	74.0408	1,568.85	75.0555	1,568.85	77.4071	1,568.85	76.8618	1,568.85	79.2676	1,568.85	74.5048	1,568.85	79.0283	1,568.85	75.9608	1,568.85	78.3497	1,568.85	77.7057
1,624.51	88.6481	1,624.51	87.8204	1,624.51	89.3217	1,624.51	87.4965	1,624.51	89.0311	1,624.51	87.3805	1,624.51	87.7426	1,624.51	86.4871	1,624.51	86.4337	1,624.51	84.1799	1,624.51	85.8741	1,624.51	80.7138	1,624.51	85.2438	1,624.51	78.1203	1,624.51	83.8075	1,624.51	78.9613	1,624.51	82.4491	1,624.51	78.6963	1,624.51	81.4417	1,624.51	77.9293	1,624.51	80.3975	1,624.51	79.9892	1,624.51	79.8768	1,624.51	80.9093	1,624.51	77.5199	1,624.51	79.1922	1,624.51	75.0458	1,624.51	78.0519	1,624.51	76.6451	1,624.51	77.0318	1,624.51	76.115	1,624.51	72.5923	1,624.51	75.9448	1,624.51	72.8523	1,624.51	77.7595	1,624.51	76.8571
1,681.64	88.3212	1,681.64	87.221	1,681.64	88.4728	1,681.64	86.2408	1,681.64	87.883	1,681.64	86.0824	1,681.64	87.3426	1,681.64	85.5345	1,681.64	86.7161	1,681.64	84.1382	1,681.64	85.7703	1,681.64	83.0158	1,681.64	84.2528	1,681.64	81.9111	1,681.64	81.7454	1,681.64	80.4413	1,681.64	79.5055	1,681.64	79.6901	1,681.64	79.2916	1,681.64	78.1271	1,681.64	78.8207	1,681.64	78.6719	1,681.64	79.03	1,681.64	80.1292	1,681.64	77.8512	1,681.64	79.3715	1,681.64	75.0057	1,681.64	77.8717	1,681.64	78.2865	1,681.64	75.4247	1,681.64	78.6447	1,681.64	71.4332	1,681.64	74.8676	1,681.64	72.7397	1,681.64	75.8477	1,681.64	76.553
1,741.7	88.5386	1,741.7	87.3401	1,741.7	88.9776	1,741.7	86.1906	1,741.7	88.5244	1,741.7	85.5586	1,741.7	87.5728	1,741.7	84.6784	1,741.7	86.258	1,741.7	83.071	1,741.7	84.9372	1,741.7	82.1173	1,741.7	84.201	1,741.7	82.5873	1,741.7	83.263	1,741.7	82.7642	1,741.7	81.723	1,741.7	81.0142	1,741.7	80.657	1,741.7	76.7089	1,741.7	79.3556	1,741.7	75.708	1,741.7	78.0793	1,741.7	77.4541	1,741.7	76.4154	1,741.7	76.8415	1,741.7	72.5783	1,741.7	75.8861	1,741.7	77.8609	1,741.7	75.4189	1,741.7	80.6686	1,741.7	73.447	1,741.7	78.8054	1,741.7	71.7781	1,741.7	76.243	1,741.7	75.1556
1,803.22	89.1062	1,803.22	88.1827	1,803.22	89.0831	1,803.22	86.8729	1,803.22	88.1928	1,803.22	85.6987	1,803.22	87.2343	1,803.22	84.5954	1,803.22	85.989	1,803.22	83.0656	1,803.22	83.9996	1,803.22	81.0386	1,803.22	81.2822	1,803.22	77.5312	1,803.22	77.9475	1,803.22	77.8045	1,803.22	75.3949	1,803.22	78.1936	1,803.22	74.1183	1,803.22	72.2743	1,803.22	70.2142	1,803.22	51.1386	1,803.22	71.9303	1,803.22	71.5794	1,803.22	73.7996	1,803.22	75.3273	1,803.22	72.5689	1,803.22	75.5054	1,803.22	77.0276	1,803.22	77.0278	1,803.22	80.1518	1,803.22	76.8802	1,803.22	79.1844	1,803.22	75.8007	1,803.22	77.7869	1,803.22	77.1999
1,866.21	87.386	1,866.21	87.2433	1,866.21	87.1752	1,866.21	86.407	1,866.21	87.1509	1,866.21	85.1633	1,866.21	86.5469	1,866.21	84.2469	1,866.21	84.6182	1,866.21	83.4635	1,866.21	82.4955	1,866.21	82.7108	1,866.21	80.5995	1,866.21	81.1283	1,866.21	78.5207	1,866.21	78.7718	1,866.21	77.7463	1,866.21	79.4376	1,866.21	78.1958	1,866.21	79.3351	1,866.21	76.4945	1,866.21	76.4709	1,866.21	71.741	1,866.21	70.4566	1,866.21	72.6194	1,866.21	76.54	1,866.21	71.289	1,866.21	77.0083	1,866.21	72.9522	1,866.21	76.7385	1,866.21	78.4643	1,866.21	76.6069	1,866.21	77.271	1,866.21	74.9618	1,866.21	73.3797	1,866.21	73.8916
1,932.13	85.8008	1,932.13	85.1869	1,932.13	86.5695	1,932.13	84.3154	1,932.13	87.1371	1,932.13	82.8248	1,932.13	86.5907	1,932.13	82.5321	1,932.13	84.7062	1,932.13	82.9727	1,932.13	82.5755	1,932.13	82.0323	1,932.13	80.7249	1,932.13	79.5724	1,932.13	79.8953	1,932.13	75.7748	1,932.13	80.3076	1,932.13	74.1459	1,932.13	79.876	1,932.13	79.0889	1,932.13	78.7522	1,932.13	81.5807	1,932.13	77.0864	1,932.13	78.9725	1,932.13	75.8593	1,932.13	77.711	1,932.13	72.5887	1,932.13	77.3519	1,932.13	72.8353	1,932.13	73.5061	1,932.13	78.1025	1,932.13	72.0315	1,932.13	76.8456	1,932.13	72.8009	1,932.13	70.8942	1,932.13	70.9653
1,999.51	83.7037	1,999.51	83.9969	1,999.51	85.4374	1,999.51	83.1319	1,999.51	87.3147	1,999.51	79.9799	1,999.51	86.3368	1,999.51	79.6553	1,999.51	83.3669	1,999.51	82.0752	1,999.51	82.2895	1,999.51	81.9511	1,999.51	82.1412	1,999.51	78.6862	1,999.51	81.6641	1,999.51	75.2752	1,999.51	81.4199	1,999.51	74.0538	1,999.51	79.7152	1,999.51	78.2016	1,999.51	77.2811	1,999.51	81.9923	1,999.51	76.7469	1,999.51	80.8827	1,999.51	77.7165	1,999.51	78.1453	1,999.51	76.3954	1,999.51	77.6257	1,999.51	69.1514	1,999.51	74.7433	1,999.51	77.8521	1,999.51	71.7349	1,999.51	78.1849	1,999.51	71.2313	1,999.51	72.7608	1,999.51	67.7093
2,069.82	85.2084	2,069.82	84.3316	2,069.82	86.5162	2,069.82	82.4651	2,069.82	87.4991	2,069.82	78.134	2,069.82	86.4104	2,069.82	75.8486	2,069.82	84.8203	2,069.82	79.6463	2,069.82	83.3763	2,069.82	80.1053	2,069.82	79.9761	2,069.82	77.278	2,069.82	76.6082	2,069.82	77.2535	2,069.82	76.6322	2,069.82	78.7966	2,069.82	75.5799	2,069.82	80.2489	2,069.82	69.8158	2,069.82	81.1245	2,069.82	64.431	2,069.82	78.3816	2,069.82	71.795	2,069.82	73.4537	2,069.82	76.6122	2,069.82	72.874	2,069.82	73.8214	2,069.82	73.8902	2,069.82	73.7679	2,069.82	70.9521	2,069.82	77.4676	2,069.82	66.6507	2,069.82	75.5013	2,069.82	66.9119
2,143.07	86.3895	2,143.07	83.8353	2,143.07	87.0333	2,143.07	80.8375	2,143.07	86.2642	2,143.07	79.114	2,143.07	85.0568	2,143.07	75.9758	2,143.07	84.0547	2,143.07	75.5833	2,143.07	81.8323	2,143.07	78.1258	2,143.07	77.5605	2,143.07	78.4802	2,143.07	75.7536	2,143.07	77.2318	2,143.07	75.2135	2,143.07	76.0988	2,143.07	74.0941	2,143.07	76.7942	2,143.07	72.5678	2,143.07	77.6514	2,143.07	67.5409	2,143.07	74.9835	2,143.07	63.8931	2,143.07	69.4869	2,143.07	70.7919	2,143.07	70.198	2,143.07	72.0077	2,143.07	71.9666	2,143.07	74.0804	2,143.07	67.5104	2,143.07	75.2833	2,143.07	62.6009	2,143.07	74.4065	2,143.07	67.9605
2,219.24	85.8105	2,219.24	83.7715	2,219.24	86.6949	2,219.24	81.0581	2,219.24	86.5104	2,219.24	80.152	2,219.24	84.906	2,219.24	79.1795	2,219.24	82.4645	2,219.24	74.7805	2,219.24	80.0059	2,219.24	74.9853	2,219.24	78.8962	2,219.24	77.5104	2,219.24	79.1057	2,219.24	78.5562	2,219.24	77.9194	2,219.24	78.0532	2,219.24	77.3688	2,219.24	77.175	2,219.24	77.7998	2,219.24	78.1954	2,219.24	76.7123	2,219.24	75.6169	2,219.24	66.1801	2,219.24	72.5638	2,219.24	66.3691	2,219.24	74.0225	2,219.24	67.5551	2,219.24	73.7206	2,219.24	71.724	2,219.24	67.8559	2,219.24	74.674	2,219.24	49.2263	2,219.24	72.4333	2,219.24	62.8139
2,296.88	85.4844	2,296.88	83.4813	2,296.88	86.2333	2,296.88	81.5513	2,296.88	85.6809	2,296.88	79.9035	2,296.88	84.4806	2,296.88	78.3621	2,296.88	82.4303	2,296.88	76.1666	2,296.88	77.7452	2,296.88	75.1485	2,296.88	75.617	2,296.88	76.1385	2,296.88	77.307	2,296.88	75.4098	2,296.88	75.2643	2,296.88	75.3749	2,296.88	71.0299	2,296.88	71.5391	2,296.88	72.1153	2,296.88	68.0003	2,296.88	75.3215	2,296.88	65.302	2,296.88	73.1257	2,296.88	71.3021	2,296.88	69.2415	2,296.88	75.0214	2,296.88	64.3238	2,296.88	74.9278	2,296.88	70.8818	2,296.88	65.7689	2,296.88	72.581	2,296.88	59.0934	2,296.88	68.7819	2,296.88	62.9345
2,378.91	87.1872	2,378.91	85.5803	2,378.91	86.6846	2,378.91	83.1178	2,378.91	84.5778	2,378.91	81.3055	2,378.91	82.6829	2,378.91	79.5789	2,378.91	80.2386	2,378.91	77.6523	2,378.91	77.3759	2,378.91	76.2243	2,378.91	75.7621	2,378.91	73.2208	2,378.91	73.8605	2,378.91	68.7512	2,378.91	71.5217	2,378.91	70.8905	2,378.91	72.0173	2,378.91	68.4442	2,378.91	66.599	2,378.91	62.9055	2,378.91	70.0459	2,378.91	70.6023	2,378.91	74.5221	2,378.91	74.236	2,378.91	71.1678	2,378.91	71.9868	2,378.91	69.0198	2,378.91	72.5254	2,378.91	66.5565	2,378.91	67.8803	2,378.91	72.9766	2,378.91	68.6716	2,378.91	68.4706	2,378.91	62.1244
2,462.4	86.4975	2,462.4	85.1255	2,462.4	87.3155	2,462.4	83.2968	2,462.4	86.1869	2,462.4	80.4925	2,462.4	83.0823	2,462.4	78.973	2,462.4	79.8905	2,462.4	80.6428	2,462.4	77.6095	2,462.4	79.9761	2,462.4	76.0547	2,462.4	76.878	2,462.4	76.4578	2,462.4	75.4013	2,462.4	77.7489	2,462.4	73.655	2,462.4	74.5574	2,462.4	72.1799	2,462.4	68.9533	2,462.4	71.2267	2,462.4	67.4324	2,462.4	72.6031	2,462.4	67.343	2,462.4	74.8379	2,462.4	67.4038	2,462.4	72.852	2,462.4	68.676	2,462.4	72.0593	2,462.4	69.4656	2,462.4	71.3207	2,462.4	73.7777	2,462.4	66.7381	2,462.4	72.8559	2,462.4	67.5046
2,548.83	85.5107	2,548.83	83.5778	2,548.83	86.2043	2,548.83	79.6312	2,548.83	86.0519	2,548.83	77.8782	2,548.83	83.8577	2,548.83	80.7389	2,548.83	79.7571	2,548.83	82.2562	2,548.83	75.9729	2,548.83	81.1819	2,548.83	74.2196	2,548.83	79.7257	2,548.83	74.8	2,548.83	78.9407	2,548.83	77.1307	2,548.83	77.5838	2,548.83	75.2196	2,548.83	76.4986	2,548.83	69.1322	2,548.83	74.6418	2,548.83	63.8065	2,548.83	74.3525	2,548.83	72.0416	2,548.83	75.2951	2,548.83	69.5103	2,548.83	72.9939	2,548.83	70.0138	2,548.83	73.2153	2,548.83	68.0708	2,548.83	72.9046	2,548.83	72.2358	2,548.83	64.9871	2,548.83	70.5633	2,548.83	64.2373
2,639.65	86.8286	2,639.65	83.4874	2,639.65	87.3298	2,639.65	78.597	2,639.65	85.8532	2,639.65	77.8182	2,639.65	83.1102	2,639.65	80.892	2,639.65	79.0759	2,639.65	81.9355	2,639.65	74.8691	2,639.65	81.4133	2,639.65	74.6752	2,639.65	79.6053	2,639.65	75.9831	2,639.65	78.0075	2,639.65	76.8951	2,639.65	77.5754	2,639.65	76.6506	2,639.65	76.6348	2,639.65	75.6147	2,639.65	76.333	2,639.65	69.8176	2,639.65	75.25	2,639.65	65.7066	2,639.65	75.502	2,639.65	67.9218	2,639.65	74.1593	2,639.65	69.0782	2,639.65	72.3992	2,639.65	69.9468	2,639.65	71.3346	2,639.65	73.2253	2,639.65	60.731	2,639.65	73.7553	2,639.65	67.9092
2,731.93	86.4883	2,731.93	83.4393	2,731.93	87.7068	2,731.93	79.0213	2,731.93	86.5525	2,731.93	76.9433	2,731.93	83.0959	2,731.93	80.7287	2,731.93	77.7796	2,731.93	82.1668	2,731.93	73.3753	2,731.93	82.1014	2,731.93	75.0423	2,731.93	81.3692	2,731.93	75.2607	2,731.93	80.7183	2,731.93	74.4269	2,731.93	79.8804	2,731.93	73.6985	2,731.93	76.5312	2,731.93	75.554	2,731.93	75.1158	2,731.93	73.6743	2,731.93	76.7562	2,731.93	70.0218	2,731.93	76.2199	2,731.93	67.8342	2,731.93	74.8585	2,731.93	70.0846	2,731.93	73.3995	2,731.93	69.7218	2,731.93	71.1882	2,731.93	73.3531	2,731.93	60.5304	2,731.93	72.9716	2,731.93	66.3525
2,828.61	87.4761	2,828.61	84.682	2,828.61	88.122	2,828.61	79.5521	2,828.61	86.4716	2,828.61	75.8811	2,828.61	82.4296	2,828.61	80.4285	2,828.61	74.9231	2,828.61	82.5979	2,828.61	71.6198	2,828.61	83.1047	2,828.61	75.4229	2,828.61	81.9866	2,828.61	76.4596	2,828.61	80.0174	2,828.61	72.6711	2,828.61	78.5133	2,828.61	74.4683	2,828.61	76.1009	2,828.61	78.7544	2,828.61	74.4531	2,828.61	75.5985	2,828.61	76.3238	2,828.61	74.3228	2,828.61	76.3946	2,828.61	69.2147	2,828.61	75.2808	2,828.61	69.7851	2,828.61	74.533	2,828.61	68.7107	2,828.61	71.1173	2,828.61	71.9758	2,828.61	41.087	2,828.61	74.1699	2,828.61	70.3968
2,928.22	88.101	2,928.22	85.6458	2,928.22	88.1346	2,928.22	79.5694	2,928.22	85.9552	2,928.22	72.9943	2,928.22	81.0163	2,928.22	81.2334	2,928.22	71.0608	2,928.22	83.6595	2,928.22	74.8584	2,928.22	83.9966	2,928.22	78.1589	2,928.22	83.2862	2,928.22	77.8655	2,928.22	80.0285	2,928.22	72.774	2,928.22	77.314	2,928.22	73.1687	2,928.22	78.263	2,928.22	80.2434	2,928.22	75.6856	2,928.22	78.688	2,928.22	75.7344	2,928.22	74.8744	2,928.22	77.3618	2,928.22	73.7369	2,928.22	75.5162	2,928.22	68.5225	2,928.22	74.3258	2,928.22	70.9595	2,928.22	71.8715	2,928.22	72.0143	2,928.22	57.5539	2,928.22	74.9537	2,928.22	70.6054
3,030.76	88.2276	3,030.76	85.7009	3,030.76	88.3908	3,030.76	81.1693	3,030.76	85.3127	3,030.76	73.5654	3,030.76	78.5987	3,030.76	81.7905	3,030.76	70.5313	3,030.76	84.1908	3,030.76	77.9424	3,030.76	84.6322	3,030.76	80.2432	3,030.76	82.8135	3,030.76	79.0814	3,030.76	80.2329	3,030.76	75.8702	3,030.76	79.8329	3,030.76	76.9559	3,030.76	79.6685	3,030.76	79.9835	3,030.76	77.5755	3,030.76	78.2871	3,030.76	75.6906	3,030.76	74.7792	3,030.76	77.5679	3,030.76	72.9452	3,030.76	76.7112	3,030.76	69.2667	3,030.76	75.8776	3,030.76	68.7739	3,030.76	72.465	3,030.76	70.6039	3,030.76	55.6982	3,030.76	74.2977	3,030.76	68.6959
3,137.7	87.6757	3,137.7	86.5782	3,137.7	88.0601	3,137.7	82.061	3,137.7	85.392	3,137.7	74.5785	3,137.7	77.7881	3,137.7	82.1801	3,137.7	73.4678	3,137.7	84.7794	3,137.7	80.1806	3,137.7	84.6243	3,137.7	81.5861	3,137.7	81.0202	3,137.7	78.6454	3,137.7	81.5651	3,137.7	78.2338	3,137.7	81.1665	3,137.7	79.6753	3,137.7	77.5643	3,137.7	80.2415	3,137.7	77.6896	3,137.7	77.6858	3,137.7	75.6115	3,137.7	75.1854	3,137.7	76.4497	3,137.7	74.5698	3,137.7	76.9246	3,137.7	71.856	3,137.7	75.1469	3,137.7	70.077	3,137.7	73.2485	3,137.7	70.635	3,137.7	58.0942	3,137.7	72.9401	3,137.7	65.1421
3,249.02	87.9756	3,249.02	87.378	3,249.02	87.0653	3,249.02	81.1039	3,249.02	84.6396	3,249.02	73.343	3,249.02	77.4958	3,249.02	83.3009	3,249.02	76.3585	3,249.02	85.5517	3,249.02	81.5545	3,249.02	83.9126	3,249.02	83.3096	3,249.02	83.58	3,249.02	80.9697	3,249.02	82.8983	3,249.02	79.8349	3,249.02	79.5776	3,249.02	81.5313	3,249.02	76.4642	3,249.02	81.3567	3,249.02	75.8986	3,249.02	78.1121	3,249.02	76.5985	3,249.02	74.6045	3,249.02	76.3226	3,249.02	76.1879	3,249.02	76.5646	3,249.02	72.9839	3,249.02	75.1994	3,249.02	70.592	3,249.02	72.1207	3,249.02	65.7937	3,249.02	56.5515	3,249.02	69.4631	3,249.02	70.1831
3,363.28	88.1046	3,363.28	86.8168	3,363.28	86.7465	3,363.28	79.6775	3,363.28	83.8616	3,363.28	74.3737	3,363.28	76.5208	3,363.28	83.4827	3,363.28	76.5935	3,363.28	84.3805	3,363.28	82.2057	3,363.28	84.2236	3,363.28	84.6537	3,363.28	83.9601	3,363.28	83.7041	3,363.28	79.3825	3,363.28	82.6301	3,363.28	76.4129	3,363.28	82.6898	3,363.28	77.9679	3,363.28	81.172	3,363.28	76.2472	3,363.28	76.2046	3,363.28	76.0407	3,363.28	71.9652	3,363.28	76.5531	3,363.28	76.0301	3,363.28	76.4524	3,363.28	72.9724	3,363.28	75.0867	3,363.28	72.6642	3,363.28	73.1132	3,363.28	60.5739	3,363.28	64.3636	3,363.28	70.8474	3,363.28	69.4426
3,481.93	88.2297	3,481.93	86.9524	3,481.93	86.8784	3,481.93	79.035	3,481.93	83.9841	3,481.93	75.44	3,481.93	75.6469	3,481.93	83.5487	3,481.93	78.3112	3,481.93	85.5053	3,481.93	82.6686	3,481.93	85.7815	3,481.93	84.9904	3,481.93	83.3799	3,481.93	85.6186	3,481.93	80.8503	3,481.93	85.0644	3,481.93	81.0884	3,481.93	83.4394	3,481.93	78.3685	3,481.93	81.6611	3,481.93	74.8668	3,481.93	77.406	3,481.93	76.3858	3,481.93	69.1818	3,481.93	77.1073	3,481.93	76.6979	3,481.93	76.4791	3,481.93	70.8505	3,481.93	76.3028	3,481.93	73.7243	3,481.93	72.9364	3,481.93	62.7385	3,481.93	61.8223	3,481.93	71.3213	3,481.93	71.427
3,604.98	88.3648	3,604.98	87.4467	3,604.98	86.5951	3,604.98	79.3291	3,604.98	84.0422	3,604.98	77.3358	3,604.98	75.2353	3,604.98	84.856	3,604.98	79.9855	3,604.98	86.9781	3,604.98	84.962	3,604.98	86.2224	3,604.98	85.0056	3,604.98	84.0109	3,604.98	85.0049	3,604.98	84.1831	3,604.98	85.0033	3,604.98	82.517	3,604.98	82.1608	3,604.98	78.5762	3,604.98	78.5826	3,604.98	76.6449	3,604.98	77.829	3,604.98	76.4184	3,604.98	73.8537	3,604.98	77.202	3,604.98	75.4995	3,604.98	76.756	3,604.98	69.0467	3,604.98	76.7744	3,604.98	73.1982	3,604.98	72.4621	3,604.98	69.22	3,604.98	66.4547	3,604.98	72.1005	3,604.98	69.4266
3,732.42	88.6677	3,732.42	87.6611	3,732.42	85.8442	3,732.42	77.5987	3,732.42	82.5115	3,732.42	77.7762	3,732.42	74.8184	3,732.42	85.0353	3,732.42	80.9691	3,732.42	87.0372	3,732.42	86.5308	3,732.42	86.1307	3,732.42	86.3797	3,732.42	85.1169	3,732.42	86.2154	3,732.42	81.4903	3,732.42	82.6173	3,732.42	77.0388	3,732.42	78.3768	3,732.42	78.2502	3,732.42	65.8681	3,732.42	76.2876	3,732.42	75.9422	3,732.42	72.4963	3,732.42	76.0272	3,732.42	77.2955	3,732.42	74.09	3,732.42	76.7814	3,732.42	70.5449	3,732.42	76.4036	3,732.42	73.6124	3,732.42	72.7658	3,732.42	69.8109	3,732.42	66.8754	3,732.42	72.5217	3,732.42	65.843
3,864.26	90.0648	3,864.26	87.9372	3,864.26	87.5476	3,864.26	77.0699	3,864.26	82.2486	3,864.26	77.8787	3,864.26	72.0804	3,864.26	85.7916	3,864.26	81.3462	3,864.26	87.5498	3,864.26	85.8623	3,864.26	86.9714	3,864.26	86.7451	3,864.26	85.5646	3,864.26	86.8873	3,864.26	80.4786	3,864.26	77.8801	3,864.26	78.9735	3,864.26	71.7633	3,864.26	78.503	3,864.26	72.7272	3,864.26	77.4215	3,864.26	76.2956	3,864.26	73.2313	3,864.26	78.519	3,864.26	77.273	3,864.26	73.5632	3,864.26	76.6748	3,864.26	70.2901	3,864.26	75.4796	3,864.26	72.8712	3,864.26	74.6473	3,864.26	70.9066	3,864.26	65.168	3,864.26	71.2679	3,864.26	66.4909
4,000.49	89.9688	4,000.49	87.3972	4,000.49	87.885	4,000.49	78.1842	4,000.49	82.1905	4,000.49	78.8454	4,000.49	67.1083	4,000.49	86.3943	4,000.49	83.6521	4,000.49	87.8068	4,000.49	86.6789	4,000.49	87.0357	4,000.49	87.135	4,000.49	83.1201	4,000.49	86.3816	4,000.49	81.5018	4,000.49	79.6011	4,000.49	81.2651	4,000.49	73.5208	4,000.49	76.7576	4,000.49	79.7974	4,000.49	76.7189	4,000.49	78.5554	4,000.49	73.621	4,000.49	75.4141	4,000.49	74.7843	4,000.49	71.6965	4,000.49	77.8093	4,000.49	70.1949	4,000.49	74.9134	4,000.49	69.2769	4,000.49	75.2041	4,000.49	70.278	4,000.49	68.3045	4,000.49	69.1737	4,000.49	64.8626
4,141.11	90.0767	4,141.11	87.6966	4,141.11	88.7367	4,141.11	79.1349	4,141.11	81.7311	4,141.11	79.3099	4,141.11	73.9868	4,141.11	86.768	4,141.11	83.3529	4,141.11	88.324	4,141.11	86.8081	4,141.11	86.9641	4,141.11	87.7699	4,141.11	84.301	4,141.11	86.3728	4,141.11	82.6491	4,141.11	78.4657	4,141.11	74.86	4,141.11	69.4491	4,141.11	72.5121	4,141.11	81.1002	4,141.11	75.6593	4,141.11	81.7819	4,141.11	74.178	4,141.11	78.9761	4,141.11	71.7468	4,141.11	70.3924	4,141.11	76.9029	4,141.11	71.3159	4,141.11	74.9349	4,141.11	71.0014	4,141.11	74.0031	4,141.11	70.9808	4,141.11	67.911	4,141.11	63.0579	4,141.11	65.1045
4,287.6	90.6745	4,287.6	88.082	4,287.6	88.6593	4,287.6	78.0119	4,287.6	81.0206	4,287.6	81.457	4,287.6	76.8846	4,287.6	88.515	4,287.6	84.8107	4,287.6	88.5266	4,287.6	88.5726	4,287.6	86.4383	4,287.6	88.2497	4,287.6	83.6416	4,287.6	86.2171	4,287.6	78.5522	4,287.6	72.2941	4,287.6	79.1826	4,287.6	66.4643	4,287.6	76.5404	4,287.6	82.2937	4,287.6	72.453	4,287.6	80.519	4,287.6	72.8533	4,287.6	79.2598	4,287.6	70.7107	4,287.6	74.0896	4,287.6	75.9327	4,287.6	74.695	4,287.6	76.2511	4,287.6	71.0505	4,287.6	72.3021	4,287.6	66.539	4,287.6	65.411	4,287.6	59.4042	4,287.6	68.9577
4,438.48	91.7961	4,438.48	88.2924	4,438.48	90.553	4,438.48	76.0357	4,438.48	81.5974	4,438.48	86.1024	4,438.48	75.7279	4,438.48	89.5797	4,438.48	87.0603	4,438.48	88.6416	4,438.48	90.8163	4,438.48	87.9156	4,438.48	88.3064	4,438.48	83.4613	4,438.48	84.415	4,438.48	80.975	4,438.48	75.3758	4,438.48	78.1711	4,438.48	70.6646	4,438.48	68.8156	4,438.48	81.646	4,438.48	72.7376	4,438.48	78.9163	4,438.48	73.2521	4,438.48	77.8616	4,438.48	71.678	4,438.48	74.4673	4,438.48	75.2241	4,438.48	72.544	4,438.48	76.7263	4,438.48	67.1592	4,438.48	74.2111	4,438.48	70.3911	4,438.48	66.8649	4,438.48	60.9243	4,438.48	70.451
4,595.21	92.7205	4,595.21	87.7042	4,595.21	92.389	4,595.21	79.3584	4,595.21	84.047	4,595.21	88.9322	4,595.21	80.2522	4,595.21	90.579	4,595.21	89.3252	4,595.21	89.6523	4,595.21	90.9698	4,595.21	86.6106	4,595.21	89.0056	4,595.21	81.565	4,595.21	81.3274	4,595.21	78.7318	4,595.21	82.6619	4,595.21	71.759	4,595.21	73.9754	4,595.21	74.7353	4,595.21	84.164	4,595.21	67.0741	4,595.21	75.6529	4,595.21	51.7771	4,595.21	76.7802	4,595.21	67.5618	4,595.21	77.787	4,595.21	72.2552	4,595.21	70.8923	4,595.21	76.3498	4,595.21	71.5006	4,595.21	73.2716	4,595.21	73.3704	4,595.21	68.8176	4,595.21	63.6324	4,595.21	64.6256
4,756.35	92.9506	4,756.35	84.0354	4,756.35	92.9942	4,756.35	85.5149	4,756.35	85.9819	4,756.35	90.8383	4,756.35	83.1084	4,756.35	90.5334	4,756.35	90.3458	4,756.35	87.4952	4,756.35	91.22	4,756.35	82.8085	4,756.35	89.0595	4,756.35	76.955	4,756.35	82.3412	4,756.35	70.2965	4,756.35	86.8876	4,756.35	70.434	4,756.35	78.7882	4,756.35	71.8064	4,756.35	83.0018	4,756.35	69.7861	4,756.35	75.2236	4,756.35	63.7089	4,756.35	78.0997	4,756.35	57.9775	4,756.35	76.841	4,756.35	56.7751	4,756.35	72.4215	4,756.35	71.0962	4,756.35	74.89	4,756.35	71.5597	4,756.35	74.1213	4,756.35	69.9537	4,756.35	68.6722	4,756.35	57.135
4,924.8	92.2526	4,924.8	79.6196	4,924.8	94.101	4,924.8	87.8832	4,924.8	87.0835	4,924.8	91.7558	4,924.8	80.7184	4,924.8	89.7409	4,924.8	88.5058	4,924.8	86.3599	4,924.8	90.1451	4,924.8	80.1517	4,924.8	88.4465	4,924.8	76.1327	4,924.8	83.4648	4,924.8	77.3616	4,924.8	86.9357	4,924.8	72.8688	4,924.8	77.5034	4,924.8	75.1454	4,924.8	77.9875	4,924.8	75.874	4,924.8	71.1647	4,924.8	74.6263	4,924.8	77.4433	4,924.8	69.3808	4,924.8	75.5653	4,924.8	68.6863	4,924.8	72.6815	4,924.8	67.7461	4,924.8	75.3879	4,924.8	73.5084	4,924.8	76.08	4,924.8	70.5115	4,924.8	63.1815	4,924.8	69.7314
5,097.66	91.9886	5,097.66	79.8758	5,097.66	94.4021	5,097.66	89.4021	5,097.66	89.2873	5,097.66	91.1574	5,097.66	83.4786	5,097.66	89.1195	5,097.66	89.3058	5,097.66	86.2992	5,097.66	89.9895	5,097.66	81.1067	5,097.66	88.408	5,097.66	82.286	5,097.66	86.8023	5,097.66	76.6734	5,097.66	84.3696	5,097.66	80.7347	5,097.66	77.4015	5,097.66	77.245	5,097.66	67.3461	5,097.66	76.2708	5,097.66	69.4866	5,097.66	75.4624	5,097.66	76.3818	5,097.66	74.2288	5,097.66	75.0618	5,097.66	75.6769	5,097.66	71.2575	5,097.66	72.3498	5,097.66	74.9353	5,097.66	75.9846	5,097.66	72.0219	5,097.66	74.8466	5,097.66	56.6987	5,097.66	71.87
5,277.83	89.9956	5,277.83	83.3134	5,277.83	92.9258	5,277.83	89.2166	5,277.83	88.8675	5,277.83	89.7156	5,277.83	86.3394	5,277.83	88.9288	5,277.83	90.7131	5,277.83	86.245	5,277.83	90.1563	5,277.83	83.8572	5,277.83	87.7563	5,277.83	84.0957	5,277.83	88.9164	5,277.83	84.2038	5,277.83	83.977	5,277.83	81.8316	5,277.83	78.2265	5,277.83	78.2327	5,277.83	69.3335	5,277.83	77.3295	5,277.83	74.2274	5,277.83	77.0077	5,277.83	72.6094	5,277.83	75.1612	5,277.83	64.5233	5,277.83	76.492	5,277.83	68.9059	5,277.83	75.248	5,277.83	73.7179	5,277.83	75.3699	5,277.83	70.0324	5,277.83	77.3745	5,277.83	60.6215	5,277.83	73.754
5,463.87	89.2586	5,463.87	86.038	5,463.87	91.8066	5,463.87	87.1975	5,463.87	87.0351	5,463.87	88.5347	5,463.87	86.2803	5,463.87	88.2454	5,463.87	89.8314	5,463.87	85.9165	5,463.87	88.7315	5,463.87	85.4994	5,463.87	87.565	5,463.87	84.2587	5,463.87	86.9866	5,463.87	81.1512	5,463.87	82.4583	5,463.87	79.2843	5,463.87	77.417	5,463.87	77.6694	5,463.87	66.8909	5,463.87	72.3372	5,463.87	73.783	5,463.87	73.9648	5,463.87	68.981	5,463.87	73.2637	5,463.87	62.7899	5,463.87	75.4321	5,463.87	69.2694	5,463.87	74.9789	5,463.87	69.389	5,463.87	75.2226	5,463.87	69.435	5,463.87	75.1591	5,463.87	57.8068	5,463.87	73.9328
5,657.23	88.5179	5,657.23	86.2085	5,657.23	90.0165	5,657.23	85.0788	5,657.23	86.1075	5,657.23	88.1604	5,657.23	84.3165	5,657.23	87.359	5,657.23	88.0957	5,657.23	85.8638	5,657.23	88.1241	5,657.23	83.8632	5,657.23	87.646	5,657.23	80.9161	5,657.23	85.2632	5,657.23	78.9186	5,657.23	79.432	5,657.23	74.0051	5,657.23	76.5816	5,657.23	74.1932	5,657.23	60.9186	5,657.23	70.3388	5,657.23	66.372	5,657.23	69.9877	5,657.23	63.9213	5,657.23	69.2012	5,657.23	55.6672	5,657.23	69.8481	5,657.23	70.745	5,657.23	71.8134	5,657.23	72.4467	5,657.23	73.0669	5,657.23	69.3414	5,657.23	73.2713	5,657.23	61.509	5,657.23	71.3615
5,856.45	88.6751	5,856.45	85.7822	5,856.45	88.3969	5,856.45	86.0302	5,856.45	87.3447	5,856.45	88.812	5,856.45	84.5683	5,856.45	86.3847	5,856.45	86.0591	5,856.45	84.8637	5,856.45	86.3629	5,856.45	81.5051	5,856.45	86.1606	5,856.45	78.0325	5,856.45	83.3547	5,856.45	75.4651	5,856.45	78.9441	5,856.45	75.4204	5,856.45	76.3047	5,856.45	72.8558	5,856.45	69.85	5,856.45	72.3477	5,856.45	56.9638	5,856.45	71.0054	5,856.45	69.2685	5,856.45	68.3902	5,856.45	60.3926	5,856.45	69.312	5,856.45	70.5107	5,856.45	70.2416	5,856.45	71.8257	5,856.45	70.8492	5,856.45	67.8681	5,856.45	72.7586	5,856.45	62.2519	5,856.45	71.1045
6,062.99	88.9005	6,062.99	85.3114	6,062.99	87.0433	6,062.99	86.8499	6,062.99	86.8072	6,062.99	87.4785	6,062.99	86.8142	6,062.99	85.87	6,062.99	85.6592	6,062.99	84.686	6,062.99	84.1164	6,062.99	80.291	6,062.99	84.3782	6,062.99	79.7677	6,062.99	82.347	6,062.99	77.6243	6,062.99	80.2476	6,062.99	75.0455	6,062.99	75.0644	6,062.99	73.4075	6,062.99	69.5998	6,062.99	72.5899	6,062.99	64.4465	6,062.99	70.6972	6,062.99	69.5177	6,062.99	69.0158	6,062.99	61.5476	6,062.99	70.7814	6,062.99	70.2732	6,062.99	72.867	6,062.99	70.5284	6,062.99	72.3513	6,062.99	67.3757	6,062.99	73.0298	6,062.99	60.5674	6,062.99	72.1057
6,276.86	89.3818	6,276.86	85.337	6,276.86	88.3967	6,276.86	87.2404	6,276.86	85.8741	6,276.86	87.2859	6,276.86	87.5337	6,276.86	86.4021	6,276.86	86.4574	6,276.86	83.2971	6,276.86	82.656	6,276.86	80.9432	6,276.86	80.8614	6,276.86	79.6548	6,276.86	80.5162	6,276.86	79.0392	6,276.86	79.1546	6,276.86	76.976	6,276.86	72.7567	6,276.86	73.2115	6,276.86	67.5711	6,276.86	72.6569	6,276.86	64.6584	6,276.86	71.5596	6,276.86	69.551	6,276.86	68.9591	6,276.86	62.1031	6,276.86	70.8448	6,276.86	71.8868	6,276.86	72.9773	6,276.86	70.9932	6,276.86	72.5074	6,276.86	66.8665	6,276.86	72.4913	6,276.86	62.0593	6,276.86	72.3534
6,498.05	89.6766	6,498.05	87.5299	6,498.05	87.8533	6,498.05	87.0851	6,498.05	87.5278	6,498.05	86.1764	6,498.05	87.4545	6,498.05	85.5768	6,498.05	84.0182	6,498.05	82.5668	6,498.05	82.0115	6,498.05	82.3384	6,498.05	80.7906	6,498.05	81.1088	6,498.05	81.1458	6,498.05	78.7626	6,498.05	79.3698	6,498.05	75.3967	6,498.05	70.5177	6,498.05	74.3085	6,498.05	64.097	6,498.05	70.645	6,498.05	64.2102	6,498.05	70.2114	6,498.05	70.0906	6,498.05	69.9635	6,498.05	63.8812	6,498.05	69.587	6,498.05	70.724	6,498.05	73.331	6,498.05	71.5814	6,498.05	71.6043	6,498.05	66.1635	6,498.05	71.9223	6,498.05	61.5862	6,498.05	71.2245
6,726.56	90.7422	6,726.56	89.4086	6,726.56	87.2994	6,726.56	86.8468	6,726.56	87.1215	6,726.56	86.7984	6,726.56	87.602	6,726.56	85.1144	6,726.56	82.4428	6,726.56	82.2274	6,726.56	80.1453	6,726.56	82.7821	6,726.56	79.8508	6,726.56	78.8863	6,726.56	83.6634	6,726.56	77.8491	6,726.56	79.6782	6,726.56	74.0126	6,726.56	73.2676	6,726.56	72.1132	6,726.56	69.8615	6,726.56	69.6283	6,726.56	66.7264	6,726.56	68.0279	6,726.56	68.5441	6,726.56	68.3135	6,726.56	67.142	6,726.56	66.6009	6,726.56	69.4942	6,726.56	71.7993	6,726.56	71.4475	6,726.56	70.4597	6,726.56	62.5431	6,726.56	70.5928	6,726.56	63.1354	6,726.56	69.3208
6,963.87	91.4067	6,963.87	89.7636	6,963.87	86.6565	6,963.87	86.7051	6,963.87	86.8071	6,963.87	87.9488	6,963.87	87.0739	6,963.87	84.1139	6,963.87	83.1464	6,963.87	84.0187	6,963.87	78.2013	6,963.87	81.9226	6,963.87	79.7636	6,963.87	79.6959	6,963.87	85.2438	6,963.87	76.9809	6,963.87	80.5089	6,963.87	73.9787	6,963.87	78.0244	6,963.87	71.9532	6,963.87	76.2062	6,963.87	68.5661	6,963.87	65.6068	6,963.87	67.6407	6,963.87	62.5449	6,963.87	64.7686	6,963.87	68.8292	6,963.87	66.9035	6,963.87	66.9105	6,963.87	70.7275	6,963.87	64.4281	6,963.87	69.3683	6,963.87	62.4414	6,963.87	70.2524	6,963.87	65.49	6,963.87	66.5725
7,209.96	92.3966	7,209.96	89.5823	7,209.96	86.0848	7,209.96	86.9806	7,209.96	87.7802	7,209.96	87.326	7,209.96	88.1124	7,209.96	83.6371	7,209.96	83.869	7,209.96	84.448	7,209.96	80.1514	7,209.96	82.5648	7,209.96	81.751	7,209.96	82.0123	7,209.96	83.8885	7,209.96	78.3671	7,209.96	76.065	7,209.96	73.8601	7,209.96	77.6684	7,209.96	71.5228	7,209.96	77.1834	7,209.96	69.9096	7,209.96	66.0829	7,209.96	67.8234	7,209.96	64.4716	7,209.96	63.4245	7,209.96	64.979	7,209.96	63.2886	7,209.96	66.4505	7,209.96	70.0004	7,209.96	60.9115	7,209.96	69.0224	7,209.96	67.066	7,209.96	68.7556	7,209.96	65.7299	7,209.96	67.8599
7,464.84	93.42	7,464.84	88.8008	7,464.84	86.8425	7,464.84	87.6375	7,464.84	86.8932	7,464.84	86.947	7,464.84	87.9175	7,464.84	83.8925	7,464.84	85.2215	7,464.84	84.6761	7,464.84	82.478	7,464.84	84.1967	7,464.84	82.676	7,464.84	80.3439	7,464.84	78.1864	7,464.84	76.0187	7,464.84	71.0084	7,464.84	73.8068	7,464.84	78.2888	7,464.84	72.1705	7,464.84	75.6547	7,464.84	69.2194	7,464.84	70.3428	7,464.84	67.6315	7,464.84	64.2172	7,464.84	66.1556	7,464.84	57.5526	7,464.84	59.5969	7,464.84	69.1179	7,464.84	67.9979	7,464.84	64.0528	7,464.84	69.4401	7,464.84	65.1441	7,464.84	69.6524	7,464.84	66.2199	7,464.84	69.9398
7,727.05	93.7263	7,727.05	86.8558	7,727.05	89.4022	7,727.05	89.2547	7,727.05	83.4785	7,727.05	86.7961	7,727.05	87.2589	7,727.05	85.3391	7,727.05	86.2722	7,727.05	85.7485	7,727.05	84.724	7,727.05	82.8657	7,727.05	80.4111	7,727.05	76.5445	7,727.05	74.3141	7,727.05	76.6631	7,727.05	78.5057	7,727.05	73.8309	7,727.05	76.4726	7,727.05	73.8615	7,727.05	74.2609	7,727.05	70.5115	7,727.05	70.4593	7,727.05	69.3753	7,727.05	53.5333	7,727.05	67.3928	7,727.05	56.8196	7,727.05	64.8058	7,727.05	67.3117	7,727.05	66.0687	7,727.05	59.9982	7,727.05	69.8624	7,727.05	70.0402	7,727.05	70.7507	7,727.05	58.1258	7,727.05	71.5977
7,999.51	93.1712	7,999.51	87.9244	7,999.51	90.8365	7,999.51	89.5919	7,999.51	82.1148	7,999.51	85.4114	7,999.51	86.4493	7,999.51	86.0693	7,999.51	86.5429	7,999.51	84.7257	7,999.51	85.5898	7,999.51	80.9032	7,999.51	79.3779	7,999.51	80.096	7,999.51	79.2894	7,999.51	78.7045	7,999.51	82.1034	7,999.51	74.5414	7,999.51	72.4499	7,999.51	73.2199	7,999.51	68.861	7,999.51	70.5741	7,999.51	68.5639	7,999.51	69.3272	7,999.51	62.4451	7,999.51	67.5638	7,999.51	51.9437	7,999.51	65.8788	7,999.51	68.0048	7,999.51	67.6392	7,999.51	61.9725	7,999.51	68.8605	7,999.51	67.1109	7,999.51	68.3469	7,999.51	59.3189	7,999.51	71.4278
8,282.23	92.7916	8,282.23	88.9774	8,282.23	90.8575	8,282.23	89.2921	8,282.23	84.7506	8,282.23	84.8232	8,282.23	85.4708	8,282.23	85.8054	8,282.23	85.307	8,282.23	83.9278	8,282.23	85.5333	8,282.23	82.1207	8,282.23	80.1014	8,282.23	81.127	8,282.23	82.7483	8,282.23	78.9356	8,282.23	82.7574	8,282.23	74.8528	8,282.23	72.4899	8,282.23	71.7447	8,282.23	72.0017	8,282.23	70.2541	8,282.23	69.4334	8,282.23	68.4988	8,282.23	65.2707	8,282.23	65.2716	8,282.23	55.6308	8,282.23	64.7535	8,282.23	65.5317	8,282.23	69.1175	8,282.23	67.1731	8,282.23	67.9979	8,282.23	67.1003	8,282.23	68.7617	8,282.23	59.7332	8,282.23	67.1729
8,573.73	92.7604	8,573.73	89.9022	8,573.73	90.9709	8,573.73	89.3379	8,573.73	86.536	8,573.73	84.6136	8,573.73	86.5022	8,573.73	85.876	8,573.73	84.2625	8,573.73	83.8075	8,573.73	83.8458	8,573.73	83.4383	8,573.73	79.226	8,573.73	80.4282	8,573.73	82.214	8,573.73	78.3653	8,573.73	81.0284	8,573.73	74.7494	8,573.73	75.0293	8,573.73	72.2915	8,573.73	73.1438	8,573.73	70.782	8,573.73	68.1174	8,573.73	69.6219	8,573.73	60.3824	8,573.73	63.1437	8,573.73	56.4756	8,573.73	63.4641	8,573.73	53.3747	8,573.73	67.8997	8,573.73	60.4718	8,573.73	67.0839	8,573.73	63.5412	8,573.73	69.8936	8,573.73	59.2489	8,573.73	66.503
8,876.95	92.3898	8,876.95	90.4094	8,876.95	90.8029	8,876.95	89.1521	8,876.95	87.5469	8,876.95	85.6311	8,876.95	86.4261	8,876.95	86.1719	8,876.95	84.5042	8,876.95	84.0608	8,876.95	83.5355	8,876.95	83.2124	8,876.95	79.6275	8,876.95	79.9053	8,876.95	81.1864	8,876.95	78.4111	8,876.95	77.6289	8,876.95	74.1372	8,876.95	75.059	8,876.95	72.1297	8,876.95	70.6715	8,876.95	70.3976	8,876.95	64.9244	8,876.95	69.4416	8,876.95	61.8571	8,876.95	63.5389	8,876.95	55.814	8,876.95	64.8959	8,876.95	61.4972	8,876.95	65.7491	8,876.95	56.9243	8,876.95	66.5182	8,876.95	63.4369	8,876.95	69.8199	8,876.95	59.4277	8,876.95	67.9854
9,188.96	91.7508	9,188.96	90.5201	9,188.96	90.3522	9,188.96	88.579	9,188.96	88.5442	9,188.96	86.5372	9,188.96	86.5691	9,188.96	86.1339	9,188.96	85.3715	9,188.96	84.4127	9,188.96	82.8446	9,188.96	82.7894	9,188.96	79.5008	9,188.96	80.3334	9,188.96	79.6053	9,188.96	77.8088	9,188.96	74.4723	9,188.96	73.3706	9,188.96	70.1639	9,188.96	71.1356	9,188.96	67.2399	9,188.96	70.3855	9,188.96	64.3516	9,188.96	68.229	9,188.96	56.5193	9,188.96	64.0383	9,188.96	51.017	9,188.96	66.2579	9,188.96	65.6149	9,188.96	63.072	9,188.96	53.1464	9,188.96	67.9858	9,188.96	63.5334	9,188.96	69.0958	9,188.96	54.2019	9,188.96	65.5556
9,514.16	91.5903	9,514.16	90.5001	9,514.16	89.8592	9,514.16	88.5667	9,514.16	88.8786	9,514.16	87.1128	9,514.16	86.6996	9,514.16	85.3865	9,514.16	84.9303	9,514.16	84.2965	9,514.16	81.4921	9,514.16	82.4414	9,514.16	78.8524	9,514.16	79.6898	9,514.16	76.9248	9,514.16	77.3105	9,514.16	78.1161	9,514.16	72.6121	9,514.16	71.5975	9,514.16	69.9764	9,514.16	68.1917	9,514.16	70.028	9,514.16	64.3562	9,514.16	66.2888	9,514.16	57.6259	9,514.16	63.1433	9,514.16	61.7139	9,514.16	63.3464	9,514.16	62.8888	9,514.16	64.398	9,514.16	59.9557	9,514.16	66.5199	9,514.16	62.8534	9,514.16	68.5621	9,514.16	55.5685	9,514.16	64.5256
9,849.61	91.1067	9,849.61	89.7439	9,849.61	89.592	9,849.61	88.3708	9,849.61	89.4896	9,849.61	86.8534	9,849.61	86.4151	9,849.61	85.0276	9,849.61	82.5294	9,849.61	84.5354	9,849.61	81.7916	9,849.61	81.9186	9,849.61	78.1412	9,849.61	79.1708	9,849.61	77.1622	9,849.61	76.3549	9,849.61	79.2062	9,849.61	71.1393	9,849.61	73.6646	9,849.61	68.648	9,849.61	68.8591	9,849.61	67.8876	9,849.61	64.5599	9,849.61	63.9816	9,849.61	54.5233	9,849.61	63.4478	9,849.61	58.6065	9,849.61	61.7359	9,849.61	64.9298	9,849.61	61.8651	9,849.61	63.9479	9,849.61	63.8677	9,849.61	63.1829	9,849.61	64.843	9,849.61	57.9515	9,849.61	61.0464
10,196.8	90.5275	10,196.8	88.5389	10,196.8	89.3407	10,196.8	88.3431	10,196.8	89.9627	10,196.8	86.1082	10,196.8	86.8601	10,196.8	85.3342	10,196.8	82.962	10,196.8	83.6982	10,196.8	85.011	10,196.8	81.9169	10,196.8	79.5893	10,196.8	77.9073	10,196.8	79.294	10,196.8	74.8575	10,196.8	77.2406	10,196.8	69.575	10,196.8	72.9722	10,196.8	68.3005	10,196.8	62.4457	10,196.8	64.3734	10,196.8	65.167	10,196.8	63.9851	10,196.8	57.1961	10,196.8	61.0807	10,196.8	57.5088	10,196.8	61.3634	10,196.8	62.1046	10,196.8	63.0211	10,196.8	53.1074	10,196.8	57.9827	10,196.8	59.7673	10,196.8	60.6031	10,196.8	59.3057	10,196.8	60.8407
10,555.7	89.815	10,555.7	87.0498	10,555.7	88.6787	10,555.7	88.5547	10,555.7	89.7314	10,555.7	85.7513	10,555.7	86.7706	10,555.7	85.132	10,555.7	83.826	10,555.7	82.6525	10,555.7	84.7407	10,555.7	81.3572	10,555.7	78.9184	10,555.7	76.7808	10,555.7	78.2858	10,555.7	73.5617	10,555.7	74.9445	10,555.7	66.6818	10,555.7	71.401	10,555.7	65.5645	10,555.7	58.4595	10,555.7	60.6864	10,555.7	66.0528	10,555.7	61.9484	10,555.7	59.615	10,555.7	50.4004	10,555.7	53.6794	10,555.7	59.7303	10,555.7	60.1185	10,555.7	59.9625	10,555.7	42.7115	10,555.7	52.3746	10,555.7	58.7405	10,555.7	56.6194	10,555.7	53.5863	10,555.7	55.3997
10,927.7	89.3318	10,927.7	86.1376	10,927.7	88.1729	10,927.7	89.0515	10,927.7	88.5297	10,927.7	85.7297	10,927.7	86.9595	10,927.7	85.3126	10,927.7	82.8786	10,927.7	82.2139	10,927.7	83.4427	10,927.7	80.6317	10,927.7	78.1142	10,927.7	74.6644	10,927.7	76.292	10,927.7	68.4624	10,927.7	74.5025	10,927.7	62.1558	10,927.7	69.3593	10,927.7	59.7335	10,927.7	63.1358	10,927.7	61.7319	10,927.7	61.1942	10,927.7	59.3795	10,927.7	62.3971	10,927.7	53.4513	10,927.7	54.4515	10,927.7	60.5554	10,927.7	62.221	10,927.7	55.6604	10,927.7	46.6009	10,927.7	55.6147	10,927.7	58.3691	10,927.7	52.44	10,927.7	61.2657	10,927.7	56.4205
11,313	88.8292	11,313	86.6381	11,313	88.0168	11,313	89.1284	11,313	87.3927	11,313	85.5806	11,313	87.5203	11,313	85.198	11,313	83.657	11,313	81.7405	11,313	81.9643	11,313	79.4648	11,313	74.2979	11,313	69.1807	11,313	72.4172	11,313	67.1692	11,313	72.8282	11,313	64.1973	11,313	68.0379	11,313	58.218	11,313	63.9233	11,313	62.9557	11,313	62.6139	11,313	60.7297	11,313	63.0907	11,313	57.2653	11,313	56.7466	11,313	61.317	11,313	56.5531	11,313	54.5136	11,313	48.0392	11,313	60.6199	11,313	55.3781	11,313	55.363	11,313	59.9946	11,313	61.8575
11,712.9	87.9148	11,712.9	87.88	11,712.9	88.0619	11,712.9	88.9288	11,712.9	86.6092	11,712.9	85.8846	11,712.9	87.2494	11,712.9	84.4976	11,712.9	84.3657	11,712.9	81.2281	11,712.9	80.6182	11,712.9	76.3695	11,712.9	75.6522	11,712.9	69.353	11,712.9	71.4003	11,712.9	69.2905	11,712.9	69.6814	11,712.9	64.6546	11,712.9	67.3581	11,712.9	59.348	11,712.9	62.8514	11,712.9	63.9249	11,712.9	63.3203	11,712.9	60.3539	11,712.9	55.027	11,712.9	58.3542	11,712.9	56.1664	11,712.9	60.8288	11,712.9	60.7971	11,712.9	54.8757	11,712.9	57.7898	11,712.9	61.5383	11,712.9	59.0809	11,712.9	58.8545	11,712.9	58.7976	11,712.9	59.6484
12,126	87.3013	12,126	88.27	12,126	87.9909	12,126	88.6745	12,126	87.2282	12,126	85.9102	12,126	86.6976	12,126	83.8385	12,126	83.994	12,126	80.2485	12,126	79.7078	12,126	73.7665	12,126	75.6531	12,126	70.8247	12,126	71.8915	12,126	68.3389	12,126	67.9029	12,126	65.7211	12,126	65.9055	12,126	62.6761	12,126	49.062	12,126	62.5989	12,126	57.7598	12,126	59.8479	12,126	44.8513	12,126	57.9786	12,126	54.6064	12,126	60.5264	12,126	59.8766	12,126	58.0345	12,126	49.9246	12,126	60.0723	12,126	55.6938	12,126	55.9787	12,126	55.6587	12,126	55.6636
12,553.7	86.8663	12,553.7	87.6986	12,553.7	87.5285	12,553.7	88.3634	12,553.7	87.5792	12,553.7	85.5774	12,553.7	85.8247	12,553.7	83.1435	12,553.7	83.0736	12,553.7	78.5536	12,553.7	79.2497	12,553.7	73.8825	12,553.7	75.449	12,553.7	71.1541	12,553.7	69.9429	12,553.7	69.5358	12,553.7	66.3053	12,553.7	66.5037	12,553.7	62.342	12,553.7	63.4098	12,553.7	54.2861	12,553.7	61.4039	12,553.7	50.4075	12,553.7	58.9998	12,553.7	51.9457	12,553.7	57.0383	12,553.7	54.2988	12,553.7	60.2113	12,553.7	60.1564	12,553.7	59.7809	12,553.7	53.12	12,553.7	60.1884	12,553.7	49.6798	12,553.7	58.322	12,553.7	45.526	12,553.7	45.6148
12,996.1	86.4436	12,996.1	86.7684	12,996.1	86.984	12,996.1	87.4889	12,996.1	87.1171	12,996.1	84.5388	12,996.1	85.5817	12,996.1	81.7231	12,996.1	81.5637	12,996.1	76.9708	12,996.1	78.3582	12,996.1	73.7336	12,996.1	74.3988	12,996.1	73.0136	12,996.1	65.7566	12,996.1	69.8303	12,996.1	67.3836	12,996.1	65.7734	12,996.1	53.8544	12,996.1	61.9704	12,996.1	59.4532	12,996.1	60.4466	12,996.1	53.1004	12,996.1	59.028	12,996.1	51.1627	12,996.1	55.4732	12,996.1	51.1517	12,996.1	56.6218	12,996.1	59.8179	12,996.1	58.5552	12,996.1	37.9926	12,996.1	58.6406	12,996.1	48.9708	12,996.1	59.1696	12,996.1	49.1279	12,996.1	48.1603
13,454.6	85.5523	13,454.6	85.7864	13,454.6	86.4611	13,454.6	86.2202	13,454.6	86.2745	13,454.6	83.254	13,454.6	84.9275	13,454.6	80.6382	13,454.6	80.76	13,454.6	76.1763	13,454.6	76.7838	13,454.6	73.7827	13,454.6	70.6615	13,454.6	72.6555	13,454.6	66.4788	13,454.6	67.1085	13,454.6	66.2756	13,454.6	63.3425	13,454.6	56.5691	13,454.6	58.9541	13,454.6	60.7321	13,454.6	58.149	13,454.6	45.6699	13,454.6	56.9495	13,454.6	51.4381	13,454.6	53.2893	13,454.6	46.8966	13,454.6	52.4801	13,454.6	56.2222	13,454.6	50.6136	13,454.6	49.0403	13,454.6	55.243	13,454.6	50.0424	13,454.6	55.8486	13,454.6	50.7109	13,454.6	49.3873
13,929.2	85.0577	13,929.2	85.3483	13,929.2	85.542	13,929.2	85.1664	13,929.2	85.2583	13,929.2	82.2117	13,929.2	83.9802	13,929.2	79.6077	13,929.2	79.406	13,929.2	74.541	13,929.2	75.7641	13,929.2	73.2986	13,929.2	71.6244	13,929.2	68.8798	13,929.2	66.5806	13,929.2	62.6019	13,929.2	62.0971	13,929.2	58.2508	13,929.2	53.9941	13,929.2	54.7136	13,929.2	57.5774	13,929.2	51.9348	13,929.2	41.0539	13,929.2	54.569	13,929.2	47.2344	13,929.2	52.0926	13,929.2	50.5462	13,929.2	45.4741	13,929.2	52.49	13,929.2	46.5524	13,929.2	52.7717	13,929.2	48.6611	13,929.2	48.5718	13,929.2	50.7817	13,929.2	50.4891	13,929.2	45.3711
14,419.9	84.5146	14,419.9	84.7196	14,419.9	84.7389	14,419.9	84.2363	14,419.9	84.3576	14,419.9	81.3051	14,419.9	82.7824	14,419.9	77.7962	14,419.9	78.2445	14,419.9	73.3664	14,419.9	74.8597	14,419.9	71.6835	14,419.9	72.2242	14,419.9	64.2128	14,419.9	65.7154	14,419.9	56.828	14,419.9	62.9656	14,419.9	54.6513	14,419.9	45.2248	14,419.9	53.3513	14,419.9	50.4714	14,419.9	51.0228	14,419.9	50.5764	14,419.9	54.0074	14,419.9	35.5303	14,419.9	52.6112	14,419.9	42.0033	14,419.9	49.3099	14,419.9	49.977	14,419.9	46.073	14,419.9	50.5931	14,419.9	48.6973	14,419.9	46.1649	14,419.9	48.0519	14,419.9	49.1468	14,419.9	42.2554
14,928.2	84.0361	14,928.2	84.1692	14,928.2	84.1108	14,928.2	83.6082	14,928.2	83.2795	14,928.2	80.5091	14,928.2	81.7738	14,928.2	75.8858	14,928.2	77.286	14,928.2	72.4299	14,928.2	72.3361	14,928.2	68.3594	14,928.2	69.5262	14,928.2	59.8338	14,928.2	65.3201	14,928.2	59.7018	14,928.2	62.6912	14,928.2	58.4659	14,928.2	50.7139	14,928.2	55.6454	14,928.2	49.5501	14,928.2	52.9479	14,928.2	53.8174	14,928.2	53.5621	14,928.2	48.7443	14,928.2	51.848	14,928.2	45.9025	14,928.2	52.073	14,928.2	14.8236	14,928.2	51.6382	14,928.2	43.143	14,928.2	50.5063	14,928.2	46.7254	14,928.2	47.4891	14,928.2	50.7299	14,928.2	48.0781
15,455.6	83.7064	15,455.6	83.8952	15,455.6	83.9345	15,455.6	83.4198	15,455.6	82.7752	15,455.6	79.8046	15,455.6	80.7071	15,455.6	74.6514	15,455.6	76.6889	15,455.6	71.3305	15,455.6	71.8056	15,455.6	65.785	15,455.6	67.552	15,455.6	63.0109	15,455.6	63.8607	15,455.6	62.4039	15,455.6	62.0043	15,455.6	59.5966	15,455.6	54.2691	15,455.6	55.5343	15,455.6	46.3906	15,455.6	53.738	15,455.6	51.6135	15,455.6	53.7578	15,455.6	44.8377	15,455.6	46.7313	15,455.6	48.7501	15,455.6	53.8542	15,455.6	41.7637	15,455.6	52.8293	15,455.6	40.825	15,455.6	45.952	15,455.6	36.533	15,455.6	49.7251	15,455.6	49.8388	15,455.6	47.0079
16,000.5	83.5256	16,000.5	83.8807	16,000.5	83.8136	16,000.5	83.0138	16,000.5	83.0041	16,000.5	79.1018	16,000.5	79.7604	16,000.5	74.5318	16,000.5	75.7996	16,000.5	69.7851	16,000.5	70.9117	16,000.5	65.0512	16,000.5	63.8299	16,000.5	65.1097	16,000.5	60.8585	16,000.5	62.6108	16,000.5	59.8969	16,000.5	59.9587	16,000.5	56.5453	16,000.5	54.2823	16,000.5	52.0418	16,000.5	52.3883	16,000.5	50.8658	16,000.5	52.5111	16,000.5	42.7308	16,000.5	46.2213	16,000.5	46.575	16,000.5	53.8033	16,000.5	46.2001	16,000.5	50.1597	16,000.5	47.74	16,000.5	50.2664	16,000.5	44.2724	16,000.5	47.9126	16,000.5	49.1805	16,000.5	48.6244
16,564.5	83.577	16,564.5	83.796	16,564.5	83.6081	16,564.5	82.6862	16,564.5	83.2559	16,564.5	78.9483	16,564.5	79.5788	16,564.5	75.2657	16,564.5	75.0995	16,564.5	68.7393	16,564.5	68.6954	16,564.5	66.1908	16,564.5	63.5722	16,564.5	65.3453	16,564.5	62.1487	16,564.5	62.1628	16,564.5	63.2667	16,564.5	60.6389	16,564.5	58.1996	16,564.5	54.1105	16,564.5	51.9689	16,564.5	52.667	16,564.5	48.2373	16,564.5	50.0309	16,564.5	46.7255	16,564.5	49.1173	16,564.5	47.6592	16,564.5	53.4629	16,564.5	41.0668	16,564.5	49.4086	16,564.5	47.773	16,564.5	50.0948	16,564.5	45.0439	16,564.5	45.5381	16,564.5	47.6535	16,564.5	50.1097
17,148.9	84.4624	17,148.9	84.1405	17,148.9	83.7174	17,148.9	82.4707	17,148.9	83.0042	17,148.9	79.406	17,148.9	79.9744	17,148.9	75.8367	17,148.9	74.9971	17,148.9	67.59	17,148.9	65.7107	17,148.9	65.9966	17,148.9	65.7377	17,148.9	64.3921	17,148.9	63.0175	17,148.9	62.1105	17,148.9	62.5564	17,148.9	59.3469	17,148.9	57.661	17,148.9	55.0002	17,148.9	55.3369	17,148.9	53.3155	17,148.9	49.2211	17,148.9	49.5108	17,148.9	41.0098	17,148.9	50.432	17,148.9	40.819	17,148.9	51.8685	17,148.9	39.9686	17,148.9	49.3278	17,148.9	47.9931	17,148.9	47.4656	17,148.9	48.297	17,148.9	46.49	17,148.9	45.3374	17,148.9	49.1946
17,752.4	85.4162	17,752.4	84.6581	17,752.4	84.0189	17,752.4	82.139	17,752.4	82.3008	17,752.4	79.4175	17,752.4	80.2559	17,752.4	75.1868	17,752.4	75.191	17,752.4	65.6362	17,752.4	70.0953	17,752.4	64.4571	17,752.4	66.9931	17,752.4	64.682	17,752.4	65.1729	17,752.4	62.489	17,752.4	61.3892	17,752.4	57.827	17,752.4	54.0418	17,752.4	54.7671	17,752.4	56.5153	17,752.4	52.9964	17,752.4	47.1042	17,752.4	49.8533	17,752.4	44.9968	17,752.4	50.3016	17,752.4	43.2131	17,752.4	52.7421	17,752.4	44.6316	17,752.4	49.4957	17,752.4	49.498	17,752.4	49.9689	17,752.4	51.313	17,752.4	47.7469	17,752.4	49.2658	17,752.4	50.2057
18,379.4	85.8767	18,379.4	84.5163	18,379.4	84.0171	18,379.4	80.7549	18,379.4	81.32	18,379.4	79.3366	18,379.4	79.4995	18,379.4	73.7043	18,379.4	74.5364	18,379.4	65.577	18,379.4	68.7551	18,379.4	65.8585	18,379.4	67.9425	18,379.4	65.3416	18,379.4	65.7078	18,379.4	62.9844	18,379.4	57.5194	18,379.4	57.4076	18,379.4	56.6924	18,379.4	53.3438	18,379.4	57.0216	18,379.4	49.1773	18,379.4	48.5131	18,379.4	50.2732	18,379.4	51.305	18,379.4	51.941	18,379.4	44.5983	18,379.4	52.5003	18,379.4	49.6539	18,379.4	51.2492	18,379.4	53.7148	18,379.4	45.5311	18,379.4	52.8044	18,379.4	51.1931	18,379.4	50.7928	18,379.4	51.4042
19,026.9	84.8807	19,026.9	83.1256	19,026.9	82.6368	19,026.9	78.5733	19,026.9	79.3738	19,026.9	77.3748	19,026.9	77.4637	19,026.9	70.5545	19,026.9	73.048	19,026.9	66.285	19,026.9	67.89	19,026.9	66.4054	19,026.9	68.1277	19,026.9	64.2697	19,026.9	65.0264	19,026.9	60.7372	19,026.9	61.4327	19,026.9	55.491	19,026.9	55.2667	19,026.9	51.4703	19,026.9	55.0495	19,026.9	48.2838	19,026.9	53.4654	19,026.9	51.3355	19,026.9	52.5955	19,026.9	49.9753	19,026.9	41.4346	19,026.9	50.9302	19,026.9	53.1966	19,026.9	52.0047	19,026.9	48.075	19,026.9	50.6971	19,026.9	50.0447	19,026.9	51.8708	19,026.9	50.2055	19,026.9	51.4108
19,697.8	82.2798	19,697.8	79.5436	19,697.8	79.2469	19,697.8	75.2523	19,697.8	75.7635	19,697.8	73.752	19,697.8	74.2259	19,697.8	66.9095	19,697.8	70.2737	19,697.8	66.0677	19,697.8	67.3343	19,697.8	64.1281	19,697.8	66.4607	19,697.8	62.697	19,697.8	61.678	19,697.8	58.3448	19,697.8	58.2377	19,697.8	53.9809	19,697.8	43.8536	19,697.8	50.7492	19,697.8	47.703	19,697.8	47.4962	19,697.8	54.1154	19,697.8	48.9023	19,697.8	51.7679	19,697.8	47.6164	19,697.8	38.3474	19,697.8	50.7923	19,697.8	47.7482	19,697.8	50.3592	19,697.8	41.5139	19,697.8	46.171	19,697.8	43.3294	19,697.8	50.2651	19,697.8	44.4531	19,697.8	48.2816
19,999.5	80.7113	19,999.5	77.5786	19,999.5	77.2364	19,999.5	73.6449	19,999.5	73.5261	19,999.5	71.3346	19,999.5	72.0926	19,999.5	65.9447	19,999.5	68.192	19,999.5	65.161	19,999.5	66.9793	19,999.5	61.9822	19,999.5	65.9118	19,999.5	61.5077	19,999.5	58.5947	19,999.5	58.0827	19,999.5	58.7019	19,999.5	52.0247	19,999.5	44.6433	19,999.5	51.5391	19,999.5	45.6165	19,999.5	46.1577	19,999.5	52.7134	19,999.5	47.2035	19,999.5	51.2454	19,999.5	46.1896	19,999.5	45.0812	19,999.5	50.7938	19,999.5	42.6118	19,999.5	49.5422	19,999.5	40.2599	19,999.5	43.7936	19,999.5	48.1365	19,999.5	49.7394	19,999.5	23.6091	19,999.5	46.4726
