"CEA2034"													
"On Axis"		"Listening Window"		"Early Reflections"		"Sound Power"		"Sound Power DI"		"Early Reflections DI"		"DI offset"	
"Frequency [Hz]"	"Sound Pessure Level [dB]  / [2.83V 1m] "	"Frequency [Hz]"	"Sound Pessure Level [dB]  / [2.83V 1m] "	"Frequency [Hz]"	"Sound Pessure Level [dB]  / [2.83V 1m] "	"Frequency [Hz]"	"Sound Pessure Level [dB]  / [2.83V 1m] "	"Frequency [Hz]"	"Sound Pessure Level [dB]  / [2.83V 1m] "	"Frequency [Hz]"	"Sound Pessure Level [dB]  / [2.83V 1m] "	"Frequency [Hz]"	"Sound Pessure Level [dB]  / [2.83V 1m] "
20.5078	63.2843	20.5078	63.3459	20.5078	64.069	20.5078	65.3307	20.5078	37.9946	20.5078	39.2563	20.5078	39.9794
23.4375	61.1371	23.4375	61.1282	23.4375	61.3637	23.4375	62.1539	23.4375	38.9537	23.4375	39.7439	23.4375	39.9794
26.3672	62.7382	26.3672	62.7436	26.3672	63.155	26.3672	64.1904	26.3672	38.5326	26.3672	39.568	26.3672	39.9794
29.2969	63.1844	29.2969	63.1824	29.2969	63.5549	29.2969	64.5605	29.2969	38.6013	29.2969	39.6069	29.2969	39.9794
32.2266	66.4518	32.2266	66.5003	32.2266	67.2014	32.2266	68.4546	32.2266	38.025	32.2266	39.2782	32.2266	39.9794
35.1563	71.59	35.1563	71.634	35.1563	72.1649	35.1563	73.1163	35.1563	38.4971	35.1563	39.4484	35.1563	39.9794
38.0859	73.9055	38.0859	73.9413	38.0859	74.3427	38.0859	75.0829	38.0859	38.8378	38.0859	39.578	38.0859	39.9794
41.0156	74.1776	41.0156	74.2095	41.0156	74.5374	41.0156	75.1403	41.0156	39.0487	41.0156	39.6516	41.0156	39.9794
43.9453	74.1793	43.9453	74.2055	43.9453	74.4494	43.9453	74.8898	43.9453	39.2951	43.9453	39.7355	43.9453	39.9794
46.875	75.0108	46.875	75.0331	46.875	75.2261	46.875	75.571	46.875	39.4415	46.875	39.7863	46.875	39.9794
49.8047	75.7738	49.8047	75.7983	49.8047	76.0023	49.8047	76.3584	49.8047	39.4194	49.8047	39.7754	49.8047	39.9794
52.7344	75.6068	52.7344	75.6333	52.7344	75.8454	52.7344	76.2086	52.7344	39.4041	52.7344	39.7673	52.7344	39.9794
55.6641	75.391	55.6641	75.4061	55.6641	75.5108	55.6641	75.6885	55.6641	39.6971	55.6641	39.8747	55.6641	39.9794
58.5938	76.3298	58.5938	76.334	58.5938	76.3268	58.5938	76.2925	58.5938	40.0209	58.5938	39.9866	58.5938	39.9794
61.5234	77.7785	61.5234	77.789	61.5234	77.8239	61.5234	77.8453	61.5234	39.9231	61.5234	39.9446	61.5234	39.9794
64.4531	78.5249	64.4531	78.5488	64.4531	78.6956	64.4531	78.9018	64.4531	39.6265	64.4531	39.8327	64.4531	39.9794
67.3828	78.3258	67.3828	78.3627	67.3828	78.6264	67.3828	79.0258	67.3828	39.3164	67.3828	39.7158	67.3828	39.9794
70.3125	77.5338	70.3125	77.5745	70.3125	77.8929	70.3125	78.399	70.3125	39.1549	70.3125	39.661	70.3125	39.9794
73.2422	76.92	73.2422	76.9422	73.2422	77.1365	73.2422	77.494	73.2422	39.4276	73.2422	39.785	73.2422	39.9794
76.1719	77.4272	76.1719	77.4217	76.1719	77.3683	76.1719	77.3151	76.1719	40.0859	76.1719	40.0328	76.1719	39.9794
79.1016	78.369	79.1016	78.3601	79.1016	78.2384	79.1016	78.0138	79.1016	40.3257	79.1016	40.101	79.1016	39.9794
82.0313	79.2761	82.0313	79.2724	82.0313	79.1733	82.0313	78.9525	82.0313	40.2993	82.0313	40.0785	82.0313	39.9794
84.9609	79.6226	84.9609	79.6248	84.9609	79.5685	84.9609	79.4053	84.9609	40.1989	84.9609	40.0357	84.9609	39.9794
87.8906	79.6221	87.8906	79.6306	87.8906	79.6254	87.8906	79.5484	87.8906	40.0616	87.8906	39.9846	87.8906	39.9794
90.8203	78.6618	90.8203	78.6958	90.8203	78.9237	90.8203	79.2493	90.8203	39.4259	90.8203	39.7515	90.8203	39.9794
93.75	79.3978	93.75	79.393	93.75	79.3504	93.75	79.3056	93.75	40.0669	93.75	40.022	93.75	39.9794
96.6797	79.8594	96.6797	79.8428	96.6797	79.6634	96.6797	79.3358	96.6797	40.4864	96.6797	40.1588	96.6797	39.9794
102.539	80.4581	102.539	80.4612	102.539	80.3961	102.539	80.1968	102.539	40.2438	102.539	40.0445	102.539	39.9794
105.469	80.5451	105.469	80.5617	105.469	80.6005	105.469	80.5574	105.469	39.9837	105.469	39.9406	105.469	39.9794
108.398	80.3437	108.398	80.3734	108.398	80.5334	108.398	80.6939	108.398	39.6589	108.398	39.8194	108.398	39.9794
111.328	79.9984	111.328	80.0357	111.328	80.2945	111.328	80.6409	111.328	39.3742	111.328	39.7206	111.328	39.9794
117.188	79.4284	117.188	79.4407	117.188	79.6672	117.188	80.1508	117.188	39.2693	117.188	39.7529	117.188	39.9794
120.117	79.4736	120.117	79.4546	120.117	79.5024	120.117	79.8352	120.117	39.5988	120.117	39.9316	120.117	39.9794
125.977	79.8798	125.977	79.8274	125.977	79.5647	125.977	79.4332	125.977	40.3736	125.977	40.2421	125.977	39.9794
128.906	80.0739	128.906	80.0159	128.906	79.6483	128.906	79.262	128.906	40.7333	128.906	40.347	128.906	39.9794
134.766	80.5214	134.766	80.4736	134.766	80.1089	134.766	79.6032	134.766	40.8498	134.766	40.3441	134.766	39.9794
137.695	80.7475	137.695	80.7065	137.695	80.38	137.695	79.9075	137.695	40.7784	137.695	40.3058	137.695	39.9794
143.555	80.8732	143.555	80.8344	143.555	80.5259	143.555	80.0713	143.555	40.7425	143.555	40.2878	143.555	39.9794
149.414	80.8561	149.414	80.8196	149.414	80.5656	149.414	80.2465	149.414	40.5525	149.414	40.2334	149.414	39.9794
155.273	80.9739	155.273	80.9237	155.273	80.5932	155.273	80.1954	155.273	40.7077	155.273	40.3099	155.273	39.9794
158.203	81.0818	158.203	81.0279	158.203	80.6768	158.203	80.2663	158.203	40.7409	158.203	40.3305	158.203	39.9794
164.063	80.7984	164.063	80.752	164.063	80.4478	164.063	80.1223	164.063	40.6091	164.063	40.2836	164.063	39.9794
169.922	80.8248	169.922	80.7652	169.922	80.4272	169.922	80.1335	169.922	40.6111	169.922	40.3175	169.922	39.9794
175.781	80.893	175.781	80.825	175.781	80.4297	175.781	80.0657	175.781	40.7387	175.781	40.3747	175.781	39.9794
181.641	80.9417	181.641	80.8689	181.641	80.427	181.641	80.0072	181.641	40.8411	181.641	40.4213	181.641	39.9794
190.43	81.0044	190.43	80.9317	190.43	80.4611	190.43	79.9417	190.43	40.9695	190.43	40.4501	190.43	39.9794
196.289	81.1658	196.289	81.0892	196.289	80.6206	196.289	80.1217	196.289	40.9469	196.289	40.448	196.289	39.9794
202.148	81.2563	202.148	81.1719	202.148	80.6555	202.148	80.1033	202.148	41.048	202.148	40.4958	202.148	39.9794
210.938	81.2507	210.938	81.1726	210.938	80.666	210.938	80.0509	210.938	41.101	210.938	40.486	210.938	39.9794
216.797	81.2059	216.797	81.1301	216.797	80.6581	216.797	80.0983	216.797	41.0112	216.797	40.4514	216.797	39.9794
225.586	81.2535	225.586	81.1679	225.586	80.644	225.586	80.062	225.586	41.0853	225.586	40.5033	225.586	39.9794
234.375	81.3831	234.375	81.2981	234.375	80.758	234.375	80.0776	234.375	41.2	234.375	40.5196	234.375	39.9794
240.234	81.1956	240.234	81.1138	240.234	80.6	240.234	79.9339	240.234	41.1593	240.234	40.4932	240.234	39.9794
249.023	81.0766	249.023	80.9965	249.023	80.4474	249.023	79.6819	249.023	41.294	249.023	40.5284	249.023	39.9794
257.813	81.4001	257.813	81.3244	257.813	80.81	257.813	80.0412	257.813	41.2626	257.813	40.4939	257.813	39.9794
266.602	80.9209	266.602	80.8449	266.602	80.3432	266.602	79.6008	266.602	41.2235	266.602	40.4811	266.602	39.9794
278.32	80.8235	278.32	80.7403	278.32	80.2801	278.32	79.6566	278.32	41.0631	278.32	40.4395	278.32	39.9794
287.109	80.812	287.109	80.7109	287.109	80.2447	287.109	79.6044	287.109	41.0859	287.109	40.4456	287.109	39.9794
295.898	80.6522	295.898	80.4668	295.898	79.8121	295.898	79.4441	295.898	41.0022	295.898	40.6342	295.898	39.9794
307.617	82.1232	307.617	81.9137	307.617	80.7893	307.617	80.0088	307.617	41.8842	307.617	41.1038	307.617	39.9794
319.336	82.1731	319.336	82.0088	319.336	80.9611	319.336	79.824	319.336	42.1642	319.336	41.0271	319.336	39.9794
331.055	81.9509	331.055	81.8154	331.055	80.8677	331.055	79.6967	331.055	42.0981	331.055	40.9271	331.055	39.9794
342.773	81.6979	342.773	81.5509	342.773	80.5605	342.773	79.4318	342.773	42.0985	342.773	40.9698	342.773	39.9794
354.492	81.8954	354.492	81.7567	354.492	80.7314	354.492	79.3092	354.492	42.4269	354.492	41.0046	354.492	39.9794
366.211	82.0113	366.211	81.8896	366.211	80.8984	366.211	79.3879	366.211	42.4811	366.211	40.9706	366.211	39.9794
377.93	82.1313	377.93	82.0212	377.93	81.1212	377.93	79.7464	377.93	42.2542	377.93	40.8794	377.93	39.9794
392.578	81.8362	392.578	81.7211	392.578	80.7975	392.578	79.4337	392.578	42.2667	392.578	40.903	392.578	39.9794
407.227	81.4702	407.227	81.3425	407.227	80.4002	407.227	79.0447	407.227	42.2771	407.227	40.9216	407.227	39.9794
421.875	81.7672	421.875	81.6543	421.875	80.7278	421.875	79.1879	421.875	42.4458	421.875	40.906	421.875	39.9794
436.523	81.6332	436.523	81.5209	436.523	80.5396	436.523	79.0747	436.523	42.4256	436.523	40.9607	436.523	39.9794
451.172	81.8688	451.172	81.769	451.172	80.816	451.172	79.0468	451.172	42.7016	451.172	40.9324	451.172	39.9794
465.82	81.5266	465.82	81.453	465.82	80.6065	465.82	78.9888	465.82	42.4436	465.82	40.8259	465.82	39.9794
483.398	81.1977	483.398	81.1169	483.398	80.32	483.398	78.7143	483.398	42.382	483.398	40.7763	483.398	39.9794
500.977	80.7688	500.977	80.736	500.977	80.1564	500.977	78.727	500.977	41.9883	500.977	40.5589	500.977	39.9794
518.555	80.0856	518.555	79.972	518.555	79.4781	518.555	78.3113	518.555	41.6401	518.555	40.4733	518.555	39.9794
536.133	81.0202	536.133	80.8074	536.133	79.6401	536.133	77.9051	536.133	42.8817	536.133	41.1468	536.133	39.9794
553.711	81.7333	553.711	81.5084	553.711	80.3343	553.711	78.1705	553.711	43.3173	553.711	41.1535	553.711	39.9794
574.219	81.9949	574.219	81.7729	574.219	80.6348	574.219	78.5714	574.219	43.1808	574.219	41.1175	574.219	39.9794
594.727	82.4228	594.727	82.1595	594.727	80.952	594.727	78.9338	594.727	43.2051	594.727	41.1869	594.727	39.9794
615.234	83.9537	615.234	83.6898	615.234	82.1704	615.234	79.7853	615.234	43.8838	615.234	41.4987	615.234	39.9794
638.672	84.3578	638.672	84.1333	638.672	82.5917	638.672	80.1963	638.672	43.9165	638.672	41.521	638.672	39.9794
659.18	83.3178	659.18	83.1577	659.18	81.9	659.18	79.825	659.18	43.3121	659.18	41.2371	659.18	39.9794
682.617	83.6657	682.617	83.428	682.617	81.9711	682.617	79.6823	682.617	43.7251	682.617	41.4363	682.617	39.9794
706.055	83.6016	706.055	83.3334	706.055	81.8357	706.055	79.4445	706.055	43.8684	706.055	41.4772	706.055	39.9794
732.422	82.8434	732.422	82.6998	732.422	81.3885	732.422	79.0717	732.422	43.6075	732.422	41.2906	732.422	39.9794
758.789	81.2394	758.789	80.9966	758.789	82.293	758.789	81.0793	758.789	39.8966	758.789	38.683	758.789	39.9794
785.156	85.2836	785.156	84.5097	785.156	84.0128	785.156	82.3442	785.156	42.1449	785.156	40.4763	785.156	39.9794
811.523	85.1198	811.523	84.4569	811.523	83.018	811.523	81.1485	811.523	43.2878	811.523	41.4183	811.523	39.9794
840.82	86.0208	840.82	85.3735	840.82	83.2728	840.82	81.5695	840.82	43.7834	840.82	42.0801	840.82	39.9794
870.117	85.8328	870.117	85.7509	870.117	83.5397	870.117	83.414	870.117	42.3163	870.117	42.1906	870.117	39.9794
902.344	83.5693	902.344	83.8779	902.344	82.4755	902.344	81.0692	902.344	42.7881	902.344	41.3818	902.344	39.9794
931.641	83.4748	931.641	83.4199	931.641	81.8238	931.641	79.7929	931.641	43.6064	931.641	41.5755	931.641	39.9794
966.797	83.6385	966.797	83.4713	966.797	81.8226	966.797	79.3858	966.797	44.0649	966.797	41.6282	966.797	39.9794
999.023	83.1617	999.023	82.7343	999.023	81.5911	999.023	79.5578	999.023	43.1559	999.023	41.1225	999.023	39.9794
1,034.18	84.5568	1,034.18	84.0412	1,034.18	81.9305	1,034.18	79.1869	1,034.18	44.8338	1,034.18	42.0902	1,034.18	39.9794
1,072.27	83.617	1,072.27	83.2289	1,072.27	81.153	1,072.27	78.2361	1,072.27	44.9722	1,072.27	42.0553	1,072.27	39.9794
1,110.35	83.1386	1,110.35	82.703	1,110.35	80.6785	1,110.35	77.8513	1,110.35	44.8311	1,110.35	42.0039	1,110.35	39.9794
1,148.44	83.0795	1,148.44	82.5291	1,148.44	80.4237	1,148.44	77.6426	1,148.44	44.8659	1,148.44	42.0848	1,148.44	39.9794
1,189.45	83.0617	1,189.45	82.456	1,189.45	80.0423	1,189.45	77.098	1,189.45	45.3374	1,189.45	42.3931	1,189.45	39.9794
1,230.47	82.3019	1,230.47	81.6594	1,230.47	79.4084	1,230.47	76.6148	1,230.47	45.0241	1,230.47	42.2304	1,230.47	39.9794
1,274.41	84.0591	1,274.41	83.4607	1,274.41	80.6629	1,274.41	77.8342	1,274.41	45.6059	1,274.41	42.7772	1,274.41	39.9794
1,318.36	84.4499	1,318.36	84.1351	1,318.36	81.1602	1,318.36	77.8716	1,318.36	46.2429	1,318.36	42.9543	1,318.36	39.9794
1,365.23	83.2971	1,365.23	83.2721	1,365.23	81.8794	1,365.23	79.1695	1,365.23	44.082	1,365.23	41.3721	1,365.23	39.9794
1,415.04	83.7395	1,415.04	83.271	1,415.04	81.3784	1,415.04	78.5005	1,415.04	44.7499	1,415.04	41.872	1,415.04	39.9794
1,464.84	84.2016	1,464.84	83.725	1,464.84	81.4171	1,464.84	78.382	1,464.84	45.3225	1,464.84	42.2873	1,464.84	39.9794
1,514.65	84.3009	1,514.65	83.7407	1,514.65	81.4169	1,514.65	78.4988	1,514.65	45.2213	1,514.65	42.3032	1,514.65	39.9794
1,570.31	84.2397	1,570.31	83.8469	1,570.31	81.6012	1,570.31	78.5755	1,570.31	45.2508	1,570.31	42.2251	1,570.31	39.9794
1,623.05	83.471	1,623.05	83.1504	1,623.05	81.0232	1,623.05	77.9331	1,623.05	45.1966	1,623.05	42.1065	1,623.05	39.9794
1,681.64	83.4549	1,681.64	82.5524	1,681.64	80.1767	1,681.64	77.7841	1,681.64	44.7477	1,681.64	42.3551	1,681.64	39.9794
1,740.23	83.1975	1,740.23	82.9076	1,740.23	80.6751	1,740.23	77.679	1,740.23	45.208	1,740.23	42.2119	1,740.23	39.9794
1,801.76	84.1454	1,801.76	83.5929	1,801.76	81.2223	1,801.76	77.9331	1,801.76	45.6392	1,801.76	42.35	1,801.76	39.9794
1,866.21	83.5469	1,866.21	83.1132	1,866.21	80.95	1,866.21	77.7424	1,866.21	45.3502	1,866.21	42.1425	1,866.21	39.9794
1,930.66	83.3168	1,930.66	82.7594	1,930.66	80.6678	1,930.66	77.3888	1,930.66	45.3501	1,930.66	42.0711	1,930.66	39.9794
2,000.98	83.0664	2,000.98	82.9123	2,000.98	81.0157	2,000.98	77.5647	2,000.98	45.3269	2,000.98	41.876	2,000.98	39.9794
2,071.29	84.3658	2,071.29	84.0038	2,071.29	81.8307	2,071.29	78.1106	2,071.29	45.8726	2,071.29	42.1525	2,071.29	39.9794
2,144.53	83.8125	2,144.53	83.598	2,144.53	81.3265	2,144.53	77.6498	2,144.53	45.9277	2,144.53	42.2509	2,144.53	39.9794
2,217.77	82.9529	2,217.77	82.7787	2,217.77	80.4286	2,217.77	76.8892	2,217.77	45.8689	2,217.77	42.3295	2,217.77	39.9794
2,296.88	83.4116	2,296.88	83.2985	2,296.88	81.0615	2,296.88	77.1971	2,296.88	46.0808	2,296.88	42.2164	2,296.88	39.9794
2,378.91	84.1289	2,378.91	83.8924	2,378.91	81.4272	2,378.91	77.4011	2,378.91	46.4708	2,378.91	42.4446	2,378.91	39.9794
2,460.94	83.4762	2,460.94	83.2222	2,460.94	80.6422	2,460.94	76.6264	2,460.94	46.5752	2,460.94	42.5594	2,460.94	39.9794
2,548.83	83.0363	2,548.83	82.6527	2,548.83	80.0104	2,548.83	75.9952	2,548.83	46.6369	2,548.83	42.6217	2,548.83	39.9794
2,639.65	83.4448	2,639.65	82.9555	2,639.65	79.994	2,639.65	75.769	2,639.65	47.1658	2,639.65	42.9409	2,639.65	39.9794
2,733.4	83.2122	2,733.4	82.777	2,733.4	79.7071	2,733.4	75.2922	2,733.4	47.4642	2,733.4	43.0493	2,733.4	39.9794
2,827.15	82.8285	2,827.15	82.5079	2,827.15	79.381	2,827.15	74.9686	2,827.15	47.5187	2,827.15	43.1063	2,827.15	39.9794
2,926.76	82.3985	2,926.76	82.1258	2,926.76	78.9673	2,926.76	74.5858	2,926.76	47.5194	2,926.76	43.1379	2,926.76	39.9794
3,032.23	82.0262	3,032.23	81.6369	3,032.23	78.3874	3,032.23	74.0567	3,032.23	47.5595	3,032.23	43.2289	3,032.23	39.9794
3,137.7	82.2205	3,137.7	81.8601	3,137.7	78.6329	3,137.7	74.328	3,137.7	47.5115	3,137.7	43.2066	3,137.7	39.9794
3,249.02	82.1871	3,249.02	81.8205	3,249.02	78.5738	3,249.02	74.4753	3,249.02	47.3246	3,249.02	43.2261	3,249.02	39.9794
3,363.28	82.0477	3,363.28	81.7701	3,363.28	78.5119	3,363.28	74.6444	3,363.28	47.1052	3,363.28	43.2376	3,363.28	39.9794
3,483.4	82.7254	3,483.4	82.2134	3,483.4	78.9936	3,483.4	75.1026	3,483.4	47.0902	3,483.4	43.1992	3,483.4	39.9794
3,606.45	83.0404	3,606.45	82.6675	3,606.45	79.506	3,606.45	75.5065	3,606.45	47.1403	3,606.45	43.1409	3,606.45	39.9794
3,732.42	82.4683	3,732.42	82.2342	3,732.42	79.2598	3,732.42	75.3374	3,732.42	46.8762	3,732.42	42.9538	3,732.42	39.9794
3,864.26	83.122	3,864.26	82.6213	3,864.26	79.6166	3,864.26	75.4924	3,864.26	47.1084	3,864.26	42.9841	3,864.26	39.9794
3,999.02	82.9752	3,999.02	82.593	3,999.02	79.636	3,999.02	75.5868	3,999.02	46.9856	3,999.02	42.9364	3,999.02	39.9794
4,139.65	82.4941	4,139.65	82.3948	4,139.65	79.6539	4,139.65	75.7375	4,139.65	46.6367	4,139.65	42.7203	4,139.65	39.9794
4,286.13	82.8036	4,286.13	82.4323	4,286.13	79.7914	4,286.13	75.7741	4,286.13	46.6376	4,286.13	42.6203	4,286.13	39.9794
4,438.48	82.8271	4,438.48	82.2036	4,438.48	79.6719	4,438.48	75.7172	4,438.48	46.4658	4,438.48	42.5111	4,438.48	39.9794
4,593.75	82.7737	4,593.75	82.2706	4,593.75	79.8693	4,593.75	75.7545	4,593.75	46.4955	4,593.75	42.3807	4,593.75	39.9794
4,757.81	82.5804	4,757.81	81.8732	4,757.81	79.6219	4,757.81	75.6983	4,757.81	46.1543	4,757.81	42.2307	4,757.81	39.9794
4,924.8	82.5811	4,924.8	81.547	4,924.8	79.4058	4,924.8	75.5106	4,924.8	46.0158	4,924.8	42.1207	4,924.8	39.9794
5,097.66	81.8792	5,097.66	81.2035	5,097.66	79.2219	5,097.66	75.2694	5,097.66	45.9135	5,097.66	41.961	5,097.66	39.9794
5,279.3	82.1734	5,279.3	80.9917	5,279.3	78.6672	5,279.3	74.6435	5,279.3	46.3276	5,279.3	42.3039	5,279.3	39.9794
5,463.87	82.117	5,463.87	80.903	5,463.87	78.4117	5,463.87	74.1552	5,463.87	46.7273	5,463.87	42.4707	5,463.87	39.9794
5,657.23	81.6357	5,657.23	80.5952	5,657.23	78.0864	5,657.23	73.8411	5,657.23	46.7335	5,657.23	42.4881	5,657.23	39.9794
5,856.45	81.9908	5,856.45	80.8202	5,856.45	77.9332	5,856.45	73.5885	5,856.45	47.2111	5,856.45	42.8663	5,856.45	39.9794
6,061.52	81.849	6,061.52	80.955	6,061.52	77.8704	6,061.52	73.5538	6,061.52	47.3806	6,061.52	43.064	6,061.52	39.9794
6,275.39	82.1097	6,275.39	81.1442	6,275.39	77.8415	6,275.39	73.5107	6,275.39	47.6129	6,275.39	43.2821	6,275.39	39.9794
6,498.05	81.7922	6,498.05	81.1579	6,498.05	77.8475	6,498.05	73.5046	6,498.05	47.6327	6,498.05	43.2898	6,498.05	39.9794
6,726.56	81.997	6,726.56	81.2966	6,726.56	77.8712	6,726.56	73.3954	6,726.56	47.8806	6,726.56	43.4048	6,726.56	39.9794
6,963.87	81.7237	6,963.87	81.0064	6,963.87	77.5084	6,963.87	73.018	6,963.87	47.9678	6,963.87	43.4774	6,963.87	39.9794
7,209.96	81.5504	7,209.96	80.7469	7,209.96	77.2191	7,209.96	72.7152	7,209.96	48.0112	7,209.96	43.5072	7,209.96	39.9794
7,464.84	81.0629	7,464.84	80.2976	7,464.84	76.8253	7,464.84	72.3376	7,464.84	47.9394	7,464.84	43.4517	7,464.84	39.9794
7,728.52	81.427	7,728.52	80.5604	7,728.52	76.921	7,728.52	72.332	7,728.52	48.2078	7,728.52	43.6188	7,728.52	39.9794
8,000.98	82.0047	8,000.98	81.0016	8,000.98	77.2695	8,000.98	72.4457	8,000.98	48.5353	8,000.98	43.7115	8,000.98	39.9794
8,282.23	83.0137	8,282.23	81.7128	8,282.23	77.8328	8,282.23	72.7869	8,282.23	48.9053	8,282.23	43.8593	8,282.23	39.9794
8,575.2	83.387	8,575.2	81.9546	8,575.2	77.9981	8,575.2	72.876	8,575.2	49.0579	8,575.2	43.9359	8,575.2	39.9794
8,876.95	83.4306	8,876.95	81.9315	8,876.95	77.917	8,876.95	72.7953	8,876.95	49.1156	8,876.95	43.994	8,876.95	39.9794
9,190.43	83.41	9,190.43	81.8589	9,190.43	77.8184	9,190.43	72.6722	9,190.43	49.1662	9,190.43	44.02	9,190.43	39.9794
9,512.7	83.5	9,512.7	81.9004	9,512.7	77.8153	9,512.7	72.5734	9,512.7	49.3064	9,512.7	44.0645	9,512.7	39.9794
9,849.61	83.7588	9,849.61	81.9833	9,849.61	77.896	9,849.61	72.5241	9,849.61	49.4385	9,849.61	44.0667	9,849.61	39.9794
10,195.3	83.8014	10,195.3	82.0289	10,195.3	77.9306	10,195.3	72.5206	10,195.3	49.4876	10,195.3	44.0777	10,195.3	39.9794
10,555.7	83.6158	10,555.7	81.9778	10,555.7	77.8405	10,555.7	72.4585	10,555.7	49.4987	10,555.7	44.1167	10,555.7	39.9794
10,927.7	83.2271	10,927.7	81.7562	10,927.7	77.5265	10,927.7	72.1803	10,927.7	49.5553	10,927.7	44.2091	10,927.7	39.9794
11,314.5	82.9742	11,314.5	81.4771	11,314.5	77.1374	11,314.5	71.8661	11,314.5	49.5904	11,314.5	44.319	11,314.5	39.9794
11,712.9	82.7381	11,712.9	81.1336	11,712.9	76.7745	11,712.9	71.6081	11,712.9	49.5049	11,712.9	44.3385	11,712.9	39.9794
12,126	82.6586	12,126	81.2731	12,126	76.9472	12,126	71.7289	12,126	49.5236	12,126	44.3052	12,126	39.9794
12,553.7	82.9999	12,553.7	81.7888	12,553.7	77.5	12,553.7	72.1286	12,553.7	49.6396	12,553.7	44.2681	12,553.7	39.9794
12,996.1	83.0496	12,996.1	81.8905	12,996.1	77.6414	12,996.1	72.2424	12,996.1	49.6275	12,996.1	44.2285	12,996.1	39.9794
13,453.1	82.8991	13,453.1	81.8266	13,453.1	77.5703	13,453.1	72.2238	13,453.1	49.5822	13,453.1	44.2357	13,453.1	39.9794
13,927.7	82.7978	13,927.7	81.8442	13,927.7	77.5413	13,927.7	72.1875	13,927.7	49.6361	13,927.7	44.2823	13,927.7	39.9794
14,419.9	82.816	14,419.9	81.8191	14,419.9	77.4341	14,419.9	72.0422	14,419.9	49.7563	14,419.9	44.3645	14,419.9	39.9794
14,929.7	82.9547	14,929.7	81.8436	14,929.7	77.3192	14,929.7	71.8382	14,929.7	49.9847	14,929.7	44.5038	14,929.7	39.9794
15,454.1	83.0301	15,454.1	81.8086	15,454.1	77.1884	15,454.1	71.5796	15,454.1	50.2083	15,454.1	44.5995	15,454.1	39.9794
15,999	82.6489	15,999	81.3364	15,999	76.6952	15,999	70.9681	15,999	50.3477	15,999	44.6205	15,999	39.9794
16,564.5	81.9525	16,564.5	80.599	16,564.5	75.8967	16,564.5	70.0944	16,564.5	50.4841	16,564.5	44.6818	16,564.5	39.9794
17,147.5	81.3997	17,147.5	79.9489	17,147.5	75.1529	17,147.5	69.2464	17,147.5	50.6819	17,147.5	44.7754	17,147.5	39.9794
17,753.9	80.5832	17,753.9	79.0789	17,753.9	74.3189	17,753.9	68.3261	17,753.9	50.7323	17,753.9	44.7395	17,753.9	39.9794
18,377.9	79.0309	18,377.9	77.5553	18,377.9	72.9214	18,377.9	66.9641	18,377.9	50.5706	18,377.9	44.6133	18,377.9	39.9794
19,028.3	77.3926	19,028.3	75.9093	19,028.3	71.2036	19,028.3	65.1589	19,028.3	50.7297	19,028.3	44.6851	19,028.3	39.9794
19,699.2	76.0172	19,699.2	74.4837	19,699.2	69.644	19,699.2	63.3886	19,699.2	51.0745	19,699.2	44.8191	19,699.2	39.9794
19,998	75.2637	19,998	73.7829	19,998	68.9059	19,998	62.6159	19,998	51.1463	19,998	44.8564	19,998	39.9794
