"Early Reflections"											
"Floor Bounce"		"Ceiling Bounce"		"Front Wall Bounce"		"Side Wall Bounce"		"Rear Wall Bounce"		"Total Early Reflection"	
"Frequency [Hz]"	"Sound Pessure Level [dB]  / [2.83V 1m] "	"Frequency [Hz]"	"Sound Pessure Level [dB]  / [2.83V 1m] "	"Frequency [Hz]"	"Sound Pessure Level [dB]  / [2.83V 1m] "	"Frequency [Hz]"	"Sound Pessure Level [dB]  / [2.83V 1m] "	"Frequency [Hz]"	"Sound Pessure Level [dB]  / [2.83V 1m] "	"Frequency [Hz]"	"Sound Pessure Level [dB]  / [2.83V 1m] "
20.5078	63.5326	20.5078	63.714	20.5078	63.358	20.5078	64.04	20.5078	66.0259	20.5078	64.069
23.4375	61.4382	23.4375	60.7705	23.4375	61.1256	23.4375	61.2067	23.4375	62.6772	23.4375	61.3637
26.3672	63.0194	26.3672	62.6332	26.3672	62.7439	26.3672	63.0101	26.3672	64.8109	26.3672	63.155
29.2969	63.451	29.2969	63.055	29.2969	63.1811	29.2969	63.3956	29.2969	65.1532	29.2969	63.5549
32.2266	66.5321	32.2266	67.0591	32.2266	66.5098	32.2266	67.1345	32.2266	69.1593	32.2266	67.2014
35.1563	71.7154	35.1563	71.9881	35.1563	71.6427	35.1563	72.1496	35.1563	73.6704	35.1563	72.1649
38.0859	74.0805	38.0859	74.1083	38.0859	73.9484	38.0859	74.3458	38.0859	75.5193	38.0859	74.3427
41.0156	74.3713	41.0156	74.2903	41.0156	74.2158	41.0156	74.5547	41.0156	75.4928	41.0156	74.5374
43.9453	74.3526	43.9453	74.2341	43.9453	74.2107	43.9453	74.4756	43.9453	75.1497	43.9453	74.4494
46.875	75.1737	46.875	75.0228	46.875	75.0375	46.875	75.2543	46.875	75.7769	46.875	75.2261
49.8047	75.9564	49.8047	75.7796	49.8047	75.8032	49.8047	76.0369	49.8047	76.5654	49.8047	76.0023
52.7344	75.8071	52.7344	75.6075	52.7344	75.6385	52.7344	75.8863	52.7344	76.4112	52.7344	75.8454
55.6641	75.5523	55.6641	75.3087	55.6641	75.4091	55.6641	75.5432	55.6641	75.784	55.6641	75.5108
58.5938	76.4574	58.5938	76.1502	58.5938	76.3349	58.5938	76.3519	58.5938	76.2637	58.5938	76.3268
61.5234	77.9157	61.5234	77.647	61.5234	77.7912	61.5234	77.862	61.5234	77.8526	61.5234	77.8239
64.4531	78.7018	64.4531	78.4921	64.4531	78.5537	64.4531	78.7518	64.4531	79.0135	64.4531	78.6956
67.3828	78.5394	67.3828	78.3947	67.3828	78.3701	67.3828	78.6961	67.3828	79.2391	67.3828	78.6264
70.3125	77.7667	70.3125	77.647	70.3125	77.5824	70.3125	77.9583	70.3125	78.6632	70.3125	77.8929
73.2422	77.123	73.2422	76.8796	73.2422	76.9465	73.2422	77.1706	73.2422	77.6835	73.2422	77.1365
76.1719	77.5758	76.1719	77.131	76.1719	77.4205	76.1719	77.3671	76.1719	77.2672	76.1719	77.3683
79.1016	78.5103	79.1016	78.0149	79.1016	78.3582	79.1016	78.245	79.1016	77.8539	79.1016	78.2384
82.0313	79.4001	82.0313	78.9818	82.0313	79.2717	82.0313	79.1975	82.0313	78.7987	82.0313	79.1733
84.9609	79.7333	84.9609	79.4198	84.9609	79.6253	84.9609	79.6041	84.9609	79.285	84.9609	79.5685
87.8906	79.7426	87.8906	79.4753	87.8906	79.6324	87.8906	79.6713	87.8906	79.4817	87.8906	79.6254
90.8203	78.8737	90.8203	78.6978	90.8203	78.7026	90.8203	79.0005	90.8203	79.4102	90.8203	78.9237
93.75	79.5162	93.75	79.1471	93.75	79.3921	93.75	79.3561	93.75	79.2622	93.75	79.3504
96.6797	79.9352	96.6797	79.4948	96.6797	79.8395	96.6797	79.6566	96.6797	79.1185	96.6797	79.6634
102.539	80.5864	102.539	80.2291	102.539	80.4619	102.539	80.4407	102.539	80.0473	102.539	80.3961
105.469	80.6854	105.469	80.4526	105.469	80.5652	105.469	80.6714	105.469	80.5028	105.469	80.6005
108.398	80.5045	108.398	80.3857	108.398	80.3795	108.398	80.6221	108.398	80.756	108.398	80.5334
111.328	80.177	111.328	80.1302	111.328	80.0432	111.328	80.3848	111.328	80.806	111.328	80.2945
117.188	79.5916	117.188	79.4334	117.188	79.4429	117.188	79.6712	117.188	80.401	117.188	79.6672
120.117	79.6096	120.117	79.2187	120.117	79.4502	120.117	79.4257	120.117	80.0119	120.117	79.5024
125.977	79.9708	125.977	79.2064	125.977	79.8166	125.977	79.4147	125.977	79.365	125.977	79.5647
128.906	80.1144	128.906	79.3276	128.906	80.0043	128.906	79.4957	128.906	79.0619	128.906	79.6483
134.766	80.6118	134.766	79.8028	134.766	80.4638	134.766	80.0024	134.766	79.286	134.766	80.1089
137.695	80.8596	137.695	80.0776	137.695	80.698	137.695	80.2953	137.695	79.6105	137.695	80.38
143.555	80.9876	143.555	80.2387	143.555	80.8263	143.555	80.4513	143.555	79.7765	143.555	80.5259
149.414	80.9699	149.414	80.2648	149.414	80.8122	149.414	80.4964	149.414	80.0381	149.414	80.5656
155.273	81.0606	155.273	80.2826	155.273	80.9134	155.273	80.4828	155.273	79.9407	155.273	80.5932
158.203	81.2012	158.203	80.3249	158.203	81.0166	158.203	80.5527	158.203	79.9883	158.203	80.6768
164.063	80.9484	164.063	79.9799	164.063	80.743	164.063	80.3517	164.063	79.9352	164.063	80.4478
169.922	80.8784	169.922	80.0895	169.922	80.7532	169.922	80.2713	169.922	79.9741	169.922	80.4272
175.781	80.9699	175.781	80.0385	175.781	80.8111	175.781	80.2498	175.781	79.8493	175.781	80.4297
181.641	81.0444	181.641	79.9651	181.641	80.8539	181.641	80.2306	181.641	79.7438	181.641	80.427
190.43	81.0864	190.43	79.9686	190.43	80.9174	190.43	80.2773	190.43	79.6617	190.43	80.4611
196.289	81.1894	196.289	80.204	196.289	81.074	196.289	80.4315	196.289	79.8464	196.289	80.6206
202.148	81.1937	202.148	80.3458	202.148	81.1551	202.148	80.436	202.148	79.7758	202.148	80.6555
210.938	81.2345	210.938	80.3214	210.938	81.1572	210.938	80.4721	210.938	79.7107	210.938	80.666
216.797	81.2075	216.797	80.3235	216.797	81.115	216.797	80.4766	216.797	79.7799	216.797	80.6581
225.586	81.1825	225.586	80.3164	225.586	81.1513	225.586	80.4306	225.586	79.7363	225.586	80.644
234.375	81.2736	234.375	80.5343	234.375	81.2814	234.375	80.5435	234.375	79.7114	234.375	80.758
240.234	81.1003	240.234	80.421	240.234	81.0973	240.234	80.3939	240.234	79.5747	240.234	80.6
249.023	81.0926	249.023	80.1304	249.023	80.9803	249.023	80.2482	249.023	79.2275	249.023	80.4474
257.813	81.4227	257.813	80.4511	257.813	81.3095	257.813	80.6498	257.813	79.6411	257.813	80.81
266.602	81.0512	266.602	79.9182	266.602	80.8291	266.602	80.1763	266.602	79.1832	266.602	80.3432
278.32	80.766	278.32	79.9234	278.32	80.7243	278.32	80.1537	278.32	79.3373	278.32	80.2801
287.109	80.5487	287.109	80.1729	287.109	80.6907	287.109	80.0911	287.109	79.3149	287.109	80.2447
295.898	80.4657	295.898	79.6873	295.898	80.4255	295.898	79.3404	295.898	79.1317	295.898	79.8121
307.617	82.2098	307.617	80.0649	307.617	81.867	307.617	79.9225	307.617	79.3178	307.617	80.7893
319.336	82.2193	319.336	80.2746	319.336	81.974	319.336	80.3334	319.336	79.063	319.336	80.9611
331.055	82.061	331.055	80.2267	331.055	81.7871	331.055	80.3578	331.055	78.9305	331.055	80.8677
342.773	81.7874	342.773	79.8241	342.773	81.5208	342.773	80.0079	342.773	78.6924	342.773	80.5605
354.492	81.9079	354.492	79.9857	354.492	81.73	354.492	80.2495	354.492	78.4661	354.492	80.7314
366.211	81.994	366.211	80.2088	366.211	81.8673	366.211	80.49	366.211	78.5008	366.211	80.8984
377.93	82.1901	377.93	80.4544	377.93	82.001	377.93	80.7395	377.93	79.0443	377.93	81.1212
392.578	81.9592	392.578	80.0622	392.578	81.6991	392.578	80.3811	392.578	78.6899	392.578	80.7975
407.227	81.536	407.227	79.6501	407.227	81.3176	407.227	79.9501	407.227	78.4556	407.227	80.4002
421.875	81.9697	421.875	80.018	421.875	81.6322	421.875	80.3298	421.875	78.2965	421.875	80.7278
436.523	81.5775	436.523	79.9147	436.523	81.5027	436.523	80.1305	436.523	78.206	436.523	80.5396
451.172	81.8323	451.172	80.0182	451.172	81.7552	451.172	80.5315	451.172	78.2369	451.172	80.816
465.82	81.5087	465.82	79.9883	465.82	81.4431	465.82	80.3622	465.82	78.3036	465.82	80.6065
483.398	81.3102	483.398	79.8319	483.398	81.1037	483.398	80.0536	483.398	78.0079	483.398	80.32
500.977	80.9213	500.977	79.6548	500.977	80.737	500.977	80.0672	500.977	78.2896	500.977	80.1564
518.555	80.1713	518.555	77.9268	518.555	79.9643	518.555	79.5171	518.555	78.6206	518.555	79.4781
536.133	80.7794	536.133	77.7056	536.133	80.7778	536.133	79.2339	536.133	77.8243	536.133	79.6401
553.711	81.5337	553.711	78.8449	553.711	81.4673	553.711	79.9467	553.711	77.8264	553.711	80.3343
574.219	81.8769	574.219	79.3276	574.219	81.7324	574.219	80.2037	574.219	78.2159	574.219	80.6348
594.727	82.3385	594.727	79.0084	594.727	82.1116	594.727	80.4875	594.727	78.7958	594.727	80.952
615.234	83.6118	615.234	79.9381	615.234	83.6485	615.234	81.5722	615.234	79.083	615.234	82.1704
638.672	83.8574	638.672	80.2669	638.672	84.1028	638.672	82.1296	638.672	79.0413	638.672	82.5917
659.18	82.5797	659.18	80.4446	659.18	83.1421	659.18	81.6791	659.18	78.9598	659.18	81.9
682.617	82.8188	682.617	79.8838	682.617	83.3996	682.617	81.6294	682.617	79.0416	682.617	81.9711
706.055	82.671	706.055	79.7155	706.055	83.2968	706.055	81.4887	706.055	78.7982	706.055	81.8357
732.422	81.1636	732.422	80.6295	732.422	82.6881	732.422	81.3707	732.422	77.5225	732.422	81.3885
758.789	81.1931	758.789	81.3705	758.789	80.8911	758.789	83.009	758.789	83.9403	758.789	82.293
785.156	85.8785	785.156	82.6966	785.156	84.2967	785.156	82.5899	785.156	85.7694	785.156	84.0128
811.523	85.5341	811.523	81.2341	811.523	84.2904	811.523	80.4153	811.523	84.023	811.523	83.018
840.82	85.9356	840.82	80.1758	840.82	85.2292	840.82	79.4372	840.82	84.3818	840.82	83.2728
870.117	84.3911	870.117	79.0371	870.117	85.7603	870.117	80.9867	870.117	84.8527	870.117	83.5397
902.344	80.0504	902.344	82.2862	902.344	83.9435	902.344	82.8621	902.344	75.9362	902.344	82.4755
931.641	80.6968	931.641	82.0151	931.641	83.4152	931.641	81.7925	931.641	74.2477	931.641	81.8238
966.797	81.2142	966.797	81.2303	966.797	83.4531	966.797	81.8353	966.797	74.4984	966.797	81.8226
999.023	82.2994	999.023	81.125	999.023	82.6181	999.023	81.7635	999.023	73.8233	999.023	81.5911
1,034.18	83.2727	1,034.18	81.4604	1,034.18	83.9524	1,034.18	80.3533	1,034.18	77.6367	1,034.18	81.9305
1,072.27	81.9051	1,072.27	81.3074	1,072.27	83.1461	1,072.27	79.8583	1,072.27	75.5488	1,072.27	81.153
1,110.35	81.6471	1,110.35	81.0341	1,110.35	82.6029	1,110.35	79.3088	1,110.35	74.9211	1,110.35	80.6785
1,148.44	81.3747	1,148.44	80.5707	1,148.44	82.3967	1,148.44	79.0549	1,148.44	74.8962	1,148.44	80.4237
1,189.45	81.4247	1,189.45	80.263	1,189.45	82.3189	1,189.45	77.9208	1,189.45	74.0788	1,189.45	80.0423
1,230.47	80.9575	1,230.47	79.3727	1,230.47	81.5294	1,230.47	77.482	1,230.47	74.245	1,230.47	79.4084
1,274.41	81.624	1,274.41	79.4647	1,274.41	83.423	1,274.41	78.3986	1,274.41	75.0656	1,274.41	80.6629
1,318.36	80.6661	1,318.36	75.5493	1,318.36	84.153	1,318.36	80.1702	1,318.36	74.1217	1,318.36	81.1602
1,365.23	83.848	1,365.23	81.3178	1,365.23	83.1434	1,365.23	81.2068	1,365.23	75.6405	1,365.23	81.8794
1,415.04	83.064	1,415.04	81.5833	1,415.04	83.1221	1,415.04	80.0607	1,415.04	74.3242	1,415.04	81.3784
1,464.84	82.4803	1,464.84	81.2134	1,464.84	83.6486	1,464.84	79.838	1,464.84	74.79	1,464.84	81.4171
1,514.65	82.7392	1,514.65	80.9929	1,514.65	83.6662	1,514.65	79.6787	1,514.65	75.4536	1,514.65	81.4169
1,570.31	83.9534	1,570.31	80.4022	1,570.31	83.7818	1,570.31	79.5976	1,570.31	75.267	1,570.31	81.6012
1,623.05	83.0349	1,623.05	79.8374	1,623.05	83.06	1,623.05	79.5572	1,623.05	74.2169	1,623.05	81.0232
1,681.64	82.3721	1,681.64	78.8747	1,681.64	82.282	1,681.64	78.5912	1,681.64	72.36	1,681.64	80.1767
1,740.23	81.9475	1,740.23	80.805	1,740.23	82.8273	1,740.23	79.0563	1,740.23	72.9756	1,740.23	80.6751
1,801.76	83.2873	1,801.76	79.616	1,801.76	83.4558	1,801.76	79.454	1,801.76	75.1363	1,801.76	81.2223
1,866.21	83.402	1,866.21	80.0653	1,866.21	82.9212	1,866.21	79.1961	1,866.21	73.8017	1,866.21	80.95
1,930.66	83.2738	1,930.66	80.3782	1,930.66	82.5508	1,930.66	78.6741	1,930.66	73.7402	1,930.66	80.6678
2,000.98	82.5443	2,000.98	80.7502	2,000.98	82.9126	2,000.98	79.7936	2,000.98	73.4954	2,000.98	81.0157
2,071.29	82.2419	2,071.29	80.7247	2,071.29	84.093	2,071.29	80.8943	2,071.29	74.3119	2,071.29	81.8307
2,144.53	82.1903	2,144.53	79.2818	2,144.53	83.5323	2,144.53	80.5043	2,144.53	74.0238	2,144.53	81.3265
2,217.77	81.5631	2,217.77	78.889	2,217.77	82.6723	2,217.77	79.3225	2,217.77	72.7677	2,217.77	80.4286
2,296.88	81.1551	2,296.88	79.8002	2,296.88	83.3895	2,296.88	80.2425	2,296.88	72.7765	2,296.88	81.0615
2,378.91	80.6514	2,378.91	78.619	2,378.91	83.9825	2,378.91	80.9033	2,378.91	73.1714	2,378.91	81.4272
2,460.94	79.8418	2,460.94	77.7484	2,460.94	83.2534	2,460.94	80.0833	2,460.94	71.9018	2,460.94	80.6422
2,548.83	79.1808	2,548.83	76.6238	2,548.83	82.6984	2,548.83	79.4302	2,548.83	71.2394	2,548.83	80.0104
2,639.65	77.3224	2,639.65	75.9991	2,639.65	83.1137	2,639.65	79.2652	2,639.65	70.9069	2,639.65	79.994
2,733.4	76.3275	2,733.4	75.5183	2,733.4	82.9395	2,733.4	78.9422	2,733.4	70.4858	2,733.4	79.7071
2,827.15	75.2538	2,827.15	75.7482	2,827.15	82.7229	2,827.15	78.464	2,827.15	69.8347	2,827.15	79.381
2,926.76	74.019	2,926.76	75.4176	2,926.76	82.358	2,926.76	78.0539	2,926.76	69.3884	2,926.76	78.9673
3,032.23	73.7433	3,032.23	74.7788	3,032.23	81.8464	3,032.23	77.3264	3,032.23	68.4845	3,032.23	78.3874
3,137.7	73.5469	3,137.7	74.9821	3,137.7	82.1356	3,137.7	77.5829	3,137.7	67.7089	3,137.7	78.6329
3,249.02	73.0074	3,249.02	74.8314	3,249.02	82.1181	3,249.02	77.497	3,249.02	68.0178	3,249.02	78.5738
3,363.28	73.8091	3,363.28	74.8997	3,363.28	82.0448	3,363.28	77.3476	3,363.28	67.5438	3,363.28	78.5119
3,483.4	74.7078	3,483.4	75.841	3,483.4	82.5354	3,483.4	77.6486	3,483.4	68.5524	3,483.4	78.9936
3,606.45	74.9521	3,606.45	76.7805	3,606.45	83.0541	3,606.45	78.1049	3,606.45	68.8603	3,606.45	79.506
3,732.42	75.5571	3,732.42	77.5176	3,732.42	82.6005	3,732.42	77.9275	3,732.42	68.4233	3,732.42	79.2598
3,864.26	76.4822	3,864.26	77.6502	3,864.26	82.9908	3,864.26	78.1571	3,864.26	69.0841	3,864.26	79.6166
3,999.02	77.5079	3,999.02	78.5156	3,999.02	82.8244	3,999.02	78.0927	3,999.02	68.8322	3,999.02	79.636
4,139.65	78.3379	4,139.65	78.708	4,139.65	82.5641	4,139.65	78.3631	4,139.65	69.0537	4,139.65	79.6539
4,286.13	79.5363	4,286.13	78.739	4,286.13	82.5443	4,286.13	78.4495	4,286.13	69.4986	4,286.13	79.7914
4,438.48	80.303	4,438.48	78.6143	4,438.48	82.0439	4,438.48	78.5703	4,438.48	70.1282	4,438.48	79.6719
4,593.75	80.3243	4,593.75	78.517	4,593.75	82.3309	4,593.75	78.8233	4,593.75	69.4616	4,593.75	79.8693
4,757.81	80.9347	4,757.81	78.3164	4,757.81	81.8052	4,757.81	78.5631	4,757.81	69.7777	4,757.81	79.6219
4,924.8	81.5236	4,924.8	78.2723	4,924.8	81.4218	4,924.8	78.1382	4,924.8	67.6391	4,924.8	79.4058
5,097.66	81.5971	5,097.66	77.9685	5,097.66	81.191	5,097.66	77.8556	5,097.66	68.4629	5,097.66	79.2219
5,279.3	81.252	5,279.3	77.378	5,279.3	80.8436	5,279.3	76.8691	5,279.3	66.1142	5,279.3	78.6672
5,463.87	80.871	5,463.87	77.1177	5,463.87	80.7664	5,463.87	76.4042	5,463.87	65.4332	5,463.87	78.4117
5,657.23	80.9212	5,657.23	77.0074	5,657.23	80.3733	5,657.23	75.7865	5,657.23	65.2855	5,657.23	78.0864
5,856.45	80.7519	5,856.45	76.69	5,856.45	80.5301	5,856.45	75.0556	5,856.45	64.0196	5,856.45	77.9332
6,061.52	80.6233	6,061.52	76.3005	6,061.52	80.6468	6,061.52	74.7293	6,061.52	64.4956	6,061.52	77.8704
6,275.39	80.2085	6,275.39	75.6469	6,275.39	80.8068	6,275.39	74.8447	6,275.39	64.6743	6,275.39	77.8415
6,498.05	80.4724	6,498.05	75.1102	6,498.05	80.7197	6,498.05	74.9874	6,498.05	65.4922	6,498.05	77.8475
6,726.56	80.3971	6,726.56	74.4655	6,726.56	80.9306	6,726.56	74.8269	6,726.56	64.6711	6,726.56	77.8712
6,963.87	79.9412	6,963.87	74.228	6,963.87	80.6825	6,963.87	74.1904	6,963.87	64.2454	6,963.87	77.5084
7,209.96	79.8743	7,209.96	73.6073	7,209.96	80.4449	7,209.96	73.5925	7,209.96	63.0322	7,209.96	77.2191
7,464.84	79.4267	7,464.84	73.3328	7,464.84	80.0276	7,464.84	73.3007	7,464.84	62.9275	7,464.84	76.8253
7,728.52	79.1249	7,728.52	73.6091	7,728.52	80.2915	7,728.52	73.2258	7,728.52	63.4851	7,728.52	76.921
8,000.98	78.831	8,000.98	74.0582	8,000.98	80.8008	8,000.98	73.6699	8,000.98	63.2861	8,000.98	77.2695
8,282.23	78.874	8,282.23	73.5679	8,282.23	81.5827	8,282.23	74.2026	8,282.23	64.1884	8,282.23	77.8328
8,575.2	78.9428	8,575.2	73.1902	8,575.2	81.8369	8,575.2	74.2515	8,575.2	63.8941	8,575.2	77.9981
8,876.95	79.0881	8,876.95	73.2585	8,876.95	81.7726	8,876.95	73.8671	8,876.95	63.1931	8,876.95	77.917
9,190.43	79.2529	9,190.43	72.8837	9,190.43	81.7141	9,190.43	73.3897	9,190.43	62.586	9,190.43	77.8184
9,512.7	79.2447	9,512.7	72.5519	9,512.7	81.7812	9,512.7	73.1462	9,512.7	62.043	9,512.7	77.8153
9,849.61	79.2723	9,849.61	72.4102	9,849.61	81.8969	9,849.61	73.18	9,849.61	61.5975	9,849.61	77.896
10,195.3	79.1657	10,195.3	72.3592	10,195.3	81.9323	10,195.3	73.4057	10,195.3	61.1851	10,195.3	77.9306
10,555.7	79.0721	10,555.7	71.978	10,555.7	81.8589	10,555.7	73.3129	10,555.7	60.4613	10,555.7	77.8405
10,927.7	78.9579	10,927.7	72.0125	10,927.7	81.6057	10,927.7	72.3583	10,927.7	58.4857	10,927.7	77.5265
11,314.5	78.9239	11,314.5	72.4914	11,314.5	81.2342	11,314.5	71.0048	11,314.5	56.888	11,314.5	77.1374
11,712.9	78.8546	11,712.9	72.4973	11,712.9	80.7805	11,712.9	70.5644	11,712.9	57.5374	11,712.9	76.7745
12,126	78.7751	12,126	72.0212	12,126	80.9643	12,126	71.3728	12,126	58.4455	12,126	76.9472
12,553.7	78.9963	12,553.7	71.4742	12,553.7	81.601	12,553.7	72.2359	12,553.7	59.2201	12,553.7	77.5
12,996.1	79.2601	12,996.1	70.872	12,996.1	81.7192	12,996.1	72.5134	12,996.1	59.124	12,996.1	77.6414
13,453.1	79.2648	13,453.1	70.3246	13,453.1	81.6261	13,453.1	72.5478	13,453.1	59.4312	13,453.1	77.5703
13,927.7	79.3333	13,927.7	69.6208	13,927.7	81.6228	13,927.7	72.3417	13,927.7	59.4823	13,927.7	77.5413
14,419.9	79.1838	14,419.9	68.6864	14,419.9	81.5894	14,419.9	71.9778	14,419.9	58.7675	14,419.9	77.4341
14,929.7	78.8788	14,929.7	67.0123	14,929.7	81.5844	14,929.7	71.6347	14,929.7	57.6813	14,929.7	77.3192
15,454.1	78.6429	15,454.1	65.5897	15,454.1	81.55	15,454.1	71.1034	15,454.1	56.5531	15,454.1	77.1884
15,999	78.4699	15,999	64.9442	15,999	81.0789	15,999	69.835	15,999	54.3878	15,999	76.6952
16,564.5	77.9124	16,564.5	64.5281	16,564.5	80.3087	16,564.5	68.1055	16,564.5	52.3846	16,564.5	75.8967
17,147.5	76.9299	17,147.5	63.5842	17,147.5	79.6431	17,147.5	67.1229	17,147.5	52.5134	17,147.5	75.1529
17,753.9	76.0305	17,753.9	62.4671	17,753.9	78.7882	17,753.9	66.7296	17,753.9	53.2073	17,753.9	74.3189
18,377.9	75.0293	18,377.9	61.0644	18,377.9	77.2599	18,377.9	65.7017	18,377.9	52.0739	18,377.9	72.9214
19,028.3	73.4398	19,028.3	58.3884	19,028.3	75.5994	19,028.3	63.0994	19,028.3	47.9904	19,028.3	71.2036
19,699.2	71.7647	19,699.2	54.3476	19,699.2	74.1949	19,699.2	59.8501	19,699.2	45.9481	19,699.2	69.644
19,998	71.0015	19,998	52.9875	19,998	73.4937	19,998	58.5226	19,998	46.0618	19,998	68.9059
