"SPL Vertical"																																																																							
"On-Axis"		"10°"		"-10°"		"20°"		"-20°"		"30°"		"-30°"		"40°"		"-40°"		"50°"		"-50°"		"60°"		"-60°"		"70°"		"-70°"		"80°"		"-80°"		"90°"		"-90°"		"100°"		"-100°"		"110°"		"-110°"		"120°"		"-120°"		"130°"		"-130°"		"140°"		"-140°"		"150°"		"-150°"		"160°"		"-160°"		"170°"		"-170°"		"180°"	
"Frequency [Hz]"	"Sound Pessure Level [dB]  / [2.83V 1m] "	"Frequency [Hz]"	"Sound Pessure Level [dB]  / [2.83V 1m] "	"Frequency [Hz]"	"Sound Pessure Level [dB]  / [2.83V 1m] "	"Frequency [Hz]"	"Sound Pessure Level [dB]  / [2.83V 1m] "	"Frequency [Hz]"	"Sound Pessure Level [dB]  / [2.83V 1m] "	"Frequency [Hz]"	"Sound Pessure Level [dB]  / [2.83V 1m] "	"Frequency [Hz]"	"Sound Pessure Level [dB]  / [2.83V 1m] "	"Frequency [Hz]"	"Sound Pessure Level [dB]  / [2.83V 1m] "	"Frequency [Hz]"	"Sound Pessure Level [dB]  / [2.83V 1m] "	"Frequency [Hz]"	"Sound Pessure Level [dB]  / [2.83V 1m] "	"Frequency [Hz]"	"Sound Pessure Level [dB]  / [2.83V 1m] "	"Frequency [Hz]"	"Sound Pessure Level [dB]  / [2.83V 1m] "	"Frequency [Hz]"	"Sound Pessure Level [dB]  / [2.83V 1m] "	"Frequency [Hz]"	"Sound Pessure Level [dB]  / [2.83V 1m] "	"Frequency [Hz]"	"Sound Pessure Level [dB]  / [2.83V 1m] "	"Frequency [Hz]"	"Sound Pessure Level [dB]  / [2.83V 1m] "	"Frequency [Hz]"	"Sound Pessure Level [dB]  / [2.83V 1m] "	"Frequency [Hz]"	"Sound Pessure Level [dB]  / [2.83V 1m] "	"Frequency [Hz]"	"Sound Pessure Level [dB]  / [2.83V 1m] "	"Frequency [Hz]"	"Sound Pessure Level [dB]  / [2.83V 1m] "	"Frequency [Hz]"	"Sound Pessure Level [dB]  / [2.83V 1m] "	"Frequency [Hz]"	"Sound Pessure Level [dB]  / [2.83V 1m] "	"Frequency [Hz]"	"Sound Pessure Level [dB]  / [2.83V 1m] "	"Frequency [Hz]"	"Sound Pessure Level [dB]  / [2.83V 1m] "	"Frequency [Hz]"	"Sound Pessure Level [dB]  / [2.83V 1m] "	"Frequency [Hz]"	"Sound Pessure Level [dB]  / [2.83V 1m] "	"Frequency [Hz]"	"Sound Pessure Level [dB]  / [2.83V 1m] "	"Frequency [Hz]"	"Sound Pessure Level [dB]  / [2.83V 1m] "	"Frequency [Hz]"	"Sound Pessure Level [dB]  / [2.83V 1m] "	"Frequency [Hz]"	"Sound Pessure Level [dB]  / [2.83V 1m] "	"Frequency [Hz]"	"Sound Pessure Level [dB]  / [2.83V 1m] "	"Frequency [Hz]"	"Sound Pessure Level [dB]  / [2.83V 1m] "	"Frequency [Hz]"	"Sound Pessure Level [dB]  / [2.83V 1m] "	"Frequency [Hz]"	"Sound Pessure Level [dB]  / [2.83V 1m] "	"Frequency [Hz]"	"Sound Pessure Level [dB]  / [2.83V 1m] "	"Frequency [Hz]"	"Sound Pessure Level [dB]  / [2.83V 1m] "
20.5078	63.2843	20.5078	63.281	20.5078	63.3254	20.5078	63.3175	20.5078	63.4035	20.5078	63.3965	20.5078	63.5185	20.5078	63.5212	20.5078	63.6717	20.5078	63.6942	20.5078	63.8643	20.5078	63.9174	20.5078	64.0977	20.5078	64.1906	20.5078	64.3725	20.5078	64.511	20.5078	64.6877	20.5078	64.8729	20.5078	65.0394	20.5078	65.2669	20.5078	65.4206	20.5078	65.6801	20.5078	65.8202	20.5078	66.0967	20.5078	66.2228	20.5078	66.4984	20.5078	66.6099	20.5078	66.8658	20.5078	66.961	20.5078	67.1796	20.5078	67.2556	20.5078	67.4224	20.5078	67.4758	20.5078	67.5802	20.5078	67.6078	20.5078	67.6433
23.4375	61.1371	23.4375	61.0229	23.4375	61.2483	23.4375	60.9141	23.4375	61.3506	23.4375	60.8223	23.4375	61.4414	23.4375	60.7619	23.4375	61.5207	23.4375	60.7491	23.4375	61.5915	23.4375	60.8002	23.4375	61.6601	23.4375	60.9288	23.4375	61.7362	23.4375	61.1427	23.4375	61.833	23.4375	61.4407	23.4375	61.9652	23.4375	61.8112	23.4375	62.1468	23.4375	62.2334	23.4375	62.3863	23.4375	62.6792	23.4375	62.6815	23.4375	63.1175	23.4375	63.0173	23.4375	63.5172	23.4375	63.3669	23.4375	63.8503	23.4375	63.6965	23.4375	64.0938	23.4375	63.9722	23.4375	64.2315	23.4375	64.1651	23.4375	64.255
26.3672	62.7382	26.3672	62.6484	26.3672	62.8345	26.3672	62.5763	26.3672	62.9298	26.3672	62.5355	26.3672	63.0202	26.3672	62.5412	26.3672	63.1064	26.3672	62.608	26.3672	63.1936	26.3672	62.7479	26.3672	63.2917	26.3672	62.9671	26.3672	63.4146	26.3672	63.2643	26.3672	63.5785	26.3672	63.6302	26.3672	63.7978	26.3672	64.0479	26.3672	64.0805	26.3672	64.4955	26.3672	64.4237	26.3672	64.948	26.3672	64.8116	26.3672	65.38	26.3672	65.2179	26.3672	65.7672	26.3672	65.6107	26.3672	66.0881	26.3672	65.9582	26.3672	66.3244	26.3672	66.2333	26.3672	66.4625	26.3672	66.4159	26.3672	66.4938
29.2969	63.1844	29.2969	63.0906	29.2969	63.281	29.2969	63.0121	29.2969	63.372	29.2969	62.9643	29.2969	63.4534	29.2969	62.9643	29.2969	63.5261	29.2969	63.0285	29.2969	63.5963	29.2969	63.1695	29.2969	63.6752	29.2969	63.3931	29.2969	63.7783	29.2969	63.6965	29.2969	63.9234	29.2969	64.068	29.2969	64.126	29.2969	64.4884	29.2969	64.3946	29.2969	64.934	29.2969	64.7266	29.2969	65.3791	29.2969	65.1063	29.2969	65.7984	29.2969	65.5074	29.2969	66.1688	29.2969	65.8985	29.2969	66.4701	29.2969	66.2484	29.2969	66.6857	29.2969	66.5302	29.2969	66.8036	29.2969	66.7238	29.2969	66.8167
32.2266	66.4518	32.2266	66.4836	32.2266	66.45	32.2266	66.5514	32.2266	66.474	32.2266	66.662	32.2266	66.5228	32.2266	66.8221	32.2266	66.5987	32.2266	67.0361	32.2266	66.707	32.2266	67.3054	32.2266	66.8558	32.2266	67.6272	32.2266	67.054	32.2266	67.9942	32.2266	67.3095	32.2266	68.3952	32.2266	67.626	32.2266	68.8154	32.2266	68.0005	32.2266	69.2381	32.2266	68.422	32.2266	69.6449	32.2266	68.8719	32.2266	70.0173	32.2266	69.3258	32.2266	70.3373	32.2266	69.7571	32.2266	70.5885	32.2266	70.1399	32.2266	70.7568	32.2266	70.4523	32.2266	70.8313	32.2266	70.6777	32.2266	70.8054
35.1563	71.59	35.1563	71.6015	35.1563	71.6048	35.1563	71.6421	35.1563	71.6439	35.1563	71.7153	35.1563	71.7068	35.1563	71.8245	35.1563	71.7943	35.1563	71.9725	35.1563	71.9085	35.1563	72.1606	35.1563	72.0528	35.1563	72.3883	35.1563	72.2304	35.1563	72.6525	35.1563	72.4443	35.1563	72.9473	35.1563	72.6955	35.1563	73.2641	35.1563	72.9815	35.1563	73.5914	35.1563	73.2956	35.1563	73.9158	35.1563	73.6261	35.1563	74.2223	35.1563	73.9569	35.1563	74.4954	35.1563	74.269	35.1563	74.7199	35.1563	74.5433	35.1563	74.8825	35.1563	74.762	35.1563	74.9723	35.1563	74.9114	35.1563	74.9826
38.0859	73.9055	38.0859	73.8906	38.0859	73.9421	38.0859	73.8995	38.0859	73.9985	38.0859	73.935	38.0859	74.0737	38.0859	73.9998	38.0859	74.1674	38.0859	74.0962	38.0859	74.2801	38.0859	74.2258	38.0859	74.4127	38.0859	74.3891	38.0859	74.5666	38.0859	74.5848	38.0859	74.743	38.0859	74.8094	38.0859	74.942	38.0859	75.0574	38.0859	75.162	38.0859	75.3204	38.0859	75.3986	38.0859	75.588	38.0859	75.6439	38.0859	75.8479	38.0859	75.8867	38.0859	76.0866	38.0859	76.1131	38.0859	76.2906	38.0859	76.3085	38.0859	76.4475	38.0859	76.4587	38.0859	76.5471	38.0859	76.5527	38.0859	76.583
41.0156	74.1776	41.0156	74.1519	41.0156	74.2227	41.0156	74.1475	41.0156	74.2858	41.0156	74.1663	41.0156	74.3655	41.0156	74.2101	41.0156	74.4608	41.0156	74.2805	41.0156	74.571	41.0156	74.3786	41.0156	74.6958	41.0156	74.5048	41.0156	74.8348	41.0156	74.6583	41.0156	74.9876	41.0156	74.8367	41.0156	75.1535	41.0156	75.036	41.0156	75.3306	41.0156	75.2502	41.0156	75.5156	41.0156	75.4711	41.0156	75.7027	41.0156	75.6891	41.0156	75.8843	41.0156	75.8929	41.0156	76.0504	41.0156	76.0713	41.0156	76.1903	41.0156	76.2135	41.0156	76.2934	41.0156	76.3109	41.0156	76.3509	41.0156	76.3574
43.9453	74.1793	43.9453	74.1529	43.9453	74.2215	43.9453	74.1434	43.9453	74.2782	43.9453	74.1519	43.9453	74.3482	43.9453	74.1795	43.9453	74.4302	43.9453	74.2271	43.9453	74.5231	43.9453	74.2951	43.9453	74.6255	43.9453	74.3837	43.9453	74.7363	43.9453	74.4926	43.9453	74.8543	43.9453	74.6203	43.9453	74.9781	43.9453	74.7643	43.9453	75.1062	43.9453	74.9206	43.9453	75.2361	43.9453	75.0839	43.9453	75.3646	43.9453	75.2471	43.9453	75.4869	43.9453	75.4021	43.9453	75.5969	43.9453	75.5401	43.9453	75.6876	43.9453	75.653	43.9453	75.7518	43.9453	75.7338	43.9453	75.7833	43.9453	75.7777
46.875	75.0108	46.875	74.9827	46.875	75.0522	46.875	74.9686	46.875	75.1056	46.875	74.9692	46.875	75.1701	46.875	74.9853	46.875	75.2442	46.875	75.0172	46.875	75.3264	46.875	75.0655	46.875	75.4151	46.875	75.1304	46.875	75.5087	46.875	75.2117	46.875	75.6055	46.875	75.3087	46.875	75.704	46.875	75.4199	46.875	75.8029	46.875	75.5428	46.875	75.9007	46.875	75.6732	46.875	75.9951	46.875	75.806	46.875	76.0834	46.875	75.9344	46.875	76.1613	46.875	76.0514	46.875	76.2238	46.875	76.1496	46.875	76.2654	46.875	76.2229	46.875	76.2811	46.875	76.2673
49.8047	75.7738	49.8047	75.7424	49.8047	75.8199	49.8047	75.7264	49.8047	75.8798	49.8047	75.7262	49.8047	75.9523	49.8047	75.742	49.8047	76.0356	49.8047	75.7741	49.8047	76.128	49.8047	75.8223	49.8047	76.2271	49.8047	75.8867	49.8047	76.3307	49.8047	75.9668	49.8047	76.4366	49.8047	76.0621	49.8047	76.5425	49.8047	76.1711	49.8047	76.6463	49.8047	76.2917	49.8047	76.7459	49.8047	76.4207	49.8047	76.8388	49.8047	76.5531	49.8047	76.922	49.8047	76.6833	49.8047	76.9916	49.8047	76.8043	49.8047	77.0432	49.8047	76.9093	49.8047	77.0722	49.8047	76.992	49.8047	77.0745	49.8047	77.0478
52.7344	75.6068	52.7344	75.5725	52.7344	75.6572	52.7344	75.5549	52.7344	75.7229	52.7344	75.554	52.7344	75.8025	52.7344	75.5698	52.7344	75.8942	52.7344	75.602	52.7344	75.9958	52.7344	75.6502	52.7344	76.1046	52.7344	75.7139	52.7344	76.2178	52.7344	75.7925	52.7344	76.3324	52.7344	75.8851	52.7344	76.4453	52.7344	75.9905	52.7344	76.5535	52.7344	76.1068	52.7344	76.654	52.7344	76.2312	52.7344	76.7437	52.7344	76.3598	52.7344	76.8193	52.7344	76.4876	52.7344	76.8774	52.7344	76.6088	52.7344	76.9145	52.7344	76.7172	52.7344	76.9275	52.7344	76.807	52.7344	76.9142	52.7344	76.8737
55.6641	75.391	55.6641	75.3549	55.6641	75.4361	55.6641	75.3283	55.6641	75.4895	55.6641	75.3113	55.6641	75.5501	55.6641	75.3038	55.6641	75.6163	55.6641	75.3056	55.6641	75.6863	55.6641	75.3165	55.6641	75.7578	55.6641	75.3363	55.6641	75.8284	55.6641	75.3649	55.6641	75.8956	55.6641	75.4021	55.6641	75.957	55.6641	75.448	55.6641	76.01	55.6641	75.5022	55.6641	76.0529	55.6641	75.5641	55.6641	76.0838	55.6641	75.6325	55.6641	76.1016	55.6641	75.7053	55.6641	76.1056	55.6641	75.7799	55.6641	76.0954	55.6641	75.8532	55.6641	76.071	55.6641	75.9218	55.6641	76.033	55.6641	75.9826
58.5938	76.3298	58.5938	76.2897	58.5938	76.3718	58.5938	76.2516	58.5938	76.4149	58.5938	76.2158	58.5938	76.4579	58.5938	76.1819	58.5938	76.4991	58.5938	76.1497	58.5938	76.5366	58.5938	76.1189	58.5938	76.5679	58.5938	76.0894	58.5938	76.5904	58.5938	76.0615	58.5938	76.6017	58.5938	76.0357	58.5938	76.5995	58.5938	76.0129	58.5938	76.5826	58.5938	75.9947	58.5938	76.5506	58.5938	75.9827	58.5938	76.5045	58.5938	75.9785	58.5938	76.4466	58.5938	75.9838	58.5938	76.3806	58.5938	75.9999	58.5938	76.3105	58.5938	76.0273	58.5938	76.2405	58.5938	76.0661	58.5938	76.1746	58.5938	76.1157
61.5234	77.7785	61.5234	77.7428	61.5234	77.8196	61.5234	77.7123	61.5234	77.8654	61.5234	77.6865	61.5234	77.9148	61.5234	77.6647	61.5234	77.9662	61.5234	77.6461	61.5234	78.017	61.5234	77.6299	61.5234	78.0643	61.5234	77.6154	61.5234	78.1046	61.5234	77.6025	61.5234	78.1345	61.5234	77.5913	61.5234	78.151	61.5234	77.5829	61.5234	78.1519	61.5234	77.5784	61.5234	78.1365	61.5234	77.5794	61.5234	78.1055	61.5234	77.5877	61.5234	78.061	61.5234	77.6045	61.5234	78.0065	61.5234	77.6308	61.5234	77.9459	61.5234	77.6665	61.5234	77.883	61.5234	77.711	61.5234	77.8212	61.5234	77.7631
64.4531	78.5249	64.4531	78.4938	64.4531	78.5697	64.4531	78.4759	64.4531	78.6277	64.4531	78.4701	64.4531	78.6979	64.4531	78.4751	64.4531	78.7784	64.4531	78.4894	64.4531	78.8663	64.4531	78.5115	64.4531	78.9579	64.4531	78.54	64.4531	79.0488	64.4531	78.574	64.4531	79.1345	64.4531	78.613	64.4531	79.2105	64.4531	78.6569	64.4531	79.273	64.4531	78.7062	64.4531	79.3192	64.4531	78.7613	64.4531	79.3475	64.4531	78.8225	64.4531	79.3575	64.4531	78.8894	64.4531	79.35	64.4531	78.9608	64.4531	79.3262	64.4531	79.0344	64.4531	79.2878	64.4531	79.1071	64.4531	79.2368	64.4531	79.1757
67.3828	78.3258	67.3828	78.3002	67.3828	78.3732	67.3828	78.2954	67.3828	78.4424	67.3828	78.3101	67.3828	78.5323	67.3828	78.3424	67.3828	78.6413	67.3828	78.3901	67.3828	78.7661	67.3828	78.4511	67.3828	78.9027	67.3828	78.5233	67.3828	79.046	67.3828	78.605	67.3828	79.1903	67.3828	78.6948	67.3828	79.3292	67.3828	78.7917	67.3828	79.4568	67.3828	78.895	67.3828	79.5677	67.3828	79.004	67.3828	79.6573	67.3828	79.1175	67.3828	79.7223	67.3828	79.2334	67.3828	79.7605	67.3828	79.3487	67.3828	79.7712	67.3828	79.4591	67.3828	79.7544	67.3828	79.5597	67.3828	79.7116	67.3828	79.6454
70.3125	77.5338	70.3125	77.5085	70.3125	77.5842	70.3125	77.5079	70.3125	77.6595	70.3125	77.5309	70.3125	77.7585	70.3125	77.5758	70.3125	77.8793	70.3125	77.6407	70.3125	78.0192	70.3125	77.7232	70.3125	78.1743	70.3125	77.821	70.3125	78.3399	70.3125	77.9319	70.3125	78.5102	70.3125	78.0536	70.3125	78.679	70.3125	78.1842	70.3125	78.8394	70.3125	78.3218	70.3125	78.9849	70.3125	78.4643	70.3125	79.1094	70.3125	78.609	70.3125	79.2076	70.3125	78.7527	70.3125	79.2757	70.3125	78.8909	70.3125	79.311	70.3125	79.0184	70.3125	79.3126	70.3125	79.1296	70.3125	79.2811	70.3125	79.2188
73.2422	76.92	73.2422	76.8801	73.2422	76.9737	73.2422	76.855	73.2422	77.0402	73.2422	76.8453	73.2422	77.1187	73.2422	76.8516	73.2422	77.2084	73.2422	76.8741	73.2422	77.3085	73.2422	76.9127	73.2422	77.4179	73.2422	76.9669	73.2422	77.5349	73.2422	77.036	73.2422	77.6571	73.2422	77.119	73.2422	77.7809	73.2422	77.2148	73.2422	77.9015	73.2422	77.3219	73.2422	78.0131	73.2422	77.4386	73.2422	78.1097	73.2422	77.5622	73.2422	78.1854	73.2422	77.6895	73.2422	78.2353	73.2422	77.8161	73.2422	78.2558	73.2422	77.9368	73.2422	78.2455	73.2422	78.0458	73.2422	78.205	73.2422	78.137
76.1719	77.4272	76.1719	77.369	76.1719	77.4822	76.1719	77.309	76.1719	77.5328	76.1719	77.2483	76.1719	77.5778	76.1719	77.1882	76.1719	77.6163	76.1719	77.1298	76.1719	77.6476	76.1719	77.0743	76.1719	77.6709	76.1719	77.0229	76.1719	77.686	76.1719	76.977	76.1719	77.6925	76.1719	76.9385	76.1719	77.6898	76.1719	76.9092	76.1719	77.6771	76.1719	76.8914	76.1719	77.6537	76.1719	76.8871	76.1719	77.6185	76.1719	76.8984	76.1719	77.5709	76.1719	76.9263	76.1719	77.5108	76.1719	76.9711	76.1719	77.4394	76.1719	77.0314	76.1719	77.3591	76.1719	77.1047	76.1719	77.2734	76.1719	77.1869
79.1016	78.369	79.1016	78.3078	79.1016	78.4246	79.1016	78.2416	79.1016	78.4734	79.1016	78.1708	79.1016	78.5137	79.1016	78.0957	79.1016	78.5437	79.1016	78.0159	79.1016	78.5612	79.1016	77.9316	79.1016	78.5639	79.1016	77.8428	79.1016	78.5497	79.1016	77.7504	79.1016	78.5165	79.1016	77.6557	79.1016	78.4626	79.1016	77.5614	79.1016	78.3871	79.1016	77.4711	79.1016	78.2903	79.1016	77.3897	79.1016	78.174	79.1016	77.3227	79.1016	78.0418	79.1016	77.2761	79.1016	77.8993	79.1016	77.2558	79.1016	77.7536	79.1016	77.2659	79.1016	77.6134	79.1016	77.3088	79.1016	77.4874	79.1016	77.3838
82.0313	79.2761	82.0313	79.226	82.0313	79.3227	82.0313	79.1722	82.0313	79.3651	82.0313	79.1144	82.0313	79.4023	82.0313	79.0519	82.0313	79.4327	82.0313	78.9837	82.0313	79.454	82.0313	78.9087	82.0313	79.4636	82.0313	78.8263	82.0313	79.4581	82.0313	78.7366	82.0313	79.4342	82.0313	78.6402	82.0313	79.3887	82.0313	78.5395	82.0313	79.319	82.0313	78.4382	82.0313	79.224	82.0313	78.3416	82.0313	79.1046	82.0313	78.2565	82.0313	78.9645	82.0313	78.1909	82.0313	78.8103	82.0313	78.1525	82.0313	78.6511	82.0313	78.1482	82.0313	78.498	82.0313	78.182	82.0313	78.3624	82.0313	78.2546
84.9609	79.6226	84.9609	79.5861	84.9609	79.6595	84.9609	79.5492	84.9609	79.6968	84.9609	79.5107	84.9609	79.7338	84.9609	79.469	84.9609	79.769	84.9609	79.422	84.9609	79.8001	84.9609	79.3679	84.9609	79.8238	84.9609	79.3052	84.9609	79.8362	84.9609	79.2331	84.9609	79.833	84.9609	79.152	84.9609	79.8096	84.9609	79.0637	84.9609	79.7625	84.9609	78.9719	84.9609	79.6891	84.9609	78.8822	84.9609	79.5895	84.9609	78.8017	84.9609	79.4667	84.9609	78.7387	84.9609	79.3267	84.9609	78.7015	84.9609	79.1787	84.9609	78.6972	84.9609	79.0339	84.9609	78.7299	84.9609	78.9042	84.9609	78.8003
87.8906	79.6221	87.8906	79.5904	87.8906	79.6578	87.8906	79.5618	87.8906	79.6978	87.8906	79.5347	87.8906	79.7417	87.8906	79.5071	87.8906	79.7879	87.8906	79.4768	87.8906	79.8343	87.8906	79.4418	87.8906	79.8775	87.8906	79.4003	87.8906	79.9132	87.8906	79.3514	87.8906	79.9364	87.8906	79.2952	87.8906	79.9422	87.8906	79.2334	87.8906	79.9257	87.8906	79.1692	87.8906	79.8838	87.8906	79.1075	87.8906	79.8153	87.8906	79.0546	87.8906	79.722	87.8906	79.0176	87.8906	79.6089	87.8906	79.0033	87.8906	79.4838	87.8906	79.017	87.8906	79.3564	87.8906	79.0617	87.8906	79.2374	87.8906	79.1366
90.8203	78.6618	90.8203	78.6324	90.8203	78.7111	90.8203	78.6225	90.8203	78.78	90.8203	78.6308	90.8203	78.8674	90.8203	78.6555	90.8203	78.9715	90.8203	78.694	90.8203	79.0897	90.8203	78.7434	90.8203	79.218	90.8203	78.8009	90.8203	79.3517	90.8203	78.8636	90.8203	79.4846	90.8203	78.9293	90.8203	79.6096	90.8203	78.9968	90.8203	79.7197	90.8203	79.0656	90.8203	79.8078	90.8203	79.1364	90.8203	79.8687	90.8203	79.2104	90.8203	79.8989	90.8203	79.289	90.8203	79.8978	90.8203	79.3733	90.8203	79.8672	90.8203	79.463	90.8203	79.8114	90.8203	79.5562	90.8203	79.7365	90.8203	79.6492
93.75	79.3978	93.75	79.3505	93.75	79.4417	93.75	79.3007	93.75	79.4816	93.75	79.2494	93.75	79.5174	93.75	79.1976	93.75	79.5494	93.75	79.1465	93.75	79.5782	93.75	79.0967	93.75	79.604	93.75	79.0493	93.75	79.6267	93.75	79.0049	93.75	79.645	93.75	78.9647	93.75	79.6567	93.75	78.9305	93.75	79.6586	93.75	78.9042	93.75	79.6471	93.75	78.8887	93.75	79.6189	93.75	78.8869	93.75	79.5723	93.75	78.9016	93.75	79.5073	93.75	78.9349	93.75	79.4264	93.75	78.9875	93.75	79.3344	93.75	79.0581	93.75	79.2376	93.75	79.1433
96.6797	79.8594	96.6797	79.8098	96.6797	79.8977	96.6797	79.7491	96.6797	79.9244	96.6797	79.6771	96.6797	79.9393	96.6797	79.5935	96.6797	79.9417	96.6797	79.498	96.6797	79.9312	96.6797	79.3906	96.6797	79.907	96.6797	79.2717	96.6797	79.8679	96.6797	79.1426	96.6797	79.8128	96.6797	79.0058	96.6797	79.74	96.6797	78.8656	96.6797	79.6481	96.6797	78.7278	96.6797	79.536	96.6797	78.6	96.6797	79.404	96.6797	78.491	96.6797	79.2542	96.6797	78.4099	96.6797	79.0914	96.6797	78.3651	96.6797	78.923	96.6797	78.3625	96.6797	78.759	96.6797	78.4045	96.6797	78.6106	96.6797	78.4893
102.539	80.4581	102.539	80.4162	102.539	80.5008	102.539	80.3743	102.539	80.5441	102.539	80.3311	102.539	80.587	102.539	80.2844	102.539	80.6278	102.539	80.2317	102.539	80.6637	102.539	80.1704	102.539	80.691	102.539	80.0982	102.539	80.7051	102.539	80.0135	102.539	80.7005	102.539	79.9163	102.539	80.6718	102.539	79.8082	102.539	80.6139	102.539	79.6932	102.539	80.5237	102.539	79.578	102.539	80.4007	102.539	79.4715	102.539	80.2483	102.539	79.3844	102.539	80.0742	102.539	79.3282	102.539	79.8901	102.539	79.3127	102.539	79.7104	102.539	79.3447	102.539	79.5509	102.539	79.4256
105.469	80.5451	105.469	80.5168	105.469	80.5822	105.469	80.496	105.469	80.6284	105.469	80.4808	105.469	80.6829	105.469	80.468	105.469	80.744	105.469	80.4541	105.469	80.8088	105.469	80.4355	105.469	80.8727	105.469	80.4086	105.469	80.9303	105.469	80.3706	105.469	80.9747	105.469	80.3202	105.469	80.9985	105.469	80.258	105.469	80.9949	105.469	80.1871	105.469	80.9584	105.469	80.1129	105.469	80.8869	105.469	80.0434	105.469	80.7818	105.469	79.9884	105.469	80.6493	105.469	79.9582	105.469	80.4996	105.469	79.9615	105.469	80.3463	105.469	80.0041	105.469	80.2041	105.469	80.0866
108.398	80.3437	108.398	80.3259	108.398	80.3784	108.398	80.3238	108.398	80.4303	108.398	80.3352	108.398	80.499	108.398	80.3569	108.398	80.5829	108.398	80.385	108.398	80.6794	108.398	80.415	108.398	80.7843	108.398	80.4423	108.398	80.8916	108.398	80.4632	108.398	80.9936	108.398	80.4749	108.398	81.0814	108.398	80.4766	108.398	81.1463	108.398	80.4697	108.398	81.1806	108.398	80.4579	108.398	81.1794	108.398	80.4471	108.398	81.1415	108.398	80.4447	108.398	81.0703	108.398	80.4582	108.398	80.9732	108.398	80.4939	108.398	80.8611	108.398	80.5553	108.398	80.7464	108.398	80.6413
111.328	79.9984	111.328	79.9846	111.328	80.034	111.328	79.9923	111.328	80.0912	111.328	80.0202	111.328	80.1696	111.328	80.0662	111.328	80.2684	111.328	80.1266	111.328	80.3861	111.328	80.1968	111.328	80.5198	111.328	80.272	111.328	80.6646	111.328	80.347	111.328	80.8129	111.328	80.418	111.328	80.9556	111.328	80.4822	111.328	81.0822	111.328	80.5392	111.328	81.1829	111.328	80.5905	111.328	81.2499	111.328	80.6393	111.328	81.279	111.328	80.6902	111.328	81.2702	111.328	80.7481	111.328	81.2277	111.328	80.8162	111.328	81.1591	111.328	80.8955	111.328	81.0744	111.328	80.9836
117.188	79.4284	117.188	79.3893	117.188	79.4764	117.188	79.364	117.188	79.5301	117.188	79.3582	117.188	79.5888	117.188	79.377	117.188	79.655	117.188	79.4236	117.188	79.7333	117.188	79.4986	117.188	79.8297	117.188	79.5997	117.188	79.9487	117.188	79.7227	117.188	80.0922	117.188	79.8615	117.188	80.2568	117.188	80.0099	117.188	80.4342	117.188	80.1623	117.188	80.6121	117.188	80.3139	117.188	80.7769	117.188	80.4612	117.188	80.916	117.188	80.6016	117.188	81.0196	117.188	80.7326	117.188	81.0826	117.188	80.8512	117.188	81.1038	117.188	80.9532	117.188	81.0857	117.188	81.0335
120.117	79.4736	120.117	79.4052	120.117	79.5333	120.117	79.3352	120.117	79.58	120.117	79.2727	120.117	79.613	120.117	79.2272	120.117	79.6355	120.117	79.2078	120.117	79.6543	120.117	79.221	120.117	79.6792	120.117	79.2702	120.117	79.7209	120.117	79.3549	120.117	79.7885	120.117	79.4711	120.117	79.8867	120.117	79.6122	120.117	80.0137	120.117	79.7701	120.117	80.161	120.117	79.9364	120.117	80.3154	120.117	80.103	120.117	80.4615	120.117	80.2627	120.117	80.5853	120.117	80.4088	120.117	80.676	120.117	80.5351	120.117	80.7269	120.117	80.6355	120.117	80.7359	120.117	80.7042
125.977	79.8798	125.977	79.7805	125.977	79.9478	125.977	79.655	125.977	79.9818	125.977	79.5101	125.977	79.9814	125.977	79.355	125.977	79.9491	125.977	79.2005	125.977	79.8906	125.977	79.0587	125.977	79.8147	125.977	78.9421	125.977	79.7334	125.977	78.8622	125.977	79.6604	125.977	78.8272	125.977	79.6087	125.977	78.8411	125.977	79.5874	125.977	78.9022	125.977	79.5995	125.977	79.0036	125.977	79.6402	125.977	79.1342	125.977	79.6981	125.977	79.2807	125.977	79.7583	125.977	79.4292	125.977	79.8057	125.977	79.5667	125.977	79.8275	125.977	79.6821	125.977	79.8157	125.977	79.7668
128.906	80.0739	128.906	79.9802	128.906	80.1309	128.906	79.853	128.906	80.1488	128.906	79.6971	128.906	80.1271	128.906	79.5188	128.906	80.0669	128.906	79.3261	128.906	79.9719	128.906	79.1292	128.906	79.849	128.906	78.9403	128.906	79.7084	128.906	78.773	128.906	79.5635	128.906	78.6409	128.906	79.4294	128.906	78.5549	128.906	79.3201	128.906	78.5216	128.906	79.2451	128.906	78.541	128.906	79.2067	128.906	78.6064	128.906	79.1987	128.906	78.7056	128.906	79.2084	128.906	78.8233	128.906	79.2199	128.906	78.9433	128.906	79.2182	128.906	79.0514	128.906	79.1922	128.906	79.1364
134.766	80.5214	134.766	80.4282	134.766	80.5859	134.766	80.3078	134.766	80.62	134.766	80.1621	134.766	80.6225	134.766	79.9935	134.766	80.593	134.766	79.805	134.766	80.5317	134.766	79.6013	134.766	80.4406	134.766	79.3887	134.766	80.3233	134.766	79.1762	134.766	80.1851	134.766	78.9747	134.766	80.0332	134.766	78.7967	134.766	79.8758	134.766	78.6544	134.766	79.7208	134.766	78.5579	134.766	79.5744	134.766	78.5125	134.766	79.4399	134.766	78.5176	134.766	79.3169	134.766	78.5665	134.766	79.2018	134.766	78.6484	134.766	79.09	134.766	78.7512	134.766	78.9775	134.766	78.8634
137.695	80.7475	137.695	80.6541	137.695	80.8161	137.695	80.5383	137.695	80.8575	137.695	80.4024	137.695	80.8698	137.695	80.2485	137.695	80.8515	137.695	80.0793	137.695	80.8022	137.695	79.898	137.695	80.7232	137.695	79.7092	137.695	80.6171	137.695	79.5192	137.695	80.4885	137.695	79.3365	137.695	80.3435	137.695	79.1709	137.695	80.1894	137.695	79.0329	137.695	80.0335	137.695	78.9318	137.695	79.882	137.695	78.8738	137.695	79.739	137.695	78.8607	137.695	79.6058	137.695	78.8889	137.695	79.4813	137.695	78.951	137.695	79.3629	137.695	79.0375	137.695	79.2487	137.695	79.1391
143.555	80.8732	143.555	80.7824	143.555	80.941	143.555	80.6711	143.555	80.983	143.555	80.5421	143.555	80.9973	143.555	80.3976	143.555	80.9826	143.555	80.2401	143.555	80.9387	143.555	80.0722	143.555	80.8668	143.555	79.8974	143.555	80.7693	143.555	79.7204	143.555	80.6499	143.555	79.5479	143.555	80.5132	143.555	79.3878	143.555	80.3645	143.555	79.2491	143.555	80.2091	143.555	79.1403	143.555	80.0521	143.555	79.068	143.555	79.8977	143.555	79.0355	143.555	79.7491	143.555	79.042	143.555	79.6082	143.555	79.0835	143.555	79.4763	143.555	79.1538	143.555	79.3549	143.555	79.2461
149.414	80.8561	149.414	80.7673	149.414	80.9224	149.414	80.6594	149.414	80.9635	149.414	80.5368	149.414	80.9784	149.414	80.4036	149.414	80.9677	149.414	80.2641	149.414	80.9338	149.414	80.1223	149.414	80.8805	149.414	79.9823	149.414	80.8126	149.414	79.8485	149.414	80.735	149.414	79.7259	149.414	80.6517	149.414	79.6196	149.414	80.565	149.414	79.5353	149.414	80.4757	149.414	79.4778	149.414	80.3828	149.414	79.4504	149.414	80.285	149.414	79.4546	149.414	80.1812	149.414	79.4892	149.414	80.0716	149.414	79.5508	149.414	79.958	149.414	79.6344	149.414	79.8439	149.414	79.7342
155.273	80.9739	155.273	80.8774	155.273	81.04	155.273	80.7548	155.273	81.0731	155.273	80.611	155.273	81.0717	155.273	80.4514	155.273	81.037	155.273	80.2818	155.273	80.9721	155.273	80.108	155.273	80.8827	155.273	79.9363	155.273	80.7764	155.273	79.7735	155.273	80.6619	155.273	79.6266	155.273	80.5473	155.273	79.5027	155.273	80.4388	155.273	79.4084	155.273	80.3394	155.273	79.3487	155.273	80.248	155.273	79.3262	155.273	80.1611	155.273	79.3406	155.273	80.0734	155.273	79.3884	155.273	79.9805	155.273	79.4636	155.273	79.8804	155.273	79.5583	155.273	79.7737	155.273	79.6642
158.203	81.0818	158.203	80.9708	158.203	81.1613	158.203	80.8335	158.203	81.2059	158.203	80.6755	158.203	81.2134	158.203	80.5032	158.203	81.1842	158.203	80.3228	158.203	81.1211	158.203	80.1411	158.203	81.0295	158.203	79.9645	158.203	80.917	158.203	79.7998	158.203	80.7928	158.203	79.6539	158.203	80.6661	158.203	79.5332	158.203	80.5445	158.203	79.4436	158.203	80.4323	158.203	79.3893	158.203	80.3299	158.203	79.3721	158.203	80.2343	158.203	79.3912	158.203	80.1406	158.203	79.4426	158.203	80.0441	158.203	79.5204	158.203	79.9419	158.203	79.6169	158.203	79.8342	158.203	79.7239
164.063	80.7984	164.063	80.6731	164.063	80.8902	164.063	80.52	164.063	80.9446	164.063	80.3468	164.063	80.9606	164.063	80.1619	164.063	80.9399	164.063	79.9749	164.063	80.887	164.063	79.7951	164.063	80.8095	164.063	79.6316	164.063	80.7167	164.063	79.4927	164.063	80.6187	164.063	79.3848	164.063	80.5245	164.063	79.3125	164.063	80.4399	164.063	79.2779	164.063	80.367	164.063	79.2806	164.063	80.3029	164.063	79.3177	164.063	80.2422	164.063	79.3843	164.063	80.178	164.063	79.4741	164.063	80.1044	164.063	79.5798	164.063	80.018	164.063	79.6939	164.063	79.9187	164.063	79.809
169.922	80.8248	169.922	80.7275	169.922	80.8856	169.922	80.5981	169.922	80.9076	169.922	80.4426	169.922	80.8905	169.922	80.2688	169.922	80.8367	169.922	80.0862	169.922	80.7518	169.922	79.9059	169.922	80.6446	169.922	79.7404	169.922	80.5273	169.922	79.6023	169.922	80.4142	169.922	79.5028	169.922	80.3191	169.922	79.4501	169.922	80.2526	169.922	79.4471	169.922	80.219	169.922	79.4912	169.922	80.2146	169.922	79.5745	169.922	80.229	169.922	79.6851	169.922	80.2482	169.922	79.8097	169.922	80.2582	169.922	79.9348	169.922	80.2475	169.922	80.0489	169.922	80.2097	169.922	80.1426
175.781	80.893	175.781	80.7771	175.781	80.9679	175.781	80.6253	175.781	80.9986	175.781	80.4448	175.781	80.9841	175.781	80.2442	175.781	80.9266	175.781	80.0342	175.781	80.8315	175.781	79.827	175.781	80.7081	175.781	79.6359	175.781	80.5692	175.781	79.4747	175.781	80.4301	175.781	79.3558	175.781	80.3063	175.781	79.2878	175.781	80.2105	175.781	79.2744	175.781	80.1486	175.781	79.3126	175.781	80.1188	175.781	79.3938	175.781	80.112	175.781	79.5052	175.781	80.1144	175.781	79.6322	175.781	80.1118	175.781	79.7606	175.781	80.0921	175.781	79.8783	175.781	80.0478	175.781	79.9759
181.641	80.9417	181.641	80.811	181.641	81.0281	181.641	80.6403	181.641	81.0675	181.641	80.4357	181.641	81.0594	181.641	80.2058	181.641	81.0061	181.641	79.961	181.641	80.9128	181.641	79.7148	181.641	80.7885	181.641	79.483	181.641	80.6456	181.641	79.283	181.641	80.4993	181.641	79.1314	181.641	80.3652	181.641	79.0408	181.641	80.2561	181.641	79.0173	181.641	80.1789	181.641	79.0583	181.641	80.1324	181.641	79.1533	181.641	80.1077	181.641	79.2864	181.641	80.0916	181.641	79.4397	181.641	80.0693	181.641	79.5961	181.641	80.0288	181.641	79.7416	181.641	79.9619	181.641	79.8656
190.43	81.0044	190.43	80.8723	190.43	81.0882	190.43	80.6961	190.43	81.1211	190.43	80.4812	190.43	81.1026	190.43	80.2349	190.43	81.035	190.43	79.9663	190.43	80.9241	190.43	79.6874	190.43	80.7794	190.43	79.4138	190.43	80.6143	190.43	79.1644	190.43	80.4447	190.43	78.9596	190.43	80.2873	190.43	78.8184	190.43	80.1562	190.43	78.7537	190.43	80.0592	190.43	78.7685	190.43	79.9961	190.43	78.8544	190.43	79.9585	190.43	78.994	190.43	79.9323	190.43	79.1649	190.43	79.9013	190.43	79.3447	190.43	79.8514	190.43	79.5141	190.43	79.7722	190.43	79.6592
196.289	81.1658	196.289	81.0537	196.289	81.2285	196.289	80.8954	196.289	81.2407	196.289	80.6959	196.289	81.2039	196.289	80.4621	196.289	81.1229	196.289	80.203	196.289	81.0059	196.289	79.9307	196.289	80.8644	196.289	79.6606	196.289	80.7122	196.289	79.4119	196.289	80.5639	196.289	79.2055	196.289	80.4323	196.289	79.0609	196.289	80.3258	196.289	78.9916	196.289	80.2468	196.289	79.0008	196.289	80.1914	196.289	79.0798	196.289	80.1512	196.289	79.2104	196.289	80.1154	196.289	79.3699	196.289	80.0732	196.289	79.5364	196.289	80.0153	196.289	79.6924	196.289	79.9345	196.289	79.8268
202.148	81.2563	202.148	81.1647	202.148	81.2941	202.148	81.0225	202.148	81.2774	202.148	80.8345	202.148	81.2083	202.148	80.6068	202.148	81.0933	202.148	80.3473	202.148	80.9432	202.148	80.0665	202.148	80.7735	202.148	79.7783	202.148	80.6027	202.148	79.5008	202.148	80.4498	202.148	79.2555	202.148	80.3297	202.148	79.0651	202.148	80.249	202.148	78.9485	202.148	80.2041	202.148	78.9153	202.148	80.1827	202.148	78.963	202.148	80.1678	202.148	79.0768	202.148	80.1427	202.148	79.2352	202.148	80.0944	202.148	79.4149	202.148	80.0157	202.148	79.5956	202.148	79.9042	202.148	79.7622
210.938	81.2507	210.938	81.1443	210.938	81.3062	210.938	80.9924	210.938	81.3069	210.938	80.8009	210.938	81.2517	210.938	80.5756	210.938	81.1433	210.938	80.3228	210.938	80.9896	210.938	80.0497	210.938	80.8046	210.938	79.7657	210.938	80.6071	210.938	79.484	210.938	80.4191	210.938	79.2222	210.938	80.2609	210.938	79.0014	210.938	80.1449	210.938	78.8427	210.938	80.072	210.938	78.7622	210.938	80.0311	210.938	78.7654	210.938	80.0031	210.938	78.8451	210.938	79.9675	210.938	78.9839	210.938	79.9081	210.938	79.1586	210.938	79.8152	210.938	79.3463	210.938	79.6869	210.938	79.5273
216.797	81.2059	216.797	81.0982	216.797	81.2653	216.797	80.9488	216.797	81.2718	216.797	80.7649	216.797	81.2242	216.797	80.5541	216.797	81.1252	216.797	80.3234	216.797	80.9832	216.797	80.0799	216.797	80.8116	216.797	79.8315	216.797	80.6284	216.797	79.5883	216.797	80.4539	216.797	79.3632	216.797	80.3058	216.797	79.1716	216.797	80.1949	216.797	79.0295	216.797	80.1211	216.797	78.9495	216.797	80.0739	216.797	78.9375	216.797	80.0365	216.797	78.9903	216.797	79.9912	216.797	79.0961	216.797	79.9243	216.797	79.238	216.797	79.829	216.797	79.3975	216.797	79.705	216.797	79.5578
225.586	81.2535	225.586	81.1545	225.586	81.2952	225.586	81.0039	225.586	81.2768	225.586	80.8089	225.586	81.1993	225.586	80.5772	225.586	81.0689	225.586	80.3172	225.586	80.898	225.586	80.0382	225.586	80.7055	225.586	79.7516	225.586	80.5147	225.586	79.472	225.586	80.3497	225.586	79.2177	225.586	80.2292	225.586	79.0095	225.586	80.1603	225.586	78.8676	225.586	80.1357	225.586	78.806	225.586	80.136	225.586	78.8279	225.586	80.1371	225.586	78.9247	225.586	80.1171	225.586	79.078	225.586	80.0614	225.586	79.2651	225.586	79.964	225.586	79.4641	225.586	79.8266	225.586	79.6562
234.375	81.3831	234.375	81.2997	234.375	81.4118	234.375	81.1676	234.375	81.3817	234.375	80.9928	234.375	81.2914	234.375	80.7811	234.375	81.1442	234.375	80.5379	234.375	80.9493	234.375	80.2687	234.375	80.7226	234.375	79.9809	234.375	80.4869	234.375	79.6855	234.375	80.2688	234.375	79.3988	234.375	80.0933	234.375	79.1426	234.375	79.9757	234.375	78.9411	234.375	79.9161	234.375	78.8161	234.375	79.8986	234.375	78.78	234.375	79.898	234.375	78.8308	234.375	79.8881	234.375	78.9525	234.375	79.8487	234.375	79.1203	234.375	79.769	234.375	79.3071	234.375	79.6471	234.375	79.489
240.234	81.1956	240.234	81.1156	240.234	81.2262	240.234	80.993	240.234	81.2015	240.234	80.8341	240.234	81.1183	240.234	80.6437	240.234	80.9781	240.234	80.4253	240.234	80.7883	240.234	80.1818	240.234	80.5637	240.234	79.9173	240.234	80.3259	240.234	79.6403	240.234	80.1012	240.234	79.3644	240.234	79.9147	240.234	79.1101	240.234	79.783	240.234	78.9012	240.234	79.7079	240.234	78.7608	240.234	79.6761	240.234	78.7031	240.234	79.6646	240.234	78.729	240.234	79.6491	240.234	78.8246	240.234	79.6104	240.234	78.9667	240.234	79.5378	240.234	79.1293	240.234	79.4292	240.234	79.2893
249.023	81.0766	249.023	80.9526	249.023	81.1506	249.023	80.7887	249.023	81.165	249.023	80.5939	249.023	81.1141	249.023	80.3743	249.023	80.997	249.023	80.1326	249.023	80.8198	249.023	79.8696	249.023	80.5957	249.023	79.5869	249.023	80.3448	249.023	79.2901	249.023	80.0911	249.023	78.9917	249.023	79.8581	249.023	78.7119	249.023	79.6624	249.023	78.4762	249.023	79.5089	249.023	78.3093	249.023	79.3907	249.023	78.2269	249.023	79.2932	249.023	78.2299	249.023	79.2008	249.023	78.3038	249.023	79.1016	249.023	78.4252	249.023	78.989	249.023	78.5701	249.023	78.8609	249.023	78.7193
257.813	81.4001	257.813	81.273	257.813	81.4766	257.813	81.1066	257.813	81.4931	257.813	80.9109	257.813	81.4439	257.813	80.6926	257.813	81.3293	257.813	80.4537	257.813	81.1565	257.813	80.1927	257.813	80.9396	257.813	79.9072	257.813	80.6993	257.813	79.5988	257.813	80.4599	257.813	79.2768	257.813	80.244	257.813	78.961	257.813	80.066	257.813	78.681	257.813	79.9278	257.813	78.4701	257.813	79.8188	257.813	78.355	257.813	79.7208	257.813	78.3453	257.813	79.6159	257.813	78.4299	257.813	79.4911	257.813	78.5824	257.813	79.341	257.813	78.7722	257.813	79.1663	257.813	78.9729
266.602	80.9209	266.602	80.7589	266.602	81.0358	266.602	80.5658	266.602	81.09	266.602	80.356	266.602	81.0749	266.602	80.1392	266.602	80.988	266.602	79.9175	266.602	80.8344	266.602	79.6862	266.602	80.6268	266.602	79.4369	266.602	80.385	266.602	79.1633	266.602	80.1336	266.602	78.8667	266.602	79.8978	266.602	78.5605	266.602	79.6962	266.602	78.2713	266.602	79.5351	266.602	78.0354	266.602	79.4071	266.602	77.8877	266.602	79.2949	266.602	77.8491	266.602	79.179	266.602	77.917	266.602	79.0441	266.602	78.0675	266.602	78.8824	266.602	78.2669	266.602	78.6933	266.602	78.4833
278.32	80.8235	278.32	80.7225	278.32	80.8674	278.32	80.5723	278.32	80.8514	278.32	80.383	278.32	80.7799	278.32	80.1646	278.32	80.6645	278.32	79.9246	278.32	80.5235	278.32	79.6668	278.32	80.3784	278.32	79.3935	278.32	80.2487	278.32	79.1082	278.32	80.1449	278.32	78.8197	278.32	80.0645	278.32	78.5444	278.32	79.9926	278.32	78.3061	278.32	79.9078	278.32	78.1304	278.32	79.7911	278.32	78.0366	278.32	79.6329	278.32	78.0299	278.32	79.4368	278.32	78.0995	278.32	79.2168	278.32	78.225	278.32	78.9907	278.32	78.3864	278.32	78.773	278.32	78.5707
287.109	80.812	287.109	80.7591	287.109	80.8023	287.109	80.6579	287.109	80.7205	287.109	80.5223	287.109	80.5662	287.109	80.3619	287.109	80.3516	287.109	80.1789	287.109	80.1034	287.109	79.9689	287.109	79.8616	287.109	79.7236	287.109	79.6709	287.109	79.4363	287.109	79.5649	287.109	79.108	287.109	79.55	287.109	78.7513	287.109	79.5983	287.109	78.3935	287.109	79.6596	287.109	78.0739	287.109	79.6806	287.109	77.8352	287.109	79.6226	287.109	77.7099	287.109	79.4703	287.109	77.7094	287.109	79.2319	287.109	77.8234	287.109	78.934	287.109	78.0289	287.109	78.6119	287.109	78.3004
295.898	80.6522	295.898	80.49	295.898	80.7241	295.898	80.2738	295.898	80.679	295.898	80.0439	295.898	80.5035	295.898	79.8359	295.898	80.2012	295.898	79.6708	295.898	79.7992	295.898	79.5504	295.898	79.3559	295.898	79.459	295.898	78.9641	295.898	79.3732	295.898	78.7316	295.898	79.2712	295.898	78.729	295.898	79.1418	295.898	78.9387	295.898	78.9868	295.898	79.2624	295.898	78.8221	295.898	79.5794	295.898	78.6745	295.898	79.7983	295.898	78.5758	295.898	79.873	295.898	78.5551	295.898	79.7992	295.898	78.6305	295.898	79.6041	295.898	78.8024	295.898	79.3358	295.898	79.0508
307.617	82.1232	307.617	81.8322	307.617	82.3012	307.617	81.4485	307.617	82.3501	307.617	80.998	307.617	82.2575	307.617	80.5131	307.617	82.015	307.617	80.0327	307.617	81.6207	307.617	79.6011	307.617	81.0852	307.617	79.2622	307.617	80.443	307.617	79.051	307.617	79.7703	307.617	78.9833	307.617	79.1973	307.617	79.0518	307.617	78.8804	307.617	79.2302	307.617	78.9119	307.617	79.4821	307.617	79.2418	307.617	79.7716	307.617	79.7181	307.617	80.0681	307.617	80.1906	307.617	80.3476	307.617	80.566	307.617	80.5908	307.617	80.8065	307.617	80.7794	307.617	80.9101	307.617	80.8935
319.336	82.1731	319.336	81.9359	319.336	82.3131	319.336	81.6137	319.336	82.3448	319.336	81.219	319.336	82.2589	319.336	80.7643	319.336	82.0488	319.336	80.2636	319.336	81.7125	319.336	79.7351	319.336	81.2554	319.336	79.2074	319.336	80.6973	319.336	78.7245	319.336	80.081	319.336	78.3456	319.336	79.4827	319.336	78.1325	319.336	79.0091	319.336	78.1232	319.336	78.7631	319.336	78.3083	319.336	78.7843	319.336	78.6326	319.336	79.0181	319.336	79.0203	319.336	79.3526	319.336	79.4011	319.336	79.6801	319.336	79.723	319.336	79.9287	319.336	79.9526	319.336	80.0623	319.336	80.0695
331.055	81.9509	331.055	81.7185	331.055	82.0994	331.055	81.4162	331.055	82.1516	331.055	81.0582	331.055	82.0976	331.055	80.6566	331.055	81.9308	331.055	80.2204	331.055	81.6482	331.055	79.7567	331.055	81.2525	331.055	79.2754	331.055	80.7565	331.055	78.7968	331.055	80.1906	331.055	78.3587	331.055	79.6118	331.055	78.0169	331.055	79.107	331.055	77.8318	331.055	78.775	331.055	77.841	331.055	78.6787	331.055	78.0347	331.055	78.8005	331.055	78.3574	331.055	79.0502	331.055	78.733	331.055	79.318	331.055	79.0906	331.055	79.5184	331.055	79.3763	331.055	79.6028	331.055	79.5539
342.773	81.6979	342.773	81.4495	342.773	81.8506	342.773	81.1205	342.773	81.8957	342.773	80.7276	342.773	81.8256	342.773	80.287	342.773	81.6369	342.773	79.8129	342.773	81.332	342.773	79.3185	342.773	80.921	342.773	78.8196	342.773	80.4255	342.773	78.3417	342.773	79.8851	342.773	77.9272	342.773	79.3628	342.773	77.6339	342.773	78.9411	342.773	77.5195	342.773	78.6997	342.773	77.6116	342.773	78.6746	342.773	77.8868	342.773	78.8334	342.773	78.2784	342.773	79.0915	342.773	78.7048	342.773	79.3546	342.773	79.0948	342.773	79.5496	342.773	79.3974	342.773	79.6317	342.773	79.5813
354.492	81.8954	354.492	81.6641	354.492	82.0259	354.492	81.3442	354.492	82.0454	354.492	80.949	354.492	81.9466	354.492	80.4906	354.492	81.7255	354.492	79.9789	354.492	81.382	354.492	79.422	354.492	80.9221	354.492	78.8309	354.492	80.3618	354.492	78.2274	354.492	79.7342	354.492	77.655	354.492	79.0992	354.492	77.1842	354.492	78.5462	354.492	76.9007	354.492	78.176	354.492	76.867	354.492	78.0525	354.492	77.0792	354.492	78.1577	354.492	77.4639	354.492	78.3997	354.492	77.9165	354.492	78.666	354.492	78.3435	354.492	78.867	354.492	78.6797	354.492	78.9488	354.492	78.887
366.211	82.0113	366.211	81.7989	366.211	82.1282	366.211	81.5035	366.211	82.138	366.211	81.1358	366.211	82.032	366.211	80.703	366.211	81.8053	366.211	80.208	366.211	81.4576	366.211	79.6521	366.211	80.9951	366.211	79.0409	366.211	80.4333	366.211	78.394	366.211	79.8036	366.211	77.7559	366.211	79.1603	366.211	77.2029	366.211	78.5833	366.211	76.8313	366.211	78.1632	366.211	76.7166	366.211	77.9622	366.211	76.8641	366.211	77.9751	366.211	77.2001	366.211	78.1307	366.211	77.6149	366.211	78.3319	366.211	78.0103	366.211	78.495	366.211	78.3199	366.211	78.5637	366.211	78.5082
377.93	82.1313	377.93	81.9019	377.93	82.2733	377.93	81.6049	377.93	82.3105	377.93	81.2589	377.93	82.2302	377.93	80.875	377.93	82.0246	377.93	80.4543	377.93	81.691	377.93	79.9886	377.93	81.233	377.93	79.4685	377.93	80.6655	377.93	78.8964	377.93	80.0236	377.93	78.3012	377.93	79.375	377.93	77.7503	377.93	78.8239	377.93	77.3458	377.93	78.486	377.93	77.1875	377.93	78.4228	377.93	77.311	377.93	78.5915	377.93	77.6584	377.93	78.8725	377.93	78.1168	377.93	79.1413	377.93	78.5766	377.93	79.3127	377.93	78.961	377.93	79.3444	377.93	79.2248
392.578	81.8362	392.578	81.598	392.578	81.9878	392.578	81.286	392.578	82.0428	392.578	80.9159	392.578	81.9945	392.578	80.5026	392.578	81.8375	392.578	80.0561	392.578	81.5676	392.578	79.5789	392.578	81.1817	392.578	79.0688	392.578	80.681	392.578	78.5288	392.578	80.0769	392.578	77.9824	392.578	79.4036	392.578	77.4871	392.578	78.7351	392.578	77.1348	392.578	78.1948	392.578	77.0203	392.578	77.9215	392.578	77.1818	392.578	77.9781	392.578	77.567	392.578	78.287	392.578	78.0619	392.578	78.6826	392.578	78.5474	392.578	79.0119	392.578	78.9314	392.578	79.1813	392.578	79.1535
407.227	81.4702	407.227	81.2379	407.227	81.6109	407.227	80.9283	407.227	81.648	407.227	80.5546	407.227	81.5732	407.227	80.1264	407.227	81.3826	407.227	79.6475	407.227	81.0769	407.227	79.1179	407.227	80.6603	407.227	78.539	407.227	80.1419	407.227	77.9263	407.227	79.539	407.227	77.3246	407.227	78.8874	407.227	76.8225	407.227	78.2568	407.227	76.541	407.227	77.7615	407.227	76.5777	407.227	77.535	407.227	76.9317	407.227	77.6466	407.227	77.4943	407.227	78.0298	407.227	78.1157	407.227	78.5193	407.227	78.668	407.227	78.9498	407.227	79.0642	407.227	79.2116	407.227	79.2528
421.875	81.7672	421.875	81.4964	421.875	81.953	421.875	81.1651	421.875	82.0361	421.875	80.7991	421.875	82.0072	421.875	80.4156	421.875	81.864	421.875	80.0158	421.875	81.608	421.875	79.5828	421.875	81.2415	421.875	79.0904	421.875	80.7655	421.875	78.5181	421.875	80.181	421.875	77.8715	421.875	79.4954	421.875	77.205	421.875	78.7366	421.875	76.639	421.875	77.9785	421.875	76.3376	421.875	77.3603	421.875	76.4123	421.875	77.0537	421.875	76.8185	421.875	77.1393	421.875	77.3818	421.875	77.5122	421.875	77.9139	421.875	77.9597	421.875	78.2821	421.875	78.2961	421.875	78.4155
436.523	81.6332	436.523	81.4225	436.523	81.7395	436.523	81.1249	436.523	81.7322	436.523	80.7621	436.523	81.6107	436.523	80.354	436.523	81.3823	436.523	79.9108	436.523	81.0601	436.523	79.4303	436.523	80.661	436.523	78.9022	436.523	80.2036	436.523	78.3229	436.523	79.7075	436.523	77.717	436.523	79.1936	436.523	77.1581	436.523	78.6889	436.523	76.7711	436.523	78.2338	436.523	76.682	436.523	77.8895	436.523	76.9236	436.523	77.7263	436.523	77.3953	436.523	77.7836	436.523	77.9308	436.523	78.0258	436.523	78.3851	436.523	78.346	436.523	78.6683	436.523	78.6179	436.523	78.7432
451.172	81.8688	451.172	81.6297	451.172	81.9968	451.172	81.3023	451.172	81.9995	451.172	80.9126	451.172	81.8717	451.172	80.4815	451.172	81.6169	451.172	80.0155	451.172	81.2442	451.172	79.5025	451.172	80.767	451.172	78.9171	451.172	80.2017	451.172	78.2376	451.172	79.5676	451.172	77.4707	451.172	78.891	451.172	76.6841	451.172	78.2121	451.172	76.0342	451.172	77.5963	451.172	75.7315	451.172	77.1405	451.172	75.8931	451.172	76.9462	451.172	76.4168	451.172	77.0511	451.172	77.0691	451.172	77.3768	451.172	77.6458	451.172	77.7657	451.172	78.0283	451.172	78.0636	451.172	78.1673
465.82	81.5266	465.82	81.3317	465.82	81.6375	465.82	81.072	465.82	81.6475	465.82	80.7626	465.82	81.5454	465.82	80.4083	465.82	81.3271	465.82	79.999	465.82	80.9946	465.82	79.5116	465.82	80.5549	465.82	78.9197	465.82	80.0205	465.82	78.2102	465.82	79.412	465.82	77.4078	465.82	78.7655	465.82	76.6074	465.82	78.1426	465.82	75.9931	465.82	77.6329	465.82	75.7763	465.82	77.3325	465.82	76.0265	465.82	77.2935	465.82	76.5934	465.82	77.4811	465.82	77.2425	465.82	77.7894	465.82	77.7988	465.82	78.0956	465.82	78.1738	465.82	78.3005	465.82	78.3384
483.398	81.1977	483.398	80.979	483.398	81.3396	483.398	80.7121	483.398	81.388	483.398	80.4279	483.398	81.3397	483.398	80.1424	483.398	81.2008	483.398	79.8428	483.398	80.9797	483.398	79.4855	483.398	80.6801	483.398	79.0099	483.398	80.2972	483.398	78.3587	483.398	79.8176	483.398	77.5014	483.398	79.2263	483.398	76.47	483.398	78.525	483.398	75.4238	483.398	77.7673	483.398	74.7063	483.398	77.1034	483.398	74.684	483.398	76.7634	483.398	75.3429	483.398	76.8846	483.398	76.2987	483.398	77.3377	483.398	77.1942	483.398	77.8376	483.398	77.8422	483.398	78.1535	483.398	78.1673
500.977	80.7688	500.977	80.4913	500.977	80.9605	500.977	80.1932	500.977	81.0271	500.977	79.9434	500.977	80.9596	500.977	79.7758	500.977	80.7733	500.977	79.6622	500.977	80.4984	500.977	79.5225	500.977	80.1702	500.977	79.2623	500.977	79.8182	500.977	78.8065	500.977	79.4589	500.977	78.1184	500.977	79.0928	500.977	77.2222	500.977	78.7125	500.977	76.2476	500.977	78.3233	500.977	75.4801	500.977	77.9703	500.977	75.2731	500.977	77.7454	500.977	75.7204	500.977	77.736	500.977	76.5364	500.977	77.9324	500.977	77.3651	500.977	78.204	500.977	77.9915	500.977	78.3801	500.977	78.3305
518.555	80.0856	518.555	79.6507	518.555	80.3214	518.555	79.0761	518.555	80.3525	518.555	78.4871	518.555	80.2093	518.555	78.0461	518.555	79.9421	518.555	77.8568	518.555	79.6071	518.555	77.8749	518.555	79.2544	518.555	77.9455	518.555	78.9161	518.555	77.914	518.555	78.5995	518.555	77.6914	518.555	78.2874	518.555	77.2683	518.555	77.9565	518.555	76.7245	518.555	77.6158	518.555	76.2453	518.555	77.3499	518.555	76.0831	518.555	77.3088	518.555	76.3864	518.555	77.5826	518.555	77.047	518.555	78.0715	518.555	77.8028	518.555	78.5488	518.555	78.4259	518.555	78.819	518.555	78.7828
536.133	81.0202	536.133	80.5911	536.133	81.2063	536.133	79.9477	536.133	81.1429	536.133	79.1553	536.133	80.8385	536.133	78.3271	536.133	80.3171	536.133	77.6061	536.133	79.6265	536.133	77.0948	536.133	78.8526	536.133	76.7766	536.133	78.1237	536.133	76.5303	536.133	77.5718	536.133	76.2277	536.133	77.245	536.133	75.8249	536.133	77.0594	536.133	75.4193	536.133	76.877	536.133	75.2566	536.133	76.6471	536.133	75.5801	536.133	76.5046	536.133	76.3672	536.133	76.703	536.133	77.3344	536.133	77.3135	536.133	78.1888	536.133	78.0802	536.133	78.7475	536.133	78.6781	536.133	78.919
553.711	81.7333	553.711	81.4298	553.711	81.8583	553.711	80.9516	553.711	81.8073	553.711	80.3174	553.711	81.5833	553.711	79.5712	553.711	81.188	553.711	78.7857	553.711	80.6238	553.711	78.0438	553.711	79.9002	553.711	77.392	553.711	79.0448	553.711	76.7997	553.711	78.1182	553.711	76.1764	553.711	77.2191	553.711	75.444	553.711	76.461	553.711	74.6331	553.711	75.9158	553.711	73.9783	553.711	75.5908	553.711	73.8784	553.711	75.4904	553.711	74.4996	553.711	75.6664	553.711	75.5157	553.711	76.1273	553.711	76.4823	553.711	76.7219	553.711	77.1351	553.711	77.2037	553.711	77.3741
574.219	81.9949	574.219	81.6377	574.219	82.1693	574.219	81.1296	574.219	82.147	574.219	80.5236	574.219	81.9292	574.219	79.8877	574.219	81.5321	574.219	79.2835	574.219	80.9908	574.219	78.735	574.219	80.359	574.219	78.211	574.219	79.6984	574.219	77.6399	574.219	79.0503	574.219	76.9457	574.219	78.4043	574.219	76.0944	574.219	77.6899	574.219	75.1579	574.219	76.8248	574.219	74.3997	574.219	75.8361	574.219	74.2363	574.219	75.0499	574.219	74.8347	574.219	75.0324	574.219	75.8584	574.219	75.8421	574.219	76.8554	574.219	76.8603	574.219	77.5503	574.219	77.577	574.219	77.8109
594.727	82.4228	594.727	81.9755	594.727	82.6447	594.727	81.3217	594.727	82.637	594.727	80.5133	594.727	82.4017	594.727	79.6558	594.727	81.9488	594.727	78.9015	594.727	81.3059	594.727	78.3712	594.727	80.5363	594.727	78.0457	594.727	79.7541	594.727	77.7661	594.727	79.1032	594.727	77.3463	594.727	78.6649	594.727	76.6685	594.727	78.362	594.727	75.7392	594.727	77.997	594.727	74.7848	594.727	77.4085	594.727	74.328	594.727	76.6475	594.727	74.794	594.727	76.1159	594.727	75.8891	594.727	76.2972	594.727	77.003	594.727	77.0372	594.727	77.7622	594.727	77.7381	594.727	78.017
615.234	83.9537	615.234	83.535	615.234	84.1083	615.234	82.8512	615.234	84.0103	615.234	81.9301	615.234	83.6722	615.234	80.8567	615.234	83.1052	615.234	79.7951	615.234	82.3245	615.234	78.9518	615.234	81.3659	615.234	78.4337	615.234	80.3195	615.234	78.1344	615.234	79.3654	615.234	77.8163	615.234	78.7327	615.234	77.2667	615.234	78.4985	615.234	76.3885	615.234	78.4448	615.234	75.3011	615.234	78.2316	615.234	74.53	615.234	77.662	615.234	74.7881	615.234	76.884	615.234	75.9399	615.234	76.4912	615.234	77.176	615.234	76.9188	615.234	77.9699	615.234	77.6904	615.234	78.1364
638.672	84.3578	638.672	84.0602	638.672	84.4094	638.672	83.4811	638.672	84.2489	638.672	82.5968	638.672	83.9016	638.672	81.4262	638.672	83.3778	638.672	80.0964	638.672	82.6622	638.672	78.9152	638.672	81.7063	638.672	78.2648	638.672	80.437	638.672	78.1892	638.672	78.8186	638.672	78.2952	638.672	77.0769	638.672	78.1582	638.672	76.094	638.672	77.5349	638.672	76.642	638.672	76.3545	638.672	77.8455	638.672	74.8055	638.672	78.6427	638.672	73.6269	638.672	78.6852	638.672	73.7218	638.672	78.0358	638.672	74.6648	638.672	77.0629	638.672	75.4897	638.672	76.3117	638.672	75.9288
659.18	83.3178	659.18	83.1945	659.18	83.2291	659.18	82.8404	659.18	82.9648	659.18	82.2466	659.18	82.5825	659.18	81.415	659.18	82.1541	659.18	80.3821	659.18	81.7386	659.18	79.2752	659.18	81.3384	659.18	78.3621	659.18	80.8659	659.18	77.9222	659.18	80.1545	659.18	77.9241	659.18	79.0084	659.18	78.0174	659.18	77.3024	659.18	77.8707	659.18	75.3505	659.18	77.3506	659.18	74.655	659.18	76.561	659.18	76.0349	659.18	75.8957	659.18	77.7783	659.18	75.8737	659.18	78.8811	659.18	76.5622	659.18	79.2553	659.18	77.5349	659.18	79.0463	659.18	78.4243
682.617	83.6657	682.617	83.3988	682.617	83.6492	682.617	82.8555	682.617	83.3625	682.617	82.0556	682.617	82.8451	682.617	81.0232	682.617	82.1667	682.617	79.7929	682.617	81.4217	682.617	78.4615	682.617	80.6992	682.617	77.296	682.617	80.0286	682.617	76.7194	682.617	79.3431	682.617	76.8712	682.617	78.5192	682.617	77.3484	682.617	77.4901	682.617	77.6811	682.617	76.4186	682.617	77.6623	682.617	75.8302	682.617	77.3518	682.617	76.1931	682.617	77.059	682.617	77.2043	682.617	77.197	682.617	78.2525	682.617	77.8455	682.617	79.004	682.617	78.6418	682.617	79.3343	682.617	79.2009
706.055	83.6016	706.055	83.3638	706.055	83.5527	706.055	82.8356	706.055	83.2358	706.055	82.0215	706.055	82.6929	706.055	80.9336	706.055	81.996	706.055	79.6092	706.055	81.2449	706.055	78.1691	706.055	80.5306	706.055	76.9128	706.055	79.8608	706.055	76.2683	706.055	79.1107	706.055	76.3599	706.055	78.0708	706.055	76.7988	706.055	76.5914	706.055	77.13	706.055	74.9237	706.055	77.1301	706.055	74.2317	706.055	76.8195	706.055	75.2519	706.055	76.469	706.055	76.7656	706.055	76.4995	706.055	77.8696	706.055	77.0511	706.055	78.451	706.055	77.7976	706.055	78.5989	706.055	78.368
732.422	82.8434	732.422	83.0102	732.422	82.4528	732.422	82.9348	732.422	81.8608	732.422	82.5776	732.422	81.1267	732.422	81.8614	732.422	80.377	732.422	80.6652	732.422	79.7896	732.422	78.8498	732.422	79.4718	732.422	76.4337	732.422	79.305	732.422	74.3984	732.422	78.951	732.422	74.8153	732.422	77.9815	732.422	76.6639	732.422	75.9283	732.422	78.0569	732.422	72.4706	732.422	78.5844	732.422	70.6766	732.422	78.3166	732.422	74.2767	732.422	77.5105	732.422	77.3248	732.422	76.714	732.422	78.8209	732.422	76.5958	732.422	79.1758	732.422	77.2049	732.422	78.8043	732.422	78.0587
758.789	81.2394	758.789	81.0222	758.789	81.649	758.789	81.234	758.789	81.8276	758.789	81.6819	758.789	81.4218	758.789	81.9439	758.789	80.1618	758.789	81.6317	758.789	77.8833	758.789	80.3843	758.789	75.4235	758.789	77.6462	758.789	76.1731	758.789	71.8327	758.789	78.8466	758.789	61.9896	758.789	80.4672	758.789	73.6747	758.789	80.4287	758.789	78.4169	758.789	78.1188	758.789	80.8099	758.789	70.356	758.789	82.064	758.789	70.0988	758.789	82.7287	758.789	79.8428	758.789	83.2112	758.789	83.6866	758.789	83.8085	758.789	85.3603	758.789	84.5917	758.789	85.7561	758.789	85.3619
785.156	85.2836	785.156	84.1731	785.156	86.0006	785.156	82.8418	785.156	86.2731	785.156	81.8347	785.156	86.0513	785.156	81.8815	785.156	85.245	785.156	82.7207	785.156	83.6796	785.156	83.3618	785.156	81.0224	785.156	83.1595	785.156	76.9666	785.156	81.7345	785.156	75.1941	785.156	78.5007	785.156	78.9052	785.156	71.2812	785.156	81.4636	785.156	63.6191	785.156	81.9196	785.156	75.4652	785.156	79.9694	785.156	79.692	785.156	74.0237	785.156	82.0315	785.156	74.3225	785.156	83.638	785.156	81.5463	785.156	84.9305	785.156	84.9093	785.156	85.9519	785.156	86.3082	785.156	86.5133
811.523	85.1198	811.523	84.3201	811.523	85.5775	811.523	83.1162	811.523	85.7583	811.523	81.6669	811.523	85.6539	811.523	80.7175	811.523	85.1675	811.523	81.0231	811.523	84.1191	811.523	81.877	811.523	82.2255	811.523	82.2048	811.523	79.0839	811.523	81.4944	811.523	75.2329	811.523	79.3994	811.523	76.3048	811.523	75.1581	811.523	79.5596	811.523	65.9233	811.523	80.941	811.523	69.3192	811.523	80.0826	811.523	75.9725	811.523	75.9738	811.523	79.3637	811.523	68.6612	811.523	81.5745	811.523	77.7991	811.523	83.2047	811.523	82.4326	811.523	84.3475	811.523	84.385	811.523	84.8459
840.82	86.0208	840.82	85.3329	840.82	86.3003	840.82	84.0507	840.82	86.2998	840.82	82.0804	840.82	86.0373	840.82	79.9795	840.82	85.4239	840.82	79.5815	840.82	84.2854	840.82	80.8655	840.82	82.3125	840.82	81.8289	840.82	78.7999	840.82	81.6377	840.82	71.9973	840.82	79.9248	840.82	72.7177	840.82	75.7989	840.82	79.1097	840.82	63.7905	840.82	81.8042	840.82	70.5431	840.82	81.9991	840.82	77.6976	840.82	79.615	840.82	81.0543	840.82	75.716	840.82	83.1501	840.82	79.747	840.82	84.6843	840.82	83.9528	840.82	85.7972	840.82	85.8779	840.82	86.3145
870.117	85.8328	870.117	86.277	870.117	85.0756	870.117	86.0376	870.117	84.4376	870.117	84.7305	870.117	84.2506	870.117	81.7443	870.117	84.4817	870.117	76.3535	870.117	84.7537	870.117	76.7875	870.117	84.5598	870.117	81.7153	870.117	83.3268	870.117	84.0016	870.117	80.0447	870.117	84.2707	870.117	70.8997	870.117	82.7867	870.117	75.6935	870.117	79.431	870.117	82.833	870.117	75.2968	870.117	85.5818	870.117	77.4408	870.117	85.9426	870.117	81.5111	870.117	84.5665	870.117	84.3694	870.117	83.4339	870.117	86.3521	870.117	85.146	870.117	87.5911	870.117	87.1572	870.117	87.9462
902.344	83.5693	902.344	84.699	902.344	82.2371	902.344	85.4239	902.344	80.8757	902.344	85.4875	902.344	79.758	902.344	84.5684	902.344	79.3741	902.344	82.1923	902.344	79.9864	902.344	77.473	902.344	81.0671	902.344	72.172	902.344	81.8039	902.344	77.1434	902.344	81.5115	902.344	80.5521	902.344	79.3104	902.344	81.6575	902.344	72.365	902.344	81.0699	902.344	68.5026	902.344	78.7766	902.344	79.226	902.344	74.19	902.344	82.5313	902.344	69.1133	902.344	82.8598	902.344	74.0473	902.344	80.8167	902.344	78.0219	902.344	77.5811	902.344	79.8064	902.344	77.9375	902.344	79.7271
931.641	83.4748	931.641	84.064	931.641	82.7021	931.641	84.4222	931.641	81.7357	931.641	84.3943	931.641	80.5914	931.641	83.7189	931.641	79.4687	931.641	82.0626	931.641	78.8726	931.641	79.0789	931.641	79.1601	931.641	75.2945	931.641	79.8503	931.641	75.3203	931.641	80.0225	931.641	77.9112	931.641	78.7718	931.641	79.1814	931.641	74.747	931.641	78.8	931.641	67.9497	931.641	76.6218	931.641	75.5878	931.641	71.7162	931.641	79.6415	931.641	58.7945	931.641	80.3773	931.641	68.0382	931.641	78.2729	931.641	73.3353	931.641	72.5235	931.641	74.9002	931.641	68.7857	931.641	73.6296
966.797	83.6385	966.797	83.9362	966.797	83.0914	966.797	83.9907	966.797	82.2564	966.797	83.7167	966.797	81.1452	966.797	82.9067	966.797	79.9332	966.797	81.2478	966.797	79.0333	966.797	78.4311	966.797	78.8356	966.797	75.0854	966.797	79.1003	966.797	75.0849	966.797	79.0055	966.797	77.3253	966.797	77.5683	966.797	78.4164	966.797	73.0819	966.797	77.8999	966.797	62.2663	966.797	75.6415	966.797	74.4306	966.797	71.0399	966.797	78.8844	966.797	63.0456	966.797	79.6982	966.797	68.0084	966.797	77.3168	966.797	73.2059	966.797	69.2658	966.797	75.1918	966.797	66.9061	966.797	74.1402
999.023	83.1617	999.023	82.7438	999.023	83.4624	999.023	82.5678	999.023	83.287	999.023	82.6161	999.023	82.4355	999.023	82.4201	999.023	80.8294	999.023	81.378	999.023	78.5132	999.023	78.8521	999.023	76.362	999.023	74.0131	999.023	76.8352	999.023	71.2862	999.023	78.769	999.023	76.2147	999.023	79.4701	999.023	78.8665	999.023	77.7826	999.023	79.1962	999.023	70.9408	999.023	77.5575	999.023	68.172	999.023	73.7451	999.023	78.4637	999.023	66.9719	999.023	81.4294	999.023	67.3359	999.023	81.0368	999.023	72.148	999.023	77.6227	999.023	73.6241	999.023	72.021	999.023	72.2297
1,034.18	84.5568	1,034.18	84.3218	1,034.18	84.3555	1,034.18	83.6411	1,034.18	83.8607	1,034.18	82.7285	1,034.18	83.2536	1,034.18	81.9946	1,034.18	82.6148	1,034.18	81.5398	1,034.18	81.8008	1,034.18	80.7581	1,034.18	80.4433	1,034.18	78.7167	1,034.18	78.1386	1,034.18	73.9804	1,034.18	75.4766	1,034.18	64.684	1,034.18	75.6787	1,034.18	73.0748	1,034.18	77.2711	1,034.18	77.4816	1,034.18	76.7728	1,034.18	78.9617	1,034.18	71.8089	1,034.18	78.6653	1,034.18	66.7879	1,034.18	76.8769	1,034.18	76.8937	1,034.18	74.0816	1,034.18	79.9064	1,034.18	72.6764	1,034.18	79.7997	1,034.18	73.9068	1,034.18	77.9344	1,034.18	75.7185
1,072.27	83.617	1,072.27	83.7591	1,072.27	83.2393	1,072.27	83.6495	1,072.27	82.6376	1,072.27	83.2329	1,072.27	81.8776	1,072.27	82.456	1,072.27	81.057	1,072.27	81.2986	1,072.27	80.2418	1,072.27	79.7538	1,072.27	79.4138	1,072.27	77.8355	1,072.27	78.41	1,072.27	75.6748	1,072.27	77	1,072.27	73.6426	1,072.27	75.267	1,072.27	72.3122	1,072.27	74.0324	1,072.27	72.1461	1,072.27	73.6934	1,072.27	72.894	1,072.27	73.2659	1,072.27	73.5738	1,072.27	72.7958	1,072.27	73.4987	1,072.27	73.3217	1,072.27	73.1492	1,072.27	73.6608	1,072.27	73.9631	1,072.27	73.1354	1,072.27	75.2343	1,072.27	73.8251	1,072.27	75.2307
1,110.35	83.1386	1,110.35	83.2359	1,110.35	82.8274	1,110.35	83.1095	1,110.35	82.3075	1,110.35	82.7166	1,110.35	81.6317	1,110.35	82.02	1,110.35	80.8863	1,110.35	81.026	1,110.35	80.0992	1,110.35	79.7677	1,110.35	79.1828	1,110.35	78.2735	1,110.35	78.0326	1,110.35	76.5742	1,110.35	76.7186	1,110.35	74.8527	1,110.35	75.4426	1,110.35	73.692	1,110.35	74.0169	1,110.35	73.5483	1,110.35	72.1026	1,110.35	73.7566	1,110.35	71.5324	1,110.35	73.4362	1,110.35	73.6111	1,110.35	72.616	1,110.35	74.7935	1,110.35	72.6194	1,110.35	73.7684	1,110.35	74.0436	1,110.35	71.8712	1,110.35	75.2218	1,110.35	73.0251	1,110.35	74.9408
1,148.44	83.0795	1,148.44	83.1871	1,148.44	82.7269	1,148.44	83.0096	1,148.44	82.1314	1,148.44	82.4939	1,148.44	81.3317	1,148.44	81.6343	1,148.44	80.5101	1,148.44	80.5059	1,148.44	79.8814	1,148.44	79.2473	1,148.44	79.3767	1,148.44	78.0202	1,148.44	78.5885	1,148.44	76.9706	1,148.44	77.1101	1,148.44	76.0655	1,148.44	74.9494	1,148.44	74.9719	1,148.44	72.8894	1,148.44	73.403	1,148.44	72.0154	1,148.44	71.5799	1,148.44	72.6929	1,148.44	70.0852	1,148.44	74.2494	1,148.44	69.4541	1,148.44	74.8892	1,148.44	70.905	1,148.44	73.5703	1,148.44	73.7509	1,148.44	71.9865	1,148.44	75.6785	1,148.44	73.8959	1,148.44	75.7653
1,189.45	83.0617	1,189.45	82.982	1,189.45	82.8256	1,189.45	82.6704	1,189.45	82.24	1,189.45	82.162	1,189.45	81.3909	1,189.45	81.3775	1,189.45	80.4622	1,189.45	80.2316	1,189.45	79.5871	1,189.45	78.804	1,189.45	78.8041	1,189.45	77.4245	1,189.45	77.992	1,189.45	76.4126	1,189.45	76.858	1,189.45	75.6614	1,189.45	75.2802	1,189.45	75.0793	1,189.45	73.4303	1,189.45	74.6876	1,189.45	71.4687	1,189.45	73.8622	1,189.45	71.2629	1,189.45	71.5399	1,189.45	73.582	1,189.45	67.2357	1,189.45	73.9956	1,189.45	68.7003	1,189.45	70.0429	1,189.45	73.4106	1,189.45	66.7953	1,189.45	75.6298	1,189.45	73.2194	1,189.45	75.6855
1,230.47	82.3019	1,230.47	81.8766	1,230.47	82.2858	1,230.47	81.26	1,230.47	81.8114	1,230.47	80.7776	1,230.47	80.9726	1,230.47	80.3404	1,230.47	79.8741	1,230.47	79.4987	1,230.47	78.7254	1,230.47	77.9516	1,230.47	77.909	1,230.47	76.1157	1,230.47	77.4409	1,230.47	75.4058	1,230.47	76.744	1,230.47	75.6771	1,230.47	75.2256	1,230.47	75.4073	1,230.47	72.0577	1,230.47	74.236	1,230.47	65.0209	1,230.47	72.6922	1,230.47	70.3329	1,230.47	71.2264	1,230.47	75.9956	1,230.47	69.6442	1,230.47	76.8282	1,230.47	69.5854	1,230.47	72.387	1,230.47	72.8766	1,230.47	60.5236	1,230.47	75.7778	1,230.47	73.9138	1,230.47	76.5429
1,274.41	84.0591	1,274.41	83.8119	1,274.41	83.3561	1,274.41	82.2892	1,274.41	82.299	1,274.41	80.0019	1,274.41	81.4706	1,274.41	79.1261	1,274.41	81.002	1,274.41	79.7678	1,274.41	80.5488	1,274.41	79.4765	1,274.41	79.7051	1,274.41	76.9045	1,274.41	78.0829	1,274.41	71.1513	1,274.41	75.5917	1,274.41	69.5075	1,274.41	74.4809	1,274.41	73.3235	1,274.41	75.8143	1,274.41	74.4876	1,274.41	74.9191	1,274.41	73.7669	1,274.41	63.788	1,274.41	71.0331	1,274.41	73.9386	1,274.41	62.4179	1,274.41	80.229	1,274.41	66.1684	1,274.41	80.6072	1,274.41	74.3474	1,274.41	75.9967	1,274.41	76.8472	1,274.41	68.0249	1,274.41	75.3045
1,318.36	84.4499	1,318.36	84.7271	1,318.36	83.2998	1,318.36	83.7004	1,318.36	81.8596	1,318.36	80.9709	1,318.36	80.5447	1,318.36	76.1566	1,318.36	79.1865	1,318.36	73.173	1,318.36	77.818	1,318.36	76.5918	1,318.36	77.5199	1,318.36	78.1599	1,318.36	78.2887	1,318.36	76.9084	1,318.36	78.0342	1,318.36	72.6316	1,318.36	75.2088	1,318.36	68.2448	1,318.36	70.2397	1,318.36	72.8503	1,318.36	72.3046	1,318.36	76.3529	1,318.36	71.6994	1,318.36	77.6728	1,318.36	62.288	1,318.36	76.5613	1,318.36	76.7837	1,318.36	71.3775	1,318.36	80.0114	1,318.36	60.9145	1,318.36	78.1108	1,318.36	70.9176	1,318.36	72.4133	1,318.36	71.7595
1,365.23	83.2971	1,365.23	84.445	1,365.23	82.7871	1,365.23	85.1214	1,365.23	83.3822	1,365.23	84.867	1,365.23	84.0951	1,365.23	83.621	1,365.23	84.0315	1,365.23	81.1054	1,365.23	82.8289	1,365.23	76.7364	1,365.23	80.4939	1,365.23	71.2709	1,365.23	78.7829	1,365.23	71.8195	1,365.23	79.5744	1,365.23	73.9241	1,365.23	79.9699	1,365.23	73.6857	1,365.23	78.0325	1,365.23	70.2506	1,365.23	72.7459	1,365.23	69.3848	1,365.23	66.2867	1,365.23	74.7135	1,365.23	67.8996	1,365.23	75.876	1,365.23	73.4103	1,365.23	72.3464	1,365.23	77.0235	1,365.23	67.0416	1,365.23	75.4237	1,365.23	73.9766	1,365.23	69.7724	1,365.23	74.1987
1,415.04	83.7395	1,415.04	84.1748	1,415.04	83.291	1,415.04	84.3444	1,415.04	82.968	1,415.04	83.9874	1,415.04	83.0053	1,415.04	83.0859	1,415.04	83.2147	1,415.04	81.5656	1,415.04	82.9329	1,415.04	79.2969	1,415.04	81.6031	1,415.04	76.3491	1,415.04	79.0563	1,415.04	72.7118	1,415.04	76.454	1,415.04	68.1654	1,415.04	76.651	1,415.04	65.7378	1,415.04	77.6096	1,415.04	66.294	1,415.04	76.6312	1,415.04	65.8291	1,415.04	73.2001	1,415.04	68.6291	1,415.04	69.122	1,415.04	71.945	1,415.04	68.7694	1,415.04	72.0421	1,415.04	72.4822	1,415.04	68.384	1,415.04	72.1386	1,415.04	66.4659	1,415.04	67.0798	1,415.04	67.3705
1,464.84	84.2016	1,464.84	84.2227	1,464.84	83.7279	1,464.84	83.861	1,464.84	82.9256	1,464.84	83.2408	1,464.84	82.3006	1,464.84	82.4051	1,464.84	82.1772	1,464.84	81.2058	1,464.84	82.064	1,464.84	79.5767	1,464.84	81.2522	1,464.84	77.4414	1,464.84	79.431	1,464.84	74.7777	1,464.84	76.8795	1,464.84	71.4655	1,464.84	75.5022	1,464.84	69.6707	1,464.84	76.6785	1,464.84	70.3064	1,464.84	76.9969	1,464.84	68.8092	1,464.84	74.1003	1,464.84	67.7968	1,464.84	70.3282	1,464.84	71.7932	1,464.84	72.666	1,464.84	73.2509	1,464.84	72.7936	1,464.84	71.8449	1,464.84	70.7084	1,464.84	70.7976	1,464.84	69.8479	1,464.84	71.1235
1,514.65	84.3009	1,514.65	83.8845	1,514.65	84.0966	1,514.65	83.3957	1,514.65	83.3913	1,514.65	83.2145	1,514.65	82.6211	1,514.65	82.5726	1,514.65	82.1085	1,514.65	80.7787	1,514.65	81.7442	1,514.65	78.842	1,514.65	81.0773	1,514.65	77.8664	1,514.65	79.9839	1,514.65	76.5428	1,514.65	78.3894	1,514.65	73.9735	1,514.65	76.1764	1,514.65	73.7585	1,514.65	76.1346	1,514.65	74.5966	1,514.65	77.2315	1,514.65	72.3313	1,514.65	74.6192	1,514.65	64.9407	1,514.65	69.2774	1,514.65	66.5634	1,514.65	75.9959	1,514.65	70.522	1,514.65	76.4455	1,514.65	71.6614	1,514.65	71.0157	1,514.65	71.9459	1,514.65	64.8179	1,514.65	70.615
1,570.31	84.2397	1,570.31	83.6433	1,570.31	84.4534	1,570.31	83.076	1,570.31	84.3646	1,570.31	82.8162	1,570.31	84.0601	1,570.31	82.1596	1,570.31	83.3775	1,570.31	80.2509	1,570.31	82.3402	1,570.31	77.6892	1,570.31	81.2621	1,570.31	76.4621	1,570.31	80.275	1,570.31	75.4592	1,570.31	78.7747	1,570.31	71.9902	1,570.31	75.6644	1,570.31	72.6146	1,570.31	73.9696	1,570.31	75.813	1,570.31	75.9315	1,570.31	74.9959	1,570.31	74.0504	1,570.31	69.3616	1,570.31	69.3959	1,570.31	61.5551	1,570.31	75.9175	1,570.31	69.2663	1,570.31	77.8586	1,570.31	71.8421	1,570.31	74.7483	1,570.31	72.694	1,570.31	67.0033	1,570.31	71.0259
1,623.05	83.471	1,623.05	83.1751	1,623.05	83.7136	1,623.05	82.9109	1,623.05	83.7126	1,623.05	82.4459	1,623.05	83.1295	1,623.05	81.3435	1,623.05	82.1151	1,623.05	79.5664	1,623.05	81.1714	1,623.05	77.9395	1,623.05	80.5329	1,623.05	76.9494	1,623.05	80.1742	1,623.05	75.9499	1,623.05	79.1765	1,623.05	72.5222	1,623.05	75.8972	1,623.05	64.6199	1,623.05	72.746	1,623.05	70.4673	1,623.05	74.2019	1,623.05	72.9696	1,623.05	72.445	1,623.05	70.0699	1,623.05	66.1513	1,623.05	63.5431	1,623.05	72.106	1,623.05	68.5818	1,623.05	74.6344	1,623.05	71.8635	1,623.05	72.5921	1,623.05	73.3961	1,623.05	68.7773	1,623.05	72.4994
1,681.64	83.4549	1,681.64	83.3345	1,681.64	83.4348	1,681.64	83.1785	1,681.64	82.9213	1,681.64	82.4082	1,681.64	82.2548	1,681.64	80.77	1,681.64	81.8751	1,681.64	78.5914	1,681.64	81.5676	1,681.64	76.0014	1,681.64	80.5817	1,681.64	74.856	1,681.64	79.0421	1,681.64	76.1117	1,681.64	78.7202	1,681.64	73.4264	1,681.64	78.2381	1,681.64	63.2995	1,681.64	73.4342	1,681.64	72.1819	1,681.64	73.0601	1,681.64	74.9983	1,681.64	79.1988	1,681.64	74.3816	1,681.64	76.1969	1,681.64	71.8818	1,681.64	73.9557	1,681.64	68.4871	1,681.64	79.3044	1,681.64	71.361	1,681.64	77.9265	1,681.64	74.5561	1,681.64	68.2739	1,681.64	71.5939
1,740.23	83.1975	1,740.23	83.5795	1,740.23	82.7345	1,740.23	83.6353	1,740.23	82.3741	1,740.23	82.8157	1,740.23	82.0955	1,740.23	81.4004	1,740.23	81.3032	1,740.23	80.7755	1,740.23	80.1303	1,740.23	80.1492	1,740.23	79.5565	1,740.23	77.0269	1,740.23	79.0733	1,740.23	72.6833	1,740.23	77.7626	1,740.23	71.4771	1,740.23	76.4776	1,740.23	66.249	1,740.23	75.1241	1,740.23	58.9111	1,740.23	69.4072	1,740.23	71.8275	1,740.23	74.0203	1,740.23	75.4118	1,740.23	76.9879	1,740.23	75.5211	1,740.23	71.0309	1,740.23	73.2285	1,740.23	69.5051	1,740.23	68.6663	1,740.23	76.5072	1,740.23	61.9908	1,740.23	74.3865	1,740.23	66.5469
1,801.76	84.1454	1,801.76	84.1287	1,801.76	83.9527	1,801.76	83.5867	1,801.76	83.7738	1,801.76	82.5612	1,801.76	83.4225	1,801.76	81.1475	1,801.76	82.5809	1,801.76	79.3544	1,801.76	81.1575	1,801.76	77.6481	1,801.76	79.3847	1,801.76	76.3479	1,801.76	78.0029	1,801.76	74.1121	1,801.76	77.5184	1,801.76	73.0464	1,801.76	76.9228	1,801.76	72.9835	1,801.76	75.4871	1,801.76	69.9238	1,801.76	73.6929	1,801.76	44.7927	1,801.76	70.3453	1,801.76	70.1999	1,801.76	70.7491	1,801.76	74.1878	1,801.76	70.6236	1,801.76	74.2605	1,801.76	70.9655	1,801.76	71.6372	1,801.76	74.5377	1,801.76	67.3144	1,801.76	71.9488	1,801.76	69.904
1,866.21	83.5469	1,866.21	83.8832	1,866.21	83.5612	1,866.21	83.3731	1,866.21	83.9842	1,866.21	81.9441	1,866.21	83.7552	1,866.21	81.0942	1,866.21	82.2771	1,866.21	80.4731	1,866.21	80.3139	1,866.21	78.0878	1,866.21	79.0138	1,866.21	74.66	1,866.21	78.049	1,866.21	72.9834	1,866.21	77.6144	1,866.21	73.0295	1,866.21	77.7181	1,866.21	74.36	1,866.21	75.4935	1,866.21	74.3969	1,866.21	70.7599	1,866.21	70.6927	1,866.21	72.0392	1,866.21	66.8494	1,866.21	72.747	1,866.21	72.3948	1,866.21	70.7042	1,866.21	73.7594	1,866.21	68.942	1,866.21	71.9227	1,866.21	74.3318	1,866.21	68.1322	1,866.21	71.0912	1,866.21	66.5507
1,930.66	83.3168	1,930.66	83.3255	1,930.66	83.5119	1,930.66	82.5209	1,930.66	83.9172	1,930.66	81.345	1,930.66	83.5688	1,930.66	81.2496	1,930.66	82.1387	1,930.66	80.8665	1,930.66	80.2089	1,930.66	78.5659	1,930.66	78.6716	1,930.66	75.9815	1,930.66	77.5179	1,930.66	75.4549	1,930.66	76.0501	1,930.66	74.1314	1,930.66	75.6427	1,930.66	71.4779	1,930.66	75.0117	1,930.66	72.8766	1,930.66	69.9305	1,930.66	73.4474	1,930.66	69.1528	1,930.66	70.8443	1,930.66	72.4346	1,930.66	70.2441	1,930.66	71.6496	1,930.66	72.0667	1,930.66	70.1126	1,930.66	70.2186	1,930.66	72.3776	1,930.66	67.7952	1,930.66	71.6719	1,930.66	67.6579
2,000.98	83.0664	2,000.98	82.318	2,000.98	83.4328	2,000.98	82.018	2,000.98	83.195	2,000.98	82.0809	2,000.98	82.7402	2,000.98	81.8496	2,000.98	81.533	2,000.98	80.9233	2,000.98	79.4352	2,000.98	79.0192	2,000.98	77.5334	2,000.98	76.7251	2,000.98	76.6847	2,000.98	75.6265	2,000.98	74.9067	2,000.98	75.1902	2,000.98	71.2913	2,000.98	72.0784	2,000.98	71.573	2,000.98	70.4737	2,000.98	69.663	2,000.98	72.7624	2,000.98	65.5853	2,000.98	71.7761	2,000.98	71.301	2,000.98	69.7932	2,000.98	68.6187	2,000.98	70.6621	2,000.98	70.003	2,000.98	69.5379	2,000.98	70.661	2,000.98	66.8359	2,000.98	66.7922	2,000.98	65.2326
2,071.29	84.3658	2,071.29	82.7669	2,071.29	84.4282	2,071.29	81.6301	2,071.29	83.3427	2,071.29	82.3788	2,071.29	82.1996	2,071.29	82.1687	2,071.29	80.8224	2,071.29	80.2982	2,071.29	78.5776	2,071.29	79.1702	2,071.29	76.8215	2,071.29	77.9408	2,071.29	77.14	2,071.29	75.017	2,071.29	76.6116	2,071.29	73.2211	2,071.29	73.6256	2,071.29	68.9165	2,071.29	72.6454	2,071.29	64.8387	2,071.29	70.9128	2,071.29	69.8343	2,071.29	63.6948	2,071.29	69.0827	2,071.29	68.1429	2,071.29	68.0307	2,071.29	70.8971	2,071.29	70.4098	2,071.29	69.0833	2,071.29	68.644	2,071.29	72.8254	2,071.29	66.8036	2,071.29	70.8659	2,071.29	66.2011
2,144.53	83.8125	2,144.53	82.2143	2,144.53	84.9905	2,144.53	81.8571	2,144.53	84.2163	2,144.53	81.9912	2,144.53	81.6501	2,144.53	81.0378	2,144.53	79.3717	2,144.53	78.5493	2,144.53	78.1584	2,144.53	77.4568	2,144.53	76.5532	2,144.53	76.7256	2,144.53	74.6416	2,144.53	73.489	2,144.53	75.151	2,144.53	72.7069	2,144.53	74.566	2,144.53	71.3813	2,144.53	73.4408	2,144.53	63.2703	2,144.53	73.3569	2,144.53	66.9199	2,144.53	67.9474	2,144.53	70.3791	2,144.53	59.316	2,144.53	68.4396	2,144.53	68.0511	2,144.53	70.5657	2,144.53	69.5994	2,144.53	69.1853	2,144.53	72.6805	2,144.53	63.9685	2,144.53	70.3493	2,144.53	62.6833
2,217.77	82.9529	2,217.77	82.3142	2,217.77	83.8198	2,217.77	81.9687	2,217.77	83.3151	2,217.77	80.9266	2,217.77	81.2894	2,217.77	79.6283	2,217.77	79.077	2,217.77	78.8131	2,217.77	77.8448	2,217.77	78.0888	2,217.77	76.5684	2,217.77	76.359	2,217.77	75.232	2,217.77	71.3777	2,217.77	74.6934	2,217.77	70.7193	2,217.77	73.7889	2,217.77	73.6849	2,217.77	70.3497	2,217.77	71.1534	2,217.77	73.1116	2,217.77	68.6262	2,217.77	71.2423	2,217.77	71.7198	2,217.77	60.4054	2,217.77	69.3182	2,217.77	66.553	2,217.77	68.9105	2,217.77	68.0889	2,217.77	67.9169	2,217.77	71.5989	2,217.77	59.3429	2,217.77	67.9908	2,217.77	58.3973
2,296.88	83.4116	2,296.88	81.2349	2,296.88	84.1977	2,296.88	79.6071	2,296.88	83.1417	2,296.88	79.6722	2,296.88	80.7224	2,296.88	80.248	2,296.88	78.2717	2,296.88	80.3627	2,296.88	77.3243	2,296.88	78.5688	2,296.88	77.0797	2,296.88	75.6756	2,296.88	76.2879	2,296.88	72.2643	2,296.88	73.7178	2,296.88	68.5501	2,296.88	72.6377	2,296.88	70.8526	2,296.88	69.345	2,296.88	70.1681	2,296.88	67.5499	2,296.88	68.3729	2,296.88	70.3193	2,296.88	71.7613	2,296.88	50.8358	2,296.88	70.7635	2,296.88	68.5045	2,296.88	68.5279	2,296.88	62.7376	2,296.88	67.2795	2,296.88	72.1945	2,296.88	53.0789	2,296.88	69.221	2,296.88	59.1482
2,378.91	84.1289	2,378.91	82.3857	2,378.91	84.4862	2,378.91	79.7976	2,378.91	83.071	2,378.91	77.4056	2,378.91	79.9569	2,378.91	77.9285	2,378.91	76.6944	2,378.91	79.5562	2,378.91	75.7909	2,378.91	78.191	2,378.91	75.2142	2,378.91	75.0494	2,378.91	74.7829	2,378.91	72.7261	2,378.91	75.4072	2,378.91	71.2601	2,378.91	73.3769	2,378.91	73.0474	2,378.91	67.1364	2,378.91	71.2328	2,378.91	63.3216	2,378.91	65.2097	2,378.91	69.5881	2,378.91	71.1265	2,378.91	65.6357	2,378.91	72.3851	2,378.91	67.9067	2,378.91	69.9579	2,378.91	67.8738	2,378.91	64.4064	2,378.91	69.8261	2,378.91	58.3833	2,378.91	72.5602	2,378.91	66.1659
2,460.94	83.4762	2,460.94	82.3276	2,460.94	83.7745	2,460.94	80.0289	2,460.94	82.4397	2,460.94	77.716	2,460.94	78.995	2,460.94	78.3551	2,460.94	75.385	2,460.94	78.1203	2,460.94	74.48	2,460.94	76.5603	2,460.94	75.0842	2,460.94	75.1124	2,460.94	74.2457	2,460.94	74.083	2,460.94	72.3461	2,460.94	71.7286	2,460.94	72.4606	2,460.94	69.3479	2,460.94	66.6896	2,460.94	68.7501	2,460.94	60.1785	2,460.94	66.2643	2,460.94	68.1709	2,460.94	68.0872	2,460.94	65.027	2,460.94	70.3768	2,460.94	57.9838	2,460.94	70.4774	2,460.94	61.7682	2,460.94	68.0007	2,460.94	68.294	2,460.94	60.598	2,460.94	69.5631	2,460.94	57.6396
2,548.83	83.0363	2,548.83	81.7577	2,548.83	83.1147	2,548.83	79.4891	2,548.83	81.5666	2,548.83	76.7157	2,548.83	78.3424	2,548.83	76.3781	2,548.83	75.6487	2,548.83	76.9231	2,548.83	74.7521	2,548.83	76.5523	2,548.83	73.5501	2,548.83	74.3513	2,548.83	73.7986	2,548.83	72.0983	2,548.83	73.4647	2,548.83	70.575	2,548.83	71.9813	2,548.83	69.3797	2,548.83	70.7635	2,548.83	68.7367	2,548.83	67.1109	2,548.83	65.4058	2,548.83	66.5234	2,548.83	67.6172	2,548.83	69.9729	2,548.83	69.5802	2,548.83	56.8776	2,548.83	68.7313	2,548.83	61.5822	2,548.83	63.6952	2,548.83	65.5704	2,548.83	54.5088	2,548.83	69.9915	2,548.83	65.1536
2,639.65	83.4448	2,639.65	82.081	2,639.65	82.6056	2,639.65	77.8069	2,639.65	79.973	2,639.65	73.48	2,639.65	75.8299	2,639.65	74.9551	2,639.65	73.853	2,639.65	76.5397	2,639.65	74.5534	2,639.65	76.3379	2,639.65	73.9622	2,639.65	75.2757	2,639.65	72.2017	2,639.65	73.9444	2,639.65	70.9655	2,639.65	71.5208	2,639.65	69.5694	2,639.65	68.5971	2,639.65	70.9431	2,639.65	66.1988	2,639.65	71.3556	2,639.65	66.1232	2,639.65	64.9949	2,639.65	66.8611	2,639.65	67.9547	2,639.65	67.1538	2,639.65	61.4082	2,639.65	68.7144	2,639.65	59.9057	2,639.65	66.0309	2,639.65	63.3388	2,639.65	58.14	2,639.65	68.5274	2,639.65	61.2659
2,733.4	83.2122	2,733.4	81.8177	2,733.4	82.4681	2,733.4	76.9771	2,733.4	79.4131	2,733.4	69.5538	2,733.4	73.9448	2,733.4	73.6364	2,733.4	72.2074	2,733.4	76.1737	2,733.4	73.5925	2,733.4	76.2691	2,733.4	73.425	2,733.4	73.4054	2,733.4	71.1857	2,733.4	71.2589	2,733.4	66.6027	2,733.4	68.1054	2,733.4	67.6764	2,733.4	66.2817	2,733.4	71.1702	2,733.4	67.4001	2,733.4	70.0266	2,733.4	63.7297	2,733.4	65.0249	2,733.4	66.7745	2,733.4	67.8375	2,733.4	67.6908	2,733.4	57.9295	2,733.4	66.7499	2,733.4	62.781	2,733.4	62.1469	2,733.4	63.3768	2,733.4	49.0346	2,733.4	69.7439	2,733.4	62.3579
2,827.15	82.8285	2,827.15	81.6028	2,827.15	81.7135	2,827.15	76.6146	2,827.15	78.3237	2,827.15	64.7895	2,827.15	72.155	2,827.15	74.1411	2,827.15	72.0882	2,827.15	76.5044	2,827.15	74.117	2,827.15	76.2369	2,827.15	74.4898	2,827.15	73.6732	2,827.15	72.6681	2,827.15	70.232	2,827.15	66.2557	2,827.15	68.3799	2,827.15	66.234	2,827.15	67.1537	2,827.15	71.3461	2,827.15	67.2095	2,827.15	69.3914	2,827.15	64.1421	2,827.15	65.7373	2,827.15	65.6048	2,827.15	67.5956	2,827.15	67.4475	2,827.15	62.076	2,827.15	66.5931	2,827.15	61.3141	2,827.15	64.0974	2,827.15	61.0896	2,827.15	44.2244	2,827.15	68.223	2,827.15	61.5226
2,926.76	82.3985	2,926.76	81.188	2,926.76	81.2097	2,926.76	76.0709	2,926.76	77.2318	2,926.76	57.1703	2,926.76	69.5652	2,926.76	73.8283	2,926.76	71.3907	2,926.76	76.3882	2,926.76	74.9338	2,926.76	75.6544	2,926.76	75.2212	2,926.76	72.575	2,926.76	72.4723	2,926.76	70.5836	2,926.76	67.4945	2,926.76	70.1269	2,926.76	67.664	2,926.76	66.9175	2,926.76	70.2713	2,926.76	65.0953	2,926.76	69.8802	2,926.76	63.6284	2,926.76	65.833	2,926.76	62.2099	2,926.76	67.4581	2,926.76	64.6991	2,926.76	63.2407	2,926.76	64.4033	2,926.76	58.1227	2,926.76	61.4196	2,926.76	60.294	2,926.76	46.2554	2,926.76	67.4825	2,926.76	61.7169
3,032.23	82.0262	3,032.23	80.8771	3,032.23	80.7457	3,032.23	74.9838	3,032.23	76.7684	3,032.23	57.0368	3,032.23	65.9374	3,032.23	73.7812	3,032.23	72.9207	3,032.23	75.9832	3,032.23	76.3217	3,032.23	74.2515	3,032.23	76.0014	3,032.23	72.2771	3,032.23	73.3771	3,032.23	70.6731	3,032.23	68.6036	3,032.23	67.0612	3,032.23	67.9998	3,032.23	62.9024	3,032.23	69.8197	3,032.23	63.1797	3,032.23	67.0558	3,032.23	61.5653	3,032.23	67.2693	3,032.23	60.1163	3,032.23	67.8105	3,032.23	63.9213	3,032.23	66.1482	3,032.23	62.8493	3,032.23	59.3657	3,032.23	59.3742	3,032.23	60.8958	3,032.23	47.8679	3,032.23	65.9894	3,032.23	59.3127
3,137.7	82.2205	3,137.7	80.8964	3,137.7	80.556	3,137.7	74.7491	3,137.7	76.0643	3,137.7	64.1447	3,137.7	60.1474	3,137.7	75.0729	3,137.7	74.2245	3,137.7	75.6013	3,137.7	77.9463	3,137.7	74.1499	3,137.7	77.1329	3,137.7	72.9283	3,137.7	73.8384	3,137.7	65.8109	3,137.7	70.4846	3,137.7	62.3376	3,137.7	69.3024	3,137.7	64.4106	3,137.7	71.6119	3,137.7	62.5753	3,137.7	68.5836	3,137.7	62.0308	3,137.7	66.1008	3,137.7	61.7666	3,137.7	68.4263	3,137.7	61.1439	3,137.7	66.9953	3,137.7	59.5036	3,137.7	62.1361	3,137.7	54.9983	3,137.7	60.2286	3,137.7	56.232	3,137.7	65.97	3,137.7	60.0361
3,249.02	82.1871	3,249.02	80.7694	3,249.02	80.3842	3,249.02	74.6076	3,249.02	74.8424	3,249.02	68.3764	3,249.02	56.1262	3,249.02	75.5703	3,249.02	74.6322	3,249.02	75.263	3,249.02	78.6568	3,249.02	73.3443	3,249.02	78.629	3,249.02	68.4725	3,249.02	75.6069	3,249.02	67.1165	3,249.02	72.456	3,249.02	68.9818	3,249.02	71.3493	3,249.02	65.2221	3,249.02	72.8419	3,249.02	63.9344	3,249.02	69.8006	3,249.02	62.1313	3,249.02	67.3739	3,249.02	60.9349	3,249.02	66.9029	3,249.02	64.5808	3,249.02	68.8346	3,249.02	62.2587	3,249.02	63.4795	3,249.02	55.4638	3,249.02	60.8406	3,249.02	51.2938	3,249.02	65.2877	3,249.02	60.8744
3,363.28	82.0477	3,363.28	81.1737	3,363.28	80.0397	3,363.28	74.472	3,363.28	74.265	3,363.28	72.3653	3,363.28	65.1424	3,363.28	76.1258	3,363.28	76.2478	3,363.28	75.1942	3,363.28	79.3928	3,363.28	72.7077	3,363.28	79.061	3,363.28	71.091	3,363.28	76.6365	3,363.28	71.4976	3,363.28	74.2437	3,363.28	67.8949	3,363.28	72.6708	3,363.28	64.4472	3,363.28	73.997	3,363.28	66.0758	3,363.28	69.8769	3,363.28	64.4157	3,363.28	67.8184	3,363.28	59.4967	3,363.28	67.005	3,363.28	65.7338	3,363.28	67.3521	3,363.28	65.2418	3,363.28	64.4896	3,363.28	56.5735	3,363.28	61.2441	3,363.28	49.8188	3,363.28	65.2651	3,363.28	61.1087
3,483.4	82.7254	3,483.4	81.3575	3,483.4	80.2757	3,483.4	75.1224	3,483.4	75.0353	3,483.4	75.5206	3,483.4	67.3178	3,483.4	76.6842	3,483.4	77.1114	3,483.4	76.2212	3,483.4	80.1962	3,483.4	74.2558	3,483.4	79.302	3,483.4	74.9938	3,483.4	76.9908	3,483.4	70.7224	3,483.4	74.3598	3,483.4	67.7344	3,483.4	70.9	3,483.4	69.1839	3,483.4	71.6294	3,483.4	66.8159	3,483.4	67.9403	3,483.4	66.2078	3,483.4	66.3249	3,483.4	64.3492	3,483.4	65.9865	3,483.4	66.5047	3,483.4	66.8592	3,483.4	67.6935	3,483.4	62.3675	3,483.4	63.0706	3,483.4	58.8921	3,483.4	50.7307	3,483.4	66.2927	3,483.4	60.0427
3,606.45	83.0404	3,606.45	81.5431	3,606.45	80.2737	3,606.45	77.0033	3,606.45	75.0171	3,606.45	76.4234	3,606.45	72.005	3,606.45	77.1546	3,606.45	76.6476	3,606.45	76.2412	3,606.45	80.1621	3,606.45	76.8953	3,606.45	79.6167	3,606.45	73.9759	3,606.45	77.1759	3,606.45	72.0245	3,606.45	74.1365	3,606.45	72.0716	3,606.45	67.2333	3,606.45	68.2717	3,606.45	67.5403	3,606.45	67.1202	3,606.45	61.3183	3,606.45	66.7383	3,606.45	66.2218	3,606.45	62.5204	3,606.45	65.2274	3,606.45	66.2365	3,606.45	67.0699	3,606.45	68.1088	3,606.45	57.0697	3,606.45	64.2685	3,606.45	54.9138	3,606.45	56.654	3,606.45	67.1163	3,606.45	61.9115
3,732.42	82.4683	3,732.42	81.2456	3,732.42	79.9244	3,732.42	78.2474	3,732.42	75.5496	3,732.42	77.7513	3,732.42	74.3877	3,732.42	76.6512	3,732.42	76.4835	3,732.42	78.4147	3,732.42	79.4308	3,732.42	77.3013	3,732.42	79.4044	3,732.42	75.0901	3,732.42	76.4233	3,732.42	74.5561	3,732.42	71.1299	3,732.42	69.671	3,732.42	59.7976	3,732.42	66.9408	3,732.42	55.1032	3,732.42	66.7988	3,732.42	60.3248	3,732.42	65.8816	3,732.42	62.4192	3,732.42	64.0568	3,732.42	67.2158	3,732.42	64.3804	3,732.42	65.5649	3,732.42	67.4052	3,732.42	51.7506	3,732.42	64.1883	3,732.42	56.1823	3,732.42	52.8669	3,732.42	65.7579	3,732.42	60.0439
3,864.26	83.122	3,864.26	81.5625	3,864.26	80.3648	3,864.26	79.5762	3,864.26	76.3592	3,864.26	77.6187	3,864.26	76.3785	3,864.26	77.6186	3,864.26	76.7005	3,864.26	78.2339	3,864.26	78.6128	3,864.26	77.0123	3,864.26	78.5075	3,864.26	76.3225	3,864.26	75.8175	3,864.26	71.0856	3,864.26	71.5843	3,864.26	68.6597	3,864.26	65.4444	3,864.26	67.1774	3,864.26	62.6891	3,864.26	65.8292	3,864.26	60.7332	3,864.26	64.9935	3,864.26	64.1042	3,864.26	62.4167	3,864.26	66.6061	3,864.26	64.1957	3,864.26	64.8171	3,864.26	64.2123	3,864.26	56.9013	3,864.26	63.3903	3,864.26	57.168	3,864.26	53.8872	3,864.26	62.4316	3,864.26	55.8158
3,999.02	82.9752	3,999.02	82.2727	3,999.02	80.969	3,999.02	80.7152	3,999.02	77.2797	3,999.02	77.291	3,999.02	78.0109	3,999.02	78.7588	3,999.02	77.1853	3,999.02	78.7165	3,999.02	77.8655	3,999.02	78.0342	3,999.02	78.2019	3,999.02	74.5926	3,999.02	75.6553	3,999.02	73.2022	3,999.02	70.0096	3,999.02	72.5711	3,999.02	61.5725	3,999.02	68.8408	3,999.02	65.9596	3,999.02	65.5551	3,999.02	66.6893	3,999.02	65.8132	3,999.02	64.9768	3,999.02	63.7932	3,999.02	65.2681	3,999.02	65.2487	3,999.02	63.9789	3,999.02	66.2992	3,999.02	56.6716	3,999.02	61.9756	3,999.02	59.9779	3,999.02	48.2627	3,999.02	64.0646	3,999.02	59.2369
4,139.65	82.4941	4,139.65	82.6891	4,139.65	80.5349	4,139.65	80.594	4,139.65	78.5122	4,139.65	78.1295	4,139.65	79.0138	4,139.65	79.5631	4,139.65	77.318	4,139.65	78.9928	4,139.65	77.4181	4,139.65	77.2488	4,139.65	79.1311	4,139.65	75.6939	4,139.65	76.7227	4,139.65	73.9046	4,139.65	70.4869	4,139.65	66.2026	4,139.65	67.9123	4,139.65	66.8822	4,139.65	60.706	4,139.65	65.2904	4,139.65	69.8176	4,139.65	62.9767	4,139.65	66.0482	4,139.65	63.9728	4,139.65	60.4325	4,139.65	63.1697	4,139.65	62.7469	4,139.65	63.7465	4,139.65	58.1407	4,139.65	62.7739	4,139.65	60.536	4,139.65	47.497	4,139.65	63.4636	4,139.65	58.8433
4,286.13	82.8036	4,286.13	82.8321	4,286.13	81.0095	4,286.13	80.1899	4,286.13	79.4565	4,286.13	78.7865	4,286.13	80.4256	4,286.13	80.2096	4,286.13	78.5179	4,286.13	78.1617	4,286.13	76.2051	4,286.13	77.321	4,286.13	78.4282	4,286.13	74.8687	4,286.13	75.5275	4,286.13	69.7971	4,286.13	71.2215	4,286.13	70.2905	4,286.13	70.537	4,286.13	68.4965	4,286.13	49.719	4,286.13	63.4212	4,286.13	67.8191	4,286.13	64.2388	4,286.13	64.4219	4,286.13	58.9833	4,286.13	62.6635	4,286.13	64.2732	4,286.13	61.5008	4,286.13	67.0011	4,286.13	54.8812	4,286.13	61.2621	4,286.13	58.2177	4,286.13	54.3817	4,286.13	63.2532	4,286.13	48.9998
4,438.48	82.8271	4,438.48	83.3692	4,438.48	81.9572	4,438.48	80.6196	4,438.48	80.4839	4,438.48	79.9343	4,438.48	80.5858	4,438.48	79.8278	4,438.48	79.7978	4,438.48	78.9894	4,438.48	76.3378	4,438.48	76.304	4,438.48	76.0832	4,438.48	72.6387	4,438.48	73.9451	4,438.48	72.6416	4,438.48	72.0328	4,438.48	64.6698	4,438.48	70.3079	4,438.48	65.4389	4,438.48	37.0426	4,438.48	63.7824	4,438.48	66.7549	4,438.48	64.6624	4,438.48	65.8839	4,438.48	62.0521	4,438.48	65.7219	4,438.48	61.7	4,438.48	60.1792	4,438.48	65.812	4,438.48	52.5412	4,438.48	62.6338	4,438.48	58.5419	4,438.48	55.2604	4,438.48	62.6866	4,438.48	52.8569
4,593.75	82.7737	4,593.75	83.0666	4,593.75	80.7275	4,593.75	79.869	4,593.75	81.6015	4,593.75	80.8327	4,593.75	80.5714	4,593.75	80.4781	4,593.75	78.1028	4,593.75	78.5334	4,593.75	73.7314	4,593.75	74.8057	4,593.75	71.7814	4,593.75	73.5337	4,593.75	74.7559	4,593.75	67.1049	4,593.75	75.22	4,593.75	68.9336	4,593.75	72.3173	4,593.75	67.1623	4,593.75	60.6613	4,593.75	64.5555	4,593.75	65.6529	4,593.75	63.8502	4,593.75	61.4037	4,593.75	61.4389	4,593.75	65.9639	4,593.75	63.1978	4,593.75	58.8106	4,593.75	66.3902	4,593.75	57.2129	4,593.75	61.8111	4,593.75	57.8154	4,593.75	58.4649	4,593.75	60.9922	4,593.75	53.8394
4,757.81	82.5804	4,757.81	82.8804	4,757.81	81.1553	4,757.81	81.043	4,757.81	82.2821	4,757.81	81.0077	4,757.81	81.7002	4,757.81	80.4528	4,757.81	77.4036	4,757.81	78.2395	4,757.81	72.7978	4,757.81	74.1375	4,757.81	74.3998	4,757.81	72.0895	4,757.81	75.8825	4,757.81	72.2486	4,757.81	76.4488	4,757.81	68.8298	4,757.81	72.5614	4,757.81	66.3211	4,757.81	54.4934	4,757.81	64.7985	4,757.81	55.3857	4,757.81	64.1179	4,757.81	56.2379	4,757.81	62.6808	4,757.81	61.968	4,757.81	64.736	4,757.81	57.5373	4,757.81	67.8228	4,757.81	47.9039	4,757.81	64.8514	4,757.81	50.832	4,757.81	59.2267	4,757.81	58.2467	4,757.81	46.8915
4,924.8	82.5811	4,924.8	82.6658	4,924.8	81.1143	4,924.8	81.1507	4,924.8	82.5165	4,924.8	81.3575	4,924.8	82.536	4,924.8	80.476	4,924.8	78.3413	4,924.8	77.6749	4,924.8	74.1512	4,924.8	74.9702	4,924.8	76.161	4,924.8	74.4515	4,924.8	76.8066	4,924.8	70.679	4,924.8	75.346	4,924.8	68.5885	4,924.8	70.1055	4,924.8	66.4796	4,924.8	54.5445	4,924.8	65.2296	4,924.8	63.5127	4,924.8	64.2952	4,924.8	40.9959	4,924.8	62.2677	4,924.8	60.8471	4,924.8	62.7282	4,924.8	55.373	4,924.8	66.2031	4,924.8	52.1105	4,924.8	64.8322	4,924.8	51.7848	4,924.8	59.2976	4,924.8	58.644	4,924.8	46.3828
5,097.66	81.8792	5,097.66	82.2106	5,097.66	80.0068	5,097.66	81.0268	5,097.66	82.3992	5,097.66	81.2085	5,097.66	82.5403	5,097.66	79.9877	5,097.66	79.0368	5,097.66	77.2594	5,097.66	75.2137	5,097.66	75.4405	5,097.66	74.9538	5,097.66	73.3669	5,097.66	76.4884	5,097.66	71.1851	5,097.66	73.5522	5,097.66	68.6219	5,097.66	67.2438	5,097.66	65.6032	5,097.66	60.5162	5,097.66	62.8062	5,097.66	62.8744	5,097.66	63.3818	5,097.66	49.4627	5,097.66	60.0959	5,097.66	56.7337	5,097.66	64.0676	5,097.66	56.4017	5,097.66	66.9108	5,097.66	51.2877	5,097.66	63.095	5,097.66	49.4558	5,097.66	57.2404	5,097.66	57.0024	5,097.66	40.3354
5,279.3	82.1734	5,279.3	82.2243	5,279.3	80.5659	5,279.3	81.4552	5,279.3	82.0458	5,279.3	81.1879	5,279.3	82.192	5,279.3	78.9859	5,279.3	78.7163	5,279.3	77.0878	5,279.3	73.005	5,279.3	75.278	5,279.3	74.3651	5,279.3	72.6133	5,279.3	75.5935	5,279.3	68.5036	5,279.3	71.2152	5,279.3	65.1653	5,279.3	69.7775	5,279.3	63.8794	5,279.3	62.4724	5,279.3	61.8246	5,279.3	44.9425	5,279.3	59.3791	5,279.3	42.4637	5,279.3	59.1155	5,279.3	35.489	5,279.3	62.5653	5,279.3	54.5068	5,279.3	67.7379	5,279.3	59.2618	5,279.3	60.8116	5,279.3	54.5203	5,279.3	58.3581	5,279.3	50.214	5,279.3	43.9628
5,463.87	82.117	5,463.87	82.0896	5,463.87	80.4583	5,463.87	81.0099	5,463.87	81.9625	5,463.87	80.4751	5,463.87	82.0389	5,463.87	78.949	5,463.87	76.9535	5,463.87	76.9562	5,463.87	68.2302	5,463.87	74.21	5,463.87	74.1107	5,463.87	70.3998	5,463.87	74.0456	5,463.87	68.7966	5,463.87	69.1864	5,463.87	66.1006	5,463.87	68.6522	5,463.87	62.0235	5,463.87	56.7571	5,463.87	61.669	5,463.87	59.3103	5,463.87	59.0255	5,463.87	46.6567	5,463.87	56.028	5,463.87	48.6772	5,463.87	59.7047	5,463.87	57.2573	5,463.87	66.3192	5,463.87	59.991	5,463.87	62.6872	5,463.87	54.0178	5,463.87	58.4579	5,463.87	50.7506	5,463.87	55.5208
5,657.23	81.6357	5,657.23	82.0419	5,657.23	80.3878	5,657.23	81.2399	5,657.23	81.7658	5,657.23	79.9123	5,657.23	81.7992	5,657.23	78.9398	5,657.23	78.4129	5,657.23	77.3584	5,657.23	73.0843	5,657.23	72.5147	5,657.23	73.2993	5,657.23	68.9626	5,657.23	71.6101	5,657.23	66.3006	5,657.23	68.5415	5,657.23	64.6502	5,657.23	68.5569	5,657.23	62.779	5,657.23	62.1516	5,657.23	61.6271	5,657.23	55.0187	5,657.23	57.6069	5,657.23	53.1889	5,657.23	57.6249	5,657.23	52.2377	5,657.23	56.1552	5,657.23	56.5694	5,657.23	63.9764	5,657.23	52.9096	5,657.23	62.2165	5,657.23	49.9746	5,657.23	60.2444	5,657.23	55.8572	5,657.23	53.8264
5,856.45	81.9908	5,856.45	82.4444	5,856.45	80.8143	5,856.45	81.159	5,856.45	81.2717	5,856.45	79.8608	5,856.45	81.5125	5,856.45	79.2208	5,856.45	79.0864	5,856.45	75.8483	5,856.45	72.7253	5,856.45	72.5472	5,856.45	71.7903	5,856.45	70.551	5,856.45	69.8744	5,856.45	68.5776	5,856.45	68.6886	5,856.45	64.2093	5,856.45	67.2004	5,856.45	62.7511	5,856.45	53.7413	5,856.45	61.924	5,856.45	62.7086	5,856.45	59.7589	5,856.45	56.0048	5,856.45	59.2565	5,856.45	50.0261	5,856.45	58.9228	5,856.45	48.3641	5,856.45	65.017	5,856.45	51.7123	5,856.45	61.7597	5,856.45	53.5943	5,856.45	62.1026	5,856.45	46.5113	5,856.45	57.5882
6,061.52	81.849	6,061.52	82.5267	6,061.52	81.1403	6,061.52	81.557	6,061.52	81.4912	6,061.52	80.4357	6,061.52	81.3668	6,061.52	78.7201	6,061.52	78.3471	6,061.52	75.3255	6,061.52	73.0123	6,061.52	72.8841	6,061.52	71.2199	6,061.52	71.0063	6,061.52	69.667	6,061.52	67.4819	6,061.52	70.363	6,061.52	66.1617	6,061.52	66.9157	6,061.52	63.0125	6,061.52	58.789	6,061.52	61.2113	6,061.52	63.5728	6,061.52	59.5711	6,061.52	56.5953	6,061.52	59.2528	6,061.52	56.9128	6,061.52	58.4321	6,061.52	48.5542	6,061.52	63.7358	6,061.52	57.0886	6,061.52	60.9082	6,061.52	52.9365	6,061.52	59.2822	6,061.52	55.1271	6,061.52	52.521
6,275.39	82.1097	6,275.39	82.746	6,275.39	81.4667	6,275.39	81.2206	6,275.39	81.2774	6,275.39	80.1584	6,275.39	80.5262	6,275.39	78.1508	6,275.39	78.3045	6,275.39	74.3174	6,275.39	74.2531	6,275.39	72.4942	6,275.39	71.0342	6,275.39	71.6674	6,275.39	71.0591	6,275.39	66.96	6,275.39	70.0583	6,275.39	63.5604	6,275.39	65.458	6,275.39	62.2952	6,275.39	65.1241	6,275.39	60.0404	6,275.39	62.7315	6,275.39	58.2012	6,275.39	55.3706	6,275.39	56.9126	6,275.39	55.0184	6,275.39	55.7806	6,275.39	39.5228	6,275.39	62.9144	6,275.39	58.8507	6,275.39	59.69	6,275.39	58.1988	6,275.39	60.2907	6,275.39	50.9812	6,275.39	49.8308
6,498.05	81.7922	6,498.05	82.7494	6,498.05	82.0543	6,498.05	81.1383	6,498.05	81.8553	6,498.05	80.2395	6,498.05	80.4155	6,498.05	77.3175	6,498.05	78.5212	6,498.05	74.3662	6,498.05	74.4494	6,498.05	72.0566	6,498.05	71.1024	6,498.05	69.4548	6,498.05	71.2685	6,498.05	65.9287	6,498.05	66.4094	6,498.05	64.0133	6,498.05	64.3648	6,498.05	60.1895	6,498.05	66.5624	6,498.05	60.5496	6,498.05	58.0212	6,498.05	56.6082	6,498.05	54.3116	6,498.05	56.4339	6,498.05	54.8808	6,498.05	55.5096	6,498.05	41.2469	6,498.05	60.6981	6,498.05	56.9677	6,498.05	58.6962	6,498.05	53.9198	6,498.05	60.0617	6,498.05	48.3384	6,498.05	54.625
6,726.56	81.997	6,726.56	82.8406	6,726.56	81.8611	6,726.56	80.6737	6,726.56	81.9356	6,726.56	79.9767	6,726.56	80.3354	6,726.56	76.6087	6,726.56	78.0981	6,726.56	74.0896	6,726.56	74.8934	6,726.56	70.9483	6,726.56	71.7744	6,726.56	69.8725	6,726.56	69.2196	6,726.56	63.3279	6,726.56	68.4828	6,726.56	64.6673	6,726.56	63.7407	6,726.56	58.9103	6,726.56	64.4479	6,726.56	59.1045	6,726.56	54.9602	6,726.56	57.0403	6,726.56	46.7724	6,726.56	55.6225	6,726.56	54.0378	6,726.56	55.8426	6,726.56	39.0808	6,726.56	60.3732	6,726.56	55.3371	6,726.56	60.0295	6,726.56	53.2076	6,726.56	59.4775	6,726.56	44.077	6,726.56	55.153
6,963.87	81.7237	6,963.87	82.1885	6,963.87	81.7626	6,963.87	80.1966	6,963.87	81.7031	6,963.87	79.7647	6,963.87	79.5735	6,963.87	76.2028	6,963.87	77.5817	6,963.87	74.0793	6,963.87	75.603	6,963.87	70.8358	6,963.87	71.7112	6,963.87	69.1107	6,963.87	68.5504	6,963.87	63.9481	6,963.87	71.1562	6,963.87	63.9364	6,963.87	62.3998	6,963.87	58.1418	6,963.87	50.7641	6,963.87	59.5125	6,963.87	56.8823	6,963.87	56.1832	6,963.87	54.3732	6,963.87	56.696	6,963.87	52.2264	6,963.87	56.6171	6,963.87	44.2488	6,963.87	56.9638	6,963.87	58.5339	6,963.87	58.5353	6,963.87	45.4655	6,963.87	58.0197	6,963.87	47.1045	6,963.87	53.872
7,209.96	81.5504	7,209.96	81.6159	7,209.96	81.7116	7,209.96	79.7329	7,209.96	81.7292	7,209.96	79.413	7,209.96	79.3362	7,209.96	75.2929	7,209.96	77.5364	7,209.96	73.6821	7,209.96	75.5146	7,209.96	70.6693	7,209.96	69.169	7,209.96	66.7648	7,209.96	70.3679	7,209.96	64.7475	7,209.96	73.5338	7,209.96	63.2372	7,209.96	66.3644	7,209.96	56.2001	7,209.96	54.5803	7,209.96	58.4168	7,209.96	56.6848	7,209.96	54.9787	7,209.96	52.8221	7,209.96	55.6453	7,209.96	52.1604	7,209.96	55.8297	7,209.96	49.6288	7,209.96	55.2054	7,209.96	57.2673	7,209.96	60.2132	7,209.96	51.2079	7,209.96	58.6519	7,209.96	52.9193	7,209.96	49.3328
7,464.84	81.0629	7,464.84	81.0887	7,464.84	81.1687	7,464.84	79.6855	7,464.84	81.4595	7,464.84	78.7953	7,464.84	78.9015	7,464.84	75.1474	7,464.84	76.5616	7,464.84	73.3217	7,464.84	74.2579	7,464.84	70.18	7,464.84	70.1432	7,464.84	66.043	7,464.84	71.8823	7,464.84	63.4513	7,464.84	74.0087	7,464.84	58.0069	7,464.84	65.8636	7,464.84	57.5998	7,464.84	57.0124	7,464.84	56.3001	7,464.84	53.0207	7,464.84	54.8391	7,464.84	56.3496	7,464.84	55.3737	7,464.84	53.0687	7,464.84	56.8299	7,464.84	48.0985	7,464.84	48.6362	7,464.84	55.2237	7,464.84	58.794	7,464.84	46.2222	7,464.84	58.6261	7,464.84	47.9587	7,464.84	46.7243
7,728.52	81.427	7,728.52	81.4087	7,728.52	81.3683	7,728.52	80.0855	7,728.52	81.3692	7,728.52	78.2271	7,728.52	78.4878	7,728.52	75.955	7,728.52	75.7515	7,728.52	73.135	7,728.52	74.8022	7,728.52	69.4879	7,728.52	69.164	7,728.52	64.8997	7,728.52	71.9566	7,728.52	63.4712	7,728.52	71.8926	7,728.52	56.7667	7,728.52	67.5915	7,728.52	57.7846	7,728.52	60.6976	7,728.52	55.5203	7,728.52	57.411	7,728.52	56.9972	7,728.52	52.3819	7,728.52	56.8422	7,728.52	53.6267	7,728.52	54.8717	7,728.52	32.7775	7,728.52	51.8985	7,728.52	58.0996	7,728.52	60.7392	7,728.52	48.3373	7,728.52	58.7458	7,728.52	50.8093	7,728.52	35.7319
8,000.98	82.0047	8,000.98	81.9251	8,000.98	81.3333	8,000.98	79.958	8,000.98	80.9825	8,000.98	78.2266	8,000.98	78.246	8,000.98	76.6582	8,000.98	75.6872	8,000.98	73.1185	8,000.98	72.507	8,000.98	69.7965	8,000.98	70.1278	8,000.98	65.5267	8,000.98	70.9984	8,000.98	65.0195	8,000.98	67.7595	8,000.98	60.6174	8,000.98	64.9216	8,000.98	60.1454	8,000.98	58.5598	8,000.98	56.7305	8,000.98	55.2496	8,000.98	56.9787	8,000.98	45.7734	8,000.98	57.4519	8,000.98	40.5596	8,000.98	56.9521	8,000.98	33.5865	8,000.98	53.4919	8,000.98	56.023	8,000.98	60.7961	8,000.98	49.9883	8,000.98	58.0714	8,000.98	49.3234	8,000.98	45.6506
8,282.23	83.0137	8,282.23	82.4468	8,282.23	81.8092	8,282.23	79.7179	8,282.23	80.9061	8,282.23	78.4943	8,282.23	78.4824	8,282.23	76.1313	8,282.23	75.7719	8,282.23	72.6538	8,282.23	72.6764	8,282.23	69.4269	8,282.23	71.1991	8,282.23	67.6359	8,282.23	67.0112	8,282.23	64.8112	8,282.23	58.2628	8,282.23	60.8816	8,282.23	63.9023	8,282.23	57.3419	8,282.23	61.4682	8,282.23	50.3292	8,282.23	58.0864	8,282.23	55.6128	8,282.23	41.8432	8,282.23	53.8147	8,282.23	49.1387	8,282.23	56.7684	8,282.23	42.4986	8,282.23	51.3318	8,282.23	57.8589	8,282.23	59.3734	8,282.23	51.7403	8,282.23	58.4871	8,282.23	39.4269	8,282.23	42.1276
8,575.2	83.387	8,575.2	82.4412	8,575.2	82.2424	8,575.2	79.9339	8,575.2	80.8048	8,575.2	78.7471	8,575.2	78.5578	8,575.2	75.5429	8,575.2	76.3427	8,575.2	72.445	8,575.2	73.3278	8,575.2	69.6116	8,575.2	70.5102	8,575.2	66.5993	8,575.2	62.0833	8,575.2	61.5361	8,575.2	64.3237	8,575.2	59.6827	8,575.2	62.7831	8,575.2	56.4823	8,575.2	61.2973	8,575.2	52.9083	8,575.2	53.7079	8,575.2	55.5801	8,575.2	48.6541	8,575.2	53.4873	8,575.2	52.3268	8,575.2	54.6909	8,575.2	41.4555	8,575.2	50.4068	8,575.2	51.4382	8,575.2	57.6741	8,575.2	51.8548	8,575.2	58.4231	8,575.2	47.6553	8,575.2	45.6366
8,876.95	83.4306	8,876.95	82.3259	8,876.95	82.5628	8,876.95	79.985	8,876.95	80.8971	8,876.95	78.28	8,876.95	78.7509	8,876.95	75.7683	8,876.95	76.5546	8,876.95	71.8955	8,876.95	73.6886	8,876.95	70.1345	8,876.95	69.5386	8,876.95	65.472	8,876.95	65.4575	8,876.95	64.7581	8,876.95	69.0627	8,876.95	60.4956	8,876.95	63.7706	8,876.95	58.6024	8,876.95	55.9967	8,876.95	53.7023	8,876.95	57.4839	8,876.95	55.6799	8,876.95	52.667	8,876.95	54.1922	8,876.95	52.4214	8,876.95	56.071	8,876.95	47.5202	8,876.95	48.2704	8,876.95	57.9195	8,876.95	58.1025	8,876.95	49.6155	8,876.95	58.0704	8,876.95	45.512	8,876.95	38.3599
9,190.43	83.41	9,190.43	82.1568	9,190.43	82.4986	9,190.43	79.7135	9,190.43	80.9225	9,190.43	78.0753	9,190.43	79.1257	9,190.43	75.6087	9,190.43	76.7356	9,190.43	71.1507	9,190.43	74.2295	9,190.43	69.4752	9,190.43	69.3426	9,190.43	66.181	9,190.43	69.0679	9,190.43	63.8514	9,190.43	69.0606	9,190.43	59.5892	9,190.43	64.2534	9,190.43	57.6103	9,190.43	59.443	9,190.43	52.3624	9,190.43	59.9734	9,190.43	54.1985	9,190.43	54.0291	9,190.43	53.9706	9,190.43	49.0652	9,190.43	54.2599	9,190.43	42.0918	9,190.43	46.6304	9,190.43	58.0036	9,190.43	57.4449	9,190.43	50.8809	9,190.43	57.548	9,190.43	42.9218	9,190.43	40.3683
9,512.7	83.5	9,512.7	81.9648	9,512.7	82.5992	9,512.7	79.5631	9,512.7	81.0833	9,512.7	78.2717	9,512.7	79.0684	9,512.7	75.19	9,512.7	76.3433	9,512.7	71.1404	9,512.7	73.7439	9,512.7	69.0038	9,512.7	70.0936	9,512.7	64.591	9,512.7	68.7169	9,512.7	62.3025	9,512.7	64.1336	9,512.7	60.2896	9,512.7	62.9229	9,512.7	54.697	9,512.7	61.2899	9,512.7	51.8207	9,512.7	61.0019	9,512.7	52.9113	9,512.7	54.7401	9,512.7	52.9961	9,512.7	46.7853	9,512.7	54.6911	9,512.7	48.094	9,512.7	49.4613	9,512.7	57.8384	9,512.7	57.1615	9,512.7	48.2739	9,512.7	57.5637	9,512.7	43.8643	9,512.7	49.6047
9,849.61	83.7588	9,849.61	81.9917	9,849.61	82.537	9,849.61	79.8392	9,849.61	81.0797	9,849.61	77.9274	9,849.61	79.2539	9,849.61	74.7747	9,849.61	76.1572	9,849.61	71.6398	9,849.61	72.36	9,849.61	68.8338	9,849.61	68.7985	9,849.61	64.1616	9,849.61	65.7187	9,849.61	62.4518	9,849.61	62.1424	9,849.61	59.3773	9,849.61	61.5896	9,849.61	51.7613	9,849.61	58.5167	9,849.61	51.3113	9,849.61	61.0618	9,849.61	51.4094	9,849.61	53.0401	9,849.61	54.0107	9,849.61	43.239	9,849.61	53.592	9,849.61	44.9022	9,849.61	52.2325	9,849.61	55.8053	9,849.61	55.8	9,849.61	44.7317	9,849.61	54.8034	9,849.61	39.3693	9,849.61	52.3456
10,195.3	83.8014	10,195.3	82.0009	10,195.3	82.6749	10,195.3	80.021	10,195.3	80.8752	10,195.3	77.0416	10,195.3	79.1988	10,195.3	74.8337	10,195.3	76.2414	10,195.3	71.0556	10,195.3	72.2339	10,195.3	69.274	10,195.3	67.8743	10,195.3	64.3853	10,195.3	65.5861	10,195.3	61.1669	10,195.3	64.5266	10,195.3	57.5872	10,195.3	61.2453	10,195.3	52.4221	10,195.3	51.686	10,195.3	51.6142	10,195.3	58.3441	10,195.3	50.8159	10,195.3	52.054	10,195.3	52.91	10,195.3	46.5798	10,195.3	52.347	10,195.3	44.4282	10,195.3	51.2877	10,195.3	52.475	10,195.3	54.5163	10,195.3	49.3778	10,195.3	52.0314	10,195.3	35.1248	10,195.3	48.343
10,555.7	83.6158	10,555.7	81.9066	10,555.7	82.7888	10,555.7	79.795	10,555.7	80.7411	10,555.7	76.9146	10,555.7	79.0857	10,555.7	74.2757	10,555.7	76.3007	10,555.7	71.0855	10,555.7	73.0782	10,555.7	68.8661	10,555.7	67.9552	10,555.7	64.3831	10,555.7	65.7025	10,555.7	59.8297	10,555.7	62.7761	10,555.7	57.4286	10,555.7	62.6422	10,555.7	51.7363	10,555.7	52.5347	10,555.7	48.047	10,555.7	58.6959	10,555.7	49.3969	10,555.7	51.1442	10,555.7	50.7451	10,555.7	49.8355	10,555.7	50.7097	10,555.7	43.9256	10,555.7	50.0423	10,555.7	43.8063	10,555.7	52.7396	10,555.7	45.7794	10,555.7	49.2475	10,555.7	24.274	10,555.7	47.0757
10,927.7	83.2271	10,927.7	81.5796	10,927.7	82.8226	10,927.7	79.8417	10,927.7	80.8005	10,927.7	77.5052	10,927.7	78.7043	10,927.7	74.0943	10,927.7	76.1858	10,927.7	71.9057	10,927.7	73.4137	10,927.7	68.1328	10,927.7	69.5544	10,927.7	64.4157	10,927.7	63.9685	10,927.7	58.0967	10,927.7	57.1473	10,927.7	57.3976	10,927.7	60.6621	10,927.7	47.951	10,927.7	49.722	10,927.7	46.3946	10,927.7	57.1582	10,927.7	50.0757	10,927.7	53.3417	10,927.7	50.2479	10,927.7	32.0147	10,927.7	48.3176	10,927.7	36.3451	10,927.7	51.3818	10,927.7	41.9587	10,927.7	52.0088	10,927.7	49.4007	10,927.7	49.8076	10,927.7	32.7432	10,927.7	46.8735
11,314.5	82.9742	11,314.5	81.6967	11,314.5	82.7116	11,314.5	80.3715	11,314.5	80.8927	11,314.5	77.9369	11,314.5	78.4045	11,314.5	74.7191	11,314.5	76.2413	11,314.5	72.2012	11,314.5	73.8524	11,314.5	68.4507	11,314.5	70.4623	11,314.5	62.293	11,314.5	60.3746	11,314.5	56.4064	11,314.5	60.3549	11,314.5	54.2372	11,314.5	59.5372	11,314.5	48.4782	11,314.5	45.7132	11,314.5	47.3809	11,314.5	53.9684	11,314.5	45.3657	11,314.5	51.9687	11,314.5	49.9229	11,314.5	42.7999	11,314.5	46.1539	11,314.5	41.6864	11,314.5	53.5089	11,314.5	52.0235	11,314.5	53.1195	11,314.5	46.1112	11,314.5	51.4088	11,314.5	40.6254	11,314.5	48.6227
11,712.9	82.7381	11,712.9	82.0872	11,712.9	82.2767	11,712.9	80.7257	11,712.9	80.7306	11,712.9	77.873	11,712.9	78.3951	11,712.9	75.0343	11,712.9	76.3373	11,712.9	72.0875	11,712.9	73.9456	11,712.9	67.2179	11,712.9	69.0002	11,712.9	59.8854	11,712.9	61.449	11,712.9	55.9181	11,712.9	63.5958	11,712.9	55.3141	11,712.9	59.0327	11,712.9	49.5414	11,712.9	50.4183	11,712.9	46.8496	11,712.9	58.7222	11,712.9	45.987	11,712.9	51.3564	11,712.9	50.1357	11,712.9	48.9619	11,712.9	43.9353	11,712.9	42.1113	11,712.9	54.1965	11,712.9	51.6395	11,712.9	53.1137	11,712.9	50.1858	11,712.9	51.376	11,712.9	37.8935	11,712.9	45.6283
12,126	82.6586	12,126	82.2839	12,126	82.131	12,126	80.5853	12,126	80.6233	12,126	77.7829	12,126	78.4092	12,126	74.8678	12,126	76.1817	12,126	71.5066	12,126	72.6871	12,126	64.7104	12,126	66.0349	12,126	60.3787	12,126	63.4382	12,126	55.879	12,126	59.9682	12,126	54.7016	12,126	58.9793	12,126	50.3169	12,126	52.8892	12,126	45.9865	12,126	59.9282	12,126	48.7586	12,126	52.3524	12,126	49.5856	12,126	46.6459	12,126	42.1598	12,126	24.6837	12,126	54.3156	12,126	51.8959	12,126	50.5442	12,126	50.2945	12,126	51.9724	12,126	37.1173	12,126	48.3331
12,553.7	82.9999	12,553.7	82.238	12,553.7	82.5343	12,553.7	80.4563	12,553.7	80.9506	12,553.7	77.3802	12,553.7	78.7045	12,553.7	74.8424	12,553.7	75.9572	12,553.7	69.4374	12,553.7	71.9193	12,553.7	64.5393	12,553.7	66.5081	12,553.7	60.5808	12,553.7	60.8831	12,553.7	57.3948	12,553.7	55.7339	12,553.7	54.9449	12,553.7	55.8917	12,553.7	51.8149	12,553.7	49.9294	12,553.7	45.0854	12,553.7	58.9512	12,553.7	48.0903	12,553.7	50.1773	12,553.7	47.7882	12,553.7	38.6487	12,553.7	45.4778	12,553.7	43.2272	12,553.7	54.1904	12,553.7	54.5482	12,553.7	49.6977	12,553.7	50.853	12,553.7	51.635	12,553.7	37.7452	12,553.7	47.6825
12,996.1	83.0496	12,996.1	82.0245	12,996.1	82.8225	12,996.1	80.1613	12,996.1	81.2679	12,996.1	76.9376	12,996.1	79.023	12,996.1	74.4103	12,996.1	75.9385	12,996.1	67.947	12,996.1	71.7573	12,996.1	64.5182	12,996.1	69.2757	12,996.1	62.2969	12,996.1	60.21	12,996.1	57.3567	12,996.1	59.4911	12,996.1	55.2183	12,996.1	54.609	12,996.1	50.8042	12,996.1	45.4164	12,996.1	43.1415	12,996.1	59.6989	12,996.1	49.0374	12,996.1	50.9219	12,996.1	45.4771	12,996.1	44.9699	12,996.1	45.856	12,996.1	42.1854	12,996.1	52.5174	12,996.1	52.8531	12,996.1	45.5208	12,996.1	51.293	12,996.1	49.7029	12,996.1	41.605	12,996.1	46.0235
13,453.1	82.8991	13,453.1	82.1788	13,453.1	82.7305	13,453.1	79.9211	13,453.1	81.3271	13,453.1	77.1059	13,453.1	78.9088	13,453.1	73.7021	13,453.1	75.9944	13,453.1	67.2671	13,453.1	73.1707	13,453.1	65.4959	13,453.1	68.8596	13,453.1	61.6798	13,453.1	59.216	13,453.1	57.4391	13,453.1	60.6362	13,453.1	52.3253	13,453.1	53.3649	13,453.1	49.6929	13,453.1	49.1016	13,453.1	42.7641	13,453.1	60.2115	13,453.1	47.989	13,453.1	49.5742	13,453.1	42.6229	13,453.1	45.1992	13,453.1	46.0677	13,453.1	43.5447	13,453.1	48.515	13,453.1	50.2646	13,453.1	45.8366	13,453.1	50.2222	13,453.1	47.5673	13,453.1	24.9148	13,453.1	46.2184
13,927.7	82.7978	13,927.7	82.4378	13,927.7	82.6409	13,927.7	80.0313	13,927.7	81.4745	13,927.7	77.5122	13,927.7	78.9479	13,927.7	72.9798	13,927.7	75.8427	13,927.7	66.1847	13,927.7	72.6336	13,927.7	65.4126	13,927.7	66.6202	13,927.7	60.5805	13,927.7	59.3202	13,927.7	53.0556	13,927.7	58.0305	13,927.7	49.4594	13,927.7	50.9827	13,927.7	44.5658	13,927.7	43.2966	13,927.7	32.7703	13,927.7	60.4892	13,927.7	42.5366	13,927.7	45.8126	13,927.7	39.8454	13,927.7	48.2567	13,927.7	46.4279	13,927.7	43.9543	13,927.7	45.1234	13,927.7	46.4083	13,927.7	47.989	13,927.7	47.9036	13,927.7	44.4509	13,927.7	30.553	13,927.7	45.6784
14,419.9	82.816	14,419.9	82.396	14,419.9	82.6776	14,419.9	80.1536	14,419.9	81.3278	14,419.9	77.6403	14,419.9	78.6909	14,419.9	71.9841	14,419.9	75.8953	14,419.9	65.9933	14,419.9	72.1034	14,419.9	63.8094	14,419.9	65.5455	14,419.9	55.0787	14,419.9	59.8478	14,419.9	41.6767	14,419.9	56.288	14,419.9	43.6804	14,419.9	52.4352	14,419.9	42.9377	14,419.9	49.5872	14,419.9	31.1225	14,419.9	60.4323	14,419.9	38.9499	14,419.9	46.0525	14,419.9	33.8198	14,419.9	47.569	14,419.9	46.0852	14,419.9	43.1725	14,419.9	42.411	14,419.9	45.885	14,419.9	46.2462	14,419.9	42.1563	14,419.9	43.6456	14,419.9	34.2946	14,419.9	42.7839
14,929.7	82.9547	14,929.7	82.3819	14,929.7	82.8935	14,929.7	80.0168	14,929.7	81.114	14,929.7	77.0755	14,929.7	78.4282	14,929.7	70.3901	14,929.7	75.1676	14,929.7	64.7198	14,929.7	71.5805	14,929.7	60.6958	14,929.7	65.1413	14,929.7	50.1422	14,929.7	59.9493	14,929.7	50.6783	14,929.7	57.1116	14,929.7	35.5684	14,929.7	50.3311	14,929.7	45.4833	14,929.7	48.6454	14,929.7	35.0249	14,929.7	60.9643	14,929.7	43.3323	14,929.7	49.523	14,929.7	27.4801	14,929.7	47.2831	14,929.7	44.4605	14,929.7	45.7287	14,929.7	46.2357	14,929.7	50.3332	14,929.7	46.1353	14,929.7	39.7895	14,929.7	42.7125	14,929.7	41.8051	14,929.7	34.9442
15,454.1	83.0301	15,454.1	82.3887	15,454.1	82.8177	15,454.1	79.911	15,454.1	80.9766	15,454.1	76.0606	15,454.1	78.2395	15,454.1	69.1791	15,454.1	74.4089	15,454.1	63.4828	15,454.1	70.4824	15,454.1	55.5485	15,454.1	63.5149	15,454.1	55.2484	15,454.1	60.3933	15,454.1	55.5707	15,454.1	55.5833	15,454.1	46.513	15,454.1	40.2645	15,454.1	48.1094	15,454.1	53.0471	15,454.1	42.4839	15,454.1	60.0769	15,454.1	45.7539	15,454.1	50.0716	15,454.1	25.1613	15,454.1	48.8623	15,454.1	43.4944	15,454.1	43.6811	15,454.1	44.6922	15,454.1	48.1562	15,454.1	40.4362	15,454.1	30.2491	15,454.1	43.1221	15,454.1	45.8126	15,454.1	36.4461
15,999	82.6489	15,999	81.8543	15,999	82.396	15,999	79.4171	15,999	80.8579	15,999	74.7209	15,999	78.1766	15,999	68.4793	15,999	73.6853	15,999	62.5138	15,999	68.5213	15,999	57.2904	15,999	61.6627	15,999	57.9435	15,999	58.8968	15,999	56.488	15,999	53.4578	15,999	47.9171	15,999	50.0977	15,999	48.7516	15,999	55.1264	15,999	45.9946	15,999	59.8219	15,999	47.1197	15,999	50.589	15,999	37.9309	15,999	46.3893	15,999	46.1827	15,999	39.225	15,999	43.4945	15,999	43.468	15,999	41.9576	15,999	42.5442	15,999	41.19	15,999	47.5865	15,999	42.0499
16,564.5	81.9525	16,564.5	81.1272	16,564.5	81.8161	16,564.5	78.624	16,564.5	80.3392	16,564.5	73.2638	16,564.5	77.5167	16,564.5	68.0629	16,564.5	73.2082	16,564.5	61.0324	16,564.5	66.7001	16,564.5	59.2435	16,564.5	61.944	16,564.5	58.8266	16,564.5	57.6094	16,564.5	56.5598	16,564.5	53.222	16,564.5	48.3118	16,564.5	47.0602	16,564.5	47.7517	16,564.5	54.6479	16,564.5	46.0705	16,564.5	59.5369	16,564.5	46.8906	16,564.5	50.3401	16,564.5	41.6437	16,564.5	46.0425	16,564.5	46.7336	16,564.5	38.3146	16,564.5	46.7432	16,564.5	44.275	16,564.5	45.0577	16,564.5	42.9583	16,564.5	41.1734	16,564.5	45.6426	16,564.5	41.2099
17,147.5	81.3997	17,147.5	80.4276	17,147.5	81.2826	17,147.5	77.5683	17,147.5	79.4539	17,147.5	71.7415	17,147.5	76.5038	17,147.5	66.8505	17,147.5	71.7776	17,147.5	60.2993	17,147.5	64.8854	17,147.5	59.7034	17,147.5	61.232	17,147.5	58.4617	17,147.5	56.8993	17,147.5	56.1945	17,147.5	46.9839	17,147.5	48.3779	17,147.5	50.0191	17,147.5	46.9132	17,147.5	52.7629	17,147.5	47.5505	17,147.5	58.3893	17,147.5	45.4868	17,147.5	48.5696	17,147.5	44.6431	17,147.5	46.7358	17,147.5	46.4715	17,147.5	41.3673	17,147.5	48.1522	17,147.5	45.996	17,147.5	45.7037	17,147.5	42.5495	17,147.5	41.4475	17,147.5	44.7744	17,147.5	41.0567
17,753.9	80.5832	17,753.9	79.331	17,753.9	80.5203	17,753.9	75.9127	17,753.9	78.6482	17,753.9	69.5522	17,753.9	75.6268	17,753.9	64.9191	17,753.9	70.2076	17,753.9	60.9912	17,753.9	63.7563	17,753.9	59.705	17,753.9	59.1434	17,753.9	57.5703	17,753.9	56.3412	17,753.9	55.1132	17,753.9	44.1298	17,753.9	50.0895	17,753.9	48.3184	17,753.9	43.2249	17,753.9	52.4034	17,753.9	47.2659	17,753.9	56.4532	17,753.9	43.8192	17,753.9	47.7065	17,753.9	45.5577	17,753.9	44.5978	17,753.9	46.1704	17,753.9	42.6619	17,753.9	47.4253	17,753.9	44.8279	17,753.9	43.3701	17,753.9	43.2737	17,753.9	41.2987	17,753.9	43.5597	17,753.9	41.9905
18,377.9	79.0309	18,377.9	77.7602	18,377.9	79.0536	18,377.9	74.0116	18,377.9	77.5775	18,377.9	68.4719	18,377.9	74.7844	18,377.9	62.9719	18,377.9	69.1236	18,377.9	60.5421	18,377.9	63.7027	18,377.9	58.5604	18,377.9	56.3197	18,377.9	55.2959	18,377.9	55.0962	18,377.9	52.8556	18,377.9	42.027	18,377.9	48.5815	18,377.9	46.8601	18,377.9	37.0725	18,377.9	50.643	18,377.9	45.396	18,377.9	53.9289	18,377.9	40.437	18,377.9	46.2466	18,377.9	43.6971	18,377.9	41.5202	18,377.9	44.139	18,377.9	41.6527	18,377.9	44.3512	18,377.9	44.8091	18,377.9	41.0629	18,377.9	44.6615	18,377.9	41.7343	18,377.9	42.9095	18,377.9	43.7711
19,028.3	77.3926	19,028.3	76.059	19,028.3	77.5138	19,028.3	72.1303	19,028.3	76.0991	19,028.3	67.0373	19,028.3	73.0945	19,028.3	60.9821	19,028.3	67.0897	19,028.3	57.0574	19,028.3	61.4672	19,028.3	54.8903	19,028.3	52.609	19,028.3	52.5932	19,028.3	48.5553	19,028.3	49.747	19,028.3	32.1512	19,028.3	45.4913	19,028.3	43.3671	19,028.3	32.3332	19,028.3	47.5585	19,028.3	42.6282	19,028.3	51.5953	19,028.3	37.8954	19,028.3	41.9193	19,028.3	42.8811	19,028.3	40.0692	19,028.3	41.8807	19,028.3	42.0281	19,028.3	41.8438	19,028.3	45.8008	19,028.3	43.7017	19,028.3	43.0382	19,028.3	42.7655	19,028.3	42.278	19,028.3	42.9656
19,699.2	76.0172	19,699.2	74.2794	19,699.2	76.2337	19,699.2	70.0556	19,699.2	74.684	19,699.2	64.1063	19,699.2	71.1349	19,699.2	57.6406	19,699.2	64.2303	19,699.2	51.4024	19,699.2	57.5019	19,699.2	49.8852	19,699.2	45.2346	19,699.2	50.0607	19,699.2	37.9612	19,699.2	47.8301	19,699.2	37.83	19,699.2	45.203	19,699.2	34.7949	19,699.2	32.8547	19,699.2	46.1116	19,699.2	39.6042	19,699.2	49.4142	19,699.2	35.7049	19,699.2	37.7016	19,699.2	42.3703	19,699.2	38.3275	19,699.2	41.4689	19,699.2	39.4872	19,699.2	43.0983	19,699.2	43.6734	19,699.2	44.8477	19,699.2	41.4121	19,699.2	31.9299	19,699.2	42.2623	19,699.2	41.6381
19,998	75.2637	19,998	73.5465	19,998	75.5551	19,998	69.0683	19,998	74.0576	19,998	62.9077	19,998	70.1754	19,998	56.1336	19,998	62.8202	19,998	50.0515	19,998	53.7415	19,998	49.3003	19,998	46.3983	19,998	49.6665	19,998	38.2645	19,998	46.6607	19,998	42.5288	19,998	44.4309	19,998	41.7072	19,998	36.1261	19,998	50.3189	19,998	40.1264	19,998	49.472	19,998	37.4406	19,998	37.9518	19,998	46.952	19,998	35.1288	19,998	33.7216	19,998	41.2811	19,998	35.2783	19,998	44.1129	19,998	43.9765	19,998	34.43	19,998	40.8383	19,998	45.1657	19,998	39.6794
