"SPL Horizontal"																																																																							
"On-Axis"		"10°"		"-10°"		"20°"		"-20°"		"30°"		"-30°"		"40°"		"-40°"		"50°"		"-50°"		"60°"		"-60°"		"70°"		"-70°"		"80°"		"-80°"		"90°"		"-90°"		"100°"		"-100°"		"110°"		"-110°"		"120°"		"-120°"		"130°"		"-130°"		"140°"		"-140°"		"150°"		"-150°"		"160°"		"-160°"		"170°"		"-170°"		"180°"	
"Frequency [Hz]"	"Sound Pessure Level [dB]  / [2.83V 1m] "	"Frequency [Hz]"	"Sound Pessure Level [dB]  / [2.83V 1m] "	"Frequency [Hz]"	"Sound Pessure Level [dB]  / [2.83V 1m] "	"Frequency [Hz]"	"Sound Pessure Level [dB]  / [2.83V 1m] "	"Frequency [Hz]"	"Sound Pessure Level [dB]  / [2.83V 1m] "	"Frequency [Hz]"	"Sound Pessure Level [dB]  / [2.83V 1m] "	"Frequency [Hz]"	"Sound Pessure Level [dB]  / [2.83V 1m] "	"Frequency [Hz]"	"Sound Pessure Level [dB]  / [2.83V 1m] "	"Frequency [Hz]"	"Sound Pessure Level [dB]  / [2.83V 1m] "	"Frequency [Hz]"	"Sound Pessure Level [dB]  / [2.83V 1m] "	"Frequency [Hz]"	"Sound Pessure Level [dB]  / [2.83V 1m] "	"Frequency [Hz]"	"Sound Pessure Level [dB]  / [2.83V 1m] "	"Frequency [Hz]"	"Sound Pessure Level [dB]  / [2.83V 1m] "	"Frequency [Hz]"	"Sound Pessure Level [dB]  / [2.83V 1m] "	"Frequency [Hz]"	"Sound Pessure Level [dB]  / [2.83V 1m] "	"Frequency [Hz]"	"Sound Pessure Level [dB]  / [2.83V 1m] "	"Frequency [Hz]"	"Sound Pessure Level [dB]  / [2.83V 1m] "	"Frequency [Hz]"	"Sound Pessure Level [dB]  / [2.83V 1m] "	"Frequency [Hz]"	"Sound Pessure Level [dB]  / [2.83V 1m] "	"Frequency [Hz]"	"Sound Pessure Level [dB]  / [2.83V 1m] "	"Frequency [Hz]"	"Sound Pessure Level [dB]  / [2.83V 1m] "	"Frequency [Hz]"	"Sound Pessure Level [dB]  / [2.83V 1m] "	"Frequency [Hz]"	"Sound Pessure Level [dB]  / [2.83V 1m] "	"Frequency [Hz]"	"Sound Pessure Level [dB]  / [2.83V 1m] "	"Frequency [Hz]"	"Sound Pessure Level [dB]  / [2.83V 1m] "	"Frequency [Hz]"	"Sound Pessure Level [dB]  / [2.83V 1m] "	"Frequency [Hz]"	"Sound Pessure Level [dB]  / [2.83V 1m] "	"Frequency [Hz]"	"Sound Pessure Level [dB]  / [2.83V 1m] "	"Frequency [Hz]"	"Sound Pessure Level [dB]  / [2.83V 1m] "	"Frequency [Hz]"	"Sound Pessure Level [dB]  / [2.83V 1m] "	"Frequency [Hz]"	"Sound Pessure Level [dB]  / [2.83V 1m] "	"Frequency [Hz]"	"Sound Pessure Level [dB]  / [2.83V 1m] "	"Frequency [Hz]"	"Sound Pessure Level [dB]  / [2.83V 1m] "	"Frequency [Hz]"	"Sound Pessure Level [dB]  / [2.83V 1m] "	"Frequency [Hz]"	"Sound Pessure Level [dB]  / [2.83V 1m] "	"Frequency [Hz]"	"Sound Pessure Level [dB]  / [2.83V 1m] "
20.5078	63.2843	20.5078	63.3284	20.5078	63.2762	20.5078	63.4094	20.5078	63.3042	20.5078	63.529	20.5078	63.3694	20.5078	63.6895	20.5078	63.4738	20.5078	63.8933	20.5078	63.6202	20.5078	64.1422	20.5078	63.8114	20.5078	64.4365	20.5078	64.0499	20.5078	64.7737	20.5078	64.3366	20.5078	65.148	20.5078	64.6697	20.5078	65.5496	20.5078	65.0438	20.5078	65.9641	20.5078	65.449	20.5078	66.3739	20.5078	65.8707	20.5078	66.7585	20.5078	66.2908	20.5078	67.0968	20.5078	66.6881	20.5078	67.369	20.5078	67.0409	20.5078	67.5579	20.5078	67.3285	20.5078	67.6515	20.5078	67.5335	20.5078	67.6433
23.4375	61.1371	23.4375	61.1517	23.4375	61.1153	23.4375	61.1617	23.4375	61.0863	23.4375	61.1728	23.4375	61.0531	23.4375	61.1935	23.4375	61.0217	23.4375	61.2351	23.4375	61.0017	23.4375	61.3108	23.4375	61.0061	23.4375	61.4345	23.4375	61.0505	23.4375	61.6177	23.4375	61.1515	23.4375	61.8666	23.4375	61.3235	23.4375	62.1786	23.4375	61.5744	23.4375	62.5409	23.4375	61.9018	23.4375	62.9313	23.4375	62.2913	23.4375	63.3205	23.4375	62.7171	23.4375	63.6768	23.4375	63.1462	23.4375	63.97	23.4375	63.5435	23.4375	64.1749	23.4375	63.8769	23.4375	64.2731	23.4375	64.12	23.4375	64.255
26.3672	62.7382	26.3672	62.7474	26.3672	62.7299	26.3672	62.7605	26.3672	62.7234	26.3672	62.7843	26.3672	62.7235	26.3672	62.8287	26.3672	62.7389	26.3672	62.9064	26.3672	62.7813	26.3672	63.0307	26.3672	62.8651	26.3672	63.2139	26.3672	63.0046	26.3672	63.4635	26.3672	63.2116	26.3672	63.78	26.3672	63.4915	26.3672	64.1546	26.3672	63.8409	26.3672	64.5698	26.3672	64.2462	26.3672	65.0012	26.3672	64.685	26.3672	65.4207	26.3672	65.1291	26.3672	65.8006	26.3672	65.5487	26.3672	66.1154	26.3672	65.9158	26.3672	66.3447	26.3672	66.2067	26.3672	66.4737	26.3672	66.4031	26.3672	66.4938
29.2969	63.1844	29.2969	63.1816	29.2969	63.1834	29.2969	63.1783	29.2969	63.1796	29.2969	63.1822	29.2969	63.178	29.2969	63.205	29.2969	63.188	29.2969	63.2614	29.2969	63.2227	29.2969	63.3674	29.2969	63.2974	29.2969	63.5375	29.2969	63.4278	29.2969	63.7806	29.2969	63.6266	29.2969	64.0967	29.2969	63.8993	29.2969	64.4751	29.2969	64.2418	29.2969	64.8955	29.2969	64.6393	29.2969	65.3309	29.2969	65.0685	29.2969	65.7519	29.2969	65.5011	29.2969	66.1304	29.2969	65.9081	29.2969	66.4422	29.2969	66.2626	29.2969	66.6684	29.2969	66.5423	29.2969	66.7956	29.2969	66.7307	29.2969	66.8167
32.2266	66.4518	32.2266	66.4754	32.2266	66.4557	32.2266	66.5287	32.2266	66.4876	32.2266	66.6163	32.2266	66.5505	32.2266	66.7445	32.2266	66.6496	32.2266	66.9201	32.2266	66.7916	32.2266	67.1488	32.2266	66.9831	32.2266	67.4334	32.2266	67.2287	32.2266	67.7718	32.2266	67.5299	32.2266	68.1565	32.2266	67.8829	32.2266	68.5743	32.2266	68.2784	32.2266	69.0074	32.2266	68.702	32.2266	69.4351	32.2266	69.1348	32.2266	69.8357	32.2266	69.5559	32.2266	70.1883	32.2266	69.9438	32.2266	70.4744	32.2266	70.2784	32.2266	70.679	32.2266	70.5421	32.2266	70.7912	32.2266	70.7209	32.2266	70.8054
35.1563	71.59	35.1563	71.6107	35.1563	71.595	35.1563	71.6581	35.1563	71.6257	35.1563	71.7341	35.1563	71.6835	35.1563	71.8417	35.1563	71.7707	35.1563	71.9838	35.1563	71.8901	35.1563	72.163	35.1563	72.0444	35.1563	72.3804	35.1563	72.236	35.1563	72.6351	35.1563	72.4652	35.1563	72.9228	35.1563	72.7303	35.1563	73.2362	35.1563	73.0261	35.1563	73.564	35.1563	73.3441	35.1563	73.8919	35.1563	73.6722	35.1563	74.2038	35.1563	73.9957	35.1563	74.4825	35.1563	74.2978	35.1563	74.7117	35.1563	74.5617	35.1563	74.8776	35.1563	74.7718	35.1563	74.9698	35.1563	74.9151	35.1563	74.9826
38.0859	73.9055	38.0859	73.9244	38.0859	73.9077	38.0859	73.9648	38.0859	73.9309	38.0859	74.0278	38.0859	73.976	38.0859	74.1151	38.0859	74.0442	38.0859	74.2283	38.0859	74.1372	38.0859	74.3689	38.0859	74.2566	38.0859	74.5378	38.0859	74.4038	38.0859	74.7345	38.0859	74.5794	38.0859	74.9567	38.0859	74.7826	38.0859	75.1995	38.0859	75.0104	38.0859	75.4553	38.0859	75.2573	38.0859	75.7134	38.0859	75.5148	38.0859	75.9611	38.0859	75.7719	38.0859	76.1842	38.0859	76.0152	38.0859	76.3686	38.0859	76.2306	38.0859	76.5021	38.0859	76.4043	38.0859	76.5753	38.0859	76.5246	38.0859	76.583
41.0156	74.1776	41.0156	74.198	41.0156	74.1761	41.0156	74.2375	41.0156	74.1935	41.0156	74.2965	41.0156	74.2303	41.0156	74.3756	41.0156	74.2869	41.0156	74.4753	41.0156	74.3641	41.0156	74.5962	41.0156	74.4625	41.0156	74.7383	41.0156	74.5827	41.0156	74.9008	41.0156	74.7248	41.0156	75.0817	41.0156	74.888	41.0156	75.2772	41.0156	75.0703	41.0156	75.4816	41.0156	75.2676	41.0156	75.6867	41.0156	75.474	41.0156	75.8826	41.0156	75.6812	41.0156	76.0582	41.0156	75.879	41.0156	76.2021	41.0156	76.056	41.0156	76.3044	41.0156	76.201	41.0156	76.3575	41.0156	76.3039	41.0156	76.3574
43.9453	74.1793	43.9453	74.1982	43.9453	74.176	43.9453	74.2327	43.9453	74.1885	43.9453	74.2827	43.9453	74.2165	43.9453	74.348	43.9453	74.2601	43.9453	74.4284	43.9453	74.3193	43.9453	74.5233	43.9453	74.3938	43.9453	74.6322	43.9453	74.4837	43.9453	74.7541	43.9453	74.5883	43.9453	74.887	43.9453	74.7071	43.9453	75.0284	43.9453	74.8386	43.9453	75.1743	43.9453	74.9803	43.9453	75.3193	43.9453	75.1283	43.9453	75.4568	43.9453	75.2774	43.9453	75.5792	43.9453	75.4206	43.9453	75.6786	43.9453	75.55	43.9453	75.7481	43.9453	75.6573	43.9453	75.7821	43.9453	75.7351	43.9453	75.7777
46.875	75.0108	46.875	75.0221	46.875	75.013	46.875	75.0466	46.875	75.0284	46.875	75.084	46.875	75.057	46.875	75.1337	46.875	75.0983	46.875	75.1953	46.875	75.1518	46.875	75.2678	46.875	75.217	46.875	75.3506	46.875	75.2932	46.875	75.4427	46.875	75.3796	46.875	75.5429	46.875	75.4754	46.875	75.6495	46.875	75.5792	46.875	75.7602	46.875	75.6892	46.875	75.8717	46.875	75.8024	46.875	75.9796	46.875	75.9149	46.875	76.0783	46.875	76.0215	46.875	76.1619	46.875	76.116	46.875	76.2243	46.875	76.1921	46.875	76.2606	46.875	76.2439	46.875	76.2673
49.8047	75.7738	49.8047	75.7797	49.8047	75.7827	49.8047	75.8002	49.8047	75.8063	49.8047	75.8347	49.8047	75.8444	49.8047	75.8825	49.8047	75.8961	49.8047	75.9426	49.8047	75.9605	49.8047	76.014	49.8047	76.0366	49.8047	76.0954	49.8047	76.123	49.8047	76.1858	49.8047	76.2183	49.8047	76.2839	49.8047	76.321	49.8047	76.3884	49.8047	76.429	49.8047	76.4973	49.8047	76.5401	49.8047	76.608	49.8047	76.651	49.8047	76.7168	49.8047	76.7579	49.8047	76.8189	49.8047	76.8556	49.8047	76.9087	49.8047	76.9386	49.8047	76.9801	49.8047	77.0012	49.8047	77.0277	49.8047	77.0387	49.8047	77.0478
52.7344	75.6068	52.7344	75.6126	52.7344	75.6171	52.7344	75.6339	52.7344	75.6433	52.7344	75.6701	52.7344	75.6852	52.7344	75.72	52.7344	75.7418	52.7344	75.7822	52.7344	75.812	52.7344	75.8555	52.7344	75.8942	52.7344	75.9381	52.7344	75.9867	52.7344	76.0288	52.7344	76.0873	52.7344	76.126	52.7344	76.194	52.7344	76.2283	52.7344	76.3041	52.7344	76.3339	52.7344	76.4149	52.7344	76.4405	52.7344	76.5229	52.7344	76.545	52.7344	76.6243	52.7344	76.6431	52.7344	76.7144	52.7344	76.73	52.7344	76.7884	52.7344	76.8004	52.7344	76.8419	52.7344	76.8495	52.7344	76.8711	52.7344	76.8737
55.6641	75.391	55.6641	75.4025	55.6641	75.3887	55.6641	75.4227	55.6641	75.3958	55.6641	75.4504	55.6641	75.4123	55.6641	75.4845	55.6641	75.4377	55.6641	75.5237	55.6641	75.471	55.6641	75.5664	55.6641	75.5113	55.6641	75.6113	55.6641	75.5571	55.6641	75.6571	55.6641	75.6069	55.6641	75.7029	55.6641	75.6593	55.6641	75.7479	55.6641	75.7126	55.6641	75.7915	55.6641	75.7652	55.6641	75.8332	55.6641	75.8156	55.6641	75.8724	55.6641	75.8622	55.6641	75.9079	55.6641	75.9032	55.6641	75.9383	55.6641	75.9371	55.6641	75.9619	55.6641	75.9623	55.6641	75.9771	55.6641	75.9777	55.6641	75.9826
58.5938	76.3298	58.5938	76.3445	58.5938	76.3179	58.5938	76.3612	58.5938	76.3088	58.5938	76.3792	58.5938	76.3021	58.5938	76.3968	58.5938	76.297	58.5938	76.4125	58.5938	76.2922	58.5938	76.4243	58.5938	76.2864	58.5938	76.4304	58.5938	76.2783	58.5938	76.4293	58.5938	76.2665	58.5938	76.4199	58.5938	76.2503	58.5938	76.4015	58.5938	76.2295	58.5938	76.3746	58.5938	76.2048	58.5938	76.3401	58.5938	76.1776	58.5938	76.3001	58.5938	76.1504	58.5938	76.257	58.5938	76.1263	58.5938	76.2139	58.5938	76.1085	58.5938	76.1739	58.5938	76.0997	58.5938	76.1403	58.5938	76.1019	58.5938	76.1157
61.5234	77.7785	61.5234	77.7926	61.5234	77.7711	61.5234	77.8129	61.5234	77.7701	61.5234	77.8383	61.5234	77.7745	61.5234	77.8671	61.5234	77.7829	61.5234	77.897	61.5234	77.7932	61.5234	77.9257	61.5234	77.8034	61.5234	77.9504	61.5234	77.8112	61.5234	77.9688	61.5234	77.8149	61.5234	77.9788	61.5234	77.813	61.5234	77.9792	61.5234	77.8052	61.5234	77.9697	61.5234	77.7922	61.5234	77.9508	61.5234	77.7758	61.5234	77.924	61.5234	77.7587	61.5234	77.8917	61.5234	77.7443	61.5234	77.8565	61.5234	77.7358	61.5234	77.8214	61.5234	77.7356	61.5234	77.7894	61.5234	77.7447	61.5234	77.7631
64.4531	78.5249	64.4531	78.5406	64.4531	78.524	64.4531	78.5705	64.4531	78.5375	64.4531	78.6133	64.4531	78.5642	64.4531	78.6668	64.4531	78.6022	64.4531	78.7283	64.4531	78.6491	64.4531	78.7948	64.4531	78.702	64.4531	78.8628	64.4531	78.758	64.4531	78.9292	64.4531	78.8142	64.4531	78.991	64.4531	78.8683	64.4531	79.0461	64.4531	78.9185	64.4531	79.0929	64.4531	78.9641	64.4531	79.1306	64.4531	79.005	64.4531	79.1592	64.4531	79.0419	64.4531	79.1789	64.4531	79.0754	64.4531	79.19	64.4531	79.106	64.4531	79.1928	64.4531	79.1335	64.4531	79.1879	64.4531	79.1572	64.4531	79.1757
67.3828	78.3258	67.3828	78.3418	67.3828	78.3324	67.3828	78.3797	67.3828	78.361	67.3828	78.4382	67.3828	78.4105	67.3828	78.5149	67.3828	78.4788	67.3828	78.6069	67.3828	78.563	67.3828	78.7105	67.3828	78.6598	67.3828	78.8221	67.3828	78.7656	67.3828	78.9374	67.3828	78.8764	67.3828	79.0527	67.3828	78.9886	67.3828	79.1645	67.3828	79.099	67.3828	79.2698	67.3828	79.2049	67.3828	79.366	67.3828	79.3039	67.3828	79.4512	67.3828	79.3942	67.3828	79.5233	67.3828	79.4738	67.3828	79.5805	67.3828	79.5409	67.3828	79.6208	67.3828	79.5932	67.3828	79.6428	67.3828	79.6286	67.3828	79.6454
70.3125	77.5338	70.3125	77.541	70.3125	77.5511	70.3125	77.5725	70.3125	77.5926	70.3125	77.6273	70.3125	77.6572	70.3125	77.7041	70.3125	77.7432	70.3125	77.8005	70.3125	77.8484	70.3125	77.9138	70.3125	77.9697	70.3125	78.0407	70.3125	78.1035	70.3125	78.1773	70.3125	78.2458	70.3125	78.3197	70.3125	78.3923	70.3125	78.4638	70.3125	78.5386	70.3125	78.6057	70.3125	78.6803	70.3125	78.7414	70.3125	78.8133	70.3125	78.8671	70.3125	78.9335	70.3125	78.9792	70.3125	79.0371	70.3125	79.0738	70.3125	79.1203	70.3125	79.1473	70.3125	79.1799	70.3125	79.1965	70.3125	79.2133	70.3125	79.2188
73.2422	76.92	73.2422	76.9208	73.2422	76.9324	73.2422	76.9345	73.2422	76.9583	73.2422	76.961	73.2422	76.9979	73.2422	77.0002	73.2422	77.0514	73.2422	77.052	73.2422	77.1187	73.2422	77.1158	73.2422	77.1992	73.2422	77.1911	73.2422	77.2914	73.2422	77.2768	73.2422	77.3936	73.2422	77.3714	73.2422	77.5028	73.2422	77.4729	73.2422	77.6156	73.2422	77.5788	73.2422	77.728	73.2422	77.6861	73.2422	77.8354	73.2422	77.7912	73.2422	77.9333	73.2422	77.8902	73.2422	78.0168	73.2422	77.9785	73.2422	78.0819	73.2422	78.0517	73.2422	78.125	73.2422	78.1056	73.2422	78.1437	73.2422	78.137
76.1719	77.4272	76.1719	77.4221	76.1719	77.4288	76.1719	77.4135	76.1719	77.4273	76.1719	77.401	76.1719	77.4232	76.1719	77.3846	76.1719	77.4167	76.1719	77.3642	76.1719	77.4083	76.1719	77.3402	76.1719	77.3981	76.1719	77.313	76.1719	77.3866	76.1719	77.2834	76.1719	77.3738	76.1719	77.2527	76.1719	77.3601	76.1719	77.2227	76.1719	77.3454	76.1719	77.1951	76.1719	77.3297	76.1719	77.1722	76.1719	77.3129	76.1719	77.1557	76.1719	77.2948	76.1719	77.147	76.1719	77.2751	76.1719	77.1465	76.1719	77.2539	76.1719	77.154	76.1719	77.2315	76.1719	77.168	76.1719	77.2087	76.1719	77.1869
79.1016	78.369	79.1016	78.3627	79.1016	78.3702	79.1016	78.3507	79.1016	78.3661	79.1016	78.3321	79.1016	78.3565	79.1016	78.3059	79.1016	78.3406	79.1016	78.2707	79.1016	78.3173	79.1016	78.225	79.1016	78.2854	79.1016	78.1677	79.1016	78.2434	79.1016	78.0981	79.1016	78.1903	79.1016	78.0163	79.1016	78.1253	79.1016	77.9237	79.1016	78.0484	79.1016	77.8233	79.1016	77.9604	79.1016	77.7194	79.1016	77.8637	79.1016	77.6181	79.1016	77.7619	79.1016	77.5264	79.1016	77.66	79.1016	77.4516	79.1016	77.5645	79.1016	77.4001	79.1016	77.4823	79.1016	77.3768	79.1016	77.4201	79.1016	77.3838
82.0313	79.2761	82.0313	79.2867	82.0313	79.2637	82.0313	79.2946	82.0313	79.2494	82.0313	79.2986	82.0313	79.2326	82.0313	79.2966	82.0313	79.2121	82.0313	79.2861	82.0313	79.1861	82.0313	79.2646	82.0313	79.1527	82.0313	79.2291	82.0313	79.1096	82.0313	79.1772	82.0313	79.0546	82.0313	79.1073	82.0313	78.9863	82.0313	79.0191	82.0313	78.9041	82.0313	78.914	82.0313	78.8089	82.0313	78.7959	82.0313	78.7038	82.0313	78.6707	82.0313	78.5937	82.0313	78.5469	82.0313	78.4859	82.0313	78.4341	82.0313	78.3893	82.0313	78.3425	82.0313	78.3132	82.0313	78.2807	82.0313	78.2663	82.0313	78.2546
84.9609	79.6226	84.9609	79.6399	84.9609	79.607	84.9609	79.6581	84.9609	79.593	84.9609	79.6757	84.9609	79.5798	84.9609	79.6903	84.9609	79.5661	84.9609	79.6992	84.9609	79.5498	84.9609	79.6988	84.9609	79.5283	84.9609	79.6857	84.9609	79.4987	84.9609	79.6566	84.9609	79.4586	84.9609	79.6088	84.9609	79.4057	84.9609	79.5409	84.9609	79.339	84.9609	79.4534	84.9609	79.259	84.9609	79.3492	84.9609	79.1684	84.9609	79.2337	84.9609	79.0724	84.9609	79.1149	84.9609	78.9784	84.9609	79.0024	84.9609	78.8955	84.9609	78.9066	84.9609	78.833	84.9609	78.8369	84.9609	78.7995	84.9609	78.8003
87.8906	79.6221	87.8906	79.6367	87.8906	79.613	87.8906	79.6563	87.8906	79.6092	87.8906	79.6797	87.8906	79.6093	87.8906	79.7044	87.8906	79.6115	87.8906	79.7275	87.8906	79.6132	87.8906	79.7455	87.8906	79.6117	87.8906	79.7542	87.8906	79.6037	87.8906	79.7501	87.8906	79.5864	87.8906	79.7298	87.8906	79.5575	87.8906	79.6915	87.8906	79.5157	87.8906	79.635	87.8906	79.4616	87.8906	79.5623	87.8906	79.3975	87.8906	79.4777	87.8906	79.3279	87.8906	79.3879	87.8906	79.2591	87.8906	79.3008	87.8906	79.1986	87.8906	79.2251	87.8906	79.1541	87.8906	79.1685	87.8906	79.1321	87.8906	79.1366
90.8203	78.6618	90.8203	78.6526	90.8203	78.6916	90.8203	78.6642	90.8203	78.741	90.8203	78.696	90.8203	78.8084	90.8203	78.7464	90.8203	78.8913	90.8203	78.8132	90.8203	78.9863	90.8203	78.8931	90.8203	79.0895	90.8203	78.9819	90.8203	79.1961	90.8203	79.0753	90.8203	79.3011	90.8203	79.1685	90.8203	79.3996	90.8203	79.2573	90.8203	79.4871	90.8203	79.3384	90.8203	79.5601	90.8203	79.4095	90.8203	79.6164	90.8203	79.4699	90.8203	79.6553	90.8203	79.5201	90.8203	79.6777	90.8203	79.5615	90.8203	79.6855	90.8203	79.5959	90.8203	79.6815	90.8203	79.6249	90.8203	79.6686	90.8203	79.6492
93.75	79.3978	93.75	79.3947	93.75	79.3979	93.75	79.3879	93.75	79.3959	93.75	79.3775	93.75	79.3928	93.75	79.3635	93.75	79.3897	93.75	79.3462	93.75	79.3878	93.75	79.326	93.75	79.3874	93.75	79.3032	93.75	79.3883	93.75	79.2781	93.75	79.3895	93.75	79.2509	93.75	79.389	93.75	79.2222	93.75	79.3848	93.75	79.1929	93.75	79.3744	93.75	79.1646	93.75	79.3563	93.75	79.1395	93.75	79.3298	93.75	79.12	93.75	79.2957	93.75	79.1091	93.75	79.2563	93.75	79.1087	93.75	79.215	93.75	79.1203	93.75	79.176	93.75	79.1433
96.6797	79.8594	96.6797	79.8724	96.6797	79.8364	96.6797	79.8754	96.6797	79.8036	96.6797	79.8677	96.6797	79.7606	96.6797	79.8484	96.6797	79.7071	96.6797	79.8161	96.6797	79.6425	96.6797	79.7695	96.6797	79.5667	96.6797	79.7068	96.6797	79.4792	96.6797	79.6269	96.6797	79.3804	96.6797	79.5291	96.6797	79.271	96.6797	79.4138	96.6797	79.1528	96.6797	79.2834	96.6797	79.0287	96.6797	79.1419	96.6797	78.903	96.6797	78.9955	96.6797	78.7815	96.6797	78.8523	96.6797	78.6713	96.6797	78.7215	96.6797	78.58	96.6797	78.6123	96.6797	78.5154	96.6797	78.533	96.6797	78.4838	96.6797	78.4893
102.539	80.4581	102.539	80.4594	102.539	80.4592	102.539	80.4625	102.539	80.4621	102.539	80.4661	102.539	80.4656	102.539	80.4678	102.539	80.4675	102.539	80.4646	102.539	80.4648	102.539	80.4524	102.539	80.4541	102.539	80.4271	102.539	80.4312	102.539	80.3846	102.539	80.3923	102.539	80.3214	102.539	80.3339	102.539	80.2357	102.539	80.2541	102.539	80.1282	102.539	80.1527	102.539	80.0025	102.539	80.0327	102.539	79.866	102.539	79.8998	102.539	79.7289	102.539	79.7634	102.539	79.604	102.539	79.6353	102.539	79.5047	102.539	79.5286	102.539	79.4427	102.539	79.4556	102.539	79.4256
105.469	80.5451	105.469	80.558	105.469	80.5427	105.469	80.5804	105.469	80.5508	105.469	80.6104	105.469	80.5683	105.469	80.6447	105.469	80.5929	105.469	80.6793	105.469	80.6213	105.469	80.7094	105.469	80.6489	105.469	80.7294	105.469	80.6707	105.469	80.7341	105.469	80.681	105.469	80.7189	105.469	80.6747	105.469	80.6806	105.469	80.6479	105.469	80.6186	105.469	80.5987	105.469	80.5354	105.469	80.5279	105.469	80.4371	105.469	80.4401	105.469	80.3328	105.469	80.343	105.469	80.2342	105.469	80.2474	105.469	80.1537	105.469	80.1656	105.469	80.1021	105.469	80.1091	105.469	80.0866
108.398	80.3437	108.398	80.3662	108.398	80.3395	108.398	80.406	108.398	80.3536	108.398	80.4612	108.398	80.385	108.398	80.529	108.398	80.4319	108.398	80.6052	108.398	80.491	108.398	80.6846	108.398	80.5577	108.398	80.761	108.398	80.6264	108.398	80.8279	108.398	80.6907	108.398	80.8791	108.398	80.7443	108.398	80.9095	108.398	80.7815	108.398	80.9162	108.398	80.7989	108.398	80.8993	108.398	80.7955	108.398	80.8619	108.398	80.7736	108.398	80.8103	108.398	80.7389	108.398	80.7534	108.398	80.6995	108.398	80.7007	108.398	80.6646	108.398	80.6612	108.398	80.6432	108.398	80.6413
111.328	79.9984	111.328	80.0309	111.328	79.9883	111.328	80.0852	111.328	80.0008	111.328	80.1603	111.328	80.0359	111.328	80.2543	111.328	80.0925	111.328	80.364	111.328	80.1688	111.328	80.4848	111.328	80.2612	111.328	80.6103	111.328	80.3648	111.328	80.7332	111.328	80.4729	111.328	80.846	111.328	80.5786	111.328	80.9416	111.328	80.6752	111.328	81.0147	111.328	80.7573	111.328	81.0623	111.328	80.822	111.328	81.0846	111.328	80.8692	111.328	81.0846	111.328	80.9015	111.328	81.0679	111.328	80.9237	111.328	81.0413	111.328	80.9416	111.328	81.0114	111.328	80.9605	111.328	80.9836
117.188	79.4284	117.188	79.4193	117.188	79.4436	117.188	79.4189	117.188	79.4643	117.188	79.4324	117.188	79.4929	117.188	79.466	117.188	79.5334	117.188	79.5256	117.188	79.5908	117.188	79.615	117.188	79.6697	117.188	79.7349	117.188	79.7724	117.188	79.8818	117.188	79.8987	117.188	80.0485	117.188	80.0444	117.188	80.225	117.188	80.2027	117.188	80.4004	117.188	80.365	117.188	80.5648	117.188	80.5221	117.188	80.7102	117.188	80.6661	117.188	80.8311	117.188	80.7905	117.188	80.9245	117.188	80.8913	117.188	80.9893	117.188	80.966	117.188	81.0255	117.188	81.0135	117.188	81.0335
120.117	79.4736	120.117	79.4359	120.117	79.4977	120.117	79.3876	120.117	79.5086	120.117	79.3351	120.117	79.5101	120.117	79.2878	120.117	79.5089	120.117	79.2571	120.117	79.5135	120.117	79.2543	120.117	79.5333	120.117	79.2888	120.117	79.5766	120.117	79.3655	120.117	79.6488	120.117	79.4836	120.117	79.751	120.117	79.6364	120.117	79.8795	120.117	79.8124	120.117	80.0264	120.117	79.9981	120.117	80.1808	120.117	80.1799	120.117	80.3311	120.117	80.346	120.117	80.4661	120.117	80.487	120.117	80.5768	120.117	80.5963	120.117	80.6561	120.117	80.6696	120.117	80.6994	120.117	80.7042
125.977	79.8798	125.977	79.859	125.977	79.8678	125.977	79.8056	125.977	79.8249	125.977	79.7217	125.977	79.7551	125.977	79.612	125.977	79.6645	125.977	79.484	125.977	79.5617	125.977	79.3484	125.977	79.4573	125.977	79.2188	125.977	79.3637	125.977	79.1107	125.977	79.2933	125.977	79.0392	125.977	79.2567	125.977	79.0155	125.977	79.26	125.977	79.0445	125.977	79.3033	125.977	79.1222	125.977	79.3797	125.977	79.2368	125.977	79.4772	125.977	79.3714	125.977	79.5802	125.977	79.5072	125.977	79.673	125.977	79.6267	125.977	79.7413	125.977	79.7162	125.977	79.7747	125.977	79.7668
128.906	80.0739	128.906	80.0725	128.906	80.0398	128.906	80.0358	128.906	79.9707	128.906	79.9649	128.906	79.8687	128.906	79.8622	128.906	79.7371	128.906	79.7319	128.906	79.5819	128.906	79.5803	128.906	79.4118	128.906	79.4168	128.906	79.2385	128.906	79.2538	128.906	79.0764	128.906	79.1059	128.906	78.9409	128.906	78.9879	128.906	78.8456	128.906	78.9115	128.906	78.7989	128.906	78.8824	128.906	78.8017	128.906	78.8974	128.906	78.8463	128.906	78.9457	128.906	78.9179	128.906	79.0106	128.906	78.9986	128.906	79.0739	128.906	79.0705	128.906	79.1196	128.906	79.1193	128.906	79.1364
134.766	80.5214	134.766	80.5042	134.766	80.5096	134.766	80.4587	134.766	80.4682	134.766	80.3858	134.766	80.3968	134.766	80.2868	134.766	80.2958	134.766	80.1637	134.766	80.1662	134.766	80.0194	134.766	80.0107	134.766	79.8587	134.766	79.8339	134.766	79.6881	134.766	79.6433	134.766	79.5162	134.766	79.449	134.766	79.3532	134.766	79.2635	134.766	79.209	134.766	79.1001	134.766	79.0917	134.766	78.9701	134.766	79.0054	134.766	78.8803	134.766	78.9487	134.766	78.831	134.766	78.9153	134.766	78.8159	134.766	78.8958	134.766	78.8239	134.766	78.8806	134.766	78.843	134.766	78.8634
137.695	80.7475	137.695	80.7264	137.695	80.7437	137.695	80.6809	137.695	80.7146	137.695	80.6114	137.695	80.66	137.695	80.5188	137.695	80.5801	137.695	80.4044	137.695	80.4752	137.695	80.2705	137.695	80.3468	137.695	80.1205	137.695	80.198	137.695	79.9597	137.695	80.0335	137.695	79.7955	137.695	79.8609	137.695	79.6366	137.695	79.6895	137.695	79.4923	137.695	79.5301	137.695	79.3709	137.695	79.393	137.695	79.2777	137.695	79.2857	137.695	79.2135	137.695	79.211	137.695	79.1745	137.695	79.1664	137.695	79.1538	137.695	79.145	137.695	79.1438	137.695	79.1383	137.695	79.1391
143.555	80.8732	143.555	80.8501	143.555	80.8726	143.555	80.8037	143.555	80.8481	143.555	80.7349	143.555	80.7998	143.555	80.6448	143.555	80.7281	143.555	80.535	143.555	80.634	143.555	80.4078	143.555	80.5189	143.555	80.2665	143.555	80.3852	143.555	80.1154	143.555	80.2363	143.555	79.9603	143.555	80.0775	143.555	79.8082	143.555	79.9154	143.555	79.6664	143.555	79.7581	143.555	79.5418	143.555	79.6141	143.555	79.4394	143.555	79.4909	143.555	79.3613	143.555	79.3934	143.555	79.3063	143.555	79.3231	143.555	79.2711	143.555	79.278	143.555	79.2518	143.555	79.2538	143.555	79.2461
149.414	80.8561	149.414	80.8297	149.414	80.8599	149.414	80.7817	149.414	80.8412	149.414	80.7138	149.414	80.8012	149.414	80.6289	149.414	80.742	149.414	80.5304	149.414	80.6666	149.414	80.4223	149.414	80.5786	149.414	80.3089	149.414	80.4817	149.414	80.195	149.414	80.3799	149.414	80.0854	149.414	80.2774	149.414	79.9849	149.414	80.1779	149.414	79.8978	149.414	80.0849	149.414	79.8272	149.414	80.0011	149.414	79.7746	149.414	79.9287	149.414	79.74	149.414	79.8685	149.414	79.7214	149.414	79.8202	149.414	79.7161	149.414	79.7828	149.414	79.721	149.414	79.7546	149.414	79.7342
155.273	80.9739	155.273	80.9512	155.273	80.9654	155.273	80.8987	155.273	80.9261	155.273	80.8187	155.273	80.8574	155.273	80.715	155.273	80.7626	155.273	80.5923	155.273	80.6461	155.273	80.4567	155.273	80.5143	155.273	80.3148	155.273	80.3745	155.273	80.174	155.273	80.235	155.273	80.0415	155.273	80.1036	155.273	79.9236	155.273	79.9873	155.273	79.8254	155.273	79.8909	155.273	79.7498	155.273	79.8163	155.273	79.6972	155.273	79.7626	155.273	79.6657	155.273	79.7263	155.273	79.6515	155.273	79.7028	155.273	79.6495	155.273	79.6869	155.273	79.6551	155.273	79.6748	155.273	79.6642
158.203	81.0818	158.203	81.0586	158.203	81.0714	158.203	81.003	158.203	81.028	158.203	80.9175	158.203	80.9531	158.203	80.806	158.203	80.8502	158.203	80.6741	158.203	80.7239	158.203	80.5287	158.203	80.5809	158.203	80.378	158.203	80.4291	158.203	80.2306	158.203	80.2772	158.203	80.0948	158.203	80.1345	158.203	79.9775	158.203	80.0089	158.203	79.8832	158.203	79.9064	158.203	79.8135	158.203	79.8295	158.203	79.7669	158.203	79.7775	158.203	79.7399	158.203	79.7467	158.203	79.7271	158.203	79.7314	158.203	79.7231	158.203	79.7257	158.203	79.7231	158.203	79.7244	158.203	79.7239
164.063	80.7984	164.063	80.7975	164.063	80.771	164.063	80.7683	164.063	80.7159	164.063	80.7124	164.063	80.6355	164.063	80.6326	164.063	80.5329	164.063	80.5335	164.063	80.4133	164.063	80.4209	164.063	80.2831	164.063	80.3025	164.063	80.1502	164.063	80.1865	164.063	80.0233	164.063	80.0811	164.063	79.9111	164.063	79.9932	164.063	79.8206	164.063	79.9266	164.063	79.7564	164.063	79.8819	164.063	79.7195	164.063	79.8561	164.063	79.7074	164.063	79.8437	164.063	79.7147	164.063	79.8381	164.063	79.7349	164.063	79.8332	164.063	79.761	164.063	79.8243	164.063	79.7872	164.063	79.809
169.922	80.8248	169.922	80.7846	169.922	80.8279	169.922	80.7105	169.922	80.7926	169.922	80.6076	169.922	80.7198	169.922	80.4827	169.922	80.6128	169.922	80.3446	169.922	80.4781	169.922	80.2036	169.922	80.3252	169.922	80.0718	169.922	80.1666	169.922	79.961	169.922	80.0174	169.922	79.8819	169.922	79.8929	169.922	79.8413	169.922	79.8061	169.922	79.8407	169.922	79.765	169.922	79.8751	169.922	79.7701	169.922	79.9342	169.922	79.8145	169.922	80.0044	169.922	79.8856	169.922	80.0712	169.922	79.9679	169.922	80.1219	169.922	80.0461	169.922	80.1474	169.922	80.1073	169.922	80.1426
175.781	80.893	175.781	80.8484	175.781	80.8953	175.781	80.7632	175.781	80.8553	175.781	80.6412	175.781	80.7752	175.781	80.489	175.781	80.6593	175.781	80.316	175.781	80.5141	175.781	80.1346	175.781	80.3493	175.781	79.96	175.781	80.1776	175.781	79.8082	175.781	80.0137	175.781	79.6938	175.781	79.8734	175.781	79.627	175.781	79.7703	175.781	79.6104	175.781	79.7128	175.781	79.6387	175.781	79.7019	175.781	79.6998	175.781	79.7308	175.781	79.7778	175.781	79.7863	175.781	79.8566	175.781	79.8527	175.781	79.9219	175.781	79.9142	175.781	79.9635	175.781	79.9582	175.781	79.9759
181.641	80.9417	181.641	80.9092	181.641	80.9292	181.641	80.8319	181.641	80.873	181.641	80.7117	181.641	80.7757	181.641	80.5533	181.641	80.642	181.641	80.3643	181.641	80.4786	181.641	80.1567	181.641	80.295	181.641	79.9465	181.641	80.1043	181.641	79.7531	181.641	79.922	181.641	79.5964	181.641	79.7651	181.641	79.4929	181.641	79.6489	181.641	79.4507	181.641	79.5831	181.641	79.4672	181.641	79.5695	181.641	79.5293	181.641	79.6008	181.641	79.6177	181.641	79.6622	181.641	79.7114	181.641	79.7357	181.641	79.7919	181.641	79.8032	181.641	79.8458	181.641	79.8498	181.641	79.8656
190.43	81.0044	190.43	80.9819	190.43	80.9826	190.43	80.9164	190.43	80.9159	190.43	80.8105	190.43	80.8055	190.43	80.6685	190.43	80.6545	190.43	80.4962	190.43	80.4682	190.43	80.3022	190.43	80.2555	190.43	80.0982	190.43	80.0291	190.43	79.8988	190.43	79.8054	190.43	79.721	190.43	79.6039	190.43	79.5812	190.43	79.4439	190.43	79.4916	190.43	79.3404	190.43	79.4563	190.43	79.2998	190.43	79.4694	190.43	79.3177	190.43	79.5162	190.43	79.3797	190.43	79.5768	190.43	79.465	190.43	79.6309	190.43	79.5516	190.43	79.6618	190.43	79.6207	190.43	79.6592
196.289	81.1658	196.289	81.1281	196.289	81.1562	196.289	81.0454	196.289	81.099	196.289	80.9221	196.289	80.9959	196.289	80.7647	196.289	80.8515	196.289	80.5822	196.289	80.6727	196.289	80.3858	196.289	80.4696	196.289	80.1889	196.289	80.2557	196.289	80.006	196.289	80.047	196.289	79.8516	196.289	79.8608	196.289	79.7371	196.289	79.7132	196.289	79.669	196.289	79.6156	196.289	79.647	196.289	79.5722	196.289	79.6633	196.289	79.578	196.289	79.7048	196.289	79.6206	196.289	79.7557	196.289	79.6831	196.289	79.8004	196.289	79.7476	196.289	79.8267	196.289	79.799	196.289	79.8268
202.148	81.2563	202.148	81.2078	202.148	81.2527	202.148	81.1098	202.148	81.1964	202.148	80.9667	202.148	81.0888	202.148	80.7852	202.148	80.9337	202.148	80.5752	202.148	80.7381	202.148	80.3493	202.148	80.5124	202.148	80.1235	202.148	80.2716	202.148	79.9158	202.148	80.0343	202.148	79.7437	202.148	79.8211	202.148	79.6211	202.148	79.6518	202.148	79.5544	202.148	79.5403	202.148	79.5407	202.148	79.491	202.148	79.5687	202.148	79.4973	202.148	79.6217	202.148	79.544	202.148	79.6816	202.148	79.6113	202.148	79.7321	202.148	79.6797	202.148	79.7613	202.148	79.7335	202.148	79.7622
210.938	81.2507	210.938	81.1972	210.938	81.2561	210.938	81.0968	210.938	81.2137	210.938	80.9523	210.938	81.1253	210.938	80.7688	210.938	80.9941	210.938	80.5538	210.938	80.8252	210.938	80.318	210.938	80.6257	210.938	80.0753	210.938	80.4054	210.938	79.8425	210.938	80.177	210.938	79.6378	210.938	79.9556	210.938	79.4775	210.938	79.7578	210.938	79.3727	210.938	79.5989	210.938	79.326	210.938	79.4895	210.938	79.3302	210.938	79.4327	210.938	79.3701	210.938	79.4222	210.938	79.4263	210.938	79.4442	210.938	79.4799	210.938	79.4805	210.938	79.5163	210.938	79.5129	210.938	79.5273
216.797	81.2059	216.797	81.1589	216.797	81.2059	216.797	81.0665	216.797	81.1595	216.797	80.9322	216.797	81.0695	216.797	80.7619	216.797	80.9407	216.797	80.564	216.797	80.7802	216.797	80.3495	216.797	80.5971	216.797	80.1316	216.797	80.4021	216.797	79.9251	216.797	80.2073	216.797	79.7445	216.797	80.0247	216.797	79.6018	216.797	79.8649	216.797	79.5042	216.797	79.7363	216.797	79.4521	216.797	79.643	216.797	79.4394	216.797	79.5846	216.797	79.4549	216.797	79.5563	216.797	79.4854	216.797	79.5496	216.797	79.5182	216.797	79.5541	216.797	79.544	216.797	79.5596	216.797	79.5578
225.586	81.2535	225.586	81.2209	225.586	81.2334	225.586	81.1373	225.586	81.1613	225.586	81.0063	225.586	81.0399	225.586	80.8339	225.586	80.8745	225.586	80.6291	225.586	80.6735	225.586	80.4036	225.586	80.4486	225.586	80.1722	225.586	80.2148	225.586	79.9521	225.586	79.9895	225.586	79.7607	225.586	79.7908	225.586	79.6129	225.586	79.6342	225.586	79.5178	225.586	79.5296	225.586	79.4763	225.586	79.4788	225.586	79.4807	225.586	79.4752	225.586	79.5166	225.586	79.5056	225.586	79.5667	225.586	79.5537	225.586	79.6145	225.586	79.6032	225.586	79.6469	225.586	79.6404	225.586	79.6562
234.375	81.3831	234.375	81.3488	234.375	81.3651	234.375	81.2655	234.375	81.2936	234.375	81.1381	234.375	81.1694	234.375	80.973	234.375	80.9956	234.375	80.7784	234.375	80.778	234.375	80.564	234.375	80.5261	234.375	80.3411	234.375	80.2528	234.375	80.1221	234.375	79.9753	234.375	79.9206	234.375	79.714	234.375	79.7495	234.375	79.4903	234.375	79.619	234.375	79.3233	234.375	79.5344	234.375	79.2242	234.375	79.4936	234.375	79.1937	234.375	79.4871	234.375	79.2206	234.375	79.4997	234.375	79.2851	234.375	79.5138	234.375	79.3643	234.375	79.5137	234.375	79.4371	234.375	79.489
240.234	81.1956	240.234	81.1198	240.234	81.2202	240.234	80.9969	240.234	81.1917	240.234	80.8335	240.234	81.1101	240.234	80.6385	240.234	80.9779	240.234	80.4231	240.234	80.7994	240.234	80.2	240.234	80.5815	240.234	79.9825	240.234	80.334	240.234	79.7833	240.234	80.07	240.234	79.6132	240.234	79.8062	240.234	79.48	240.234	79.5616	240.234	79.3873	240.234	79.356	240.234	79.334	240.234	79.2058	240.234	79.3137	240.234	79.1195	240.234	79.3158	240.234	79.0952	240.234	79.3268	240.234	79.12	240.234	79.3326	240.234	79.1742	240.234	79.3219	240.234	79.2365	240.234	79.2893
249.023	81.0766	249.023	80.9928	249.023	81.1105	249.023	80.8595	249.023	81.095	249.023	80.679	249.023	81.0315	249.023	80.4554	249.023	80.9225	249.023	80.1951	249.023	80.7711	249.023	79.9077	249.023	80.5814	249.023	79.6066	249.023	80.3589	249.023	79.309	249.023	80.1111	249.023	79.0354	249.023	79.8485	249.023	78.8066	249.023	79.585	249.023	78.6396	249.023	79.3371	249.023	78.5428	249.023	79.1224	249.023	78.5125	249.023	78.9548	249.023	78.5336	249.023	78.8407	249.023	78.5842	249.023	78.7761	249.023	78.6418	249.023	78.7471	249.023	78.6895	249.023	78.7343	249.023	78.7193
257.813	81.4001	257.813	81.3545	257.813	81.3988	257.813	81.2629	257.813	81.3521	257.813	81.1282	257.813	81.2636	257.813	80.9551	257.813	81.1382	257.813	80.7492	257.813	80.9814	257.813	80.5164	257.813	80.7985	257.813	80.2633	257.813	80.5942	257.813	79.9973	257.813	80.3735	257.813	79.7285	257.813	80.142	257.813	79.4704	257.813	79.9078	257.813	79.2403	257.813	79.6821	257.813	79.0561	257.813	79.4782	257.813	78.9314	257.813	79.3091	257.813	78.8698	257.813	79.1826	257.813	78.8622	257.813	79.098	257.813	78.89	257.813	79.0452	257.813	78.932	257.813	79.0084	257.813	78.9729
266.602	80.9209	266.602	80.8517	266.602	80.942	266.602	80.7375	266.602	80.9149	266.602	80.5839	266.602	80.8417	266.602	80.399	266.602	80.726	266.602	80.1919	266.602	80.5724	266.602	79.9717	266.602	80.3859	266.602	79.7457	266.602	80.1713	266.602	79.52	266.602	79.9344	266.602	79.2992	266.602	79.6821	266.602	79.0892	266.602	79.4245	266.602	78.8979	266.602	79.175	266.602	78.7353	266.602	78.9499	266.602	78.611	266.602	78.765	266.602	78.5298	266.602	78.6307	266.602	78.4886	266.602	78.5477	266.602	78.4761	266.602	78.5062	266.602	78.478	266.602	78.4899	266.602	78.4833
278.32	80.8235	278.32	80.824	278.32	80.7694	278.32	80.7647	278.32	80.6753	278.32	80.6467	278.32	80.5601	278.32	80.4769	278.32	80.4442	278.32	80.2665	278.32	80.3433	278.32	80.0284	278.32	80.263	278.32	79.7761	278.32	80.1969	278.32	79.5216	278.32	80.1291	278.32	79.2757	278.32	80.041	278.32	79.0477	278.32	79.9176	278.32	78.8468	278.32	79.7532	278.32	78.682	278.32	79.5532	278.32	78.5611	278.32	79.334	278.32	78.4879	278.32	79.1178	278.32	78.4605	278.32	78.9262	278.32	78.4709	278.32	78.7718	278.32	78.5096	278.32	78.6556	278.32	78.5707
287.109	80.812	287.109	80.8335	287.109	80.7236	287.109	80.7948	287.109	80.5715	287.109	80.7091	287.109	80.3719	287.109	80.5907	287.109	80.1542	287.109	80.4518	287.109	79.9563	287.109	80.2985	287.109	79.8135	287.109	80.1303	287.109	79.7438	287.109	79.9418	287.109	79.7383	287.109	79.7263	287.109	79.7642	287.109	79.4809	287.109	79.7785	287.109	79.2109	287.109	79.743	287.109	78.9311	287.109	79.6357	287.109	78.6655	287.109	79.4538	287.109	78.4417	287.109	79.2137	287.109	78.2837	287.109	78.9454	287.109	78.206	287.109	78.6844	287.109	78.2126	287.109	78.462	287.109	78.3004
295.898	80.6522	295.898	80.5382	295.898	80.6433	295.898	80.3272	295.898	80.4996	295.898	80.0593	295.898	80.224	295.898	79.7885	295.898	79.8385	295.898	79.574	295.898	79.391	295.898	79.4627	295.898	78.9588	295.898	79.4688	295.898	78.6372	295.898	79.566	295.898	78.5028	295.898	79.7011	295.898	78.5684	295.898	79.8164	295.898	78.7743	295.898	79.8683	295.898	79.026	295.898	79.8351	295.898	79.2398	295.898	79.7189	295.898	79.3662	295.898	79.5427	295.898	79.3911	295.898	79.3459	295.898	79.3305	295.898	79.1747	295.898	79.2213	295.898	79.0693	295.898	79.1122	295.898	79.0508
307.617	82.1232	307.617	81.9702	307.617	82.144	307.617	81.6824	307.617	82.0336	307.617	81.2581	307.617	81.7913	307.617	80.7027	307.617	81.4163	307.617	80.0391	307.617	80.9123	307.617	79.324	307.617	80.2955	307.617	78.6647	307.617	79.6071	307.617	78.2136	307.617	78.9281	307.617	78.1038	307.617	78.3837	307.617	78.3526	307.617	78.1093	307.617	78.8455	307.617	78.1721	307.617	79.424	307.617	78.5203	307.617	79.9665	307.617	79.025	307.617	80.4063	307.617	79.5602	307.617	80.7181	307.617	80.0436	307.617	80.8989	307.617	80.435	307.617	80.9548	307.617	80.7195	307.617	80.8935
319.336	82.1731	319.336	82.0796	319.336	82.1658	319.336	81.8804	319.336	82.0603	319.336	81.5694	319.336	81.8572	319.336	81.1412	319.336	81.5561	319.336	80.5954	319.336	81.1574	319.336	79.9446	319.336	80.6666	319.336	79.2263	319.336	80.0998	319.336	78.5191	319.336	79.4931	319.336	77.9482	319.336	78.9109	319.336	77.6544	319.336	78.4461	319.336	77.7115	319.336	78.1955	319.336	78.0667	319.336	78.2104	319.336	78.5802	319.336	78.4605	319.336	79.1113	319.336	78.8523	319.336	79.564	319.336	79.2791	319.336	79.8866	319.336	79.6567	319.336	80.0568	319.336	79.9306	319.336	80.0695
331.055	81.9509	331.055	81.8752	331.055	81.9448	331.055	81.7117	331.055	81.8595	331.055	81.4518	331.055	81.6941	331.055	81.0863	331.055	81.4455	331.055	80.6095	331.055	81.1105	331.055	80.0244	331.055	80.6894	331.055	79.3531	331.055	80.1913	331.055	78.65	331.055	79.6403	331.055	78.0145	331.055	79.0833	331.055	77.5804	331.055	78.5922	331.055	77.4588	331.055	78.2521	331.055	77.6589	331.055	78.1282	331.055	78.0774	331.055	78.2288	331.055	78.5698	331.055	78.4972	331.055	79.0178	331.055	78.842	331.055	79.3497	331.055	79.1743	331.055	79.5314	331.055	79.4265	331.055	79.5539
342.773	81.6979	342.773	81.6425	342.773	81.6645	342.773	81.4979	342.773	81.5404	342.773	81.2605	342.773	81.3218	342.773	80.9241	342.773	81.0055	342.773	80.483	342.773	80.5915	342.773	79.9365	342.773	80.0877	342.773	79.2977	342.773	79.5162	342.773	78.607	342.773	78.9222	342.773	77.9473	342.773	78.3798	342.773	77.4463	342.773	77.9852	342.773	77.2349	342.773	77.823	342.773	77.3642	342.773	77.9177	342.773	77.7607	342.773	78.2146	342.773	78.2803	342.773	78.6122	342.773	78.7896	342.773	79.0093	342.773	79.2016	342.773	79.3311	342.773	79.4714	342.773	79.5305	342.773	79.5813
354.492	81.8954	354.492	81.8215	354.492	81.8867	354.492	81.6637	354.492	81.7936	354.492	81.4177	354.492	81.6108	354.492	81.0775	354.492	81.3307	354.492	80.6372	354.492	80.9449	354.492	80.0948	354.492	80.4475	354.492	79.4589	354.492	79.8409	354.492	78.7593	354.492	79.1447	354.492	78.0613	354.492	78.4101	354.492	77.4731	354.492	77.7324	354.492	77.1239	354.492	77.2444	354.492	77.0955	354.492	77.0634	354.492	77.3575	354.492	77.21	354.492	77.7857	354.492	77.5872	354.492	78.2384	354.492	78.0473	354.492	78.6092	354.492	78.4646	354.492	78.8353	354.492	78.7584	354.492	78.887
366.211	82.0113	366.211	81.9123	366.211	82.0389	366.211	81.7372	366.211	81.9946	366.211	81.4772	366.211	81.8729	366.211	81.1204	366.211	81.6646	366.211	80.655	366.211	81.3578	366.211	80.0748	366.211	80.9414	366.211	79.3865	366.211	80.4097	366.211	78.6237	366.211	79.7693	366.211	77.8624	366.211	79.0507	366.211	77.2281	366.211	78.3224	366.211	76.8627	366.211	77.6964	366.211	76.8408	366.211	77.3026	366.211	77.109	366.211	77.2184	366.211	77.5263	366.211	77.4081	366.211	77.9509	366.211	77.748	366.211	78.286	366.211	78.1031	366.211	78.4789	366.211	78.375	366.211	78.5082
377.93	82.1313	377.93	82.0587	377.93	82.1401	377.93	81.9186	377.93	82.0835	377.93	81.7023	377.93	81.9557	377.93	81.3975	377.93	81.7484	377.93	80.9907	377.93	81.453	377.93	80.4721	377.93	81.0645	377.93	79.8424	377.93	80.5863	377.93	79.1249	377.93	80.0363	377.93	78.3813	377.93	79.4548	377.93	77.7251	377.93	78.9088	377.93	77.305	377.93	78.4853	377.93	77.2305	377.93	78.262	377.93	77.4856	377.93	78.265	377.93	77.9376	377.93	78.4494	377.93	78.4285	377.93	78.7235	377.93	78.8422	377.93	78.9905	377.93	79.1154	377.93	79.1743	377.93	79.2248
392.578	81.8362	392.578	81.8104	392.578	81.7947	392.578	81.7095	392.578	81.6892	392.578	81.5233	392.578	81.5182	392.578	81.2393	392.578	81.2748	392.578	80.8444	392.578	80.9475	392.578	80.3279	392.578	80.5239	392.578	79.6882	392.578	79.9973	392.578	78.9449	392.578	79.3764	392.578	78.1592	392.578	78.7001	392.578	77.4554	392.578	78.0522	392.578	77.0093	392.578	77.5611	392.578	76.9565	392.578	77.3551	392.578	77.2762	392.578	77.4772	392.578	77.804	392.578	77.8452	392.578	78.3547	392.578	78.3101	392.578	78.8007	392.578	78.736	392.578	79.0757	392.578	79.0334	392.578	79.1535
407.227	81.4702	407.227	81.4181	407.227	81.4456	407.227	81.292	407.227	81.3404	407.227	81.0906	407.227	81.1513	407.227	80.8057	407.227	80.8756	407.227	80.4226	407.227	80.5114	407.227	79.9232	407.227	80.0573	407.227	79.2938	407.227	79.516	407.227	78.5401	407.227	78.9029	407.227	77.7112	407.227	78.2603	407.227	76.9325	407.227	77.6738	407.227	76.4134	407.227	77.2712	407.227	76.3511	407.227	77.1729	407.227	76.7557	407.227	77.4051	407.227	77.4307	407.227	77.8675	407.227	78.1406	407.227	78.4002	407.227	78.7257	407.227	78.8631	407.227	79.1064	407.227	79.1642	407.227	79.2528
421.875	81.7672	421.875	81.6852	421.875	81.7817	421.875	81.5385	421.875	81.7236	421.875	81.3263	421.875	81.5854	421.875	81.0422	421.875	81.3569	421.875	80.6737	421.875	81.0247	421.875	80.2019	421.875	80.5735	421.875	79.6067	421.875	79.9898	421.875	78.8769	421.875	79.2693	421.875	78.0292	421.875	78.4328	421.875	77.1417	421.875	77.5517	421.875	76.3878	421.875	76.7768	421.875	76.0073	421.875	76.3218	421.875	76.1373	421.875	76.3341	421.875	76.6633	421.875	76.7492	421.875	77.3264	421.875	77.3429	421.875	77.9089	421.875	77.8976	421.875	78.2893	421.875	78.2774	421.875	78.4155
436.523	81.6332	436.523	81.5667	436.523	81.6368	436.523	81.4283	436.523	81.5794	436.523	81.2044	436.523	81.454	436.523	80.8799	436.523	81.2446	436.523	80.4411	436.523	80.929	436.523	79.8787	436.523	80.482	436.523	79.1932	436.523	79.8825	436.523	78.4046	436.523	79.1224	436.523	77.5704	436.523	78.2254	436.523	76.8089	436.523	77.279	436.523	76.3003	436.523	76.4713	436.523	76.209	436.523	76.0607	436.523	76.5469	436.523	76.1967	436.523	77.1494	436.523	76.7579	436.523	77.8005	436.523	77.4715	436.523	78.3373	436.523	78.1117	436.523	78.6666	436.523	78.5536	436.523	78.7432
451.172	81.8688	451.172	81.8398	451.172	81.8421	451.172	81.7535	451.172	81.7583	451.172	81.602	451.172	81.6137	451.172	81.3681	451.172	81.4005	451.172	81.0243	451.172	81.1047	451.172	80.5345	451.172	80.7052	451.172	79.8593	451.172	80.1766	451.172	78.9664	451.172	79.4955	451.172	77.8519	451.172	78.6537	451.172	76.5926	451.172	77.6838	451.172	75.4397	451.172	76.7047	451.172	74.8418	451.172	75.9603	451.172	75.0878	451.172	75.7344	451.172	75.9163	451.172	76.0862	451.172	76.8532	451.172	76.7652	451.172	77.6039	451.172	77.456	451.172	78.0522	451.172	77.9556	451.172	78.1673
465.82	81.5266	465.82	81.4158	465.82	81.5971	465.82	81.2665	465.82	81.6185	465.82	81.0742	465.82	81.5752	465.82	80.8267	465.82	81.4439	465.82	80.5047	465.82	81.1957	465.82	80.0836	465.82	80.7991	465.82	79.5394	465.82	80.2255	465.82	78.8586	465.82	79.4573	465.82	78.056	465.82	78.5044	465.82	77.2048	465.82	77.4379	465.82	76.4697	465.82	76.4402	465.82	76.084	465.82	75.8121	465.82	76.1921	465.82	75.7914	465.82	76.6945	465.82	76.2979	465.82	77.3372	465.82	77.0199	465.82	77.8985	465.82	77.6846	465.82	78.2512	465.82	78.1444	465.82	78.3384
483.398	81.1977	483.398	81.2103	483.398	81.1379	483.398	81.1665	483.398	81.04	483.398	81.0546	483.398	80.9108	483.398	80.8565	483.398	80.7482	483.398	80.5444	483.398	80.5345	483.398	80.0825	483.398	80.235	483.398	79.4304	483.398	79.8025	483.398	78.5533	483.398	79.1887	483.398	77.4445	483.398	78.3592	483.398	76.18	483.398	77.3243	483.398	75.0259	483.398	76.1999	483.398	74.4707	483.398	75.2938	483.398	74.8189	483.398	75.0338	483.398	75.7603	483.398	75.5363	483.398	76.7827	483.398	76.4321	483.398	77.5873	483.398	77.2979	483.398	78.0602	483.398	77.9051	483.398	78.1673
500.977	80.7688	500.977	80.7397	500.977	80.7834	500.977	80.6932	500.977	80.7839	500.977	80.6203	500.977	80.7673	500.977	80.5003	500.977	80.7204	500.977	80.2991	500.977	80.6152	500.977	79.9715	500.977	80.4096	500.977	79.4686	500.977	80.0538	500.977	78.7463	500.977	79.4986	500.977	77.7819	500.977	78.7068	500.977	76.615	500.977	77.6744	500.977	75.4407	500.977	76.4854	500.977	74.7033	500.977	75.4156	500.977	74.8463	500.977	74.9491	500.977	75.7322	500.977	75.359	500.977	76.8166	500.977	76.3121	500.977	77.7047	500.977	77.2953	500.977	78.2276	500.977	78.0078	500.977	78.3305
518.555	80.0856	518.555	80.0252	518.555	80.0681	518.555	79.9153	518.555	79.9807	518.555	79.8022	518.555	79.865	518.555	79.7151	518.555	79.7708	518.555	79.6384	518.555	79.721	518.555	79.51	518.555	79.6906	518.555	79.2438	518.555	79.6146	518.555	78.7572	518.555	79.4137	518.555	77.9963	518.555	79.018	518.555	76.9771	518.555	78.3866	518.555	75.8778	518.555	77.5427	518.555	75.1493	518.555	76.6458	518.555	75.2865	518.555	76.0582	518.555	76.1889	518.555	76.1525	518.555	77.2931	518.555	76.8615	518.555	78.1861	518.555	77.747	518.555	78.6986	518.555	78.4452	518.555	78.7828
536.133	81.0202	536.133	80.9404	536.133	80.968	536.133	80.7469	536.133	80.7828	536.133	80.4708	536.133	80.4809	536.133	80.1446	536.133	80.0911	536.133	79.7828	536.133	79.6447	536.133	79.3649	536.133	79.1587	536.133	78.83	536.133	78.623	536.133	78.0902	536.133	77.9998	536.133	77.0569	536.133	77.2457	536.133	75.697	536.133	76.3582	536.133	74.1929	536.133	75.4591	536.133	73.2496	536.133	74.8816	536.133	73.7275	536.133	75.0273	536.133	75.2346	536.133	75.8888	536.133	76.8049	536.133	77.0222	536.133	77.9924	536.133	78.0212	536.133	78.697	536.133	78.6812	536.133	78.919
553.711	81.7333	553.711	81.5826	553.711	81.7354	553.711	81.2998	553.711	81.596	553.711	80.923	553.711	81.3428	553.711	80.5017	553.711	81.0156	553.711	80.0751	553.711	80.6508	553.711	79.6442	553.711	80.2597	553.711	79.1559	553.711	79.8126	553.711	78.5117	553.711	79.2382	553.711	77.5925	553.711	78.4385	553.711	76.2901	553.711	77.3119	553.711	74.5866	553.711	75.7996	553.711	72.8376	553.711	74.039	553.711	72.192	553.711	72.7448	553.711	73.3076	553.711	72.9933	553.711	75.0258	553.711	74.4367	553.711	76.4049	553.711	75.9262	553.711	77.1967	553.711	76.9441	553.711	77.3741
574.219	81.9949	574.219	81.9455	574.219	81.9008	574.219	81.7615	574.219	81.6729	574.219	81.47	574.219	81.3386	574.219	81.1102	574.219	80.9394	574.219	80.7176	574.219	80.5193	574.219	80.3002	574.219	80.104	574.219	79.8185	574.219	79.6785	574.219	79.1844	574.219	79.1827	574.219	78.2774	574.219	78.5291	574.219	76.9645	574.219	77.6357	574.219	75.1447	574.219	76.479	574.219	72.9746	574.219	75.2076	574.219	71.627	574.219	74.3229	574.219	72.6351	574.219	74.4625	574.219	74.7292	574.219	75.4944	574.219	76.4502	574.219	76.6791	574.219	77.4743	574.219	77.5176	574.219	77.8109
594.727	82.4228	594.727	82.2702	594.727	82.4053	594.727	81.9725	594.727	82.2115	594.727	81.5743	594.727	81.8577	594.727	81.1416	594.727	81.3888	594.727	80.7478	594.727	80.8762	594.727	80.438	594.727	80.3918	594.727	80.1839	594.727	79.9577	594.727	79.8749	594.727	79.5098	594.727	79.3525	594.727	78.9132	594.727	78.4566	594.727	78.0149	594.727	77.0728	594.727	76.7085	594.727	75.2682	594.727	75.0812	594.727	73.7264	594.727	73.7862	594.727	73.7875	594.727	73.9335	594.727	75.2518	594.727	75.3019	594.727	76.7563	594.727	76.7347	594.727	77.7111	594.727	77.6821	594.727	78.017
615.234	83.9537	615.234	83.7368	615.234	84.008	615.234	83.3733	615.234	83.8878	615.234	82.8846	615.234	83.5892	615.234	82.3031	615.234	83.1252	615.234	81.6753	615.234	82.5336	615.234	81.0523	615.234	81.8743	615.234	80.4615	615.234	81.2043	615.234	79.8728	615.234	80.5297	615.234	79.1899	615.234	79.7683	615.234	78.2787	615.234	78.7613	615.234	77.0192	615.234	77.3258	615.234	75.4229	615.234	75.37	615.234	73.9752	615.234	73.3233	615.234	73.8388	615.234	72.8631	615.234	75.1809	615.234	74.5204	615.234	76.756	615.234	76.4341	615.234	77.8091	615.234	77.6843	615.234	78.1364
638.672	84.3578	638.672	84.2589	638.672	84.3264	638.672	84.0093	638.672	84.1835	638.672	83.5962	638.672	83.9381	638.672	83.0231	638.672	83.5861	638.672	82.32	638.672	83.1167	638.672	81.5494	638.672	82.5292	638.672	80.7952	638.672	81.8527	638.672	80.1193	638.672	81.1528	638.672	79.505	638.672	80.4994	638.672	78.8423	638.672	79.8988	638.672	77.984	638.672	79.2533	638.672	76.8415	638.672	78.4057	638.672	75.5274	638.672	77.25	638.672	74.5394	638.672	75.9058	638.672	74.4886	638.672	74.9255	638.672	75.1654	638.672	74.9091	638.672	75.7993	638.672	75.5065	638.672	75.9288
659.18	83.3178	659.18	83.2212	659.18	83.322	659.18	83.0376	659.18	83.2342	659.18	82.7754	659.18	83.0604	659.18	82.4384	659.18	82.8064	659.18	82.0151	659.18	82.4684	659.18	81.4718	659.18	82.0245	659.18	80.7577	659.18	81.434	659.18	79.829	659.18	80.6526	659.18	78.6956	659.18	79.6603	659.18	77.4892	659.18	78.5107	659.18	76.504	659.18	77.399	659.18	76.0508	659.18	76.6693	659.18	76.1617	659.18	76.5776	659.18	76.6118	659.18	77	659.18	77.1864	659.18	77.5945	659.18	77.7498	659.18	78.1017	659.18	78.1927	659.18	78.3945	659.18	78.4243
682.617	83.6657	682.617	83.5418	682.617	83.6415	682.617	83.2929	682.617	83.4716	682.617	82.9532	682.617	83.1838	682.617	82.5454	682.617	82.8151	682.617	82.0626	682.617	82.3869	682.617	81.4655	682.617	81.886	682.617	80.6974	682.617	81.2648	682.617	79.7036	682.617	80.459	682.617	78.4546	682.617	79.4123	682.617	76.9987	682.617	78.1091	682.617	75.597	682.617	76.6518	682.617	74.859	682.617	75.4189	682.617	75.2697	682.617	75.0677	682.617	76.4299	682.617	75.8058	682.617	77.6474	682.617	77.0272	682.617	78.5702	682.617	78.1352	682.617	79.0951	682.617	78.8802	682.617	79.2009
706.055	83.6016	706.055	83.4806	706.055	83.5517	706.055	83.207	706.055	83.3428	706.055	82.8239	706.055	83.0121	706.055	82.38	706.055	82.6083	706.055	81.8984	706.055	82.167	706.055	81.3559	706.055	81.6843	706.055	80.6873	706.055	81.1049	706.055	79.8112	706.055	80.3408	706.055	78.66	706.055	79.312	706.055	77.2239	706.055	78.0071	706.055	75.6635	706.055	76.587	706.055	74.5148	706.055	75.4994	706.055	74.4955	706.055	75.2573	706.055	75.496	706.055	75.8149	706.055	76.7336	706.055	76.6825	706.055	77.7065	706.055	77.4974	706.055	78.2551	706.055	78.0912	706.055	78.368
732.422	82.8434	732.422	82.8014	732.422	82.792	732.422	82.6859	732.422	82.6604	732.422	82.5309	732.422	82.4899	732.422	82.3424	732.422	82.3146	732.422	82.0551	732.422	82.1049	732.422	81.5264	732.422	81.7388	732.422	80.5713	732.422	81.03	732.422	78.9963	732.422	79.7676	732.422	76.6413	732.422	77.7436	732.422	73.6852	732.422	74.9155	732.422	71.9419	732.422	72.4857	732.422	73.2107	732.422	73.1649	732.422	75.1484	732.422	75.2495	732.422	76.4889	732.422	76.7281	732.422	77.279	732.422	77.4988	732.422	77.7338	732.422	77.846	732.422	77.9796	732.422	78.0056	732.422	78.0587
758.789	81.2394	758.789	81.0051	758.789	81.1953	758.789	80.6217	758.789	80.9304	758.789	80.5149	758.789	80.6742	758.789	81.1672	758.789	80.8441	758.789	82.3973	758.789	81.7002	758.789	83.5336	758.789	82.9127	758.789	84.08	758.789	83.9005	758.789	83.7524	758.789	84.2446	758.789	82.2566	758.789	83.6444	758.789	78.9545	758.789	81.6954	758.789	71.5114	758.789	77.4184	758.789	68.5898	758.789	68.6238	758.789	77.6563	758.789	75.308	758.789	81.4838	758.789	80.8217	758.789	83.4707	758.789	83.4976	758.789	84.5379	758.789	84.8024	758.789	85.1032	758.789	85.3175	758.789	85.3619
785.156	85.2836	785.156	84.9023	785.156	85.1339	785.156	83.9601	785.156	84.4394	785.156	82.4371	785.156	83.1734	785.156	80.6724	785.156	81.4774	785.156	80.1832	785.156	80.2602	785.156	81.8832	785.156	81.0087	785.156	83.9558	785.156	82.9706	785.156	85.218	785.156	84.5936	785.156	85.3661	785.156	85.3208	785.156	84.1959	785.156	84.9458	785.156	81.2336	785.156	83.1687	785.156	75.2163	785.156	79.2111	785.156	73.1399	785.156	71.7081	785.156	79.8363	785.156	76.3364	785.156	83.3986	785.156	81.8713	785.156	85.2981	785.156	84.6798	785.156	86.2543	785.156	86.0599	785.156	86.5133
811.523	85.1198	811.523	84.827	811.523	85.0027	811.523	84.0514	811.523	84.4579	811.523	82.6384	811.523	83.3775	811.523	80.4479	811.523	81.5992	811.523	78.0937	811.523	79.1947	811.523	78.3817	811.523	77.8161	811.523	80.9454	811.523	79.5505	811.523	82.9575	811.523	81.9303	811.523	83.7629	811.523	83.3147	811.523	83.2362	811.523	83.4494	811.523	81.0205	811.523	82.1397	811.523	75.79	811.523	78.707	811.523	63.7628	811.523	70.1198	811.523	76.0563	811.523	71.3604	811.523	81.0711	811.523	79.2265	811.523	83.474	811.523	82.6282	811.523	84.5991	811.523	84.2645	811.523	84.8459
840.82	86.0208	840.82	85.7053	840.82	85.9459	840.82	84.9496	840.82	85.4495	840.82	83.5814	840.82	84.4246	840.82	81.2348	840.82	82.6478	840.82	77.3312	840.82	79.7273	840.82	73.9322	840.82	75.7816	840.82	77.8748	840.82	76.2647	840.82	81.5047	840.82	80.2518	840.82	83.157	840.82	82.7401	840.82	83.0944	840.82	83.5748	840.82	81.204	840.82	82.8004	840.82	76.9333	840.82	80.0676	840.82	73.9834	840.82	75.1834	840.82	79.2757	840.82	76.7308	840.82	83.0103	840.82	81.6815	840.82	85.0451	840.82	84.4903	840.82	86.048	840.82	85.8682	840.82	86.3145
870.117	85.8328	870.117	85.8771	870.117	85.816	870.117	85.8384	870.117	85.8053	870.117	85.499	870.117	85.6407	870.117	84.5261	870.117	85.0422	870.117	82.3466	870.117	83.5847	870.117	77.504	870.117	80.4505	870.117	63.1689	870.117	72.6593	870.117	77.4022	870.117	69.8074	870.117	82.8208	870.117	80.1031	870.117	85.0704	870.117	83.8894	870.117	85.5339	870.117	85.3436	870.117	84.6691	870.117	85.2331	870.117	83.2188	870.117	84.0076	870.117	83.1161	870.117	82.9421	870.117	84.8515	870.117	83.9144	870.117	86.6225	870.117	85.9077	870.117	87.6834	870.117	87.365	870.117	87.9462
902.344	83.5693	902.344	83.7308	902.344	83.6114	902.344	84.0726	902.344	83.8474	902.344	84.4839	902.344	84.2098	902.344	84.7299	902.344	84.5101	902.344	84.4793	902.344	84.4536	902.344	83.3038	902.344	83.6864	902.344	80.4911	902.344	81.7391	902.344	74.1291	902.344	77.719	902.344	70.4958	902.344	70.9938	902.344	78.7745	902.344	75.6307	902.344	82.0907	902.344	80.2816	902.344	82.9754	902.344	82.0776	902.344	82.1449	902.344	81.9269	902.344	80.009	902.344	80.121	902.344	78.0164	902.344	77.332	902.344	78.4194	902.344	76.6557	902.344	79.5888	902.344	78.5149	902.344	79.7271
931.641	83.4748	931.641	83.4379	931.641	83.454	931.641	83.3882	931.641	83.3994	931.641	83.3843	931.641	83.3667	931.641	83.3586	931.641	83.3458	931.641	83.0443	931.641	83.1692	931.641	82.0478	931.641	82.5196	931.641	79.8932	931.641	80.9911	931.641	76.1637	931.641	78.1799	931.641	73.9744	931.641	75.0166	931.641	77.545	931.641	76.445	931.641	80.2455	931.641	79.3913	931.641	80.9798	931.641	80.7136	931.641	79.8759	931.641	80.3088	931.641	76.7763	931.641	78.0993	931.641	71.717	931.641	73.6108	931.641	70.4757	931.641	68.378	931.641	73.1577	931.641	71.3246	931.641	73.6296
966.797	83.6385	966.797	83.5566	966.797	83.5879	966.797	83.3989	966.797	83.4352	966.797	83.256	966.797	83.2835	966.797	83.1452	966.797	83.1969	966.797	82.8961	966.797	83.0555	966.797	82.1422	966.797	82.5439	966.797	80.4022	966.797	81.2508	966.797	77.2117	966.797	78.74	966.797	74.0501	966.797	75.2071	966.797	76.2306	966.797	75.006	966.797	78.9463	966.797	77.9446	966.797	79.75	966.797	79.5	966.797	78.624	966.797	79.157	966.797	75.174	966.797	76.6891	966.797	68.096	966.797	70.8834	966.797	68.6395	966.797	63.8655	966.797	73.3345	966.797	71.4985	966.797	74.1402
999.023	83.1617	999.023	82.9005	999.023	83.0378	999.023	82.4174	999.023	82.5676	999.023	82.0529	999.023	82.0472	999.023	82.105	999.023	81.9485	999.023	82.419	999.023	82.3435	999.023	82.4109	999.023	82.6436	999.023	81.39	999.023	82.1521	999.023	78.4681	999.023	80.2401	999.023	72.1861	999.023	75.9217	999.023	73.6177	999.023	70.2155	999.023	79.1459	999.023	75.9913	999.023	81.1959	999.023	79.9593	999.023	80.9307	999.023	81.2862	999.023	78.7258	999.023	80.577	999.023	74.6911	999.023	77.7887	999.023	70.487	999.023	73.1926	999.023	71.0841	999.023	71.4167	999.023	72.2297
1,034.18	84.5568	1,034.18	84.3473	1,034.18	84.4576	1,034.18	83.778	1,034.18	84.0729	1,034.18	82.8324	1,034.18	83.3506	1,034.18	81.6179	1,034.18	82.2019	1,034.18	80.5052	1,034.18	80.7134	1,034.18	79.9979	1,034.18	79.4663	1,034.18	79.9853	1,034.18	79.1049	1,034.18	79.6511	1,034.18	79.121	1,034.18	78.1611	1,034.18	78.5311	1,034.18	74.827	1,034.18	76.7417	1,034.18	71.0646	1,034.18	73.5219	1,034.18	73.5966	1,034.18	70.9101	1,034.18	76.3173	1,034.18	73.1424	1,034.18	76.9351	1,034.18	75.7442	1,034.18	76.1129	1,034.18	76.8681	1,034.18	75.1601	1,034.18	76.8443	1,034.18	75.198	1,034.18	76.2957	1,034.18	75.7185
1,072.27	83.617	1,072.27	83.4645	1,072.27	83.5027	1,072.27	83.089	1,072.27	83.13	1,072.27	82.5399	1,072.27	82.5453	1,072.27	81.8189	1,072.27	81.7803	1,072.27	80.8831	1,072.27	80.8335	1,072.27	79.6948	1,072.27	79.7078	1,072.27	78.2754	1,072.27	78.4219	1,072.27	76.8047	1,072.27	77.0009	1,072.27	75.7456	1,072.27	75.653	1,072.27	75.4597	1,072.27	75.0192	1,072.27	75.491	1,072.27	75.2677	1,072.27	74.9986	1,072.27	75.2511	1,072.27	73.2865	1,072.27	73.7505	1,072.27	70.0477	1,072.27	69.878	1,072.27	69.1598	1,072.27	66.0292	1,072.27	72.7398	1,072.27	70.2817	1,072.27	74.9602	1,072.27	73.7477	1,072.27	75.2307
1,110.35	83.1386	1,110.35	82.9843	1,110.35	82.9993	1,110.35	82.5336	1,110.35	82.5922	1,110.35	81.817	1,110.35	81.974	1,110.35	80.9279	1,110.35	81.2272	1,110.35	79.9927	1,110.35	80.4139	1,110.35	79.0069	1,110.35	79.5037	1,110.35	77.759	1,110.35	78.3636	1,110.35	76.1226	1,110.35	76.8618	1,110.35	74.6583	1,110.35	75.1502	1,110.35	74.4668	1,110.35	74.0937	1,110.35	74.9898	1,110.35	74.2769	1,110.35	74.7007	1,110.35	74.4562	1,110.35	72.5742	1,110.35	73.2181	1,110.35	67.1272	1,110.35	69.2824	1,110.35	64.7398	1,110.35	61.9627	1,110.35	71.6462	1,110.35	68.5964	1,110.35	74.5563	1,110.35	73.2104	1,110.35	74.9408
1,148.44	83.0795	1,148.44	82.772	1,148.44	82.9866	1,148.44	82.1371	1,148.44	82.4938	1,148.44	81.3105	1,148.44	81.6947	1,148.44	80.4498	1,148.44	80.7976	1,148.44	79.6411	1,148.44	80.0318	1,148.44	78.788	1,148.44	79.3901	1,148.44	77.5953	1,148.44	78.5446	1,148.44	75.7569	1,148.44	77.1057	1,148.44	73.6571	1,148.44	75.0104	1,148.44	73.3348	1,148.44	73.3258	1,148.44	74.5471	1,148.44	73.6316	1,148.44	74.6781	1,148.44	74.4752	1,148.44	72.3665	1,148.44	73.9647	1,148.44	65.3607	1,148.44	70.7533	1,148.44	64.5689	1,148.44	62.007	1,148.44	72.1542	1,148.44	68.9468	1,148.44	75.1236	1,148.44	74.1689	1,148.44	75.7653
1,189.45	83.0617	1,189.45	82.7765	1,189.45	82.9421	1,189.45	82.0774	1,189.45	82.4337	1,189.45	80.9853	1,189.45	81.5604	1,189.45	79.6134	1,189.45	80.4087	1,189.45	78.2361	1,189.45	79.1894	1,189.45	77.0731	1,189.45	78.1161	1,189.45	75.834	1,189.45	77.1146	1,189.45	73.9222	1,189.45	75.8421	1,189.45	71.4717	1,189.45	74.0948	1,189.45	70.8897	1,189.45	72.5048	1,189.45	72.3221	1,189.45	72.4571	1,189.45	72.7552	1,189.45	73.037	1,189.45	70.8011	1,189.45	72.0986	1,189.45	63.479	1,189.45	67.4757	1,189.45	61.4154	1,189.45	55.0909	1,189.45	71.5325	1,189.45	69.7627	1,189.45	74.9302	1,189.45	74.2703	1,189.45	75.6855
1,230.47	82.3019	1,230.47	81.8711	1,230.47	82.3024	1,230.47	81.016	1,230.47	81.8666	1,230.47	79.8432	1,230.47	80.9804	1,230.47	78.6695	1,230.47	79.723	1,230.47	77.8628	1,230.47	78.4228	1,230.47	77.2924	1,230.47	77.5127	1,230.47	76.2724	1,230.47	76.8108	1,230.47	74.13	1,230.47	75.5197	1,230.47	71.3101	1,230.47	73.2423	1,230.47	71.5199	1,230.47	71.9937	1,230.47	73.4187	1,230.47	73.6914	1,230.47	73.5086	1,230.47	74.6482	1,230.47	70.8717	1,230.47	73.0295	1,230.47	63.6676	1,230.47	67.646	1,230.47	65.6962	1,230.47	65.8743	1,230.47	72.628	1,230.47	72.3475	1,230.47	75.7059	1,230.47	75.5091	1,230.47	76.5429
1,274.41	84.0591	1,274.41	83.8649	1,274.41	83.9276	1,274.41	83.2737	1,274.41	83.5259	1,274.41	82.1964	1,274.41	82.8075	1,274.41	80.494	1,274.41	81.5705	1,274.41	78.1714	1,274.41	79.6264	1,274.41	76.3102	1,274.41	77.4066	1,274.41	76.4329	1,274.41	76.504	1,274.41	76.6202	1,274.41	76.6449	1,274.41	74.425	1,274.41	75.4022	1,274.41	67.8768	1,274.41	70.7617	1,274.41	72.1747	1,274.41	68.342	1,274.41	77.2002	1,274.41	75.1369	1,274.41	78.2557	1,274.41	78.0178	1,274.41	76.3991	1,274.41	78.1234	1,274.41	72.4784	1,274.41	75.8875	1,274.41	71.8839	1,274.41	72.8637	1,274.41	74.4319	1,274.41	73.9503	1,274.41	75.3045
1,318.36	84.4499	1,318.36	84.4566	1,318.36	84.32	1,318.36	84.2783	1,318.36	84.06	1,318.36	83.8166	1,318.36	83.618	1,318.36	82.9213	1,318.36	82.9431	1,318.36	81.3849	1,318.36	81.8894	1,318.36	79.0873	1,318.36	80.1458	1,318.36	76.5298	1,318.36	77.5909	1,318.36	75.2115	1,318.36	75.4381	1,318.36	74.7534	1,318.36	75.1356	1,318.36	72.7879	1,318.36	74.608	1,318.36	67.8619	1,318.36	72.196	1,318.36	68.5231	1,318.36	69.0267	1,318.36	72.3758	1,318.36	69.6217	1,318.36	72.1262	1,318.36	70.5371	1,318.36	66.3885	1,318.36	68.7586	1,318.36	61.8967	1,318.36	65.8461	1,318.36	70.3687	1,318.36	69.2924	1,318.36	71.7595
1,365.23	83.2971	1,365.23	83.1929	1,365.23	83.2943	1,365.23	83.0598	1,365.23	83.1844	1,365.23	82.9359	1,365.23	83.0262	1,365.23	82.7042	1,365.23	82.8033	1,365.23	82.1564	1,365.23	82.3648	1,365.23	81.1659	1,365.23	81.5317	1,365.23	79.751	1,365.23	80.2286	1,365.23	77.9843	1,365.23	78.4993	1,365.23	75.9036	1,365.23	76.5044	1,365.23	74.1203	1,365.23	74.7786	1,365.23	74.2795	1,365.23	74.4172	1,365.23	75.4644	1,365.23	75.4	1,365.23	75.5506	1,365.23	76.0742	1,365.23	73.495	1,365.23	75.1089	1,365.23	68.3592	1,365.23	71.611	1,365.23	68.4499	1,365.23	68.6694	1,365.23	73.068	1,365.23	72.3197	1,365.23	74.1987
1,415.04	83.7395	1,415.04	83.4001	1,415.04	83.6905	1,415.04	82.824	1,415.04	83.2482	1,415.04	82.1452	1,415.04	82.5649	1,415.04	81.4004	1,415.04	81.8077	1,415.04	80.6075	1,415.04	81.0525	1,415.04	79.7551	1,415.04	80.2889	1,415.04	78.7281	1,415.04	79.3952	1,415.04	77.3412	1,415.04	78.1113	1,415.04	75.3548	1,415.04	76.1725	1,415.04	72.9611	1,415.04	73.7337	1,415.04	72.6631	1,415.04	72.5807	1,415.04	74.6315	1,415.04	74.0627	1,415.04	75.3522	1,415.04	75.4265	1,415.04	73.5575	1,415.04	74.9111	1,415.04	67.959	1,415.04	71.5561	1,415.04	52.4776	1,415.04	61.9141	1,415.04	65.4069	1,415.04	62.181	1,415.04	67.3705
1,464.84	84.2016	1,464.84	83.9574	1,464.84	84.1795	1,464.84	83.4147	1,464.84	83.848	1,464.84	82.5215	1,464.84	83.1644	1,464.84	81.3906	1,464.84	82.1559	1,464.84	80.3066	1,464.84	80.9297	1,464.84	79.333	1,464.84	79.6934	1,464.84	78.2176	1,464.84	78.7223	1,464.84	76.8069	1,464.84	77.955	1,464.84	74.9003	1,464.84	76.6776	1,464.84	72.2019	1,464.84	74.0649	1,464.84	71.4589	1,464.84	71.4858	1,464.84	74.0527	1,464.84	73.5322	1,464.84	74.9998	1,464.84	75.4153	1,464.84	72.8225	1,464.84	74.5723	1,464.84	65.0318	1,464.84	69.8065	1,464.84	60.6143	1,464.84	45.7387	1,464.84	69.7479	1,464.84	67.7213	1,464.84	71.1235
1,514.65	84.3009	1,514.65	84.1859	1,514.65	84.0529	1,514.65	83.6945	1,514.65	83.5228	1,514.65	82.8801	1,514.65	82.772	1,514.65	81.7612	1,514.65	81.8132	1,514.65	80.338	1,514.65	80.6268	1,514.65	78.8784	1,514.65	79.2503	1,514.65	78.0361	1,514.65	78.044	1,514.65	77.6744	1,514.65	77.4792	1,514.65	76.4644	1,514.65	76.945	1,514.65	73.0996	1,514.65	75.1212	1,514.65	69.3672	1,514.65	72.0113	1,514.65	73.0219	1,514.65	72.8301	1,514.65	75.2099	1,514.65	75.4343	1,514.65	74.035	1,514.65	75.5782	1,514.65	68.1494	1,514.65	72.2625	1,514.65	61.178	1,514.65	62.0874	1,514.65	69.4954	1,514.65	66.5074	1,514.65	70.615
1,570.31	84.2397	1,570.31	84.116	1,570.31	84.1563	1,570.31	83.7947	1,570.31	83.7825	1,570.31	83.1759	1,570.31	83.0552	1,570.31	82.1187	1,570.31	82.0118	1,570.31	80.6362	1,570.31	80.6565	1,570.31	78.8624	1,570.31	78.9708	1,570.31	77.2208	1,570.31	77.3931	1,570.31	76.7897	1,570.31	76.6666	1,570.31	76.6137	1,570.31	76.2703	1,570.31	74.2151	1,570.31	74.726	1,570.31	68.8477	1,570.31	70.7175	1,570.31	72.2764	1,570.31	71.0441	1,570.31	75.4908	1,570.31	75.4557	1,570.31	75.0281	1,570.31	76.3927	1,570.31	70.6111	1,570.31	73.3893	1,570.31	61.1921	1,570.31	64.1001	1,570.31	69.1842	1,570.31	67.1067	1,570.31	71.0259
1,623.05	83.471	1,623.05	83.3134	1,623.05	83.334	1,623.05	82.9612	1,623.05	83.0557	1,623.05	82.5899	1,623.05	82.61	1,623.05	81.9716	1,623.05	81.8936	1,623.05	80.9124	1,623.05	80.8842	1,623.05	79.4573	1,623.05	79.2407	1,623.05	77.6618	1,623.05	76.6189	1,623.05	76.1532	1,623.05	74.3565	1,623.05	75.5534	1,623.05	74.0678	1,623.05	73.9629	1,623.05	73.037	1,623.05	69.8505	1,623.05	68.8867	1,623.05	71.0315	1,623.05	67.71	1,623.05	74.1155	1,623.05	73.1944	1,623.05	73.812	1,623.05	74.4865	1,623.05	69.179	1,623.05	70.6004	1,623.05	55.563	1,623.05	53.4904	1,623.05	70.4104	1,623.05	68.9819	1,623.05	72.4994
1,681.64	83.4549	1,681.64	82.9838	1,681.64	83.1685	1,681.64	81.8168	1,681.64	82.2864	1,681.64	80.3533	1,681.64	81.0163	1,681.64	79.5515	1,681.64	79.6402	1,681.64	79.8345	1,681.64	79.0214	1,681.64	79.7731	1,681.64	79.228	1,681.64	77.903	1,681.64	78.324	1,681.64	74.3608	1,681.64	74.6305	1,681.64	74.2886	1,681.64	70.1609	1,681.64	75.1553	1,681.64	73.1449	1,681.64	70.6084	1,681.64	72.884	1,681.64	64.8513	1,681.64	62.7343	1,681.64	75.4249	1,681.64	69.5907	1,681.64	77.2278	1,681.64	75.5224	1,681.64	75.1793	1,681.64	76.1419	1,681.64	71.0038	1,681.64	74.1418	1,681.64	70.4578	1,681.64	71.5039	1,681.64	71.5939
1,740.23	83.1975	1,740.23	82.9322	1,740.23	83.361	1,740.23	82.5983	1,740.23	83.1481	1,740.23	81.9248	1,740.23	82.4565	1,740.23	80.6105	1,740.23	81.4096	1,740.23	78.8573	1,740.23	80.0262	1,740.23	77.9711	1,740.23	78.6882	1,740.23	77.9298	1,740.23	78.3352	1,740.23	76.6024	1,740.23	77.8673	1,740.23	73.1002	1,740.23	75.3894	1,740.23	71.4382	1,740.23	71.4052	1,740.23	71.3519	1,740.23	71.2184	1,740.23	66.3289	1,740.23	70.1945	1,740.23	68.8532	1,740.23	65.9922	1,740.23	73.2433	1,740.23	69.3251	1,740.23	72.7827	1,740.23	71.0317	1,740.23	69.2133	1,740.23	69.5071	1,740.23	66.2211	1,740.23	66.8631	1,740.23	66.5469
1,801.76	84.1454	1,801.76	83.9481	1,801.76	83.9786	1,801.76	83.3038	1,801.76	83.4741	1,801.76	82.3789	1,801.76	82.645	1,801.76	81.3278	1,801.76	81.7186	1,801.76	79.8599	1,801.76	80.7751	1,801.76	78.1466	1,801.76	79.4466	1,801.76	77.306	1,801.76	78.1357	1,801.76	76.9656	1,801.76	77.7303	1,801.76	75.9173	1,801.76	76.9065	1,801.76	74.2295	1,801.76	74.6596	1,801.76	71.7989	1,801.76	72.9107	1,801.76	67.745	1,801.76	71.7023	1,801.76	68.0623	1,801.76	69.453	1,801.76	70.3284	1,801.76	70.3546	1,801.76	68.3491	1,801.76	69.334	1,801.76	59.8386	1,801.76	59.8876	1,801.76	67.9557	1,801.76	63.9363	1,801.76	69.904
1,866.21	83.5469	1,866.21	83.1627	1,866.21	83.5478	1,866.21	82.8961	1,866.21	82.7858	1,866.21	82.4985	1,866.21	81.7399	1,866.21	81.6142	1,866.21	81.0292	1,866.21	80.281	1,866.21	80.3907	1,866.21	78.5698	1,866.21	79.1244	1,866.21	77.0623	1,866.21	77.3551	1,866.21	76.2461	1,866.21	76.244	1,866.21	74.9681	1,866.21	75.5729	1,866.21	73.4756	1,866.21	74.0911	1,866.21	71.9306	1,866.21	72.1726	1,866.21	68.3627	1,866.21	70.3094	1,866.21	69.1119	1,866.21	68.9697	1,866.21	71.6548	1,866.21	71.973	1,866.21	69.5979	1,866.21	72.7667	1,866.21	60.7336	1,866.21	67.086	1,866.21	61.672	1,866.21	58.1098	1,866.21	66.5507
1,930.66	83.3168	1,930.66	83.0398	1,930.66	83.0546	1,930.66	82.4682	1,930.66	82.365	1,930.66	81.6248	1,930.66	81.6764	1,930.66	80.5548	1,930.66	80.8863	1,930.66	79.7101	1,930.66	79.5494	1,930.66	78.7317	1,930.66	78.0534	1,930.66	77.1422	1,930.66	76.8472	1,930.66	76.2511	1,930.66	75.5676	1,930.66	75.4749	1,930.66	74.7528	1,930.66	73.1546	1,930.66	73.9444	1,930.66	71.3359	1,930.66	71.7547	1,930.66	69.4971	1,930.66	69.4728	1,930.66	68.4883	1,930.66	67.3374	1,930.66	71.1838	1,930.66	69.2678	1,930.66	68.5353	1,930.66	70.7185	1,930.66	50.4544	1,930.66	65.4818	1,930.66	64.612	1,930.66	60.4757	1,930.66	67.6579
2,000.98	83.0664	2,000.98	82.9299	2,000.98	83.2091	2,000.98	82.7586	2,000.98	83.1252	2,000.98	82.4189	2,000.98	82.8313	2,000.98	81.6991	2,000.98	82.4689	2,000.98	80.3565	2,000.98	81.5851	2,000.98	78.6774	2,000.98	79.9642	2,000.98	77.2169	2,000.98	78.1584	2,000.98	75.814	2,000.98	76.7526	2,000.98	74.3329	2,000.98	75.6388	2,000.98	72.8715	2,000.98	74.5369	2,000.98	71.4445	2,000.98	73.0306	2,000.98	69.6709	2,000.98	70.6389	2,000.98	68.4957	2,000.98	67.1399	2,000.98	70.0025	2,000.98	68.3482	2,000.98	69.0659	2,000.98	70.8805	2,000.98	59.7114	2,000.98	68.5786	2,000.98	64.5761	2,000.98	56.7452	2,000.98	65.2326
2,071.29	84.3658	2,071.29	83.8907	2,071.29	84.6061	2,071.29	83.8424	2,071.29	84.2781	2,071.29	83.7116	2,071.29	83.8785	2,071.29	83.0417	2,071.29	83.2979	2,071.29	82.006	2,071.29	82.2882	2,071.29	80.2579	2,071.29	81.0898	2,071.29	77.7701	2,071.29	79.5034	2,071.29	76.3868	2,071.29	77.6533	2,071.29	75.0337	2,071.29	76.5252	2,071.29	72.3954	2,071.29	75.0809	2,071.29	71.6996	2,071.29	72.881	2,071.29	69.4824	2,071.29	71.5993	2,071.29	66.414	2,071.29	69.9261	2,071.29	70.7855	2,071.29	71.0647	2,071.29	69.5049	2,071.29	71.5012	2,071.29	61.1314	2,071.29	65.7859	2,071.29	59.368	2,071.29	58.3257	2,071.29	66.2011
2,144.53	83.8125	2,144.53	83.7661	2,144.53	83.8731	2,144.53	83.6362	2,144.53	83.5174	2,144.53	83.1678	2,144.53	82.8576	2,144.53	82.76	2,144.53	82.1859	2,144.53	82.1377	2,144.53	81.5749	2,144.53	80.5663	2,144.53	80.4566	2,144.53	78.4125	2,144.53	78.4048	2,144.53	76.97	2,144.53	76.8287	2,144.53	75.6665	2,144.53	75.6877	2,144.53	73.0647	2,144.53	73.2027	2,144.53	72.0958	2,144.53	71.713	2,144.53	72.4928	2,144.53	71.2103	2,144.53	68.9524	2,144.53	68.7968	2,144.53	70.8851	2,144.53	69.6834	2,144.53	72.3722	2,144.53	71.727	2,144.53	66.6084	2,144.53	69.5449	2,144.53	50.0661	2,144.53	59.1481	2,144.53	62.6833
2,217.77	82.9529	2,217.77	83.1828	2,217.77	82.6837	2,217.77	82.9915	2,217.77	82.4727	2,217.77	82.1229	2,217.77	82.1826	2,217.77	80.9124	2,217.77	81.514	2,217.77	80.3041	2,217.77	80.3929	2,217.77	79.6316	2,217.77	79.5841	2,217.77	77.7592	2,217.77	77.9785	2,217.77	75.7679	2,217.77	74.884	2,217.77	74.3965	2,217.77	74.5528	2,217.77	72.5022	2,217.77	73.3236	2,217.77	71.9759	2,217.77	68.5201	2,217.77	72.0806	2,217.77	70.8505	2,217.77	70.0596	2,217.77	67.5578	2,217.77	70.3671	2,217.77	65.6471	2,217.77	71.3526	2,217.77	70.6971	2,217.77	66.9749	2,217.77	69.6257	2,217.77	44.2473	2,217.77	61.8594	2,217.77	58.3973
2,296.88	83.4116	2,296.88	83.4847	2,296.88	83.6104	2,296.88	83.2178	2,296.88	83.8508	2,296.88	82.6093	2,296.88	83.4398	2,296.88	81.8054	2,296.88	82.7036	2,296.88	80.9285	2,296.88	82.0056	2,296.88	80.0274	2,296.88	80.8081	2,296.88	77.8255	2,296.88	78.9717	2,296.88	74.8871	2,296.88	76.586	2,296.88	74.129	2,296.88	74.794	2,296.88	71.6683	2,296.88	74.3902	2,296.88	68.6207	2,296.88	70.5175	2,296.88	69.5867	2,296.88	70.0598	2,296.88	65.414	2,296.88	70.3744	2,296.88	66.4508	2,296.88	63.3644	2,296.88	70.6168	2,296.88	71.383	2,296.88	68.3135	2,296.88	72.1292	2,296.88	57.4755	2,296.88	67.0165	2,296.88	59.1482
2,378.91	84.1289	2,378.91	84.0283	2,378.91	84.2017	2,378.91	84.0276	2,378.91	83.9581	2,378.91	83.8552	2,378.91	83.655	2,378.91	83.1157	2,378.91	83.3521	2,378.91	81.5767	2,378.91	82.4566	2,378.91	80.1578	2,378.91	80.8043	2,378.91	78.9444	2,378.91	79.4022	2,378.91	76.2475	2,378.91	77.659	2,378.91	73.9942	2,378.91	75.1912	2,378.91	73.9791	2,378.91	74.6673	2,378.91	70.8644	2,378.91	72.0274	2,378.91	69.2118	2,378.91	65.9372	2,378.91	69.5608	2,378.91	70.3136	2,378.91	64.4001	2,378.91	67.3382	2,378.91	66.6109	2,378.91	65.8285	2,378.91	65.9322	2,378.91	68.1086	2,378.91	64.1843	2,378.91	64.1465	2,378.91	66.1659
2,460.94	83.4762	2,460.94	83.4266	2,460.94	83.3803	2,460.94	83.3023	2,460.94	83.1709	2,460.94	83.0705	2,460.94	82.9186	2,460.94	82.3986	2,460.94	82.5922	2,460.94	81.1694	2,460.94	81.4192	2,460.94	79.6199	2,460.94	79.6294	2,460.94	78.1175	2,460.94	78.2191	2,460.94	75.9864	2,460.94	76.0356	2,460.94	73.688	2,460.94	73.5267	2,460.94	72.7524	2,460.94	72.9854	2,460.94	71.2184	2,460.94	70.6237	2,460.94	69.6465	2,460.94	68.4324	2,460.94	68.6736	2,460.94	67.6738	2,460.94	66.9651	2,460.94	65.4131	2,460.94	69.9438	2,460.94	69.9158	2,460.94	67.0718	2,460.94	68.8677	2,460.94	46.1716	2,460.94	62.3104	2,460.94	57.6396
2,548.83	83.0363	2,548.83	82.8864	2,548.83	82.9332	2,548.83	82.6127	2,548.83	82.7877	2,548.83	82.0652	2,548.83	82.4926	2,548.83	81.4913	2,548.83	81.861	2,548.83	80.3537	2,548.83	81.2349	2,548.83	78.507	2,548.83	79.516	2,548.83	77.1575	2,548.83	77.3633	2,548.83	75.0067	2,548.83	76.3046	2,548.83	71.8564	2,548.83	73.2835	2,548.83	71.7349	2,548.83	71.8357	2,548.83	69.4162	2,548.83	72.2189	2,548.83	68.5466	2,548.83	66.4652	2,548.83	70.7233	2,548.83	68.3932	2,548.83	66.9858	2,548.83	66.7515	2,548.83	67.0282	2,548.83	62.0511	2,548.83	66.5503	2,548.83	65.3261	2,548.83	63.5578	2,548.83	63.0728	2,548.83	65.1536
2,639.65	83.4448	2,639.65	83.2934	2,639.65	83.457	2,639.65	82.9624	2,639.65	83.3455	2,639.65	82.3047	2,639.65	82.871	2,639.65	81.4465	2,639.65	82.024	2,639.65	80.1424	2,639.65	80.9849	2,639.65	78.073	2,639.65	79.3635	2,639.65	76.293	2,639.65	77.5078	2,639.65	74.5102	2,639.65	75.907	2,639.65	71.4334	2,639.65	73.3682	2,639.65	70.3157	2,639.65	71.4717	2,639.65	69.1292	2,639.65	70.8882	2,639.65	67.4889	2,639.65	68.6387	2,639.65	67.2571	2,639.65	68.1573	2,639.65	65.7492	2,639.65	65.6024	2,639.65	68.6011	2,639.65	66.6376	2,639.65	64.4143	2,639.65	68.1161	2,639.65	59.7342	2,639.65	59.4056	2,639.65	61.2659
2,733.4	83.2122	2,733.4	83.2487	2,733.4	83.0235	2,733.4	83.052	2,733.4	82.9498	2,733.4	82.3934	2,733.4	82.6308	2,733.4	81.395	2,733.4	81.5426	2,733.4	80.2832	2,733.4	80.4217	2,733.4	78.3104	2,733.4	78.9235	2,733.4	75.9028	2,733.4	76.4365	2,733.4	74.4366	2,733.4	74.7458	2,733.4	71.7762	2,733.4	72.2472	2,733.4	69.9904	2,733.4	68.8628	2,733.4	69.0525	2,733.4	69.6554	2,733.4	65.299	2,733.4	66.4304	2,733.4	68.5761	2,733.4	67.156	2,733.4	66.6954	2,733.4	67.2787	2,733.4	65.8777	2,733.4	62.7744	2,733.4	64.582	2,733.4	65.3348	2,733.4	58.3159	2,733.4	61.0104	2,733.4	62.3579
2,827.15	82.8285	2,827.15	82.8972	2,827.15	82.8442	2,827.15	82.7953	2,827.15	82.8931	2,827.15	82.164	2,827.15	82.591	2,827.15	80.8318	2,827.15	81.6826	2,827.15	79.3037	2,827.15	80.1885	2,827.15	77.3238	2,827.15	78.4646	2,827.15	74.969	2,827.15	76.2372	2,827.15	73.1133	2,827.15	74.1339	2,827.15	70.4878	2,827.15	72.1141	2,827.15	68.9751	2,827.15	68.6974	2,827.15	67.951	2,827.15	68.2799	2,827.15	64.4789	2,827.15	66.2509	2,827.15	65.7939	2,827.15	65.1493	2,827.15	63.7745	2,827.15	66.6866	2,827.15	67.685	2,827.15	64.3579	2,827.15	65.4112	2,827.15	66.5655	2,827.15	61.414	2,827.15	58.6565	2,827.15	61.5226
2,926.76	82.3985	2,926.76	82.519	2,926.76	82.3432	2,926.76	82.5169	2,926.76	82.4021	2,926.76	82.0943	2,926.76	82.2153	2,926.76	80.7609	2,926.76	81.257	2,926.76	79.0324	2,926.76	79.6073	2,926.76	77.0572	2,926.76	77.8561	2,926.76	74.4062	2,926.76	75.5818	2,926.76	72.3986	2,926.76	73.3859	2,926.76	70.286	2,926.76	71.4281	2,926.76	68.0586	2,926.76	68.1616	2,926.76	67.3588	2,926.76	67.0837	2,926.76	62.6651	2,926.76	65.3622	2,926.76	65.8909	2,926.76	64.4543	2,926.76	64.5335	2,926.76	66.2354	2,926.76	65.3836	2,926.76	64.8765	2,926.76	63.9283	2,926.76	65.5	2,926.76	58.6535	2,926.76	57.8065	2,926.76	61.7169
3,032.23	82.0262	3,032.23	82.1054	3,032.23	81.9363	3,032.23	81.9566	3,032.23	81.8327	3,032.23	81.4852	3,032.23	81.5437	3,032.23	80.0652	3,032.23	80.7422	3,032.23	78.1821	3,032.23	79.0781	3,032.23	76.2215	3,032.23	77.1309	3,032.23	73.4827	3,032.23	74.5485	3,032.23	71.2944	3,032.23	71.9487	3,032.23	69.2848	3,032.23	70.7289	3,032.23	67.056	3,032.23	67.9105	3,032.23	68.1485	3,032.23	66.451	3,032.23	64.6961	3,032.23	65.046	3,032.23	65.2974	3,032.23	60.1567	3,032.23	63.2549	3,032.23	64.7126	3,032.23	63.7826	3,032.23	62.7062	3,032.23	64.1338	3,032.23	66.2055	3,032.23	58.0921	3,032.23	60.3899	3,032.23	59.3127
3,137.7	82.2205	3,137.7	82.3906	3,137.7	82.2529	3,137.7	82.1361	3,137.7	82.2852	3,137.7	81.7784	3,137.7	81.8492	3,137.7	80.67	3,137.7	81.1145	3,137.7	78.5449	3,137.7	79.3158	3,137.7	76.2162	3,137.7	77.0202	3,137.7	73.5792	3,137.7	74.6888	3,137.7	70.7194	3,137.7	71.48	3,137.7	69.1614	3,137.7	69.2681	3,137.7	65.8046	3,137.7	67.5255	3,137.7	66.0817	3,137.7	66.2338	3,137.7	63.5053	3,137.7	65.7743	3,137.7	65.086	3,137.7	60.5498	3,137.7	66.4934	3,137.7	64.6625	3,137.7	61.1902	3,137.7	61.204	3,137.7	63.5951	3,137.7	63.2923	3,137.7	52.7771	3,137.7	61.9149	3,137.7	60.0361
3,249.02	82.1871	3,249.02	82.3191	3,249.02	82.2903	3,249.02	82.1838	3,249.02	82.2997	3,249.02	81.5855	3,249.02	81.9121	3,249.02	80.3614	3,249.02	81.0536	3,249.02	78.3328	3,249.02	79.3333	3,249.02	76.0463	3,249.02	77.0516	3,249.02	73.8677	3,249.02	74.5468	3,249.02	71.2778	3,249.02	71.6731	3,249.02	69.4672	3,249.02	69.5125	3,249.02	66.9306	3,249.02	67.9183	3,249.02	65.8076	3,249.02	66.2739	3,249.02	64.5521	3,249.02	66.6833	3,249.02	62.9917	3,249.02	62.2717	3,249.02	66.2069	3,249.02	64.5991	3,249.02	63.6277	3,249.02	64.2335	3,249.02	64.3341	3,249.02	63.0004	3,249.02	58.4342	3,249.02	58.8528	3,249.02	60.8744
3,363.28	82.0477	3,363.28	82.229	3,363.28	82.0721	3,363.28	82.3522	3,363.28	82.0962	3,363.28	81.6859	3,363.28	81.793	3,363.28	80.4598	3,363.28	80.8051	3,363.28	78.3237	3,363.28	79.0818	3,363.28	75.5718	3,363.28	76.7583	3,363.28	73.3813	3,363.28	74.6521	3,363.28	70.9573	3,363.28	71.9254	3,363.28	69.0844	3,363.28	68.8373	3,363.28	67.1822	3,363.28	66.7244	3,363.28	66.1264	3,363.28	64.0451	3,363.28	64.1588	3,363.28	66.2805	3,363.28	61.8165	3,363.28	63.9597	3,363.28	67.167	3,363.28	64.5302	3,363.28	63.7128	3,363.28	63.4094	3,363.28	65.8963	3,363.28	61.1832	3,363.28	61.1683	3,363.28	60.8952	3,363.28	61.1087
3,483.4	82.7254	3,483.4	82.5669	3,483.4	82.7376	3,483.4	82.3805	3,483.4	82.8241	3,483.4	81.9644	3,483.4	82.4911	3,483.4	80.673	3,483.4	81.305	3,483.4	78.368	3,483.4	79.5509	3,483.4	75.6094	3,483.4	77.33	3,483.4	72.6232	3,483.4	75.0517	3,483.4	70.5522	3,483.4	72.8176	3,483.4	69.062	3,483.4	70.9442	3,483.4	66.5757	3,483.4	68.7868	3,483.4	65.1226	3,483.4	66.11	3,483.4	65.3672	3,483.4	65.7664	3,483.4	63.7408	3,483.4	64.092	3,483.4	65.9643	3,483.4	64.6636	3,483.4	65.1554	3,483.4	65.8235	3,483.4	66.0038	3,483.4	65.6974	3,483.4	59.5624	3,483.4	64.1992	3,483.4	60.0427
3,606.45	83.0404	3,606.45	83.3508	3,606.45	83.1619	3,606.45	83.2814	3,606.45	83.3774	3,606.45	82.3529	3,606.45	82.7178	3,606.45	80.8694	3,606.45	81.5826	3,606.45	79.1884	3,606.45	79.8688	3,606.45	77.2646	3,606.45	77.2777	3,606.45	74.7729	3,606.45	74.7658	3,606.45	71.885	3,606.45	72.5935	3,606.45	69.9157	3,606.45	70.6874	3,606.45	67.5719	3,606.45	69.5298	3,606.45	66.4692	3,606.45	67.2436	3,606.45	66.3212	3,606.45	66.5293	3,606.45	64.0647	3,606.45	63.7588	3,606.45	66.4739	3,606.45	65.4868	3,606.45	66.3266	3,606.45	67.3217	3,606.45	67.0442	3,606.45	67.4479	3,606.45	61.9701	3,606.45	64.2286	3,606.45	61.9115
3,732.42	82.4683	3,732.42	82.7708	3,732.42	82.7588	3,732.42	82.9898	3,732.42	82.8006	3,732.42	81.8182	3,732.42	82.4986	3,732.42	80.3649	3,732.42	81.526	3,732.42	78.5531	3,732.42	79.7804	3,732.42	76.5265	3,732.42	77.4486	3,732.42	74.8616	3,732.42	75.2221	3,732.42	72.5967	3,732.42	73.0744	3,732.42	69.6636	3,732.42	70.2538	3,732.42	68.1173	3,732.42	68.12	3,732.42	67.0325	3,732.42	65.96	3,732.42	66.1807	3,732.42	66.5536	3,732.42	63.9755	3,732.42	65.9361	3,732.42	67.0536	3,732.42	66.1896	3,732.42	65.6454	3,732.42	67.455	3,732.42	67.5403	3,732.42	66.8949	3,732.42	59.902	3,732.42	63.2262	3,732.42	60.0439
3,864.26	83.122	3,864.26	83.0168	3,864.26	83.1288	3,864.26	82.9809	3,864.26	83.1291	3,864.26	82.5342	3,864.26	82.9941	3,864.26	81.1186	3,864.26	81.8043	3,864.26	78.7093	3,864.26	79.8826	3,864.26	76.2368	3,864.26	77.8904	3,864.26	73.8534	3,864.26	75.7356	3,864.26	72.0832	3,864.26	73.0593	3,864.26	70.468	3,864.26	71.0642	3,864.26	68.2058	3,864.26	69.1645	3,864.26	65.272	3,864.26	65.5274	3,864.26	65.3979	3,864.26	64.8423	3,864.26	62.8606	3,864.26	65.5496	3,864.26	66.6058	3,864.26	66.3468	3,864.26	63.8774	3,864.26	63.9331	3,864.26	68.4816	3,864.26	65.866	3,864.26	58.331	3,864.26	67.0273	3,864.26	55.8158
3,999.02	82.9752	3,999.02	82.957	3,999.02	82.8562	3,999.02	82.8177	3,999.02	83.0937	3,999.02	82.4196	3,999.02	82.6148	3,999.02	81.0309	3,999.02	81.3279	3,999.02	79.3451	3,999.02	79.7181	3,999.02	76.9102	3,999.02	77.6991	3,999.02	73.5835	3,999.02	75.5281	3,999.02	71.3342	3,999.02	73.4626	3,999.02	70.0954	3,999.02	70.743	3,999.02	68.131	3,999.02	69.0546	3,999.02	64.546	3,999.02	67.057	3,999.02	66.6315	3,999.02	64.2214	3,999.02	63.9546	3,999.02	64.0598	3,999.02	66.8405	3,999.02	66.0558	3,999.02	65.7504	3,999.02	68.0954	3,999.02	67.0883	3,999.02	64.9348	3,999.02	62.8292	3,999.02	67.401	3,999.02	59.2369
4,139.65	82.4941	4,139.65	82.5698	4,139.65	82.8298	4,139.65	82.876	4,139.65	82.7813	4,139.65	82.0023	4,139.65	82.3285	4,139.65	80.9872	4,139.65	81.2055	4,139.65	79.6422	4,139.65	79.4937	4,139.65	77.6981	4,139.65	77.8143	4,139.65	76.2298	4,139.65	75.9605	4,139.65	73.6347	4,139.65	73.7205	4,139.65	70.1243	4,139.65	71.1628	4,139.65	68.7152	4,139.65	70.0553	4,139.65	65.9152	4,139.65	67.3601	4,139.65	64.7787	4,139.65	64.4055	4,139.65	64.6915	4,139.65	64.2323	4,139.65	66.3286	4,139.65	63.6399	4,139.65	66.821	4,139.65	66.9458	4,139.65	66.6618	4,139.65	66.2015	4,139.65	60.7584	4,139.65	64.313	4,139.65	58.8433
4,286.13	82.8036	4,286.13	82.6041	4,286.13	82.9052	4,286.13	82.4959	4,286.13	82.5699	4,286.13	81.88	4,286.13	82.4788	4,286.13	80.6055	4,286.13	81.528	4,286.13	78.5825	4,286.13	80.4365	4,286.13	77.2598	4,286.13	78.9748	4,286.13	75.5004	4,286.13	76.4379	4,286.13	73.4177	4,286.13	74.1901	4,286.13	70.4521	4,286.13	71.9179	4,286.13	69.5438	4,286.13	68.7359	4,286.13	66.8714	4,286.13	67.6614	4,286.13	66.0187	4,286.13	64.5476	4,286.13	65.9024	4,286.13	64.9651	4,286.13	67.3137	4,286.13	65.8245	4,286.13	66.7031	4,286.13	68.4029	4,286.13	68.2387	4,286.13	67.1869	4,286.13	58.7691	4,286.13	64.7241	4,286.13	48.9998
4,438.48	82.8271	4,438.48	82.3612	4,438.48	81.9178	4,438.48	81.6225	4,438.48	81.991	4,438.48	81.9486	4,438.48	81.4963	4,438.48	81.2571	4,438.48	80.4862	4,438.48	80.5779	4,438.48	79.8431	4,438.48	78.3213	4,438.48	78.1078	4,438.48	75.5461	4,438.48	76.3203	4,438.48	73.9201	4,438.48	74.3759	4,438.48	71.9647	4,438.48	71.7565	4,438.48	68.1273	4,438.48	69.9189	4,438.48	66.3975	4,438.48	67.6405	4,438.48	65.6437	4,438.48	66.5201	4,438.48	64.5679	4,438.48	66.7747	4,438.48	65.9185	4,438.48	67.0236	4,438.48	66.2438	4,438.48	65.3543	4,438.48	68.7328	4,438.48	66.5972	4,438.48	63.3989	4,438.48	66.3873	4,438.48	52.8569
4,593.75	82.7737	4,593.75	82.1311	4,593.75	83.3918	4,593.75	82.2217	4,593.75	82.3056	4,593.75	81.2619	4,593.75	81.9206	4,593.75	81.0013	4,593.75	81.6589	4,593.75	79.8651	4,593.75	79.9799	4,593.75	78.3441	4,593.75	78.7251	4,593.75	76.8186	4,593.75	77.2082	4,593.75	73.5152	4,593.75	74.434	4,593.75	70.2535	4,593.75	71.9477	4,593.75	69.1999	4,593.75	69.9258	4,593.75	66.5244	4,593.75	67.6529	4,593.75	65.7649	4,593.75	65.5531	4,593.75	64.5513	4,593.75	64.9366	4,593.75	65.9811	4,593.75	64.9296	4,593.75	66.1204	4,593.75	67.1103	4,593.75	67.9403	4,593.75	66.6627	4,593.75	63.5681	4,593.75	66.1402	4,593.75	53.8394
4,757.81	82.5804	4,757.81	82.2977	4,757.81	81.944	4,757.81	81.5846	4,757.81	81.4263	4,757.81	81.6033	4,757.81	80.9989	4,757.81	80.7112	4,757.81	80.237	4,757.81	79.6397	4,757.81	80.3195	4,757.81	78.583	4,757.81	79.4702	4,757.81	75.8494	4,757.81	76.7579	4,757.81	73.3895	4,757.81	74.2951	4,757.81	71.4502	4,757.81	71.6107	4,757.81	68.7245	4,757.81	68.8877	4,757.81	65.1933	4,757.81	67.4482	4,757.81	65.6694	4,757.81	65.5863	4,757.81	65.784	4,757.81	66.2804	4,757.81	65.9864	4,757.81	65.08	4,757.81	66.1143	4,757.81	66.7511	4,757.81	66.2687	4,757.81	65.7404	4,757.81	55.9617	4,757.81	65.4039	4,757.81	46.8915
4,924.8	82.5811	4,924.8	81.8334	4,924.8	82.2204	4,924.8	80.848	4,924.8	81.1305	4,924.8	80.7242	4,924.8	80.0537	4,924.8	80.8166	4,924.8	80.3818	4,924.8	79.9156	4,924.8	80.1185	4,924.8	76.8381	4,924.8	77.8998	4,924.8	74.7314	4,924.8	75.9904	4,924.8	72.3771	4,924.8	73.7959	4,924.8	68.6389	4,924.8	70.0286	4,924.8	67.2895	4,924.8	67.8594	4,924.8	65.3449	4,924.8	66.2915	4,924.8	64.8973	4,924.8	62.489	4,924.8	66.3253	4,924.8	65.0397	4,924.8	66.0063	4,924.8	63.6843	4,924.8	66.1612	4,924.8	63.9545	4,924.8	65.6725	4,924.8	66.1058	4,924.8	56.5986	4,924.8	65.7588	4,924.8	46.3828
5,097.66	81.8792	5,097.66	81.2255	5,097.66	82.27	5,097.66	80.7312	5,097.66	81.0523	5,097.66	80.3481	5,097.66	80.4682	5,097.66	80.3439	5,097.66	80.6305	5,097.66	79.0259	5,097.66	79.6791	5,097.66	76.9406	5,097.66	78.2352	5,097.66	74.4893	5,097.66	75.4858	5,097.66	72.066	5,097.66	72.566	5,097.66	69.724	5,097.66	70.6679	5,097.66	66.9692	5,097.66	67.0096	5,097.66	63.2768	5,097.66	65.4817	5,097.66	62.5846	5,097.66	63.073	5,097.66	65.6985	5,097.66	60.9792	5,097.66	64.3708	5,097.66	64.6887	5,097.66	63.6045	5,097.66	65.2827	5,097.66	65.975	5,097.66	64.1908	5,097.66	60.0668	5,097.66	63.703	5,097.66	40.3354
5,279.3	82.1734	5,279.3	81.4434	5,279.3	80.9144	5,279.3	80.4198	5,279.3	80.2149	5,279.3	80.5192	5,279.3	79.7471	5,279.3	79.7202	5,279.3	78.6498	5,279.3	78.7019	5,279.3	78.4366	5,279.3	77.1423	5,279.3	76.9466	5,279.3	74.0226	5,279.3	73.9303	5,279.3	70.6578	5,279.3	70.949	5,279.3	68.103	5,279.3	67.616	5,279.3	65.3845	5,279.3	65.454	5,279.3	64.0207	5,279.3	62.7017	5,279.3	59.8795	5,279.3	58.8797	5,279.3	62.0471	5,279.3	61.5007	5,279.3	63.824	5,279.3	62.9095	5,279.3	63.3134	5,279.3	65.496	5,279.3	64.9423	5,279.3	63.4777	5,279.3	58.7005	5,279.3	62.3624	5,279.3	43.9628
5,463.87	82.117	5,463.87	80.935	5,463.87	81.8903	5,463.87	80.0125	5,463.87	80.309	5,463.87	79.6752	5,463.87	79.6971	5,463.87	79.2974	5,463.87	79.761	5,463.87	77.8219	5,463.87	78.3176	5,463.87	74.886	5,463.87	75.8833	5,463.87	71.9407	5,463.87	73.7381	5,463.87	68.7949	5,463.87	70.9214	5,463.87	65.9792	5,463.87	67.8982	5,463.87	65.5815	5,463.87	65.3548	5,463.87	63.7734	5,463.87	63.8595	5,463.87	62.0902	5,463.87	60.6637	5,463.87	60.8294	5,463.87	59.2983	5,463.87	60.3581	5,463.87	59.7392	5,463.87	62.6694	5,463.87	63.4635	5,463.87	64.3266	5,463.87	64.1128	5,463.87	56.7598	5,463.87	61.2416	5,463.87	55.5208
5,657.23	81.6357	5,657.23	81.0035	5,657.23	81.0675	5,657.23	79.8742	5,657.23	79.7694	5,657.23	79.4712	5,657.23	79.1761	5,657.23	78.9254	5,657.23	78.6814	5,657.23	77.376	5,657.23	77.4074	5,657.23	74.9027	5,657.23	75.3954	5,657.23	72.2873	5,657.23	72.4086	5,657.23	69.8078	5,657.23	69.0008	5,657.23	67.0852	5,657.23	66.7933	5,657.23	63.6648	5,657.23	64.6138	5,657.23	61.2033	5,657.23	63.1226	5,657.23	58.0221	5,657.23	61.0268	5,657.23	62.9565	5,657.23	61.2172	5,657.23	58.3987	5,657.23	61.6935	5,657.23	60.2335	5,657.23	61.8896	5,657.23	63.1526	5,657.23	62.0458	5,657.23	53.5445	5,657.23	62.0084	5,657.23	53.8264
5,856.45	81.9908	5,856.45	81.259	5,856.45	81.1954	5,856.45	80.036	5,856.45	79.9146	5,856.45	79.5611	5,856.45	78.929	5,856.45	78.693	5,856.45	78.2095	5,856.45	76.7947	5,856.45	76.5436	5,856.45	73.7735	5,856.45	73.9137	5,856.45	70.9597	5,856.45	71.221	5,856.45	67.4995	5,856.45	68.6613	5,856.45	65.1648	5,856.45	65.6952	5,856.45	62.3787	5,856.45	62.2705	5,856.45	61.2934	5,856.45	61.0621	5,856.45	59.235	5,856.45	58.4823	5,856.45	60.4213	5,856.45	61.45	5,856.45	61.2032	5,856.45	60.0561	5,856.45	57.7997	5,856.45	63.6567	5,856.45	62.3483	5,856.45	61.386	5,856.45	58.219	5,856.45	61.6984	5,856.45	57.5882
6,061.52	81.849	6,061.52	81.2577	6,061.52	81.7164	6,061.52	80.4551	6,061.52	80.177	6,061.52	79.178	6,061.52	78.9934	6,061.52	77.9092	6,061.52	78.2636	6,061.52	76.0097	6,061.52	76.4078	6,061.52	73.1018	6,061.52	74.161	6,061.52	70.0977	6,061.52	71.7137	6,061.52	67.3926	6,061.52	68.8138	6,061.52	65.7137	6,061.52	66.5713	6,061.52	61.8979	6,061.52	64.2896	6,061.52	59.5993	6,061.52	61.9507	6,061.52	58.3447	6,061.52	58.6351	6,061.52	61.3068	6,061.52	58.5791	6,061.52	60.697	6,061.52	58.138	6,061.52	61.1198	6,061.52	59.3412	6,061.52	61.0751	6,061.52	60.9225	6,061.52	55.4319	6,061.52	61.2293	6,061.52	52.521
6,275.39	82.1097	6,275.39	81.7037	6,275.39	81.53	6,275.39	80.2161	6,275.39	80.6904	6,275.39	78.9986	6,275.39	79.4624	6,275.39	77.4244	6,275.39	78.1627	6,275.39	75.3471	6,275.39	76.6569	6,275.39	73.5583	6,275.39	74.8855	6,275.39	72.1123	6,275.39	72.2954	6,275.39	68.8683	6,275.39	69.7136	6,275.39	65.2534	6,275.39	67.2859	6,275.39	63.4843	6,275.39	63.7747	6,275.39	61.6151	6,275.39	61.0316	6,275.39	55.0908	6,275.39	59.3912	6,275.39	57.4331	6,275.39	61.4286	6,275.39	59.6025	6,275.39	61.399	6,275.39	62.3104	6,275.39	61.2165	6,275.39	59.9679	6,275.39	61.1313	6,275.39	49.657	6,275.39	62.3761	6,275.39	49.8308
6,498.05	81.7922	6,498.05	81.1785	6,498.05	81.7656	6,498.05	80.4058	6,498.05	80.6278	6,498.05	79.1149	6,498.05	79.3871	6,498.05	77.8596	6,498.05	78.1152	6,498.05	76.0101	6,498.05	76.6405	6,498.05	73.9207	6,498.05	74.8916	6,498.05	71.0911	6,498.05	72.833	6,498.05	67.9363	6,498.05	69.826	6,498.05	66.4063	6,498.05	67.7551	6,498.05	62.8096	6,498.05	64.7255	6,498.05	59.944	6,498.05	61.7907	6,498.05	58.0569	6,498.05	57.0621	6,498.05	57.1279	6,498.05	55.5388	6,498.05	57.4034	6,498.05	56.9625	6,498.05	60.1439	6,498.05	61.6144	6,498.05	61.3125	6,498.05	60.3165	6,498.05	54.1684	6,498.05	59.0476	6,498.05	54.625
6,726.56	81.997	6,726.56	81.8497	6,726.56	81.7507	6,726.56	80.6831	6,726.56	80.887	6,726.56	79.1709	6,726.56	79.2347	6,726.56	77.385	6,726.56	77.8526	6,726.56	75.743	6,726.56	76.4523	6,726.56	74.1135	6,726.56	75.0523	6,726.56	71.2593	6,726.56	72.7344	6,726.56	68.1959	6,726.56	69.9505	6,726.56	65.8974	6,726.56	66.608	6,726.56	62.617	6,726.56	64.2628	6,726.56	59.9772	6,726.56	60.8006	6,726.56	55.7728	6,726.56	58.7544	6,726.56	56.3337	6,726.56	54.7562	6,726.56	58.2521	6,726.56	59.9621	6,726.56	61.8564	6,726.56	58.4103	6,726.56	60.8878	6,726.56	60.9099	6,726.56	57.1367	6,726.56	60.3943	6,726.56	55.153
6,963.87	81.7237	6,963.87	81.4024	6,963.87	81.8033	6,963.87	80.3344	6,963.87	80.8761	6,963.87	78.3201	6,963.87	79.1672	6,963.87	76.5381	6,963.87	77.4673	6,963.87	74.9331	6,963.87	76.2332	6,963.87	72.8942	6,963.87	74.5137	6,963.87	70.2843	6,963.87	72.2984	6,963.87	67.8278	6,963.87	68.4271	6,963.87	65.1981	6,963.87	66.4543	6,963.87	61.7725	6,963.87	62.9362	6,963.87	58.617	6,963.87	60.3704	6,963.87	56.3142	6,963.87	59.0896	6,963.87	53.4938	6,963.87	51.3049	6,963.87	54.423	6,963.87	55.2162	6,963.87	60.2431	6,963.87	59.8412	6,963.87	60.0127	6,963.87	60.5799	6,963.87	54.9473	6,963.87	59.12	6,963.87	53.872
7,209.96	81.5504	7,209.96	81.5036	7,209.96	81.2969	7,209.96	79.9457	7,209.96	80.7672	7,209.96	78.0632	7,209.96	78.712	7,209.96	75.8919	7,209.96	76.8275	7,209.96	74.1918	7,209.96	75.6435	7,209.96	72.3791	7,209.96	74.0435	7,209.96	69.9207	7,209.96	71.3088	7,209.96	66.8746	7,209.96	68.9728	7,209.96	64.0704	7,209.96	65.3041	7,209.96	61.4833	7,209.96	63.4952	7,209.96	58.8741	7,209.96	60.7633	7,209.96	55.7824	7,209.96	57.626	7,209.96	50.845	7,209.96	55.374	7,209.96	53.6409	7,209.96	54.8352	7,209.96	58.4732	7,209.96	58.8105	7,209.96	58.9986	7,209.96	59.7918	7,209.96	52.7304	7,209.96	58.3411	7,209.96	49.3328
7,464.84	81.0629	7,464.84	80.9432	7,464.84	81.2002	7,464.84	79.5846	7,464.84	80.433	7,464.84	77.2736	7,464.84	78.1889	7,464.84	75.5743	7,464.84	76.3313	7,464.84	74.2775	7,464.84	75.3636	7,464.84	72.2693	7,464.84	73.5796	7,464.84	69.47	7,464.84	71.3575	7,464.84	67.1365	7,464.84	67.9619	7,464.84	63.6451	7,464.84	65.4714	7,464.84	60.5946	7,464.84	62.6657	7,464.84	57.9585	7,464.84	60.3233	7,464.84	55.6275	7,464.84	57.9358	7,464.84	53.2168	7,464.84	52.2919	7,464.84	53.7407	7,464.84	55.8548	7,464.84	56.5995	7,464.84	55.896	7,464.84	57.1973	7,464.84	60.3947	7,464.84	52.1114	7,464.84	57.8544	7,464.84	46.7243
7,728.52	81.427	7,728.52	81.2731	7,728.52	81.3893	7,728.52	79.6493	7,728.52	80.8036	7,728.52	77.2961	7,728.52	78.5559	7,728.52	75.2425	7,728.52	76.4762	7,728.52	74.018	7,728.52	75.3012	7,728.52	72.0555	7,728.52	73.5325	7,728.52	69.6034	7,728.52	71.2202	7,728.52	66.6406	7,728.52	68.8081	7,728.52	63.8624	7,728.52	66.2899	7,728.52	62.1152	7,728.52	62.8601	7,728.52	58.2992	7,728.52	60.628	7,728.52	56.1105	7,728.52	58.3263	7,728.52	48.8171	7,728.52	57.2709	7,728.52	55.2938	7,728.52	56.6087	7,728.52	55.8586	7,728.52	56.4434	7,728.52	53.9446	7,728.52	58.2776	7,728.52	50.0829	7,728.52	55.6784	7,728.52	35.7319
8,000.98	82.0047	8,000.98	81.7845	8,000.98	82.1479	8,000.98	79.9803	8,000.98	81.3353	8,000.98	77.4884	8,000.98	78.8449	8,000.98	75.9101	8,000.98	76.7875	8,000.98	74.4894	8,000.98	75.6365	8,000.98	72.4222	8,000.98	73.8433	8,000.98	70.2475	8,000.98	71.8875	8,000.98	67.5574	8,000.98	68.9934	8,000.98	63.2686	8,000.98	66.2676	8,000.98	60.1649	8,000.98	63.593	8,000.98	58.1833	8,000.98	61.0618	8,000.98	55.7591	8,000.98	58.4604	8,000.98	53.4622	8,000.98	48.6893	8,000.98	56.9277	8,000.98	56.29	8,000.98	56.7723	8,000.98	55.8029	8,000.98	55.2622	8,000.98	58.2292	8,000.98	47.5089	8,000.98	54.1468	8,000.98	45.6506
8,282.23	83.0137	8,282.23	82.5232	8,282.23	82.9813	8,282.23	80.6645	8,282.23	81.9536	8,282.23	78.0474	8,282.23	79.687	8,282.23	75.9493	8,282.23	77.6616	8,282.23	74.6812	8,282.23	76.2235	8,282.23	73.1291	8,282.23	74.5792	8,282.23	70.1652	8,282.23	72.902	8,282.23	67.0803	8,282.23	69.9636	8,282.23	64.124	8,282.23	67.2172	8,282.23	60.9402	8,282.23	63.8552	8,282.23	58.3274	8,282.23	61.0769	8,282.23	56.5273	8,282.23	57.1789	8,282.23	51.6774	8,282.23	52.619	8,282.23	56.4015	8,282.23	56.7584	8,282.23	56.3466	8,282.23	57.3286	8,282.23	54.6415	8,282.23	57.8061	8,282.23	49.6561	8,282.23	54.7736	8,282.23	42.1276
8,575.2	83.387	8,575.2	82.7795	8,575.2	83.3066	8,575.2	80.5937	8,575.2	82.2834	8,575.2	78.0553	8,575.2	79.9526	8,575.2	76.0784	8,575.2	77.725	8,575.2	74.6613	8,575.2	76.1474	8,575.2	73.1517	8,575.2	74.8206	8,575.2	70.5803	8,575.2	72.7596	8,575.2	67.5347	8,575.2	69.5369	8,575.2	63.1548	8,575.2	67.2014	8,575.2	60.0803	8,575.2	63.9784	8,575.2	56.9354	8,575.2	61.0344	8,575.2	54.8359	8,575.2	58.6625	8,575.2	52.7571	8,575.2	54.8715	8,575.2	56.4023	8,575.2	56.1687	8,575.2	57.5685	8,575.2	57.0018	8,575.2	54.0879	8,575.2	58.0389	8,575.2	49.0079	8,575.2	51.9767	8,575.2	45.6366
8,876.95	83.4306	8,876.95	82.5337	8,876.95	83.3366	8,876.95	80.6044	8,876.95	82.0415	8,876.95	78.1662	8,876.95	79.8763	8,876.95	76.0749	8,876.95	77.4354	8,876.95	74.407	8,876.95	75.6997	8,876.95	72.6863	8,876.95	74.4061	8,876.95	69.746	8,876.95	71.9426	8,876.95	66.6412	8,876.95	68.5383	8,876.95	63.4947	8,876.95	66.037	8,876.95	59.7785	8,876.95	62.3091	8,876.95	55.5586	8,876.95	59.7171	8,876.95	53.5142	8,876.95	57.1825	8,876.95	52.5925	8,876.95	55.579	8,876.95	53.2633	8,876.95	54.8546	8,876.95	55.2453	8,876.95	56.9934	8,876.95	54.1487	8,876.95	57.2264	8,876.95	48.7447	8,876.95	51.4921	8,876.95	38.3599
9,190.43	83.41	9,190.43	82.4267	9,190.43	83.3216	9,190.43	80.5216	9,190.43	81.899	9,190.43	78.4145	9,190.43	79.6716	9,190.43	75.9268	9,190.43	76.8754	9,190.43	74.0097	9,190.43	75.4512	9,190.43	72.0343	9,190.43	73.7909	9,190.43	69.1497	9,190.43	70.9692	9,190.43	65.5476	9,190.43	67.7317	9,190.43	63.3065	9,190.43	65.1714	9,190.43	59.688	9,190.43	61.6242	9,190.43	57.1075	9,190.43	59.1075	9,190.43	52.2146	9,190.43	56.7387	9,190.43	53.4403	9,190.43	53.1321	9,190.43	52.8514	9,190.43	52.3555	9,190.43	51.5573	9,190.43	55.7444	9,190.43	52.8719	9,190.43	56.1004	9,190.43	47.0704	9,190.43	49.1448	9,190.43	40.3683
9,512.7	83.5	9,512.7	82.5585	9,512.7	83.2581	9,512.7	80.6557	9,512.7	82.0146	9,512.7	78.4395	9,512.7	79.7275	9,512.7	75.9085	9,512.7	76.6048	9,512.7	73.9318	9,512.7	75.0802	9,512.7	71.713	9,512.7	73.3141	9,512.7	68.6494	9,512.7	70.9776	9,512.7	64.6118	9,512.7	67.5194	9,512.7	62.6123	9,512.7	64.6026	9,512.7	58.9571	9,512.7	61.6556	9,512.7	55.8906	9,512.7	57.9342	9,512.7	53.9293	9,512.7	54.7396	9,512.7	52.2811	9,512.7	50.794	9,512.7	51.3379	9,512.7	52.3785	9,512.7	49.2415	9,512.7	54.3744	9,512.7	52.8693	9,512.7	56.3214	9,512.7	38.5116	9,512.7	50.7543	9,512.7	49.6047
9,849.61	83.7588	9,849.61	82.6187	9,849.61	83.3497	9,849.61	80.763	9,849.61	82.1098	9,849.61	78.3729	9,849.61	79.834	9,849.61	75.9857	9,849.61	76.7601	9,849.61	73.9006	9,849.61	75.2088	9,849.61	71.8284	9,849.61	73.2527	9,849.61	68.2059	9,849.61	70.8243	9,849.61	64.5476	9,849.61	67.1555	9,849.61	62.0798	9,849.61	64.0618	9,849.61	57.809	9,849.61	60.986	9,849.61	54.1553	9,849.61	58.066	9,849.61	54.4682	9,849.61	54.662	9,849.61	50.7859	9,849.61	52.3598	9,849.61	48.8615	9,849.61	50.4189	9,849.61	49.8582	9,849.61	52.5899	9,849.61	48.821	9,849.61	56.801	9,849.61	42.1555	9,849.61	52.5208	9,849.61	52.3456
10,195.3	83.8014	10,195.3	82.4897	10,195.3	83.5919	10,195.3	80.8942	10,195.3	82.0409	10,195.3	78.4202	10,195.3	79.7255	10,195.3	76.3641	10,195.3	77.1788	10,195.3	73.8851	10,195.3	75.6372	10,195.3	71.7679	10,195.3	73.175	10,195.3	68.3917	10,195.3	70.529	10,195.3	65.0867	10,195.3	67.1942	10,195.3	62.0301	10,195.3	63.5737	10,195.3	58.139	10,195.3	60.1315	10,195.3	54.6739	10,195.3	57.1292	10,195.3	53.7269	10,195.3	55.3493	10,195.3	49.9402	10,195.3	52.7603	10,195.3	48.6787	10,195.3	49.7812	10,195.3	44.6345	10,195.3	52.7017	10,195.3	47.3374	10,195.3	54.382	10,195.3	34.7436	10,195.3	51.9586	10,195.3	48.343
10,555.7	83.6158	10,555.7	82.2891	10,555.7	83.4997	10,555.7	80.9033	10,555.7	81.9215	10,555.7	78.8179	10,555.7	79.8159	10,555.7	76.5227	10,555.7	77.5919	10,555.7	73.4688	10,555.7	75.4327	10,555.7	71.0558	10,555.7	72.6606	10,555.7	68.1948	10,555.7	69.8626	10,555.7	64.2208	10,555.7	66.8066	10,555.7	61.2538	10,555.7	62.9015	10,555.7	57.6047	10,555.7	60.3707	10,555.7	53.5433	10,555.7	56.5755	10,555.7	53.2079	10,555.7	54.6452	10,555.7	46.4963	10,555.7	49.8891	10,555.7	46.7651	10,555.7	50.7035	10,555.7	44.9154	10,555.7	50.7192	10,555.7	45.9208	10,555.7	53.0569	10,555.7	38.6633	10,555.7	49.8681	10,555.7	47.0757
10,927.7	83.2271	10,927.7	82.0786	10,927.7	83.208	10,927.7	80.7361	10,927.7	81.7103	10,927.7	78.6823	10,927.7	79.6208	10,927.7	75.6569	10,927.7	77.0493	10,927.7	72.6631	10,927.7	74.1464	10,927.7	69.6573	10,927.7	71.3937	10,927.7	66.7353	10,927.7	68.7646	10,927.7	62.2019	10,927.7	65.1484	10,927.7	59.9913	10,927.7	60.2945	10,927.7	54.9909	10,927.7	59.1378	10,927.7	53.768	10,927.7	54.378	10,927.7	52.4311	10,927.7	52.95	10,927.7	45.6518	10,927.7	48.5815	10,927.7	46.9095	10,927.7	48.3983	10,927.7	44.9369	10,927.7	49.9191	10,927.7	44.0665	10,927.7	51.0604	10,927.7	36.3436	10,927.7	45.5378	10,927.7	46.8735
11,314.5	82.9742	11,314.5	81.9635	11,314.5	82.7993	11,314.5	80.4113	11,314.5	81.2726	11,314.5	77.8389	11,314.5	78.9915	11,314.5	74.2985	11,314.5	75.7765	11,314.5	71.4836	11,314.5	72.422	11,314.5	68.5346	11,314.5	70.0012	11,314.5	64.7068	11,314.5	67.3384	11,314.5	61.8749	11,314.5	64.3463	11,314.5	57.16	11,314.5	59.4075	11,314.5	55.8549	11,314.5	57.2989	11,314.5	53.7142	11,314.5	54.3128	11,314.5	50.1054	11,314.5	52.0141	11,314.5	46.1475	11,314.5	46.0627	11,314.5	42.369	11,314.5	48.9734	11,314.5	46.0647	11,314.5	47.8996	11,314.5	47.2168	11,314.5	46.0517	11,314.5	32.7934	11,314.5	42.9283	11,314.5	48.6227
11,712.9	82.7381	11,712.9	81.8545	11,712.9	82.1775	11,712.9	80.1088	11,712.9	80.5361	11,712.9	77.0937	11,712.9	78.1094	11,712.9	73.9545	11,712.9	74.8662	11,712.9	71.3432	11,712.9	71.6969	11,712.9	69.0714	11,712.9	69.2271	11,712.9	66.2756	11,712.9	66.4855	11,712.9	63.5135	11,712.9	64.0984	11,712.9	58.6789	11,712.9	59.6725	11,712.9	56.6839	11,712.9	56.1531	11,712.9	54.1842	11,712.9	53.4436	11,712.9	50.7132	11,712.9	51.347	11,712.9	47.2085	11,712.9	47.4966	11,712.9	32.8826	11,712.9	49.4824	11,712.9	42.9974	11,712.9	42.985	11,712.9	47.1654	11,712.9	42.3741	11,712.9	37.8178	11,712.9	44.2863	11,712.9	45.6283
12,126	82.6586	12,126	81.8834	12,126	82.3967	12,126	80.4572	12,126	80.8613	12,126	77.5765	12,126	78.5355	12,126	74.5474	12,126	75.4789	12,126	72.6057	12,126	72.5762	12,126	69.6317	12,126	70.0834	12,126	67.6248	12,126	67.771	12,126	63.5207	12,126	65.6243	12,126	59.6909	12,126	60.4058	12,126	57.6312	12,126	58.0775	12,126	55.2318	12,126	55.4453	12,126	52.2923	12,126	51.7282	12,126	47.6318	12,126	50.3974	12,126	40.7859	12,126	50.4749	12,126	25.8979	12,126	44.5783	12,126	40.3272	12,126	43.6472	12,126	41.6644	12,126	42.8919	12,126	48.3331
12,553.7	82.9999	12,553.7	82.3833	12,553.7	83.0922	12,553.7	81.005	12,553.7	81.7662	12,553.7	78.1734	12,553.7	79.7174	12,553.7	75.1578	12,553.7	76.5949	12,553.7	73.0342	12,553.7	73.7902	12,553.7	69.7389	12,553.7	71.2982	12,553.7	67.5725	12,553.7	69.3087	12,553.7	64.2181	12,553.7	67.0387	12,553.7	59.5599	12,553.7	61.8881	12,553.7	58.3673	12,553.7	58.9606	12,553.7	56.5016	12,553.7	57.3716	12,553.7	52.3798	12,553.7	53.3636	12,553.7	48.7523	12,553.7	50.9943	12,553.7	42.0133	12,553.7	52.2036	12,553.7	38.025	12,553.7	46.6643	12,553.7	43.1298	12,553.7	42.5724	12,553.7	42.9832	12,553.7	42.3035	12,553.7	47.6825
12,996.1	83.0496	12,996.1	82.5928	12,996.1	83.084	12,996.1	80.8472	12,996.1	82.1063	12,996.1	77.9234	12,996.1	80.2983	12,996.1	75.2093	12,996.1	77.1174	12,996.1	72.4859	12,996.1	74.3587	12,996.1	70.2313	12,996.1	71.9092	12,996.1	66.9906	12,996.1	69.7434	12,996.1	64.8435	12,996.1	67.1151	12,996.1	58.5353	12,996.1	62.3	12,996.1	57.9663	12,996.1	58.1135	12,996.1	55.5882	12,996.1	56.5263	12,996.1	50.4125	12,996.1	52.5826	12,996.1	49.4928	12,996.1	50.3973	12,996.1	41.7286	12,996.1	52.0211	12,996.1	37.767	12,996.1	47.0881	12,996.1	48.3493	12,996.1	41.2589	12,996.1	40.6563	12,996.1	43.9662	12,996.1	46.0235
13,453.1	82.8991	13,453.1	82.6402	13,453.1	82.7232	13,453.1	80.5918	13,453.1	82.252	13,453.1	77.7654	13,453.1	80.404	13,453.1	75.4202	13,453.1	77.225	13,453.1	72.3138	13,453.1	74.3423	13,453.1	70.5642	13,453.1	71.7112	13,453.1	68.1594	13,453.1	68.8115	13,453.1	65.16	13,453.1	66.3479	13,453.1	59.6891	13,453.1	62.1983	13,453.1	57.956	13,453.1	58.2678	13,453.1	55.4561	13,453.1	55.9732	13,453.1	48.8759	13,453.1	51.7075	13,453.1	49.8738	13,453.1	47.3803	13,453.1	39.8594	13,453.1	51.8422	13,453.1	35.5567	13,453.1	42.8519	13,453.1	47.501	13,453.1	42.3695	13,453.1	35.2194	13,453.1	42.7498	13,453.1	46.2184
13,927.7	82.7978	13,927.7	82.5645	13,927.7	82.6386	13,927.7	80.6357	13,927.7	82.3843	13,927.7	78.1268	13,927.7	80.3636	13,927.7	75.3295	13,927.7	77.1889	13,927.7	72.57	13,927.7	73.9637	13,927.7	70.1778	13,927.7	70.9969	13,927.7	68.1471	13,927.7	67.8122	13,927.7	64.2147	13,927.7	65.8113	13,927.7	60.2468	13,927.7	61.9519	13,927.7	57.2511	13,927.7	57.9235	13,927.7	54.596	13,927.7	55.4604	13,927.7	48.1801	13,927.7	51.5239	13,927.7	48.0147	13,927.7	46.9448	13,927.7	35.7707	13,927.7	51.2995	13,927.7	43.0606	13,927.7	43.2088	13,927.7	42.0969	13,927.7	43.6676	13,927.7	26.3322	13,927.7	35.3544	13,927.7	45.6784
14,419.9	82.816	14,419.9	82.563	14,419.9	82.612	14,419.9	80.7147	14,419.9	82.2182	14,419.9	78.3726	14,419.9	80.0823	14,419.9	75.2178	14,419.9	76.9786	14,419.9	72.4467	14,419.9	73.5196	14,419.9	69.9526	14,419.9	69.8711	14,419.9	66.581	14,419.9	67.2561	14,419.9	63.1151	14,419.9	64.7565	14,419.9	59.234	14,419.9	61.4658	14,419.9	56.5107	14,419.9	56.2454	14,419.9	52.6043	14,419.9	54.9807	14,419.9	49.9527	14,419.9	49.6301	14,419.9	47.234	14,419.9	45.7236	14,419.9	35.3562	14,419.9	51.2517	14,419.9	45.8161	14,419.9	36.8657	14,419.9	36.3365	14,419.9	36.059	14,419.9	32.395	14,419.9	35.4408	14,419.9	42.7839
14,929.7	82.9547	14,929.7	82.6237	14,929.7	82.5844	14,929.7	80.8194	14,929.7	81.9962	14,929.7	78.4016	14,929.7	79.9177	14,929.7	75.1774	14,929.7	76.8661	14,929.7	71.8375	14,929.7	73.4514	14,929.7	69.1629	14,929.7	68.9367	14,929.7	64.1195	14,929.7	66.6168	14,929.7	61.4428	14,929.7	63.2594	14,929.7	58.1742	14,929.7	60.4101	14,929.7	55.7522	14,929.7	55.0822	14,929.7	50.2892	14,929.7	53.885	14,929.7	51.1567	14,929.7	48.1289	14,929.7	45.6541	14,929.7	47.5299	14,929.7	42.6738	14,929.7	47.6666	14,929.7	45.1314	14,929.7	33.7356	14,929.7	34.6418	14,929.7	40.4616	14,929.7	39.9206	14,929.7	32.8358	14,929.7	34.9442
15,454.1	83.0301	15,454.1	82.6268	15,454.1	82.5717	15,454.1	80.9522	15,454.1	81.8098	15,454.1	78.3626	15,454.1	79.573	15,454.1	75.0454	15,454.1	76.5956	15,454.1	71.2412	15,454.1	72.5597	15,454.1	67.9016	15,454.1	67.5756	15,454.1	63.8386	15,454.1	64.7988	15,454.1	61.417	15,454.1	60.9847	15,454.1	57.9397	15,454.1	58.6325	15,454.1	55.4868	15,454.1	54.2311	15,454.1	51.0717	15,454.1	51.9566	15,454.1	50.2568	15,454.1	44.0375	15,454.1	45.3457	15,454.1	45.7432	15,454.1	44.9857	15,454.1	43.8942	15,454.1	44.5343	15,454.1	30.7937	15,454.1	38.4071	15,454.1	39.0129	15,454.1	42.4077	15,454.1	38.9027	15,454.1	36.4461
15,999	82.6489	15,999	82.1365	15,999	82.2215	15,999	80.5254	15,999	81.2816	15,999	77.7347	15,999	78.8362	15,999	73.9964	15,999	75.63	15,999	69.6583	15,999	70.695	15,999	66.2861	15,999	65.8978	15,999	62.5401	15,999	62.5894	15,999	60.2009	15,999	59.2272	15,999	55.7343	15,999	56.3692	15,999	54.0067	15,999	50.4112	15,999	50.1472	15,999	50.0436	15,999	48.8209	15,999	43.3439	15,999	44.8112	15,999	46.2895	15,999	43.556	15,999	41.4354	15,999	43.3228	15,999	35.2964	15,999	40.0592	15,999	35.1391	15,999	44.5917	15,999	36.7043	15,999	42.0499
16,564.5	81.9525	16,564.5	81.2216	16,564.5	81.7278	16,564.5	79.6616	16,564.5	80.6056	16,564.5	76.3286	16,564.5	77.9963	16,564.5	71.9639	16,564.5	74.3216	16,564.5	66.717	16,564.5	69.0054	16,564.5	64.0675	16,564.5	64.6157	16,564.5	60.1932	16,564.5	61.4918	16,564.5	57.7934	16,564.5	58.6244	16,564.5	52.0984	16,564.5	55.3677	16,564.5	51.5682	16,564.5	49.4785	16,564.5	46.9774	16,564.5	49.6654	16,564.5	48.0038	16,564.5	44.9115	16,564.5	43.891	16,564.5	46.845	16,564.5	39.6079	16,564.5	32.8543	16,564.5	41.6906	16,564.5	37.9161	16,564.5	39.2474	16,564.5	37.534	16,564.5	44.1586	16,564.5	38.3243	16,564.5	41.2099
17,147.5	81.3997	17,147.5	80.603	17,147.5	81.2493	17,147.5	78.8283	17,147.5	79.9268	17,147.5	74.7642	17,147.5	77.3148	17,147.5	69.9581	17,147.5	73.3776	17,147.5	64.1098	17,147.5	68.7225	17,147.5	63.6648	17,147.5	65.0632	17,147.5	60.0458	17,147.5	62.4524	17,147.5	57.1237	17,147.5	60.1749	17,147.5	47.7208	17,147.5	56.6578	17,147.5	50.3702	17,147.5	51.7349	17,147.5	47.5869	17,147.5	50.4568	17,147.5	46.4785	17,147.5	46.0681	17,147.5	41.343	17,147.5	45.8218	17,147.5	38.2385	17,147.5	38.0976	17,147.5	36.7695	17,147.5	41.1072	17,147.5	43.272	17,147.5	40.6862	17,147.5	44.5395	17,147.5	40.7877	17,147.5	41.0567
17,753.9	80.5832	17,753.9	79.9216	17,753.9	80.4558	17,753.9	77.7759	17,753.9	79.0029	17,753.9	73.5647	17,753.9	76.4127	17,753.9	68.2036	17,753.9	72.5958	17,753.9	64.4993	17,753.9	68.7568	17,753.9	64.19	17,753.9	65.9638	17,753.9	60.3343	17,753.9	63.6065	17,753.9	58.4322	17,753.9	61.2372	17,753.9	49.5681	17,753.9	57.1725	17,753.9	50.6621	17,753.9	52.3142	17,753.9	47.8416	17,753.9	50.973	17,753.9	45.4474	17,753.9	44.5649	17,753.9	38.0481	17,753.9	43.6317	17,753.9	36.5262	17,753.9	41.9886	17,753.9	29.1608	17,753.9	43.7628	17,753.9	45.4085	17,753.9	40.9869	17,753.9	41.4413	17,753.9	41.0052	17,753.9	41.9905
18,377.9	79.0309	18,377.9	78.439	18,377.9	78.9692	18,377.9	75.9988	18,377.9	77.4687	18,377.9	72.0714	18,377.9	75.0583	18,377.9	66.7536	18,377.9	71.4563	18,377.9	64.5303	18,377.9	67.9117	18,377.9	63.0672	18,377.9	65.1968	18,377.9	59.9865	18,377.9	62.116	18,377.9	57.9688	18,377.9	59.2487	18,377.9	51.1125	18,377.9	55.1931	18,377.9	49.7366	18,377.9	49.8594	18,377.9	45.6313	18,377.9	48.5592	18,377.9	43.3617	18,377.9	39.8238	18,377.9	39.223	18,377.9	40.1383	18,377.9	37.3229	18,377.9	41.7962	18,377.9	30.7048	18,377.9	44.9705	18,377.9	46.2698	18,377.9	42.7314	18,377.9	32.2757	18,377.9	38.0284	18,377.9	43.7711
19,028.3	77.3926	19,028.3	76.7065	19,028.3	77.4106	19,028.3	74.021	19,028.3	76.0151	19,028.3	69.9345	19,028.3	73.4806	19,028.3	64.8956	19,028.3	69.436	19,028.3	62.3542	19,028.3	65.1665	19,028.3	58.7282	19,028.3	61.0921	19,028.3	56.8213	19,028.3	57.2025	19,028.3	54.174	19,028.3	53.8073	19,028.3	48.7175	19,028.3	49.761	19,028.3	47.4231	19,028.3	44.8809	19,028.3	43.7682	19,028.3	43.5844	19,028.3	39.5819	19,028.3	31.8827	19,028.3	42.7149	19,028.3	37.4653	19,028.3	33.6992	19,028.3	40.35	19,028.3	41.0171	19,028.3	43.2987	19,028.3	45.8417	19,028.3	43.3843	19,028.3	32.8012	19,028.3	40.8026	19,028.3	42.9656
19,699.2	76.0172	19,699.2	75.3387	19,699.2	76.0541	19,699.2	72.4117	19,699.2	74.851	19,699.2	68.0342	19,699.2	71.7888	19,699.2	62.5529	19,699.2	66.7296	19,699.2	58.4	19,699.2	60.1679	19,699.2	54.8634	19,699.2	54.385	19,699.2	56.1946	19,699.2	50.2267	19,699.2	54.618	19,699.2	44.4544	19,699.2	49.6353	19,699.2	40.6017	19,699.2	44.9944	19,699.2	42.3517	19,699.2	44.8378	19,699.2	32.6798	19,699.2	38.0839	19,699.2	20.2299	19,699.2	42.163	19,699.2	30.9691	19,699.2	38.7246	19,699.2	40.1498	19,699.2	42.3595	19,699.2	41.274	19,699.2	43.4736	19,699.2	43.7386	19,699.2	37.4067	19,699.2	42.0788	19,699.2	41.6381
19,998	75.2637	19,998	74.5684	19,998	75.3556	19,998	71.6356	19,998	74.3473	19,998	67.2206	19,998	71.0959	19,998	61.0206	19,998	65.4778	19,998	56.5014	19,998	57.7084	19,998	55.1765	19,998	50.7135	19,998	56.849	19,998	46.5802	19,998	54.7062	19,998	40.9429	19,998	50.3758	19,998	34.4985	19,998	45.1488	19,998	43.0707	19,998	44.721	19,998	26.5086	19,998	37.7021	19,998	22.4328	19,998	43.4969	19,998	37.3642	19,998	34.2602	19,998	23.468	19,998	45.3356	19,998	42.4521	19,998	44.6287	19,998	41.0739	19,998	44.7175	19,998	44.6033	19,998	39.6794
