"Vertical Reflections"					
"Floor Reflection"		"Ceiling Reflection"		"Total Vertical Reflection"	
"Frequency [Hz]"	"Sound Pessure Level [dB]  / [2.83V 1m] "	"Frequency [Hz]"	"Sound Pessure Level [dB]  / [2.83V 1m] "	"Frequency [Hz]"	"Sound Pessure Level [dB]  / [2.83V 1m] "
20.5078	63.5326	20.5078	63.714	20.5078	63.6242
23.4375	61.4382	23.4375	60.7705	23.4375	61.1171
26.3672	63.0194	26.3672	62.6332	26.3672	62.8306
29.2969	63.451	29.2969	63.055	29.2969	63.2575
32.2266	66.5321	32.2266	67.0591	32.2266	66.8036
35.1563	71.7154	35.1563	71.9881	35.1563	71.8539
38.0859	74.0805	38.0859	74.1083	38.0859	74.0944
41.0156	74.3713	41.0156	74.2903	41.0156	74.331
43.9453	74.3526	43.9453	74.2341	43.9453	74.2938
46.875	75.1737	46.875	75.0228	46.875	75.0989
49.8047	75.9564	49.8047	75.7796	49.8047	75.8689
52.7344	75.8071	52.7344	75.6075	52.7344	75.7085
55.6641	75.5523	55.6641	75.3087	55.6641	75.4322
58.5938	76.4574	58.5938	76.1502	58.5938	76.3065
61.5234	77.9157	61.5234	77.647	61.5234	77.7834
64.4531	78.7018	64.4531	78.4921	64.4531	78.5982
67.3828	78.5394	67.3828	78.3947	67.3828	78.4677
70.3125	77.7667	70.3125	77.647	70.3125	77.7072
73.2422	77.123	73.2422	76.8796	73.2422	77.003
76.1719	77.5758	76.1719	77.131	76.1719	77.3591
79.1016	78.5103	79.1016	78.0149	79.1016	78.2697
82.0313	79.4001	82.0313	78.9818	82.0313	79.196
84.9609	79.7333	84.9609	79.4198	84.9609	79.5794
87.8906	79.7426	87.8906	79.4753	87.8906	79.611
90.8203	78.8737	90.8203	78.6978	90.8203	78.7866
93.75	79.5162	93.75	79.1471	93.75	79.3356
96.6797	79.9352	96.6797	79.4948	96.6797	79.7206
102.539	80.5864	102.539	80.2291	102.539	80.4114
105.469	80.6854	105.469	80.4526	105.469	80.5705
108.398	80.5045	108.398	80.3857	108.398	80.4455
111.328	80.177	111.328	80.1302	111.328	80.1536
117.188	79.5916	117.188	79.4334	117.188	79.5132
120.117	79.6096	120.117	79.2187	120.117	79.4185
125.977	79.9708	125.977	79.2064	125.977	79.6054
128.906	80.1144	128.906	79.3276	128.906	79.7388
134.766	80.6118	134.766	79.8028	134.766	80.2262
137.695	80.8596	137.695	80.0776	137.695	80.4862
143.555	80.9876	143.555	80.2387	143.555	80.6293
149.414	80.9699	149.414	80.2648	149.414	80.6317
155.273	81.0606	155.273	80.2826	155.273	80.689
158.203	81.2012	158.203	80.3249	158.203	80.7851
164.063	80.9484	164.063	79.9799	164.063	80.4911
169.922	80.8784	169.922	80.0895	169.922	80.5018
175.781	80.9699	175.781	80.0385	175.781	80.5291
181.641	81.0444	181.641	79.9651	181.641	80.5382
190.43	81.0864	190.43	79.9686	190.43	80.5634
196.289	81.1894	196.289	80.204	196.289	80.7246
202.148	81.1937	202.148	80.3458	202.148	80.7904
210.938	81.2345	210.938	80.3214	210.938	80.8019
216.797	81.2075	216.797	80.3235	216.797	80.7879
225.586	81.1825	225.586	80.3164	225.586	80.771
234.375	81.2736	234.375	80.5343	234.375	80.9196
240.234	81.1003	240.234	80.421	240.234	80.7739
249.023	81.0926	249.023	80.1304	249.023	80.6381
257.813	81.4227	257.813	80.4511	257.813	80.964
266.602	81.0512	266.602	79.9182	266.602	80.5216
278.32	80.766	278.32	79.9234	278.32	80.3651
287.109	80.5487	287.109	80.1729	287.109	80.3649
295.898	80.4657	295.898	79.6873	295.898	80.0939
307.617	82.2098	307.617	80.0649	307.617	81.2684
319.336	82.2193	319.336	80.2746	319.336	81.3549
331.055	82.061	331.055	80.2267	331.055	81.24
342.773	81.7874	342.773	79.8241	342.773	80.9158
354.492	81.9079	354.492	79.9857	354.492	81.0523
366.211	81.994	366.211	80.2088	366.211	81.1925
377.93	82.1901	377.93	80.4544	377.93	81.4084
392.578	81.9592	392.578	80.0622	392.578	81.1134
407.227	81.536	407.227	79.6501	407.227	80.6946
421.875	81.9697	421.875	80.018	421.875	81.1026
436.523	81.5775	436.523	79.9147	436.523	80.8252
451.172	81.8323	451.172	80.0182	451.172	81.0193
465.82	81.5087	465.82	79.9883	465.82	80.8147
483.398	81.3102	483.398	79.8319	483.398	80.6337
500.977	80.9213	500.977	79.6548	500.977	80.334
518.555	80.1713	518.555	77.9268	518.555	79.1925
536.133	80.7794	536.133	77.7056	536.133	79.509
553.711	81.5337	553.711	78.8449	553.711	80.3941
574.219	81.8769	574.219	79.3276	574.219	80.7866
594.727	82.3385	594.727	79.0084	594.727	80.9851
615.234	83.6118	615.234	79.9381	615.234	82.1523
638.672	83.8574	638.672	80.2669	638.672	82.4231
659.18	82.5797	659.18	80.4446	659.18	81.6421
682.617	82.8188	682.617	79.8838	682.617	81.5947
706.055	82.671	706.055	79.7155	706.055	81.44
732.422	81.1636	732.422	80.6295	732.422	80.9048
758.789	81.1931	758.789	81.3705	758.789	81.2827
785.156	85.8785	785.156	82.6966	785.156	84.5726
811.523	85.5341	811.523	81.2341	811.523	83.8959
840.82	85.9356	840.82	80.1758	840.82	83.9479
870.117	84.3911	870.117	79.0371	870.117	82.4916
902.344	80.0504	902.344	82.2862	902.344	81.3106
931.641	80.6968	931.641	82.0151	931.641	81.4058
966.797	81.2142	966.797	81.2303	966.797	81.2223
999.023	82.2994	999.023	81.125	999.023	81.7518
1,034.18	83.2727	1,034.18	81.4604	1,034.18	82.4604
1,072.27	81.9051	1,072.27	81.3074	1,072.27	81.6165
1,110.35	81.6471	1,110.35	81.0341	1,110.35	81.3514
1,148.44	81.3747	1,148.44	80.5707	1,148.44	80.9913
1,189.45	81.4247	1,189.45	80.263	1,189.45	80.8826
1,230.47	80.9575	1,230.47	79.3727	1,230.47	80.237
1,274.41	81.624	1,274.41	79.4647	1,274.41	80.6772
1,318.36	80.6661	1,318.36	75.5493	1,318.36	78.8214
1,365.23	83.848	1,365.23	81.3178	1,365.23	82.7646
1,415.04	83.064	1,415.04	81.5833	1,415.04	82.3865
1,464.84	82.4803	1,464.84	81.2134	1,464.84	81.8929
1,514.65	82.7392	1,514.65	80.9929	1,514.65	81.9532
1,570.31	83.9534	1,570.31	80.4022	1,570.31	82.5311
1,623.05	83.0349	1,623.05	79.8374	1,623.05	81.724
1,681.64	82.3721	1,681.64	78.8747	1,681.64	80.9664
1,740.23	81.9475	1,740.23	80.805	1,740.23	81.4137
1,801.76	83.2873	1,801.76	79.616	1,801.76	81.8286
1,866.21	83.402	1,866.21	80.0653	1,866.21	82.0465
1,930.66	83.2738	1,930.66	80.3782	1,930.66	82.063
2,000.98	82.5443	2,000.98	80.7502	2,000.98	81.7393
2,071.29	82.2419	2,071.29	80.7247	2,071.29	81.5492
2,144.53	82.1903	2,144.53	79.2818	2,144.53	80.9751
2,217.77	81.5631	2,217.77	78.889	2,217.77	80.4287
2,296.88	81.1551	2,296.88	79.8002	2,296.88	80.5303
2,378.91	80.6514	2,378.91	78.619	2,378.91	79.753
2,460.94	79.8418	2,460.94	77.7484	2,460.94	78.92
2,548.83	79.1808	2,548.83	76.6238	2,548.83	78.0878
2,639.65	77.3224	2,639.65	75.9991	2,639.65	76.711
2,733.4	76.3275	2,733.4	75.5183	2,733.4	75.9417
2,827.15	75.2538	2,827.15	75.7482	2,827.15	75.508
2,926.76	74.019	2,926.76	75.4176	2,926.76	74.7744
3,032.23	73.7433	3,032.23	74.7788	3,032.23	74.2919
3,137.7	73.5469	3,137.7	74.9821	3,137.7	74.3235
3,249.02	73.0074	3,249.02	74.8314	3,249.02	74.0145
3,363.28	73.8091	3,363.28	74.8997	3,363.28	74.3886
3,483.4	74.7078	3,483.4	75.841	3,483.4	75.3112
3,606.45	74.9521	3,606.45	76.7805	3,606.45	75.9618
3,732.42	75.5571	3,732.42	77.5176	3,732.42	76.647
3,864.26	76.4822	3,864.26	77.6502	3,864.26	77.1053
3,999.02	77.5079	3,999.02	78.5156	3,999.02	78.0409
4,139.65	78.3379	4,139.65	78.708	4,139.65	78.5269
4,286.13	79.5363	4,286.13	78.739	4,286.13	79.1559
4,438.48	80.303	4,438.48	78.6143	4,438.48	79.5402
4,593.75	80.3243	4,593.75	78.517	4,593.75	79.514
4,757.81	80.9347	4,757.81	78.3164	4,757.81	79.82
4,924.8	81.5236	4,924.8	78.2723	4,924.8	80.1953
5,097.66	81.5971	5,097.66	77.9685	5,097.66	80.1512
5,279.3	81.252	5,279.3	77.378	5,279.3	79.7333
5,463.87	80.871	5,463.87	77.1177	5,463.87	79.3878
5,657.23	80.9212	5,657.23	77.0074	5,657.23	79.391
5,856.45	80.7519	5,856.45	76.69	5,856.45	79.1795
6,061.52	80.6233	6,061.52	76.3005	6,061.52	78.9789
6,275.39	80.2085	6,275.39	75.6469	6,275.39	78.501
6,498.05	80.4724	6,498.05	75.1102	6,498.05	78.5711
6,726.56	80.3971	6,726.56	74.4655	6,726.56	78.3738
6,963.87	79.9412	6,963.87	74.228	6,963.87	77.9632
7,209.96	79.8743	7,209.96	73.6073	7,209.96	77.785
7,464.84	79.4267	7,464.84	73.3328	7,464.84	77.3709
7,728.52	79.1249	7,728.52	73.6091	7,728.52	77.1895
8,000.98	78.831	8,000.98	74.0582	8,000.98	77.0697
8,282.23	78.874	8,282.23	73.5679	8,282.23	76.9854
8,575.2	78.9428	8,575.2	73.1902	8,575.2	76.9566
8,876.95	79.0881	8,876.95	73.2585	8,876.95	77.0858
9,190.43	79.2529	9,190.43	72.8837	9,190.43	77.1442
9,512.7	79.2447	9,512.7	72.5519	9,512.7	77.0771
9,849.61	79.2723	9,849.61	72.4102	9,849.61	77.0753
10,195.3	79.1657	10,195.3	72.3592	10,195.3	76.9783
10,555.7	79.0721	10,555.7	71.978	10,555.7	76.8364
10,927.7	78.9579	10,927.7	72.0125	10,927.7	76.7468
11,314.5	78.9239	11,314.5	72.4914	11,314.5	76.8034
11,712.9	78.8546	11,712.9	72.4973	11,712.9	76.7481
12,126	78.7751	12,126	72.0212	12,126	76.5968
12,553.7	78.9963	12,553.7	71.4742	12,553.7	76.6935
12,996.1	79.2601	12,996.1	70.872	12,996.1	76.8376
13,453.1	79.2648	13,453.1	70.3246	13,453.1	76.7762
13,927.7	79.3333	13,927.7	69.6208	13,927.7	76.7639
14,419.9	79.1838	14,419.9	68.6864	14,419.9	76.5445
14,929.7	78.8788	14,929.7	67.0123	14,929.7	76.1423
15,454.1	78.6429	15,454.1	65.5897	15,454.1	75.8425
15,999	78.4699	15,999	64.9442	15,999	75.6483
16,564.5	77.9124	16,564.5	64.5281	16,564.5	75.0969
17,147.5	76.9299	17,147.5	63.5842	17,147.5	74.1161
17,753.9	76.0305	17,753.9	62.4671	17,753.9	73.2073
18,377.9	75.0293	18,377.9	61.0644	18,377.9	72.1899
19,028.3	73.4398	19,028.3	58.3884	19,028.3	70.5632
19,699.2	71.7647	19,699.2	54.3476	19,699.2	68.8324
19,998	71.0015	19,998	52.9875	19,998	68.0593
