"Horizontal Reflections"							
"Front"		"Side"		"Rear"		"Total Horizontal Reflection"	
"Frequency [Hz]"	"Sound Pessure Level [dB]  / [2.83V 1m] "	"Frequency [Hz]"	"Sound Pessure Level [dB]  / [2.83V 1m] "	"Frequency [Hz]"	"Sound Pessure Level [dB]  / [2.83V 1m] "	"Frequency [Hz]"	"Sound Pessure Level [dB]  / [2.83V 1m] "
20.5078	63.825	20.5078	63.6664	20.5078	63.2232	20.5078	63.4711
21.9727	64.9947	21.9727	64.827	21.9727	64.347	21.9727	64.6153
23.4375	66.3249	23.4375	66.182	23.4375	65.7612	23.4375	65.9946
24.9023	67.1479	24.9023	67.0023	24.9023	66.5969	24.9023	66.8231
26.3672	67.9629	26.3672	67.8078	26.3672	67.3734	26.3672	67.6161
27.832	68.8877	27.832	68.7319	27.832	68.2998	27.832	68.5416
29.2969	69.7257	29.2969	69.554	29.2969	69.0646	29.2969	69.3385
30.7617	70.461	30.7617	70.3011	30.7617	69.853	30.7617	70.1037
32.2266	71.1864	32.2266	71.036	32.2266	70.6205	32.2266	70.8529
33.6914	71.8853	33.6914	71.7254	33.6914	71.3036	33.6914	71.5411
35.1563	72.6086	35.1563	72.4432	35.1563	72.0123	35.1563	72.2555
36.6211	73.1895	36.6211	73.0245	36.6211	72.5911	36.6211	72.8355
38.0859	73.8066	38.0859	73.6576	38.0859	73.2727	38.0859	73.4895
39.5508	74.3724	39.5508	74.2148	39.5508	73.8089	39.5508	74.0379
41.0156	74.9491	41.0156	74.8181	41.0156	74.5063	41.0156	74.6831
42.4805	75.417	42.4805	75.2237	42.4805	74.7412	42.4805	75.0162
43.9453	75.9252	43.9453	75.7451	43.9453	75.3122	43.9453	75.5595
45.4102	76.4392	45.4102	76.2381	45.4102	75.7604	45.4102	76.0347
46.875	76.9747	46.875	76.7486	46.875	76.1601	46.875	76.4961
48.3398	77.2715	48.3398	77.0705	48.3398	76.574	48.3398	76.8578
51.2695	77.9536	51.2695	77.7566	51.2695	77.3035	51.2695	77.5645
52.7344	78.3015	52.7344	78.1014	52.7344	77.6487	52.7344	77.9102
54.1992	78.5916	54.1992	78.3888	54.1992	77.9276	54.1992	78.1939
55.6641	78.8561	55.6641	78.6666	55.6641	78.2578	55.6641	78.495
58.5938	79.3622	58.5938	79.1516	58.5938	78.713	58.5938	78.9696
60.0586	79.5722	60.0586	79.3631	60.0586	78.9408	60.0586	79.1889
62.9883	79.9621	62.9883	79.7345	62.9883	79.2799	62.9883	79.5482
64.4531	80.0755	64.4531	79.847	64.4531	79.402	64.4531	79.6657
67.3828	80.2861	67.3828	80.0538	67.3828	79.6194	67.3828	79.8785
68.8477	80.446	68.8477	80.2061	68.8477	79.7631	68.8477	80.0282
71.7773	80.7214	71.7773	80.457	71.7773	79.9458	71.7773	80.2506
74.707	80.926	74.707	80.6656	74.707	80.1907	74.707	80.4763
77.6367	80.9799	77.6367	80.7155	77.6367	80.28	77.6367	80.5466
79.1016	81.0549	79.1016	80.7761	79.1016	80.3189	79.1016	80.5995
82.0313	81.189	82.0313	80.8769	82.0313	80.3315	82.0313	80.6642
84.9609	81.2896	84.9609	80.9801	84.9609	80.3731	84.9609	80.7368
87.8906	81.1477	87.8906	80.8967	87.8906	80.4719	87.8906	80.7302
90.8203	80.8687	90.8203	80.6664	90.8203	80.6578	90.8203	80.702
95.2148	81.6131	95.2148	81.182	95.2148	80.3733	95.2148	80.8697
98.1445	81.2539	98.1445	80.8828	98.1445	80.3385	98.1445	80.6837
101.074	81.2916	101.074	80.8874	101.074	80.2769	101.074	80.6635
105.469	81.2603	105.469	80.8391	105.469	80.3158	105.469	80.6613
108.398	81.4557	108.398	80.9947	108.398	80.3155	108.398	80.7507
112.793	81.6162	112.793	81.1499	112.793	80.4469	112.793	80.8958
117.188	81.5716	117.188	81.0729	117.188	80.4275	117.188	80.8537
120.117	81.7476	120.117	81.2246	120.117	80.544	120.117	80.9942
124.512	81.8077	124.512	81.2756	124.512	80.5212	124.512	81.0123
128.906	81.7413	128.906	81.1857	128.906	80.3608	128.906	80.8949
133.301	81.5833	133.301	81.0264	133.301	80.1159	133.301	80.6962
139.16	81.3487	139.16	80.8278	139.16	80.1495	139.16	80.598
143.555	81.3855	143.555	80.7899	143.555	80.1832	143.555	80.6116
147.949	81.3546	147.949	80.6721	147.949	79.9213	147.949	80.4461
153.809	81.5735	153.809	80.7949	153.809	79.7666	153.809	80.4653
159.668	81.8371	159.668	81.0807	159.668	79.9568	159.668	80.7028
165.527	81.7533	165.527	80.994	165.527	80.0035	165.527	80.6766
171.387	81.7146	171.387	80.9097	171.387	79.9018	171.387	80.5958
177.246	81.6374	177.246	80.8137	177.246	79.7779	177.246	80.4921
183.105	81.4762	183.105	80.5684	183.105	79.5411	183.105	80.272
188.965	81.6063	188.965	80.6119	188.965	79.269	188.965	80.2007
196.289	81.8461	196.289	80.8608	196.289	79.3968	196.289	80.3959
203.613	81.8173	203.613	80.747	203.613	79.1549	203.613	80.2524
210.938	81.8852	210.938	80.7915	210.938	78.9704	210.938	80.2112
218.262	81.8814	218.262	80.8177	218.262	78.9701	218.262	80.2183
225.586	81.9668	225.586	80.7828	225.586	79.1095	225.586	80.2874
232.91	82.187	232.91	80.9418	232.91	78.7648	232.91	80.2691
241.699	82.1643	241.699	80.9962	241.699	78.5604	241.699	80.2049
250.488	82.3668	250.488	81.1359	250.488	78.5561	250.488	80.3126
259.277	82.4913	259.277	81.3547	259.277	78.8601	259.277	80.5326
268.066	82.0416	268.066	80.917	268.066	78.6919	268.066	80.1901
276.855	82.1333	276.855	81.0144	276.855	78.6354	276.855	80.2289
287.109	82.1099	287.109	80.8184	287.109	78.42	287.109	80.0786
297.363	82.2236	297.363	80.6939	297.363	78.014	297.363	79.9319
307.617	82.6101	307.617	81.3865	307.617	77.8735	307.617	80.2545
319.336	82.7511	319.336	81.381	319.336	77.9494	319.336	80.3233
329.59	82.835	329.59	81.7258	329.59	77.9613	329.59	80.48
341.309	82.0345	341.309	80.9832	341.309	78.3879	341.309	80.0992
353.027	82.1983	353.027	80.7723	353.027	77.8929	353.027	79.9091
366.211	82.4593	366.211	81.0268	366.211	77.2826	366.211	79.8977
379.395	82.9018	379.395	81.4378	379.395	77.3604	379.395	80.2263
392.578	83.434	392.578	81.1746	392.578	76.5653	392.578	80.1373
405.762	83.5945	405.762	81.4004	405.762	76.3773	405.762	80.243
420.41	83.8436	420.41	82.3087	420.41	76.045	420.41	80.6301
435.059	83.0463	435.059	81.8138	435.059	76.8062	435.059	80.2811
451.172	83.4236	451.172	82.2106	451.172	76.5497	451.172	80.5243
465.82	83.3487	465.82	82.4398	465.82	76.1928	465.82	80.5201
483.398	81.9911	483.398	81.7615	483.398	78.2489	483.398	80.3218
499.512	83.7445	499.512	82.0986	499.512	78.722	499.512	81.1531
517.09	84.3804	517.09	83.1108	517.09	78.6648	517.09	81.7312
536.133	84.698	536.133	82.3479	536.133	78.7707	536.133	81.6083
555.176	85.1765	555.176	82.8817	555.176	78.4267	555.176	81.8952
574.219	85.6396	574.219	83.3588	574.219	78.7115	574.219	82.3216
594.727	85.566	594.727	83.1312	594.727	79.5791	594.727	82.4322
615.234	86.4153	615.234	83.2649	615.234	78.1291	615.234	82.5138
637.207	86.4759	637.207	83.3658	637.207	79.4587	637.207	82.8615
659.18	86.6323	659.18	83.5735	659.18	77.838	659.18	82.6687
682.617	86.4579	682.617	83.2978	682.617	78.6585	682.617	82.6512
707.52	86.3658	707.52	83.1275	707.52	77.6864	707.52	82.3621
732.422	85.8212	732.422	83.1356	732.422	76.944	732.422	81.9751
757.324	85.8385	757.324	82.6572	757.324	77.0918	757.324	81.8417
785.156	85.7054	785.156	82.8458	785.156	75.8308	785.156	81.6445
811.523	85.6064	811.523	82.3542	811.523	76.1371	811.523	81.4661
840.82	85.4893	840.82	82.4925	840.82	74.9623	840.82	81.293
870.117	85.5876	870.117	82.4429	870.117	75.517	870.117	81.3971
900.879	85.6824	900.879	82.439	900.879	75.1551	900.879	81.3973
933.105	86.2001	933.105	82.9817	933.105	75.4882	933.105	81.9013
965.332	86.1418	965.332	82.5125	965.332	75.6136	965.332	81.7243
1,000.49	86.1481	1,000.49	82.2605	1,000.49	75.1204	1,000.49	81.5836
1,035.64	85.7613	1,035.64	81.6981	1,035.64	74.1755	1,035.64	81.0769
1,072.27	85.2317	1,072.27	80.9976	1,072.27	73.9558	1,072.27	80.5282
1,108.89	84.6014	1,108.89	80.081	1,108.89	73.0286	1,108.89	79.7771
1,148.44	84.4811	1,148.44	80.2612	1,148.44	72.2828	1,148.44	79.6844
1,189.45	84.4394	1,189.45	80.2324	1,189.45	72.1942	1,189.45	79.6423
1,230.47	84.8926	1,230.47	80.3607	1,230.47	72.323	1,230.47	79.9643
1,274.41	84.9349	1,274.41	80.5145	1,274.41	72.0181	1,274.41	80.0106
1,319.82	84.4773	1,319.82	79.8501	1,319.82	71.8293	1,319.82	79.5131
1,366.7	84.0905	1,366.7	79.0085	1,366.7	70.9252	1,366.7	78.9492
1,413.57	83.8419	1,413.57	78.6033	1,413.57	71.1048	1,413.57	78.6948
1,463.38	83.5501	1,463.38	78.3974	1,463.38	70.0112	1,463.38	78.359
1,516.11	83.9733	1,516.11	79.1185	1,516.11	70.3672	1,516.11	78.8627
1,568.85	84.5759	1,568.85	79.5234	1,568.85	70.2253	1,568.85	79.356
1,624.51	84.0877	1,624.51	79.178	1,624.51	70.4374	1,624.51	78.9577
1,681.64	83.3597	1,681.64	78.4779	1,681.64	70.6227	1,681.64	78.3125
1,741.7	83.9113	1,741.7	78.7873	1,741.7	69.5809	1,741.7	78.6722
1,803.22	84.1933	1,803.22	79.6168	1,803.22	71.2072	1,803.22	79.2151
1,866.21	84.023	1,866.21	80.0282	1,866.21	71.3634	1,866.21	79.2575
1,932.13	83.4799	1,932.13	79.4665	1,932.13	69.585	1,932.13	78.6149
1,999.51	83.3689	1,999.51	79.4744	1,999.51	70.5293	1,999.51	78.6219
2,069.82	83.8676	2,069.82	80.0863	2,069.82	71.2463	2,069.82	79.1773
2,143.07	83.3471	2,143.07	80.0732	2,143.07	71.0802	2,143.07	78.8673
2,219.24	82.6082	2,219.24	79.136	2,219.24	69.6939	2,219.24	78.0027
2,296.88	83.6734	2,296.88	80.0581	2,296.88	70.1175	2,296.88	78.9696
2,378.91	84.2806	2,378.91	80.218	2,378.91	69.848	2,378.91	79.3654
2,462.4	83.8792	2,462.4	80.016	2,462.4	69.8318	2,462.4	79.0558
2,548.83	83.8291	2,548.83	79.6406	2,548.83	69.5949	2,548.83	78.8839
2,639.65	84.4226	2,639.65	79.9914	2,639.65	69.2384	2,639.65	79.3443
2,731.93	84.7166	2,731.93	80.2023	2,731.93	69.3867	2,731.93	79.6042
2,828.61	84.6264	2,828.61	80.4833	2,828.61	69.9545	2,828.61	79.6704
2,928.22	84.6845	2,928.22	80.8195	2,928.22	70.0923	2,928.22	79.828
3,030.76	84.3987	3,030.76	80.6279	3,030.76	69.8936	3,030.76	79.5802
3,137.7	84.5156	3,137.7	80.7925	3,137.7	69.8835	3,137.7	79.7069
3,249.02	84.2732	3,249.02	80.8184	3,249.02	70.0841	3,249.02	79.5872
3,363.28	84.2487	3,363.28	80.9012	3,363.28	70.373	3,363.28	79.6216
3,481.93	84.2349	3,481.93	81.1826	3,481.93	70.6478	3,481.93	79.7385
3,604.98	84.4827	3,604.98	81.4582	3,604.98	70.5557	3,604.98	79.9758
3,732.42	84.15	3,732.42	81.2586	3,732.42	70.5605	3,732.42	79.7165
3,864.26	84.2231	3,864.26	81.4639	3,864.26	70.7886	3,864.26	79.8524
4,000.49	83.2565	4,000.49	80.7359	4,000.49	70.3101	4,000.49	79.0164
4,141.11	83.0887	4,141.11	80.5142	4,141.11	69.8764	4,141.11	78.8079
4,287.6	82.9219	4,287.6	80.3193	4,287.6	70.0074	4,287.6	78.6504
4,438.48	83.2822	4,438.48	80.4059	4,438.48	69.1691	4,438.48	78.8229
4,595.21	83.2945	4,595.21	80.665	4,595.21	69.8418	4,595.21	78.9753
4,756.35	83.7686	4,756.35	80.9669	4,756.35	69.0919	4,756.35	79.3092
4,924.8	83.999	4,924.8	80.8425	4,924.8	69.6597	4,924.8	79.4169
5,097.66	83.8073	5,097.66	80.9719	5,097.66	68.9355	5,097.66	79.3246
5,277.83	83.6195	5,277.83	80.3879	5,277.83	68.7107	5,277.83	78.9785
5,463.87	82.8347	5,463.87	80.2594	5,463.87	68.4727	5,463.87	78.4848
5,657.23	82.4419	5,657.23	79.6307	5,657.23	67.1438	5,657.23	77.9495
5,856.45	82.1136	5,856.45	79.1328	5,856.45	66.8397	5,856.45	77.5537
6,062.99	81.6781	6,062.99	79.2643	6,062.99	66.5798	6,062.99	77.3613
6,276.86	81.3763	6,276.86	79.3766	6,276.86	66.4213	6,276.86	77.2488
6,498.05	81.3618	6,498.05	78.9185	6,498.05	66.5047	6,498.05	77.0432
6,726.56	81.2228	6,726.56	78.4184	6,726.56	65.9632	6,726.56	76.7348
6,963.87	80.7985	6,963.87	77.2402	6,963.87	65.0875	6,963.87	75.9973
7,209.96	80.4353	7,209.96	76.5851	7,209.96	64.2816	7,209.96	75.5099
7,464.84	80.1794	7,464.84	76.3229	7,464.84	63.2222	7,464.84	75.2225
7,727.05	80.4103	7,727.05	75.979	7,727.05	61.7546	7,727.05	75.207
7,999.51	80.9302	7,999.51	75.9339	7,999.51	61.5121	7,999.51	75.53
8,282.23	81.4995	8,282.23	76.0815	8,282.23	61.3271	8,282.23	75.9602
8,573.73	81.7613	8,573.73	76.0929	8,573.73	60.923	8,573.73	76.1405
8,876.95	81.7244	8,876.95	75.6576	8,876.95	60.3064	8,876.95	75.9889
9,188.96	81.613	9,188.96	75.0653	9,188.96	59.624	9,188.96	75.7508
9,514.16	81.5721	9,514.16	74.4872	9,514.16	58.4814	9,514.16	75.5755
9,849.61	81.7172	9,849.61	74.0436	9,849.61	56.9502	9,849.61	75.5852
10,196.8	81.9215	10,196.8	73.5192	10,196.8	55.8682	10,196.8	75.6485
10,555.7	82.0417	10,555.7	72.7256	10,555.7	53.4566	10,555.7	75.6152
10,927.7	81.9761	10,927.7	71.4367	10,927.7	49.7647	10,927.7	75.3864
11,313	81.617	11,313	69.9198	11,313	48.9925	11,313	74.9115
11,712.9	81.0487	11,712.9	69.1431	11,712.9	50.5244	11,712.9	74.3289
12,126	80.7001	12,126	69.4248	12,126	53.5379	12,126	74.048
12,553.7	80.7716	12,553.7	70.3691	12,553.7	55.1191	12,553.7	74.2194
12,996.1	80.7495	12,996.1	70.7962	12,996.1	55.2104	12,996.1	74.252
13,454.6	80.7961	13,454.6	70.5793	13,454.6	54.7582	13,454.6	74.2632
13,929.2	80.886	13,929.2	70.0352	13,929.2	54.3844	13,929.2	74.2797
14,419.9	80.7291	14,419.9	69.2644	14,419.9	54.3018	14,419.9	74.063
14,928.2	80.4823	14,928.2	68.5304	14,928.2	54.2035	14,928.2	73.7744
15,455.6	80.0807	15,455.6	67.9038	15,455.6	54.0754	15,455.6	73.3563
16,000.5	79.4992	16,000.5	67.1808	16,000.5	53.358	16,000.5	72.7629
16,564.5	78.9625	16,564.5	66.4612	16,564.5	52.3724	16,564.5	72.2098
17,148.9	78.5558	17,148.9	65.624	17,148.9	51.0173	17,148.9	71.768
17,752.4	78.0076	17,752.4	64.1797	17,752.4	48.0124	17,752.4	71.1564
18,379.4	77.0407	18,379.4	61.5769	18,379.4	43.8974	18,379.4	70.1069
19,026.9	75.9668	19,026.9	58.4498	19,026.9	41.14	19,026.9	68.967
19,697.8	75.3306	19,697.8	56.0879	19,697.8	40.0999	19,697.8	68.2952
19,999.5	75.0689	19,999.5	55.3286	19,999.5	42.8242	19,999.5	68.0292
