"SPL Vertical"																																																																							
"On-Axis"		"10°"		"-10°"		"20°"		"-20°"		"30°"		"-30°"		"40°"		"-40°"		"50°"		"-50°"		"60°"		"-60°"		"70°"		"-70°"		"80°"		"-80°"		"90°"		"-90°"		"100°"		"-100°"		"110°"		"-110°"		"120°"		"-120°"		"130°"		"-130°"		"140°"		"-140°"		"150°"		"-150°"		"160°"		"-160°"		"170°"		"-170°"		"180°"	
"Frequency [Hz]"	"Sound Pessure Level [dB]  / [2.83V 1m] "	"Frequency [Hz]"	"Sound Pessure Level [dB]  / [2.83V 1m] "	"Frequency [Hz]"	"Sound Pessure Level [dB]  / [2.83V 1m] "	"Frequency [Hz]"	"Sound Pessure Level [dB]  / [2.83V 1m] "	"Frequency [Hz]"	"Sound Pessure Level [dB]  / [2.83V 1m] "	"Frequency [Hz]"	"Sound Pessure Level [dB]  / [2.83V 1m] "	"Frequency [Hz]"	"Sound Pessure Level [dB]  / [2.83V 1m] "	"Frequency [Hz]"	"Sound Pessure Level [dB]  / [2.83V 1m] "	"Frequency [Hz]"	"Sound Pessure Level [dB]  / [2.83V 1m] "	"Frequency [Hz]"	"Sound Pessure Level [dB]  / [2.83V 1m] "	"Frequency [Hz]"	"Sound Pessure Level [dB]  / [2.83V 1m] "	"Frequency [Hz]"	"Sound Pessure Level [dB]  / [2.83V 1m] "	"Frequency [Hz]"	"Sound Pessure Level [dB]  / [2.83V 1m] "	"Frequency [Hz]"	"Sound Pessure Level [dB]  / [2.83V 1m] "	"Frequency [Hz]"	"Sound Pessure Level [dB]  / [2.83V 1m] "	"Frequency [Hz]"	"Sound Pessure Level [dB]  / [2.83V 1m] "	"Frequency [Hz]"	"Sound Pessure Level [dB]  / [2.83V 1m] "	"Frequency [Hz]"	"Sound Pessure Level [dB]  / [2.83V 1m] "	"Frequency [Hz]"	"Sound Pessure Level [dB]  / [2.83V 1m] "	"Frequency [Hz]"	"Sound Pessure Level [dB]  / [2.83V 1m] "	"Frequency [Hz]"	"Sound Pessure Level [dB]  / [2.83V 1m] "	"Frequency [Hz]"	"Sound Pessure Level [dB]  / [2.83V 1m] "	"Frequency [Hz]"	"Sound Pessure Level [dB]  / [2.83V 1m] "	"Frequency [Hz]"	"Sound Pessure Level [dB]  / [2.83V 1m] "	"Frequency [Hz]"	"Sound Pessure Level [dB]  / [2.83V 1m] "	"Frequency [Hz]"	"Sound Pessure Level [dB]  / [2.83V 1m] "	"Frequency [Hz]"	"Sound Pessure Level [dB]  / [2.83V 1m] "	"Frequency [Hz]"	"Sound Pessure Level [dB]  / [2.83V 1m] "	"Frequency [Hz]"	"Sound Pessure Level [dB]  / [2.83V 1m] "	"Frequency [Hz]"	"Sound Pessure Level [dB]  / [2.83V 1m] "	"Frequency [Hz]"	"Sound Pessure Level [dB]  / [2.83V 1m] "	"Frequency [Hz]"	"Sound Pessure Level [dB]  / [2.83V 1m] "	"Frequency [Hz]"	"Sound Pessure Level [dB]  / [2.83V 1m] "	"Frequency [Hz]"	"Sound Pessure Level [dB]  / [2.83V 1m] "	"Frequency [Hz]"	"Sound Pessure Level [dB]  / [2.83V 1m] "	"Frequency [Hz]"	"Sound Pessure Level [dB]  / [2.83V 1m] "
20.5078	63.8449	20.5078	63.7654	20.5078	63.915	20.5078	63.6791	20.5078	63.9731	20.5078	63.5888	20.5078	64.0166	20.5078	63.4968	20.5078	64.0432	20.5078	63.4055	20.5078	64.0511	20.5078	63.3169	20.5078	64.0391	20.5078	63.2333	20.5078	64.0069	20.5078	63.1562	20.5078	63.9549	20.5078	63.0875	20.5078	63.885	20.5078	63.0286	20.5078	63.7996	20.5078	62.9809	20.5078	63.7024	20.5078	62.9455	20.5078	63.5973	20.5078	62.9235	20.5078	63.4889	20.5078	62.9157	20.5078	63.3816	20.5078	62.9227	20.5078	63.2795	20.5078	62.945	20.5078	63.1862	20.5078	62.983	20.5078	63.1045	20.5078	63.0363
21.9727	65.0155	21.9727	64.9415	21.9727	65.0791	21.9727	64.8599	21.9727	65.1296	21.9727	64.7732	21.9727	65.1646	21.9727	64.6839	21.9727	65.1817	21.9727	64.5944	21.9727	65.1794	21.9727	64.5066	21.9727	65.1568	21.9727	64.4226	21.9727	65.1138	21.9727	64.3441	21.9727	65.0514	21.9727	64.2726	21.9727	64.972	21.9727	64.2097	21.9727	64.8787	21.9727	64.1565	21.9727	64.7754	21.9727	64.1142	21.9727	64.6669	21.9727	64.0839	21.9727	64.5578	21.9727	64.0664	21.9727	64.4529	21.9727	64.0627	21.9727	64.356	21.9727	64.0736	21.9727	64.2703	21.9727	64.0996	21.9727	64.1983	21.9727	64.1412
23.4375	66.3425	23.4375	66.26	23.4375	66.4163	23.4375	66.1717	23.4375	66.4788	23.4375	66.0801	23.4375	66.5273	23.4375	65.9877	23.4375	66.5596	23.4375	65.8969	23.4375	66.5737	23.4375	65.8097	23.4375	66.5681	23.4375	65.728	23.4375	66.5423	23.4375	65.6537	23.4375	66.4965	23.4375	65.5883	23.4375	66.432	23.4375	65.5331	23.4375	66.351	23.4375	65.4894	23.4375	66.2567	23.4375	65.4583	23.4375	66.1531	23.4375	65.4407	23.4375	66.0446	23.4375	65.4374	23.4375	65.9359	23.4375	65.4489	23.4375	65.8312	23.4375	65.4758	23.4375	65.7345	23.4375	65.5183	23.4375	65.6487	23.4375	65.5762
24.9023	67.166	24.9023	67.0876	24.9023	67.2356	24.9023	67.0031	24.9023	67.2937	24.9023	66.9149	24.9023	67.3378	24.9023	66.8256	24.9023	67.3658	24.9023	66.7376	24.9023	67.3758	24.9023	66.6531	24.9023	67.3668	24.9023	66.574	24.9023	67.3384	24.9023	66.5022	24.9023	67.2911	24.9023	66.4393	24.9023	67.2266	24.9023	66.3866	24.9023	67.1473	24.9023	66.3452	24.9023	67.0566	24.9023	66.3162	24.9023	66.9583	24.9023	66.3003	24.9023	66.8568	24.9023	66.2978	24.9023	66.7561	24.9023	66.3093	24.9023	66.66	24.9023	66.3347	24.9023	66.5716	24.9023	66.3741	24.9023	66.4935	24.9023	66.4273
26.3672	67.9822	26.3672	67.9044	26.3672	68.0504	26.3672	67.8199	26.3672	68.1064	26.3672	67.7313	26.3672	68.1476	26.3672	67.6411	26.3672	68.1718	26.3672	67.5518	26.3672	68.1771	26.3672	67.4656	26.3672	68.1626	26.3672	67.3844	26.3672	68.1279	26.3672	67.3101	26.3672	68.074	26.3672	67.2442	26.3672	68.0026	26.3672	67.1881	26.3672	67.9167	26.3672	67.1429	26.3672	67.8201	26.3672	67.1096	26.3672	67.7171	26.3672	67.0889	26.3672	67.6122	26.3672	67.0814	26.3672	67.5098	26.3672	67.0874	26.3672	67.4136	26.3672	67.1074	26.3672	67.3269	26.3672	67.1415	26.3672	67.2518	26.3672	67.1897
27.832	68.9072	27.832	68.8299	27.832	68.9748	27.832	68.7457	27.832	69.0301	27.832	68.6572	27.832	69.0708	27.832	68.5668	27.832	69.0945	27.832	68.4771	27.832	69.0997	27.832	68.3902	27.832	69.0854	27.832	68.3082	27.832	69.0513	27.832	68.2331	27.832	68.9983	27.832	68.1664	27.832	68.9282	27.832	68.1097	27.832	68.8439	27.832	68.0642	27.832	68.749	27.832	68.031	27.832	68.6476	27.832	68.0108	27.832	68.544	27.832	68.0043	27.832	68.4424	27.832	68.0118	27.832	68.3466	27.832	68.0336	27.832	68.2594	27.832	68.0696	27.832	68.1833	27.832	68.1197
29.2969	69.747	29.2969	69.668	29.2969	69.8154	29.2969	69.5812	29.2969	69.8706	29.2969	69.4893	29.2969	69.9101	29.2969	69.3947	29.2969	69.9315	29.2969	69.3	29.2969	69.9331	29.2969	69.2075	29.2969	69.9138	29.2969	69.1192	29.2969	69.8734	29.2969	69.037	29.2969	69.8127	29.2969	68.9628	29.2969	69.7336	29.2969	68.8979	29.2969	69.6391	29.2969	68.8439	29.2969	69.5332	29.2969	68.8019	29.2969	69.4206	29.2969	68.773	29.2969	69.3062	29.2969	68.7582	29.2969	69.1948	29.2969	68.7582	29.2969	69.0908	29.2969	68.7739	29.2969	68.9977	29.2969	68.8057	29.2969	68.9181	29.2969	68.8538
30.7617	70.481	30.7617	70.4005	30.7617	70.5519	30.7617	70.3132	30.7617	70.6104	30.7617	70.222	30.7617	70.6538	30.7617	70.1294	30.7617	70.6796	30.7617	70.0378	30.7617	70.6858	30.7617	69.9495	30.7617	70.6712	30.7617	69.8665	30.7617	70.6355	30.7617	69.7905	30.7617	70.5793	30.7617	69.7233	30.7617	70.5047	30.7617	69.666	30.7617	70.4149	30.7617	69.6198	30.7617	70.3139	30.7617	69.5857	30.7617	70.2064	30.7617	69.5643	30.7617	70.0975	30.7617	69.5563	30.7617	69.9916	30.7617	69.562	30.7617	69.8927	30.7617	69.5819	30.7617	69.804	30.7617	69.6161	30.7617	69.7276	30.7617	69.6647
32.2266	71.2053	32.2266	71.1279	32.2266	71.2733	32.2266	71.0438	32.2266	71.3292	32.2266	70.9558	32.2266	71.3705	32.2266	70.8665	32.2266	71.395	32.2266	70.7783	32.2266	71.401	32.2266	70.6934	32.2266	71.3875	32.2266	70.614	32.2266	71.3543	32.2266	70.5418	32.2266	71.3023	32.2266	70.4785	32.2266	71.2334	32.2266	70.4253	32.2266	71.1504	32.2266	70.3834	32.2266	71.0571	32.2266	70.3535	32.2266	70.9576	32.2266	70.3362	32.2266	70.8565	32.2266	70.3318	32.2266	70.7578	32.2266	70.3406	32.2266	70.665	32.2266	70.3626	32.2266	70.5809	32.2266	70.398	32.2266	70.5077	32.2266	70.4464
33.6914	71.9056	33.6914	71.8283	33.6914	71.9731	33.6914	71.7439	33.6914	72.028	33.6914	71.6553	33.6914	72.0679	33.6914	71.5649	33.6914	72.0906	33.6914	71.4755	33.6914	72.0944	33.6914	71.3893	33.6914	72.0784	33.6914	71.3085	33.6914	72.0427	33.6914	71.2351	33.6914	71.9883	33.6914	71.1707	33.6914	71.9173	33.6914	71.1166	33.6914	71.8327	33.6914	71.074	33.6914	71.7385	33.6914	71.0438	33.6914	71.6389	33.6914	71.0263	33.6914	71.5384	33.6914	71.0219	33.6914	71.4408	33.6914	71.0306	33.6914	71.3494	33.6914	71.0525	33.6914	71.267	33.6914	71.0874	33.6914	71.1952	33.6914	71.1351
35.1563	72.6295	35.1563	72.5509	35.1563	72.698	35.1563	72.4649	35.1563	72.7536	35.1563	72.3746	35.1563	72.7936	35.1563	72.2826	35.1563	72.8159	35.1563	72.1916	35.1563	72.8188	35.1563	72.104	35.1563	72.8014	35.1563	72.022	35.1563	72.7636	35.1563	71.9477	35.1563	72.7066	35.1563	71.8827	35.1563	72.6327	35.1563	71.8284	35.1563	72.5452	35.1563	71.7858	35.1563	72.4482	35.1563	71.7555	35.1563	72.3463	35.1563	71.7381	35.1563	72.244	35.1563	71.7336	35.1563	72.1456	35.1563	71.742	35.1563	72.0543	35.1563	71.7632	35.1563	71.9726	35.1563	71.797	35.1563	71.902	35.1563	71.8433
36.6211	73.2104	36.6211	73.131	36.6211	73.2798	36.6211	73.0444	36.6211	73.3364	36.6211	72.9535	36.6211	73.3776	36.6211	72.8608	36.6211	73.4013	36.6211	72.7692	36.6211	73.4057	36.6211	72.681	36.6211	73.39	36.6211	72.5983	36.6211	73.3539	36.6211	72.5234	36.6211	73.2985	36.6211	72.4577	36.6211	73.2258	36.6211	72.4027	36.6211	73.1389	36.6211	72.3594	36.6211	73.0418	36.6211	72.3287	36.6211	72.9389	36.6211	72.3109	36.6211	72.8348	36.6211	72.3063	36.6211	72.7338	36.6211	72.3149	36.6211	72.6395	36.6211	72.3367	36.6211	72.5547	36.6211	72.3718	36.6211	72.4811	36.6211	72.42
38.0859	73.8256	38.0859	73.7471	38.0859	73.8948	38.0859	73.6622	38.0859	73.9521	38.0859	73.5738	38.0859	73.9949	38.0859	73.4846	38.0859	74.021	38.0859	73.3971	38.0859	74.0289	38.0859	73.3137	38.0859	74.0177	38.0859	73.2367	38.0859	73.9874	38.0859	73.1678	38.0859	73.9388	38.0859	73.1088	38.0859	73.8741	38.0859	73.0608	38.0859	73.796	38.0859	73.0247	38.0859	73.7081	38.0859	73.001	38.0859	73.6143	38.0859	72.9901	38.0859	73.5187	38.0859	72.9919	38.0859	73.425	38.0859	73.0062	38.0859	73.3363	38.0859	73.0329	38.0859	73.2551	38.0859	73.0715	38.0859	73.1832	38.0859	73.1218
39.5508	74.3925	39.5508	74.314	39.5508	74.4611	39.5508	74.2285	39.5508	74.5169	39.5508	74.139	39.5508	74.5575	39.5508	74.0482	39.5508	74.5807	39.5508	73.9588	39.5508	74.5849	39.5508	73.8734	39.5508	74.5693	39.5508	73.7942	39.5508	74.5342	39.5508	73.7231	39.5508	74.4806	39.5508	73.6617	39.5508	74.4108	39.5508	73.6114	39.5508	74.3281	39.5508	73.5728	39.5508	74.2361	39.5508	73.5467	39.5508	74.1392	39.5508	73.533	39.5508	74.0414	39.5508	73.5319	39.5508	73.9467	39.5508	73.5432	39.5508	73.8582	39.5508	73.5667	39.5508	73.7781	39.5508	73.6021	39.5508	73.7082	39.5508	73.6494
41.0156	74.9663	41.0156	74.8889	41.0156	75.034	41.0156	74.8047	41.0156	75.0892	41.0156	74.7171	41.0156	75.1293	41.0156	74.6291	41.0156	75.1527	41.0156	74.5438	41.0156	75.1582	41.0156	74.4641	41.0156	75.1457	41.0156	74.3924	41.0156	75.116	41.0156	74.3308	41.0156	75.0708	41.0156	74.2811	41.0156	75.0128	41.0156	74.2444	41.0156	74.9453	41.0156	74.2213	41.0156	74.8717	41.0156	74.2118	41.0156	74.7954	41.0156	74.2156	41.0156	74.7192	41.0156	74.2317	41.0156	74.6453	41.0156	74.2586	41.0156	74.5749	41.0156	74.295	41.0156	74.5087	41.0156	74.3394	41.0156	74.447	41.0156	74.3904
42.4805	75.4419	42.4805	75.3604	42.4805	75.5108	42.4805	75.2693	42.4805	75.5644	42.4805	75.1716	42.4805	75.6004	42.4805	75.0705	42.4805	75.6168	42.4805	74.9691	42.4805	75.6124	42.4805	74.8702	42.4805	75.5869	42.4805	74.7766	42.4805	75.5408	42.4805	74.691	42.4805	75.4757	42.4805	74.6154	42.4805	75.3943	42.4805	74.5517	42.4805	75.3003	42.4805	74.5014	42.4805	75.1976	42.4805	74.4654	42.4805	75.0908	42.4805	74.4444	42.4805	74.9842	42.4805	74.4384	42.4805	74.8814	42.4805	74.4474	42.4805	74.7855	42.4805	74.4709	42.4805	74.6989	42.4805	74.5084	42.4805	74.6232	42.4805	74.5594
43.9453	75.9486	43.9453	75.8669	43.9453	76.018	43.9453	75.7759	43.9453	76.0725	43.9453	75.6788	43.9453	76.1096	43.9453	75.5787	43.9453	76.1278	43.9453	75.4789	43.9453	76.1258	43.9453	75.3824	43.9453	76.1038	43.9453	75.2921	43.9453	76.0623	43.9453	75.2108	43.9453	76.0034	43.9453	75.1406	43.9453	75.9297	43.9453	75.0834	43.9453	75.8447	43.9453	75.0406	43.9453	75.7523	43.9453	75.0131	43.9453	75.6561	43.9453	75.0011	43.9453	75.5598	43.9453	75.0045	43.9453	75.466	43.9453	75.0226	43.9453	75.3771	43.9453	75.0545	43.9453	75.2947	43.9453	75.0988	43.9453	75.2201	43.9453	75.1544
45.4102	76.4654	45.4102	76.3812	45.4102	76.5369	45.4102	76.2871	45.4102	76.5928	45.4102	76.1862	45.4102	76.6308	45.4102	76.0816	45.4102	76.649	45.4102	75.9765	45.4102	76.6464	45.4102	75.8739	45.4102	76.6226	45.4102	75.7767	45.4102	76.5781	45.4102	75.6878	45.4102	76.5146	45.4102	75.6096	45.4102	76.435	45.4102	75.5442	45.4102	76.3426	45.4102	75.4935	45.4102	76.2416	45.4102	75.4586	45.4102	76.1361	45.4102	75.4404	45.4102	76.0302	45.4102	75.4389	45.4102	75.9271	45.4102	75.4539	45.4102	75.8296	45.4102	75.4846	45.4102	75.7396	45.4102	75.5299	45.4102	75.6587	45.4102	75.5884
46.875	77.0035	46.875	76.9176	46.875	77.0755	46.875	76.8209	46.875	77.1308	46.875	76.7163	46.875	77.167	46.875	76.6068	46.875	77.1818	46.875	76.4953	46.875	77.1739	46.875	76.3847	46.875	77.1424	46.875	76.2777	46.875	77.0876	46.875	76.177	46.875	77.0111	46.875	76.085	46.875	76.9155	46.875	76.0039	46.875	76.8045	46.875	75.9357	46.875	76.6827	46.875	75.8822	46.875	76.5552	46.875	75.8447	46.875	76.4273	46.875	75.8245	46.875	76.3038	46.875	75.8222	46.875	76.1889	46.875	75.8385	46.875	76.0862	46.875	75.8735	46.875	75.9983	46.875	75.9269
48.3398	77.2975	48.3398	77.215	48.3398	77.3673	48.3398	77.1227	48.3398	77.4219	48.3398	77.0236	48.3398	77.459	48.3398	76.9207	48.3398	77.4767	48.3398	76.8168	48.3398	77.4738	48.3398	76.715	48.3398	77.45	48.3398	76.6179	48.3398	77.4058	48.3398	76.5281	48.3398	77.3427	48.3398	76.4479	48.3398	77.263	48.3398	76.3795	48.3398	77.17	48.3398	76.3246	48.3398	77.0674	48.3398	76.2846	48.3398	76.9591	48.3398	76.2604	48.3398	76.8491	48.3398	76.2529	48.3398	76.7412	48.3398	76.2622	48.3398	76.6385	48.3398	76.2883	48.3398	76.5439	48.3398	76.3305	48.3398	76.4598	48.3398	76.3881
51.2695	77.9795	51.2695	77.8995	51.2695	78.0467	51.2695	77.8097	51.2695	78.0986	51.2695	77.7132	51.2695	78.133	51.2695	77.6129	51.2695	78.1484	51.2695	77.5122	51.2695	78.1437	51.2695	77.4139	51.2695	78.1191	51.2695	77.321	51.2695	78.0755	51.2695	77.2362	51.2695	78.0148	51.2695	77.1618	51.2695	77.9397	51.2695	77.0999	51.2695	77.8536	51.2695	77.0519	51.2695	77.7602	51.2695	77.0192	51.2695	77.6629	51.2695	77.0024	51.2695	77.565	51.2695	77.0016	51.2695	77.4692	51.2695	77.0166	51.2695	77.3777	51.2695	77.0466	51.2695	77.2924	51.2695	77.0907	51.2695	77.2151	51.2695	77.1473
52.7344	78.3279	52.7344	78.2491	52.7344	78.3938	52.7344	78.1601	52.7344	78.4441	52.7344	78.0641	52.7344	78.4767	52.7344	77.9642	52.7344	78.4902	52.7344	77.8636	52.7344	78.4836	52.7344	77.7653	52.7344	78.4572	52.7344	77.6722	52.7344	78.4119	52.7344	77.5872	52.7344	78.35	52.7344	77.5127	52.7344	78.2742	52.7344	77.4507	52.7344	78.1881	52.7344	77.4028	52.7344	78.0953	52.7344	77.3703	52.7344	77.9993	52.7344	77.3536	52.7344	77.9033	52.7344	77.3529	52.7344	77.8098	52.7344	77.3679	52.7344	77.7207	52.7344	77.3976	52.7344	77.6378	52.7344	77.441	52.7344	77.5626	52.7344	77.4965
54.1992	78.6182	54.1992	78.5404	54.1992	78.6829	54.1992	78.4522	54.1992	78.7318	54.1992	78.3567	54.1992	78.763	54.1992	78.2571	54.1992	78.7747	54.1992	78.1565	54.1992	78.7665	54.1992	78.058	54.1992	78.7383	54.1992	77.9646	54.1992	78.6915	54.1992	77.879	54.1992	78.6279	54.1992	77.8035	54.1992	78.5507	54.1992	77.7404	54.1992	78.4632	54.1992	77.6911	54.1992	78.3692	54.1992	77.657	54.1992	78.2724	54.1992	77.6385	54.1992	78.1758	54.1992	77.6359	54.1992	78.0821	54.1992	77.6489	54.1992	77.9932	54.1992	77.6767	54.1992	77.911	54.1992	77.7182	54.1992	77.8368	54.1992	77.772
55.6641	78.8814	55.6641	78.8032	55.6641	78.9471	55.6641	78.7155	55.6641	78.9977	55.6641	78.6215	55.6641	79.0313	55.6641	78.5243	55.6641	79.0462	55.6641	78.4273	55.6641	79.0418	55.6641	78.3335	55.6641	79.0186	55.6641	78.246	55.6641	78.9776	55.6641	78.1673	55.6641	78.921	55.6641	78.0996	55.6641	78.8517	55.6641	78.0449	55.6641	78.7731	55.6641	78.0045	55.6641	78.6884	55.6641	77.9793	55.6641	78.6009	55.6641	77.9694	55.6641	78.5131	55.6641	77.9748	55.6641	78.4271	55.6641	77.9948	55.6641	78.3444	55.6641	78.0282	55.6641	78.2664	55.6641	78.0736	55.6641	78.1943	55.6641	78.1295
58.5938	79.3905	58.5938	79.3084	58.5938	79.4587	58.5938	79.2156	58.5938	79.5103	58.5938	79.1154	58.5938	79.5431	58.5938	79.0115	58.5938	79.5558	58.5938	78.9074	58.5938	79.5477	58.5938	78.8066	58.5938	79.5194	58.5938	78.7124	58.5938	79.4724	58.5938	78.6278	58.5938	79.4091	58.5938	78.5553	58.5938	79.333	58.5938	78.4968	58.5938	79.2478	58.5938	78.4538	58.5938	79.1572	58.5938	78.4272	58.5938	79.0647	58.5938	78.417	58.5938	78.9731	58.5938	78.4228	58.5938	78.8843	58.5938	78.4436	58.5938	78.7997	58.5938	78.4781	58.5938	78.7204	58.5938	78.5247	58.5938	78.6474	58.5938	78.5817
60.0586	79.6005	60.0586	79.5173	60.0586	79.6699	60.0586	79.4235	60.0586	79.7227	60.0586	79.3226	60.0586	79.7569	60.0586	79.2182	60.0586	79.7709	60.0586	79.1139	60.0586	79.7644	60.0586	79.0134	60.0586	79.7377	60.0586	78.92	60.0586	79.6926	60.0586	78.8366	60.0586	79.6315	60.0586	78.7659	60.0586	79.5579	60.0586	78.7099	60.0586	79.4754	60.0586	78.67	60.0586	79.3876	60.0586	78.6467	60.0586	79.298	60.0586	78.6402	60.0586	79.2089	60.0586	78.6498	60.0586	79.1223	60.0586	78.6743	60.0586	79.0392	60.0586	78.7122	60.0586	78.9606	60.0586	78.7615	60.0586	78.8873	60.0586	78.8205
62.9883	79.9929	62.9883	79.9111	62.9883	80.0595	62.9883	79.8172	62.9883	80.1085	62.9883	79.7148	62.9883	80.1377	62.9883	79.6075	62.9883	80.146	62.9883	79.4991	62.9883	80.1333	62.9883	79.3934	62.9883	80.1003	62.9883	79.2941	62.9883	80.0489	62.9883	79.2045	62.9883	79.9819	62.9883	79.1275	62.9883	79.9029	62.9883	79.0654	62.9883	79.8158	62.9883	79.02	62.9883	79.7245	62.9883	78.9921	62.9883	79.6322	62.9883	78.9818	62.9883	79.5416	62.9883	78.9885	62.9883	79.4541	62.9883	79.0109	62.9883	79.3709	62.9883	79.0472	62.9883	79.2926	62.9883	79.0955	62.9883	79.2198	62.9883	79.1537
64.4531	80.1066	64.4531	80.0243	64.4531	80.1737	64.4531	79.93	64.4531	80.223	64.4531	79.827	64.4531	80.2528	64.4531	79.7191	64.4531	80.2619	64.4531	79.6102	64.4531	80.2501	64.4531	79.504	64.4531	80.2183	64.4531	79.4043	64.4531	80.1685	64.4531	79.3145	64.4531	80.1034	64.4531	79.2377	64.4531	80.0266	64.4531	79.1763	64.4531	79.9419	64.4531	79.1321	64.4531	79.853	64.4531	79.1059	64.4531	79.763	64.4531	79.0978	64.4531	79.6741	64.4531	79.1072	64.4531	79.5879	64.4531	79.1326	64.4531	79.5051	64.4531	79.1721	64.4531	79.4264	64.4531	79.2234	64.4531	79.3523	64.4531	79.2841
67.3828	80.3178	67.3828	80.2347	67.3828	80.3855	67.3828	80.1392	67.3828	80.4352	67.3828	80.0348	67.3828	80.4651	67.3828	79.9253	67.3828	80.4744	67.3828	79.8145	67.3828	80.4631	67.3828	79.7066	67.3828	80.4323	67.3828	79.6053	67.3828	80.384	67.3828	79.5144	67.3828	80.3214	67.3828	79.4369	67.3828	80.2478	67.3828	79.3756	67.3828	80.167	67.3828	79.3323	67.3828	80.0823	67.3828	79.3082	67.3828	79.9963	67.3828	79.3033	67.3828	79.9107	67.3828	79.3168	67.3828	79.8265	67.3828	79.3472	67.3828	79.7441	67.3828	79.3921	67.3828	79.6641	67.3828	79.4489	67.3828	79.5872	67.3828	79.5148
68.8477	80.4789	68.8477	80.3934	68.8477	80.5483	68.8477	80.2948	68.8477	80.599	68.8477	80.1867	68.8477	80.6291	68.8477	80.0732	68.8477	80.638	68.8477	79.9583	68.8477	80.6256	68.8477	79.8462	68.8477	80.5935	68.8477	79.7409	68.8477	80.5438	68.8477	79.6463	68.8477	80.4798	68.8477	79.5659	68.8477	80.4053	68.8477	79.5023	68.8477	80.3239	68.8477	79.4578	68.8477	80.239	68.8477	79.4334	68.8477	80.1529	68.8477	79.4294	68.8477	80.067	68.8477	79.445	68.8477	79.982	68.8477	79.4784	68.8477	79.898	68.8477	79.5272	68.8477	79.8155	68.8477	79.5883	68.8477	79.7351	68.8477	79.6586
71.7773	80.7573	71.7773	80.671	71.7773	80.8262	71.7773	80.5703	71.7773	80.8752	71.7773	80.4589	71.7773	80.9026	71.7773	80.3406	71.7773	80.9074	71.7773	80.2196	71.7773	80.8899	71.7773	80.1001	71.7773	80.8514	71.7773	79.9863	71.7773	80.7942	71.7773	79.8821	71.7773	80.7215	71.7773	79.791	71.7773	80.6371	71.7773	79.7163	71.7773	80.545	71.7773	79.6604	71.7773	80.4488	71.7773	79.6248	71.7773	80.3512	71.7773	79.6103	71.7773	80.2543	71.7773	79.6166	71.7773	80.1592	71.7773	79.6425	71.7773	80.0666	71.7773	79.6859	71.7773	79.9772	71.7773	79.7439	71.7773	79.8923	71.7773	79.8137
74.707	80.9618	74.707	80.8835	74.707	81.0231	74.707	80.7911	74.707	81.0651	74.707	80.6882	74.707	81.0863	74.707	80.5786	74.707	81.0861	74.707	80.4662	74.707	81.0649	74.707	80.3552	74.707	81.0244	74.707	80.2495	74.707	80.9672	74.707	80.1529	74.707	80.8967	74.707	80.0688	74.707	80.8168	74.707	79.9998	74.707	80.7313	74.707	79.9483	74.707	80.6435	74.707	79.9155	74.707	80.5559	74.707	79.9019	74.707	80.4699	74.707	79.9072	74.707	80.3861	74.707	79.9301	74.707	80.3047	74.707	79.9687	74.707	80.2262	74.707	80.0202	74.707	80.1515	74.707	80.0821
77.6367	81.0168	77.6367	80.9398	77.6367	81.076	77.6367	80.8479	77.6367	81.1151	77.6367	80.7447	77.6367	81.1329	77.6367	80.6343	77.6367	81.1292	77.6367	80.5211	77.6367	81.105	77.6367	80.4095	77.6367	81.0627	77.6367	80.3039	77.6367	81.0054	77.6367	80.2086	77.6367	80.9372	77.6367	80.1272	77.6367	80.8624	77.6367	80.063	77.6367	80.7848	77.6367	80.018	77.6367	80.7074	77.6367	79.9934	77.6367	80.6318	77.6367	79.9894	77.6367	80.5584	77.6367	80.0048	77.6367	80.4867	77.6367	80.0374	77.6367	80.4158	77.6367	80.0841	77.6367	80.3451	77.6367	80.1416	77.6367	80.2748	77.6367	80.2062
79.1016	81.0937	79.1016	81.012	79.1016	81.1562	79.1016	80.9144	79.1016	81.1971	79.1016	80.8049	79.1016	81.2151	79.1016	80.6879	79.1016	81.2099	79.1016	80.5681	79.1016	81.1828	79.1016	80.4501	79.1016	81.1363	79.1016	80.3389	79.1016	81.0744	79.1016	80.2386	79.1016	81.0015	79.1016	80.1533	79.1016	80.9225	79.1016	80.0862	79.1016	80.8415	79.1016	80.0396	79.1016	80.7617	79.1016	80.0146	79.1016	80.6844	79.1016	80.0114	79.1016	80.6097	79.1016	80.0288	79.1016	80.5366	79.1016	80.0643	79.1016	80.4639	79.1016	80.1147	79.1016	80.3907	79.1016	80.1762	79.1016	80.3172	79.1016	80.2449
82.0313	81.2319	82.0313	81.1485	82.0313	81.2941	82.0313	81.0474	82.0313	81.3326	82.0313	80.9326	82.0313	81.3457	82.0313	80.8087	82.0313	81.3333	82.0313	80.6806	82.0313	81.2965	82.0313	80.5533	82.0313	81.2379	82.0313	80.4316	82.0313	81.1614	82.0313	80.3202	82.0313	81.0721	82.0313	80.2232	82.0313	80.9754	82.0313	80.1441	82.0313	80.8766	82.0313	80.0854	82.0313	80.7799	82.0313	80.0487	82.0313	80.6879	82.0313	80.0342	82.0313	80.6014	82.0313	80.0409	82.0313	80.52	82.0313	80.0668	82.0313	80.4424	82.0313	80.1087	82.0313	80.3675	82.0313	80.1631	82.0313	80.2952	82.0313	80.2263
84.9609	81.3312	84.9609	81.247	84.9609	81.3955	84.9609	81.1459	84.9609	81.4372	84.9609	81.0319	84.9609	81.4546	84.9609	80.909	84.9609	81.4472	84.9609	80.7818	84.9609	81.4153	84.9609	80.6545	84.9609	81.3606	84.9609	80.5316	84.9609	81.286	84.9609	80.4173	84.9609	81.1953	84.9609	80.3152	84.9609	81.0929	84.9609	80.2285	84.9609	80.9835	84.9609	80.1598	84.9609	80.8715	84.9609	80.1108	84.9609	80.7604	84.9609	80.0823	84.9609	80.6531	84.9609	80.0743	84.9609	80.5513	84.9609	80.0858	84.9609	80.4561	84.9609	80.1152	84.9609	80.3683	84.9609	80.1603	84.9609	80.2888	84.9609	80.2189
87.8906	81.183	87.8906	81.1013	87.8906	81.2477	87.8906	81.0058	87.8906	81.2928	87.8906	80.9006	87.8906	81.3171	87.8906	80.7901	87.8906	81.3205	87.8906	80.6788	87.8906	81.3041	87.8906	80.5714	87.8906	81.2699	87.8906	80.4719	87.8906	81.2208	87.8906	80.384	87.8906	81.1603	87.8906	80.3105	87.8906	81.0914	87.8906	80.2533	87.8906	81.0168	87.8906	80.2137	87.8906	80.9386	87.8906	80.1921	87.8906	80.858	87.8906	80.188	87.8906	80.776	87.8906	80.2005	87.8906	80.6936	87.8906	80.2283	87.8906	80.6117	87.8906	80.2696	87.8906	80.5319	87.8906	80.3226	87.8906	80.4558	87.8906	80.3854
90.8203	80.9023	90.8203	80.8176	90.8203	80.97	90.8203	80.7198	90.8203	81.0188	90.8203	80.6138	90.8203	81.0481	90.8203	80.5057	90.8203	81.0595	90.8203	80.402	90.8203	81.0561	90.8203	80.3094	90.8203	81.0427	90.8203	80.2345	90.8203	81.0249	90.8203	80.1826	90.8203	81.0083	90.8203	80.1577	90.8203	80.9971	90.8203	80.1614	90.8203	80.9931	90.8203	80.1936	90.8203	80.9954	90.8203	80.2513	90.8203	81.0004	90.8203	80.3302	90.8203	81.0028	90.8203	80.424	90.8203	80.9969	90.8203	80.5261	90.8203	80.9776	90.8203	80.6294	90.8203	80.9414	90.8203	80.7274	90.8203	80.8868	90.8203	80.8147
95.2148	81.6706	95.2148	81.5926	95.2148	81.7189	95.2148	81.4879	95.2148	81.7354	95.2148	81.3604	95.2148	81.7194	95.2148	81.215	95.2148	81.6721	95.2148	81.0566	95.2148	81.5961	95.2148	80.891	95.2148	81.4962	95.2148	80.7241	95.2148	81.3786	95.2148	80.5619	95.2148	81.2507	95.2148	80.411	95.2148	81.1201	95.2148	80.2773	95.2148	80.9933	95.2148	80.1669	95.2148	80.8747	95.2148	80.0846	95.2148	80.7658	95.2148	80.0337	95.2148	80.6655	95.2148	80.0155	95.2148	80.5709	95.2148	80.0287	95.2148	80.479	95.2148	80.0696	95.2148	80.3878	95.2148	80.1325	95.2148	80.2974	95.2148	80.2106
98.1445	81.3064	98.1445	81.2181	98.1445	81.3687	98.1445	81.1077	98.1445	81.4021	98.1445	80.9803	98.1445	81.4056	98.1445	80.8416	98.1445	81.3799	98.1445	80.6977	98.1445	81.3276	98.1445	80.5548	98.1445	81.2535	98.1445	80.4193	98.1445	81.1641	98.1445	80.2968	98.1445	81.0667	98.1445	80.1925	98.1445	80.9686	98.1445	80.1105	98.1445	80.8756	98.1445	80.0536	98.1445	80.791	98.1445	80.0233	98.1445	80.715	98.1445	80.0193	98.1445	80.6455	98.1445	80.04	98.1445	80.5787	98.1445	80.0819	98.1445	80.5109	98.1445	80.1406	98.1445	80.4397	98.1445	80.2107	98.1445	80.3645	98.1445	80.287
101.074	81.3479	101.074	81.2688	101.074	81.3999	101.074	81.1659	101.074	81.4222	101.074	81.0438	101.074	81.4141	101.074	80.9079	101.074	81.3766	101.074	80.764	101.074	81.3125	101.074	80.618	101.074	81.2267	101.074	80.4763	101.074	81.1259	101.074	80.3447	101.074	81.0176	101.074	80.2288	101.074	80.9095	101.074	80.1335	101.074	80.8077	101.074	80.0625	101.074	80.716	101.074	80.018	101.074	80.6352	101.074	80.0006	101.074	80.5633	101.074	80.0092	101.074	80.4966	101.074	80.0405	101.074	80.4309	101.074	80.09	101.074	80.3634	101.074	80.1523	101.074	80.2933	101.074	80.2217
105.469	81.3202	105.469	81.2419	105.469	81.3691	105.469	81.1383	105.469	81.3862	105.469	81.0148	105.469	81.3707	105.469	80.8773	105.469	81.324	105.469	80.7327	105.469	81.2499	105.469	80.5881	105.469	81.1547	105.469	80.4507	105.469	81.0467	105.469	80.3272	105.469	80.9356	105.469	80.2237	105.469	80.8307	105.469	80.1451	105.469	80.7395	105.469	80.0942	105.469	80.666	105.469	80.072	105.469	80.61	105.469	80.0774	105.469	80.5674	105.469	80.1068	105.469	80.5317	105.469	80.155	105.469	80.496	105.469	80.2154	105.469	80.4547	105.469	80.2812	105.469	80.4047	105.469	80.346
108.398	81.5194	108.398	81.4437	108.398	81.5621	108.398	81.3392	108.398	81.5693	108.398	81.211	108.398	81.5403	108.398	81.0653	108.398	81.4765	108.398	80.9089	108.398	81.3819	108.398	80.749	108.398	81.263	108.398	80.5929	108.398	81.1288	108.398	80.448	108.398	80.9897	108.398	80.321	108.398	80.8566	108.398	80.2177	108.398	80.7385	108.398	80.1421	108.398	80.6412	108.398	80.0966	108.398	80.5658	108.398	80.0807	108.398	80.5092	108.398	80.0918	108.398	80.465	108.398	80.1247	108.398	80.4257	108.398	80.1727	108.398	80.3849	108.398	80.2286	108.398	80.3384	108.398	80.2855
112.793	81.6814	112.793	81.5995	112.793	81.7304	112.793	81.4891	112.793	81.744	112.793	81.3554	112.793	81.7214	112.793	81.2047	112.793	81.664	112.793	81.0439	112.793	81.5758	112.793	80.88	112.793	81.4631	112.793	80.7204	112.793	81.3346	112.793	80.5721	112.793	81.2001	112.793	80.4415	112.793	81.0695	112.793	80.334	112.793	80.9505	112.793	80.2538	112.793	80.848	112.793	80.203	112.793	80.7625	112.793	80.1817	112.793	80.6913	112.793	80.1878	112.793	80.6293	112.793	80.2172	112.793	80.571	112.793	80.2643	112.793	80.5122	112.793	80.3227	112.793	80.4505	112.793	80.3864
117.188	81.642	117.188	81.5593	117.188	81.6905	117.188	81.4471	117.188	81.7017	117.188	81.3112	117.188	81.6743	117.188	81.1587	117.188	81.6095	117.188	80.997	117.188	81.5112	117.188	80.8341	117.188	81.3862	117.188	80.678	117.188	81.2443	117.188	80.5363	117.188	81.0971	117.188	80.416	117.188	80.9572	117.188	80.3222	117.188	80.8351	117.188	80.2583	117.188	80.7376	117.188	80.2254	117.188	80.6663	117.188	80.2215	117.188	80.6173	117.188	80.2426	117.188	80.5831	117.188	80.2825	117.188	80.5549	117.188	80.3339	117.188	80.5248	117.188	80.3892	117.188	80.4878	117.188	80.442
120.117	81.8204	120.117	81.7369	120.117	81.8678	120.117	81.6218	120.117	81.8764	120.117	81.4808	120.117	81.8452	120.117	81.3209	120.117	81.7757	120.117	81.15	120.117	81.6715	120.117	80.9768	120.117	81.5394	120.117	80.8103	120.117	81.3887	120.117	80.6593	120.117	81.231	120.117	80.5319	120.117	81.0788	120.117	80.4347	120.117	80.9441	120.117	80.3717	120.117	80.8356	120.117	80.3436	120.117	80.7573	120.117	80.3478	120.117	80.7072	120.117	80.3782	120.117	80.6784	120.117	80.4265	120.117	80.6609	120.117	80.4829	120.117	80.6445	120.117	80.5384	120.117	80.621	120.117	80.5857
124.512	81.8807	124.512	81.7984	124.512	81.926	124.512	81.6832	124.512	81.9321	124.512	81.5404	124.512	81.8986	124.512	81.3764	124.512	81.8274	124.512	81.1983	124.512	81.7231	124.512	81.0145	124.512	81.5927	124.512	80.8333	124.512	81.4458	124.512	80.6637	124.512	81.2934	124.512	80.5146	124.512	81.1469	124.512	80.394	124.512	81.016	124.512	80.3079	124.512	80.9075	124.512	80.26	124.512	80.8236	124.512	80.2499	124.512	80.7617	124.512	80.2734	124.512	80.7153	124.512	80.3228	124.512	80.6759	124.512	80.3882	124.512	80.635	124.512	80.4593	124.512	80.5864	124.512	80.5273
128.906	81.8167	128.906	81.7303	128.906	81.8642	128.906	81.6093	128.906	81.8702	128.906	81.4593	128.906	81.8341	128.906	81.2867	128.906	81.7577	128.906	81.0989	128.906	81.6453	128.906	80.904	128.906	81.5045	128.906	80.7107	128.906	81.3452	128.906	80.528	128.906	81.1798	128.906	80.3652	128.906	81.0207	128.906	80.2307	128.906	80.8794	128.906	80.1318	128.906	80.7633	128.906	80.073	128.906	80.6748	128.906	80.0553	128.906	80.6103	128.906	80.0752	128.906	80.5619	128.906	80.1254	128.906	80.5197	128.906	80.1954	128.906	80.474	128.906	80.274	128.906	80.4184	128.906	80.3508
133.301	81.658	133.301	81.5626	133.301	81.7168	133.301	81.4351	133.301	81.7356	133.301	81.2815	133.301	81.7128	133.301	81.1082	133.301	81.6493	133.301	80.9222	133.301	81.5482	133.301	80.7307	133.301	81.4155	133.301	80.541	133.301	81.2598	133.301	80.3606	133.301	81.0914	133.301	80.1967	133.301	80.9217	133.301	80.0564	133.301	80.7614	133.301	79.9459	133.301	80.6186	133.301	79.8698	133.301	80.4976	133.301	79.8303	133.301	80.3985	133.301	79.8263	133.301	80.3168	133.301	79.8533	133.301	80.246	133.301	79.9038	133.301	80.1791	133.301	79.9689	133.301	80.111	133.301	80.0401
139.16	81.4219	139.16	81.3277	139.16	81.479	139.16	81.2016	139.16	81.4958	139.16	81.0507	139.16	81.4718	139.16	80.8831	139.16	81.4092	139.16	80.7078	139.16	81.3132	139.16	80.534	139.16	81.1918	139.16	80.3704	139.16	81.0551	139.16	80.2249	139.16	80.9143	139.16	80.1041	139.16	80.7798	139.16	80.0127	139.16	80.66	139.16	79.9532	139.16	80.5598	139.16	79.9259	139.16	80.4802	139.16	79.9286	139.16	80.4187	139.16	79.9567	139.16	80.3701	139.16	80.0038	139.16	80.3279	139.16	80.0623	139.16	80.2858	139.16	80.1248	139.16	80.2389	139.16	80.185
143.555	81.4704	143.555	81.3744	143.555	81.5229	143.555	81.2397	143.555	81.5294	143.555	81.0734	143.555	81.4909	143.555	80.8844	143.555	81.4111	143.555	80.6832	143.555	81.2978	143.555	80.4811	143.555	81.1619	143.555	80.2904	143.555	81.0166	143.555	80.1227	143.555	80.8761	143.555	79.9885	143.555	80.7529	143.555	79.8961	143.555	80.6556	143.555	79.8498	143.555	80.5872	143.555	79.8496	143.555	80.5448	143.555	79.8908	143.555	80.5208	143.555	79.9644	143.555	80.5052	143.555	80.0588	143.555	80.4875	143.555	80.1612	143.555	80.4586	143.555	80.2598	143.555	80.4121	143.555	80.3454
147.949	81.4501	147.949	81.3478	147.949	81.5044	147.949	81.2024	147.949	81.5085	147.949	81.0207	147.949	81.4629	147.949	80.8115	147.949	81.3718	147.949	80.5849	147.949	81.2429	147.949	80.3525	147.949	81.088	147.949	80.1268	147.949	80.9218	147.949	79.9211	147.949	80.7603	147.949	79.7483	147.949	80.6182	147.949	79.6197	147.949	80.5057	147.949	79.5435	147.949	80.4262	147.949	79.5229	147.949	80.376	147.949	79.5551	147.949	80.3456	147.949	79.6314	147.949	80.3226	147.949	79.7387	147.949	80.2945	147.949	79.8614	147.949	80.2507	147.949	79.9843	147.949	80.1849	147.949	80.0949
153.809	81.6785	153.809	81.5838	153.809	81.719	153.809	81.4402	153.809	81.7021	153.809	81.2547	153.809	81.6275	153.809	81.0357	153.809	81.4983	153.809	80.7928	153.809	81.322	153.809	80.5368	153.809	81.1112	153.809	80.2799	153.809	80.8834	153.809	80.0352	153.809	80.6599	153.809	79.8166	153.809	80.4619	153.809	79.6375	153.809	80.3065	153.809	79.5095	153.809	80.2014	153.809	79.44	153.809	80.1428	153.809	79.4304	153.809	80.1171	153.809	79.4749	153.809	80.1053	153.809	79.5613	153.809	80.089	153.809	79.673	153.809	80.0537	153.809	79.7922	153.809	79.9917	153.809	79.9024
159.668	81.9378	159.668	81.8317	159.668	81.9933	159.668	81.6803	159.668	81.9946	159.668	81.4906	159.668	81.9405	159.668	81.2704	159.668	81.8326	159.668	81.0289	159.668	81.6755	159.668	80.7763	159.668	81.4781	159.668	80.5237	159.668	81.2531	159.668	80.283	159.668	81.0167	159.668	80.0668	159.668	80.7876	159.668	79.8875	159.668	80.5838	159.668	79.7553	159.668	80.4192	159.668	79.6769	159.668	80.3	159.668	79.6532	159.668	80.2233	159.668	79.6786	159.668	80.1773	159.668	79.7416	159.668	80.146	159.668	79.8267	159.668	80.113	159.668	79.9176	159.668	80.0663	159.668	80.0005
165.527	81.8561	165.527	81.7616	165.527	81.8988	165.527	81.6203	165.527	81.8868	165.527	81.439	165.527	81.8202	165.527	81.2261	165.527	81.7025	165.527	80.9908	165.527	81.5415	165.527	80.7434	165.527	81.3487	165.527	80.4951	165.527	81.1397	165.527	80.2583	165.527	80.9322	165.527	80.0462	165.527	80.7437	165.527	79.8719	165.527	80.5883	165.527	79.7471	165.527	80.4735	165.527	79.6798	165.527	80.399	165.527	79.6719	165.527	80.3565	165.527	79.7177	165.527	80.3322	165.527	79.8046	165.527	80.31	165.527	79.9153	165.527	80.2755	165.527	80.0312	165.527	80.2187	165.527	80.1359
171.387	81.8219	171.387	81.7226	171.387	81.8662	171.387	81.5746	171.387	81.852	171.387	81.3854	171.387	81.7784	171.387	81.164	171.387	81.6484	171.387	80.9202	171.387	81.4695	171.387	80.6649	171.387	81.2539	171.387	80.4096	171.387	81.0191	171.387	80.1671	171.387	80.7862	171.387	79.9511	171.387	80.5773	171.387	79.7756	171.387	80.4112	171.387	79.6532	171.387	80.2989	171.387	79.5925	171.387	80.2403	171.387	79.5955	171.387	80.2242	171.387	79.6556	171.387	80.2315	171.387	79.7581	171.387	80.2403	171.387	79.8828	171.387	80.2311	171.387	80.0081	171.387	80.1909	171.387	80.1151
177.246	81.7474	177.246	81.6499	177.246	81.7891	177.246	81.5022	177.246	81.772	177.246	81.3121	177.246	81.6962	177.246	81.0886	177.246	81.5657	177.246	80.8422	177.246	81.3885	177.246	80.5842	177.246	81.1772	177.246	80.3267	177.246	80.9484	177.246	80.0826	177.246	80.7214	177.246	79.8655	177.246	80.5158	177.246	79.6889	177.246	80.3482	177.246	79.5648	177.246	80.2285	177.246	79.5013	177.246	80.1577	177.246	79.5	177.246	80.1272	177.246	79.5546	177.246	80.121	177.246	79.6509	177.246	80.1198	177.246	79.7692	177.246	80.1053	177.246	79.8885	177.246	80.0641	177.246	79.9907
183.105	81.5969	183.105	81.4952	183.105	81.6373	183.105	81.3379	183.105	81.6136	183.105	81.1327	183.105	81.5266	183.105	80.8892	183.105	81.381	183.105	80.6186	183.105	81.1868	183.105	80.3334	183.105	80.9589	183.105	80.0476	183.105	80.7175	183.105	79.777	183.105	80.4856	183.105	79.5383	183.105	80.2857	183.105	79.3487	183.105	80.1355	183.105	79.2236	183.105	80.043	183.105	79.1729	183.105	80.0046	183.105	79.1981	183.105	80.006	183.105	79.29	183.105	80.0256	183.105	79.4295	183.105	80.0403	183.105	79.5917	183.105	80.0294	183.105	79.7507	183.105	79.9792	183.105	79.8847
188.965	81.7334	188.965	81.6431	188.965	81.7569	188.965	81.4917	188.965	81.7106	188.965	81.2866	188.965	81.5946	188.965	81.0365	188.965	81.4133	188.965	80.7512	188.965	81.1763	188.965	80.4417	188.965	80.8992	188.965	80.1204	188.965	80.6039	188.965	79.8021	188.965	80.3168	188.965	79.5043	188.965	80.0658	188.965	79.2472	188.965	79.8746	188.965	79.052	188.965	79.7562	188.965	78.937	188.965	79.7085	188.965	78.9119	188.965	79.7141	188.965	78.9734	188.965	79.7452	188.965	79.1034	188.965	79.7711	188.965	79.2729	188.965	79.765	188.965	79.449	188.965	79.71	188.965	79.6017
196.289	81.972	196.289	81.8852	196.289	81.992	196.289	81.7388	196.289	81.9409	196.289	81.5418	196.289	81.8182	196.289	81.3042	196.289	81.6282	196.289	81.0366	196.289	81.3807	196.289	80.7494	196.289	81.0916	196.289	80.4532	196.289	80.7824	196.289	80.1592	196.289	80.4788	196.289	79.8796	196.289	80.2072	196.289	79.6289	196.289	79.9901	196.289	79.4232	196.289	79.8412	196.289	79.2782	196.289	79.7618	196.289	79.2058	196.289	79.7393	196.289	79.2087	196.289	79.7505	196.289	79.2772	196.289	79.7671	196.289	79.3903	196.289	79.763	196.289	79.5195	196.289	79.721	196.289	79.6368
203.613	81.953	203.613	81.8397	203.613	81.9923	203.613	81.6614	203.613	81.9509	203.613	81.4296	203.613	81.826	203.613	81.1566	203.613	81.6198	203.613	80.8557	203.613	81.3406	203.613	80.5407	203.613	81.0048	203.613	80.2253	203.613	80.637	203.613	79.9237	203.613	80.2694	203.613	79.6498	203.613	79.9382	203.613	79.4177	203.613	79.676	203.613	79.2401	203.613	79.5033	203.613	79.1272	203.613	79.4222	203.613	79.0832	203.613	79.4159	203.613	79.1044	203.613	79.4546	203.613	79.1775	203.613	79.5042	203.613	79.281	203.613	79.5353	203.613	79.3891	203.613	79.5285	203.613	79.4775
210.938	82.0222	210.938	81.9086	210.938	82.0611	210.938	81.7275	210.938	82.02	210.938	81.4878	210.938	81.8966	210.938	81.199	210.938	81.693	210.938	80.8713	210.938	81.4163	210.938	80.5154	210.938	81.0799	210.938	80.144	210.938	80.705	210.938	79.7719	210.938	80.3199	210.938	79.4179	210.938	79.9587	210.938	79.1045	210.938	79.6557	210.938	78.8564	210.938	79.4378	210.938	78.6957	210.938	79.3154	210.938	78.6347	210.938	79.2778	210.938	78.6705	210.938	79.2959	210.938	78.7825	210.938	79.3312	210.938	78.9378	210.938	79.3471	210.938	79.0988	210.938	79.3176	210.938	79.2327
218.262	82.0149	218.262	81.9096	218.262	82.0468	218.262	81.7394	218.262	81.9995	218.262	81.5144	218.262	81.8711	218.262	81.2452	218.262	81.6642	218.262	80.9426	218.262	81.3873	218.262	80.6168	218.262	81.0551	218.262	80.2779	218.262	80.6887	218.262	79.937	218.262	80.3141	218.262	79.6077	218.262	79.9605	218.262	79.3065	218.262	79.6561	218.262	79.0533	218.262	79.4231	218.262	78.868	218.262	79.2731	218.262	78.7655	218.262	79.2021	218.262	78.7488	218.262	79.1902	218.262	78.8056	218.262	79.2062	218.262	78.91	218.262	79.2165	218.262	79.0286	218.262	79.1951	218.262	79.1307
225.586	82.1154	225.586	82.0075	225.586	82.1405	225.586	81.8265	225.586	82.0762	225.586	81.584	225.586	81.9196	225.586	81.292	225.586	81.6738	225.586	80.9629	225.586	81.3492	225.586	80.609	225.586	80.9658	225.586	80.2435	225.586	80.554	225.586	79.8812	225.586	80.1534	225.586	79.5409	225.586	79.8073	225.586	79.2455	225.586	79.5526	225.586	79.0207	225.586	79.4088	225.586	78.8893	225.586	79.3715	225.586	78.8629	225.586	79.4154	225.586	78.9353	225.586	79.5019	225.586	79.0809	225.586	79.5902	225.586	79.2612	225.586	79.6446	225.586	79.4354	225.586	79.6409	225.586	79.5691
232.91	82.336	232.91	82.219	232.91	82.371	232.91	82.0315	232.91	82.3141	232.91	81.7853	232.91	82.1584	232.91	81.4916	232.91	81.901	232.91	81.16	232.91	81.5456	232.91	80.7981	232.91	81.1047	232.91	80.4122	232.91	80.6029	232.91	80.0096	232.91	80.0801	232.91	79.6026	232.91	79.5907	232.91	79.2128	232.91	79.196	232.91	78.873	232.91	78.9471	232.91	78.6247	232.91	78.8632	232.91	78.5046	232.91	78.9205	232.91	78.5268	232.91	79.0612	232.91	78.67	232.91	79.2155	232.91	78.8821	232.91	79.3231	232.91	79.0994	232.91	79.3444	232.91	79.2658
241.699	82.3046	241.699	82.1339	241.699	82.399	241.699	81.9017	241.699	82.4047	241.699	81.6242	241.699	82.3122	241.699	81.3178	241.699	82.1159	241.699	80.9969	241.699	81.8149	241.699	80.6723	241.699	81.4145	241.699	80.3502	241.699	80.9285	241.699	80.0322	241.699	80.3827	241.699	79.7182	241.699	79.8175	241.699	79.4103	241.699	79.2883	241.699	79.118	241.699	78.8586	241.699	78.8601	241.699	78.5811	241.699	78.6631	241.699	78.4727	241.699	78.5511	241.699	78.5019	241.699	78.5316	241.699	78.603	241.699	78.5859	241.699	78.7052	241.699	78.6725	241.699	78.758	241.699	78.7426
250.488	82.5137	250.488	82.3168	250.488	82.6265	250.488	82.0466	250.488	82.6467	250.488	81.7159	250.488	82.5687	250.488	81.3392	250.488	82.3903	250.488	80.9317	250.488	82.1132	250.488	80.5089	250.488	81.744	250.488	80.086	250.488	81.2956	250.488	79.6779	250.488	80.7888	250.488	79.2991	250.488	80.2541	250.488	78.9648	250.488	79.7323	250.488	78.6911	250.488	79.2718	250.488	78.4936	250.488	78.9193	250.488	78.3834	250.488	78.7028	250.488	78.3612	250.488	78.6174	250.488	78.4121	250.488	78.6239	250.488	78.5058	250.488	78.666	250.488	78.6043	250.488	78.6923	250.488	78.673
259.277	82.6227	259.277	82.4503	259.277	82.7207	259.277	82.2129	259.277	82.7366	259.277	81.9216	259.277	82.6652	259.277	81.5879	259.277	82.5039	259.277	81.2229	259.277	82.2534	259.277	80.8364	259.277	81.9188	259.277	80.4369	259.277	81.5113	259.277	80.0321	259.277	81.0505	259.277	79.6316	259.277	80.5671	259.277	79.2507	259.277	80.103	259.277	78.9131	259.277	79.7062	259.277	78.6506	259.277	79.4181	259.277	78.4953	259.277	79.2554	259.277	78.4656	259.277	79.1992	259.277	78.5519	259.277	79.2018	259.277	78.716	259.277	79.2067	259.277	78.904	259.277	79.1684	259.277	79.0655
268.066	82.1748	268.066	81.9869	268.066	82.2879	268.066	81.736	268.066	82.3179	268.066	81.4368	268.066	82.2597	268.066	81.1054	268.066	82.1119	268.066	80.7585	268.066	81.8769	268.066	80.4103	268.066	81.5617	268.066	80.0708	268.066	81.179	268.066	79.7452	268.066	80.7494	268.066	79.4359	268.066	80.3027	268.066	79.1465	268.066	79.8793	268.066	78.8876	268.066	79.5258	268.066	78.6802	268.066	79.2834	268.066	78.5532	268.066	79.1691	268.066	78.5308	268.066	79.1627	268.066	78.6159	268.066	79.2114	268.066	78.7804	268.066	79.2517	268.066	78.9726	268.066	79.2339	268.066	79.1371
276.855	82.2677	276.855	82.1394	276.855	82.3115	276.855	81.9278	276.855	82.2736	276.855	81.6387	276.855	82.1609	276.855	81.2811	276.855	81.9825	276.855	80.8673	276.855	81.7466	276.855	80.4138	276.855	81.4581	276.855	79.942	276.855	81.1175	276.855	79.4791	276.855	80.7246	276.855	79.0582	276.855	80.2863	276.855	78.7132	276.855	79.8272	276.855	78.4722	276.855	79.3971	276.855	78.3494	276.855	79.0623	276.855	78.3403	276.855	78.875	276.855	78.424	276.855	78.8375	276.855	78.5679	276.855	78.8967	276.855	78.734	276.855	78.9765	276.855	78.884	276.855	79.0159	276.855	78.985
287.109	82.2758	287.109	82.157	287.109	82.2989	287.109	81.9539	287.109	82.2205	287.109	81.6808	287.109	82.0426	287.109	81.351	287.109	81.7763	287.109	80.9744	287.109	81.441	287.109	80.5556	287.109	81.0608	287.109	80.096	287.109	80.66	287.109	79.5978	287.109	80.2576	287.109	79.0729	287.109	79.8664	287.109	78.5523	287.109	79.5004	287.109	78.0936	287.109	79.1846	287.109	77.7758	287.109	78.9581	287.109	77.6691	287.109	78.8567	287.109	77.7903	287.109	78.8824	287.109	78.0836	287.109	78.9866	287.109	78.4476	287.109	79.0893	287.109	78.7814	287.109	79.114	287.109	79.0141
297.363	82.3981	297.363	82.2442	297.363	82.4439	297.363	82.0006	297.363	82.3697	297.363	81.6891	297.363	82.1725	297.363	81.3324	297.363	81.8604	297.363	80.9497	297.363	81.4552	297.363	80.5533	297.363	80.9917	297.363	80.1461	297.363	80.5133	297.363	79.7231	297.363	80.0607	297.363	79.2764	297.363	79.6605	297.363	78.8064	297.363	79.3232	297.363	78.336	297.363	79.0566	297.363	77.9246	297.363	78.8809	297.363	77.665	297.363	78.8238	297.363	77.6428	297.363	78.889	297.363	77.87	297.363	79.0262	297.363	78.259	297.363	79.1431	297.363	78.672	297.363	79.1486	297.363	78.9902
307.617	82.7443	307.617	82.5576	307.617	82.8304	307.617	82.2878	307.617	82.8026	307.617	81.9551	307.617	82.6536	307.617	81.5795	307.617	82.3834	307.617	81.1777	307.617	82.0009	307.617	80.7606	307.617	81.5263	307.617	80.3319	307.617	80.9913	307.617	79.8901	307.617	80.4364	307.617	79.4325	307.617	79.9034	307.617	78.9612	307.617	79.4272	307.617	78.4922	307.617	79.0325	307.617	78.0623	307.617	78.7372	307.617	77.7308	307.617	78.5547	307.617	77.5617	307.617	78.482	307.617	77.5868	307.617	78.4826	307.617	77.7739	307.617	78.4893	307.617	78.0364	307.617	78.4334	307.617	78.2779
319.336	82.9141	319.336	82.7114	319.336	82.9977	319.336	82.4084	319.336	82.9484	319.336	82.0286	319.336	82.758	319.336	81.5985	319.336	82.4249	319.336	81.1445	319.336	81.956	319.336	80.6881	319.336	81.371	319.336	80.2415	319.336	80.7068	319.336	79.8055	319.336	80.0202	319.336	79.3727	319.336	79.3838	319.336	78.9362	319.336	78.8694	319.336	78.5023	319.336	78.5252	319.336	78.1016	319.336	78.3592	319.336	77.7925	319.336	78.3421	319.336	77.6416	319.336	78.4185	319.336	77.6817	319.336	78.5202	319.336	77.8798	319.336	78.5788	319.336	78.1485	319.336	78.5426	319.336	78.3917
329.59	82.9546	329.59	82.7398	329.59	83.0762	329.59	82.4482	329.59	83.092	329.59	82.0992	329.59	82.9932	329.59	81.712	329.59	82.7736	329.59	81.3031	329.59	82.4294	329.59	80.8823	329.59	81.9583	329.59	80.4516	329.59	81.3626	329.59	80.0068	329.59	80.6542	329.59	79.5412	329.59	79.8667	329.59	79.0533	329.59	79.0711	329.59	78.5576	329.59	78.386	329.59	78.0947	329.59	77.9486	329.59	77.734	329.59	77.8303	329.59	77.5529	329.59	77.9687	329.59	77.589	329.59	78.208	329.59	77.802	329.59	78.3973	329.59	78.088	329.59	78.4461	329.59	78.3311
341.309	82.1873	341.309	81.9838	341.309	82.2954	341.309	81.699	341.309	82.3039	341.309	81.3561	341.309	82.217	341.309	80.9842	341.309	82.0446	341.309	80.6117	341.309	81.7982	341.309	80.2595	341.309	81.4855	341.309	79.9352	341.309	81.1076	341.309	79.6329	341.309	80.6593	341.309	79.3389	341.309	80.1378	341.309	79.0422	341.309	79.5602	341.309	78.7452	341.309	78.9865	341.309	78.4727	341.309	78.5285	341.309	78.2719	341.309	78.306	341.309	78.1955	341.309	78.3509	341.309	78.2679	341.309	78.5631	341.309	78.4584	341.309	78.785	341.309	78.6863	341.309	78.8976	341.309	78.8569
353.027	82.3818	353.027	82.1886	353.027	82.4436	353.027	81.8814	353.027	82.369	353.027	81.4878	353.027	82.1657	353.027	81.0416	353.027	81.854	353.027	80.5772	353.027	81.463	353.027	80.1211	353.027	81.0239	353.027	79.686	353.027	80.5589	353.027	79.2699	353.027	80.0745	353.027	78.8627	353.027	79.5651	353.027	78.4608	353.027	79.0345	353.027	78.0843	353.027	78.5294	353.027	77.7888	353.027	78.1584	353.027	77.657	353.027	78.0492	353.027	77.7517	353.027	78.2346	353.027	78.0579	353.027	78.5942	353.027	78.4728	353.027	78.9409	353.027	78.8591	353.027	79.1309	353.027	79.1008
366.211	82.6699	366.211	82.4427	366.211	82.7431	366.211	82.0847	366.211	82.6511	366.211	81.6296	366.211	82.3964	366.211	81.1182	366.211	81.9983	366.211	80.5923	366.211	81.4944	366.211	80.0844	366.211	80.9377	366.211	79.6067	366.211	80.3809	366.211	79.1473	366.211	79.8517	366.211	78.6782	366.211	79.3357	366.211	78.1754	366.211	78.7914	366.211	77.6471	366.211	78.2018	366.211	77.1628	366.211	77.6404	366.211	76.8586	366.211	77.2933	366.211	76.8708	366.211	77.3327	366.211	77.2094	366.211	77.7064	366.211	77.7213	366.211	78.1598	366.211	78.1951	366.211	78.4528	366.211	78.4666
379.395	83.1133	379.395	82.8498	379.395	83.2173	379.395	82.4523	379.395	83.145	379.395	81.9549	379.395	82.8889	379.395	81.3976	379.395	82.4527	379.395	80.8209	379.395	81.8546	379.395	80.2564	379.395	81.1318	379.395	79.7168	379.395	80.3417	379.395	79.1894	379.395	79.5517	379.395	78.6401	379.395	78.8165	379.395	78.0283	379.395	78.1584	379.395	77.3328	379.395	77.5827	379.395	76.5935	379.395	77.1298	379.395	75.9582	379.395	76.9022	379.395	75.6701	379.395	76.9817	379.395	75.8846	379.395	77.2933	379.395	76.4709	379.395	77.6216	379.395	77.1231	379.395	77.7579	379.395	77.5916
392.578	83.7556	392.578	83.4998	392.578	83.8598	392.578	83.107	392.578	83.8073	392.578	82.6037	392.578	83.5999	392.578	82.0294	392.578	83.2451	392.578	81.4324	392.578	82.7548	392.578	80.8591	392.578	82.1433	392.578	80.3365	392.578	81.425	392.578	79.8557	392.578	80.6097	392.578	79.3685	392.578	79.6978	392.578	78.8011	392.578	78.6838	392.578	78.0785	392.578	77.5839	392.578	77.1607	392.578	76.5032	392.578	76.1048	392.578	75.7094	392.578	75.1617	392.578	75.504	392.578	74.7546	392.578	75.8365	392.578	75.0652	392.578	76.2936	392.578	75.74	392.578	76.5027	392.578	76.3049
405.762	83.8521	405.762	83.5845	405.762	83.9472	405.762	83.1627	405.762	83.8622	405.762	82.6152	405.762	83.6024	405.762	81.9806	405.762	83.1883	405.762	81.3075	405.762	82.6582	405.762	80.6499	405.762	82.066	405.762	80.0573	405.762	81.4678	405.762	79.558	405.762	80.8969	405.762	79.1451	405.762	80.3381	405.762	78.7767	405.762	79.7273	405.762	78.3942	405.762	78.9884	405.762	77.9521	405.762	78.1008	405.762	77.4508	405.762	77.1825	405.762	76.9604	405.762	76.5105	405.762	76.6089	405.762	76.3074	405.762	76.4937	405.762	76.4553	405.762	76.5716	405.762	76.6404	405.762	76.6731
420.41	83.996	420.41	83.7117	420.41	84.1292	420.41	83.3019	420.41	84.0939	420.41	82.7983	420.41	83.8825	420.41	82.2356	420.41	83.4983	420.41	81.647	420.41	82.9584	420.41	81.0582	420.41	82.2937	420.41	80.482	420.41	81.5467	420.41	79.9139	420.41	80.7596	420.41	79.3309	420.41	79.9542	420.41	78.6956	420.41	79.1172	420.41	77.9709	420.41	78.2155	420.41	77.1488	420.41	77.2595	420.41	76.2999	420.41	76.3949	420.41	75.6193	420.41	75.9006	420.41	75.3582	420.41	75.9174	420.41	75.573	420.41	76.2144	420.41	76.0153	420.41	76.4309	420.41	76.3637
435.059	83.1934	435.059	82.9159	435.059	83.3289	435.059	82.519	435.059	83.3158	435.059	82.0426	435.059	83.1606	435.059	81.5413	435.059	82.8802	435.059	81.0737	435.059	82.4998	435.059	80.6841	435.059	82.0502	435.059	80.3827	435.059	81.563	435.059	80.1381	435.059	81.0588	435.059	79.8872	435.059	80.5329	435.059	79.5547	435.059	79.9469	435.059	79.0745	435.059	79.2427	435.059	78.4136	435.059	78.3902	435.059	77.6064	435.059	77.4667	435.059	76.8015	435.059	76.7149	435.059	76.254	435.059	76.3997	435.059	76.1444	435.059	76.4783	435.059	76.3568	435.059	76.6253	435.059	76.5885
451.172	83.5621	451.172	83.2104	451.172	83.7389	451.172	82.7151	451.172	83.7262	451.172	82.125	451.172	83.5259	451.172	81.505	451.172	83.157	451.172	80.9247	451.172	82.6567	451.172	80.4388	451.172	82.0777	451.172	80.0631	451.172	81.4754	451.172	79.764	451.172	80.8852	451.172	79.4681	451.172	80.301	451.172	79.0853	451.172	79.6727	451.172	78.5359	451.172	78.9396	451.172	77.7841	451.172	78.0968	451.172	76.8944	451.172	77.2824	451.172	76.1062	451.172	76.7827	451.172	75.7846	451.172	76.7718	451.172	76.0622	451.172	77.0431	451.172	76.6319	451.172	77.2244	451.172	77.0902
465.82	83.4452	465.82	83.1002	465.82	83.6373	465.82	82.6371	465.82	83.6603	465.82	82.1098	465.82	83.5151	465.82	81.5878	465.82	83.2178	465.82	81.1432	465.82	82.7986	465.82	80.8261	465.82	82.2968	465.82	80.6384	465.82	81.7528	465.82	80.5248	465.82	81.1907	465.82	80.3872	465.82	80.5971	465.82	80.1099	465.82	79.9064	465.82	79.5785	465.82	79.0111	465.82	78.6921	465.82	77.8074	465.82	77.385	465.82	76.3008	465.82	75.6999	465.82	74.8016	465.82	73.9922	465.82	73.9458	465.82	73.0593	465.82	73.9061	465.82	73.2472	465.82	74.0344	465.82	73.7993
483.398	82.1442	483.398	81.6544	483.398	82.2985	483.398	80.8415	483.398	82.1405	483.398	79.7743	483.398	81.7352	483.398	78.6373	483.398	81.2096	483.398	77.7975	483.398	80.7588	483.398	77.6673	483.398	80.5814	483.398	78.2736	483.398	80.7386	483.398	79.2187	483.398	81.0961	483.398	80.1106	483.398	81.436	483.398	80.7394	483.398	81.5772	483.398	81.0176	483.398	81.4067	483.398	80.9163	483.398	80.8753	483.398	80.4425	483.398	80.0129	483.398	79.6523	483.398	78.9721	483.398	78.6887	483.398	78.03	483.398	77.8021	483.398	77.4211	483.398	77.2452	483.398	77.1374	483.398	77.0663
499.512	84.0982	499.512	83.7864	499.512	84.1183	499.512	83.1812	499.512	83.8452	499.512	82.2756	499.512	83.2763	499.512	81.0627	499.512	82.4159	499.512	79.5578	499.512	81.3002	499.512	77.8753	499.512	80.0584	499.512	76.3993	499.512	79.0043	499.512	75.8125	499.512	78.5749	499.512	76.3579	499.512	78.8902	499.512	77.4331	499.512	79.5574	499.512	78.4362	499.512	80.1164	499.512	79.1235	499.512	80.3218	499.512	79.4594	499.512	80.1349	499.512	79.5107	499.512	79.6985	499.512	79.4076	499.512	79.2892	499.512	79.2936	499.512	79.12	499.512	79.24	499.512	79.1485	499.512	79.2094
517.09	84.6543	517.09	84.3525	517.09	84.7307	517.09	83.8431	517.09	84.5699	517.09	83.1461	517.09	84.1683	517.09	82.2785	517.09	83.5331	517.09	81.2529	517.09	82.6878	517.09	80.0903	517.09	81.6862	517.09	78.8602	517.09	80.636	517.09	77.7441	517.09	79.7164	517.09	77.0389	517.09	79.1318	517.09	76.9313	517.09	78.9612	517.09	77.2476	517.09	79.0589	517.09	77.6344	517.09	79.1763	517.09	77.8683	517.09	79.1523	517.09	77.9383	517.09	78.9994	517.09	77.985	517.09	78.8572	517.09	78.1558	517.09	78.8216	517.09	78.4441	517.09	78.8176	517.09	78.7031
536.133	85.114	536.133	84.7816	536.133	85.1602	536.133	84.1966	536.133	84.8964	536.133	83.397	536.133	84.3155	536.133	82.4206	536.133	83.4393	536.133	81.3073	536.133	82.3439	536.133	80.1177	536.133	81.1971	536.133	78.9701	536.133	80.2619	536.133	78.0655	536.133	79.7622	536.133	77.6001	536.133	79.6747	536.133	77.5675	536.133	79.7591	536.133	77.7289	536.133	79.7867	536.133	77.8239	536.133	79.6763	536.133	77.7397	536.133	79.5034	536.133	77.5625	536.133	79.4159	536.133	77.5417	536.133	79.4692	536.133	77.8814	536.133	79.5438	536.133	78.4923	536.133	79.4528	536.133	79.0879
555.176	85.5693	555.176	85.202	555.176	85.6855	555.176	84.6199	555.176	85.5217	555.176	83.8654	555.176	85.055	555.176	82.9824	555.176	84.2679	555.176	82.011	555.176	83.158	555.176	80.9928	555.176	81.7744	555.176	79.9943	555.176	80.3092	555.176	79.1394	555.176	79.1941	555.176	78.5832	555.176	78.8596	555.176	78.3765	555.176	79.1499	555.176	78.3586	555.176	79.4908	555.176	78.2632	555.176	79.5062	555.176	77.9074	555.176	79.2008	555.176	77.3277	555.176	78.9053	555.176	76.8749	555.176	78.9349	555.176	77.0334	555.176	79.1375	555.176	77.7929	555.176	79.1063	555.176	78.6255
574.219	86.0216	574.219	85.6026	574.219	86.1827	574.219	84.9473	574.219	86.0667	574.219	84.0889	574.219	85.6525	574.219	83.0769	574.219	84.9175	574.219	81.9761	574.219	83.8472	574.219	80.8567	574.219	82.4591	574.219	79.7903	574.219	80.8609	574.219	78.872	574.219	79.3586	574.219	78.2457	574.219	78.4563	574.219	78.0336	574.219	78.3853	574.219	78.1638	574.219	78.7468	574.219	78.3595	574.219	79.0469	574.219	78.3531	574.219	79.1513	574.219	78.0779	574.219	79.2533	574.219	77.7745	574.219	79.5327	574.219	77.8926	574.219	79.8286	574.219	78.5574	574.219	79.8174	574.219	79.3463
594.727	85.9944	594.727	85.6123	594.727	86.1289	594.727	84.998	594.727	86.0105	594.727	84.1803	594.727	85.6416	594.727	83.2049	594.727	85.0263	594.727	82.141	594.727	84.1623	594.727	81.0826	594.727	83.0368	594.727	80.1392	594.727	81.6412	594.727	79.4163	594.727	80.0356	594.727	78.9897	594.727	78.5171	594.727	78.8657	594.727	77.7148	594.727	78.9415	594.727	77.9092	594.727	79.0233	594.727	78.4615	594.727	78.9165	594.727	78.7342	594.727	78.5286	594.727	78.6493	594.727	77.9659	594.727	78.5001	594.727	77.5769	594.727	78.48	594.727	77.6759	594.727	78.4112	594.727	78.0941
615.234	86.8388	615.234	86.4047	615.234	86.972	615.234	85.703	615.234	86.7901	615.234	84.7874	615.234	86.2971	615.234	83.7279	615.234	85.518	615.234	82.5991	615.234	84.507	615.234	81.459	615.234	83.3568	615.234	80.3332	615.234	82.199	615.234	79.2335	615.234	81.1752	615.234	78.2325	615.234	80.3642	615.234	77.5237	615.234	79.7061	615.234	77.2788	615.234	79.0185	615.234	77.3585	615.234	78.1483	615.234	77.3897	615.234	77.251	615.234	77.1435	615.234	76.9583	615.234	76.78	615.234	77.5622	615.234	76.8124	615.234	78.3467	615.234	77.4683	615.234	78.6339	615.234	78.2637
637.207	86.9087	637.207	86.4484	637.207	87.026	637.207	85.6818	637.207	86.7757	637.207	84.6565	637.207	86.1515	637.207	83.4392	637.207	85.1696	637.207	82.1363	637.207	83.8771	637.207	80.9131	637.207	82.3771	637.207	79.9606	637.207	80.8903	637.207	79.3802	637.207	79.7781	637.207	79.1068	637.207	79.3002	637.207	78.9776	637.207	79.2697	637.207	78.8365	637.207	79.2353	637.207	78.5708	637.207	78.9089	637.207	78.1309	637.207	78.3971	637.207	77.5992	637.207	78.2149	637.207	77.2755	637.207	78.653	637.207	77.5187	637.207	79.2373	637.207	78.2672	637.207	79.4199	637.207	79.0418
659.18	86.9629	659.18	86.5386	659.18	87.1409	659.18	85.8921	659.18	87.0492	659.18	85.0452	659.18	86.6653	659.18	84.0158	659.18	85.9662	659.18	82.8221	659.18	84.9269	659.18	81.4971	659.18	83.5237	659.18	80.1228	659.18	81.7615	659.18	78.8918	659.18	79.8022	659.18	78.1317	659.18	78.2772	659.18	78.0801	659.18	78.0697	659.18	78.5267	659.18	78.7696	659.18	78.9613	659.18	79.145	659.18	78.9694	659.18	78.586	659.18	78.3697	659.18	77.4013	659.18	77.3275	659.18	77.0581	659.18	76.6495	659.18	77.9536	659.18	77.1717	659.18	78.5536	659.18	78.1786
682.617	86.8706	682.617	86.4374	682.617	86.9718	682.617	85.6905	682.617	86.737	682.617	84.662	682.617	86.1794	682.617	83.4086	682.617	85.3291	682.617	82.0339	682.617	84.2241	682.617	80.7033	682.617	82.9014	682.617	79.5974	682.617	81.4063	682.617	78.8052	682.617	79.8508	682.617	78.3117	682.617	78.5225	682.617	78.1113	682.617	77.8409	682.617	78.2022	682.617	77.8357	682.617	78.4191	682.617	77.9342	682.617	78.4415	682.617	77.6505	682.617	78.0254	682.617	77.1324	682.617	77.2347	682.617	77.0563	682.617	76.6136	682.617	77.5078	682.617	76.7805	682.617	77.761	682.617	77.4218
707.52	86.742	707.52	86.3429	707.52	86.8455	707.52	85.6771	707.52	86.6315	707.52	84.7697	707.52	86.0932	707.52	83.6413	707.52	85.2389	707.52	82.3213	707.52	84.0833	707.52	80.8706	707.52	82.6419	707.52	79.4026	707.52	80.9556	707.52	78.0922	707.52	79.1957	707.52	77.1676	707.52	77.8587	707.52	76.8258	707.52	77.5451	707.52	77.0177	707.52	77.9619	707.52	77.3809	707.52	78.1502	707.52	77.5011	707.52	77.5577	707.52	77.1649	707.52	76.528	707.52	76.522	707.52	76.4428	707.52	76.2323	707.52	77.4317	707.52	76.8416	707.52	78.0539	707.52	77.749
732.422	86.111	732.422	85.7506	732.422	86.2364	732.422	85.1579	732.422	86.1252	732.422	84.3386	732.422	85.7746	732.422	83.3094	732.422	85.174	732.422	82.1065	732.422	84.3	732.422	80.7774	732.422	83.1172	732.422	79.3556	732.422	81.5926	732.422	77.8751	732.422	79.76	732.422	76.5263	732.422	77.946	732.422	75.8577	732.422	77.0489	732.422	76.2635	732.422	77.483	732.422	77.1471	732.422	78.0978	732.422	77.656	732.422	77.8334	732.422	77.3689	732.422	76.572	732.422	76.3008	732.422	75.5659	732.422	75.1918	732.422	76.1035	732.422	75.3597	732.422	76.7383	732.422	76.3621
757.324	86.243	757.324	85.9642	757.324	86.1947	757.324	85.3351	757.324	85.8462	757.324	84.3393	757.324	85.2314	757.324	82.9861	757.324	84.3927	757.324	81.3561	757.324	83.3766	757.324	79.6548	757.324	82.213	757.324	78.1741	757.324	80.8877	757.324	77.0497	757.324	79.3647	757.324	76.0877	757.324	77.7718	757.324	75.082	757.324	76.7873	757.324	74.3871	757.324	77.0793	757.324	74.7135	757.324	77.7247	757.324	75.6401	757.324	77.449	757.324	76.118	757.324	75.881	757.324	75.6875	757.324	74.0882	757.324	74.5448	757.324	74.009	757.324	73.7252	757.324	74.425	757.324	74.0537
785.156	86.0966	785.156	85.708	785.156	86.1797	785.156	85.0148	785.156	85.9604	785.156	84.0217	785.156	85.4514	785.156	82.7509	785.156	84.6776	785.156	81.272	785.156	83.6653	785.156	79.7318	785.156	82.4193	785.156	78.3337	785.156	80.9072	785.156	77.2147	785.156	79.0786	785.156	76.3368	785.156	76.9916	785.156	75.6516	785.156	75.3077	785.156	75.3396	785.156	75.4249	785.156	75.5244	785.156	76.7934	785.156	75.8333	785.156	77.6201	785.156	75.7479	785.156	77.3306	785.156	75.1144	785.156	76.49	785.156	74.4935	785.156	76.2445	785.156	74.8895	785.156	76.3829	785.156	75.9047
811.523	86.0165	811.523	85.6313	811.523	86.055	811.523	84.9316	811.523	85.7387	811.523	83.9502	811.523	85.107	811.523	82.7054	811.523	84.2521	811.523	81.1937	811.523	83.287	811.523	79.4008	811.523	82.2752	811.523	77.4161	811.523	81.1637	811.523	75.7218	811.523	79.7652	811.523	75.0335	811.523	77.8043	811.523	75.1872	811.523	75.3033	811.523	75.5224	811.523	74.2638	811.523	75.9199	811.523	75.9419	811.523	76.4408	811.523	77.1193	811.523	76.7938	811.523	76.6166	811.523	76.5627	811.523	74.9736	811.523	75.6148	811.523	73.789	811.523	74.3765	811.523	73.6165	811.523	73.7046
840.82	85.9129	840.82	85.427	840.82	86.0402	840.82	84.6873	840.82	85.7627	840.82	83.8186	840.82	85.0997	840.82	82.9079	840.82	84.1183	840.82	81.9705	840.82	82.9176	840.82	80.9663	840.82	81.6287	840.82	79.835	840.82	80.3979	840.82	78.4953	840.82	79.2937	840.82	76.8244	840.82	78.2087	840.82	74.7533	840.82	76.9757	840.82	72.7554	840.82	75.7495	840.82	72.2394	840.82	75.1019	840.82	73.1284	840.82	74.8784	840.82	73.7582	840.82	74.2216	840.82	73.5163	840.82	73.4384	840.82	72.9067	840.82	73.7315	840.82	73.1025	840.82	74.3048	840.82	73.9919
870.117	86.0507	870.117	85.6589	870.117	86.094	870.117	84.9785	870.117	85.7694	870.117	84.094	870.117	85.0978	870.117	83.0779	870.117	84.142	870.117	81.9622	870.117	83.0027	870.117	80.757	870.117	81.7862	870.117	79.518	870.117	80.5527	870.117	78.3774	870.117	79.2823	870.117	77.4063	870.117	77.8864	870.117	76.495	870.117	76.3823	870.117	75.6317	870.117	75.4165	870.117	75.2112	870.117	75.7908	870.117	75.4641	870.117	76.457	870.117	75.8161	870.117	76.1662	870.117	75.6313	870.117	75.0607	870.117	74.8541	870.117	74.363	870.117	74.1473	870.117	74.3211	870.117	74.1461
900.879	86.1542	900.879	85.5356	900.879	86.3282	900.879	84.5973	900.879	86.0131	900.879	83.5119	900.879	85.2415	900.879	82.408	900.879	84.1063	900.879	81.2875	900.879	82.7216	900.879	80.0848	900.879	81.1757	900.879	78.8536	900.879	79.5512	900.879	77.8055	900.879	78.0033	900.879	76.9706	900.879	76.753	900.879	76.0152	900.879	75.9925	900.879	74.7295	900.879	75.8393	900.879	73.6414	900.879	76.1021	900.879	73.6035	900.879	76.0897	900.879	74.1	900.879	75.2099	900.879	74.0718	900.879	73.8487	900.879	73.3167	900.879	73.3906	900.879	72.7303	900.879	73.5373	900.879	73.1323
933.105	86.7909	933.105	86.2455	933.105	86.8419	933.105	85.3609	933.105	86.3584	933.105	84.3643	933.105	85.4026	933.105	83.3952	933.105	84.1183	933.105	82.3442	933.105	82.6831	933.105	80.9592	933.105	81.2201	933.105	79.2561	933.105	79.7192	933.105	77.8987	933.105	78.0536	933.105	77.3876	933.105	76.157	933.105	76.9512	933.105	74.6488	933.105	75.8182	933.105	75.3336	933.105	74.2342	933.105	77.2436	933.105	73.7124	933.105	78.0075	933.105	74.6756	933.105	77.275	933.105	75.3975	933.105	76.3279	933.105	75.1514	933.105	76.3389	933.105	74.6818	933.105	76.1592	933.105	75.2323
965.332	86.7884	965.332	86.1103	965.332	86.9599	965.332	85.1462	965.332	86.5257	965.332	84.1346	965.332	85.5397	965.332	83.21	965.332	84.1642	965.332	82.2927	965.332	82.5639	965.332	81.0538	965.332	80.9113	965.332	79.1573	965.332	79.5074	965.332	76.7069	965.332	78.4846	965.332	74.8047	965.332	77.2908	965.332	74.6391	965.332	74.8676	965.332	75.1834	965.332	72.0744	965.332	75.2907	965.332	74.8945	965.332	75.0423	965.332	77.3055	965.332	75.0613	965.332	76.7843	965.332	75.3416	965.332	74.3914	965.332	75.3341	965.332	73.658	965.332	74.9962	965.332	74.5113	965.332	74.7896
1,000.49	86.8045	1,000.49	86.4044	1,000.49	86.802	1,000.49	85.7004	1,000.49	86.3559	1,000.49	84.7834	1,000.49	85.4912	1,000.49	83.7083	1,000.49	84.2487	1,000.49	82.5232	1,000.49	82.6622	1,000.49	81.2591	1,000.49	80.8521	1,000.49	79.9262	1,000.49	79.1691	1,000.49	78.5894	1,000.49	77.9953	1,000.49	77.3307	1,000.49	77.051	1,000.49	76.0431	1,000.49	75.3703	1,000.49	74.5261	1,000.49	72.9878	1,000.49	73.247	1,000.49	74.2167	1,000.49	73.3807	1,000.49	76.5907	1,000.49	74.3611	1,000.49	76.4796	1,000.49	74.8027	1,000.49	74.4086	1,000.49	74.3778	1,000.49	73.5637	1,000.49	73.7901	1,000.49	74.1954	1,000.49	74.0081
1,035.64	86.5371	1,035.64	85.943	1,035.64	86.6784	1,035.64	85.042	1,035.64	86.3351	1,035.64	83.9806	1,035.64	85.6054	1,035.64	82.874	1,035.64	84.5445	1,035.64	81.7205	1,035.64	83.0112	1,035.64	80.1945	1,035.64	80.8437	1,035.64	77.8837	1,035.64	78.3927	1,035.64	75.2273	1,035.64	77.0155	1,035.64	74.7466	1,035.64	77.1911	1,035.64	76.218	1,035.64	77.1617	1,035.64	76.8946	1,035.64	75.6926	1,035.64	76.1961	1,035.64	74.3324	1,035.64	74.7397	1,035.64	75.6932	1,035.64	74.0206	1,035.64	76.0514	1,035.64	74.4546	1,035.64	74.2073	1,035.64	74.6242	1,035.64	72.9003	1,035.64	74.0253	1,035.64	73.3737	1,035.64	73.5482
1,072.27	85.9477	1,072.27	85.8023	1,072.27	85.995	1,072.27	85.518	1,072.27	85.7916	1,072.27	84.8373	1,072.27	85.2171	1,072.27	83.5452	1,072.27	84.2857	1,072.27	81.7473	1,072.27	83.0264	1,072.27	79.8483	1,072.27	81.4293	1,072.27	78.0451	1,072.27	79.6004	1,072.27	76.0335	1,072.27	77.8359	1,072.27	73.8192	1,072.27	76.3405	1,072.27	72.791	1,072.27	74.9349	1,072.27	73.2128	1,072.27	73.8336	1,072.27	73.5009	1,072.27	74.3087	1,072.27	73.5115	1,072.27	75.6513	1,072.27	74.2521	1,072.27	75.7654	1,072.27	75.3932	1,072.27	73.8887	1,072.27	75.7012	1,072.27	71.7796	1,072.27	75.07	1,072.27	72.7121	1,072.27	74.0832
1,108.89	85.2763	1,108.89	85.3221	1,108.89	85.2858	1,108.89	85.2178	1,108.89	85.2524	1,108.89	84.5515	1,108.89	85.0494	1,108.89	83.0912	1,108.89	84.6174	1,108.89	81.1065	1,108.89	83.7837	1,108.89	79.287	1,108.89	82.291	1,108.89	77.8408	1,108.89	79.9613	1,108.89	75.964	1,108.89	76.9466	1,108.89	72.5571	1,108.89	74.7329	1,108.89	68.8955	1,108.89	74.7896	1,108.89	70.5381	1,108.89	74.8537	1,108.89	72.4653	1,108.89	74.0053	1,108.89	73.0569	1,108.89	74.9432	1,108.89	73.6143	1,108.89	75.9937	1,108.89	74.3262	1,108.89	74.3896	1,108.89	74.0989	1,108.89	72.215	1,108.89	72.8506	1,108.89	72.5847	1,108.89	72.4165
1,148.44	85.0345	1,148.44	85.1532	1,148.44	84.9297	1,148.44	85.0432	1,148.44	84.8407	1,148.44	84.4143	1,148.44	84.5691	1,148.44	83.1708	1,148.44	83.9128	1,148.44	81.5719	1,148.44	82.8227	1,148.44	80.1504	1,148.44	81.3672	1,148.44	79.103	1,148.44	79.596	1,148.44	77.8617	1,148.44	77.4323	1,148.44	75.7234	1,148.44	74.5528	1,148.44	72.6709	1,148.44	71.6501	1,148.44	70.4786	1,148.44	72.9072	1,148.44	70.5021	1,148.44	75.188	1,148.44	71.0858	1,148.44	75.739	1,148.44	71.9465	1,148.44	75.5501	1,148.44	72.7021	1,148.44	74.1071	1,148.44	72.4374	1,148.44	71.3431	1,148.44	71.6792	1,148.44	71.6764	1,148.44	72.029
1,189.45	85.0014	1,189.45	84.9624	1,189.45	84.9252	1,189.45	84.6461	1,189.45	84.757	1,189.45	83.821	1,189.45	84.3911	1,189.45	82.2924	1,189.45	83.7244	1,189.45	80.1791	1,189.45	82.6546	1,189.45	78.278	1,189.45	81.1374	1,189.45	77.5167	1,189.45	79.319	1,189.45	77.102	1,189.45	77.3969	1,189.45	75.7085	1,189.45	75.2754	1,189.45	73.0868	1,189.45	72.9465	1,189.45	70.9753	1,189.45	72.1232	1,189.45	70.8101	1,189.45	72.797	1,189.45	71.257	1,189.45	73.2359	1,189.45	72.4592	1,189.45	74.259	1,189.45	73.6091	1,189.45	73.7851	1,189.45	73.0253	1,189.45	70.7832	1,189.45	70.064	1,189.45	68.1069	1,189.45	67.1994
1,230.47	85.6575	1,230.47	85.6709	1,230.47	85.2709	1,230.47	85.0683	1,230.47	84.768	1,230.47	83.8132	1,230.47	84.1906	1,230.47	82.0964	1,230.47	83.3657	1,230.47	80.2246	1,230.47	82.1505	1,230.47	78.5492	1,230.47	80.5775	1,230.47	77.4014	1,230.47	78.7384	1,230.47	76.5577	1,230.47	76.7527	1,230.47	75.4398	1,230.47	74.5814	1,230.47	74.5373	1,230.47	71.7705	1,230.47	74.7037	1,230.47	69.9405	1,230.47	74.5618	1,230.47	72.433	1,230.47	72.389	1,230.47	74.5446	1,230.47	69.5815	1,230.47	74.9521	1,230.47	71.8057	1,230.47	73.598	1,230.47	73.2885	1,230.47	70.483	1,230.47	71.7721	1,230.47	68.8981	1,230.47	69.0512
1,274.41	85.6459	1,274.41	85.5858	1,274.41	85.2395	1,274.41	84.9361	1,274.41	84.542	1,274.41	83.6958	1,274.41	83.6793	1,274.41	81.8928	1,274.41	82.6969	1,274.41	79.4923	1,274.41	81.585	1,274.41	76.8851	1,274.41	80.3137	1,274.41	75.5063	1,274.41	78.7886	1,274.41	75.0838	1,274.41	76.9641	1,274.41	73.2254	1,274.41	75.0753	1,274.41	69.2371	1,274.41	73.2494	1,274.41	70.5303	1,274.41	71.3247	1,274.41	73.6048	1,274.41	70.2041	1,274.41	73.7301	1,274.41	70.97	1,274.41	71.4204	1,274.41	72.2257	1,274.41	71.1958	1,274.41	71.9154	1,274.41	72.3458	1,274.41	69.3239	1,274.41	70.9181	1,274.41	67.8571	1,274.41	68.0684
1,319.82	85.1938	1,319.82	85.3834	1,319.82	84.7045	1,319.82	84.8862	1,319.82	84.2819	1,319.82	83.4571	1,319.82	83.9722	1,319.82	81.1992	1,319.82	83.3735	1,319.82	78.8113	1,319.82	82.073	1,319.82	76.8653	1,319.82	80.1765	1,319.82	75.0119	1,319.82	78.3144	1,319.82	74.1649	1,319.82	76.9739	1,319.82	74.7003	1,319.82	74.8494	1,319.82	73.6054	1,319.82	69.879	1,319.82	70.4509	1,319.82	69.0683	1,319.82	70.9666	1,319.82	71.431	1,319.82	72.5848	1,319.82	70.2002	1,319.82	70.2262	1,319.82	73.6738	1,319.82	67.8746	1,319.82	73.794	1,319.82	70.828	1,319.82	69.3366	1,319.82	70.7116	1,319.82	66.1684	1,319.82	66.3984
1,366.7	84.9551	1,366.7	85.1912	1,366.7	84.4059	1,366.7	84.6393	1,366.7	84.1091	1,366.7	83.3109	1,366.7	83.776	1,366.7	81.5174	1,366.7	82.7755	1,366.7	79.5149	1,366.7	81.2638	1,366.7	76.9623	1,366.7	79.652	1,366.7	73.0815	1,366.7	77.7041	1,366.7	70.4991	1,366.7	76.5936	1,366.7	71.9207	1,366.7	76.4075	1,366.7	71.353	1,366.7	74.3852	1,366.7	68.2094	1,366.7	69.0293	1,366.7	68.4199	1,366.7	68.617	1,366.7	70.5468	1,366.7	69.4091	1,366.7	70.4984	1,366.7	70.8665	1,366.7	68.7775	1,366.7	72.1235	1,366.7	70.2049	1,366.7	68.8777	1,366.7	69.7191	1,366.7	64.7872	1,366.7	65.8051
1,413.57	84.6419	1,413.57	84.2528	1,413.57	84.4726	1,413.57	83.7078	1,413.57	83.5734	1,413.57	83.0331	1,413.57	82.6653	1,413.57	81.9912	1,413.57	82.1551	1,413.57	80.1799	1,413.57	81.023	1,413.57	77.2305	1,413.57	79.049	1,413.57	73.8775	1,413.57	76.8141	1,413.57	71.1035	1,413.57	74.603	1,413.57	68.2193	1,413.57	73.0301	1,413.57	66.3783	1,413.57	71.9355	1,413.57	68.534	1,413.57	69.5882	1,413.57	71.7095	1,413.57	63.6867	1,413.57	75.0183	1,413.57	68.8289	1,413.57	74.2426	1,413.57	71.9348	1,413.57	68.9468	1,413.57	69.2441	1,413.57	67.1538	1,413.57	65.9603	1,413.57	70.0353	1,413.57	65.9388	1,413.57	69.0277
1,463.38	84.4321	1,463.38	84.4154	1,463.38	83.6582	1,463.38	83.4776	1,463.38	82.9751	1,463.38	82.0846	1,463.38	82.7197	1,463.38	80.5816	1,463.38	81.803	1,463.38	78.8158	1,463.38	79.9898	1,463.38	76.8459	1,463.38	78.6571	1,463.38	75.6308	1,463.38	77.639	1,463.38	75.2896	1,463.38	75.7362	1,463.38	74.5887	1,463.38	74.3887	1,463.38	73.5408	1,463.38	74.9529	1,463.38	71.695	1,463.38	74.4388	1,463.38	69.3348	1,463.38	69.3125	1,463.38	72.1011	1,463.38	61.6436	1,463.38	71.5112	1,463.38	71.9646	1,463.38	67.3698	1,463.38	70.4076	1,463.38	67.77	1,463.38	56.219	1,463.38	70.3892	1,463.38	63.603	1,463.38	68.7779
1,516.11	84.7995	1,516.11	84.4585	1,516.11	84.0727	1,516.11	83.1737	1,516.11	83.0189	1,516.11	81.6615	1,516.11	82.2049	1,516.11	80.1224	1,516.11	81.3926	1,516.11	78.2869	1,516.11	80.6474	1,516.11	76.1814	1,516.11	79.6918	1,516.11	74.2885	1,516.11	77.6177	1,516.11	73.0014	1,516.11	74.6481	1,516.11	72.45	1,516.11	72.4138	1,516.11	72.4462	1,516.11	72.5832	1,516.11	71.1162	1,516.11	73.2043	1,516.11	67.1522	1,516.11	72.4455	1,516.11	67.7352	1,516.11	69.4783	1,516.11	67.8059	1,516.11	68.0759	1,516.11	67.5871	1,516.11	70.9037	1,516.11	69.0024	1,516.11	67.7326	1,516.11	69.3314	1,516.11	64.5824	1,516.11	67.1086
1,568.85	85.3904	1,568.85	85.3227	1,568.85	84.0079	1,568.85	83.3317	1,568.85	82.9121	1,568.85	80.762	1,568.85	82.4802	1,568.85	79.7193	1,568.85	81.3546	1,568.85	79.0623	1,568.85	79.6902	1,568.85	76.9029	1,568.85	78.8478	1,568.85	74.1585	1,568.85	78.1542	1,568.85	72.6753	1,568.85	76.2997	1,568.85	71.9119	1,568.85	72.9408	1,568.85	72.4335	1,568.85	72.0838	1,568.85	72.6494	1,568.85	73.6695	1,568.85	70.1702	1,568.85	73.3368	1,568.85	67.2673	1,568.85	70.9022	1,568.85	64.5069	1,568.85	63.6371	1,568.85	64.9116	1,568.85	70.8901	1,568.85	69.8309	1,568.85	67.4082	1,568.85	71.4129	1,568.85	59.1397	1,568.85	66.6634
1,624.51	85.0516	1,624.51	84.943	1,624.51	84.1323	1,624.51	83.2906	1,624.51	83.506	1,624.51	80.8645	1,624.51	82.8967	1,624.51	79.3086	1,624.51	81.2732	1,624.51	78.548	1,624.51	79.1628	1,624.51	77.075	1,624.51	77.744	1,624.51	73.7324	1,624.51	77.2414	1,624.51	68.1154	1,624.51	77.2443	1,624.51	66.7603	1,624.51	75.5728	1,624.51	65.8725	1,624.51	72.0607	1,624.51	65.5731	1,624.51	71.1263	1,624.51	65.7607	1,624.51	67.1519	1,624.51	68.8498	1,624.51	68.5516	1,624.51	69.237	1,624.51	67.1502	1,624.51	66.5297	1,624.51	68.3009	1,624.51	67.9257	1,624.51	68.216	1,624.51	70.4626	1,624.51	63.9319	1,624.51	67.5214
1,681.64	84.2136	1,681.64	84.1031	1,681.64	84.5375	1,681.64	83.7433	1,681.64	83.8153	1,681.64	81.7134	1,681.64	82.0599	1,681.64	78.1214	1,681.64	80.5595	1,681.64	75.8045	1,681.64	78.7777	1,681.64	76.1932	1,681.64	76.7122	1,681.64	75.0926	1,681.64	76.2673	1,681.64	68.9809	1,681.64	76.8864	1,681.64	62.2097	1,681.64	76.1585	1,681.64	60.4289	1,681.64	73.4518	1,681.64	59.5887	1,681.64	74.1135	1,681.64	64.0117	1,681.64	73.9507	1,681.64	72.8298	1,681.64	64.3742	1,681.64	73.3698	1,681.64	68.3171	1,681.64	65.99	1,681.64	68.0032	1,681.64	61.7116	1,681.64	63.7709	1,681.64	66.5374	1,681.64	65.888	1,681.64	68.5208
1,741.7	84.6147	1,741.7	84.2193	1,741.7	83.2831	1,741.7	82.2524	1,741.7	82.4328	1,741.7	80.5382	1,741.7	81.7925	1,741.7	80.0278	1,741.7	78.6499	1,741.7	79.6783	1,741.7	77.7637	1,741.7	77.7365	1,741.7	79.0372	1,741.7	73.7006	1,741.7	77.2751	1,741.7	69.453	1,741.7	74.8998	1,741.7	68.6616	1,741.7	72.8487	1,741.7	69.8749	1,741.7	70.3206	1,741.7	73.0008	1,741.7	73.3054	1,741.7	71.5671	1,741.7	76.3374	1,741.7	73.6787	1,741.7	74.722	1,741.7	71.1589	1,741.7	66.4344	1,741.7	62.9797	1,741.7	71.1301	1,741.7	68.1441	1,741.7	70.0145	1,741.7	71.0233	1,741.7	57.5353	1,741.7	64.8301
1,803.22	85.0481	1,803.22	84.074	1,803.22	84.4533	1,803.22	81.1532	1,803.22	82.7361	1,803.22	78.5695	1,803.22	79.5385	1,803.22	77.9086	1,803.22	77.6314	1,803.22	77.302	1,803.22	78.4766	1,803.22	75.9096	1,803.22	76.2337	1,803.22	75.2526	1,803.22	73.5955	1,803.22	75.8955	1,803.22	74.1099	1,803.22	75.9743	1,803.22	75.9143	1,803.22	75.8464	1,803.22	74.8787	1,803.22	76.3857	1,803.22	64.7243	1,803.22	73.3229	1,803.22	72.5174	1,803.22	71.6646	1,803.22	77.222	1,803.22	66.9834	1,803.22	72.0918	1,803.22	64.2754	1,803.22	67.3183	1,803.22	68.8862	1,803.22	72.1525	1,803.22	69.8612	1,803.22	66.8473	1,803.22	63.5432
1,866.21	84.8428	1,866.21	84.1291	1,866.21	84.5229	1,866.21	82.1104	1,866.21	82.6701	1,866.21	79.3533	1,866.21	78.0169	1,866.21	77.3182	1,866.21	77.9495	1,866.21	77.3733	1,866.21	79.3993	1,866.21	77.5122	1,866.21	74.7374	1,866.21	76.8307	1,866.21	73.1536	1,866.21	76.6019	1,866.21	74.4654	1,866.21	77.1215	1,866.21	76.2003	1,866.21	77.407	1,866.21	75.8189	1,866.21	77.7416	1,866.21	72.0526	1,866.21	73.879	1,866.21	64.0873	1,866.21	69.8622	1,866.21	73.4365	1,866.21	62.7447	1,866.21	74.5322	1,866.21	66.8423	1,866.21	65.1073	1,866.21	67.8705	1,866.21	71.9845	1,866.21	65.7507	1,866.21	68.2626	1,866.21	56.694
1,932.13	83.8767	1,932.13	82.1513	1,932.13	84.3723	1,932.13	80.1894	1,932.13	81.9597	1,932.13	78.2273	1,932.13	78.1964	1,932.13	75.8979	1,932.13	77.5609	1,932.13	74.4261	1,932.13	75.2501	1,932.13	72.8696	1,932.13	77.4101	1,932.13	72.6263	1,932.13	79.5789	1,932.13	72.9764	1,932.13	77.3668	1,932.13	72.405	1,932.13	75.3846	1,932.13	70.88	1,932.13	74.7341	1,932.13	71.5927	1,932.13	71.783	1,932.13	66.6077	1,932.13	74.6808	1,932.13	56.5902	1,932.13	70.2783	1,932.13	58.7203	1,932.13	71.0108	1,932.13	68.0535	1,932.13	68.3671	1,932.13	65.1761	1,932.13	64.0741	1,932.13	58.8761	1,932.13	70.3964	1,932.13	66.7939
1,999.51	84.105	1,999.51	82.0216	1,999.51	84.4423	1,999.51	80.8636	1,999.51	81.4577	1,999.51	79.3371	1,999.51	77.8567	1,999.51	74.509	1,999.51	76.1642	1,999.51	73.8659	1,999.51	75.3387	1,999.51	74.1792	1,999.51	78.5352	1,999.51	74.0626	1,999.51	79.6296	1,999.51	73.2482	1,999.51	77.7405	1,999.51	69.6367	1,999.51	77.6816	1,999.51	65.4962	1,999.51	77.513	1,999.51	66.3144	1,999.51	72.3442	1,999.51	67.0927	1,999.51	69.7785	1,999.51	69.5433	1,999.51	72.982	1,999.51	70.3506	1,999.51	70.659	1,999.51	67.5451	1,999.51	67.5127	1,999.51	66.0599	1,999.51	70.0894	1,999.51	64.7959	1,999.51	65.1312	1,999.51	60.5095
2,069.82	84.3563	2,069.82	82.6118	2,069.82	84.1906	2,069.82	80.2476	2,069.82	81.5237	2,069.82	77.2586	2,069.82	75.4914	2,069.82	75.1117	2,069.82	72.8688	2,069.82	72.9726	2,069.82	75.0652	2,069.82	72.7056	2,069.82	76.7025	2,069.82	73.155	2,069.82	77.8843	2,069.82	70.5584	2,069.82	75.3191	2,069.82	60.3217	2,069.82	72.6809	2,069.82	54.4205	2,069.82	74.1862	2,069.82	66.221	2,069.82	71.9342	2,069.82	69.3373	2,069.82	72.0772	2,069.82	71.5084	2,069.82	69.425	2,069.82	69.4292	2,069.82	72.9378	2,069.82	61.9657	2,069.82	60.394	2,069.82	62.3168	2,069.82	71.064	2,069.82	62.9236	2,069.82	63.9352	2,069.82	65.0352
2,143.07	83.9735	2,143.07	82.7054	2,143.07	84.1265	2,143.07	80.3516	2,143.07	81.2678	2,143.07	73.5524	2,143.07	73.2544	2,143.07	69.7881	2,143.07	74.5462	2,143.07	67.1868	2,143.07	76.4847	2,143.07	68.0977	2,143.07	79.4712	2,143.07	68.0361	2,143.07	79.8339	2,143.07	59.7583	2,143.07	76.7061	2,143.07	64.2513	2,143.07	73.4267	2,143.07	68.0407	2,143.07	73.6468	2,143.07	70.1128	2,143.07	74.8549	2,143.07	71.1248	2,143.07	74.355	2,143.07	68.5058	2,143.07	68.0882	2,143.07	66.0488	2,143.07	67.5523	2,143.07	67.3355	2,143.07	59.6093	2,143.07	66.1783	2,143.07	66.684	2,143.07	62.401	2,143.07	68.2822	2,143.07	70.2448
2,219.24	82.8703	2,219.24	82.3816	2,219.24	83.576	2,219.24	80.5068	2,219.24	81.0764	2,219.24	72.2971	2,219.24	76.0105	2,219.24	70.7483	2,219.24	77.0361	2,219.24	74.4695	2,219.24	76.7381	2,219.24	69.3371	2,219.24	80.1067	2,219.24	60.7955	2,219.24	80.0449	2,219.24	61.639	2,219.24	75.7905	2,219.24	70.5158	2,219.24	73.3567	2,219.24	69.0485	2,219.24	72.5286	2,219.24	71.4937	2,219.24	71.6318	2,219.24	72.5779	2,219.24	73.3302	2,219.24	57.2307	2,219.24	69.7526	2,219.24	60.012	2,219.24	64.14	2,219.24	65.5866	2,219.24	64.1059	2,219.24	64.9959	2,219.24	63.6595	2,219.24	61.3886	2,219.24	67.239	2,219.24	63.9181
2,296.88	83.6756	2,296.88	82.0342	2,296.88	83.0598	2,296.88	78.968	2,296.88	78.7981	2,296.88	72.8338	2,296.88	74.3971	2,296.88	69.7911	2,296.88	73.2192	2,296.88	74.291	2,296.88	79.4711	2,296.88	72.6359	2,296.88	81.3403	2,296.88	71.6424	2,296.88	79.2755	2,296.88	68.5141	2,296.88	74.9101	2,296.88	63.9075	2,296.88	68.5439	2,296.88	65.8476	2,296.88	70.8285	2,296.88	65.8942	2,296.88	69.4666	2,296.88	64.424	2,296.88	69.8294	2,296.88	65.8215	2,296.88	72.4043	2,296.88	65.5369	2,296.88	60.681	2,296.88	56.588	2,296.88	53.1026	2,296.88	51.5769	2,296.88	65.3658	2,296.88	54.6812	2,296.88	65.7704	2,296.88	66.8314
2,378.91	84.7297	2,378.91	83.8638	2,378.91	83.374	2,378.91	78.7702	2,378.91	79.8857	2,378.91	57.1118	2,378.91	71.8399	2,378.91	70.7849	2,378.91	74.8312	2,378.91	69.3959	2,378.91	78.8244	2,378.91	70.8981	2,378.91	81.1883	2,378.91	73.0309	2,378.91	80.7713	2,378.91	70.9404	2,378.91	77.0033	2,378.91	63.0936	2,378.91	72.5954	2,378.91	57.768	2,378.91	72.534	2,378.91	67.5695	2,378.91	72.0357	2,378.91	70.5138	2,378.91	72.365	2,378.91	67.194	2,378.91	72.4488	2,378.91	70.3181	2,378.91	61	2,378.91	68.6768	2,378.91	52.3336	2,378.91	65.131	2,378.91	64.5422	2,378.91	59.9228	2,378.91	62.6012	2,378.91	65.4642
2,462.4	84.0658	2,462.4	83.689	2,462.4	83.1714	2,462.4	78.6237	2,462.4	79.6034	2,462.4	37.6025	2,462.4	70.5047	2,462.4	68.5293	2,462.4	76.3838	2,462.4	71.6493	2,462.4	79.416	2,462.4	72.7729	2,462.4	80.6181	2,462.4	71.9184	2,462.4	79.0923	2,462.4	73.1752	2,462.4	73.7438	2,462.4	71.5447	2,462.4	68.7658	2,462.4	69.6561	2,462.4	71.6159	2,462.4	68.8183	2,462.4	72.498	2,462.4	68.5609	2,462.4	71.1479	2,462.4	66.2121	2,462.4	71.422	2,462.4	66.8858	2,462.4	67.4712	2,462.4	67.7256	2,462.4	59.697	2,462.4	63.2319	2,462.4	61.9546	2,462.4	50.3363	2,462.4	66.2184	2,462.4	64.0726
2,548.83	84.1128	2,548.83	83.3284	2,548.83	82.4582	2,548.83	77.2444	2,548.83	78.2899	2,548.83	64.3862	2,548.83	70.1376	2,548.83	71.0241	2,548.83	77.1705	2,548.83	71.9345	2,548.83	79.3266	2,548.83	73.6366	2,548.83	79.4016	2,548.83	75.0497	2,548.83	78.901	2,548.83	72.7862	2,548.83	76.8869	2,548.83	71.5165	2,548.83	71.3042	2,548.83	71.0686	2,548.83	71.9644	2,548.83	70.5065	2,548.83	71.2821	2,548.83	70.3422	2,548.83	73.0427	2,548.83	66.3972	2,548.83	70.5663	2,548.83	67.4162	2,548.83	68.7231	2,548.83	67.5892	2,548.83	60.946	2,548.83	64.634	2,548.83	61.8361	2,548.83	58.2994	2,548.83	64.5089	2,548.83	60.9901
2,639.65	84.8112	2,639.65	82.9735	2,639.65	82.8284	2,639.65	75.254	2,639.65	77.67	2,639.65	70.1017	2,639.65	68	2,639.65	69.2869	2,639.65	77.0302	2,639.65	75.4631	2,639.65	79.3839	2,639.65	76.6482	2,639.65	79.1541	2,639.65	75.7612	2,639.65	78.9141	2,639.65	73.4162	2,639.65	77.2721	2,639.65	72.3472	2,639.65	70.8478	2,639.65	70.6123	2,639.65	71.3019	2,639.65	69.2293	2,639.65	70.1625	2,639.65	69.9966	2,639.65	70.4547	2,639.65	66.3175	2,639.65	68.7546	2,639.65	67.494	2,639.65	65.8354	2,639.65	68.4651	2,639.65	55.2491	2,639.65	62.7513	2,639.65	63.5864	2,639.65	54.5784	2,639.65	63.7163	2,639.65	58.956
2,731.93	84.962	2,731.93	82.924	2,731.93	83.328	2,731.93	76.3614	2,731.93	77.976	2,731.93	68.5296	2,731.93	64.0785	2,731.93	70.9817	2,731.93	76.094	2,731.93	76.6946	2,731.93	79.0579	2,731.93	76.1408	2,731.93	78.8952	2,731.93	74.6804	2,731.93	79.1055	2,731.93	73.111	2,731.93	77.4424	2,731.93	71.1533	2,731.93	68.3582	2,731.93	69.3809	2,731.93	65.5762	2,731.93	69.3592	2,731.93	69.4339	2,731.93	70.1678	2,731.93	70.5063	2,731.93	67.4143	2,731.93	63.7664	2,731.93	67.4149	2,731.93	62.292	2,731.93	68.9144	2,731.93	57.0827	2,731.93	65.6941	2,731.93	65.7825	2,731.93	55.9395	2,731.93	63.9608	2,731.93	61.7173
2,828.61	84.8561	2,828.61	82.6199	2,828.61	83.3477	2,828.61	76.8779	2,828.61	77.6442	2,828.61	66.9361	2,828.61	54.2573	2,828.61	75.5658	2,828.61	76.6748	2,828.61	78.2497	2,828.61	79.1684	2,828.61	77.3917	2,828.61	78.1605	2,828.61	76.241	2,828.61	77.8429	2,828.61	73.7939	2,828.61	77.0601	2,828.61	73.2411	2,828.61	71.0752	2,828.61	71.6722	2,828.61	59.1947	2,828.61	69.875	2,828.61	63.2932	2,828.61	70.0319	2,828.61	69.403	2,828.61	67.9585	2,828.61	65.4124	2,828.61	68.1465	2,828.61	59.5225	2,828.61	68.9566	2,828.61	56.0462	2,828.61	65.8521	2,828.61	66.8269	2,828.61	58.8126	2,828.61	63.866	2,828.61	61.1746
2,928.22	84.8867	2,928.22	82.5645	2,928.22	83.4516	2,928.22	76.8538	2,928.22	77.3277	2,928.22	66.5649	2,928.22	58.3564	2,928.22	78.2084	2,928.22	75.958	2,928.22	79.2546	2,928.22	79.2738	2,928.22	78.2063	2,928.22	79.0208	2,928.22	76.7368	2,928.22	77.3242	2,928.22	74.1996	2,928.22	75.2575	2,928.22	72.3402	2,928.22	69.3671	2,928.22	71.1723	2,928.22	64.0378	2,928.22	69.6256	2,928.22	65.4427	2,928.22	69.711	2,928.22	69.6049	2,928.22	68.5047	2,928.22	66.7173	2,928.22	68.7692	2,928.22	62.9812	2,928.22	70.3248	2,928.22	60.3697	2,928.22	66.372	2,928.22	68.1714	2,928.22	63.4554	2,928.22	63.7585	2,928.22	59.6837
3,030.76	84.5125	3,030.76	82.0744	3,030.76	83.2792	3,030.76	74.451	3,030.76	77.3894	3,030.76	73.0943	3,030.76	66.9634	3,030.76	79.8325	3,030.76	76.1346	3,030.76	79.9909	3,030.76	78.9168	3,030.76	79.7368	3,030.76	79.3159	3,030.76	77.4973	3,030.76	78.2543	3,030.76	74.96	3,030.76	75.5581	3,030.76	74.0856	3,030.76	67.0093	3,030.76	73.3173	3,030.76	58.6234	3,030.76	71.0074	3,030.76	70.7605	3,030.76	70.7866	3,030.76	70.7735	3,030.76	69.4993	3,030.76	69.1569	3,030.76	68.2175	3,030.76	64.5783	3,030.76	70.8008	3,030.76	62.3428	3,030.76	67.8123	3,030.76	67.9507	3,030.76	63.8092	3,030.76	65.1773	3,030.76	55.1922
3,137.7	84.5402	3,137.7	81.8983	3,137.7	83.18	3,137.7	72.3062	3,137.7	77.3822	3,137.7	76.3845	3,137.7	71.1422	3,137.7	80.6041	3,137.7	76.8363	3,137.7	80.982	3,137.7	78.8485	3,137.7	79.7761	3,137.7	79.2661	3,137.7	77.7992	3,137.7	78.3743	3,137.7	76.2115	3,137.7	76.3412	3,137.7	72.7166	3,137.7	71.925	3,137.7	71.9601	3,137.7	60.5494	3,137.7	69.9153	3,137.7	69.2119	3,137.7	69.5914	3,137.7	70.5612	3,137.7	69.2966	3,137.7	66.9128	3,137.7	68.0615	3,137.7	63.4988	3,137.7	71.0073	3,137.7	59.5146	3,137.7	67.4099	3,137.7	67.2793	3,137.7	63.149	3,137.7	67.2141	3,137.7	57.2471
3,249.02	84.1904	3,249.02	81.2234	3,249.02	82.7726	3,249.02	71.6858	3,249.02	77.7833	3,249.02	78.2449	3,249.02	74.5785	3,249.02	81.1827	3,249.02	77.4174	3,249.02	81.0647	3,249.02	78.914	3,249.02	79.7344	3,249.02	79.6636	3,249.02	77.6891	3,249.02	79.868	3,249.02	74.4674	3,249.02	78.1495	3,249.02	72.6945	3,249.02	73.6029	3,249.02	72.038	3,249.02	66.9301	3,249.02	70.4408	3,249.02	68.8347	3,249.02	69.6818	3,249.02	69.6606	3,249.02	68.8907	3,249.02	67.1198	3,249.02	67.418	3,249.02	61.6662	3,249.02	69.9174	3,249.02	50.5517	3,249.02	67.5743	3,249.02	67.5445	3,249.02	62.5325	3,249.02	68.7864	3,249.02	56.5649
3,363.28	84.1556	3,363.28	80.7513	3,363.28	82.3279	3,363.28	73.581	3,363.28	76.9477	3,363.28	79.7183	3,363.28	77.3664	3,363.28	81.4988	3,363.28	78.7611	3,363.28	81.0272	3,363.28	79.1786	3,363.28	79.6106	3,363.28	79.8802	3,363.28	77.0857	3,363.28	79.9728	3,363.28	75.2956	3,363.28	78.6018	3,363.28	72.6605	3,363.28	75.7275	3,363.28	70.9044	3,363.28	70.3508	3,363.28	69.5839	3,363.28	68.044	3,363.28	68.6416	3,363.28	70.3075	3,363.28	68.5639	3,363.28	63.5889	3,363.28	67.4212	3,363.28	63.7639	3,363.28	69.3011	3,363.28	58.464	3,363.28	67.7973	3,363.28	68.0065	3,363.28	62.8829	3,363.28	67.8006	3,363.28	57.3391
3,481.93	84.3919	3,481.93	80.7649	3,481.93	82.4793	3,481.93	75.9171	3,481.93	76.5853	3,481.93	80.6371	3,481.93	78.6489	3,481.93	81.4021	3,481.93	79.7837	3,481.93	81.3856	3,481.93	79.326	3,481.93	79.2663	3,481.93	80.5203	3,481.93	77.1069	3,481.93	80.3115	3,481.93	73.6042	3,481.93	78.8849	3,481.93	71.8382	3,481.93	75.9722	3,481.93	72.3565	3,481.93	71.5949	3,481.93	71.3264	3,481.93	72.1444	3,481.93	68.9467	3,481.93	71.0408	3,481.93	68.4777	3,481.93	69.1642	3,481.93	67.6984	3,481.93	61.7729	3,481.93	69.3754	3,481.93	57.1924	3,481.93	68.14	3,481.93	67.6808	3,481.93	63.1353	3,481.93	66.8579	3,481.93	57.6964
3,604.98	84.8634	3,604.98	80.3788	3,604.98	82.9319	3,604.98	77.547	3,604.98	76.4543	3,604.98	80.6997	3,604.98	80.0346	3,604.98	81.9039	3,604.98	80.2875	3,604.98	81.2235	3,604.98	79.1209	3,604.98	79.6402	3,604.98	80.7026	3,604.98	77.4579	3,604.98	79.7162	3,604.98	76.1353	3,604.98	79.2317	3,604.98	73.9239	3,604.98	76.3244	3,604.98	71.2757	3,604.98	70.2478	3,604.98	71.4457	3,604.98	71.4109	3,604.98	68.9141	3,604.98	71.6863	3,604.98	67.6236	3,604.98	68.4687	3,604.98	68.3956	3,604.98	63.722	3,604.98	69.4449	3,604.98	52.3461	3,604.98	68.2423	3,604.98	66.6779	3,604.98	64.5793	3,604.98	65.4127	3,604.98	59.1582
3,732.42	84.661	3,732.42	80.1404	3,732.42	83.3071	3,732.42	78.673	3,732.42	76.3742	3,732.42	81.6399	3,732.42	80.7807	3,732.42	82.5817	3,732.42	81.0931	3,732.42	81.2179	3,732.42	79.121	3,732.42	79.7415	3,732.42	80.5603	3,732.42	78.9254	3,732.42	80.7821	3,732.42	75.2985	3,732.42	80.6405	3,732.42	71.9605	3,732.42	74.174	3,732.42	72.9323	3,732.42	67.9112	3,732.42	71.4637	3,732.42	70.1173	3,732.42	69.711	3,732.42	72.0283	3,732.42	68.0536	3,732.42	66.6868	3,732.42	67.2511	3,732.42	61.4772	3,732.42	69.0678	3,732.42	54.7993	3,732.42	68.7209	3,732.42	64.4769	3,732.42	64.6521	3,732.42	64.1181	3,732.42	56.8778
3,864.26	84.8598	3,864.26	80.2439	3,864.26	83.5032	3,864.26	79.776	3,864.26	76.4032	3,864.26	82.4722	3,864.26	81.0287	3,864.26	82.6604	3,864.26	81.2079	3,864.26	80.9649	3,864.26	77.1105	3,864.26	81.0537	3,864.26	79.8028	3,864.26	78.0419	3,864.26	81.0012	3,864.26	75.982	3,864.26	80.8678	3,864.26	73.1705	3,864.26	75.1502	3,864.26	71.802	3,864.26	57.71	3,864.26	71.422	3,864.26	67.1154	3,864.26	69.1343	3,864.26	70.3343	3,864.26	68.2721	3,864.26	68.1514	3,864.26	68.325	3,864.26	61.0647	3,864.26	67.5332	3,864.26	51.6232	3,864.26	67.813	3,864.26	63.274	3,864.26	63.4692	3,864.26	64.0636	3,864.26	55.2836
4,000.49	84.3724	4,000.49	79.6937	4,000.49	84.2073	4,000.49	81.3054	4,000.49	77.2579	4,000.49	83.3038	4,000.49	81.6045	4,000.49	81.7858	4,000.49	80.735	4,000.49	81.5885	4,000.49	74.7026	4,000.49	79.8845	4,000.49	79.7932	4,000.49	77.8326	4,000.49	81.2396	4,000.49	74.257	4,000.49	81.1	4,000.49	69.4596	4,000.49	75.3937	4,000.49	70.8104	4,000.49	47.2461	4,000.49	70.6876	4,000.49	66.2125	4,000.49	69.1444	4,000.49	69.539	4,000.49	68.3581	4,000.49	66.8173	4,000.49	67.4945	4,000.49	61.5989	4,000.49	68.5178	4,000.49	48.9828	4,000.49	68.847	4,000.49	63.1229	4,000.49	63.889	4,000.49	64.6374	4,000.49	57.2874
4,141.11	84.265	4,141.11	80.8799	4,141.11	83.6951	4,141.11	82.0519	4,141.11	78.7374	4,141.11	82.6807	4,141.11	81.5037	4,141.11	82.0988	4,141.11	82.0735	4,141.11	81.4975	4,141.11	73.8596	4,141.11	79.454	4,141.11	79.0555	4,141.11	77.713	4,141.11	82.0765	4,141.11	76.2592	4,141.11	79.151	4,141.11	74.0708	4,141.11	72.9671	4,141.11	70.3906	4,141.11	68.2612	4,141.11	71.4676	4,141.11	63.9618	4,141.11	67.7609	4,141.11	66.5464	4,141.11	68.4747	4,141.11	68.2811	4,141.11	68.2646	4,141.11	54.7203	4,141.11	67.6061	4,141.11	55.7903	4,141.11	69.7642	4,141.11	62.592	4,141.11	64.8697	4,141.11	63.6983	4,141.11	57.6593
4,287.6	84.1006	4,287.6	81.4516	4,287.6	84.0716	4,287.6	82.7777	4,287.6	79.2661	4,287.6	82.8336	4,287.6	82.9549	4,287.6	82.3721	4,287.6	82.595	4,287.6	80.7809	4,287.6	72.6582	4,287.6	77.4655	4,287.6	78.5404	4,287.6	77.8918	4,287.6	81.2682	4,287.6	73.1956	4,287.6	76.8388	4,287.6	71.3395	4,287.6	67.9271	4,287.6	70.971	4,287.6	68.3864	4,287.6	70.4482	4,287.6	67.0345	4,287.6	69.0366	4,287.6	71.2677	4,287.6	67.033	4,287.6	65.6741	4,287.6	66.5271	4,287.6	53.0354	4,287.6	67.7167	4,287.6	58.4892	4,287.6	69.0474	4,287.6	63.9304	4,287.6	64.3019	4,287.6	62.3961	4,287.6	56.7144
4,438.48	84.4797	4,438.48	82.611	4,438.48	84.0684	4,438.48	83.0634	4,438.48	80.0202	4,438.48	82.7855	4,438.48	82.2015	4,438.48	81.7909	4,438.48	82.0953	4,438.48	79.5309	4,438.48	74.717	4,438.48	78.9361	4,438.48	76.82	4,438.48	76.1693	4,438.48	78.809	4,438.48	75.7297	4,438.48	73.9757	4,438.48	69.7251	4,438.48	72.6505	4,438.48	67.3838	4,438.48	65.401	4,438.48	69.2301	4,438.48	70.5809	4,438.48	68.0525	4,438.48	71.0885	4,438.48	68.6878	4,438.48	66.8147	4,438.48	65.9233	4,438.48	46.722	4,438.48	66.4822	4,438.48	46.999	4,438.48	68.8028	4,438.48	61.708	4,438.48	66.5806	4,438.48	62.0434	4,438.48	61.9079
4,595.21	84.3457	4,595.21	82.9553	4,595.21	84.0289	4,595.21	82.8956	4,595.21	80.3446	4,595.21	83.242	4,595.21	82.7801	4,595.21	81.2277	4,595.21	83.2677	4,595.21	79.8585	4,595.21	75.9077	4,595.21	78.8057	4,595.21	73.5257	4,595.21	76.438	4,595.21	77.0763	4,595.21	74.8785	4,595.21	75.1001	4,595.21	73.5747	4,595.21	72.9219	4,595.21	69.3569	4,595.21	66.235	4,595.21	69.1729	4,595.21	64.7174	4,595.21	67.2356	4,595.21	68.7831	4,595.21	68.0684	4,595.21	65.709	4,595.21	66.5276	4,595.21	54.5341	4,595.21	67.1307	4,595.21	60.6894	4,595.21	69.5463	4,595.21	61.7943	4,595.21	66.394	4,595.21	59.4094	4,595.21	56.0871
4,756.35	84.6139	4,756.35	83.197	4,756.35	83.3076	4,756.35	82.5845	4,756.35	81.098	4,756.35	82.6791	4,756.35	82.7207	4,756.35	81.2684	4,756.35	82.8884	4,756.35	80.1974	4,756.35	76.7256	4,756.35	78.0508	4,756.35	71.2357	4,756.35	77.4195	4,756.35	76.3631	4,756.35	75.6158	4,756.35	77.1647	4,756.35	71.2077	4,756.35	73.4002	4,756.35	69.7691	4,756.35	68.3559	4,756.35	68.4327	4,756.35	61.6124	4,756.35	66.7428	4,756.35	68.3251	4,756.35	66.704	4,756.35	66.8801	4,756.35	64.5643	4,756.35	61.9738	4,756.35	67.4229	4,756.35	60.0751	4,756.35	69.3028	4,756.35	64.5342	4,756.35	67.657	4,756.35	59.64	4,756.35	57.4882
4,924.8	84.7652	4,924.8	82.2264	4,924.8	83.5238	4,924.8	82.3378	4,924.8	80.2797	4,924.8	82.627	4,924.8	82.8663	4,924.8	81.6597	4,924.8	82.8635	4,924.8	80.1007	4,924.8	76.6902	4,924.8	78.584	4,924.8	67.5094	4,924.8	76.1319	4,924.8	77.3855	4,924.8	75.3398	4,924.8	79.0279	4,924.8	70.5933	4,924.8	72.9151	4,924.8	67.9689	4,924.8	60.4767	4,924.8	67.2562	4,924.8	61.3727	4,924.8	66.6713	4,924.8	68.0168	4,924.8	65.5464	4,924.8	69.431	4,924.8	62.0838	4,924.8	61.644	4,924.8	65.3705	4,924.8	54.9565	4,924.8	68.9844	4,924.8	60.0455	4,924.8	66.3917	4,924.8	56.9256	4,924.8	60.3989
5,097.66	84.3046	5,097.66	81.3909	5,097.66	83.4655	5,097.66	82.4564	5,097.66	80.8387	5,097.66	82.9038	5,097.66	83.0272	5,097.66	81.9165	5,097.66	83.1309	5,097.66	79.8965	5,097.66	79.4668	5,097.66	78.1813	5,097.66	72.7721	5,097.66	74.6808	5,097.66	78.4305	5,097.66	74.5936	5,097.66	78.9791	5,097.66	72.6989	5,097.66	72.4032	5,097.66	70.2699	5,097.66	69.2966	5,097.66	68.1102	5,097.66	54.4565	5,097.66	67.5161	5,097.66	66.3092	5,097.66	66.6998	5,097.66	69.9259	5,097.66	63.9572	5,097.66	56.9364	5,097.66	64.7825	5,097.66	59.8037	5,097.66	69.0707	5,097.66	58.926	5,097.66	67.3445	5,097.66	49.6748	5,097.66	58.3176
5,277.83	84.116	5,277.83	80.7676	5,277.83	83.4675	5,277.83	82.4804	5,277.83	80.4936	5,277.83	82.5397	5,277.83	82.5837	5,277.83	81.5218	5,277.83	82.9015	5,277.83	80.1262	5,277.83	80.7968	5,277.83	77.844	5,277.83	75.7697	5,277.83	76.7785	5,277.83	77.1691	5,277.83	75.0371	5,277.83	77.8813	5,277.83	71.9591	5,277.83	73.9164	5,277.83	70.0294	5,277.83	69.8858	5,277.83	68.3647	5,277.83	60.2303	5,277.83	66.9685	5,277.83	58.9095	5,277.83	66.5022	5,277.83	67.2952	5,277.83	62.6323	5,277.83	60.9287	5,277.83	62.9094	5,277.83	62.3959	5,277.83	68.3907	5,277.83	60.9131	5,277.83	65.8336	5,277.83	50.9929	5,277.83	59.0738
5,463.87	82.9926	5,463.87	79.809	5,463.87	83.0302	5,463.87	82.4833	5,463.87	80.8898	5,463.87	82.2439	5,463.87	81.9551	5,463.87	81.5765	5,463.87	82.415	5,463.87	80.2584	5,463.87	80.1723	5,463.87	78.6813	5,463.87	75.928	5,463.87	76.7341	5,463.87	75.522	5,463.87	75.4906	5,463.87	75.3607	5,463.87	72.7809	5,463.87	72.3742	5,463.87	69.3819	5,463.87	67.0363	5,463.87	68.3796	5,463.87	61.0025	5,463.87	67.5147	5,463.87	59.5058	5,463.87	67.707	5,463.87	61.7918	5,463.87	63.7994	5,463.87	57.384	5,463.87	63.2328	5,463.87	51.5075	5,463.87	67.9163	5,463.87	56.5716	5,463.87	65.6392	5,463.87	48.6105	5,463.87	59.5618
5,657.23	82.5124	5,657.23	79.7475	5,657.23	82.8756	5,657.23	82.6141	5,657.23	80.4838	5,657.23	81.4522	5,657.23	81.9313	5,657.23	81.3913	5,657.23	81.7272	5,657.23	80.446	5,657.23	79.0355	5,657.23	78.7795	5,657.23	75.835	5,657.23	77.1713	5,657.23	73.0032	5,657.23	74.8571	5,657.23	73.3093	5,657.23	73.794	5,657.23	73.0354	5,657.23	69.7571	5,657.23	65.8732	5,657.23	68.4869	5,657.23	52.7338	5,657.23	65.5563	5,657.23	62.4814	5,657.23	66.6942	5,657.23	56.4366	5,657.23	62.4814	5,657.23	51.3917	5,657.23	62.7418	5,657.23	58.2009	5,657.23	67.1595	5,657.23	52.1695	5,657.23	65.7121	5,657.23	47.5516	5,657.23	58.562
5,856.45	82.251	5,856.45	80.0837	5,856.45	82.6634	5,856.45	82.1765	5,856.45	80.3686	5,856.45	81.2206	5,856.45	81.2267	5,856.45	81.2754	5,856.45	80.6573	5,856.45	79.9176	5,856.45	78.6166	5,856.45	79.152	5,856.45	75.2658	5,856.45	77.36	5,856.45	70.4105	5,856.45	73.6587	5,856.45	73.8467	5,856.45	73.2684	5,856.45	74.7887	5,856.45	69.2426	5,856.45	64.8912	5,856.45	69.4703	5,856.45	52.2789	5,856.45	66.3098	5,856.45	60.9371	5,856.45	65.2811	5,856.45	54.837	5,856.45	61.1682	5,856.45	51.7769	5,856.45	62.3491	5,856.45	57.1353	5,856.45	66.0269	5,856.45	54.0875	5,856.45	65.7118	5,856.45	47.9891	5,856.45	57.8878
6,062.99	81.6644	6,062.99	80.2032	6,062.99	82.8814	6,062.99	82.2646	6,062.99	80.1711	6,062.99	81.0584	6,062.99	81.0366	6,062.99	80.3405	6,062.99	81.6279	6,062.99	79.7433	6,062.99	78.6593	6,062.99	79.3143	6,062.99	74.5822	6,062.99	77.565	6,062.99	70.0242	6,062.99	73.6018	6,062.99	73.1421	6,062.99	72.4091	6,062.99	74.0536	6,062.99	68.3746	6,062.99	62.124	6,062.99	68.2186	6,062.99	56.2455	6,062.99	65.5568	6,062.99	58.7115	6,062.99	65.0652	6,062.99	57.4091	6,062.99	60.3165	6,062.99	52.7917	6,062.99	60.1971	6,062.99	53.1997	6,062.99	65.3828	6,062.99	54.5495	6,062.99	65.7401	6,062.99	48.1865	6,062.99	58.0782
6,276.86	81.2891	6,276.86	80.8984	6,276.86	82.922	6,276.86	81.8662	6,276.86	80.6902	6,276.86	80.2001	6,276.86	79.8111	6,276.86	79.1946	6,276.86	81.0662	6,276.86	79.7494	6,276.86	78.4589	6,276.86	79.1083	6,276.86	74.98	6,276.86	77.23	6,276.86	69.9728	6,276.86	73.6985	6,276.86	71.568	6,276.86	71.7801	6,276.86	73.6026	6,276.86	67.5503	6,276.86	62.2106	6,276.86	67.259	6,276.86	60.8815	6,276.86	65.2717	6,276.86	59.0476	6,276.86	64.6311	6,276.86	52.1907	6,276.86	59.3467	6,276.86	57.7811	6,276.86	59.319	6,276.86	56.5686	6,276.86	64.1367	6,276.86	42.6832	6,276.86	64.7666	6,276.86	53.3926	6,276.86	57.2127
6,498.05	81.5443	6,498.05	81.3297	6,498.05	82.9729	6,498.05	81.3162	6,498.05	81.7132	6,498.05	78.7854	6,498.05	79.3127	6,498.05	78.9521	6,498.05	79.4526	6,498.05	79.5896	6,498.05	77.7229	6,498.05	77.8784	6,498.05	75.9851	6,498.05	76.0297	6,498.05	69.0358	6,498.05	73.0531	6,498.05	71.4951	6,498.05	70.1879	6,498.05	72.5367	6,498.05	65.9256	6,498.05	60.7279	6,498.05	66.2874	6,498.05	61.6736	6,498.05	64.8414	6,498.05	55.7481	6,498.05	62.5628	6,498.05	57.1947	6,498.05	58.2452	6,498.05	59.1532	6,498.05	55.7567	6,498.05	48.933	6,498.05	62.9819	6,498.05	48.1301	6,498.05	64.0829	6,498.05	52.2157	6,498.05	56.8666
6,726.56	81.8952	6,726.56	81.201	6,726.56	82.7777	6,726.56	80.5073	6,726.56	81.8401	6,726.56	78.0503	6,726.56	79.5519	6,726.56	79.5498	6,726.56	78.5068	6,726.56	78.3966	6,726.56	78.2871	6,726.56	76.4707	6,726.56	77.2044	6,726.56	74.1625	6,726.56	67.1451	6,726.56	71.6206	6,726.56	70.4783	6,726.56	68.4407	6,726.56	70.3961	6,726.56	65.1672	6,726.56	57.8302	6,726.56	63.1358	6,726.56	60.1269	6,726.56	62.9988	6,726.56	54.2275	6,726.56	60.7029	6,726.56	59.8294	6,726.56	57.8479	6,726.56	55.1574	6,726.56	50.2636	6,726.56	52.7431	6,726.56	61.4335	6,726.56	55.7505	6,726.56	61.3445	6,726.56	49.1081	6,726.56	58.1207
6,963.87	81.6996	6,963.87	81.2316	6,963.87	82.7376	6,963.87	80.177	6,963.87	81.9897	6,963.87	79.0502	6,963.87	79.9032	6,963.87	79.1433	6,963.87	78.6704	6,963.87	76.662	6,963.87	78.5677	6,963.87	75.14	6,963.87	77.7063	6,963.87	72.7657	6,963.87	63.369	6,963.87	68.6355	6,963.87	69.1278	6,963.87	66.1568	6,963.87	65.5083	6,963.87	61.4262	6,963.87	56.2951	6,963.87	62.4683	6,963.87	62.4765	6,963.87	59.9177	6,963.87	54.6318	6,963.87	59.2434	6,963.87	58.941	6,963.87	54.355	6,963.87	54.2939	6,963.87	51.9435	6,963.87	57.648	6,963.87	58.2811	6,963.87	50.2442	6,963.87	57.7421	6,963.87	42.716	6,963.87	57.8032
7,209.96	81.4233	7,209.96	81.2824	7,209.96	81.8496	7,209.96	80.7872	7,209.96	81.0372	7,209.96	80.2449	7,209.96	79.6568	7,209.96	78.684	7,209.96	78.1719	7,209.96	76.8815	7,209.96	77.0963	7,209.96	73.8337	7,209.96	77.1088	7,209.96	70.6406	7,209.96	67.6667	7,209.96	67.2879	7,209.96	69.9371	7,209.96	66.8888	7,209.96	65.4493	7,209.96	61.0733	7,209.96	54.6782	7,209.96	60.9151	7,209.96	62.5846	7,209.96	58.8694	7,209.96	53.0091	7,209.96	56.6278	7,209.96	53.3695	7,209.96	56.102	7,209.96	49.7535	7,209.96	50.4171	7,209.96	56.8535	7,209.96	55.0405	7,209.96	52.3101	7,209.96	52.4619	7,209.96	48.1509	7,209.96	55.949
7,464.84	80.7578	7,464.84	80.9605	7,464.84	81.4626	7,464.84	80.7605	7,464.84	80.8346	7,464.84	80.5223	7,464.84	79.4111	7,464.84	79.2445	7,464.84	78.5668	7,464.84	77.4554	7,464.84	75.9334	7,464.84	74.1845	7,464.84	75.4627	7,464.84	71.7296	7,464.84	68.8903	7,464.84	69.8941	7,464.84	72.802	7,464.84	67.5334	7,464.84	61.5492	7,464.84	62.6898	7,464.84	57.7152	7,464.84	61.7926	7,464.84	60.3698	7,464.84	61.282	7,464.84	56.5742	7,464.84	57.4659	7,464.84	51.9988	7,464.84	56.9943	7,464.84	49.7741	7,464.84	55.8761	7,464.84	55.6079	7,464.84	56.2819	7,464.84	47.5166	7,464.84	50.2741	7,464.84	46.5426	7,464.84	53.1224
7,727.05	80.9017	7,727.05	81.0658	7,727.05	81.3001	7,727.05	81.1583	7,727.05	80.9713	7,727.05	80.2724	7,727.05	79.1633	7,727.05	79.2114	7,727.05	78.1982	7,727.05	77.2033	7,727.05	76.274	7,727.05	75.106	7,727.05	73.9148	7,727.05	72.2695	7,727.05	72.1104	7,727.05	70.1982	7,727.05	73.4365	7,727.05	67.5765	7,727.05	65.6012	7,727.05	63.7192	7,727.05	58.028	7,727.05	60.4001	7,727.05	57.7221	7,727.05	61.231	7,727.05	51.281	7,727.05	57.5567	7,727.05	48.1376	7,727.05	57.1926	7,727.05	46.5943	7,727.05	55.8389	7,727.05	54.026	7,727.05	57.5444	7,727.05	41.5417	7,727.05	50.709	7,727.05	46.8391	7,727.05	52.1925
7,999.51	81.6512	7,999.51	81.7602	7,999.51	81.6996	7,999.51	81.6689	7,999.51	80.7817	7,999.51	80.0072	7,999.51	79.0446	7,999.51	79.1042	7,999.51	77.7156	7,999.51	76.7333	7,999.51	75.021	7,999.51	75.0957	7,999.51	73.3149	7,999.51	71.782	7,999.51	72.8986	7,999.51	68.8157	7,999.51	71.4624	7,999.51	66.0388	7,999.51	63.3515	7,999.51	62.0836	7,999.51	58.8316	7,999.51	59.8794	7,999.51	51.953	7,999.51	60.4857	7,999.51	51.6511	7,999.51	55.2617	7,999.51	52.0276	7,999.51	56.4613	7,999.51	42.2306	7,999.51	56.8274	7,999.51	52.9918	7,999.51	56.478	7,999.51	33.9806	7,999.51	47.1306	7,999.51	47.7286	7,999.51	50.8013
8,282.23	82.2958	8,282.23	82.5828	8,282.23	82.3233	8,282.23	81.7299	8,282.23	80.9846	8,282.23	80.0921	8,282.23	79.2383	8,282.23	78.4849	8,282.23	77.4401	8,282.23	76.2916	8,282.23	75.6397	8,282.23	74.2578	8,282.23	73.0964	8,282.23	71.6239	8,282.23	72.153	8,282.23	68.2387	8,282.23	68.2021	8,282.23	65.5545	8,282.23	61.8292	8,282.23	61.7532	8,282.23	57.1623	8,282.23	59.1164	8,282.23	44.0828	8,282.23	59.0338	8,282.23	48.8281	8,282.23	52.7126	8,282.23	46.7957	8,282.23	55.4531	8,282.23	47.9997	8,282.23	56.9687	8,282.23	50.9916	8,282.23	55.3137	8,282.23	45.4686	8,282.23	42.4322	8,282.23	48.0515	8,282.23	51.4238
8,573.73	82.714	8,573.73	82.8942	8,573.73	82.8053	8,573.73	81.595	8,573.73	81.4074	8,573.73	79.8597	8,573.73	79.2275	8,573.73	77.5878	8,573.73	77.2543	8,573.73	75.8373	8,573.73	75.0162	8,573.73	73.0545	8,573.73	73.0149	8,573.73	70.6671	8,573.73	71.3753	8,573.73	66.2875	8,573.73	65.3321	8,573.73	62.5484	8,573.73	54.3412	8,573.73	59.7753	8,573.73	57.4297	8,573.73	56.3383	8,573.73	49.5946	8,573.73	56.9951	8,573.73	51.1901	8,573.73	52.6105	8,573.73	47.1395	8,573.73	52.5676	8,573.73	51.7503	8,573.73	55.5189	8,573.73	47.2856	8,573.73	51.8615	8,573.73	46.4624	8,573.73	43.0669	8,573.73	49.2338	8,573.73	46.9875
8,876.95	82.8473	8,876.95	82.9252	8,876.95	82.8364	8,876.95	81.5896	8,876.95	81.7664	8,876.95	79.5257	8,876.95	79.1918	8,876.95	77.0803	8,876.95	76.9469	8,876.95	74.8438	8,876.95	75.0593	8,876.95	72.1177	8,876.95	72.2722	8,876.95	68.5173	8,876.95	68.4827	8,876.95	65.7467	8,876.95	57.1851	8,876.95	61.5251	8,876.95	55.6891	8,876.95	58.0855	8,876.95	52.2495	8,876.95	55.2394	8,876.95	50.6412	8,876.95	56.0109	8,876.95	50.9317	8,876.95	52.0801	8,876.95	49.858	8,876.95	50.4747	8,876.95	51.8866	8,876.95	54.1741	8,876.95	38.3809	8,876.95	50.1122	8,876.95	49.8602	8,876.95	47.3833	8,876.95	49.081	8,876.95	46.1627
9,188.96	82.7772	9,188.96	82.7818	9,188.96	82.6902	9,188.96	81.3521	9,188.96	81.6898	9,188.96	79.5415	9,188.96	79.1147	9,188.96	76.8543	9,188.96	76.5637	9,188.96	74.0971	9,188.96	74.104	9,188.96	71.0763	9,188.96	71.5272	9,188.96	68.4579	9,188.96	64.7753	9,188.96	63.9551	9,188.96	62.5566	9,188.96	59.4935	9,188.96	56.7258	9,188.96	54.689	9,188.96	46.0108	9,188.96	52.3452	9,188.96	38.2097	9,188.96	52.8632	9,188.96	50.995	9,188.96	48.8011	9,188.96	49.6684	9,188.96	49.452	9,188.96	50.1923	9,188.96	51.1677	9,188.96	43.2818	9,188.96	50.2432	9,188.96	47.3393	9,188.96	46.822	9,188.96	42.5192	9,188.96	45.3246
9,514.16	82.8028	9,514.16	82.8147	9,514.16	82.5689	9,514.16	81.204	9,514.16	81.5903	9,514.16	79.6479	9,514.16	79.0441	9,514.16	76.7	9,514.16	76.1299	9,514.16	74.1318	9,514.16	72.9875	9,514.16	70.2239	9,514.16	69.8047	9,514.16	65.9461	9,514.16	64.321	9,514.16	62.3314	9,514.16	63.828	9,514.16	58.1815	9,514.16	54.706	9,514.16	54.6464	9,514.16	39.2382	9,514.16	51.2821	9,514.16	46.7714	9,514.16	51.8451	9,514.16	48.628	9,514.16	47.6519	9,514.16	49.4165	9,514.16	47.3107	9,514.16	50.0793	9,514.16	50.8153	9,514.16	45.2709	9,514.16	52.0681	9,514.16	46.5356	9,514.16	50.7161	9,514.16	42.0005	9,514.16	41.4024
9,849.61	83.0606	9,849.61	83.1358	9,849.61	82.39	9,849.61	81.3616	9,849.61	81.5124	9,849.61	79.0851	9,849.61	79.156	9,849.61	76.4974	9,849.61	75.9285	9,849.61	73.9977	9,849.61	72.2574	9,849.61	69.8086	9,849.61	67.2858	9,849.61	65.7771	9,849.61	64.523	9,849.61	62.6442	9,849.61	61.2588	9,849.61	58.45	9,849.61	54.462	9,849.61	54.9948	9,849.61	47.8709	9,849.61	52.3606	9,849.61	46.5129	9,849.61	51.284	9,849.61	45.5876	9,849.61	49.4199	9,849.61	51.9465	9,849.61	45.927	9,849.61	50.9994	9,849.61	50.2097	9,849.61	44.0626	9,849.61	52.7492	9,849.61	44.3925	9,849.61	52.0405	9,849.61	43.2778	9,849.61	38.5133
10,196.8	83.372	10,196.8	83.3705	10,196.8	82.2824	10,196.8	81.4578	10,196.8	81.2342	10,196.8	78.3329	10,196.8	79.2898	10,196.8	76.1895	10,196.8	75.6689	10,196.8	73.8945	10,196.8	71.1359	10,196.8	70.6249	10,196.8	63.449	10,196.8	63.8917	10,196.8	62.9594	10,196.8	61.3337	10,196.8	59.2638	10,196.8	58.5596	10,196.8	53.7679	10,196.8	54.5754	10,196.8	51.3072	10,196.8	53.132	10,196.8	47.4257	10,196.8	51.8873	10,196.8	40.6559	10,196.8	49.711	10,196.8	53.4168	10,196.8	49.4514	10,196.8	49.123	10,196.8	51.001	10,196.8	42.9478	10,196.8	52.6617	10,196.8	39.9132	10,196.8	52.1763	10,196.8	41.7957	10,196.8	33.9092
10,555.7	83.5818	10,555.7	83.2391	10,555.7	82.4301	10,555.7	81.1985	10,555.7	81.2664	10,555.7	77.7862	10,555.7	79.2541	10,555.7	76.0297	10,555.7	75.3685	10,555.7	74.029	10,555.7	71.6432	10,555.7	70.4206	10,555.7	64.0039	10,555.7	65.49	10,555.7	65.3758	10,555.7	63.9125	10,555.7	63.7811	10,555.7	60.7675	10,555.7	55.0187	10,555.7	56.0339	10,555.7	47.4934	10,555.7	54.0096	10,555.7	47.4038	10,555.7	53.6646	10,555.7	39.008	10,555.7	48.8844	10,555.7	52.4707	10,555.7	52.2881	10,555.7	41.6989	10,555.7	51.6123	10,555.7	40.5738	10,555.7	53.7383	10,555.7	33.5367	10,555.7	53.3265	10,555.7	41.1493	10,555.7	39.3652
10,927.7	83.6309	10,927.7	82.842	10,927.7	82.6353	10,927.7	80.8533	10,927.7	81.4011	10,927.7	77.5682	10,927.7	79.0751	10,927.7	76.3111	10,927.7	75.3048	10,927.7	73.3887	10,927.7	70.3271	10,927.7	70.6651	10,927.7	67.0118	10,927.7	66.637	10,927.7	67.4541	10,927.7	63.4294	10,927.7	64.4135	10,927.7	60.7339	10,927.7	55.3684	10,927.7	56.4326	10,927.7	44.957	10,927.7	54.1688	10,927.7	37.1216	10,927.7	53.8608	10,927.7	41.3698	10,927.7	44.227	10,927.7	50.1646	10,927.7	52.6551	10,927.7	47.2853	10,927.7	52.8741	10,927.7	43.5233	10,927.7	52.5134	10,927.7	36.6028	10,927.7	52.0966	10,927.7	35.9591	10,927.7	37.4879
11,313	83.3737	11,313	82.5351	11,313	82.5588	11,313	80.4857	11,313	81.0944	11,313	78.2181	11,313	78.9317	11,313	76.1744	11,313	76.0135	11,313	73.5208	11,313	71.6688	11,313	70.5837	11,313	67.5043	11,313	66.855	11,313	67.1676	11,313	65.0635	11,313	63.2415	11,313	61.0732	11,313	55.1279	11,313	56.9438	11,313	47.9421	11,313	53.9935	11,313	39.486	11,313	54.3721	11,313	44.7527	11,313	46.7375	11,313	47.5333	11,313	53.3557	11,313	52.343	11,313	53.1752	11,313	44.2497	11,313	52.2607	11,313	37.2453	11,313	53.8669	11,313	40.7319	11,313	36.9506
11,712.9	82.8974	11,712.9	82.1324	11,712.9	81.8725	11,712.9	80.1349	11,712.9	80.4842	11,712.9	78.3148	11,712.9	78.901	11,712.9	75.4758	11,712.9	75.9436	11,712.9	73.0646	11,712.9	71.5795	11,712.9	70.4969	11,712.9	67.4709	11,712.9	66.7693	11,712.9	64.8078	11,712.9	63.4439	11,712.9	61.0494	11,712.9	60.1982	11,712.9	52.6833	11,712.9	56.4192	11,712.9	45.6092	11,712.9	52.3064	11,712.9	44.4377	11,712.9	53.2801	11,712.9	48.7843	11,712.9	43.2286	11,712.9	51.2643	11,712.9	53.2472	11,712.9	50.6958	11,712.9	50.3671	11,712.9	43.0105	11,712.9	53.9446	11,712.9	40.8683	11,712.9	53.7206	11,712.9	29.9519	11,712.9	36.2172
12,126	82.5818	12,126	81.6915	12,126	81.4659	12,126	79.9208	12,126	80.1697	12,126	77.9785	12,126	78.6788	12,126	75.0305	12,126	75.4084	12,126	72.2079	12,126	71.7572	12,126	70.3204	12,126	68.6579	12,126	65.3004	12,126	64.0921	12,126	62.6192	12,126	55.9589	12,126	58.7589	12,126	52.5021	12,126	56.092	12,126	42.8733	12,126	49.4481	12,126	47.3267	12,126	53.0587	12,126	47.3956	12,126	43.5	12,126	48.9798	12,126	51.7235	12,126	46.1316	12,126	49.7296	12,126	46.3662	12,126	53.0098	12,126	39.2652	12,126	50.9808	12,126	32.931	12,126	30.0276
12,553.7	82.5416	12,553.7	81.3831	12,553.7	81.7129	12,553.7	79.8295	12,553.7	80.2257	12,553.7	77.2485	12,553.7	78.1777	12,553.7	74.8192	12,553.7	74.7329	12,553.7	71.1082	12,553.7	71.0803	12,553.7	69.3151	12,553.7	66.7257	12,553.7	64.6371	12,553.7	61.8557	12,553.7	59.9431	12,553.7	52.0093	12,553.7	55.9218	12,553.7	48.5084	12,553.7	52.6937	12,553.7	41.5464	12,553.7	48.4109	12,553.7	44.3076	12,553.7	49.4701	12,553.7	47.3705	12,553.7	45.0523	12,553.7	43.7941	12,553.7	46.7385	12,553.7	44.5226	12,553.7	49.7196	12,553.7	48.3955	12,553.7	48.7932	12,553.7	33.2026	12,553.7	46.6866	12,553.7	41.5173	12,553.7	31.8439
12,996.1	82.4956	12,996.1	81.2623	12,996.1	82.1253	12,996.1	79.8677	12,996.1	80.2095	12,996.1	77.1155	12,996.1	77.6287	12,996.1	74.3644	12,996.1	74.2301	12,996.1	70.6626	12,996.1	69.3705	12,996.1	67.5755	12,996.1	62.745	12,996.1	61.9709	12,996.1	57.0557	12,996.1	57.6425	12,996.1	53.5162	12,996.1	52.9591	12,996.1	42.6943	12,996.1	48.2171	12,996.1	40.5834	12,996.1	46.1158	12,996.1	47.3175	12,996.1	43.9702	12,996.1	42.8817	12,996.1	41.8714	12,996.1	41.1503	12,996.1	35.5494	12,996.1	48.3599	12,996.1	47.4819	12,996.1	43.4783	12,996.1	43.1403	12,996.1	36.6795	12,996.1	47.3311	12,996.1	44.3057	12,996.1	26.704
13,454.6	82.5259	13,454.6	81.6251	13,454.6	82.2659	13,454.6	80.0453	13,454.6	80.2388	13,454.6	76.7276	13,454.6	77.1547	13,454.6	73.1943	13,454.6	73.1374	13,454.6	69.583	13,454.6	67.7328	13,454.6	64.9538	13,454.6	61.0931	13,454.6	58.1192	13,454.6	51.6012	13,454.6	52.7717	13,454.6	52.9971	13,454.6	50.2615	13,454.6	47.2967	13,454.6	42.0294	13,454.6	42.2437	13,454.6	44.2347	13,454.6	45.7785	13,454.6	41.6295	13,454.6	37.1571	13,454.6	33.5837	13,454.6	37.7204	13,454.6	33.8572	13,454.6	44.0308	13,454.6	43.2771	13,454.6	39.8068	13,454.6	44.8596	13,454.6	39.8852	13,454.6	45.7142	13,454.6	42.4237	13,454.6	34.6873
13,929.2	82.6764	13,929.2	81.9724	13,929.2	82.126	13,929.2	80.1054	13,929.2	80.0985	13,929.2	76.2984	13,929.2	76.7581	13,929.2	71.8846	13,929.2	72.0002	13,929.2	68.1413	13,929.2	65.7198	13,929.2	61.3519	13,929.2	58.3045	13,929.2	52.7589	13,929.2	51.6928	13,929.2	47.9054	13,929.2	46.5971	13,929.2	46.7717	13,929.2	47.0067	13,929.2	45.2863	13,929.2	47.8798	13,929.2	39.0306	13,929.2	42.7157	13,929.2	42.6084	13,929.2	24.9922	13,929.2	36.3398	13,929.2	25.3411	13,929.2	35.9727	13,929.2	42.4859	13,929.2	38.912	13,929.2	38.502	13,929.2	48.0751	13,929.2	36.4468	13,929.2	46.3935	13,929.2	42.9555	13,929.2	40.5279
14,419.9	82.6278	14,419.9	81.8556	14,419.9	81.8653	14,419.9	79.8623	14,419.9	79.7157	14,419.9	75.7131	14,419.9	76.1016	14,419.9	71.0772	14,419.9	70.8489	14,419.9	65.7416	14,419.9	63.7849	14,419.9	58.0737	14,419.9	58.8693	14,419.9	50.8574	14,419.9	55.1124	14,419.9	50.3732	14,419.9	53.5489	14,419.9	48.3622	14,419.9	45.183	14,419.9	45.7486	14,419.9	49.8652	14,419.9	40.8629	14,419.9	44.8673	14,419.9	43.3883	14,419.9	34.9174	14,419.9	39.3409	14,419.9	29.2966	14,419.9	36.5611	14,419.9	44.9086	14,419.9	41.0557	14,419.9	41.5122	14,419.9	48.1424	14,419.9	37.0728	14,419.9	47.9998	14,419.9	44.5308	14,419.9	42.3184
14,928.2	82.5253	14,928.2	81.5924	14,928.2	81.7673	14,928.2	79.3155	14,928.2	79.0181	14,928.2	74.8189	14,928.2	74.7343	14,928.2	70.2754	14,928.2	69.5928	14,928.2	63.927	14,928.2	62.3581	14,928.2	57.0666	14,928.2	59.0483	14,928.2	54.2136	14,928.2	59.0499	14,928.2	51.7267	14,928.2	50.3431	14,928.2	50.0752	14,928.2	44.8757	14,928.2	46.9878	14,928.2	49.375	14,928.2	41.0455	14,928.2	47.3421	14,928.2	43.2736	14,928.2	38.538	14,928.2	38.7588	14,928.2	38.1484	14,928.2	39.6222	14,928.2	45.2944	14,928.2	43.2516	14,928.2	45.6792	14,928.2	45.781	14,928.2	41.4339	14,928.2	47.7278	14,928.2	46.0951	14,928.2	43.5439
15,455.6	82.2732	15,455.6	81.5457	15,455.6	81.6244	15,455.6	78.7315	15,455.6	78.3905	15,455.6	74.1657	15,455.6	73.0567	15,455.6	68.8066	15,455.6	66.6224	15,455.6	62.8046	15,455.6	59.5517	15,455.6	58.344	15,455.6	58.215	15,455.6	56.2688	15,455.6	57.3401	15,455.6	51.78	15,455.6	50.0543	15,455.6	49.6149	15,455.6	48.7786	15,455.6	46.4262	15,455.6	46.9103	15,455.6	38.4456	15,455.6	47.9094	15,455.6	41.173	15,455.6	42.2373	15,455.6	38.7542	15,455.6	44.2713	15,455.6	37.9374	15,455.6	44.3656	15,455.6	44.304	15,455.6	47.122	15,455.6	44.282	15,455.6	40.9824	15,455.6	46.2647	15,455.6	46.1704	15,455.6	45.8308
16,000.5	81.8558	16,000.5	81.3418	16,000.5	81.1333	16,000.5	78.0848	16,000.5	78.0804	16,000.5	73.6812	16,000.5	71.8239	16,000.5	66.9061	16,000.5	62.6449	16,000.5	61.9427	16,000.5	59.1752	16,000.5	58.6706	16,000.5	58.1785	16,000.5	55.1281	16,000.5	57.917	16,000.5	51.567	16,000.5	53.5794	16,000.5	47.7671	16,000.5	52.3065	16,000.5	44.4784	16,000.5	47.5698	16,000.5	40.402	16,000.5	49.9736	16,000.5	34.939	16,000.5	36.7143	16,000.5	39.5582	16,000.5	45.7431	16,000.5	37.0045	16,000.5	43.9644	16,000.5	42.4041	16,000.5	46.7088	16,000.5	41.81	16,000.5	37.9744	16,000.5	43.2041	16,000.5	44.7941	16,000.5	47.5119
16,564.5	81.5016	16,564.5	80.9508	16,564.5	80.398	16,564.5	77.6685	16,564.5	77.2462	16,564.5	72.931	16,564.5	70.7476	16,564.5	65.9631	16,564.5	63.1445	16,564.5	61.234	16,564.5	61.2934	16,564.5	58.5237	16,564.5	59.4491	16,564.5	54.8297	16,564.5	61.2049	16,564.5	51.5252	16,564.5	51.6257	16,564.5	47.3155	16,564.5	49.1553	16,564.5	42.2416	16,564.5	47.6155	16,564.5	39.6527	16,564.5	47.3764	16,564.5	28.8047	16,564.5	35.7746	16,564.5	38.9222	16,564.5	44.8631	16,564.5	35.8455	16,564.5	41.2055	16,564.5	41.6321	16,564.5	43.2998	16,564.5	40.7138	16,564.5	26.2574	16,564.5	43.6016	16,564.5	42.7201	16,564.5	46.7163
17,148.9	81.2608	17,148.9	80.3865	17,148.9	79.7982	17,148.9	77.204	17,148.9	76.1235	17,148.9	72.037	17,148.9	69.8193	17,148.9	65.3699	17,148.9	63.3813	17,148.9	61.2649	17,148.9	61.5137	17,148.9	57.0716	17,148.9	58.9535	17,148.9	53.0147	17,148.9	60.0717	17,148.9	50.159	17,148.9	42.0012	17,148.9	45.9404	17,148.9	40.2344	17,148.9	39.5834	17,148.9	44.264	17,148.9	37.9301	17,148.9	43.4259	17,148.9	29.3254	17,148.9	38.9389	17,148.9	37.6397	17,148.9	44.2769	17,148.9	32.579	17,148.9	39.1781	17,148.9	38.3394	17,148.9	37.6014	17,148.9	37.3448	17,148.9	29.8483	17,148.9	43.8464	17,148.9	40.4465	17,148.9	45.9481
17,752.4	80.804	17,752.4	79.7447	17,752.4	79.3756	17,752.4	76.3701	17,752.4	75.4704	17,752.4	70.9886	17,752.4	68.8897	17,752.4	64.5471	17,752.4	62.6723	17,752.4	59.5502	17,752.4	58.7667	17,752.4	53.798	17,752.4	58.4853	17,752.4	49.4681	17,752.4	54.7597	17,752.4	45.4856	17,752.4	44.7769	17,752.4	38.67	17,752.4	43.1396	17,752.4	32.9667	17,752.4	40.9261	17,752.4	29.5932	17,752.4	44.0094	17,752.4	27.4417	17,752.4	33.1104	17,752.4	33.2457	17,752.4	41.6891	17,752.4	25.5239	17,752.4	37.553	17,752.4	28.5413	17,752.4	32.7604	17,752.4	37.3658	17,752.4	37.3553	17,752.4	41.6109	17,752.4	37.3728	17,752.4	44.7983
18,379.4	79.913	18,379.4	79.0541	18,379.4	78.6116	18,379.4	75.3546	18,379.4	74.5372	18,379.4	69.5006	18,379.4	67.7059	18,379.4	63.001	18,379.4	61.6641	18,379.4	55.5679	18,379.4	57.0013	18,379.4	48.8602	18,379.4	53.4208	18,379.4	39.8947	18,379.4	47.6026	18,379.4	32.6323	18,379.4	43.921	18,379.4	24.5769	18,379.4	42.5449	18,379.4	12.3591	18,379.4	42.0254	18,379.4	27.6546	18,379.4	40.5592	18,379.4	23.14	18,379.4	37.2834	18,379.4	26.4965	18,379.4	38.5706	18,379.4	28.0777	18,379.4	41.2392	18,379.4	34.4076	18,379.4	23.2954	18,379.4	40.5617	18,379.4	39.4518	18,379.4	38.5059	18,379.4	34.4449	18,379.4	42.6942
19,026.9	78.9446	19,026.9	78.1552	19,026.9	77.5674	19,026.9	74.305	19,026.9	73.3417	19,026.9	68.0767	19,026.9	66.4071	19,026.9	60.8205	19,026.9	59.7565	19,026.9	50.2542	19,026.9	54.7395	19,026.9	37.8716	19,026.9	49.6577	19,026.9	36.2312	19,026.9	48.7291	19,026.9	36.6103	19,026.9	44.3369	19,026.9	36.4535	19,026.9	43.6887	19,026.9	29.6212	19,026.9	40.0375	19,026.9	32.6276	19,026.9	35.94	19,026.9	33.8943	19,026.9	40.8504	19,026.9	31.0252	19,026.9	32.9341	19,026.9	35.7755	19,026.9	42.4608	19,026.9	35.9012	19,026.9	33.0074	19,026.9	38.4807	19,026.9	40.8265	19,026.9	36.0491	19,026.9	28.5564	19,026.9	40.2816
19,697.8	78.4737	19,697.8	77.27	19,697.8	76.8854	19,697.8	72.824	19,697.8	72.3423	19,697.8	66.3081	19,697.8	64.9652	19,697.8	57.3095	19,697.8	55.9508	19,697.8	42.3683	19,697.8	52.4573	19,697.8	38.4903	19,697.8	49.2212	19,697.8	43.2396	19,697.8	47.8349	19,697.8	40.2735	19,697.8	45.2594	19,697.8	38.6613	19,697.8	46.0054	19,697.8	31.6456	19,697.8	37.8224	19,697.8	33.9574	19,697.8	37.3881	19,697.8	33.8952	19,697.8	40.3324	19,697.8	32.3339	19,697.8	29.2751	19,697.8	35.6733	19,697.8	40.5124	19,697.8	33.805	19,697.8	32.4954	19,697.8	34.3515	19,697.8	40.1762	19,697.8	34.4707	19,697.8	27.4164	19,697.8	38.1587
19,999.5	78.3101	19,999.5	76.8614	19,999.5	76.6893	19,999.5	72.1671	19,999.5	71.9533	19,999.5	65.6305	19,999.5	63.8814	19,999.5	55.0583	19,999.5	52.0052	19,999.5	43.4977	19,999.5	50.8251	19,999.5	42.6129	19,999.5	53.3508	19,999.5	44.9294	19,999.5	48.0047	19,999.5	40.5095	19,999.5	44.8012	19,999.5	37.1875	19,999.5	46.8451	19,999.5	33.1637	19,999.5	27.8972	19,999.5	34.2766	19,999.5	40.238	19,999.5	32.6756	19,999.5	39.8537	19,999.5	27.574	19,999.5	38.2324	19,999.5	35.6622	19,999.5	46.8323	19,999.5	32.1801	19,999.5	37.7644	19,999.5	42.7022	19,999.5	41.4976	19,999.5	38.4309	19,999.5	37.9039	19,999.5	38.2806
