"SPL Horizontal"																																																																							
"On-Axis"		"10°"		"-10°"		"20°"		"-20°"		"30°"		"-30°"		"40°"		"-40°"		"50°"		"-50°"		"60°"		"-60°"		"70°"		"-70°"		"80°"		"-80°"		"90°"		"-90°"		"100°"		"-100°"		"110°"		"-110°"		"120°"		"-120°"		"130°"		"-130°"		"140°"		"-140°"		"150°"		"-150°"		"160°"		"-160°"		"170°"		"-170°"		"180°"	
"Frequency [Hz]"	"Sound Pessure Level [dB]  / [2.83V 1m] "	"Frequency [Hz]"	"Sound Pessure Level [dB]  / [2.83V 1m] "	"Frequency [Hz]"	"Sound Pessure Level [dB]  / [2.83V 1m] "	"Frequency [Hz]"	"Sound Pessure Level [dB]  / [2.83V 1m] "	"Frequency [Hz]"	"Sound Pessure Level [dB]  / [2.83V 1m] "	"Frequency [Hz]"	"Sound Pessure Level [dB]  / [2.83V 1m] "	"Frequency [Hz]"	"Sound Pessure Level [dB]  / [2.83V 1m] "	"Frequency [Hz]"	"Sound Pessure Level [dB]  / [2.83V 1m] "	"Frequency [Hz]"	"Sound Pessure Level [dB]  / [2.83V 1m] "	"Frequency [Hz]"	"Sound Pessure Level [dB]  / [2.83V 1m] "	"Frequency [Hz]"	"Sound Pessure Level [dB]  / [2.83V 1m] "	"Frequency [Hz]"	"Sound Pessure Level [dB]  / [2.83V 1m] "	"Frequency [Hz]"	"Sound Pessure Level [dB]  / [2.83V 1m] "	"Frequency [Hz]"	"Sound Pessure Level [dB]  / [2.83V 1m] "	"Frequency [Hz]"	"Sound Pessure Level [dB]  / [2.83V 1m] "	"Frequency [Hz]"	"Sound Pessure Level [dB]  / [2.83V 1m] "	"Frequency [Hz]"	"Sound Pessure Level [dB]  / [2.83V 1m] "	"Frequency [Hz]"	"Sound Pessure Level [dB]  / [2.83V 1m] "	"Frequency [Hz]"	"Sound Pessure Level [dB]  / [2.83V 1m] "	"Frequency [Hz]"	"Sound Pessure Level [dB]  / [2.83V 1m] "	"Frequency [Hz]"	"Sound Pessure Level [dB]  / [2.83V 1m] "	"Frequency [Hz]"	"Sound Pessure Level [dB]  / [2.83V 1m] "	"Frequency [Hz]"	"Sound Pessure Level [dB]  / [2.83V 1m] "	"Frequency [Hz]"	"Sound Pessure Level [dB]  / [2.83V 1m] "	"Frequency [Hz]"	"Sound Pessure Level [dB]  / [2.83V 1m] "	"Frequency [Hz]"	"Sound Pessure Level [dB]  / [2.83V 1m] "	"Frequency [Hz]"	"Sound Pessure Level [dB]  / [2.83V 1m] "	"Frequency [Hz]"	"Sound Pessure Level [dB]  / [2.83V 1m] "	"Frequency [Hz]"	"Sound Pessure Level [dB]  / [2.83V 1m] "	"Frequency [Hz]"	"Sound Pessure Level [dB]  / [2.83V 1m] "	"Frequency [Hz]"	"Sound Pessure Level [dB]  / [2.83V 1m] "	"Frequency [Hz]"	"Sound Pessure Level [dB]  / [2.83V 1m] "	"Frequency [Hz]"	"Sound Pessure Level [dB]  / [2.83V 1m] "	"Frequency [Hz]"	"Sound Pessure Level [dB]  / [2.83V 1m] "	"Frequency [Hz]"	"Sound Pessure Level [dB]  / [2.83V 1m] "	"Frequency [Hz]"	"Sound Pessure Level [dB]  / [2.83V 1m] "
20.5078	63.8449	20.5078	63.8273	20.5078	63.8524	20.5078	63.8002	20.5078	63.8496	20.5078	63.764	20.5078	63.8363	20.5078	63.7194	20.5078	63.8127	20.5078	63.6674	20.5078	63.7789	20.5078	63.6088	20.5078	63.7357	20.5078	63.5449	20.5078	63.6836	20.5078	63.4771	20.5078	63.6239	20.5078	63.4069	20.5078	63.5577	20.5078	63.3364	20.5078	63.4869	20.5078	63.2678	20.5078	63.4134	20.5078	63.2034	20.5078	63.3396	20.5078	63.1459	20.5078	63.268	20.5078	63.0977	20.5078	63.2015	20.5078	63.0611	20.5078	63.1427	20.5078	63.0379	20.5078	63.0942	20.5078	63.0295	20.5078	63.0582	20.5078	63.0363
21.9727	65.0155	21.9727	65.0042	21.9727	65.0163	21.9727	64.9827	21.9727	65.0065	21.9727	64.9512	21.9727	64.9864	21.9727	64.9101	21.9727	64.9559	21.9727	64.8601	21.9727	64.9155	21.9727	64.8019	21.9727	64.8658	21.9727	64.7367	21.9727	64.8074	21.9727	64.6658	21.9727	64.7416	21.9727	64.5908	21.9727	64.6698	21.9727	64.5138	21.9727	64.5937	21.9727	64.4372	21.9727	64.5155	21.9727	64.3637	21.9727	64.4379	21.9727	64.2962	21.9727	64.3636	21.9727	64.2377	21.9727	64.2957	21.9727	64.1909	21.9727	64.237	21.9727	64.1582	21.9727	64.1902	21.9727	64.1413	21.9727	64.1578	21.9727	64.1412
23.4375	66.3425	23.4375	66.3259	23.4375	66.3501	23.4375	66.3007	23.4375	66.3488	23.4375	66.2671	23.4375	66.3385	23.4375	66.2255	23.4375	66.3193	23.4375	66.1764	23.4375	66.2914	23.4375	66.1204	23.4375	66.2551	23.4375	66.0586	23.4375	66.2108	23.4375	65.9922	23.4375	66.1592	23.4375	65.9229	23.4375	66.101	23.4375	65.8527	23.4375	66.0375	23.4375	65.7842	23.4375	65.97	23.4375	65.72	23.4375	65.9002	23.4375	65.6633	23.4375	65.8304	23.4375	65.617	23.4375	65.7632	23.4375	65.5835	23.4375	65.7013	23.4375	65.565	23.4375	65.6476	23.4375	65.5625	23.4375	65.6051	23.4375	65.5762
24.9023	67.166	24.9023	67.1561	24.9023	67.1668	24.9023	67.1372	24.9023	67.1583	24.9023	67.1096	24.9023	67.1408	24.9023	67.0737	24.9023	67.1143	24.9023	67.0301	24.9023	67.0794	24.9023	66.9795	24.9023	67.0367	24.9023	66.923	24.9023	66.9868	24.9023	66.8618	24.9023	66.9309	24.9023	66.7975	24.9023	66.8702	24.9023	66.7319	24.9023	66.8063	24.9023	66.6671	24.9023	66.7411	24.9023	66.6054	24.9023	66.6766	24.9023	66.5494	24.9023	66.6149	24.9023	66.5015	24.9023	66.5585	24.9023	66.4638	24.9023	66.5095	24.9023	66.4382	24.9023	66.4702	24.9023	66.4258	24.9023	66.4423	24.9023	66.4273
26.3672	67.9822	26.3672	67.9727	26.3672	67.9819	26.3672	67.9537	26.3672	67.9718	26.3672	67.9253	26.3672	67.9521	26.3672	67.888	26.3672	67.9231	26.3672	67.8423	26.3672	67.8852	26.3672	67.7891	26.3672	67.839	26.3672	67.7293	26.3672	67.7853	26.3672	67.6644	26.3672	67.7253	26.3672	67.5959	26.3672	67.6603	26.3672	67.5257	26.3672	67.5919	26.3672	67.4561	26.3672	67.5221	26.3672	67.3896	26.3672	67.4531	26.3672	67.3287	26.3672	67.3871	26.3672	67.2761	26.3672	67.3269	26.3672	67.2341	26.3672	67.2748	26.3672	67.2049	26.3672	67.2333	26.3672	67.1899	26.3672	67.2045	26.3672	67.1897
27.832	68.9072	27.832	68.8986	27.832	68.906	27.832	68.8803	27.832	68.8949	27.832	68.8527	27.832	68.8742	27.832	68.8161	27.832	68.844	27.832	68.7711	27.832	68.8049	27.832	68.7187	27.832	68.7575	27.832	68.6597	27.832	68.7027	27.832	68.5957	27.832	68.6416	27.832	68.5281	27.832	68.5757	27.832	68.4589	27.832	68.5069	27.832	68.3902	27.832	68.4371	27.832	68.3244	27.832	68.3686	27.832	68.2639	27.832	68.304	27.832	68.2114	27.832	68.2458	27.832	68.169	27.832	68.1963	27.832	68.1387	27.832	68.1577	27.832	68.122	27.832	68.1317	27.832	68.1197
29.2969	69.747	29.2969	69.7372	29.2969	69.7461	29.2969	69.7168	29.2969	69.7344	29.2969	69.6861	29.2969	69.7121	29.2969	69.6454	29.2969	69.6794	29.2969	69.5955	29.2969	69.6367	29.2969	69.5373	29.2969	69.5847	29.2969	69.4717	29.2969	69.5242	29.2969	69.4002	29.2969	69.4563	29.2969	69.3245	29.2969	69.3825	29.2969	69.2465	29.2969	69.3046	29.2969	69.1687	29.2969	69.2249	29.2969	69.0937	29.2969	69.146	29.2969	69.0241	29.2969	69.0708	29.2969	68.9631	29.2969	69.0025	29.2969	68.9133	29.2969	68.9441	29.2969	68.8773	29.2969	68.8984	29.2969	68.8571	29.2969	68.8678	29.2969	68.8538
30.7617	70.481	30.7617	70.4705	30.7617	70.4814	30.7617	70.4501	30.7617	70.4717	30.7617	70.4202	30.7617	70.4521	30.7617	70.381	30.7617	70.4228	30.7617	70.3333	30.7617	70.3842	30.7617	70.278	30.7617	70.3369	30.7617	70.2161	30.7617	70.2817	30.7617	70.149	30.7617	70.2197	30.7617	70.0785	30.7617	70.1522	30.7617	70.0064	30.7617	70.081	30.7617	69.9352	30.7617	70.0082	30.7617	69.8672	30.7617	69.9363	30.7617	69.8052	30.7617	69.8679	30.7617	69.7518	30.7617	69.8055	30.7617	69.7093	30.7617	69.7519	30.7617	69.6798	30.7617	69.7094	30.7617	69.6647	30.7617	69.6799	30.7617	69.6647
32.2266	71.2053	32.2266	71.1965	32.2266	71.2046	32.2266	71.1784	32.2266	71.1943	32.2266	71.1512	32.2266	71.1746	32.2266	71.1153	32.2266	71.1459	32.2266	71.0716	32.2266	71.1085	32.2266	71.0207	32.2266	71.0631	32.2266	70.9639	32.2266	71.0105	32.2266	70.9024	32.2266	70.9519	32.2266	70.8377	32.2266	70.8885	32.2266	70.7717	32.2266	70.8221	32.2266	70.7063	32.2266	70.7546	32.2266	70.6437	32.2266	70.6882	32.2266	70.5862	32.2266	70.6254	32.2266	70.5359	32.2266	70.5686	32.2266	70.4951	32.2266	70.5203	32.2266	70.4657	32.2266	70.4828	32.2266	70.4492	32.2266	70.4578	32.2266	70.4464
33.6914	71.9056	33.6914	71.8987	33.6914	71.9023	33.6914	71.8816	33.6914	71.8888	33.6914	71.8547	33.6914	71.8655	33.6914	71.8184	33.6914	71.8327	33.6914	71.7734	33.6914	71.7911	33.6914	71.7208	33.6914	71.7417	33.6914	71.6618	33.6914	71.6856	33.6914	71.5978	33.6914	71.6242	33.6914	71.5307	33.6914	71.559	33.6914	71.4624	33.6914	71.492	33.6914	71.3952	33.6914	71.4251	33.6914	71.3315	33.6914	71.3605	33.6914	71.2734	33.6914	71.3004	33.6914	71.2234	33.6914	71.247	33.6914	71.1832	33.6914	71.2022	33.6914	71.1544	33.6914	71.1678	33.6914	71.1382	33.6914	71.1451	33.6914	71.1351
35.1563	72.6295	35.1563	72.6216	35.1563	72.6269	35.1563	72.6032	35.1563	72.6137	35.1563	72.5747	35.1563	72.5901	35.1563	72.5368	35.1563	72.5565	35.1563	72.4902	35.1563	72.5136	35.1563	72.436	35.1563	72.4623	35.1563	72.3755	35.1563	72.4039	35.1563	72.3102	35.1563	72.3399	35.1563	72.242	35.1563	72.272	35.1563	72.1729	35.1563	72.2024	35.1563	72.1052	35.1563	72.1332	35.1563	72.0412	35.1563	72.0669	35.1563	71.9832	35.1563	72.0058	35.1563	71.9332	35.1563	71.9521	35.1563	71.893	35.1563	71.9076	35.1563	71.864	35.1563	71.874	35.1563	71.8473	35.1563	71.8523	35.1563	71.8433
36.6211	73.2104	36.6211	73.2007	36.6211	73.2096	36.6211	73.1805	36.6211	73.1982	36.6211	73.1505	36.6211	73.1765	36.6211	73.111	36.6211	73.1447	36.6211	73.0629	36.6211	73.1034	36.6211	73.0073	36.6211	73.0536	36.6211	72.9456	36.6211	72.9964	36.6211	72.8793	36.6211	72.9332	36.6211	72.8102	36.6211	72.8656	36.6211	72.7406	36.6211	72.7958	36.6211	72.6727	36.6211	72.7258	36.6211	72.6088	36.6211	72.6582	36.6211	72.5513	36.6211	72.5952	36.6211	72.5022	36.6211	72.5392	36.6211	72.4634	36.6211	72.4923	36.6211	72.4362	36.6211	72.456	36.6211	72.4216	36.6211	72.4316	36.6211	72.42
38.0859	73.8256	38.0859	73.8149	38.0859	73.8266	38.0859	73.7947	38.0859	73.8181	38.0859	73.7656	38.0859	73.8001	38.0859	73.728	38.0859	73.7731	38.0859	73.6829	38.0859	73.7376	38.0859	73.6313	38.0859	73.6944	38.0859	73.5745	38.0859	73.6445	38.0859	73.5141	38.0859	73.5893	38.0859	73.452	38.0859	73.53	38.0859	73.3901	38.0859	73.4683	38.0859	73.3304	38.0859	73.4062	38.0859	73.275	38.0859	73.3456	38.0859	73.2257	38.0859	73.2887	38.0859	73.1844	38.0859	73.2373	38.0859	73.1524	38.0859	73.1936	38.0859	73.1308	38.0859	73.1589	38.0859	73.1205	38.0859	73.1347	38.0859	73.1218
39.5508	74.3925	39.5508	74.3833	39.5508	74.3915	39.5508	74.364	39.5508	74.3804	39.5508	74.335	39.5508	74.3595	39.5508	74.2969	39.5508	74.3292	39.5508	74.2506	39.5508	74.2902	39.5508	74.1971	39.5508	74.2434	39.5508	74.1379	39.5508	74.1901	39.5508	74.0746	39.5508	74.1314	39.5508	74.009	39.5508	74.069	39.5508	73.9433	39.5508	74.0045	39.5508	73.8795	39.5508	73.9399	39.5508	73.82	39.5508	73.8772	39.5508	73.7667	39.5508	73.8185	39.5508	73.7216	39.5508	73.7657	39.5508	73.6863	39.5508	73.7209	39.5508	73.6619	39.5508	73.6858	39.5508	73.6495	39.5508	73.6616	39.5508	73.6494
41.0156	74.9663	41.0156	74.9801	41.0156	74.9437	41.0156	74.9849	41.0156	74.9127	41.0156	74.9807	41.0156	74.8739	41.0156	74.968	41.0156	74.8284	41.0156	74.9474	41.0156	74.7774	41.0156	74.9195	41.0156	74.7223	41.0156	74.8854	41.0156	74.6648	41.0156	74.846	41.0156	74.6068	41.0156	74.8022	41.0156	74.5505	41.0156	74.7549	41.0156	74.4978	41.0156	74.7052	41.0156	74.451	41.0156	74.654	41.0156	74.4119	41.0156	74.6025	41.0156	74.3819	41.0156	74.552	41.0156	74.3621	41.0156	74.5039	41.0156	74.3532	41.0156	74.4599	41.0156	74.3553	41.0156	74.4215	41.0156	74.3679	41.0156	74.3904
42.4805	75.4419	42.4805	75.4284	42.4805	75.4427	42.4805	75.4026	42.4805	75.431	42.4805	75.3651	42.4805	75.4069	42.4805	75.3166	42.4805	75.371	42.4805	75.2585	42.4805	75.3242	42.4805	75.1922	42.4805	75.2675	42.4805	75.1195	42.4805	75.2025	42.4805	75.0426	42.4805	75.131	42.4805	74.9638	42.4805	75.0552	42.4805	74.8858	42.4805	74.9774	42.4805	74.811	42.4805	74.9001	42.4805	74.7422	42.4805	74.826	42.4805	74.6817	42.4805	74.7573	42.4805	74.6315	42.4805	74.6963	42.4805	74.5934	42.4805	74.6448	42.4805	74.5683	42.4805	74.604	42.4805	74.557	42.4805	74.5753	42.4805	74.5594
43.9453	75.9486	43.9453	75.9393	43.9453	75.9461	43.9453	75.9183	43.9453	75.9317	43.9453	75.8861	43.9453	75.9059	43.9453	75.8438	43.9453	75.8693	43.9453	75.7923	43.9453	75.8229	43.9453	75.7331	43.9453	75.7679	43.9453	75.6682	43.9453	75.7061	43.9453	75.5994	43.9453	75.6392	43.9453	75.5291	43.9453	75.5695	43.9453	75.4594	43.9453	75.4993	43.9453	75.3928	43.9453	75.4308	43.9453	75.3313	43.9453	75.3664	43.9453	75.2768	43.9453	75.3081	43.9453	75.2311	43.9453	75.2574	43.9453	75.1953	43.9453	75.2159	43.9453	75.1703	43.9453	75.1845	43.9453	75.1566	43.9453	75.1638	43.9453	75.1544
45.4102	76.4654	45.4102	76.4641	45.4102	76.4534	45.4102	76.4496	45.4102	76.4284	45.4102	76.4221	45.4102	76.3909	45.4102	76.3826	45.4102	76.342	45.4102	76.3321	45.4102	76.283	45.4102	76.2722	45.4102	76.2155	45.4102	76.2048	45.4102	76.1416	45.4102	76.1319	45.4102	76.0637	45.4102	76.056	45.4102	75.9843	45.4102	75.9796	45.4102	75.9062	45.4102	75.905	45.4102	75.8321	45.4102	75.8346	45.4102	75.7645	45.4102	75.7703	45.4102	75.7057	45.4102	75.7137	45.4102	75.6575	45.4102	75.6662	45.4102	75.6211	45.4102	75.6289	45.4102	75.5973	45.4102	75.6027	45.4102	75.5864	45.4102	75.5884
46.875	77.0035	46.875	77.0013	46.875	76.9911	46.875	76.9848	46.875	76.9642	46.875	76.9543	46.875	76.9233	46.875	76.9104	46.875	76.8691	46.875	76.8543	46.875	76.8026	46.875	76.7871	46.875	76.7254	46.875	76.7104	46.875	76.6394	46.875	76.6262	46.875	76.5468	46.875	76.5367	46.875	76.4504	46.875	76.4442	46.875	76.3534	46.875	76.3517	46.875	76.2591	46.875	76.2617	46.875	76.171	46.875	76.1774	46.875	76.0923	46.875	76.1012	46.875	76.0261	46.875	76.036	46.875	75.975	46.875	75.9839	46.875	75.9408	46.875	75.947	46.875	75.9247	46.875	75.9269
48.3398	77.2975	48.3398	77.2903	48.3398	77.2915	48.3398	77.2701	48.3398	77.2725	48.3398	77.2375	48.3398	77.2408	48.3398	77.1932	48.3398	77.1973	48.3398	77.1384	48.3398	77.143	48.3398	77.0744	48.3398	77.0793	48.3398	77.0032	48.3398	77.008	48.3398	76.9267	48.3398	76.9312	48.3398	76.8473	48.3398	76.8512	48.3398	76.7675	48.3398	76.7706	48.3398	76.6899	48.3398	76.6922	48.3398	76.617	48.3398	76.6185	48.3398	76.5513	48.3398	76.5521	48.3398	76.4947	48.3398	76.495	48.3398	76.449	48.3398	76.4491	48.3398	76.4155	48.3398	76.4154	48.3398	76.395	48.3398	76.395	48.3398	76.3881
51.2695	77.9795	51.2695	77.9706	51.2695	77.9752	51.2695	77.9488	51.2695	77.9578	51.2695	77.915	51.2695	77.9277	51.2695	77.8701	51.2695	77.8857	51.2695	77.8156	51.2695	77.833	51.2695	77.7531	51.2695	77.7711	51.2695	77.6848	51.2695	77.7021	51.2695	77.6129	51.2695	77.6283	51.2695	77.5397	51.2695	77.5524	51.2695	77.4678	51.2695	77.4771	51.2695	77.3994	51.2695	77.4051	51.2695	77.3366	51.2695	77.3389	51.2695	77.2812	51.2695	77.2808	51.2695	77.2344	51.2695	77.2323	51.2695	77.1973	51.2695	77.1944	51.2695	77.1702	51.2695	77.1676	51.2695	77.1535	51.2695	77.152	51.2695	77.1473
52.7344	78.3279	52.7344	78.3186	52.7344	78.3239	52.7344	78.2961	52.7344	78.3064	52.7344	78.2614	52.7344	78.276	52.7344	78.2154	52.7344	78.2334	52.7344	78.1598	52.7344	78.18	52.7344	78.0962	52.7344	78.1173	52.7344	78.0269	52.7344	78.0475	52.7344	77.9542	52.7344	77.973	52.7344	77.8806	52.7344	77.8966	52.7344	77.8086	52.7344	77.821	52.7344	77.7407	52.7344	77.7491	52.7344	77.6788	52.7344	77.6835	52.7344	77.6247	52.7344	77.6262	52.7344	77.5794	52.7344	77.5787	52.7344	77.5438	52.7344	77.5419	52.7344	77.518	52.7344	77.516	52.7344	77.5022	52.7344	77.501	52.7344	77.4965
54.1992	78.6182	54.1992	78.6084	54.1992	78.6145	54.1992	78.5854	54.1992	78.5973	54.1992	78.55	54.1992	78.5668	54.1992	78.5033	54.1992	78.5239	54.1992	78.4469	54.1992	78.4699	54.1992	78.3825	54.1992	78.4063	54.1992	78.3124	54.1992	78.3352	54.1992	78.2388	54.1992	78.2591	54.1992	78.1644	54.1992	78.1807	54.1992	78.0916	54.1992	78.1031	54.1992	78.0228	54.1992	78.029	54.1992	77.9601	54.1992	77.9614	54.1992	77.9051	54.1992	77.9024	54.1992	77.859	54.1992	77.8537	54.1992	77.8224	54.1992	77.8163	54.1992	77.7956	54.1992	77.7904	54.1992	77.7787	54.1992	77.7757	54.1992	77.772
55.6641	78.8814	55.6641	78.8714	55.6641	78.8784	55.6641	78.849	55.6641	78.8627	55.6641	78.815	55.6641	78.8345	55.6641	78.7704	55.6641	78.7947	55.6641	78.717	55.6641	78.7446	55.6641	78.6566	55.6641	78.6859	55.6641	78.5915	55.6641	78.6208	55.6641	78.524	55.6641	78.5515	55.6641	78.4567	55.6641	78.4809	55.6641	78.3919	55.6641	78.4117	55.6641	78.332	55.6641	78.3466	55.6641	78.2786	55.6641	78.2879	55.6641	78.233	55.6641	78.2376	55.6641	78.1958	55.6641	78.1968	55.6641	78.1671	55.6641	78.1659	55.6641	78.1466	55.6641	78.1448	55.6641	78.1342	55.6641	78.1329	55.6641	78.1295
58.5938	79.3905	58.5938	79.3785	58.5938	79.388	58.5938	79.3526	58.5938	79.3711	58.5938	79.3138	58.5938	79.3403	58.5938	79.2634	58.5938	79.2965	58.5938	79.2034	58.5938	79.2413	58.5938	79.136	58.5938	79.1766	58.5938	79.0641	58.5938	79.1048	58.5938	78.9903	58.5938	79.0289	58.5938	78.9176	58.5938	78.9517	58.5938	78.8487	58.5938	78.8766	58.5938	78.7858	58.5938	78.8064	58.5938	78.7308	58.5938	78.7439	58.5938	78.6845	58.5938	78.6909	58.5938	78.6473	58.5938	78.6485	58.5938	78.619	58.5938	78.6171	58.5938	78.5989	58.5938	78.5961	58.5938	78.5865	58.5938	78.5846	58.5938	78.5817
60.0586	79.6005	60.0586	79.5874	60.0586	79.5992	60.0586	79.5602	60.0586	79.5835	60.0586	79.52	60.0586	79.5541	60.0586	79.4682	60.0586	79.512	60.0586	79.4067	60.0586	79.4588	60.0586	79.338	60.0586	79.3967	60.0586	79.2648	60.0586	79.3281	60.0586	79.1902	60.0586	79.2557	60.0586	79.1173	60.0586	79.1827	60.0586	79.049	60.0586	79.1119	60.0586	78.9878	60.0586	79.046	60.0586	78.9356	60.0586	78.9874	60.0586	78.8935	60.0586	78.9374	60.0586	78.8615	60.0586	78.8967	60.0586	78.8391	60.0586	78.8655	60.0586	78.8255	60.0586	78.8429	60.0586	78.8195	60.0586	78.8281	60.0586	78.8205
62.9883	79.9929	62.9883	79.98	62.9883	79.9901	62.9883	79.9519	62.9883	79.9715	62.9883	79.9098	62.9883	79.9378	62.9883	79.8552	62.9883	79.8901	62.9883	79.7904	62.9883	79.8302	62.9883	79.7178	62.9883	79.7602	62.9883	79.6407	62.9883	79.6831	62.9883	79.562	62.9883	79.6022	62.9883	79.4852	62.9883	79.5209	62.9883	79.4132	62.9883	79.4427	62.9883	79.3485	62.9883	79.3709	62.9883	79.293	62.9883	79.3082	62.9883	79.2475	62.9883	79.2561	62.9883	79.2121	62.9883	79.2155	62.9883	79.186	62.9883	79.1861	62.9883	79.1682	62.9883	79.1669	62.9883	79.1576	62.9883	79.1565	62.9883	79.1537
64.4531	80.1066	64.4531	80.09	64.4531	80.1073	64.4531	80.0582	64.4531	80.0921	64.4531	80.0122	64.4531	80.0615	64.4531	79.954	64.4531	80.0167	64.4531	79.8858	64.4531	79.9594	64.4531	79.8105	64.4531	79.8919	64.4531	79.7312	64.4531	79.817	64.4531	79.6515	64.4531	79.7379	64.4531	79.5748	64.4531	79.6581	64.4531	79.5043	64.4531	79.5812	64.4531	79.4425	64.4531	79.5103	64.4531	79.3911	64.4531	79.448	64.4531	79.3507	64.4531	79.396	64.4531	79.3211	64.4531	79.355	64.4531	79.301	64.4531	79.3246	64.4531	79.2889	64.4531	79.3036	64.4531	79.2836	64.4531	79.2905	64.4531	79.2841
67.3828	80.3178	67.3828	80.2991	67.3828	80.3203	67.3828	80.2647	67.3828	80.3066	67.3828	80.2158	67.3828	80.2773	67.3828	80.1543	67.3828	80.2337	67.3828	80.0825	67.3828	80.1776	67.3828	80.0036	67.3828	80.1114	67.3828	79.9211	67.3828	80.0381	67.3828	79.8388	67.3828	79.9609	67.3828	79.7606	67.3828	79.8834	67.3828	79.69	67.3828	79.809	67.3828	79.6298	67.3828	79.7408	67.3828	79.5819	67.3828	79.6812	67.3828	79.5468	67.3828	79.6317	67.3828	79.5238	67.3828	79.5925	67.3828	79.5111	67.3828	79.5627	67.3828	79.5067	67.3828	79.5409	67.3828	79.5084	67.3828	79.5254	67.3828	79.5148
68.8477	80.4789	68.8477	80.4607	68.8477	80.4803	68.8477	80.4262	68.8477	80.4649	68.8477	80.3766	68.8477	80.4335	68.8477	80.3138	68.8477	80.3875	68.8477	80.2404	68.8477	80.3288	68.8477	80.1596	68.8477	80.26	68.8477	80.075	68.8477	80.1842	68.8477	79.9907	68.8477	80.1047	68.8477	79.9108	68.8477	80.0252	68.8477	79.839	68.8477	79.9492	68.8477	79.778	68.8477	79.8799	68.8477	79.7297	68.8477	79.8196	68.8477	79.6944	68.8477	79.7699	68.8477	79.6712	68.8477	79.731	68.8477	79.6583	68.8477	79.7021	68.8477	79.6531	68.8477	79.6816	68.8477	79.6537	68.8477	79.6676	68.8477	79.6586
71.7773	80.7573	71.7773	80.7329	71.7773	80.7633	71.7773	80.6907	71.7773	80.751	71.7773	80.632	71.7773	80.721	71.7773	80.5588	71.7773	80.6748	71.7773	80.4737	71.7773	80.6142	71.7773	80.3804	71.7773	80.5417	71.7773	80.2827	71.7773	80.4605	71.7773	80.1852	71.7773	80.374	71.7773	80.0923	71.7773	80.2858	71.7773	80.0084	71.7773	80.1998	71.7773	79.9369	71.7773	80.1191	71.7773	79.8801	71.7773	80.0465	71.7773	79.8388	71.7773	79.9838	71.7773	79.8124	71.7773	79.9317	71.7773	79.7989	71.7773	79.8898	71.7773	79.796	71.7773	79.8571	71.7773	79.8015	71.7773	79.8321	71.7773	79.8137
74.707	80.9618	74.707	80.9386	74.707	80.9666	74.707	80.8973	74.707	80.9536	74.707	80.8388	74.707	80.9239	74.707	80.7648	74.707	80.8794	74.707	80.6781	74.707	80.8223	74.707	80.5819	74.707	80.7557	74.707	80.4806	74.707	80.6828	74.707	80.3789	74.707	80.6069	74.707	80.282	74.707	80.5313	74.707	80.195	74.707	80.4589	74.707	80.1223	74.707	80.392	74.707	80.0673	74.707	80.3319	74.707	80.0316	74.707	80.2787	74.707	80.0148	74.707	80.2318	74.707	80.015	74.707	80.1899	74.707	80.0287	74.707	80.1515	74.707	80.0523	74.707	80.1156	74.707	80.0821
77.6367	81.0168	77.6367	81.0064	77.6367	81.0084	77.6367	80.9772	77.6367	80.9816	77.6367	80.9301	77.6367	80.9382	77.6367	80.867	77.6367	80.8802	77.6367	80.7904	77.6367	80.8107	77.6367	80.7038	77.6367	80.7334	77.6367	80.6115	77.6367	80.6524	77.6367	80.518	77.6367	80.5719	77.6367	80.4285	77.6367	80.4963	77.6367	80.3478	77.6367	80.429	77.6367	80.2802	77.6367	80.3725	77.6367	80.2285	77.6367	80.3277	77.6367	80.194	77.6367	80.2941	77.6367	80.176	77.6367	80.2696	77.6367	80.1721	77.6367	80.2513	77.6367	80.1785	77.6367	80.2361	77.6367	80.1911	77.6367	80.2214	77.6367	80.2062
79.1016	81.0937	79.1016	81.0896	79.1016	81.0779	79.1016	81.0658	79.1016	81.0428	79.1016	81.0233	79.1016	80.9899	79.1016	80.9641	79.1016	80.9215	79.1016	80.8908	79.1016	80.8408	79.1016	80.8068	79.1016	80.7518	79.1016	80.7163	79.1016	80.6591	79.1016	80.6239	79.1016	80.5678	79.1016	80.5345	79.1016	80.4828	79.1016	80.4528	79.1016	80.4086	79.1016	80.3828	79.1016	80.3483	79.1016	80.3272	79.1016	80.3035	79.1016	80.2871	79.1016	80.2737	79.1016	80.2617	79.1016	80.2567	79.1016	80.2485	79.1016	80.249	79.1016	80.2437	79.1016	80.2464	79.1016	80.2436	79.1016	80.2458	79.1016	80.2449
82.0313	81.2319	82.0313	81.2283	82.0313	81.2136	82.0313	81.2033	82.0313	81.1736	82.0313	81.1582	82.0313	81.1129	82.0313	81.0954	82.0313	81.0338	82.0313	81.0176	82.0313	80.9393	82.0313	80.9285	82.0313	80.8334	82.0313	80.8323	82.0313	80.7213	82.0313	80.7338	82.0313	80.6085	82.0313	80.6375	82.0313	80.5012	82.0313	80.5481	82.0313	80.4052	82.0313	80.4691	82.0313	80.3253	82.0313	80.403	82.0313	80.2648	82.0313	80.3505	82.0313	80.2244	82.0313	80.3109	82.0313	80.2028	82.0313	80.2817	82.0313	80.1965	82.0313	80.2598	82.0313	80.2011	82.0313	80.2421	82.0313	80.2122	82.0313	80.2263
84.9609	81.3312	84.9609	81.322	84.9609	81.3192	84.9609	81.2923	84.9609	81.2858	84.9609	81.2437	84.9609	81.2316	84.9609	81.1783	84.9609	81.158	84.9609	81.0989	84.9609	81.0674	84.9609	81.0088	84.9609	80.963	84.9609	80.9119	84.9609	80.8489	84.9609	80.8121	84.9609	80.7302	84.9609	80.7137	84.9609	80.6125	84.9609	80.6205	84.9609	80.5019	84.9609	80.5357	84.9609	80.4037	84.9609	80.4614	84.9609	80.3228	84.9609	80.3986	84.9609	80.2617	84.9609	80.3467	84.9609	80.2214	84.9609	80.3045	84.9609	80.2002	84.9609	80.27	84.9609	80.1952	84.9609	80.2416	84.9609	80.2026	84.9609	80.2189
87.8906	81.183	87.8906	81.1578	87.8906	81.1901	87.8906	81.1155	87.8906	81.1785	87.8906	81.0584	87.8906	81.1489	87.8906	80.9892	87.8906	81.1025	87.8906	80.9115	87.8906	81.0415	87.8906	80.8292	87.8906	80.9688	87.8906	80.7464	87.8906	80.888	87.8906	80.6673	87.8906	80.8033	87.8906	80.5956	87.8906	80.7189	87.8906	80.5339	87.8906	80.6393	87.8906	80.484	87.8906	80.5681	87.8906	80.4462	87.8906	80.5084	87.8906	80.4198	87.8906	80.4617	87.8906	80.4029	87.8906	80.4281	87.8906	80.3931	87.8906	80.4061	87.8906	80.3879	87.8906	80.3935	87.8906	80.3857	87.8906	80.3874	87.8906	80.3854
90.8203	80.9023	90.8203	80.8611	90.8203	80.9256	90.8203	80.8033	90.8203	80.9315	90.8203	80.7318	90.8203	80.9214	90.8203	80.6508	90.8203	80.8982	90.8203	80.5662	90.8203	80.8659	90.8203	80.4846	90.8203	80.8292	90.8203	80.4135	90.8203	80.7932	90.8203	80.3601	90.8203	80.7627	90.8203	80.3303	90.8203	80.7419	90.8203	80.3277	90.8203	80.7335	90.8203	80.3527	90.8203	80.7383	90.8203	80.4027	90.8203	80.7547	90.8203	80.4717	90.8203	80.7791	90.8203	80.5517	90.8203	80.8059	90.8203	80.6338	90.8203	80.8288	90.8203	80.7093	90.8203	80.8412	90.8203	80.7712	90.8203	80.8377	90.8203	80.8147
95.2148	81.6706	95.2148	81.6593	95.2148	81.6526	95.2148	81.6193	95.2148	81.6054	95.2148	81.5524	95.2148	81.5298	95.2148	81.4609	95.2148	81.4279	95.2148	81.3485	95.2148	81.3026	95.2148	81.2198	95.2148	81.1584	95.2148	81.0804	95.2148	81.0009	95.2148	80.9371	95.2148	80.8374	95.2148	80.7969	95.2148	80.6763	95.2148	80.6668	95.2148	80.5266	95.2148	80.5528	95.2148	80.3972	95.2148	80.4586	95.2148	80.2947	95.2148	80.3853	95.2148	80.223	95.2148	80.3309	95.2148	80.1817	95.2148	80.2913	95.2148	80.1668	95.2148	80.2609	95.2148	80.1715	95.2148	80.2349	95.2148	80.1882	95.2148	80.2106
98.1445	81.3064	98.1445	81.2801	98.1445	81.3058	98.1445	81.2274	98.1445	81.2785	98.1445	81.1507	98.1445	81.2263	98.1445	81.0532	98.1445	81.1518	98.1445	80.9396	98.1445	81.0589	98.1445	80.8161	98.1445	80.9526	98.1445	80.6898	98.1445	80.8387	98.1445	80.5685	98.1445	80.7237	98.1445	80.4596	98.1445	80.614	98.1445	80.3699	98.1445	80.5159	98.1445	80.3036	98.1445	80.4343	98.1445	80.2619	98.1445	80.3721	98.1445	80.2429	98.1445	80.3298	98.1445	80.2417	98.1445	80.3053	98.1445	80.2515	98.1445	80.2944	98.1445	80.2657	98.1445	80.2913	98.1445	80.2786	98.1445	80.2904	98.1445	80.287
101.074	81.3479	101.074	81.3282	101.074	81.3387	101.074	81.2801	101.074	81.3013	101.074	81.2053	101.074	81.2375	101.074	81.1066	101.074	81.1503	101.074	80.9884	101.074	81.0441	101.074	80.8564	101.074	80.9241	101.074	80.7178	101.074	80.7971	101.074	80.5806	101.074	80.6701	101.074	80.4536	101.074	80.5507	101.074	80.3448	101.074	80.4456	101.074	80.2605	101.074	80.3602	101.074	80.204	101.074	80.2974	101.074	80.1746	101.074	80.2571	101.074	80.168	101.074	80.236	101.074	80.177	101.074	80.2284	101.074	80.1935	101.074	80.2276	101.074	80.21	101.074	80.227	101.074	80.2217
105.469	81.3202	105.469	81.3092	105.469	81.3003	105.469	81.2686	105.469	81.25	105.469	81.2007	105.469	81.1708	105.469	81.1093	105.469	81.0661	105.469	80.9994	105.469	80.9409	105.469	80.8774	105.469	80.8018	105.469	80.7512	105.469	80.6575	105.469	80.629	105.469	80.5177	105.469	80.5193	105.469	80.3926	105.469	80.4295	105.469	80.2919	105.469	80.3648	105.469	80.2223	105.469	80.3268	105.469	80.1868	105.469	80.3133	105.469	80.1834	105.469	80.3182	105.469	80.2056	105.469	80.3329	105.469	80.2434	105.469	80.3477	105.469	80.2856	105.469	80.3539	105.469	80.3222	105.469	80.346
108.398	81.5194	108.398	81.4947	108.398	81.5114	108.398	81.4385	108.398	81.4709	108.398	81.3528	108.398	81.3994	108.398	81.2415	108.398	81.2995	108.398	81.1095	108.398	81.1753	108.398	80.9636	108.398	81.0325	108.398	80.8118	108.398	80.8785	108.398	80.6633	108.398	80.7222	108.398	80.5276	108.398	80.5738	108.398	80.4134	108.398	80.4436	108.398	80.3271	108.398	80.3403	108.398	80.2716	108.398	80.2695	108.398	80.2455	108.398	80.232	108.398	80.2429	108.398	80.2233	108.398	80.255	108.398	80.2347	108.398	80.2717	108.398	80.2555	108.398	80.2839	108.398	80.2749	108.398	80.2855
112.793	81.6814	112.793	81.6635	112.793	81.6658	112.793	81.6138	112.793	81.6166	112.793	81.5353	112.793	81.5348	112.793	81.4321	112.793	81.4232	112.793	81.3099	112.793	81.2862	112.793	81.1753	112.793	81.13	112.793	81.0361	112.793	80.9624	112.793	80.9005	112.793	80.793	112.793	80.7764	112.793	80.6323	112.793	80.6705	112.793	80.4908	112.793	80.5871	112.793	80.3779	112.793	80.5274	112.793	80.2999	112.793	80.4891	112.793	80.2588	112.793	80.4663	112.793	80.2516	112.793	80.4516	112.793	80.271	112.793	80.4371	112.793	80.3066	112.793	80.4164	112.793	80.3481	112.793	80.3864
117.188	81.642	117.188	81.5798	117.188	81.6677	117.188	81.4824	117.188	81.6567	117.188	81.353	117.188	81.6107	117.188	81.197	117.188	81.5324	117.188	81.0216	117.188	81.4263	117.188	80.8366	117.188	81.2982	117.188	80.6541	117.188	81.1556	117.188	80.4872	117.188	81.0073	117.188	80.3489	117.188	80.8628	117.188	80.2499	117.188	80.7316	117.188	80.1956	117.188	80.622	117.188	80.1852	117.188	80.5394	117.188	80.211	117.188	80.4855	117.188	80.2606	117.188	80.4577	117.188	80.3195	117.188	80.4493	117.188	80.3748	117.188	80.4506	117.188	80.417	117.188	80.4512	117.188	80.442
120.117	81.8204	120.117	81.7668	120.117	81.8365	120.117	81.6757	120.117	81.8161	120.117	81.5488	120.117	81.7619	120.117	81.3896	120.117	81.6777	120.117	81.2038	120.117	81.5687	120.117	80.9998	120.117	81.4416	120.117	80.7888	120.117	81.3045	120.117	80.5847	120.117	81.1665	120.117	80.4034	120.117	81.0368	120.117	80.2607	120.117	80.9242	120.117	80.1691	120.117	80.8349	120.117	80.1347	120.117	80.7714	120.117	80.1551	120.117	80.7317	120.117	80.2196	120.117	80.7092	120.117	80.3117	120.117	80.6938	120.117	80.4133	120.117	80.6743	120.117	80.5083	120.117	80.6405	120.117	80.5857
124.512	81.8807	124.512	81.8635	124.512	81.8604	124.512	81.8094	124.512	81.8037	124.512	81.7199	124.512	81.7129	124.512	81.5978	124.512	81.5915	124.512	81.448	124.512	81.4452	124.512	81.2766	124.512	81.2814	124.512	81.0925	124.512	81.1098	124.512	80.9063	124.512	80.9415	124.512	80.7304	124.512	80.7885	124.512	80.5779	124.512	80.6622	124.512	80.4603	124.512	80.5706	124.512	80.3854	124.512	80.5166	124.512	80.3546	124.512	80.497	124.512	80.3626	124.512	80.5027	124.512	80.3982	124.512	80.5208	124.512	80.4467	124.512	80.5375	124.512	80.4936	124.512	80.5419	124.512	80.5273
128.906	81.8167	128.906	81.8058	128.906	81.789	128.906	81.7574	128.906	81.7229	128.906	81.6736	128.906	81.62	128.906	81.5577	128.906	81.483	128.906	81.4148	128.906	81.3168	128.906	81.2513	128.906	81.1283	128.906	81.0758	128.906	80.9273	128.906	80.8985	128.906	80.726	128.906	80.7308	128.906	80.5386	128.906	80.5842	128.906	80.3798	128.906	80.4683	128.906	80.262	128.906	80.3887	128.906	80.1922	128.906	80.3456	128.906	80.17	128.906	80.3328	128.906	80.187	128.906	80.3397	128.906	80.2287	128.906	80.3528	128.906	80.2789	128.906	80.3596	128.906	80.3228	128.906	80.3508
133.301	81.658	133.301	81.6448	133.301	81.6331	133.301	81.5944	133.301	81.5701	133.301	81.5088	133.301	81.4702	133.301	81.3915	133.301	81.3359	133.301	81.2473	133.301	81.1711	133.301	81.0828	133.301	80.9817	133.301	80.9064	133.301	80.7759	133.301	80.7282	133.301	80.5646	133.301	80.5593	133.301	80.3608	133.301	80.4103	133.301	80.179	133.301	80.2899	133.301	80.0329	133.301	80.2023	133.301	79.9323	133.301	80.1464	133.301	79.8808	133.301	80.1159	133.301	79.874	133.301	80.1005	133.301	79.9009	133.301	80.0887	133.301	79.9467	133.301	80.0705	133.301	79.9969	133.301	80.0401
139.16	81.4219	139.16	81.3909	139.16	81.4153	139.16	81.3242	139.16	81.3707	139.16	81.2254	139.16	81.2892	139.16	81.0997	139.16	81.1737	139.16	80.954	139.16	81.0287	139.16	80.797	139.16	80.861	139.16	80.6387	139.16	80.6793	139.16	80.4897	139.16	80.4947	139.16	80.3606	139.16	80.3201	139.16	80.2601	139.16	80.1694	139.16	80.1935	139.16	80.0547	139.16	80.1608	139.16	79.9846	139.16	80.1568	139.16	79.9609	139.16	80.1718	139.16	79.9781	139.16	80.1931	139.16	80.0244	139.16	80.2083	139.16	80.084	139.16	80.2074	139.16	80.1416	139.16	80.185
143.555	81.4704	143.555	81.426	143.555	81.471	143.555	81.3396	143.555	81.4279	143.555	81.2148	143.555	81.3431	143.555	81.0579	143.555	81.2204	143.555	80.8774	143.555	81.0657	143.555	80.685	143.555	80.8873	143.555	80.4948	143.555	80.696	143.555	80.3227	143.555	80.5051	143.555	80.1847	143.555	80.33	143.555	80.0931	143.555	80.186	143.555	80.0544	143.555	80.0862	143.555	80.0659	143.555	80.0381	143.555	80.1166	143.555	80.0413	143.555	80.1892	143.555	80.0867	143.555	80.2638	143.555	80.1584	143.555	80.3223	143.555	80.2372	143.555	80.3517	143.555	80.3044	143.555	80.3454
147.949	81.4501	147.949	81.4029	147.949	81.4481	147.949	81.3073	147.949	81.398	147.949	81.1663	147.949	81.3025	147.949	80.9848	147.949	81.1661	147.949	80.7712	147.949	80.9955	147.949	80.5368	147.949	80.7998	147.949	80.2973	147.949	80.5908	147.949	80.0716	147.949	80.3829	147.949	79.8805	147.949	80.1923	147.949	79.7428	147.949	80.0354	147.949	79.6712	147.949	79.9256	147.949	79.6673	147.949	79.8701	147.949	79.7207	147.949	79.8672	147.949	79.8114	147.949	79.9059	147.949	79.9146	147.949	79.968	147.949	80.0069	147.949	80.0326	147.949	80.0703	147.949	80.0798	147.949	80.0949
153.809	81.6785	153.809	81.651	153.809	81.6523	153.809	81.5707	153.809	81.5731	153.809	81.44	153.809	81.4427	153.809	81.2628	153.809	81.2651	153.809	81.0454	153.809	81.0468	153.809	80.7972	153.809	80.7973	153.809	80.5312	153.809	80.53	153.809	80.2647	153.809	80.2628	153.809	80.0188	153.809	80.0166	153.809	79.8158	153.809	79.8136	153.809	79.6749	153.809	79.6723	153.809	79.6063	153.809	79.6026	153.809	79.607	153.809	79.6017	153.809	79.6608	153.809	79.654	153.809	79.7424	153.809	79.735	153.809	79.8241	153.809	79.8178	153.809	79.8825	153.809	79.8789	153.809	79.9024
159.668	81.9378	159.668	81.8978	159.668	81.9264	159.668	81.8079	159.668	81.8632	159.668	81.6708	159.668	81.7492	159.668	81.4912	159.668	81.5868	159.668	81.2756	159.668	81.3806	159.668	81.0334	159.668	81.1376	159.668	80.7772	159.668	80.8689	159.668	80.523	159.668	80.5896	159.668	80.2894	159.668	80.3196	159.668	80.0951	159.668	80.0816	159.668	79.9551	159.668	79.8976	159.668	79.8768	159.668	79.783	159.668	79.8565	159.668	79.7412	159.668	79.8805	159.668	79.7617	159.668	79.9276	159.668	79.8228	159.668	79.9751	159.668	79.8979	159.668	80.0036	159.668	79.9628	159.668	80.0005
165.527	81.8561	165.527	81.8152	165.527	81.8444	165.527	81.723	165.527	81.7802	165.527	81.5824	165.527	81.6651	165.527	81.3983	165.527	81.5024	165.527	81.1781	165.527	81.2975	165.527	80.9326	165.527	81.0587	165.527	80.6763	165.527	80.7975	165.527	80.4275	165.527	80.53	165.527	80.2071	165.527	80.2762	165.527	80.0353	165.527	80.0585	165.527	79.9267	165.527	79.8979	165.527	79.8857	165.527	79.8083	165.527	79.9042	165.527	79.7918	165.527	79.9632	165.527	79.8362	165.527	80.0378	165.527	79.9187	165.527	80.1032	165.527	80.0118	165.527	80.1397	165.527	80.0904	165.527	80.1359
171.387	81.8219	171.387	81.7655	171.387	81.8232	171.387	81.6554	171.387	81.7697	171.387	81.4941	171.387	81.6625	171.387	81.2862	171.387	81.5042	171.387	81.0393	171.387	81.2994	171.387	80.7649	171.387	81.0555	171.387	80.4795	171.387	80.7836	171.387	80.2053	171.387	80.4999	171.387	79.968	171.387	80.2261	171.387	79.7931	171.387	79.9876	171.387	79.6987	171.387	79.8099	171.387	79.6884	171.387	79.7114	171.387	79.7489	171.387	79.6963	171.387	79.8529	171.387	79.7523	171.387	79.9678	171.387	79.853	171.387	80.0629	171.387	79.9661	171.387	80.1158	171.387	80.0611	171.387	80.1151
177.246	81.7474	177.246	81.7054	177.246	81.7332	177.246	81.6066	177.246	81.6645	177.246	81.4519	177.246	81.5445	177.246	81.2441	177.246	81.3778	177.246	80.9888	177.246	81.1709	177.246	80.696	177.246	80.933	177.246	80.3812	177.246	80.6765	177.246	80.0672	177.246	80.4176	177.246	79.7832	177.246	80.1758	177.246	79.5608	177.246	79.9723	177.246	79.4264	177.246	79.826	177.246	79.3917	177.246	79.7485	177.246	79.4473	177.246	79.739	177.246	79.5658	177.246	79.7835	177.246	79.7103	177.246	79.8578	177.246	79.8451	177.246	79.9335	177.246	79.9436	177.246	79.9842	177.246	79.9907
183.105	81.5969	183.105	81.5744	183.105	81.5577	183.105	81.4905	183.105	81.458	183.105	81.3467	183.105	81.3	183.105	81.1459	183.105	81.0884	183.105	80.8938	183.105	80.8305	183.105	80.5998	183.105	80.538	183.105	80.279	183.105	80.2279	183.105	79.9539	183.105	79.9234	183.105	79.6548	183.105	79.653	183.105	79.4163	183.105	79.4465	183.105	79.269	183.105	79.3276	183.105	79.2289	183.105	79.3053	183.105	79.289	183.105	79.3698	183.105	79.4204	183.105	79.4934	183.105	79.582	183.105	79.6395	183.105	79.7328	183.105	79.7715	183.105	79.8403	183.105	79.8595	183.105	79.8847
188.965	81.7334	188.965	81.7087	188.965	81.6935	188.965	81.621	188.965	81.588	188.965	81.4725	188.965	81.4166	188.965	81.2661	188.965	81.1805	188.965	81.0064	188.965	80.8838	188.965	80.7011	188.965	80.535	188.965	80.363	188.965	80.1494	188.965	80.0121	188.965	79.7522	188.965	79.6769	188.965	79.379	188.965	79.3927	188.965	79.0734	188.965	79.1946	188.965	78.8764	188.965	79.1052	188.965	78.8118	188.965	79.1239	188.965	78.8735	188.965	79.2246	188.965	79.0266	188.965	79.3645	188.965	79.2204	188.965	79.4973	188.965	79.4043	188.965	79.5846	188.965	79.5392	188.965	79.6017
196.289	81.972	196.289	81.9123	196.289	81.9674	196.289	81.7915	196.289	81.8965	196.289	81.6134	196.289	81.7577	196.289	81.3831	196.289	81.5507	196.289	81.1077	196.289	81.277	196.289	80.7969	196.289	80.9415	196.289	80.4654	196.289	80.5545	196.289	80.1334	196.289	80.1352	196.289	79.8279	196.289	79.7143	196.289	79.579	196.289	79.3351	196.289	79.4135	196.289	79.0468	196.289	79.3449	196.289	78.8894	196.289	79.3655	196.289	78.8761	196.289	79.4474	196.289	78.9842	196.289	79.5509	196.289	79.1649	196.289	79.636	196.289	79.3623	196.289	79.6709	196.289	79.5297	196.289	79.6368
203.613	81.953	203.613	81.8772	203.613	81.9594	203.613	81.7326	203.613	81.8965	203.613	81.5208	203.613	81.7646	203.613	81.2454	203.613	81.5647	203.613	80.9125	203.613	81.2983	203.613	80.533	203.613	80.9693	203.613	80.1247	203.613	80.5854	203.613	79.7151	203.613	80.1621	203.613	79.3417	203.613	79.7268	203.613	79.0485	203.613	79.3208	203.613	78.874	203.613	78.9958	203.613	78.8355	203.613	78.7997	203.613	78.9174	203.613	78.7552	203.613	79.0762	203.613	78.8454	203.613	79.2555	203.613	79.0204	203.613	79.404	203.613	79.2178	203.613	79.4843	203.613	79.3826	203.613	79.4775
210.938	82.0222	210.938	81.9561	210.938	82.0185	210.938	81.8192	210.938	81.9465	210.938	81.6112	210.938	81.8079	210.938	81.3329	210.938	81.6049	210.938	80.987	210.938	81.3404	210.938	80.5806	210.938	81.0184	210.938	80.1275	210.938	80.6457	210.938	79.6528	210.938	80.2348	210.938	79.1958	210.938	79.8071	210.938	78.8091	210.938	79.3969	210.938	78.5474	210.938	79.0501	210.938	78.4464	210.938	78.8137	210.938	78.5021	210.938	78.7172	210.938	78.6693	210.938	78.7547	210.938	78.8814	210.938	78.8839	210.938	79.0736	210.938	79.0433	210.938	79.1988	210.938	79.1738	210.938	79.2327
218.262	82.0149	218.262	81.962	218.262	81.9999	218.262	81.8405	218.262	81.9183	218.262	81.6502	218.262	81.7719	218.262	81.3914	218.262	81.5635	218.262	81.066	218.262	81.2972	218.262	80.6785	218.262	80.9793	218.262	80.2396	218.262	80.6187	218.262	79.7696	218.262	80.2297	218.262	79.3027	218.262	79.8337	218.262	78.888	218.262	79.4611	218.262	78.581	218.262	79.149	218.262	78.4251	218.262	78.9329	218.262	78.4284	218.262	78.8325	218.262	78.5562	218.262	78.8405	218.262	78.7464	218.262	78.9225	218.262	78.9342	218.262	79.0288	218.262	79.071	218.262	79.1105	218.262	79.1307
225.586	82.1154	225.586	82.0972	225.586	82.058	225.586	82.0044	225.586	81.9246	225.586	81.8378	225.586	81.7152	225.586	81.5984	225.586	81.4318	225.586	81.288	225.586	81.0793	225.586	80.9109	225.586	80.6677	225.586	80.4772	225.586	80.2152	225.586	80.0069	225.586	79.7513	225.586	79.5347	225.586	79.3198	225.586	79.1117	225.586	78.9749	225.586	78.798	225.586	78.768	225.586	78.6428	225.586	78.7254	225.586	78.6595	225.586	78.8314	225.586	78.8159	225.586	79.0325	225.586	79.0479	225.586	79.2596	225.586	79.2855	225.586	79.4505	225.586	79.4716	225.586	79.5612	225.586	79.5691
232.91	82.336	232.91	82.2722	232.91	82.3244	232.91	82.1363	232.91	82.2337	232.91	81.931	232.91	82.0602	232.91	81.6585	232.91	81.7996	232.91	81.3208	232.91	81.4486	232.91	80.9216	232.91	81.0054	232.91	80.4692	232.91	80.4735	232.91	79.9816	232.91	79.8672	232.91	79.4925	232.91	79.2219	232.91	79.0535	232.91	78.6045	232.91	78.7273	232.91	78.1149	232.91	78.5656	232.91	77.8564	232.91	78.5806	232.91	77.8765	232.91	78.7328	232.91	78.1264	232.91	78.9485	232.91	78.491	232.91	79.1484	232.91	78.8513	232.91	79.2681	232.91	79.1238	232.91	79.2658
241.699	82.3046	241.699	82.2141	241.699	82.3234	241.699	82.0545	241.699	82.2681	241.699	81.8282	241.699	82.1363	241.699	81.5379	241.699	81.9252	241.699	81.186	241.699	81.6321	241.699	80.7762	241.699	81.2546	241.699	80.3155	241.699	80.7926	241.699	79.8188	241.699	80.2524	241.699	79.3145	241.699	79.6533	241.699	78.8489	241.699	79.0368	241.699	78.4822	241.699	78.4734	241.699	78.2689	241.699	78.0546	241.699	78.2291	241.699	77.857	241.699	78.3313	241.699	77.8935	241.699	78.5049	241.699	78.099	241.699	78.6701	241.699	78.3677	241.699	78.7621	241.699	78.603	241.699	78.7426
250.488	82.5137	250.488	82.4083	250.488	82.5438	250.488	82.2288	250.488	82.4972	250.488	81.9762	250.488	82.3718	250.488	81.6519	250.488	82.1646	250.488	81.2585	250.488	81.8725	250.488	80.8009	250.488	81.4923	250.488	80.2893	250.488	81.0239	250.488	79.7442	250.488	80.4737	250.488	79.2016	250.488	79.8615	250.488	78.7155	250.488	79.2287	250.488	78.3506	250.488	78.6436	250.488	78.1578	250.488	78.1939	250.488	78.1455	250.488	77.9538	250.488	78.2687	250.488	77.9399	250.488	78.4501	250.488	78.0965	250.488	78.6118	250.488	78.3274	250.488	78.6962	250.488	78.5404	250.488	78.673
259.277	82.6227	259.277	82.5292	259.277	82.6493	259.277	82.3679	259.277	82.6091	259.277	82.1371	259.277	82.5011	259.277	81.8347	259.277	82.3228	259.277	81.4587	259.277	82.07	259.277	81.0086	259.277	81.7374	259.277	80.4896	259.277	81.3208	259.277	79.9187	259.277	80.8215	259.277	79.3334	259.277	80.2532	259.277	78.7982	259.277	79.6521	259.277	78.3971	259.277	79.0846	259.277	78.2014	259.277	78.6415	259.277	78.2262	259.277	78.4039	259.277	78.4145	259.277	78.3928	259.277	78.67	259.277	78.55	259.277	78.9006	259.277	78.773	259.277	79.043	259.277	78.966	259.277	79.0655
268.066	82.1748	268.066	82.0711	268.066	82.21	268.066	81.8988	268.066	82.1769	268.066	81.6582	268.066	82.0749	268.066	81.3503	268.066	81.9013	268.066	80.9769	268.066	81.6516	268.066	80.5419	268.066	81.3195	268.066	80.0539	268.066	80.8989	268.066	79.5319	268.066	80.3899	268.066	79.0125	268.066	79.8062	268.066	78.5562	268.066	79.1884	268.066	78.2394	268.066	78.6144	268.066	78.1249	268.066	78.193	268.066	78.22	268.066	78.0193	268.066	78.4637	268.066	78.1091	268.066	78.7567	268.066	78.3809	268.066	79.0052	268.066	78.7083	268.066	79.1432	268.066	78.9828	268.066	79.1371
276.855	82.2677	276.855	82.2392	276.855	82.2278	276.855	82.131	276.855	82.1317	276.855	81.9336	276.855	81.9909	276.855	81.6389	276.855	81.8132	276.855	81.2399	276.855	81.5994	276.855	80.7324	276.855	81.3429	276.855	80.1184	276.855	81.0318	276.855	79.4154	276.855	80.6555	276.855	78.6712	276.855	80.2133	276.855	77.98	276.855	79.725	276.855	77.4799	276.855	79.2388	276.855	77.2957	276.855	78.8292	276.855	77.4469	276.855	78.5739	276.855	77.824	276.855	78.5106	276.855	78.267	276.855	78.608	276.855	78.6478	276.855	78.7806	276.855	78.8949	276.855	78.9317	276.855	78.985
287.109	82.2758	287.109	82.2499	287.109	82.2163	287.109	82.1433	287.109	82.0691	287.109	81.9598	287.109	81.8372	287.109	81.6996	287.109	81.5303	287.109	81.3573	287.109	81.1632	287.109	80.9232	287.109	80.7513	287.109	80.3877	287.109	80.3058	287.109	79.75	287.109	79.8329	287.109	79.0334	287.109	79.3403	287.109	78.3068	287.109	78.852	287.109	77.6983	287.109	78.4222	287.109	77.3658	287.109	78.1302	287.109	77.3977	287.109	78.0437	287.109	77.7294	287.109	78.1677	287.109	78.1911	287.109	78.4303	287.109	78.6183	287.109	78.7216	287.109	78.9072	287.109	78.94	287.109	79.0141
297.363	82.3981	297.363	82.2792	297.363	82.4287	297.363	82.0835	297.363	82.357	297.363	81.8197	297.363	82.1672	297.363	81.4936	297.363	81.8447	297.363	81.1077	297.363	81.3791	297.363	80.6611	297.363	80.7674	297.363	80.1499	297.363	80.0193	297.363	79.5735	297.363	79.1638	297.363	78.9463	297.363	78.263	297.363	78.3166	297.363	77.4298	297.363	77.7814	297.363	76.8306	297.363	77.4696	297.363	76.6255	297.363	77.4695	297.363	76.8494	297.363	77.7512	297.363	77.3684	297.363	78.1796	297.363	77.9778	297.363	78.5991	297.363	78.5089	297.363	78.8926	297.363	78.8611	297.363	78.9902
307.617	82.7443	307.617	82.6438	307.617	82.7761	307.617	82.4693	307.617	82.7438	307.617	82.2171	307.617	82.6487	307.617	81.8838	307.617	82.4849	307.617	81.4656	307.617	82.2377	307.617	80.9573	307.617	81.8847	307.617	80.3542	307.617	81.3996	307.617	79.6589	307.617	80.7584	307.617	78.8948	307.617	79.9482	307.617	78.1275	307.617	78.9854	307.617	77.4804	307.617	77.9487	307.617	77.1076	307.617	77.0227	307.617	77.0954	307.617	76.4795	307.617	77.3775	307.617	76.4896	307.617	77.7799	307.617	76.9302	307.617	78.1313	307.617	77.5103	307.617	78.3171	307.617	77.9977	307.617	78.2779
319.336	82.9141	319.336	82.8649	319.336	82.8802	319.336	82.7322	319.336	82.7645	319.336	82.5146	319.336	82.5705	319.336	82.2066	319.336	82.3037	319.336	81.798	319.336	81.9684	319.336	81.274	319.336	81.5641	319.336	80.6189	319.336	81.0825	319.336	79.8242	319.336	80.5099	319.336	78.9064	319.336	79.8382	319.336	77.9367	319.336	79.0844	319.336	77.0763	319.336	78.3176	319.336	76.5589	319.336	77.6738	319.336	76.5398	319.336	77.3158	319.336	76.933	319.336	77.3184	319.336	77.4891	319.336	77.5941	319.336	77.9863	319.336	77.9626	319.336	78.3019	319.336	78.2622	319.336	78.3917
329.59	82.9546	329.59	82.9225	329.59	82.9263	329.59	82.8273	329.59	82.8405	329.59	82.6659	329.59	82.6989	329.59	82.4325	329.59	82.5002	329.59	82.1156	329.59	82.2368	329.59	81.6955	329.59	81.8936	329.59	81.145	329.59	81.4472	329.59	80.4356	329.59	80.8699	329.59	79.5524	329.59	80.1392	329.59	78.5243	329.59	79.2583	329.59	77.4748	329.59	78.2929	329.59	76.6618	329.59	77.4158	329.59	76.3751	329.59	76.8901	329.59	76.6559	329.59	76.8834	329.59	77.2384	329.59	77.2777	329.59	77.8165	329.59	77.7868	329.59	78.2063	329.59	78.1779	329.59	78.3311
341.309	82.1873	341.309	82.154	341.309	82.1393	341.309	82.0474	341.309	82.01	341.309	81.8799	341.309	81.8092	341.309	81.6614	341.309	81.5546	341.309	81.3933	341.309	81.2664	341.309	81.0637	341.309	80.9577	341.309	80.6485	341.309	80.6257	341.309	80.1194	341.309	80.2498	341.309	79.4601	341.309	79.8019	341.309	78.6922	341.309	79.268	341.309	77.9106	341.309	78.6783	341.309	77.3045	341.309	78.1345	341.309	77.0871	341.309	77.7967	341.309	77.3141	341.309	77.7853	341.309	77.8135	341.309	78.0608	341.309	78.3392	341.309	78.4453	341.309	78.715	341.309	78.7508	341.309	78.8569
353.027	82.3818	353.027	82.3008	353.027	82.3673	353.027	82.1355	353.027	82.2508	353.027	81.8997	353.027	82.0295	353.027	81.6067	353.027	81.7041	353.027	81.2622	353.027	81.2763	353.027	80.8586	353.027	80.7474	353.027	80.3719	353.027	80.1166	353.027	79.7695	353.027	79.3839	353.027	79.0307	353.027	78.56	353.027	78.1851	353.027	77.6922	353.027	77.3668	353.027	76.9058	353.027	76.8352	353.027	76.4204	353.027	76.83	353.027	76.4409	353.027	77.3141	353.027	76.9471	353.027	78.0017	353.027	77.6878	353.027	78.6173	353.027	78.3916	353.027	79.0054	353.027	78.8886	353.027	79.1008
366.211	82.6699	366.211	82.5211	366.211	82.705	366.211	82.2637	366.211	82.6307	366.211	81.9134	366.211	82.4582	366.211	81.4959	366.211	82.2026	366.211	81.0403	366.211	81.8764	366.211	80.5638	366.211	81.4799	366.211	80.0548	366.211	80.9908	366.211	79.466	366.211	80.3602	366.211	78.7322	366.211	79.5195	366.211	77.8148	366.211	78.4031	366.211	76.7851	366.211	77.0052	366.211	75.9377	366.211	75.5241	366.211	75.7339	366.211	74.5743	366.211	76.2995	366.211	74.8153	366.211	77.2113	366.211	75.9327	366.211	78.0071	366.211	77.14	366.211	78.4534	366.211	78.0238	366.211	78.4666
379.395	83.1133	379.395	83.0227	379.395	83.0922	379.395	82.82	379.395	82.9672	379.395	82.5115	379.395	82.7535	379.395	82.1088	379.395	82.4712	379.395	81.6268	379.395	82.1405	379.395	81.0777	379.395	81.7734	379.395	80.4627	379.395	81.3651	379.395	79.7634	379.395	80.8877	379.395	78.9432	379.395	80.2906	379.395	77.9695	379.395	79.5114	379.395	76.8703	379.395	78.503	379.395	75.8383	379.395	77.2945	379.395	75.2853	379.395	76.1102	379.395	75.518	379.395	75.4415	379.395	76.2864	379.395	75.647	379.395	77.0773	379.395	76.4145	379.395	77.5562	379.395	77.1736	379.395	77.5916
392.578	83.7556	392.578	83.6564	392.578	83.6869	392.578	83.3986	392.578	83.4455	392.578	82.9959	392.578	83.0342	392.578	82.4669	392.578	82.4689	392.578	81.8356	392.578	81.7841	392.578	81.1297	392.578	81.0353	392.578	80.3731	392.578	80.2883	392.578	79.5733	392.578	79.5921	392.578	78.7109	392.578	78.9499	392.578	77.7436	392.578	78.3138	392.578	76.6428	392.578	77.6196	392.578	75.4769	392.578	76.8467	392.578	74.5248	392.578	76.0878	392.578	74.2167	392.578	75.5733	392.578	74.6533	392.578	75.5147	392.578	75.412	392.578	75.8307	392.578	76.0364	392.578	76.1917	392.578	76.3049
405.762	83.8521	405.762	83.7739	405.762	83.8005	405.762	83.5661	405.762	83.6145	405.762	83.2257	405.762	83.2862	405.762	82.7479	405.762	82.8076	405.762	82.1266	405.762	82.1755	405.762	81.3559	405.762	81.3984	405.762	80.4314	405.762	80.5011	405.762	79.3558	405.762	79.5256	405.762	78.152	405.762	78.5257	405.762	76.8897	405.762	77.5599	405.762	75.7256	405.762	76.6929	405.762	74.9131	405.762	76.0103	405.762	74.6759	405.762	75.6172	405.762	74.9861	405.762	75.5778	405.762	75.5737	405.762	75.8344	405.762	76.1521	405.762	76.2181	405.762	76.5434	405.762	76.5424	405.762	76.6731
420.41	83.996	420.41	83.8928	420.41	84.0229	420.41	83.7098	420.41	83.9732	420.41	83.4414	420.41	83.8402	420.41	83.0798	420.41	83.6088	420.41	82.6132	420.41	83.2527	420.41	82.0232	420.41	82.7351	420.41	81.2819	420.41	82.0079	420.41	80.352	420.41	81.0127	420.41	79.1919	420.41	79.6814	420.41	77.7789	420.41	77.9461	420.41	76.1743	420.41	75.7899	420.41	74.6705	420.41	73.4695	420.41	73.8683	420.41	72.0046	420.41	74.1186	420.41	72.4259	420.41	74.9617	420.41	73.8428	420.41	75.7826	420.41	75.1416	420.41	76.2822	420.41	75.9915	420.41	76.3637
435.059	83.1934	435.059	83.1528	435.059	83.1583	435.059	83.0371	435.059	83.0497	435.059	82.8463	435.059	82.8732	435.059	82.577	435.059	82.6366	435.059	82.2189	435.059	82.3454	435.059	81.7513	435.059	81.9944	435.059	81.141	435.059	81.5617	435.059	80.3435	435.059	81.0062	435.059	79.3098	435.059	80.2737	435.059	78.0073	435.059	79.3092	435.059	76.4781	435.059	78.0831	435.059	74.9782	435.059	76.6513	435.059	74.0968	435.059	75.2818	435.059	74.281	435.059	74.5174	435.059	75.1388	435.059	74.7047	435.059	76.0044	435.059	75.462	435.059	76.5248	435.059	76.1976	435.059	76.5885
451.172	83.5621	451.172	83.5003	451.172	83.5518	451.172	83.3722	451.172	83.4678	451.172	83.1868	451.172	83.3108	451.172	82.9501	451.172	83.0792	451.172	82.654	451.172	82.7643	451.172	82.2655	451.172	82.3442	451.172	81.7238	451.172	81.7793	451.172	80.9461	451.172	81.0116	451.172	79.8404	451.172	79.9696	451.172	78.3261	451.172	78.5805	451.172	76.394	451.172	76.8136	451.172	74.3198	451.172	74.837	451.172	73.0577	451.172	73.3832	451.172	73.4883	451.172	73.4647	451.172	74.8274	451.172	74.6903	451.172	76.0614	451.172	75.9632	451.172	76.8394	451.172	76.7972	451.172	77.0902
465.82	83.4452	465.82	83.3973	465.82	83.4451	465.82	83.3024	465.82	83.3943	465.82	83.1587	465.82	83.2906	465.82	82.9629	465.82	83.1333	465.82	82.7098	465.82	82.9205	465.82	82.3862	465.82	82.6399	465.82	81.9598	465.82	82.2592	465.82	81.3673	465.82	81.7186	465.82	80.5113	465.82	80.9314	465.82	79.2638	465.82	79.7881	465.82	77.4761	465.82	78.1596	465.82	75.0191	465.82	75.9167	465.82	72.059	465.82	73.076	465.82	70.0946	465.82	70.542	465.82	70.8533	465.82	70.4351	465.82	72.4806	465.82	71.9951	465.82	73.5339	465.82	73.2764	465.82	73.7993
483.398	82.1442	483.398	82.0422	483.398	82.1448	483.398	81.8786	483.398	82.0546	483.398	81.7331	483.398	81.9248	483.398	81.6826	483.398	81.8217	483.398	81.7407	483.398	81.7878	483.398	81.8333	483.398	81.807	483.398	81.8355	483.398	81.8034	483.398	81.6272	483.398	81.6703	483.398	81.1221	483.398	81.3044	483.398	80.2774	483.398	80.6247	483.398	79.1119	483.398	79.5886	483.398	77.7631	483.398	78.2348	483.398	76.5756	483.398	76.7877	483.398	76.0121	483.398	75.7556	483.398	76.1764	483.398	75.6006	483.398	76.6613	483.398	76.1138	483.398	77.031	483.398	76.7225	483.398	77.0663
499.512	84.0982	499.512	83.9571	499.512	84.0466	499.512	83.6388	499.512	83.8054	499.512	83.1859	499.512	83.3992	499.512	82.6825	499.512	82.8871	499.512	82.2466	499.512	82.3695	499.512	81.9687	499.512	81.9573	499.512	81.8227	499.512	81.6918	499.512	81.6525	499.512	81.4842	499.512	81.2555	499.512	81.1529	499.512	80.4661	499.512	80.511	499.512	79.2112	499.512	79.4309	499.512	77.6344	499.512	77.9241	499.512	76.38	499.512	76.3731	499.512	76.3662	499.512	75.7468	499.512	77.3772	499.512	76.5098	499.512	78.4537	499.512	77.7711	499.512	79.105	499.512	78.7516	499.512	79.2094
517.09	84.6543	517.09	84.543	517.09	84.6139	517.09	84.2886	517.09	84.4355	517.09	83.9252	517.09	84.1543	517.09	83.5152	517.09	83.8273	517.09	83.1341	517.09	83.5224	517.09	82.8272	517.09	83.2866	517.09	82.5597	517.09	83.1038	517.09	82.2101	517.09	82.8796	517.09	81.6102	517.09	82.468	517.09	80.5865	517.09	81.7067	517.09	78.9902	517.09	80.4331	517.09	76.8157	517.09	78.4976	517.09	74.7613	517.09	75.9185	517.09	74.657	517.09	73.7449	517.09	76.295	517.09	74.2604	517.09	77.845	517.09	76.3087	517.09	78.6728	517.09	77.9182	517.09	78.7031
536.133	85.114	536.133	84.9452	536.133	85.062	536.133	84.5701	536.133	84.782	536.133	84.0147	536.133	84.2813	536.133	83.3342	536.133	83.5965	536.133	82.638	536.133	82.8158	536.133	82.0794	536.133	82.0917	536.133	81.7547	536.133	81.5913	536.133	81.5785	536.133	81.3586	536.133	81.3073	536.133	81.2333	536.133	80.6763	536.133	80.9462	536.133	79.4889	536.133	80.2536	536.133	77.6946	536.133	79.0081	536.133	75.7333	536.133	77.2921	536.133	75.0833	536.133	75.8514	536.133	76.3224	536.133	75.9777	536.133	77.8934	536.133	77.3102	536.133	78.876	536.133	78.5288	536.133	79.0879
555.176	85.5693	555.176	85.3928	555.176	85.5358	555.176	85.0056	555.176	85.3029	555.176	84.4286	555.176	84.8862	555.176	83.7182	555.176	84.3139	555.176	82.98	555.176	83.6435	555.176	82.3559	555.176	82.972	555.176	81.9485	555.176	82.4029	555.176	81.713	555.176	81.9607	555.176	81.4439	555.176	81.532	555.176	80.874	555.176	80.9048	555.176	79.754	555.176	79.8435	555.176	77.8987	555.176	78.135	555.176	75.4568	555.176	75.7239	555.176	74.0162	555.176	73.5399	555.176	75.2935	555.176	74.0302	555.176	77.2335	555.176	76.2048	555.176	78.4079	555.176	77.8865	555.176	78.6255
574.219	86.0216	574.219	85.8693	574.219	85.9721	574.219	85.5305	574.219	85.7118	574.219	85.0295	574.219	85.246	574.219	84.4096	574.219	84.6095	574.219	83.7434	574.219	83.8861	574.219	83.1203	574.219	83.2116	574.219	82.592	574.219	82.7201	574.219	82.1044	574.219	82.4277	574.219	81.4895	574.219	82.1719	574.219	80.5181	574.219	81.6846	574.219	78.9459	574.219	80.6905	574.219	76.577	574.219	78.9418	574.219	73.8317	574.219	76.3094	574.219	73.4538	574.219	73.6707	574.219	75.8825	574.219	74.1295	574.219	78.059	574.219	76.6163	574.219	79.2086	574.219	78.4911	574.219	79.3463
594.727	85.9944	594.727	85.7902	594.727	85.9753	594.727	85.357	594.727	85.733	594.727	84.6969	594.727	85.2679	594.727	83.8574	594.727	84.6005	594.727	82.994	594.727	83.8074	594.727	82.3925	594.727	83.0602	594.727	82.2888	594.727	82.5927	594.727	82.5677	594.727	82.5025	594.727	82.8309	594.727	82.5879	594.727	82.6922	594.727	82.4888	594.727	81.8646	594.727	81.8816	594.727	80.0976	594.727	80.5049	594.727	77.1629	594.727	78.1384	594.727	73.5757	594.727	74.9779	594.727	73.222	594.727	73.5864	594.727	75.7807	594.727	75.5363	594.727	77.5632	594.727	77.4058	594.727	78.0941
615.234	86.8388	615.234	86.6668	615.234	86.7902	615.234	86.2784	615.234	86.517	615.234	85.6677	615.234	86.0216	615.234	84.8185	615.234	85.3127	615.234	83.7333	615.234	84.4099	615.234	82.5064	615.234	83.3696	615.234	81.4008	615.234	82.3338	615.234	80.7324	615.234	81.5351	615.234	80.4747	615.234	81.1193	615.234	80.1923	615.234	80.9068	615.234	79.4112	615.234	80.4765	615.234	77.7746	615.234	79.3991	615.234	75.0565	615.234	77.303	615.234	72.2003	615.234	74.1338	615.234	73.1825	615.234	72.4922	615.234	76.0638	615.234	74.9601	615.234	77.8484	615.234	77.3106	615.234	78.2637
637.207	86.9087	637.207	86.7282	637.207	86.8697	637.207	86.3178	637.207	86.6063	637.207	85.6643	637.207	86.096	637.207	84.7714	637.207	85.3151	637.207	83.7036	637.207	84.2865	637.207	82.6592	637.207	83.1626	637.207	81.9759	637.207	82.2797	637.207	81.8383	637.207	81.9504	637.207	81.9663	637.207	82.0551	637.207	81.8578	637.207	82.1314	637.207	81.1038	637.207	81.7622	637.207	79.4007	637.207	80.6652	637.207	76.5958	637.207	78.6524	637.207	73.8937	637.207	75.9374	637.207	74.8799	637.207	74.6104	637.207	77.333	637.207	76.2716	637.207	78.782	637.207	78.1651	637.207	79.0418
659.18	86.9629	659.18	86.8276	659.18	86.9324	659.18	86.5186	659.18	86.7344	659.18	86.0151	659.18	86.3537	659.18	85.2805	659.18	85.7552	659.18	84.2731	659.18	84.8878	659.18	82.993	659.18	83.7175	659.18	81.5973	659.18	82.3152	659.18	80.5125	659.18	80.9925	659.18	80.1206	659.18	80.2231	659.18	80.117	659.18	80.0322	659.18	79.7867	659.18	79.8129	659.18	78.5559	659.18	78.9235	659.18	75.9909	659.18	76.8965	659.18	72.3417	659.18	73.5608	659.18	72.3793	659.18	71.6689	659.18	75.702	659.18	74.5184	659.18	77.7333	659.18	77.1239	659.18	78.1786
682.617	86.8706	682.617	86.6981	682.617	86.8316	682.617	86.3307	682.617	86.5577	682.617	85.7623	682.617	86.0351	682.617	84.9662	682.617	85.2653	682.617	83.9319	682.617	84.2713	682.617	82.753	682.617	83.126	682.617	81.737	682.617	82.0241	682.617	81.2964	682.617	81.3051	682.617	81.4254	682.617	81.1741	682.617	81.5847	682.617	81.34	682.617	81.1961	682.617	81.2286	682.617	79.8097	682.617	80.3206	682.617	76.9495	682.617	78.125	682.617	72.3052	682.617	74.0607	682.617	70.9072	682.617	70.0603	682.617	74.6707	682.617	73.2893	682.617	76.9129	682.617	76.3183	682.617	77.4218
707.52	86.742	707.52	86.5979	707.52	86.6913	707.52	86.2544	707.52	86.4517	707.52	85.7044	707.52	86.02	707.52	84.9239	707.52	85.3724	707.52	83.868	707.52	84.4645	707.52	82.5175	707.52	83.2577	707.52	81.0246	707.52	81.8025	707.52	79.9041	707.52	80.4176	707.52	79.6697	707.52	79.7148	707.52	79.9412	707.52	79.826	707.52	79.872	707.52	79.9927	707.52	78.8556	707.52	79.4102	707.52	76.403	707.52	77.4995	707.52	72.2949	707.52	73.679	707.52	71.3352	707.52	69.667	707.52	75.0994	707.52	73.051	707.52	77.3458	707.52	76.4111	707.52	77.749
732.422	86.111	732.422	86.0466	732.422	86.0276	732.422	85.8344	732.422	85.7952	732.422	85.4649	732.422	85.415	732.422	84.9114	732.422	84.8807	732.422	84.1196	732.422	84.1589	732.422	83.0142	732.422	83.188	732.422	81.5762	732.422	81.9321	732.422	80.0604	732.422	80.5151	732.422	79.1631	732.422	79.3877	732.422	79.1924	732.422	79.0317	732.422	79.3018	732.422	79.1263	732.422	78.5216	732.422	78.8127	732.422	76.1479	732.422	77.3684	732.422	71.4034	732.422	74.071	732.422	68.2331	732.422	68.9012	732.422	72.9692	732.422	70.918	732.422	75.775	732.422	74.8843	732.422	76.3621
757.324	86.243	757.324	86.0546	757.324	86.2186	757.324	85.6829	757.324	85.957	757.324	85.1484	757.324	85.4495	757.324	84.4443	757.324	84.7071	757.324	83.5284	757.324	83.75	757.324	82.3601	757.324	82.5894	757.324	81.0091	757.324	81.2516	757.324	79.8358	757.324	79.9092	757.324	79.4111	757.324	79.0422	757.324	79.7042	757.324	79.0368	757.324	79.9309	757.324	79.4161	757.324	79.3811	757.324	79.315	757.324	77.5708	757.324	78.0842	757.324	73.9849	757.324	75.0752	757.324	69.0579	757.324	69.1319	757.324	70.3025	757.324	66.6605	757.324	73.3924	757.324	72.0422	757.324	74.0537
785.156	86.0966	785.156	85.9335	785.156	86.0386	785.156	85.592	785.156	85.7589	785.156	85.1224	785.156	85.3011	785.156	84.5307	785.156	84.7174	785.156	83.7477	785.156	84.0081	785.156	82.6521	785.156	83.0831	785.156	81.1524	785.156	81.7946	785.156	79.362	785.156	80.0609	785.156	77.8743	785.156	78.135	785.156	77.4094	785.156	76.8987	785.156	77.5428	785.156	76.8711	785.156	77.224	785.156	77.0542	785.156	75.765	785.156	76.3559	785.156	72.9699	785.156	74.1335	785.156	71.2088	785.156	70.5664	785.156	73.5145	785.156	70.9276	785.156	75.5962	785.156	74.2829	785.156	75.9047
811.523	86.0165	811.523	85.8735	811.523	85.9544	811.523	85.502	811.523	85.6903	811.523	84.8785	811.523	85.2096	811.523	84.008	811.523	84.5021	811.523	82.9373	811.523	83.581	811.523	81.7416	811.523	82.4821	811.523	80.516	811.523	81.2612	811.523	79.4282	811.523	80.0341	811.523	78.7512	811.523	79.0413	811.523	78.5848	811.523	78.5227	811.523	78.5192	811.523	78.3275	811.523	77.8822	811.523	77.875	811.523	76.0519	811.523	76.5035	811.523	72.5117	811.523	73.5476	811.523	68.787	811.523	68.7377	811.523	70.7812	811.523	68.4408	811.523	73.2362	811.523	72.1112	811.523	73.7046
840.82	85.9129	840.82	85.7118	840.82	85.871	840.82	85.3055	840.82	85.5975	840.82	84.7628	840.82	85.1431	840.82	84.1278	840.82	84.5565	840.82	83.3518	840.82	83.8213	840.82	82.2773	840.82	82.82	840.82	80.7041	840.82	81.3725	840.82	78.5736	840.82	79.3666	840.82	76.5071	840.82	77.1588	840.82	76.0077	840.82	76.1827	840.82	76.7069	840.82	76.9217	840.82	76.8022	840.82	77.5958	840.82	75.3216	840.82	77.0423	840.82	71.3513	840.82	74.6424	840.82	65.18	840.82	69.4681	840.82	69.9424	840.82	66.3978	840.82	73.5242	840.82	71.6641	840.82	73.9919
870.117	86.0507	870.117	85.8353	870.117	86.0062	870.117	85.3839	870.117	85.7165	870.117	84.7539	870.117	85.2155	870.117	83.998	870.117	84.534	870.117	83.1075	870.117	83.6924	870.117	81.9928	870.117	82.6949	870.117	80.5631	870.117	81.5185	870.117	78.9289	870.117	80.1417	870.117	77.651	870.117	78.6929	870.117	77.3195	870.117	77.6312	870.117	77.4546	870.117	77.3263	870.117	77.066	870.117	77.2435	870.117	75.4368	870.117	76.4366	870.117	71.9467	870.117	74.1086	870.117	67.8907	870.117	69.602	870.117	70.6529	870.117	67.9596	870.117	73.6229	870.117	72.1782	870.117	74.1461
900.879	86.1542	900.879	85.932	900.879	86.1266	900.879	85.4852	900.879	85.8237	900.879	84.8363	900.879	85.2568	900.879	84.0254	900.879	84.5016	900.879	83.0933	900.879	83.6545	900.879	82.0055	900.879	82.7247	900.879	80.6114	900.879	81.5865	900.879	78.7919	900.879	80.0913	900.879	76.9515	900.879	78.343	900.879	76.3549	900.879	77.0648	900.879	76.9643	900.879	76.9781	900.879	77.0977	900.879	77.3389	900.879	75.6558	900.879	76.9689	900.879	71.6249	900.879	75.0222	900.879	63.2094	900.879	70.408	900.879	67.9434	900.879	65.7389	900.879	72.3742	900.879	70.7823	900.879	73.1323
933.105	86.7909	933.105	86.522	933.105	86.7216	933.105	85.9432	933.105	86.336	933.105	85.145	933.105	85.6997	933.105	84.2759	933.105	84.9217	933.105	83.4501	933.105	84.1272	933.105	82.5836	933.105	83.3494	933.105	81.3961	933.105	82.4167	933.105	79.6438	933.105	81.0257	933.105	77.5373	933.105	79.007	933.105	76.329	933.105	76.8758	933.105	76.6955	933.105	76.1877	933.105	76.9844	933.105	76.8031	933.105	75.8344	933.105	76.7912	933.105	72.3867	933.105	75.0048	933.105	67.5081	933.105	70.8484	933.105	71.1241	933.105	69.3839	933.105	74.5491	933.105	73.4043	933.105	75.2323
965.332	86.7884	965.332	86.4934	965.332	86.7138	965.332	85.8499	965.332	86.299	965.332	84.9442	965.332	85.6036	965.332	83.926	965.332	84.7095	965.332	82.9608	965.332	83.7179	965.332	82.086	965.332	82.6903	965.332	81.0698	965.332	81.5331	965.332	79.4997	965.332	80.0307	965.332	77.1614	965.332	78.171	965.332	75.2158	965.332	76.7562	965.332	75.9116	965.332	76.9942	965.332	77.199	965.332	77.9349	965.332	76.8967	965.332	77.9212	965.332	74.0438	965.332	76.1204	965.332	67.6724	965.332	71.9248	965.332	70.0955	965.332	68.4479	965.332	74.2516	965.332	72.4204	965.332	74.7896
1,000.49	86.8045	1,000.49	86.5058	1,000.49	86.7319	1,000.49	85.889	1,000.49	86.2826	1,000.49	85.0163	1,000.49	85.508	1,000.49	83.9522	1,000.49	84.4966	1,000.49	82.8035	1,000.49	83.371	1,000.49	81.6875	1,000.49	82.2704	1,000.49	80.5688	1,000.49	81.2104	1,000.49	79.2134	1,000.49	79.9596	1,000.49	77.5218	1,000.49	78.2329	1,000.49	76.2085	1,000.49	76.3489	1,000.49	76.3716	1,000.49	75.9232	1,000.49	77.0044	1,000.49	76.8653	1,000.49	76.4385	1,000.49	76.938	1,000.49	73.5297	1,000.49	74.9251	1,000.49	66.4711	1,000.49	69.544	1,000.49	67.9805	1,000.49	63.9501	1,000.49	73.1366	1,000.49	71.2861	1,000.49	74.0081
1,035.64	86.5371	1,035.64	86.2666	1,035.64	86.357	1,035.64	85.5978	1,035.64	85.7488	1,035.64	84.6323	1,035.64	84.8074	1,035.64	83.494	1,035.64	83.6784	1,035.64	82.3278	1,035.64	82.5242	1,035.64	81.2762	1,035.64	81.4796	1,035.64	80.3302	1,035.64	80.5772	1,035.64	79.1863	1,035.64	79.6437	1,035.64	77.3784	1,035.64	78.2891	1,035.64	74.8964	1,035.64	76.1547	1,035.64	73.8992	1,035.64	73.9742	1,035.64	75.1924	1,035.64	74.1231	1,035.64	75.4552	1,035.64	75.0866	1,035.64	73.1557	1,035.64	74.3567	1,035.64	67.1982	1,035.64	70.6631	1,035.64	67.2272	1,035.64	65.9275	1,035.64	72.3425	1,035.64	71.1639	1,035.64	73.5482
1,072.27	85.9477	1,072.27	85.6336	1,072.27	85.8635	1,072.27	84.9834	1,072.27	85.3497	1,072.27	84.0378	1,072.27	84.452	1,072.27	82.8428	1,072.27	83.2754	1,072.27	81.5436	1,072.27	81.9577	1,072.27	80.3785	1,072.27	80.706	1,072.27	79.413	1,072.27	79.7313	1,072.27	78.3522	1,072.27	78.867	1,072.27	76.8341	1,072.27	77.4883	1,072.27	75.1194	1,072.27	75.1219	1,072.27	74.6731	1,072.27	72.9411	1,072.27	75.3715	1,072.27	73.7723	1,072.27	75.1373	1,072.27	75.0974	1,072.27	72.7114	1,072.27	74.3584	1,072.27	67.2626	1,072.27	70.0583	1,072.27	68.9238	1,072.27	62.4533	1,072.27	73.3814	1,072.27	70.948	1,072.27	74.0832
1,108.89	85.2763	1,108.89	85.0061	1,108.89	85.2045	1,108.89	84.3241	1,108.89	84.8041	1,108.89	83.2258	1,108.89	84.0003	1,108.89	81.8259	1,108.89	82.7631	1,108.89	80.3547	1,108.89	81.2433	1,108.89	79.1462	1,108.89	79.7625	1,108.89	78.3836	1,108.89	78.603	1,108.89	77.7131	1,108.89	77.6839	1,108.89	76.4594	1,108.89	76.5424	1,108.89	74.1823	1,108.89	74.6936	1,108.89	72.0886	1,108.89	72.5079	1,108.89	73.0566	1,108.89	72.7931	1,108.89	74.2624	1,108.89	74.5413	1,108.89	73.0108	1,108.89	74.2602	1,108.89	67.683	1,108.89	70.4082	1,108.89	65.6573	1,108.89	61.8983	1,108.89	71.414	1,108.89	69.1254	1,108.89	72.4165
1,148.44	85.0345	1,148.44	84.7985	1,148.44	84.9753	1,148.44	84.2627	1,148.44	84.6356	1,148.44	83.4169	1,148.44	84.0135	1,148.44	82.2043	1,148.44	83.0816	1,148.44	80.6295	1,148.44	81.8125	1,148.44	79.0236	1,148.44	80.2594	1,148.44	77.8976	1,148.44	78.6553	1,148.44	77.0283	1,148.44	77.2991	1,148.44	75.573	1,148.44	76.1326	1,148.44	73.1699	1,148.44	74.6771	1,148.44	71.4147	1,148.44	72.9191	1,148.44	72.4443	1,148.44	72.5972	1,148.44	73.0888	1,148.44	73.5938	1,148.44	70.6424	1,148.44	72.9919	1,148.44	59.9771	1,148.44	68.6524	1,148.44	66.5641	1,148.44	41.3815	1,148.44	71.9096	1,148.44	67.6958	1,148.44	72.029
1,189.45	85.0014	1,189.45	84.6853	1,189.45	85.0083	1,189.45	84.0948	1,189.45	84.7004	1,189.45	83.2532	1,189.45	84.0627	1,189.45	82.1254	1,189.45	83.0591	1,189.45	80.6813	1,189.45	81.7241	1,189.45	79.0584	1,189.45	80.2323	1,189.45	77.6255	1,189.45	78.8278	1,189.45	76.5715	1,189.45	77.6509	1,189.45	75.4853	1,189.45	76.5345	1,189.45	73.8056	1,189.45	74.9866	1,189.45	71.9709	1,189.45	72.8055	1,189.45	72.2584	1,189.45	71.84	1,189.45	73.2941	1,189.45	73.2185	1,189.45	72.0569	1,189.45	73.6383	1,189.45	66.2065	1,189.45	71.2575	1,189.45	53.7132	1,189.45	63.3055	1,189.45	66.056	1,189.45	61.3233	1,189.45	67.1994
1,230.47	85.6575	1,230.47	85.3531	1,230.47	85.5086	1,230.47	84.6122	1,230.47	84.983	1,230.47	83.5986	1,230.47	84.1472	1,230.47	82.4312	1,230.47	83.0513	1,230.47	80.9916	1,230.47	81.7663	1,230.47	79.2285	1,230.47	80.3626	1,230.47	77.6416	1,230.47	78.9246	1,230.47	76.7281	1,230.47	77.647	1,230.47	75.8172	1,230.47	76.543	1,230.47	73.821	1,230.47	75.0365	1,230.47	70.5667	1,230.47	72.7649	1,230.47	70.5873	1,230.47	71.6883	1,230.47	73.087	1,230.47	73.2709	1,230.47	72.7572	1,230.47	74.0701	1,230.47	67.7357	1,230.47	72.1171	1,230.47	58.0941	1,230.47	65.1035	1,230.47	67.8648	1,230.47	63.7299	1,230.47	69.0512
1,274.41	85.6459	1,274.41	85.401	1,274.41	85.5015	1,274.41	84.7268	1,274.41	85.0113	1,274.41	83.6751	1,274.41	84.2311	1,274.41	82.4581	1,274.41	83.2094	1,274.41	81.1445	1,274.41	82.0032	1,274.41	79.5036	1,274.41	80.6703	1,274.41	77.7358	1,274.41	79.168	1,274.41	76.7182	1,274.41	77.5361	1,274.41	76.1436	1,274.41	76.1396	1,274.41	74.7605	1,274.41	74.8355	1,274.41	72.399	1,274.41	72.6916	1,274.41	71.0609	1,274.41	70.9901	1,274.41	72.0673	1,274.41	72.2523	1,274.41	72.0376	1,274.41	72.5742	1,274.41	67.8383	1,274.41	70.1187	1,274.41	51.9674	1,274.41	62.722	1,274.41	67.4125	1,274.41	60.7671	1,274.41	68.0684
1,319.82	85.1938	1,319.82	85.0145	1,319.82	84.9683	1,319.82	84.3884	1,319.82	84.425	1,319.82	83.4424	1,319.82	83.5812	1,319.82	82.3274	1,319.82	82.457	1,319.82	80.9733	1,319.82	81.0887	1,319.82	79.3119	1,319.82	79.4166	1,319.82	77.5162	1,319.82	77.5787	1,319.82	75.7316	1,319.82	76.1893	1,319.82	74.3029	1,319.82	75.4925	1,319.82	73.3366	1,319.82	75.0329	1,319.82	71.5514	1,319.82	73.9635	1,319.82	70.4269	1,319.82	71.7066	1,319.82	72.5019	1,319.82	71.5709	1,319.82	72.8701	1,319.82	73.1046	1,319.82	69.6076	1,319.82	71.6341	1,319.82	61.1649	1,319.82	65.0768	1,319.82	64.492	1,319.82	61.2509	1,319.82	66.3984
1,366.7	84.9551	1,366.7	84.6332	1,366.7	84.7697	1,366.7	83.7619	1,366.7	84.1821	1,366.7	82.5766	1,366.7	83.2455	1,366.7	81.3681	1,366.7	81.974	1,366.7	79.9585	1,366.7	80.4113	1,366.7	78.2135	1,366.7	78.5974	1,366.7	76.4663	1,366.7	76.6568	1,366.7	74.8122	1,366.7	75.15	1,366.7	73.6727	1,366.7	74.2828	1,366.7	73.3534	1,366.7	73.3656	1,366.7	71.773	1,366.7	71.9267	1,366.7	69.7458	1,366.7	69.782	1,366.7	71.9433	1,366.7	69.9331	1,366.7	72.5869	1,366.7	72.0837	1,366.7	69.0553	1,366.7	71.0569	1,366.7	59.7274	1,366.7	64.546	1,366.7	64.847	1,366.7	59.3066	1,366.7	65.8051
1,413.57	84.6419	1,413.57	84.2344	1,413.57	84.5758	1,413.57	83.5221	1,413.57	84.0162	1,413.57	82.423	1,413.57	83.0215	1,413.57	80.6938	1,413.57	81.6989	1,413.57	78.7935	1,413.57	80.2816	1,413.57	77.0939	1,413.57	78.8536	1,413.57	75.0497	1,413.57	77.37	1,413.57	73.6834	1,413.57	75.9571	1,413.57	73.7807	1,413.57	74.7067	1,413.57	73.0775	1,413.57	73.6474	1,413.57	71.5295	1,413.57	72.659	1,413.57	69.8456	1,413.57	70.6767	1,413.57	70.5985	1,413.57	70.0102	1,413.57	71.9228	1,413.57	71.6907	1,413.57	68.0761	1,413.57	70.6592	1,413.57	62.7994	1,413.57	65.3958	1,413.57	68.4159	1,413.57	65.9352	1,413.57	69.0277
1,463.38	84.4321	1,463.38	84.0357	1,463.38	84.3042	1,463.38	83.0295	1,463.38	83.8048	1,463.38	81.76	1,463.38	82.8811	1,463.38	80.4269	1,463.38	81.5461	1,463.38	78.6677	1,463.38	80.0992	1,463.38	76.6489	1,463.38	78.7115	1,463.38	75.1411	1,463.38	77.0978	1,463.38	73.9115	1,463.38	75.2302	1,463.38	72.7283	1,463.38	73.5982	1,463.38	71.3363	1,463.38	72.493	1,463.38	69.8872	1,463.38	71.6831	1,463.38	69.2789	1,463.38	69.7888	1,463.38	69.5283	1,463.38	68.3307	1,463.38	70.7537	1,463.38	70.7218	1,463.38	68.3875	1,463.38	70.4141	1,463.38	55.5085	1,463.38	63.8174	1,463.38	66.4019	1,463.38	64.7089	1,463.38	68.7779
1,516.11	84.7995	1,516.11	84.5703	1,516.11	84.5313	1,516.11	83.7625	1,516.11	83.971	1,516.11	82.5066	1,516.11	83.2187	1,516.11	81.2297	1,516.11	82.033	1,516.11	79.9717	1,516.11	80.4575	1,516.11	78.2747	1,516.11	78.8129	1,516.11	76.5396	1,516.11	77.1809	1,516.11	75.4501	1,516.11	75.7638	1,516.11	73.6495	1,516.11	74.4694	1,516.11	70.9227	1,516.11	72.7909	1,516.11	69.9361	1,516.11	72.0252	1,516.11	69.4834	1,516.11	71.4947	1,516.11	69.9135	1,516.11	70.0946	1,516.11	71.321	1,516.11	70.4813	1,516.11	69.8292	1,516.11	69.3896	1,516.11	58.2523	1,516.11	63.6388	1,516.11	65.5949	1,516.11	58.1059	1,516.11	67.1086
1,568.85	85.3904	1,568.85	85.042	1,568.85	85.3381	1,568.85	84.4948	1,568.85	84.5247	1,568.85	83.5247	1,568.85	83.2317	1,568.85	82.2123	1,568.85	81.9125	1,568.85	80.7358	1,568.85	80.6156	1,568.85	79.0374	1,568.85	79.1794	1,568.85	77.1499	1,568.85	77.4507	1,568.85	75.2006	1,568.85	75.6963	1,568.85	73.4176	1,568.85	74.5793	1,568.85	71.7809	1,568.85	73.3095	1,568.85	70.1814	1,568.85	71.4372	1,568.85	68.9539	1,568.85	70.1128	1,568.85	69.1178	1,568.85	69.3214	1,568.85	70.6951	1,568.85	70.1072	1,568.85	69.5009	1,568.85	69.9083	1,568.85	58.0154	1,568.85	65.7691	1,568.85	64.1367	1,568.85	61.5628	1,568.85	66.6634
1,624.51	85.0516	1,624.51	84.4144	1,624.51	85.1132	1,624.51	83.6054	1,624.51	84.2337	1,624.51	82.6181	1,624.51	82.9246	1,624.51	81.5484	1,624.51	81.8937	1,624.51	80.1905	1,624.51	80.8971	1,624.51	78.1823	1,624.51	79.3297	1,624.51	76.1666	1,624.51	77.0612	1,624.51	74.8697	1,624.51	74.5098	1,624.51	73.7975	1,624.51	72.9878	1,624.51	72.9416	1,624.51	72.2699	1,624.51	72.0192	1,624.51	71.1305	1,624.51	68.4688	1,624.51	69.9736	1,624.51	67.5925	1,624.51	69.7506	1,624.51	70.3472	1,624.51	71.7541	1,624.51	69.4343	1,624.51	71.7411	1,624.51	63.0356	1,624.51	68.2959	1,624.51	63.2932	1,624.51	64.1396	1,624.51	67.5214
1,681.64	84.2136	1,681.64	83.8202	1,681.64	84.0544	1,681.64	82.8699	1,681.64	83.5926	1,681.64	81.6951	1,681.64	82.7414	1,681.64	80.5066	1,681.64	81.2354	1,681.64	79.0593	1,681.64	79.6988	1,681.64	77.6306	1,681.64	78.391	1,681.64	76.6052	1,681.64	76.6587	1,681.64	75.654	1,681.64	74.6851	1,681.64	74.5336	1,681.64	72.507	1,681.64	73.1601	1,681.64	71.3483	1,681.64	72.4983	1,681.64	71.3328	1,681.64	71.4523	1,681.64	68.7521	1,681.64	68.55	1,681.64	68.7435	1,681.64	71.4246	1,681.64	71.4689	1,681.64	70.7075	1,681.64	70.0151	1,681.64	59.616	1,681.64	65.9633	1,681.64	67.2447	1,681.64	66.2907	1,681.64	68.5208
1,741.7	84.6147	1,741.7	84.506	1,741.7	84.62	1,741.7	83.839	1,741.7	84.0624	1,741.7	82.3076	1,741.7	82.8878	1,741.7	80.2783	1,741.7	81.6889	1,741.7	78.576	1,741.7	80.3207	1,741.7	77.4302	1,741.7	79.1312	1,741.7	75.839	1,741.7	78.5265	1,741.7	74.3917	1,741.7	76.8321	1,741.7	73.5685	1,741.7	74.0807	1,741.7	71.5165	1,741.7	71.7578	1,741.7	70.4851	1,741.7	69.773	1,741.7	70.3694	1,741.7	69.1617	1,741.7	68.5872	1,741.7	65.5203	1,741.7	69.9421	1,741.7	65.5958	1,741.7	69.8126	1,741.7	70.1657	1,741.7	59.5451	1,741.7	67.2767	1,741.7	62.2364	1,741.7	39.3187	1,741.7	64.8301
1,803.22	85.0481	1,803.22	84.8399	1,803.22	84.6561	1,803.22	84.0837	1,803.22	84.1409	1,803.22	82.8068	1,803.22	83.33	1,803.22	81.1429	1,803.22	81.9573	1,803.22	80.0968	1,803.22	80.7686	1,803.22	78.9443	1,803.22	80.2823	1,803.22	76.4146	1,803.22	79.5397	1,803.22	74.8841	1,803.22	77.575	1,803.22	74.0086	1,803.22	75.106	1,803.22	71.3348	1,803.22	73.9224	1,803.22	70.0697	1,803.22	73.3707	1,803.22	69.8882	1,803.22	71.6462	1,803.22	69.7167	1,803.22	70.2314	1,803.22	69.9884	1,803.22	70.7046	1,803.22	72.4677	1,803.22	71.36	1,803.22	68.0727	1,803.22	70.9787	1,803.22	61.6321	1,803.22	64.983	1,803.22	63.5432
1,866.21	84.8428	1,866.21	84.3124	1,866.21	84.83	1,866.21	83.4009	1,866.21	84.3171	1,866.21	82.5925	1,866.21	83.384	1,866.21	81.7627	1,866.21	82.5922	1,866.21	80.4703	1,866.21	81.7144	1,866.21	79.4619	1,866.21	79.9241	1,866.21	78.5784	1,866.21	78.153	1,866.21	76.2483	1,866.21	76.8801	1,866.21	74.6587	1,866.21	75.5698	1,866.21	72.8034	1,866.21	74.4066	1,866.21	69.7693	1,866.21	72.9449	1,866.21	68.9824	1,866.21	71.9978	1,866.21	69.6845	1,866.21	68.8683	1,866.21	71.8124	1,866.21	70.7883	1,866.21	70.8634	1,866.21	73.4567	1,866.21	67.7758	1,866.21	68.2346	1,866.21	59.676	1,866.21	64.1651	1,866.21	56.694
1,932.13	83.8767	1,932.13	83.989	1,932.13	83.508	1,932.13	83.4701	1,932.13	83.4416	1,932.13	82.9069	1,932.13	83.0614	1,932.13	82.0445	1,932.13	81.92	1,932.13	80.3618	1,932.13	80.4238	1,932.13	78.676	1,932.13	79.1573	1,932.13	77.7599	1,932.13	77.6102	1,932.13	76.2582	1,932.13	75.3181	1,932.13	73.8537	1,932.13	73.8163	1,932.13	72.6283	1,932.13	71.1711	1,932.13	70.9305	1,932.13	67.1146	1,932.13	67.3943	1,932.13	67.8224	1,932.13	59.9565	1,932.13	67.786	1,932.13	66.9563	1,932.13	67.4622	1,932.13	70.7893	1,932.13	71.4202	1,932.13	66.9862	1,932.13	69.416	1,932.13	61.6473	1,932.13	56.567	1,932.13	66.7939
1,999.51	84.105	1,999.51	83.4031	1,999.51	84.6437	1,999.51	83.1045	1,999.51	83.5433	1,999.51	82.3947	1,999.51	81.7271	1,999.51	81.6058	1,999.51	81.3019	1,999.51	80.6438	1,999.51	81.2212	1,999.51	78.8411	1,999.51	79.6731	1,999.51	77.4532	1,999.51	77.4818	1,999.51	75.9399	1,999.51	75.7575	1,999.51	73.7532	1,999.51	73.6647	1,999.51	73.0773	1,999.51	71.5996	1,999.51	71.6058	1,999.51	70.1915	1,999.51	72.6633	1,999.51	68.9848	1,999.51	71.7003	1,999.51	68.6165	1,999.51	67.6743	1,999.51	63.1189	1,999.51	71.1157	1,999.51	70.1175	1,999.51	68.4192	1,999.51	71.9695	1,999.51	63.4592	1,999.51	63.7567	1,999.51	60.5095
2,069.82	84.3563	2,069.82	84.2909	2,069.82	84.15	2,069.82	83.9674	2,069.82	83.6808	2,069.82	82.9875	2,069.82	83.4749	2,069.82	81.7731	2,069.82	83.1966	2,069.82	80.6018	2,069.82	82.0601	2,069.82	78.9833	2,069.82	80.0982	2,069.82	77.1381	2,069.82	78.1527	2,069.82	75.8451	2,069.82	76.8495	2,069.82	73.9241	2,069.82	74.6515	2,069.82	72.4103	2,069.82	72.8177	2,069.82	69.9699	2,069.82	72.5031	2,069.82	70.1774	2,069.82	69.6207	2,069.82	72.5469	2,069.82	72.0745	2,069.82	70.9919	2,069.82	71.5216	2,069.82	71.4412	2,069.82	69.4271	2,069.82	68.573	2,069.82	70.9392	2,069.82	64.4886	2,069.82	67.9625	2,069.82	65.0352
2,143.07	83.9735	2,143.07	83.6661	2,143.07	83.6828	2,143.07	83.2261	2,143.07	83.0718	2,143.07	82.8523	2,143.07	82.8155	2,143.07	81.9322	2,143.07	82.4025	2,143.07	81.0903	2,143.07	81.3266	2,143.07	80.4726	2,143.07	80.216	2,143.07	78.0712	2,143.07	78.1695	2,143.07	76.0181	2,143.07	75.6235	2,143.07	74.7868	2,143.07	74.7175	2,143.07	72.5442	2,143.07	72.6967	2,143.07	70.9463	2,143.07	70.7673	2,143.07	68.2355	2,143.07	69.7388	2,143.07	69.6362	2,143.07	69.9391	2,143.07	69.7193	2,143.07	70.0821	2,143.07	71.2833	2,143.07	70.4245	2,143.07	69.0858	2,143.07	71.2716	2,143.07	69.4379	2,143.07	64.6849	2,143.07	70.2448
2,219.24	82.8703	2,219.24	82.6858	2,219.24	82.751	2,219.24	82.4554	2,219.24	82.803	2,219.24	82.4658	2,219.24	82.1858	2,219.24	81.6752	2,219.24	80.5572	2,219.24	80.6211	2,219.24	79.9333	2,219.24	79.4342	2,219.24	79.3942	2,219.24	77.6465	2,219.24	76.6787	2,219.24	75.5845	2,219.24	74.673	2,219.24	72.95	2,219.24	72.182	2,219.24	72.1461	2,219.24	69.3056	2,219.24	71.3351	2,219.24	69.6773	2,219.24	69.4881	2,219.24	67.687	2,219.24	70.577	2,219.24	65.2013	2,219.24	70.53	2,219.24	65.5755	2,219.24	71.3966	2,219.24	68.3792	2,219.24	68.0818	2,219.24	69.9147	2,219.24	64.7455	2,219.24	67.9649	2,219.24	63.9181
2,296.88	83.6756	2,296.88	83.5047	2,296.88	83.7447	2,296.88	83.5597	2,296.88	84.0074	2,296.88	83.0913	2,296.88	84.057	2,296.88	81.8463	2,296.88	83.2836	2,296.88	80.484	2,296.88	82.0391	2,296.88	79.1503	2,296.88	80.2172	2,296.88	76.8535	2,296.88	78.3134	2,296.88	75.0445	2,296.88	76.0427	2,296.88	73.1596	2,296.88	74.4279	2,296.88	70.7818	2,296.88	73.0311	2,296.88	71.2519	2,296.88	70.5669	2,296.88	68.9927	2,296.88	70.197	2,296.88	67.898	2,296.88	68.9445	2,296.88	66.2322	2,296.88	69.4708	2,296.88	70.8786	2,296.88	65.9413	2,296.88	69.7002	2,296.88	69.5802	2,296.88	61.4196	2,296.88	65.7362	2,296.88	66.8314
2,378.91	84.7297	2,378.91	84.6909	2,378.91	84.497	2,378.91	84.2941	2,378.91	84.1751	2,378.91	83.7636	2,378.91	83.6956	2,378.91	82.8966	2,378.91	82.8674	2,378.91	81.0691	2,378.91	81.4884	2,378.91	79.4605	2,378.91	79.6727	2,378.91	77.2733	2,378.91	78.7517	2,378.91	75.5579	2,378.91	76.8945	2,378.91	73.8386	2,378.91	74.9366	2,378.91	69.291	2,378.91	73.7649	2,378.91	67.2778	2,378.91	71.1976	2,378.91	66.3376	2,378.91	69.7709	2,378.91	70.7362	2,378.91	68.0867	2,378.91	67.1506	2,378.91	66.6112	2,378.91	68.8492	2,378.91	67.2037	2,378.91	70.1072	2,378.91	67.6571	2,378.91	63.9296	2,378.91	56.5477	2,378.91	65.4642
2,462.4	84.0658	2,462.4	84.2582	2,462.4	83.9614	2,462.4	84.0864	2,462.4	83.7912	2,462.4	83.6244	2,462.4	83.2941	2,462.4	82.6904	2,462.4	82.7242	2,462.4	81.2662	2,462.4	81.2856	2,462.4	79.6764	2,462.4	79.2728	2,462.4	77.5018	2,462.4	77.7137	2,462.4	75.5576	2,462.4	75.2697	2,462.4	73.7603	2,462.4	73.531	2,462.4	71.1197	2,462.4	72.3585	2,462.4	70.0012	2,462.4	69.2175	2,462.4	68.0998	2,462.4	68.7998	2,462.4	70.1035	2,462.4	66.9137	2,462.4	71.0191	2,462.4	69.259	2,462.4	69.5936	2,462.4	67.7238	2,462.4	68.8157	2,462.4	69.1645	2,462.4	64.1361	2,462.4	62.1683	2,462.4	64.0726
2,548.83	84.1128	2,548.83	84.1093	2,548.83	84.1185	2,548.83	83.9439	2,548.83	83.8936	2,548.83	83.2067	2,548.83	83.3171	2,548.83	82.0551	2,548.83	82.5441	2,548.83	80.2492	2,548.83	81.6373	2,548.83	78.6091	2,548.83	79.4961	2,548.83	76.9043	2,548.83	77.3376	2,548.83	74.4965	2,548.83	75.53	2,548.83	72.9014	2,548.83	72.8985	2,548.83	70.3776	2,548.83	71.8198	2,548.83	70.7659	2,548.83	69.0265	2,548.83	68.5726	2,548.83	68.1392	2,548.83	66.8791	2,548.83	67.4406	2,548.83	70.2914	2,548.83	69.3558	2,548.83	70.1795	2,548.83	68.77	2,548.83	69.8633	2,548.83	68.6071	2,548.83	67.5081	2,548.83	64.4846	2,548.83	60.9901
2,639.65	84.8112	2,639.65	84.5551	2,639.65	84.8462	2,639.65	84.1846	2,639.65	84.7143	2,639.65	83.3882	2,639.65	84.2849	2,639.65	82.2197	2,639.65	83.1226	2,639.65	80.4066	2,639.65	82.061	2,639.65	78.2793	2,639.65	80.4473	2,639.65	76.4931	2,639.65	78.3194	2,639.65	73.7463	2,639.65	76.1473	2,639.65	71.6364	2,639.65	73.3574	2,639.65	70.0745	2,639.65	72.2449	2,639.65	67.5293	2,639.65	70.4886	2,639.65	67.7725	2,639.65	69.2381	2,639.65	67.2634	2,639.65	67.3579	2,639.65	69.051	2,639.65	69.943	2,639.65	68.9567	2,639.65	69.4825	2,639.65	67.5707	2,639.65	68.9191	2,639.65	55.2951	2,639.65	66.9679	2,639.65	58.956
2,731.93	84.962	2,731.93	84.8882	2,731.93	85.0399	2,731.93	84.5541	2,731.93	85.085	2,731.93	83.8086	2,731.93	84.5446	2,731.93	82.5118	2,731.93	83.3754	2,731.93	81.0561	2,731.93	81.9033	2,731.93	78.9616	2,731.93	80.124	2,731.93	76.9995	2,731.93	78.2038	2,731.93	74.565	2,731.93	76.3176	2,731.93	72.0655	2,731.93	73.959	2,731.93	70.7216	2,731.93	71.8507	2,731.93	68.3056	2,731.93	69.8531	2,731.93	68.6713	2,731.93	69.8044	2,731.93	65.369	2,731.93	67.8345	2,731.93	69.14	2,731.93	69.8326	2,731.93	67.6613	2,731.93	69.5379	2,731.93	68.1675	2,731.93	68.5564	2,731.93	60.1277	2,731.93	67.0846	2,731.93	61.7173
2,828.61	84.8561	2,828.61	84.7238	2,828.61	84.9656	2,828.61	84.4163	2,828.61	84.8588	2,828.61	83.8896	2,828.61	84.5829	2,828.61	82.535	2,828.61	83.9202	2,828.61	80.8288	2,828.61	82.4624	2,828.61	79.1957	2,828.61	80.4437	2,828.61	77.3116	2,828.61	78.425	2,828.61	74.9289	2,828.61	76.6395	2,828.61	72.8756	2,828.61	74.4488	2,828.61	71.5106	2,828.61	72.5815	2,828.61	69.5175	2,828.61	70.0279	2,828.61	68.8918	2,828.61	69.6662	2,828.61	68.4418	2,828.61	66.2433	2,828.61	71.3295	2,828.61	68.6688	2,828.61	66.6649	2,828.61	71.0365	2,828.61	67.4063	2,828.61	69.0839	2,828.61	60.8039	2,828.61	68.3803	2,828.61	61.1746
2,928.22	84.8867	2,928.22	84.8063	2,928.22	84.9485	2,928.22	84.5754	2,928.22	84.7928	2,928.22	84.1474	2,928.22	84.5838	2,928.22	83.1322	2,928.22	84.0244	2,928.22	81.4315	2,928.22	82.8216	2,928.22	79.4403	2,928.22	80.9414	2,928.22	77.4826	2,928.22	78.5698	2,928.22	75.0477	2,928.22	76.7037	2,928.22	72.6633	2,928.22	74.6676	2,928.22	71.3659	2,928.22	73.0389	2,928.22	69.0632	2,928.22	70.8638	2,928.22	70.2566	2,928.22	69.6685	2,928.22	66.1885	2,928.22	68.8357	2,928.22	70.353	2,928.22	68.6993	2,928.22	68.3071	2,928.22	71.1902	2,928.22	68.6238	2,928.22	68.7353	2,928.22	58.2323	2,928.22	67.7965	2,928.22	59.6837
3,030.76	84.5125	3,030.76	84.5336	3,030.76	84.6716	3,030.76	84.2643	3,030.76	84.6753	3,030.76	83.6609	3,030.76	84.3898	3,030.76	82.9124	3,030.76	83.6881	3,030.76	81.5791	3,030.76	82.4633	3,030.76	79.2114	3,030.76	80.7705	3,030.76	77.1981	3,030.76	78.6337	3,030.76	75.0798	3,030.76	76.5852	3,030.76	72.5575	3,030.76	74.1236	3,030.76	71.5924	3,030.76	72.3134	3,030.76	69.2039	3,030.76	69.8391	3,030.76	70.7465	3,030.76	68.864	3,030.76	65.5254	3,030.76	69.0626	3,030.76	70.7721	3,030.76	68.9064	3,030.76	69.5172	3,030.76	70.9715	3,030.76	68.9898	3,030.76	67.4694	3,030.76	60.8357	3,030.76	66.7067	3,030.76	55.1922
3,137.7	84.5402	3,137.7	84.6697	3,137.7	84.6329	3,137.7	84.5409	3,137.7	84.7787	3,137.7	83.8164	3,137.7	84.5638	3,137.7	82.9026	3,137.7	83.8125	3,137.7	81.6783	3,137.7	82.7303	3,137.7	79.4614	3,137.7	81.0626	3,137.7	77.0965	3,137.7	78.9969	3,137.7	74.9724	3,137.7	77.1367	3,137.7	72.012	3,137.7	74.7306	3,137.7	71.4121	3,137.7	72.9299	3,137.7	67.9969	3,137.7	70.9583	3,137.7	68.6935	3,137.7	68.8658	3,137.7	67.1193	3,137.7	68.4258	3,137.7	71.2675	3,137.7	69.5794	3,137.7	68.434	3,137.7	71.4877	3,137.7	67.1063	3,137.7	66.8175	3,137.7	53.4872	3,137.7	67.538	3,137.7	57.2471
3,249.02	84.1904	3,249.02	84.2952	3,249.02	84.2494	3,249.02	84.2475	3,249.02	84.5979	3,249.02	83.7699	3,249.02	84.5136	3,249.02	82.6908	3,249.02	83.6655	3,249.02	81.6137	3,249.02	82.401	3,249.02	80.1415	3,249.02	81.278	3,249.02	77.7111	3,249.02	79.3341	3,249.02	75.5302	3,249.02	77.1668	3,249.02	73.2581	3,249.02	75.101	3,249.02	71.6397	3,249.02	73.1493	3,249.02	68.6076	3,249.02	70.9133	3,249.02	68.5969	3,249.02	69.1905	3,249.02	64.9293	3,249.02	69.2207	3,249.02	70.6459	3,249.02	68.378	3,249.02	68.3816	3,249.02	72.4401	3,249.02	66.7897	3,249.02	66.8444	3,249.02	57.7427	3,249.02	66.7752	3,249.02	56.5649
3,363.28	84.1556	3,363.28	84.1423	3,363.28	84.3952	3,363.28	84.08	3,363.28	84.5868	3,363.28	83.7384	3,363.28	84.5794	3,363.28	82.675	3,363.28	83.9485	3,363.28	81.1359	3,363.28	82.6477	3,363.28	79.8902	3,363.28	81.3507	3,363.28	77.728	3,363.28	79.7601	3,363.28	75.8118	3,363.28	77.5882	3,363.28	73.4434	3,363.28	75.2377	3,363.28	72.2142	3,363.28	73.1941	3,363.28	69.3658	3,363.28	70.8497	3,363.28	69.2819	3,363.28	68.502	3,363.28	64.9544	3,363.28	69.5237	3,363.28	70.4125	3,363.28	68.696	3,363.28	69.0721	3,363.28	72.6316	3,363.28	68.8039	3,363.28	67.7514	3,363.28	58.307	3,363.28	67.777	3,363.28	57.3391
3,481.93	84.3919	3,481.93	84.3038	3,481.93	84.4472	3,481.93	84.1098	3,481.93	84.3166	3,481.93	83.7127	3,481.93	84.3202	3,481.93	82.7877	3,481.93	83.955	3,481.93	81.5483	3,481.93	83.0556	3,481.93	80.1452	3,481.93	81.7503	3,481.93	78.0976	3,481.93	80.076	3,481.93	76.4197	3,481.93	78.2142	3,481.93	73.5095	3,481.93	76.1338	3,481.93	71.8541	3,481.93	73.6819	3,481.93	68.3787	3,481.93	71.9671	3,481.93	68.8886	3,481.93	69.854	3,481.93	67.4333	3,481.93	70.1312	3,481.93	70.4546	3,481.93	67.9135	3,481.93	68.729	3,481.93	72.6571	3,481.93	68.2257	3,481.93	66.9392	3,481.93	59.2177	3,481.93	68.0127	3,481.93	57.6964
3,604.98	84.8634	3,604.98	84.4559	3,604.98	84.6847	3,604.98	84.1145	3,604.98	84.6751	3,604.98	84.1355	3,604.98	84.3943	3,604.98	83.3701	3,604.98	84.0531	3,604.98	82.209	3,604.98	83.056	3,604.98	80.6845	3,604.98	81.9818	3,604.98	78.359	3,604.98	80.3663	3,604.98	76.3472	3,604.98	78.0411	3,604.98	73.736	3,604.98	76.0216	3,604.98	71.8038	3,604.98	73.8267	3,604.98	69.5573	3,604.98	72.1694	3,604.98	67.8542	3,604.98	68.4802	3,604.98	67.8154	3,604.98	70.2545	3,604.98	69.3634	3,604.98	68.6035	3,604.98	68.2329	3,604.98	72.2662	3,604.98	67.2935	3,604.98	67.5456	3,604.98	60.2584	3,604.98	67.3	3,604.98	59.1582
3,732.42	84.661	3,732.42	84.4118	3,732.42	84.7636	3,732.42	83.8706	3,732.42	84.135	3,732.42	83.1783	3,732.42	83.8233	3,732.42	82.8786	3,732.42	83.6493	3,732.42	81.6817	3,732.42	83.2147	3,732.42	80.5905	3,732.42	81.8588	3,732.42	78.9846	3,732.42	79.7982	3,732.42	76.723	3,732.42	78.0551	3,732.42	74.1243	3,732.42	75.9812	3,732.42	72.0795	3,732.42	72.814	3,732.42	70.3467	3,732.42	71.1563	3,732.42	69.5612	3,732.42	69.1571	3,732.42	69.4392	3,732.42	69.007	3,732.42	69.5764	3,732.42	68.7905	3,732.42	69.6484	3,732.42	71.2058	3,732.42	68.0732	3,732.42	67.8604	3,732.42	59.4347	3,732.42	66.6029	3,732.42	56.8778
3,864.26	84.8598	3,864.26	84.5307	3,864.26	84.4088	3,864.26	84.0513	3,864.26	84.0717	3,864.26	83.9632	3,864.26	83.549	3,864.26	83.0187	3,864.26	83.4047	3,864.26	82.7388	3,864.26	83.0002	3,864.26	81.0814	3,864.26	82.185	3,864.26	79.0601	3,864.26	80.3043	3,864.26	76.8657	3,864.26	78.0594	3,864.26	74.0659	3,864.26	76.1241	3,864.26	72.4179	3,864.26	73.886	3,864.26	71.2178	3,864.26	72.0345	3,864.26	69.5379	3,864.26	69.6049	3,864.26	69.2041	3,864.26	69.5644	3,864.26	68.8074	3,864.26	69.0136	3,864.26	69.9124	3,864.26	71.1093	3,864.26	67.0415	3,864.26	68.34	3,864.26	56.3055	3,864.26	65.8177	3,864.26	55.2836
4,000.49	84.3724	4,000.49	83.4365	4,000.49	84.2135	4,000.49	82.306	4,000.49	83.1767	4,000.49	82.2608	4,000.49	82.4882	4,000.49	82.4479	4,000.49	82.3829	4,000.49	81.5102	4,000.49	82.234	4,000.49	80.8147	4,000.49	81.5144	4,000.49	78.6593	4,000.49	79.7305	4,000.49	75.7927	4,000.49	77.7276	4,000.49	74.0273	4,000.49	75.0393	4,000.49	72.0351	4,000.49	72.8118	4,000.49	71.7853	4,000.49	70.2401	4,000.49	70.0538	4,000.49	68.0595	4,000.49	69.3406	4,000.49	68.7	4,000.49	68.6984	4,000.49	69.0484	4,000.49	69.1794	4,000.49	71.1842	4,000.49	67.2106	4,000.49	67.8568	4,000.49	53.9142	4,000.49	66.6363	4,000.49	57.2874
4,141.11	84.265	4,141.11	83.8045	4,141.11	83.785	4,141.11	82.6747	4,141.11	82.7723	4,141.11	81.4869	4,141.11	82.1487	4,141.11	81.3606	4,141.11	82.7088	4,141.11	81.8114	4,141.11	82.5621	4,141.11	79.5723	4,141.11	81.3328	4,141.11	77.8663	4,141.11	79.5724	4,141.11	75.7194	4,141.11	77.3649	4,141.11	72.5045	4,141.11	75.3774	4,141.11	69.6292	4,141.11	73.1065	4,141.11	68.9667	4,141.11	71.3831	4,141.11	69.2607	4,141.11	69.3564	4,141.11	69.313	4,141.11	68.729	4,141.11	67.1695	4,141.11	69.014	4,141.11	68.1738	4,141.11	70.8144	4,141.11	66.7108	4,141.11	67.8951	4,141.11	60.083	4,141.11	65.7917	4,141.11	57.6593
4,287.6	84.1006	4,287.6	83.0091	4,287.6	83.8485	4,287.6	82.0047	4,287.6	82.8328	4,287.6	82.3038	4,287.6	81.8058	4,287.6	82.2948	4,287.6	81.3647	4,287.6	81.2146	4,287.6	81.408	4,287.6	80.584	4,287.6	81.1634	4,287.6	78.3354	4,287.6	79.6861	4,287.6	75.6043	4,287.6	77.5249	4,287.6	74.079	4,287.6	74.7116	4,287.6	71.0704	4,287.6	73.3971	4,287.6	70.2622	4,287.6	70.632	4,287.6	68.3657	4,287.6	68.6878	4,287.6	68.4176	4,287.6	68.3975	4,287.6	68.5346	4,287.6	68.9006	4,287.6	69.1357	4,287.6	70.5056	4,287.6	66.2135	4,287.6	68.7301	4,287.6	56.3722	4,287.6	65.198	4,287.6	56.7144
4,438.48	84.4797	4,438.48	83.5321	4,438.48	84.4492	4,438.48	82.4572	4,438.48	83.263	4,438.48	81.5478	4,438.48	82.4294	4,438.48	81.3634	4,438.48	82.701	4,438.48	81.5761	4,438.48	82.7408	4,438.48	79.4917	4,438.48	81.0655	4,438.48	77.3131	4,438.48	79.5197	4,438.48	74.7898	4,438.48	77.2286	4,438.48	71.4506	4,438.48	74.7913	4,438.48	68.2948	4,438.48	72.3565	4,438.48	68.3413	4,438.48	70.8352	4,438.48	66.381	4,438.48	69.3318	4,438.48	67.4762	4,438.48	68.6212	4,438.48	65.6573	4,438.48	68.6107	4,438.48	68.9119	4,438.48	69.9114	4,438.48	64.6819	4,438.48	68.5789	4,438.48	58.8016	4,438.48	64.9604	4,438.48	61.9079
4,595.21	84.3457	4,595.21	83.5715	4,595.21	83.9094	4,595.21	82.6131	4,595.21	83.2225	4,595.21	82.6846	4,595.21	82.3299	4,595.21	82.7663	4,595.21	82.058	4,595.21	81.8849	4,595.21	81.6894	4,595.21	80.5067	4,595.21	81.4852	4,595.21	78.4602	4,595.21	79.5514	4,595.21	76.416	4,595.21	77.5266	4,595.21	74.9819	4,595.21	74.7411	4,595.21	71.0123	4,595.21	72.0887	4,595.21	68.6687	4,595.21	70.0703	4,595.21	69.841	4,595.21	69.2619	4,595.21	68.0741	4,595.21	68.334	4,595.21	66.0057	4,595.21	67.9938	4,595.21	68.8859	4,595.21	70.4633	4,595.21	66.1355	4,595.21	68.2802	4,595.21	57.7252	4,595.21	65.1829	4,595.21	56.0871
4,756.35	84.6139	4,756.35	84.1567	4,756.35	84.673	4,756.35	83.2645	4,756.35	83.7982	4,756.35	82.352	4,756.35	83.0177	4,756.35	82.3546	4,756.35	82.9019	4,756.35	82.0713	4,756.35	82.9906	4,756.35	80.8357	4,756.35	81.656	4,756.35	78.326	4,756.35	79.755	4,756.35	75.3776	4,756.35	77.5923	4,756.35	71.7956	4,756.35	75.0193	4,756.35	68.8333	4,756.35	72.0122	4,756.35	68.5774	4,756.35	69.6061	4,756.35	67.5981	4,756.35	68.3249	4,756.35	68.9674	4,756.35	68.3173	4,756.35	65.2427	4,756.35	67.4068	4,756.35	68.6917	4,756.35	70.0676	4,756.35	64.5461	4,756.35	68.6468	4,756.35	58.3749	4,756.35	63.6919	4,756.35	57.4882
4,924.8	84.7652	4,924.8	84.3038	4,924.8	84.6648	4,924.8	83.6622	4,924.8	84.0546	4,924.8	83.1264	4,924.8	83.0965	4,924.8	82.4535	4,924.8	82.8033	4,924.8	81.5349	4,924.8	82.4011	4,924.8	80.2096	4,924.8	81.8124	4,924.8	78.4529	4,924.8	80.1434	4,924.8	75.8652	4,924.8	77.9601	4,924.8	74.0283	4,924.8	74.896	4,924.8	71.3841	4,924.8	73.3239	4,924.8	68.5224	4,924.8	70.1371	4,924.8	68.6083	4,924.8	68.3288	4,924.8	68.1341	4,924.8	68.1456	4,924.8	66.3189	4,924.8	65.8103	4,924.8	70.2229	4,924.8	68.7734	4,924.8	65.0732	4,924.8	68.0094	4,924.8	51.7363	4,924.8	64.4612	4,924.8	60.3989
5,097.66	84.3046	5,097.66	84.055	5,097.66	84.4441	5,097.66	83.5028	5,097.66	84.0308	5,097.66	82.7758	5,097.66	83.293	5,097.66	82.5999	5,097.66	82.7438	5,097.66	82.1137	5,097.66	82.5445	5,097.66	80.904	5,097.66	81.5067	5,097.66	78.6185	5,097.66	80.0399	5,097.66	76.2588	5,097.66	77.6241	5,097.66	72.4937	5,097.66	74.885	5,097.66	70.6328	5,097.66	71.9704	5,097.66	67.6895	5,097.66	69.5073	5,097.66	66.9675	5,097.66	68.9362	5,097.66	67.5418	5,097.66	68.3128	5,097.66	65.1346	5,097.66	66.6603	5,097.66	68.8307	5,097.66	67.7418	5,097.66	64.0606	5,097.66	68.3108	5,097.66	50.0995	5,097.66	60.7378	5,097.66	58.3176
5,277.83	84.116	5,277.83	83.8688	5,277.83	84.2735	5,277.83	83.5414	5,277.83	83.7001	5,277.83	82.7932	5,277.83	82.8082	5,277.83	81.8276	5,277.83	82.2338	5,277.83	81.2639	5,277.83	82.1892	5,277.83	79.8831	5,277.83	81.4623	5,277.83	77.5415	5,277.83	79.5564	5,277.83	74.9206	5,277.83	77.7118	5,277.83	72.5111	5,277.83	74.662	5,277.83	69.9671	5,277.83	71.8203	5,277.83	68.6566	5,277.83	68.6042	5,277.83	67.2093	5,277.83	67.3114	5,277.83	68.294	5,277.83	68.1712	5,277.83	66.4853	5,277.83	65.9179	5,277.83	68.0491	5,277.83	67.4365	5,277.83	63.6318	5,277.83	67.6035	5,277.83	45.7793	5,277.83	60.933	5,277.83	59.0738
5,463.87	82.9926	5,463.87	83.115	5,463.87	83.2894	5,463.87	82.4667	5,463.87	83.4899	5,463.87	81.631	5,463.87	82.5952	5,463.87	81.1011	5,463.87	82.1242	5,463.87	81.1455	5,463.87	82.073	5,463.87	80.1632	5,463.87	81.1751	5,463.87	77.9831	5,463.87	79.6368	5,463.87	75.8529	5,463.87	76.992	5,463.87	72.4047	5,463.87	74.2764	5,463.87	69.2662	5,463.87	72.3497	5,463.87	66.8114	5,463.87	69.0763	5,463.87	66.0023	5,463.87	66.7242	5,463.87	66.1565	5,463.87	66.9788	5,463.87	65.4143	5,463.87	68.5274	5,463.87	68.7189	5,463.87	67.5113	5,463.87	62.9792	5,463.87	67.3501	5,463.87	53.7164	5,463.87	59.772	5,463.87	59.5618
5,657.23	82.5124	5,657.23	82.6482	5,657.23	82.8643	5,657.23	82.8268	5,657.23	82.5602	5,657.23	81.6797	5,657.23	81.8552	5,657.23	81.358	5,657.23	80.9233	5,657.23	81.2242	5,657.23	80.8818	5,657.23	79.7775	5,657.23	80.4647	5,657.23	77.2786	5,657.23	78.7235	5,657.23	74.0408	5,657.23	76.3732	5,657.23	70.9091	5,657.23	73.3279	5,657.23	68.1942	5,657.23	70.9386	5,657.23	65.3536	5,657.23	67.3353	5,657.23	62.5535	5,657.23	65.449	5,657.23	65.8433	5,657.23	64.9005	5,657.23	65.7388	5,657.23	66.6156	5,657.23	67.2484	5,657.23	66.3495	5,657.23	59.7048	5,657.23	65.8721	5,657.23	50.9904	5,657.23	59.504	5,657.23	58.562
5,856.45	82.251	5,856.45	82.8439	5,856.45	82.2202	5,856.45	82.2114	5,856.45	82.4941	5,856.45	80.9049	5,856.45	81.6002	5,856.45	80.3245	5,856.45	80.6452	5,856.45	80.2609	5,856.45	80.9198	5,856.45	79.0525	5,856.45	80.2136	5,856.45	76.799	5,856.45	78.3656	5,856.45	74.2437	5,856.45	75.6739	5,856.45	71.5065	5,856.45	72.7119	5,856.45	68.4547	5,856.45	70.0089	5,856.45	65.6925	5,856.45	66.1577	5,856.45	65.2041	5,856.45	65.2581	5,856.45	64.3264	5,856.45	64.4433	5,856.45	65.5452	5,856.45	66.4444	5,856.45	66.6496	5,856.45	65.4085	5,856.45	58.8021	5,856.45	65.4964	5,856.45	54.1687	5,856.45	58.1836	5,856.45	57.8878
6,062.99	81.6644	6,062.99	82.2003	6,062.99	82.077	6,062.99	81.7261	6,062.99	82.2753	6,062.99	80.2949	6,062.99	81.1883	6,062.99	80.2447	6,062.99	80.1046	6,062.99	80.85	6,062.99	80.4934	6,062.99	79.9268	6,062.99	80.2902	6,062.99	77.2978	6,062.99	78.5543	6,062.99	74.8464	6,062.99	76.1459	6,062.99	70.8756	6,062.99	72.7017	6,062.99	68.96	6,062.99	69.4731	6,062.99	63.2135	6,062.99	66.9446	6,062.99	64.4829	6,062.99	64.841	6,062.99	64.311	6,062.99	63.8779	6,062.99	65.1131	6,062.99	65.2278	6,062.99	65.0562	6,062.99	66.4799	6,062.99	60.4194	6,062.99	65.6319	6,062.99	52.9239	6,062.99	59.9454	6,062.99	58.0782
6,276.86	81.2891	6,276.86	81.7803	6,276.86	81.6399	6,276.86	81.6492	6,276.86	81.7881	6,276.86	80.4701	6,276.86	80.8403	6,276.86	80.3353	6,276.86	79.5877	6,276.86	80.939	6,276.86	80.5942	6,276.86	79.9569	6,276.86	80.5223	6,276.86	78.1312	6,276.86	79.0608	6,276.86	74.4346	6,276.86	76.3726	6,276.86	69.8756	6,276.86	72.6313	6,276.86	67.96	6,276.86	69.2235	6,276.86	65.0295	6,276.86	66.3894	6,276.86	64.7546	6,276.86	65.351	6,276.86	64.4115	6,276.86	64.6676	6,276.86	65.66	6,276.86	66.0101	6,276.86	64.5011	6,276.86	66.1075	6,276.86	61.0228	6,276.86	65.605	6,276.86	48.1729	6,276.86	59.8887	6,276.86	57.2127
6,498.05	81.5443	6,498.05	81.9988	6,498.05	81.6249	6,498.05	81.5358	6,498.05	81.8193	6,498.05	79.8818	6,498.05	80.7741	6,498.05	79.707	6,498.05	79.7829	6,498.05	80.2645	6,498.05	80.3595	6,498.05	79.1423	6,498.05	80.1595	6,498.05	77.1481	6,498.05	78.6169	6,498.05	74.0568	6,498.05	76.0426	6,498.05	70.4407	6,498.05	72.9543	6,498.05	68.5131	6,498.05	69.7523	6,498.05	64.6624	6,498.05	66.7901	6,498.05	65.2317	6,498.05	63.9298	6,498.05	64.6453	6,498.05	64.2048	6,498.05	65.5384	6,498.05	65.0412	6,498.05	64.4583	6,498.05	65.2178	6,498.05	60.3864	6,498.05	65.0196	6,498.05	50.1854	6,498.05	59.0226	6,498.05	56.8666
6,726.56	81.8952	6,726.56	81.5198	6,726.56	81.932	6,726.56	80.9967	6,726.56	81.5025	6,726.56	79.3951	6,726.56	80.8232	6,726.56	79.1205	6,726.56	79.8886	6,726.56	79.4973	6,726.56	79.9828	6,726.56	78.4387	6,726.56	79.7577	6,726.56	76.2988	6,726.56	78.0835	6,726.56	73.4826	6,726.56	75.2259	6,726.56	69.9193	6,726.56	72.8598	6,726.56	67.1256	6,726.56	69.2689	6,726.56	64.3318	6,726.56	65.5959	6,726.56	64.8786	6,726.56	63.7162	6,726.56	62.9136	6,726.56	63.1433	6,726.56	64.9166	6,726.56	64.4127	6,726.56	64.7368	6,726.56	64.5623	6,726.56	59.8302	6,726.56	63.3326	6,726.56	52.7851	6,726.56	59.1293	6,726.56	58.1207
6,963.87	81.6996	6,963.87	80.6931	6,963.87	81.4896	6,963.87	80.4317	6,963.87	80.8467	6,963.87	79.3949	6,963.87	80.6525	6,963.87	78.5078	6,963.87	79.3573	6,963.87	78.1829	6,963.87	78.6162	6,963.87	77.1447	6,963.87	77.9671	6,963.87	74.4888	6,963.87	76.5534	6,963.87	72.406	6,963.87	74.5974	6,963.87	69.5822	6,963.87	72.1111	6,963.87	65.5422	6,963.87	69.4489	6,963.87	63.0328	6,963.87	65.283	6,963.87	61.354	6,963.87	61.4773	6,963.87	61.6729	6,963.87	60.7216	6,963.87	64.2759	6,963.87	63.7823	6,963.87	63.478	6,963.87	62.6867	6,963.87	56.9855	6,963.87	62.7856	6,963.87	52.9714	6,963.87	56.1859	6,963.87	57.8032
7,209.96	81.4233	7,209.96	80.2716	7,209.96	81.1588	7,209.96	80.2192	7,209.96	80.3855	7,209.96	79.0878	7,209.96	80.1062	7,209.96	77.2294	7,209.96	78.5609	7,209.96	76.984	7,209.96	77.8397	7,209.96	76.7498	7,209.96	77.5261	7,209.96	74.4228	7,209.96	76.3603	7,209.96	72.1356	7,209.96	74.6199	7,209.96	68.702	7,209.96	71.7897	7,209.96	65.9904	7,209.96	67.8034	7,209.96	62.2525	7,209.96	64.9324	7,209.96	59	7,209.96	61.3995	7,209.96	60.3166	7,209.96	60.5094	7,209.96	63.0114	7,209.96	62.3867	7,209.96	60.0552	7,209.96	62.8296	7,209.96	57.5437	7,209.96	60.8444	7,209.96	51.1459	7,209.96	54.2368	7,209.96	55.949
7,464.84	80.7578	7,464.84	80.3648	7,464.84	80.7243	7,464.84	80.2425	7,464.84	80.6167	7,464.84	78.3144	7,464.84	79.7644	7,464.84	76.7043	7,464.84	77.7625	7,464.84	76.9034	7,464.84	77.4915	7,464.84	76.4983	7,464.84	77.8173	7,464.84	74.3646	7,464.84	76.5495	7,464.84	71.2901	7,464.84	74.1548	7,464.84	67.2091	7,464.84	70.513	7,464.84	65.0439	7,464.84	66.705	7,464.84	61.3664	7,464.84	63.8977	7,464.84	59.3278	7,464.84	61.1221	7,464.84	59.2633	7,464.84	60.1093	7,464.84	62.7214	7,464.84	60.5689	7,464.84	59.6509	7,464.84	62.5728	7,464.84	54.9391	7,464.84	60.5575	7,464.84	51.6052	7,464.84	50.9532	7,464.84	53.1224
7,727.05	80.9017	7,727.05	80.7874	7,727.05	80.9212	7,727.05	80.365	7,727.05	80.9608	7,727.05	78.124	7,727.05	80.1839	7,727.05	76.9747	7,727.05	78.1013	7,727.05	76.7268	7,727.05	77.2532	7,727.05	75.8965	7,727.05	77.4	7,727.05	73.4602	7,727.05	75.6961	7,727.05	70.1399	7,727.05	72.5838	7,727.05	66.3427	7,727.05	68.7767	7,727.05	63.2191	7,727.05	65.3061	7,727.05	60.0519	7,727.05	62.1679	7,727.05	57.9206	7,727.05	58.4991	7,727.05	57.1602	7,727.05	59.9548	7,727.05	61.1802	7,727.05	59.0432	7,727.05	58.2078	7,727.05	61.5499	7,727.05	54.4074	7,727.05	58.8822	7,727.05	49.9493	7,727.05	49.929	7,727.05	52.1925
7,999.51	81.6512	7,999.51	81.3174	7,999.51	81.5779	7,999.51	80.8482	7,999.51	81.2281	7,999.51	78.7723	7,999.51	80.4944	7,999.51	77.3289	7,999.51	78.5187	7,999.51	76.6908	7,999.51	77.4215	7,999.51	75.719	7,999.51	76.9471	7,999.51	72.9608	7,999.51	75.0201	7,999.51	70.2572	7,999.51	72.0551	7,999.51	66.7003	7,999.51	68.7788	7,999.51	61.758	7,999.51	65.4626	7,999.51	60.2439	7,999.51	61.7319	7,999.51	56.9636	7,999.51	57.5734	7,999.51	56.345	7,999.51	58.6802	7,999.51	60.7765	7,999.51	57.9828	7,999.51	57.3089	7,999.51	61.0839	7,999.51	50.763	7,999.51	59.1056	7,999.51	49.2651	7,999.51	50.0299	7,999.51	50.8013
8,282.23	82.2958	8,282.23	81.725	8,282.23	82.3197	8,282.23	81.3086	8,282.23	81.7654	8,282.23	79.4667	8,282.23	80.9993	8,282.23	77.6039	8,282.23	78.9263	8,282.23	76.7874	8,282.23	77.5716	8,282.23	75.7034	8,282.23	76.9693	8,282.23	72.8683	8,282.23	75.0247	8,282.23	69.9713	8,282.23	72.3108	8,282.23	66.6871	8,282.23	68.6264	8,282.23	62.2892	8,282.23	65.5619	8,282.23	60.0028	8,282.23	61.0542	8,282.23	56.0604	8,282.23	57.8432	8,282.23	57.1627	8,282.23	57.3741	8,282.23	59.7079	8,282.23	57.3526	8,282.23	55.44	8,282.23	60.436	8,282.23	51.0234	8,282.23	58.6704	8,282.23	49.2709	8,282.23	52.339	8,282.23	51.4238
8,573.73	82.714	8,573.73	81.9827	8,573.73	82.7405	8,573.73	81.4016	8,573.73	82.0394	8,573.73	79.5698	8,573.73	81.1015	8,573.73	77.6625	8,573.73	79.0219	8,573.73	76.7358	8,573.73	77.7258	8,573.73	75.7031	8,573.73	76.6798	8,573.73	73.1614	8,573.73	74.9245	8,573.73	69.902	8,573.73	72.256	8,573.73	66.1266	8,573.73	68.4652	8,573.73	62.8559	8,573.73	65.0779	8,573.73	58.8911	8,573.73	61.0336	8,573.73	54.4669	8,573.73	57.6297	8,573.73	56.4913	8,573.73	56.6787	8,573.73	59.2403	8,573.73	56.2005	8,573.73	53.9566	8,573.73	59.8678	8,573.73	49.7332	8,573.73	56.8105	8,573.73	49.2572	8,573.73	53.6394	8,573.73	46.9875
8,876.95	82.8473	8,876.95	82.0587	8,876.95	82.7636	8,876.95	81.2654	8,876.95	82.0289	8,876.95	79.3785	8,876.95	80.7533	8,876.95	77.4692	8,876.95	78.7953	8,876.95	76.209	8,876.95	77.0798	8,876.95	75.2215	8,876.95	76.0203	8,876.95	72.8929	8,876.95	74.3876	8,876.95	69.8165	8,876.95	71.3666	8,876.95	65.3714	8,876.95	68.0256	8,876.95	62.1528	8,876.95	64.433	8,876.95	59.0748	8,876.95	60.6023	8,876.95	51.8907	8,876.95	57.3006	8,876.95	54.9709	8,876.95	56.613	8,876.95	58.529	8,876.95	55.1844	8,876.95	52.9066	8,876.95	58.9327	8,876.95	48.5482	8,876.95	55.1768	8,876.95	51.4325	8,876.95	51.9908	8,876.95	46.1627
9,188.96	82.7772	9,188.96	82.1963	9,188.96	82.5964	9,188.96	81.0574	9,188.96	81.9192	9,188.96	79.2952	9,188.96	80.3938	9,188.96	77.1321	9,188.96	78.3926	9,188.96	75.6036	9,188.96	76.1248	9,188.96	74.6749	9,188.96	75.2532	9,188.96	72.2653	9,188.96	73.7132	9,188.96	69.25	9,188.96	70.5447	9,188.96	65.1216	9,188.96	67.0611	9,188.96	61.6678	9,188.96	63.9383	9,188.96	59.2134	9,188.96	59.3642	9,188.96	51.6198	9,188.96	57.2115	9,188.96	55.0713	9,188.96	55.4307	9,188.96	57.4982	9,188.96	55.1331	9,188.96	50.5203	9,188.96	57.4299	9,188.96	47.9145	9,188.96	53.2317	9,188.96	49.6821	9,188.96	51.7878	9,188.96	45.3246
9,514.16	82.8028	9,514.16	82.272	9,514.16	82.6215	9,514.16	80.9052	9,514.16	81.7685	9,514.16	79.1832	9,514.16	80.284	9,514.16	76.619	9,514.16	77.8928	9,514.16	75.0623	9,514.16	75.5358	9,514.16	74.3491	9,514.16	74.5681	9,514.16	71.5806	9,514.16	72.9094	9,514.16	68.1511	9,514.16	69.7191	9,514.16	64.5918	9,514.16	65.2291	9,514.16	61.023	9,514.16	62.7153	9,514.16	58.1177	9,514.16	57.3716	9,514.16	53.2194	9,514.16	55.6934	9,514.16	55.5636	9,514.16	53.5928	9,514.16	55.8712	9,514.16	54.9496	9,514.16	47.2243	9,514.16	57.0202	9,514.16	47.9977	9,514.16	51.0542	9,514.16	47.6343	9,514.16	52.1871	9,514.16	41.4024
9,849.61	83.0606	9,849.61	82.3792	9,849.61	82.9166	9,849.61	81.1604	9,849.61	81.7375	9,849.61	79.1353	9,849.61	80.2817	9,849.61	76.4772	9,849.61	77.697	9,849.61	74.7471	9,849.61	75.5554	9,849.61	73.6881	9,849.61	73.7201	9,849.61	70.7442	9,849.61	71.5714	9,849.61	66.8327	9,849.61	68.2578	9,849.61	63.3833	9,849.61	63.7169	9,849.61	60.2319	9,849.61	59.9464	9,849.61	55.7474	9,849.61	56.5446	9,849.61	52.6554	9,849.61	52.8996	9,849.61	54.0903	9,849.61	50.5567	9,849.61	54.0038	9,849.61	54.2083	9,849.61	46.0184	9,849.61	55.512	9,849.61	49.4838	9,849.61	49.3625	9,849.61	45.353	9,849.61	51.3053	9,849.61	38.5133
10,196.8	83.372	10,196.8	82.5446	10,196.8	83.2654	10,196.8	81.4253	10,196.8	81.9238	10,196.8	79.1235	10,196.8	80.1753	10,196.8	76.3934	10,196.8	77.525	10,196.8	74.3262	10,196.8	75.2321	10,196.8	72.6892	10,196.8	72.5681	10,196.8	69.6096	10,196.8	70.0675	10,196.8	65.6699	10,196.8	66.682	10,196.8	62.5062	10,196.8	63.1225	10,196.8	58.9466	10,196.8	59.0656	10,196.8	54.3488	10,196.8	55.2068	10,196.8	50.0037	10,196.8	50.7627	10,196.8	51.4781	10,196.8	47.4757	10,196.8	52.4877	10,196.8	52.8171	10,196.8	47.7252	10,196.8	52.8514	10,196.8	48.104	10,196.8	46.0521	10,196.8	45.6628	10,196.8	51.1122	10,196.8	33.9092
10,555.7	83.5818	10,555.7	82.8166	10,555.7	83.398	10,555.7	81.3163	10,555.7	82.2437	10,555.7	78.7762	10,555.7	80.1525	10,555.7	76.058	10,555.7	77.4444	10,555.7	73.2728	10,555.7	74.4852	10,555.7	71.0239	10,555.7	71.0972	10,555.7	67.026	10,555.7	68.1308	10,555.7	63.2505	10,555.7	64.6544	10,555.7	60.6786	10,555.7	60.1138	10,555.7	55.6634	10,555.7	57.7243	10,555.7	50.8259	10,555.7	51.6536	10,555.7	43.0661	10,555.7	43.3365	10,555.7	48.9169	10,555.7	40.2209	10,555.7	51.4239	10,555.7	51.4993	10,555.7	46.804	10,555.7	51.4906	10,555.7	43.7319	10,555.7	36.9304	10,555.7	45.7251	10,555.7	50.5702	10,555.7	39.3652
10,927.7	83.6309	10,927.7	82.7983	10,927.7	83.3514	10,927.7	81.1245	10,927.7	82.2434	10,927.7	78.0679	10,927.7	80.1925	10,927.7	74.9823	10,927.7	76.9122	10,927.7	71.1665	10,927.7	73.5659	10,927.7	68.1683	10,927.7	69.1887	10,927.7	64.1409	10,927.7	65.162	10,927.7	60.2537	10,927.7	59.9886	10,927.7	55.6123	10,927.7	55.7395	10,927.7	53.9338	10,927.7	47.3009	10,927.7	45.9747	10,927.7	51.4253	10,927.7	43.6724	10,927.7	41.9992	10,927.7	48.6252	10,927.7	37.6656	10,927.7	49.7021	10,927.7	49.169	10,927.7	44.9813	10,927.7	52.364	10,927.7	30.9982	10,927.7	33.3199	10,927.7	44.877	10,927.7	46.4204	10,927.7	37.4879
11,313	83.3737	11,313	82.2328	11,313	83.2151	11,313	80.8902	11,313	81.8397	11,313	77.2717	11,313	79.6664	11,313	73.4431	11,313	76.0229	11,313	68.7375	11,313	72.0747	11,313	65.076	11,313	67.134	11,313	61.022	11,313	61.2376	11,313	59.8576	11,313	57.0136	11,313	52.7064	11,313	55.5525	11,313	51.1063	11,313	50.3505	11,313	46.7997	11,313	49.1672	11,313	46.493	11,313	48.7796	11,313	45.0511	11,313	29.1031	11,313	48.3387	11,313	44.4926	11,313	44.9338	11,313	52.7455	11,313	34.5503	11,313	37.7592	11,313	46.3661	11,313	48.2936	11,313	36.9506
11,712.9	82.8974	11,712.9	81.8546	11,712.9	82.6525	11,712.9	80.1783	11,712.9	81.3343	11,712.9	76.5421	11,712.9	78.6691	11,712.9	73.0661	11,712.9	74.9051	11,712.9	68.4168	11,712.9	70.136	11,712.9	65.3613	11,712.9	65.9203	11,712.9	62.4803	11,712.9	63.0702	11,712.9	60.2065	11,712.9	61.5846	11,712.9	54.3713	11,712.9	58.1749	11,712.9	51.5518	11,712.9	51.9855	11,712.9	48.4682	11,712.9	52.8185	11,712.9	49.8569	11,712.9	48.5278	11,712.9	47.745	11,712.9	42.4302	11,712.9	48.2955	11,712.9	43.1488	11,712.9	47.373	11,712.9	51.5813	11,712.9	39.4663	11,712.9	40.9833	11,712.9	43.5043	11,712.9	48.519	11,712.9	36.2172
12,126	82.5818	12,126	81.6216	12,126	82.2532	12,126	79.7422	12,126	80.9354	12,126	76.3888	12,126	78.2054	12,126	72.6388	12,126	74.6028	12,126	68.5057	12,126	70.5643	12,126	66.6157	12,126	67.2922	12,126	64.9028	12,126	66.1094	12,126	63.4029	12,126	64.129	12,126	56.9728	12,126	62.6159	12,126	54.3925	12,126	56.2748	12,126	51.3417	12,126	55.8117	12,126	50.7474	12,126	49.6925	12,126	49.0445	12,126	45.918	12,126	48.539	12,126	46.0329	12,126	47.6057	12,126	52.4894	12,126	32.8046	12,126	45.2248	12,126	40.437	12,126	43.9593	12,126	30.0276
12,553.7	82.5416	12,553.7	81.5172	12,553.7	82.3231	12,553.7	79.9838	12,553.7	81.0341	12,553.7	76.4989	12,553.7	78.6236	12,553.7	72.9944	12,553.7	75.237	12,553.7	69.3958	12,553.7	71.727	12,553.7	67.6499	12,553.7	68.9507	12,553.7	66.063	12,553.7	68.3716	12,553.7	64.2305	12,553.7	66.7464	12,553.7	58.5808	12,553.7	64.4403	12,553.7	55.5838	12,553.7	59.605	12,553.7	51.5488	12,553.7	56.7493	12,553.7	52.0263	12,553.7	50.9795	12,553.7	45.1775	12,553.7	49.6051	12,553.7	48.0203	12,553.7	47.6568	12,553.7	45.8736	12,553.7	51.9037	12,553.7	31.1467	12,553.7	45.617	12,553.7	26.2694	12,553.7	42.8827	12,553.7	31.8439
12,996.1	82.4956	12,996.1	81.4407	12,996.1	82.3326	12,996.1	79.8312	12,996.1	81.1288	12,996.1	76.3187	12,996.1	78.7544	12,996.1	73.3893	12,996.1	75.4579	12,996.1	69.6652	12,996.1	72.4382	12,996.1	67.7688	12,996.1	69.773	12,996.1	66.3147	12,996.1	69.4071	12,996.1	63.7782	12,996.1	67.4078	12,996.1	57.9816	12,996.1	64.7671	12,996.1	55.9248	12,996.1	59.9465	12,996.1	50.2323	12,996.1	56.7824	12,996.1	51.0174	12,996.1	51.7311	12,996.1	44.1207	12,996.1	50.6642	12,996.1	45.9206	12,996.1	47.5892	12,996.1	43.6993	12,996.1	50.2451	12,996.1	37.891	12,996.1	45.1276	12,996.1	39.7789	12,996.1	44.4419	12,996.1	26.704
13,454.6	82.5259	13,454.6	81.546	13,454.6	82.3653	13,454.6	79.9074	13,454.6	81.1687	13,454.6	76.2574	13,454.6	78.7947	13,454.6	73.1242	13,454.6	75.4195	13,454.6	69.2856	13,454.6	72.5517	13,454.6	67.2726	13,454.6	69.4959	13,454.6	65.8694	13,454.6	68.7958	13,454.6	64.0641	13,454.6	66.2321	13,454.6	58.2433	13,454.6	64.2166	13,454.6	55.2041	13,454.6	59.3385	13,454.6	52.4636	13,454.6	55.7831	13,454.6	50.1967	13,454.6	51.4708	13,454.6	40.5173	13,454.6	51.4272	13,454.6	43.9149	13,454.6	47.6038	13,454.6	42.6402	13,454.6	47.199	13,454.6	37.7007	13,454.6	42.1149	13,454.6	40.4719	13,454.6	46.5937	13,454.6	34.6873
13,929.2	82.6764	13,929.2	81.6922	13,929.2	82.4948	13,929.2	80.0571	13,929.2	81.2351	13,929.2	76.1075	13,929.2	78.6283	13,929.2	72.7872	13,929.2	75.0348	13,929.2	68.9249	13,929.2	71.7196	13,929.2	66.4636	13,929.2	68.414	13,929.2	65.614	13,929.2	67.8942	13,929.2	64.3321	13,929.2	65.3021	13,929.2	59.4646	13,929.2	63.3632	13,929.2	54.4733	13,929.2	58.9226	13,929.2	53.191	13,929.2	54.8063	13,929.2	50.3816	13,929.2	50.3768	13,929.2	40.1537	13,929.2	50.9964	13,929.2	42.5416	13,929.2	48.2427	13,929.2	41.2069	13,929.2	45.1951	13,929.2	38.4909	13,929.2	39.6859	13,929.2	41.2705	13,929.2	48.0041	13,929.2	40.5279
14,419.9	82.6278	14,419.9	81.5103	14,419.9	82.512	14,419.9	79.6258	14,419.9	81.1548	14,419.9	75.5321	14,419.9	78.2587	14,419.9	71.7046	14,419.9	74.3041	14,419.9	68.1223	14,419.9	70.668	14,419.9	65.7124	14,419.9	67.4114	14,419.9	65.3314	14,419.9	67.7013	14,419.9	64.099	14,419.9	65.3269	14,419.9	59.4761	14,419.9	63.3394	14,419.9	53.9387	14,419.9	58.8245	14,419.9	52.9278	14,419.9	54.2248	14,419.9	49.1307	14,419.9	51.2571	14,419.9	37.8485	14,419.9	50.9967	14,419.9	43.0153	14,419.9	48.1483	14,419.9	39.2878	14,419.9	45.2138	14,419.9	39.6167	14,419.9	40.6432	14,419.9	41.3005	14,419.9	48.7631	14,419.9	42.3184
14,928.2	82.5253	14,928.2	81.2419	14,928.2	82.4507	14,928.2	79.0975	14,928.2	80.9166	14,928.2	74.6032	14,928.2	77.8407	14,928.2	70.3705	14,928.2	73.6092	14,928.2	66.8789	14,928.2	69.8596	14,928.2	65.5158	14,928.2	67.0571	14,928.2	64.5126	14,928.2	67.702	14,928.2	63.3742	14,928.2	65.2592	14,928.2	59.0785	14,928.2	63.387	14,928.2	53.3029	14,928.2	58.8698	14,928.2	52.1269	14,928.2	53.173	14,928.2	46.7775	14,928.2	53.2182	14,928.2	38.5528	14,928.2	50.9522	14,928.2	42.4199	14,928.2	48.2846	14,928.2	39.3289	14,928.2	42.8009	14,928.2	40.5263	14,928.2	40.4969	14,928.2	44.4983	14,928.2	49.0879	14,928.2	43.5439
15,455.6	82.2732	15,455.6	80.9398	15,455.6	82.1528	15,455.6	78.5163	15,455.6	80.4607	15,455.6	73.7757	15,455.6	76.9836	15,455.6	69.5214	15,455.6	72.7067	15,455.6	66.726	15,455.6	69.0487	15,455.6	65.0835	15,455.6	66.8527	15,455.6	64.51	15,455.6	67.1917	15,455.6	63.5974	15,455.6	64.6955	15,455.6	59.2926	15,455.6	63.2255	15,455.6	52.36	15,455.6	58.5439	15,455.6	52.818	15,455.6	52.3301	15,455.6	45.8993	15,455.6	53.3118	15,455.6	38.3816	15,455.6	50.4424	15,455.6	43.8767	15,455.6	48.2065	15,455.6	41.1222	15,455.6	43.0237	15,455.6	39.2675	15,455.6	40.1389	15,455.6	43.3211	15,455.6	49.1495	15,455.6	45.8308
16,000.5	81.8558	16,000.5	80.4386	16,000.5	81.6409	16,000.5	77.8188	16,000.5	79.7337	16,000.5	72.7236	16,000.5	76.0879	16,000.5	68.571	16,000.5	71.7851	16,000.5	66.6333	16,000.5	67.9622	16,000.5	64.5496	16,000.5	66.5038	16,000.5	64.2682	16,000.5	66.6019	16,000.5	63.3872	16,000.5	63.7306	16,000.5	59.4923	16,000.5	62.2158	16,000.5	52.3705	16,000.5	57.8919	16,000.5	52.1717	16,000.5	50.6903	16,000.5	42.8523	16,000.5	51.7166	16,000.5	37.2553	16,000.5	48.4898	16,000.5	43.0751	16,000.5	47.2426	16,000.5	37.6351	16,000.5	42.4734	16,000.5	36.3319	16,000.5	39.9305	16,000.5	42.1325	16,000.5	48.0565	16,000.5	47.5119
16,564.5	81.5016	16,564.5	79.942	16,564.5	81.216	16,564.5	76.9498	16,564.5	79.1253	16,564.5	71.8763	16,564.5	75.0865	16,564.5	67.6336	16,564.5	70.8753	16,564.5	66.0665	16,564.5	67.3591	16,564.5	64.4993	16,564.5	65.7851	16,564.5	63.5496	16,564.5	66.1182	16,564.5	62.5356	16,564.5	63.0038	16,564.5	58.6402	16,564.5	61.1257	16,564.5	52.5783	16,564.5	56.9776	16,564.5	50.1193	16,564.5	48.4649	16,564.5	40.4099	16,564.5	50.7226	16,564.5	40.3522	16,564.5	47.4176	16,564.5	42.0374	16,564.5	46.5511	16,564.5	38.2286	16,564.5	41.3449	16,564.5	34.6923	16,564.5	41.3743	16,564.5	40.9551	16,564.5	46.8569	16,564.5	46.7163
17,148.9	81.2608	17,148.9	79.5258	17,148.9	80.9618	17,148.9	76.2512	17,148.9	78.5636	17,148.9	70.9782	17,148.9	74.3615	17,148.9	66.7281	17,148.9	70.2115	17,148.9	65.1844	17,148.9	66.9425	17,148.9	63.6507	17,148.9	65.5027	17,148.9	62.0811	17,148.9	64.6056	17,148.9	61.3691	17,148.9	61.1906	17,148.9	56.821	17,148.9	59.9378	17,148.9	51.0466	17,148.9	55.7162	17,148.9	48.939	17,148.9	46.9616	17,148.9	36.3352	17,148.9	50.0912	17,148.9	39.916	17,148.9	45.2857	17,148.9	40.1436	17,148.9	44.0072	17,148.9	34.1905	17,148.9	39.9251	17,148.9	35.349	17,148.9	39.7266	17,148.9	35.4616	17,148.9	47.2396	17,148.9	45.9481
17,752.4	80.804	17,752.4	79.0275	17,752.4	80.4498	17,752.4	75.4369	17,752.4	77.9953	17,752.4	69.9901	17,752.4	73.671	17,752.4	65.6093	17,752.4	69.6279	17,752.4	63.5325	17,752.4	65.7367	17,752.4	61.2944	17,752.4	63.2722	17,752.4	59.4369	17,752.4	62.056	17,752.4	58.634	17,752.4	58.292	17,752.4	53.7911	17,752.4	56.937	17,752.4	48.5538	17,752.4	52.2655	17,752.4	45.1993	17,752.4	43.5334	17,752.4	31.2653	17,752.4	46.756	17,752.4	39.1824	17,752.4	39.7246	17,752.4	37.1519	17,752.4	40.0965	17,752.4	31.1611	17,752.4	36.3159	17,752.4	35.8332	17,752.4	38.5807	17,752.4	37.2608	17,752.4	45.9248	17,752.4	44.7983
18,379.4	79.913	18,379.4	78.0445	18,379.4	79.5311	18,379.4	74.2586	18,379.4	77.0382	18,379.4	68.5625	18,379.4	72.6005	18,379.4	63.2072	18,379.4	67.9781	18,379.4	60.2236	18,379.4	63.001	18,379.4	58.4195	18,379.4	59.0781	18,379.4	55.696	18,379.4	57.4172	18,379.4	55.0388	18,379.4	53.2808	18,379.4	49.4133	18,379.4	52.5853	18,379.4	44.9057	18,379.4	46.9398	18,379.4	42.8476	18,379.4	39.7803	18,379.4	36.2145	18,379.4	41.8484	18,379.4	36.9991	18,379.4	34.054	18,379.4	31.3674	18,379.4	35.3396	18,379.4	21.9421	18,379.4	31.65	18,379.4	33.9698	18,379.4	37.2409	18,379.4	40.1334	18,379.4	42.5781	18,379.4	42.6942
19,026.9	78.9446	19,026.9	76.8694	19,026.9	78.5944	19,026.9	72.7919	19,026.9	76.0652	19,026.9	66.313	19,026.9	71.2804	19,026.9	59.8078	19,026.9	65.4899	19,026.9	56.8971	19,026.9	58.5433	19,026.9	55.3763	19,026.9	53.5078	19,026.9	53.2028	19,026.9	53.2494	19,026.9	52.8651	19,026.9	50.5715	19,026.9	47.0353	19,026.9	49.5371	19,026.9	41.9912	19,026.9	43.2791	19,026.9	40.2798	19,026.9	38.0575	19,026.9	33.9425	19,026.9	37.1772	19,026.9	34.3005	19,026.9	33.7006	19,026.9	29.5606	19,026.9	34.4798	19,026.9	23.0463	19,026.9	13.9148	19,026.9	30.7212	19,026.9	34.5075	19,026.9	39.305	19,026.9	41.0029	19,026.9	40.2816
19,697.8	78.4737	19,697.8	76.2296	19,697.8	78.092	19,697.8	71.8012	19,697.8	75.3786	19,697.8	64.0978	19,697.8	69.9424	19,697.8	56.7482	19,697.8	62.5834	19,697.8	56.7803	19,697.8	53.0715	19,697.8	54.5366	19,697.8	52.5858	19,697.8	53.1458	19,697.8	51.698	19,697.8	52.5502	19,697.8	49.9018	19,697.8	46.0468	19,697.8	48.376	19,697.8	40.8156	19,697.8	42.8779	19,697.8	38.686	19,697.8	36.5883	19,697.8	32.2332	19,697.8	36.8332	19,697.8	29.9233	19,697.8	36.4257	19,697.8	27.5202	19,697.8	34.3437	19,697.8	21.6625	19,697.8	23.9527	19,697.8	32.742	19,697.8	33.1008	19,697.8	37.4454	19,697.8	40.1688	19,697.8	38.1587
19,999.5	78.3101	19,999.5	75.9796	19,999.5	77.8656	19,999.5	71.5104	19,999.5	74.9861	19,999.5	62.8129	19,999.5	69.4181	19,999.5	55.5401	19,999.5	61.2799	19,999.5	57.0418	19,999.5	52.1025	19,999.5	54.747	19,999.5	51.8735	19,999.5	52.8116	19,999.5	51.6682	19,999.5	51.9729	19,999.5	49.7342	19,999.5	44.7968	19,999.5	49.2445	19,999.5	41.8454	19,999.5	40.1459	19,999.5	28.6792	19,999.5	38.392	19,999.5	44.4363	19,999.5	38.0813	19,999.5	32.4074	19,999.5	39.4574	19,999.5	43.7232	19,999.5	31.0518	19,999.5	48.7119	19,999.5	35.5796	19,999.5	45.402	19,999.5	30.268	19,999.5	40.0051	19,999.5	42.1783	19,999.5	38.2806
