"SPL Horizontal"																																																																							
"On-Axis"		"10°"		"-10°"		"20°"		"-20°"		"30°"		"-30°"		"40°"		"-40°"		"50°"		"-50°"		"60°"		"-60°"		"70°"		"-70°"		"80°"		"-80°"		"90°"		"-90°"		"100°"		"-100°"		"110°"		"-110°"		"120°"		"-120°"		"130°"		"-130°"		"140°"		"-140°"		"150°"		"-150°"		"160°"		"-160°"		"170°"		"-170°"		"180°"	
"Frequency [Hz]"	"Sound Pessure Level [dB]  / [2.83V 1m] "	"Frequency [Hz]"	"Sound Pessure Level [dB]  / [2.83V 1m] "	"Frequency [Hz]"	"Sound Pessure Level [dB]  / [2.83V 1m] "	"Frequency [Hz]"	"Sound Pessure Level [dB]  / [2.83V 1m] "	"Frequency [Hz]"	"Sound Pessure Level [dB]  / [2.83V 1m] "	"Frequency [Hz]"	"Sound Pessure Level [dB]  / [2.83V 1m] "	"Frequency [Hz]"	"Sound Pessure Level [dB]  / [2.83V 1m] "	"Frequency [Hz]"	"Sound Pessure Level [dB]  / [2.83V 1m] "	"Frequency [Hz]"	"Sound Pessure Level [dB]  / [2.83V 1m] "	"Frequency [Hz]"	"Sound Pessure Level [dB]  / [2.83V 1m] "	"Frequency [Hz]"	"Sound Pessure Level [dB]  / [2.83V 1m] "	"Frequency [Hz]"	"Sound Pessure Level [dB]  / [2.83V 1m] "	"Frequency [Hz]"	"Sound Pessure Level [dB]  / [2.83V 1m] "	"Frequency [Hz]"	"Sound Pessure Level [dB]  / [2.83V 1m] "	"Frequency [Hz]"	"Sound Pessure Level [dB]  / [2.83V 1m] "	"Frequency [Hz]"	"Sound Pessure Level [dB]  / [2.83V 1m] "	"Frequency [Hz]"	"Sound Pessure Level [dB]  / [2.83V 1m] "	"Frequency [Hz]"	"Sound Pessure Level [dB]  / [2.83V 1m] "	"Frequency [Hz]"	"Sound Pessure Level [dB]  / [2.83V 1m] "	"Frequency [Hz]"	"Sound Pessure Level [dB]  / [2.83V 1m] "	"Frequency [Hz]"	"Sound Pessure Level [dB]  / [2.83V 1m] "	"Frequency [Hz]"	"Sound Pessure Level [dB]  / [2.83V 1m] "	"Frequency [Hz]"	"Sound Pessure Level [dB]  / [2.83V 1m] "	"Frequency [Hz]"	"Sound Pessure Level [dB]  / [2.83V 1m] "	"Frequency [Hz]"	"Sound Pessure Level [dB]  / [2.83V 1m] "	"Frequency [Hz]"	"Sound Pessure Level [dB]  / [2.83V 1m] "	"Frequency [Hz]"	"Sound Pessure Level [dB]  / [2.83V 1m] "	"Frequency [Hz]"	"Sound Pessure Level [dB]  / [2.83V 1m] "	"Frequency [Hz]"	"Sound Pessure Level [dB]  / [2.83V 1m] "	"Frequency [Hz]"	"Sound Pessure Level [dB]  / [2.83V 1m] "	"Frequency [Hz]"	"Sound Pessure Level [dB]  / [2.83V 1m] "	"Frequency [Hz]"	"Sound Pessure Level [dB]  / [2.83V 1m] "	"Frequency [Hz]"	"Sound Pessure Level [dB]  / [2.83V 1m] "	"Frequency [Hz]"	"Sound Pessure Level [dB]  / [2.83V 1m] "	"Frequency [Hz]"	"Sound Pessure Level [dB]  / [2.83V 1m] "	"Frequency [Hz]"	"Sound Pessure Level [dB]  / [2.83V 1m] "
20.5078	54.5456	20.5078	54.5639	20.5078	54.3535	20.5078	54.4075	20.5078	53.9843	20.5078	54.072	20.5078	53.4316	20.5078	53.5494	20.5078	52.689	20.5078	52.832	20.5078	51.7574	20.5078	51.92	20.5078	50.6667	20.5078	50.8445	20.5078	49.5243	20.5078	49.7187	20.5078	48.5931	20.5078	48.82	20.5078	48.2808	20.5078	48.5661	20.5078	48.812	20.5078	49.1591	20.5078	49.9419	20.5078	50.3196	20.5078	51.2551	20.5078	51.6261	20.5078	52.4842	20.5078	52.8204	20.5078	53.5152	20.5078	53.7964	20.5078	54.3093	20.5078	54.5207	20.5078	54.8555	20.5078	54.9867	20.5078	55.1516	20.5078	55.196
21.9727	55.4294	21.9727	55.3708	21.9727	55.3083	21.9727	55.1282	21.9727	55.0078	21.9727	54.6924	21.9727	54.5247	21.9727	54.0513	21.9727	53.8564	21.9727	53.194	21.9727	53.0087	21.9727	52.1264	21.9727	52.0171	21.9727	50.9131	21.9727	50.9916	21.9727	49.7734	21.9727	50.1808	21.9727	49.1692	21.9727	49.947	21.9727	49.5363	21.9727	50.4811	21.9727	50.7235	21.9727	51.5713	21.9727	52.2028	21.9727	52.8485	21.9727	53.6075	21.9727	54.0613	21.9727	54.7912	21.9727	55.0952	21.9727	55.714	21.9727	55.9077	21.9727	56.3723	21.9727	56.4855	21.9727	56.7722	21.9727	56.8242	21.9727	56.921
23.4375	56.3085	23.4375	56.2676	23.4375	56.1742	23.4375	56.0494	23.4375	55.8656	23.4375	55.6511	23.4375	55.3845	23.4375	55.0734	23.4375	54.7391	23.4375	54.33	23.4375	53.9581	23.4375	53.4717	23.4375	53.1181	23.4375	52.6293	23.4375	52.3853	23.4375	52.0565	23.4375	52.0234	23.4375	52.0575	23.4375	52.2606	23.4375	52.727	23.4375	53.0709	23.4375	53.8382	23.4375	54.2001	23.4375	55.0789	23.4375	55.3894	23.4375	56.2436	23.4375	56.483	23.4375	57.2365	23.4375	57.4085	23.4375	58.021	23.4375	58.1366	23.4375	58.5861	23.4375	58.6563	23.4375	58.9304	23.4375	58.9633	23.4375	59.0554
24.9023	57.0428	24.9023	56.9898	24.9023	56.9256	24.9023	56.7662	24.9023	56.6397	24.9023	56.3738	24.9023	56.1891	24.9023	55.8223	24.9023	55.5872	24.9023	55.1429	24.9023	54.8712	24.9023	54.4139	24.9023	54.1285	24.9023	53.7956	24.9023	53.5298	24.9023	53.5292	24.9023	53.3157	24.9023	53.8123	24.9023	53.6591	24.9023	54.6166	24.9023	54.5023	24.9023	55.7141	24.9023	55.6131	24.9023	56.8684	24.9023	56.7685	24.9023	57.9316	24.9023	57.8327	24.9023	58.8317	24.9023	58.7396	24.9023	59.5385	24.9023	59.461	24.9023	60.0413	24.9023	59.9852	24.9023	60.3368	24.9023	60.3074	24.9023	60.4251
26.3672	58.5605	26.3672	58.5267	26.3672	58.4486	26.3672	58.349	26.3672	58.1934	26.3672	58.0343	26.3672	57.8027	26.3672	57.6005	26.3672	57.2963	26.3672	57.0866	26.3672	56.7173	26.3672	56.5688	26.3672	56.1504	26.3672	56.1734	26.3672	55.7341	26.3672	56.0578	26.3672	55.6362	26.3672	56.3331	26.3672	55.962	26.3672	56.979	26.3672	56.6698	26.3672	57.8579	26.3672	57.6035	26.3672	58.809	26.3672	58.5978	26.3672	59.7122	26.3672	59.5363	26.3672	60.4958	26.3672	60.3522	26.3672	61.1219	26.3672	61.0111	26.3672	61.5715	26.3672	61.4958	26.3672	61.8358	26.3672	61.7973	26.3672	61.9112
27.832	59.0555	27.832	59.0246	27.832	58.9512	27.832	58.8617	27.832	58.7163	27.832	58.5798	27.832	58.3661	27.832	58.2088	27.832	57.9339	27.832	57.8058	27.832	57.4827	27.832	57.4672	27.832	57.1171	27.832	57.3237	27.832	56.9752	27.832	57.4954	27.832	57.1759	27.832	58.0178	27.832	57.7409	27.832	58.8131	27.832	58.577	27.832	59.7447	27.832	59.5408	27.832	60.687	27.832	60.5086	27.832	61.554	27.832	61.3987	27.832	62.2951	27.832	62.1643	27.832	62.8833	27.832	62.7802	27.832	63.3042	27.832	63.2328	27.832	63.5512	27.832	63.5146	27.832	63.6214
29.2969	60.5871	29.2969	60.5707	29.2969	60.4909	29.2969	60.4455	29.2969	60.2877	29.2969	60.2259	29.2969	59.9946	29.2969	59.9417	29.2969	59.6459	29.2969	59.6452	29.2969	59.301	29.2969	59.4158	29.2969	59.0485	29.2969	59.3521	29.2969	58.9942	29.2969	59.5385	29.2969	59.2197	29.2969	59.9994	29.2969	59.7352	29.2969	60.6823	29.2969	60.4706	29.2969	61.488	29.2969	61.3178	29.2969	62.3167	29.2969	62.1768	29.2969	63.0922	29.2969	62.9755	29.2969	63.7649	29.2969	63.6688	29.2969	64.3049	29.2969	64.23	29.2969	64.6952	29.2969	64.6435	29.2969	64.9268	29.2969	64.9003	29.2969	64.9954
30.7617	61.7843	30.7617	61.7839	30.7617	61.7071	30.7617	61.7097	30.7617	61.5598	30.7617	61.5776	30.7617	61.3624	30.7617	61.4174	30.7617	61.1509	30.7617	61.2757	30.7617	60.9784	30.7617	61.2137	30.7617	60.9121	30.7617	61.2955	30.7617	61.0163	30.7617	61.5659	30.7617	61.3279	30.7617	62.0284	30.7617	61.8365	30.7617	62.642	30.7617	62.4891	30.7617	63.3394	30.7617	63.214	30.7617	64.0508	30.7617	63.9434	30.7617	64.719	30.7617	64.6249	30.7617	65.3027	30.7617	65.2216	30.7617	65.7745	30.7617	65.7089	30.7617	66.1173	30.7617	66.0709	30.7617	66.3212	30.7617	66.2971	30.7617	66.3814
32.2266	62.0692	32.2266	62.0594	32.2266	62.0143	32.2266	61.9898	32.2266	61.9038	32.2266	61.8799	32.2266	61.7617	32.2266	61.7657	32.2266	61.6286	32.2266	61.7003	32.2266	61.561	32.2266	61.7471	32.2266	61.6226	32.2266	61.9629	32.2266	61.8647	32.2266	62.3741	32.2266	62.3041	32.2266	62.9623	32.2266	62.9132	32.2266	63.672	32.2266	63.633	32.2266	64.434	32.2266	64.3961	32.2266	65.1845	32.2266	65.1432	32.2266	65.8744	32.2266	65.8298	32.2266	66.4696	32.2266	66.4249	32.2266	66.9475	32.2266	66.9077	32.2266	67.2942	32.2266	67.2642	32.2266	67.5013	32.2266	67.4852	32.2266	67.5651
33.6914	64.7887	33.6914	64.7861	33.6914	64.7805	33.6914	64.7762	33.6914	64.7686	33.6914	64.7726	33.6914	64.7693	33.6914	64.7981	33.6914	64.8073	33.6914	64.8824	33.6914	64.9111	33.6914	65.0551	33.6914	65.1068	33.6914	65.3379	33.6914	65.4104	33.6914	65.7358	33.6914	65.8213	33.6914	66.2344	33.6914	66.3216	33.6914	66.8026	33.6914	66.881	33.6914	67.4019	33.6914	67.4638	33.6914	67.9932	33.6914	68.0357	33.6914	68.5427	33.6914	68.5667	33.6914	69.0232	33.6914	69.0327	33.6914	69.4144	33.6914	69.4147	33.6914	69.7021	33.6914	69.6986	33.6914	69.877	33.6914	69.8741	33.6914	69.9346
35.1563	67.033	35.1563	67.0292	35.1563	67.027	35.1563	67.0184	35.1563	67.0159	35.1563	67.0106	35.1563	67.0109	35.1563	67.0221	35.1563	67.0291	35.1563	67.0744	35.1563	67.0914	35.1563	67.1899	35.1563	67.2182	35.1563	67.3867	35.1563	67.425	35.1563	67.6731	35.1563	67.717	35.1563	68.0439	35.1563	68.0873	35.1563	68.4805	35.1563	68.5173	35.1563	68.9551	35.1563	68.981	35.1563	69.4363	35.1563	69.4498	35.1563	69.8938	35.1563	69.896	35.1563	70.3013	35.1563	70.2956	35.1563	70.6377	35.1563	70.6283	35.1563	70.8875	35.1563	70.8784	35.1563	71.04	35.1563	71.0346	35.1563	71.0894
36.6211	68.3721	36.6211	68.3513	36.6211	68.3905	36.6211	68.3311	36.6211	68.4098	36.6211	68.3201	36.6211	68.4381	36.6211	68.3321	36.6211	68.4878	36.6211	68.3847	36.6211	68.5737	36.6211	68.4961	36.6211	68.7101	36.6211	68.6805	36.6211	68.9074	36.6211	68.9442	36.6211	69.1695	36.6211	69.2821	36.6211	69.4917	36.6211	69.6785	36.6211	69.8611	36.6211	70.1095	36.6211	70.2585	36.6211	70.5479	36.6211	70.6617	36.6211	70.9667	36.6211	71.048	36.6211	71.3419	36.6211	71.3959	36.6211	71.6538	36.6211	71.6868	36.6211	71.8875	36.6211	71.9056	36.6211	72.0327	36.6211	72.0405	36.6211	72.0841
38.0859	69.3891	38.0859	69.3884	38.0859	69.3886	38.0859	69.3889	38.0859	69.3896	38.0859	69.3982	38.0859	69.3996	38.0859	69.4279	38.0859	69.4299	38.0859	69.4929	38.0859	69.4943	38.0859	69.608	38.0859	69.6065	38.0859	69.7849	38.0859	69.7772	38.0859	70.0285	38.0859	70.0112	38.0859	70.3348	38.0859	70.3054	38.0859	70.6908	38.0859	70.6485	38.0859	71.0767	38.0859	71.0231	38.0859	71.4691	38.0859	71.4077	38.0859	71.8441	38.0859	71.78	38.0859	72.18	38.0859	72.1189	38.0859	72.4579	38.0859	72.4058	38.0859	72.6634	38.0859	72.6254	38.0859	72.7864	38.0859	72.7663	38.0859	72.8211
39.5508	70.2142	39.5508	70.2166	39.5508	70.2203	39.5508	70.23	39.5508	70.2374	39.5508	70.261	39.5508	70.2719	39.5508	70.3199	39.5508	70.3335	39.5508	70.4188	39.5508	70.4334	39.5508	70.5695	39.5508	70.5824	39.5508	70.7803	39.5508	70.7877	39.5508	71.053	39.5508	71.0513	39.5508	71.382	39.5508	71.3681	39.5508	71.7536	39.5508	71.7262	39.5508	72.1489	39.5508	72.1085	39.5508	72.5457	39.5508	72.4951	39.5508	72.9216	39.5508	72.8655	39.5508	73.2561	39.5508	73.2004	39.5508	73.5316	39.5508	73.4826	39.5508	73.7345	39.5508	73.6981	39.5508	73.8556	39.5508	73.8362	39.5508	73.8898
41.0156	73.5109	41.0156	73.5073	41.0156	73.5275	41.0156	73.5183	41.0156	73.5578	41.0156	73.5474	41.0156	73.6047	41.0156	73.5999	41.0156	73.6728	41.0156	73.6821	41.0156	73.7672	41.0156	73.7998	41.0156	73.8931	41.0156	73.9574	41.0156	74.0544	41.0156	74.1561	41.0156	74.2519	41.0156	74.3933	41.0156	74.4831	41.0156	74.6618	41.0156	74.7416	41.0156	74.9505	41.0156	75.0175	41.0156	75.2451	41.0156	75.2979	41.0156	75.5298	41.0156	75.5687	41.0156	75.7885	41.0156	75.8151	41.0156	76.0067	41.0156	76.0234	41.0156	76.1721	41.0156	76.1814	41.0156	76.2757	41.0156	76.2797	41.0156	76.312
42.4805	74.5667	42.4805	74.5591	42.4805	74.574	42.4805	74.5527	42.4805	74.5818	42.4805	74.5515	42.4805	74.5936	42.4805	74.5617	42.4805	74.6143	42.4805	74.5912	42.4805	74.6504	42.4805	74.6485	42.4805	74.7088	42.4805	74.7411	42.4805	74.7957	42.4805	74.874	42.4805	74.9153	42.4805	75.0475	42.4805	75.0687	42.4805	75.2567	42.4805	75.2535	42.4805	75.4915	42.4805	75.4629	42.4805	75.7375	42.4805	75.6869	42.4805	75.9781	42.4805	75.9127	42.4805	76.1969	42.4805	76.1265	42.4805	76.3789	42.4805	76.3142	42.4805	76.5126	42.4805	76.4632	42.4805	76.5898	42.4805	76.5632	42.4805	76.6067
43.9453	74.7032	43.9453	74.7144	43.9453	74.6927	43.9453	74.7275	43.9453	74.6843	43.9453	74.7462	43.9453	74.6818	43.9453	74.7764	43.9453	74.6909	43.9453	74.8254	43.9453	74.7185	43.9453	74.9009	43.9453	74.7722	43.9453	75.0095	43.9453	74.8584	43.9453	75.1549	43.9453	74.9813	43.9453	75.3367	43.9453	75.142	43.9453	75.5492	43.9453	75.3369	43.9453	75.7818	43.9453	75.5588	43.9453	76.0207	43.9453	75.7964	43.9453	76.2502	43.9453	76.0365	43.9453	76.4551	43.9453	76.2644	43.9453	76.6217	43.9453	76.4663	43.9453	76.7393	43.9453	76.6295	43.9453	76.8006	43.9453	76.7438	43.9453	76.8021
45.4102	74.995	45.4102	74.9843	45.4102	75.0127	45.4102	74.9831	45.4102	75.0373	45.4102	74.9964	45.4102	75.071	45.4102	75.0307	45.4102	75.1181	45.4102	75.0936	45.4102	75.1841	45.4102	75.1921	45.4102	75.2748	45.4102	75.3313	45.4102	75.3954	45.4102	75.5125	45.4102	75.5491	45.4102	75.7326	45.4102	75.736	45.4102	75.9834	45.4102	75.9525	45.4102	76.2531	45.4102	76.1916	45.4102	76.5269	45.4102	76.4426	45.4102	76.789	45.4102	76.6928	45.4102	77.0241	45.4102	76.928	45.4102	77.2181	45.4102	77.134	45.4102	77.3598	45.4102	77.2976	45.4102	77.4409	45.4102	77.4078	45.4102	77.4569
46.875	77.0176	46.875	77.0246	46.875	77.0375	46.875	77.0596	46.875	77.0847	46.875	77.1247	46.875	77.1605	46.875	77.2229	46.875	77.267	46.875	77.3571	46.875	77.4061	46.875	77.5291	46.875	77.5791	46.875	77.739	46.875	77.7857	46.875	77.9841	46.875	78.0232	46.875	78.2588	46.875	78.2869	46.875	78.5542	46.875	78.5693	46.875	78.8591	46.875	78.8609	46.875	79.1607	46.875	79.1506	46.875	79.4452	46.875	79.4262	46.875	79.6989	46.875	79.6753	46.875	79.9093	46.875	79.8859	46.875	80.0658	46.875	80.0471	46.875	80.1605	46.875	80.1502	46.875	80.1889
48.3398	78.3233	48.3398	78.329	48.3398	78.3378	48.3398	78.3561	48.3398	78.3723	48.3398	78.4059	48.3398	78.427	48.3398	78.4802	48.3398	78.5026	48.3398	78.5806	48.3398	78.6	48.3398	78.7081	48.3398	78.7201	48.3398	78.8623	48.3398	78.8631	48.3398	79.0413	48.3398	79.0283	48.3398	79.2414	48.3398	79.2135	48.3398	79.4566	48.3398	79.4148	48.3398	79.6791	48.3398	79.6264	48.3398	79.8999	48.3398	79.8406	48.3398	80.1087	48.3398	80.048	48.3398	80.2952	48.3398	80.2386	48.3398	80.4498	48.3398	80.4023	48.3398	80.5639	48.3398	80.5297	48.3398	80.6312	48.3398	80.6134	48.3398	80.648
51.2695	79.8183	51.2695	79.8415	51.2695	79.8125	51.2695	79.8823	51.2695	79.8243	51.2695	79.9408	51.2695	79.8545	51.2695	80.0175	51.2695	79.9037	51.2695	80.1128	51.2695	79.973	51.2695	80.2265	51.2695	80.063	51.2695	80.3579	51.2695	80.174	51.2695	80.5053	51.2695	80.3055	51.2695	80.6657	51.2695	80.4557	51.2695	80.8348	51.2695	80.6212	51.2695	81.0071	51.2695	80.7971	51.2695	81.1757	51.2695	80.977	51.2695	81.3332	51.2695	81.1531	51.2695	81.4715	51.2695	81.3172	51.2695	81.5831	51.2695	81.4609	51.2695	81.6613	51.2695	81.5765	51.2695	81.7012	51.2695	81.6578	51.2695	81.7001
52.7344	80.6756	52.7344	80.7176	52.7344	80.6418	52.7344	80.7672	52.7344	80.6172	52.7344	80.8242	52.7344	80.6032	52.7344	80.8888	52.7344	80.6016	52.7344	80.9611	52.7344	80.6142	52.7344	81.0412	52.7344	80.6431	52.7344	81.1291	52.7344	80.6898	52.7344	81.2239	52.7344	80.7553	52.7344	81.324	52.7344	80.8396	52.7344	81.4269	52.7344	80.9414	52.7344	81.529	52.7344	81.058	52.7344	81.6258	52.7344	81.185	52.7344	81.7122	52.7344	81.3169	52.7344	81.7829	52.7344	81.4472	52.7344	81.8327	52.7344	81.5691	52.7344	81.8574	52.7344	81.6759	52.7344	81.8543	52.7344	81.7617	52.7344	81.8221
54.1992	81.4126	54.1992	81.4299	54.1992	81.4012	54.1992	81.453	54.1992	81.3964	54.1992	81.4819	54.1992	81.399	54.1992	81.5172	54.1992	81.4104	54.1992	81.5596	54.1992	81.4319	54.1992	81.6095	54.1992	81.4648	54.1992	81.6675	54.1992	81.5103	54.1992	81.7336	54.1992	81.5688	54.1992	81.807	54.1992	81.6402	54.1992	81.8862	54.1992	81.723	54.1992	81.9689	54.1992	81.8146	54.1992	82.0517	54.1992	81.9113	54.1992	82.1307	54.1992	82.0083	54.1992	82.2015	54.1992	82.1004	54.1992	82.2595	54.1992	82.182	54.1992	82.3006	54.1992	82.2483	54.1992	82.3215	54.1992	82.2951	54.1992	82.3199
55.6641	82.1912	55.6641	82.1809	55.6641	82.2136	55.6641	82.1832	55.6641	82.2479	55.6641	82.1989	55.6641	82.294	55.6641	82.2289	55.6641	82.3523	55.6641	82.274	55.6641	82.423	55.6641	82.3351	55.6641	82.506	55.6641	82.4123	55.6641	82.601	55.6641	82.5052	55.6641	82.7069	55.6641	82.6124	55.6641	82.822	55.6641	82.7315	55.6641	82.9432	55.6641	82.8591	55.6641	83.0666	55.6641	82.9908	55.6641	83.1872	55.6641	83.1212	55.6641	83.2995	55.6641	83.2444	55.6641	83.3974	55.6641	83.354	55.6641	83.4753	55.6641	83.444	55.6641	83.5282	55.6641	83.5094	55.6641	83.5525	55.6641	83.5462
58.5938	82.7083	58.5938	82.7355	58.5938	82.6985	58.5938	82.7794	58.5938	82.7066	58.5938	82.8388	58.5938	82.7328	58.5938	82.9125	58.5938	82.7769	58.5938	82.9989	58.5938	82.8385	58.5938	83.0962	58.5938	82.9164	58.5938	83.2025	58.5938	83.0093	58.5938	83.3156	58.5938	83.1152	58.5938	83.433	58.5938	83.2317	58.5938	83.5518	58.5938	83.3556	58.5938	83.6689	58.5938	83.4832	58.5938	83.7805	58.5938	83.6104	58.5938	83.8826	58.5938	83.7326	58.5938	83.9706	58.5938	83.8448	58.5938	84.0405	58.5938	83.9425	58.5938	84.0883	58.5938	84.0211	58.5938	84.1111	58.5938	84.0769	58.5938	84.1074
60.0586	83.613	60.0586	83.6346	60.0586	83.6049	60.0586	83.6694	60.0586	83.6108	60.0586	83.7164	60.0586	83.6307	60.0586	83.7749	60.0586	83.6642	60.0586	83.8437	60.0586	83.7111	60.0586	83.9217	60.0586	83.7704	60.0586	84.0073	60.0586	83.8413	60.0586	84.0991	60.0586	83.9225	60.0586	84.1951	60.0586	84.0124	60.0586	84.293	60.0586	84.1089	60.0586	84.3899	60.0586	84.2096	60.0586	84.4827	60.0586	84.3115	60.0586	84.5674	60.0586	84.4114	60.0586	84.6401	60.0586	84.5052	60.0586	84.6967	60.0586	84.589	60.0586	84.7337	60.0586	84.6586	60.0586	84.7489	60.0586	84.7102	60.0586	84.7409
62.9883	84.7379	62.9883	84.7573	62.9883	84.7288	62.9883	84.7866	62.9883	84.7301	62.9883	84.8251	62.9883	84.742	62.9883	84.872	62.9883	84.7643	62.9883	84.9265	62.9883	84.7967	62.9883	84.9874	62.9883	84.8388	62.9883	85.0535	62.9883	84.89	62.9883	85.1233	62.9883	84.9495	62.9883	85.1952	62.9883	85.0162	62.9883	85.2675	62.9883	85.0887	62.9883	85.338	62.9883	85.165	62.9883	85.4045	62.9883	85.2429	62.9883	85.4644	62.9883	85.3197	62.9883	85.515	62.9883	85.3923	62.9883	85.5537	62.9883	85.4574	62.9883	85.5782	62.9883	85.5119	62.9883	85.5866	62.9883	85.5528	62.9883	85.5781
64.4531	84.9027	64.4531	84.9187	64.4531	84.8963	64.4531	84.9439	64.4531	84.8998	64.4531	84.9776	64.4531	84.9132	64.4531	85.0189	64.4531	84.9362	64.4531	85.0668	64.4531	84.9682	64.4531	85.1199	64.4531	85.0086	64.4531	85.1769	64.4531	85.0565	64.4531	85.2365	64.4531	85.1106	64.4531	85.2972	64.4531	85.1697	64.4531	85.3574	64.4531	85.2321	64.4531	85.4155	64.4531	85.2962	64.4531	85.4698	64.4531	85.36	64.4531	85.5184	64.4531	85.4213	64.4531	85.5594	64.4531	85.4779	64.4531	85.591	64.4531	85.5275	64.4531	85.6115	64.4531	85.5681	64.4531	85.6199	64.4531	85.5978	64.4531	85.6153
67.3828	85.186	67.3828	85.1983	67.3828	85.1822	67.3828	85.2188	67.3828	85.1869	67.3828	85.2466	67.3828	85.2	67.3828	85.2807	67.3828	85.2206	67.3828	85.3199	67.3828	85.2482	67.3828	85.3627	67.3828	85.2814	67.3828	85.4075	67.3828	85.3191	67.3828	85.4528	67.3828	85.3601	67.3828	85.4971	67.3828	85.4029	67.3828	85.5389	67.3828	85.4464	67.3828	85.5772	67.3828	85.4892	67.3828	85.6109	67.3828	85.5302	67.3828	85.6393	67.3828	85.5684	67.3828	85.6617	67.3828	85.6027	67.3828	85.6778	67.3828	85.6322	67.3828	85.6872	67.3828	85.6563	67.3828	85.6898	67.3828	85.6742	67.3828	85.6854
68.8477	85.4595	68.8477	85.4692	68.8477	85.4582	68.8477	85.4869	68.8477	85.4651	68.8477	85.5118	68.8477	85.4799	68.8477	85.543	68.8477	85.5017	68.8477	85.579	68.8477	85.5294	68.8477	85.6182	68.8477	85.5617	68.8477	85.659	68.8477	85.5972	68.8477	85.6997	68.8477	85.6344	68.8477	85.7388	68.8477	85.672	68.8477	85.775	68.8477	85.7088	68.8477	85.8072	68.8477	85.7436	68.8477	85.8348	68.8477	85.7759	68.8477	85.8572	68.8477	85.8048	68.8477	85.8742	68.8477	85.8302	68.8477	85.8859	68.8477	85.8516	68.8477	85.8923	68.8477	85.8689	68.8477	85.8937	68.8477	85.8818	68.8477	85.8901
71.7773	85.9737	71.7773	85.9803	71.7773	85.9756	71.7773	85.995	71.7773	85.9859	71.7773	86.0171	71.7773	86.0038	71.7773	86.0454	71.7773	86.0285	71.7773	86.0786	71.7773	86.0585	71.7773	86.115	71.7773	86.0924	71.7773	86.1528	71.7773	86.1285	71.7773	86.1905	71.7773	86.165	71.7773	86.2265	71.7773	86.2005	71.7773	86.2595	71.7773	86.2337	71.7773	86.2885	71.7773	86.2637	71.7773	86.3131	71.7773	86.2899	71.7773	86.3329	71.7773	86.3121	71.7773	86.3479	71.7773	86.3302	71.7773	86.3585	71.7773	86.3446	71.7773	86.3649	71.7773	86.3553	71.7773	86.3676	71.7773	86.3627	71.7773	86.3668
74.707	86.6136	74.707	86.6229	74.707	86.614	74.707	86.6414	74.707	86.6239	74.707	86.6682	74.707	86.6427	74.707	86.7019	74.707	86.6693	74.707	86.7407	74.707	86.7021	74.707	86.7826	74.707	86.7394	74.707	86.8256	74.707	86.7791	74.707	86.8675	74.707	86.8194	74.707	86.9065	74.707	86.8583	74.707	86.9413	74.707	86.8943	74.707	86.9706	74.707	86.9263	74.707	86.994	74.707	86.9537	74.707	87.0115	74.707	86.9761	74.707	87.0234	74.707	86.9939	74.707	87.0305	74.707	87.0076	74.707	87.0335	74.707	87.0178	74.707	87.0332	74.707	87.0253	74.707	87.0304
77.6367	87.1289	77.6367	87.142	77.6367	87.1239	77.6367	87.1624	77.6367	87.1268	77.6367	87.1893	77.6367	87.1374	77.6367	87.2211	77.6367	87.1545	77.6367	87.2561	77.6367	87.177	77.6367	87.2924	77.6367	87.2032	77.6367	87.3279	77.6367	87.2314	77.6367	87.3606	77.6367	87.2598	77.6367	87.3889	77.6367	87.2869	77.6367	87.4115	77.6367	87.3113	77.6367	87.4277	77.6367	87.3323	77.6367	87.4374	77.6367	87.3494	77.6367	87.4409	77.6367	87.363	77.6367	87.4392	77.6367	87.3738	77.6367	87.4337	77.6367	87.3826	77.6367	87.4257	77.6367	87.3906	77.6367	87.4165	77.6367	87.3987	77.6367	87.4074
79.1016	87.1458	79.1016	87.1595	79.1016	87.1397	79.1016	87.1802	79.1016	87.1413	79.1016	87.2069	79.1016	87.1502	79.1016	87.238	79.1016	87.1655	79.1016	87.2718	79.1016	87.1861	79.1016	87.3063	79.1016	87.2104	79.1016	87.3395	79.1016	87.2367	79.1016	87.3696	79.1016	87.2632	79.1016	87.3948	79.1016	87.2884	79.1016	87.4141	79.1016	87.3111	79.1016	87.4268	79.1016	87.3302	79.1016	87.433	79.1016	87.3456	79.1016	87.4334	79.1016	87.3574	79.1016	87.429	79.1016	87.3662	79.1016	87.4213	79.1016	87.3732	79.1016	87.412	79.1016	87.3795	79.1016	87.4025	79.1016	87.3861	79.1016	87.3937
82.0313	87.3132	82.0313	87.3271	82.0313	87.3057	82.0313	87.3468	82.0313	87.3048	82.0313	87.3714	82.0313	87.31	82.0313	87.3994	82.0313	87.3206	82.0313	87.4293	82.0313	87.3355	82.0313	87.4591	82.0313	87.3532	82.0313	87.4869	82.0313	87.3723	82.0313	87.5109	82.0313	87.3911	82.0313	87.5294	82.0313	87.4082	82.0313	87.5415	82.0313	87.4226	82.0313	87.5466	82.0313	87.4337	82.0313	87.5448	82.0313	87.4413	82.0313	87.5371	82.0313	87.4461	82.0313	87.5249	82.0313	87.449	82.0313	87.5101	82.0313	87.4514	82.0313	87.4947	82.0313	87.4547	82.0313	87.4805	82.0313	87.4603	82.0313	87.4688
84.9609	87.6474	84.9609	87.6645	84.9609	87.6355	84.9609	87.6861	84.9609	87.6289	84.9609	87.7111	84.9609	87.6275	84.9609	87.7381	84.9609	87.6308	84.9609	87.7653	84.9609	87.6378	84.9609	87.791	84.9609	87.6473	84.9609	87.8132	84.9609	87.6579	84.9609	87.8301	84.9609	87.6683	84.9609	87.8404	84.9609	87.6772	84.9609	87.843	84.9609	87.6836	84.9609	87.8379	84.9609	87.6872	84.9609	87.8255	84.9609	87.688	84.9609	87.8071	84.9609	87.6867	84.9609	87.7847	84.9609	87.6847	84.9609	87.7606	84.9609	87.6835	84.9609	87.7373	84.9609	87.6849	84.9609	87.7169	84.9609	87.6905	84.9609	87.7011
87.8906	87.7352	87.8906	87.7502	87.8906	87.7242	87.8906	87.7685	87.8906	87.7173	87.8906	87.7893	87.8906	87.7144	87.8906	87.8114	87.8906	87.715	87.8906	87.8331	87.8906	87.7184	87.8906	87.8529	87.8906	87.7234	87.8906	87.869	87.8906	87.729	87.8906	87.8797	87.8906	87.7338	87.8906	87.8839	87.8906	87.7369	87.8906	87.8808	87.8906	87.7375	87.8906	87.8703	87.8906	87.7353	87.8906	87.853	87.8906	87.7305	87.8906	87.8304	87.8906	87.7239	87.8906	87.8048	87.8906	87.7169	87.8906	87.7785	87.8906	87.7112	87.8906	87.7541	87.8906	87.7087	87.8906	87.7339	87.8906	87.711	87.8906	87.7193
90.8203	87.7791	90.8203	87.7934	90.8203	87.7687	90.8203	87.8113	90.8203	87.7625	90.8203	87.8317	90.8203	87.76	90.8203	87.8535	90.8203	87.7609	90.8203	87.8752	90.8203	87.7642	90.8203	87.8951	90.8203	87.769	90.8203	87.9115	90.8203	87.7739	90.8203	87.9227	90.8203	87.7779	90.8203	87.9273	90.8203	87.7799	90.8203	87.9244	90.8203	87.7793	90.8203	87.914	90.8203	87.7758	90.8203	87.8965	90.8203	87.7698	90.8203	87.8735	90.8203	87.7621	90.8203	87.847	90.8203	87.7543	90.8203	87.8197	90.8203	87.7481	90.8203	87.7941	90.8203	87.7455	90.8203	87.7727	90.8203	87.7481	90.8203	87.7571
95.2148	87.8755	95.2148	87.8851	95.2148	87.8674	95.2148	87.896	95.2148	87.861	95.2148	87.9077	95.2148	87.8559	95.2148	87.919	95.2148	87.8513	95.2148	87.9288	95.2148	87.8465	95.2148	87.9357	95.2148	87.8404	95.2148	87.9382	95.2148	87.832	95.2148	87.9348	95.2148	87.8203	95.2148	87.9244	95.2148	87.8049	95.2148	87.9063	95.2148	87.7854	95.2148	87.8808	95.2148	87.7624	95.2148	87.8486	95.2148	87.737	95.2148	87.8117	95.2148	87.711	95.2148	87.7726	95.2148	87.6866	95.2148	87.7345	95.2148	87.6667	95.2148	87.7007	95.2148	87.6538	95.2148	87.674	95.2148	87.6501	95.2148	87.6568
98.1445	87.8957	98.1445	87.9034	98.1445	87.8894	98.1445	87.9119	98.1445	87.8845	98.1445	87.9207	98.1445	87.8808	98.1445	87.929	98.1445	87.8778	98.1445	87.9357	98.1445	87.8748	98.1445	87.9396	98.1445	87.8705	98.1445	87.9393	98.1445	87.8639	98.1445	87.9336	98.1445	87.8537	98.1445	87.9215	98.1445	87.839	98.1445	87.9024	98.1445	87.8194	98.1445	87.8762	98.1445	87.7951	98.1445	87.8439	98.1445	87.7672	98.1445	87.8073	98.1445	87.7377	98.1445	87.769	98.1445	87.7091	98.1445	87.7321	98.1445	87.6845	98.1445	87.7	98.1445	87.6669	98.1445	87.6758	98.1445	87.6588	98.1445	87.6617
101.074	87.9096	101.074	87.9177	101.074	87.9007	101.074	87.9244	101.074	87.8914	101.074	87.9291	101.074	87.8819	101.074	87.9312	101.074	87.8723	101.074	87.9299	101.074	87.8621	101.074	87.9244	101.074	87.8507	101.074	87.9141	101.074	87.8372	101.074	87.898	101.074	87.8207	101.074	87.8758	101.074	87.8002	101.074	87.8473	101.074	87.7751	101.074	87.8129	101.074	87.7458	101.074	87.7738	101.074	87.713	101.074	87.7319	101.074	87.6787	101.074	87.6899	101.074	87.6455	101.074	87.651	101.074	87.6165	101.074	87.6184	101.074	87.5948	101.074	87.595	101.074	87.583	101.074	87.583
105.469	87.913	105.469	87.9241	105.469	87.8989	105.469	87.9314	105.469	87.8825	105.469	87.9342	105.469	87.8646	105.469	87.9319	105.469	87.8455	105.469	87.9239	105.469	87.8258	105.469	87.9097	105.469	87.8053	105.469	87.889	105.469	87.7838	105.469	87.8619	105.469	87.761	105.469	87.8285	105.469	87.7363	105.469	87.7896	105.469	87.7093	105.469	87.7466	105.469	87.68	105.469	87.7014	105.469	87.649	105.469	87.6563	105.469	87.6174	105.469	87.6141	105.469	87.5871	105.469	87.5776	105.469	87.5601	105.469	87.5491	105.469	87.539	105.469	87.5305	105.469	87.526	105.469	87.5229
108.398	87.9943	108.398	88.0019	108.398	87.9816	108.398	88.0037	108.398	87.9642	108.398	87.9993	108.398	87.9429	108.398	87.9882	108.398	87.918	108.398	87.9699	108.398	87.8901	108.398	87.9441	108.398	87.8594	108.398	87.9106	108.398	87.826	108.398	87.8695	108.398	87.7898	108.398	87.8212	108.398	87.7509	108.398	87.767	108.398	87.7094	108.398	87.7087	108.398	87.6656	108.398	87.6489	108.398	87.6205	108.398	87.5907	108.398	87.5755	108.398	87.5375	108.398	87.5326	108.398	87.493	108.398	87.4944	108.398	87.4598	108.398	87.4635	108.398	87.44	108.398	87.4428	108.398	87.4344
112.793	88.0548	112.793	88.0615	112.793	88.0418	112.793	88.0615	112.793	88.023	112.793	88.0548	112.793	87.9989	112.793	88.0413	112.793	87.9704	112.793	88.0211	112.793	87.9382	112.793	87.9942	112.793	87.9029	112.793	87.9608	112.793	87.865	112.793	87.9209	112.793	87.8249	112.793	87.8751	112.793	87.7826	112.793	87.8239	112.793	87.7386	112.793	87.7689	112.793	87.6934	112.793	87.7118	112.793	87.6479	112.793	87.6554	112.793	87.6037	112.793	87.6025	112.793	87.5628	112.793	87.5563	112.793	87.5279	112.793	87.5198	112.793	87.5016	112.793	87.4952	112.793	87.4863	112.793	87.4839
117.188	88.1273	117.188	88.1327	117.188	88.1121	117.188	88.1281	117.188	88.0875	117.188	88.1136	117.188	88.0545	117.188	88.0893	117.188	88.014	117.188	88.0559	117.188	87.9671	117.188	88.014	117.188	87.9149	117.188	87.9644	117.188	87.8586	117.188	87.9081	117.188	87.7994	117.188	87.8463	117.188	87.7385	117.188	87.7803	117.188	87.6772	117.188	87.712	117.188	87.6168	117.188	87.6436	117.188	87.5591	117.188	87.5778	117.188	87.5059	117.188	87.5173	117.188	87.4594	117.188	87.4651	117.188	87.4216	117.188	87.4238	117.188	87.3949	117.188	87.3952	117.188	87.3808	117.188	87.3808
120.117	88.1562	120.117	88.1624	120.117	88.1405	120.117	88.1584	120.117	88.1158	120.117	88.1444	120.117	88.0829	120.117	88.1203	120.117	88.0428	120.117	88.0866	120.117	87.9967	120.117	88.0439	120.117	87.9455	120.117	87.993	120.117	87.8902	120.117	87.9351	120.117	87.8318	120.117	87.8715	120.117	87.7714	120.117	87.8042	120.117	87.7103	120.117	87.7351	120.117	87.65	120.117	87.6669	120.117	87.5923	120.117	87.6022	120.117	87.5392	120.117	87.5437	120.117	87.4929	120.117	87.4939	120.117	87.4557	120.117	87.4548	120.117	87.4294	120.117	87.4282	120.117	87.4155	120.117	87.415
124.512	88.1562	124.512	88.1622	124.512	88.1389	124.512	88.1566	124.512	88.1111	124.512	88.1393	124.512	88.074	124.512	88.1108	124.512	88.0288	124.512	88.0717	124.512	87.9772	124.512	88.0229	124.512	87.9207	124.512	87.9656	124.512	87.8608	124.512	87.9013	124.512	87.799	124.512	87.8318	124.512	87.7367	124.512	87.7593	124.512	87.6752	124.512	87.6865	124.512	87.6158	124.512	87.6162	124.512	87.5601	124.512	87.5513	124.512	87.5094	124.512	87.4947	124.512	87.4655	124.512	87.4485	124.512	87.4297	124.512	87.4142	124.512	87.4034	124.512	87.3927	124.512	87.3879	124.512	87.3841
128.906	88.0671	128.906	88.076	128.906	88.0459	128.906	88.072	128.906	88.0133	128.906	88.0551	128.906	87.9706	128.906	88.0255	128.906	87.9194	128.906	87.9839	128.906	87.8613	128.906	87.931	128.906	87.7983	128.906	87.8683	128.906	87.7319	128.906	87.7973	128.906	87.6639	128.906	87.7201	128.906	87.5958	128.906	87.6393	128.906	87.529	128.906	87.5578	128.906	87.4648	128.906	87.479	128.906	87.4048	128.906	87.4064	128.906	87.3506	128.906	87.3428	128.906	87.3035	128.906	87.291	128.906	87.2654	128.906	87.2524	128.906	87.2375	128.906	87.228	128.906	87.2212	128.906	87.2177
133.301	87.9567	133.301	87.9707	133.301	87.9296	133.301	87.971	133.301	87.8904	133.301	87.9577	133.301	87.8408	133.301	87.9311	133.301	87.7826	133.301	87.8921	133.301	87.718	133.301	87.8418	133.301	87.6496	133.301	87.7817	133.301	87.5796	133.301	87.7136	133.301	87.5104	133.301	87.6397	133.301	87.444	133.301	87.5625	133.301	87.382	133.301	87.485	133.301	87.3257	133.301	87.4103	133.301	87.2762	133.301	87.3415	133.301	87.2342	133.301	87.2812	133.301	87.2001	133.301	87.2315	133.301	87.1745	133.301	87.1935	133.301	87.1578	133.301	87.1676	133.301	87.1505	133.301	87.1535
139.16	87.8158	139.16	87.8284	139.16	87.7871	139.16	87.8248	139.16	87.7429	139.16	87.8056	139.16	87.6846	139.16	87.7721	139.16	87.6142	139.16	87.7259	139.16	87.5343	139.16	87.6687	139.16	87.4481	139.16	87.6029	139.16	87.3591	139.16	87.5308	139.16	87.2712	139.16	87.4551	139.16	87.1883	139.16	87.3784	139.16	87.114	139.16	87.3035	139.16	87.0513	139.16	87.2331	139.16	87.0022	139.16	87.1691	139.16	86.9674	139.16	87.1129	139.16	86.9465	139.16	87.0653	139.16	86.9382	139.16	87.0258	139.16	86.9403	139.16	86.994	139.16	86.9511	139.16	86.9692
143.555	87.7232	143.555	87.7248	143.555	87.7019	143.555	87.7072	143.555	87.6617	143.555	87.6714	143.555	87.6038	143.555	87.6192	143.555	87.5303	143.555	87.5529	143.555	87.444	143.555	87.4757	143.555	87.3483	143.555	87.3908	143.555	87.2471	143.555	87.3022	143.555	87.1449	143.555	87.2135	143.555	87.0465	143.555	87.1286	143.555	86.9566	143.555	87.0506	143.555	86.8793	143.555	86.9819	143.555	86.8177	143.555	86.9236	143.555	86.7734	143.555	86.8757	143.555	86.7462	143.555	86.837	143.555	86.7341	143.555	86.8058	143.555	86.7344	143.555	86.7803	143.555	86.7438	143.555	86.7596
147.949	87.6505	147.949	87.6505	147.949	87.6283	147.949	87.6283	147.949	87.5847	147.949	87.5844	147.949	87.5214	147.949	87.5203	147.949	87.4408	147.949	87.4384	147.949	87.3457	147.949	87.3417	147.949	87.2397	147.949	87.2338	147.949	87.127	147.949	87.1196	147.949	87.0121	147.949	87.004	147.949	86.8999	147.949	86.8927	147.949	86.7953	147.949	86.7907	147.949	86.7027	147.949	86.7023	147.949	86.6256	147.949	86.6302	147.949	86.5657	147.949	86.5749	147.949	86.5231	147.949	86.535	147.949	86.4961	147.949	86.5079	147.949	86.482	147.949	86.4906	147.949	86.4776	147.949	86.4808
153.809	87.5278	153.809	87.5344	153.809	87.4969	153.809	87.5165	153.809	87.4425	153.809	87.4748	153.809	87.3663	153.809	87.4106	153.809	87.2706	153.809	87.326	153.809	87.1588	153.809	87.2237	153.809	87.0346	153.809	87.1073	153.809	86.9031	153.809	86.9813	153.809	86.7695	153.809	86.8512	153.809	86.6401	153.809	86.723	153.809	86.5209	153.809	86.6032	153.809	86.4175	153.809	86.4972	153.809	86.334	153.809	86.4089	153.809	86.2722	153.809	86.3398	153.809	86.2315	153.809	86.2888	153.809	86.209	153.809	86.253	153.809	86.2008	153.809	86.2285	153.809	86.2028	153.809	86.2123
159.668	87.528	159.668	87.5326	159.668	87.4977	159.668	87.5117	159.668	87.4422	159.668	87.466	159.668	87.3629	159.668	87.3973	159.668	87.262	159.668	87.3079	159.668	87.1423	159.668	87.201	159.668	87.0075	159.668	87.0806	159.668	86.8624	159.668	86.9514	159.668	86.7129	159.668	86.8191	159.668	86.5658	159.668	86.6898	159.668	86.429	159.668	86.5696	159.668	86.31	159.668	86.4636	159.668	86.2152	159.668	86.375	159.668	86.1482	159.668	86.3041	159.668	86.1091	159.668	86.2491	159.668	86.0946	159.668	86.206	159.668	86.0991	159.668	86.1709	159.668	86.1163	159.668	86.1411
165.527	87.6517	165.527	87.6483	165.527	87.6292	165.527	87.6191	165.527	87.5817	165.527	87.5649	165.527	87.511	165.527	87.4874	165.527	87.4193	165.527	87.3893	165.527	87.3096	165.527	87.2738	165.527	87.1853	165.527	87.1453	165.527	87.0505	165.527	87.0088	165.527	86.9098	165.527	86.8704	165.527	86.7688	165.527	86.7366	165.527	86.6338	165.527	86.614	165.527	86.5114	165.527	86.5081	165.527	86.408	165.527	86.4225	165.527	86.3279	165.527	86.3575	165.527	86.2729	165.527	86.311	165.527	86.2413	165.527	86.2787	165.527	86.2288	165.527	86.2561	165.527	86.23	165.527	86.24
171.387	87.5292	171.387	87.5248	171.387	87.5049	171.387	87.4916	171.387	87.4529	171.387	87.4308	171.387	87.3755	171.387	87.3449	171.387	87.2757	171.387	87.2372	171.387	87.1575	171.387	87.1124	171.387	87.0256	171.387	86.9764	171.387	86.8854	171.387	86.8359	171.387	86.7431	171.387	86.6983	171.387	86.6054	171.387	86.5711	171.387	86.4794	171.387	86.4611	171.387	86.3716	171.387	86.3729	171.387	86.2871	171.387	86.3081	171.387	86.2282	171.387	86.265	171.387	86.1942	171.387	86.2388	171.387	86.1809	171.387	86.2232	171.387	86.182	171.387	86.2122	171.387	86.1908	171.387	86.2017
177.246	87.3494	177.246	87.3485	177.246	87.3193	177.246	87.3153	177.246	87.2603	177.246	87.2503	177.246	87.1756	177.246	87.155	177.246	87.0695	177.246	87.0324	177.246	86.9468	177.246	86.8874	177.246	86.8129	177.246	86.7265	177.246	86.6738	177.246	86.5583	177.246	86.5355	177.246	86.393	177.246	86.4042	177.246	86.2415	177.246	86.2858	177.246	86.1139	177.246	86.1853	177.246	86.0176	177.246	86.106	177.246	85.9552	177.246	86.0489	177.246	85.9241	177.246	86.0117	177.246	85.9174	177.246	85.9898	177.246	85.9259	177.246	85.977	177.246	85.9407	177.246	85.9669	177.246	85.9552
183.105	87.1059	183.105	87.121	183.105	87.0546	183.105	87.0992	183.105	86.9689	183.105	87.0413	183.105	86.8524	183.105	86.9491	183.105	86.7098	183.105	86.8259	183.105	86.5477	183.105	86.6766	183.105	86.3742	183.105	86.5079	183.105	86.1987	183.105	86.3287	183.105	86.0318	183.105	86.1502	183.105	85.8842	183.105	85.9848	183.105	85.7651	183.105	85.8449	183.105	85.6808	183.105	85.74	183.105	85.6329	183.105	85.6742	183.105	85.6174	183.105	85.6449	183.105	85.626	183.105	85.6436	183.105	85.6472	183.105	85.658	183.105	85.6697	183.105	85.6756	183.105	85.6844	183.105	85.6862
188.965	87.0543	188.965	87.0722	188.965	86.9979	188.965	87.0517	188.965	86.9035	188.965	86.9937	188.965	86.7729	188.965	86.8998	188.965	86.6085	188.965	86.7723	188.965	86.4147	188.965	86.6149	188.965	86.1976	188.965	86.433	188.965	85.9661	188.965	86.2346	188.965	85.7318	188.965	86.0302	188.965	85.5093	188.965	85.8329	188.965	85.3147	188.965	85.6561	188.965	85.1628	188.965	85.5113	188.965	85.0637	188.965	85.4046	188.965	85.0193	188.965	85.3346	188.965	85.0224	188.965	85.293	188.965	85.059	188.965	85.2668	188.965	85.1119	188.965	85.2426	188.965	85.1657	188.965	85.2103
196.289	86.9797	196.289	86.9766	196.289	86.9438	196.289	86.9353	196.289	86.8689	196.289	86.8579	196.289	86.7565	196.289	86.7471	196.289	86.609	196.289	86.6067	196.289	86.4308	196.289	86.4413	196.289	86.2275	196.289	86.257	196.289	86.0069	196.289	86.0615	196.289	85.7793	196.289	85.865	196.289	85.5572	196.289	85.679	196.289	85.355	196.289	85.5156	196.289	85.1869	196.289	85.3841	196.289	85.0639	196.289	85.2885	196.289	84.9912	196.289	85.226	196.289	84.9662	196.289	85.1875	196.289	84.9789	196.289	85.1609	196.289	85.0149	196.289	85.1346	196.289	85.0594	196.289	85.1012
203.613	86.8792	203.613	86.862	203.613	86.8519	203.613	86.8006	203.613	86.7812	203.613	86.6965	203.613	86.6691	203.613	86.5529	203.613	86.5188	203.613	86.3745	203.613	86.3346	203.613	86.1681	203.613	86.1223	203.613	85.9427	203.613	85.8903	203.613	85.7101	203.613	85.6494	203.613	85.4846	203.613	85.4141	203.613	85.282	203.613	85.2007	203.613	85.117	203.613	85.0258	203.613	84.9995	203.613	84.9015	203.613	84.9317	203.613	84.8324	203.613	84.9063	203.613	84.813	203.613	84.909	203.613	84.8298	203.613	84.9224	203.613	84.8647	203.613	84.931	203.613	84.9006	203.613	84.9245
210.938	86.7547	210.938	86.75	210.938	86.7145	210.938	86.6997	210.938	86.6309	210.938	86.6036	210.938	86.5064	210.938	86.4629	210.938	86.3439	210.938	86.2799	210.938	86.1472	210.938	86.0588	210.938	85.9217	210.938	85.8074	210.938	85.6747	210.938	85.5372	210.938	85.4168	210.938	85.2655	210.938	85.1625	210.938	85.0136	210.938	84.9296	210.938	84.8039	210.938	84.737	210.938	84.654	210.938	84.5997	210.938	84.5703	210.938	84.5242	210.938	84.5453	210.938	84.5047	210.938	84.5597	210.938	84.525	210.938	84.5898	210.938	84.5638	210.938	84.6142	210.938	84.6	210.938	84.6189
218.262	86.5512	218.262	86.5541	218.262	86.5016	218.262	86.5094	218.262	86.4075	218.262	86.4168	218.262	86.2716	218.262	86.277	218.262	86.0979	218.262	86.0919	218.262	85.8911	218.262	85.8653	218.262	85.6577	218.262	85.6038	218.262	85.406	218.262	85.3186	218.262	85.1472	218.262	85.0267	218.262	84.8956	218.262	84.7508	218.262	84.6683	218.262	84.5164	218.262	84.4824	218.262	84.3458	218.262	84.3512	218.262	84.2497	218.262	84.2792	218.262	84.2224	218.262	84.2601	218.262	84.2438	218.262	84.2776	218.262	84.2866	218.262	84.3103	218.262	84.3258	218.262	84.3376	218.262	84.3446
225.586	86.4842	225.586	86.523	225.586	86.3942	225.586	86.5097	225.586	86.2547	225.586	86.4439	225.586	86.0683	225.586	86.3256	225.586	85.8389	225.586	86.1553	225.586	85.5726	225.586	85.9349	225.586	85.2785	225.586	85.6693	225.586	84.9702	225.586	85.3682	225.586	84.6664	225.586	85.0487	225.586	84.3911	225.586	84.7357	225.586	84.17	225.586	84.4603	225.586	84.0244	225.586	84.2524	225.586	83.963	225.586	84.1306	225.586	83.9777	225.586	84.0939	225.586	84.0448	225.586	84.1215	225.586	84.1333	225.586	84.1809	225.586	84.2134	225.586	84.2392	225.586	84.263	225.586	84.2711
232.91	86.7691	232.91	86.7862	232.91	86.703	232.91	86.757	232.91	86.5853	232.91	86.6847	232.91	86.4139	232.91	86.5713	232.91	86.1873	232.91	86.4184	232.91	85.9051	232.91	86.2267	232.91	85.5688	232.91	85.9975	232.91	85.1842	232.91	85.7342	232.91	84.7652	232.91	85.4456	232.91	84.3372	232.91	85.1472	232.91	83.9396	232.91	84.8621	232.91	83.6208	232.91	84.616	232.91	83.4247	232.91	84.4295	232.91	83.3707	232.91	84.3084	232.91	83.4422	232.91	84.24	232.91	83.5948	232.91	84.197	232.91	83.7755	232.91	84.1479	232.91	83.9411	232.91	84.0669
241.699	86.5303	241.699	86.4884	241.699	86.5212	241.699	86.3982	241.699	86.4593	241.699	86.2635	241.699	86.3437	241.699	86.0884	241.699	86.1742	241.699	85.8779	241.699	85.9508	241.699	85.6373	241.699	85.6748	241.699	85.3734	241.699	85.3494	241.699	85.0952	241.699	84.9822	241.699	84.8159	241.699	84.5891	241.699	84.5528	241.699	84.1974	241.699	84.3259	241.699	83.8455	241.699	84.1528	241.699	83.5768	241.699	84.0418	241.699	83.4244	241.699	83.9868	241.699	83.3955	241.699	83.9668	241.699	83.4667	241.699	83.9533	241.699	83.5942	241.699	83.9188	241.699	83.7321	241.699	83.8458
250.488	86.4478	250.488	86.4189	250.488	86.4164	250.488	86.3302	250.488	86.3252	250.488	86.1827	250.488	86.1753	250.488	85.9784	250.488	85.9686	250.488	85.7202	250.488	85.7075	250.488	85.4127	250.488	85.3958	250.488	85.0642	250.488	85.0393	250.488	84.6882	250.488	84.648	250.488	84.3059	250.488	84.239	250.488	83.9467	250.488	83.8391	250.488	83.6444	250.488	83.4841	250.488	83.4281	250.488	83.2132	250.488	83.3104	250.488	83.0547	250.488	83.2799	250.488	83.0129	250.488	83.3048	250.488	83.0633	250.488	83.3445	250.488	83.1627	250.488	83.3629	250.488	83.2657	250.488	83.3379
259.277	86.7064	259.277	86.681	259.277	86.6832	259.277	86.6072	259.277	86.6107	259.277	86.4849	259.277	86.488	259.277	86.3137	259.277	86.3128	259.277	86.093	259.277	86.0826	259.277	85.8227	259.277	85.795	259.277	85.5049	259.277	85.4495	259.277	85.1462	259.277	85.0509	259.277	84.7612	259.277	84.6129	259.277	84.3739	259.277	84.1621	259.277	84.0169	259.277	83.7389	259.277	83.7238	259.277	83.391	259.277	83.5175	259.277	83.1584	259.277	83.3999	259.277	83.0542	259.277	83.3504	259.277	83.0581	259.277	83.3352	259.277	83.1263	259.277	83.32	259.277	83.2119	259.277	83.281
268.066	86.1534	268.066	86.1173	268.066	86.1331	268.066	86.0265	268.066	86.0558	268.066	85.8842	268.066	85.922	268.066	85.6939	268.066	85.7325	268.066	85.4602	268.066	85.4891	268.066	85.1883	268.066	85.1942	268.066	84.8859	268.066	84.8527	268.066	84.5653	268.066	84.4757	268.066	84.2467	268.066	84.0836	268.066	83.958	268.066	83.7097	268.066	83.7311	268.066	83.3982	268.066	83.591	268.066	83.1925	268.066	83.5435	268.066	83.1176	268.066	83.5707	268.066	83.1656	268.066	83.6366	268.066	83.297	268.066	83.7001	268.066	83.4587	268.066	83.7271	268.066	83.6024	268.066	83.6962
276.855	86.3213	276.855	86.2805	276.855	86.3098	276.855	86.1833	276.855	86.2493	276.855	86.025	276.855	86.1409	276.855	85.8013	276.855	85.9826	276.855	85.5087	276.855	85.7692	276.855	85.1453	276.855	85.4945	276.855	84.7132	276.855	85.1535	276.855	84.2234	276.855	84.7468	276.855	83.7013	276.855	84.2858	276.855	83.1928	276.855	83.7974	276.855	82.7613	276.855	83.3261	276.855	82.4699	276.855	82.9291	276.855	82.3502	276.855	82.6587	276.855	82.3814	276.855	82.5379	276.855	82.5009	276.855	82.5454	276.855	82.6363	276.855	82.6252	276.855	82.7314	276.855	82.7128	276.855	82.7571
287.109	86.3242	287.109	86.3753	287.109	86.2139	287.109	86.3642	287.109	86.0509	287.109	86.2899	287.109	85.8443	287.109	86.1514	287.109	85.6039	287.109	85.9462	287.109	85.3359	287.109	85.6699	287.109	85.0399	287.109	85.3174	287.109	84.7088	287.109	84.8874	287.109	84.3349	287.109	84.3884	287.109	83.9193	287.109	83.8468	287.109	83.4818	287.109	83.3133	287.109	83.0656	287.109	82.8581	287.109	82.7286	287.109	82.5477	287.109	82.5185	287.109	82.4096	287.109	82.4456	287.109	82.4142	287.109	82.4755	287.109	82.494	287.109	82.5493	287.109	82.5797	287.109	82.6109	287.109	82.6245
297.363	86.1222	297.363	86.0995	297.363	86.0762	297.363	86.0186	297.363	85.9535	297.363	85.891	297.363	85.7504	297.363	85.7255	297.363	85.4676	297.363	85.5262	297.363	85.1097	297.363	85.2912	297.363	84.6828	297.363	85.0139	297.363	84.195	297.363	84.6884	297.363	83.6587	297.363	84.3158	297.363	83.0985	297.363	83.9118	297.363	82.5607	297.363	83.5104	297.363	82.1162	297.363	83.1591	297.363	81.8416	297.363	82.9038	297.363	81.7786	297.363	82.7664	297.363	81.9025	297.363	82.7308	297.363	82.1352	297.363	82.7488	297.363	82.3878	297.363	82.7611	297.363	82.5933	297.363	82.7182
307.617	86.2414	307.617	86.1736	307.617	86.2617	307.617	86.0593	307.617	86.232	307.617	85.8991	307.617	86.1479	307.617	85.6938	307.617	86.0029	307.617	85.4446	307.617	85.7885	307.617	85.1531	307.617	85.4947	307.617	84.8216	307.617	85.11	307.617	84.4549	307.617	84.6241	307.617	84.0648	307.617	84.0342	307.617	83.6754	307.617	83.3584	307.617	83.324	307.617	82.6526	307.617	83.0504	307.617	82.0221	307.617	82.878	307.617	81.5992	307.617	82.797	307.617	81.47	307.617	82.7665	307.617	81.6085	307.617	82.7323	307.617	81.8985	307.617	82.6455	307.617	82.2147	307.617	82.4747
319.336	85.7679	319.336	85.732	319.336	85.7485	319.336	85.6383	319.336	85.6787	319.336	85.4862	319.336	85.5646	319.336	85.2756	319.336	85.411	319.336	85.0053	319.336	85.2183	319.336	84.6738	319.336	84.9814	319.336	84.2812	319.336	84.6904	319.336	83.8358	319.336	84.3348	319.336	83.3617	319.336	83.9115	319.336	82.9067	319.336	83.4347	319.336	82.5401	319.336	82.946	319.336	82.3298	319.336	82.5174	319.336	82.303	319.336	82.2328	319.336	82.4225	319.336	82.1456	319.336	82.6048	319.336	82.2402	319.336	82.7627	319.336	82.4395	319.336	82.8349	319.336	82.6491	319.336	82.7946
329.59	85.8072	329.59	85.8263	329.59	85.7291	329.59	85.7822	329.59	85.5987	329.59	85.6725	329.59	85.4242	329.59	85.4937	329.59	85.2123	329.59	85.2389	329.59	84.965	329.59	84.8964	329.59	84.6764	329.59	84.452	329.59	84.3332	329.59	83.8956	329.59	83.9202	329.59	83.2351	329.59	83.4306	329.59	82.5162	329.59	82.8799	329.59	81.8411	329.59	82.3201	329.59	81.3566	329.59	81.8423	329.59	81.1795	329.59	81.5483	329.59	81.3	329.59	81.4897	329.59	81.5866	329.59	81.6256	329.59	81.8836	329.59	81.8486	329.59	82.0832	329.59	82.046	329.59	82.1375
341.309	85.4258	341.309	85.4363	341.309	85.3494	341.309	85.3872	341.309	85.2088	341.309	85.2896	341.309	85.0145	341.309	85.154	341.309	84.7825	341.309	84.9849	341.309	84.5289	341.309	84.775	341.309	84.2619	341.309	84.5056	341.309	83.9769	341.309	84.1513	341.309	83.6578	341.309	83.6926	341.309	83.2887	341.309	83.1338	341.309	82.8689	341.309	82.5239	341.309	82.4304	341.309	81.9698	341.309	82.0428	341.309	81.6099	341.309	81.7935	341.309	81.529	341.309	81.7362	341.309	81.6838	341.309	81.8467	341.309	81.9363	341.309	82.0338	341.309	82.1491	341.309	82.1913	341.309	82.2408
353.027	85.3973	353.027	85.3528	353.027	85.3594	353.027	85.2344	353.027	85.2343	353.027	85.053	353.027	85.0206	353.027	84.8202	353.027	84.7194	353.027	84.5439	353.027	84.333	353.027	84.2249	353.027	83.8627	353.027	83.8545	353.027	83.3071	353.027	83.4179	353.027	82.6646	353.027	82.905	353.027	81.943	353.027	82.328	353.027	81.1825	353.027	81.7424	353.027	80.4843	353.027	81.2544	353.027	80.0155	353.027	80.986	353.027	79.9265	353.027	80.9912	353.027	80.2133	353.027	81.2027	353.027	80.7051	353.027	81.4774	353.027	81.1987	353.027	81.6792	353.027	81.5572	353.027	81.7191
366.211	85.3244	366.211	85.2429	366.211	85.3308	366.211	85.0899	366.211	85.2665	366.211	84.8775	366.211	85.1413	366.211	84.6244	366.211	84.9657	366.211	84.3502	366.211	84.7446	366.211	84.0647	366.211	84.469	366.211	83.7592	366.211	84.1108	366.211	83.4052	366.211	83.6243	366.211	82.9675	366.211	82.9565	366.211	82.4285	366.211	82.0675	366.211	81.8174	366.211	80.9695	366.211	81.2305	366.211	79.7981	366.211	80.8086	366.211	78.8847	366.211	80.647	366.211	78.6179	366.211	80.7058	366.211	79.0162	366.211	80.836	366.211	79.7017	366.211	80.8787	366.211	80.3237	366.211	80.7245
379.395	85.4756	379.395	85.4836	379.395	85.3932	379.395	85.4141	379.395	85.2481	379.395	85.2705	379.395	85.0611	379.395	85.0605	379.395	84.8601	379.395	84.792	379.395	84.6729	379.395	84.4677	379.395	84.5133	379.395	84.0782	379.395	84.367	379.395	83.5999	379.395	84.186	379.395	83.0008	379.395	83.898	379.395	82.2587	379.395	83.4256	379.395	81.393	379.395	82.7082	379.395	80.5048	379.395	81.7292	379.395	79.7886	379.395	80.5641	379.395	79.4316	379.395	79.4493	379.395	79.4277	379.395	78.7603	379.395	79.5635	379.395	78.701	379.395	79.6027	379.395	79.0466	379.395	79.4207
392.578	85.4379	392.578	85.4005	392.578	85.3327	392.578	85.2306	392.578	85.0816	392.578	84.9457	392.578	84.691	392.578	84.5738	392.578	84.1869	392.578	84.1558	392.578	83.6276	392.578	83.7417	392.578	83.1131	392.578	83.3732	392.578	82.7615	392.578	83.0593	392.578	82.638	392.578	82.761	392.578	82.6889	392.578	82.4062	392.578	82.7673	392.578	81.9273	392.578	82.7192	392.578	81.3021	392.578	82.4451	392.578	80.5849	392.578	81.9202	392.578	79.9095	392.578	81.2023	392.578	79.4259	392.578	80.4311	392.578	79.1896	392.578	79.7867	392.578	79.1368	392.578	79.3826	392.578	79.1946
405.762	85.5881	405.762	85.5081	405.762	85.5578	405.762	85.3229	405.762	85.4114	405.762	85.0375	405.762	85.142	405.762	84.6562	405.762	84.7415	405.762	84.1839	405.762	84.2029	405.762	83.629	405.762	83.5287	405.762	83.0114	405.762	82.7477	405.762	82.3734	405.762	81.9393	405.762	81.7842	405.762	81.2482	405.762	81.326	405.762	80.8389	405.762	81.0549	405.762	80.7752	405.762	80.9665	405.762	80.9568	405.762	81.0052	405.762	81.2114	405.762	81.1053	405.762	81.4149	405.762	81.2209	405.762	81.5252	405.762	81.3285	405.762	81.5557	405.762	81.4186	405.762	81.5362	405.762	81.4882
420.41	85.7252	420.41	85.5974	420.41	85.7377	420.41	85.3577	420.41	85.6325	420.41	85.011	420.41	85.4064	420.41	84.5646	420.41	85.0544	420.41	84.028	420.41	84.5684	420.41	83.4116	420.41	83.9386	420.41	82.7233	420.41	83.1585	420.41	81.9671	420.41	82.2362	420.41	81.1499	420.41	81.214	420.41	80.3055	420.41	80.1958	420.41	79.5327	420.41	79.3611	420.41	79.0062	420.41	78.9044	420.41	78.882	420.41	78.8915	420.41	79.1391	420.41	79.1971	420.41	79.5825	420.41	79.621	420.41	80.0047	420.41	80.0088	420.41	80.2828	420.41	80.274	420.41	80.3726
435.059	86.3742	435.059	86.3097	435.059	86.3495	435.059	86.1502	435.059	86.2356	435.059	85.8842	435.059	86.0266	435.059	85.4959	435.059	85.7112	435.059	84.9671	435.059	85.2729	435.059	84.2816	435.059	84.692	435.059	83.433	435.059	83.9492	435.059	82.4377	435.059	83.0362	435.059	81.3518	435.059	81.9745	435.059	80.2859	435.059	80.8465	435.059	79.3949	435.059	79.8229	435.059	78.8217	435.059	79.1291	435.059	78.6205	435.059	78.8979	435.059	78.7325	435.059	79.046	435.059	79.0317	435.059	79.361	435.059	79.3824	435.059	79.6575	435.059	79.6746	435.059	79.8298	435.059	79.8355
451.172	86.3793	451.172	86.4174	451.172	86.2927	451.172	86.4013	451.172	86.1647	451.172	86.3244	451.172	86.0003	451.172	86.1743	451.172	85.7953	451.172	85.9271	451.172	85.5297	451.172	85.5463	451.172	85.1651	451.172	84.9855	451.172	84.6496	451.172	84.1957	451.172	83.929	451.172	83.1391	451.172	82.9629	451.172	81.8175	451.172	81.7533	451.172	80.336	451.172	80.4	451.172	79.0019	451.172	79.1816	451.172	78.2844	451.172	78.5157	451.172	78.3726	451.172	78.5845	451.172	78.9293	451.172	79.0981	451.172	79.5326	451.172	79.6551	451.172	79.9603	451.172	80.0268	451.172	80.1326
465.82	85.5878	465.82	85.5816	465.82	85.5459	465.82	85.5296	465.82	85.4614	465.82	85.4399	465.82	85.3448	465.82	85.32	465.82	85.2029	465.82	85.1668	465.82	85.0283	465.82	84.9579	465.82	84.7909	465.82	84.6479	465.82	84.4396	465.82	84.1753	465.82	83.912	465.82	83.4774	465.82	83.1517	465.82	82.5139	465.82	82.131	465.82	81.3072	465.82	80.8907	465.82	80.0149	465.82	79.6062	465.82	78.9908	465.82	78.6287	465.82	78.6085	465.82	78.2953	465.82	78.8381	465.82	78.561	465.82	79.2875	465.82	79.0661	465.82	79.6241	465.82	79.4988	465.82	79.7026
483.398	84.8916	483.398	84.8965	483.398	84.8438	483.398	84.8704	483.398	84.7545	483.398	84.8311	483.398	84.6384	483.398	84.7878	483.398	84.5137	483.398	84.7267	483.398	84.3858	483.398	84.6054	483.398	84.2306	483.398	84.3591	483.398	83.9911	483.398	83.9171	483.398	83.5898	483.398	83.2222	483.398	82.9507	483.398	82.2573	483.398	82.0286	483.398	81.0885	483.398	80.853	483.398	79.9263	483.398	79.6063	483.398	79.1147	483.398	78.6759	483.398	78.8868	483.398	78.4241	483.398	79.1149	483.398	78.7619	483.398	79.486	483.398	79.2829	483.398	79.7686	483.398	79.6842	483.398	79.8497
499.512	84.5346	499.512	84.4892	499.512	84.4982	499.512	84.3762	499.512	84.3901	499.512	84.2338	499.512	84.2401	499.512	84.1122	499.512	84.0887	499.512	84.0455	499.512	83.9669	499.512	84.0183	499.512	83.8708	499.512	83.9547	499.512	83.7463	499.512	83.7422	499.512	83.4995	499.512	83.2687	499.512	83.0258	499.512	82.4557	499.512	82.2418	499.512	81.2981	499.512	81.1252	499.512	79.9527	499.512	79.7924	499.512	78.8529	499.512	78.6177	499.512	78.5167	499.512	78.1385	499.512	78.9052	499.512	78.4612	499.512	79.4923	499.512	79.1208	499.512	79.8892	499.512	79.6829	499.512	79.9576
517.09	83.5947	517.09	83.5434	517.09	83.5613	517.09	83.4211	517.09	83.4659	517.09	83.2752	517.09	83.3621	517.09	83.1729	517.09	83.3175	517.09	83.1668	517.09	83.3762	517.09	83.2515	517.09	83.5189	517.09	83.3491	517.09	83.6575	517.09	83.3377	517.09	83.6679	517.09	83.0959	517.09	83.4315	517.09	82.5343	517.09	82.8603	517.09	81.622	517.09	81.9158	517.09	80.4367	517.09	80.6532	517.09	79.249	517.09	79.3179	517.09	78.5069	517.09	78.3966	517.09	78.4548	517.09	78.2564	517.09	78.8246	517.09	78.6595	517.09	79.1931	517.09	79.109	517.09	79.3123
536.133	82.6338	536.133	82.5248	536.133	82.4775	536.133	82.1676	536.133	82.0602	536.133	81.6134	536.133	81.4187	536.133	80.9835	536.133	80.6588	536.133	80.4967	536.133	80.0022	536.133	80.3843	536.133	79.7441	536.133	80.6714	536.133	80.0097	536.133	81.1241	536.133	80.59	536.133	81.4676	536.133	81.1536	536.133	81.5549	536.133	81.4864	536.133	81.3924	536.133	81.5365	536.133	81.122	536.133	81.391	536.133	80.9654	536.133	81.2391	536.133	81.0815	536.133	81.2706	536.133	81.4342	536.133	81.5276	536.133	81.8485	536.133	81.8827	536.133	82.1585	536.133	82.1676	536.133	82.2726
555.176	85.267	555.176	85.1115	555.176	85.2385	555.176	84.7723	555.176	85.0303	555.176	84.2619	555.176	84.6516	555.176	83.6174	555.176	84.1201	555.176	82.9115	555.176	83.4671	555.176	82.2412	555.176	82.7346	555.176	81.6681	555.176	81.9529	555.176	81.1372	555.176	81.1028	555.176	80.4721	555.176	80.0905	555.176	79.473	555.176	78.7755	555.176	78.0895	555.176	77.1078	555.176	76.7884	555.176	75.5648	555.176	76.7563	555.176	75.5515	555.176	78.1839	555.176	77.2825	555.176	79.8644	555.176	79.2634	555.176	81.1175	555.176	80.7521	555.176	81.8219	555.176	81.6495	555.176	81.9961
574.219	84.9925	574.219	84.8898	574.219	84.8815	574.219	84.5742	574.219	84.5664	574.219	84.0637	574.219	84.0737	574.219	83.4102	574.219	83.4658	574.219	82.7193	574.219	82.8591	574.219	82.1395	574.219	82.4036	574.219	81.7737	574.219	82.1811	574.219	81.5568	574.219	82.0962	574.219	81.2547	574.219	81.909	574.219	80.5866	574.219	81.3567	574.219	79.3285	574.219	80.2251	574.219	77.4377	574.219	78.4001	574.219	75.5618	574.219	76.1605	574.219	75.4687	574.219	75.0109	574.219	77.101	574.219	76.1707	574.219	78.6982	574.219	77.973	574.219	79.6146	574.219	79.2442	574.219	79.7921
594.727	88.1273	594.727	88.015	594.727	88.0327	594.727	87.6927	594.727	87.7285	594.727	87.1548	594.727	87.2109	594.727	86.4102	594.727	86.4907	594.727	85.5159	594.727	85.6212	594.727	84.6207	594.727	84.7354	594.727	83.9479	594.727	84.0387	594.727	83.6219	594.727	83.6671	594.727	83.49	594.727	83.5087	594.727	83.2301	594.727	83.2635	594.727	82.5746	594.727	82.6527	594.727	81.4296	594.727	81.5502	594.727	80.0188	594.727	80.124	594.727	79.1031	594.727	79.0975	594.727	79.3859	594.727	79.2908	594.727	80.3534	594.727	80.2727	594.727	81.1628	594.727	81.1264	594.727	81.4481
615.234	90.3464	615.234	90.2379	615.234	90.2672	615.234	89.9425	615.234	89.9927	615.234	89.4555	615.234	89.5113	615.234	88.7742	615.234	88.8159	615.234	87.9181	615.234	87.9218	615.234	86.964	615.234	86.8999	615.234	86.0657	615.234	85.9082	615.234	85.376	615.234	85.1461	615.234	84.8707	615.234	84.6669	615.234	84.3068	615.234	84.2568	615.234	83.4038	615.234	83.5937	615.234	82.0567	615.234	82.4842	615.234	80.6266	615.234	81.1074	615.234	80.1737	615.234	80.3348	615.234	81.1348	615.234	80.9616	615.234	82.4717	615.234	82.2564	615.234	83.3905	615.234	83.2693	615.234	83.6668
637.207	89.2394	637.207	89.1429	637.207	89.1742	637.207	88.886	637.207	88.9432	637.207	88.4704	637.207	88.5435	637.207	87.9041	637.207	87.9826	637.207	87.2164	637.207	87.2953	637.207	86.4755	637.207	86.5581	637.207	85.7847	637.207	85.8765	637.207	85.2145	637.207	85.3164	637.207	84.6971	637.207	84.8206	637.207	84.0185	637.207	84.2099	637.207	82.9449	637.207	83.2725	637.207	81.4138	637.207	81.8692	637.207	79.8806	637.207	80.1269	637.207	79.4891	637.207	78.887	637.207	80.4633	637.207	79.2847	637.207	81.6686	637.207	80.6928	637.207	82.4072	637.207	81.9072	637.207	82.4984
659.18	88.7763	659.18	88.6923	659.18	88.6992	659.18	88.4342	659.18	88.4593	659.18	87.9799	659.18	88.0403	659.18	87.3114	659.18	87.4189	659.18	86.4414	659.18	86.5865	659.18	85.4578	659.18	85.5889	659.18	84.5519	659.18	84.5684	659.18	83.9281	659.18	83.7324	659.18	83.5723	659.18	83.1651	659.18	83.1902	659.18	82.6708	659.18	82.4242	659.18	81.9132	659.18	81.0572	659.18	80.6646	659.18	79.2626	659.18	79.0737	659.18	78.1747	659.18	78.0977	659.18	78.9275	659.18	78.7253	659.18	80.3845	659.18	80.1183	659.18	81.3826	659.18	81.208	659.18	81.6545
682.617	87.95	682.617	87.8591	682.617	87.8785	682.617	87.6054	682.617	87.6393	682.617	87.1824	682.617	87.2234	682.617	86.5798	682.617	86.6249	682.617	85.7977	682.617	85.8568	682.617	84.881	682.617	84.9805	682.617	83.9617	682.617	84.1291	682.617	83.2222	682.617	83.4551	682.617	82.6994	682.617	82.9653	682.617	82.1501	682.617	82.4273	682.617	81.2175	682.617	81.5074	682.617	79.694	682.617	79.9766	682.617	77.8984	682.617	78.0323	682.617	77.2414	682.617	76.9954	682.617	78.4458	682.617	78.0278	682.617	80.0298	682.617	79.7155	682.617	81.0553	682.617	80.8991	682.617	81.3487
707.52	87.0627	707.52	86.9787	707.52	87.0069	707.52	86.7429	707.52	86.8118	707.52	86.3359	707.52	86.4641	707.52	85.7392	707.52	85.941	707.52	84.9581	707.52	85.2308	707.52	84.0626	707.52	84.3753	707.52	83.2159	707.52	83.5219	707.52	82.5962	707.52	82.8921	707.52	82.1777	707.52	82.5514	707.52	81.6426	707.52	82.2219	707.52	80.5513	707.52	81.448	707.52	78.4977	707.52	79.8097	707.52	75.4168	707.52	77.0525	707.52	73.79	707.52	74.2692	707.52	76.2613	707.52	75.3685	707.52	78.8473	707.52	78.1452	707.52	80.2684	707.52	79.9375	707.52	80.614
732.422	85.8621	732.422	85.8339	732.422	85.7723	732.422	85.6769	732.422	85.5738	732.422	85.3713	732.422	85.2677	732.422	84.8784	732.422	84.832	732.422	84.1427	732.422	84.2204	732.422	83.1296	732.422	83.3912	732.422	81.9112	732.422	82.3697	732.422	80.7588	732.422	81.321	732.422	80.0049	732.422	80.5097	732.422	79.5731	732.422	80.0061	732.422	78.953	732.422	79.4849	732.422	77.6909	732.422	78.4834	732.422	75.7699	732.422	76.7361	732.422	74.3261	732.422	74.7272	732.422	75.0743	732.422	74.4982	732.422	76.8179	732.422	76.2246	732.422	78.0395	732.422	77.7604	732.422	78.3766
757.324	85.5099	757.324	85.3995	757.324	85.4783	757.324	85.1544	757.324	85.3033	757.324	84.8011	757.324	84.9777	757.324	84.3788	757.324	84.4932	757.324	83.9162	757.324	83.8632	757.324	83.4197	757.324	83.1491	757.324	82.8944	757.324	82.4645	757.324	82.3597	757.324	81.9202	757.324	81.7958	757.324	81.5043	757.324	81.0454	757.324	81.0148	757.324	79.8045	757.324	80.1415	757.324	77.7403	757.324	78.6199	757.324	74.9409	757.324	76.5193	757.324	73.7061	757.324	75.0931	757.324	75.7661	757.324	75.9953	757.324	77.9891	757.324	77.8066	757.324	79.2473	757.324	79.0933	757.324	79.5851
785.156	86.2972	785.156	86.2202	785.156	86.2111	785.156	85.9829	785.156	85.9741	785.156	85.5873	785.156	85.6053	785.156	85.0186	785.156	85.1029	785.156	84.2617	785.156	84.4358	785.156	83.3737	785.156	83.5989	785.156	82.5909	785.156	82.7244	785.156	82.2561	785.156	82.1197	785.156	82.3586	785.156	81.959	785.156	82.3735	785.156	81.9099	785.156	81.6949	785.156	81.3713	785.156	79.7948	785.156	79.7724	785.156	76.0129	785.156	76.4609	785.156	71.025	785.156	71.5585	785.156	74.2226	785.156	73.6814	785.156	78.3037	785.156	78.0016	785.156	80.3546	785.156	80.2442	785.156	80.9481
811.523	85.7571	811.523	85.7052	811.523	85.6481	811.523	85.4917	811.523	85.3919	811.523	85.1183	811.523	85.0097	811.523	84.5696	811.523	84.5061	811.523	83.8034	811.523	83.8419	811.523	82.7861	811.523	82.951	811.523	81.6154	811.523	81.8525	811.523	80.6965	811.523	80.8405	811.523	80.516	811.523	80.4053	811.523	80.8244	811.523	80.503	811.523	80.7944	811.523	80.4041	811.523	79.7366	811.523	79.3963	811.523	77.0828	811.523	76.9564	811.523	72.5984	811.523	73.0356	811.523	71.9742	811.523	72.0622	811.523	75.857	811.523	75.4316	811.523	78.0439	811.523	77.7485	811.523	78.5864
840.82	85.8171	840.82	85.7506	840.82	85.6628	840.82	85.4585	840.82	85.3276	840.82	84.9652	840.82	84.86	840.82	84.2962	840.82	84.2657	840.82	83.4433	840.82	83.4843	840.82	82.3762	840.82	82.4462	840.82	81.1768	840.82	81.2211	840.82	80.2732	840.82	80.2199	840.82	80.1891	840.82	79.9997	840.82	80.5935	840.82	80.3472	840.82	80.5811	840.82	80.3854	840.82	79.4598	840.82	79.393	840.82	76.624	840.82	76.7712	840.82	71.5661	840.82	71.929	840.82	71.0495	840.82	70.3783	840.82	75.5762	840.82	75.0003	840.82	77.9684	840.82	77.6954	840.82	78.5915
870.117	85.2626	870.117	85.1738	870.117	85.154	870.117	84.8994	870.117	84.8574	870.117	84.4651	870.117	84.407	870.117	83.8888	870.117	83.8428	870.117	83.137	870.117	83.1495	870.117	82.1047	870.117	82.2116	870.117	80.7199	870.117	80.898	870.117	79.2885	870.117	79.3844	870.117	78.7579	870.117	78.5776	870.117	79.3392	870.117	79.049	870.117	79.8036	870.117	79.6641	870.117	79.1813	870.117	79.2859	870.117	76.9265	870.117	77.2828	870.117	72.5468	870.117	72.9006	870.117	69.7105	870.117	68.2823	870.117	73.7685	870.117	72.9378	870.117	76.5262	870.117	76.2602	870.117	77.3046
900.879	85.4258	900.879	85.3076	900.879	85.2811	900.879	84.9571	900.879	84.9129	900.879	84.4612	900.879	84.4036	900.879	83.8962	900.879	83.823	900.879	83.2362	900.879	83.1633	900.879	82.3273	900.879	82.3049	900.879	80.9965	900.879	81.0712	900.879	79.3546	900.879	79.4491	900.879	78.273	900.879	78.0728	900.879	78.5104	900.879	78.0077	900.879	78.9784	900.879	78.6761	900.879	78.3918	900.879	78.627	900.879	76.0231	900.879	76.9676	900.879	71.4585	900.879	72.7988	900.879	70.3912	900.879	68.2165	900.879	74.631	900.879	73.2178	900.879	77.0382	900.879	76.5827	900.879	77.6565
933.105	85.5391	933.105	85.3977	933.105	85.4131	933.105	85.0109	933.105	85.015	933.105	84.4153	933.105	84.3813	933.105	83.6743	933.105	83.6052	933.105	82.8597	933.105	82.7898	933.105	81.975	933.105	81.9424	933.105	80.9269	933.105	80.9508	933.105	79.7142	933.105	79.7657	933.105	78.7611	933.105	78.7056	933.105	78.6148	933.105	78.3456	933.105	78.7849	933.105	78.4792	933.105	78.1772	933.105	78.1072	933.105	75.8844	933.105	76.3108	933.105	70.6464	933.105	71.9949	933.105	66.2286	933.105	65.4763	933.105	72.706	933.105	71.197	933.105	75.8633	933.105	75.2306	933.105	76.5677
965.332	85.8081	965.332	85.5971	965.332	85.6596	965.332	85.0704	965.332	85.1674	965.332	84.3254	965.332	84.4225	965.332	83.5123	965.332	83.5765	965.332	82.7573	965.332	82.7514	965.332	81.9841	965.332	81.905	965.332	80.8705	965.332	80.81	965.332	79.1386	965.332	79.2513	965.332	77.2534	965.332	77.5288	965.332	76.9211	965.332	76.979	965.332	77.8986	965.332	77.8288	965.332	78.1256	965.332	78.284	965.332	76.5669	965.332	77.1609	965.332	72.3825	965.332	73.6001	965.332	67.6767	965.332	67.1295	965.332	72.533	965.332	70.5489	965.332	75.7006	965.332	74.8823	965.332	76.3701
1,000.49	86.0683	1,000.49	85.9011	1,000.49	85.9229	1,000.49	85.4438	1,000.49	85.4607	1,000.49	84.7377	1,000.49	84.7215	1,000.49	83.8579	1,000.49	83.8184	1,000.49	82.8897	1,000.49	82.9031	1,000.49	81.8341	1,000.49	82.0194	1,000.49	80.5504	1,000.49	80.9855	1,000.49	78.9425	1,000.49	79.5495	1,000.49	77.5422	1,000.49	77.8896	1,000.49	77.5523	1,000.49	77.1853	1,000.49	78.4415	1,000.49	77.8294	1,000.49	78.5612	1,000.49	78.1895	1,000.49	76.9797	1,000.49	77.0775	1,000.49	72.7781	1,000.49	73.6479	1,000.49	66.2385	1,000.49	66.4974	1,000.49	71.0973	1,000.49	68.8171	1,000.49	74.7692	1,000.49	73.9059	1,000.49	75.5638
1,035.64	85.902	1,035.64	85.7279	1,035.64	85.7112	1,035.64	85.2085	1,035.64	85.1667	1,035.64	84.3977	1,035.64	84.3215	1,035.64	83.4034	1,035.64	83.2943	1,035.64	82.3889	1,035.64	82.2642	1,035.64	81.4525	1,035.64	81.3429	1,035.64	80.4184	1,035.64	80.3865	1,035.64	78.9166	1,035.64	79.0674	1,035.64	77.0055	1,035.64	77.3491	1,035.64	76.2228	1,035.64	76.3107	1,035.64	77.289	1,035.64	76.9918	1,035.64	78.0077	1,035.64	77.8271	1,035.64	77.0751	1,035.64	77.3456	1,035.64	73.8576	1,035.64	74.7951	1,035.64	68.5478	1,035.64	69.3401	1,035.64	70.36	1,035.64	68.4693	1,035.64	73.9226	1,035.64	73.1611	1,035.64	74.8246
1,072.27	85.7111	1,072.27	85.5917	1,072.27	85.5121	1,072.27	85.1471	1,072.27	84.9965	1,072.27	84.3847	1,072.27	84.1912	1,072.27	83.3923	1,072.27	83.1962	1,072.27	82.3743	1,072.27	82.1971	1,072.27	81.4828	1,072.27	81.335	1,072.27	80.509	1,072.27	80.4481	1,072.27	78.963	1,072.27	79.0833	1,072.27	76.7562	1,072.27	76.9895	1,072.27	75.6902	1,072.27	75.343	1,072.27	76.9716	1,072.27	76.1562	1,072.27	77.8126	1,072.27	77.3641	1,072.27	76.6769	1,072.27	76.9239	1,072.27	72.662	1,072.27	73.9181	1,072.27	66.7554	1,072.27	67.2691	1,072.27	71.7958	1,072.27	69.4076	1,072.27	75.196	1,072.27	74.2237	1,072.27	75.8598
1,108.89	85.9567	1,108.89	85.8214	1,108.89	85.7358	1,108.89	85.3114	1,108.89	85.1562	1,108.89	84.4109	1,108.89	84.1995	1,108.89	83.1894	1,108.89	82.8972	1,108.89	81.9599	1,108.89	81.4958	1,108.89	81.1584	1,108.89	80.4687	1,108.89	80.5909	1,108.89	79.8371	1,108.89	79.3773	1,108.89	78.823	1,108.89	76.8225	1,108.89	76.6069	1,108.89	74.3209	1,108.89	73.7526	1,108.89	75.9392	1,108.89	74.7705	1,108.89	77.8322	1,108.89	77.1701	1,108.89	77.504	1,108.89	77.3623	1,108.89	74.2448	1,108.89	74.51	1,108.89	67.6841	1,108.89	66.2982	1,108.89	71.9403	1,108.89	68.8458	1,108.89	75.9045	1,108.89	74.7719	1,108.89	76.6524
1,148.44	86.5555	1,148.44	86.4454	1,148.44	86.3824	1,148.44	86.0423	1,148.44	85.9114	1,148.44	85.3053	1,148.44	85.0952	1,148.44	84.1772	1,148.44	83.8663	1,148.44	82.7053	1,148.44	82.2441	1,148.44	81.284	1,148.44	80.5872	1,148.44	80.4611	1,148.44	79.5861	1,148.44	79.8746	1,148.44	79.1635	1,148.44	78.439	1,148.44	78.2328	1,148.44	75.7388	1,148.44	76.1258	1,148.44	74.6619	1,148.44	74.5783	1,148.44	76.5908	1,148.44	75.9125	1,148.44	77.0168	1,148.44	76.6501	1,148.44	74.238	1,148.44	74.8087	1,148.44	65.9652	1,148.44	68.3378	1,148.44	69.9195	1,148.44	60.7641	1,148.44	74.748	1,148.44	72.3475	1,148.44	75.323
1,189.45	87.1571	1,189.45	87.0223	1,189.45	87.0177	1,189.45	86.6267	1,189.45	86.5673	1,189.45	85.9155	1,189.45	85.7743	1,189.45	84.7924	1,189.45	84.5978	1,189.45	83.2474	1,189.45	83.004	1,189.45	81.5537	1,189.45	81.1685	1,189.45	80.2502	1,189.45	79.7801	1,189.45	79.3648	1,189.45	79.228	1,189.45	78.138	1,189.45	78.479	1,189.45	76.3763	1,189.45	76.6276	1,189.45	75.9999	1,189.45	75.0364	1,189.45	77.2523	1,189.45	76.1636	1,189.45	77.2726	1,189.45	77.2426	1,189.45	74.5285	1,189.45	76.1889	1,189.45	67.4513	1,189.45	71.5887	1,189.45	69.3193	1,189.45	62.4292	1,189.45	74.0998	1,189.45	71.6733	1,189.45	74.812
1,230.47	87.1865	1,230.47	87.0147	1,230.47	87.07	1,230.47	86.5755	1,230.47	86.6606	1,230.47	85.8757	1,230.47	85.9704	1,230.47	84.8839	1,230.47	84.9927	1,230.47	83.5584	1,230.47	83.6879	1,230.47	82.002	1,230.47	82.0923	1,230.47	80.6608	1,230.47	80.5278	1,230.47	79.7662	1,230.47	79.4191	1,230.47	78.447	1,230.47	78.4635	1,230.47	75.7188	1,230.47	76.8699	1,230.47	73.579	1,230.47	75.0381	1,230.47	75.5172	1,230.47	75.462	1,230.47	76.5159	1,230.47	76.7759	1,230.47	74.4582	1,230.47	76.1704	1,230.47	67.5129	1,230.47	72.243	1,230.47	67.8206	1,230.47	64.9792	1,230.47	73.4993	1,230.47	71.2063	1,230.47	74.3145
1,274.41	87.1674	1,274.41	87.0363	1,274.41	86.9969	1,274.41	86.623	1,274.41	86.5191	1,274.41	85.9522	1,274.41	85.7463	1,274.41	84.9854	1,274.41	84.6944	1,274.41	83.5977	1,274.41	83.3406	1,274.41	81.8309	1,274.41	81.7137	1,274.41	80.2813	1,274.41	80.1328	1,274.41	79.4342	1,274.41	79.0253	1,274.41	78.3755	1,274.41	78.0841	1,274.41	76.1457	1,274.41	76.4759	1,274.41	74.2593	1,274.41	74.6221	1,274.41	75.5317	1,274.41	75.372	1,274.41	76.4636	1,274.41	76.7821	1,274.41	74.6603	1,274.41	75.9266	1,274.41	68.2523	1,274.41	71.5089	1,274.41	66.8223	1,274.41	62.9879	1,274.41	72.6463	1,274.41	70.3777	1,274.41	73.5206
1,319.82	86.9944	1,319.82	86.9073	1,319.82	86.7956	1,319.82	86.4796	1,319.82	86.3491	1,319.82	85.7284	1,319.82	85.6279	1,319.82	84.7061	1,319.82	84.5922	1,319.82	83.3968	1,319.82	83.2336	1,319.82	81.7534	1,319.82	81.6241	1,319.82	79.9485	1,319.82	80.024	1,319.82	78.4903	1,319.82	78.8225	1,319.82	77.3339	1,319.82	77.9774	1,319.82	75.5133	1,319.82	76.8382	1,319.82	73.7479	1,319.82	75.2294	1,319.82	75.0818	1,319.82	74.8379	1,319.82	76.3553	1,319.82	75.8533	1,319.82	74.864	1,319.82	75.514	1,319.82	69.1572	1,319.82	72.114	1,319.82	67.0943	1,319.82	65.6067	1,319.82	72.6743	1,319.82	70.5231	1,319.82	73.6375
1,366.7	86.3722	1,366.7	86.2776	1,366.7	86.1428	1,366.7	85.8425	1,366.7	85.5927	1,366.7	85.0558	1,366.7	84.773	1,366.7	83.9517	1,366.7	83.7447	1,366.7	82.5651	1,366.7	82.4635	1,366.7	80.9219	1,366.7	80.8918	1,366.7	79.2204	1,366.7	79.2264	1,366.7	77.9307	1,366.7	77.8269	1,366.7	76.9086	1,366.7	76.869	1,366.7	75.0386	1,366.7	75.8899	1,366.7	72.3208	1,366.7	74.2669	1,366.7	73.1258	1,366.7	73.5267	1,366.7	75.0308	1,366.7	74.7908	1,366.7	73.7002	1,366.7	74.6644	1,366.7	67.1702	1,366.7	70.7232	1,366.7	67.377	1,366.7	61.8276	1,366.7	72.69	1,366.7	70.2359	1,366.7	73.3971
1,413.57	86.1071	1,413.57	86.0038	1,413.57	85.8296	1,413.57	85.4749	1,413.57	85.2389	1,413.57	84.5863	1,413.57	84.3684	1,413.57	83.4588	1,413.57	83.2796	1,413.57	82.1291	1,413.57	82.0828	1,413.57	80.5173	1,413.57	80.7524	1,413.57	78.576	1,413.57	79.0759	1,413.57	76.973	1,413.57	77.2831	1,413.57	76.3019	1,413.57	76.2301	1,413.57	74.9162	1,413.57	75.4733	1,413.57	72.207	1,413.57	73.9323	1,413.57	73.0093	1,413.57	73.5447	1,413.57	75.0305	1,413.57	74.9384	1,413.57	74.1006	1,413.57	74.8033	1,413.57	68.1758	1,413.57	71.6508	1,413.57	63.9853	1,413.57	62.939	1,413.57	70.8033	1,413.57	64.7357	1,413.57	70.57
1,463.38	86.5229	1,463.38	86.3236	1,463.38	86.193	1,463.38	85.632	1,463.38	85.4436	1,463.38	84.6255	1,463.38	84.414	1,463.38	83.4119	1,463.38	83.2418	1,463.38	81.9636	1,463.38	81.9849	1,463.38	80.3354	1,463.38	80.466	1,463.38	78.5669	1,463.38	78.6398	1,463.38	76.703	1,463.38	77.0248	1,463.38	75.3596	1,463.38	76.1443	1,463.38	73.9737	1,463.38	75.6672	1,463.38	71.0715	1,463.38	74.6627	1,463.38	71.8766	1,463.38	73.9827	1,463.38	74.7929	1,463.38	75.1446	1,463.38	74.4158	1,463.38	75.5068	1,463.38	69.3531	1,463.38	73.0665	1,463.38	62.6206	1,463.38	66.471	1,463.38	70.0172	1,463.38	64.9474	1,463.38	70.1704
1,516.11	86.4541	1,516.11	86.2902	1,516.11	86.1735	1,516.11	85.7526	1,516.11	85.4751	1,516.11	84.8482	1,516.11	84.519	1,516.11	83.5522	1,516.11	83.4108	1,516.11	81.9489	1,516.11	82.1001	1,516.11	80.2157	1,516.11	80.4737	1,516.11	78.3528	1,516.11	78.6169	1,516.11	76.2669	1,516.11	76.979	1,516.11	74.8971	1,516.11	75.9049	1,516.11	74.2611	1,516.11	75.0764	1,516.11	71.6605	1,516.11	73.5757	1,516.11	70.1003	1,516.11	72.7182	1,516.11	73.892	1,516.11	74.7927	1,516.11	74.4666	1,516.11	75.665	1,516.11	70.0649	1,516.11	73.2356	1,516.11	59.581	1,516.11	66.1944	1,516.11	70.0165	1,516.11	65.5978	1,516.11	70.8783
1,568.85	86.1482	1,568.85	85.9973	1,568.85	85.884	1,568.85	85.4472	1,568.85	85.2579	1,568.85	84.5564	1,568.85	84.3496	1,568.85	83.3905	1,568.85	83.245	1,568.85	82.042	1,568.85	81.981	1,568.85	80.6473	1,568.85	80.3839	1,568.85	79.1315	1,568.85	78.4984	1,568.85	77.1409	1,568.85	76.9036	1,568.85	75.3076	1,568.85	75.6019	1,568.85	74.5122	1,568.85	74.4927	1,568.85	72.4941	1,568.85	73.0707	1,568.85	70.086	1,568.85	71.0462	1,568.85	73.0951	1,568.85	73.2254	1,568.85	74.1471	1,568.85	75.1444	1,568.85	70.6999	1,568.85	73.4704	1,568.85	57.8953	1,568.85	67.5203	1,568.85	66.8881	1,568.85	61.4708	1,568.85	67.9193
1,624.51	85.8831	1,624.51	85.653	1,624.51	85.5594	1,624.51	84.9036	1,624.51	84.832	1,624.51	83.8125	1,624.51	83.8548	1,624.51	82.6113	1,624.51	82.699	1,624.51	81.3364	1,624.51	81.4023	1,624.51	79.7452	1,624.51	79.6708	1,624.51	78.0222	1,624.51	77.3908	1,624.51	76.4371	1,624.51	75.7142	1,624.51	74.9571	1,624.51	75.0379	1,624.51	74.1197	1,624.51	74.0538	1,624.51	72.6854	1,624.51	72.6959	1,624.51	70.8836	1,624.51	70.7455	1,624.51	72.977	1,624.51	71.9038	1,624.51	74.2021	1,624.51	74.5305	1,624.51	71.8518	1,624.51	73.6918	1,624.51	64.9301	1,624.51	69.3504	1,624.51	67.6722	1,624.51	65.8868	1,624.51	68.5676
1,681.64	86.4272	1,681.64	85.9831	1,681.64	86.2031	1,681.64	85.0676	1,681.64	85.4116	1,681.64	83.7141	1,681.64	84.2823	1,681.64	81.9315	1,681.64	82.7614	1,681.64	80.3011	1,681.64	81.1345	1,681.64	78.7768	1,681.64	79.9516	1,681.64	76.511	1,681.64	78.4846	1,681.64	73.9624	1,681.64	76.3152	1,681.64	73.0636	1,681.64	74.6513	1,681.64	73.3951	1,681.64	72.7557	1,681.64	70.7983	1,681.64	70.9866	1,681.64	67.8157	1,681.64	69.9604	1,681.64	72.5893	1,681.64	71.8737	1,681.64	73.8029	1,681.64	74.5778	1,681.64	70.6725	1,681.64	73.6649	1,681.64	65.0704	1,681.64	69.3172	1,681.64	70.6198	1,681.64	66.862	1,681.64	71.1914
1,741.7	87.4378	1,741.7	87.1567	1,741.7	87.1576	1,741.7	86.3867	1,741.7	86.4979	1,741.7	85.1082	1,741.7	85.5788	1,741.7	83.1665	1,741.7	84.1288	1,741.7	81.0188	1,741.7	82.1238	1,741.7	79.2964	1,741.7	80.6206	1,741.7	77.7924	1,741.7	79.7614	1,741.7	76.0834	1,741.7	78.2031	1,741.7	73.4115	1,741.7	75.9101	1,741.7	71.8114	1,741.7	73.6566	1,741.7	70.0519	1,741.7	72.4342	1,741.7	62.7019	1,741.7	71.095	1,741.7	67.6403	1,741.7	70.665	1,741.7	70.9428	1,741.7	73.4743	1,741.7	68.8494	1,741.7	73.2394	1,741.7	63.0523	1,741.7	69.6094	1,741.7	68.0008	1,741.7	67.1079	1,741.7	69.8576
1,803.22	87.1388	1,803.22	86.9549	1,803.22	86.8256	1,803.22	86.3257	1,803.22	86.0778	1,803.22	85.1641	1,803.22	84.9541	1,803.22	83.4016	1,803.22	83.4009	1,803.22	81.4136	1,803.22	81.417	1,803.22	79.3342	1,803.22	79.7928	1,803.22	77.1823	1,803.22	79.1519	1,803.22	75.8684	1,803.22	78.1023	1,803.22	74.2329	1,803.22	76.1674	1,803.22	71.6931	1,803.22	74.1275	1,803.22	70.1649	1,803.22	72.7286	1,803.22	65.982	1,803.22	72.2774	1,803.22	66.5953	1,803.22	71.2152	1,803.22	71.3399	1,803.22	73.1022	1,803.22	69.2522	1,803.22	73.0271	1,803.22	62.6972	1,803.22	67.675	1,803.22	68.0079	1,803.22	64.0693	1,803.22	68.8351
1,866.21	86.6157	1,866.21	86.5488	1,866.21	86.0743	1,866.21	85.859	1,866.21	85.2534	1,866.21	84.6785	1,866.21	84.2855	1,866.21	83.0583	1,866.21	82.7833	1,866.21	80.8887	1,866.21	80.7906	1,866.21	78.3232	1,866.21	79.0814	1,866.21	76.1696	1,866.21	77.8677	1,866.21	75.0135	1,866.21	76.4309	1,866.21	73.3393	1,866.21	75.1377	1,866.21	69.7478	1,866.21	74.4523	1,866.21	68.5525	1,866.21	73.0286	1,866.21	67.9435	1,866.21	71.1194	1,866.21	68.8836	1,866.21	69.0944	1,866.21	71.7995	1,866.21	70.9123	1,866.21	69.0296	1,866.21	73.2016	1,866.21	63.9196	1,866.21	70.7149	1,866.21	66.3082	1,866.21	62.7396	1,866.21	66.0335
1,932.13	86.3124	1,932.13	85.9053	1,932.13	86.2343	1,932.13	85.3445	1,932.13	85.5395	1,932.13	84.1522	1,932.13	84.7385	1,932.13	82.2549	1,932.13	83.7317	1,932.13	80.4216	1,932.13	82.0948	1,932.13	78.6498	1,932.13	80.2118	1,932.13	76.6598	1,932.13	78.372	1,932.13	74.975	1,932.13	76.6522	1,932.13	73.42	1,932.13	75.6081	1,932.13	70.7784	1,932.13	74.9019	1,932.13	67.8816	1,932.13	73.7732	1,932.13	66.9799	1,932.13	71.9316	1,932.13	68.6701	1,932.13	70.244	1,932.13	72.0967	1,932.13	69.5942	1,932.13	69.2952	1,932.13	71.7998	1,932.13	65.9457	1,932.13	70.8005	1,932.13	70.9056	1,932.13	65.9367	1,932.13	69.7663
1,999.51	86.3268	1,999.51	85.788	1,999.51	86.4039	1,999.51	85.1164	1,999.51	85.734	1,999.51	83.916	1,999.51	84.41	1,999.51	81.9832	1,999.51	83.0279	1,999.51	80.3463	1,999.51	81.6534	1,999.51	79.0238	1,999.51	79.9665	1,999.51	76.9473	1,999.51	78.4268	1,999.51	74.6577	1,999.51	76.5411	1,999.51	72.56	1,999.51	75.0154	1,999.51	70.4831	1,999.51	75.3502	1,999.51	68.7272	1,999.51	73.6185	1,999.51	66.312	1,999.51	69.8988	1,999.51	67.2777	1,999.51	69.9871	1,999.51	69.3183	1,999.51	71.6771	1,999.51	67.3522	1,999.51	72.2041	1,999.51	66.1018	1,999.51	70.1114	1,999.51	71.4193	1,999.51	65.1365	1,999.51	69.6431
2,069.82	86.0593	2,069.82	85.8777	2,069.82	85.7528	2,069.82	85.2184	2,069.82	84.965	2,069.82	84.0565	2,069.82	83.6892	2,069.82	82.2851	2,069.82	82.5484	2,069.82	80.2134	2,069.82	81.2553	2,069.82	78.424	2,069.82	78.8453	2,069.82	76.5832	2,069.82	77.5483	2,069.82	73.8173	2,069.82	77.3532	2,069.82	70.5651	2,069.82	74.2504	2,069.82	68.666	2,069.82	72.766	2,069.82	69.1345	2,069.82	73.1684	2,069.82	66.9989	2,069.82	69.4838	2,069.82	66.1349	2,069.82	67.1486	2,069.82	70.3431	2,069.82	70.7215	2,069.82	67.8746	2,069.82	72.326	2,069.82	60.8979	2,069.82	69.0624	2,069.82	68.1371	2,069.82	64.7529	2,069.82	66.953
2,143.07	86.297	2,143.07	86.2162	2,143.07	85.8414	2,143.07	85.1989	2,143.07	85.2891	2,143.07	83.6995	2,143.07	84.3394	2,143.07	82.2832	2,143.07	82.9511	2,143.07	80.4205	2,143.07	81.8112	2,143.07	77.3634	2,143.07	80.2874	2,143.07	74.7306	2,143.07	78.1142	2,143.07	73.433	2,143.07	76.9949	2,143.07	71.8892	2,143.07	75.1474	2,143.07	70.5701	2,143.07	73.197	2,143.07	68.3391	2,143.07	73.1376	2,143.07	67.9248	2,143.07	71.009	2,143.07	65.9669	2,143.07	68.7611	2,143.07	69.8076	2,143.07	68.3055	2,143.07	68.999	2,143.07	70.7589	2,143.07	45.0099	2,143.07	68.1361	2,143.07	66.8878	2,143.07	63.0857	2,143.07	69.701
2,219.24	86.6867	2,219.24	86.5957	2,219.24	86.7972	2,219.24	86.0742	2,219.24	86.2015	2,219.24	84.6356	2,219.24	84.893	2,219.24	82.9568	2,219.24	83.4147	2,219.24	81.0728	2,219.24	81.866	2,219.24	78.4328	2,219.24	80.442	2,219.24	76.422	2,219.24	78.7578	2,219.24	74.6189	2,219.24	77.6147	2,219.24	71.528	2,219.24	76.2846	2,219.24	70.103	2,219.24	74.5997	2,219.24	69.3005	2,219.24	73.5256	2,219.24	68.6784	2,219.24	71.7384	2,219.24	66.5561	2,219.24	70.9333	2,219.24	70.4367	2,219.24	70.5006	2,219.24	71.0546	2,219.24	70.5751	2,219.24	62.8355	2,219.24	67.9798	2,219.24	66.3544	2,219.24	59.7748	2,219.24	67.3008
2,296.88	86.3685	2,296.88	86.2127	2,296.88	85.5953	2,296.88	84.998	2,296.88	84.6431	2,296.88	83.7161	2,296.88	83.9985	2,296.88	82.642	2,296.88	82.7329	2,296.88	81.0019	2,296.88	81.2658	2,296.88	78.6988	2,296.88	80.6923	2,296.88	76.177	2,296.88	78.9417	2,296.88	74.7645	2,296.88	76.5748	2,296.88	73.3285	2,296.88	75.7384	2,296.88	71.3341	2,296.88	75.1014	2,296.88	67.3991	2,296.88	74.5686	2,296.88	66.1761	2,296.88	71.8061	2,296.88	55.2372	2,296.88	70.0329	2,296.88	66.5647	2,296.88	71.6741	2,296.88	68.9461	2,296.88	71.8718	2,296.88	66.5616	2,296.88	70.0269	2,296.88	65.3945	2,296.88	62.7999	2,296.88	65.7961
2,378.91	86.0031	2,378.91	85.6134	2,378.91	86.2183	2,378.91	84.6294	2,378.91	85.7396	2,378.91	83.3125	2,378.91	84.5922	2,378.91	82.3188	2,378.91	83.675	2,378.91	80.4094	2,378.91	82.8461	2,378.91	77.831	2,378.91	81.1434	2,378.91	75.9272	2,378.91	78.5537	2,378.91	72.9778	2,378.91	76.6951	2,378.91	70.9299	2,378.91	76.5066	2,378.91	71.7291	2,378.91	74.491	2,378.91	67.6988	2,378.91	72.0789	2,378.91	65.6716	2,378.91	70.9157	2,378.91	65.2546	2,378.91	69.8849	2,378.91	59.1242	2,378.91	69.1746	2,378.91	67.3896	2,378.91	70.4931	2,378.91	62.4812	2,378.91	72.2847	2,378.91	66.4174	2,378.91	67.568	2,378.91	62.6106
2,462.4	85.9108	2,462.4	85.5798	2,462.4	85.8373	2,462.4	84.7744	2,462.4	85.4583	2,462.4	83.5786	2,462.4	84.6592	2,462.4	82.1045	2,462.4	83.5214	2,462.4	80.2811	2,462.4	82.1699	2,462.4	78.4361	2,462.4	80.6697	2,462.4	76.5631	2,462.4	78.7783	2,462.4	74.2179	2,462.4	76.5617	2,462.4	70.8266	2,462.4	75.5303	2,462.4	68.9952	2,462.4	73.4064	2,462.4	66.794	2,462.4	72.8549	2,462.4	65.622	2,462.4	71.2155	2,462.4	65.1519	2,462.4	69.7274	2,462.4	65.8575	2,462.4	70.0437	2,462.4	68.3908	2,462.4	69.5728	2,462.4	64.6273	2,462.4	70.1287	2,462.4	66.7747	2,462.4	68.2328	2,462.4	67.4444
2,548.83	84.7352	2,548.83	84.2808	2,548.83	84.9766	2,548.83	83.5017	2,548.83	84.4726	2,548.83	82.216	2,548.83	83.4643	2,548.83	80.7796	2,548.83	82.5098	2,548.83	79.262	2,548.83	80.9286	2,548.83	77.3279	2,548.83	79.0378	2,548.83	74.9808	2,548.83	77.6964	2,548.83	73.5909	2,548.83	75.5833	2,548.83	71.4116	2,548.83	74.2495	2,548.83	69.1336	2,548.83	72.2509	2,548.83	68.5455	2,548.83	70.1321	2,548.83	66.4989	2,548.83	70.7629	2,548.83	65.9626	2,548.83	67.3316	2,548.83	63.1698	2,548.83	69.4045	2,548.83	65.6843	2,548.83	67.5019	2,548.83	62.6506	2,548.83	69.6095	2,548.83	68.4444	2,548.83	62.7026	2,548.83	67.5791
2,639.65	85.0894	2,639.65	84.5215	2,639.65	85.3003	2,639.65	83.7178	2,639.65	85.1549	2,639.65	82.624	2,639.65	84.5256	2,639.65	81.332	2,639.65	83.4272	2,639.65	79.453	2,639.65	82.0402	2,639.65	77.4379	2,639.65	80.0488	2,639.65	75.1155	2,639.65	78.5189	2,639.65	72.4356	2,639.65	76.6019	2,639.65	70.704	2,639.65	74.8164	2,639.65	66.9529	2,639.65	74.0648	2,639.65	66.7395	2,639.65	71.9827	2,639.65	65.7552	2,639.65	71.9199	2,639.65	66.7947	2,639.65	69.0082	2,639.65	64.5255	2,639.65	70.1271	2,639.65	65.9265	2,639.65	69.6014	2,639.65	64.1544	2,639.65	69.4614	2,639.65	69.1522	2,639.65	68.1356	2,639.65	65.5185
2,731.93	84.8541	2,731.93	84.2168	2,731.93	85.2573	2,731.93	83.6842	2,731.93	85.0813	2,731.93	82.7087	2,731.93	84.6774	2,731.93	81.5201	2,731.93	83.5396	2,731.93	80.0633	2,731.93	81.8488	2,731.93	78.3211	2,731.93	79.9212	2,731.93	76.3568	2,731.93	78.3958	2,731.93	73.4721	2,731.93	76.7901	2,731.93	71.5439	2,731.93	74.467	2,731.93	68.6171	2,731.93	73.7021	2,731.93	67.9713	2,731.93	71.6017	2,731.93	65.3388	2,731.93	72.3616	2,731.93	66.3588	2,731.93	69.9732	2,731.93	66.5073	2,731.93	70.3593	2,731.93	66.9131	2,731.93	70.1998	2,731.93	62.6621	2,731.93	69.7406	2,731.93	68.6306	2,731.93	66.5458	2,731.93	67.5773
2,828.61	84.2893	2,828.61	83.6864	2,828.61	84.6754	2,828.61	82.9001	2,828.61	84.8814	2,828.61	82.148	2,828.61	84.5589	2,828.61	81.298	2,828.61	83.3243	2,828.61	79.9377	2,828.61	81.7769	2,828.61	77.8006	2,828.61	80.0751	2,828.61	76.1759	2,828.61	78.094	2,828.61	73.2223	2,828.61	76.3872	2,828.61	70.9937	2,828.61	73.8948	2,828.61	69.6099	2,828.61	73.1915	2,828.61	66.0935	2,828.61	71.0653	2,828.61	66.1929	2,828.61	70.3606	2,828.61	66.2802	2,828.61	69.9819	2,828.61	66.492	2,828.61	70.4037	2,828.61	68.0895	2,828.61	69.7275	2,828.61	64.7303	2,828.61	68.3588	2,828.61	68.4398	2,828.61	66.9112	2,828.61	66.1927
2,928.22	84.9975	2,928.22	84.324	2,928.22	85.5567	2,928.22	83.4463	2,928.22	85.6701	2,928.22	82.7433	2,928.22	85.0403	2,928.22	81.8361	2,928.22	83.8121	2,928.22	80.919	2,928.22	82.2858	2,928.22	79.1368	2,928.22	80.7445	2,928.22	76.8759	2,928.22	78.4338	2,928.22	74.72	2,928.22	76.5704	2,928.22	71.6139	2,928.22	74.6834	2,928.22	70.4893	2,928.22	72.9792	2,928.22	69.244	2,928.22	71.5603	2,928.22	65.5409	2,928.22	71.6794	2,928.22	65.7616	2,928.22	70.0759	2,928.22	67.7619	2,928.22	68.6729	2,928.22	67.6515	2,928.22	69.6459	2,928.22	62.1397	2,928.22	69.4428	2,928.22	69.6976	2,928.22	66.4429	2,928.22	69.6658
3,030.76	85.1535	3,030.76	84.5213	3,030.76	85.7719	3,030.76	83.7341	3,030.76	85.9552	3,030.76	83.1258	3,030.76	85.3541	3,030.76	82.1739	3,030.76	84.1469	3,030.76	81.2174	3,030.76	82.3914	3,030.76	79.9061	3,030.76	80.7758	3,030.76	77.5346	3,030.76	78.7558	3,030.76	75.39	3,030.76	76.8826	3,030.76	72.3682	3,030.76	75.5195	3,030.76	70.2262	3,030.76	73.4469	3,030.76	69.2136	3,030.76	71.8105	3,030.76	68.1394	3,030.76	70.4876	3,030.76	66.0649	3,030.76	70.0594	3,030.76	67.9714	3,030.76	68.6043	3,030.76	69.3078	3,030.76	70.4005	3,030.76	64.0702	3,030.76	68.7442	3,030.76	69.5466	3,030.76	67.6682	3,030.76	66.608
3,137.7	85.3351	3,137.7	84.6623	3,137.7	85.9798	3,137.7	84.0964	3,137.7	86.2797	3,137.7	83.7789	3,137.7	85.598	3,137.7	83.1406	3,137.7	84.2302	3,137.7	81.9468	3,137.7	82.3771	3,137.7	80.2842	3,137.7	80.5676	3,137.7	78.2181	3,137.7	78.7988	3,137.7	75.6298	3,137.7	76.4587	3,137.7	73.4898	3,137.7	74.7883	3,137.7	70.8179	3,137.7	73.1185	3,137.7	69.2782	3,137.7	71.3354	3,137.7	68.1722	3,137.7	69.5429	3,137.7	63.4155	3,137.7	70.6826	3,137.7	67.3651	3,137.7	67.8559	3,137.7	69.075	3,137.7	70.724	3,137.7	66.8821	3,137.7	68.5838	3,137.7	70.2935	3,137.7	68.9084	3,137.7	64.1849
3,249.02	85.934	3,249.02	85.0981	3,249.02	86.6491	3,249.02	84.6962	3,249.02	86.6071	3,249.02	84.419	3,249.02	85.7415	3,249.02	83.9273	3,249.02	84.4758	3,249.02	82.7796	3,249.02	82.7523	3,249.02	81.1254	3,249.02	80.7549	3,249.02	79.2154	3,249.02	78.6212	3,249.02	76.6246	3,249.02	76.8137	3,249.02	74.2981	3,249.02	75.2919	3,249.02	71.8141	3,249.02	73.5049	3,249.02	68.8448	3,249.02	72.1679	3,249.02	69.095	3,249.02	70.3244	3,249.02	68.5035	3,249.02	68.6036	3,249.02	67.9459	3,249.02	66.852	3,249.02	69.8169	3,249.02	70.256	3,249.02	66.6975	3,249.02	68.3615	3,249.02	67.6787	3,249.02	69.5438	3,249.02	64.8911
3,363.28	86.4246	3,363.28	85.477	3,363.28	86.8374	3,363.28	84.9768	3,363.28	86.7402	3,363.28	84.8211	3,363.28	85.8047	3,363.28	84.5219	3,363.28	84.2262	3,363.28	83.682	3,363.28	82.4267	3,363.28	81.876	3,363.28	80.297	3,363.28	79.7682	3,363.28	78.7215	3,363.28	77.0948	3,363.28	77.0149	3,363.28	74.621	3,363.28	75.1214	3,363.28	72.6576	3,363.28	72.9749	3,363.28	68.9346	3,363.28	71.9928	3,363.28	70.6887	3,363.28	69.7925	3,363.28	68.1183	3,363.28	71.2985	3,363.28	69.0177	3,363.28	68.4599	3,363.28	70.5491	3,363.28	69.8654	3,363.28	67.9479	3,363.28	67.6771	3,363.28	69.8961	3,363.28	68.0777	3,363.28	64.9758
3,481.93	86.3218	3,481.93	85.741	3,481.93	86.5487	3,481.93	85.0162	3,481.93	86.6641	3,481.93	85.1046	3,481.93	85.5152	3,481.93	84.6278	3,481.93	83.7242	3,481.93	83.8346	3,481.93	81.8369	3,481.93	82.451	3,481.93	80.1976	3,481.93	80.0293	3,481.93	78.6634	3,481.93	77.4067	3,481.93	76.8514	3,481.93	73.9701	3,481.93	75.6289	3,481.93	72.7916	3,481.93	73.8857	3,481.93	70.606	3,481.93	72.8361	3,481.93	68.5637	3,481.93	70.2563	3,481.93	69.1803	3,481.93	70.1223	3,481.93	70.6498	3,481.93	68.1468	3,481.93	71.7579	3,481.93	69.6885	3,481.93	67.1727	3,481.93	67.817	3,481.93	69.8777	3,481.93	68.6239	3,481.93	65.0756
3,604.98	85.9287	3,604.98	85.1984	3,604.98	86.7047	3,604.98	84.8183	3,604.98	86.388	3,604.98	85.0808	3,604.98	85.1627	3,604.98	85.256	3,604.98	83.8093	3,604.98	84.2273	3,604.98	82.2728	3,604.98	82.9482	3,604.98	81.1655	3,604.98	81.0992	3,604.98	79.7542	3,604.98	78.2209	3,604.98	78.3298	3,604.98	75.0343	3,604.98	76.0828	3,604.98	72.1508	3,604.98	74.5745	3,604.98	70.4286	3,604.98	72.5504	3,604.98	69.3361	3,604.98	71.068	3,604.98	66.7802	3,604.98	69.0451	3,604.98	68.4884	3,604.98	69.0671	3,604.98	71.8625	3,604.98	70.3199	3,604.98	67.9501	3,604.98	68.2967	3,604.98	70.8026	3,604.98	68.9232	3,604.98	65.1694
3,732.42	85.2828	3,732.42	84.1997	3,732.42	85.9806	3,732.42	84.2781	3,732.42	85.3208	3,732.42	84.5379	3,732.42	84.1928	3,732.42	85.14	3,732.42	83.1106	3,732.42	84.2397	3,732.42	82.1155	3,732.42	82.603	3,732.42	80.8777	3,732.42	81.093	3,732.42	79.4455	3,732.42	78.5407	3,732.42	78.0899	3,732.42	76.5136	3,732.42	75.95	3,732.42	73.9481	3,732.42	73.9658	3,732.42	72.0557	3,732.42	72.1773	3,732.42	70.571	3,732.42	70.0734	3,732.42	68.4089	3,732.42	70.3922	3,732.42	69.1883	3,732.42	68.6924	3,732.42	71.7357	3,732.42	69.9885	3,732.42	68.9444	3,732.42	67.6168	3,732.42	71.0416	3,732.42	69.941	3,732.42	64.7638
3,864.26	86.139	3,864.26	85.1105	3,864.26	86.0256	3,864.26	84.4972	3,864.26	85.5858	3,864.26	85.2355	3,864.26	84.7214	3,864.26	85.4463	3,864.26	84.05	3,864.26	84.9033	3,864.26	83.152	3,864.26	83.3169	3,864.26	81.7642	3,864.26	80.646	3,864.26	80.6417	3,864.26	77.9864	3,864.26	78.6161	3,864.26	76.4234	3,864.26	77.2116	3,864.26	74.1309	3,864.26	75.3206	3,864.26	70.6299	3,864.26	73.4474	3,864.26	70.3914	3,864.26	70.8444	3,864.26	70.1083	3,864.26	71.8251	3,864.26	68.6031	3,864.26	70.5924	3,864.26	72.7711	3,864.26	69.3641	3,864.26	69.7583	3,864.26	66.6683	3,864.26	70.5586	3,864.26	68.6855	3,864.26	64.6721
4,000.49	85.8962	4,000.49	85.3123	4,000.49	85.702	4,000.49	84.3546	4,000.49	85.4846	4,000.49	85.225	4,000.49	84.3721	4,000.49	85.0427	4,000.49	83.9584	4,000.49	84.6664	4,000.49	83.0873	4,000.49	83.3039	4,000.49	81.6688	4,000.49	80.8466	4,000.49	80.2298	4,000.49	78.2865	4,000.49	78.3991	4,000.49	75.8737	4,000.49	76.1712	4,000.49	73.9343	4,000.49	74.6627	4,000.49	71.9009	4,000.49	72.5094	4,000.49	70.8826	4,000.49	70.4406	4,000.49	71.714	4,000.49	66.9619	4,000.49	69.9324	4,000.49	70.5565	4,000.49	72.4785	4,000.49	69.1491	4,000.49	69.4183	4,000.49	66.9598	4,000.49	69.0245	4,000.49	68.4198	4,000.49	63.3557
4,141.11	86.2691	4,141.11	85.8083	4,141.11	86.2875	4,141.11	85.2571	4,141.11	84.918	4,141.11	84.3744	4,141.11	84.0587	4,141.11	85.2694	4,141.11	83.9726	4,141.11	84.4147	4,141.11	83.5508	4,141.11	82.807	4,141.11	82.4204	4,141.11	81.488	4,141.11	80.2223	4,141.11	78.5963	4,141.11	78.2011	4,141.11	75.4455	4,141.11	76.4877	4,141.11	71.995	4,141.11	74.3172	4,141.11	70.4681	4,141.11	72.8707	4,141.11	69.3855	4,141.11	71.5586	4,141.11	70.2239	4,141.11	67.5814	4,141.11	68.6392	4,141.11	68.4592	4,141.11	70.381	4,141.11	70.4515	4,141.11	67.9187	4,141.11	69.5835	4,141.11	68.964	4,141.11	68.7259	4,141.11	63.8085
4,287.6	86.3313	4,287.6	86.3087	4,287.6	85.2938	4,287.6	85.1031	4,287.6	84.6124	4,287.6	84.241	4,287.6	84.7665	4,287.6	83.4579	4,287.6	84.6301	4,287.6	83.3198	4,287.6	83.7984	4,287.6	81.8893	4,287.6	82.2741	4,287.6	79.5979	4,287.6	80.6603	4,287.6	77.9301	4,287.6	78.55	4,287.6	74.9593	4,287.6	76.3257	4,287.6	73.0883	4,287.6	74.347	4,287.6	70.6	4,287.6	72.036	4,287.6	69.8906	4,287.6	72.0051	4,287.6	71.2156	4,287.6	69.1517	4,287.6	69.1949	4,287.6	69.1179	4,287.6	71.4541	4,287.6	69.3165	4,287.6	67.2307	4,287.6	68.9737	4,287.6	70.0236	4,287.6	68.0635	4,287.6	64.1108
4,438.48	86.2955	4,438.48	86.4485	4,438.48	84.8841	4,438.48	84.9468	4,438.48	84.8749	4,438.48	85.1341	4,438.48	85.0689	4,438.48	84.7356	4,438.48	85.0786	4,438.48	83.9787	4,438.48	83.8196	4,438.48	82.6345	4,438.48	82.4432	4,438.48	80.512	4,438.48	80.9091	4,438.48	77.4404	4,438.48	78.9077	4,438.48	74.9324	4,438.48	76.4521	4,438.48	72.4289	4,438.48	74.6097	4,438.48	70.4597	4,438.48	72.8817	4,438.48	68.404	4,438.48	70.1709	4,438.48	69.9595	4,438.48	68.5778	4,438.48	68.2539	4,438.48	68.4289	4,438.48	71.7075	4,438.48	70.568	4,438.48	69.3035	4,438.48	69.3155	4,438.48	67.1158	4,438.48	69.1977	4,438.48	61.8205
4,595.21	85.962	4,595.21	86.3778	4,595.21	85.4203	4,595.21	86.2547	4,595.21	84.0568	4,595.21	83.7002	4,595.21	85.2379	4,595.21	83.9064	4,595.21	85.8343	4,595.21	82.7868	4,595.21	85.3767	4,595.21	81.7585	4,595.21	82.9844	4,595.21	79.9496	4,595.21	81.0528	4,595.21	77.3138	4,595.21	79.1153	4,595.21	74.1369	4,595.21	77.3442	4,595.21	70.3979	4,595.21	74.7652	4,595.21	67.0709	4,595.21	72.6462	4,595.21	64.4091	4,595.21	71.6416	4,595.21	68.4908	4,595.21	69.6817	4,595.21	69.2695	4,595.21	68.3036	4,595.21	71.996	4,595.21	70.0245	4,595.21	68.6766	4,595.21	69.1271	4,595.21	67.0066	4,595.21	67.0874	4,595.21	66.607
4,756.35	86.2525	4,756.35	87.4654	4,756.35	84.4027	4,756.35	86.346	4,756.35	85.3964	4,756.35	85.6712	4,756.35	86.098	4,756.35	84.0699	4,756.35	85.7281	4,756.35	83.6678	4,756.35	83.9313	4,756.35	81.6442	4,756.35	82.8128	4,756.35	79.1248	4,756.35	81.3393	4,756.35	78.3697	4,756.35	79.1745	4,756.35	74.6884	4,756.35	77.1778	4,756.35	72.4481	4,756.35	75.3192	4,756.35	70.1505	4,756.35	73.8082	4,756.35	67.2756	4,756.35	71.0684	4,756.35	69.2286	4,756.35	70.6469	4,756.35	69.7509	4,756.35	68.3297	4,756.35	71.6728	4,756.35	70.7127	4,756.35	69.5978	4,756.35	69.2989	4,756.35	68.0334	4,756.35	66.924	4,756.35	62.9773
4,924.8	86.0079	4,924.8	86.664	4,924.8	84.7141	4,924.8	85.781	4,924.8	84.6448	4,924.8	84.3524	4,924.8	85.526	4,924.8	84.5702	4,924.8	84.9916	4,924.8	83.0634	4,924.8	84.1227	4,924.8	82.3517	4,924.8	82.2481	4,924.8	80.9647	4,924.8	80.6349	4,924.8	77.6308	4,924.8	78.8701	4,924.8	75.5628	4,924.8	76.8978	4,924.8	73.1034	4,924.8	73.942	4,924.8	71.0089	4,924.8	72.7023	4,924.8	66.5645	4,924.8	71.3359	4,924.8	63.541	4,924.8	69.6394	4,924.8	67.8172	4,924.8	67.5509	4,924.8	71.7251	4,924.8	67.4328	4,924.8	71.4121	4,924.8	69.2195	4,924.8	66.8072	4,924.8	66.3233	4,924.8	63.0902
5,097.66	86.2742	5,097.66	87.4925	5,097.66	85.0651	5,097.66	86.4116	5,097.66	85.2105	5,097.66	84.7243	5,097.66	85.2738	5,097.66	84.0408	5,097.66	84.9526	5,097.66	84.2891	5,097.66	83.7357	5,097.66	83.2203	5,097.66	81.9203	5,097.66	80.5298	5,097.66	80.2334	5,097.66	78.632	5,097.66	78.6503	5,097.66	75.5712	5,097.66	77.1599	5,097.66	72.4685	5,097.66	75.0085	5,097.66	68.9526	5,097.66	72.7141	5,097.66	67.4235	5,097.66	69.8656	5,097.66	66.555	5,097.66	66.6792	5,097.66	66.727	5,097.66	66.1796	5,097.66	71.8096	5,097.66	66.868	5,097.66	69.1794	5,097.66	68.59	5,097.66	65.1294	5,097.66	65.5614	5,097.66	66.9499
5,277.83	86.3423	5,277.83	87.3796	5,277.83	85.157	5,277.83	86.4592	5,277.83	84.8514	5,277.83	84.8117	5,277.83	85.0023	5,277.83	84.4665	5,277.83	83.8151	5,277.83	84.3393	5,277.83	83.1937	5,277.83	83.1923	5,277.83	82.5039	5,277.83	81.1197	5,277.83	80.9593	5,277.83	78.8928	5,277.83	78.6538	5,277.83	75.9931	5,277.83	76.0582	5,277.83	73.2392	5,277.83	74.1782	5,277.83	71.4701	5,277.83	71.7917	5,277.83	68.2877	5,277.83	69.18	5,277.83	67.3872	5,277.83	67.8293	5,277.83	67.5173	5,277.83	64.2523	5,277.83	70.8436	5,277.83	65.939	5,277.83	69.7619	5,277.83	68.5257	5,277.83	64.4976	5,277.83	64.2418	5,277.83	64.6763
5,463.87	86.3092	5,463.87	87.0647	5,463.87	86.0054	5,463.87	86.1234	5,463.87	85.4524	5,463.87	83.637	5,463.87	84.863	5,463.87	83.3471	5,463.87	84.3398	5,463.87	83.7606	5,463.87	84.2311	5,463.87	83.4072	5,463.87	82.7096	5,463.87	81.5612	5,463.87	80.9011	5,463.87	79.4637	5,463.87	78.774	5,463.87	76.0619	5,463.87	75.8922	5,463.87	73.5725	5,463.87	72.8332	5,463.87	71.1778	5,463.87	71.8197	5,463.87	68.6459	5,463.87	69.6835	5,463.87	68.8279	5,463.87	68.484	5,463.87	68.768	5,463.87	66.0366	5,463.87	71.433	5,463.87	64.6029	5,463.87	71.1018	5,463.87	67.8637	5,463.87	65.2426	5,463.87	64.4899	5,463.87	64.1592
5,657.23	86.9677	5,657.23	87.6941	5,657.23	86.4871	5,657.23	86.3472	5,657.23	85.8142	5,657.23	84.1484	5,657.23	84.9863	5,657.23	83.3717	5,657.23	84.4988	5,657.23	84.2933	5,657.23	84.311	5,657.23	83.6443	5,657.23	83.1893	5,657.23	81.2209	5,657.23	80.9158	5,657.23	78.9621	5,657.23	78.4935	5,657.23	76.1863	5,657.23	75.9269	5,657.23	73.3335	5,657.23	72.9995	5,657.23	69.963	5,657.23	72.4762	5,657.23	66.0158	5,657.23	69.6721	5,657.23	65.353	5,657.23	68.9835	5,657.23	68.2059	5,657.23	66.5585	5,657.23	70.0079	5,657.23	64.8536	5,657.23	71.0651	5,657.23	67.5303	5,657.23	63.0233	5,657.23	64.5798	5,657.23	63.3261
5,856.45	87.4562	5,856.45	87.7646	5,856.45	87.3954	5,856.45	87.0288	5,856.45	86.1818	5,856.45	83.8651	5,856.45	85.5025	5,856.45	83.1491	5,856.45	85.3747	5,856.45	84.1878	5,856.45	85.0684	5,856.45	83.9246	5,856.45	83.1304	5,856.45	81.5159	5,856.45	80.7213	5,856.45	78.1614	5,856.45	78.231	5,856.45	75.6138	5,856.45	75.0209	5,856.45	72.6486	5,856.45	73.4417	5,856.45	70.4682	5,856.45	70.9795	5,856.45	67.8124	5,856.45	69.1432	5,856.45	65.5862	5,856.45	68.547	5,856.45	66.8455	5,856.45	65.8416	5,856.45	68.2642	5,856.45	63.4771	5,856.45	70.2816	5,856.45	67.2665	5,856.45	62.2243	5,856.45	63.1912	5,856.45	64.4158
6,062.99	87.4848	6,062.99	88.0188	6,062.99	87.3679	6,062.99	86.9352	6,062.99	86.3479	6,062.99	84.5899	6,062.99	85.6437	6,062.99	83.0907	6,062.99	85.4457	6,062.99	84.1885	6,062.99	84.7422	6,062.99	83.4037	6,062.99	82.9933	6,062.99	80.9768	6,062.99	80.1962	6,062.99	78.7049	6,062.99	77.8609	6,062.99	75.6618	6,062.99	75.6997	6,062.99	71.9941	6,062.99	73.2988	6,062.99	70.458	6,062.99	72.0435	6,062.99	67.0813	6,062.99	68.5321	6,062.99	67.952	6,062.99	67.7317	6,062.99	68.3309	6,062.99	66.2799	6,062.99	68.4136	6,062.99	64.7792	6,062.99	69.6781	6,062.99	66.6206	6,062.99	61.632	6,062.99	62.2948	6,062.99	63.5742
6,276.86	87.5963	6,276.86	87.5005	6,276.86	87.6626	6,276.86	87.2391	6,276.86	86.1924	6,276.86	85.1804	6,276.86	85.6682	6,276.86	83.6875	6,276.86	85.5004	6,276.86	83.8217	6,276.86	84.6638	6,276.86	82.9182	6,276.86	82.4614	6,276.86	80.3527	6,276.86	79.9125	6,276.86	77.5494	6,276.86	77.8893	6,276.86	74.3718	6,276.86	75.1646	6,276.86	71.4876	6,276.86	72.9895	6,276.86	69.4159	6,276.86	71.4328	6,276.86	66.7303	6,276.86	69.7339	6,276.86	65.6792	6,276.86	67.8603	6,276.86	66.8567	6,276.86	65.5353	6,276.86	66.7459	6,276.86	62.7976	6,276.86	68.9534	6,276.86	66.1705	6,276.86	60.7749	6,276.86	61.3231	6,276.86	61.3507
6,498.05	87.6582	6,498.05	87.305	6,498.05	87.6072	6,498.05	86.951	6,498.05	86.1273	6,498.05	85.452	6,498.05	85.7425	6,498.05	83.8682	6,498.05	85.2523	6,498.05	83.8387	6,498.05	84.0372	6,498.05	82.5004	6,498.05	81.9504	6,498.05	79.5288	6,498.05	79.767	6,498.05	76.974	6,498.05	77.5575	6,498.05	73.4991	6,498.05	75.4021	6,498.05	69.9423	6,498.05	73.3488	6,498.05	67.7478	6,498.05	70.4544	6,498.05	64.8063	6,498.05	68.8616	6,498.05	64.3779	6,498.05	66.8625	6,498.05	65.7452	6,498.05	64.6525	6,498.05	66.7025	6,498.05	62.3442	6,498.05	67.6121	6,498.05	63.8561	6,498.05	55.265	6,498.05	61.2507	6,498.05	61.3414
6,726.56	87.4348	6,726.56	86.7585	6,726.56	87.3463	6,726.56	86.8084	6,726.56	86.1134	6,726.56	85.4315	6,726.56	85.606	6,726.56	83.6201	6,726.56	84.9631	6,726.56	82.9081	6,726.56	83.8004	6,726.56	81.4978	6,726.56	82.1152	6,726.56	78.6866	6,726.56	79.6776	6,726.56	75.9694	6,726.56	77.5537	6,726.56	72.4688	6,726.56	74.2561	6,726.56	69.7193	6,726.56	72.6265	6,726.56	66.4295	6,726.56	70.602	6,726.56	64.5924	6,726.56	67.4233	6,726.56	63.8552	6,726.56	66.7567	6,726.56	64.8438	6,726.56	64.246	6,726.56	66.4373	6,726.56	62.7164	6,726.56	68.1447	6,726.56	63.4667	6,726.56	54.8452	6,726.56	60.3173	6,726.56	59.8243
6,963.87	87.4812	6,963.87	86.4921	6,963.87	87.1465	6,963.87	86.3192	6,963.87	85.8794	6,963.87	85.2317	6,963.87	85.3281	6,963.87	83.1046	6,963.87	84.5263	6,963.87	82.2519	6,963.87	83.2933	6,963.87	80.8552	6,963.87	81.8119	6,963.87	78.298	6,963.87	79.4422	6,963.87	75.4793	6,963.87	77.1161	6,963.87	72.1503	6,963.87	74.1816	6,963.87	69.0512	6,963.87	71.7933	6,963.87	66.2902	6,963.87	68.836	6,963.87	61.9091	6,963.87	68.3166	6,963.87	61.1468	6,963.87	66.0987	6,963.87	62.6088	6,963.87	63.4748	6,963.87	64.7365	6,963.87	62.0191	6,963.87	66.7866	6,963.87	61.0289	6,963.87	54.2971	6,963.87	61.2423	6,963.87	59.7352
7,209.96	87.2184	7,209.96	86.2337	7,209.96	86.9806	7,209.96	86.3979	7,209.96	86.2113	7,209.96	85.3886	7,209.96	85.3131	7,209.96	82.9483	7,209.96	84.137	7,209.96	81.9594	7,209.96	83.3543	7,209.96	80.3895	7,209.96	81.9705	7,209.96	77.7575	7,209.96	79.1215	7,209.96	75.1754	7,209.96	76.6655	7,209.96	71.7924	7,209.96	73.5743	7,209.96	68.8087	7,209.96	71.4415	7,209.96	65.611	7,209.96	68.9267	7,209.96	61.9986	7,209.96	67.0655	7,209.96	60.5846	7,209.96	66.0893	7,209.96	62.1425	7,209.96	64.7613	7,209.96	64.3214	7,209.96	60.3002	7,209.96	65.7985	7,209.96	59.7507	7,209.96	54.8952	7,209.96	58.0036	7,209.96	60.9285
7,464.84	87.0514	7,464.84	86.1113	7,464.84	86.9679	7,464.84	86.2259	7,464.84	86.0513	7,464.84	85.2546	7,464.84	84.7964	7,464.84	82.9053	7,464.84	83.7453	7,464.84	81.6099	7,464.84	83.1129	7,464.84	80.2691	7,464.84	81.5269	7,464.84	77.724	7,464.84	78.1182	7,464.84	74.8257	7,464.84	75.7043	7,464.84	71.312	7,464.84	73.0296	7,464.84	68.2231	7,464.84	70.8043	7,464.84	64.5286	7,464.84	67.9949	7,464.84	61.4694	7,464.84	65.7704	7,464.84	58.4573	7,464.84	63.9185	7,464.84	60.3321	7,464.84	63.8359	7,464.84	62.6119	7,464.84	59.7518	7,464.84	64.7073	7,464.84	58.6287	7,464.84	53.3334	7,464.84	57.7009	7,464.84	59.6191
7,727.05	86.8686	7,727.05	86.1329	7,727.05	86.6245	7,727.05	86.0047	7,727.05	86.061	7,727.05	84.9874	7,727.05	84.5541	7,727.05	82.4997	7,727.05	83.6135	7,727.05	81.5067	7,727.05	82.8102	7,727.05	80.2785	7,727.05	80.6396	7,727.05	77.3289	7,727.05	76.9442	7,727.05	74.2971	7,727.05	74.2723	7,727.05	71.0568	7,727.05	71.4616	7,727.05	67.3476	7,727.05	69.3555	7,727.05	65.2062	7,727.05	66.5313	7,727.05	62.2191	7,727.05	65.398	7,727.05	58.6081	7,727.05	63.2717	7,727.05	60.9264	7,727.05	63.4858	7,727.05	60.9495	7,727.05	58.2763	7,727.05	64.1935	7,727.05	58.374	7,727.05	53.8892	7,727.05	57.3135	7,727.05	56.7905
7,999.51	86.7682	7,999.51	86.1656	7,999.51	86.6479	7,999.51	85.8512	7,999.51	86.0135	7,999.51	84.771	7,999.51	84.4114	7,999.51	82.3006	7,999.51	83.7301	7,999.51	81.2219	7,999.51	82.6238	7,999.51	80.068	7,999.51	80.375	7,999.51	77.3924	7,999.51	76.8746	7,999.51	74.3037	7,999.51	74.2001	7,999.51	71.2232	7,999.51	71.4538	7,999.51	67.1995	7,999.51	69.6609	7,999.51	64.5454	7,999.51	67.225	7,999.51	62.1709	7,999.51	64.3925	7,999.51	54.9104	7,999.51	62.6286	7,999.51	58.566	7,999.51	62.8729	7,999.51	61.3092	7,999.51	58.5392	7,999.51	63.3897	7,999.51	55.9849	7,999.51	55.0926	7,999.51	54.8155	7,999.51	57.8024
8,282.23	86.489	8,282.23	86.0828	8,282.23	86.6089	8,282.23	85.7987	8,282.23	85.8675	8,282.23	84.5634	8,282.23	84.4305	8,282.23	81.9224	8,282.23	83.6287	8,282.23	80.6101	8,282.23	81.9584	8,282.23	79.3018	8,282.23	79.9451	8,282.23	76.6013	8,282.23	77.007	8,282.23	73.374	8,282.23	74.3587	8,282.23	69.2877	8,282.23	71.1587	8,282.23	66.2675	8,282.23	68.447	8,282.23	62.7686	8,282.23	66.9085	8,282.23	62.2425	8,282.23	63.566	8,282.23	55.9744	8,282.23	63.7696	8,282.23	58.0331	8,282.23	61.8482	8,282.23	59.4403	8,282.23	57.846	8,282.23	60.6364	8,282.23	57.9124	8,282.23	53.3521	8,282.23	54.8387	8,282.23	55.8725
8,573.73	86.693	8,573.73	86.3003	8,573.73	86.8016	8,573.73	85.7516	8,573.73	85.9071	8,573.73	84.5334	8,573.73	84.2156	8,573.73	82.0755	8,573.73	83.1899	8,573.73	80.766	8,573.73	81.6296	8,573.73	79.0831	8,573.73	79.7695	8,573.73	76.1572	8,573.73	76.5266	8,573.73	72.4626	8,573.73	73.5797	8,573.73	67.9993	8,573.73	70.4778	8,573.73	65.1139	8,573.73	67.4872	8,573.73	61.3771	8,573.73	65.8866	8,573.73	59.7593	8,573.73	61.8325	8,573.73	57.1514	8,573.73	62.9795	8,573.73	55.1098	8,573.73	62.5313	8,573.73	57.9358	8,573.73	56.2593	8,573.73	58.7915	8,573.73	55.1232	8,573.73	46.5568	8,573.73	54.7477	8,573.73	56.7515
8,876.95	86.6763	8,876.95	86.5286	8,876.95	86.8499	8,876.95	85.6166	8,876.95	85.8754	8,876.95	84.3576	8,876.95	84.3162	8,876.95	82.224	8,876.95	82.8831	8,876.95	80.777	8,876.95	81.5173	8,876.95	78.6668	8,876.95	79.472	8,876.95	75.0515	8,876.95	75.8275	8,876.95	72.2364	8,876.95	72.8873	8,876.95	68.3132	8,876.95	69.4918	8,876.95	64.4036	8,876.95	66.787	8,876.95	59.8167	8,876.95	65.0046	8,876.95	58.9511	8,876.95	61.3647	8,876.95	56.764	8,876.95	61.5042	8,876.95	53.1168	8,876.95	61.8762	8,876.95	56.4728	8,876.95	56.3666	8,876.95	57.8304	8,876.95	55.5823	8,876.95	43.5284	8,876.95	54.2521	8,876.95	54.5708
9,188.96	87.0745	9,188.96	86.8068	9,188.96	87.1784	9,188.96	85.6465	9,188.96	86.1061	9,188.96	84.2297	9,188.96	84.5502	9,188.96	82.0449	9,188.96	82.5894	9,188.96	80.3467	9,188.96	81.3071	9,188.96	78.1677	9,188.96	78.812	9,188.96	74.1575	9,188.96	75.0558	9,188.96	70.6709	9,188.96	71.9392	9,188.96	66.9568	9,188.96	68.4585	9,188.96	63.5787	9,188.96	65.6965	9,188.96	60.234	9,188.96	63.6554	9,188.96	58.9316	9,188.96	60.1071	9,188.96	56.1896	9,188.96	60.7052	9,188.96	50.1706	9,188.96	61.146	9,188.96	56.0145	9,188.96	56.2778	9,188.96	56.6726	9,188.96	54.266	9,188.96	47.949	9,188.96	54.9386	9,188.96	53.717
9,514.16	87.2294	9,514.16	86.9939	9,514.16	87.2395	9,514.16	85.843	9,514.16	86.1696	9,514.16	84.0709	9,514.16	84.34	9,514.16	81.9932	9,514.16	82.1962	9,514.16	79.9715	9,514.16	80.9467	9,514.16	77.7692	9,514.16	78.0604	9,514.16	74.2628	9,514.16	74.2204	9,514.16	69.2161	9,514.16	70.9796	9,514.16	66.6759	9,514.16	67.6517	9,514.16	63.1623	9,514.16	64.5215	9,514.16	60.2687	9,514.16	63.3561	9,514.16	59.441	9,514.16	59.2182	9,514.16	52.5478	9,514.16	60.9519	9,514.16	49.3526	9,514.16	60.2336	9,514.16	55.9068	9,514.16	56.1197	9,514.16	55.978	9,514.16	53.4446	9,514.16	49.4272	9,514.16	52.6106	9,514.16	51.7712
9,849.61	87.3051	9,849.61	86.8848	9,849.61	87.1719	9,849.61	85.6141	9,849.61	86.1594	9,849.61	83.8158	9,849.61	84.067	9,849.61	81.5977	9,849.61	81.8677	9,849.61	79.3794	9,849.61	80.3063	9,849.61	76.9271	9,849.61	77.0086	9,849.61	73.8358	9,849.61	73.2312	9,849.61	69.4854	9,849.61	69.8625	9,849.61	66.2714	9,849.61	67.0404	9,849.61	62.6253	9,849.61	63.9778	9,849.61	60.3095	9,849.61	62.6096	9,849.61	60.1913	9,849.61	60.2579	9,849.61	55.2412	9,849.61	59.8778	9,849.61	46.6925	9,849.61	59.5876	9,849.61	54.0726	9,849.61	56.0945	9,849.61	56.3578	9,849.61	55.166	9,849.61	49.8747	9,849.61	52.0565	9,849.61	51.3793
10,196.8	87.1384	10,196.8	86.6269	10,196.8	86.943	10,196.8	85.3246	10,196.8	85.8313	10,196.8	83.4524	10,196.8	83.5213	10,196.8	80.9726	10,196.8	81.1069	10,196.8	78.3198	10,196.8	79.076	10,196.8	75.9035	10,196.8	75.8912	10,196.8	72.965	10,196.8	72.0586	10,196.8	69.0437	10,196.8	68.8477	10,196.8	66.2263	10,196.8	64.9082	10,196.8	61.6846	10,196.8	62.7967	10,196.8	58.8804	10,196.8	60.7302	10,196.8	59.8167	10,196.8	58.9259	10,196.8	56.2484	10,196.8	59.2	10,196.8	46.1315	10,196.8	58.9041	10,196.8	50.8942	10,196.8	55.4039	10,196.8	54.5702	10,196.8	53.6995	10,196.8	48.8071	10,196.8	56.0675	10,196.8	50.4251
10,555.7	86.7471	10,555.7	86.1752	10,555.7	86.4135	10,555.7	84.7318	10,555.7	85.3331	10,555.7	82.6159	10,555.7	82.6191	10,555.7	80.0077	10,555.7	80.1729	10,555.7	77.7517	10,555.7	77.6271	10,555.7	75.2751	10,555.7	74.5785	10,555.7	72.4855	10,555.7	70.2518	10,555.7	69.47	10,555.7	67.9073	10,555.7	66.1252	10,555.7	64.3656	10,555.7	60.3986	10,555.7	63.1836	10,555.7	59.0871	10,555.7	60.4245	10,555.7	59.8272	10,555.7	58.1739	10,555.7	55.3097	10,555.7	58.0051	10,555.7	46.0859	10,555.7	56.8687	10,555.7	46.156	10,555.7	53.3541	10,555.7	51.3461	10,555.7	54.2067	10,555.7	48.3052	10,555.7	56.2448	10,555.7	49.1281
10,927.7	86.3919	10,927.7	85.8444	10,927.7	86.0002	10,927.7	83.9749	10,927.7	84.6922	10,927.7	81.7888	10,927.7	81.5433	10,927.7	78.9299	10,927.7	78.9582	10,927.7	76.3878	10,927.7	76.6411	10,927.7	74.6854	10,927.7	74.4679	10,927.7	72.6605	10,927.7	71.3521	10,927.7	68.6776	10,927.7	69.8679	10,927.7	67.2452	10,927.7	67.0026	10,927.7	60.9272	10,927.7	64.3107	10,927.7	60.1237	10,927.7	61.6927	10,927.7	60.4246	10,927.7	59.7722	10,927.7	54.4848	10,927.7	60.418	10,927.7	44.6834	10,927.7	55.0314	10,927.7	41.3641	10,927.7	54.2045	10,927.7	50.0838	10,927.7	55.4861	10,927.7	47.2971	10,927.7	57.3876	10,927.7	50.1743
11,313	85.5778	11,313	85.0763	11,313	85.2971	11,313	83.4815	11,313	84.0462	11,313	81.3174	11,313	81.1734	11,313	78.5404	11,313	78.3251	11,313	76.4201	11,313	77.4626	11,313	75.6966	11,313	76.6513	11,313	74.6311	11,313	74.7691	11,313	69.5706	11,313	72.6055	11,313	67.94	11,313	69.3579	11,313	62.1741	11,313	66.1761	11,313	61.7542	11,313	63.8762	11,313	59.8946	11,313	60.9885	11,313	52.5331	11,313	61.6194	11,313	40.9417	11,313	58.8213	11,313	45.256	11,313	55.3811	11,313	52.3617	11,313	57.0996	11,313	47.9914	11,313	57.7345	11,313	49.3003
11,712.9	85.5921	11,712.9	84.9053	11,712.9	85.3093	11,712.9	84.0242	11,712.9	84.4235	11,712.9	81.6516	11,712.9	82.4591	11,712.9	79.3418	11,712.9	79.9004	11,712.9	78.0573	11,712.9	79.6525	11,712.9	76.9835	11,712.9	78.996	11,712.9	75.8683	11,712.9	76.7623	11,712.9	71.512	11,712.9	74.0101	11,712.9	68.2886	11,712.9	70.3267	11,712.9	63.0532	11,712.9	67.1143	11,712.9	63.6321	11,712.9	64.9601	11,712.9	59.3448	11,712.9	63.0564	11,712.9	52.5312	11,712.9	62.7369	11,712.9	41.0321	11,712.9	58.8062	11,712.9	46.1109	11,712.9	57.5463	11,712.9	52.6672	11,712.9	57.3769	11,712.9	48.6243	11,712.9	58.7503	11,712.9	53.5785
12,126	86.1466	12,126	85.2115	12,126	85.9305	12,126	84.9444	12,126	85.3065	12,126	82.3999	12,126	83.8314	12,126	80.6395	12,126	81.6335	12,126	78.9257	12,126	80.7953	12,126	77.7131	12,126	80.1016	12,126	76.3547	12,126	77.0769	12,126	72.5417	12,126	74.151	12,126	69.0536	12,126	70.7528	12,126	63.8891	12,126	67.4009	12,126	63.9913	12,126	64.7017	12,126	60.0212	12,126	63.8317	12,126	50.3292	12,126	62.3265	12,126	42.729	12,126	58.6195	12,126	47.9163	12,126	56.2062	12,126	49.5847	12,126	56.7474	12,126	44.5031	12,126	57.9857	12,126	54.9527
12,553.7	86.5959	12,553.7	85.4935	12,553.7	86.3507	12,553.7	85.4336	12,553.7	85.9101	12,553.7	82.9282	12,553.7	84.4981	12,553.7	81.1175	12,553.7	82.2991	12,553.7	78.7391	12,553.7	80.8265	12,553.7	77.2869	12,553.7	79.816	12,553.7	75.9324	12,553.7	76.2832	12,553.7	72.0107	12,553.7	73.185	12,553.7	68.0499	12,553.7	70.0639	12,553.7	62.9957	12,553.7	66.0039	12,553.7	62.7647	12,553.7	63.3025	12,553.7	58.5242	12,553.7	62.9914	12,553.7	47.5332	12,553.7	60.8893	12,553.7	40.9959	12,553.7	57.4607	12,553.7	46.9061	12,553.7	54.8534	12,553.7	44.1242	12,553.7	55.4785	12,553.7	45.2622	12,553.7	55.823	12,553.7	54.7087
12,996.1	87.1736	12,996.1	86.2445	12,996.1	86.8192	12,996.1	85.6808	12,996.1	86.0758	12,996.1	83.3311	12,996.1	84.2695	12,996.1	80.9008	12,996.1	81.7168	12,996.1	77.9417	12,996.1	79.3431	12,996.1	75.7478	12,996.1	77.4413	12,996.1	73.8097	12,996.1	73.9267	12,996.1	69.333	12,996.1	70.1554	12,996.1	65.068	12,996.1	66.9141	12,996.1	60.0226	12,996.1	62.046	12,996.1	60.1843	12,996.1	59.777	12,996.1	55.518	12,996.1	59.5284	12,996.1	42.9056	12,996.1	56.7883	12,996.1	35.8102	12,996.1	54.0085	12,996.1	45.4734	12,996.1	52.6303	12,996.1	39.7611	12,996.1	52.2951	12,996.1	42.6288	12,996.1	50.4194	12,996.1	53.3802
13,454.6	87.3194	13,454.6	86.5167	13,454.6	86.925	13,454.6	85.4915	13,454.6	85.7895	13,454.6	82.8938	13,454.6	83.4417	13,454.6	79.5584	13,454.6	80.4476	13,454.6	76.2958	13,454.6	76.9895	13,454.6	72.4012	13,454.6	73.6434	13,454.6	68.6285	13,454.6	69.5958	13,454.6	63.073	13,454.6	64.303	13,454.6	59.3428	13,454.6	60.2678	13,454.6	52.5868	13,454.6	54.2483	13,454.6	53.5623	13,454.6	53.5251	13,454.6	50.1328	13,454.6	52.2183	13,454.6	29.846	13,454.6	48.6522	13,454.6	22.8664	13,454.6	47.5527	13,454.6	41.5586	13,454.6	48.7256	13,454.6	37.4003	13,454.6	46.4163	13,454.6	34.5303	13,454.6	33.5543	13,454.6	51.0077
13,929.2	87.188	13,929.2	86.2476	13,929.2	86.7771	13,929.2	84.8889	13,929.2	85.4523	13,929.2	81.9318	13,929.2	82.8465	13,929.2	78.0335	13,929.2	79.4314	13,929.2	74.1327	13,929.2	75.4764	13,929.2	68.9238	13,929.2	71.5065	13,929.2	63.9059	13,929.2	66.543	13,929.2	56.0941	13,929.2	60.2352	13,929.2	53.2533	13,929.2	56.4906	13,929.2	48.1493	13,929.2	52.0986	13,929.2	48.5503	13,929.2	51.0352	13,929.2	45.7373	13,929.2	49.2596	13,929.2	32.9463	13,929.2	43.2374	13,929.2	30.8448	13,929.2	41.286	13,929.2	44.1068	13,929.2	44.0446	13,929.2	38.0814	13,929.2	42.6284	13,929.2	37.826	13,929.2	24.4759	13,929.2	47.3665
14,419.9	87.1246	14,419.9	86.0584	14,419.9	86.6585	14,419.9	84.5637	14,419.9	85.1524	14,419.9	81.155	14,419.9	82.2235	14,419.9	76.7962	14,419.9	78.3961	14,419.9	72.2991	14,419.9	73.9131	14,419.9	65.6074	14,419.9	69.0802	14,419.9	59.8896	14,419.9	62.3844	14,419.9	55.3456	14,419.9	54.8149	14,419.9	49.3317	14,419.9	49.816	14,419.9	49.8087	14,419.9	46.6382	14,419.9	45.7017	14,419.9	46.3141	14,419.9	42.3027	14,419.9	44.8858	14,419.9	36.0951	14,419.9	41.1042	14,419.9	20.7834	14,419.9	37.3734	14,419.9	45.7609	14,419.9	36.6495	14,419.9	36.7121	14,419.9	38.1677	14,419.9	38.4528	14,419.9	41.4512	14,419.9	44.116
14,928.2	86.9639	14,928.2	85.9849	14,928.2	86.4147	14,928.2	84.4536	14,928.2	84.6811	14,928.2	80.9121	14,928.2	81.3637	14,928.2	76.4154	14,928.2	76.9076	14,928.2	71.7331	14,928.2	71.6098	14,928.2	64.9464	14,928.2	64.9094	14,928.2	59.7025	14,928.2	55.7118	14,928.2	57.6351	14,928.2	48.9263	14,928.2	50.334	14,928.2	45.0826	14,928.2	50.5708	14,928.2	46.8265	14,928.2	46.4934	14,928.2	43.0695	14,928.2	37.1704	14,928.2	35.9119	14,928.2	36.4297	14,928.2	38.6352	14,928.2	29.5313	14,928.2	35.1415	14,928.2	44.2539	14,928.2	37.4445	14,928.2	43.3084	14,928.2	35.2855	14,928.2	34.5134	14,928.2	44.0586	14,928.2	34.7585
15,455.6	87.0601	15,455.6	86.2073	15,455.6	86.3097	15,455.6	84.7707	15,455.6	84.3089	15,455.6	81.2506	15,455.6	80.6503	15,455.6	76.6284	15,455.6	75.8391	15,455.6	71.7865	15,455.6	69.9771	15,455.6	63.8544	15,455.6	62.8585	15,455.6	56.858	15,455.6	54.3533	15,455.6	57.7692	15,455.6	43.8361	15,455.6	48.0588	15,455.6	11.5077	15,455.6	49.4345	15,455.6	40.6079	15,455.6	44.6272	15,455.6	34.8351	15,455.6	35.8294	15,455.6	25.3936	15,455.6	26.2448	15,455.6	36.4135	15,455.6	34.124	15,455.6	37.031	15,455.6	42.1332	15,455.6	35.3445	15,455.6	43.8017	15,455.6	39.8768	15,455.6	32.2135	15,455.6	43.6258	15,455.6	37.3732
16,000.5	86.989	16,000.5	86.2212	16,000.5	86.1245	16,000.5	84.7563	16,000.5	83.7831	16,000.5	81.1884	16,000.5	79.6749	16,000.5	76.3854	16,000.5	74.3843	16,000.5	71.3148	16,000.5	67.8095	16,000.5	61.9287	16,000.5	57.9155	16,000.5	52.9964	16,000.5	56.1093	16,000.5	55.2131	16,000.5	53.2112	16,000.5	47.9494	16,000.5	52.7223	16,000.5	49.0854	16,000.5	45.646	16,000.5	44.2369	16,000.5	42.7179	16,000.5	30.718	16,000.5	44.9691	16,000.5	35.6626	16,000.5	33.9008	16,000.5	32.9406	16,000.5	40.4124	16,000.5	37.9085	16,000.5	29.8453	16,000.5	40.8019	16,000.5	43.0356	16,000.5	23.7392	16,000.5	45.8233	16,000.5	33.1854
16,564.5	87.9047	16,564.5	86.8023	16,564.5	87.132	16,564.5	84.7217	16,564.5	84.7407	16,564.5	80.587	16,564.5	80.1556	16,564.5	74.5421	16,564.5	74.2353	16,564.5	69.122	16,564.5	65.6363	16,564.5	60.0097	16,564.5	60.4502	16,564.5	60.4869	16,564.5	64.2999	16,564.5	60.3682	16,564.5	61.5405	16,564.5	55.8585	16,564.5	59.9373	16,564.5	51.9622	16,564.5	54.559	16,564.5	45.4647	16,564.5	52.9715	16,564.5	42.0326	16,564.5	50.6524	16,564.5	43.4621	16,564.5	43.0235	16,564.5	33.4953	16,564.5	42.3572	16,564.5	41.2138	16,564.5	38.37	16,564.5	47.0933	16,564.5	42.5733	16,564.5	40.0766	16,564.5	49.4128	16,564.5	33.5742
17,148.9	87.7434	17,148.9	86.208	17,148.9	87.2551	17,148.9	83.2263	17,148.9	84.9794	17,148.9	77.7518	17,148.9	80.5064	17,148.9	67.7393	17,148.9	74.0571	17,148.9	62.6094	17,148.9	63.3922	17,148.9	64.517	17,148.9	59.8053	17,148.9	66.08	17,148.9	62.9594	17,148.9	65.3599	17,148.9	61.3401	17,148.9	59.7511	17,148.9	58.67	17,148.9	56.3317	17,148.9	54.2573	17,148.9	48.4132	17,148.9	51.7951	17,148.9	46.5619	17,148.9	48.8902	17,148.9	42.9528	17,148.9	39.496	17,148.9	33.868	17,148.9	38.988	17,148.9	40.0284	17,148.9	38.1766	17,148.9	49.7426	17,148.9	35.9086	17,148.9	46.7373	17,148.9	48.8575	17,148.9	44.4764
17,752.4	87.6084	17,752.4	85.7867	17,752.4	87.0806	17,752.4	82.006	17,752.4	84.5119	17,752.4	74.778	17,752.4	79.5334	17,752.4	55.1028	17,752.4	72.0789	17,752.4	62.4114	17,752.4	62.0998	17,752.4	66.7519	17,752.4	62.2083	17,752.4	67.4317	17,752.4	63.2217	17,752.4	66.0588	17,752.4	62.261	17,752.4	59.7191	17,752.4	57.9252	17,752.4	56.7025	17,752.4	55.215	17,752.4	49.9282	17,752.4	52.4701	17,752.4	45.0501	17,752.4	46.121	17,752.4	39.0733	17,752.4	42.717	17,752.4	32.8998	17,752.4	40.3206	17,752.4	32.3618	17,752.4	43.2174	17,752.4	47.8467	17,752.4	30.0894	17,752.4	46.0064	17,752.4	50.0643	17,752.4	42.5034
18,379.4	87.3946	18,379.4	85.6246	18,379.4	86.6225	18,379.4	81.7809	18,379.4	83.5652	18,379.4	73.8141	18,379.4	77.6343	18,379.4	58.249	18,379.4	69.0519	18,379.4	62.2542	18,379.4	65.2066	18,379.4	66.0573	18,379.4	66.6259	18,379.4	65.5636	18,379.4	65.9717	18,379.4	63.868	18,379.4	62.7819	18,379.4	56.011	18,379.4	56.6897	18,379.4	54.0257	18,379.4	54.1591	18,379.4	46.9078	18,379.4	50.5324	18,379.4	43.3496	18,379.4	43.5127	18,379.4	37.1929	18,379.4	44.7415	18,379.4	30.3124	18,379.4	39.663	18,379.4	40.446	18,379.4	43.2974	18,379.4	42.0818	18,379.4	32.6723	18,379.4	45.4089	18,379.4	51.1784	18,379.4	45.4698
19,026.9	87.482	19,026.9	85.6512	19,026.9	86.4913	19,026.9	81.2918	19,026.9	82.776	19,026.9	71.6375	19,026.9	74.785	19,026.9	62.7548	19,026.9	63.7093	19,026.9	70.0067	19,026.9	68.8939	19,026.9	71.5619	19,026.9	70.9583	19,026.9	70.0991	19,026.9	69.595	19,026.9	67.7698	19,026.9	66.6435	19,026.9	62.4082	19,026.9	60.9275	19,026.9	59.4019	19,026.9	58.7538	19,026.9	50.8829	19,026.9	55.3998	19,026.9	49.9676	19,026.9	46.7305	19,026.9	42.3479	19,026.9	49.568	19,026.9	43.2193	19,026.9	42.5007	19,026.9	41.1354	19,026.9	47.6479	19,026.9	43.4905	19,026.9	43.4565	19,026.9	41.0172	19,026.9	53.1259	19,026.9	45.1144
19,697.8	87.1361	19,697.8	85.1554	19,697.8	85.9689	19,697.8	80.7198	19,697.8	81.802	19,697.8	71.0526	19,697.8	72.3239	19,697.8	72.7605	19,697.8	55.0174	19,697.8	75.104	19,697.8	67.4716	19,697.8	75.1117	19,697.8	69.2328	19,697.8	73.4912	19,697.8	66.9604	19,697.8	71.1557	19,697.8	63.4325	19,697.8	65.0894	19,697.8	56.5747	19,697.8	61.7636	19,697.8	54.2015	19,697.8	54.8868	19,697.8	50.4775	19,697.8	51.0139	19,697.8	46.024	19,697.8	43.6684	19,697.8	46.6968	19,697.8	42.4727	19,697.8	42.9997	19,697.8	43.406	19,697.8	46.5471	19,697.8	46.6935	19,697.8	43.2436	19,697.8	42.9303	19,697.8	51.3168	19,697.8	39.0052
19,999.5	86.3357	19,999.5	84.488	19,999.5	85.1122	19,999.5	80.3734	19,999.5	80.8325	19,999.5	73.2928	19,999.5	71.2661	19,999.5	75.1072	19,999.5	48.8571	19,999.5	75.8603	19,999.5	64.9277	19,999.5	75.408	19,999.5	66.608	19,999.5	73.491	19,999.5	63.2744	19,999.5	70.8018	19,999.5	58.6155	19,999.5	66.1182	19,999.5	51.2324	19,999.5	62.0933	19,999.5	53.0191	19,999.5	54.8981	19,999.5	48.1438	19,999.5	47.6717	19,999.5	44.8447	19,999.5	33.3455	19,999.5	48.2351	19,999.5	42.7642	19,999.5	43.4341	19,999.5	51.6786	19,999.5	45.6406	19,999.5	47.3956	19,999.5	48.7054	19,999.5	48.5427	19,999.5	49.782	19,999.5	47.3149
