"SPL Vertical"																																																																							
"On-Axis"		"10°"		"-10°"		"20°"		"-20°"		"30°"		"-30°"		"40°"		"-40°"		"50°"		"-50°"		"60°"		"-60°"		"70°"		"-70°"		"80°"		"-80°"		"90°"		"-90°"		"100°"		"-100°"		"110°"		"-110°"		"120°"		"-120°"		"130°"		"-130°"		"140°"		"-140°"		"150°"		"-150°"		"160°"		"-160°"		"170°"		"-170°"		"180°"	
"Frequency [Hz]"	"Sound Pessure Level [dB]  / [2.83V 1m] "	"Frequency [Hz]"	"Sound Pessure Level [dB]  / [2.83V 1m] "	"Frequency [Hz]"	"Sound Pessure Level [dB]  / [2.83V 1m] "	"Frequency [Hz]"	"Sound Pessure Level [dB]  / [2.83V 1m] "	"Frequency [Hz]"	"Sound Pessure Level [dB]  / [2.83V 1m] "	"Frequency [Hz]"	"Sound Pessure Level [dB]  / [2.83V 1m] "	"Frequency [Hz]"	"Sound Pessure Level [dB]  / [2.83V 1m] "	"Frequency [Hz]"	"Sound Pessure Level [dB]  / [2.83V 1m] "	"Frequency [Hz]"	"Sound Pessure Level [dB]  / [2.83V 1m] "	"Frequency [Hz]"	"Sound Pessure Level [dB]  / [2.83V 1m] "	"Frequency [Hz]"	"Sound Pessure Level [dB]  / [2.83V 1m] "	"Frequency [Hz]"	"Sound Pessure Level [dB]  / [2.83V 1m] "	"Frequency [Hz]"	"Sound Pessure Level [dB]  / [2.83V 1m] "	"Frequency [Hz]"	"Sound Pessure Level [dB]  / [2.83V 1m] "	"Frequency [Hz]"	"Sound Pessure Level [dB]  / [2.83V 1m] "	"Frequency [Hz]"	"Sound Pessure Level [dB]  / [2.83V 1m] "	"Frequency [Hz]"	"Sound Pessure Level [dB]  / [2.83V 1m] "	"Frequency [Hz]"	"Sound Pessure Level [dB]  / [2.83V 1m] "	"Frequency [Hz]"	"Sound Pessure Level [dB]  / [2.83V 1m] "	"Frequency [Hz]"	"Sound Pessure Level [dB]  / [2.83V 1m] "	"Frequency [Hz]"	"Sound Pessure Level [dB]  / [2.83V 1m] "	"Frequency [Hz]"	"Sound Pessure Level [dB]  / [2.83V 1m] "	"Frequency [Hz]"	"Sound Pessure Level [dB]  / [2.83V 1m] "	"Frequency [Hz]"	"Sound Pessure Level [dB]  / [2.83V 1m] "	"Frequency [Hz]"	"Sound Pessure Level [dB]  / [2.83V 1m] "	"Frequency [Hz]"	"Sound Pessure Level [dB]  / [2.83V 1m] "	"Frequency [Hz]"	"Sound Pessure Level [dB]  / [2.83V 1m] "	"Frequency [Hz]"	"Sound Pessure Level [dB]  / [2.83V 1m] "	"Frequency [Hz]"	"Sound Pessure Level [dB]  / [2.83V 1m] "	"Frequency [Hz]"	"Sound Pessure Level [dB]  / [2.83V 1m] "	"Frequency [Hz]"	"Sound Pessure Level [dB]  / [2.83V 1m] "	"Frequency [Hz]"	"Sound Pessure Level [dB]  / [2.83V 1m] "	"Frequency [Hz]"	"Sound Pessure Level [dB]  / [2.83V 1m] "	"Frequency [Hz]"	"Sound Pessure Level [dB]  / [2.83V 1m] "	"Frequency [Hz]"	"Sound Pessure Level [dB]  / [2.83V 1m] "	"Frequency [Hz]"	"Sound Pessure Level [dB]  / [2.83V 1m] "
20.5078	54.5456	20.5078	53.1082	20.5078	55.7078	20.5078	51.4241	20.5078	56.6114	20.5078	49.706	20.5078	57.2764	20.5078	48.6131	20.5078	57.7165	20.5078	48.9567	20.5078	57.9368	20.5078	50.4725	20.5078	57.9342	20.5078	52.2793	20.5078	57.6969	20.5078	53.9207	20.5078	57.2033	20.5078	55.2817	20.5078	56.4195	20.5078	56.3575	20.5078	55.2958	20.5078	57.1643	20.5078	53.7676	20.5078	57.7154	20.5078	51.7881	20.5078	58.0152	20.5078	49.5321	20.5078	58.0588	20.5078	48.0937	20.5078	57.8312	20.5078	49.0344	20.5078	57.3066	20.5078	51.3213	20.5078	56.4462	20.5078	53.4926	20.5078	55.196
21.9727	55.4294	21.9727	53.8314	21.9727	56.7098	21.9727	51.951	21.9727	57.6996	21.9727	50.1074	21.9727	58.4283	21.9727	49.273	21.9727	58.9159	21.9727	50.2395	21.9727	59.1716	21.9727	52.1841	21.9727	59.195	21.9727	54.148	21.9727	58.9758	21.9727	55.8219	21.9727	58.4936	21.9727	57.1718	21.9727	57.7158	21.9727	58.2229	21.9727	56.5949	21.9727	59.0021	21.9727	55.0723	21.9727	59.5261	21.9727	53.1189	21.9727	59.8008	21.9727	50.964	21.9727	59.8217	21.9727	49.7581	21.9727	59.5747	21.9727	50.8455	21.9727	59.0354	21.9727	53.1095	21.9727	58.1674	21.9727	55.2389	21.9727	56.921
23.4375	56.3085	23.4375	54.8332	23.4375	57.5442	23.4375	53.268	23.4375	58.5178	23.4375	52.0872	23.4375	59.2387	23.4375	52.0379	23.4375	59.7186	23.4375	53.2226	23.4375	59.9629	23.4375	54.93	23.4375	59.9692	23.4375	56.6076	23.4375	59.7264	23.4375	58.0623	23.4375	59.2144	23.4375	59.2585	23.4375	58.4033	23.4375	60.2042	23.4375	57.2563	23.4375	60.9128	23.4375	55.75	23.4375	61.3928	23.4375	53.9673	23.4375	61.6458	23.4375	52.4077	23.4375	61.666	23.4375	52.2139	23.4375	61.4409	23.4375	53.6967	23.4375	60.9504	23.4375	55.7334	23.4375	60.167	23.4375	57.5787	23.4375	59.0554
24.9023	57.0428	24.9023	55.6022	24.9023	58.2874	24.9023	54.1865	24.9023	59.2828	24.9023	53.3446	24.9023	60.0275	24.9023	53.6777	24.9023	60.5301	24.9023	55.0167	24.9023	60.7955	24.9023	56.6911	24.9023	60.822	24.9023	58.2834	24.9023	60.5999	24.9023	59.6563	24.9023	60.1108	24.9023	60.7859	24.9023	59.3283	24.9023	61.6797	24.9023	58.2227	24.9023	62.3481	24.9023	56.7857	24.9023	62.7974	24.9023	55.1332	24.9023	63.0271	24.9023	53.7917	24.9023	63.0306	24.9023	53.7773	24.9023	62.7947	24.9023	55.2458	24.9023	62.3	24.9023	57.1994	24.9023	61.5207	24.9023	58.983	24.9023	60.4251
26.3672	58.5605	26.3672	57.3581	26.3672	59.6575	26.3672	56.2784	26.3672	60.564	26.3672	55.7395	26.3672	61.2561	26.3672	56.0908	26.3672	61.7292	26.3672	57.1906	26.3672	61.982	26.3672	58.5966	26.3672	62.01	26.3672	59.9873	26.3672	61.804	26.3672	61.2238	26.3672	61.3498	26.3672	62.2629	26.3672	60.6301	26.3672	63.0965	26.3672	59.6335	26.3672	63.7253	26.3672	58.3863	26.3672	64.1499	26.3672	57.0457	26.3672	64.3667	26.3672	56.0781	26.3672	64.368	26.3672	56.1658	26.3672	64.1413	26.3672	57.3664	26.3672	63.6699	26.3672	59.0149	26.3672	62.9335	26.3672	60.5929	26.3672	61.9112
27.832	59.0555	27.832	58.0266	27.832	60.0906	27.832	57.3065	27.832	60.9839	27.832	57.2713	27.832	61.6791	27.832	58.0246	27.832	62.1573	27.832	59.2707	27.832	62.4104	27.832	60.6501	27.832	62.431	27.832	61.9543	27.832	62.2082	27.832	63.0996	27.832	61.7273	27.832	64.0601	27.832	60.9733	27.832	64.8311	27.832	59.9463	27.832	65.4127	27.832	58.7103	27.832	65.8036	27.832	57.522	27.832	65.9994	27.832	56.9739	27.832	65.9914	27.832	57.5997	27.832	65.7672	27.832	59.1006	27.832	65.3106	27.832	60.8081	27.832	64.6022	27.832	62.3524	27.832	63.6214
29.2969	60.5871	29.2969	59.7288	29.2969	61.4744	29.2969	59.1384	29.2969	62.257	29.2969	59.0915	29.2969	62.874	29.2969	59.6815	29.2969	63.2994	29.2969	60.721	29.2969	63.5205	29.2969	61.9329	29.2969	63.5282	29.2969	63.1237	29.2969	63.3142	29.2969	64.1976	29.2969	62.8718	29.2969	65.1155	29.2969	62.2033	29.2969	65.8634	29.2969	61.3399	29.2969	66.4359	29.2969	60.3895	29.2969	66.8293	29.2969	59.6123	29.2969	67.0384	29.2969	59.4145	29.2969	67.0557	29.2969	60.0313	29.2969	66.8715	29.2969	61.2344	29.2969	66.4742	29.2969	62.6147	29.2969	65.852	29.2969	63.9055	29.2969	64.9954
30.7617	61.7843	30.7617	61.1739	30.7617	62.514	30.7617	60.8915	30.7617	63.2116	30.7617	61.1018	30.7617	63.7926	30.7617	61.7909	30.7617	64.2147	30.7617	62.7817	30.7617	64.4573	30.7617	63.8755	30.7617	64.5094	30.7617	64.9374	30.7617	64.3649	30.7617	65.896	30.7617	64.0238	30.7617	66.7181	30.7617	63.4987	30.7617	67.3888	30.7617	62.8318	30.7617	67.9001	30.7617	62.1281	30.7617	68.2457	30.7617	61.5934	30.7617	68.4183	30.7617	61.5045	30.7617	68.4097	30.7617	62.0197	30.7617	68.2101	30.7617	63.0124	30.7617	67.8097	30.7617	64.2028	30.7617	67.2007	30.7617	65.3658	30.7617	66.3814
32.2266	62.0692	32.2266	61.6483	32.2266	62.7219	32.2266	61.6675	32.2266	63.412	32.2266	62.2042	32.2266	64.0169	32.2266	63.1356	32.2266	64.4718	32.2266	64.2524	32.2266	64.744	32.2266	65.3869	32.2266	64.8157	32.2266	66.4434	32.2266	64.6764	32.2266	67.3765	32.2266	64.3222	32.2266	68.1666	32.2266	63.7633	32.2266	68.8049	32.2266	63.0456	32.2266	69.286	32.2266	62.2962	32.2266	69.6042	32.2266	61.778	32.2266	69.7521	32.2266	61.8335	32.2266	69.7203	32.2266	62.5973	32.2266	69.4975	32.2266	63.8349	32.2266	69.0714	32.2266	65.203	32.2266	68.4301	32.2266	66.479	32.2266	67.5651
33.6914	64.7887	33.6914	64.8202	33.6914	64.9539	33.6914	65.1088	33.6914	65.222	33.6914	65.6505	33.6914	65.5025	33.6914	66.3811	33.6914	65.7262	33.6914	67.2125	33.6914	65.8479	33.6914	68.0654	33.6914	65.8416	33.6914	68.8826	33.6914	65.6992	33.6914	69.6268	33.6914	65.4328	33.6914	70.275	33.6914	65.0849	33.6914	70.8119	33.6914	64.7428	33.6914	71.2263	33.6914	64.5473	33.6914	71.5084	33.6914	64.6583	33.6914	71.649	33.6914	65.1639	33.6914	71.6388	33.6914	66.0093	33.6914	71.4687	33.6914	67.0404	33.6914	71.1306	33.6914	68.1017	33.6914	70.6193	33.6914	69.0862	33.6914	69.9346
35.1563	67.033	35.1563	66.9877	35.1563	67.2121	35.1563	67.1297	35.1563	67.4566	35.1563	67.4759	35.1563	67.7033	35.1563	67.9994	35.1563	67.9032	35.1563	68.6433	35.1563	68.0234	35.1563	69.3431	35.1563	68.0454	35.1563	70.043	35.1563	67.965	35.1563	70.7011	35.1563	67.7933	35.1563	71.2879	35.1563	67.5622	35.1563	71.7825	35.1563	67.3302	35.1563	72.1698	35.1563	67.1832	35.1563	72.4376	35.1563	67.2193	35.1563	72.5755	35.1563	67.5086	35.1563	72.5745	35.1563	68.0518	35.1563	72.4272	35.1563	68.7781	35.1563	72.1291	35.1563	69.5845	35.1563	71.6804	35.1563	70.3773	35.1563	71.0894
36.6211	68.3721	36.6211	68.3694	36.6211	68.5073	36.6211	68.5402	36.6211	68.7174	36.6211	68.8921	36.6211	68.9448	36.6211	69.3969	36.6211	69.1428	36.6211	70.0035	36.6211	69.2786	36.6211	70.6555	36.6211	69.333	36.6211	71.3041	36.6211	69.2999	36.6211	71.9118	36.6211	69.1867	36.6211	72.4513	36.6211	69.0179	36.6211	72.9032	36.6211	68.8383	36.6211	73.2524	36.6211	68.7144	36.6211	73.487	36.6211	68.7247	36.6211	73.5967	36.6211	68.9349	36.6211	73.5729	36.6211	69.3646	36.6211	73.4092	36.6211	69.9744	36.6211	73.1028	36.6211	70.685	36.6211	72.6569	36.6211	71.4113	36.6211	72.0841
38.0859	69.3891	38.0859	69.4533	38.0859	69.4476	38.0859	69.6685	38.0859	69.583	38.0859	70.0351	38.0859	69.7454	38.0859	70.5268	38.0859	69.8907	38.0859	71.1006	38.0859	69.9854	38.0859	71.71	38.0859	70.008	38.0859	72.3139	38.0859	69.9495	38.0859	72.8793	38.0859	69.8148	38.0859	73.3813	38.0859	69.6264	38.0859	73.8009	38.0859	69.4293	38.0859	74.1229	38.0859	69.2923	38.0859	74.3345	38.0859	69.2992	38.0859	74.4246	38.0859	69.52	38.0859	74.3833	38.0859	69.9746	38.0859	74.2032	38.0859	70.6179	38.0859	73.8801	38.0859	71.3637	38.0859	73.4157	38.0859	72.1217	38.0859	72.8211
39.5508	70.2142	39.5508	70.3858	39.5508	70.1463	39.5508	70.6774	39.5508	70.1507	39.5508	71.085	39.5508	70.1894	39.5508	71.5862	39.5508	70.226	39.5508	72.1478	39.5508	70.2317	39.5508	72.7339	39.5508	70.1881	39.5508	73.3116	39.5508	70.0904	39.5508	73.8533	39.5508	69.95	39.5508	74.3368	39.5508	69.7989	39.5508	74.7444	39.5508	69.692	39.5508	75.0612	39.5508	69.7015	39.5508	75.2744	39.5508	69.8966	39.5508	75.3727	39.5508	70.3111	39.5508	75.3463	39.5508	70.9231	39.5508	75.1871	39.5508	71.6644	39.5508	74.8903	39.5508	72.4514	39.5508	74.4556	39.5508	73.2108	39.5508	73.8898
41.0156	73.5109	41.0156	73.6913	41.0156	73.3906	41.0156	73.9382	41.0156	73.3171	41.0156	74.2492	41.0156	73.2734	41.0156	74.6143	41.0156	73.2421	41.0156	75.0174	41.0156	73.2092	41.0156	75.4392	41.0156	73.1664	41.0156	75.8599	41.0156	73.1143	41.0156	76.2607	41.0156	73.063	41.0156	76.6245	41.0156	73.0341	41.0156	76.936	41.0156	73.0575	41.0156	77.1815	41.0156	73.1666	41.0156	77.3491	41.0156	73.3882	41.0156	77.4282	41.0156	73.7316	41.0156	77.4103	41.0156	74.1832	41.0156	77.2894	41.0156	74.7098	41.0156	77.0631	41.0156	75.2679	41.0156	76.7342	41.0156	75.8142	41.0156	76.312
42.4805	74.5667	42.4805	74.5697	42.4805	74.6046	42.4805	74.6298	42.4805	74.6647	42.4805	74.7576	42.4805	74.7285	42.4805	74.9557	42.4805	74.7804	42.4805	75.2176	42.4805	74.8089	42.4805	75.5293	42.4805	74.8079	42.4805	75.8713	42.4805	74.7776	42.4805	76.2218	42.4805	74.7259	42.4805	76.559	42.4805	74.6684	42.4805	76.8625	42.4805	74.6283	42.4805	77.1144	42.4805	74.6328	42.4805	77.2994	42.4805	74.7084	42.4805	77.4053	42.4805	74.8726	42.4805	77.4233	42.4805	75.1278	42.4805	77.3488	42.4805	75.4595	42.4805	77.1822	42.4805	75.8396	42.4805	76.9302	42.4805	76.2334	42.4805	76.6067
43.9453	74.7032	43.9453	74.6912	43.9453	74.7693	43.9453	74.7524	43.9453	74.8666	43.9453	74.8978	43.9453	74.9721	43.9453	75.1271	43.9453	75.0658	43.9453	75.4292	43.9453	75.1326	43.9453	75.784	43.9453	75.1631	43.9453	76.1668	43.9453	75.1547	43.9453	76.5518	43.9453	75.1124	43.9453	76.9149	43.9453	75.0492	43.9453	77.2345	43.9453	74.9865	43.9453	77.4925	43.9453	74.9526	43.9453	77.6737	43.9453	74.9784	43.9453	77.7665	43.9453	75.0904	43.9453	77.7626	43.9453	75.3023	43.9453	77.6583	43.9453	75.6089	43.9453	77.4557	43.9453	75.9861	43.9453	77.1642	43.9453	76.3973	43.9453	76.8021
45.4102	74.995	45.4102	75.1099	45.4102	74.9453	45.4102	75.3017	45.4102	74.9414	45.4102	75.5723	45.4102	74.9611	45.4102	75.9128	45.4102	74.9826	45.4102	76.3057	45.4102	74.9883	45.4102	76.7288	45.4102	74.9663	45.4102	77.1582	45.4102	74.9128	45.4102	77.5709	45.4102	74.8336	45.4102	77.9462	45.4102	74.7455	45.4102	78.266	45.4102	74.6774	45.4102	78.5147	45.4102	74.6679	45.4102	78.6784	45.4102	74.7579	45.4102	78.7456	45.4102	74.9784	45.4102	78.7072	45.4102	75.3368	45.4102	78.5571	45.4102	75.8113	45.4102	78.2938	45.4102	76.3577	45.4102	77.9225	45.4102	76.9227	45.4102	77.4569
46.875	77.0176	46.875	77.185	46.875	76.9065	46.875	77.4129	46.875	76.8423	46.875	77.6997	46.875	76.813	46.875	78.0372	46.875	76.8064	46.875	78.4127	46.875	76.8127	46.875	78.8104	46.875	76.8271	46.875	79.2134	46.875	76.8516	46.875	79.605	46.875	76.8952	46.875	79.9695	46.875	76.974	46.875	80.2924	46.875	77.1079	46.875	80.5609	46.875	77.3151	46.875	80.7633	46.875	77.6057	46.875	80.8896	46.875	77.9764	46.875	80.9315	46.875	78.4102	46.875	80.8831	46.875	78.8793	46.875	80.7415	46.875	79.3519	46.875	80.5079	46.875	79.7971	46.875	80.1889
48.3398	78.3233	48.3398	78.4405	48.3398	78.2496	48.3398	78.6045	48.3398	78.2134	48.3398	78.814	48.3398	78.2064	48.3398	79.0642	48.3398	78.2202	48.3398	79.3463	48.3398	78.2477	48.3398	79.6489	48.3398	78.2841	48.3398	79.9591	48.3398	78.3283	48.3398	80.2633	48.3398	78.3834	48.3398	80.548	48.3398	78.4563	48.3398	80.8004	48.3398	78.5569	48.3398	81.0087	48.3398	78.6956	48.3398	81.1623	48.3398	78.8804	48.3398	81.2525	48.3398	79.114	48.3398	81.2729	48.3398	79.3922	48.3398	81.2201	48.3398	79.7032	48.3398	81.0943	48.3398	80.0299	48.3398	80.9003	48.3398	80.3517	48.3398	80.648
51.2695	79.8183	51.2695	79.9345	51.2695	79.7365	51.2695	80.0855	51.2695	79.6865	51.2695	80.2696	51.2695	79.6644	51.2695	80.4823	51.2695	79.6656	51.2695	80.7173	51.2695	79.6859	51.2695	80.9661	51.2695	79.722	51.2695	81.2191	51.2695	79.7724	51.2695	81.4658	51.2695	79.8376	51.2695	81.6954	51.2695	79.92	51.2695	81.8973	51.2695	80.0235	51.2695	82.0616	51.2695	80.1525	51.2695	82.1792	51.2695	80.3105	51.2695	82.2429	51.2695	80.4987	51.2695	82.2477	51.2695	80.7154	51.2695	82.1919	51.2695	80.9549	51.2695	82.0772	51.2695	81.2077	51.2695	81.9099	51.2695	81.4611	51.2695	81.7001
52.7344	80.6756	52.7344	80.7788	52.7344	80.594	52.7344	80.9047	52.7344	80.5314	52.7344	81.0531	52.7344	80.4848	52.7344	81.2219	52.7344	80.4513	52.7344	81.407	52.7344	80.4282	52.7344	81.6024	52.7344	80.4141	52.7344	81.8006	52.7344	80.4088	52.7344	81.9927	52.7344	80.4139	52.7344	82.169	52.7344	80.4325	52.7344	82.3194	52.7344	80.4695	52.7344	82.4343	52.7344	80.5304	52.7344	82.5047	52.7344	80.6212	52.7344	82.5236	52.7344	80.7468	52.7344	82.4864	52.7344	80.9094	52.7344	82.392	52.7344	81.1076	52.7344	82.2436	52.7344	81.3345	52.7344	82.0494	52.7344	81.578	52.7344	81.8221
54.1992	81.4126	54.1992	81.5065	54.1992	81.3349	54.1992	81.6186	54.1992	81.2705	54.1992	81.7497	54.1992	81.2164	54.1992	81.8988	54.1992	81.1697	54.1992	82.0633	54.1992	81.1283	54.1992	82.2382	54.1992	81.0911	54.1992	82.417	54.1992	81.0588	54.1992	82.5915	54.1992	81.0338	54.1992	82.7522	54.1992	81.0208	54.1992	82.8892	54.1992	81.0262	54.1992	82.9928	54.1992	81.0579	54.1992	83.0536	54.1992	81.1244	54.1992	83.0641	54.1992	81.2325	54.1992	83.0192	54.1992	81.3857	54.1992	82.9171	54.1992	81.5823	54.1992	82.7605	54.1992	81.8137	54.1992	82.5572	54.1992	82.0657	54.1992	82.3199
55.6641	82.1912	55.6641	82.2619	55.6641	82.1408	55.6641	82.3557	55.6641	82.1071	55.6641	82.4738	55.6641	82.0866	55.6641	82.6158	55.6641	82.0758	55.6641	82.7793	55.6641	82.0723	55.6641	82.9596	55.6641	82.0748	55.6641	83.1501	55.6641	82.0839	55.6641	83.3427	55.6641	82.1018	55.6641	83.5281	55.6641	82.1329	55.6641	83.6963	55.6641	82.1831	55.6641	83.8375	55.6641	82.2589	55.6641	83.9425	55.6641	82.366	55.6641	84.0033	55.6641	82.5078	55.6641	84.014	55.6641	82.6835	55.6641	83.9713	55.6641	82.8875	55.6641	83.8754	55.6641	83.109	55.6641	83.7309	55.6641	83.3339	55.6641	83.5462
58.5938	82.7083	58.5938	82.798	58.5938	82.642	58.5938	82.9102	58.5938	82.5996	58.5938	83.0426	58.5938	82.5805	58.5938	83.1922	58.5938	82.5837	58.5938	83.3549	58.5938	82.6075	58.5938	83.5259	58.5938	82.6502	58.5938	83.6992	58.5938	82.71	58.5938	83.8685	58.5938	82.7853	58.5938	84.0269	58.5938	82.8748	58.5938	84.1673	58.5938	82.9775	58.5938	84.2829	58.5938	83.0929	58.5938	84.3677	58.5938	83.2199	58.5938	84.4166	58.5938	83.3576	58.5938	84.4269	58.5938	83.5042	58.5938	84.3977	58.5938	83.6571	58.5938	84.3312	58.5938	83.8124	58.5938	84.2322	58.5938	83.9648	58.5938	84.1074
60.0586	83.613	60.0586	83.7098	60.0586	83.5332	60.0586	83.8221	60.0586	83.4719	60.0586	83.9477	60.0586	83.4298	60.0586	84.0841	60.0586	83.4074	60.0586	84.2279	60.0586	83.4048	60.0586	84.3756	60.0586	83.4217	60.0586	84.5227	60.0586	83.4575	60.0586	84.6643	60.0586	83.5112	60.0586	84.7948	60.0586	83.5821	60.0586	84.9084	60.0586	83.6689	60.0586	84.9993	60.0586	83.7705	60.0586	85.0622	60.0586	83.8859	60.0586	85.0926	60.0586	84.0136	60.0586	85.0877	60.0586	84.1518	60.0586	85.047	60.0586	84.298	60.0586	84.9722	60.0586	84.4487	60.0586	84.868	60.0586	84.5985	60.0586	84.7409
62.9883	84.7379	62.9883	84.8019	62.9883	84.6846	62.9883	84.8753	62.9883	84.6433	62.9883	84.9568	62.9883	84.6152	62.9883	85.0451	62.9883	84.6016	62.9883	85.1386	62.9883	84.6033	62.9883	85.2355	62.9883	84.6207	62.9883	85.3335	62.9883	84.6538	62.9883	85.4297	62.9883	84.7016	62.9883	85.5208	62.9883	84.7629	62.9883	85.6027	62.9883	84.8357	62.9883	85.6715	62.9883	84.9181	62.9883	85.7232	62.9883	85.0077	62.9883	85.7544	62.9883	85.1027	62.9883	85.7628	62.9883	85.2008	62.9883	85.7477	62.9883	85.3001	62.9883	85.71	62.9883	85.3982	62.9883	85.6522	62.9883	85.492	62.9883	85.5781
64.4531	84.9027	64.4531	84.9549	64.4531	84.8595	64.4531	85.0151	64.4531	84.8269	64.4531	85.0818	64.4531	84.8061	64.4531	85.1541	64.4531	84.7984	64.4531	85.2306	64.4531	84.8048	64.4531	85.3099	64.4531	84.8254	64.4531	85.3901	64.4531	84.8599	64.4531	85.4691	64.4531	84.9072	64.4531	85.544	64.4531	84.9653	64.4531	85.6117	64.4531	85.0319	64.4531	85.6689	64.4531	85.1044	64.4531	85.7124	64.4531	85.1804	64.4531	85.7394	64.4531	85.2578	64.4531	85.7482	64.4531	85.3348	64.4531	85.7386	64.4531	85.4104	64.4531	85.7115	64.4531	85.4834	64.4531	85.6694	64.4531	85.5524	64.4531	85.6153
67.3828	85.186	67.3828	85.2372	67.3828	85.1408	67.3828	85.2928	67.3828	85.1035	67.3828	85.3515	67.3828	85.0758	67.3828	85.412	67.3828	85.0594	67.3828	85.4732	67.3828	85.0556	67.3828	85.5341	67.3828	85.0651	67.3828	85.5934	67.3828	85.0878	67.3828	85.6497	67.3828	85.1226	67.3828	85.7012	67.3828	85.1679	67.3828	85.7456	67.3828	85.2213	67.3828	85.7809	67.3828	85.28	67.3828	85.8049	67.3828	85.3416	67.3828	85.8159	67.3828	85.4037	67.3828	85.8132	67.3828	85.4649	67.3828	85.797	67.3828	85.5241	67.3828	85.7688	67.3828	85.5809	67.3828	85.7308	67.3828	85.635	67.3828	85.6854
68.8477	85.4595	68.8477	85.5133	68.8477	85.41	68.8477	85.5694	68.8477	85.3669	68.8477	85.6263	68.8477	85.3325	68.8477	85.6828	68.8477	85.3091	68.8477	85.7378	68.8477	85.2984	68.8477	85.7905	68.8477	85.3015	68.8477	85.8403	68.8477	85.3187	68.8477	85.8862	68.8477	85.3494	68.8477	85.927	68.8477	85.3917	68.8477	85.9614	68.8477	85.4432	68.8477	85.9879	68.8477	85.501	68.8477	86.0049	68.8477	85.562	68.8477	86.0113	68.8477	85.6235	68.8477	86.0065	68.8477	85.6836	68.8477	85.9906	68.8477	85.7408	68.8477	85.9649	68.8477	85.7945	68.8477	85.9307	68.8477	85.8444	68.8477	85.8901
71.7773	85.9737	71.7773	86.0194	71.7773	85.9305	71.7773	86.0653	71.7773	85.8922	71.7773	86.1102	71.7773	85.8612	71.7773	86.1528	71.7773	85.8403	71.7773	86.1928	71.7773	85.8316	71.7773	86.2298	71.7773	85.8368	71.7773	86.264	71.7773	85.8562	71.7773	86.2952	71.7773	85.8894	71.7773	86.3235	71.7773	85.9346	71.7773	86.3484	71.7773	85.989	71.7773	86.3694	71.7773	86.049	71.7773	86.3859	71.7773	86.1106	71.7773	86.3971	71.7773	86.1703	71.7773	86.4026	71.7773	86.2248	71.7773	86.4022	71.7773	86.2722	71.7773	86.3961	71.7773	86.3115	71.7773	86.3844	71.7773	86.3427	71.7773	86.3668
74.707	86.6136	74.707	86.6523	74.707	86.5783	74.707	86.6919	74.707	86.5493	74.707	86.7306	74.707	86.5293	74.707	86.767	74.707	86.521	74.707	86.8001	74.707	86.5266	74.707	86.8298	74.707	86.5472	74.707	86.8559	74.707	86.5828	74.707	86.8789	74.707	86.6317	74.707	86.8992	74.707	86.6912	74.707	86.9173	74.707	86.7569	74.707	86.9337	74.707	86.8239	74.707	86.949	74.707	86.8871	74.707	86.9636	74.707	86.942	74.707	86.978	74.707	86.9851	74.707	86.9924	74.707	87.0146	74.707	87.0068	74.707	87.0307	74.707	87.0201	74.707	87.035	74.707	87.0304
77.6367	87.1289	77.6367	87.1567	77.6367	87.1026	77.6367	87.1831	77.6367	87.0808	77.6367	87.2062	77.6367	87.0666	77.6367	87.2246	77.6367	87.0629	77.6367	87.2375	77.6367	87.072	77.6367	87.245	77.6367	87.0951	77.6367	87.2478	77.6367	87.132	77.6367	87.2472	77.6367	87.1808	77.6367	87.2448	77.6367	87.2382	77.6367	87.2427	77.6367	87.2994	77.6367	87.2428	77.6367	87.3587	77.6367	87.2471	77.6367	87.4104	77.6367	87.2575	77.6367	87.4495	77.6367	87.2751	77.6367	87.4725	77.6367	87.3003	77.6367	87.4779	77.6367	87.3325	77.6367	87.4665	77.6367	87.3694	77.6367	87.4415	77.6367	87.4074
79.1016	87.1458	79.1016	87.169	79.1016	87.1234	79.1016	87.1904	79.1016	87.1051	79.1016	87.2075	79.1016	87.0942	79.1016	87.2191	79.1016	87.0937	79.1016	87.2244	79.1016	87.1059	79.1016	87.2237	79.1016	87.1322	79.1016	87.2179	79.1016	87.1721	79.1016	87.2087	79.1016	87.2238	79.1016	87.1983	79.1016	87.2834	79.1016	87.1893	79.1016	87.3459	79.1016	87.1843	79.1016	87.4051	79.1016	87.186	79.1016	87.455	79.1016	87.1967	79.1016	87.49	79.1016	87.218	79.1016	87.5065	79.1016	87.2503	79.1016	87.5027	79.1016	87.2926	79.1016	87.48	79.1016	87.342	79.1016	87.4418	79.1016	87.3937
82.0313	87.3132	82.0313	87.3402	82.0313	87.2853	82.0313	87.3631	82.0313	87.2602	82.0313	87.3794	82.0313	87.2416	82.0313	87.3875	82.0313	87.2333	82.0313	87.3866	82.0313	87.2381	82.0313	87.3771	82.0313	87.2578	82.0313	87.3602	82.0313	87.2926	82.0313	87.338	82.0313	87.3408	82.0313	87.3133	82.0313	87.3985	82.0313	87.2896	82.0313	87.4603	82.0313	87.2707	82.0313	87.5193	82.0313	87.2602	82.0313	87.5686	82.0313	87.2615	82.0313	87.6019	82.0313	87.2772	82.0313	87.6146	82.0313	87.308	82.0313	87.6049	82.0313	87.3529	82.0313	87.5742	82.0313	87.4085	82.0313	87.5266	82.0313	87.4688
84.9609	87.6474	84.9609	87.6675	84.9609	87.6249	84.9609	87.6818	84.9609	87.6035	84.9609	87.6879	84.9609	87.5872	84.9609	87.6842	84.9609	87.5796	84.9609	87.6701	84.9609	87.5838	84.9609	87.6461	84.9609	87.6017	84.9609	87.6139	84.9609	87.6337	84.9609	87.5762	84.9609	87.6781	84.9609	87.5365	84.9609	87.7313	84.9609	87.4991	84.9609	87.7876	84.9609	87.4689	84.9609	87.8402	84.9609	87.4505	84.9609	87.8817	84.9609	87.4482	84.9609	87.9056	84.9609	87.4648	84.9609	87.9071	84.9609	87.5013	84.9609	87.8843	84.9609	87.5563	84.9609	87.8387	84.9609	87.6252	84.9609	87.7752	84.9609	87.7011
87.8906	87.7352	87.8906	87.7498	87.8906	87.7167	87.8906	87.7573	87.8906	87.6979	87.8906	87.7552	87.8906	87.683	87.8906	87.742	87.8906	87.6756	87.8906	87.7171	87.8906	87.679	87.8906	87.6813	87.8906	87.6955	87.8906	87.6365	87.8906	87.7257	87.8906	87.586	87.8906	87.7683	87.8906	87.5338	87.8906	87.8198	87.8906	87.4853	87.8906	87.8744	87.8906	87.446	87.8906	87.9248	87.8906	87.4216	87.8906	87.9633	87.8906	87.4171	87.8906	87.9825	87.8906	87.4361	87.8906	87.977	87.8906	87.4795	87.8906	87.9446	87.8906	87.5454	87.8906	87.8868	87.8906	87.6281	87.8906	87.8089	87.8906	87.7193
90.8203	87.7791	90.8203	87.7909	90.8203	87.7633	90.8203	87.7953	90.8203	87.7474	90.8203	87.7896	90.8203	87.7354	90.8203	87.7721	90.8203	87.7311	90.8203	87.7423	90.8203	87.7381	90.8203	87.7008	90.8203	87.7583	90.8203	87.6498	90.8203	87.7925	90.8203	87.5927	90.8203	87.8391	90.8203	87.5342	90.8203	87.8943	90.8203	87.48	90.8203	87.9522	90.8203	87.4367	90.8203	88.0048	90.8203	87.4106	90.8203	88.0439	90.8203	87.4074	90.8203	88.0617	90.8203	87.4309	90.8203	88.0525	90.8203	87.4821	90.8203	88.014	90.8203	87.5583	90.8203	87.9476	90.8203	87.6531	90.8203	87.8589	90.8203	87.7571
95.2148	87.8755	95.2148	87.8817	95.2148	87.8621	95.2148	87.8774	95.2148	87.8455	95.2148	87.86	95.2148	87.8298	95.2148	87.8278	95.2148	87.8192	95.2148	87.7804	95.2148	87.8174	95.2148	87.7188	95.2148	87.8272	95.2148	87.6454	95.2148	87.8499	95.2148	87.5644	95.2148	87.8847	95.2148	87.4815	95.2148	87.9282	95.2148	87.4037	95.2148	87.9745	95.2148	87.3388	95.2148	88.0155	95.2148	87.2948	95.2148	88.0425	95.2148	87.2789	95.2148	88.0472	95.2148	87.2959	95.2148	88.0232	95.2148	87.3473	95.2148	87.9682	95.2148	87.4301	95.2148	87.8839	95.2148	87.537	95.2148	87.7766	95.2148	87.6568
98.1445	87.8957	98.1445	87.8951	98.1445	87.8887	98.1445	87.8836	98.1445	87.8776	98.1445	87.8588	98.1445	87.8666	98.1445	87.8192	98.1445	87.8595	98.1445	87.7646	98.1445	87.8602	98.1445	87.6961	98.1445	87.8716	98.1445	87.6163	98.1445	87.8951	98.1445	87.5298	98.1445	87.9301	98.1445	87.4425	98.1445	87.9734	98.1445	87.3617	98.1445	88.019	98.1445	87.2959	98.1445	88.0588	98.1445	87.2533	98.1445	88.0838	98.1445	87.2411	98.1445	88.0854	98.1445	87.2642	98.1445	88.0572	98.1445	87.3236	98.1445	87.9967	98.1445	87.4156	98.1445	87.9056	98.1445	87.5322	98.1445	87.7905	98.1445	87.6617
101.074	87.9096	101.074	87.9071	101.074	87.9023	101.074	87.8917	101.074	87.8891	101.074	87.8608	101.074	87.8741	101.074	87.8131	101.074	87.8616	101.074	87.7484	101.074	87.8558	101.074	87.6682	101.074	87.8601	101.074	87.5756	101.074	87.8765	101.074	87.4755	101.074	87.905	101.074	87.3746	101.074	87.9428	101.074	87.2812	101.074	87.984	101.074	87.2045	101.074	88.0203	101.074	87.1537	101.074	88.0423	101.074	87.1368	101.074	88.0407	101.074	87.159	101.074	88.0086	101.074	87.2212	101.074	87.9427	101.074	87.3193	101.074	87.8446	101.074	87.4442	101.074	87.7211	101.074	87.583
105.469	87.913	105.469	87.9085	105.469	87.9057	105.469	87.8892	105.469	87.8901	105.469	87.8527	105.469	87.8706	105.469	87.7979	105.469	87.8515	105.469	87.7247	105.469	87.8373	105.469	87.6349	105.469	87.8323	105.469	87.5318	105.469	87.8394	105.469	87.4208	105.469	87.8598	105.469	87.3092	105.469	87.8914	105.469	87.2062	105.469	87.9292	105.469	87.1218	105.469	87.9648	105.469	87.066	105.469	87.988	105.469	87.0474	105.469	87.9887	105.469	87.0714	105.469	87.9586	105.469	87.1385	105.469	87.8936	105.469	87.2437	105.469	87.7943	105.469	87.3765	105.469	87.667	105.469	87.5229
108.398	87.9943	108.398	87.9889	108.398	87.9853	108.398	87.9661	108.398	87.9652	108.398	87.9238	108.398	87.9381	108.398	87.8611	108.398	87.9084	108.398	87.7781	108.398	87.8809	108.398	87.6767	108.398	87.86	108.398	87.5605	108.398	87.8497	108.398	87.4353	108.398	87.8519	108.398	87.3088	108.398	87.866	108.398	87.1905	108.398	87.8876	108.398	87.0911	108.398	87.9092	108.398	87.0213	108.398	87.9212	108.398	86.9903	108.398	87.9132	108.398	87.0038	108.398	87.877	108.398	87.0625	108.398	87.8078	108.398	87.1616	108.398	87.7061	108.398	87.2904	108.398	87.5779	108.398	87.4344
112.793	88.0548	112.793	88.0404	112.793	88.0545	112.793	88.0085	112.793	88.0425	112.793	87.9574	112.793	88.0225	112.793	87.8859	112.793	87.9987	112.793	87.7945	112.793	87.9753	112.793	87.6851	112.793	87.957	112.793	87.5616	112.793	87.9476	112.793	87.4301	112.793	87.9494	112.793	87.2987	112.793	87.9622	112.793	87.1776	112.793	87.982	112.793	87.0778	112.793	88.0016	112.793	87.0105	112.793	88.0111	112.793	86.9849	112.793	88	112.793	87.0066	112.793	87.9595	112.793	87.0759	112.793	87.8846	112.793	87.1868	112.793	87.7755	112.793	87.3279	112.793	87.6382	112.793	87.4839
117.188	88.1273	117.188	88.1068	117.188	88.1299	117.188	88.0662	117.188	88.1176	117.188	88.0037	117.188	88.0937	117.188	87.9188	117.188	88.0623	117.188	87.8119	117.188	88.0278	117.188	87.6854	117.188	87.9954	117.188	87.5437	117.188	87.9696	117.188	87.3932	117.188	87.9539	117.188	87.2431	117.188	87.9492	117.188	87.1042	117.188	87.9527	117.188	86.9889	117.188	87.958	117.188	86.909	117.188	87.9554	117.188	86.8746	117.188	87.9343	117.188	86.8915	117.188	87.8853	117.188	86.9598	117.188	87.8027	117.188	87.073	117.188	87.6863	117.188	87.2187	117.188	87.5419	117.188	87.3808
120.117	88.1562	120.117	88.1336	120.117	88.1606	120.117	88.0906	120.117	88.1494	120.117	88.0256	120.117	88.1261	120.117	87.9381	120.117	88.0943	120.117	87.8289	120.117	88.0588	120.117	87.7004	120.117	88.0245	120.117	87.5572	120.117	87.9964	120.117	87.4059	120.117	87.9783	120.117	87.2559	120.117	87.9714	120.117	87.1182	120.117	87.9734	120.117	87.0051	120.117	87.978	120.117	86.9284	120.117	87.9759	120.117	86.8978	120.117	87.9564	120.117	86.9186	120.117	87.9098	120.117	86.9904	120.117	87.8301	120.117	87.1061	120.117	87.7166	120.117	87.2531	120.117	87.5746	120.117	87.415
124.512	88.1562	124.512	88.1257	124.512	88.1672	124.512	88.0736	124.512	88.1613	124.512	87.9985	124.512	88.1415	124.512	87.9	124.512	88.1116	124.512	87.7789	124.512	88.0761	124.512	87.6381	124.512	88.0403	124.512	87.4823	124.512	88.0095	124.512	87.3193	124.512	87.9881	124.512	87.1591	124.512	87.9782	124.512	87.0138	124.512	87.978	124.512	86.8968	124.512	87.9814	124.512	86.8208	124.512	87.9788	124.512	86.7959	124.512	87.9587	124.512	86.8271	124.512	87.9106	124.512	86.9127	124.512	87.8273	124.512	87.0442	124.512	87.7076	124.512	87.2073	124.512	87.5561	124.512	87.3841
128.906	88.0671	128.906	88.0304	128.906	88.0837	128.906	87.9718	128.906	88.0827	128.906	87.8897	128.906	88.067	128.906	87.7838	128.906	88.0398	128.906	87.6546	128.906	88.0056	128.906	87.5051	128.906	87.9694	128.906	87.34	128.906	87.9363	128.906	87.1672	128.906	87.911	128.906	86.997	128.906	87.8958	128.906	86.8422	128.906	87.8891	128.906	86.7169	128.906	87.8851	128.906	86.6344	128.906	87.8743	128.906	86.6055	128.906	87.8453	128.906	86.6357	128.906	87.7875	128.906	86.7235	128.906	87.6939	128.906	86.8604	128.906	87.5632	128.906	87.0313	128.906	87.4006	128.906	87.2177
133.301	87.9567	133.301	87.9145	133.301	87.9786	133.301	87.8503	133.301	87.9823	133.301	87.7629	133.301	87.9705	133.301	87.6518	133.301	87.9467	133.301	87.5181	133.301	87.9151	133.301	87.3648	133.301	87.8809	133.301	87.1972	133.301	87.85	133.301	87.0234	133.301	87.8271	133.301	86.8542	133.301	87.8151	133.301	86.7028	133.301	87.8125	133.301	86.5833	133.301	87.8135	133.301	86.5091	133.301	87.8079	133.301	86.4905	133.301	87.7836	133.301	86.5322	133.301	87.7294	133.301	86.6317	133.301	87.6377	133.301	86.7794	133.301	87.5067	133.301	86.9597	133.301	87.3414	133.301	87.1535
139.16	87.8158	139.16	87.7643	139.16	87.8443	139.16	87.6885	139.16	87.8517	139.16	87.5875	139.16	87.8404	139.16	87.4613	139.16	87.8138	139.16	87.3113	139.16	87.7766	139.16	87.1411	139.16	87.7349	139.16	86.9568	139.16	87.6954	139.16	86.7675	139.16	87.6645	139.16	86.5856	139.16	87.646	139.16	86.4258	139.16	87.6395	139.16	86.3036	139.16	87.6394	139.16	86.2332	139.16	87.6349	139.16	86.2246	139.16	87.6131	139.16	86.2813	139.16	87.5612	139.16	86.3987	139.16	87.4703	139.16	86.5648	139.16	87.3374	139.16	86.7618	139.16	87.1666	139.16	86.9692
143.555	87.7232	143.555	87.6646	143.555	87.7559	143.555	87.579	143.555	87.7643	143.555	87.466	143.555	87.7506	143.555	87.3259	143.555	87.7183	143.555	87.1605	143.555	87.6722	143.555	86.9736	143.555	87.6189	143.555	86.772	143.555	87.5662	143.555	86.5657	143.555	87.5216	143.555	86.3679	143.555	87.4904	143.555	86.1945	143.555	87.4734	143.555	86.0621	143.555	87.4652	143.555	85.986	143.555	87.4553	143.555	85.9764	143.555	87.4296	143.555	86.0365	143.555	87.3745	143.555	86.1609	143.555	87.28	143.555	86.3361	143.555	87.1423	143.555	86.5429	143.555	86.9651	143.555	86.7596
147.949	87.6505	147.949	87.5857	147.949	87.687	147.949	87.4918	147.949	87.6964	147.949	87.3683	147.949	87.6805	147.949	87.2158	147.949	87.6423	147.949	87.0359	147.949	87.5863	147.949	86.8326	147.949	87.5189	147.949	86.6128	147.949	87.4485	147.949	86.3867	147.949	87.3836	147.949	86.1681	147.949	87.3309	147.949	85.9736	147.949	87.2929	147.949	85.8213	147.949	87.2658	147.949	85.7274	147.949	87.2397	147.949	85.7035	147.949	87.2005	147.949	85.7537	147.949	87.1338	147.949	85.8729	147.949	87.0288	147.949	86.0475	147.949	86.8812	147.949	86.2577	147.949	86.6947	147.949	86.4808
153.809	87.5278	153.809	87.4601	153.809	87.565	153.809	87.3607	153.809	87.5729	153.809	87.2291	153.809	87.5536	153.809	87.0656	153.809	87.5099	153.809	86.8721	153.809	87.4466	153.809	86.6527	153.809	87.3702	153.809	86.4151	153.809	87.289	153.809	86.1706	153.809	87.2115	153.809	85.9342	153.809	87.145	153.809	85.7242	153.809	87.0923	153.809	85.5597	153.809	87.0506	153.809	85.4575	153.809	87.0109	153.809	85.4293	153.809	86.96	153.809	85.4783	153.809	86.8839	153.809	85.5982	153.809	86.7719	153.809	85.7746	153.809	86.6191	153.809	85.9869	153.809	86.4289	153.809	86.2123
159.668	87.528	159.668	87.4456	159.668	87.5783	159.668	87.3302	159.668	87.5978	159.668	87.1809	159.668	87.5885	159.668	86.9983	159.668	87.5532	159.668	86.7843	159.668	87.4963	159.668	86.5436	159.668	87.4242	159.668	86.2848	159.668	87.3446	159.668	86.0208	159.668	87.2657	159.668	85.7686	159.668	87.1939	159.668	85.5487	159.668	87.132	159.668	85.3818	159.668	87.0775	159.668	85.2858	159.668	87.0225	159.668	85.271	159.668	86.9552	159.668	85.3382	159.668	86.8632	159.668	85.4782	159.668	86.7367	159.668	85.6735	159.668	86.5714	159.668	85.9021	159.668	86.3696	159.668	86.1411
165.527	87.6517	165.527	87.5774	165.527	87.6923	165.527	87.4682	165.527	87.7008	165.527	87.3235	165.527	87.6796	165.527	87.143	165.527	87.6326	165.527	86.9282	165.527	87.5659	165.527	86.6831	165.527	87.4879	165.527	86.4153	165.527	87.4086	165.527	86.1371	165.527	87.3377	165.527	85.8662	165.527	87.2818	165.527	85.6242	165.527	87.2417	165.527	85.4349	165.527	87.2112	165.527	85.3197	165.527	87.1774	165.527	85.2929	165.527	87.1242	165.527	85.358	165.527	87.0364	165.527	85.5065	165.527	86.9033	165.527	85.7197	165.527	86.7215	165.527	85.973	165.527	86.4961	165.527	86.24
171.387	87.5292	171.387	87.4586	171.387	87.5649	171.387	87.3528	171.387	87.5663	171.387	87.212	171.387	87.535	171.387	87.0366	171.387	87.4745	171.387	86.8287	171.387	87.3911	171.387	86.5925	171.387	87.2941	171.387	86.3358	171.387	87.1954	171.387	86.0711	171.387	87.1078	171.387	85.8152	171.387	87.0414	171.387	85.5892	171.387	87.0001	171.387	85.4154	171.387	86.979	171.387	85.3135	171.387	86.9646	171.387	85.2959	171.387	86.9385	171.387	85.3648	171.387	86.8821	171.387	85.5108	171.387	86.7816	171.387	85.7154	171.387	86.631	171.387	85.9543	171.387	86.4337	171.387	86.2017
177.246	87.3494	177.246	87.2733	177.246	87.389	177.246	87.1606	177.246	87.3923	177.246	87.0114	177.246	87.3606	177.246	86.8267	177.246	87.2971	177.246	86.6084	177.246	87.2075	177.246	86.3613	177.246	87.101	177.246	86.0937	177.246	86.9898	177.246	85.8186	177.246	86.8873	177.246	85.5542	177.246	86.8055	177.246	85.3225	177.246	86.7504	177.246	85.1468	177.246	86.7188	177.246	85.0469	177.246	86.6986	177.246	85.0344	177.246	86.6712	177.246	85.1096	177.246	86.617	177.246	85.2614	177.246	86.5209	177.246	85.4697	177.246	86.3756	177.246	85.7095	177.246	86.1834	177.246	85.9552
183.105	87.1059	183.105	87.0173	183.105	87.1536	183.105	86.8879	183.105	87.1611	183.105	86.7179	183.105	87.1299	183.105	86.5089	183.105	87.0636	183.105	86.2639	183.105	86.9683	183.105	85.9893	183.105	86.8538	183.105	85.6956	183.105	86.7328	183.105	85.3987	183.105	86.6199	183.105	85.1198	183.105	86.528	183.105	84.884	183.105	86.4645	183.105	84.7161	183.105	86.428	183.105	84.6355	183.105	86.407	183.105	84.6509	183.105	86.3828	183.105	84.7579	183.105	86.3348	183.105	84.9401	183.105	86.2459	183.105	85.1734	183.105	86.1067	183.105	85.4308	183.105	85.9171	183.105	85.6862
188.965	87.0543	188.965	86.9692	188.965	87.0964	188.965	86.8405	188.965	87.0962	188.965	86.6672	188.965	87.0547	188.965	86.4489	188.965	86.9745	188.965	86.1864	188.965	86.8611	188.965	85.8836	188.965	86.7235	188.965	85.5496	188.965	86.5751	188.965	85.1994	188.965	86.4316	188.965	84.8561	188.965	86.3081	188.965	84.5488	188.965	86.2145	188.965	84.3096	188.965	86.1505	188.965	84.1665	188.965	86.1048	188.965	84.1361	188.965	86.0572	188.965	84.2179	188.965	85.9847	188.965	84.3956	188.965	85.8686	188.965	84.6414	188.965	85.6986	188.965	84.9234	188.965	85.4754	188.965	85.2103
196.289	86.9797	196.289	86.8888	196.289	87.0286	196.289	86.7565	196.289	87.0344	196.289	86.5834	196.289	86.9969	196.289	86.3698	196.289	86.9177	196.289	86.1169	196.289	86.8015	196.289	85.8284	196.289	86.6568	196.289	85.5122	196.289	86.4965	196.289	85.1818	196.289	86.336	196.289	84.8575	196.289	86.1914	196.289	84.5652	196.289	86.0746	196.289	84.334	196.289	85.9891	196.289	84.1896	196.289	85.9276	196.289	84.1481	196.289	85.8728	196.289	84.2109	196.289	85.8028	196.289	84.3645	196.289	85.6974	196.289	84.5841	196.289	85.5445	196.289	84.8396	196.289	85.3425	196.289	85.1012
203.613	86.8792	203.613	86.797	203.613	86.9145	203.613	86.6691	203.613	86.9019	203.613	86.4962	203.613	86.8417	203.613	86.2791	203.613	86.7364	203.613	86.0194	203.613	86.5931	203.613	85.7212	203.613	86.4234	203.613	85.393	203.613	86.2439	203.613	85.049	203.613	86.074	203.613	84.7109	203.613	85.931	203.613	84.4061	203.613	85.8256	203.613	84.1649	203.613	85.757	203.613	84.0141	203.613	85.7128	203.613	83.9698	203.613	85.6721	203.613	84.0326	203.613	85.6117	203.613	84.1874	203.613	85.5124	203.613	84.4081	203.613	85.3633	203.613	84.6639	203.613	85.164	203.613	84.9245
210.938	86.7547	210.938	86.6444	210.938	86.8173	210.938	86.4888	210.938	86.8295	210.938	86.289	210.938	86.7886	210.938	86.0458	210.938	86.6941	210.938	85.7607	210.938	86.5491	210.938	85.4378	210.938	86.362	210.938	85.0863	210.938	86.1473	210.938	84.7218	210.938	85.9253	210.938	84.3677	210.938	85.7194	210.938	84.0536	210.938	85.5502	210.938	83.8111	210.938	85.4288	210.938	83.6667	210.938	85.351	210.938	83.6342	210.938	85.2984	210.938	83.7106	210.938	85.2436	210.938	83.8774	210.938	85.16	210.938	84.1058	210.938	85.0297	210.938	84.3632	210.938	84.847	210.938	84.6189
218.262	86.5512	218.262	86.4391	218.262	86.6151	218.262	86.2813	218.262	86.6278	218.262	86.0792	218.262	86.5867	218.262	85.8337	218.262	86.4915	218.262	85.546	218.262	86.3457	218.262	85.22	218.262	86.1575	218.262	84.8646	218.262	85.9412	218.262	84.4957	218.262	85.7157	218.262	84.1372	218.262	85.5026	218.262	83.8196	218.262	85.3208	218.262	83.5758	218.262	85.1814	218.262	83.4323	218.262	85.0828	218.262	83.4018	218.262	85.0106	218.262	83.479	218.262	84.9421	218.262	83.6425	218.262	84.8535	218.262	83.8621	218.262	84.7275	218.262	84.1057	218.262	84.5565	218.262	84.3446
225.586	86.4842	225.586	86.3609	225.586	86.5555	225.586	86.1884	225.586	86.5711	225.586	85.968	225.586	86.5281	225.586	85.6999	225.586	86.4255	225.586	85.3848	225.586	86.267	225.586	85.0261	225.586	86.0621	225.586	84.6331	225.586	85.8276	225.586	84.2238	225.586	85.5865	225.586	83.827	225.586	85.3652	225.586	83.48	225.586	85.1868	225.586	83.2232	225.586	85.0633	225.586	83.0888	225.586	84.9896	225.586	83.0893	225.586	84.9446	225.586	83.2135	225.586	84.8983	225.586	83.4313	225.586	84.8216	225.586	83.7042	225.586	84.6945	225.586	83.9947	225.586	84.5095	225.586	84.2711
232.91	86.7691	232.91	86.6401	232.91	86.8483	232.91	86.4654	232.91	86.8717	232.91	86.2472	232.91	86.8335	232.91	85.985	232.91	86.73	232.91	85.677	232.91	86.5609	232.91	85.3228	232.91	86.3313	232.91	84.9265	232.91	86.0532	232.91	84.4998	232.91	85.7463	232.91	84.0655	232.91	85.4379	232.91	83.6584	232.91	85.1591	232.91	83.3221	232.91	84.9371	232.91	83.0997	232.91	84.7847	232.91	83.0191	232.91	84.6924	232.91	83.0821	232.91	84.631	232.91	83.2627	232.91	84.563	232.91	83.5175	232.91	84.4557	232.91	83.7992	232.91	84.2907	232.91	84.0669
241.699	86.5303	241.699	86.3916	241.699	86.6177	241.699	86.2076	241.699	86.6478	241.699	85.9827	241.699	86.6156	241.699	85.7197	241.699	86.5194	241.699	85.42	241.699	86.3614	241.699	85.0857	241.699	86.1487	241.699	84.7219	241.699	85.8935	241.699	84.34	241.699	85.6126	241.699	83.9592	241.699	85.3264	241.699	83.6073	241.699	85.0568	241.699	83.3177	241.699	84.8237	241.699	83.1223	241.699	84.6389	241.699	83.0415	241.699	84.5017	241.699	83.0768	241.699	84.3966	241.699	83.2091	241.699	84.2989	241.699	83.4054	241.699	84.1838	241.699	83.6286	241.699	84.0342	241.699	83.8458
250.488	86.4478	250.488	86.2734	250.488	86.5592	250.488	86.0429	250.488	86.6013	250.488	85.7623	250.488	86.5693	250.488	85.4363	250.488	86.4621	250.488	85.0693	250.488	86.283	250.488	84.667	250.488	86.0408	250.488	84.2393	250.488	85.7497	250.488	83.8028	250.488	85.4281	250.488	83.3825	250.488	85.0975	250.488	83.0111	250.488	84.7801	250.488	82.7235	250.488	84.496	250.488	82.5482	250.488	84.2587	250.488	82.4973	250.488	84.0711	250.488	82.5611	250.488	83.9235	250.488	82.7123	250.488	83.7964	250.488	82.9141	250.488	83.6672	250.488	83.1317	250.488	83.5173	250.488	83.3379
259.277	86.7064	259.277	86.5515	259.277	86.8031	259.277	86.3424	259.277	86.8372	259.277	86.0814	259.277	86.805	259.277	85.7691	259.277	86.7055	259.277	85.4054	259.277	86.5413	259.277	84.9919	259.277	86.3194	259.277	84.535	259.277	86.0515	259.277	84.0494	259.277	85.7534	259.277	83.5608	259.277	85.4435	259.277	83.1061	259.277	85.1411	259.277	82.7289	259.277	84.8622	259.277	82.4696	259.277	84.6154	259.277	82.3525	259.277	84.3985	259.277	82.377	259.277	84.1992	259.277	82.5191	259.277	83.9997	259.277	82.7416	259.277	83.7843	259.277	83.0062	259.277	83.5443	259.277	83.281
268.066	86.1534	268.066	85.9832	268.066	86.2631	268.066	85.7597	268.066	86.3057	268.066	85.4895	268.066	86.2769	268.066	85.1776	268.066	86.1767	268.066	84.8283	268.066	86.01	268.066	84.4476	268.066	85.7881	268.066	84.0458	268.066	85.5273	268.066	83.6407	268.066	85.2479	268.066	83.2599	268.066	84.9719	268.066	82.9383	268.066	84.7209	268.066	82.712	268.066	84.5127	268.066	82.6068	268.066	84.3572	268.066	82.6289	268.066	84.2511	268.066	82.7615	268.066	84.1767	268.066	82.9713	268.066	84.1069	268.066	83.2196	268.066	84.0142	268.066	83.4704	268.066	83.8795	268.066	83.6962
276.855	86.3213	276.855	86.1485	276.855	86.4237	276.855	85.9081	276.855	86.453	276.855	85.6017	276.855	86.4075	276.855	85.2305	276.855	86.2881	276.855	84.7962	276.855	86.0992	276.855	84.3043	276.855	85.8496	276.855	83.7675	276.855	85.5523	276.855	83.2098	276.855	85.2231	276.855	82.6687	276.855	84.8799	276.855	82.1941	276.855	84.5402	276.855	81.8391	276.855	84.2206	276.855	81.6443	276.855	83.9346	276.855	81.6207	276.855	83.6902	276.855	81.7449	276.855	83.4863	276.855	81.9691	276.855	83.3115	276.855	82.2395	276.855	83.1456	276.855	82.5115	276.855	82.9666	276.855	82.7571
287.109	86.3242	287.109	86.1843	287.109	86.3973	287.109	85.9809	287.109	86.3993	287.109	85.7147	287.109	86.327	287.109	85.3833	287.109	86.18	287.109	84.9824	287.109	85.9623	287.109	84.5089	287.109	85.6831	287.109	83.9665	287.109	85.3575	287.109	83.3711	287.109	85.0065	287.109	82.7575	287.109	84.6567	287.109	82.1821	287.109	84.3353	287.109	81.7162	287.109	84.0633	287.109	81.4251	287.109	83.8467	287.109	81.3399	287.109	83.6727	287.109	81.4426	287.109	83.5153	287.109	81.6787	287.109	83.3467	287.109	81.9854	287.109	83.1465	287.109	82.3116	287.109	82.9056	287.109	82.6245
297.363	86.1222	297.363	85.9936	297.363	86.187	297.363	85.805	297.363	86.185	297.363	85.5589	297.363	86.1158	297.363	85.2557	297.363	85.9825	297.363	84.8934	297.363	85.7912	297.363	84.4694	297.363	85.5499	297.363	83.9838	297.363	85.2665	297.363	83.4448	297.363	84.9494	297.363	82.8746	297.363	84.6108	297.363	82.3155	297.363	84.2728	297.363	81.8312	297.363	83.9673	297.363	81.4947	297.363	83.7261	297.363	81.3612	297.363	83.56	297.363	81.4382	297.363	83.4474	297.363	81.6813	297.363	83.3434	297.363	82.0189	297.363	83.2025	297.363	82.3818	297.363	82.9963	297.363	82.7182
307.617	86.2414	307.617	86.1075	307.617	86.305	307.617	85.9114	307.617	86.2895	307.617	85.6569	307.617	86.1895	307.617	85.3433	307.617	86.0072	307.617	84.9663	307.617	85.7544	307.617	84.5231	307.617	85.4517	307.617	84.0165	307.617	85.123	307.617	83.4605	307.617	84.7875	307.617	82.8839	307.617	84.4537	307.617	82.3312	307.617	84.1227	307.617	81.8595	307.617	83.8008	307.617	81.527	307.617	83.508	307.617	81.3746	307.617	83.2716	307.617	81.4086	307.617	83.1036	307.617	81.596	307.617	82.983	307.617	81.8777	307.617	82.8641	307.617	82.1887	307.617	82.7021	307.617	82.4747
319.336	85.7679	319.336	85.6264	319.336	85.8492	319.336	85.4368	319.336	85.8577	319.336	85.2067	319.336	85.7833	319.336	84.9371	319.336	85.6218	319.336	84.6226	319.336	85.3778	319.336	84.2542	319.336	85.0665	319.336	83.826	319.336	84.7143	319.336	83.3428	319.336	84.3539	319.336	82.8275	319.336	84.017	319.336	82.3261	319.336	83.7253	319.336	81.9055	319.336	83.4882	319.336	81.6368	319.336	83.3086	319.336	81.5653	319.336	83.1867	319.336	81.685	319.336	83.117	319.336	81.9404	319.336	83.0798	319.336	82.2537	319.336	83.0389	319.336	82.5545	319.336	82.9537	319.336	82.7946
329.59	85.8072	329.59	85.6083	329.59	85.9437	329.59	85.3624	329.59	86.0025	329.59	85.0815	329.59	85.9724	329.59	84.7702	329.59	85.848	329.59	84.4247	329.59	85.6304	329.59	84.0353	329.59	85.3268	329.59	83.5918	329.59	84.9494	329.59	83.0913	329.59	84.5141	329.59	82.5466	329.59	84.0418	329.59	81.9951	329.59	83.561	329.59	81.502	329.59	83.1114	329.59	81.1499	329.59	82.7402	329.59	81.0061	329.59	82.4864	329.59	81.0814	329.59	82.3573	329.59	81.3194	329.59	82.3187	329.59	81.6275	329.59	82.3083	329.59	81.919	329.59	82.2626	329.59	82.1375
341.309	85.4258	341.309	85.2187	341.309	85.5627	341.309	84.9613	341.309	85.6145	341.309	84.6729	341.309	85.5757	341.309	84.3664	341.309	85.451	341.309	84.0449	341.309	85.255	341.309	83.7018	341.309	85.0077	341.309	83.3266	341.309	84.7285	341.309	82.9122	341.309	84.4296	341.309	82.4636	341.309	84.1143	341.309	82.0058	341.309	83.7831	341.309	81.5885	341.309	83.445	341.309	81.2806	341.309	83.1251	341.309	81.1462	341.309	82.8585	341.309	81.2077	341.309	82.6709	341.309	81.4265	341.309	82.558	341.309	81.7221	341.309	82.4824	341.309	82.0119	341.309	82.3915	341.309	82.2408
353.027	85.3973	353.027	85.1363	353.027	85.5551	353.027	84.7916	353.027	85.5963	353.027	84.3861	353.027	85.5162	353.027	83.9416	353.027	85.3213	353.027	83.476	353.027	85.0306	353.027	82.9997	353.027	84.6731	353.027	82.5162	353.027	84.2803	353.027	82.0257	353.027	83.8738	353.027	81.533	353.027	83.4573	353.027	81.0587	353.027	83.0249	353.027	80.6495	353.027	82.5839	353.027	80.3768	353.027	82.1764	353.027	80.3094	353.027	81.8729	353.027	80.4656	353.027	81.7267	353.027	80.7871	353.027	81.7233	353.027	81.1667	353.027	81.7817	353.027	81.4999	353.027	81.804	353.027	81.7191
366.211	85.3244	366.211	85.0907	366.211	85.4636	366.211	84.7815	366.211	85.4946	366.211	84.4174	366.211	85.4126	366.211	84.0157	366.211	85.2251	366.211	83.5868	366.211	84.954	366.211	83.132	366.211	84.6326	366.211	82.6456	366.211	84.2958	366.211	82.1198	366.211	83.9605	366.211	81.5526	366.211	83.6118	366.211	80.9589	366.211	83.2086	366.211	80.383	366.211	82.7153	366.211	79.9062	366.211	82.1423	366.211	79.6294	366.211	81.5714	366.211	79.6167	366.211	81.1302	366.211	79.8376	366.211	80.9002	366.211	80.1769	366.211	80.8393	366.211	80.5025	366.211	80.8197	366.211	80.7245
379.395	85.4756	379.395	85.2179	379.395	85.636	379.395	84.8886	379.395	85.6801	379.395	84.5138	379.395	85.6004	379.395	84.114	379.395	85.4055	379.395	83.7003	379.395	85.123	379.395	83.2727	379.395	84.7963	379.395	82.8208	379.395	84.471	379.395	82.3262	379.395	84.1689	379.395	81.7668	379.395	83.8676	379.395	81.125	379.395	83.5046	379.395	80.4052	379.395	83.0113	379.395	79.6594	379.395	82.3559	379.395	79.0081	379.395	81.5806	379.395	78.6143	379.395	80.8123	379.395	78.571	379.395	80.21	379.395	78.8044	379.395	79.8427	379.395	79.1356	379.395	79.628	379.395	79.4207
392.578	85.4379	392.578	85.0833	392.578	85.6368	392.578	84.5987	392.578	85.6619	392.578	84.0185	392.578	85.5043	392.578	83.3895	392.578	85.1714	392.578	82.7725	392.578	84.701	392.578	82.2386	392.578	84.1796	392.578	81.8489	392.578	83.7416	392.578	81.6229	392.578	83.5111	392.578	81.519	392.578	83.4954	392.578	81.4496	392.578	83.5544	392.578	81.3213	392.578	83.4947	392.578	81.0707	392.578	83.1727	392.578	80.6848	392.578	82.5386	392.578	80.2101	392.578	81.6529	392.578	79.7428	392.578	80.6914	392.578	79.3877	392.578	79.8897	392.578	79.2019	392.578	79.3971	392.578	79.1946
405.762	85.5881	405.762	85.3004	405.762	85.7464	405.762	84.9002	405.762	85.7604	405.762	84.4044	405.762	85.6173	405.762	83.8282	405.762	85.3079	405.762	83.1849	405.762	84.8317	405.762	82.4931	405.762	84.2102	405.762	81.7917	405.762	83.5099	405.762	81.1542	405.762	82.8633	405.762	80.6824	405.762	82.4413	405.762	80.4575	405.762	82.336	405.762	80.479	405.762	82.4597	405.762	80.661	405.762	82.6146	405.762	80.8934	405.762	82.6404	405.762	81.0985	405.762	82.4846	405.762	81.2453	405.762	82.1971	405.762	81.3386	405.762	81.8835	405.762	81.4054	405.762	81.6374	405.762	81.4882
420.41	85.7252	420.41	85.3269	420.41	85.9749	420.41	84.7931	420.41	86.0687	420.41	84.1466	420.41	86.0015	420.41	83.4244	420.41	85.7701	420.41	82.6762	420.41	85.3756	420.41	81.9562	420.41	84.8294	420.41	81.3087	420.41	84.1638	420.41	80.7578	420.41	83.4418	420.41	80.3103	420.41	82.7521	420.41	79.9695	420.41	82.1729	420.41	79.7454	420.41	81.719	420.41	79.6527	420.41	81.3337	420.41	79.6956	420.41	80.9548	420.41	79.8514	420.41	80.5903	420.41	80.0651	420.41	80.3258	420.41	80.2623	420.41	80.2366	420.41	80.3749	420.41	80.2915	420.41	80.3726
435.059	86.3742	435.059	86.1048	435.059	86.4642	435.059	85.638	435.059	86.3925	435.059	84.9573	435.059	86.1764	435.059	84.0553	435.059	85.8356	435.059	82.9503	435.059	85.3977	435.059	81.7181	435.059	84.9048	435.059	80.5343	435.059	84.4202	435.059	79.6686	435.059	84.0206	435.059	79.326	435.059	83.7608	435.059	79.4476	435.059	83.6229	435.059	79.7849	435.059	83.502	435.059	80.1218	435.059	83.2517	435.059	80.3541	435.059	82.7538	435.059	80.456	435.059	81.9789	435.059	80.433	435.059	81.0421	435.059	80.2948	435.059	80.2231	435.059	80.0655	435.059	79.813	435.059	79.8355
451.172	86.3793	451.172	86.3361	451.172	86.291	451.172	86.1414	451.172	86.0791	451.172	85.7621	451.172	85.7434	451.172	85.1542	451.172	85.2806	451.172	84.2688	451.172	84.6928	451.172	83.0605	451.172	84.0014	451.172	81.5057	451.172	83.2708	451.172	79.6558	451.172	82.6364	451.172	77.7758	451.172	82.2837	451.172	76.5061	451.172	82.3165	451.172	76.4229	451.172	82.621	451.172	77.1968	451.172	82.9344	451.172	78.1423	451.172	83.0214	451.172	78.9132	451.172	82.7614	451.172	79.4282	451.172	82.1627	451.172	79.7188	451.172	81.3674	451.172	79.8924	451.172	80.6218	451.172	80.1326
465.82	85.5878	465.82	85.5864	465.82	85.5119	465.82	85.4976	465.82	85.3553	465.82	85.293	465.82	85.1081	465.82	84.9282	465.82	84.758	465.82	84.3488	465.82	84.2934	465.82	83.5016	465.82	83.7082	465.82	82.3454	465.82	83.017	465.82	80.8716	465.82	82.2867	465.82	79.1523	465.82	81.6721	465.82	77.4456	465.82	81.379	465.82	76.2722	465.82	81.4845	465.82	76.065	465.82	81.8082	465.82	76.6122	465.82	82.0583	465.82	77.395	465.82	82.0313	465.82	78.1088	465.82	81.6718	465.82	78.6825	465.82	81.0552	465.82	79.1751	465.82	80.3453	465.82	79.7026
483.398	84.8916	483.398	84.8932	483.398	84.8446	483.398	84.8534	483.398	84.7312	483.398	84.7463	483.398	84.5286	483.398	84.5163	483.398	84.2209	483.398	84.0914	483.398	83.7997	483.398	83.3999	483.398	83.2618	483.398	82.3837	483.398	82.615	483.398	81.0124	483.398	81.9032	483.398	79.3178	483.398	81.2523	483.398	77.4893	483.398	80.8829	483.398	76.0251	483.398	80.9608	483.398	75.5567	483.398	81.374	483.398	76.075	483.398	81.8	483.398	76.983	483.398	81.9669	483.398	77.8579	483.398	81.7676	483.398	78.5845	483.398	81.2464	483.398	79.213	483.398	80.5516	483.398	79.8497
499.512	84.5346	499.512	84.5309	499.512	84.5011	499.512	84.5127	499.512	84.3899	499.512	84.4618	499.512	84.1676	499.512	84.3157	499.512	83.8212	499.512	83.988	499.512	83.3585	499.512	83.3928	499.512	82.8001	499.512	82.4604	499.512	82.1694	499.512	81.1474	499.512	81.4949	499.512	79.4572	499.512	80.8446	499.512	77.5139	499.512	80.3809	499.512	75.7351	499.512	80.3226	499.512	74.8717	499.512	80.7095	499.512	75.2335	499.512	81.2734	499.512	76.2406	499.512	81.6711	499.512	77.3215	499.512	81.7076	499.512	78.2844	499.512	81.3609	499.512	79.143	499.512	80.7295	499.512	79.9576
517.09	83.5947	517.09	83.6246	517.09	83.6286	517.09	83.7813	517.09	83.6272	517.09	84.0294	517.09	83.519	517.09	84.2448	517.09	83.2824	517.09	84.281	517.09	82.9359	517.09	84.0188	517.09	82.5102	517.09	83.3767	517.09	82.0163	517.09	82.2996	517.09	81.431	517.09	80.7457	517.09	80.7293	517.09	78.6869	517.09	79.9866	517.09	76.169	517.09	79.4953	517.09	73.6075	517.09	79.6108	517.09	72.3315	517.09	80.2425	517.09	73.1926	517.09	80.8924	517.09	74.9357	517.09	81.1761	517.09	76.6172	517.09	80.9691	517.09	78.0707	517.09	80.3115	517.09	79.3123
536.133	82.6338	536.133	81.7987	536.133	83.3511	536.133	81.3075	536.133	83.741	536.133	81.5949	536.133	83.7628	536.133	82.4994	536.133	83.4598	536.133	83.4863	536.133	82.9329	536.133	84.1913	536.133	82.3293	536.133	84.4738	536.133	81.7896	536.133	84.3002	536.133	81.3409	536.133	83.675	536.133	80.8493	536.133	82.6208	536.133	80.1408	536.133	81.1991	536.133	79.2596	536.133	79.6	536.133	78.782	536.133	78.3182	536.133	79.4257	536.133	78.0604	536.133	80.7908	536.133	78.9053	536.133	81.9939	536.133	80.1944	536.133	82.6499	536.133	81.394	536.133	82.7202	536.133	82.2726
555.176	85.267	555.176	84.3085	555.176	85.8597	555.176	83.0819	555.176	86.0707	555.176	81.8626	555.176	85.9137	555.176	81.1116	555.176	85.4141	555.176	81.1003	555.176	84.6124	555.176	81.5598	555.176	83.5888	555.176	82.0459	555.176	82.5057	555.176	82.3026	555.176	81.6151	555.176	82.2466	555.176	81.1032	555.176	81.8797	555.176	80.8608	555.176	81.2596	555.176	80.5642	555.176	80.5339	555.176	79.99	555.176	79.9967	555.176	79.2647	555.176	79.9911	555.176	78.9706	555.176	80.5515	555.176	79.5789	555.176	81.3141	555.176	80.6704	555.176	81.8759	555.176	81.579	555.176	81.9961
574.219	84.9925	574.219	84.0601	574.219	85.5335	574.219	82.8114	574.219	85.6903	574.219	81.5178	574.219	85.4963	574.219	80.6813	574.219	84.993	574.219	80.5994	574.219	84.2327	574.219	80.9369	574.219	83.2921	574.219	81.1847	574.219	82.2881	574.219	81.0787	574.219	81.3681	574.219	80.5658	574.219	80.6501	574.219	79.7151	574.219	80.168	574.219	78.7087	574.219	79.9083	574.219	77.8802	574.219	79.8438	574.219	77.634	574.219	79.8617	574.219	78.0838	574.219	79.7756	574.219	78.8805	574.219	79.5325	574.219	79.572	574.219	79.3551	574.219	79.8891	574.219	79.4902	574.219	79.7921
594.727	88.1273	594.727	87.3956	594.727	88.4211	594.727	86.1909	594.727	88.3318	594.727	84.5734	594.727	87.9101	594.727	82.889	594.727	87.1996	594.727	81.8998	594.727	86.2478	594.727	82.0099	594.727	85.1363	594.727	82.5838	594.727	84.0207	594.727	82.9313	594.727	83.1152	594.727	82.7872	594.727	82.531	594.727	82.1154	594.727	82.1422	594.727	80.9937	594.727	81.7906	594.727	79.6751	594.727	81.5972	594.727	78.7212	594.727	81.8267	594.727	78.7007	594.727	82.3327	594.727	79.4176	594.727	82.6412	594.727	80.2473	594.727	82.5013	594.727	80.9002	594.727	82.0168	594.727	81.4481
615.234	90.3464	615.234	89.8259	615.234	90.4744	615.234	88.8679	615.234	90.2576	615.234	87.4623	615.234	89.7378	615.234	85.7302	615.234	88.9503	615.234	84.1225	615.234	87.9265	615.234	83.3702	615.234	86.707	615.234	83.5711	615.234	85.3808	615.234	84.0044	615.234	84.1372	615.234	84.0981	615.234	83.205	615.234	83.6425	615.234	82.6049	615.234	82.6186	615.234	82.1219	615.234	81.1972	615.234	81.7242	615.234	79.9705	615.234	81.7882	615.234	79.8591	615.234	82.4891	615.234	80.8537	615.234	83.343	615.234	82.0789	615.234	83.8726	615.234	83.0432	615.234	83.9596	615.234	83.6668
637.207	89.2394	637.207	88.7985	637.207	89.3571	637.207	87.9945	637.207	89.2005	637.207	86.8267	637.207	88.8133	637.207	85.4013	637.207	88.2243	637.207	84.0402	637.207	87.446	637.207	83.2269	637.207	86.4954	637.207	83.108	637.207	85.4422	637.207	83.2732	637.207	84.4476	637.207	83.2679	637.207	83.6728	637.207	82.8685	637.207	83.0589	637.207	82.0179	637.207	82.3488	637.207	80.7883	637.207	81.4861	637.207	79.5168	637.207	80.9753	637.207	78.957	637.207	81.3463	637.207	79.5718	637.207	82.1473	637.207	80.7549	637.207	82.7007	637.207	81.8085	637.207	82.8051	637.207	82.4984
659.18	88.7763	659.18	88.434	659.18	88.7748	659.18	87.691	659.18	88.4891	659.18	86.5138	659.18	87.971	659.18	84.9529	659.18	87.2601	659.18	83.2824	659.18	86.3857	659.18	82.0969	659.18	85.3893	659.18	81.802	659.18	84.3745	659.18	81.9925	659.18	83.539	659.18	82.0593	659.18	83.0422	659.18	81.7236	659.18	82.7497	659.18	80.9658	659.18	82.2886	659.18	79.9351	659.18	81.4374	659.18	78.9852	659.18	80.5252	659.18	78.6423	659.18	80.3824	659.18	79.1418	659.18	81.0526	659.18	80.0995	659.18	81.7067	659.18	81.0191	659.18	81.9106	659.18	81.6545
682.617	87.95	682.617	87.6848	682.617	87.8865	682.617	87.0135	682.617	87.5612	682.617	85.8676	682.617	87.0194	682.617	84.2421	682.617	86.2748	682.617	82.3632	682.617	85.3112	682.617	80.9734	682.617	84.1206	682.617	80.849	682.617	82.8158	682.617	81.5149	682.617	81.7875	682.617	82.0585	682.617	81.4937	682.617	82.0724	682.617	81.7404	682.617	81.4688	682.617	81.8425	682.617	80.322	682.617	81.3861	682.617	79.0002	682.617	80.493	682.617	78.3522	682.617	79.8736	682.617	78.906	682.617	80.1308	682.617	79.9983	682.617	80.8266	682.617	80.8971	682.617	81.313	682.617	81.3487
707.52	87.0627	707.52	86.8835	707.52	86.9448	707.52	86.3262	707.52	86.6016	707.52	85.3141	707.52	86.0811	707.52	83.7958	707.52	85.3932	707.52	81.8234	707.52	84.5045	707.52	79.7968	707.52	83.3491	707.52	78.6903	707.52	81.8783	707.52	78.9653	707.52	80.2295	707.52	79.7128	707.52	79.034	707.52	80.1324	707.52	78.9784	707.52	79.9688	707.52	79.506	707.52	79.2232	707.52	79.7058	707.52	78.1445	707.52	79.4685	707.52	77.4509	707.52	79.3574	707.52	77.8833	707.52	79.7682	707.52	79.0289	707.52	80.355	707.52	80.0526	707.52	80.6926	707.52	80.614
732.422	85.8621	732.422	85.9445	732.422	85.5027	732.422	85.6438	732.422	84.9641	732.422	84.8513	732.422	84.3268	732.422	83.4675	732.422	83.6314	732.422	81.4643	732.422	82.8495	732.422	79.149	732.422	81.8844	732.422	77.6813	732.422	80.6536	732.422	77.9487	732.422	79.311	732.422	78.7992	732.422	78.484	732.422	79.1762	732.422	78.5905	732.422	78.8075	732.422	78.8828	732.422	77.7195	732.422	78.507	732.422	76.1978	732.422	77.452	732.422	75.0816	732.422	76.8491	732.422	75.289	732.422	77.5533	732.422	76.3941	732.422	78.4659	732.422	77.5372	732.422	78.7486	732.422	78.3766
757.324	85.5099	757.324	85.706	757.324	85.1763	757.324	85.693	757.324	84.7321	757.324	85.3342	757.324	84.1999	757.324	84.4419	757.324	83.6042	757.324	82.8002	757.324	82.9239	757.324	80.2259	757.324	82.0437	757.324	77.0957	757.324	80.7791	757.324	76.07	757.324	79.0477	757.324	77.8821	757.324	77.3858	757.324	79.4749	757.324	77.2066	757.324	80.0101	757.324	78.2757	757.324	79.5608	757.324	78.8983	757.324	78.4196	757.324	78.3823	757.324	77.3027	757.324	77.1133	757.324	77.2052	757.324	76.8259	757.324	78.0948	757.324	78.1215	757.324	79.0859	757.324	79.288	757.324	79.5851
785.156	86.2972	785.156	86.1556	785.156	86.2884	785.156	85.9113	785.156	86.1074	785.156	85.5777	785.156	85.7751	785.156	85.0817	785.156	85.322	785.156	84.2722	785.156	84.7354	785.156	82.977	785.156	83.9335	785.156	81.1017	785.156	82.7836	785.156	78.9092	785.156	81.1557	785.156	77.5504	785.156	79.0948	785.156	77.8929	785.156	77.3817	785.156	78.7015	785.156	77.3973	785.156	78.8863	785.156	78.3897	785.156	78.3062	785.156	78.7523	785.156	77.5713	785.156	78.1385	785.156	77.8689	785.156	77.6434	785.156	79.2402	785.156	78.754	785.156	80.5109	785.156	80.2966	785.156	80.9481
811.523	85.7571	811.523	85.66	811.523	85.5917	811.523	85.3321	811.523	85.1925	811.523	84.8211	811.523	84.6471	811.523	84.1268	811.523	84.0503	811.523	83.1759	811.523	83.428	811.523	81.8772	811.523	82.6967	811.523	80.2616	811.523	81.6914	811.523	78.7303	811.523	80.2473	811.523	78.075	811.523	78.3978	811.523	78.4267	811.523	76.8889	811.523	78.918	811.523	76.9215	811.523	78.8628	811.523	77.8057	811.523	78.1047	811.523	78.1341	811.523	77.0626	811.523	77.5187	811.523	76.775	811.523	76.5811	811.523	77.5669	811.523	76.7331	811.523	78.4308	811.523	77.8524	811.523	78.5864
840.82	85.8171	840.82	85.8039	840.82	85.5557	840.82	85.5202	840.82	85.073	840.82	84.9948	840.82	84.4759	840.82	84.2341	840.82	83.8714	840.82	83.2028	840.82	83.2952	840.82	81.8587	840.82	82.6828	840.82	80.2487	840.82	81.8992	840.82	78.6709	840.82	80.7805	840.82	77.7439	840.82	79.1753	840.82	77.8051	840.82	77.1269	840.82	78.306	840.82	75.5446	840.82	78.5125	840.82	75.853	840.82	78.0748	840.82	76.9102	840.82	77.1405	840.82	77.1622	840.82	76.5738	840.82	76.7267	840.82	77.1807	840.82	76.9422	840.82	78.2053	840.82	77.9971	840.82	78.5915
870.117	85.2626	870.117	85.2589	870.117	84.9557	870.117	84.9123	870.117	84.4272	870.117	84.2517	870.117	83.7871	870.117	83.3317	870.117	83.1123	870.117	82.1873	870.117	82.4069	870.117	80.8512	870.117	81.6155	870.117	79.4654	870.117	80.7067	870.117	78.345	870.117	79.7813	870.117	77.7517	870.117	79.0348	870.117	77.5762	870.117	78.4227	870.117	77.4847	870.117	77.5816	870.117	77.2437	870.117	76.433	870.117	76.8505	870.117	75.5038	870.117	76.576	870.117	74.8705	870.117	76.7702	870.117	74.0958	870.117	77.3342	870.117	74.2608	870.117	77.6979	870.117	75.9191	870.117	77.3046
900.879	85.4258	900.879	85.5688	900.879	84.9659	900.879	85.3531	900.879	84.3124	900.879	84.792	900.879	83.6392	900.879	83.8909	900.879	83.0715	900.879	82.5833	900.879	82.5794	900.879	80.7347	900.879	81.9809	900.879	78.3101	900.879	81.0502	900.879	76.0403	900.879	79.6475	900.879	75.8725	900.879	77.8789	900.879	77.3623	900.879	76.3074	900.879	78.4843	900.879	75.7576	900.879	78.552	900.879	76.3002	900.879	77.5153	900.879	76.997	900.879	75.8492	900.879	76.8427	900.879	75.1734	900.879	75.5936	900.879	76.3208	900.879	74.9602	900.879	77.5455	900.879	76.4228	900.879	77.6565
933.105	85.5391	933.105	85.5369	933.105	85.062	933.105	85.0434	933.105	84.236	933.105	84.1632	933.105	83.298	933.105	83.0864	933.105	82.486	933.105	81.9372	933.105	81.8535	933.105	80.5999	933.105	81.2179	933.105	78.7701	933.105	80.3469	933.105	76.1784	933.105	79.2165	933.105	73.2726	933.105	78.1625	933.105	73.0049	933.105	77.4964	933.105	75.4208	933.105	76.8773	933.105	77.2803	933.105	76.0972	933.105	77.9082	933.105	75.894	933.105	77.554	933.105	76.069	933.105	76.9052	933.105	75.317	933.105	76.8007	933.105	74.1662	933.105	77.0312	933.105	75.0451	933.105	76.5677
965.332	85.8081	965.332	85.7868	965.332	85.2916	965.332	85.2251	965.332	84.3712	965.332	84.2356	965.332	83.3003	965.332	83.0234	965.332	82.3507	965.332	81.7932	965.332	81.6379	965.332	80.5875	965.332	81.0134	965.332	79.2589	965.332	80.1654	965.332	77.6435	965.332	78.8182	965.332	75.8268	965.332	76.9834	965.332	74.5082	965.332	75.3474	965.332	74.4847	965.332	74.8316	965.332	75.0715	965.332	75.325	965.332	75.2506	965.332	76.3236	965.332	74.9538	965.332	76.9359	965.332	74.9192	965.332	76.3986	965.332	75.6429	965.332	75.3181	965.332	76.4118	965.332	75.5159	965.332	76.3701
1,000.49	86.0683	1,000.49	85.9349	1,000.49	85.6255	1,000.49	85.2312	1,000.49	84.6942	1,000.49	84.036	1,000.49	83.4766	1,000.49	82.5057	1,000.49	82.2574	1,000.49	80.8404	1,000.49	81.2848	1,000.49	79.1338	1,000.49	80.5974	1,000.49	77.3087	1,000.49	79.9695	1,000.49	75.459	1,000.49	79.138	1,000.49	74.3586	1,000.49	78.0857	1,000.49	74.6814	1,000.49	76.9534	1,000.49	75.6122	1,000.49	75.4827	1,000.49	76.2118	1,000.49	73.5019	1,000.49	76.2434	1,000.49	73.2431	1,000.49	75.9305	1,000.49	74.6799	1,000.49	75.7394	1,000.49	74.7995	1,000.49	75.91	1,000.49	73.9417	1,000.49	76.0563	1,000.49	74.3691	1,000.49	75.5638
1,035.64	85.902	1,035.64	85.8639	1,035.64	85.3231	1,035.64	85.1949	1,035.64	84.2848	1,035.64	84.0216	1,035.64	83.0586	1,035.64	82.5318	1,035.64	81.937	1,035.64	80.7705	1,035.64	81.0658	1,035.64	78.488	1,035.64	80.3217	1,035.64	75.3092	1,035.64	79.4501	1,035.64	71.6749	1,035.64	78.4444	1,035.64	71.274	1,035.64	77.7406	1,035.64	73.6828	1,035.64	77.3833	1,035.64	75.3672	1,035.64	76.4157	1,035.64	75.9021	1,035.64	74.3919	1,035.64	75.5755	1,035.64	73.5964	1,035.64	74.9178	1,035.64	74.618	1,035.64	74.6331	1,035.64	74.4338	1,035.64	74.9314	1,035.64	73.3685	1,035.64	75.2129	1,035.64	73.7267	1,035.64	74.8246
1,072.27	85.7111	1,072.27	85.6159	1,072.27	85.2385	1,072.27	84.8646	1,072.27	84.3782	1,072.27	83.4566	1,072.27	83.3218	1,072.27	81.5596	1,072.27	82.1785	1,072.27	79.7132	1,072.27	81.057	1,072.27	78.5427	1,072.27	80.0192	1,072.27	77.7605	1,072.27	78.792	1,072.27	76.4023	1,072.27	76.8803	1,072.27	73.4108	1,072.27	74.7974	1,072.27	67.2621	1,072.27	75.1865	1,072.27	66.7538	1,072.27	76.3735	1,072.27	72.0953	1,072.27	75.5913	1,072.27	74.0809	1,072.27	73.2744	1,072.27	74.4041	1,072.27	73.4536	1,072.27	74.5014	1,072.27	74.4486	1,072.27	75.1622	1,072.27	74.1696	1,072.27	75.9216	1,072.27	74.7605	1,072.27	75.8598
1,108.89	85.9567	1,108.89	85.9152	1,108.89	85.4153	1,108.89	85.1992	1,108.89	84.4308	1,108.89	83.772	1,108.89	83.1249	1,108.89	81.6885	1,108.89	81.6809	1,108.89	79.4266	1,108.89	80.5707	1,108.89	78.1177	1,108.89	80.0931	1,108.89	77.8178	1,108.89	79.5847	1,108.89	77.0762	1,108.89	77.9521	1,108.89	74.786	1,108.89	74.6534	1,108.89	70.4568	1,108.89	73.2326	1,108.89	67.6259	1,108.89	75.3841	1,108.89	69.319	1,108.89	75.5591	1,108.89	69.9813	1,108.89	74.349	1,108.89	70.6575	1,108.89	75.0744	1,108.89	73.006	1,108.89	75.2055	1,108.89	75.5487	1,108.89	73.6045	1,108.89	76.9532	1,108.89	74.573	1,108.89	76.6524
1,148.44	86.5555	1,148.44	86.6436	1,148.44	86.1439	1,148.44	86.3232	1,148.44	85.4119	1,148.44	85.4188	1,148.44	84.3252	1,148.44	83.7465	1,148.44	82.8904	1,148.44	81.3106	1,148.44	81.3891	1,148.44	78.961	1,148.44	80.4407	1,148.44	78.4046	1,148.44	80.0709	1,148.44	78.625	1,148.44	79.0639	1,148.44	77.4733	1,148.44	75.8378	1,148.44	73.9864	1,148.44	71.7322	1,148.44	70.1739	1,148.44	75.3286	1,148.44	71.6675	1,148.44	76.7623	1,148.44	72.4416	1,148.44	74.6629	1,148.44	71.4587	1,148.44	74.2992	1,148.44	71.7976	1,148.44	75.8713	1,148.44	74.4608	1,148.44	74.397	1,148.44	76.0826	1,148.44	73.0008	1,148.44	75.323
1,189.45	87.1571	1,189.45	86.9612	1,189.45	86.9109	1,189.45	86.4171	1,189.45	86.1894	1,189.45	85.5664	1,189.45	85.0195	1,189.45	84.2886	1,189.45	83.48	1,189.45	82.3891	1,189.45	81.8106	1,189.45	80.0138	1,189.45	80.6711	1,189.45	78.5251	1,189.45	80.5622	1,189.45	78.6878	1,189.45	80.3964	1,189.45	78.5036	1,189.45	78.5006	1,189.45	76.8353	1,189.45	73.5597	1,189.45	74.2609	1,189.45	71.4227	1,189.45	72.8568	1,189.45	74.7186	1,189.45	72.174	1,189.45	74.9617	1,189.45	70.5145	1,189.45	74.8552	1,189.45	69.6247	1,189.45	75.5562	1,189.45	72.1786	1,189.45	74.8266	1,189.45	74.5232	1,189.45	74.021	1,189.45	74.812
1,230.47	87.1865	1,230.47	86.8437	1,230.47	86.8835	1,230.47	86.0002	1,230.47	85.9883	1,230.47	84.9156	1,230.47	84.7043	1,230.47	83.6961	1,230.47	83.2221	1,230.47	82.021	1,230.47	81.6593	1,230.47	79.4889	1,230.47	80.3014	1,230.47	77.1256	1,230.47	79.6377	1,230.47	76.9778	1,230.47	79.3102	1,230.47	76.9857	1,230.47	77.8448	1,230.47	75.7147	1,230.47	73.8361	1,230.47	74.4404	1,230.47	70.9028	1,230.47	74.4036	1,230.47	74.3585	1,230.47	74.0444	1,230.47	74.9851	1,230.47	72.6122	1,230.47	74.1949	1,230.47	71.4791	1,230.47	75.412	1,230.47	72.9939	1,230.47	75.7314	1,230.47	74.4858	1,230.47	74.478	1,230.47	74.3145
1,274.41	87.1674	1,274.41	86.9619	1,274.41	86.6384	1,274.41	86.0357	1,274.41	85.5825	1,274.41	84.6566	1,274.41	84.2468	1,274.41	83.1119	1,274.41	82.8199	1,274.41	81.2375	1,274.41	81.4349	1,274.41	78.4676	1,274.41	80.1411	1,274.41	75.2884	1,274.41	79.2079	1,274.41	74.2075	1,274.41	78.9288	1,274.41	73.4837	1,274.41	78.3198	1,274.41	70.4754	1,274.41	75.909	1,274.41	70.2339	1,274.41	72.3311	1,274.41	73.5232	1,274.41	72.6155	1,274.41	74.086	1,274.41	71.4952	1,274.41	72.3841	1,274.41	70.6247	1,274.41	70.7184	1,274.41	74.45	1,274.41	72.7643	1,274.41	74.5456	1,274.41	74.3283	1,274.41	72.6894	1,274.41	73.5206
1,319.82	86.9944	1,319.82	86.9298	1,319.82	86.3868	1,319.82	86.0349	1,319.82	85.4271	1,319.82	84.4689	1,319.82	84.1553	1,319.82	82.555	1,319.82	82.3393	1,319.82	80.4804	1,319.82	80.0868	1,319.82	78.0149	1,319.82	78.0894	1,319.82	74.8344	1,319.82	77.434	1,319.82	73.7933	1,319.82	77.787	1,319.82	75.9016	1,319.82	76.8642	1,319.82	75.594	1,319.82	73.5725	1,319.82	70.8172	1,319.82	70.5284	1,319.82	69.1335	1,319.82	71.9206	1,319.82	72.7207	1,319.82	73.5412	1,319.82	72.6256	1,319.82	73.8161	1,319.82	69.6944	1,319.82	73.7185	1,319.82	70.1203	1,319.82	74.0563	1,319.82	73.0492	1,319.82	73.6273	1,319.82	73.6375
1,366.7	86.3722	1,366.7	86.5402	1,366.7	85.7632	1,366.7	85.9659	1,366.7	84.843	1,366.7	84.5398	1,366.7	83.5798	1,366.7	82.5366	1,366.7	82.082	1,366.7	80.1969	1,366.7	80.5497	1,366.7	77.2946	1,366.7	78.787	1,366.7	73.3877	1,366.7	77.2264	1,366.7	70.8151	1,366.7	77.021	1,366.7	73.0628	1,366.7	76.8471	1,366.7	73.5773	1,366.7	74.5659	1,366.7	70.5553	1,366.7	67.9741	1,366.7	68.875	1,366.7	70.9597	1,366.7	73.0158	1,366.7	73.76	1,366.7	74.3723	1,366.7	71.2118	1,366.7	72.4954	1,366.7	73.5865	1,366.7	70.2933	1,366.7	74.7965	1,366.7	72.5996	1,366.7	73.2471	1,366.7	73.3971
1,413.57	86.1071	1,413.57	86.3759	1,413.57	85.2258	1,413.57	85.6612	1,413.57	84.0847	1,413.57	84.0409	1,413.57	82.7444	1,413.57	82.0774	1,413.57	81.3112	1,413.57	79.9827	1,413.57	80.098	1,413.57	77.03	1,413.57	78.9079	1,413.57	72.4214	1,413.57	77.0253	1,413.57	64.1635	1,413.57	75.7307	1,413.57	58.1266	1,413.57	76.019	1,413.57	66.3701	1,413.57	75.0992	1,413.57	65.6889	1,413.57	70.478	1,413.57	62.7107	1,413.57	65.6659	1,413.57	68.5611	1,413.57	71.4184	1,413.57	73.1493	1,413.57	73.0337	1,413.57	73.2892	1,413.57	72.0145	1,413.57	71.0028	1,413.57	73.3862	1,413.57	71.125	1,413.57	73.2049	1,413.57	70.57
1,463.38	86.5229	1,463.38	85.9982	1,463.38	85.9292	1,463.38	84.7368	1,463.38	84.1541	1,463.38	83.0845	1,463.38	81.5691	1,463.38	81.0707	1,463.38	79.3988	1,463.38	78.7935	1,463.38	78.7155	1,463.38	76.2818	1,463.38	78.4107	1,463.38	73.3851	1,463.38	77.0824	1,463.38	69.7642	1,463.38	75.371	1,463.38	62.5864	1,463.38	75.7627	1,463.38	61.0694	1,463.38	76.5804	1,463.38	61.0861	1,463.38	74.7776	1,463.38	43.276	1,463.38	65.2222	1,463.38	63.4245	1,463.38	67.8032	1,463.38	72.4353	1,463.38	71.977	1,463.38	73.4356	1,463.38	70.6696	1,463.38	69.6229	1,463.38	71.9675	1,463.38	67.8204	1,463.38	73.0687	1,463.38	70.1704
1,516.11	86.4541	1,516.11	86.0639	1,516.11	86.0187	1,516.11	84.6154	1,516.11	84.4639	1,516.11	82.1493	1,516.11	81.3046	1,516.11	79.7821	1,516.11	77.9532	1,516.11	78.4762	1,516.11	77.1116	1,516.11	76.6091	1,516.11	77.5677	1,516.11	73.559	1,516.11	77.3196	1,516.11	70.4451	1,516.11	75.7417	1,516.11	66.5743	1,516.11	74.1001	1,516.11	64.4466	1,516.11	75.2431	1,516.11	66.2103	1,516.11	75.8083	1,516.11	63.1837	1,516.11	71.4343	1,516.11	60.9631	1,516.11	66.9163	1,516.11	71.868	1,516.11	69.3595	1,516.11	72.5144	1,516.11	69.6069	1,516.11	68.7502	1,516.11	70.5378	1,516.11	68.7625	1,516.11	70.9887	1,516.11	70.8783
1,568.85	86.1482	1,568.85	85.7185	1,568.85	85.8972	1,568.85	84.5555	1,568.85	84.365	1,568.85	82.1852	1,568.85	81.3551	1,568.85	78.2534	1,568.85	78.689	1,568.85	74.9823	1,568.85	77.2699	1,568.85	74.57	1,568.85	76.1999	1,568.85	73.1619	1,568.85	75.6497	1,568.85	70.2086	1,568.85	75.4015	1,568.85	66.6294	1,568.85	74.3779	1,568.85	68.4882	1,568.85	73.4585	1,568.85	70.4073	1,568.85	74.8218	1,568.85	66.6952	1,568.85	72.1161	1,568.85	57.4372	1,568.85	68.0885	1,568.85	69.8365	1,568.85	70.6875	1,568.85	71.1451	1,568.85	68.3016	1,568.85	66.4977	1,568.85	70.8859	1,568.85	64.6541	1,568.85	70.5932	1,568.85	67.9193
1,624.51	85.8831	1,624.51	85.5477	1,624.51	85.5681	1,624.51	84.6008	1,624.51	83.9507	1,624.51	82.6141	1,624.51	80.9066	1,624.51	78.9596	1,624.51	77.9445	1,624.51	73.3266	1,624.51	76.6333	1,624.51	69.866	1,624.51	76.5165	1,624.51	68.6983	1,624.51	76.3333	1,624.51	67.4469	1,624.51	75.6847	1,624.51	63.4577	1,624.51	75.374	1,624.51	61.1582	1,624.51	74.7426	1,624.51	69.8344	1,624.51	75.1815	1,624.51	67.2695	1,624.51	73.9874	1,624.51	56.5223	1,624.51	60.1236	1,624.51	66.1298	1,624.51	70.9238	1,624.51	71.71	1,624.51	71.3842	1,624.51	68.722	1,624.51	70.8295	1,624.51	63.8709	1,624.51	71.7673	1,624.51	68.5676
1,681.64	86.4272	1,681.64	86.2361	1,681.64	85.7486	1,681.64	85.1908	1,681.64	83.5083	1,681.64	82.8039	1,681.64	79.7066	1,681.64	79.3532	1,681.64	77.7159	1,681.64	74.4046	1,681.64	77.8791	1,681.64	68.2738	1,681.64	77.5012	1,681.64	68.3383	1,681.64	77.3723	1,681.64	67.861	1,681.64	76.7867	1,681.64	70.6667	1,681.64	74.4879	1,681.64	68.094	1,681.64	72.2948	1,681.64	66.2869	1,681.64	75.3959	1,681.64	67.1995	1,681.64	75.7402	1,681.64	64.7886	1,681.64	68.0868	1,681.64	53.8701	1,681.64	65.9006	1,681.64	66.2759	1,681.64	68.0129	1,681.64	68.292	1,681.64	69.3133	1,681.64	68.4385	1,681.64	71.4709	1,681.64	71.1914
1,741.7	87.4378	1,741.7	86.6095	1,741.7	86.3208	1,741.7	84.437	1,741.7	83.2532	1,741.7	81.0872	1,741.7	79.7612	1,741.7	77.7602	1,741.7	78.6116	1,741.7	75.5498	1,741.7	78.4365	1,741.7	71.254	1,741.7	77.7171	1,741.7	68.6346	1,741.7	76.7646	1,741.7	68.1677	1,741.7	76.6092	1,741.7	65.4415	1,741.7	76.1086	1,741.7	65.8287	1,741.7	72.7698	1,741.7	65.4867	1,741.7	72.3977	1,741.7	66.2212	1,741.7	74.5623	1,741.7	66.3498	1,741.7	71.2173	1,741.7	65.329	1,741.7	68.3561	1,741.7	56.1474	1,741.7	61.7825	1,741.7	57.6078	1,741.7	67.1374	1,741.7	64.0705	1,741.7	69.8198	1,741.7	69.8576
1,803.22	87.1388	1,803.22	86.8039	1,803.22	86.0515	1,803.22	84.55	1,803.22	83.4571	1,803.22	80.528	1,803.22	79.3714	1,803.22	76.9936	1,803.22	78.482	1,803.22	74.7668	1,803.22	78.4241	1,803.22	68.9105	1,803.22	77.7632	1,803.22	65.0235	1,803.22	77.0833	1,803.22	65.4867	1,803.22	76.6206	1,803.22	63.7685	1,803.22	76.9779	1,803.22	59.6288	1,803.22	75.408	1,803.22	60.0261	1,803.22	71.0737	1,803.22	64.0767	1,803.22	73.611	1,803.22	64.8686	1,803.22	72.1335	1,803.22	68.0477	1,803.22	70.8075	1,803.22	64.9064	1,803.22	66.9971	1,803.22	60.8294	1,803.22	66.1336	1,803.22	61.2171	1,803.22	69.9774	1,803.22	68.8351
1,866.21	86.6157	1,866.21	86.0622	1,866.21	85.6984	1,866.21	84.3873	1,866.21	82.2661	1,866.21	80.2607	1,866.21	78.9197	1,866.21	74.2216	1,866.21	78.852	1,866.21	74.6361	1,866.21	78.8512	1,866.21	72.4608	1,866.21	78.4242	1,866.21	57.5238	1,866.21	77.2638	1,866.21	63.0897	1,866.21	76.6717	1,866.21	62.6082	1,866.21	76.7854	1,866.21	63.0058	1,866.21	75.4205	1,866.21	62.1796	1,866.21	72.889	1,866.21	54.5689	1,866.21	72.7101	1,866.21	66.687	1,866.21	72.7023	1,866.21	66.7406	1,866.21	70.8031	1,866.21	61.6414	1,866.21	67.8235	1,866.21	62.5131	1,866.21	64.8948	1,866.21	59.9241	1,866.21	70.0054	1,866.21	66.0335
1,932.13	86.3124	1,932.13	84.9566	1,932.13	85.3547	1,932.13	82.4454	1,932.13	81.9805	1,932.13	79.3927	1,932.13	78.5199	1,932.13	75.3933	1,932.13	79.5773	1,932.13	71.2857	1,932.13	80.9164	1,932.13	69.8848	1,932.13	79.9931	1,932.13	67.8434	1,932.13	77.3493	1,932.13	63.4239	1,932.13	75.6925	1,932.13	65.4408	1,932.13	76.5788	1,932.13	70.8148	1,932.13	74.5626	1,932.13	72.0745	1,932.13	71.4158	1,932.13	67.5354	1,932.13	74.3202	1,932.13	56.7941	1,932.13	73.0639	1,932.13	66.8808	1,932.13	71.6342	1,932.13	62.3757	1,932.13	66.809	1,932.13	60.9454	1,932.13	61.4371	1,932.13	63.1686	1,932.13	69.8552	1,932.13	69.7663
1,999.51	86.3268	1,999.51	85.0487	1,999.51	85.3841	1,999.51	82.1256	1,999.51	81.3748	1,999.51	77.7698	1,999.51	77.4512	1,999.51	73.5707	1,999.51	79.5413	1,999.51	70.4421	1,999.51	80.2202	1,999.51	65.8945	1,999.51	79.1101	1,999.51	69.2691	1,999.51	77.422	1,999.51	72.1658	1,999.51	75.2455	1,999.51	73.0519	1,999.51	75.8722	1,999.51	72.7482	1,999.51	75.9751	1,999.51	73.4047	1,999.51	69.7826	1,999.51	73.6527	1,999.51	72.6216	1,999.51	66.1431	1,999.51	74.2965	1,999.51	61.0282	1,999.51	73.2488	1,999.51	56.6382	1,999.51	70.965	1,999.51	60.6874	1,999.51	65.9451	1,999.51	59.4945	1,999.51	69.9579	1,999.51	69.6431
2,069.82	86.0593	2,069.82	84.7822	2,069.82	84.9252	2,069.82	81.7253	2,069.82	81.3261	2,069.82	77.6251	2,069.82	77.3143	2,069.82	73.149	2,069.82	80.1373	2,069.82	71.2934	2,069.82	81.0721	2,069.82	70.0067	2,069.82	80.2887	2,069.82	71.5884	2,069.82	79.0339	2,069.82	73.7788	2,069.82	76.8337	2,069.82	74.2305	2,069.82	76.3503	2,069.82	73.9901	2,069.82	77.3922	2,069.82	73.991	2,069.82	74.5829	2,069.82	74.2165	2,069.82	69.4897	2,069.82	69.374	2,069.82	73.4949	2,069.82	59.0825	2,069.82	72.6354	2,069.82	61.8933	2,069.82	72.8537	2,069.82	63.3132	2,069.82	68.7071	2,069.82	60.4606	2,069.82	70.2172	2,069.82	66.953
2,143.07	86.297	2,143.07	84.6612	2,143.07	85.283	2,143.07	80.9519	2,143.07	80.5051	2,143.07	74.3049	2,143.07	76.887	2,143.07	70.2755	2,143.07	80.098	2,143.07	71.245	2,143.07	81.2087	2,143.07	72.5024	2,143.07	80.8819	2,143.07	73.5969	2,143.07	79.1179	2,143.07	73.2798	2,143.07	76.4485	2,143.07	74.2087	2,143.07	74.9883	2,143.07	72.4886	2,143.07	76.9521	2,143.07	65.9539	2,143.07	75.1286	2,143.07	70.2207	2,143.07	73.5511	2,143.07	68.3482	2,143.07	68.7589	2,143.07	65.396	2,143.07	74.5603	2,143.07	65.218	2,143.07	66.1775	2,143.07	54.161	2,143.07	65.7576	2,143.07	65.2707	2,143.07	68.1552	2,143.07	69.701
2,219.24	86.6867	2,219.24	85.2463	2,219.24	85.4314	2,219.24	81.2319	2,219.24	80.2974	2,219.24	72.6435	2,219.24	74.8673	2,219.24	64.3783	2,219.24	79.2709	2,219.24	72.7241	2,219.24	80.9517	2,219.24	74.7961	2,219.24	80.2512	2,219.24	76.3421	2,219.24	76.682	2,219.24	74.4078	2,219.24	76.0511	2,219.24	68.0203	2,219.24	74.6774	2,219.24	68.8116	2,219.24	71.1733	2,219.24	69.192	2,219.24	75.448	2,219.24	62.6876	2,219.24	73.6672	2,219.24	63.7837	2,219.24	72.6575	2,219.24	69.2047	2,219.24	68.7918	2,219.24	67.4528	2,219.24	72.762	2,219.24	50.4389	2,219.24	66.2287	2,219.24	63.6319	2,219.24	68.347	2,219.24	67.3008
2,296.88	86.3685	2,296.88	85.2709	2,296.88	85.0437	2,296.88	80.3904	2,296.88	79.9802	2,296.88	66.5371	2,296.88	76.7425	2,296.88	68.3567	2,296.88	81.3928	2,296.88	75.865	2,296.88	82.0574	2,296.88	77.8253	2,296.88	80.7479	2,296.88	76.1547	2,296.88	77.3486	2,296.88	74.8672	2,296.88	74.5604	2,296.88	73.0137	2,296.88	75.9995	2,296.88	70.8162	2,296.88	68.1863	2,296.88	73.6037	2,296.88	73.4547	2,296.88	72.0967	2,296.88	75.2833	2,296.88	65.6816	2,296.88	71.4705	2,296.88	69.9693	2,296.88	65.5546	2,296.88	67.3424	2,296.88	69.9396	2,296.88	56.1241	2,296.88	64.8353	2,296.88	59.2962	2,296.88	66.4544	2,296.88	65.7961
2,378.91	86.0031	2,378.91	84.1616	2,378.91	84.0854	2,378.91	79.5375	2,378.91	77.3627	2,378.91	71.9117	2,378.91	74.7825	2,378.91	69.2339	2,378.91	81.5895	2,378.91	75.5598	2,378.91	82.9434	2,378.91	75.9821	2,378.91	81.4191	2,378.91	75.2994	2,378.91	79.694	2,378.91	75.1256	2,378.91	76.8564	2,378.91	74.6846	2,378.91	75.0538	2,378.91	73.5254	2,378.91	73.2859	2,378.91	73.5973	2,378.91	65.1929	2,378.91	71.559	2,378.91	73.0303	2,378.91	68.1373	2,378.91	70.9094	2,378.91	68.7725	2,378.91	67.6796	2,378.91	68.3485	2,378.91	60.8669	2,378.91	61.1663	2,378.91	53.6218	2,378.91	64.4226	2,378.91	66.321	2,378.91	62.6106
2,462.4	85.9108	2,462.4	84.632	2,462.4	84.3229	2,462.4	80.3749	2,462.4	77.7522	2,462.4	67.2851	2,462.4	72.2835	2,462.4	72.2409	2,462.4	80.5431	2,462.4	75.7418	2,462.4	82.4941	2,462.4	75.3703	2,462.4	81.4542	2,462.4	75.7678	2,462.4	78.2897	2,462.4	75.2614	2,462.4	75.3307	2,462.4	74.533	2,462.4	75.2408	2,462.4	72.3594	2,462.4	73.621	2,462.4	71.1418	2,462.4	68.1324	2,462.4	69.5893	2,462.4	70.8196	2,462.4	65.4925	2,462.4	71.5307	2,462.4	67.2553	2,462.4	68.9912	2,462.4	66.6545	2,462.4	60.1866	2,462.4	62.8477	2,462.4	52.885	2,462.4	66.3078	2,462.4	65.7385	2,462.4	67.4444
2,548.83	84.7352	2,548.83	84.4314	2,548.83	82.3141	2,548.83	79.6514	2,548.83	75.0856	2,548.83	65.3402	2,548.83	69.3569	2,548.83	72.9713	2,548.83	79.5998	2,548.83	76.2194	2,548.83	81.4805	2,548.83	78.064	2,548.83	80.8223	2,548.83	76.7254	2,548.83	78.1485	2,548.83	74.7139	2,548.83	74.0867	2,548.83	74.3984	2,548.83	73.1569	2,548.83	73.3729	2,548.83	71.9206	2,548.83	71.4018	2,548.83	67.6996	2,548.83	69.5669	2,548.83	70.182	2,548.83	66.7143	2,548.83	70.2397	2,548.83	67.001	2,548.83	69.5565	2,548.83	66.8436	2,548.83	59.7379	2,548.83	61.7102	2,548.83	53.9873	2,548.83	67.058	2,548.83	67.2039	2,548.83	67.5791
2,639.65	85.0894	2,639.65	84.474	2,639.65	81.3622	2,639.65	79.3761	2,639.65	70.895	2,639.65	68.4395	2,639.65	72.0242	2,639.65	74.6962	2,639.65	79.175	2,639.65	78.5689	2,639.65	81.27	2,639.65	78.757	2,639.65	80.706	2,639.65	77.5535	2,639.65	78.2959	2,639.65	75.9388	2,639.65	75.4795	2,639.65	74.1831	2,639.65	73.6345	2,639.65	72.0298	2,639.65	71.1882	2,639.65	70.5305	2,639.65	65.3784	2,639.65	68.8544	2,639.65	67.8671	2,639.65	67.2514	2,639.65	68.8507	2,639.65	66.1227	2,639.65	68.592	2,639.65	67.5521	2,639.65	42.9568	2,639.65	62.9481	2,639.65	48.4972	2,639.65	66.6978	2,639.65	65.2209	2,639.65	65.5185
2,731.93	84.8541	2,731.93	84.6786	2,731.93	81.3945	2,731.93	79.9745	2,731.93	69.6073	2,731.93	68.1456	2,731.93	74.9026	2,731.93	77.7456	2,731.93	79.5991	2,731.93	79.1304	2,731.93	80.49	2,731.93	78.5712	2,731.93	79.9048	2,731.93	77.378	2,731.93	77.2252	2,731.93	75.5266	2,731.93	74.2283	2,731.93	74.1444	2,731.93	70.7413	2,731.93	72.7617	2,731.93	69.5195	2,731.93	72.6341	2,731.93	68.1776	2,731.93	70.2088	2,731.93	67.6945	2,731.93	67.969	2,731.93	68.0984	2,731.93	68.5295	2,731.93	66.5595	2,731.93	67.8382	2,731.93	49.9731	2,731.93	64.3926	2,731.93	53.924	2,731.93	67.3768	2,731.93	63.0809	2,731.93	67.5773
2,828.61	84.2893	2,828.61	84.0378	2,828.61	80.2042	2,828.61	78.69	2,828.61	69.6834	2,828.61	71.7072	2,828.61	75.4546	2,828.61	79.8867	2,828.61	80.1034	2,828.61	80.99	2,828.61	80.7838	2,828.61	79.787	2,828.61	79.0257	2,828.61	78.0687	2,828.61	75.9757	2,828.61	75.8793	2,828.61	74.8508	2,828.61	74.569	2,828.61	72.3837	2,828.61	73.7113	2,828.61	63.7866	2,828.61	72.5684	2,828.61	66.6729	2,828.61	69.9588	2,828.61	66.9598	2,828.61	66.5993	2,828.61	67.8011	2,828.61	67.6693	2,828.61	64.8474	2,828.61	68.1174	2,828.61	56.2408	2,828.61	65.4749	2,828.61	38.8898	2,828.61	66.8872	2,828.61	62.0139	2,828.61	66.1927
2,928.22	84.9975	2,928.22	84.6224	2,928.22	80.196	2,928.22	77.3836	2,928.22	67.881	2,928.22	74.1586	2,928.22	77.5126	2,928.22	80.6819	2,928.22	80.6063	2,928.22	81.2934	2,928.22	81.1217	2,928.22	79.9052	2,928.22	80.1442	2,928.22	78.7793	2,928.22	76.8536	2,928.22	76.3192	2,928.22	74.5412	2,928.22	73.732	2,928.22	72.6566	2,928.22	71.3175	2,928.22	60.2094	2,928.22	70.6412	2,928.22	62.2324	2,928.22	70.038	2,928.22	67.1256	2,928.22	65.5251	2,928.22	66.9444	2,928.22	67.4079	2,928.22	64.1401	2,928.22	68.6839	2,928.22	60.5661	2,928.22	66.4906	2,928.22	54.5004	2,928.22	66.845	2,928.22	61.7557	2,928.22	69.6658
3,030.76	85.1535	3,030.76	84.6175	3,030.76	80.0977	3,030.76	76.6044	3,030.76	68.8724	3,030.76	77.4414	3,030.76	78.9248	3,030.76	81.4269	3,030.76	81.1065	3,030.76	81.7952	3,030.76	81.2021	3,030.76	80.3605	3,030.76	80.3571	3,030.76	78.401	3,030.76	77.7642	3,030.76	75.0842	3,030.76	73.9209	3,030.76	72.9479	3,030.76	68.0272	3,030.76	73.0414	3,030.76	65.4172	3,030.76	71.6714	3,030.76	69.8809	3,030.76	71.0961	3,030.76	68.7222	3,030.76	66.9512	3,030.76	68.5761	3,030.76	67.177	3,030.76	63.0401	3,030.76	67.5239	3,030.76	59.2393	3,030.76	66.5475	3,030.76	43.2875	3,030.76	64.7506	3,030.76	62.0649	3,030.76	66.608
3,137.7	85.3351	3,137.7	84.1255	3,137.7	80.6841	3,137.7	76.1312	3,137.7	69.19	3,137.7	79.3748	3,137.7	80.3913	3,137.7	81.873	3,137.7	81.7757	3,137.7	82.3875	3,137.7	81.3026	3,137.7	80.4076	3,137.7	80.8992	3,137.7	77.104	3,137.7	78.1218	3,137.7	76.2845	3,137.7	74.6072	3,137.7	74.9178	3,137.7	68.9475	3,137.7	72.9299	3,137.7	58.7321	3,137.7	70.0249	3,137.7	70.8442	3,137.7	69.9001	3,137.7	69.6013	3,137.7	64.6792	3,137.7	67.9014	3,137.7	65.4062	3,137.7	61.9681	3,137.7	67.183	3,137.7	60.8953	3,137.7	66.1984	3,137.7	49.3844	3,137.7	61.2369	3,137.7	61.6515	3,137.7	64.1849
3,249.02	85.934	3,249.02	83.7169	3,249.02	81.7712	3,249.02	75.7917	3,249.02	70.2277	3,249.02	80.2059	3,249.02	82.1608	3,249.02	82.745	3,249.02	82.2923	3,249.02	81.8818	3,249.02	80.697	3,249.02	79.6818	3,249.02	81.1009	3,249.02	77.864	3,249.02	78.4843	3,249.02	74.2094	3,249.02	73.6687	3,249.02	68.9843	3,249.02	72.7881	3,249.02	70.4049	3,249.02	49.6075	3,249.02	68.453	3,249.02	71.9573	3,249.02	69.4125	3,249.02	70.1538	3,249.02	66.8889	3,249.02	68.3403	3,249.02	64.8219	3,249.02	63.3472	3,249.02	66.3718	3,249.02	59.9868	3,249.02	66.1566	3,249.02	57.8088	3,249.02	64.5584	3,249.02	60.4066	3,249.02	64.8911
3,363.28	86.4246	3,363.28	83.0387	3,363.28	83.1668	3,363.28	75.8033	3,363.28	66.7022	3,363.28	80.8867	3,363.28	82.8489	3,363.28	83.4917	3,363.28	82.7436	3,363.28	81.3709	3,363.28	79.5035	3,363.28	78.5305	3,363.28	80.8198	3,363.28	75.728	3,363.28	80.2906	3,363.28	72.989	3,363.28	76.2544	3,363.28	74.7598	3,363.28	75.9545	3,363.28	73.2925	3,363.28	68.5379	3,363.28	69.9516	3,363.28	73.0712	3,363.28	69.018	3,363.28	67.9075	3,363.28	67.6129	3,363.28	70.1089	3,363.28	62.9249	3,363.28	60.0674	3,363.28	66.8424	3,363.28	60.9937	3,363.28	66.9183	3,363.28	56.7165	3,363.28	63.5662	3,363.28	57.9645	3,363.28	64.9758
3,481.93	86.3218	3,481.93	82.4765	3,481.93	84.3999	3,481.93	76.8376	3,481.93	68.7611	3,481.93	82.2378	3,481.93	82.8513	3,481.93	83.521	3,481.93	82.8056	3,481.93	80.8417	3,481.93	79.7643	3,481.93	79.2538	3,481.93	81.3301	3,481.93	77.5291	3,481.93	80.8643	3,481.93	78.0971	3,481.93	79.3658	3,481.93	75.0175	3,481.93	77.5731	3,481.93	71.5499	3,481.93	73.9663	3,481.93	72.7014	3,481.93	72.862	3,481.93	68.0482	3,481.93	63.9523	3,481.93	68.1775	3,481.93	68.8823	3,481.93	63.8376	3,481.93	59.0028	3,481.93	67.7778	3,481.93	58.4267	3,481.93	67.0492	3,481.93	56.9184	3,481.93	65.5029	3,481.93	58.3131	3,481.93	65.0756
3,604.98	85.9287	3,604.98	81.6957	3,604.98	84.5379	3,604.98	79.4655	3,604.98	75.2653	3,604.98	83.0074	3,604.98	84.3546	3,604.98	82.8598	3,604.98	83.7772	3,604.98	81.7392	3,604.98	78.0641	3,604.98	79.9461	3,604.98	81.7767	3,604.98	80.1045	3,604.98	81.0093	3,604.98	75.9505	3,604.98	80.6671	3,604.98	72.851	3,604.98	78.4086	3,604.98	74.2584	3,604.98	72.012	3,604.98	72.6493	3,604.98	73.883	3,604.98	71.5639	3,604.98	65.6812	3,604.98	69.5989	3,604.98	65.9569	3,604.98	65.3803	3,604.98	58.7024	3,604.98	68.6758	3,604.98	60.297	3,604.98	68.0702	3,604.98	55.7281	3,604.98	68.1597	3,604.98	56.3825	3,604.98	65.1694
3,732.42	85.2828	3,732.42	81.6346	3,732.42	84.4058	3,732.42	80.1983	3,732.42	77.1273	3,732.42	83.8719	3,732.42	85.0563	3,732.42	83.3978	3,732.42	84.4512	3,732.42	82.0088	3,732.42	77.6456	3,732.42	82.3422	3,732.42	81.9262	3,732.42	78.7057	3,732.42	81.7568	3,732.42	76.8536	3,732.42	80.5833	3,732.42	75.8825	3,732.42	78.4846	3,732.42	73.1533	3,732.42	72.4282	3,732.42	71.595	3,732.42	72.5279	3,732.42	70.3174	3,732.42	69.4895	3,732.42	69.4005	3,732.42	52.5581	3,732.42	64.9635	3,732.42	53.701	3,732.42	67.8813	3,732.42	60.9395	3,732.42	67.7438	3,732.42	56.3127	3,732.42	66.0761	3,732.42	57.5815	3,732.42	64.7638
3,864.26	86.139	3,864.26	81.7979	3,864.26	84.9906	3,864.26	80.8566	3,864.26	77.3279	3,864.26	84.4465	3,864.26	85.6309	3,864.26	83.8274	3,864.26	85.3061	3,864.26	83.5979	3,864.26	76.7475	3,864.26	81.707	3,864.26	81.8976	3,864.26	80.171	3,864.26	82.5657	3,864.26	78.3521	3,864.26	80.7158	3,864.26	73.8497	3,864.26	76.8445	3,864.26	71.5851	3,864.26	68.9023	3,864.26	72.1798	3,864.26	72.1542	3,864.26	70.1524	3,864.26	71.7697	3,864.26	70.0762	3,864.26	63.8027	3,864.26	65.7215	3,864.26	49.016	3,864.26	66.4857	3,864.26	62.2879	3,864.26	67.4185	3,864.26	56.9958	3,864.26	66.3875	3,864.26	50.5714	3,864.26	64.6721
4,000.49	85.8962	4,000.49	81.9321	4,000.49	85.1392	4,000.49	81.6206	4,000.49	79.4311	4,000.49	84.0314	4,000.49	85.0622	4,000.49	84.5794	4,000.49	85.5263	4,000.49	83.315	4,000.49	78.7685	4,000.49	81.4194	4,000.49	81.821	4,000.49	79.6652	4,000.49	82.181	4,000.49	74.0538	4,000.49	80.4688	4,000.49	74.0711	4,000.49	77.6381	4,000.49	71.6528	4,000.49	57.361	4,000.49	69.9287	4,000.49	70.7559	4,000.49	69.673	4,000.49	71.4639	4,000.49	69.458	4,000.49	62.4626	4,000.49	67.415	4,000.49	53.572	4,000.49	66.274	4,000.49	60.7926	4,000.49	66.1489	4,000.49	60.0518	4,000.49	67.3843	4,000.49	51.8007	4,000.49	63.3557
4,141.11	86.2691	4,141.11	81.6777	4,141.11	86.1378	4,141.11	82.3584	4,141.11	80.8272	4,141.11	84.7461	4,141.11	85.4736	4,141.11	84.473	4,141.11	85.06	4,141.11	83.4712	4,141.11	79.8822	4,141.11	82.0523	4,141.11	80.3458	4,141.11	78.8564	4,141.11	81.7551	4,141.11	78.5288	4,141.11	80.804	4,141.11	76.3988	4,141.11	76.159	4,141.11	72.3714	4,141.11	64.9831	4,141.11	71.129	4,141.11	56.743	4,141.11	67.6365	4,141.11	67.7474	4,141.11	68.244	4,141.11	58.1682	4,141.11	67.4057	4,141.11	57.2703	4,141.11	66.6314	4,141.11	57.5647	4,141.11	66.1514	4,141.11	54.7217	4,141.11	65.4245	4,141.11	48.1738	4,141.11	63.8085
4,287.6	86.3313	4,287.6	81.4131	4,287.6	85.7981	4,287.6	82.5966	4,287.6	81.7189	4,287.6	85.4934	4,287.6	84.8799	4,287.6	84.1553	4,287.6	85.0378	4,287.6	83.009	4,287.6	81.1766	4,287.6	80.5282	4,287.6	80.9423	4,287.6	80.1602	4,287.6	81.8629	4,287.6	74.9428	4,287.6	79.9886	4,287.6	70.1013	4,287.6	72.7384	4,287.6	72.5342	4,287.6	68.133	4,287.6	70.0953	4,287.6	60.98	4,287.6	68.2721	4,287.6	67.8067	4,287.6	67.3877	4,287.6	62.0327	4,287.6	66.4893	4,287.6	51.4436	4,287.6	66.3942	4,287.6	51.9407	4,287.6	67.0312	4,287.6	58.1941	4,287.6	65.9627	4,287.6	42.5354	4,287.6	64.1108
4,438.48	86.2955	4,438.48	81.5498	4,438.48	86.2563	4,438.48	84.08	4,438.48	82.8485	4,438.48	85.1543	4,438.48	85.3458	4,438.48	84.2707	4,438.48	84.5907	4,438.48	82.7636	4,438.48	80.4959	4,438.48	82.1977	4,438.48	82.1586	4,438.48	78.1169	4,438.48	81.9355	4,438.48	77.9985	4,438.48	77.0249	4,438.48	76.6853	4,438.48	69.4835	4,438.48	72.0666	4,438.48	57.6836	4,438.48	71.7763	4,438.48	66.4468	4,438.48	68.6847	4,438.48	71.8285	4,438.48	65.9747	4,438.48	56.0983	4,438.48	66.8543	4,438.48	47.9501	4,438.48	65.2253	4,438.48	60.9243	4,438.48	66.7064	4,438.48	64.723	4,438.48	66.2187	4,438.48	51.2914	4,438.48	61.8205
4,595.21	85.962	4,595.21	81.9689	4,595.21	86.8195	4,595.21	84.9359	4,595.21	83.8994	4,595.21	85.6096	4,595.21	84.8276	4,595.21	84.0508	4,595.21	83.7618	4,595.21	82.7898	4,595.21	81.3589	4,595.21	81.1323	4,595.21	81.8854	4,595.21	80.3195	4,595.21	80.9801	4,595.21	75.7766	4,595.21	73.4098	4,595.21	72.7995	4,595.21	72.4862	4,595.21	71.4527	4,595.21	65.5502	4,595.21	71.5792	4,595.21	66.5703	4,595.21	69.6078	4,595.21	71.3458	4,595.21	67.2229	4,595.21	59.6653	4,595.21	64.2937	4,595.21	49.6519	4,595.21	65.1297	4,595.21	63.6568	4,595.21	67.2026	4,595.21	63.6462	4,595.21	65.7432	4,595.21	32.3661	4,595.21	66.607
4,756.35	86.2525	4,756.35	82.271	4,756.35	86.0633	4,756.35	85.2929	4,756.35	84.9197	4,756.35	85.7836	4,756.35	84.8466	4,756.35	83.6216	4,756.35	84.3279	4,756.35	82.5148	4,756.35	81.6827	4,756.35	82.478	4,756.35	80.5226	4,756.35	78.8579	4,756.35	81.1004	4,756.35	77.443	4,756.35	73.7571	4,756.35	76.3493	4,756.35	73.6977	4,756.35	70.4431	4,756.35	58.4323	4,756.35	71.6032	4,756.35	58.6915	4,756.35	69.786	4,756.35	70.3215	4,756.35	69.0788	4,756.35	58.78	4,756.35	67.7538	4,756.35	49.8535	4,756.35	64.8699	4,756.35	60.1947	4,756.35	67.7066	4,756.35	62.9081	4,756.35	63.5198	4,756.35	45.8003	4,756.35	62.9773
4,924.8	86.0079	4,924.8	83.1936	4,924.8	86.2795	4,924.8	85.7208	4,924.8	85.1475	4,924.8	85.685	4,924.8	85.7184	4,924.8	83.9472	4,924.8	83.7755	4,924.8	83.5222	4,924.8	80.7461	4,924.8	82.1734	4,924.8	78.647	4,924.8	79.3856	4,924.8	79.6856	4,924.8	76.3307	4,924.8	75.9787	4,924.8	72.1978	4,924.8	72.7364	4,924.8	72.6492	4,924.8	66.6986	4,924.8	69.5084	4,924.8	59.9553	4,924.8	67.5174	4,924.8	69.5614	4,924.8	67.063	4,924.8	64.2046	4,924.8	67.9047	4,924.8	38.4889	4,924.8	66.5219	4,924.8	61.1598	4,924.8	68.2946	4,924.8	63.3504	4,924.8	66.3959	4,924.8	44.9402	4,924.8	63.0902
5,097.66	86.2742	5,097.66	83.7699	5,097.66	86.3232	5,097.66	86.5816	5,097.66	84.9908	5,097.66	84.5577	5,097.66	85.6724	5,097.66	83.9227	5,097.66	84.0429	5,097.66	83.3676	5,097.66	81.6575	5,097.66	81.7793	5,097.66	76.4299	5,097.66	78.5623	5,097.66	78.3497	5,097.66	77.3928	5,097.66	75.628	5,097.66	74.8317	5,097.66	74.2615	5,097.66	71.8784	5,097.66	72.6549	5,097.66	71.2552	5,097.66	61.8005	5,097.66	68.7899	5,097.66	64.6744	5,097.66	66.8755	5,097.66	62.0549	5,097.66	67.0925	5,097.66	54.9573	5,097.66	63.5983	5,097.66	54.0691	5,097.66	69.1048	5,097.66	57.3263	5,097.66	68.045	5,097.66	49.3201	5,097.66	66.9499
5,277.83	86.3423	5,277.83	84.7867	5,277.83	86.4939	5,277.83	86.3252	5,277.83	85.4057	5,277.83	84.8797	5,277.83	85.5106	5,277.83	84.6873	5,277.83	84.5653	5,277.83	82.9989	5,277.83	83.8864	5,277.83	81.5162	5,277.83	76.8205	5,277.83	78.6813	5,277.83	77.3999	5,277.83	76.5916	5,277.83	76.3452	5,277.83	72.8576	5,277.83	75.7176	5,277.83	71.8576	5,277.83	72.0878	5,277.83	71.2424	5,277.83	64.3696	5,277.83	67.4618	5,277.83	67.737	5,277.83	68.4844	5,277.83	59.0834	5,277.83	65.1388	5,277.83	51.5138	5,277.83	65.6312	5,277.83	58.7962	5,277.83	66.6714	5,277.83	60.319	5,277.83	64.7061	5,277.83	42.6271	5,277.83	64.6763
5,463.87	86.3092	5,463.87	85.5775	5,463.87	86.0127	5,463.87	85.9455	5,463.87	85.7643	5,463.87	84.7704	5,463.87	85.159	5,463.87	84.8925	5,463.87	83.3484	5,463.87	82.3867	5,463.87	83.6156	5,463.87	82.1105	5,463.87	77.0674	5,463.87	78.1814	5,463.87	76.2565	5,463.87	78.2664	5,463.87	78.7219	5,463.87	73.6117	5,463.87	75.8011	5,463.87	71.8668	5,463.87	72.6681	5,463.87	70.4652	5,463.87	63.0412	5,463.87	68.0517	5,463.87	63.9059	5,463.87	68.4403	5,463.87	45.9671	5,463.87	65.8925	5,463.87	58.3877	5,463.87	67.1233	5,463.87	53.8623	5,463.87	67.4848	5,463.87	59.534	5,463.87	68.2133	5,463.87	45.7394	5,463.87	64.1592
5,657.23	86.9677	5,657.23	85.8156	5,657.23	86.2371	5,657.23	85.8853	5,657.23	85.3976	5,657.23	85.3898	5,657.23	85.3118	5,657.23	84.3462	5,657.23	82.9374	5,657.23	82.5989	5,657.23	83.9826	5,657.23	82.0034	5,657.23	78.0779	5,657.23	79.1152	5,657.23	75.7405	5,657.23	77.354	5,657.23	78.2796	5,657.23	73.0686	5,657.23	70.4148	5,657.23	72.6327	5,657.23	72.8938	5,657.23	69.1384	5,657.23	56.9255	5,657.23	66.5168	5,657.23	59.7353	5,657.23	68.3515	5,657.23	52.0389	5,657.23	65.2835	5,657.23	60.9509	5,657.23	65.4675	5,657.23	62.9955	5,657.23	66.4511	5,657.23	62.9355	5,657.23	66.3063	5,657.23	48.4708	5,657.23	63.3261
5,856.45	87.4562	5,856.45	86.1708	5,856.45	86.2983	5,856.45	86.0668	5,856.45	85.1371	5,856.45	85.0145	5,856.45	85.5141	5,856.45	83.6899	5,856.45	82.7627	5,856.45	83.1731	5,856.45	82.5502	5,856.45	81.5804	5,856.45	78.6856	5,856.45	79.7225	5,856.45	77.116	5,856.45	76.354	5,856.45	77.0254	5,856.45	72.0476	5,856.45	63.3997	5,856.45	71.1071	5,856.45	71.5004	5,856.45	69.0337	5,856.45	60.2894	5,856.45	66.7208	5,856.45	54.2907	5,856.45	65.7091	5,856.45	56.6666	5,856.45	62.9274	5,856.45	58.3059	5,856.45	65.0171	5,856.45	58.1284	5,856.45	68.0935	5,856.45	59.7975	5,856.45	66.4502	5,856.45	52.124	5,856.45	64.4158
6,062.99	87.4848	6,062.99	86.3265	6,062.99	86.9085	6,062.99	86.5025	6,062.99	84.516	6,062.99	84.2803	6,062.99	85.4701	6,062.99	83.9605	6,062.99	83.8028	6,062.99	83.3869	6,062.99	81.198	6,062.99	81.9605	6,062.99	79.3629	6,062.99	78.8711	6,062.99	77.7519	6,062.99	75.8242	6,062.99	75.2885	6,062.99	73.5066	6,062.99	71.6454	6,062.99	70.9904	6,062.99	68.741	6,062.99	68.9563	6,062.99	65.5312	6,062.99	66.8329	6,062.99	59.2254	6,062.99	65.1328	6,062.99	53.8778	6,062.99	61.0547	6,062.99	58.3927	6,062.99	63.8345	6,062.99	52.403	6,062.99	67.2867	6,062.99	60.3191	6,062.99	67.8399	6,062.99	51.7105	6,062.99	63.5742
6,276.86	87.5963	6,276.86	86.8497	6,276.86	87.22	6,276.86	86.1784	6,276.86	85.0764	6,276.86	84.2613	6,276.86	85.6725	6,276.86	84.3544	6,276.86	84.2703	6,276.86	82.8934	6,276.86	81.5726	6,276.86	81.9261	6,276.86	79.612	6,276.86	78.4322	6,276.86	77.2168	6,276.86	75.3911	6,276.86	72.9458	6,276.86	71.952	6,276.86	70.5475	6,276.86	70.4273	6,276.86	68.5535	6,276.86	68.7021	6,276.86	65.9719	6,276.86	65.9293	6,276.86	66.6229	6,276.86	66.1388	6,276.86	61.3899	6,276.86	62.3136	6,276.86	61.6766	6,276.86	62.9273	6,276.86	58.896	6,276.86	66.4383	6,276.86	60.1917	6,276.86	65.9909	6,276.86	48.736	6,276.86	61.3507
6,498.05	87.6582	6,498.05	87.177	6,498.05	87.155	6,498.05	85.6659	6,498.05	85.0941	6,498.05	84.2787	6,498.05	85.2206	6,498.05	84.0866	6,498.05	84.8751	6,498.05	82.8268	6,498.05	81.8751	6,498.05	81.7496	6,498.05	78.7984	6,498.05	78.0749	6,498.05	77.0674	6,498.05	75.3439	6,498.05	76.2457	6,498.05	70.8122	6,498.05	71.6926	6,498.05	68.4884	6,498.05	59.8962	6,498.05	67.1838	6,498.05	63.895	6,498.05	64.8722	6,498.05	67.5779	6,498.05	64.7344	6,498.05	63.178	6,498.05	57.6488	6,498.05	60.5194	6,498.05	61.173	6,498.05	56.878	6,498.05	66.5866	6,498.05	60.5649	6,498.05	66.3881	6,498.05	53.1832	6,498.05	61.3414
6,726.56	87.4348	6,726.56	87.1072	6,726.56	87.2148	6,726.56	85.7716	6,726.56	85.9338	6,726.56	84.3606	6,726.56	85.0788	6,726.56	83.5055	6,726.56	84.2102	6,726.56	82.7449	6,726.56	81.4741	6,726.56	81.2127	6,726.56	77.7054	6,726.56	77.0949	6,726.56	76.3051	6,726.56	73.9588	6,726.56	78.4152	6,726.56	70.5422	6,726.56	71.7638	6,726.56	68.1671	6,726.56	62.9481	6,726.56	64.8288	6,726.56	55.7698	6,726.56	64.1784	6,726.56	58.2031	6,726.56	62.5079	6,726.56	62.0911	6,726.56	59.9427	6,726.56	59.7509	6,726.56	56.4605	6,726.56	60.2609	6,726.56	64.1659	6,726.56	60.76	6,726.56	64.4601	6,726.56	55.0509	6,726.56	59.8243
6,963.87	87.4812	6,963.87	87.1005	6,963.87	87.025	6,963.87	85.6485	6,963.87	86.0209	6,963.87	84.3141	6,963.87	85.2317	6,963.87	83.3045	6,963.87	83.4954	6,963.87	82.5033	6,963.87	79.861	6,963.87	80.2183	6,963.87	76.9554	6,963.87	76.0552	6,963.87	77.1878	6,963.87	72.4097	6,963.87	78.2815	6,963.87	69.6664	6,963.87	72.6497	6,963.87	68.3096	6,963.87	62.7296	6,963.87	64.4095	6,963.87	54.071	6,963.87	63.6692	6,963.87	61.0658	6,963.87	61.8936	6,963.87	61.9932	6,963.87	59.6315	6,963.87	61.9031	6,963.87	54.9162	6,963.87	59.0105	6,963.87	63.6478	6,963.87	59.7869	6,963.87	64.2967	6,963.87	50.9378	6,963.87	59.7352
7,209.96	87.2184	7,209.96	87.0707	7,209.96	87.0084	7,209.96	85.6423	7,209.96	86.1827	7,209.96	84.2605	7,209.96	85.1863	7,209.96	83.3371	7,209.96	83.634	7,209.96	82.041	7,209.96	79.915	7,209.96	79.1626	7,209.96	78.0578	7,209.96	76.2197	7,209.96	78.0842	7,209.96	72.9594	7,209.96	77.4111	7,209.96	70.0167	7,209.96	71.1257	7,209.96	68.0112	7,209.96	64.5092	7,209.96	64.6022	7,209.96	54.4137	7,209.96	63.2571	7,209.96	54.0386	7,209.96	62.2575	7,209.96	61.0335	7,209.96	61.2427	7,209.96	55.2932	7,209.96	52.4232	7,209.96	48.4389	7,209.96	61.4755	7,209.96	56.0371	7,209.96	62.7841	7,209.96	54.0954	7,209.96	60.9285
7,464.84	87.0514	7,464.84	86.8499	7,464.84	86.6703	7,464.84	85.7607	7,464.84	86.2586	7,464.84	84.2827	7,464.84	84.9324	7,464.84	82.6371	7,464.84	84.0181	7,464.84	81.1679	7,464.84	82.4051	7,464.84	79.2508	7,464.84	79.9353	7,464.84	76.7994	7,464.84	78.0728	7,464.84	72.324	7,464.84	73.6646	7,464.84	69.6981	7,464.84	67.5479	7,464.84	65.9391	7,464.84	67.0275	7,464.84	63.8457	7,464.84	52.9321	7,464.84	62.3819	7,464.84	49.5586	7,464.84	61.4679	7,464.84	54.3995	7,464.84	60.1759	7,464.84	38.7565	7,464.84	47.1127	7,464.84	52.8992	7,464.84	62.6522	7,464.84	53.1735	7,464.84	63.7051	7,464.84	56.293	7,464.84	59.6191
7,727.05	86.8686	7,727.05	86.7042	7,727.05	86.4936	7,727.05	85.9657	7,727.05	86.0622	7,727.05	84.2402	7,727.05	84.5416	7,727.05	81.8322	7,727.05	82.9069	7,727.05	80.737	7,727.05	82.5354	7,727.05	79.146	7,727.05	80.3709	7,727.05	75.1136	7,727.05	76.0725	7,727.05	71.256	7,727.05	65.8021	7,727.05	68.4143	7,727.05	65.5065	7,727.05	65.4531	7,727.05	67.4778	7,727.05	63.3089	7,727.05	49.1226	7,727.05	61.2651	7,727.05	55.9	7,727.05	60.6346	7,727.05	53.1359	7,727.05	59.4622	7,727.05	49.7371	7,727.05	48.0334	7,727.05	47.1779	7,727.05	60.1195	7,727.05	53.1807	7,727.05	63.1137	7,727.05	57.255	7,727.05	56.7905
7,999.51	86.7682	7,999.51	86.7271	7,999.51	86.5398	7,999.51	86.1101	7,999.51	85.7177	7,999.51	83.7909	7,999.51	84.2986	7,999.51	81.9599	7,999.51	82.1117	7,999.51	80.5527	7,999.51	81.2349	7,999.51	77.8913	7,999.51	78.8336	7,999.51	75.1017	7,999.51	72.8748	7,999.51	70.9902	7,999.51	65.4864	7,999.51	67.7371	7,999.51	68.1323	7,999.51	65.0922	7,999.51	65.3337	7,999.51	63.5655	7,999.51	58.5522	7,999.51	61.6776	7,999.51	46.5463	7,999.51	61.0768	7,999.51	48.8501	7,999.51	58.8721	7,999.51	44.1275	7,999.51	51.7007	7,999.51	52.1313	7,999.51	60.3816	7,999.51	50.9366	7,999.51	63.8441	7,999.51	56.4006	7,999.51	57.8024
8,282.23	86.489	8,282.23	86.7963	8,282.23	86.6717	8,282.23	85.9251	8,282.23	85.7463	8,282.23	83.5984	8,282.23	84.0003	8,282.23	81.8914	8,282.23	82.3439	8,282.23	79.8993	8,282.23	80.8507	8,282.23	78.1741	8,282.23	77.2165	8,282.23	74.548	8,282.23	66.7502	8,282.23	70.4544	8,282.23	66.8643	8,282.23	66.8804	8,282.23	63.6173	8,282.23	64.6592	8,282.23	63.9088	8,282.23	62.7345	8,282.23	61.399	8,282.23	59.7452	8,282.23	53.4218	8,282.23	59.7999	8,282.23	56.3667	8,282.23	58.6923	8,282.23	41.2325	8,282.23	55.6093	8,282.23	46.9151	8,282.23	59.359	8,282.23	53.1742	8,282.23	63.1458	8,282.23	56.5204	8,282.23	55.8725
8,573.73	86.693	8,573.73	86.9233	8,573.73	86.5596	8,573.73	85.8416	8,573.73	85.6466	8,573.73	83.7215	8,573.73	83.5495	8,573.73	81.4813	8,573.73	81.7899	8,573.73	79.6412	8,573.73	80.1283	8,573.73	77.9727	8,573.73	75.3661	8,573.73	73.5431	8,573.73	68.1846	8,573.73	70.3299	8,573.73	71.437	8,573.73	66.1233	8,573.73	64.0895	8,573.73	63.8429	8,573.73	58.0857	8,573.73	61.5103	8,573.73	58.2139	8,573.73	59.546	8,573.73	56.1447	8,573.73	58.3509	8,573.73	55.6824	8,573.73	57.9963	8,573.73	44.5168	8,573.73	56.2965	8,573.73	44.8568	8,573.73	57.5376	8,573.73	53.2176	8,573.73	62.2353	8,573.73	55.262	8,573.73	56.7515
8,876.95	86.6763	8,876.95	86.809	8,876.95	86.6714	8,876.95	85.7345	8,876.95	85.42	8,876.95	83.6512	8,876.95	83.5078	8,876.95	81.2485	8,876.95	81.7883	8,876.95	79.3539	8,876.95	78.8319	8,876.95	77.0664	8,876.95	73.1947	8,876.95	73.038	8,876.95	72.9967	8,876.95	69.3363	8,876.95	72.035	8,876.95	65.6998	8,876.95	64.8308	8,876.95	62.4398	8,876.95	55.8401	8,876.95	61.0258	8,876.95	57.9667	8,876.95	60.7243	8,876.95	48.8441	8,876.95	57.6793	8,876.95	53.6613	8,876.95	57.2414	8,876.95	46.3553	8,876.95	57.3607	8,876.95	40.1866	8,876.95	54.8477	8,876.95	54.4444	8,876.95	60.7366	8,876.95	55.9673	8,876.95	54.5708
9,188.96	87.0745	9,188.96	86.9607	9,188.96	86.8472	9,188.96	85.5982	9,188.96	85.4196	9,188.96	83.5121	9,188.96	83.2425	9,188.96	80.8634	9,188.96	81.5859	9,188.96	78.787	9,188.96	78.7179	9,188.96	76.7909	9,188.96	74.3416	9,188.96	72.5137	9,188.96	74.2961	9,188.96	68.0809	9,188.96	71.2043	9,188.96	64.2953	9,188.96	64.6671	9,188.96	61.3259	9,188.96	56.4348	9,188.96	58.9316	9,188.96	57.0119	9,188.96	58.5733	9,188.96	46.6109	9,188.96	56.4135	9,188.96	49.3843	9,188.96	56.361	9,188.96	52.867	9,188.96	57.1604	9,188.96	43.4559	9,188.96	50.9308	9,188.96	47.3541	9,188.96	59.8536	9,188.96	53.3892	9,188.96	53.717
9,514.16	87.2294	9,514.16	86.9032	9,514.16	87.0555	9,514.16	85.5731	9,514.16	85.5588	9,514.16	83.1808	9,514.16	83.0714	9,514.16	80.4277	9,514.16	80.7534	9,514.16	79.2057	9,514.16	78.9211	9,514.16	75.7084	9,514.16	75.4745	9,514.16	70.6036	9,514.16	73.6241	9,514.16	66.2743	9,514.16	66.7322	9,514.16	63.3549	9,514.16	59.6262	9,514.16	60.2438	9,514.16	58.7562	9,514.16	57.508	9,514.16	51.5746	9,514.16	57.9068	9,514.16	49.031	9,514.16	56.6716	9,514.16	47.3917	9,514.16	55.7628	9,514.16	52.5959	9,514.16	57.3695	9,514.16	39.7008	9,514.16	43.9698	9,514.16	49.3188	9,514.16	57.7244	9,514.16	54.5764	9,514.16	51.7712
9,849.61	87.3051	9,849.61	86.8281	9,849.61	87.4391	9,849.61	85.5203	9,849.61	85.7909	9,849.61	82.543	9,849.61	83.2073	9,849.61	80.4513	9,849.61	80.6153	9,849.61	78.3336	9,849.61	78.5189	9,849.61	74.8494	9,849.61	76.1392	9,849.61	70.4213	9,849.61	71.3136	9,849.61	66.599	9,849.61	66.2445	9,849.61	63.5687	9,849.61	61.9254	9,849.61	60.7963	9,849.61	56.3798	9,849.61	57.8566	9,849.61	44.4458	9,849.61	56.8495	9,849.61	51.3273	9,849.61	57.4044	9,849.61	39.8672	9,849.61	55.5985	9,849.61	54.73	9,849.61	57.7905	9,849.61	40.2775	9,849.61	41.4564	9,849.61	41.1296	9,849.61	55.8773	9,849.61	51.8283	9,849.61	51.3793
10,196.8	87.1384	10,196.8	86.7589	10,196.8	87.3766	10,196.8	85.2088	10,196.8	85.9832	10,196.8	82.2466	10,196.8	83.4258	10,196.8	79.8699	10,196.8	80.6255	10,196.8	77.3054	10,196.8	78.589	10,196.8	74.6806	10,196.8	75.4858	10,196.8	70.57	10,196.8	69.9188	10,196.8	66.9722	10,196.8	69.453	10,196.8	62.7381	10,196.8	64.8344	10,196.8	60.3745	10,196.8	59.828	10,196.8	57.038	10,196.8	50.5018	10,196.8	56.6528	10,196.8	51.5921	10,196.8	57.0781	10,196.8	49.4217	10,196.8	54.4573	10,196.8	54.3634	10,196.8	57.2976	10,196.8	39.8204	10,196.8	44.5448	10,196.8	51.7886	10,196.8	55.9353	10,196.8	53.7352	10,196.8	50.4251
10,555.7	86.7471	10,555.7	86.3819	10,555.7	86.789	10,555.7	84.5606	10,555.7	85.9455	10,555.7	81.8433	10,555.7	83.4595	10,555.7	78.7213	10,555.7	80.6797	10,555.7	76.6398	10,555.7	77.6236	10,555.7	74.7369	10,555.7	75.0289	10,555.7	71.2408	10,555.7	70.0036	10,555.7	67.3804	10,555.7	68.9881	10,555.7	63.53	10,555.7	66.361	10,555.7	59.7833	10,555.7	54.153	10,555.7	57.3885	10,555.7	49.7109	10,555.7	56.5916	10,555.7	47.4352	10,555.7	55.6047	10,555.7	52.3013	10,555.7	53.9703	10,555.7	53.9637	10,555.7	57.3744	10,555.7	40.1621	10,555.7	37.4694	10,555.7	48.3621	10,555.7	54.9487	10,555.7	51.3064	10,555.7	49.1281
10,927.7	86.3919	10,927.7	85.7163	10,927.7	86.0296	10,927.7	83.8841	10,927.7	85.5451	10,927.7	81.4333	10,927.7	83.4578	10,927.7	77.4997	10,927.7	80.5627	10,927.7	76.7129	10,927.7	77.2322	10,927.7	74.7855	10,927.7	76.2014	10,927.7	72.6226	10,927.7	72.8298	10,927.7	68.2017	10,927.7	67.9307	10,927.7	64.8771	10,927.7	62.961	10,927.7	60.3368	10,927.7	56.5318	10,927.7	56.5202	10,927.7	46.3461	10,927.7	57.0731	10,927.7	50.4737	10,927.7	55.1978	10,927.7	48.1397	10,927.7	55.2667	10,927.7	51.0227	10,927.7	58.2263	10,927.7	40.4983	10,927.7	16.709	10,927.7	48.4676	10,927.7	54.3444	10,927.7	51.6271	10,927.7	50.1743
11,313	85.5778	11,313	84.9464	11,313	85.0775	11,313	83.3538	11,313	84.7676	11,313	81.2229	11,313	82.961	11,313	77.4101	11,313	80.3687	11,313	77.0211	11,313	78.3902	11,313	76.0842	11,313	77.1163	11,313	73.4355	11,313	73.4669	11,313	68.9473	11,313	68.3037	11,313	65.359	11,313	62.5872	11,313	61.3633	11,313	57.0317	11,313	58.2705	11,313	50.9339	11,313	57.8078	11,313	58.2568	11,313	55.646	11,313	48.5069	11,313	56.0961	11,313	52.8687	11,313	58.3983	11,313	20.0008	11,313	43.4794	11,313	52.0264	11,313	55.6742	11,313	52.3097	11,313	49.3003
11,712.9	85.5921	11,712.9	85.1858	11,712.9	84.8186	11,712.9	83.9824	11,712.9	84.293	11,712.9	82.1235	11,712.9	82.1046	11,712.9	78.5326	11,712.9	79.8167	11,712.9	77.8705	11,712.9	77.4616	11,712.9	76.4275	11,712.9	74.0981	11,712.9	72.8599	11,712.9	69.2504	11,712.9	68.7022	11,712.9	67.2813	11,712.9	64.7207	11,712.9	60.2157	11,712.9	60.5811	11,712.9	55.3026	11,712.9	57.8405	11,712.9	48.7149	11,712.9	57.2118	11,712.9	52.3419	11,712.9	56.0596	11,712.9	47.3858	11,712.9	55.172	11,712.9	51.7616	11,712.9	57.9241	11,712.9	48.3044	11,712.9	43.2376	11,712.9	53.6186	11,712.9	58.5152	11,712.9	53.375	11,712.9	53.5785
12,126	86.1466	12,126	86.1586	12,126	85.098	12,126	84.9007	12,126	83.5228	12,126	82.92	12,126	80.4593	12,126	79.474	12,126	77.2649	12,126	77.6701	12,126	73.8387	12,126	75.348	12,126	67.6081	12,126	71.7245	12,126	63.3683	12,126	67.9469	12,126	62.1879	12,126	62.7369	12,126	53.0324	12,126	59.1406	12,126	54.5759	12,126	56.0328	12,126	45.7576	12,126	55.326	12,126	41.9558	12,126	54.9403	12,126	37.9532	12,126	55.1298	12,126	48.5032	12,126	55.6907	12,126	47.1417	12,126	49.6921	12,126	51.9422	12,126	58.6685	12,126	55.1862	12,126	54.9527
12,553.7	86.5959	12,553.7	86.8036	12,553.7	85.5157	12,553.7	85.435	12,553.7	83.2492	12,553.7	83.4158	12,553.7	79.9514	12,553.7	80.134	12,553.7	76.1571	12,553.7	77.6725	12,553.7	71.6767	12,553.7	75.0475	12,553.7	66.5103	12,553.7	71.0754	12,553.7	64.495	12,553.7	66.4091	12,553.7	60.1038	12,553.7	61.6636	12,553.7	48.3651	12,553.7	57.6403	12,553.7	57.2578	12,553.7	54.8487	12,553.7	47.7337	12,553.7	53.5609	12,553.7	41.3015	12,553.7	53.9379	12,553.7	38.5124	12,553.7	54.0119	12,553.7	50.3259	12,553.7	53.6027	12,553.7	49.7361	12,553.7	50.5828	12,553.7	48.1068	12,553.7	57.5165	12,553.7	55.7299	12,553.7	54.7087
12,996.1	87.1736	12,996.1	87.1975	12,996.1	86.318	12,996.1	85.7152	12,996.1	84.2825	12,996.1	83.5539	12,996.1	81.6335	12,996.1	80.4224	12,996.1	77.8042	12,996.1	76.9678	12,996.1	74.3661	12,996.1	74.5719	12,996.1	70.8115	12,996.1	69.6081	12,996.1	66.1182	12,996.1	65.2955	12,996.1	60.6049	12,996.1	59.8836	12,996.1	51.5029	12,996.1	55.6262	12,996.1	57.8031	12,996.1	52.5208	12,996.1	48.6383	12,996.1	49.9981	12,996.1	47.6525	12,996.1	52.3271	12,996.1	41.037	12,996.1	53.3684	12,996.1	47.2774	12,996.1	47.9592	12,996.1	51.2108	12,996.1	48.3785	12,996.1	47.0841	12,996.1	55.1421	12,996.1	53.3959	12,996.1	53.3802
13,454.6	87.3194	13,454.6	87.1741	13,454.6	86.7785	13,454.6	85.5148	13,454.6	85.0856	13,454.6	83.2185	13,454.6	82.4368	13,454.6	79.7293	13,454.6	78.1854	13,454.6	75.8136	13,454.6	72.6129	13,454.6	73.2538	13,454.6	69.922	13,454.6	67.2742	13,454.6	66.0641	13,454.6	63.1514	13,454.6	57.199	13,454.6	56.4556	13,454.6	48.0362	13,454.6	53.3171	13,454.6	53.6485	13,454.6	50.4295	13,454.6	39.0115	13,454.6	46.8744	13,454.6	41.7895	13,454.6	51.2994	13,454.6	38.9042	13,454.6	50.4396	13,454.6	42.2194	13,454.6	44.2905	13,454.6	50.5499	13,454.6	45.2667	13,454.6	41.9265	13,454.6	50.5475	13,454.6	51.7491	13,454.6	51.0077
13,929.2	87.188	13,929.2	86.9646	13,929.2	86.6249	13,929.2	85.0052	13,929.2	85.0755	13,929.2	82.2613	13,929.2	81.9336	13,929.2	77.9942	13,929.2	77.6477	13,929.2	73.7576	13,929.2	71.964	13,929.2	69.9309	13,929.2	67.4312	13,929.2	62.8744	13,929.2	59.9528	13,929.2	59.0632	13,929.2	52.0373	13,929.2	49.7145	13,929.2	44.3675	13,929.2	46.1638	13,929.2	42.7652	13,929.2	42.9515	13,929.2	28.7309	13,929.2	39.5276	13,929.2	34.1844	13,929.2	47.1236	13,929.2	28.6889	13,929.2	46.1219	13,929.2	38.7668	13,929.2	35.5558	13,929.2	47.1808	13,929.2	32.8764	13,929.2	39.5704	13,929.2	45.9771	13,929.2	51.4485	13,929.2	47.3665
14,419.9	87.1246	14,419.9	86.8369	14,419.9	86.42	14,419.9	84.5982	14,419.9	84.8142	14,419.9	81.2269	14,419.9	81.3703	14,419.9	76.5966	14,419.9	76.6896	14,419.9	71.4964	14,419.9	70.124	14,419.9	66.317	14,419.9	63.9891	14,419.9	60.3826	14,419.9	58.104	14,419.9	55.8841	14,419.9	53.4703	14,419.9	46.6496	14,419.9	45.4979	14,419.9	44.1494	14,419.9	42.3431	14,419.9	38.8037	14,419.9	32.1625	14,419.9	36.8229	14,419.9	38.5494	14,419.9	41.4548	14,419.9	35.3016	14,419.9	41.5486	14,419.9	40.1648	14,419.9	34.0209	14,419.9	46.4862	14,419.9	30.2543	14,419.9	37.9661	14,419.9	40.1564	14,419.9	49.8384	14,419.9	44.116
14,928.2	86.9639	14,928.2	86.5197	14,928.2	86.1036	14,928.2	83.9062	14,928.2	84.0159	14,928.2	79.9022	14,928.2	80.1835	14,928.2	74.668	14,928.2	74.7413	14,928.2	68.3376	14,928.2	66.4667	14,928.2	63.2487	14,928.2	60.5251	14,928.2	59.8	14,928.2	62.3985	14,928.2	55.494	14,928.2	54.0572	14,928.2	50.5256	14,928.2	48.4369	14,928.2	46.6778	14,928.2	37.9376	14,928.2	41.094	14,928.2	43.6703	14,928.2	42.5742	14,928.2	39.3784	14,928.2	39.4567	14,928.2	-13.2818	14,928.2	39.6978	14,928.2	39.4017	14,928.2	35.096	14,928.2	43.674	14,928.2	39.6437	14,928.2	36.7978	14,928.2	33.7426	14,928.2	49.2566	14,928.2	34.7585
15,455.6	87.0601	15,455.6	86.3622	15,455.6	86.0538	15,455.6	83.1581	15,455.6	83.4803	15,455.6	78.7152	15,455.6	78.4253	15,455.6	72.6127	15,455.6	71.2555	15,455.6	66.3661	15,455.6	61.2767	15,455.6	64.8336	15,455.6	64.855	15,455.6	62.189	15,455.6	66.36	15,455.6	57.9996	15,455.6	56.3686	15,455.6	53.2367	15,455.6	54.7498	15,455.6	48.8278	15,455.6	45.2464	15,455.6	42.6978	15,455.6	47.6225	15,455.6	46.5069	15,455.6	38.4705	15,455.6	39.1077	15,455.6	42.7957	15,455.6	43.2171	15,455.6	44.1553	15,455.6	42.3547	15,455.6	45.1477	15,455.6	43.924	15,455.6	40.8637	15,455.6	36.1569	15,455.6	47.3839	15,455.6	37.3732
16,000.5	86.989	16,000.5	85.9499	16,000.5	86.0614	16,000.5	82.0693	16,000.5	83.1776	16,000.5	76.2953	16,000.5	76.7265	16,000.5	69.0701	16,000.5	65.5938	16,000.5	65.0803	16,000.5	54.6941	16,000.5	67.3978	16,000.5	67.2776	16,000.5	65.2393	16,000.5	66.1094	16,000.5	62.0437	16,000.5	62.0888	16,000.5	57.413	16,000.5	56.9593	16,000.5	53.2591	16,000.5	51.4045	16,000.5	47.0051	16,000.5	53.0247	16,000.5	49.8819	16,000.5	37.0852	16,000.5	40.5024	16,000.5	44.5386	16,000.5	48.1296	16,000.5	45.4804	16,000.5	46.5498	16,000.5	46.7402	16,000.5	46.7497	16,000.5	42.8486	16,000.5	39.6322	16,000.5	47.4749	16,000.5	33.1854
16,564.5	87.9047	16,564.5	86.4529	16,564.5	87.0392	16,564.5	81.6555	16,564.5	84.1671	16,564.5	73.0385	16,564.5	76.9132	16,564.5	66.5947	16,564.5	64.4216	16,564.5	68.9315	16,564.5	61.1222	16,564.5	71.4585	16,564.5	60.2867	16,564.5	69.8771	16,564.5	69.5978	16,564.5	65.7288	16,564.5	62.4928	16,564.5	61.111	16,564.5	52.857	16,564.5	56.0101	16,564.5	58.7844	16,564.5	50.21	16,564.5	56.2212	16,564.5	55.0223	16,564.5	38.8517	16,564.5	46.4308	16,564.5	37.7432	16,564.5	51.7691	16,564.5	33.678	16,564.5	49.1676	16,564.5	44.6621	16,564.5	52.3361	16,564.5	43.2679	16,564.5	36.8523	16,564.5	50.8677	16,564.5	33.5742
17,148.9	87.7434	17,148.9	86.2799	17,148.9	86.6765	17,148.9	80.8256	17,148.9	83.4252	17,148.9	67.6326	17,148.9	75.5551	17,148.9	67.476	17,148.9	64.1207	17,148.9	71.3884	17,148.9	68.0882	17,148.9	73.0606	17,148.9	71.8863	17,148.9	71.3217	17,148.9	68.8944	17,148.9	66.9393	17,148.9	61.4646	17,148.9	62.5639	17,148.9	52.2295	17,148.9	56.8503	17,148.9	58.7267	17,148.9	52.9333	17,148.9	53.6562	17,148.9	54.9366	17,148.9	39.4388	17,148.9	47.4969	17,148.9	42.2239	17,148.9	52.1657	17,148.9	43.2013	17,148.9	49.7028	17,148.9	50.0259	17,148.9	55.0827	17,148.9	48.9127	17,148.9	29.5622	17,148.9	52.947	17,148.9	44.4764
17,752.4	87.6084	17,752.4	86.1816	17,752.4	86.4603	17,752.4	80.8282	17,752.4	82.9929	17,752.4	71.2844	17,752.4	75.9165	17,752.4	70.5682	17,752.4	68.5584	17,752.4	71.8996	17,752.4	70.8471	17,752.4	72.6004	17,752.4	72.4701	17,752.4	70.576	17,752.4	67.9702	17,752.4	65.9733	17,752.4	63.4338	17,752.4	60.8867	17,752.4	39.7262	17,752.4	55.4148	17,752.4	57.376	17,752.4	51.1073	17,752.4	56.5143	17,752.4	53.8723	17,752.4	49.7659	17,752.4	47.732	17,752.4	26.9241	17,752.4	51.38	17,752.4	48.5309	17,752.4	44.0766	17,752.4	47.7811	17,752.4	54.421	17,752.4	43.6957	17,752.4	31.7038	17,752.4	51.2584	17,752.4	42.5034
18,379.4	87.3946	18,379.4	85.9673	18,379.4	86.3091	18,379.4	81.1158	18,379.4	82.7917	18,379.4	74.0916	18,379.4	76.0135	18,379.4	71.5248	18,379.4	71.0684	18,379.4	70.5105	18,379.4	71.0613	18,379.4	69.7672	18,379.4	67.775	18,379.4	67.0869	18,379.4	66.1566	18,379.4	61.6997	18,379.4	58.1989	18,379.4	56.8994	18,379.4	53.6607	18,379.4	50.3084	18,379.4	61.3671	18,379.4	47.9474	18,379.4	58.0891	18,379.4	51.3592	18,379.4	50.6632	18,379.4	45.1931	18,379.4	41.5844	18,379.4	47.2017	18,379.4	42.6032	18,379.4	34.2253	18,379.4	48.942	18,379.4	48.6506	18,379.4	43.2346	18,379.4	42.5225	18,379.4	52.6524	18,379.4	45.4698
19,026.9	87.482	19,026.9	86.0071	19,026.9	86.3602	19,026.9	81.4774	19,026.9	82.9247	19,026.9	74.7803	19,026.9	76.8424	19,026.9	70.6667	19,026.9	72.7854	19,026.9	68.1582	19,026.9	70.4742	19,026.9	68.1811	19,026.9	68.0551	19,026.9	65.0874	19,026.9	61.0307	19,026.9	61.2282	19,026.9	56.4973	19,026.9	55.929	19,026.9	47.0239	19,026.9	49.942	19,026.9	61.4482	19,026.9	48.3059	19,026.9	61.2149	19,026.9	47.4854	19,026.9	49.9617	19,026.9	42.0485	19,026.9	45.2857	19,026.9	45.6716	19,026.9	38.1243	19,026.9	44.4848	19,026.9	43.9756	19,026.9	45.0123	19,026.9	46.2435	19,026.9	44.9434	19,026.9	50.9291	19,026.9	45.1144
19,697.8	87.1361	19,697.8	85.5981	19,697.8	86.2776	19,697.8	81.0126	19,697.8	83.3086	19,697.8	74.3174	19,697.8	77.7978	19,697.8	68.6059	19,697.8	72.9177	19,697.8	67.4152	19,697.8	70.4252	19,697.8	67.1766	19,697.8	65.4928	19,697.8	65.2577	19,697.8	65.1138	19,697.8	61.0325	19,697.8	57.1693	19,697.8	55.3157	19,697.8	46.0151	19,697.8	49.5595	19,697.8	60.0556	19,697.8	47.0389	19,697.8	58.9806	19,697.8	48.0097	19,697.8	44.1609	19,697.8	45.5806	19,697.8	39.9203	19,697.8	45.0585	19,697.8	43.4498	19,697.8	45.7299	19,697.8	45.3822	19,697.8	46.8612	19,697.8	47.4393	19,697.8	46.249	19,697.8	49.386	19,697.8	39.0052
19,999.5	86.3357	19,999.5	84.8419	19,999.5	85.6334	19,999.5	80.2277	19,999.5	83.147	19,999.5	73.2689	19,999.5	77.9239	19,999.5	67.4126	19,999.5	72.4252	19,999.5	66.6281	19,999.5	71.6598	19,999.5	65.366	19,999.5	67.0588	19,999.5	63.5489	19,999.5	67.1384	19,999.5	59.9979	19,999.5	59.2042	19,999.5	53.7607	19,999.5	52.0571	19,999.5	47.1465	19,999.5	60.0797	19,999.5	46.5267	19,999.5	58.7306	19,999.5	50.7598	19,999.5	42.6468	19,999.5	51.7942	19,999.5	46.8614	19,999.5	47.4036	19,999.5	50.3123	19,999.5	37.9005	19,999.5	47.5305	19,999.5	49.9848	19,999.5	49.0896	19,999.5	44.0081	19,999.5	49.4285	19,999.5	47.3149
