"SPL Horizontal"																																																																							
"On-Axis"		"10°"		"-10°"		"20°"		"-20°"		"30°"		"-30°"		"40°"		"-40°"		"50°"		"-50°"		"60°"		"-60°"		"70°"		"-70°"		"80°"		"-80°"		"90°"		"-90°"		"100°"		"-100°"		"110°"		"-110°"		"120°"		"-120°"		"130°"		"-130°"		"140°"		"-140°"		"150°"		"-150°"		"160°"		"-160°"		"170°"		"-170°"		"180°"	
"Frequency [Hz]"	"Sound Pessure Level [dB]  / [2.83V 1m] "	"Frequency [Hz]"	"Sound Pessure Level [dB]  / [2.83V 1m] "	"Frequency [Hz]"	"Sound Pessure Level [dB]  / [2.83V 1m] "	"Frequency [Hz]"	"Sound Pessure Level [dB]  / [2.83V 1m] "	"Frequency [Hz]"	"Sound Pessure Level [dB]  / [2.83V 1m] "	"Frequency [Hz]"	"Sound Pessure Level [dB]  / [2.83V 1m] "	"Frequency [Hz]"	"Sound Pessure Level [dB]  / [2.83V 1m] "	"Frequency [Hz]"	"Sound Pessure Level [dB]  / [2.83V 1m] "	"Frequency [Hz]"	"Sound Pessure Level [dB]  / [2.83V 1m] "	"Frequency [Hz]"	"Sound Pessure Level [dB]  / [2.83V 1m] "	"Frequency [Hz]"	"Sound Pessure Level [dB]  / [2.83V 1m] "	"Frequency [Hz]"	"Sound Pessure Level [dB]  / [2.83V 1m] "	"Frequency [Hz]"	"Sound Pessure Level [dB]  / [2.83V 1m] "	"Frequency [Hz]"	"Sound Pessure Level [dB]  / [2.83V 1m] "	"Frequency [Hz]"	"Sound Pessure Level [dB]  / [2.83V 1m] "	"Frequency [Hz]"	"Sound Pessure Level [dB]  / [2.83V 1m] "	"Frequency [Hz]"	"Sound Pessure Level [dB]  / [2.83V 1m] "	"Frequency [Hz]"	"Sound Pessure Level [dB]  / [2.83V 1m] "	"Frequency [Hz]"	"Sound Pessure Level [dB]  / [2.83V 1m] "	"Frequency [Hz]"	"Sound Pessure Level [dB]  / [2.83V 1m] "	"Frequency [Hz]"	"Sound Pessure Level [dB]  / [2.83V 1m] "	"Frequency [Hz]"	"Sound Pessure Level [dB]  / [2.83V 1m] "	"Frequency [Hz]"	"Sound Pessure Level [dB]  / [2.83V 1m] "	"Frequency [Hz]"	"Sound Pessure Level [dB]  / [2.83V 1m] "	"Frequency [Hz]"	"Sound Pessure Level [dB]  / [2.83V 1m] "	"Frequency [Hz]"	"Sound Pessure Level [dB]  / [2.83V 1m] "	"Frequency [Hz]"	"Sound Pessure Level [dB]  / [2.83V 1m] "	"Frequency [Hz]"	"Sound Pessure Level [dB]  / [2.83V 1m] "	"Frequency [Hz]"	"Sound Pessure Level [dB]  / [2.83V 1m] "	"Frequency [Hz]"	"Sound Pessure Level [dB]  / [2.83V 1m] "	"Frequency [Hz]"	"Sound Pessure Level [dB]  / [2.83V 1m] "	"Frequency [Hz]"	"Sound Pessure Level [dB]  / [2.83V 1m] "	"Frequency [Hz]"	"Sound Pessure Level [dB]  / [2.83V 1m] "	"Frequency [Hz]"	"Sound Pessure Level [dB]  / [2.83V 1m] "	"Frequency [Hz]"	"Sound Pessure Level [dB]  / [2.83V 1m] "	"Frequency [Hz]"	"Sound Pessure Level [dB]  / [2.83V 1m] "
20.5078	53.3131	20.5078	53.1985	20.5078	53.2362	20.5078	52.8843	20.5078	52.9642	20.5078	52.3493	20.5078	52.4814	20.5078	51.5541	20.5078	51.7566	20.5078	50.4308	20.5078	50.7365	20.5078	48.8605	20.5078	49.3312	20.5078	46.6214	20.5078	47.3862	20.5078	43.2585	20.5078	44.6372	20.5078	38.0019	20.5078	40.8251	20.5078	36.509	20.5078	38.3554	20.5078	42.4612	20.5078	41.9052	20.5078	46.6122	20.5078	45.8788	20.5078	49.3824	20.5078	48.7529	20.5078	51.3148	20.5078	50.8145	20.5078	52.6607	20.5078	52.2882	20.5078	53.5443	20.5078	53.2969	20.5078	54.0292	20.5078	53.9057	20.5078	54.1466
21.9727	54.335	21.9727	54.1906	21.9727	54.2736	21.9727	53.8302	21.9727	54.0026	21.9727	53.2282	21.9727	53.5045	21.9727	52.3364	21.9727	52.7431	21.9727	51.0704	21.9727	51.655	21.9727	49.2778	21.9727	50.1294	21.9727	46.6604	21.9727	47.9655	21.9727	42.5911	21.9727	44.7859	21.9727	37.0856	21.9727	40.2246	21.9727	40.5271	21.9727	39.1837	21.9727	45.9076	21.9727	44.2176	21.9727	49.429	21.9727	48.1752	21.9727	51.8598	21.9727	50.9297	21.9727	53.5928	21.9727	52.9038	21.9727	54.8138	21.9727	54.3216	21.9727	55.6173	21.9727	55.2987	21.9727	56.0528	21.9727	55.896	21.9727	56.1438
23.4375	54.251	23.4375	54.0771	23.4375	54.1788	23.4375	53.6427	23.4375	53.855	23.4375	52.9085	23.4375	53.2523	23.4375	51.7978	23.4375	52.313	23.4375	50.1628	23.4375	50.9279	23.4375	47.6905	23.4375	48.8787	23.4375	43.5478	23.4375	45.6581	23.4375	33.6785	23.4375	39.615	23.4375	36.3878	23.4375	29.5977	23.4375	45.2934	23.4375	42.499	23.4375	49.6986	23.4375	48.0257	23.4375	52.5848	23.4375	51.4137	23.4375	54.6485	23.4375	53.7824	23.4375	56.1578	23.4375	55.5138	23.4375	57.239	23.4375	56.7773	23.4375	57.9578	23.4375	57.6581	23.4375	58.3488	23.4375	58.201	23.4375	58.4286
24.9023	54.9907	24.9023	54.7953	24.9023	54.9252	24.9023	54.3258	24.9023	54.5931	24.9023	53.5496	24.9023	53.9692	24.9023	52.4147	24.9023	53.0054	24.9023	50.8658	24.9023	51.6295	24.9023	48.9622	24.9023	49.7765	24.9023	47.395	24.9023	47.6295	24.9023	47.8878	24.9023	46.5421	24.9023	50.3685	24.9023	48.2753	24.9023	53.1165	24.9023	51.2613	24.9023	55.4801	24.9023	53.9924	24.9023	57.4043	24.9023	56.2244	24.9023	58.9394	24.9023	58.0095	24.9023	60.1335	24.9023	59.4166	24.9023	61.0194	24.9023	60.4941	24.9023	61.6172	24.9023	61.2717	24.9023	61.9381	24.9023	61.7666	24.9023	61.9876
26.3672	56.4916	26.3672	56.3172	26.3672	56.4316	26.3672	55.9015	26.3672	56.1333	26.3672	55.2278	26.3672	55.5805	26.3672	54.2783	26.3672	54.7476	26.3672	53.066	26.3672	53.6112	26.3672	51.7444	26.3672	52.2034	26.3672	50.856	26.3672	50.801	26.3672	51.2603	26.3672	50.253	26.3672	52.9701	26.3672	51.3713	26.3672	55.1219	26.3672	53.5347	26.3672	57.1517	26.3672	55.7921	26.3672	58.8916	26.3672	57.7777	26.3672	60.3201	26.3672	59.4284	26.3672	61.45	26.3672	60.7573	26.3672	62.2968	26.3672	61.7873	26.3672	62.8715	26.3672	62.536	26.3672	63.1811	26.3672	63.0143	26.3672	63.2285
27.832	57.7166	27.832	57.5605	27.832	57.6547	27.832	57.1829	27.832	57.3718	27.832	56.5771	27.832	56.8586	27.832	55.7456	27.832	56.1048	27.832	54.7373	27.832	55.1192	27.832	53.741	27.832	53.9899	27.832	53.2175	27.832	53.0284	27.832	53.7133	27.832	52.8652	27.832	55.1798	27.832	53.9087	27.832	57.0402	27.832	55.7244	27.832	58.8589	27.832	57.6799	27.832	60.4623	27.832	59.4647	27.832	61.8035	27.832	60.9873	27.832	62.8772	27.832	62.2338	27.832	63.6882	27.832	63.2102	27.832	64.2415	27.832	63.9247	27.832	64.5408	27.832	64.3828	27.832	64.5878
29.2969	59.06	29.2969	58.9211	29.2969	59.0087	29.2969	58.5936	29.2969	58.7659	29.2969	58.0843	29.2969	58.3317	29.2969	57.4208	29.2969	57.7158	29.2969	56.6861	29.2969	56.9603	29.2969	56.0784	29.2969	56.1901	29.2969	55.9307	29.2969	55.6814	29.2969	56.5191	29.2969	55.8154	29.2969	57.7606	29.2969	56.7511	29.2969	59.3088	29.2969	58.2242	29.2969	60.8686	29.2969	59.8533	29.2969	62.2868	29.2969	61.3995	29.2969	63.5009	29.2969	62.7593	29.2969	64.4888	29.2969	63.8962	29.2969	65.2432	29.2969	64.7992	29.2969	65.7616	29.2969	65.4658	29.2969	66.0433	29.2969	65.8954	29.2969	66.088
30.7617	60.7035	30.7617	60.5858	30.7617	60.6611	30.7617	60.3117	30.7617	60.4583	30.7617	59.8931	30.7617	60.0994	30.7617	59.362	30.7617	59.6004	30.7617	58.7942	30.7617	59.0064	30.7617	58.3417	30.7617	58.4221	30.7617	58.2335	30.7617	58.045	30.7617	58.6652	30.7617	58.129	30.7617	59.6245	30.7617	58.81	30.7617	60.8995	30.7617	59.9655	30.7617	62.2549	30.7617	61.3346	30.7617	63.535	30.7617	62.7021	30.7617	64.6584	30.7617	63.9465	30.7617	65.587	30.7617	65.01	30.7617	66.303	30.7617	65.8669	30.7617	66.7976	30.7617	66.5054	30.7617	67.0663	30.7617	66.9198	30.7617	67.1072
32.2266	61.6688	32.2266	61.5569	32.2266	61.6371	32.2266	61.308	32.2266	61.4626	32.2266	60.94	32.2266	61.1538	32.2266	60.4948	32.2266	60.7345	32.2266	60.0578	32.2266	60.2592	32.2266	59.7768	32.2266	59.8366	32.2266	59.8395	32.2266	59.6407	32.2266	60.371	32.2266	59.8603	32.2266	61.3271	32.2266	60.569	32.2266	62.5297	32.2266	61.6554	32.2266	63.7924	32.2266	62.9171	32.2266	64.9869	32.2266	64.1818	32.2266	66.0407	32.2266	65.3434	32.2266	66.9161	32.2266	66.3454	32.2266	67.5933	32.2266	67.1591	32.2266	68.0616	32.2266	67.7694	32.2266	68.315	32.2266	68.1681	32.2266	68.3506
33.6914	63.2164	33.6914	63.1377	33.6914	63.1856	33.6914	62.9582	33.6914	63.046	33.6914	62.7	33.6914	62.8095	33.6914	62.4064	33.6914	62.5037	33.6914	62.152	33.6914	62.1829	33.6914	62.0453	33.6914	61.9381	33.6914	62.205	33.6914	61.8938	33.6914	62.7011	33.6914	62.1674	33.6914	63.5056	33.6914	62.7985	33.6914	64.5092	33.6914	63.7171	33.6914	65.5832	33.6914	64.7901	33.6914	66.6237	33.6914	65.8885	33.6914	67.5613	33.6914	66.9194	33.6914	68.3533	33.6914	67.8248	33.6914	68.9735	33.6914	68.5698	33.6914	69.406	33.6914	69.1337	33.6914	69.6413	33.6914	69.5042	33.6914	69.6743
35.1563	64.736	35.1563	64.6761	35.1563	64.7089	35.1563	64.5378	35.1563	64.596	35.1563	64.3422	35.1563	64.4096	35.1563	64.1282	35.1563	64.1765	35.1563	63.9576	35.1563	63.9448	35.1563	63.9144	35.1563	63.7884	35.1563	64.0861	35.1563	63.801	35.1563	64.526	35.1563	64.0672	35.1563	65.22	35.1563	64.618	35.1563	66.0925	35.1563	65.409	35.1563	67.0436	35.1563	66.3445	35.1563	67.9828	35.1563	67.3208	35.1563	68.8431	35.1563	68.2545	35.1563	69.5787	35.1563	69.0871	35.1563	70.1599	35.1563	69.7803	35.1563	70.5674	35.1563	70.3096	35.1563	70.7897	35.1563	70.6593	35.1563	70.8206
36.6211	66.1888	36.6211	66.143	36.6211	66.1664	36.6211	66.0371	36.6211	66.0777	36.6211	65.8904	36.6211	65.9349	36.6211	65.7373	36.6211	65.7633	36.6211	65.6294	36.6211	65.6051	36.6211	65.6334	36.6211	65.5208	36.6211	65.8163	36.6211	65.582	36.6211	66.2192	36.6211	65.8505	36.6211	66.8347	36.6211	66.3494	36.6211	67.6081	36.6211	67.048	36.6211	68.4605	36.6211	67.8754	36.6211	69.3141	36.6211	68.7488	36.6211	70.1063	36.6211	69.5951	36.6211	70.7912	36.6211	70.3585	36.6211	71.3371	36.6211	70.9997	36.6211	71.7228	36.6211	71.4921	36.6211	71.9352	36.6211	71.8181	36.6211	71.9673
38.0859	67.4191	38.0859	67.3794	38.0859	67.4058	38.0859	67.2947	38.0859	67.3413	38.0859	67.1836	38.0859	67.2374	38.0859	67.0779	38.0859	67.1174	38.0859	67.0231	38.0859	67.0188	38.0859	67.0746	38.0859	66.9923	38.0859	67.2854	38.0859	67.0948	38.0859	67.6855	38.0859	67.3738	38.0859	68.2672	38.0859	67.8461	38.0859	68.9851	38.0859	68.4881	38.0859	69.7737	38.0859	69.2438	38.0859	70.566	38.0859	70.0446	38.0859	71.3049	38.0859	70.8265	38.0859	71.9471	38.0859	71.5375	38.0859	72.4611	38.0859	72.1391	38.0859	72.8251	38.0859	72.6037	38.0859	73.0254	38.0859	72.9127	38.0859	73.055
39.5508	68.8542	39.5508	68.8276	39.5508	68.8444	39.5508	68.7718	39.5508	68.7993	39.5508	68.7034	39.5508	68.7295	39.5508	68.6495	39.5508	68.655	39.5508	68.6467	39.5508	68.6064	39.5508	68.7376	39.5508	68.6238	39.5508	68.9609	39.5508	68.7506	39.5508	69.338	39.5508	69.0219	39.5508	69.8628	39.5508	69.4511	39.5508	70.5019	39.5508	70.0221	39.5508	71.2042	39.5508	70.6933	39.5508	71.9145	39.5508	71.4101	39.5508	72.5828	39.5508	72.1175	39.5508	73.168	39.5508	72.7678	39.5508	73.6392	39.5508	73.3234	39.5508	73.9737	39.5508	73.756	39.5508	74.1572	39.5508	74.0462	39.5508	74.1817
41.0156	70.3278	41.0156	70.3104	41.0156	70.3209	41.0156	70.2748	41.0156	70.2908	41.0156	70.2348	41.0156	70.2462	41.0156	70.2119	41.0156	70.2037	41.0156	70.2348	41.0156	70.1876	41.0156	70.336	41.0156	70.229	41.0156	70.545	41.0156	70.361	41.0156	70.8792	41.0156	70.6106	41.0156	71.3364	41.0156	70.9892	41.0156	71.8932	41.0156	71.4869	41.0156	72.5104	41.0156	72.0733	41.0156	73.1422	41.0156	72.7052	41.0156	73.7439	41.0156	73.3358	41.0156	74.2766	41.0156	73.9218	41.0156	74.7093	41.0156	74.4269	41.0156	75.0188	41.0156	74.8229	41.0156	75.1896	41.0156	75.0894	41.0156	75.2136
42.4805	71.468	42.4805	71.4577	42.4805	71.46	42.4805	71.4346	42.4805	71.4348	42.4805	71.4112	42.4805	71.4	42.4805	71.4062	42.4805	71.3703	42.4805	71.4445	42.4805	71.367	42.4805	71.5538	42.4805	71.4173	42.4805	71.759	42.4805	71.5496	42.4805	72.0751	42.4805	71.7874	42.4805	72.501	42.4805	72.1415	42.4805	73.0175	42.4805	72.6042	42.4805	73.5909	42.4805	73.1499	42.4805	74.1803	42.4805	73.7408	42.4805	74.7445	42.4805	74.3342	42.4805	75.2463	42.4805	74.8892	42.4805	75.6551	42.4805	75.3706	42.4805	75.9477	42.4805	75.7502	42.4805	76.1084	42.4805	76.0073	42.4805	76.1287
43.9453	72.7133	43.9453	72.7141	43.9453	72.7034	43.9453	72.7107	43.9453	72.6854	43.9453	72.7131	43.9453	72.6656	43.9453	72.737	43.9453	72.6565	43.9453	72.8021	43.9453	72.6757	43.9453	72.9299	43.9453	72.7447	43.9453	73.1392	43.9453	72.8863	43.9453	73.4412	43.9453	73.1186	43.9453	73.8346	43.9453	73.4501	43.9453	74.3044	43.9453	73.875	43.9453	74.8235	43.9453	74.373	43.9453	75.3577	43.9453	74.9128	43.9453	75.8709	43.9453	75.4577	43.9453	76.3293	43.9453	75.9708	43.9453	76.704	43.9453	76.4188	43.9453	76.9724	43.9453	76.7745	43.9453	77.1186	43.9453	77.0173	43.9453	77.134
45.4102	74.3375	45.4102	74.3436	45.4102	74.3293	45.4102	74.351	45.4102	74.3202	45.4102	74.368	45.4102	74.316	45.4102	74.4066	45.4102	74.3273	45.4102	74.4825	45.4102	74.3686	45.4102	74.6127	45.4102	74.4575	45.4102	74.8125	45.4102	74.6118	45.4102	75.0913	45.4102	74.8455	45.4102	75.4498	45.4102	75.1646	45.4102	75.8769	45.4102	75.5638	45.4102	76.3515	45.4102	76.0261	45.4102	76.8449	45.4102	76.5246	45.4102	77.3249	45.4102	77.0273	45.4102	77.7597	45.4102	77.5008	45.4102	78.1207	45.4102	77.914	45.4102	78.3845	45.4102	78.2406	45.4102	78.5342	45.4102	78.4604	45.4102	78.5601
46.875	75.3602	46.875	75.3641	46.875	75.3556	46.875	75.3703	46.875	75.3512	46.875	75.3856	46.875	75.3519	46.875	75.4207	46.875	75.3666	46.875	75.4889	46.875	75.4076	46.875	75.605	46.875	75.4899	46.875	75.7828	46.875	75.6289	46.875	76.0316	46.875	75.8372	46.875	76.3532	46.875	76.1213	46.875	76.7394	46.875	76.4782	46.875	77.1725	46.875	76.8946	46.875	77.6269	46.875	77.3477	46.875	78.073	46.875	77.8088	46.875	78.4801	46.875	78.2468	46.875	78.8202	46.875	78.6318	46.875	79.07	46.875	78.9378	46.875	79.2124	46.875	79.1442	46.875	79.2378
48.3398	76.0757	48.3398	76.0837	48.3398	76.0753	48.3398	76.102	48.3398	76.0835	48.3398	76.1366	48.3398	76.1045	48.3398	76.1963	48.3398	76.1459	48.3398	76.2923	48.3398	76.2179	48.3398	76.4362	48.3398	76.3325	48.3398	76.6383	48.3398	76.5013	48.3398	76.9048	48.3398	76.7334	48.3398	77.2352	48.3398	77.032	48.3398	77.6211	48.3398	77.3927	48.3398	78.0459	48.3398	77.8027	48.3398	78.4866	48.3398	78.2413	48.3398	78.9163	48.3398	78.683	48.3398	79.3072	48.3398	79.1001	48.3398	79.6335	48.3398	79.4653	48.3398	79.8734	48.3398	79.7549	48.3398	80.0109	48.3398	79.9497	48.3398	80.0369
51.2695	77.6729	51.2695	77.6857	51.2695	77.6734	51.2695	77.7133	51.2695	77.6878	51.2695	77.7596	51.2695	77.7188	51.2695	77.8304	51.2695	77.7714	51.2695	77.9327	51.2695	77.8523	51.2695	78.074	51.2695	77.9691	51.2695	78.2607	51.2695	78.1291	51.2695	78.497	51.2695	78.338	51.2695	78.7823	51.2695	78.5979	51.2695	79.1107	51.2695	78.9057	51.2695	79.4703	51.2695	79.2523	51.2695	79.8433	51.2695	79.6229	51.2695	80.2085	51.2695	79.9976	51.2695	80.5424	51.2695	80.3537	51.2695	80.8224	51.2695	80.6682	51.2695	81.0288	51.2695	80.9195	51.2695	81.1467	51.2695	81.0901	51.2695	81.1677
52.7344	78.2979	52.7344	78.3111	52.7344	78.3003	52.7344	78.3412	52.7344	78.3188	52.7344	78.3913	52.7344	78.3557	52.7344	78.4658	52.7344	78.4147	52.7344	78.5701	52.7344	78.5011	52.7344	78.7103	52.7344	78.6206	52.7344	78.8912	52.7344	78.7789	52.7344	79.1158	52.7344	78.9802	52.7344	79.3836	52.7344	79.226	52.7344	79.6894	52.7344	79.5133	52.7344	80.0229	52.7344	79.8345	52.7344	80.3688	52.7344	80.1766	52.7344	80.7077	52.7344	80.5222	52.7344	81.0184	52.7344	80.8511	52.7344	81.2797	52.7344	81.142	52.7344	81.4729	52.7344	81.3749	52.7344	81.5839	52.7344	81.5329	52.7344	81.6044
54.1992	78.8662	54.1992	78.8801	54.1992	78.8698	54.1992	78.9124	54.1992	78.8911	54.1992	78.9657	54.1992	78.9319	54.1992	79.0434	54.1992	78.9952	54.1992	79.1499	54.1992	79.0848	54.1992	79.2897	54.1992	79.2053	54.1992	79.4665	54.1992	79.361	54.1992	79.6824	54.1992	79.555	54.1992	79.9367	54.1992	79.7881	54.1992	80.2244	54.1992	80.0579	54.1992	80.5363	54.1992	80.3575	54.1992	80.8588	54.1992	80.6756	54.1992	81.1743	54.1992	80.9968	54.1992	81.4634	54.1992	81.3028	54.1992	81.7067	54.1992	81.574	54.1992	81.8865	54.1992	81.7918	54.1992	81.9894	54.1992	81.9401	54.1992	82.0077
55.6641	79.3675	55.6641	79.3835	55.6641	79.3707	55.6641	79.4195	55.6641	79.3934	55.6641	79.4771	55.6641	79.4368	55.6641	79.559	55.6641	79.5031	55.6641	79.6681	55.6641	79.5953	55.6641	79.8076	55.6641	79.7165	55.6641	79.9801	55.6641	79.8698	55.6641	80.1868	55.6641	80.0574	55.6641	80.4265	55.6641	80.2794	55.6641	80.6951	55.6641	80.5334	55.6641	80.9844	55.6641	80.8133	55.6641	81.2825	55.6641	81.1091	55.6641	81.5742	55.6641	81.4074	55.6641	81.8418	55.6641	81.6915	55.6641	82.0673	55.6641	81.9435	55.6641	82.2343	55.6641	82.1461	55.6641	82.3302	55.6641	82.2842	55.6641	82.3472
58.5938	80.1802	58.5938	80.1982	58.5938	80.1834	58.5938	80.2376	58.5938	80.2079	58.5938	80.2992	58.5938	80.2544	58.5938	80.3839	58.5938	80.3237	58.5938	80.4929	58.5938	80.4171	58.5938	80.6275	58.5938	80.536	58.5938	80.7886	58.5938	80.6815	58.5938	80.9761	58.5938	80.8544	58.5938	81.1888	58.5938	81.054	58.5938	81.4232	58.5938	81.2781	58.5938	81.673	58.5938	81.5218	58.5938	81.9292	58.5938	81.7775	58.5938	82.1796	58.5938	82.0343	58.5938	82.4096	58.5938	82.279	58.5938	82.604	58.5938	82.4965	58.5938	82.7485	58.5938	82.6717	58.5938	82.8315	58.5938	82.7915	58.5938	82.8463
60.0586	80.5261	60.0586	80.5437	60.0586	80.5305	60.0586	80.5835	60.0586	80.5571	60.0586	80.6457	60.0586	80.6062	60.0586	80.7307	60.0586	80.6783	60.0586	80.839	60.0586	80.7737	60.0586	80.9709	60.0586	80.8932	60.0586	81.1267	60.0586	81.0369	60.0586	81.306	60.0586	81.2049	60.0586	81.5071	60.0586	81.3961	60.0586	81.727	60.0586	81.6081	60.0586	81.96	60.0586	81.8363	60.0586	82.1982	60.0586	82.074	60.0586	82.4307	60.0586	82.3116	60.0586	82.6445	60.0586	82.5371	60.0586	82.8258	60.0586	82.737	60.0586	82.9612	60.0586	82.8976	60.0586	83.0399	60.0586	83.0067	60.0586	83.0555
62.9883	81.1887	62.9883	81.2065	62.9883	81.1941	62.9883	81.2472	62.9883	81.2226	62.9883	81.3103	62.9883	81.274	62.9883	81.3954	62.9883	81.3477	62.9883	81.5015	62.9883	81.4433	62.9883	81.6279	62.9883	81.5598	62.9883	81.7735	62.9883	81.6964	62.9883	81.9368	62.9883	81.8518	62.9883	82.1161	62.9883	82.0243	62.9883	82.3083	62.9883	82.2114	62.9883	82.5093	62.9883	82.4094	62.9883	82.7128	62.9883	82.613	62.9883	82.9104	62.9883	82.8148	62.9883	83.0919	62.9883	83.0055	62.9883	83.2459	62.9883	83.1742	62.9883	83.3613	62.9883	83.3097	62.9883	83.4287	62.9883	83.4017	62.9883	83.4426
64.4531	81.4194	64.4531	81.4376	64.4531	81.4248	64.4531	81.4792	64.4531	81.454	64.4531	81.5435	64.4531	81.5063	64.4531	81.6293	64.4531	81.581	64.4531	81.7353	64.4531	81.677	64.4531	81.86	64.4531	81.7928	64.4531	82.0019	64.4531	81.9269	64.4531	82.159	64.4531	82.0776	64.4531	82.3294	64.4531	82.2428	64.4531	82.5101	64.4531	82.4199	64.4531	82.6973	64.4531	82.6055	64.4531	82.8857	64.4531	82.7947	64.4531	83.0679	64.4531	82.9811	64.4531	83.2348	64.4531	83.1567	64.4531	83.3764	64.4531	83.3117	64.4531	83.4825	64.4531	83.436	64.4531	83.5447	64.4531	83.5203	64.4531	83.5576
67.3828	81.808	67.3828	81.8256	67.3828	81.8152	67.3828	81.8675	67.3828	81.8472	67.3828	81.9324	67.3828	81.903	67.3828	82.0184	67.3828	81.9811	67.3828	82.1233	67.3828	82.0793	67.3828	82.2445	67.3828	82.1953	67.3828	82.3795	67.3828	82.3265	67.3828	82.5256	67.3828	82.47	67.3828	82.6804	67.3828	82.6231	67.3828	82.841	67.3828	82.7831	67.3828	83.0044	67.3828	82.9467	67.3828	83.1664	67.3828	83.11	67.3828	83.3218	67.3828	83.2683	67.3828	83.4638	67.3828	83.4153	67.3828	83.5843	67.3828	83.5439	67.3828	83.6752	67.3828	83.646	67.3828	83.7296	67.3828	83.7142	67.3828	83.7429
68.8477	81.9458	68.8477	81.9627	68.8477	81.954	68.8477	82.0042	68.8477	81.9873	68.8477	82.0687	68.8477	82.0445	68.8477	82.1541	68.8477	82.1238	68.8477	82.2577	68.8477	82.2228	68.8477	82.3767	68.8477	82.3386	68.8477	82.508	68.8477	82.468	68.8477	82.6488	68.8477	82.608	68.8477	82.7963	68.8477	82.7556	68.8477	82.9479	68.8477	82.9077	68.8477	83.1007	68.8477	83.0612	68.8477	83.2512	68.8477	83.2127	68.8477	83.3947	68.8477	83.358	68.8477	83.5255	68.8477	83.4919	68.8477	83.6366	68.8477	83.6081	68.8477	83.7207	68.8477	83.6998	68.8477	83.7716	68.8477	83.7605	68.8477	83.7852
71.7773	82.5168	71.7773	82.5331	71.7773	82.527	71.7773	82.5751	71.7773	82.5634	71.7773	82.641	71.7773	82.6244	71.7773	82.7277	71.7773	82.7076	71.7773	82.8319	71.7773	82.8095	71.7773	82.9496	71.7773	82.9263	71.7773	83.0768	71.7773	83.0539	71.7773	83.21	71.7773	83.1883	71.7773	83.3458	71.7773	83.3258	71.7773	83.4814	71.7773	83.4631	71.7773	83.6143	71.7773	83.5975	71.7773	83.7421	71.7773	83.7264	71.7773	83.8618	71.7773	83.8469	71.7773	83.9696	71.7773	83.9558	71.7773	84.0608	71.7773	84.0488	71.7773	84.1302	71.7773	84.1212	71.7773	84.173	71.7773	84.1681	71.7773	84.186
74.707	82.9208	74.707	82.9323	74.707	82.9361	74.707	82.9698	74.707	82.9777	74.707	83.0313	74.707	83.0438	74.707	83.1135	74.707	83.1314	74.707	83.2127	74.707	83.2365	74.707	83.3243	74.707	83.3547	74.707	83.4441	74.707	83.4811	74.707	83.5679	74.707	83.6111	74.707	83.692	74.707	83.7403	74.707	83.8136	74.707	83.8654	74.707	83.9305	74.707	83.9833	74.707	84.0409	74.707	84.0919	74.707	84.143	74.707	84.1894	74.707	84.2345	74.707	84.2738	74.707	84.3125	74.707	84.343	74.707	84.3734	74.707	84.3941	74.707	84.4138	74.707	84.4241	74.707	84.431
77.6367	83.1408	77.6367	83.1592	77.6367	83.1497	77.6367	83.2039	77.6367	83.1856	77.6367	83.2724	77.6367	83.2466	77.6367	83.3611	77.6367	83.3294	77.6367	83.4655	77.6367	83.43	77.6367	83.5806	77.6367	83.5433	77.6367	83.7012	77.6367	83.664	77.6367	83.8226	77.6367	83.787	77.6367	83.9406	77.6367	83.9077	77.6367	84.0518	77.6367	84.0221	77.6367	84.154	77.6367	84.1275	77.6367	84.2456	77.6367	84.2221	77.6367	84.3256	77.6367	84.305	77.6367	84.3934	77.6367	84.3755	77.6367	84.4477	77.6367	84.4331	77.6367	84.4872	77.6367	84.4767	77.6367	84.5105	77.6367	84.5049	77.6367	84.5164
79.1016	83.2428	79.1016	83.2658	79.1016	83.2461	79.1016	83.314	79.1016	83.2755	79.1016	83.3846	79.1016	83.3291	79.1016	83.4739	79.1016	83.4041	79.1016	83.5772	79.1016	83.4961	79.1016	83.6894	79.1016	83.6004	79.1016	83.8051	79.1016	83.7116	79.1016	83.9192	79.1016	83.8246	79.1016	84.0274	79.1016	83.9347	79.1016	84.1263	79.1016	84.0381	79.1016	84.2137	79.1016	84.132	79.1016	84.2885	79.1016	84.2149	79.1016	84.3506	79.1016	84.2865	79.1016	84.4001	79.1016	84.3466	79.1016	84.4374	79.1016	84.3957	79.1016	84.4622	79.1016	84.4336	79.1016	84.4744	79.1016	84.4598	79.1016	84.4735
82.0313	83.6631	82.0313	83.6883	82.0313	83.6618	82.0313	83.7362	82.0313	83.6844	82.0313	83.8037	82.0313	83.7292	82.0313	83.887	82.0313	83.7931	82.0313	83.981	82.0313	83.872	82.0313	84.0803	82.0313	83.9609	82.0313	84.1791	82.0313	84.0544	82.0313	84.2724	82.0313	84.1473	82.0313	84.3559	82.0313	84.2348	82.0313	84.4263	82.0313	84.3132	82.0313	84.4823	82.0313	84.38	82.0313	84.5239	82.0313	84.4344	82.0313	84.5524	82.0313	84.477	82.0313	84.5701	82.0313	84.5094	82.0313	84.5795	82.0313	84.5337	82.0313	84.5827	82.0313	84.552	82.0313	84.5809	82.0313	84.5655	82.0313	84.5751
84.9609	83.9626	84.9609	83.9868	84.9609	83.9621	84.9609	84.0333	84.9609	83.985	84.9609	84.099	84.9609	84.0297	84.9609	84.1799	84.9609	84.0928	84.9609	84.2705	84.9609	84.17	84.9609	84.3652	84.9609	84.256	84.9609	84.4579	84.9609	84.3452	84.9609	84.5434	84.9609	84.4322	84.9609	84.6171	84.9609	84.5121	84.9609	84.676	84.9609	84.581	84.9609	84.7188	84.9609	84.6367	84.9609	84.7463	84.9609	84.6785	84.9609	84.7607	84.9609	84.7074	84.9609	84.7653	84.9609	84.7257	84.9609	84.7639	84.9609	84.7365	84.9609	84.7597	84.9609	84.7426	84.9609	84.7549	84.9609	84.7468	84.9609	84.7506
87.8906	84.005	87.8906	84.0224	87.8906	84.0119	87.8906	84.063	87.8906	84.0428	87.8906	84.124	87.8906	84.0953	87.8906	84.2012	87.8906	84.166	87.8906	84.2892	87.8906	84.2502	87.8906	84.3821	87.8906	84.3422	87.8906	84.4739	87.8906	84.4361	87.8906	84.5589	87.8906	84.5263	87.8906	84.6324	87.8906	84.6076	87.8906	84.6913	87.8906	84.676	87.8906	84.7344	87.8906	84.7292	87.8906	84.7623	87.8906	84.7666	87.8906	84.7776	87.8906	84.7891	87.8906	84.7838	87.8906	84.7996	87.8906	84.7851	87.8906	84.8013	87.8906	84.7848	87.8906	84.798	87.8906	84.7855	87.8906	84.7928	87.8906	84.7882
90.8203	83.8287	90.8203	83.8275	90.8203	83.8633	90.8203	83.859	90.8203	83.9301	90.8203	83.9204	90.8203	84.026	90.8203	84.0074	90.8203	84.1461	90.8203	84.1142	90.8203	84.2843	90.8203	84.2343	90.8203	84.4332	90.8203	84.3609	90.8203	84.5851	90.8203	84.4874	90.8203	84.7325	90.8203	84.6079	90.8203	84.8682	90.8203	84.718	90.8203	84.9866	90.8203	84.8149	90.8203	85.0834	90.8203	84.8977	90.8203	85.1564	90.8203	84.9671	90.8203	85.2054	90.8203	85.0249	90.8203	85.2321	90.8203	85.0738	90.8203	85.2397	90.8203	85.1161	90.8203	85.232	90.8203	85.1534	90.8203	85.213	90.8203	85.1861
95.2148	84.7764	95.2148	84.805	95.2148	84.7652	95.2148	84.8496	95.2148	84.7715	95.2148	84.9072	95.2148	84.7938	95.2148	84.9737	95.2148	84.8294	95.2148	85.0439	95.2148	84.8743	95.2148	85.1119	95.2148	84.9236	95.2148	85.1713	95.2148	84.9714	95.2148	85.2161	95.2148	85.0121	95.2148	85.2411	95.2148	85.0403	95.2148	85.2426	95.2148	85.0518	95.2148	85.2194	95.2148	85.0443	95.2148	85.1727	95.2148	85.018	95.2148	85.1072	95.2148	84.9762	95.2148	85.0305	95.2148	84.925	95.2148	84.9522	95.2148	84.8732	95.2148	84.8828	95.2148	84.8303	95.2148	84.8316	95.2148	84.8055	95.2148	84.8051
98.1445	84.75	98.1445	84.7713	98.1445	84.7505	98.1445	84.8133	98.1445	84.7727	98.1445	84.8728	98.1445	84.8142	98.1445	84.9454	98.1445	84.8717	98.1445	85.0254	98.1445	84.9401	98.1445	85.1062	98.1445	85.0135	98.1445	85.1807	98.1445	85.0853	98.1445	85.2425	98.1445	85.1491	98.1445	85.2859	98.1445	85.1989	98.1445	85.307	98.1445	85.23	98.1445	85.3043	98.1445	85.24	98.1445	85.2791	98.1445	85.2289	98.1445	85.236	98.1445	85.1996	98.1445	85.1821	98.1445	85.158	98.1445	85.1263	98.1445	85.112	98.1445	85.078	98.1445	85.0706	98.1445	85.0451	98.1445	85.0421	98.1445	85.0327
101.074	84.8534	101.074	84.8585	101.074	84.87	101.074	84.8845	101.074	84.9076	101.074	84.9291	101.074	84.9638	101.074	84.9883	101.074	85.0348	101.074	85.0569	101.074	85.1156	101.074	85.1287	101.074	85.1999	101.074	85.1969	101.074	85.2812	101.074	85.255	101.074	85.3525	101.074	85.2973	101.074	85.4077	101.074	85.3198	101.074	85.4417	101.074	85.3207	101.074	85.4514	101.074	85.3014	101.074	85.4366	101.074	85.2665	101.074	85.3997	101.074	85.2234	101.074	85.3465	101.074	85.1813	101.074	85.285	101.074	85.1495	101.074	85.2249	101.074	85.1358	101.074	85.1755	101.074	85.1444
105.469	85.059	105.469	85.0865	105.469	85.0551	105.469	85.1355	105.469	85.0747	105.469	85.2024	105.469	85.1163	105.469	85.2824	105.469	85.1765	105.469	85.369	105.469	85.2502	105.469	85.4554	105.469	85.3311	105.469	85.5342	105.469	85.4123	105.469	85.5984	105.469	85.4862	105.469	85.6423	105.469	85.5461	105.469	85.6618	105.469	85.5864	105.469	85.6557	105.469	85.6036	105.469	85.6258	105.469	85.597	105.469	85.5772	105.469	85.569	105.469	85.5182	105.469	85.5252	105.469	85.4588	105.469	85.4738	105.469	85.4093	105.469	85.4248	105.469	85.3783	105.469	85.3879	105.469	85.3711
108.398	85.2608	108.398	85.2952	108.398	85.2488	108.398	85.3497	108.398	85.2594	108.398	85.4209	108.398	85.2915	108.398	85.504	108.398	85.3423	108.398	85.5926	108.398	85.4071	108.398	85.6797	108.398	85.48	108.398	85.7578	108.398	85.5538	108.398	85.8195	108.398	85.6208	108.398	85.8587	108.398	85.6736	108.398	85.8706	108.398	85.706	108.398	85.8534	108.398	85.7141	108.398	85.8086	108.398	85.6967	108.398	85.7413	108.398	85.6567	108.398	85.6603	108.398	85.6007	108.398	85.5772	108.398	85.5387	108.398	85.5048	108.398	85.4826	108.398	85.4545	108.398	85.4446	108.398	85.4338
112.793	85.6519	112.793	85.672	112.793	85.6498	112.793	85.7093	112.793	85.6656	112.793	85.7617	112.793	85.6978	112.793	85.8258	112.793	85.744	112.793	85.8968	112.793	85.8007	112.793	85.9688	112.793	85.8627	112.793	86.0348	112.793	85.9242	112.793	86.0875	112.793	85.9785	112.793	86.1202	112.793	86.0187	112.793	86.1277	112.793	86.039	112.793	86.1071	112.793	86.0351	112.793	86.0591	112.793	86.0057	112.793	85.9884	112.793	85.9534	112.793	85.9039	112.793	85.8846	112.793	85.8176	112.793	85.8099	112.793	85.7434	112.793	85.7421	112.793	85.6935	112.793	85.6942	112.793	85.6764
117.188	85.8684	117.188	85.8534	117.188	85.8987	117.188	85.8539	117.188	85.9431	117.188	85.8692	117.188	85.9998	117.188	85.8973	117.188	86.0661	117.188	85.9348	117.188	86.1384	117.188	85.977	117.188	86.212	117.188	86.018	117.188	86.2813	117.188	86.0511	117.188	86.34	117.188	86.0703	117.188	86.3814	117.188	86.0706	117.188	86.3995	117.188	86.0498	117.188	86.3896	117.188	86.0091	117.188	86.3498	117.188	85.9536	117.188	86.2814	117.188	85.8925	117.188	86.1901	117.188	85.838	117.188	86.0857	117.188	85.8027	117.188	85.9813	117.188	85.7972	117.188	85.8909	117.188	85.827
120.117	86.2387	120.117	86.2166	120.117	86.2726	120.117	86.2061	120.117	86.3178	120.117	86.2061	120.117	86.3729	120.117	86.2145	120.117	86.4355	120.117	86.2282	120.117	86.5022	120.117	86.2432	120.117	86.5684	120.117	86.2546	120.117	86.6283	120.117	86.2574	120.117	86.6756	120.117	86.2467	120.117	86.7035	120.117	86.2194	120.117	86.7058	120.117	86.1744	120.117	86.678	120.117	86.1142	120.117	86.6178	120.117	86.0449	120.117	86.5269	120.117	85.9764	120.117	86.4112	120.117	85.9214	120.117	86.281	120.117	85.8924	120.117	86.1503	120.117	85.8998	120.117	86.0347	120.117	85.9481
124.512	86.3835	124.512	86.4245	124.512	86.3553	124.512	86.476	124.512	86.3408	124.512	86.5348	124.512	86.3397	124.512	86.5963	124.512	86.3505	124.512	86.655	124.512	86.3699	124.512	86.7045	124.512	86.3935	124.512	86.7376	124.512	86.4153	124.512	86.7477	124.512	86.4286	124.512	86.7288	124.512	86.4263	124.512	86.6767	124.512	86.4027	124.512	86.5905	124.512	86.3537	124.512	86.4732	124.512	86.2787	124.512	86.3323	124.512	86.1816	124.512	86.1804	124.512	86.071	124.512	86.0335	124.512	85.9604	124.512	85.9096	124.512	85.866	124.512	85.8244	124.512	85.8044	124.512	85.7885
128.906	86.4034	128.906	86.4265	128.906	86.3926	128.906	86.4614	128.906	86.3934	128.906	86.5062	128.906	86.4041	128.906	86.5573	128.906	86.4219	128.906	86.6095	128.906	86.4429	128.906	86.6562	128.906	86.4621	128.906	86.6894	128.906	86.4736	128.906	86.701	128.906	86.471	128.906	86.6833	128.906	86.4479	128.906	86.6308	128.906	86.3992	128.906	86.5407	128.906	86.322	128.906	86.4151	128.906	86.2172	128.906	86.2612	128.906	86.0904	128.906	86.0918	128.906	85.9525	128.906	85.9245	128.906	85.8193	128.906	85.7798	128.906	85.7096	128.906	85.6766	128.906	85.6416	128.906	85.6289
133.301	86.4591	133.301	86.4725	133.301	86.4606	133.301	86.5005	133.301	86.4762	133.301	86.5414	133.301	86.5042	133.301	86.592	133.301	86.5415	133.301	86.6475	133.301	86.584	133.301	86.7016	133.301	86.6264	133.301	86.7467	133.301	86.6623	133.301	86.7748	133.301	86.6849	133.301	86.7787	133.301	86.6878	133.301	86.7525	133.301	86.6656	133.301	86.6938	133.301	86.6154	133.301	86.6041	133.301	86.5378	133.301	86.4896	133.301	86.4376	133.301	86.3617	133.301	86.3241	133.301	86.2356	133.301	86.211	133.301	86.1282	133.301	86.1142	133.301	86.0554	133.301	86.0492	133.301	86.028
139.16	86.5128	139.16	86.5183	139.16	86.5222	139.16	86.5384	139.16	86.5457	139.16	86.5722	139.16	86.5821	139.16	86.6174	139.16	86.6292	139.16	86.6705	139.16	86.6835	139.16	86.7258	139.16	86.7401	139.16	86.7765	139.16	86.7927	139.16	86.8149	139.16	86.8343	139.16	86.8336	139.16	86.8577	139.16	86.8268	139.16	86.8567	139.16	86.7915	139.16	86.8276	139.16	86.7284	139.16	86.7701	139.16	86.6432	139.16	86.6884	139.16	86.5456	139.16	86.5907	139.16	86.4493	139.16	86.4896	139.16	86.369	139.16	86.3996	139.16	86.3182	139.16	86.3348	139.16	86.306
143.555	86.642	143.555	86.6416	143.555	86.6524	143.555	86.6512	143.555	86.6725	143.555	86.6702	143.555	86.702	143.555	86.6976	143.555	86.74	143.555	86.731	143.555	86.7843	143.555	86.7664	143.555	86.8314	143.555	86.7983	143.555	86.8761	143.555	86.8204	143.555	86.9118	143.555	86.8262	143.555	86.9315	143.555	86.8107	143.555	86.9288	143.555	86.7711	143.555	86.8993	143.555	86.7084	143.555	86.8419	143.555	86.6279	143.555	86.7597	143.555	86.5389	143.555	86.6606	143.555	86.454	143.555	86.5563	143.555	86.3867	143.555	86.4609	143.555	86.3493	143.555	86.3882	143.555	86.3493
147.949	86.7384	147.949	86.7404	147.949	86.7419	147.949	86.7477	147.949	86.7509	147.949	86.76	147.949	86.7659	147.949	86.7762	147.949	86.7865	147.949	86.7945	147.949	86.8118	147.949	86.8113	147.949	86.8391	147.949	86.8219	147.949	86.8643	147.949	86.8205	147.949	86.8817	147.949	86.8017	147.949	86.8847	147.949	86.7611	147.949	86.8671	147.949	86.6973	147.949	86.8245	147.949	86.6122	147.949	86.7554	147.949	86.5124	147.949	86.6625	147.949	86.4082	147.949	86.5531	147.949	86.3131	147.949	86.4388	147.949	86.2407	147.949	86.3338	147.949	86.203	147.949	86.2525	147.949	86.2068
153.809	87.0159	153.809	87.0225	153.809	87.0092	153.809	87.0293	153.809	87.0024	153.809	87.0364	153.809	86.9955	153.809	87.0429	153.809	86.9886	153.809	87.0471	153.809	86.981	153.809	87.0454	153.809	86.971	153.809	87.0327	153.809	86.9557	153.809	87.0032	153.809	86.9305	153.809	86.9509	153.809	86.8905	153.809	86.8716	153.809	86.8306	153.809	86.7642	153.809	86.7477	153.809	86.632	153.809	86.6415	153.809	86.4832	153.809	86.5159	153.809	86.3311	153.809	86.3793	153.809	86.192	153.809	86.2447	153.809	86.0827	153.809	86.1272	153.809	86.0172	153.809	86.0427	153.809	86.0037
159.668	87.2425	159.668	87.2424	159.668	87.2414	159.668	87.2415	159.668	87.2387	159.668	87.2405	159.668	87.2342	159.668	87.2392	159.668	87.2276	159.668	87.2364	159.668	87.2178	159.668	87.2292	159.668	87.2024	159.668	87.2128	159.668	87.1777	159.668	87.1813	159.668	87.1391	159.668	87.1284	159.668	87.0813	159.668	87.0491	159.668	87.0002	159.668	86.9411	159.668	86.8938	159.668	86.8064	159.668	86.7639	159.668	86.6523	159.668	86.617	159.668	86.491	159.668	86.4641	159.668	86.3386	159.668	86.3202	159.668	86.2128	159.668	86.2017	159.668	86.1292	159.668	86.1241	159.668	86.0985
165.527	87.3913	165.527	87.3932	165.527	87.3882	165.527	87.3939	165.527	87.3841	165.527	87.3934	165.527	87.3794	165.527	87.3914	165.527	87.3743	165.527	87.3863	165.527	87.3682	165.527	87.375	165.527	87.3594	165.527	87.3531	165.527	87.3443	165.527	87.3155	165.527	87.3178	165.527	87.2568	165.527	87.2741	165.527	87.1734	165.527	87.2078	165.527	87.0646	165.527	87.1157	165.527	86.9336	165.527	86.9983	165.527	86.7882	165.527	86.8607	165.527	86.6406	165.527	86.7132	165.527	86.5059	165.527	86.57	165.527	86.3996	165.527	86.4475	165.527	86.3354	165.527	86.3609	165.527	86.3218
171.387	87.3237	171.387	87.3232	171.387	87.3225	171.387	87.3219	171.387	87.3195	171.387	87.3205	171.387	87.3145	171.387	87.319	171.387	87.3078	171.387	87.3163	171.387	87.2989	171.387	87.3096	171.387	87.2865	171.387	87.2942	171.387	87.2676	171.387	87.2643	171.387	87.2381	171.387	87.2141	171.387	87.193	171.387	87.1391	171.387	87.1275	171.387	87.038	171.387	87.0389	171.387	86.9136	171.387	86.9277	171.387	86.7737	171.387	86.7986	171.387	86.6301	171.387	86.6614	171.387	86.498	171.387	86.5294	171.387	86.3925	171.387	86.4177	171.387	86.3266	171.387	86.3406	171.387	86.3087
177.246	87.2834	177.246	87.2786	177.246	87.2855	177.246	87.2718	177.246	87.285	177.246	87.264	177.246	87.2824	177.246	87.2559	177.246	87.2785	177.246	87.2473	177.246	87.2733	177.246	87.236	177.246	87.2654	177.246	87.2182	177.246	87.2517	177.246	87.1884	177.246	87.2273	177.246	87.1406	177.246	87.1869	177.246	87.0704	177.246	87.1251	177.246	86.9759	177.246	87.039	177.246	86.8595	177.246	86.9291	177.246	86.7282	177.246	86.8003	177.246	86.5936	177.246	86.6624	177.246	86.4698	177.246	86.529	177.246	86.3718	177.246	86.4152	177.246	86.3123	177.246	86.3352	177.246	86.2994
183.105	87.1912	183.105	87.1891	183.105	87.1829	183.105	87.177	183.105	87.1656	183.105	87.1564	183.105	87.1416	183.105	87.1295	183.105	87.1142	183.105	87.0981	183.105	87.0862	183.105	87.063	183.105	87.0589	183.105	87.0229	183.105	87.0312	183.105	86.975	183.105	86.9996	183.105	86.9152	183.105	86.9586	183.105	86.8399	183.105	86.9022	183.105	86.7473	183.105	86.8263	183.105	86.6392	183.105	86.7299	183.105	86.5216	183.105	86.617	183.105	86.4043	183.105	86.4959	183.105	86.2995	183.105	86.3782	183.105	86.2194	183.105	86.2771	183.105	86.1739	183.105	86.2044	183.105	86.1686
188.965	87.3224	188.965	87.3216	188.965	87.3086	188.965	87.3072	188.965	87.2805	188.965	87.2806	188.965	87.2394	188.965	87.243	188.965	87.1876	188.965	87.1952	188.965	87.1274	188.965	87.1366	188.965	87.0607	188.965	87.0658	188.965	86.9878	188.965	86.9806	188.965	86.9073	188.965	86.8789	188.965	86.8166	188.965	86.7602	188.965	86.7127	188.965	86.6261	188.965	86.5942	188.965	86.4815	188.965	86.4631	188.965	86.3343	188.965	86.3253	188.965	86.1945	188.965	86.1906	188.965	86.0727	188.965	86.0707	188.965	85.9783	188.965	85.9769	188.965	85.9185	188.965	85.9176	188.965	85.8977
196.289	87.5446	196.289	87.5284	196.289	87.5463	196.289	87.5001	196.289	87.5325	196.289	87.4628	196.289	87.5035	196.289	87.4193	196.289	87.4606	196.289	87.3715	196.289	87.4053	196.289	87.3187	196.289	87.3384	196.289	87.2578	196.289	87.2595	196.289	87.1837	196.289	87.167	196.289	87.0907	196.289	87.0585	196.289	86.9747	196.289	86.9321	196.289	86.835	196.289	86.7878	196.289	86.6757	196.289	86.6289	196.289	86.5061	196.289	86.4631	196.289	86.3392	196.289	86.3021	196.289	86.1895	196.289	86.1595	196.289	86.0703	196.289	86.049	196.289	85.9921	196.289	85.9809	196.289	85.9615
203.613	87.4717	203.613	87.4455	203.613	87.4787	203.613	87.4018	203.613	87.4661	203.613	87.3435	203.613	87.4353	203.613	87.2739	203.613	87.3882	203.613	87.196	203.613	87.3271	203.613	87.1109	203.613	87.2535	203.613	87.0183	203.613	87.1676	203.613	86.9159	203.613	87.0683	203.613	86.8013	203.613	86.9539	203.613	86.6733	203.613	86.8233	203.613	86.5336	203.613	86.6772	203.613	86.3874	203.613	86.52	203.613	86.2437	203.613	86.3594	203.613	86.1125	203.613	86.2065	203.613	86.0037	203.613	86.073	203.613	85.9245	203.613	85.969	203.613	85.8793	203.613	85.9008	203.613	85.8709
210.938	87.396	210.938	87.3761	210.938	87.3938	210.938	87.3348	210.938	87.3707	210.938	87.2744	210.938	87.3293	210.938	87.1977	210.938	87.2731	210.938	87.1077	210.938	87.2052	210.938	87.0058	210.938	87.1271	210.938	86.8922	210.938	87.0383	210.938	86.7657	210.938	86.9359	210.938	86.6252	210.938	86.8164	210.938	86.4712	210.938	86.6771	210.938	86.3075	210.938	86.5186	210.938	86.1418	210.938	86.3459	210.938	85.9846	210.938	86.169	210.938	85.847	210.938	86.0008	210.938	85.7382	210.938	85.8546	210.938	85.6639	210.938	85.7405	210.938	85.6262	210.938	85.6638	210.938	85.626
218.262	87.416	218.262	87.3985	218.262	87.4111	218.262	87.3604	218.262	87.384	218.262	87.3044	218.262	87.3365	218.262	87.2336	218.262	87.2718	218.262	87.1503	218.262	87.1932	218.262	87.055	218.262	87.1034	218.262	86.946	218.262	87.0029	218.262	86.8201	218.262	86.8901	218.262	86.6745	218.262	86.7617	218.262	86.5085	218.262	86.6146	218.262	86.3262	218.262	86.4486	218.262	86.1371	218.262	86.268	218.262	85.9547	218.262	86.0824	218.262	85.7934	218.262	85.9057	218.262	85.6652	218.262	85.7525	218.262	85.5763	218.262	85.6342	218.262	85.5286	218.262	85.5569	218.262	85.522
225.586	87.3261	225.586	87.317	225.586	87.3094	225.586	87.2839	225.586	87.2676	225.586	87.2304	225.586	87.2031	225.586	87.1605	225.586	87.1202	225.586	87.0777	225.586	87.0238	225.586	86.9837	225.586	86.9182	225.586	86.878	225.586	86.8065	225.586	86.7584	225.586	86.6901	225.586	86.6226	225.586	86.5692	225.586	86.4706	225.586	86.4437	225.586	86.3064	225.586	86.3144	225.586	86.1391	225.586	86.1838	225.586	85.9812	225.586	86.0565	225.586	85.8463	225.586	85.9382	225.586	85.7445	225.586	85.8351	225.586	85.6804	225.586	85.752	225.586	85.6529	225.586	85.6922	225.586	85.6582
232.91	87.352	232.91	87.3334	232.91	87.3355	232.91	87.2825	232.91	87.2836	232.91	87.2044	232.91	87.1987	232.91	87.1052	232.91	87.0849	232.91	86.9908	232.91	86.947	232.91	86.8652	232.91	86.7896	232.91	86.7298	232.91	86.6163	232.91	86.5835	232.91	86.4301	232.91	86.4252	232.91	86.2349	232.91	86.2558	232.91	86.0369	232.91	86.0807	232.91	85.8457	232.91	85.9099	232.91	85.6741	232.91	85.7561	232.91	85.5349	232.91	85.6298	232.91	85.4368	232.91	85.5353	232.91	85.3812	232.91	85.4691	232.91	85.3619	232.91	85.4233	232.91	85.3683	232.91	85.3904
241.699	87.3414	241.699	87.3036	241.699	87.3425	241.699	87.2317	241.699	87.3067	241.699	87.1305	241.699	87.2366	241.699	87.006	241.699	87.1363	241.699	86.864	241.699	87.0099	241.699	86.709	241.699	86.8606	241.699	86.5429	241.699	86.6893	241.699	86.3662	241.699	86.4952	241.699	86.1791	241.699	86.2783	241.699	85.9838	241.699	86.042	241.699	85.7871	241.699	85.7964	241.699	85.6005	241.699	85.5591	241.699	85.4372	241.699	85.3523	241.699	85.3077	241.699	85.1958	241.699	85.2148	241.699	85.0992	241.699	85.1524	241.699	85.0579	241.699	85.1094	241.699	85.0565	241.699	85.0773
250.488	87.2881	250.488	87.2432	250.488	87.2913	250.488	87.1604	250.488	87.2515	250.488	87.0449	250.488	87.1696	250.488	86.9027	250.488	87.0492	250.488	86.7396	250.488	86.8957	250.488	86.5602	250.488	86.7148	250.488	86.3666	250.488	86.5119	250.488	86.1591	250.488	86.2907	250.488	85.9376	250.488	86.054	250.488	85.7044	250.488	85.806	250.488	85.4673	250.488	85.5546	250.488	85.2416	250.488	85.3129	250.488	85.0463	250.488	85.0984	250.488	84.8977	250.488	84.9279	250.488	84.8009	250.488	84.811	250.488	84.748	250.488	84.7454	250.488	84.7235	250.488	84.7185	250.488	84.7144
259.277	87.4246	259.277	87.3733	259.277	87.4432	259.277	87.2921	259.277	87.4276	259.277	87.1844	259.277	87.3776	259.277	87.0545	259.277	87.2936	259.277	86.9063	259.277	87.1766	259.277	86.7423	259.277	87.0271	259.277	86.5634	259.277	86.8439	259.277	86.3686	259.277	86.6248	259.277	86.156	259.277	86.368	259.277	85.925	259.277	86.0763	259.277	85.6795	259.277	85.7608	259.277	85.43	259.277	85.4436	259.277	85.1938	259.277	85.1552	259.277	84.991	259.277	84.9249	259.277	84.8371	259.277	84.7689	259.277	84.7356	259.277	84.6836	259.277	84.6781	259.277	84.6509	259.277	84.6518
268.066	86.9779	268.066	86.8948	268.066	87.0206	268.066	86.7766	268.066	87.0204	268.066	86.6303	268.066	86.9763	268.066	86.4647	268.066	86.8896	268.066	86.2892	268.066	86.7626	268.066	86.1122	268.066	86.5992	268.066	85.9398	268.066	86.4036	268.066	85.7748	268.066	86.1801	268.066	85.6174	268.066	85.9333	268.066	85.4665	268.066	85.6696	268.066	85.3222	268.066	85.3996	268.066	85.1872	268.066	85.1404	268.066	85.0663	268.066	84.9153	268.066	84.964	268.066	84.7477	268.066	84.881	268.066	84.6517	268.066	84.8131	268.066	84.6243	268.066	84.7527	268.066	84.6469	268.066	84.6955
276.855	87.1929	276.855	87.1455	276.855	87.1995	276.855	87.0468	276.855	87.176	276.855	86.8902	276.855	87.1295	276.855	86.6738	276.855	87.0609	276.855	86.4015	276.855	86.9643	276.855	86.0827	276.855	86.8301	276.855	85.7328	276.855	86.6501	276.855	85.374	276.855	86.4218	276.855	85.0331	276.855	86.1514	276.855	84.7373	276.855	85.8538	276.855	84.5071	276.855	85.5492	276.855	84.3495	276.855	85.2586	276.855	84.2575	276.855	84.9986	276.855	84.2159	276.855	84.779	276.855	84.2085	276.855	84.6031	276.855	84.2234	276.855	84.4693	276.855	84.2548	276.855	84.3717	276.855	84.3027
287.109	87.3756	287.109	87.3663	287.109	87.3316	287.109	87.3005	287.109	87.244	287.109	87.1787	287.109	87.1288	287.109	87.0031	287.109	87.005	287.109	86.775	287.109	86.8869	287.109	86.4952	287.109	86.7769	287.109	86.166	287.109	86.6618	287.109	85.7953	287.109	86.5176	287.109	85.4008	287.109	86.3196	287.109	85.0123	287.109	86.0531	287.109	84.6689	287.109	85.7228	287.109	84.4077	287.109	85.3554	287.109	84.2485	287.109	84.9962	287.109	84.1849	287.109	84.6944	287.109	84.188	287.109	84.4821	287.109	84.2212	287.109	84.3612	287.109	84.2557	287.109	84.306	287.109	84.2804
297.363	87.1114	297.363	87.0835	297.363	87.0815	297.363	87.0074	297.363	86.9902	297.363	86.8936	297.363	86.8428	297.363	86.7483	297.363	86.6556	297.363	86.5703	297.363	86.4514	297.363	86.3493	297.363	86.2517	297.363	86.0694	297.363	86.0649	297.363	85.7168	297.363	85.882	297.363	85.2924	297.363	85.6822	297.363	84.8235	297.363	85.4469	297.363	84.3687	297.363	85.1735	297.363	84.0046	297.363	84.8822	297.363	83.7897	297.363	84.6096	297.363	83.7296	297.363	84.3919	297.363	83.7786	297.363	84.2452	297.363	83.8744	297.363	84.1582	297.363	83.9704	297.363	84.1018	297.363	84.0456
307.617	86.8702	307.617	86.8648	307.617	86.8392	307.617	86.8263	307.617	86.7677	307.617	86.7573	307.617	86.6514	307.617	86.6607	307.617	86.4895	307.617	86.5392	307.617	86.2881	307.617	86.3921	307.617	86.061	307.617	86.2119	307.617	85.8261	307.617	85.9839	307.617	85.598	307.617	85.6919	307.617	85.3806	307.617	85.3313	307.617	85.1686	307.617	84.9243	307.617	84.9562	307.617	84.5282	307.617	84.7475	307.617	84.223	307.617	84.5619	307.617	84.0695	307.617	84.4261	307.617	84.0675	307.617	84.3557	307.617	84.1565	307.617	84.3402	307.617	84.2596	307.617	84.3441	307.617	84.3256
319.336	86.743	319.336	86.7393	319.336	86.6996	319.336	86.6882	319.336	86.6118	319.336	86.5907	319.336	86.4844	319.336	86.4478	319.336	86.3238	319.336	86.2598	319.336	86.1366	319.336	86.0264	319.336	85.9289	319.336	85.7486	319.336	85.705	319.336	85.4295	319.336	85.4667	319.336	85.0754	319.336	85.2131	319.336	84.6965	319.336	84.9437	319.336	84.3107	319.336	84.6646	319.336	83.9494	319.336	84.3937	319.336	83.6586	319.336	84.1609	319.336	83.4861	319.336	83.9949	319.336	83.4521	319.336	83.9038	319.336	83.529	319.336	83.8641	319.336	83.6538	319.336	83.8311	319.336	83.7646
329.59	86.6652	329.59	86.6673	329.59	86.6135	329.59	86.6239	329.59	86.5115	329.59	86.5417	329.59	86.362	329.59	86.4259	329.59	86.17	329.59	86.2767	329.59	85.9404	329.59	86.087	329.59	85.6784	329.59	85.8436	329.59	85.3903	329.59	85.5331	329.59	85.0846	329.59	85.1517	329.59	84.773	329.59	84.7134	329.59	84.4675	329.59	84.2559	329.59	84.1794	329.59	83.8365	329.59	83.9201	329.59	83.5152	329.59	83.704	329.59	83.328	329.59	83.5471	329.59	83.2692	329.59	83.4578	329.59	83.2961	329.59	83.4244	329.59	83.353	329.59	83.4158	329.59	83.3975
341.309	86.3236	341.309	86.3189	341.309	86.2742	341.309	86.2626	341.309	86.1784	341.309	86.1644	341.309	86.0525	341.309	86.0374	341.309	85.916	341.309	85.8915	341.309	85.7824	341.309	85.7279	341.309	85.6504	341.309	85.5371	341.309	85.502	341.309	85.3012	341.309	85.3105	341.309	85.0017	341.309	85.0551	341.309	84.6302	341.309	84.7351	341.309	84.1999	341.309	84.3763	341.309	83.7527	341.309	84.0249	341.309	83.3566	341.309	83.7298	341.309	83.0813	341.309	83.5189	341.309	82.9609	341.309	83.3875	341.309	82.9727	341.309	83.3059	341.309	83.0566	341.309	83.237	341.309	83.1547
353.027	85.8952	353.027	85.8999	353.027	85.8116	353.027	85.8411	353.027	85.6443	353.027	85.7408	353.027	85.4017	353.027	85.6211	353.027	85.1066	353.027	85.4958	353.027	84.7951	353.027	85.3634	353.027	84.5071	353.027	85.2059	353.027	84.2693	353.027	84.9954	353.027	84.079	353.027	84.7055	353.027	83.9037	353.027	84.3233	353.027	83.7	353.027	83.8593	353.027	83.4412	353.027	83.3532	353.027	83.1357	353.027	82.8733	353.027	82.8292	353.027	82.4985	353.027	82.5822	353.027	82.2825	353.027	82.4325	353.027	82.22	353.027	82.3687	353.027	82.2516	353.027	82.3418	353.027	82.3057
366.211	85.9185	366.211	85.8067	366.211	85.8922	366.211	85.5805	366.211	85.7183	366.211	85.2819	366.211	85.4005	366.211	84.9744	366.211	84.9592	366.211	84.7353	366.211	84.4375	366.211	84.6282	366.211	83.9052	366.211	84.6676	366.211	83.4472	366.211	84.8058	366.211	83.1328	366.211	84.9572	366.211	82.9768	366.211	85.0366	366.211	82.9327	366.211	84.9841	366.211	82.9258	366.211	84.7732	366.211	82.8951	366.211	84.4113	366.211	82.814	366.211	83.9393	366.211	82.6894	366.211	83.4271	366.211	82.5489	366.211	82.9604	366.211	82.4292	366.211	82.613	366.211	82.3715	366.211	82.4201
379.395	87.828	379.395	87.6824	379.395	87.8768	379.395	87.4351	379.395	87.8254	379.395	87.0763	379.395	87.6629	379.395	86.5984	379.395	87.3746	379.395	86.009	379.395	86.9475	379.395	85.3489	379.395	86.3792	379.395	84.7092	379.395	85.6893	379.395	84.2284	379.395	84.9352	379.395	84.0374	379.395	84.2254	379.395	84.169	379.395	83.7068	379.395	84.5308	379.395	83.4979	379.395	84.9769	379.395	83.6058	379.395	85.3861	379.395	83.9267	379.395	85.688	379.395	84.331	379.395	85.8554	379.395	84.7306	379.395	85.8893	379.395	85.0869	379.395	85.8075	379.395	85.3897	379.395	85.634
392.578	87.1939	392.578	87.1003	392.578	87.2122	392.578	86.9323	392.578	87.1542	392.578	86.69	392.578	87.018	392.578	86.3713	392.578	86.7983	392.578	85.972	392.578	86.4853	392.578	85.4896	392.578	86.0667	392.578	84.9319	392.578	85.5344	392.578	84.3318	392.578	84.8986	392.578	83.7634	392.578	84.2063	392.578	83.3418	392.578	83.5586	392.578	83.1809	392.578	83.1023	392.578	83.3144	392.578	82.9638	392.578	83.6617	392.578	83.154	392.578	84.0857	392.578	83.5578	392.578	84.4688	392.578	84.021	392.578	84.7428	392.578	84.4284	392.578	84.8796	392.578	84.7196	392.578	84.8719
405.762	86.798	405.762	86.7044	405.762	86.7993	405.762	86.5219	405.762	86.7089	405.762	86.2547	405.762	86.5312	405.762	85.9056	405.762	86.274	405.762	85.4741	405.762	85.9451	405.762	84.9592	405.762	85.548	405.762	84.368	405.762	85.0792	405.762	83.7323	405.762	84.5327	405.762	83.1272	405.762	83.9169	405.762	82.6744	405.762	83.2862	405.762	82.4985	405.762	82.7679	405.762	82.6422	405.762	82.533	405.762	83.0288	405.762	82.675	405.762	83.5192	405.762	83.1104	405.762	83.9884	405.762	83.6502	405.762	84.3543	405.762	84.1309	405.762	84.5699	405.762	84.4621	405.762	84.6097
420.41	87.0498	420.41	86.9357	420.41	87.0814	420.41	86.7433	420.41	87.0276	420.41	86.4785	420.41	86.8843	420.41	86.1465	420.41	86.6448	420.41	85.7466	420.41	86.2982	420.41	85.2662	420.41	85.8309	420.41	84.6814	420.41	85.2287	420.41	83.9702	420.41	84.4825	420.41	83.1433	420.41	83.5993	420.41	82.2957	420.41	82.6256	420.41	81.6481	420.41	81.6908	420.41	81.4637	420.41	81.0417	420.41	81.7963	420.41	80.9416	420.41	82.4139	420.41	81.4035	420.41	83.0338	420.41	82.1473	420.41	83.4883	420.41	82.8693	420.41	83.7118	420.41	83.4011	420.41	83.6848
435.059	86.6782	435.059	86.6198	435.059	86.6724	435.059	86.4998	435.059	86.603	435.059	86.3198	435.059	86.4758	435.059	86.0774	435.059	86.2996	435.059	85.7666	435.059	86.0779	435.059	85.3794	435.059	85.7984	435.059	84.9088	435.059	85.4287	435.059	84.3523	435.059	84.925	435.059	83.7213	435.059	84.2558	435.059	83.0602	435.059	83.4382	435.059	82.4737	435.059	82.584	435.059	82.1244	435.059	81.9208	435.059	82.1423	435.059	81.6928	435.059	82.4967	435.059	81.9458	435.059	83.0035	435.059	82.4847	435.059	83.4592	435.059	83.0637	435.059	83.7282	435.059	83.5149	435.059	83.7489
451.172	86.7396	451.172	86.6504	451.172	86.7351	451.172	86.4687	451.172	86.6403	451.172	86.1995	451.172	86.4609	451.172	85.8479	451.172	86.2037	451.172	85.4124	451.172	85.8741	451.172	84.8787	451.172	85.4723	451.172	84.2229	451.172	84.9883	451.172	83.4291	451.172	84.4008	451.172	82.526	451.172	83.6869	451.172	81.644	451.172	82.8515	451.172	81.0489	451.172	81.9828	451.172	81.0102	451.172	81.3102	451.172	81.5209	451.172	81.1397	451.172	82.294	451.172	81.5631	451.172	83.0393	451.172	82.3227	451.172	83.5956	451.172	83.0821	451.172	83.8958	451.172	83.6379	451.172	83.9135
465.82	86.7598	465.82	86.7	465.82	86.7425	465.82	86.5599	465.82	86.6524	465.82	86.341	465.82	86.4929	465.82	86.0494	465.82	86.265	465.82	85.6899	465.82	85.9669	465.82	85.256	465.82	85.5918	465.82	84.7203	465.82	85.1235	465.82	84.0377	465.82	84.5341	465.82	83.1666	465.82	83.7891	465.82	82.1147	465.82	82.8707	465.82	81.023	465.82	81.8285	465.82	80.249	465.82	80.8577	465.82	80.196	465.82	80.3116	465.82	80.826	465.82	80.44	465.82	81.6855	465.82	81.0789	465.82	82.3917	465.82	81.8467	465.82	82.7751	465.82	82.4641	465.82	82.7936
483.398	86.1174	483.398	86.0335	483.398	86.152	483.398	85.9129	483.398	86.1282	483.398	85.7645	483.398	86.0417	483.398	85.5868	483.398	85.89	483.398	85.3613	483.398	85.6657	483.398	85.0513	483.398	85.352	483.398	84.6064	483.398	84.923	483.398	83.9741	483.398	84.3499	483.398	83.126	483.398	83.6113	483.398	82.1096	483.398	82.7104	483.398	81.1297	483.398	81.7128	483.398	80.5561	483.398	80.8131	483.398	80.6398	483.398	80.3479	483.398	81.2065	483.398	80.5485	483.398	81.8905	483.398	81.2329	483.398	82.4509	483.398	81.9999	483.398	82.7818	483.398	82.5686	483.398	82.8317
499.512	86.0387	499.512	85.9728	499.512	86.0167	499.512	85.8318	499.512	85.9088	499.512	85.6397	499.512	85.7323	499.512	85.421	499.512	85.5151	499.512	85.1843	499.512	85.282	499.512	84.9068	499.512	85.0326	499.512	84.5327	499.512	84.7252	499.512	83.9869	499.512	84.2831	499.512	83.2021	499.512	83.6232	499.512	82.162	499.512	82.6969	499.512	80.9857	499.512	81.5551	499.512	80.0434	499.512	80.4518	499.512	79.8352	499.512	79.8606	499.512	80.4048	499.512	80.069	499.512	81.2615	499.512	80.7901	499.512	81.9746	499.512	81.5647	499.512	82.3701	499.512	82.1379	499.512	82.4183
517.09	85.7457	517.09	85.6301	517.09	85.7729	517.09	85.4244	517.09	85.7201	517.09	85.1372	517.09	85.5996	517.09	84.7864	517.09	85.4259	517.09	84.3939	517.09	85.2129	517.09	83.9739	517.09	84.9637	517.09	83.5202	517.09	84.6546	517.09	82.9994	517.09	84.2257	517.09	82.3623	517.09	83.593	517.09	81.5814	517.09	82.6841	517.09	80.7271	517.09	81.5055	517.09	80.0625	517.09	80.2703	517.09	79.972	517.09	79.5098	517.09	80.5384	517.09	79.6943	517.09	81.3903	517.09	80.5635	517.09	82.1257	517.09	81.5232	517.09	82.5437	517.09	82.2332	517.09	82.5818
536.133	85.2673	536.133	85.2023	536.133	85.207	536.133	85.0318	536.133	85.0238	536.133	84.7951	536.133	84.7396	536.133	84.5375	536.133	84.3925	536.133	84.2814	536.133	84.0271	536.133	83.997	536.133	83.6766	536.133	83.6015	536.133	83.3376	536.133	82.9915	536.133	82.9574	536.133	82.0891	536.133	82.4484	536.133	80.8977	536.133	81.732	536.133	79.6002	536.133	80.8143	536.133	78.6799	536.133	79.9064	536.133	78.6912	536.133	79.4854	536.133	79.5613	536.133	79.8965	536.133	80.7108	536.133	80.8424	536.133	81.7084	536.133	81.7839	536.133	82.3654	536.133	82.4083	536.133	82.6076
555.176	85.4593	555.176	85.3301	555.176	85.4824	555.176	85.1019	555.176	85.4029	555.176	84.7925	555.176	85.2322	555.176	84.4288	555.176	84.9823	555.176	84.0386	555.176	84.6558	555.176	83.6297	555.176	84.236	555.176	83.1636	555.176	83.686	555.176	82.546	555.176	82.9543	555.176	81.6511	555.176	81.9812	555.176	80.381	555.176	80.7046	555.176	78.8089	555.176	79.099	555.176	77.5161	555.176	77.3687	555.176	77.5431	555.176	76.3992	555.176	78.8032	555.176	77.1682	555.176	80.2284	555.176	78.8931	555.176	81.2714	555.176	80.4414	555.176	81.8278	555.176	81.4479	555.176	81.8945
574.219	84.9657	574.219	84.8715	574.219	84.9485	574.219	84.6782	574.219	84.83	574.219	84.4182	574.219	84.6383	574.219	84.1303	574.219	84.4109	574.219	83.8364	574.219	84.1789	574.219	83.517	574.219	83.9436	574.219	83.1041	574.219	83.6571	574.219	82.4949	574.219	83.2217	574.219	81.5772	574.219	82.5143	574.219	80.2634	574.219	81.4245	574.219	78.5773	574.219	79.9198	574.219	76.945	574.219	78.2044	574.219	76.4834	574.219	76.9835	574.219	77.6141	574.219	77.0827	574.219	79.2047	574.219	78.2087	574.219	80.423	574.219	79.5072	574.219	81.045	574.219	80.5172	574.219	81.0595
594.727	84.5679	594.727	84.4213	594.727	84.5679	594.727	84.154	594.727	84.4184	594.727	83.8154	594.727	84.1421	594.727	83.4701	594.727	83.7969	594.727	83.1684	594.727	83.4694	594.727	82.9083	594.727	83.2285	594.727	82.6243	594.727	83.0551	594.727	82.2095	594.727	82.8207	594.727	81.5398	594.727	82.3431	594.727	80.4902	594.727	81.4528	594.727	78.9792	594.727	80.0452	594.727	77.1749	594.727	78.2101	594.727	76.0007	594.727	76.6419	594.727	76.565	594.727	76.6084	594.727	78.0808	594.727	77.8936	594.727	79.3945	594.727	79.2312	594.727	80.1716	594.727	80.0892	594.727	80.3988
615.234	84.037	615.234	83.9088	615.234	84.0267	615.234	83.6336	615.234	83.9023	615.234	83.2342	615.234	83.6932	615.234	82.7798	615.234	83.4233	615.234	82.3711	615.234	83.1039	615.234	82.0657	615.234	82.7367	615.234	81.7914	615.234	82.3175	615.234	81.3549	615.234	81.8174	615.234	80.5372	615.234	81.1472	615.234	79.1815	615.234	80.1483	615.234	77.299	615.234	78.6455	615.234	75.4013	615.234	76.6344	615.234	74.8508	615.234	74.9079	615.234	76.0993	615.234	75.1934	615.234	77.8325	615.234	77.0071	615.234	79.2113	615.234	78.705	615.234	80.0201	615.234	79.7855	615.234	80.2166
637.207	83.3862	637.207	83.2204	637.207	83.3995	637.207	82.9238	637.207	83.2583	637.207	82.5351	637.207	82.9965	637.207	82.1285	637.207	82.6952	637.207	81.8178	637.207	82.4648	637.207	81.6826	637.207	82.3703	637.207	81.6443	637.207	82.3478	637.207	81.4607	637.207	82.2156	637.207	80.8418	637.207	81.7617	637.207	79.5271	637.207	80.8016	637.207	77.3293	637.207	79.1833	637.207	74.5669	637.207	76.8417	637.207	73.6564	637.207	74.3277	637.207	75.7392	637.207	73.9579	637.207	77.9662	637.207	76.073	637.207	79.4174	637.207	78.207	637.207	80.1377	637.207	79.581	637.207	80.1984
659.18	85.2417	659.18	85.0548	659.18	85.1888	659.18	84.6407	659.18	84.9088	659.18	84.0602	659.18	84.4341	659.18	83.4335	659.18	83.8458	659.18	82.914	659.18	83.3128	659.18	82.6188	659.18	83.0467	659.18	82.5385	659.18	83.1102	659.18	82.4954	659.18	83.2942	659.18	82.1967	659.18	83.2551	659.18	81.3145	659.18	82.673	659.18	79.4964	659.18	81.2617	659.18	76.3606	659.18	78.7182	659.18	72.6543	659.18	75.002	659.18	73.9768	659.18	73.1996	659.18	77.4786	659.18	75.9777	659.18	79.6521	659.18	78.584	659.18	80.6425	659.18	80.0945	659.18	80.7495
682.617	87.429	682.617	87.2792	682.617	87.3701	682.617	86.9038	682.617	87.0989	682.617	86.2861	682.617	86.6013	682.617	85.4663	682.617	85.888	682.617	84.6194	682.617	85.0528	682.617	84.054	682.617	84.3282	682.617	83.9571	682.617	83.9983	682.617	84.1286	682.617	84.0895	682.617	84.164	682.617	84.2723	682.617	83.7254	682.617	84.142	682.617	82.5638	682.617	83.3817	682.617	80.4695	682.617	81.7161	682.617	77.5711	682.617	78.946	682.617	76.1785	682.617	76.149	682.617	78.3006	682.617	77.2537	682.617	80.6601	682.617	80.0342	682.617	82.0294	682.617	81.7898	682.617	82.4087
707.52	88.0083	707.52	87.8718	707.52	87.9562	707.52	87.5579	707.52	87.7021	707.52	87.0618	707.52	87.2493	707.52	86.3783	707.52	86.6257	707.52	85.5508	707.52	85.8838	707.52	84.7221	707.52	85.1142	707.52	84.1013	707.52	84.4632	707.52	83.7665	707.52	84.0686	707.52	83.4959	707.52	83.8807	707.52	82.8838	707.52	83.5979	707.52	81.5276	707.52	82.8305	707.52	79.1233	707.52	81.2594	707.52	76.1469	707.52	78.835	707.52	76.1107	707.52	76.8063	707.52	78.9108	707.52	77.7336	707.52	81.111	707.52	79.9859	707.52	82.222	707.52	81.6233	707.52	82.3693
732.422	87.6017	732.422	87.4454	732.422	87.541	732.422	87.0762	732.422	87.2671	732.422	86.5095	732.422	86.7862	732.422	85.7762	732.422	86.117	732.422	84.9463	732.422	85.3288	732.422	84.1753	732.422	84.5848	732.422	83.669	732.422	84.0949	732.422	83.4604	732.422	83.9114	732.422	83.2743	732.422	83.8127	732.422	82.7299	732.422	83.4662	732.422	81.5317	732.422	82.5856	732.422	79.4926	732.422	80.9298	732.422	76.8229	732.422	78.342	732.422	75.631	732.422	75.6532	732.422	77.5552	732.422	76.1842	732.422	79.7815	732.422	78.7679	732.422	81.0737	732.422	80.6089	732.422	81.3537
757.324	86.9597	757.324	86.8089	757.324	86.9489	757.324	86.4813	757.324	86.7502	757.324	85.9502	757.324	86.3129	757.324	85.2356	757.324	85.6125	757.324	84.4497	757.324	84.715	757.324	83.7855	757.324	83.8323	757.324	83.4085	757.324	83.2656	757.324	83.2923	757.324	83.136	757.324	83.1749	757.324	83.1942	757.324	82.6849	757.324	83.017	757.324	81.4641	757.324	82.2291	757.324	79.2454	757.324	80.5437	757.324	76.353	757.324	77.9177	757.324	75.518	757.324	75.739	757.324	77.6449	757.324	76.7489	757.324	79.6355	757.324	78.9321	757.324	80.7118	757.324	80.3824	757.324	80.9502
785.156	87.1471	785.156	86.9914	785.156	87.0585	785.156	86.5953	785.156	86.732	785.156	85.9597	785.156	86.1915	785.156	85.0974	785.156	85.4669	785.156	84.0942	785.156	84.5955	785.156	83.1892	785.156	83.6808	785.156	82.7058	785.156	82.9623	785.156	82.683	785.156	82.6809	785.156	82.7236	785.156	82.717	785.156	82.3362	785.156	82.5972	785.156	81.1405	785.156	81.8519	785.156	78.8329	785.156	80.1344	785.156	75.5246	785.156	77.233	785.156	74.3582	785.156	74.1821	785.156	77.1433	785.156	75.1901	785.156	79.6202	785.156	78.142	785.156	80.8743	785.156	80.1391	785.156	81.026
811.523	86.8192	811.523	86.652	811.523	86.7986	811.523	86.3054	811.523	86.5576	811.523	85.7524	811.523	86.0673	811.523	84.9535	811.523	85.324	811.523	83.918	811.523	84.3645	811.523	82.8031	811.523	83.2929	811.523	81.971	811.523	82.3314	811.523	81.7061	811.523	81.7788	811.523	81.7489	811.523	81.7024	811.523	81.518	811.523	81.7356	811.523	80.5565	811.523	81.3568	811.523	78.5852	811.523	80.1301	811.523	75.7303	811.523	77.7824	811.523	74.4377	811.523	75.0642	811.523	76.7387	811.523	75.4621	811.523	79.1106	811.523	78.0045	811.523	80.3674	811.523	79.817	811.523	80.5815
840.82	87.2319	840.82	87.0808	840.82	87.1379	840.82	86.6468	840.82	86.8452	840.82	85.9088	840.82	86.3682	840.82	84.8647	840.82	85.6418	840.82	83.5667	840.82	84.5445	840.82	82.237	840.82	83.0514	840.82	81.3831	840.82	81.558	840.82	81.3851	840.82	80.9756	840.82	81.8039	840.82	81.4314	840.82	81.863	840.82	81.8864	840.82	81.0277	840.82	81.5557	840.82	78.907	840.82	80.0482	840.82	75.3047	840.82	77.0686	840.82	73.2461	840.82	73.4862	840.82	76.3802	840.82	74.7591	840.82	79.1916	840.82	78.1416	840.82	80.64	840.82	80.1952	840.82	80.9648
870.117	86.9302	870.117	86.7578	870.117	86.9775	870.117	86.4735	870.117	86.8283	870.117	86.0156	870.117	86.4067	870.117	85.2663	870.117	85.6834	870.117	84.1037	870.117	84.685	870.117	82.5252	870.117	83.473	870.117	80.9257	870.117	82.1779	870.117	80.1775	870.117	81.1387	870.117	80.4229	870.117	80.7866	870.117	80.6717	870.117	80.9334	870.117	80.1208	870.117	80.7962	870.117	78.3363	870.117	79.7377	870.117	75.1602	870.117	77.457	870.117	72.9271	870.117	74.5338	870.117	75.4757	870.117	74.2658	870.117	78.2195	870.117	76.6556	870.117	79.5505	870.117	78.6348	870.117	79.6275
900.879	87.5937	900.879	87.4594	900.879	87.5252	900.879	87.1114	900.879	87.2778	900.879	86.5367	900.879	86.8688	900.879	85.7022	900.879	86.2619	900.879	84.5609	900.879	85.3587	900.879	83.1105	900.879	84.0798	900.879	81.5669	900.879	82.556	900.879	80.5335	900.879	81.3463	900.879	80.3648	900.879	81.0071	900.879	80.3511	900.879	81.1121	900.879	79.5521	900.879	80.791	900.879	77.3077	900.879	79.4553	900.879	73.2618	900.879	76.7083	900.879	72.3278	900.879	73.4959	900.879	76.6949	900.879	75.3475	900.879	79.6114	900.879	78.8494	900.879	81.052	900.879	80.8141	900.879	81.4475
933.105	87.529	933.105	87.3373	933.105	87.5798	933.105	87.0456	933.105	87.43	933.105	86.6206	933.105	87.0391	933.105	85.9532	933.105	86.3809	933.105	84.9259	933.105	85.4287	933.105	83.5168	933.105	84.1759	933.105	81.9806	933.105	82.7477	933.105	81.0163	933.105	81.6155	933.105	81.0505	933.105	81.3845	933.105	81.3246	933.105	81.7525	933.105	80.813	933.105	81.7213	933.105	78.7128	933.105	80.5064	933.105	73.8729	933.105	77.4436	933.105	68.4061	933.105	72.3789	933.105	74.8696	933.105	73.2277	933.105	78.7585	933.105	77.5233	933.105	80.4809	933.105	79.8939	933.105	80.8042
965.332	87.81	965.332	87.6749	965.332	87.7646	965.332	87.356	965.332	87.566	965.332	86.8757	965.332	87.2372	965.332	86.2208	965.332	86.7542	965.332	85.2877	965.332	86.0077	965.332	83.955	965.332	84.8359	965.332	82.3198	965.332	83.1788	965.332	81.0388	965.332	81.4298	965.332	80.8068	965.332	80.6311	965.332	81.016	965.332	80.9776	965.332	80.6628	965.332	81.2339	965.332	79.1708	965.332	80.4239	965.332	75.9457	965.332	77.9229	965.332	71.4294	965.332	73.8113	965.332	74.4992	965.332	74.367	965.332	78.7027	965.332	78.0856	965.332	80.6523	965.332	80.2187	965.332	81.0326
1,000.49	88.1274	1,000.49	87.9334	1,000.49	88.133	1,000.49	87.6105	1,000.49	87.9166	1,000.49	87.1389	1,000.49	87.5064	1,000.49	86.4162	1,000.49	86.9093	1,000.49	85.3575	1,000.49	86.0359	1,000.49	83.9541	1,000.49	84.7556	1,000.49	82.3167	1,000.49	83.093	1,000.49	80.9163	1,000.49	81.5257	1,000.49	80.5389	1,000.49	80.8564	1,000.49	80.9427	1,000.49	80.9946	1,000.49	80.9508	1,000.49	80.9559	1,000.49	79.7262	1,000.49	79.9428	1,000.49	76.7047	1,000.49	77.4131	1,000.49	72.3577	1,000.49	73.2533	1,000.49	73.8346	1,000.49	72.4062	1,000.49	77.7308	1,000.49	76.5087	1,000.49	79.8692	1,000.49	79.3161	1,000.49	80.3833
1,035.64	87.9312	1,035.64	87.787	1,035.64	87.8224	1,035.64	87.4205	1,035.64	87.5191	1,035.64	86.9258	1,035.64	87.0871	1,035.64	86.313	1,035.64	86.5142	1,035.64	85.4267	1,035.64	85.6901	1,035.64	84.0655	1,035.64	84.467	1,035.64	82.2257	1,035.64	82.7856	1,035.64	80.4404	1,035.64	80.9174	1,035.64	79.7133	1,035.64	79.7463	1,035.64	79.942	1,035.64	79.7844	1,035.64	79.8868	1,035.64	79.9748	1,035.64	78.7	1,035.64	79.2011	1,035.64	76.1532	1,035.64	76.9587	1,035.64	74.1154	1,035.64	73.875	1,035.64	76.0516	1,035.64	74.4141	1,035.64	78.6402	1,035.64	77.5894	1,035.64	80.1215	1,035.64	79.7049	1,035.64	80.4899
1,072.27	87.4632	1,072.27	87.2701	1,072.27	87.4399	1,072.27	86.9401	1,072.27	87.1565	1,072.27	86.4893	1,072.27	86.6261	1,072.27	85.7722	1,072.27	85.9074	1,072.27	84.6144	1,072.27	84.9982	1,072.27	83.052	1,072.27	83.7413	1,072.27	81.472	1,072.27	82.0595	1,072.27	80.5012	1,072.27	80.5302	1,072.27	80.3029	1,072.27	80.0763	1,072.27	80.1576	1,072.27	80.1058	1,072.27	79.1531	1,072.27	79.4185	1,072.27	76.7637	1,072.27	77.4469	1,072.27	73.9208	1,072.27	74.1657	1,072.27	74.39	1,072.27	72.2934	1,072.27	76.895	1,072.27	75.0039	1,072.27	78.9126	1,072.27	77.8139	1,072.27	80.0568	1,072.27	79.5037	1,072.27	80.244
1,108.89	86.6093	1,108.89	86.4726	1,108.89	86.5428	1,108.89	86.2054	1,108.89	86.3051	1,108.89	85.8948	1,108.89	85.9857	1,108.89	85.4414	1,108.89	85.596	1,108.89	84.5074	1,108.89	84.9464	1,108.89	82.7367	1,108.89	83.6752	1,108.89	80.2653	1,108.89	81.4628	1,108.89	78.9047	1,108.89	78.8042	1,108.89	79.6921	1,108.89	78.2091	1,108.89	80.1078	1,108.89	79.4313	1,108.89	78.5978	1,108.89	79.6892	1,108.89	73.7337	1,108.89	77.7522	1,108.89	66.7441	1,108.89	71.6193	1,108.89	75.1933	1,108.89	68.3756	1,108.89	79.3586	1,108.89	76.9647	1,108.89	81.3152	1,108.89	80.3156	1,108.89	82.1176	1,108.89	81.6924	1,108.89	82.1926
1,148.44	86.2989	1,148.44	86.0506	1,148.44	86.2692	1,148.44	85.7024	1,148.44	85.9653	1,148.44	85.4898	1,148.44	85.5806	1,148.44	85.3951	1,148.44	85.3842	1,148.44	84.9967	1,148.44	85.3272	1,148.44	83.6759	1,148.44	84.8118	1,148.44	80.6907	1,148.44	83.0199	1,148.44	76.1027	1,148.44	79.2014	1,148.44	77.6645	1,148.44	76.1288	1,148.44	81.1226	1,148.44	79.676	1,148.44	81.7726	1,148.44	81.9201	1,148.44	79.2756	1,148.44	81.3975	1,148.44	71.6736	1,148.44	77.3074	1,148.44	74.5439	1,148.44	68.9571	1,148.44	80.8235	1,148.44	77.185	1,148.44	83.5872	1,148.44	81.6832	1,148.44	84.7193	1,148.44	83.8395	1,148.44	84.7721
1,189.45	87.0529	1,189.45	86.6335	1,189.45	87.0683	1,189.45	85.9138	1,189.45	86.6139	1,189.45	85.0916	1,189.45	85.7975	1,189.45	84.5704	1,189.45	85.0279	1,189.45	84.4653	1,189.45	84.6976	1,189.45	84.0404	1,189.45	84.4851	1,189.45	82.1446	1,189.45	83.4946	1,189.45	77.0621	1,189.45	80.6506	1,189.45	69.9663	1,189.45	74.5031	1,189.45	78.3339	1,189.45	75.8067	1,189.45	81.557	1,189.45	80.8422	1,189.45	81.2812	1,189.45	82.0912	1,189.45	77.5888	1,189.45	80.2211	1,189.45	71.8929	1,189.45	74.1471	1,189.45	77.3787	1,189.45	72.5129	1,189.45	81.6378	1,189.45	79.9151	1,189.45	83.621	1,189.45	83.0971	1,189.45	84.099
1,230.47	87.5254	1,230.47	87.0733	1,230.47	87.4593	1,230.47	86.06	1,230.47	86.956	1,230.47	84.7194	1,230.47	86.0642	1,230.47	83.8005	1,230.47	84.9411	1,230.47	83.8156	1,230.47	84.2108	1,230.47	84.0255	1,230.47	84.2643	1,230.47	83.3469	1,230.47	84.1319	1,230.47	80.7791	1,230.47	82.5596	1,230.47	74.8192	1,230.47	78.3463	1,230.47	74.9333	1,230.47	73.3763	1,230.47	79.9866	1,230.47	78.4188	1,230.47	81.0032	1,230.47	81.0494	1,230.47	78.6893	1,230.47	80.4075	1,230.47	72.3198	1,230.47	75.7765	1,230.47	74.6488	1,230.47	67.7913	1,230.47	80.5677	1,230.47	77.5667	1,230.47	83.1187	1,230.47	81.836	1,230.47	83.4627
1,274.41	88.637	1,274.41	88.3181	1,274.41	88.4776	1,274.41	87.4553	1,274.41	87.8502	1,274.41	85.9956	1,274.41	86.7373	1,274.41	84.1953	1,274.41	85.1902	1,274.41	83.0249	1,274.41	83.7331	1,274.41	83.1733	1,274.41	83.3917	1,274.41	83.4277	1,274.41	83.6934	1,274.41	82.2456	1,274.41	83.0272	1,274.41	78.0749	1,274.41	80.1974	1,274.41	71.294	1,274.41	73.9925	1,274.41	78.1818	1,274.41	76.3697	1,274.41	80.9925	1,274.41	80.8325	1,274.41	79.9242	1,274.41	81.334	1,274.41	74.9181	1,274.41	77.9879	1,274.41	72.5812	1,274.41	71.5872	1,274.41	79.0304	1,274.41	77.2809	1,274.41	82.1546	1,274.41	81.2898	1,274.41	82.7779
1,319.82	89.0391	1,319.82	88.7209	1,319.82	89.0106	1,319.82	88.0947	1,319.82	88.5355	1,319.82	87.03	1,319.82	87.5803	1,319.82	85.3614	1,319.82	86.1549	1,319.82	83.4676	1,319.82	84.3481	1,319.82	82.6939	1,319.82	82.9672	1,319.82	82.8889	1,319.82	82.9864	1,319.82	82.1762	1,319.82	83.0115	1,319.82	79.1413	1,319.82	81.3179	1,319.82	73.6467	1,319.82	77.3602	1,319.82	77.5014	1,319.82	76.959	1,319.82	81.0963	1,319.82	80.7998	1,319.82	81.0314	1,319.82	81.6898	1,319.82	76.6836	1,319.82	79.0833	1,319.82	65.7215	1,319.82	70.9671	1,319.82	76.6822	1,319.82	72.1625	1,319.82	80.7004	1,319.82	79.2263	1,319.82	81.4346
1,366.7	88.629	1,366.7	88.38	1,366.7	88.6136	1,366.7	87.8352	1,366.7	88.3052	1,366.7	86.9322	1,366.7	87.5705	1,366.7	85.5109	1,366.7	86.2678	1,366.7	83.4699	1,366.7	84.4267	1,366.7	81.5996	1,366.7	82.3757	1,366.7	81.1096	1,366.7	81.0181	1,366.7	80.782	1,366.7	80.6894	1,366.7	78.9294	1,366.7	79.7397	1,366.7	74.9022	1,366.7	76.331	1,366.7	75.3975	1,366.7	73.0412	1,366.7	78.8754	1,366.7	77.8247	1,366.7	79.2384	1,366.7	80.0249	1,366.7	75.4021	1,366.7	78.8172	1,366.7	54.433	1,366.7	72.1688	1,366.7	74.1657	1,366.7	68.0872	1,366.7	78.7258	1,366.7	77.3201	1,366.7	79.5386
1,413.57	88.0565	1,413.57	87.7826	1,413.57	87.9624	1,413.57	87.3062	1,413.57	87.4972	1,413.57	86.5355	1,413.57	86.7303	1,413.57	85.1836	1,413.57	85.5726	1,413.57	83.4091	1,413.57	83.9417	1,413.57	81.7232	1,413.57	81.9742	1,413.57	80.459	1,413.57	80.3455	1,413.57	79.6805	1,413.57	79.6179	1,413.57	78.241	1,413.57	78.3744	1,413.57	75.0581	1,413.57	75.0174	1,413.57	74.6451	1,413.57	72.4106	1,413.57	77.3662	1,413.57	75.6848	1,413.57	77.7243	1,413.57	77.6577	1,413.57	73.5902	1,413.57	76.5564	1,413.57	59.9766	1,413.57	69.1474	1,413.57	75.2625	1,413.57	66.0535	1,413.57	77.9572	1,413.57	74.9464	1,413.57	77.4845
1,463.38	87.6157	1,463.38	87.228	1,463.38	87.5854	1,463.38	86.5456	1,463.38	87.0574	1,463.38	85.5479	1,463.38	86.1796	1,463.38	84.078	1,463.38	85.1191	1,463.38	82.2171	1,463.38	83.7397	1,463.38	80.6496	1,463.38	81.9389	1,463.38	79.9805	1,463.38	80.1924	1,463.38	79.5793	1,463.38	79.0975	1,463.38	77.6334	1,463.38	77.8469	1,463.38	72.7835	1,463.38	74.5306	1,463.38	73.4854	1,463.38	70.2854	1,463.38	76.634	1,463.38	74.3685	1,463.38	76.4952	1,463.38	76.8103	1,463.38	72.4222	1,463.38	75.8512	1,463.38	42.7396	1,463.38	69.8707	1,463.38	73.0073	1,463.38	61.4051	1,463.38	77.1456	1,463.38	74.0887	1,463.38	77.3767
1,516.11	87.1041	1,516.11	86.8243	1,516.11	87.1468	1,516.11	86.1931	1,516.11	86.8341	1,516.11	85.2374	1,516.11	86.0176	1,516.11	83.9309	1,516.11	84.8579	1,516.11	81.9315	1,516.11	83.5536	1,516.11	79.581	1,516.11	81.9259	1,516.11	78.5194	1,516.11	79.9775	1,516.11	78.2442	1,516.11	78.9983	1,516.11	76.2183	1,516.11	78.614	1,516.11	70.4828	1,516.11	76.1446	1,516.11	67.1438	1,516.11	70.3954	1,516.11	73.8272	1,516.11	72.3559	1,516.11	75.3708	1,516.11	76.2477	1,516.11	73.0125	1,516.11	75.8162	1,516.11	63.1959	1,516.11	70.3436	1,516.11	69.9857	1,516.11	56.3085	1,516.11	75.6503	1,516.11	72.5298	1,516.11	76.1823
1,568.85	86.6823	1,568.85	86.4945	1,568.85	86.6636	1,568.85	85.8973	1,568.85	86.3915	1,568.85	84.9927	1,568.85	85.6067	1,568.85	83.8966	1,568.85	84.4161	1,568.85	82.2603	1,568.85	83.0671	1,568.85	80.0678	1,568.85	81.3654	1,568.85	78.0956	1,568.85	79.2468	1,568.85	76.9596	1,568.85	77.8145	1,568.85	76.1291	1,568.85	77.4245	1,568.85	73.7452	1,568.85	75.9504	1,568.85	68.2702	1,568.85	72.2813	1,568.85	72.7362	1,568.85	72.2253	1,568.85	75.3867	1,568.85	76.0947	1,568.85	73.4598	1,568.85	76.176	1,568.85	65.614	1,568.85	71.7456	1,568.85	63.7891	1,568.85	61.5041	1,568.85	73.6511	1,568.85	71.743	1,568.85	75.38
1,624.51	86.3815	1,624.51	86.0714	1,624.51	86.3334	1,624.51	85.459	1,624.51	85.7843	1,624.51	84.5555	1,624.51	84.7924	1,624.51	83.4161	1,624.51	83.736	1,624.51	81.8195	1,624.51	82.5135	1,624.51	79.6843	1,624.51	80.4912	1,624.51	77.5061	1,624.51	77.998	1,624.51	76.5104	1,624.51	76.224	1,624.51	76.8191	1,624.51	75.7597	1,624.51	75.6702	1,624.51	75.1737	1,624.51	71.5463	1,624.51	72.0891	1,624.51	71.8567	1,624.51	71.1185	1,624.51	74.8867	1,624.51	75.1375	1,624.51	73.699	1,624.51	75.1388	1,624.51	66.4707	1,624.51	69.8026	1,624.51	63.4178	1,624.51	61.7665	1,624.51	72.7215	1,624.51	72.5378	1,624.51	74.9247
1,681.64	85.6126	1,681.64	85.4185	1,681.64	85.5339	1,681.64	84.92	1,681.64	85.0285	1,681.64	84.0155	1,681.64	84.0307	1,681.64	82.8356	1,681.64	82.7966	1,681.64	81.2835	1,681.64	81.3116	1,681.64	79.293	1,681.64	79.2939	1,681.64	77.5256	1,681.64	77.273	1,681.64	75.9969	1,681.64	75.4244	1,681.64	75.3055	1,681.64	73.9203	1,681.64	75.0062	1,681.64	73.3325	1,681.64	72.5793	1,681.64	70.876	1,681.64	71.5365	1,681.64	68.1277	1,681.64	74.4708	1,681.64	72.7784	1,681.64	73.6578	1,681.64	73.2191	1,681.64	68.0571	1,681.64	68.8015	1,681.64	63.2744	1,681.64	62.368	1,681.64	69.9587	1,681.64	68.4001	1,681.64	71.5733
1,741.7	85.6784	1,741.7	85.4211	1,741.7	85.3894	1,741.7	84.6947	1,741.7	84.7305	1,741.7	83.5619	1,741.7	83.9328	1,741.7	82.138	1,741.7	82.6467	1,741.7	80.5357	1,741.7	80.8185	1,741.7	78.3688	1,741.7	79.1894	1,741.7	75.9603	1,741.7	77.6268	1,741.7	74.3784	1,741.7	75.4981	1,741.7	72.6664	1,741.7	73.5048	1,741.7	71.9299	1,741.7	72.3425	1,741.7	71.7814	1,741.7	70.8783	1,741.7	71.0134	1,741.7	67.4156	1,741.7	73.5618	1,741.7	69.3901	1,741.7	73.2583	1,741.7	70.691	1,741.7	66.3899	1,741.7	67.5919	1,741.7	64.2322	1,741.7	57.1884	1,741.7	69.2999	1,741.7	70.7273	1,741.7	71.8426
1,803.22	85.5178	1,803.22	85.1528	1,803.22	85.5945	1,803.22	84.408	1,803.22	84.9096	1,803.22	83.1913	1,803.22	83.6177	1,803.22	81.9365	1,803.22	82.5242	1,803.22	80.4627	1,803.22	81.4831	1,803.22	78.437	1,803.22	79.8581	1,803.22	75.8126	1,803.22	77.9816	1,803.22	73.3137	1,803.22	76.2018	1,803.22	72.432	1,803.22	74.6475	1,803.22	71.0344	1,803.22	73.5377	1,803.22	68.0482	1,803.22	71.7254	1,803.22	67.9847	1,803.22	69.282	1,803.22	70.8005	1,803.22	69.8481	1,803.22	72.7879	1,803.22	72.3813	1,803.22	69.0234	1,803.22	71.7268	1,803.22	60.7359	1,803.22	60.3473	1,803.22	69.8241	1,803.22	67.018	1,803.22	71.4245
1,866.21	85.5382	1,866.21	85.1972	1,866.21	85.2521	1,866.21	84.5054	1,866.21	84.5615	1,866.21	83.1761	1,866.21	83.617	1,866.21	81.414	1,866.21	82.126	1,866.21	80.7146	1,866.21	80.563	1,866.21	79.8295	1,866.21	79.3467	1,866.21	77.7547	1,866.21	77.7794	1,866.21	76.4132	1,866.21	76.3412	1,866.21	74.6567	1,866.21	75.0403	1,866.21	72.6584	1,866.21	73.9118	1,866.21	71.0554	1,866.21	74.1438	1,866.21	67.2351	1,866.21	72.3535	1,866.21	69.2419	1,866.21	71.4444	1,866.21	72.4818	1,866.21	72.6224	1,866.21	70.9068	1,866.21	72.5961	1,866.21	60.2944	1,866.21	68.06	1,866.21	70.4143	1,866.21	63.6614	1,866.21	71.1357
1,932.13	85.4917	1,932.13	85.0574	1,932.13	85.3346	1,932.13	83.9424	1,932.13	84.7715	1,932.13	82.691	1,932.13	83.477	1,932.13	81.2557	1,932.13	82.1315	1,932.13	79.7623	1,932.13	80.8262	1,932.13	78.2647	1,932.13	78.9105	1,932.13	76.8949	1,932.13	77.4468	1,932.13	76.7176	1,932.13	76.1019	1,932.13	75.7946	1,932.13	74.5419	1,932.13	72.9139	1,932.13	74.2217	1,932.13	70.8945	1,932.13	73.186	1,932.13	69.3129	1,932.13	70.3559	1,932.13	70.1589	1,932.13	68.6635	1,932.13	71.4152	1,932.13	71.8169	1,932.13	70.696	1,932.13	71.7526	1,932.13	65.6093	1,932.13	67.7076	1,932.13	69.6921	1,932.13	67.4366	1,932.13	70.4311
1,999.51	85.2668	1,999.51	84.8569	1,999.51	85.1628	1,999.51	83.9123	1,999.51	84.7423	1,999.51	82.5088	1,999.51	83.9894	1,999.51	81.0624	1,999.51	82.5423	1,999.51	79.689	1,999.51	80.837	1,999.51	77.7682	1,999.51	79.4623	1,999.51	75.8126	1,999.51	77.5279	1,999.51	75.1784	1,999.51	75.7014	1,999.51	74.3049	1,999.51	75.2377	1,999.51	72.3543	1,999.51	73.7144	1,999.51	70.8773	1,999.51	71.6832	1,999.51	68.7354	1,999.51	69.6233	1,999.51	68.9465	1,999.51	68.5324	1,999.51	69.6315	1,999.51	70.6842	1,999.51	66.7181	1,999.51	71.5018	1,999.51	64.3046	1,999.51	66.0647	1,999.51	68.1843	1,999.51	68.1839	1,999.51	70.2338
2,069.82	86.2717	2,069.82	85.9067	2,069.82	86.2885	2,069.82	84.9277	2,069.82	85.5398	2,069.82	83.5121	2,069.82	84.181	2,069.82	81.9772	2,069.82	83.3996	2,069.82	80.4986	2,069.82	82.5127	2,069.82	79.0937	2,069.82	80.7501	2,069.82	77.3233	2,069.82	78.3967	2,069.82	75.2225	2,069.82	76.364	2,069.82	73.2811	2,069.82	75.5983	2,069.82	72.0485	2,069.82	74.1691	2,069.82	71.6224	2,069.82	72.2927	2,069.82	68.4442	2,069.82	71.1984	2,069.82	65.6834	2,069.82	68.7646	2,069.82	70.3517	2,069.82	71.5843	2,069.82	69.1764	2,069.82	72.5013	2,069.82	58.1934	2,069.82	67.1444	2,069.82	67.2542	2,069.82	62.7922	2,069.82	68.6821
2,143.07	85.9907	2,143.07	85.6334	2,143.07	85.6691	2,143.07	84.3404	2,143.07	84.8187	2,143.07	83.6384	2,143.07	83.8358	2,143.07	82.4097	2,143.07	82.8831	2,143.07	80.3313	2,143.07	81.0177	2,143.07	79.4885	2,143.07	79.9262	2,143.07	77.7352	2,143.07	78.9437	2,143.07	75.8423	2,143.07	76.4481	2,143.07	75.904	2,143.07	75.0356	2,143.07	73.7578	2,143.07	73.6725	2,143.07	73.57	2,143.07	71.0009	2,143.07	72.7794	2,143.07	72.0171	2,143.07	67.3662	2,143.07	70.508	2,143.07	71.7326	2,143.07	69.0069	2,143.07	73.976	2,143.07	71.9125	2,143.07	68.616	2,143.07	69.7688	2,143.07	63.456	2,143.07	69.96	2,143.07	69.0487
2,219.24	84.7761	2,219.24	84.6389	2,219.24	84.68	2,219.24	84.3739	2,219.24	84.5236	2,219.24	82.8973	2,219.24	83.4994	2,219.24	80.9463	2,219.24	80.9091	2,219.24	79.9372	2,219.24	79.5162	2,219.24	78.8202	2,219.24	79.3036	2,219.24	76.8171	2,219.24	78.0937	2,219.24	75.0527	2,219.24	76.1078	2,219.24	75.5118	2,219.24	74.6862	2,219.24	74.2001	2,219.24	73.2297	2,219.24	73.0041	2,219.24	68.6788	2,219.24	73.7181	2,219.24	69.4114	2,219.24	69.6479	2,219.24	70.7466	2,219.24	71.7893	2,219.24	66.7804	2,219.24	73.3899	2,219.24	71.2292	2,219.24	70.1222	2,219.24	69.4635	2,219.24	68.4899	2,219.24	66.3331	2,219.24	68.5798
2,296.88	85.314	2,296.88	84.5308	2,296.88	85.4829	2,296.88	84.0395	2,296.88	84.9717	2,296.88	83.2292	2,296.88	83.9327	2,296.88	81.7727	2,296.88	83.3029	2,296.88	79.5153	2,296.88	82.449	2,296.88	78.709	2,296.88	79.9882	2,296.88	78.5375	2,296.88	78.9501	2,296.88	76.0631	2,296.88	76.8505	2,296.88	75.4494	2,296.88	74.8038	2,296.88	72.8845	2,296.88	76.2074	2,296.88	68.6051	2,296.88	71.9618	2,296.88	73.0978	2,296.88	69.7288	2,296.88	69.7593	2,296.88	71.552	2,296.88	66.1551	2,296.88	68.2841	2,296.88	71.0749	2,296.88	70.6476	2,296.88	72.0033	2,296.88	71.9796	2,296.88	71.7957	2,296.88	67.9189	2,296.88	69.4219
2,378.91	86.3484	2,378.91	86.0382	2,378.91	85.762	2,378.91	85.129	2,378.91	84.9821	2,378.91	84.4841	2,378.91	84.3716	2,378.91	83.0831	2,378.91	83.5033	2,378.91	81.018	2,378.91	82.3195	2,378.91	78.7249	2,378.91	80.7041	2,378.91	78.451	2,378.91	78.1128	2,378.91	77.7536	2,378.91	77.308	2,378.91	73.4473	2,378.91	75.3293	2,378.91	74.3391	2,378.91	75.1497	2,378.91	71.6099	2,378.91	75.5254	2,378.91	67.6714	2,378.91	69.8758	2,378.91	72.2957	2,378.91	72.3289	2,378.91	70.1836	2,378.91	70.6926	2,378.91	67.6781	2,378.91	68.9983	2,378.91	72.8455	2,378.91	69.4704	2,378.91	73.8749	2,378.91	73.8427	2,378.91	73.3561
2,462.4	85.9053	2,462.4	85.5901	2,462.4	85.6051	2,462.4	84.4995	2,462.4	84.97	2,462.4	83.4659	2,462.4	83.8649	2,462.4	82.6406	2,462.4	82.883	2,462.4	82.2039	2,462.4	82.2182	2,462.4	80.6898	2,462.4	80.9824	2,462.4	79.2475	2,462.4	78.9007	2,462.4	78.2711	2,462.4	78.0461	2,462.4	74.8721	2,462.4	75.9886	2,462.4	74.798	2,462.4	74.0896	2,462.4	73.6387	2,462.4	74.9657	2,462.4	70.8577	2,462.4	70.5215	2,462.4	73.6545	2,462.4	69.4741	2,462.4	72.6239	2,462.4	72.3143	2,462.4	70.3742	2,462.4	71.7986	2,462.4	65.2904	2,462.4	66.5448	2,462.4	71.8438	2,462.4	68.1126	2,462.4	73.1998
2,548.83	84.9501	2,548.83	84.6965	2,548.83	85.2099	2,548.83	84.1236	2,548.83	84.5156	2,548.83	83.1493	2,548.83	83.708	2,548.83	82.4702	2,548.83	83.0112	2,548.83	81.7803	2,548.83	82.0734	2,548.83	80.7481	2,548.83	81.3205	2,548.83	79.0754	2,548.83	79.7129	2,548.83	78.0651	2,548.83	78.1502	2,548.83	75.7893	2,548.83	76.6529	2,548.83	74.4733	2,548.83	73.7283	2,548.83	75.974	2,548.83	74.265	2,548.83	70.4382	2,548.83	72.3772	2,548.83	71.1552	2,548.83	71.0355	2,548.83	72.6739	2,548.83	71.3336	2,548.83	71.4156	2,548.83	72.6416	2,548.83	68.0676	2,548.83	68.7804	2,548.83	74.2899	2,548.83	65.0283	2,548.83	71.4529
2,639.65	84.8628	2,639.65	84.6396	2,639.65	85.0681	2,639.65	84.4029	2,639.65	84.724	2,639.65	83.7371	2,639.65	84.4684	2,639.65	82.9772	2,639.65	83.8429	2,639.65	81.9727	2,639.65	82.8167	2,639.65	80.7376	2,639.65	82.0827	2,639.65	79.2698	2,639.65	80.8749	2,639.65	77.8423	2,639.65	79.2547	2,639.65	76.1429	2,639.65	77.8853	2,639.65	74.0229	2,639.65	75.7763	2,639.65	72.8867	2,639.65	74.7489	2,639.65	73.816	2,639.65	73.5831	2,639.65	72.0504	2,639.65	72.5034	2,639.65	71.6363	2,639.65	72.0554	2,639.65	73.1512	2,639.65	73.6265	2,639.65	63.8429	2,639.65	71.6876	2,639.65	65.9687	2,639.65	65.0235	2,639.65	66.9006
2,731.93	84.5467	2,731.93	84.5768	2,731.93	84.8162	2,731.93	84.8998	2,731.93	84.6814	2,731.93	84.8975	2,731.93	84.8213	2,731.93	84.2339	2,731.93	84.2003	2,731.93	83.1001	2,731.93	83.1751	2,731.93	81.8337	2,731.93	82.3283	2,731.93	80.2425	2,731.93	81.0981	2,731.93	78.7332	2,731.93	79.1136	2,731.93	76.7835	2,731.93	77.8315	2,731.93	75.9051	2,731.93	75.9413	2,731.93	74.6717	2,731.93	74.8439	2,731.93	72.3356	2,731.93	73.761	2,731.93	72.79	2,731.93	74.1953	2,731.93	72.0111	2,731.93	72.5481	2,731.93	73.4617	2,731.93	73.2005	2,731.93	69.8145	2,731.93	72.9911	2,731.93	66.3692	2,731.93	65.5226	2,731.93	68.0103
2,828.61	83.931	2,828.61	84.2673	2,828.61	83.7311	2,828.61	84.5356	2,828.61	84.2805	2,828.61	84.8999	2,828.61	84.638	2,828.61	84.228	2,828.61	84.5708	2,828.61	83.359	2,828.61	83.715	2,828.61	82.3109	2,828.61	82.5985	2,828.61	80.5485	2,828.61	81.278	2,828.61	78.6028	2,828.61	79.2652	2,828.61	76.6773	2,828.61	78.0193	2,828.61	75.5172	2,828.61	75.692	2,828.61	73.9553	2,828.61	74.7617	2,828.61	74.2437	2,828.61	72.7283	2,828.61	74.0677	2,828.61	72.7987	2,828.61	71.8144	2,828.61	73.5806	2,828.61	74.3061	2,828.61	72.0562	2,828.61	69.1799	2,828.61	73.5726	2,828.61	64.4674	2,828.61	68.405	2,828.61	69.6426
2,928.22	84.455	2,928.22	84.6131	2,928.22	84.1545	2,928.22	84.7043	2,928.22	84.6201	2,928.22	84.8669	2,928.22	84.8212	2,928.22	84.6448	2,928.22	84.8725	2,928.22	83.6667	2,928.22	84.1278	2,928.22	82.6116	2,928.22	83.0266	2,928.22	80.82	2,928.22	81.6437	2,928.22	78.2117	2,928.22	79.7515	2,928.22	76.8249	2,928.22	78.118	2,928.22	74.4924	2,928.22	75.9077	2,928.22	73.9932	2,928.22	74.752	2,928.22	69.3837	2,928.22	73.6085	2,928.22	73.2089	2,928.22	71.2188	2,928.22	72.1803	2,928.22	71.8798	2,928.22	72.1511	2,928.22	72.5394	2,928.22	70.4639	2,928.22	73.1875	2,928.22	70.217	2,928.22	68.0115	2,928.22	69.6663
3,030.76	84.8957	3,030.76	85.0797	3,030.76	84.8656	3,030.76	85.0688	3,030.76	85.031	3,030.76	84.7576	3,030.76	84.8421	3,030.76	84.3931	3,030.76	84.8453	3,030.76	83.4058	3,030.76	84.0798	3,030.76	82.5077	3,030.76	82.6316	3,030.76	80.5221	3,030.76	80.955	3,030.76	78.032	3,030.76	79.1339	3,030.76	77.1038	3,030.76	77.6853	3,030.76	74.539	3,030.76	75.4071	3,030.76	73.9677	3,030.76	74.0291	3,030.76	71.7709	3,030.76	73.1111	3,030.76	71.6579	3,030.76	70.9823	3,030.76	70.803	3,030.76	71.2821	3,030.76	72.4259	3,030.76	71.3579	3,030.76	71.8223	3,030.76	73.074	3,030.76	68.2628	3,030.76	66.1515	3,030.76	67.873
3,137.7	85.7099	3,137.7	85.7561	3,137.7	85.8404	3,137.7	85.856	3,137.7	85.8941	3,137.7	85.286	3,137.7	85.6034	3,137.7	84.664	3,137.7	85.1344	3,137.7	83.0939	3,137.7	84.2494	3,137.7	81.4433	3,137.7	82.7213	3,137.7	80.062	3,137.7	80.8181	3,137.7	77.7383	3,137.7	78.6197	3,137.7	76.5295	3,137.7	77.2007	3,137.7	74.1505	3,137.7	75.4883	3,137.7	73.3923	3,137.7	73.5044	3,137.7	71.4705	3,137.7	72.4339	3,137.7	70.3024	3,137.7	69.9432	3,137.7	70.3343	3,137.7	70.6553	3,137.7	71.8706	3,137.7	70.4652	3,137.7	71.9653	3,137.7	73.0268	3,137.7	68.397	3,137.7	69.3645	3,137.7	66.32
3,249.02	85.9127	3,249.02	85.923	3,249.02	85.8227	3,249.02	86.1173	3,249.02	85.8643	3,249.02	85.7861	3,249.02	85.845	3,249.02	84.9217	3,249.02	85.1797	3,249.02	83.5066	3,249.02	84.1925	3,249.02	81.7542	3,249.02	82.661	3,249.02	79.7859	3,249.02	80.9176	3,249.02	77.4202	3,249.02	78.7854	3,249.02	76.1016	3,249.02	76.035	3,249.02	74.2341	3,249.02	74.5507	3,249.02	72.461	3,249.02	72.0509	3,249.02	73.1213	3,249.02	72.221	3,249.02	70.597	3,249.02	71.3762	3,249.02	70.8129	3,249.02	71.2023	3,249.02	72.2127	3,249.02	69.4819	3,249.02	70.2786	3,249.02	71.8025	3,249.02	61.0926	3,249.02	68.752	3,249.02	68.5145
3,363.28	85.9725	3,363.28	85.9626	3,363.28	86.1313	3,363.28	86.2327	3,363.28	86.2426	3,363.28	86.0513	3,363.28	86.2867	3,363.28	85.0172	3,363.28	85.8189	3,363.28	83.5264	3,363.28	84.5674	3,363.28	81.3349	3,363.28	82.7754	3,363.28	79.5132	3,363.28	80.8952	3,363.28	77.8839	3,363.28	78.7029	3,363.28	76.1988	3,363.28	76.8951	3,363.28	74.9848	3,363.28	75.0783	3,363.28	72.571	3,363.28	72.7738	3,363.28	72.4689	3,363.28	72.9402	3,363.28	71.0785	3,363.28	72.4804	3,363.28	71.6171	3,363.28	70.543	3,363.28	71.7601	3,363.28	70.8549	3,363.28	69.6104	3,363.28	71.7524	3,363.28	66.8727	3,363.28	66.087	3,363.28	67.7926
3,481.93	85.8625	3,481.93	86.0299	3,481.93	86.1511	3,481.93	86.5248	3,481.93	86.4194	3,481.93	86.2867	3,481.93	86.6019	3,481.93	85.3547	3,481.93	86.1756	3,481.93	83.9764	3,481.93	85.0413	3,481.93	81.959	3,481.93	83.0436	3,481.93	79.7124	3,481.93	80.9561	3,481.93	77.8619	3,481.93	79.2577	3,481.93	76.0642	3,481.93	77.2828	3,481.93	74.9032	3,481.93	74.8854	3,481.93	72.6507	3,481.93	73.3155	3,481.93	71.6636	3,481.93	73.0243	3,481.93	72.2	3,481.93	71.8853	3,481.93	71.9758	3,481.93	71.5484	3,481.93	71.303	3,481.93	71.8235	3,481.93	70.2503	3,481.93	72.4098	3,481.93	68.7266	3,481.93	68.3311	3,481.93	69.3411
3,604.98	86.0937	3,604.98	86.3998	3,604.98	85.7996	3,604.98	86.8977	3,604.98	86.7577	3,604.98	87.132	3,604.98	87.05	3,604.98	85.8909	3,604.98	86.5879	3,604.98	85.0571	3,604.98	85.2964	3,604.98	82.8222	3,604.98	83.5667	3,604.98	79.9301	3,604.98	81.6277	3,604.98	78.2505	3,604.98	79.501	3,604.98	76.2357	3,604.98	77.3947	3,604.98	74.4036	3,604.98	76.0552	3,604.98	73.4809	3,604.98	74.8061	3,604.98	72.5816	3,604.98	72.3614	3,604.98	69.4212	3,604.98	72.4449	3,604.98	72.0295	3,604.98	71.9192	3,604.98	73.4165	3,604.98	72.7841	3,604.98	72.0197	3,604.98	73.4513	3,604.98	67.1928	3,604.98	68.5803	3,604.98	69.7979
3,732.42	85.6496	3,732.42	86.2466	3,732.42	85.7849	3,732.42	86.5996	3,732.42	86.5685	3,732.42	86.8527	3,732.42	86.6785	3,732.42	86.3797	3,732.42	86.4188	3,732.42	84.6403	3,732.42	85.3478	3,732.42	82.7784	3,732.42	83.6464	3,732.42	80.7757	3,732.42	81.3812	3,732.42	78.1749	3,732.42	79.3817	3,732.42	75.9153	3,732.42	76.5303	3,732.42	74.2734	3,732.42	74.5381	3,732.42	72.3359	3,732.42	73.6538	3,732.42	72.4735	3,732.42	72.6616	3,732.42	71.8595	3,732.42	71.3677	3,732.42	72.0871	3,732.42	71.6811	3,732.42	74.42	3,732.42	72.7919	3,732.42	72.7749	3,732.42	74.1334	3,732.42	66.1376	3,732.42	68.3221	3,732.42	68.2425
3,864.26	85.5837	3,864.26	86.2063	3,864.26	86.3154	3,864.26	86.8366	3,864.26	86.5944	3,864.26	86.4498	3,864.26	87.1001	3,864.26	86.181	3,864.26	86.7739	3,864.26	84.4661	3,864.26	85.979	3,864.26	82.838	3,864.26	84.1845	3,864.26	80.9847	3,864.26	81.9465	3,864.26	78.8222	3,864.26	79.6175	3,864.26	75.6573	3,864.26	77.6669	3,864.26	74.5082	3,864.26	76.1535	3,864.26	71.7106	3,864.26	74.2843	3,864.26	73.5267	3,864.26	74.3383	3,864.26	72.1835	3,864.26	72.6856	3,864.26	71.7049	3,864.26	71.9179	3,864.26	73.5487	3,864.26	73.0892	3,864.26	71.8824	3,864.26	73.5523	3,864.26	64.9757	3,864.26	70.5431	3,864.26	67.9513
4,000.49	85.8429	4,000.49	86.6655	4,000.49	85.6967	4,000.49	87.4852	4,000.49	86.7428	4,000.49	87.3519	4,000.49	87.289	4,000.49	86.1089	4,000.49	87.0547	4,000.49	85.5402	4,000.49	85.9486	4,000.49	83.2879	4,000.49	84.0201	4,000.49	81.312	4,000.49	82.1781	4,000.49	80.291	4,000.49	79.8865	4,000.49	77.4727	4,000.49	76.9951	4,000.49	75.3919	4,000.49	76.1517	4,000.49	74.2193	4,000.49	73.6882	4,000.49	73.2917	4,000.49	69.768	4,000.49	72.3796	4,000.49	73.2255	4,000.49	72.6271	4,000.49	73.5813	4,000.49	73.6882	4,000.49	72.9974	4,000.49	72.3286	4,000.49	74.3159	4,000.49	64.6955	4,000.49	70.386	4,000.49	67.3027
4,141.11	86.2383	4,141.11	87.0278	4,141.11	85.957	4,141.11	87.69	4,141.11	87.5386	4,141.11	88.7906	4,141.11	87.4701	4,141.11	87.5216	4,141.11	86.9791	4,141.11	85.9468	4,141.11	85.572	4,141.11	83.9651	4,141.11	84.39	4,141.11	81.1616	4,141.11	82.2511	4,141.11	78.693	4,141.11	80.4059	4,141.11	76.7122	4,141.11	77.8611	4,141.11	74.2345	4,141.11	75.5032	4,141.11	73.2017	4,141.11	74.3666	4,141.11	72.1307	4,141.11	72.5486	4,141.11	73.0895	4,141.11	72.053	4,141.11	72.7114	4,141.11	72.4986	4,141.11	73.2365	4,141.11	74.0787	4,141.11	73.7368	4,141.11	74.2082	4,141.11	64.0124	4,141.11	69.8701	4,141.11	68.0723
4,287.6	86.3694	4,287.6	86.351	4,287.6	87.4852	4,287.6	87.2532	4,287.6	86.9504	4,287.6	87.2556	4,287.6	87.7428	4,287.6	87.18	4,287.6	87.3408	4,287.6	85.0071	4,287.6	86.777	4,287.6	84.3699	4,287.6	84.741	4,287.6	82.0374	4,287.6	82.7247	4,287.6	79.2579	4,287.6	80.355	4,287.6	76.8901	4,287.6	78.2226	4,287.6	75.6416	4,287.6	77.2871	4,287.6	73.1813	4,287.6	74.6885	4,287.6	72.8988	4,287.6	73.3864	4,287.6	73.5797	4,287.6	72.2076	4,287.6	73.9275	4,287.6	72.3476	4,287.6	74.0056	4,287.6	73.8712	4,287.6	75.1955	4,287.6	74.2349	4,287.6	67.5585	4,287.6	71.9584	4,287.6	63.714
4,438.48	87.2331	4,438.48	87.9155	4,438.48	87.1422	4,438.48	88.1448	4,438.48	87.9039	4,438.48	87.4791	4,438.48	88.1896	4,438.48	86.2577	4,438.48	88.5625	4,438.48	86.7041	4,438.48	87.3653	4,438.48	83.773	4,438.48	85.2853	4,438.48	81.8658	4,438.48	83.1639	4,438.48	80.8162	4,438.48	81.2106	4,438.48	77.7197	4,438.48	78.9418	4,438.48	75.1502	4,438.48	76.4659	4,438.48	72.9325	4,438.48	74.3566	4,438.48	71.4751	4,438.48	72.5837	4,438.48	71.2586	4,438.48	73.6332	4,438.48	73.2811	4,438.48	73.1834	4,438.48	73.4757	4,438.48	74.2084	4,438.48	73.7192	4,438.48	74.8416	4,438.48	65.0829	4,438.48	73.0098	4,438.48	69.0892
4,595.21	87.4682	4,595.21	87.9904	4,595.21	86.9223	4,595.21	88.0055	4,595.21	88.0286	4,595.21	88.9955	4,595.21	87.8699	4,595.21	88.2523	4,595.21	87.5056	4,595.21	87.0727	4,595.21	86.0369	4,595.21	85.1165	4,595.21	85.7321	4,595.21	83.2192	4,595.21	83.7385	4,595.21	81.6597	4,595.21	81.8817	4,595.21	79.9469	4,595.21	79.4998	4,595.21	77.2323	4,595.21	77.4519	4,595.21	74.2345	4,595.21	75.948	4,595.21	73.8681	4,595.21	72.7771	4,595.21	72.4062	4,595.21	73.7462	4,595.21	74.9202	4,595.21	72.9447	4,595.21	74.0477	4,595.21	75.0683	4,595.21	75.3359	4,595.21	74.204	4,595.21	66.0459	4,595.21	71.3818	4,595.21	65.7356
4,756.35	88.5735	4,756.35	87.5987	4,756.35	89.1046	4,756.35	88.4132	4,756.35	87.259	4,756.35	87.9892	4,756.35	88.0498	4,756.35	88.0758	4,756.35	87.0831	4,756.35	86.2833	4,756.35	87.5124	4,756.35	85.5981	4,756.35	85.8726	4,756.35	83.102	4,756.35	83.972	4,756.35	79.8576	4,756.35	82.0427	4,756.35	77.3736	4,756.35	79.2357	4,756.35	75.8716	4,756.35	77.0189	4,756.35	75.5563	4,756.35	74.0208	4,756.35	71.3564	4,756.35	73.3519	4,756.35	74.4374	4,756.35	71.6025	4,756.35	74.1136	4,756.35	73.0605	4,756.35	74.1822	4,756.35	74.5475	4,756.35	74.4859	4,756.35	73.4838	4,756.35	67.8143	4,756.35	73.6968	4,756.35	63.8547
4,924.8	88.6485	4,924.8	88.6021	4,924.8	88.3314	4,924.8	87.0759	4,924.8	88.7245	4,924.8	86.7984	4,924.8	87.8758	4,924.8	86.0888	4,924.8	88.4499	4,924.8	86.0662	4,924.8	87.4813	4,924.8	84.2378	4,924.8	85.867	4,924.8	82.4012	4,924.8	83.9953	4,924.8	81.0761	4,924.8	81.7253	4,924.8	77.4254	4,924.8	79.5914	4,924.8	75.7891	4,924.8	76.4535	4,924.8	75.3756	4,924.8	75.7366	4,924.8	73.4177	4,924.8	72.3885	4,924.8	73.0963	4,924.8	72.9226	4,924.8	73.1289	4,924.8	72.3893	4,924.8	74.3809	4,924.8	73.689	4,924.8	73.4838	4,924.8	74.1276	4,924.8	64.7172	4,924.8	72.6924	4,924.8	64.2393
5,097.66	88.6775	5,097.66	88.0909	5,097.66	88.3019	5,097.66	87.5976	5,097.66	87.3708	5,097.66	87.9724	5,097.66	86.6313	5,097.66	87.3272	5,097.66	86.4442	5,097.66	86.6372	5,097.66	85.88	5,097.66	84.8231	5,097.66	85.3313	5,097.66	82.4122	5,097.66	83.4231	5,097.66	79.8722	5,097.66	81.6474	5,097.66	78.5827	5,097.66	78.5872	5,097.66	75.3239	5,097.66	77.1565	5,097.66	73.4806	5,097.66	74.7798	5,097.66	73.1614	5,097.66	72.2775	5,097.66	70.0838	5,097.66	73.0635	5,097.66	72.9276	5,097.66	72.6929	5,097.66	73.1255	5,097.66	74.9073	5,097.66	74.7121	5,097.66	73.9076	5,097.66	65.1935	5,097.66	69.5629	5,097.66	60.7739
5,277.83	88.413	5,277.83	86.9127	5,277.83	88.6245	5,277.83	86.9864	5,277.83	86.6933	5,277.83	86.3313	5,277.83	86.4147	5,277.83	86.4644	5,277.83	86.2275	5,277.83	85.6879	5,277.83	86.629	5,277.83	84.3408	5,277.83	85.2289	5,277.83	81.4567	5,277.83	82.7409	5,277.83	79.0047	5,277.83	80.7165	5,277.83	77.3512	5,277.83	77.893	5,277.83	74.2284	5,277.83	75.3015	5,277.83	74.3155	5,277.83	72.7691	5,277.83	72.9181	5,277.83	72.035	5,277.83	73.2116	5,277.83	71.8812	5,277.83	72.8825	5,277.83	71.9762	5,277.83	73.1996	5,277.83	72.6838	5,277.83	72.2551	5,277.83	72.8335	5,277.83	64.7751	5,277.83	72.5386	5,277.83	61.3213
5,463.87	87.8034	5,463.87	87.2371	5,463.87	86.9383	5,463.87	84.7896	5,463.87	86.5315	5,463.87	85.2554	5,463.87	85.4923	5,463.87	85.52	5,463.87	86.3534	5,463.87	85.7252	5,463.87	86.0126	5,463.87	83.8791	5,463.87	84.7861	5,463.87	81.717	5,463.87	82.7596	5,463.87	79.487	5,463.87	79.9493	5,463.87	75.0316	5,463.87	78.0825	5,463.87	73.9641	5,463.87	75.6004	5,463.87	72.4887	5,463.87	73.5737	5,463.87	69.6759	5,463.87	72.7062	5,463.87	71.7414	5,463.87	70.598	5,463.87	71.8814	5,463.87	70.5755	5,463.87	73.0593	5,463.87	72.165	5,463.87	72.7579	5,463.87	72.1388	5,463.87	63.8403	5,463.87	70.6922	5,463.87	59.7637
5,657.23	87.8425	5,657.23	86.2924	5,657.23	87.5281	5,657.23	85.9412	5,657.23	84.7852	5,657.23	85.9962	5,657.23	84.5079	5,657.23	86.4344	5,657.23	84.7692	5,657.23	85.7683	5,657.23	84.9991	5,657.23	83.6939	5,657.23	84.0724	5,657.23	81.5368	5,657.23	81.5159	5,657.23	77.3668	5,657.23	80.231	5,657.23	76.5273	5,657.23	76.5036	5,657.23	74.0919	5,657.23	74.6981	5,657.23	71.3126	5,657.23	73.1581	5,657.23	68.6412	5,657.23	70.776	5,657.23	72.709	5,657.23	70.0008	5,657.23	71.5311	5,657.23	70.2438	5,657.23	72.3691	5,657.23	72.1679	5,657.23	71.4603	5,657.23	71.4544	5,657.23	61.1979	5,657.23	69.6905	5,657.23	53.0887
5,856.45	87.8233	5,856.45	86.6866	5,856.45	86.7641	5,856.45	84.9121	5,856.45	85.1729	5,856.45	84.9838	5,856.45	84.6022	5,856.45	85.6566	5,856.45	85.7408	5,856.45	84.9613	5,856.45	85.7251	5,856.45	83.4053	5,856.45	84.2882	5,856.45	81.2859	5,856.45	82.0173	5,856.45	78.9296	5,856.45	79.544	5,856.45	76.8585	5,856.45	76.8166	5,856.45	74.3372	5,856.45	74.1082	5,856.45	72.7903	5,856.45	71.8718	5,856.45	70.2066	5,856.45	69.5566	5,856.45	69.5248	5,856.45	68.9475	5,856.45	70.3866	5,856.45	69.1142	5,856.45	73.186	5,856.45	71.1459	5,856.45	69.5982	5,856.45	71.9002	5,856.45	62.2707	5,856.45	69.676	5,856.45	59.171
6,062.99	87.7304	6,062.99	86.1133	6,062.99	87.1221	6,062.99	84.4657	6,062.99	85.1072	6,062.99	85.0646	6,062.99	84.3965	6,062.99	85.6746	6,062.99	85.2552	6,062.99	86.1118	6,062.99	85.5848	6,062.99	84.3305	6,062.99	84.3157	6,062.99	81.9808	6,062.99	81.9722	6,062.99	79.7094	6,062.99	79.813	6,062.99	77.7968	6,062.99	77.4568	6,062.99	73.0366	6,062.99	74.2038	6,062.99	71.8591	6,062.99	72.5221	6,062.99	66.3898	6,062.99	70.0456	6,062.99	69.6735	6,062.99	69.3583	6,062.99	70.7206	6,062.99	69.6578	6,062.99	71.2809	6,062.99	71.06	6,062.99	72.3536	6,062.99	71.882	6,062.99	64.3211	6,062.99	68.4899	6,062.99	61.0557
6,276.86	87.4722	6,276.86	86.3901	6,276.86	87.1743	6,276.86	85.9826	6,276.86	85.7416	6,276.86	86.0195	6,276.86	84.9647	6,276.86	86.6217	6,276.86	85.6986	6,276.86	85.975	6,276.86	85.5062	6,276.86	83.9511	6,276.86	84.1659	6,276.86	81.3036	6,276.86	81.8422	6,276.86	79.3074	6,276.86	79.7972	6,276.86	76.8068	6,276.86	76.757	6,276.86	73.35	6,276.86	75.1823	6,276.86	70.9922	6,276.86	72.2111	6,276.86	70.4319	6,276.86	70.5662	6,276.86	69.6127	6,276.86	70.0562	6,276.86	70.134	6,276.86	70.6308	6,276.86	72.3085	6,276.86	71.1631	6,276.86	71.856	6,276.86	72.3776	6,276.86	64.0444	6,276.86	67.896	6,276.86	59.9515
6,498.05	87.9124	6,498.05	87.3968	6,498.05	87.4458	6,498.05	86.187	6,498.05	86.4419	6,498.05	85.9003	6,498.05	85.8139	6,498.05	86.1215	6,498.05	85.5493	6,498.05	85.4601	6,498.05	85.3891	6,498.05	83.2851	6,498.05	84.2575	6,498.05	81.6761	6,498.05	82.3513	6,498.05	79.7459	6,498.05	79.8172	6,498.05	76.4492	6,498.05	77.5013	6,498.05	73.3573	6,498.05	74.8692	6,498.05	73.5135	6,498.05	72.5647	6,498.05	71.5937	6,498.05	70.2111	6,498.05	71.0776	6,498.05	68.497	6,498.05	71.1663	6,498.05	69.1082	6,498.05	73.082	6,498.05	71.4499	6,498.05	71.771	6,498.05	72.701	6,498.05	58.8743	6,498.05	68.8209	6,498.05	59.7365
6,726.56	87.7609	6,726.56	87.3531	6,726.56	87.7058	6,726.56	86.8283	6,726.56	87.0958	6,726.56	86.3725	6,726.56	86.2929	6,726.56	86.1845	6,726.56	85.8712	6,726.56	85.5016	6,726.56	85.5385	6,726.56	84.1004	6,726.56	84.2838	6,726.56	81.5876	6,726.56	82.1049	6,726.56	78.6334	6,726.56	80.3215	6,726.56	76.1809	6,726.56	77.5548	6,726.56	73.7837	6,726.56	75.3769	6,726.56	70.749	6,726.56	72.454	6,726.56	70.1247	6,726.56	69.9095	6,726.56	70.5661	6,726.56	70.0658	6,726.56	70.3791	6,726.56	68.6562	6,726.56	73.1563	6,726.56	71.4421	6,726.56	71.8254	6,726.56	72.8245	6,726.56	60.3428	6,726.56	67.5514	6,726.56	58.2765
6,963.87	87.0524	6,963.87	87.2054	6,963.87	87.1379	6,963.87	86.5205	6,963.87	87.1873	6,963.87	85.4502	6,963.87	85.7432	6,963.87	85.3785	6,963.87	84.9911	6,963.87	85.2078	6,963.87	85.0432	6,963.87	83.9175	6,963.87	84.0329	6,963.87	81.4301	6,963.87	82.3048	6,963.87	78.9807	6,963.87	80.0572	6,963.87	75.7395	6,963.87	77.3131	6,963.87	73.3294	6,963.87	74.4884	6,963.87	72.386	6,963.87	71.8323	6,963.87	70.1489	6,963.87	70.0693	6,963.87	69.8569	6,963.87	68.5116	6,963.87	70.3357	6,963.87	69.0058	6,963.87	72.8153	6,963.87	70.4629	6,963.87	71.6714	6,963.87	71.6105	6,963.87	61.9342	6,963.87	68.084	6,963.87	59.3818
7,209.96	86.2897	7,209.96	86.9765	7,209.96	86.7299	7,209.96	86.4097	7,209.96	86.4896	7,209.96	84.6066	7,209.96	84.8459	7,209.96	84.428	7,209.96	83.5999	7,209.96	84.4609	7,209.96	83.9289	7,209.96	83.6248	7,209.96	83.6601	7,209.96	81.3759	7,209.96	81.8268	7,209.96	78.5368	7,209.96	79.2881	7,209.96	74.7788	7,209.96	76.6079	7,209.96	72.3049	7,209.96	73.6137	7,209.96	69.2186	7,209.96	70.0865	7,209.96	67.7746	7,209.96	69.1004	7,209.96	68.731	7,209.96	69.3149	7,209.96	69.3165	7,209.96	67.9057	7,209.96	72.2154	7,209.96	69.4572	7,209.96	70.0789	7,209.96	71.3177	7,209.96	58.769	7,209.96	67.6735	7,209.96	58.0081
7,464.84	86.2236	7,464.84	86.4191	7,464.84	86.6847	7,464.84	85.1834	7,464.84	86.1742	7,464.84	83.0437	7,464.84	83.2391	7,464.84	83.1868	7,464.84	82.1039	7,464.84	83.9037	7,464.84	83.1585	7,464.84	82.966	7,464.84	82.5807	7,464.84	80.3589	7,464.84	80.8254	7,464.84	78.0445	7,464.84	78.4334	7,464.84	74.2671	7,464.84	75.3275	7,464.84	72.7047	7,464.84	72.425	7,464.84	70.1187	7,464.84	69.129	7,464.84	69.1768	7,464.84	68.3884	7,464.84	67.4054	7,464.84	65.8752	7,464.84	68.352	7,464.84	68.0794	7,464.84	71.2081	7,464.84	68.4553	7,464.84	70.2694	7,464.84	69.2015	7,464.84	59.1084	7,464.84	67.8529	7,464.84	55.2771
7,727.05	85.9331	7,727.05	86.5238	7,727.05	86.2058	7,727.05	85.5961	7,727.05	85.9019	7,727.05	82.5051	7,727.05	83.6246	7,727.05	82.4464	7,727.05	81.5809	7,727.05	83.1066	7,727.05	82.2994	7,727.05	81.924	7,727.05	82.0807	7,727.05	79.8969	7,727.05	80.0922	7,727.05	76.6058	7,727.05	77.5729	7,727.05	73.4766	7,727.05	74.0606	7,727.05	71.2658	7,727.05	70.5773	7,727.05	68.1351	7,727.05	68.7814	7,727.05	67.3463	7,727.05	65.0782	7,727.05	66.7282	7,727.05	66.6208	7,727.05	68.1014	7,727.05	65.2417	7,727.05	70.736	7,727.05	66.8222	7,727.05	68.1981	7,727.05	68.0096	7,727.05	57.7319	7,727.05	65.3742	7,727.05	51.8184
7,999.51	86.553	7,999.51	86.8036	7,999.51	86.9362	7,999.51	85.8399	7,999.51	86.3515	7,999.51	82.8489	7,999.51	83.9673	7,999.51	82.4345	7,999.51	82.2397	7,999.51	82.8036	7,999.51	82.4191	7,999.51	81.2232	7,999.51	81.6873	7,999.51	78.1999	7,999.51	79.2667	7,999.51	75.4058	7,999.51	76.1425	7,999.51	71.8255	7,999.51	73.3747	7,999.51	70.1224	7,999.51	70.5336	7,999.51	65.055	7,999.51	67.7536	7,999.51	66.3241	7,999.51	64.8602	7,999.51	64.6859	7,999.51	61.6601	7,999.51	65.0928	7,999.51	66.5114	7,999.51	68.1318	7,999.51	65.5979	7,999.51	66.4252	7,999.51	68.1832	7,999.51	53.865	7,999.51	64.332	7,999.51	56.4546
8,282.23	86.9325	8,282.23	87.4854	8,282.23	87.2136	8,282.23	86.5994	8,282.23	87.1904	8,282.23	84.1145	8,282.23	85.0768	8,282.23	83.2616	8,282.23	82.9989	8,282.23	83.1079	8,282.23	82.8386	8,282.23	81.1113	8,282.23	81.7734	8,282.23	78.0382	8,282.23	79.3833	8,282.23	75.3275	8,282.23	76.4673	8,282.23	72.7107	8,282.23	73.6334	8,282.23	69.4084	8,282.23	70.5071	8,282.23	65.7381	8,282.23	67.5605	8,282.23	65.0361	8,282.23	63.295	8,282.23	63.8953	8,282.23	64.3955	8,282.23	64.7449	8,282.23	64.961	8,282.23	68.4471	8,282.23	66.8621	8,282.23	65.4498	8,282.23	67.7402	8,282.23	49.8216	8,282.23	63.3018	8,282.23	55.5716
8,573.73	87.5886	8,573.73	87.6294	8,573.73	87.7995	8,573.73	86.8474	8,573.73	87.2793	8,573.73	84.5525	8,573.73	85.6557	8,573.73	83.1776	8,573.73	83.4538	8,573.73	82.7506	8,573.73	82.8872	8,573.73	81.0297	8,573.73	81.537	8,573.73	78.2103	8,573.73	79.443	8,573.73	75.7915	8,573.73	76.5186	8,573.73	72.2284	8,573.73	73.6773	8,573.73	69.0762	8,573.73	70.2082	8,573.73	65.3525	8,573.73	66.2006	8,573.73	64.4072	8,573.73	65.292	8,573.73	64.3882	8,573.73	60.4656	8,573.73	64.1652	8,573.73	65.3514	8,573.73	67.9232	8,573.73	64.5591	8,573.73	65.642	8,573.73	68.1554	8,573.73	51.9583	8,573.73	62.653	8,573.73	54.4107
8,876.95	87.576	8,876.95	87.3555	8,876.95	87.6545	8,876.95	86.9542	8,876.95	87.0335	8,876.95	84.7799	8,876.95	85.762	8,876.95	83.3121	8,876.95	83.5111	8,876.95	82.5213	8,876.95	82.5039	8,876.95	80.9708	8,876.95	80.8543	8,876.95	78.1921	8,876.95	78.8922	8,876.95	75.8829	8,876.95	76.1135	8,876.95	71.202	8,876.95	72.8757	8,876.95	68.6575	8,876.95	69.41	8,876.95	64.9778	8,876.95	66.4349	8,876.95	64.3981	8,876.95	63.455	8,876.95	62.6512	8,876.95	62.919	8,876.95	64.7982	8,876.95	63.8069	8,876.95	66.8124	8,876.95	65.5363	8,876.95	66.3173	8,876.95	67.107	8,876.95	40.7092	8,876.95	61.3648	8,876.95	53.5924
9,188.96	87.5939	9,188.96	86.9196	9,188.96	87.4657	9,188.96	86.7707	9,188.96	86.7978	9,188.96	84.816	9,188.96	85.8188	9,188.96	82.7553	9,188.96	83.1262	9,188.96	81.9201	9,188.96	81.732	9,188.96	80.5852	9,188.96	80.604	9,188.96	77.7616	9,188.96	78.6784	9,188.96	74.6736	9,188.96	75.1824	9,188.96	70.5347	9,188.96	72.0103	9,188.96	68.1375	9,188.96	68.7872	9,188.96	65.8707	9,188.96	65.8768	9,188.96	63.5534	9,188.96	62.205	9,188.96	62.5765	9,188.96	61.9471	9,188.96	64.0689	9,188.96	61.6233	9,188.96	66.5707	9,188.96	65.0058	9,188.96	66.2844	9,188.96	66.1943	9,188.96	45.5221	9,188.96	62.5017	9,188.96	51.1035
9,514.16	87.5821	9,514.16	86.6502	9,514.16	87.2649	9,514.16	86.6885	9,514.16	86.5563	9,514.16	84.5251	9,514.16	85.5645	9,514.16	82.5239	9,514.16	83.0209	9,514.16	81.6572	9,514.16	81.5462	9,514.16	80.3001	9,514.16	80.1793	9,514.16	77.0337	9,514.16	77.9862	9,514.16	74.1051	9,514.16	74.0999	9,514.16	70.0213	9,514.16	70.8163	9,514.16	66.5686	9,514.16	68.0534	9,514.16	65.057	9,514.16	64.6877	9,514.16	62.0018	9,514.16	60.5073	9,514.16	57.3058	9,514.16	61.1054	9,514.16	63.1134	9,514.16	60.6648	9,514.16	64.9266	9,514.16	63.9236	9,514.16	63.6599	9,514.16	64.5331	9,514.16	39.2084	9,514.16	60.7912	9,514.16	48.9963
9,849.61	87.6452	9,849.61	86.5286	9,849.61	87.1026	9,849.61	86.8119	9,849.61	86.5658	9,849.61	84.5333	9,849.61	85.6243	9,849.61	82.5528	9,849.61	82.8883	9,849.61	81.3757	9,849.61	81.2728	9,849.61	79.8064	9,849.61	79.7576	9,849.61	75.6482	9,849.61	77.108	9,849.61	72.752	9,849.61	73.1487	9,849.61	68.4611	9,849.61	69.3902	9,849.61	66.2309	9,849.61	67.1811	9,849.61	62.6467	9,849.61	62.8593	9,849.61	59.2506	9,849.61	59.717	9,849.61	58.6549	9,849.61	59.4478	9,849.61	62.0787	9,849.61	58.7456	9,849.61	63.9044	9,849.61	62.7309	9,849.61	62.1596	9,849.61	64.0098	9,849.61	48.4402	9,849.61	57.8381	9,849.61	50.1889
10,196.8	87.898	10,196.8	86.7006	10,196.8	87.34	10,196.8	87.0118	10,196.8	86.6717	10,196.8	84.725	10,196.8	85.6062	10,196.8	82.6919	10,196.8	83.0077	10,196.8	81.3847	10,196.8	81.2271	10,196.8	79.4645	10,196.8	79.4318	10,196.8	75.2196	10,196.8	76.3831	10,196.8	72.1669	10,196.8	72.3502	10,196.8	68.3595	10,196.8	68.0247	10,196.8	65.8052	10,196.8	65.8659	10,196.8	62.2887	10,196.8	61.9735	10,196.8	57.353	10,196.8	60.1599	10,196.8	58.8553	10,196.8	58.4796	10,196.8	60.387	10,196.8	56.1527	10,196.8	64.3737	10,196.8	63.1111	10,196.8	61.4552	10,196.8	62.6627	10,196.8	50.578	10,196.8	53.5404	10,196.8	47.3876
10,555.7	88.1512	10,555.7	87.0209	10,555.7	87.6295	10,555.7	87.1737	10,555.7	87.0227	10,555.7	84.8839	10,555.7	85.652	10,555.7	82.7959	10,555.7	83.2278	10,555.7	81.2822	10,555.7	81.1416	10,555.7	78.9369	10,555.7	78.7296	10,555.7	75.3236	10,555.7	75.8604	10,555.7	71.168	10,555.7	72.3382	10,555.7	68.2947	10,555.7	67.8613	10,555.7	65.4014	10,555.7	66.0035	10,555.7	61.8507	10,555.7	62.0964	10,555.7	56.0077	10,555.7	59.8412	10,555.7	58.7246	10,555.7	58.0258	10,555.7	59.8641	10,555.7	56.1846	10,555.7	63.0372	10,555.7	63.1987	10,555.7	60.8593	10,555.7	62.5168	10,555.7	53.4425	10,555.7	53.0644	10,555.7	47.1243
10,927.7	88.1622	10,927.7	87.1637	10,927.7	87.7525	10,927.7	87.1186	10,927.7	87.2428	10,927.7	84.7083	10,927.7	85.7266	10,927.7	82.8001	10,927.7	83.4277	10,927.7	80.6551	10,927.7	80.9966	10,927.7	78.229	10,927.7	78.1822	10,927.7	74.6409	10,927.7	75.6469	10,927.7	71.2805	10,927.7	71.9792	10,927.7	67.6867	10,927.7	67.7739	10,927.7	63.7705	10,927.7	65.51	10,927.7	62.9678	10,927.7	61.4131	10,927.7	58.1826	10,927.7	59.9888	10,927.7	58.8584	10,927.7	57.3824	10,927.7	59.3797	10,927.7	57.4124	10,927.7	62.3867	10,927.7	62.3389	10,927.7	61.1187	10,927.7	61.1213	10,927.7	52.1269	10,927.7	50.2881	10,927.7	49.9092
11,313	88.0062	11,313	87.1305	11,313	87.6736	11,313	86.9086	11,313	87.0869	11,313	84.677	11,313	85.5101	11,313	82.5683	11,313	83.2688	11,313	79.7429	11,313	80.4468	11,313	77.75	11,313	77.5645	11,313	73.9685	11,313	74.9443	11,313	70.4178	11,313	71.8064	11,313	67.1361	11,313	66.8869	11,313	63.4628	11,313	64.2959	11,313	60.7534	11,313	60.1045	11,313	56.3058	11,313	58.2765	11,313	58.7839	11,313	56.0453	11,313	59.7291	11,313	57.4971	11,313	61.4311	11,313	62.5432	11,313	58.7033	11,313	59.6216	11,313	53.5125	11,313	46.7788	11,313	49.5733
11,712.9	87.7842	11,712.9	86.9873	11,712.9	87.5314	11,712.9	86.5141	11,712.9	86.8201	11,712.9	84.4938	11,712.9	85.1723	11,712.9	81.854	11,712.9	82.6528	11,712.9	79.0836	11,712.9	79.7532	11,712.9	77.0432	11,712.9	76.6385	11,712.9	73.438	11,712.9	73.8423	11,712.9	69.7761	11,712.9	70.7089	11,712.9	65.7877	11,712.9	66.003	11,712.9	63.3453	11,712.9	61.834	11,712.9	58.8855	11,712.9	60.8663	11,712.9	56.2524	11,712.9	56.3968	11,712.9	56.9598	11,712.9	55.2869	11,712.9	59.7312	11,712.9	56.6819	11,712.9	60.7761	11,712.9	61.3561	11,712.9	57.1588	11,712.9	58.8017	11,712.9	51.3385	11,712.9	45.4824	11,712.9	45.5568
12,126	87.8881	12,126	87.0869	12,126	87.6754	12,126	86.4355	12,126	86.8088	12,126	84.3532	12,126	85.0236	12,126	81.3889	12,126	82.1552	12,126	78.847	12,126	79.2882	12,126	76.2998	12,126	75.7761	12,126	72.72	12,126	72.2061	12,126	68.5419	12,126	69.3033	12,126	64.3386	12,126	65.9177	12,126	62.665	12,126	59.6025	12,126	58.245	12,126	61.0598	12,126	56.6953	12,126	53.9389	12,126	54.0209	12,126	54.444	12,126	59.2589	12,126	54.2114	12,126	60.1197	12,126	59.6876	12,126	55.6979	12,126	56.7119	12,126	50.6312	12,126	46.4586	12,126	50.5018
12,553.7	88.0359	12,553.7	87.3253	12,553.7	87.9114	12,553.7	86.6415	12,553.7	87.0322	12,553.7	84.4069	12,553.7	85.2369	12,553.7	81.5875	12,553.7	82.1814	12,553.7	78.7407	12,553.7	79.5314	12,553.7	75.7239	12,553.7	75.3744	12,553.7	72.0669	12,553.7	71.296	12,553.7	69.0658	12,553.7	69.8837	12,553.7	64.0053	12,553.7	67.4213	12,553.7	62.6605	12,553.7	62.0149	12,553.7	58.0481	12,553.7	61.2513	12,553.7	57.9789	12,553.7	54.7996	12,553.7	53.8029	12,553.7	56.3098	12,553.7	58.9988	12,553.7	55.2621	12,553.7	60.3431	12,553.7	58.1903	12,553.7	53.7945	12,553.7	54.8052	12,553.7	52.3523	12,553.7	47.0058	12,553.7	52.0217
12,996.1	87.9065	12,996.1	87.159	12,996.1	87.8377	12,996.1	86.4751	12,996.1	87.0025	12,996.1	84.0579	12,996.1	85.1585	12,996.1	81.2992	12,996.1	81.7613	12,996.1	77.9971	12,996.1	79.0761	12,996.1	74.5169	12,996.1	74.5712	12,996.1	71.5968	12,996.1	71.7838	12,996.1	69.1473	12,996.1	70.2108	12,996.1	63.6345	12,996.1	67.7692	12,996.1	62.3823	12,996.1	61.6865	12,996.1	58.3393	12,996.1	60.7651	12,996.1	57.1664	12,996.1	56.6516	12,996.1	53.6715	12,996.1	56.1557	12,996.1	58.262	12,996.1	56.4327	12,996.1	58.7306	12,996.1	57.7271	12,996.1	51.9545	12,996.1	53.8743	12,996.1	52.6674	12,996.1	38.4132	12,996.1	51.055
13,454.6	87.6671	13,454.6	86.9425	13,454.6	87.5128	13,454.6	86.3175	13,454.6	86.6982	13,454.6	83.5192	13,454.6	84.6348	13,454.6	80.9225	13,454.6	81.08	13,454.6	76.7616	13,454.6	77.9763	13,454.6	73.572	13,454.6	73.8953	13,454.6	71.7449	13,454.6	72.0236	13,454.6	69.4549	13,454.6	69.4151	13,454.6	62.7625	13,454.6	67.8002	13,454.6	60.9688	13,454.6	59.9081	13,454.6	58.6582	13,454.6	60.4327	13,454.6	56.8714	13,454.6	58.1068	13,454.6	53.3305	13,454.6	54.372	13,454.6	56.8312	13,454.6	55.6597	13,454.6	57.3686	13,454.6	58.8062	13,454.6	51.2081	13,454.6	54.7593	13,454.6	51.5015	13,454.6	43.1747	13,454.6	49.1728
13,929.2	87.5982	13,929.2	86.8444	13,929.2	87.3868	13,929.2	86.338	13,929.2	86.4625	13,929.2	83.3119	13,929.2	84.1976	13,929.2	80.4331	13,929.2	80.7566	13,929.2	75.987	13,929.2	76.8925	13,929.2	73.5525	13,929.2	73.3923	13,929.2	71.5723	13,929.2	71.7362	13,929.2	69.4973	13,929.2	68.9779	13,929.2	63.9325	13,929.2	67.9376	13,929.2	60.0133	13,929.2	62.5283	13,929.2	59.4666	13,929.2	60.8819	13,929.2	54.1666	13,929.2	56.7386	13,929.2	54.4703	13,929.2	51.8283	13,929.2	56.7753	13,929.2	54.9513	13,929.2	55.5639	13,929.2	57.6412	13,929.2	50.8237	13,929.2	54.2517	13,929.2	53.0606	13,929.2	45.2459	13,929.2	42.4359
14,419.9	87.6098	14,419.9	86.8342	14,419.9	87.3986	14,419.9	86.2763	14,419.9	86.4855	14,419.9	83.0094	14,419.9	83.854	14,419.9	79.7094	14,419.9	80.4685	14,419.9	75.3811	14,419.9	75.6743	14,419.9	72.7859	14,419.9	72.6381	14,419.9	70.8181	14,419.9	71.305	14,419.9	69.5185	14,419.9	69.4967	14,419.9	65.2843	14,419.9	67.7488	14,419.9	59.8626	14,419.9	61.9833	14,419.9	59.0451	14,419.9	60.7196	14,419.9	53.95	14,419.9	55.2475	14,419.9	53.1437	14,419.9	54.907	14,419.9	56.8893	14,419.9	55.3315	14,419.9	53.698	14,419.9	54.9903	14,419.9	51.8851	14,419.9	50.6485	14,419.9	52.2208	14,419.9	51.5334	14,419.9	49.4886
14,928.2	87.5205	14,928.2	86.9123	14,928.2	87.3357	14,928.2	85.9583	14,928.2	86.4484	14,928.2	82.6067	14,928.2	83.4177	14,928.2	78.6142	14,928.2	79.8936	14,928.2	75.1553	14,928.2	75.0742	14,928.2	72.039	14,928.2	71.9582	14,928.2	71.7785	14,928.2	71.7454	14,928.2	70.7068	14,928.2	69.9756	14,928.2	65.5578	14,928.2	69.3487	14,928.2	60.8402	14,928.2	63.6192	14,928.2	59.8307	14,928.2	61.4558	14,928.2	54.3405	14,928.2	56.4279	14,928.2	53.2833	14,928.2	57.1489	14,928.2	55.4652	14,928.2	54.4534	14,928.2	55.4941	14,928.2	53.1634	14,928.2	51.5886	14,928.2	50.5723	14,928.2	52.0565	14,928.2	54.3763	14,928.2	54.1262
15,455.6	87.419	15,455.6	86.8787	15,455.6	87.3326	15,455.6	85.777	15,455.6	86.2591	15,455.6	81.9649	15,455.6	83.1311	15,455.6	77.9695	15,455.6	79.1994	15,455.6	74.2073	15,455.6	75.1555	15,455.6	72.5714	15,455.6	71.5358	15,455.6	72.799	15,455.6	73.2806	15,455.6	71.692	15,455.6	71.4537	15,455.6	66.9683	15,455.6	70.3327	15,455.6	61.8976	15,455.6	66.012	15,455.6	61.4859	15,455.6	61.4943	15,455.6	52.3327	15,455.6	60.5314	15,455.6	52.5923	15,455.6	57.3289	15,455.6	54.3277	15,455.6	53.6186	15,455.6	56.0233	15,455.6	53.609	15,455.6	52.3763	15,455.6	50.047	15,455.6	53.947	15,455.6	56.125	15,455.6	51.251
16,000.5	87.2353	16,000.5	86.7645	16,000.5	87.1867	16,000.5	85.5744	16,000.5	85.7976	16,000.5	81.0404	16,000.5	82.5898	16,000.5	78.0651	16,000.5	78.2947	16,000.5	73.076	16,000.5	74.0323	16,000.5	72.7138	16,000.5	72.9098	16,000.5	72.8017	16,000.5	73.9163	16,000.5	71.126	16,000.5	71.869	16,000.5	66.9589	16,000.5	70.0275	16,000.5	62.1035	16,000.5	65.8994	16,000.5	62.0567	16,000.5	61.1182	16,000.5	53.2823	16,000.5	60.0543	16,000.5	54.7884	16,000.5	56.2611	16,000.5	55.0008	16,000.5	53.4665	16,000.5	54.765	16,000.5	53.0856	16,000.5	54.5556	16,000.5	46.6499	16,000.5	54.3566	16,000.5	56.295	16,000.5	55.2561
16,564.5	86.9736	16,564.5	86.6031	16,564.5	86.8858	16,564.5	85.2584	16,564.5	85.2644	16,564.5	80.762	16,564.5	81.9445	16,564.5	78.1531	16,564.5	77.7139	16,564.5	73.4717	16,564.5	74.3849	16,564.5	72.3573	16,564.5	73.8295	16,564.5	72.4645	16,564.5	75.1406	16,564.5	71.9146	16,564.5	71.8117	16,564.5	67.2803	16,564.5	70.8582	16,564.5	63.0671	16,564.5	66.4259	16,564.5	61.9114	16,564.5	61.7117	16,564.5	54.0946	16,564.5	60.5316	16,564.5	54.5898	16,564.5	58.2342	16,564.5	52.9123	16,564.5	54.1954	16,564.5	57.4553	16,564.5	52.6043	16,564.5	55.0351	16,564.5	43.8604	16,564.5	56.0036	16,564.5	58.2436	16,564.5	56.2183
17,148.9	86.4687	17,148.9	86.105	17,148.9	86.4467	17,148.9	84.9816	17,148.9	84.7706	17,148.9	80.0247	17,148.9	81.3923	17,148.9	76.3122	17,148.9	77.8192	17,148.9	72.3632	17,148.9	75.3974	17,148.9	73.7758	17,148.9	73.5217	17,148.9	74.9567	17,148.9	75.5592	17,148.9	73.6772	17,148.9	72.8002	17,148.9	69.8848	17,148.9	72.1551	17,148.9	64.9682	17,148.9	67.8789	17,148.9	62.9809	17,148.9	62.2001	17,148.9	56.3515	17,148.9	62.6197	17,148.9	58.02	17,148.9	57.8661	17,148.9	55.0791	17,148.9	49.394	17,148.9	58.1322	17,148.9	50.8835	17,148.9	56.9309	17,148.9	39.2664	17,148.9	56.2733	17,148.9	59.7905	17,148.9	56.7291
17,752.4	85.6738	17,752.4	85.0245	17,752.4	85.3994	17,752.4	83.0738	17,752.4	83.5687	17,752.4	77.2912	17,752.4	80.0106	17,752.4	75.4589	17,752.4	76.0746	17,752.4	75.1046	17,752.4	74.5177	17,752.4	75.112	17,752.4	72.065	17,752.4	74.7841	17,752.4	74.4629	17,752.4	73.6514	17,752.4	70.641	17,752.4	68.4191	17,752.4	69.3144	17,752.4	63.4325	17,752.4	64.4947	17,752.4	62.351	17,752.4	58.418	17,752.4	56.8795	17,752.4	59.2923	17,752.4	58.1792	17,752.4	56.2389	17,752.4	54.2931	17,752.4	46.5309	17,752.4	58.879	17,752.4	51.0623	17,752.4	56.6543	17,752.4	42.658	17,752.4	54.3737	17,752.4	61.0627	17,752.4	56.0081
18,379.4	85.2423	18,379.4	84.4588	18,379.4	84.5551	18,379.4	82.4507	18,379.4	82.0324	18,379.4	78.0485	18,379.4	78.89	18,379.4	75.9926	18,379.4	74.6209	18,379.4	74.8445	18,379.4	73.3945	18,379.4	74.9839	18,379.4	71.6187	18,379.4	74.4749	18,379.4	74.3198	18,379.4	73.0363	18,379.4	69.5302	18,379.4	69.2261	18,379.4	68.5644	18,379.4	64.1044	18,379.4	63.751	18,379.4	62.4538	18,379.4	58.9299	18,379.4	57.4142	18,379.4	59.8408	18,379.4	59.4044	18,379.4	53.8217	18,379.4	53.51	18,379.4	40.0466	18,379.4	57.8135	18,379.4	53.178	18,379.4	55.6209	18,379.4	47.5541	18,379.4	51.5172	18,379.4	59.9756	18,379.4	58.277
19,026.9	84.6458	19,026.9	83.7065	19,026.9	83.4954	19,026.9	81.8072	19,026.9	80.3076	19,026.9	77.1999	19,026.9	77.415	19,026.9	74.2124	19,026.9	73.5848	19,026.9	74.2684	19,026.9	72.6712	19,026.9	73.9128	19,026.9	72.6483	19,026.9	73.1158	19,026.9	73.7983	19,026.9	71.7572	19,026.9	70.4598	19,026.9	68.5053	19,026.9	68.5694	19,026.9	62.3439	19,026.9	63.432	19,026.9	61.8091	19,026.9	58.0242	19,026.9	58.1235	19,026.9	58.8979	19,026.9	57.7182	19,026.9	55.7775	19,026.9	52.0698	19,026.9	39.9214	19,026.9	56.9625	19,026.9	50.7866	19,026.9	55.5262	19,026.9	48.315	19,026.9	46.8005	19,026.9	57.5215	19,026.9	57.6641
19,697.8	84.5766	19,697.8	83.6153	19,697.8	83.0246	19,697.8	81.821	19,697.8	79.9289	19,697.8	77.6335	19,697.8	76.6924	19,697.8	73.3322	19,697.8	72.2912	19,697.8	73.9615	19,697.8	73.1457	19,697.8	72.664	19,697.8	71.6371	19,697.8	71.8179	19,697.8	73.5354	19,697.8	69.8025	19,697.8	69.1171	19,697.8	65.9961	19,697.8	66.5202	19,697.8	60.9515	19,697.8	60.6481	19,697.8	57.9671	19,697.8	55.5468	19,697.8	56.7286	19,697.8	56.813	19,697.8	56.4971	19,697.8	53.6597	19,697.8	48.5544	19,697.8	41.9961	19,697.8	55.9877	19,697.8	48.3849	19,697.8	54.015	19,697.8	46.9249	19,697.8	46.7057	19,697.8	53.6893	19,697.8	54.8845
19,999.5	84.4284	19,999.5	83.4533	19,999.5	82.7604	19,999.5	81.7586	19,999.5	79.5763	19,999.5	77.689	19,999.5	76.0956	19,999.5	72.8984	19,999.5	71.8542	19,999.5	73.4654	19,999.5	73.7309	19,999.5	72.6845	19,999.5	71.9042	19,999.5	71.3611	19,999.5	73.05	19,999.5	68.9614	19,999.5	68.4492	19,999.5	64.2746	19,999.5	65.5938	19,999.5	60.4575	19,999.5	61.5049	19,999.5	56.2336	19,999.5	55.9248	19,999.5	57.0725	19,999.5	50.9521	19,999.5	54.8124	19,999.5	53.4098	19,999.5	51.1316	19,999.5	48.1572	19,999.5	57.5222	19,999.5	53.5159	19,999.5	54.2749	19,999.5	51.8514	19,999.5	46.9936	19,999.5	55.1129	19,999.5	52.0565
