"SPL Vertical"																																																																							
"On-Axis"		"10°"		"-10°"		"20°"		"-20°"		"30°"		"-30°"		"40°"		"-40°"		"50°"		"-50°"		"60°"		"-60°"		"70°"		"-70°"		"80°"		"-80°"		"90°"		"-90°"		"100°"		"-100°"		"110°"		"-110°"		"120°"		"-120°"		"130°"		"-130°"		"140°"		"-140°"		"150°"		"-150°"		"160°"		"-160°"		"170°"		"-170°"		"180°"	
"Frequency [Hz]"	"Sound Pessure Level [dB]  / [2.83V 1m] "	"Frequency [Hz]"	"Sound Pessure Level [dB]  / [2.83V 1m] "	"Frequency [Hz]"	"Sound Pessure Level [dB]  / [2.83V 1m] "	"Frequency [Hz]"	"Sound Pessure Level [dB]  / [2.83V 1m] "	"Frequency [Hz]"	"Sound Pessure Level [dB]  / [2.83V 1m] "	"Frequency [Hz]"	"Sound Pessure Level [dB]  / [2.83V 1m] "	"Frequency [Hz]"	"Sound Pessure Level [dB]  / [2.83V 1m] "	"Frequency [Hz]"	"Sound Pessure Level [dB]  / [2.83V 1m] "	"Frequency [Hz]"	"Sound Pessure Level [dB]  / [2.83V 1m] "	"Frequency [Hz]"	"Sound Pessure Level [dB]  / [2.83V 1m] "	"Frequency [Hz]"	"Sound Pessure Level [dB]  / [2.83V 1m] "	"Frequency [Hz]"	"Sound Pessure Level [dB]  / [2.83V 1m] "	"Frequency [Hz]"	"Sound Pessure Level [dB]  / [2.83V 1m] "	"Frequency [Hz]"	"Sound Pessure Level [dB]  / [2.83V 1m] "	"Frequency [Hz]"	"Sound Pessure Level [dB]  / [2.83V 1m] "	"Frequency [Hz]"	"Sound Pessure Level [dB]  / [2.83V 1m] "	"Frequency [Hz]"	"Sound Pessure Level [dB]  / [2.83V 1m] "	"Frequency [Hz]"	"Sound Pessure Level [dB]  / [2.83V 1m] "	"Frequency [Hz]"	"Sound Pessure Level [dB]  / [2.83V 1m] "	"Frequency [Hz]"	"Sound Pessure Level [dB]  / [2.83V 1m] "	"Frequency [Hz]"	"Sound Pessure Level [dB]  / [2.83V 1m] "	"Frequency [Hz]"	"Sound Pessure Level [dB]  / [2.83V 1m] "	"Frequency [Hz]"	"Sound Pessure Level [dB]  / [2.83V 1m] "	"Frequency [Hz]"	"Sound Pessure Level [dB]  / [2.83V 1m] "	"Frequency [Hz]"	"Sound Pessure Level [dB]  / [2.83V 1m] "	"Frequency [Hz]"	"Sound Pessure Level [dB]  / [2.83V 1m] "	"Frequency [Hz]"	"Sound Pessure Level [dB]  / [2.83V 1m] "	"Frequency [Hz]"	"Sound Pessure Level [dB]  / [2.83V 1m] "	"Frequency [Hz]"	"Sound Pessure Level [dB]  / [2.83V 1m] "	"Frequency [Hz]"	"Sound Pessure Level [dB]  / [2.83V 1m] "	"Frequency [Hz]"	"Sound Pessure Level [dB]  / [2.83V 1m] "	"Frequency [Hz]"	"Sound Pessure Level [dB]  / [2.83V 1m] "	"Frequency [Hz]"	"Sound Pessure Level [dB]  / [2.83V 1m] "	"Frequency [Hz]"	"Sound Pessure Level [dB]  / [2.83V 1m] "	"Frequency [Hz]"	"Sound Pessure Level [dB]  / [2.83V 1m] "	"Frequency [Hz]"	"Sound Pessure Level [dB]  / [2.83V 1m] "
20.5078	53.3131	20.5078	52.9316	20.5078	53.4995	20.5078	52.3463	20.5078	53.487	20.5078	51.5336	20.5078	53.2599	20.5078	50.4495	20.5078	52.7877	20.5078	49.0177	20.5078	52.0187	20.5078	47.1047	20.5078	50.8675	20.5078	44.4764	20.5078	49.1856	20.5078	40.8081	20.5078	46.6942	20.5078	37.2751	20.5078	42.8419	20.5078	39.7449	20.5078	37.666	20.5078	44.0032	20.5078	40.1564	20.5078	47.1822	20.5078	45.307	20.5078	49.506	20.5078	48.6986	20.5078	51.2337	20.5078	50.9614	20.5078	52.5074	20.5078	52.485	20.5078	53.3997	20.5078	53.4624	20.5078	53.9436	20.5078	53.9968	20.5078	54.1466
21.9727	54.335	21.9727	53.9398	21.9727	54.5212	21.9727	53.3247	21.9727	54.495	21.9727	52.4614	21.9727	54.2386	21.9727	51.2964	21.9727	53.717	21.9727	49.7349	21.9727	52.8694	21.9727	47.6052	21.9727	51.5918	21.9727	44.5919	21.9727	49.6945	21.9727	40.3266	21.9727	46.7922	21.9727	38.0505	21.9727	42.037	21.9727	42.4846	21.9727	37.1602	21.9727	46.6165	21.9727	43.1158	21.9727	49.5645	21.9727	47.9887	21.9727	51.7327	21.9727	51.0871	21.9727	53.3596	21.9727	53.1763	21.9727	54.5681	21.9727	54.5955	21.9727	55.4203	21.9727	55.5098	21.9727	55.9438	21.9727	56.0088	21.9727	56.1438
23.4375	54.251	23.4375	53.7962	23.4375	54.4539	23.4375	53.0692	23.4375	54.4036	23.4375	52.0205	23.4375	54.0774	23.4375	50.5521	23.4375	53.4263	23.4375	48.4674	23.4375	52.3584	23.4375	45.3153	23.4375	50.6987	23.4375	39.6915	23.4375	48.0687	23.4375	26.5526	23.4375	43.3893	23.4375	40.4599	23.4375	30.0874	23.4375	46.4409	23.4375	40.3979	23.4375	50.0245	23.4375	47.5983	23.4375	52.5462	23.4375	51.4901	23.4375	54.4371	23.4375	54.0527	23.4375	55.8826	23.4375	55.8379	23.4375	56.9727	23.4375	57.075	23.4375	57.7511	23.4375	57.8798	23.4375	58.2359	23.4375	58.3177	23.4375	58.4286
24.9023	54.9907	24.9023	54.4508	24.9023	55.265	24.9023	53.6257	24.9023	55.2741	24.9023	52.4779	24.9023	54.9993	24.9023	50.9608	24.9023	54.3991	24.9023	49.0877	24.9023	53.4038	24.9023	47.2493	24.9023	51.9129	24.9023	46.8199	24.9023	49.8536	24.9023	48.6276	24.9023	47.6593	24.9023	51.2545	24.9023	47.5684	24.9023	53.6938	24.9023	50.3606	24.9023	55.7542	24.9023	53.4939	24.9023	57.4601	24.9023	56.0572	24.9023	58.8587	24.9023	58.0442	24.9023	59.9847	24.9023	59.5511	24.9023	60.8574	24.9023	60.6541	24.9023	61.4844	24.9023	61.4055	24.9023	61.864	24.9023	61.8412	24.9023	61.9876
26.3672	56.4916	26.3672	56.0067	26.3672	56.7409	26.3672	55.2798	26.3672	56.751	26.3672	54.3002	26.3672	56.5056	26.3672	53.0746	26.3672	55.9748	26.3672	51.6985	26.3672	55.1164	26.3672	50.5383	26.3672	53.8938	26.3672	50.3475	26.3672	52.3652	26.3672	51.5258	26.3672	51.0145	26.3672	53.4662	26.3672	51.0856	26.3672	55.4889	26.3672	52.9775	26.3672	57.3181	26.3672	55.4406	26.3672	58.8917	26.3672	57.6687	26.3672	60.2108	26.3672	59.4855	26.3672	61.2871	26.3672	60.8997	26.3672	62.1286	26.3672	61.9495	26.3672	62.7366	26.3672	62.67	26.3672	63.1065	26.3672	63.0889	26.3672	63.2285
27.832	57.7166	27.832	57.2655	27.832	57.9504	27.832	56.5988	27.832	57.9604	27.832	55.7229	27.832	57.7327	27.832	54.6758	27.832	57.2454	27.832	53.5933	27.832	56.4757	27.832	52.8205	27.832	55.4283	27.832	52.8725	27.832	54.2326	27.832	53.9283	27.832	53.373	27.832	55.5781	27.832	53.6859	27.832	57.3495	27.832	55.2997	27.832	59.0038	27.832	57.3997	27.832	60.4605	27.832	59.3811	27.832	61.701	27.832	61.0481	27.832	62.7237	27.832	62.3714	27.832	63.5287	27.832	63.3657	27.832	64.113	27.832	64.053	27.832	64.4696	27.832	64.4542	27.832	64.5878
29.2969	59.06	29.2969	58.6688	29.2969	59.2648	29.2969	58.1042	29.2969	59.2731	29.2969	57.3935	29.2969	59.0737	29.2969	56.6037	29.2969	58.6564	29.2969	55.8856	29.2969	58.0241	29.2969	55.5062	29.2969	57.2267	29.2969	55.75	29.2969	56.4427	29.2969	56.6659	29.2969	56.0756	29.2969	58.0118	29.2969	56.5857	29.2969	59.4957	29.2969	57.949	29.2969	60.9329	29.2969	59.6807	29.2969	62.2365	29.2969	61.3745	29.2969	63.3708	29.2969	62.8486	29.2969	64.3205	29.2969	64.0463	29.2969	65.0766	29.2969	64.9595	29.2969	65.6302	29.2969	65.5957	29.2969	65.9713	29.2969	65.9673	29.2969	66.088
30.7617	60.7035	30.7617	60.3553	30.7617	60.896	30.7617	59.8678	30.7617	60.9218	30.7617	59.2722	30.7617	60.7727	30.7617	58.632	30.7617	60.4455	30.7617	58.0686	30.7617	59.9526	30.7617	57.7718	30.7617	59.348	30.7617	57.9373	30.7617	58.7757	30.7617	58.6261	30.7617	58.5119	30.7617	59.7066	30.7617	58.8632	30.7617	60.9693	30.7617	59.877	30.7617	62.2474	30.7617	61.2759	30.7617	63.4427	30.7617	62.7375	30.7617	64.5042	30.7617	64.0661	30.7617	65.4052	30.7617	65.1751	30.7617	66.1291	30.7617	66.0345	30.7617	66.6625	30.7617	66.6388	30.7617	66.9928	30.7617	66.9931	30.7617	67.1072
32.2266	61.6688	32.2266	61.366	32.2266	61.8346	32.2266	60.9489	32.2266	61.8498	32.2266	60.4574	32.2266	61.7065	32.2266	59.963	32.2266	61.4057	32.2266	59.583	32.2266	60.9687	32.2266	59.4723	32.2266	60.4631	32.2266	59.7609	32.2266	60.0419	32.2266	60.4649	32.2266	59.9554	32.2266	61.4734	32.2266	60.432	32.2266	62.6285	32.2266	61.4618	32.2266	63.8003	32.2266	62.7992	32.2266	64.9055	32.2266	64.1793	32.2266	65.8958	32.2266	65.4365	32.2266	66.7426	32.2266	66.4916	32.2266	67.4264	32.2266	67.3138	32.2266	67.9317	32.2266	67.8949	32.2266	68.2443	32.2266	68.2378	32.2266	68.3506
33.6914	63.2164	33.6914	62.9797	33.6914	63.3501	33.6914	62.6637	33.6914	63.3673	33.6914	62.3081	33.6914	63.2641	33.6914	61.9759	33.6914	63.0489	33.6914	61.7568	33.6914	62.7526	33.6914	61.7542	33.6914	62.4451	33.6914	62.0476	33.6914	62.2519	33.6914	62.6474	33.6914	62.3395	33.6914	63.488	33.6914	62.8327	33.6914	64.4659	33.6914	63.7132	33.6914	65.4828	33.6914	64.8283	33.6914	66.4653	33.6914	65.9973	33.6914	67.3637	33.6914	67.0866	33.6914	68.1446	33.6914	68.0184	33.6914	68.7838	33.6914	68.7535	33.6914	69.2625	33.6914	69.2756	33.6914	69.5641	33.6914	69.5811	33.6914	69.6743
35.1563	64.736	35.1563	64.5338	35.1563	64.8567	35.1563	64.2723	35.1563	64.8839	35.1563	63.9872	35.1563	64.8155	35.1563	63.7317	35.1563	64.662	35.1563	63.5772	35.1563	64.4542	35.1563	63.602	35.1563	64.2537	35.1563	63.8661	35.1563	64.1599	35.1563	64.3822	35.1563	64.2943	35.1563	65.1082	35.1563	64.7448	35.1563	65.9676	35.1563	65.5029	35.1563	66.8799	35.1563	66.4637	35.1563	67.7782	35.1563	67.4889	35.1563	68.6125	35.1563	68.4625	35.1563	69.3469	35.1563	69.3081	35.1563	69.9546	35.1563	69.9818	35.1563	70.4141	35.1563	70.462	35.1563	70.7077	35.1563	70.7412	35.1563	70.8206
36.6211	66.1888	36.6211	66.015	36.6211	66.3001	36.6211	65.7995	36.6211	66.3377	36.6211	65.5749	36.6211	66.3002	36.6211	65.3868	36.6211	66.1985	36.6211	65.2928	36.6211	66.0609	36.6211	65.3527	36.6211	65.94	36.6211	65.6106	36.6211	65.9151	36.6211	66.0766	36.6211	66.0777	36.6211	66.7206	36.6211	66.4932	36.6211	67.4854	36.6211	67.1593	36.6211	68.3061	36.6211	68.0015	36.6211	69.1244	36.6211	68.9117	36.6211	69.8933	36.6211	69.7902	36.6211	70.5768	36.6211	70.5638	36.6211	71.1467	36.6211	71.1867	36.6211	71.5803	36.6211	71.6338	36.6211	71.8589	36.6211	71.8943	36.6211	71.9673
38.0859	67.4191	38.0859	67.2734	38.0859	67.5174	38.0859	67.1003	38.0859	67.5575	38.0859	66.9296	38.0859	67.5384	38.0859	66.8015	38.0859	67.4708	38.0859	66.7635	38.0859	67.3816	38.0859	66.8624	38.0859	67.3178	38.0859	67.1309	38.0859	67.3467	38.0859	67.5751	38.0859	67.5419	38.0859	68.1709	38.0859	67.9535	38.0859	68.8729	38.0859	68.5778	38.0859	69.6276	38.0859	69.3546	38.0859	70.3844	38.0859	70.1939	38.0859	71.1005	38.0859	71.0084	38.0859	71.7411	38.0859	71.7309	38.0859	72.278	38.0859	72.3164	38.0859	72.6881	38.0859	72.7387	38.0859	72.9522	38.0859	72.9856	38.0859	73.055
39.5508	68.8542	39.5508	68.7362	39.5508	68.9404	39.5508	68.6032	39.5508	68.9856	39.5508	68.4804	39.5508	68.99	39.5508	68.4005	39.5508	68.9637	39.5508	68.4005	39.5508	68.9305	39.5508	68.5161	39.5508	68.9289	39.5508	68.7717	39.5508	69.0106	39.5508	69.1729	39.5508	69.229	39.5508	69.7029	39.5508	69.6196	39.5508	70.3278	39.5508	70.1795	39.5508	71.005	39.5508	70.865	39.5508	71.6913	39.5508	71.607	39.5508	72.3477	39.5508	72.3334	39.5508	72.9407	39.5508	72.9839	39.5508	73.4422	39.5508	73.515	39.5508	73.8285	39.5508	73.8993	39.5508	74.0801	39.5508	74.1228	39.5508	74.1817
41.0156	70.3278	41.0156	70.2292	41.0156	70.4058	41.0156	70.1244	41.0156	70.4557	41.0156	70.0338	41.0156	70.4771	41.0156	69.983	41.0156	70.4787	41.0156	70.0008	41.0156	70.4795	41.0156	70.114	41.0156	70.51	41.0156	70.342	41.0156	70.6101	41.0156	70.6908	41.0156	70.8209	41.0156	71.1499	41.0156	71.1703	41.0156	71.6951	41.0156	71.6591	41.0156	72.293	41.0156	72.2562	41.0156	72.9073	41.0156	72.9076	41.0156	73.5026	41.0156	73.5524	41.0156	74.047	41.0156	74.1358	41.0156	74.5124	41.0156	74.6157	41.0156	74.8745	41.0156	74.9639	41.0156	75.1134	41.0156	75.1648	41.0156	75.2136
42.4805	71.468	42.4805	71.3805	42.4805	71.5403	42.4805	71.2905	42.4805	71.5907	42.4805	71.2163	42.4805	71.6189	42.4805	71.1802	42.4805	71.6328	42.4805	71.2068	42.4805	71.6492	42.4805	71.3195	42.4805	71.6951	42.4805	71.5352	42.4805	71.8049	42.4805	71.8597	42.4805	72.0137	42.4805	72.2851	42.4805	72.3457	42.4805	72.7912	42.4805	72.8022	42.4805	73.3491	42.4805	73.357	42.4805	73.9259	42.4805	73.9634	42.4805	74.4886	42.4805	74.5662	42.4805	75.0062	42.4805	75.1143	42.4805	75.4511	42.4805	75.5668	42.4805	75.7991	42.4805	75.8956	42.4805	76.0301	42.4805	76.0848	42.4805	76.1287
43.9453	72.7133	43.9453	72.6415	43.9453	72.7787	43.9453	72.5738	43.9453	72.832	43.9453	72.5251	43.9453	72.8734	43.9453	72.5136	43.9453	72.9098	43.9453	72.5586	43.9453	72.9554	43.9453	72.6786	43.9453	73.0322	43.9453	72.8865	43.9453	73.167	43.9453	73.1872	43.9453	73.3864	43.9453	73.5752	43.9453	73.708	43.9453	74.0347	43.9453	74.1317	43.9453	74.5423	43.9453	74.6363	43.9453	75.07	43.9453	75.1838	43.9453	75.5886	43.9453	75.7279	43.9453	76.0694	43.9453	76.2237	43.9453	76.486	43.9453	76.6337	43.9453	76.8147	43.9453	76.9312	43.9453	77.0358	43.9453	77.1	43.9453	77.134
45.4102	74.3375	45.4102	74.2783	45.4102	74.3975	45.4102	74.229	45.4102	74.4535	45.4102	74.2017	45.4102	74.505	45.4102	74.2114	45.4102	74.557	45.4102	74.2736	45.4102	74.6201	45.4102	74.4028	45.4102	74.7107	45.4102	74.6096	45.4102	74.8496	45.4102	74.8976	45.4102	75.058	45.4102	75.2623	45.4102	75.3512	45.4102	75.6907	45.4102	75.7319	45.4102	76.1628	45.4102	76.1863	45.4102	76.6538	45.4102	76.6848	45.4102	77.1371	45.4102	77.1883	45.4102	77.5856	45.4102	77.6555	45.4102	77.9735	45.4102	78.0496	45.4102	78.2776	45.4102	78.3423	45.4102	78.4781	45.4102	78.5152	45.4102	78.5601
46.875	75.3602	46.875	75.305	46.875	75.4168	46.875	75.2587	46.875	75.4708	46.875	75.2318	46.875	75.5219	46.875	75.237	46.875	75.5746	46.875	75.2881	46.875	75.6379	46.875	75.3981	46.875	75.7261	46.875	75.5772	46.875	75.8568	46.875	75.8302	46.875	76.0484	46.875	76.1548	46.875	76.3146	46.875	76.5409	46.875	76.6587	46.875	76.9718	46.875	77.0697	46.875	77.4252	46.875	77.5226	46.875	77.8763	46.875	77.9826	46.875	78.2989	46.875	78.4116	46.875	78.6677	46.875	78.7746	46.875	78.9594	46.875	79.0439	46.875	79.1544	46.875	79.2012	46.875	79.2378
48.3398	76.0757	48.3398	76.0284	48.3398	76.1329	48.3398	75.9978	48.3398	76.1963	48.3398	75.9928	48.3398	76.2656	48.3398	76.0241	48.3398	76.3443	48.3398	76.1026	48.3398	76.44	48.3398	76.2385	48.3398	76.564	48.3398	76.4386	48.3398	76.73	48.3398	76.7054	48.3398	76.9517	48.3398	77.0354	48.3398	77.2381	48.3398	77.4187	48.3398	77.5895	48.3398	77.84	48.3398	77.9949	48.3398	78.2796	48.3398	78.4317	48.3398	78.7148	48.3398	78.8692	48.3398	79.1221	48.3398	79.2737	48.3398	79.478	48.3398	79.6138	48.3398	79.7608	48.3398	79.8643	48.3398	79.9519	48.3398	80.0079	48.3398	80.0369
51.2695	77.6729	51.2695	77.6329	51.2695	77.728	51.2695	77.6124	51.2695	77.7951	51.2695	77.6177	51.2695	77.8736	51.2695	77.6559	51.2695	77.9654	51.2695	77.7343	51.2695	78.0749	51.2695	77.8595	51.2695	78.2088	51.2695	78.0363	51.2695	78.3756	51.2695	78.2665	51.2695	78.5834	51.2695	78.5477	51.2695	78.8378	51.2695	78.8734	51.2695	79.1389	51.2695	79.2323	51.2695	79.4792	51.2695	79.6093	51.2695	79.8427	51.2695	79.986	51.2695	80.2062	51.2695	80.3421	51.2695	80.5431	51.2695	80.6569	51.2695	80.8267	51.2695	80.9103	51.2695	81.0347	51.2695	81.085	51.2695	81.1509	51.2695	81.1677
52.7344	78.2979	52.7344	78.262	52.7344	78.351	52.7344	78.247	52.7344	78.4187	52.7344	78.2581	52.7344	78.5004	52.7344	78.3009	52.7344	78.5971	52.7344	78.3811	52.7344	78.7121	52.7344	78.5039	52.7344	78.8503	52.7344	78.673	52.7344	79.018	52.7344	78.8897	52.7344	79.2213	52.7344	79.1522	52.7344	79.4644	52.7344	79.4546	52.7344	79.7469	52.7344	79.7875	52.7344	80.0624	52.7344	80.1375	52.7344	80.397	52.7344	80.4883	52.7344	80.7305	52.7344	80.8213	52.7344	81.0393	52.7344	81.1171	52.7344	81.2989	52.7344	81.3566	52.7344	81.4884	52.7344	81.5233	52.7344	81.5928	52.7344	81.6044
54.1992	78.8662	54.1992	78.8335	54.1992	78.9178	54.1992	78.8229	54.1992	78.9861	54.1992	78.8384	54.1992	79.0703	54.1992	78.8845	54.1992	79.171	54.1992	78.9657	54.1992	79.2905	54.1992	79.086	54.1992	79.4322	54.1992	79.2482	54.1992	79.6007	54.1992	79.4534	54.1992	79.8005	54.1992	79.6996	54.1992	80.0343	54.1992	79.9822	54.1992	80.3015	54.1992	80.2927	54.1992	80.5961	54.1992	80.6195	54.1992	80.906	54.1992	80.9479	54.1992	81.2136	54.1992	81.2607	54.1992	81.4974	54.1992	81.5399	54.1992	81.7354	54.1992	81.7675	54.1992	81.9081	54.1992	81.9275	54.1992	82.0013	54.1992	82.0077
55.6641	79.3675	55.6641	79.3378	55.6641	79.4176	55.6641	79.3311	55.6641	79.4862	55.6641	79.3504	55.6641	79.5724	55.6641	79.3992	55.6641	79.6764	55.6641	79.4808	55.6641	79.7994	55.6641	79.5983	55.6641	79.9437	55.6641	79.7537	55.6641	80.1123	55.6641	79.9475	55.6641	80.3082	55.6641	80.1782	55.6641	80.533	55.6641	80.4417	55.6641	80.7856	55.6641	80.7308	55.6641	81.0604	55.6641	81.0352	55.6641	81.3471	55.6641	81.3419	55.6641	81.63	55.6641	81.6352	55.6641	81.89	55.6641	81.8983	55.6641	82.1072	55.6641	82.1142	55.6641	82.2636	55.6641	82.2678	55.6641	82.3459	55.6641	82.3472
58.5938	80.1802	58.5938	80.1514	58.5938	80.2312	58.5938	80.1464	58.5938	80.303	58.5938	80.167	58.5938	80.3945	58.5938	80.215	58.5938	80.5049	58.5938	80.2921	58.5938	80.6339	58.5938	80.3999	58.5938	80.7816	58.5938	80.5393	58.5938	80.9487	58.5938	80.7104	58.5938	81.1356	58.5938	80.9121	58.5938	81.3421	58.5938	81.1412	58.5938	81.5665	58.5938	81.3924	58.5938	81.8043	58.5938	81.6579	58.5938	82.0472	58.5938	81.9272	58.5938	82.2834	58.5938	82.1872	58.5938	82.4979	58.5938	82.4234	58.5938	82.6745	58.5938	82.6208	58.5938	82.7981	58.5938	82.7654	58.5938	82.8573	58.5938	82.8463
60.0586	80.5261	60.0586	80.4975	60.0586	80.5776	60.0586	80.4933	60.0586	80.651	60.0586	80.5146	60.0586	80.7448	60.0586	80.5626	60.0586	80.8579	60.0586	80.6384	60.0586	80.9893	60.0586	80.7427	60.0586	81.1383	60.0586	80.8761	60.0586	81.3044	60.0586	81.0384	60.0586	81.4872	60.0586	81.2282	60.0586	81.6858	60.0586	81.4429	60.0586	81.898	60.0586	81.678	60.0586	82.1197	60.0586	81.9264	60.0586	82.3437	60.0586	82.1788	60.0586	82.5597	60.0586	82.4235	60.0586	82.7543	60.0586	82.6469	60.0586	82.913	60.0586	82.835	60.0586	83.0222	60.0586	82.9747	60.0586	83.0715	60.0586	83.0555
62.9883	81.1887	62.9883	81.1614	62.9883	81.2399	62.9883	81.1587	62.9883	81.3141	62.9883	81.1807	62.9883	81.4098	62.9883	81.2276	62.9883	81.5254	62.9883	81.2991	62.9883	81.6588	62.9883	81.3951	62.9883	81.8078	62.9883	81.5152	62.9883	81.9703	62.9883	81.6587	62.9883	82.1443	62.9883	81.8246	62.9883	82.3274	62.9883	82.0107	62.9883	82.5169	62.9883	82.2138	62.9883	82.7089	62.9883	82.4287	62.9883	82.8979	62.9883	82.6481	62.9883	83.0758	62.9883	82.8626	62.9883	83.2328	62.9883	83.0611	62.9883	83.3574	62.9883	83.2313	62.9883	83.4388	62.9883	83.3616	62.9883	83.4686	62.9883	83.4426
64.4531	81.4194	64.4531	81.3925	64.4531	81.4707	64.4531	81.3904	64.4531	81.5455	64.4531	81.4129	64.4531	81.6425	64.4531	81.4595	64.4531	81.7596	64.4531	81.5297	64.4531	81.8943	64.4531	81.6228	64.4531	82.0439	64.4531	81.7379	64.4531	82.2054	64.4531	81.8743	64.4531	82.3761	64.4531	82.0307	64.4531	82.553	64.4531	82.2052	64.4531	82.7331	64.4531	82.395	64.4531	82.9126	64.4531	82.5956	64.4531	83.0864	64.4531	82.8007	64.4531	83.2479	64.4531	83.0019	64.4531	83.3882	64.4531	83.1891	64.4531	83.4977	64.4531	83.351	64.4531	83.5667	64.4531	83.4768	64.4531	83.5879	64.4531	83.5576
67.3828	81.808	67.3828	81.7805	67.3828	81.8609	67.3828	81.7784	67.3828	81.9387	67.3828	81.801	67.3828	82.0396	67.3828	81.8469	67.3828	82.1609	67.3828	81.9146	67.3828	82.2994	67.3828	82.0026	67.3828	82.4511	67.3828	82.1094	67.3828	82.6119	67.3828	82.2335	67.3828	82.7775	67.3828	82.3736	67.3828	82.944	67.3828	82.528	67.3828	83.1078	67.3828	82.6946	67.3828	83.2651	67.3828	82.8701	67.3828	83.4119	67.3828	83.05	67.3828	83.5431	67.3828	83.2276	67.3828	83.6527	67.3828	83.395	67.3828	83.7335	67.3828	83.5426	67.3828	83.7785	67.3828	83.6613	67.3828	83.7825	67.3828	83.7429
68.8477	81.9458	68.8477	81.9184	68.8477	81.999	68.8477	81.9166	68.8477	82.0773	68.8477	81.9392	68.8477	82.179	68.8477	81.9848	68.8477	82.3012	68.8477	82.0514	68.8477	82.4404	68.8477	82.1371	68.8477	82.592	68.8477	82.2401	68.8477	82.7515	68.8477	82.3588	68.8477	82.9141	68.8477	82.4915	68.8477	83.0756	68.8477	82.6369	68.8477	83.2319	68.8477	82.7929	68.8477	83.3794	68.8477	82.9569	68.8477	83.5142	68.8477	83.125	68.8477	83.6322	68.8477	83.2914	68.8477	83.7283	68.8477	83.449	68.8477	83.7966	68.8477	83.5894	68.8477	83.8314	68.8477	83.7039	68.8477	83.8282	68.8477	83.7852
71.7773	82.5168	71.7773	82.4943	71.7773	82.5659	71.7773	82.4975	71.7773	82.6413	71.7773	82.5247	71.7773	82.7415	71.7773	82.5735	71.7773	82.8636	71.7773	82.6414	71.7773	83.0035	71.7773	82.7256	71.7773	83.1559	71.7773	82.8237	71.7773	83.315	71.7773	82.9335	71.7773	83.4747	71.7773	83.0534	71.7773	83.6292	71.7773	83.1818	71.7773	83.7737	71.7773	83.3174	71.7773	83.9043	71.7773	83.4585	71.7773	84.0178	71.7773	83.6025	71.7773	84.1118	71.7773	83.7453	71.7773	84.1834	71.7773	83.8818	71.7773	84.2295	71.7773	84.0053	71.7773	84.2468	71.7773	84.1088	71.7773	84.2326	71.7773	84.186
74.707	82.9208	74.707	82.8978	74.707	82.9709	74.707	82.9009	74.707	83.0479	74.707	82.9279	74.707	83.15	74.707	82.9761	74.707	83.274	74.707	83.0423	74.707	83.4152	74.707	83.1232	74.707	83.5675	74.707	83.2158	74.707	83.7243	74.707	83.3176	74.707	83.8788	74.707	83.4264	74.707	84.0246	74.707	83.5408	74.707	84.1565	74.707	83.6596	74.707	84.2705	74.707	83.7819	74.707	84.3642	74.707	83.906	74.707	84.4361	74.707	84.0296	74.707	84.4851	74.707	84.1489	74.707	84.51	74.707	84.2592	74.707	84.5097	74.707	84.355	74.707	84.4833	74.707	84.431
77.6367	83.1408	77.6367	83.1166	77.6367	83.1925	77.6367	83.1189	77.6367	83.2715	77.6367	83.1454	77.6367	83.3757	77.6367	83.1929	77.6367	83.5015	77.6367	83.2579	77.6367	83.6436	77.6367	83.3365	77.6367	83.7958	77.6367	83.4252	77.6367	83.9507	77.6367	83.5208	77.6367	84.101	77.6367	83.621	77.6367	84.24	77.6367	83.7241	77.6367	84.362	77.6367	83.829	77.6367	84.463	77.6367	83.9352	77.6367	84.5407	77.6367	84.042	77.6367	84.5942	77.6367	84.1485	77.6367	84.6237	77.6367	84.2526	77.6367	84.6298	77.6367	84.3514	77.6367	84.6132	77.6367	84.4407	77.6367	84.5748	77.6367	84.5164
79.1016	83.2428	79.1016	83.2222	79.1016	83.2898	79.1016	83.2266	79.1016	83.363	79.1016	83.2535	79.1016	83.4607	79.1016	83.2996	79.1016	83.5796	79.1016	83.3612	79.1016	83.7146	79.1016	83.4344	79.1016	83.8595	79.1016	83.5155	79.1016	84.0071	79.1016	83.6015	79.1016	84.1501	79.1016	83.6898	79.1016	84.2812	79.1016	83.7791	79.1016	84.3946	79.1016	83.8685	79.1016	84.4859	79.1016	83.9582	79.1016	84.5526	79.1016	84.0483	79.1016	84.5942	79.1016	84.1389	79.1016	84.6115	79.1016	84.2292	79.1016	84.6059	79.1016	84.3172	79.1016	84.5796	79.1016	84.3998	79.1016	84.5345	79.1016	84.4735
82.0313	83.6631	82.0313	83.6456	82.0313	83.7047	82.0313	83.6506	82.0313	83.7709	82.0313	83.6749	82.0313	83.8604	82.0313	83.7148	82.0313	83.97	82.0313	83.7661	82.0313	84.0948	82.0313	83.8246	82.0313	84.2283	82.0313	83.8865	82.0313	84.3631	82.0313	83.9487	82.0313	84.491	82.0313	84.0092	82.0313	84.6043	82.0313	84.0671	82.0313	84.6965	82.0313	84.1227	82.0313	84.763	82.0313	84.1775	82.0313	84.8016	82.0313	84.2336	82.0313	84.8125	82.0313	84.2932	82.0313	84.7982	82.0313	84.3578	82.0313	84.7627	82.0313	84.4274	82.0313	84.7105	82.0313	84.5008	82.0313	84.6465	82.0313	84.5751
84.9609	83.9626	84.9609	83.9379	84.9609	84.0115	84.9609	83.9357	84.9609	84.0849	84.9609	83.9529	84.9609	84.1809	84.9609	83.9855	84.9609	84.2961	84.9609	84.0292	84.9609	84.425	84.9609	84.0797	84.9609	84.5604	84.9609	84.1329	84.9609	84.6943	84.9609	84.1858	84.9609	84.8179	84.9609	84.2364	84.9609	84.9234	84.9609	84.284	84.9609	85.0041	84.9609	84.3292	84.9609	85.0555	84.9609	84.3739	84.9609	85.0762	84.9609	84.4206	84.9609	85.0673	84.9609	84.4722	84.9609	85.0327	84.9609	84.5309	84.9609	84.9779	84.9609	84.5975	84.9609	84.9087	84.9609	84.6715	84.9609	84.8312	84.9609	84.7506
87.8906	84.005	87.8906	83.9724	87.8906	84.0626	87.8906	83.9633	87.8906	84.1449	87.8906	83.975	87.8906	84.2497	87.8906	84.0037	87.8906	84.373	87.8906	84.0452	87.8906	84.5085	87.8906	84.095	87.8906	84.649	87.8906	84.1491	87.8906	84.7859	87.8906	84.2041	87.8906	84.9105	87.8906	84.2577	87.8906	85.0148	87.8906	84.3087	87.8906	85.0923	87.8906	84.3572	87.8906	85.1388	87.8906	84.4047	87.8906	85.1531	87.8906	84.4534	87.8906	85.1369	87.8906	84.5061	87.8906	85.0944	87.8906	84.5651	87.8906	85.0318	87.8906	84.6321	87.8906	84.9557	87.8906	84.707	87.8906	84.8727	87.8906	84.7882
90.8203	83.8287	90.8203	83.8049	90.8203	83.8849	90.8203	83.8122	90.8203	83.9731	90.8203	83.8478	90.8203	84.091	90.8203	83.9077	90.8203	84.2345	90.8203	83.987	90.8203	84.3976	90.8203	84.0802	90.8203	84.5726	90.8203	84.1821	90.8203	84.7509	90.8203	84.2877	90.8203	84.923	90.8203	84.3926	90.8203	85.0794	90.8203	84.494	90.8203	85.2118	90.8203	84.5901	90.8203	85.3138	90.8203	84.6807	90.8203	85.3816	90.8203	84.767	90.8203	85.4142	90.8203	84.8507	90.8203	85.4137	90.8203	84.9339	90.8203	85.3846	90.8203	85.0179	90.8203	85.3327	90.8203	85.1026	90.8203	85.2645	90.8203	85.1861
95.2148	84.7764	95.2148	84.7611	95.2148	84.81	95.2148	84.7614	95.2148	84.8632	95.2148	84.7733	95.2148	84.9355	95.2148	84.7922	95.2148	85.0244	95.2148	84.8132	95.2148	85.1251	95.2148	84.8313	95.2148	85.231	95.2148	84.8423	95.2148	85.3336	95.2148	84.8431	95.2148	85.4234	95.2148	84.8317	95.2148	85.4908	95.2148	84.8083	95.2148	85.5275	95.2148	84.7751	95.2148	85.5272	95.2148	84.7366	95.2148	85.4876	95.2148	84.6993	95.2148	85.4105	95.2148	84.6716	95.2148	85.3026	95.2148	84.662	95.2148	85.1747	95.2148	84.6784	95.2148	85.0401	95.2148	84.7257	95.2148	84.9128	95.2148	84.8051
98.1445	84.75	98.1445	84.7206	98.1445	84.8007	98.1445	84.711	98.1445	84.873	98.1445	84.7181	98.1445	84.9654	98.1445	84.738	98.1445	85.0743	98.1445	84.7661	98.1445	85.1944	98.1445	84.7976	98.1445	85.3185	98.1445	84.8278	98.1445	85.4378	98.1445	84.8528	98.1445	85.5429	98.1445	84.8699	98.1445	85.6242	98.1445	84.8776	98.1445	85.6736	98.1445	84.8766	98.1445	85.6851	98.1445	84.8698	98.1445	85.6569	98.1445	84.8619	98.1445	85.5911	98.1445	84.8593	98.1445	85.4947	98.1445	84.8695	98.1445	85.3781	98.1445	84.8992	98.1445	85.2541	98.1445	84.9531	98.1445	85.1354	98.1445	85.0327
101.074	84.8534	101.074	84.8279	101.074	84.9007	101.074	84.8227	101.074	84.97	101.074	84.8347	101.074	85.0599	101.074	84.8598	101.074	85.1669	101.074	84.8933	101.074	85.2858	101.074	84.93	101.074	85.4095	101.074	84.965	101.074	85.5293	101.074	84.9938	101.074	85.6357	101.074	85.0134	101.074	85.7191	101.074	85.0221	101.074	85.7709	101.074	85.0204	101.074	85.7852	101.074	85.0111	101.074	85.7594	101.074	84.999	101.074	85.6957	101.074	84.9912	101.074	85.6007	101.074	84.9955	101.074	85.4852	101.074	85.0194	101.074	85.3621	101.074	85.0684	101.074	85.2448	101.074	85.1444
105.469	85.059	105.469	85.0364	105.469	85.1051	105.469	85.0355	105.469	85.1746	105.469	85.0533	105.469	85.2659	105.469	85.0854	105.469	85.3753	105.469	85.1266	105.469	85.4975	105.469	85.1714	105.469	85.625	105.469	85.214	105.469	85.7489	105.469	85.2496	105.469	85.8594	105.469	85.2744	105.469	85.9463	105.469	85.2862	105.469	86.0007	105.469	85.2853	105.469	86.0164	105.469	85.2741	105.469	85.9907	105.469	85.2578	105.469	85.9258	105.469	85.2438	105.469	85.8288	105.469	85.2407	105.469	85.711	105.469	85.2572	105.469	85.5864	105.469	85.2997	105.469	85.4691	105.469	85.3711
108.398	85.2608	108.398	85.2412	108.398	85.3022	108.398	85.2419	108.398	85.3654	108.398	85.2597	108.398	85.4489	108.398	85.2905	108.398	85.5497	108.398	85.3292	108.398	85.6628	108.398	85.3699	108.398	85.7814	108.398	85.4069	108.398	85.8971	108.398	85.4352	108.398	86.0002	108.398	85.4506	108.398	86.0806	108.398	85.451	108.398	86.1287	108.398	85.4365	108.398	86.1376	108.398	85.41	108.398	86.1041	108.398	85.3772	108.398	86.0298	108.398	85.3464	108.398	85.9221	108.398	85.3277	108.398	85.7932	108.398	85.3314	108.398	85.6586	108.398	85.3654	108.398	85.5343	108.398	85.4338
112.793	85.6519	112.793	85.6305	112.793	85.6931	112.793	85.6276	112.793	85.7541	112.793	85.6405	112.793	85.8335	112.793	85.6654	112.793	85.9284	112.793	85.6973	112.793	86.0343	112.793	85.7307	112.793	86.1449	112.793	85.7596	112.793	86.252	112.793	85.7789	112.793	86.3462	112.793	85.7844	112.793	86.4172	112.793	85.7737	112.793	86.4556	112.793	85.7468	112.793	86.454	112.793	85.7068	112.793	86.409	112.793	85.6601	112.793	86.3225	112.793	85.6157	112.793	86.2019	112.793	85.585	112.793	86.0603	112.793	85.5794	112.793	85.9143	112.793	85.6084	112.793	85.7815	112.793	85.6764
117.188	85.8684	117.188	85.8422	117.188	85.9128	117.188	85.8332	117.188	85.975	117.188	85.8393	117.188	86.0535	117.188	85.857	117.188	86.1456	117.188	85.8819	117.188	86.247	117.188	85.9086	117.188	86.3518	117.188	85.9316	117.188	86.4524	117.188	85.9458	117.188	86.5397	117.188	85.9468	117.188	86.6039	117.188	85.9325	117.188	86.6358	117.188	85.9027	117.188	86.6281	117.188	85.8606	117.188	86.5777	117.188	85.8121	117.188	86.4863	117.188	85.7666	117.188	86.3616	117.188	85.7351	117.188	86.2166	117.188	85.7292	117.188	86.068	117.188	85.7583	117.188	85.9332	117.188	85.827
120.117	86.2387	120.117	86.2219	120.117	86.2705	120.117	86.2187	120.117	86.3181	120.117	86.2264	120.117	86.3805	120.117	86.2413	120.117	86.4558	120.117	86.2586	120.117	86.5404	120.117	86.2733	120.117	86.6286	120.117	86.2801	120.117	86.7131	120.117	86.2743	120.117	86.7846	120.117	86.2523	120.117	86.8334	120.117	86.2125	120.117	86.85	120.117	86.1558	120.117	86.827	120.117	86.0863	120.117	86.7611	120.117	86.0112	120.117	86.6544	120.117	85.941	120.117	86.5149	120.117	85.8883	120.117	86.3566	120.117	85.8658	120.117	86.1973	120.117	85.884	120.117	86.0558	120.117	85.9481
124.512	86.3835	124.512	86.3585	124.512	86.4205	124.512	86.344	124.512	86.47	124.512	86.3372	124.512	86.5315	124.512	86.3345	124.512	86.6033	124.512	86.3311	124.512	86.6821	124.512	86.322	124.512	86.763	124.512	86.3018	124.512	86.8389	124.512	86.2661	124.512	86.9008	124.512	86.2119	124.512	86.9383	124.512	86.1385	124.512	86.9413	124.512	86.048	124.512	86.9014	124.512	85.9465	124.512	86.814	124.512	85.8436	124.512	86.6802	124.512	85.7527	124.512	86.5078	124.512	85.6889	124.512	86.3116	124.512	85.6672	124.512	86.1118	124.512	85.699	124.512	85.9307	124.512	85.7885
128.906	86.4034	128.906	86.3706	128.906	86.4487	128.906	86.3497	128.906	86.5058	128.906	86.3387	128.906	86.5728	128.906	86.3341	128.906	86.6468	128.906	86.331	128.906	86.7234	128.906	86.3235	128.906	86.7968	128.906	86.3055	128.906	86.8596	128.906	86.2714	128.906	86.9029	128.906	86.217	128.906	86.917	128.906	86.1402	128.906	86.8929	128.906	86.0423	128.906	86.8238	128.906	85.9285	128.906	86.707	128.906	85.8081	128.906	86.546	128.906	85.6947	128.906	86.3512	128.906	85.6048	128.906	86.1399	128.906	85.5555	128.906	85.9342	128.906	85.561	128.906	85.7573	128.906	85.6289
133.301	86.4591	133.301	86.429	133.301	86.5058	133.301	86.415	133.301	86.5686	133.301	86.4149	133.301	86.6457	133.301	86.4253	133.301	86.7343	133.301	86.441	133.301	86.8301	133.301	86.4559	133.301	86.927	133.301	86.4635	133.301	87.0169	133.301	86.4574	133.301	87.0898	133.301	86.4328	133.301	87.1346	133.301	86.3869	133.301	87.141	133.301	86.32	133.301	87.1009	133.301	86.2361	133.301	87.0108	133.301	86.1435	133.301	86.8739	133.301	86.0544	133.301	86.7003	133.301	85.9838	133.301	86.5072	133.301	85.9478	133.301	86.3164	133.301	85.96	133.301	86.1504	133.301	86.028
139.16	86.5128	139.16	86.4824	139.16	86.5593	139.16	86.4677	139.16	86.6214	139.16	86.4673	139.16	86.6983	139.16	86.4784	139.16	86.7885	139.16	86.4968	139.16	86.8893	139.16	86.5169	139.16	86.9959	139.16	86.5324	139.16	87.101	139.16	86.5373	139.16	87.1948	139.16	86.5265	139.16	87.2654	139.16	86.4971	139.16	87.3008	139.16	86.4491	139.16	87.2909	139.16	86.3863	139.16	87.2302	139.16	86.3165	139.16	87.1193	139.16	86.2512	139.16	86.9667	139.16	86.2045	139.16	86.788	139.16	86.1912	139.16	86.604	139.16	86.2231	139.16	86.437	139.16	86.306
143.555	86.642	143.555	86.6047	143.555	86.6915	143.555	86.5797	143.555	86.7525	143.555	86.5664	143.555	86.8244	143.555	86.5629	143.555	86.9064	143.555	86.5659	143.555	86.9966	143.555	86.5707	143.555	87.0916	143.555	86.5718	143.555	87.1856	143.555	86.5636	143.555	87.2698	143.555	86.5417	143.555	87.3332	143.555	86.5037	143.555	87.3639	143.555	86.4502	143.555	87.3517	143.555	86.3852	143.555	87.2903	143.555	86.3167	143.555	87.1797	143.555	86.2563	143.555	87.0272	143.555	86.2175	143.555	86.8476	143.555	86.2141	143.555	86.6607	143.555	86.2566	143.555	86.4882	143.555	86.3493
147.949	86.7384	147.949	86.6906	147.949	86.7941	147.949	86.6515	147.949	86.8568	147.949	86.621	147.949	86.9255	147.949	86.5981	147.949	86.9996	147.949	86.5799	147.949	87.0776	147.949	86.5626	147.949	87.1568	147.949	86.5411	147.949	87.2322	147.949	86.5104	147.949	87.2961	147.949	86.4667	147.949	87.3384	147.949	86.408	147.949	87.3482	147.949	86.3355	147.949	87.3158	147.949	86.2543	147.949	87.2354	147.949	86.173	147.949	87.1069	147.949	86.104	147.949	86.9378	147.949	86.0612	147.949	86.7428	147.949	86.0585	147.949	86.5417	147.949	86.1058	147.949	86.3565	147.949	86.2068
153.809	87.0159	153.809	86.9639	153.809	87.0699	153.809	86.9152	153.809	87.1247	153.809	86.8703	153.809	87.179	153.809	86.8284	153.809	87.2319	153.809	86.7871	153.809	87.2823	153.809	86.7428	153.809	87.3282	153.809	86.6906	153.809	87.3656	153.809	86.6259	153.809	87.3882	153.809	86.545	153.809	87.3876	153.809	86.4467	153.809	87.3543	153.809	86.333	153.809	87.2799	153.809	86.21	153.809	87.1598	153.809	86.0882	153.809	86.9949	153.809	85.9817	153.809	86.794	153.809	85.9068	153.809	86.5727	153.809	85.879	153.809	86.3522	153.809	85.9098	153.809	86.1558	153.809	86.0037
159.668	87.2425	159.668	87.1891	159.668	87.2983	159.668	87.1396	159.668	87.3544	159.668	87.0947	159.668	87.4093	159.668	87.0536	159.668	87.4612	159.668	87.0136	159.668	87.5083	159.668	86.9704	159.668	87.548	159.668	86.9186	159.668	87.5757	159.668	86.8528	159.668	87.5848	159.668	86.7688	159.668	87.567	159.668	86.6647	159.668	87.5137	159.668	86.5423	159.668	87.4179	159.668	86.4077	159.668	87.2767	159.668	86.2715	159.668	87.0934	159.668	86.1483	159.668	86.8786	159.668	86.055	159.668	86.6497	159.668	86.0082	159.668	86.4287	159.668	86.0207	159.668	86.2385	159.668	86.0985
165.527	87.3913	165.527	87.3441	165.527	87.4404	165.527	87.2997	165.527	87.4905	165.527	87.2584	165.527	87.5412	165.527	87.2192	165.527	87.5923	165.527	87.1798	165.527	87.643	165.527	87.1361	165.527	87.6912	165.527	87.083	165.527	87.732	165.527	87.0156	165.527	87.7576	165.527	86.9301	165.527	87.7578	165.527	86.8253	165.527	87.7218	165.527	86.7037	165.527	87.6408	165.527	86.5721	165.527	87.5106	165.527	86.4414	165.527	87.3341	165.527	86.3266	165.527	87.122	165.527	86.2439	165.527	86.8922	165.527	86.209	165.527	86.6674	165.527	86.2333	165.527	86.4707	165.527	86.3218
171.387	87.3237	171.387	87.2801	171.387	87.3685	171.387	87.2391	171.387	87.4138	171.387	87.2013	171.387	87.4592	171.387	87.1659	171.387	87.5051	171.387	87.1303	171.387	87.5518	171.387	87.0903	171.387	87.5983	171.387	87.0404	171.387	87.6406	171.387	86.9752	171.387	87.6716	171.387	86.8909	171.387	87.6808	171.387	86.7864	171.387	87.6566	171.387	86.6646	171.387	87.5887	171.387	86.5328	171.387	87.4717	171.387	86.4031	171.387	87.3069	171.387	86.2908	171.387	87.104	171.387	86.2126	171.387	86.8804	171.387	86.1837	171.387	86.6583	171.387	86.2146	171.387	86.4611	171.387	86.3087
177.246	87.2834	177.246	87.2375	177.246	87.3297	177.246	87.1936	177.246	87.3751	177.246	87.1531	177.246	87.4199	177.246	87.1161	177.246	87.4651	177.246	87.0805	177.246	87.5119	177.246	87.0424	177.246	87.5598	177.246	86.9963	177.246	87.6054	177.246	86.9366	177.246	87.6411	177.246	86.8589	177.246	87.6558	177.246	86.7613	177.246	87.6366	177.246	86.6463	177.246	87.5724	177.246	86.5206	177.246	87.4572	177.246	86.3958	177.246	87.2924	177.246	86.2868	177.246	87.0888	177.246	86.21	177.246	86.8646	177.246	86.1804	177.246	86.6433	177.246	86.2088	177.246	86.4484	177.246	86.2994
183.105	87.1912	183.105	87.1328	183.105	87.2436	183.105	87.0711	183.105	87.2885	183.105	87.009	183.105	87.3261	183.105	86.9484	183.105	87.3589	183.105	86.8892	183.105	87.3901	183.105	86.829	183.105	87.4222	183.105	86.7637	183.105	87.4548	183.105	86.6887	183.105	87.4831	183.105	86.6002	183.105	87.497	183.105	86.4971	183.105	87.4835	183.105	86.3823	183.105	87.4299	183.105	86.2631	183.105	87.3274	183.105	86.151	183.105	87.175	183.105	86.0607	183.105	86.9806	183.105	86.0071	183.105	86.7608	183.105	86.0031	183.105	86.5373	183.105	86.0564	183.105	86.3334	183.105	86.1686
188.965	87.3224	188.965	87.261	188.965	87.3723	188.965	87.1912	188.965	87.4092	188.965	87.116	188.965	87.4332	188.965	87.037	188.965	87.4466	188.965	86.9542	188.965	87.4532	188.965	86.865	188.965	87.4561	188.965	86.7652	188.965	87.4562	188.965	86.6505	188.965	87.45	188.965	86.518	188.965	87.4291	188.965	86.3681	188.965	87.3823	188.965	86.2061	188.965	87.2978	188.965	86.0429	188.965	87.1679	188.965	85.8942	188.965	86.9918	188.965	85.7782	188.965	86.7772	188.965	85.712	188.965	86.5397	188.965	85.7079	188.965	86.2998	188.965	85.7707	188.965	86.0792	188.965	85.8977
196.289	87.5446	196.289	87.497	196.289	87.5802	196.289	87.4402	196.289	87.6023	196.289	87.3771	196.289	87.6118	196.289	87.3096	196.289	87.6119	196.289	87.2372	196.289	87.6067	196.289	87.1571	196.289	87.6	196.289	87.0645	196.289	87.5924	196.289	86.954	196.289	87.5795	196.289	86.8214	196.289	87.5516	196.289	86.6657	196.289	87.4956	196.289	86.4908	196.289	87.3989	196.289	86.3067	196.289	87.2538	196.289	86.1292	196.289	87.0611	196.289	85.9781	196.289	86.8313	196.289	85.8735	196.289	86.5831	196.289	85.8314	196.289	86.3402	196.289	85.8606	196.289	86.1262	196.289	85.9615
203.613	87.4717	203.613	87.4179	203.613	87.5093	203.613	87.3519	203.613	87.5279	203.613	87.2777	203.613	87.5278	203.613	87.1979	203.613	87.512	203.613	87.1126	203.613	87.4863	203.613	87.0192	203.613	87.4571	203.613	86.913	203.613	87.4285	203.613	86.7894	203.613	87.3999	203.613	86.6449	203.613	87.3643	203.613	86.4801	203.613	87.3095	203.613	86.3007	203.613	87.2222	203.613	86.1186	203.613	87.0926	203.613	85.9504	203.613	86.9187	203.613	85.8156	203.613	86.708	203.613	85.732	203.613	86.4769	203.613	85.7116	203.613	86.2465	203.613	85.7589	203.613	86.0382	203.613	85.8709
210.938	87.396	210.938	87.335	210.938	87.4399	210.938	87.262	210.938	87.4633	210.938	87.1818	210.938	87.4649	210.938	87.0975	210.938	87.4468	210.938	87.0095	210.938	87.4129	210.938	86.9151	210.938	87.3685	210.938	86.8088	210.938	87.317	210.938	86.6847	210.938	87.2584	210.938	86.5378	210.938	87.1878	210.938	86.3675	210.938	87.0965	210.938	86.1785	210.938	86.9752	210.938	85.9827	210.938	86.8184	210.938	85.7977	210.938	86.627	210.938	85.6443	210.938	86.4103	210.938	85.5417	210.938	86.1837	210.938	85.503	210.938	85.9659	210.938	85.5323	210.938	85.7747	210.938	85.626
218.262	87.416	218.262	87.3589	218.262	87.4537	218.262	87.2876	218.262	87.4686	218.262	87.2069	218.262	87.4602	218.262	87.1203	218.262	87.4313	218.262	87.0284	218.262	87.3872	218.262	86.9284	218.262	87.3338	218.262	86.815	218.262	87.2752	218.262	86.6824	218.262	87.2106	218.262	86.5261	218.262	87.1336	218.262	86.3458	218.262	87.0336	218.262	86.1469	218.262	86.9002	218.262	85.9418	218.262	86.728	218.262	85.7482	218.262	86.5202	218.262	85.5867	218.262	86.2898	218.262	85.4755	218.262	86.056	218.262	85.4264	218.262	85.8394	218.262	85.4429	218.262	85.6572	218.262	85.522
225.586	87.3261	225.586	87.2694	225.586	87.3602	225.586	87.1959	225.586	87.3685	225.586	87.1115	225.586	87.3513	225.586	87.0208	225.586	87.3129	225.586	86.9252	225.586	87.2614	225.586	86.8227	225.586	87.206	225.586	86.7088	225.586	87.1535	225.586	86.5781	225.586	87.1052	225.586	86.4268	225.586	87.0544	225.586	86.2559	225.586	86.9889	225.586	86.0721	225.586	86.8946	225.586	85.8891	225.586	86.7624	225.586	85.7251	225.586	86.5918	225.586	85.5994	225.586	86.3928	225.586	85.5266	225.586	86.1826	225.586	85.5138	225.586	85.98	225.586	85.5597	225.586	85.8013	225.586	85.6582
232.91	87.352	232.91	87.2915	232.91	87.3835	232.91	87.2087	232.91	87.3812	232.91	87.1103	232.91	87.344	232.91	87.0011	232.91	87.2753	232.91	86.8826	232.91	87.183	232.91	86.7528	232.91	87.0778	232.91	86.6071	232.91	86.9702	232.91	86.4404	232.91	86.8665	232.91	86.2498	232.91	86.7662	232.91	86.0381	232.91	86.6617	232.91	85.8152	232.91	86.5428	232.91	85.5991	232.91	86.4017	232.91	85.413	232.91	86.2377	232.91	85.2798	232.91	86.0574	232.91	85.214	232.91	85.8724	232.91	85.2178	232.91	85.6941	232.91	85.2815	232.91	85.531	232.91	85.3904
241.699	87.3414	241.699	87.2588	241.699	87.3967	241.699	87.158	241.699	87.4173	241.699	87.0476	241.699	87.3994	241.699	86.9333	241.699	87.3443	241.699	86.816	241.699	87.2577	241.699	86.6917	241.699	87.1486	241.699	86.5525	241.699	87.0262	241.699	86.3897	241.699	86.8965	241.699	86.1972	241.699	86.7592	241.699	85.9748	241.699	86.6084	241.699	85.7315	241.699	86.4357	241.699	85.4855	241.699	86.2369	241.699	85.2627	241.699	86.0162	241.699	85.0896	241.699	85.7868	241.699	84.9854	241.699	85.5665	241.699	84.9549	241.699	85.3701	241.699	84.9901	241.699	85.2058	241.699	85.0773
250.488	87.2881	250.488	87.1793	250.488	87.3619	250.488	87.0467	250.488	87.3921	250.488	86.9016	250.488	87.3743	250.488	86.7524	250.488	87.3097	250.488	86.6028	250.488	87.2051	250.488	86.4501	250.488	87.0716	250.488	86.2866	250.488	86.9218	250.488	86.1022	250.488	86.7649	250.488	85.8885	250.488	86.6031	250.488	85.6432	250.488	86.4308	250.488	85.3745	250.488	86.2389	250.488	85.1024	250.488	86.021	250.488	84.8568	250.488	85.7797	250.488	84.6698	250.488	85.5276	250.488	84.5641	250.488	85.2828	250.488	84.5452	250.488	85.0607	250.488	84.6013	250.488	84.8698	250.488	84.7144
259.277	87.4246	259.277	87.3236	259.277	87.4967	259.277	87.2039	259.277	87.5318	259.277	87.0753	259.277	87.5254	259.277	86.9449	259.277	87.4776	259.277	86.8148	259.277	87.3929	259.277	86.681	259.277	87.279	259.277	86.5345	259.277	87.1439	259.277	86.3635	259.277	86.9928	259.277	86.1572	259.277	86.8253	259.277	85.9103	259.277	86.6352	259.277	85.6267	259.277	86.4146	259.277	85.3229	259.277	86.1593	259.277	85.0276	259.277	85.8753	259.277	84.7773	259.277	85.5785	259.277	84.6054	259.277	85.291	259.277	84.5303	259.277	85.0325	259.277	84.5508	259.277	84.8164	259.277	84.6518
268.066	86.9779	268.066	86.8492	268.066	87.0739	268.066	86.7022	268.066	87.126	268.066	86.5511	268.066	87.1277	268.066	86.4075	268.066	87.078	268.066	86.277	268.066	86.9824	268.066	86.1583	268.066	86.8511	268.066	86.0433	268.066	86.6969	268.066	85.9207	268.066	86.5302	268.066	85.7792	268.066	86.3554	268.066	85.6121	268.066	86.1696	268.066	85.4209	268.066	85.9662	268.066	85.2162	268.066	85.7424	268.066	85.0175	268.066	85.5056	268.066	84.8478	268.066	85.2732	268.066	84.7268	268.066	85.0662	268.066	84.6637	268.066	84.8993	268.066	84.6559	268.066	84.7765	268.066	84.6955
276.855	87.1929	276.855	87.0704	276.855	87.273	276.855	86.9149	276.855	87.3047	276.855	86.7373	276.855	87.2858	276.855	86.5472	276.855	87.2185	276.855	86.3503	276.855	87.1081	276.855	86.1472	276.855	86.9625	276.855	85.9335	276.855	86.7903	276.855	85.7032	276.855	86.5992	276.855	85.4525	276.855	86.393	276.855	85.184	276.855	86.1706	276.855	84.9099	276.855	85.9275	276.855	84.651	276.855	85.6609	276.855	84.4331	276.855	85.3762	276.855	84.2779	276.855	85.0896	276.855	84.195	276.855	84.8245	276.855	84.1798	276.855	84.6012	276.855	84.2193	276.855	84.4282	276.855	84.3027
287.109	87.3756	287.109	87.2591	287.109	87.4498	287.109	87.1125	287.109	87.4736	287.109	86.9495	287.109	87.4441	287.109	86.7816	287.109	87.3634	287.109	86.6148	287.109	87.2374	287.109	86.4462	287.109	87.0744	287.109	86.2652	287.109	86.883	287.109	86.0559	287.109	86.6699	287.109	85.804	287.109	86.4391	287.109	85.5031	287.109	86.1924	287.109	85.1613	287.109	85.931	287.109	84.8055	287.109	85.6585	287.109	84.479	287.109	85.3828	287.109	84.23	287.109	85.1155	287.109	84.093	287.109	84.8679	287.109	84.0727	287.109	84.6462	287.109	84.1462	287.109	84.4504	287.109	84.2804
297.363	87.1114	297.363	86.9871	297.363	87.1896	297.363	86.826	297.363	87.2175	297.363	86.6404	297.363	87.1966	297.363	86.4431	297.363	87.1326	297.363	86.2446	297.363	87.0336	297.363	86.0494	297.363	86.9051	297.363	85.8546	297.363	86.7461	297.363	85.6507	297.363	86.5486	297.363	85.4251	297.363	86.3017	297.363	85.1681	297.363	86.0011	297.363	84.88	297.363	85.6574	297.363	84.576	297.363	85.3002	297.363	84.2876	297.363	84.9691	297.363	84.0558	297.363	84.6954	297.363	83.9162	297.363	84.4855	297.363	83.8817	297.363	84.3212	297.363	83.9362	297.363	84.1782	297.363	84.0456
307.617	86.8702	307.617	86.7666	307.617	86.9377	307.617	86.64	307.617	86.9595	307.617	86.502	307.617	86.9331	307.617	86.3597	307.617	86.8657	307.617	86.2137	307.617	86.774	307.617	86.058	307.617	86.6785	307.617	85.8833	307.617	86.5929	307.617	85.6811	307.617	86.5131	307.617	85.4474	307.617	86.4135	307.617	85.1865	307.617	86.2579	307.617	84.9135	307.617	86.0182	307.617	84.6535	307.617	85.6941	307.617	84.437	307.617	85.3219	307.617	84.2901	307.617	84.9656	307.617	84.2231	307.617	84.6853	307.617	84.2242	307.617	84.5032	307.617	84.2666	307.617	84.3964	307.617	84.3256
319.336	86.743	319.336	86.6142	319.336	86.8251	319.336	86.4597	319.336	86.8446	319.336	86.3015	319.336	86.7936	319.336	86.1561	319.336	86.6735	319.336	86.0289	319.336	86.4965	319.336	85.911	319.336	86.2843	319.336	85.7823	319.336	86.0642	319.336	85.6182	319.336	85.8588	319.336	85.398	319.336	85.6731	319.336	85.1132	319.336	85.4902	319.336	84.7741	319.336	85.2806	319.336	84.4129	319.336	85.0231	319.336	84.0804	319.336	84.7234	319.336	83.8301	319.336	84.4184	319.336	83.6931	319.336	84.1572	319.336	83.6617	319.336	83.9698	319.336	83.6982	319.336	83.8487	319.336	83.7646
329.59	86.6652	329.59	86.4866	329.59	86.7925	329.59	86.2785	329.59	86.8541	329.59	86.0668	329.59	86.8446	329.59	85.8747	329.59	86.7664	329.59	85.7154	329.59	86.6288	329.59	85.5862	329.59	86.4449	329.59	85.4687	329.59	86.228	329.59	85.3351	329.59	85.9864	329.59	85.1579	329.59	85.7199	329.59	84.919	329.59	85.4204	329.59	84.6177	329.59	85.08	329.59	84.2756	329.59	84.7034	329.59	83.9358	329.59	84.3178	329.59	83.6517	329.59	83.9702	329.59	83.4639	329.59	83.7057	329.59	83.379	329.59	83.5393	329.59	83.369	329.59	83.4485	329.59	83.3975
341.309	86.3236	341.309	86.1399	341.309	86.4628	341.309	85.9352	341.309	86.544	341.309	85.7381	341.309	86.5645	341.309	85.5742	341.309	86.5315	341.309	85.4555	341.309	86.4596	341.309	85.3739	341.309	86.3649	341.309	85.3027	341.309	86.2581	341.309	85.2056	341.309	86.1363	341.309	85.0487	341.309	85.9805	341.309	84.8115	341.309	85.7605	341.309	84.4942	341.309	85.4497	341.309	84.1226	341.309	85.042	341.309	83.7468	341.309	84.5665	341.309	83.4288	341.309	84.089	341.309	83.2163	341.309	83.6871	341.309	83.1192	341.309	83.4083	341.309	83.1102	341.309	83.2445	341.309	83.1547
353.027	85.8952	353.027	85.6471	353.027	86.0607	353.027	85.3474	353.027	86.1301	353.027	85.0421	353.027	86.107	353.027	84.784	353.027	86.0103	353.027	84.6145	353.027	85.8716	353.027	84.5432	353.027	85.7277	353.027	84.54	353.027	85.6066	353.027	84.5466	353.027	85.5122	353.027	84.4999	353.027	85.4164	353.027	84.351	353.027	85.2683	353.027	84.0779	353.027	85.0154	353.027	83.693	353.027	84.6279	353.027	83.2469	353.027	84.1196	353.027	82.8212	353.027	83.5562	353.027	82.4985	353.027	83.039	353.027	82.3199	353.027	82.6543	353.027	82.2686	353.027	82.4224	353.027	82.3057
366.211	85.9185	366.211	85.6034	366.211	86.0714	366.211	85.1442	366.211	86.0608	366.211	84.5835	366.211	85.9015	366.211	83.9996	366.211	85.6299	366.211	83.509	366.211	85.3126	366.211	83.2344	366.211	85.0452	366.211	83.2337	366.211	84.9255	366.211	83.4512	366.211	84.995	366.211	83.7538	366.211	85.1998	366.211	84.0079	366.211	85.4172	366.211	84.1232	366.211	85.5198	366.211	84.0594	366.211	85.4209	366.211	83.82	366.211	85.0888	366.211	83.4474	366.211	84.5495	366.211	83.0196	366.211	83.8851	366.211	82.6389	366.211	83.2227	366.211	82.4115	366.211	82.7009	366.211	82.4201
379.395	87.828	379.395	87.634	379.395	87.901	379.395	87.3245	379.395	87.8455	379.395	86.9042	379.395	87.6534	379.395	86.3801	379.395	87.3194	379.395	85.768	379.395	86.8485	379.395	85.1028	379.395	86.2695	379.395	84.4499	379.395	85.6529	379.395	83.9067	379.395	85.1207	379.395	83.5769	379.395	84.816	379.395	83.5149	379.395	84.8162	379.395	83.6879	379.395	85.0649	379.395	84	379.395	85.4162	379.395	84.3527	379.395	85.7321	379.395	84.6829	379.395	85.9336	379.395	84.968	379.395	85.9997	379.395	85.2127	379.395	85.948	379.395	85.4315	379.395	85.8141	379.395	85.634
392.578	87.1939	392.578	86.9809	392.578	87.3205	392.578	86.6924	392.578	87.3503	392.578	86.3393	392.578	87.2735	392.578	85.9332	392.578	87.0831	392.578	85.4862	392.578	86.7793	392.578	85.0127	392.578	86.3764	392.578	84.5336	392.578	85.9095	392.578	84.0797	392.578	85.4368	392.578	83.6933	392.578	85.0294	392.578	83.4214	392.578	84.7463	392.578	83.3008	392.578	84.6093	392.578	83.3414	392.578	84.5997	392.578	83.5208	392.578	84.6767	392.578	83.7935	392.578	84.7949	392.578	84.1078	392.578	84.9095	392.578	84.4164	392.578	84.9794	392.578	84.6807	392.578	84.9721	392.578	84.8719
405.762	86.798	405.762	86.5868	405.762	86.9123	405.762	86.2921	405.762	86.9206	405.762	85.9317	405.762	86.8171	405.762	85.5275	405.762	86.5994	405.762	85.1031	405.762	86.2711	405.762	84.6801	405.762	85.8472	405.762	84.2758	405.762	85.3618	405.762	83.9035	405.762	84.8729	405.762	83.5768	405.762	84.4545	405.762	83.316	405.762	84.1714	405.762	83.1515	405.762	84.0484	405.762	83.1167	405.762	84.0639	405.762	83.2305	405.762	84.1728	405.762	83.4775	405.762	84.33	405.762	83.806	405.762	84.4942	405.762	84.145	405.762	84.6223	405.762	84.4282	405.762	84.6713	405.762	84.6097
420.41	87.0498	420.41	86.8188	420.41	87.1858	420.41	86.5049	420.41	87.2163	420.41	86.1198	420.41	87.1336	420.41	85.6738	420.41	86.9329	420.41	85.1765	420.41	86.6132	420.41	84.6401	420.41	86.1788	420.41	84.0852	420.41	85.6423	420.41	83.5453	420.41	85.0292	420.41	83.0663	420.41	84.3821	420.41	82.6968	420.41	83.7644	420.41	82.4743	420.41	83.2572	420.41	82.4137	420.41	82.9421	420.41	82.5052	420.41	82.8655	420.41	82.7185	420.41	83.0025	420.41	83.0058	420.41	83.2582	420.41	83.3056	420.41	83.513	420.41	83.5513	420.41	83.6714	420.41	83.6848
435.059	86.6782	435.059	86.4764	435.059	86.7953	435.059	86.204	435.059	86.8201	435.059	85.8802	435.059	86.7508	435.059	85.5249	435.059	86.5907	435.059	85.1524	435.059	86.3477	435.059	84.768	435.059	86.0364	435.059	84.3703	435.059	85.6775	435.059	83.9599	435.059	85.2948	435.059	83.5512	435.059	84.9077	435.059	83.1797	435.059	84.5265	435.059	82.8993	435.059	84.1577	435.059	82.7635	435.059	83.8221	435.059	82.7967	435.059	83.5658	435.059	82.9743	435.059	83.4429	435.059	83.2309	435.059	83.4677	435.059	83.4868	435.059	83.5867	435.059	83.6735	435.059	83.7071	435.059	83.7489
451.172	86.7396	451.172	86.4901	451.172	86.8735	451.172	86.1388	451.172	86.8833	451.172	85.704	451.172	86.7651	451.172	85.2058	451.172	86.5215	451.172	84.6625	451.172	86.1644	451.172	84.0861	451.172	85.7186	451.172	83.483	451.172	85.222	451.172	82.8634	451.172	84.7179	451.172	82.2599	451.172	84.2411	451.172	81.7481	451.172	83.8078	451.172	81.4471	451.172	83.4265	451.172	81.4652	451.172	83.1286	451.172	81.8092	451.172	82.9818	451.172	82.3606	451.172	83.0438	451.172	82.9538	451.172	83.2876	451.172	83.4557	451.172	83.5965	451.172	83.7871	451.172	83.8361	451.172	83.9135
465.82	86.7598	465.82	86.5335	465.82	86.8831	465.82	86.2211	465.82	86.8919	465.82	85.8435	465.82	86.7808	465.82	85.4206	465.82	86.5495	465.82	84.9666	465.82	86.2033	465.82	84.4854	465.82	85.7556	465.82	83.9707	465.82	85.2309	465.82	83.4103	465.82	84.6671	465.82	82.7969	465.82	84.1094	465.82	82.1462	465.82	83.5956	465.82	81.523	465.82	83.147	465.82	81.0581	465.82	82.7786	465.82	80.907	465.82	82.5238	465.82	81.129	465.82	82.4297	465.82	81.6102	465.82	82.5044	465.82	82.147	465.82	82.6731	465.82	82.5704	465.82	82.8078	465.82	82.7936
483.398	86.1174	483.398	85.8832	483.398	86.2568	483.398	85.5683	483.398	86.2965	483.398	85.195	483.398	86.2372	483.398	84.7883	483.398	86.0811	483.398	84.3664	483.398	85.8293	483.398	83.9337	483.398	85.485	483.398	83.4802	483.398	85.0594	483.398	82.9896	483.398	84.5758	483.398	82.4537	483.398	84.0673	483.398	81.8923	483.398	83.5662	483.398	81.3734	483.398	83.0991	483.398	81.0195	483.398	82.7002	483.398	80.9594	483.398	82.4287	483.398	81.2259	483.398	82.3483	483.398	81.7074	483.398	82.4598	483.398	82.2238	483.398	82.6669	483.398	82.6256	483.398	82.8284	483.398	82.8317
499.512	86.0387	499.512	85.8115	499.512	86.1676	499.512	85.5088	499.512	86.1863	499.512	85.1605	499.512	86.0938	499.512	84.7925	499.512	85.8961	499.512	84.416	499.512	85.6026	499.512	84.0208	499.512	85.2261	499.512	83.5805	499.512	84.7838	499.512	83.0654	499.512	84.2999	499.512	82.4606	499.512	83.8016	499.512	81.7861	499.512	83.3135	499.512	81.1191	499.512	82.8563	499.512	80.6064	499.512	82.4617	499.512	80.4179	499.512	82.1877	499.512	80.6218	499.512	82.0964	499.512	81.1084	499.512	82.1871	499.512	81.6736	499.512	82.3613	499.512	82.143	499.512	82.4757	499.512	82.4183
517.09	85.7457	517.09	85.4945	517.09	85.8807	517.09	85.1631	517.09	85.8857	517.09	84.8018	517.09	85.7679	517.09	84.4568	517.09	85.5497	517.09	84.1474	517.09	85.2596	517.09	83.8553	517.09	84.9229	517.09	83.5352	517.09	84.5524	517.09	83.1377	517.09	84.1457	517.09	82.63	517.09	83.6888	517.09	82.0144	517.09	83.1717	517.09	81.3523	517.09	82.6162	517.09	80.7895	517.09	82.1074	517.09	80.53	517.09	81.7904	517.09	80.6988	517.09	81.7779	517.09	81.2048	517.09	82.0286	517.09	81.8132	517.09	82.3614	517.09	82.3124	517.09	82.5854	517.09	82.5818
536.133	85.2673	536.133	84.8998	536.133	85.452	536.133	84.3886	536.133	85.4469	536.133	83.8083	536.133	85.2707	536.133	83.2601	536.133	84.9633	536.133	82.8346	536.133	84.581	536.133	82.5606	536.133	84.1848	536.133	82.3866	536.133	83.8216	536.133	82.2186	536.133	83.5007	536.133	81.9752	536.133	83.1864	536.133	81.6247	536.133	82.8193	536.133	81.2051	536.133	82.3688	536.133	80.8337	536.133	81.8956	536.133	80.6771	536.133	81.577	536.133	80.8481	536.133	81.5937	536.133	81.3007	536.133	81.9227	536.133	81.8596	536.133	82.3356	536.133	82.3387	536.133	82.6027	536.133	82.6076
555.176	85.4593	555.176	85.1223	555.176	85.6185	555.176	84.629	555.176	85.5934	555.176	84.0194	555.176	85.3878	555.176	83.3506	555.176	85.0149	555.176	82.685	555.176	84.5012	555.176	82.0687	555.176	83.8947	555.176	81.5135	555.176	83.2687	555.176	80.9988	555.176	82.7022	555.176	80.496	555.176	82.2302	555.176	80.0018	555.176	81.8063	555.176	79.5685	555.176	81.3435	555.176	79.3143	555.176	80.8297	555.176	79.3758	555.176	80.4308	555.176	79.7945	555.176	80.4134	555.176	80.4491	555.176	80.8251	555.176	81.1308	555.176	81.3898	555.176	81.6532	555.176	81.7984	555.176	81.8945
574.219	84.9657	574.219	84.6126	574.219	85.1485	574.219	84.1179	574.219	85.158	574.219	83.5425	574.219	85.006	574.219	82.9722	574.219	84.7101	574.219	82.4802	574.219	84.2902	574.219	82.0762	574.219	83.7724	574.219	81.6929	574.219	83.198	574.219	81.2292	574.219	82.6228	574.219	80.6132	574.219	82.0907	574.219	79.8521	574.219	81.5919	574.219	79.0771	574.219	81.0627	574.219	78.5491	574.219	80.47	574.219	78.5163	574.219	79.9334	574.219	78.9749	574.219	79.7264	574.219	79.679	574.219	79.9902	574.219	80.3653	574.219	80.5033	574.219	80.8589	574.219	80.9256	574.219	81.0595
594.727	84.5679	594.727	84.2783	594.727	84.6496	594.727	83.7977	594.727	84.531	594.727	83.1749	594.727	84.2404	594.727	82.4971	594.727	83.8249	594.727	81.8739	594.727	83.3431	594.727	81.3851	594.727	82.8525	594.727	81.0214	594.727	82.3905	594.727	80.6849	594.727	81.9622	594.727	80.2513	594.727	81.5396	594.727	79.64	594.727	81.0757	594.727	78.8775	594.727	80.5407	594.727	78.1611	594.727	79.9825	594.727	77.8326	594.727	79.572	594.727	78.0933	594.727	79.5099	594.727	78.7611	594.727	79.7923	594.727	79.4986	594.727	80.1798	594.727	80.0788	594.727	80.424	594.727	80.3988
615.234	84.037	615.234	83.6625	615.234	84.1806	615.234	83.072	615.234	84.0999	615.234	82.3196	615.234	83.8125	615.234	81.5146	615.234	83.3464	615.234	80.8069	615.234	82.7451	615.234	80.3129	615.234	82.073	615.234	80.0253	615.234	81.4077	615.234	79.8139	615.234	80.8095	615.234	79.5181	615.234	80.2753	615.234	79.0378	615.234	79.7262	615.234	78.3964	615.234	79.0774	615.234	77.7935	615.234	78.382	615.234	77.5617	615.234	77.9503	615.234	77.8898	615.234	78.1394	615.234	78.6026	615.234	78.8452	615.234	79.3695	615.234	79.6104	615.234	79.9503	615.234	80.1051	615.234	80.2166
637.207	83.3862	637.207	83.0056	637.207	83.5205	637.207	82.4047	637.207	83.4135	637.207	81.6575	637.207	83.0917	637.207	80.895	637.207	82.6029	637.207	80.267	637.207	82.0173	637.207	79.8415	637.207	81.4206	637.207	79.533	637.207	80.8859	637.207	79.1582	637.207	80.4257	637.207	78.552	637.207	79.9591	637.207	77.6613	637.207	79.3416	637.207	76.6553	637.207	78.4648	637.207	76.0326	637.207	77.4375	637.207	76.3056	637.207	76.7974	637.207	77.305	637.207	77.1548	637.207	78.4545	637.207	78.2304	637.207	79.3932	637.207	79.2946	637.207	79.991	637.207	79.975	637.207	80.1984
659.18	85.2417	659.18	84.7896	659.18	85.3944	659.18	84.0651	659.18	85.2383	659.18	83.1319	659.18	84.778	659.18	82.1215	659.18	84.0417	659.18	81.2484	659.18	83.1129	659.18	80.7191	659.18	82.1793	659.18	80.5304	659.18	81.523	659.18	80.4245	659.18	81.3097	659.18	80.0779	659.18	81.34	659.18	79.2492	659.18	81.175	659.18	77.8304	659.18	80.4247	659.18	76.0326	659.18	78.9286	659.18	74.9227	659.18	77.192	659.18	75.7209	659.18	76.9297	659.18	77.5164	659.18	78.4036	659.18	79.1238	659.18	79.882	659.18	80.2173	659.18	80.668	659.18	80.7495
682.617	87.429	682.617	87.0113	682.617	87.5559	682.617	86.2957	682.617	87.4064	682.617	85.3027	682.617	86.9946	682.617	84.1239	682.617	86.3311	682.617	82.9895	682.617	85.4327	682.617	82.2543	682.617	84.3639	682.617	82.1127	682.617	83.3265	682.617	82.332	682.617	82.691	682.617	82.4887	682.617	82.6664	682.617	82.2645	682.617	82.899	682.617	81.4901	682.617	82.7842	682.617	80.1728	682.617	81.9047	682.617	78.7651	682.617	80.2049	682.617	78.4299	682.617	78.561	682.617	79.5728	682.617	78.8911	682.617	81.061	682.617	80.5912	682.617	82.0898	682.617	81.9165	682.617	82.4087
707.52	88.0083	707.52	87.6056	707.52	88.1266	707.52	86.9117	707.52	87.9758	707.52	85.9411	707.52	87.569	707.52	84.7507	707.52	86.909	707.52	83.4847	707.52	85.992	707.52	82.4178	707.52	84.8365	707.52	81.8583	707.52	83.5457	707.52	81.8351	707.52	82.3967	707.52	82.0084	707.52	81.7841	707.52	81.9747	707.52	81.7621	707.52	81.4803	707.52	81.833	707.52	80.4822	707.52	81.4905	707.52	79.3105	707.52	80.6683	707.52	78.8466	707.52	79.9629	707.52	79.6276	707.52	80.2485	707.52	80.9228	707.52	81.2718	707.52	81.9407	707.52	82.1235	707.52	82.3693
732.422	87.6017	732.422	87.3587	732.422	87.5927	732.422	86.8583	732.422	87.3474	732.422	86.1108	732.422	86.8854	732.422	85.1476	732.422	86.2228	732.422	84.0431	732.422	85.3693	732.422	82.9606	732.422	84.3414	732.422	82.169	732.422	83.2105	732.422	81.864	732.422	82.1891	732.422	81.8928	732.422	81.5884	732.422	81.8506	732.422	81.4314	732.422	81.3927	732.422	81.2755	732.422	80.3697	732.422	80.6697	732.422	78.9283	732.422	79.5879	732.422	77.8036	732.422	78.7553	732.422	78.0457	732.422	79.1839	732.422	79.3656	732.422	80.3857	732.422	80.661	732.422	81.2545	732.422	81.3537
757.324	86.9597	757.324	86.7284	757.324	86.9516	757.324	86.2678	757.324	86.7062	757.324	85.5888	757.324	86.2442	757.324	84.7036	757.324	85.5973	757.324	83.6633	757.324	84.7938	757.324	82.6323	757.324	83.8595	757.324	81.8956	757.324	82.8555	757.324	81.6205	757.324	81.9485	757.324	81.6087	757.324	81.3775	757.324	81.4887	757.324	81.1485	757.324	81.0143	757.324	80.868	757.324	80.1614	757.324	80.1064	757.324	79.1893	757.324	78.8258	757.324	78.6626	757.324	77.806	757.324	78.9926	757.324	78.2278	757.324	79.8552	757.324	79.5571	757.324	80.6385	757.324	80.5984	757.324	80.9502
785.156	87.1471	785.156	86.9183	785.156	87.1594	785.156	86.4722	785.156	86.9562	785.156	85.8075	785.156	86.5403	785.156	84.9363	785.156	85.909	785.156	83.9236	785.156	85.0462	785.156	82.9257	785.156	83.9295	785.156	82.1411	785.156	82.5825	785.156	81.6359	785.156	81.1873	785.156	81.2537	785.156	80.1451	785.156	80.7506	785.156	79.6942	785.156	79.9454	785.156	79.4648	785.156	78.7891	785.156	78.9558	785.156	77.4923	785.156	78.1656	785.156	76.7797	785.156	77.8454	785.156	77.4278	785.156	78.7028	785.156	78.9383	785.156	80.046	785.156	80.3058	785.156	80.9343	785.156	81.026
811.523	86.8192	811.523	86.7381	811.523	86.6688	811.523	86.4153	811.523	86.3205	811.523	85.8533	811.523	85.8215	811.523	85.054	811.523	85.2004	811.523	84.0309	811.523	84.4413	811.523	82.8617	811.523	83.4959	811.523	81.7562	811.523	82.3441	811.523	81.0071	811.523	81.1127	811.523	80.7092	811.523	80.1718	811.523	80.5948	811.523	79.7734	811.523	80.2941	811.523	79.5044	811.523	79.6196	811.523	78.7684	811.523	78.687	811.523	77.5733	811.523	77.9888	811.523	77.0351	811.523	78.1292	811.523	78.085	811.523	79.0302	811.523	79.5656	811.523	80.0205	811.523	80.4617	811.523	80.5815
840.82	87.2319	840.82	87.1171	840.82	87.055	840.82	86.6984	840.82	86.6225	840.82	85.9745	840.82	86.0129	840.82	84.9624	840.82	85.3293	840.82	83.7329	840.82	84.6248	840.82	82.4508	840.82	83.8349	840.82	81.3651	840.82	82.8163	840.82	80.6779	840.82	81.5199	840.82	80.3653	840.82	80.2294	840.82	80.1765	840.82	79.4562	840.82	79.8188	840.82	79.0939	840.82	79.1203	840.82	78.3953	840.82	78.1354	840.82	77.0044	840.82	77.306	840.82	76.0943	840.82	77.4328	840.82	77.5925	840.82	78.654	840.82	79.7379	840.82	80.0856	840.82	80.9148	840.82	80.9648
870.117	86.9302	870.117	86.8456	870.117	86.7478	870.117	86.4703	870.117	86.3305	870.117	85.7702	870.117	85.7316	870.117	84.7181	870.117	85.0033	870.117	83.3709	870.117	84.1588	870.117	81.9806	870.117	83.1764	870.117	80.9473	870.117	82.0899	870.117	80.4179	870.117	81.1354	870.117	80.1057	870.117	80.6861	870.117	79.6919	870.117	80.6628	870.117	79.0882	870.117	80.37	870.117	78.3893	870.117	79.1362	870.117	77.7664	870.117	76.7262	870.117	77.4457	870.117	74.5406	870.117	77.6695	870.117	75.755	870.117	78.3981	870.117	78.0311	870.117	79.2049	870.117	79.3283	870.117	79.6275
900.879	87.5937	900.879	87.565	900.879	87.2489	900.879	87.1533	900.879	86.5785	900.879	86.3473	900.879	85.7079	900.879	85.1381	900.879	84.8053	900.879	83.5689	900.879	83.9434	900.879	81.8076	900.879	82.9915	900.879	80.1924	900.879	81.6971	900.879	79.1386	900.879	79.9923	900.879	78.8163	900.879	78.6207	900.879	78.9372	900.879	78.7288	900.879	79.0252	900.879	79.4089	900.879	78.7634	900.879	79.2419	900.879	78.1256	900.879	77.783	900.879	77.516	900.879	75.9384	900.879	77.8032	900.879	76.981	900.879	79.1784	900.879	79.6002	900.879	80.6597	900.879	81.17	900.879	81.4475
933.105	87.529	933.105	87.376	933.105	87.2917	933.105	86.8697	933.105	86.6595	933.105	86.0333	933.105	85.7141	933.105	84.8674	933.105	84.6406	933.105	83.4005	933.105	83.6321	933.105	81.7777	933.105	82.7025	933.105	80.2944	933.105	81.6423	933.105	79.215	933.105	80.2667	933.105	78.5082	933.105	78.8863	933.105	77.9868	933.105	78.4419	933.105	77.6463	933.105	78.9013	933.105	77.5927	933.105	78.9688	933.105	77.7561	933.105	77.8068	933.105	78.0049	933.105	75.8008	933.105	78.4572	933.105	76.1588	933.105	79.2998	933.105	78.7288	933.105	80.271	933.105	80.4062	933.105	80.8042
965.332	87.81	965.332	87.7595	965.332	87.4424	965.332	87.3088	965.332	86.6815	965.332	86.4697	965.332	85.6668	965.332	85.2509	965.332	84.6585	965.332	83.7257	965.332	83.8463	965.332	82.1268	965.332	83.0909	965.332	80.8205	965.332	81.9895	965.332	79.9945	965.332	80.1995	965.332	79.4248	965.332	77.9288	965.332	78.8318	965.332	76.8699	965.332	78.2725	965.332	77.776	965.332	77.9367	965.332	78.388	965.332	77.7242	965.332	77.6872	965.332	77.4301	965.332	76.4989	965.332	77.387	965.332	77.413	965.332	78.3608	965.332	79.6689	965.332	79.9487	965.332	81.01	965.332	81.0326
1,000.49	88.1274	1,000.49	87.7673	1,000.49	87.984	1,000.49	87.0139	1,000.49	87.2699	1,000.49	85.9432	1,000.49	86.0634	1,000.49	84.5813	1,000.49	84.6475	1,000.49	82.956	1,000.49	83.3919	1,000.49	81.1762	1,000.49	82.4465	1,000.49	79.4886	1,000.49	81.5822	1,000.49	78.2242	1,000.49	80.4329	1,000.49	77.548	1,000.49	78.862	1,000.49	77.3367	1,000.49	77.289	1,000.49	77.4468	1,000.49	76.5406	1,000.49	77.7974	1,000.49	76.4369	1,000.49	78.1967	1,000.49	76.0377	1,000.49	78.4236	1,000.49	75.4692	1,000.49	78.5537	1,000.49	76.4254	1,000.49	78.9937	1,000.49	78.5999	1,000.49	79.8051	1,000.49	80.0818	1,000.49	80.3833
1,035.64	87.9312	1,035.64	87.8402	1,035.64	87.5921	1,035.64	87.3509	1,035.64	86.837	1,035.64	86.4938	1,035.64	85.768	1,035.64	85.2797	1,035.64	84.5588	1,035.64	83.7171	1,035.64	83.3563	1,035.64	81.863	1,035.64	82.1772	1,035.64	79.8875	1,035.64	80.9258	1,035.64	78.0968	1,035.64	79.574	1,035.64	76.7833	1,035.64	78.4151	1,035.64	76.0596	1,035.64	77.8817	1,035.64	76.0738	1,035.64	77.678	1,035.64	76.86	1,035.64	77.0261	1,035.64	77.8618	1,035.64	75.7498	1,035.64	78.4848	1,035.64	75.4111	1,035.64	78.659	1,035.64	77.4966	1,035.64	78.8702	1,035.64	79.7052	1,035.64	79.6077	1,035.64	80.6964	1,035.64	80.4899
1,072.27	87.4632	1,072.27	87.5001	1,072.27	87.0807	1,072.27	87.1684	1,072.27	86.37	1,072.27	86.3815	1,072.27	85.4084	1,072.27	85.0333	1,072.27	84.3107	1,072.27	83.1743	1,072.27	83.1317	1,072.27	81.3313	1,072.27	81.7807	1,072.27	80.477	1,072.27	80.0439	1,072.27	80.5333	1,072.27	77.9387	1,072.27	80.1407	1,072.27	76.6716	1,072.27	78.1739	1,072.27	77.0887	1,072.27	74.4181	1,072.27	77.1949	1,072.27	73.5249	1,072.27	75.6292	1,072.27	76.6759	1,072.27	73.4502	1,072.27	78.6527	1,072.27	75.4885	1,072.27	79.2793	1,072.27	78.3976	1,072.27	79.3589	1,072.27	79.8554	1,072.27	79.7198	1,072.27	80.3617	1,072.27	80.244
1,108.89	86.6093	1,108.89	86.9082	1,108.89	86.0186	1,108.89	86.9014	1,108.89	85.1091	1,108.89	86.4456	1,108.89	84.0223	1,108.89	85.3359	1,108.89	83.1737	1,108.89	83.4497	1,108.89	82.8166	1,108.89	80.986	1,108.89	82.4636	1,108.89	79.1403	1,108.89	81.2147	1,108.89	79.342	1,108.89	78.2189	1,108.89	79.9196	1,108.89	74.215	1,108.89	79.0184	1,108.89	76.1013	1,108.89	76.1169	1,108.89	78.6398	1,108.89	73.5049	1,108.89	77.8201	1,108.89	76.535	1,108.89	70.6608	1,108.89	79.6281	1,108.89	72.7619	1,108.89	81.0083	1,108.89	80.3248	1,108.89	81.3239	1,108.89	82.6767	1,108.89	81.536	1,108.89	82.8765	1,108.89	82.1926
1,148.44	86.2989	1,148.44	86.2447	1,148.44	85.9616	1,148.44	86.0727	1,148.44	84.965	1,148.44	85.8432	1,148.44	83.2214	1,148.44	85.3282	1,148.44	81.2447	1,148.44	84.2042	1,148.44	80.6041	1,148.44	82.1033	1,148.44	81.4195	1,148.44	78.9833	1,148.44	81.6687	1,148.44	77.9587	1,148.44	79.9527	1,148.44	79.7789	1,148.44	74.3227	1,148.44	79.9114	1,148.44	70.7644	1,148.44	77.0048	1,148.44	78.7966	1,148.44	68.2487	1,148.44	80.8021	1,148.44	71.9832	1,148.44	78.0099	1,148.44	78.9252	1,148.44	67.7902	1,148.44	81.8753	1,148.44	79.4391	1,148.44	83.2521	1,148.44	83.8127	1,148.44	84.0789	1,148.44	84.9972	1,148.44	84.7721
1,189.45	87.0529	1,189.45	86.3439	1,189.45	87.0142	1,189.45	85.2132	1,189.45	86.1279	1,189.45	84.2385	1,189.45	84.3664	1,189.45	83.7577	1,189.45	81.709	1,189.45	83.3628	1,189.45	78.6364	1,189.45	82.2564	1,189.45	77.8843	1,189.45	79.8082	1,189.45	79.5079	1,189.45	76.8679	1,189.45	80.092	1,189.45	77.2712	1,189.45	77.7933	1,189.45	78.5661	1,189.45	67.4149	1,189.45	78.0456	1,189.45	73.369	1,189.45	75.2918	1,189.45	79.3086	1,189.45	69.3158	1,189.45	79.3942	1,189.45	72.4757	1,189.45	72.9246	1,189.45	78.4675	1,189.45	74.0238	1,189.45	81.6374	1,189.45	81.3973	1,189.45	83.3518	1,189.45	83.7494	1,189.45	84.099
1,230.47	87.5254	1,230.47	86.7559	1,230.47	87.4231	1,230.47	85.2466	1,230.47	86.4603	1,230.47	83.5164	1,230.47	84.7199	1,230.47	82.5394	1,230.47	82.2448	1,230.47	82.3963	1,230.47	78.8935	1,230.47	81.7724	1,230.47	75.6316	1,230.47	79.5168	1,230.47	76.1588	1,230.47	75.6096	1,230.47	77.9015	1,230.47	74.8005	1,230.47	77.5035	1,230.47	77.1293	1,230.47	72.4118	1,230.47	77.9656	1,230.47	68.8691	1,230.47	76.5533	1,230.47	78.093	1,230.47	72.588	1,230.47	79.9975	1,230.47	72.5728	1,230.47	76.5737	1,230.47	77.3854	1,230.47	71.6806	1,230.47	80.5861	1,230.47	79.8883	1,230.47	82.5404	1,230.47	82.965	1,230.47	83.4627
1,274.41	88.637	1,274.41	88.2598	1,274.41	88.2354	1,274.41	87.1183	1,274.41	87.123	1,274.41	85.2676	1,274.41	85.5237	1,274.41	83.1308	1,274.41	83.5661	1,274.41	81.7036	1,274.41	80.9416	1,274.41	81.0487	1,274.41	77.2487	1,274.41	79.8606	1,274.41	73.9139	1,274.41	76.9825	1,274.41	76.0429	1,274.41	73.7173	1,274.41	78.1191	1,274.41	75.7861	1,274.41	76.1713	1,274.41	77.8002	1,274.41	61.7214	1,274.41	77.1512	1,274.41	74.9726	1,274.41	73.1553	1,274.41	79.9637	1,274.41	70.5945	1,274.41	79.0176	1,274.41	76.1146	1,274.41	72.9557	1,274.41	79.812	1,274.41	77.2157	1,274.41	81.9958	1,274.41	81.6225	1,274.41	82.7779
1,319.82	89.0391	1,319.82	89.4481	1,319.82	88.1626	1,319.82	88.8949	1,319.82	87.2323	1,319.82	87.0142	1,319.82	86.3147	1,319.82	83.8644	1,319.82	84.9787	1,319.82	80.8532	1,319.82	82.7063	1,319.82	80.6663	1,319.82	79.558	1,319.82	81.0425	1,319.82	76.2788	1,319.82	79.4506	1,319.82	75.2685	1,319.82	77.2911	1,319.82	77.29	1,319.82	78.2936	1,319.82	77.4662	1,319.82	79.1768	1,319.82	71.1248	1,319.82	77.7514	1,319.82	70.9281	1,319.82	73.8857	1,319.82	79.7309	1,319.82	69.226	1,319.82	80.8225	1,319.82	71.3939	1,319.82	76.1175	1,319.82	76.5754	1,319.82	69.9027	1,319.82	80.2024	1,319.82	79.3145	1,319.82	81.4346
1,366.7	88.629	1,366.7	88.9596	1,366.7	88.0628	1,366.7	88.7225	1,366.7	87.3179	1,366.7	87.6496	1,366.7	86.2742	1,366.7	85.7678	1,366.7	84.8503	1,366.7	83.2764	1,366.7	83.0828	1,366.7	80.8334	1,366.7	81.2381	1,366.7	78.9	1,366.7	79.4391	1,366.7	76.2097	1,366.7	78.3977	1,366.7	72.7491	1,366.7	78.991	1,366.7	73.2919	1,366.7	78.7317	1,366.7	75.0883	1,366.7	74.7731	1,366.7	75.4615	1,366.7	65.5171	1,366.7	74.2822	1,366.7	76.252	1,366.7	71.2867	1,366.7	78.4153	1,366.7	67.7076	1,366.7	74.2622	1,366.7	72.9912	1,366.7	65.7497	1,366.7	77.9357	1,366.7	77.1519	1,366.7	79.5386
1,413.57	88.0565	1,413.57	88.2535	1,413.57	87.3162	1,413.57	87.793	1,413.57	86.2313	1,413.57	86.624	1,413.57	85.0784	1,413.57	84.7568	1,413.57	83.7692	1,413.57	82.3689	1,413.57	81.9694	1,413.57	80.3164	1,413.57	80.1257	1,413.57	78.9993	1,413.57	78.4342	1,413.57	77.3693	1,413.57	76.7724	1,413.57	74.7786	1,413.57	76.7323	1,413.57	73.2594	1,413.57	76.7378	1,413.57	74.2486	1,413.57	73.749	1,413.57	74.3717	1,413.57	65.9634	1,413.57	74.2909	1,413.57	75.2019	1,413.57	73.6982	1,413.57	76.9176	1,413.57	71.7322	1,413.57	72.088	1,413.57	71.9422	1,413.57	68.2215	1,413.57	75.6014	1,413.57	75.7871	1,413.57	77.4845
1,463.38	87.6157	1,463.38	87.7209	1,463.38	86.6692	1,463.38	86.8599	1,463.38	85.5794	1,463.38	85.2607	1,463.38	84.5774	1,463.38	82.997	1,463.38	83.0781	1,463.38	80.4294	1,463.38	81.0909	1,463.38	79.2784	1,463.38	79.8899	1,463.38	79.2568	1,463.38	78.7166	1,463.38	78.0479	1,463.38	76.4322	1,463.38	75.0479	1,463.38	75.9417	1,463.38	73.9179	1,463.38	76.9741	1,463.38	75.2461	1,463.38	75.3005	1,463.38	72.869	1,463.38	66.453	1,463.38	66.2905	1,463.38	73.4564	1,463.38	67.8259	1,463.38	75.1276	1,463.38	70.5668	1,463.38	70.2251	1,463.38	72.2242	1,463.38	68.4142	1,463.38	75.4278	1,463.38	75.8594	1,463.38	77.3767
1,516.11	87.1041	1,516.11	87.0942	1,516.11	86.4284	1,516.11	86.2019	1,516.11	85.3073	1,516.11	84.7321	1,516.11	83.3113	1,516.11	82.8306	1,516.11	80.2057	1,516.11	79.9217	1,516.11	78.2891	1,516.11	76.5061	1,516.11	79.0779	1,516.11	75.7386	1,516.11	78.7399	1,516.11	76.0382	1,516.11	76.0428	1,516.11	74.1959	1,516.11	74.4498	1,516.11	73.6765	1,516.11	76.5896	1,516.11	74.8781	1,516.11	76.5988	1,516.11	71.7441	1,516.11	71.1539	1,516.11	65.3631	1,516.11	69.7494	1,516.11	63.9905	1,516.11	73.3215	1,516.11	70.606	1,516.11	70.0404	1,516.11	72.4932	1,516.11	66.6319	1,516.11	74.708	1,516.11	74.4963	1,516.11	76.1823
1,568.85	86.6823	1,568.85	86.3084	1,568.85	86.3689	1,568.85	85.3499	1,568.85	85.0011	1,568.85	84.0933	1,568.85	82.1739	1,568.85	82.3425	1,568.85	78.943	1,568.85	79.3315	1,568.85	77.215	1,568.85	75.4421	1,568.85	76.5539	1,568.85	73.6871	1,568.85	75.1281	1,568.85	73.9484	1,568.85	72.3795	1,568.85	70.4066	1,568.85	70.2833	1,568.85	61.6482	1,568.85	72.0619	1,568.85	69.9286	1,568.85	71.8794	1,568.85	75.0023	1,568.85	65.9592	1,568.85	74.4454	1,568.85	69.5591	1,568.85	70.9015	1,568.85	73.9417	1,568.85	70.7416	1,568.85	70.3504	1,568.85	70.0211	1,568.85	64.8773	1,568.85	72.0286	1,568.85	74.6092	1,568.85	75.38
1,624.51	86.3815	1,624.51	86.0223	1,624.51	86.0589	1,624.51	85.3196	1,624.51	84.4278	1,624.51	83.9004	1,624.51	81.6207	1,624.51	81.3758	1,624.51	78.7712	1,624.51	78.2903	1,624.51	76.4271	1,624.51	75.7288	1,624.51	75.0939	1,624.51	74.0211	1,624.51	75.0342	1,624.51	73.9693	1,624.51	75.1728	1,624.51	73.2694	1,624.51	73.5193	1,624.51	69.5262	1,624.51	72.335	1,624.51	67.1701	1,624.51	73.61	1,624.51	73.8706	1,624.51	70.7399	1,624.51	73.5811	1,624.51	58.4259	1,624.51	69.7088	1,624.51	72.6958	1,624.51	69.0486	1,624.51	72.366	1,624.51	70.1828	1,624.51	58.1031	1,624.51	72.0858	1,624.51	72.5525	1,624.51	74.9247
1,681.64	85.6126	1,681.64	85.74	1,681.64	85.4059	1,681.64	85.3384	1,681.64	84.2596	1,681.64	83.5554	1,681.64	81.3125	1,681.64	80.3163	1,681.64	77.5536	1,681.64	77.5653	1,681.64	75.5736	1,681.64	77.0961	1,681.64	74.301	1,681.64	76.1318	1,681.64	73.7095	1,681.64	73.3948	1,681.64	74.3072	1,681.64	71.2529	1,681.64	74.292	1,681.64	68.8279	1,681.64	73.1055	1,681.64	64.0987	1,681.64	73.1084	1,681.64	66.8054	1,681.64	69.6062	1,681.64	72.2614	1,681.64	61.6347	1,681.64	73.2252	1,681.64	70.3951	1,681.64	71.5198	1,681.64	70.1913	1,681.64	69.1202	1,681.64	64.9486	1,681.64	68.9578	1,681.64	70.7238	1,681.64	71.5733
1,741.7	85.6784	1,741.7	85.0598	1,741.7	84.8557	1,741.7	84.1445	1,741.7	82.4867	1,741.7	83.2326	1,741.7	80.0725	1,741.7	81.2575	1,741.7	78.0896	1,741.7	78.3505	1,741.7	75.0258	1,741.7	76.2913	1,741.7	72.5919	1,741.7	75.3542	1,741.7	71.987	1,741.7	73.1901	1,741.7	72.296	1,741.7	71.3764	1,741.7	73.3244	1,741.7	71.9401	1,741.7	74.316	1,741.7	71.3622	1,741.7	74.4906	1,741.7	69.9137	1,741.7	72.8079	1,741.7	70.9767	1,741.7	66.5052	1,741.7	70.9091	1,741.7	61.7264	1,741.7	70.3459	1,741.7	69.3225	1,741.7	70.1619	1,741.7	66.9629	1,741.7	71.4818	1,741.7	66.3834	1,741.7	71.8426
1,803.22	85.5178	1,803.22	85.1613	1,803.22	84.3222	1,803.22	83.8698	1,803.22	82.0005	1,803.22	82.1446	1,803.22	79.0537	1,803.22	80.1516	1,803.22	75.1685	1,803.22	78.2919	1,803.22	73.501	1,803.22	76.0789	1,803.22	72.6433	1,803.22	73.2076	1,803.22	71.0674	1,803.22	70.0911	1,803.22	71.665	1,803.22	69.632	1,803.22	71.6421	1,803.22	70.627	1,803.22	68.3499	1,803.22	68.5688	1,803.22	68.4195	1,803.22	64.1824	1,803.22	71.9106	1,803.22	62.0117	1,803.22	71.1075	1,803.22	66.7011	1,803.22	62.2711	1,803.22	70.33	1,803.22	66.4293	1,803.22	70.5236	1,803.22	68.2895	1,803.22	69.4101	1,803.22	69.6435	1,803.22	71.4245
1,866.21	85.5382	1,866.21	85.4457	1,866.21	84.4871	1,866.21	83.8789	1,866.21	82.5245	1,866.21	81.061	1,866.21	78.95	1,866.21	79.2453	1,866.21	75.1292	1,866.21	78.6448	1,866.21	74.6058	1,866.21	75.8593	1,866.21	72.105	1,866.21	71.6534	1,866.21	70.2635	1,866.21	70.6851	1,866.21	72.3762	1,866.21	70.7154	1,866.21	73.3245	1,866.21	71.2132	1,866.21	72.0969	1,866.21	70.2611	1,866.21	68.7143	1,866.21	63.7287	1,866.21	69.2382	1,866.21	59.0738	1,866.21	70.4837	1,866.21	66.2095	1,866.21	63.6451	1,866.21	68.1806	1,866.21	66.339	1,866.21	69.0019	1,866.21	69.0359	1,866.21	69.5389	1,866.21	71.3377	1,866.21	71.1357
1,932.13	85.4917	1,932.13	85.551	1,932.13	84.7597	1,932.13	84.4304	1,932.13	83.0886	1,932.13	82.1631	1,932.13	79.3591	1,932.13	80.0939	1,932.13	75.0375	1,932.13	77.9511	1,932.13	73.4181	1,932.13	73.4987	1,932.13	72.1773	1,932.13	69.539	1,932.13	72.8268	1,932.13	71.4063	1,932.13	72.8253	1,932.13	69.8091	1,932.13	73.1469	1,932.13	65.2301	1,932.13	73.2236	1,932.13	68.5135	1,932.13	71.3615	1,932.13	69.7293	1,932.13	69.0937	1,932.13	67.9836	1,932.13	68.6543	1,932.13	66.1953	1,932.13	63.7579	1,932.13	66.4651	1,932.13	58.604	1,932.13	67.1174	1,932.13	66.9312	1,932.13	68.7625	1,932.13	69.9667	1,932.13	70.4311
1,999.51	85.2668	1,999.51	85.2671	1,999.51	84.03	1,999.51	83.8167	1,999.51	82.091	1,999.51	81.9334	1,999.51	78.236	1,999.51	79.9055	1,999.51	73.4863	1,999.51	76.8187	1,999.51	72.7205	1,999.51	73.3361	1,999.51	72.555	1,999.51	71.282	1,999.51	73.8703	1,999.51	68.9106	1,999.51	73.5164	1,999.51	67.3125	1,999.51	72.0488	1,999.51	57.6654	1,999.51	72.2567	1,999.51	58.0331	1,999.51	71.345	1,999.51	65.2383	1,999.51	70.7476	1,999.51	68.3578	1,999.51	70.1484	1,999.51	66.5289	1,999.51	62.1787	1,999.51	66.1083	1,999.51	65.1369	1,999.51	66.477	1,999.51	66.4156	1,999.51	66.8953	1,999.51	69.9077	1,999.51	70.2338
2,069.82	86.2717	2,069.82	85.3149	2,069.82	84.7096	2,069.82	83.5744	2,069.82	81.3493	2,069.82	82.548	2,069.82	76.978	2,069.82	80.4062	2,069.82	71.6752	2,069.82	76.0775	2,069.82	74.8723	2,069.82	72.2169	2,069.82	73.8469	2,069.82	67.3029	2,069.82	71.9763	2,069.82	50.5576	2,069.82	72.1359	2,069.82	60.9674	2,069.82	71.7005	2,069.82	58.0442	2,069.82	72.8847	2,069.82	63.352	2,069.82	71.6817	2,069.82	64.9327	2,069.82	70.2759	2,069.82	67.8426	2,069.82	72.1361	2,069.82	68.3679	2,069.82	66.0218	2,069.82	68.4179	2,069.82	66.0508	2,069.82	68.144	2,069.82	69.8749	2,069.82	65.548	2,069.82	71.6099	2,069.82	68.6821
2,143.07	85.9907	2,143.07	85.4188	2,143.07	85.0812	2,143.07	84.0023	2,143.07	81.8174	2,143.07	80.6874	2,143.07	74.1152	2,143.07	76.897	2,143.07	71.8243	2,143.07	75.0962	2,143.07	72.5919	2,143.07	72.9503	2,143.07	71.8497	2,143.07	69.84	2,143.07	74.2649	2,143.07	67.9882	2,143.07	76.7099	2,143.07	66.1509	2,143.07	76.7501	2,143.07	61.0237	2,143.07	74.2232	2,143.07	52.4313	2,143.07	73.9603	2,143.07	66.8489	2,143.07	68.8454	2,143.07	65.8582	2,143.07	69.7692	2,143.07	60.5399	2,143.07	68.5806	2,143.07	67.1082	2,143.07	65.674	2,143.07	69.185	2,143.07	70.2681	2,143.07	68.5011	2,143.07	71.3671	2,143.07	69.0487
2,219.24	84.7761	2,219.24	85.0188	2,219.24	84.252	2,219.24	84.0223	2,219.24	81.3423	2,219.24	80.7136	2,219.24	74.3317	2,219.24	75.3699	2,219.24	67.1873	2,219.24	70.929	2,219.24	70.609	2,219.24	69.9356	2,219.24	76.1117	2,219.24	52.0079	2,219.24	73.8995	2,219.24	68.0594	2,219.24	69.7845	2,219.24	68.3935	2,219.24	66.7377	2,219.24	71.4023	2,219.24	66.9632	2,219.24	67.6959	2,219.24	73.3086	2,219.24	70.0588	2,219.24	73.1607	2,219.24	68.8721	2,219.24	75.3177	2,219.24	64.9921	2,219.24	71.0152	2,219.24	71.4699	2,219.24	65.2889	2,219.24	70.0996	2,219.24	69.8914	2,219.24	69.1189	2,219.24	72.2433	2,219.24	68.5798
2,296.88	85.314	2,296.88	84.4072	2,296.88	83.9417	2,296.88	82.2276	2,296.88	80.2868	2,296.88	80.2668	2,296.88	74.0258	2,296.88	75.0927	2,296.88	69.3612	2,296.88	65.4173	2,296.88	77.6507	2,296.88	69.1791	2,296.88	79.0035	2,296.88	60.8002	2,296.88	74.8942	2,296.88	71.4686	2,296.88	71.3399	2,296.88	69.6538	2,296.88	74.5501	2,296.88	72.4267	2,296.88	69.3451	2,296.88	73.4253	2,296.88	70.8204	2,296.88	59.6298	2,296.88	71.0668	2,296.88	71.3917	2,296.88	74.9135	2,296.88	65.171	2,296.88	75.8057	2,296.88	70.5217	2,296.88	64.1655	2,296.88	68.6359	2,296.88	70.2739	2,296.88	69.3798	2,296.88	71.5656	2,296.88	69.4219
2,378.91	86.3484	2,378.91	84.8372	2,378.91	85.2662	2,378.91	82.0373	2,378.91	81.9615	2,378.91	78.9492	2,378.91	73.8602	2,378.91	76.2108	2,378.91	73.5606	2,378.91	70.5109	2,378.91	79.3483	2,378.91	70.5929	2,378.91	79.1131	2,378.91	68.4145	2,378.91	78.9567	2,378.91	67.6817	2,378.91	77.1681	2,378.91	70.0501	2,378.91	76.2781	2,378.91	65.4283	2,378.91	75.3739	2,378.91	68.8238	2,378.91	70.0307	2,378.91	62.6106	2,378.91	75.0674	2,378.91	66.6481	2,378.91	55.283	2,378.91	69.6527	2,378.91	74.2855	2,378.91	69.8474	2,378.91	71.1474	2,378.91	69.9116	2,378.91	70.6671	2,378.91	71.3983	2,378.91	75.0316	2,378.91	73.3561
2,462.4	85.9053	2,462.4	84.8735	2,462.4	85.4889	2,462.4	82.4697	2,462.4	82.4197	2,462.4	77.7173	2,462.4	73.8891	2,462.4	71.2046	2,462.4	73.74	2,462.4	66.7956	2,462.4	79.6017	2,462.4	67.053	2,462.4	80.2516	2,462.4	59.0782	2,462.4	77.892	2,462.4	66.8188	2,462.4	73.7494	2,462.4	69.7137	2,462.4	75.6752	2,462.4	65.6203	2,462.4	76.3252	2,462.4	67.3075	2,462.4	73.9552	2,462.4	66.9727	2,462.4	75.0372	2,462.4	50.2941	2,462.4	70.915	2,462.4	67.4633	2,462.4	71.043	2,462.4	67.1573	2,462.4	68.6312	2,462.4	67.9718	2,462.4	67.0754	2,462.4	71.4373	2,462.4	73.9552	2,462.4	73.1998
2,548.83	84.9501	2,548.83	84.1314	2,548.83	84.4648	2,548.83	81.7099	2,548.83	81.4829	2,548.83	76.7766	2,548.83	71.4842	2,548.83	70.9293	2,548.83	74.0005	2,548.83	66.8223	2,548.83	80.077	2,548.83	62.4679	2,548.83	81.0552	2,548.83	69.3245	2,548.83	79.0994	2,548.83	67.219	2,548.83	75.4522	2,548.83	65.68	2,548.83	76.7853	2,548.83	68.0858	2,548.83	77.3291	2,548.83	68.5441	2,548.83	73.6363	2,548.83	68.3582	2,548.83	76.0556	2,548.83	62.9617	2,548.83	72.7885	2,548.83	65.298	2,548.83	70.1662	2,548.83	65.8596	2,548.83	70.7812	2,548.83	58.7984	2,548.83	63.5919	2,548.83	66.1554	2,548.83	71.9243	2,548.83	71.4529
2,639.65	84.8628	2,639.65	83.2365	2,639.65	84.6663	2,639.65	80.3815	2,639.65	81.0543	2,639.65	77.6356	2,639.65	66.7423	2,639.65	71.9103	2,639.65	75.0469	2,639.65	66.5454	2,639.65	80.1453	2,639.65	71.16	2,639.65	82.0094	2,639.65	72.9816	2,639.65	80.8445	2,639.65	74.0158	2,639.65	77.2401	2,639.65	73.3813	2,639.65	77.3855	2,639.65	71.6492	2,639.65	77.631	2,639.65	68.8263	2,639.65	75.8932	2,639.65	70.096	2,639.65	74.9536	2,639.65	67.3845	2,639.65	74.9068	2,639.65	61.8281	2,639.65	69.0117	2,639.65	64.3812	2,639.65	71.8586	2,639.65	50.2565	2,639.65	51.497	2,639.65	64.055	2,639.65	72.2857	2,639.65	66.9006
2,731.93	84.5467	2,731.93	83.2577	2,731.93	84.3428	2,731.93	81.706	2,731.93	80.7255	2,731.93	77.7995	2,731.93	61.2781	2,731.93	69.4005	2,731.93	76.8723	2,731.93	72.6606	2,731.93	80.6575	2,731.93	74.2327	2,731.93	81.8239	2,731.93	74.3312	2,731.93	80.3066	2,731.93	72.3512	2,731.93	76.6344	2,731.93	71.4538	2,731.93	71.6969	2,731.93	70.0694	2,731.93	73.6978	2,731.93	69.3701	2,731.93	75.3157	2,731.93	66.9536	2,731.93	74.4399	2,731.93	66.9943	2,731.93	73.7269	2,731.93	66.3011	2,731.93	71.7694	2,731.93	63.7214	2,731.93	69.623	2,731.93	51.2336	2,731.93	62.2143	2,731.93	65.0613	2,731.93	72.8759	2,731.93	68.0103
2,828.61	83.931	2,828.61	83.8712	2,828.61	83.8349	2,828.61	82.1434	2,828.61	81.0884	2,828.61	76.7383	2,828.61	65.3567	2,828.61	72.3989	2,828.61	77.7925	2,828.61	72.9051	2,828.61	81.3715	2,828.61	75.7896	2,828.61	80.3932	2,828.61	75.1906	2,828.61	79.8035	2,828.61	73.0814	2,828.61	78.8367	2,828.61	71.2174	2,828.61	71.0226	2,828.61	69.5879	2,828.61	64.9611	2,828.61	71.088	2,828.61	71.1151	2,828.61	70.2503	2,828.61	76.1122	2,828.61	68.9197	2,828.61	74.3528	2,828.61	68.89	2,828.61	71.0726	2,828.61	66.1621	2,828.61	66.0656	2,828.61	56.8035	2,828.61	65.1827	2,828.61	66.4331	2,828.61	73.694	2,828.61	69.6426
2,928.22	84.455	2,928.22	84.6364	2,928.22	83.4874	2,928.22	82.5148	2,928.22	80.7824	2,928.22	77.5146	2,928.22	67.4927	2,928.22	75.9363	2,928.22	76.8942	2,928.22	77.9976	2,928.22	81.5008	2,928.22	77.7654	2,928.22	80.7076	2,928.22	75.9797	2,928.22	79.6049	2,928.22	74.4692	2,928.22	76.3908	2,928.22	74.2	2,928.22	66.2051	2,928.22	74.5898	2,928.22	73.4148	2,928.22	73.2895	2,928.22	74.5802	2,928.22	70.9033	2,928.22	74.7747	2,928.22	69.5979	2,928.22	75.4894	2,928.22	69.4711	2,928.22	70.7916	2,928.22	68.5967	2,928.22	63.4349	2,928.22	62.725	2,928.22	66.8379	2,928.22	63.6795	2,928.22	73.9936	2,928.22	69.6663
3,030.76	84.8957	3,030.76	85.2166	3,030.76	82.947	3,030.76	82.4011	3,030.76	80.4426	3,030.76	77.9493	3,030.76	69.6285	3,030.76	78.4937	3,030.76	76.6934	3,030.76	79.4085	3,030.76	81.8375	3,030.76	78.1154	3,030.76	81.9287	3,030.76	77.2764	3,030.76	80.8214	3,030.76	76.2778	3,030.76	74.9648	3,030.76	75.2501	3,030.76	67.884	3,030.76	73.2304	3,030.76	73.4121	3,030.76	71.3001	3,030.76	76.336	3,030.76	70.7819	3,030.76	74.7738	3,030.76	68.362	3,030.76	75.3014	3,030.76	67.5234	3,030.76	72.7358	3,030.76	67.5339	3,030.76	59.6404	3,030.76	65.0469	3,030.76	67.836	3,030.76	64.8625	3,030.76	72.7025	3,030.76	67.873
3,137.7	85.7099	3,137.7	85.7058	3,137.7	83.3532	3,137.7	82.1493	3,137.7	79.9806	3,137.7	77.9926	3,137.7	70.7691	3,137.7	79.8627	3,137.7	76.8043	3,137.7	79.8237	3,137.7	82.2386	3,137.7	79.272	3,137.7	83.1203	3,137.7	78.9562	3,137.7	81.8985	3,137.7	75.0648	3,137.7	77.1841	3,137.7	70.4297	3,137.7	72.0956	3,137.7	72.335	3,137.7	74.531	3,137.7	72.6386	3,137.7	74.1223	3,137.7	72.431	3,137.7	74.6015	3,137.7	69.6993	3,137.7	74.1145	3,137.7	67.9706	3,137.7	73.2966	3,137.7	68.7331	3,137.7	65.5471	3,137.7	64.6278	3,137.7	68.0493	3,137.7	65.1652	3,137.7	71.8225	3,137.7	66.32
3,249.02	85.9127	3,249.02	85.4283	3,249.02	83.3186	3,249.02	81.5419	3,249.02	79.8242	3,249.02	79.853	3,249.02	72.1009	3,249.02	80.5773	3,249.02	76.6425	3,249.02	80.6266	3,249.02	82.3923	3,249.02	79.7322	3,249.02	83.9017	3,249.02	77.5307	3,249.02	83.2828	3,249.02	75.0245	3,249.02	79.5201	3,249.02	75.4905	3,249.02	75.2273	3,249.02	74.7615	3,249.02	74.8996	3,249.02	73.0989	3,249.02	74.9452	3,249.02	72.1809	3,249.02	72.6509	3,249.02	69.4648	3,249.02	74.4787	3,249.02	67.4298	3,249.02	72.862	3,249.02	68.0691	3,249.02	67.8975	3,249.02	62.8141	3,249.02	69.6278	3,249.02	67.7758	3,249.02	72.5509	3,249.02	68.5145
3,363.28	85.9725	3,363.28	84.6389	3,363.28	83.4464	3,363.28	81.2495	3,363.28	79.7139	3,363.28	80.5996	3,363.28	73.7164	3,363.28	81.0955	3,363.28	75.8369	3,363.28	81.2252	3,363.28	82.1839	3,363.28	80.3941	3,363.28	84.2137	3,363.28	78.1212	3,363.28	84.229	3,363.28	77.784	3,363.28	81.1642	3,363.28	75.6635	3,363.28	77.7749	3,363.28	73.6383	3,363.28	75.2213	3,363.28	73.5962	3,363.28	75.5625	3,363.28	70.6687	3,363.28	73.5669	3,363.28	69.2916	3,363.28	74.042	3,363.28	66.9983	3,363.28	72.5502	3,363.28	67.5487	3,363.28	65.6156	3,363.28	63.4344	3,363.28	69.6862	3,363.28	65.1413	3,363.28	72.2749	3,363.28	67.7926
3,481.93	85.8625	3,481.93	84.5513	3,481.93	83.9426	3,481.93	81.9841	3,481.93	80.2074	3,481.93	81.3888	3,481.93	75.1744	3,481.93	81.404	3,481.93	75.2949	3,481.93	82.0031	3,481.93	82.1931	3,481.93	80.126	3,481.93	84.6778	3,481.93	79.7112	3,481.93	83.9066	3,481.93	76.628	3,481.93	81.2816	3,481.93	69.9879	3,481.93	78.5518	3,481.93	74.2809	3,481.93	75.0144	3,481.93	74.5942	3,481.93	74.7945	3,481.93	73.0512	3,481.93	73.2354	3,481.93	71.0065	3,481.93	73.5283	3,481.93	68.7048	3,481.93	72.2269	3,481.93	68.506	3,481.93	64.8517	3,481.93	64.581	3,481.93	70.6107	3,481.93	64.0265	3,481.93	72.0882	3,481.93	69.3411
3,604.98	86.0937	3,604.98	84.2464	3,604.98	84.2932	3,604.98	82.4319	3,604.98	80.2245	3,604.98	81.7517	3,604.98	76.9576	3,604.98	82.0918	3,604.98	76.2284	3,604.98	81.0968	3,604.98	82.4847	3,604.98	81.5458	3,604.98	85.3198	3,604.98	78.6708	3,604.98	83.3187	3,604.98	75.5275	3,604.98	81.4057	3,604.98	76.135	3,604.98	78.675	3,604.98	74.267	3,604.98	68.7849	3,604.98	73.7999	3,604.98	73.6987	3,604.98	72.4655	3,604.98	73.3747	3,604.98	71.0724	3,604.98	71.6821	3,604.98	69.661	3,604.98	70.4698	3,604.98	67.8954	3,604.98	64.5384	3,604.98	65.7978	3,604.98	70.0025	3,604.98	59.694	3,604.98	72.181	3,604.98	69.7979
3,732.42	85.6496	3,732.42	84.2393	3,732.42	84.7109	3,732.42	83.0373	3,732.42	81.1408	3,732.42	82.1452	3,732.42	78.7262	3,732.42	81.9931	3,732.42	76.4383	3,732.42	82.3492	3,732.42	81.5763	3,732.42	81.6773	3,732.42	85.2456	3,732.42	79.6901	3,732.42	83.0982	3,732.42	79.3125	3,732.42	81.0256	3,732.42	74.7197	3,732.42	77.0825	3,732.42	73.4045	3,732.42	65.2711	3,732.42	74.7014	3,732.42	68.9455	3,732.42	72.6666	3,732.42	71.5447	3,732.42	69.8969	3,732.42	71.6253	3,732.42	69.5088	3,732.42	70.2999	3,732.42	66.724	3,732.42	64.5774	3,732.42	66.2588	3,732.42	69.2638	3,732.42	47.4947	3,732.42	71.4424	3,732.42	68.2425
3,864.26	85.5837	3,864.26	84.8454	3,864.26	84.9085	3,864.26	83.6625	3,864.26	82.1794	3,864.26	82.3999	3,864.26	80.0835	3,864.26	82.0704	3,864.26	77.1805	3,864.26	82.9893	3,864.26	80.8119	3,864.26	82.306	3,864.26	83.8212	3,864.26	81.2672	3,864.26	82.3585	3,864.26	77.622	3,864.26	81.3277	3,864.26	72.1677	3,864.26	77.066	3,864.26	74.0557	3,864.26	67.3888	3,864.26	73.42	3,864.26	63.3244	3,864.26	73.3089	3,864.26	72.571	3,864.26	71.3156	3,864.26	73.1785	3,864.26	69.964	3,864.26	69.6668	3,864.26	69.8429	3,864.26	58.4929	3,864.26	65.8089	3,864.26	69.4203	3,864.26	58.9291	3,864.26	70.0942	3,864.26	67.9513
4,000.49	85.8429	4,000.49	85.2833	4,000.49	84.5842	4,000.49	83.5495	4,000.49	82.818	4,000.49	82.2068	4,000.49	80.6485	4,000.49	83.0276	4,000.49	80.2401	4,000.49	83.8269	4,000.49	81.4765	4,000.49	82.6956	4,000.49	82.7494	4,000.49	80.0442	4,000.49	83.112	4,000.49	77.0489	4,000.49	80.6654	4,000.49	77.0846	4,000.49	77.043	4,000.49	72.7803	4,000.49	69.1916	4,000.49	73.238	4,000.49	61.4135	4,000.49	71.885	4,000.49	71.3112	4,000.49	70.9667	4,000.49	72.6958	4,000.49	69.4134	4,000.49	66.6762	4,000.49	68.162	4,000.49	51.1104	4,000.49	65.5152	4,000.49	69.737	4,000.49	56.4276	4,000.49	71.3583	4,000.49	67.3027
4,141.11	86.2383	4,141.11	85.4688	4,141.11	85.1935	4,141.11	83.8353	4,141.11	83.1306	4,141.11	82.6347	4,141.11	83.2439	4,141.11	84.1178	4,141.11	81.9916	4,141.11	83.5948	4,141.11	81.4761	4,141.11	82.3791	4,141.11	83.7219	4,141.11	79.1701	4,141.11	83.4166	4,141.11	79.8776	4,141.11	79.143	4,141.11	72.186	4,141.11	74.382	4,141.11	71.122	4,141.11	70.206	4,141.11	72.77	4,141.11	72.3373	4,141.11	72.3545	4,141.11	70.5399	4,141.11	70.4445	4,141.11	72.7332	4,141.11	68.3338	4,141.11	64.4903	4,141.11	69.1496	4,141.11	59.653	4,141.11	65.1277	4,141.11	69.6643	4,141.11	52.5605	4,141.11	71.8799	4,141.11	68.0723
4,287.6	86.3694	4,287.6	85.9811	4,287.6	85.7588	4,287.6	83.8353	4,287.6	84.2692	4,287.6	83.9624	4,287.6	83.9164	4,287.6	84.5509	4,287.6	80.9858	4,287.6	83.4944	4,287.6	80.7235	4,287.6	81.1119	4,287.6	85.2939	4,287.6	80.3434	4,287.6	82.7679	4,287.6	75.2379	4,287.6	78.1157	4,287.6	77.5597	4,287.6	67.1795	4,287.6	74.9242	4,287.6	69.293	4,287.6	72.4517	4,287.6	76.3395	4,287.6	71.8729	4,287.6	73.2117	4,287.6	70.8974	4,287.6	72.7124	4,287.6	68.0284	4,287.6	69.12	4,287.6	68.1418	4,287.6	52.9558	4,287.6	66.4904	4,287.6	68.7819	4,287.6	60.2786	4,287.6	72.0093	4,287.6	63.714
4,438.48	87.2331	4,438.48	86.6562	4,438.48	85.7457	4,438.48	84.0463	4,438.48	85.0223	4,438.48	84.7212	4,438.48	83.5287	4,438.48	85.0735	4,438.48	80.2101	4,438.48	82.3559	4,438.48	79.7844	4,438.48	81.914	4,438.48	84.0663	4,438.48	79.5021	4,438.48	82.6388	4,438.48	81.0248	4,438.48	78.2057	4,438.48	74.8332	4,438.48	76.7159	4,438.48	71.7709	4,438.48	70.1254	4,438.48	73.5083	4,438.48	76.4455	4,438.48	71.493	4,438.48	74.2593	4,438.48	71.8659	4,438.48	72.9396	4,438.48	68.8041	4,438.48	68.2738	4,438.48	69.5247	4,438.48	55.5634	4,438.48	65.9182	4,438.48	68.1067	4,438.48	50.9123	4,438.48	68.8917	4,438.48	69.0892
4,595.21	87.4682	4,595.21	86.5121	4,595.21	86.0267	4,595.21	84.3864	4,595.21	85.0194	4,595.21	86.596	4,595.21	86.3309	4,595.21	83.9626	4,595.21	83.7978	4,595.21	83.7971	4,595.21	77.8452	4,595.21	82.3026	4,595.21	83.1221	4,595.21	81.1611	4,595.21	80.8048	4,595.21	75.7436	4,595.21	79.5271	4,595.21	76.5585	4,595.21	77.6995	4,595.21	74.4373	4,595.21	69.0909	4,595.21	72.1283	4,595.21	70.0498	4,595.21	71.2527	4,595.21	75.167	4,595.21	72.0533	4,595.21	75.3397	4,595.21	68.7519	4,595.21	67.0743	4,595.21	69.558	4,595.21	56.2717	4,595.21	67.6975	4,595.21	71.4075	4,595.21	64.7512	4,595.21	68.0751	4,595.21	65.7356
4,756.35	88.5735	4,756.35	86.6358	4,756.35	86.686	4,756.35	85.5095	4,756.35	86.254	4,756.35	85.9245	4,756.35	88.116	4,756.35	84.6362	4,756.35	85.1466	4,756.35	83.4347	4,756.35	76.5745	4,756.35	81.607	4,756.35	81.0741	4,756.35	79.6939	4,756.35	80.5288	4,756.35	80.0261	4,756.35	80.1822	4,756.35	76.2251	4,756.35	78.0698	4,756.35	71.5613	4,756.35	68.7215	4,756.35	73.3154	4,756.35	66.3888	4,756.35	71.2475	4,756.35	73.9076	4,756.35	72.612	4,756.35	75.2769	4,756.35	69.0701	4,756.35	64.7679	4,756.35	70.314	4,756.35	61.9959	4,756.35	66.0988	4,756.35	71.9605	4,756.35	62.8701	4,756.35	70.4204	4,756.35	63.8547
4,924.8	88.6485	4,924.8	86.462	4,924.8	87.5018	4,924.8	86.3142	4,924.8	85.7095	4,924.8	86.3349	4,924.8	88.0474	4,924.8	84.9905	4,924.8	86.2965	4,924.8	83.9725	4,924.8	77.0047	4,924.8	81.3823	4,924.8	79.1186	4,924.8	80.5715	4,924.8	82.1664	4,924.8	77.9016	4,924.8	81.0912	4,924.8	76.7485	4,924.8	79.053	4,924.8	73.9207	4,924.8	68.8216	4,924.8	72.4112	4,924.8	57.6704	4,924.8	71.27	4,924.8	68.4232	4,924.8	70.5513	4,924.8	74.1434	4,924.8	69.7916	4,924.8	67.4946	4,924.8	70.2045	4,924.8	66.404	4,924.8	69.273	4,924.8	71.0809	4,924.8	56.5449	4,924.8	70.0738	4,924.8	64.2393
5,097.66	88.6775	5,097.66	86.068	5,097.66	88.4785	5,097.66	86.5262	5,097.66	85.3147	5,097.66	85.8876	5,097.66	87.8903	5,097.66	85.4926	5,097.66	86.3386	5,097.66	83.5527	5,097.66	78.3559	5,097.66	82.8025	5,097.66	79.3882	5,097.66	80.7045	5,097.66	84.0342	5,097.66	80.8079	5,097.66	81.5313	5,097.66	76.5729	5,097.66	78.8185	5,097.66	73.0215	5,097.66	75.1439	5,097.66	73.5229	5,097.66	68.2898	5,097.66	72.368	5,097.66	71.628	5,097.66	71.7012	5,097.66	74.105	5,097.66	69.2777	5,097.66	68.6572	5,097.66	70.3253	5,097.66	62.4515	5,097.66	70.0784	5,097.66	69.1575	5,097.66	63.5141	5,097.66	69.1268	5,097.66	60.7739
5,277.83	88.413	5,277.83	86.4627	5,277.83	88.872	5,277.83	86.3644	5,277.83	86.429	5,277.83	85.9291	5,277.83	88.3752	5,277.83	85.0955	5,277.83	87.3335	5,277.83	84.2823	5,277.83	79.8547	5,277.83	83.0712	5,277.83	81.2303	5,277.83	80.8997	5,277.83	84.9969	5,277.83	77.6499	5,277.83	82.0557	5,277.83	76.3664	5,277.83	77.7604	5,277.83	72.9427	5,277.83	74.0165	5,277.83	72.6198	5,277.83	69.4802	5,277.83	71.1104	5,277.83	71.7843	5,277.83	70.1934	5,277.83	74.4992	5,277.83	69.8062	5,277.83	69.022	5,277.83	69.311	5,277.83	59.6316	5,277.83	70.3408	5,277.83	67.8973	5,277.83	57.3997	5,277.83	69.4437	5,277.83	61.3213
5,463.87	87.8034	5,463.87	86.3287	5,463.87	88.6446	5,463.87	86.1441	5,463.87	86.5049	5,463.87	85.6616	5,463.87	88.4273	5,463.87	85.0158	5,463.87	87.5907	5,463.87	85.5528	5,463.87	79.8399	5,463.87	82.9255	5,463.87	81.176	5,463.87	80.6274	5,463.87	83.932	5,463.87	79.3986	5,463.87	79.5612	5,463.87	76.9973	5,463.87	76.9682	5,463.87	73.538	5,463.87	70.0515	5,463.87	73.3311	5,463.87	70.0191	5,463.87	72.1152	5,463.87	66.1593	5,463.87	71.5028	5,463.87	72.0379	5,463.87	69.1881	5,463.87	68.9063	5,463.87	68.414	5,463.87	52.4574	5,463.87	70.2877	5,463.87	68.4606	5,463.87	57.5904	5,463.87	67.2821	5,463.87	59.7637
5,657.23	87.8425	5,657.23	86.8457	5,657.23	88.6257	5,657.23	85.9264	5,657.23	85.913	5,657.23	84.7157	5,657.23	87.8749	5,657.23	85.8784	5,657.23	87.1933	5,657.23	85.6324	5,657.23	79.554	5,657.23	82.6543	5,657.23	82.2919	5,657.23	80.1522	5,657.23	83.2636	5,657.23	76.7777	5,657.23	78.9356	5,657.23	76.111	5,657.23	73.4423	5,657.23	72.9715	5,657.23	67.6819	5,657.23	72.8671	5,657.23	69.2261	5,657.23	71.224	5,657.23	68.2991	5,657.23	70.0653	5,657.23	52.5098	5,657.23	69.2465	5,657.23	67.0133	5,657.23	68.4392	5,657.23	63.9715	5,657.23	69.8091	5,657.23	64.7004	5,657.23	64.3198	5,657.23	66.0384	5,657.23	53.0887
5,856.45	87.8233	5,856.45	86.7698	5,856.45	88.9583	5,856.45	85.1258	5,856.45	86.3803	5,856.45	85.7959	5,856.45	86.9594	5,856.45	86.4548	5,856.45	85.8361	5,856.45	85.4923	5,856.45	79.2307	5,856.45	82.3502	5,856.45	80.9558	5,856.45	80.5984	5,856.45	81.6113	5,856.45	78.29	5,856.45	78.8878	5,856.45	75.7063	5,856.45	77.0898	5,856.45	71.9328	5,856.45	70.5845	5,856.45	72.7887	5,856.45	70.0546	5,856.45	70.9459	5,856.45	66.7742	5,856.45	68.3363	5,856.45	63.7026	5,856.45	67.6463	5,856.45	69.1152	5,856.45	68.0529	5,856.45	62.3075	5,856.45	69.5783	5,856.45	67.2943	5,856.45	61.3179	5,856.45	65.2992	5,856.45	59.171
6,062.99	87.7304	6,062.99	86.657	6,062.99	88.7669	6,062.99	85.4607	6,062.99	86.444	6,062.99	86.1986	6,062.99	86.4852	6,062.99	85.8876	6,062.99	86.7769	6,062.99	84.5935	6,062.99	79.2853	6,062.99	82.4593	6,062.99	76.8888	6,062.99	80.5261	6,062.99	80.3094	6,062.99	77.4209	6,062.99	77.7841	6,062.99	76.0524	6,062.99	77.9573	6,062.99	71.7229	6,062.99	73.1557	6,062.99	71.8138	6,062.99	66.883	6,062.99	71.2297	6,062.99	64.2716	6,062.99	68.802	6,062.99	64.6236	6,062.99	67.6332	6,062.99	69.4227	6,062.99	66.6028	6,062.99	52.353	6,062.99	69.5977	6,062.99	66.9929	6,062.99	64.1238	6,062.99	61.6182	6,062.99	61.0557
6,276.86	87.4722	6,276.86	86.7638	6,276.86	88.4732	6,276.86	85.7715	6,276.86	86.9384	6,276.86	86.5524	6,276.86	86.6917	6,276.86	85.514	6,276.86	86.848	6,276.86	83.7887	6,276.86	80.3373	6,276.86	82.6593	6,276.86	73.1138	6,276.86	79.798	6,276.86	81.1415	6,276.86	77.4618	6,276.86	79.5212	6,276.86	73.8828	6,276.86	77.4965	6,276.86	70.8773	6,276.86	75.2929	6,276.86	68.9792	6,276.86	67.014	6,276.86	69.0598	6,276.86	69.0798	6,276.86	66.94	6,276.86	69.3213	6,276.86	66.7219	6,276.86	67.9955	6,276.86	67.6246	6,276.86	50.205	6,276.86	68.469	6,276.86	66.8274	6,276.86	63.5864	6,276.86	60.6446	6,276.86	59.9515
6,498.05	87.9124	6,498.05	86.4873	6,498.05	88.5585	6,498.05	86.256	6,498.05	87.2691	6,498.05	86.2592	6,498.05	85.8877	6,498.05	84.6557	6,498.05	86.3912	6,498.05	83.577	6,498.05	83.1525	6,498.05	82.0807	6,498.05	74.4	6,498.05	78.9543	6,498.05	81.9684	6,498.05	78.33	6,498.05	80.9045	6,498.05	74.3713	6,498.05	74.5289	6,498.05	71.5849	6,498.05	75.6544	6,498.05	70.0593	6,498.05	60.9594	6,498.05	69.8402	6,498.05	68.1931	6,498.05	67.7555	6,498.05	69.2982	6,498.05	66.8664	6,498.05	67.3575	6,498.05	66.6595	6,498.05	64.9295	6,498.05	68.7088	6,498.05	67.5868	6,498.05	66.2653	6,498.05	63.3936	6,498.05	59.7365
6,726.56	87.7609	6,726.56	85.9197	6,726.56	87.9706	6,726.56	86.4121	6,726.56	86.7966	6,726.56	85.8829	6,726.56	85.587	6,726.56	84.5241	6,726.56	86.1394	6,726.56	83.4147	6,726.56	84.1011	6,726.56	81.5811	6,726.56	74.6795	6,726.56	79.2293	6,726.56	82.0504	6,726.56	77.9116	6,726.56	78.4519	6,726.56	73.7578	6,726.56	72.8448	6,726.56	70.7375	6,726.56	75.6766	6,726.56	68.9803	6,726.56	62.8514	6,726.56	69.4595	6,726.56	59.0215	6,726.56	67.24	6,726.56	63.7425	6,726.56	67.3281	6,726.56	63.9975	6,726.56	66.404	6,726.56	66.5283	6,726.56	69.2403	6,726.56	63.2596	6,726.56	65.4653	6,726.56	64.0049	6,726.56	58.2765
6,963.87	87.0524	6,963.87	85.8287	6,963.87	87.8152	6,963.87	86.6064	6,963.87	87.1934	6,963.87	85.1597	6,963.87	85.7007	6,963.87	84.6649	6,963.87	85.9863	6,963.87	82.7277	6,963.87	84.4165	6,963.87	81.7365	6,963.87	75.8602	6,963.87	78.5804	6,963.87	80.1382	6,963.87	76.9831	6,963.87	74.8621	6,963.87	72.8496	6,963.87	72.1806	6,963.87	70.1858	6,963.87	74.0193	6,963.87	68.421	6,963.87	67.7819	6,963.87	68.7883	6,963.87	62.9539	6,963.87	65.4336	6,963.87	65.6719	6,963.87	66.2618	6,963.87	59.5436	6,963.87	65.5796	6,963.87	66.6559	6,963.87	68.4207	6,963.87	60.5454	6,963.87	63.9718	6,963.87	61.178	6,963.87	59.3818
7,209.96	86.2897	7,209.96	85.5998	7,209.96	87.0117	7,209.96	86.2088	7,209.96	86.6954	7,209.96	84.881	7,209.96	85.5083	7,209.96	84.3031	7,209.96	84.6534	7,209.96	82.6124	7,209.96	83.2215	7,209.96	81.1582	7,209.96	76.7911	7,209.96	77.9092	7,209.96	75.6339	7,209.96	75.5933	7,209.96	72.4025	7,209.96	74.1274	7,209.96	72.2155	7,209.96	67.9591	7,209.96	69.4178	7,209.96	68.3765	7,209.96	66.5404	7,209.96	68.7984	7,209.96	61.0285	7,209.96	66.3909	7,209.96	63.7872	7,209.96	64.4687	7,209.96	56.8946	7,209.96	66.7304	7,209.96	63.1813	7,209.96	66.6154	7,209.96	64.4369	7,209.96	63.8116	7,209.96	59.8577	7,209.96	58.0081
7,464.84	86.2236	7,464.84	85.6085	7,464.84	86.5026	7,464.84	85.9309	7,464.84	86.0356	7,464.84	84.8451	7,464.84	85.8307	7,464.84	83.9415	7,464.84	84.6257	7,464.84	82.9574	7,464.84	82.0147	7,464.84	80.1287	7,464.84	75.7046	7,464.84	78.5051	7,464.84	67.1047	7,464.84	74.4912	7,464.84	77.8417	7,464.84	73.4516	7,464.84	74.9937	7,464.84	67.9354	7,464.84	64.0817	7,464.84	67.4325	7,464.84	68.3092	7,464.84	66.8548	7,464.84	63.2605	7,464.84	66.4019	7,464.84	62.7211	7,464.84	62.2966	7,464.84	58.2411	7,464.84	66.475	7,464.84	61.6483	7,464.84	66.9834	7,464.84	62.541	7,464.84	64.1198	7,464.84	60.3653	7,464.84	55.2771
7,727.05	85.9331	7,727.05	85.8568	7,727.05	86.4045	7,727.05	85.5431	7,727.05	85.7631	7,727.05	84.5642	7,727.05	85.8773	7,727.05	83.8037	7,727.05	85.0311	7,727.05	82.937	7,727.05	80.2265	7,727.05	79.8516	7,727.05	74.7233	7,727.05	78.043	7,727.05	74.288	7,727.05	73.5165	7,727.05	80.8535	7,727.05	71.9487	7,727.05	76.068	7,727.05	66.7999	7,727.05	45.9504	7,727.05	66.1753	7,727.05	62.7969	7,727.05	65.6777	7,727.05	64.2047	7,727.05	64.0912	7,727.05	61.7928	7,727.05	63.6954	7,727.05	59.614	7,727.05	65.0255	7,727.05	55.655	7,727.05	66.9806	7,727.05	54.9788	7,727.05	62.6488	7,727.05	54.4015	7,727.05	51.8184
7,999.51	86.553	7,999.51	86.2872	7,999.51	86.3699	7,999.51	85.563	7,999.51	85.5035	7,999.51	84.1423	7,999.51	84.8164	7,999.51	83.9891	7,999.51	83.981	7,999.51	82.6988	7,999.51	79.1193	7,999.51	79.8981	7,999.51	77.8773	7,999.51	76.9814	7,999.51	77.8623	7,999.51	73.2708	7,999.51	81.0958	7,999.51	71.144	7,999.51	75.1454	7,999.51	66.3262	7,999.51	66.0062	7,999.51	65.5767	7,999.51	66.6498	7,999.51	65.6111	7,999.51	63.8152	7,999.51	62.9309	7,999.51	62.6894	7,999.51	62.5724	7,999.51	61.4717	7,999.51	64.4243	7,999.51	62.3657	7,999.51	66.8017	7,999.51	54.9342	7,999.51	63.4328	7,999.51	56.4117	7,999.51	56.4546
8,282.23	86.9325	8,282.23	86.5302	8,282.23	86.763	8,282.23	85.4981	8,282.23	86.0084	8,282.23	84.2139	8,282.23	85.0251	8,282.23	83.8426	8,282.23	84.2593	8,282.23	82.1203	8,282.23	81.1202	8,282.23	79.3006	8,282.23	80.0614	8,282.23	76.8394	8,282.23	78.1228	8,282.23	72.4734	8,282.23	78.742	8,282.23	70.2109	8,282.23	73.0729	8,282.23	65.0203	8,282.23	62.5489	8,282.23	63.707	8,282.23	65.0357	8,282.23	64.92	8,282.23	56.8393	8,282.23	62.9361	8,282.23	64.2483	8,282.23	60.4477	8,282.23	61.2549	8,282.23	63.8797	8,282.23	56.6376	8,282.23	66.4605	8,282.23	57.097	8,282.23	62.3337	8,282.23	54.9118	8,282.23	55.5716
8,573.73	87.5886	8,573.73	86.5192	8,573.73	87.3451	8,573.73	85.5928	8,573.73	85.6568	8,573.73	84.1077	8,573.73	84.5579	8,573.73	83.4657	8,573.73	83.8693	8,573.73	81.3413	8,573.73	82.0161	8,573.73	78.8013	8,573.73	79.7833	8,573.73	75.2906	8,573.73	77.1584	8,573.73	71.1105	8,573.73	75.5993	8,573.73	68.1537	8,573.73	71.8965	8,573.73	64.4122	8,573.73	61.872	8,573.73	60.926	8,573.73	60.9889	8,573.73	62.7814	8,573.73	57.5704	8,573.73	60.632	8,573.73	62.3134	8,573.73	57.4399	8,573.73	58.5855	8,573.73	63.5387	8,573.73	58.1021	8,573.73	64.3981	8,573.73	57.712	8,573.73	62.5412	8,573.73	50.6041	8,573.73	54.4107
8,876.95	87.576	8,876.95	86.5981	8,876.95	87.6306	8,876.95	85.7979	8,876.95	86.0302	8,876.95	84.2249	8,876.95	84.4536	8,876.95	83.1338	8,876.95	83.1107	8,876.95	80.624	8,876.95	81.7012	8,876.95	77.9972	8,876.95	79.6053	8,876.95	74.0652	8,876.95	73.6899	8,876.95	70.9118	8,876.95	68.8911	8,876.95	67.8811	8,876.95	67.4627	8,876.95	62.8982	8,876.95	60.0349	8,876.95	60.7245	8,876.95	59.378	8,876.95	60.7513	8,876.95	57.3294	8,876.95	59.5023	8,876.95	56.2923	8,876.95	54.0219	8,876.95	55.9059	8,876.95	63.2432	8,876.95	59.6826	8,876.95	63.2217	8,876.95	52.9701	8,876.95	60.5246	8,876.95	56.4441	8,876.95	53.5924
9,188.96	87.5939	9,188.96	86.6811	9,188.96	87.7991	9,188.96	85.9913	9,188.96	86.1771	9,188.96	84.4682	9,188.96	84.6786	9,188.96	82.9513	9,188.96	82.6797	9,188.96	80.1793	9,188.96	80.3869	9,188.96	77.2042	9,188.96	78.7727	9,188.96	74.3412	9,188.96	64.4047	9,188.96	70.2177	9,188.96	71.1501	9,188.96	67.0123	9,188.96	65.1402	9,188.96	61.5974	9,188.96	60.1583	9,188.96	60.3841	9,188.96	58.6502	9,188.96	59.6855	9,188.96	44.9619	9,188.96	57.0807	9,188.96	57.0935	9,188.96	56.4164	9,188.96	49.2195	9,188.96	61.4151	9,188.96	60.0199	9,188.96	62.355	9,188.96	52.6354	9,188.96	60.6601	9,188.96	55.6492	9,188.96	51.1035
9,514.16	87.5821	9,514.16	87.0159	9,514.16	87.7439	9,514.16	86.0834	9,514.16	86.3733	9,514.16	84.4771	9,514.16	84.7134	9,514.16	82.8884	9,514.16	82.0163	9,514.16	80.3303	9,514.16	79.5517	9,514.16	76.5992	9,514.16	77.7809	9,514.16	73.6467	9,514.16	71.2041	9,514.16	69.077	9,514.16	73.2714	9,514.16	65.873	9,514.16	63.7173	9,514.16	62.345	9,514.16	59.3704	9,514.16	58.2425	9,514.16	59.1786	9,514.16	59.7845	9,514.16	53.4973	9,514.16	53.1106	9,514.16	47.3692	9,514.16	56.7201	9,514.16	53.4745	9,514.16	59.7985	9,514.16	55.3591	9,514.16	62.6886	9,514.16	37.8645	9,514.16	60.0115	9,514.16	52.7312	9,514.16	48.9963
9,849.61	87.6452	9,849.61	87.6717	9,849.61	87.746	9,849.61	86.0642	9,849.61	86.5789	9,849.61	84.0346	9,849.61	84.7663	9,849.61	82.8405	9,849.61	82.3267	9,849.61	80.5257	9,849.61	79.5532	9,849.61	75.8239	9,849.61	77.4092	9,849.61	72.4939	9,849.61	73.5292	9,849.61	68.7055	9,849.61	72.9327	9,849.61	65.2012	9,849.61	64.4213	9,849.61	61.7163	9,849.61	61.75	9,849.61	57.4493	9,849.61	63.1833	9,849.61	59.1898	9,849.61	54.9571	9,849.61	54.1867	9,849.61	51.5113	9,849.61	55.8676	9,849.61	38.1954	9,849.61	58.4296	9,849.61	53.6768	9,849.61	61.5816	9,849.61	36.3697	9,849.61	58.0572	9,849.61	55.3305	9,849.61	50.1889
10,196.8	87.898	10,196.8	88.108	10,196.8	87.6012	10,196.8	85.8676	10,196.8	86.653	10,196.8	83.8127	10,196.8	84.9017	10,196.8	82.5025	10,196.8	83.2556	10,196.8	80.1927	10,196.8	79.4721	10,196.8	75.3721	10,196.8	77.8628	10,196.8	71.5965	10,196.8	72.0548	10,196.8	67.7755	10,196.8	72.3205	10,196.8	63.5576	10,196.8	63.0087	10,196.8	59.9479	10,196.8	57.6313	10,196.8	57.0275	10,196.8	61.3861	10,196.8	59.413	10,196.8	47.9588	10,196.8	55.2258	10,196.8	49.6423	10,196.8	55.5663	10,196.8	44.0899	10,196.8	56.7525	10,196.8	49.1569	10,196.8	59.6772	10,196.8	41.8644	10,196.8	58.1552	10,196.8	48.2459	10,196.8	47.3876
10,555.7	88.1512	10,555.7	88.0684	10,555.7	87.5534	10,555.7	85.84	10,555.7	86.5956	10,555.7	83.4176	10,555.7	84.8491	10,555.7	81.4809	10,555.7	82.5408	10,555.7	79.4795	10,555.7	77.9347	10,555.7	75.5274	10,555.7	76.4767	10,555.7	70.6249	10,555.7	69.3423	10,555.7	67.7237	10,555.7	70.5987	10,555.7	63.3178	10,555.7	57.1584	10,555.7	58.1885	10,555.7	53.4564	10,555.7	55.1448	10,555.7	56.0806	10,555.7	58.1569	10,555.7	33.4282	10,555.7	54.9619	10,555.7	53.5934	10,555.7	54.5629	10,555.7	47.5638	10,555.7	55.8068	10,555.7	46.2262	10,555.7	58.6628	10,555.7	35.7233	10,555.7	55.5119	10,555.7	48.167	10,555.7	47.1243
10,927.7	88.1622	10,927.7	87.9245	10,927.7	87.8158	10,927.7	85.9874	10,927.7	86.8563	10,927.7	82.9085	10,927.7	85.0329	10,927.7	80.8518	10,927.7	82.0684	10,927.7	79.0943	10,927.7	76.5515	10,927.7	74.6573	10,927.7	76.4976	10,927.7	70.3476	10,927.7	70.9216	10,927.7	65.7725	10,927.7	71.5227	10,927.7	61.5902	10,927.7	57.4153	10,927.7	56.9267	10,927.7	59.5419	10,927.7	53.9854	10,927.7	45.1617	10,927.7	56.4198	10,927.7	47.7654	10,927.7	52.3435	10,927.7	35.5597	10,927.7	53.0251	10,927.7	54.257	10,927.7	50.6191	10,927.7	49.0103	10,927.7	56.8078	10,927.7	39.9617	10,927.7	55.8246	10,927.7	46.4019	10,927.7	49.9092
11,313	88.0062	11,313	87.8452	11,313	87.8355	11,313	86.0004	11,313	86.8471	11,313	83.1774	11,313	84.9976	11,313	80.8472	11,313	81.9957	11,313	78.3974	11,313	77.3352	11,313	74.1445	11,313	75.3199	11,313	68.7499	11,313	71.0978	11,313	65.0226	11,313	68.0325	11,313	59.938	11,313	58.4593	11,313	56.3243	11,313	59.9419	11,313	53.8049	11,313	43.9162	11,313	54.6401	11,313	53.385	11,313	51.7902	11,313	40.4219	11,313	52.802	11,313	53.6625	11,313	52.647	11,313	43.3788	11,313	55.9584	11,313	36.7348	11,313	57.4778	11,313	50.0175	11,313	49.5733
11,712.9	87.7842	11,712.9	87.8572	11,712.9	87.4904	11,712.9	86.0514	11,712.9	86.651	11,712.9	83.417	11,712.9	84.6407	11,712.9	80.1719	11,712.9	81.4688	11,712.9	78.0426	11,712.9	78.1295	11,712.9	73.5469	11,712.9	74.8707	11,712.9	66.3466	11,712.9	68.1045	11,712.9	62.8382	11,712.9	65.4811	11,712.9	58.9697	11,712.9	54.859	11,712.9	53.2126	11,712.9	57.2311	11,712.9	52.2643	11,712.9	51.2872	11,712.9	55.2474	11,712.9	50.9764	11,712.9	45.6082	11,712.9	44.0092	11,712.9	53.7284	11,712.9	46.165	11,712.9	51.9758	11,712.9	43.1289	11,712.9	51.9385	11,712.9	40.0465	11,712.9	59.6413	11,712.9	48.6969	11,712.9	45.5568
12,126	87.8881	12,126	87.8506	12,126	87.0646	12,126	85.8426	12,126	86.2761	12,126	82.8938	12,126	84.3701	12,126	80.1463	12,126	81.1072	12,126	77.2964	12,126	78.4745	12,126	72.1735	12,126	73.7566	12,126	64.8116	12,126	65.9247	12,126	61.1517	12,126	61.593	12,126	57.6112	12,126	58.4323	12,126	54.418	12,126	53.8016	12,126	49.4064	12,126	58.5263	12,126	55.3363	12,126	47.276	12,126	39.902	12,126	47.9502	12,126	54.4464	12,126	46.0281	12,126	51.889	12,126	45.8105	12,126	52.5152	12,126	41.6259	12,126	58.7596	12,126	49.9252	12,126	50.5018
12,553.7	88.0359	12,553.7	87.8142	12,553.7	87.3607	12,553.7	85.4073	12,553.7	86.3303	12,553.7	82.6392	12,553.7	84.3707	12,553.7	80.27	12,553.7	80.884	12,553.7	76.0405	12,553.7	76.842	12,553.7	70.9704	12,553.7	72.3414	12,553.7	63.9452	12,553.7	66.4043	12,553.7	59.3854	12,553.7	63.0778	12,553.7	57.2504	12,553.7	59.4604	12,553.7	54.4783	12,553.7	53.9876	12,553.7	48.7867	12,553.7	60.6357	12,553.7	53.1722	12,553.7	47.5128	12,553.7	49.1157	12,553.7	52.5621	12,553.7	52.5804	12,553.7	47.2679	12,553.7	54.7251	12,553.7	38.5195	12,553.7	54.2929	12,553.7	48.5109	12,553.7	57.1292	12,553.7	50.8078	12,553.7	52.0217
12,996.1	87.9065	12,996.1	87.5322	12,996.1	87.7053	12,996.1	85.1042	12,996.1	86.5207	12,996.1	82.5874	12,996.1	84.1249	12,996.1	79.8278	12,996.1	80.4889	12,996.1	76.0048	12,996.1	74.9575	12,996.1	69.359	12,996.1	70.3137	12,996.1	63.3593	12,996.1	63.6002	12,996.1	60.2863	12,996.1	57.7895	12,996.1	59.0488	12,996.1	60.2981	12,996.1	54.4184	12,996.1	54.2811	12,996.1	52.9432	12,996.1	61.0074	12,996.1	49.9677	12,996.1	53.225	12,996.1	51.6623	12,996.1	52.2992	12,996.1	47.9219	12,996.1	48.4016	12,996.1	55.7142	12,996.1	45.04	12,996.1	50.8676	12,996.1	50.6441	12,996.1	56.8075	12,996.1	48.5252	12,996.1	51.055
13,454.6	87.6671	13,454.6	87.5207	13,454.6	87.7077	13,454.6	85.0774	13,454.6	86.3781	13,454.6	82.0573	13,454.6	83.6065	13,454.6	79.2888	13,454.6	79.5106	13,454.6	75.1554	13,454.6	75.3418	13,454.6	68.1543	13,454.6	67.1111	13,454.6	63.7532	13,454.6	64.9446	13,454.6	60.4269	13,454.6	54.5682	13,454.6	59.732	13,454.6	59.292	13,454.6	54.6282	13,454.6	52.45	13,454.6	53.2481	13,454.6	61.7458	13,454.6	52.7758	13,454.6	54.4129	13,454.6	44.7924	13,454.6	45.0835	13,454.6	45.8504	13,454.6	37.0552	13,454.6	56.0137	13,454.6	49.9004	13,454.6	53.2525	13,454.6	45.5165	13,454.6	57.4987	13,454.6	40.0233	13,454.6	49.1728
13,929.2	87.5982	13,929.2	87.5607	13,929.2	87.3721	13,929.2	84.8068	13,929.2	86.0915	13,929.2	81.844	13,929.2	83.6554	13,929.2	78.09	13,929.2	79.7604	13,929.2	74.0516	13,929.2	74.3533	13,929.2	67.5733	13,929.2	61.9014	13,929.2	64.0497	13,929.2	64.9596	13,929.2	61.6413	13,929.2	49.2789	13,929.2	60.313	13,929.2	58.578	13,929.2	56.7615	13,929.2	55.4429	13,929.2	51.308	13,929.2	63.6658	13,929.2	55.0633	13,929.2	54.1869	13,929.2	44.9504	13,929.2	36.821	13,929.2	50.7732	13,929.2	46.898	13,929.2	55.8289	13,929.2	47.772	13,929.2	54.502	13,929.2	45.2272	13,929.2	57.7504	13,929.2	36.951	13,929.2	42.4359
14,419.9	87.6098	14,419.9	87.1331	14,419.9	86.8908	14,419.9	84.7127	14,419.9	85.6261	14,419.9	81.2124	14,419.9	83.2752	14,419.9	77.3776	14,419.9	78.7459	14,419.9	71.8903	14,419.9	73.4996	14,419.9	67.0486	14,419.9	56.7443	14,419.9	64.7459	14,419.9	66.4298	14,419.9	61.8442	14,419.9	46.4492	14,419.9	58.8944	14,419.9	57.6849	14,419.9	57.4813	14,419.9	56.7591	14,419.9	51.0129	14,419.9	63.1481	14,419.9	53.5374	14,419.9	52.1204	14,419.9	49.2791	14,419.9	46.9394	14,419.9	51.4981	14,419.9	52.1789	14,419.9	54.7452	14,419.9	50.6456	14,419.9	56.2518	14,419.9	33.1863	14,419.9	57.6277	14,419.9	41.1229	14,419.9	49.4886
14,928.2	87.5205	14,928.2	86.6821	14,928.2	86.9055	14,928.2	84.5903	14,928.2	85.3061	14,928.2	80.5094	14,928.2	83.0726	14,928.2	76.4471	14,928.2	78.1411	14,928.2	69.325	14,928.2	71.1284	14,928.2	67.1473	14,928.2	58.6364	14,928.2	64.8756	14,928.2	63.799	14,928.2	63.3863	14,928.2	50.4385	14,928.2	59.6968	14,928.2	54.2604	14,928.2	57.156	14,928.2	55.7953	14,928.2	51.7378	14,928.2	61.549	14,928.2	54.8566	14,928.2	52.9173	14,928.2	51.8046	14,928.2	48.559	14,928.2	53.4067	14,928.2	54.3888	14,928.2	54.8861	14,928.2	44.4189	14,928.2	57.1294	14,928.2	43.5973	14,928.2	58.4814	14,928.2	35.8452	14,928.2	54.1262
15,455.6	87.419	15,455.6	86.6936	15,455.6	86.9975	15,455.6	84.288	15,455.6	85.1628	15,455.6	80.3127	15,455.6	82.6116	15,455.6	74.6485	15,455.6	77.2878	15,455.6	69.4532	15,455.6	70.584	15,455.6	68.8336	15,455.6	64.3164	15,455.6	66.7922	15,455.6	63.1373	15,455.6	62.4487	15,455.6	60.0013	15,455.6	59.513	15,455.6	47.9018	15,455.6	57.0997	15,455.6	57.6452	15,455.6	48.031	15,455.6	64.4024	15,455.6	55.3164	15,455.6	55.7869	15,455.6	50.5476	15,455.6	52.3209	15,455.6	54.3298	15,455.6	50.0071	15,455.6	51.8427	15,455.6	43.1612	15,455.6	59.4198	15,455.6	43.3866	15,455.6	58.2783	15,455.6	43.9646	15,455.6	51.251
16,000.5	87.2353	16,000.5	86.4162	16,000.5	86.7161	16,000.5	84.4901	16,000.5	84.7098	16,000.5	79.4211	16,000.5	81.8806	16,000.5	73.052	16,000.5	76.4203	16,000.5	71.6031	16,000.5	67.4046	16,000.5	69.7309	16,000.5	72.0802	16,000.5	66.178	16,000.5	60.8498	16,000.5	64.1915	16,000.5	62.5302	16,000.5	59.7284	16,000.5	48.9213	16,000.5	57.4295	16,000.5	58.0397	16,000.5	47.4849	16,000.5	62.7169	16,000.5	55.0669	16,000.5	53.6005	16,000.5	52.7796	16,000.5	54.9977	16,000.5	54.0176	16,000.5	56.4267	16,000.5	54.2019	16,000.5	39.8426	16,000.5	61.4313	16,000.5	44.709	16,000.5	58.2518	16,000.5	46.9947	16,000.5	55.2561
16,564.5	86.9736	16,564.5	86.2376	16,564.5	86.256	16,564.5	84.3769	16,564.5	83.7548	16,564.5	79.3764	16,564.5	80.7966	16,564.5	73.0844	16,564.5	75.8811	16,564.5	73.2844	16,564.5	70.5327	16,564.5	70.3362	16,564.5	70.2498	16,564.5	67.9126	16,564.5	64.2815	16,564.5	64.6478	16,564.5	61.5389	16,564.5	60.1629	16,564.5	49.9822	16,564.5	57.8556	16,564.5	58.9539	16,564.5	51.1509	16,564.5	60.9633	16,564.5	51.8205	16,564.5	51.9453	16,564.5	54.5199	16,564.5	52.7719	16,564.5	52.2274	16,564.5	57.1855	16,564.5	57.4883	16,564.5	53.3495	16,564.5	62.7506	16,564.5	49.7497	16,564.5	58.2257	16,564.5	51.3906	16,564.5	56.2183
17,148.9	86.4687	17,148.9	85.548	17,148.9	85.7354	17,148.9	84.1337	17,148.9	83.1901	17,148.9	78.2177	17,148.9	79.7398	17,148.9	74.1234	17,148.9	74.9285	17,148.9	73.1176	17,148.9	72.2258	17,148.9	69.7935	17,148.9	71.6777	17,148.9	66.9797	17,148.9	67.3645	17,148.9	65.8385	17,148.9	66.0756	17,148.9	61.0964	17,148.9	40.4473	17,148.9	57.0622	17,148.9	60.5037	17,148.9	52.4747	17,148.9	64.3447	17,148.9	48.9448	17,148.9	53.5556	17,148.9	56.3663	17,148.9	52.8014	17,148.9	51.0586	17,148.9	55.5712	17,148.9	59.5165	17,148.9	52.7829	17,148.9	62.6616	17,148.9	47.2266	17,148.9	58.2403	17,148.9	49.5658	17,148.9	56.7291
17,752.4	85.6738	17,752.4	85.0291	17,752.4	85.2599	17,752.4	82.853	17,752.4	83.1399	17,752.4	78.289	17,752.4	78.0371	17,752.4	73.6142	17,752.4	74.2059	17,752.4	71.8139	17,752.4	74.1998	17,752.4	68.926	17,752.4	74.693	17,752.4	68.9501	17,752.4	63.9902	17,752.4	65.5442	17,752.4	65.7402	17,752.4	60.1315	17,752.4	52.0296	17,752.4	53.7437	17,752.4	59.2176	17,752.4	52.9883	17,752.4	65.2038	17,752.4	41.2983	17,752.4	56.2253	17,752.4	56.8517	17,752.4	50.6707	17,752.4	43.5359	17,752.4	50.6743	17,752.4	59.5877	17,752.4	53.1368	17,752.4	61.2666	17,752.4	48.2003	17,752.4	55.5639	17,752.4	55.6332	17,752.4	56.0081
18,379.4	85.2423	18,379.4	84.8078	18,379.4	84.7578	18,379.4	82.0614	18,379.4	82.4678	18,379.4	78.224	18,379.4	77.1164	18,379.4	73.5492	18,379.4	73.5957	18,379.4	70.283	18,379.4	72.6257	18,379.4	69.4832	18,379.4	70.7625	18,379.4	69.1611	18,379.4	64.0573	18,379.4	66.4719	18,379.4	61.2855	18,379.4	61.181	18,379.4	52.3023	18,379.4	50.5165	18,379.4	56.373	18,379.4	54.6746	18,379.4	62.0495	18,379.4	47.5553	18,379.4	57.0395	18,379.4	56.0938	18,379.4	49.9323	18,379.4	47.6446	18,379.4	39.5011	18,379.4	59.6949	18,379.4	52.3771	18,379.4	59.159	18,379.4	37.0949	18,379.4	52.6417	18,379.4	52.8201	18,379.4	58.277
19,026.9	84.6458	19,026.9	83.8069	19,026.9	84.3679	19,026.9	80.5927	19,026.9	81.5983	19,026.9	77.3534	19,026.9	76.4792	19,026.9	72.6271	19,026.9	70.8772	19,026.9	67.2877	19,026.9	68.7134	19,026.9	69.2007	19,026.9	69.0007	19,026.9	68.6857	19,026.9	55.953	19,026.9	65.4865	19,026.9	64.203	19,026.9	60.636	19,026.9	54.0613	19,026.9	51.4423	19,026.9	55.9598	19,026.9	54.8859	19,026.9	60.5357	19,026.9	51.6691	19,026.9	57.298	19,026.9	52.5083	19,026.9	39.2134	19,026.9	50.3202	19,026.9	47.9839	19,026.9	58.4163	19,026.9	45.2681	19,026.9	57.2201	19,026.9	41.2663	19,026.9	47.5697	19,026.9	51.5363	19,026.9	57.6641
19,697.8	84.5766	19,697.8	82.8386	19,697.8	84.5071	19,697.8	79.4921	19,697.8	81.476	19,697.8	76.501	19,697.8	75.7015	19,697.8	69.8326	19,697.8	68.1353	19,697.8	66.7818	19,697.8	63.7409	19,697.8	68.4608	19,697.8	64.7517	19,697.8	67.9198	19,697.8	63.9014	19,697.8	63.7508	19,697.8	62.3302	19,697.8	58.7696	19,697.8	54.017	19,697.8	51.5236	19,697.8	53.2842	19,697.8	52.9716	19,697.8	57.8126	19,697.8	52.4555	19,697.8	55.4499	19,697.8	46.9469	19,697.8	46.5394	19,697.8	49.4807	19,697.8	46.3394	19,697.8	55.992	19,697.8	39.919	19,697.8	53.6819	19,697.8	45.2937	19,697.8	44.8481	19,697.8	47.3556	19,697.8	54.8845
19,999.5	84.4284	19,999.5	82.3529	19,999.5	84.3794	19,999.5	78.8599	19,999.5	81.5537	19,999.5	75.8327	19,999.5	75.4461	19,999.5	68.4871	19,999.5	65.5829	19,999.5	67.015	19,999.5	62.9861	19,999.5	68.1706	19,999.5	65.7153	19,999.5	67.8396	19,999.5	65.1749	19,999.5	63.5464	19,999.5	61.5908	19,999.5	58.1593	19,999.5	56.4735	19,999.5	51.6131	19,999.5	55.8556	19,999.5	51.9842	19,999.5	59.6729	19,999.5	50.9205	19,999.5	54.9378	19,999.5	47.477	19,999.5	35.7428	19,999.5	50.7373	19,999.5	38.671	19,999.5	56.3345	19,999.5	49.3196	19,999.5	53.5445	19,999.5	41.0874	19,999.5	36.3272	19,999.5	42.5795	19,999.5	52.0565
