"Vertical Reflections"					
"Floor Reflection"		"Ceiling Reflection"		"Total Vertical Reflection"	
"Frequency [Hz]"	"Sound Pessure Level [dB]  / [2.83V 1m] "	"Frequency [Hz]"	"Sound Pessure Level [dB]  / [2.83V 1m] "	"Frequency [Hz]"	"Sound Pessure Level [dB]  / [2.83V 1m] "
20.5078	53.1879	20.5078	49.067	20.5078	51.5989
21.9727	54.1621	21.9727	49.7997	21.9727	52.5071
23.4375	53.9879	23.4375	48.6099	23.4375	52.083
24.9023	54.906	24.9023	49.36	24.9023	52.964
26.3672	56.4224	26.3672	51.8943	26.3672	54.7235
27.832	57.6563	27.832	53.7637	27.832	56.1323
29.2969	59.0086	29.2969	56.0226	29.2969	57.7673
30.7617	60.7178	30.7617	58.1722	30.7617	59.6289
32.2266	61.6579	32.2266	59.6779	32.2266	60.7798
33.6914	63.2288	33.6914	61.8302	33.6914	62.5856
35.1563	64.7881	35.1563	63.6375	35.1563	64.2508
36.6211	66.2792	36.6211	65.3443	36.6211	65.8368
38.0859	67.5224	38.0859	66.8093	38.0859	67.1805
39.5508	68.9798	39.5508	68.4394	39.5508	68.718
41.0156	70.4705	41.0156	70.033	41.0156	70.2572
42.4805	71.6142	42.4805	71.2359	42.4805	71.4292
43.9453	72.8718	43.9453	72.5842	43.9453	72.7304
45.4102	74.5054	45.4102	74.2967	45.4102	74.4023
46.875	75.5227	46.875	75.3082	46.875	75.4168
48.3398	76.2691	48.3398	76.1226	48.3398	76.1965
51.2695	77.8786	51.2695	77.7507	51.2695	77.8151
52.7344	78.506	52.7344	78.3961	52.7344	78.4514
54.1992	79.0765	54.1992	78.9795	54.1992	79.0283
55.6641	79.579	55.6641	79.4935	55.6641	79.5365
58.5938	80.4016	58.5938	80.303	58.5938	80.3526
60.0586	80.752	60.0586	80.6485	60.0586	80.7006
62.9883	81.4173	62.9883	81.3078	62.9883	81.3629
64.4531	81.6501	64.4531	81.5379	64.4531	81.5944
67.3828	82.0474	67.3828	81.9219	67.3828	81.9851
68.8477	82.1868	68.8477	82.0582	68.8477	82.123
71.7773	82.7498	71.7773	82.6473	71.7773	82.6988
74.707	83.1583	74.707	83.0476	74.707	83.1033
77.6367	83.3839	77.6367	83.2628	77.6367	83.3238
79.1016	83.4686	79.1016	83.3654	79.1016	83.4173
82.0313	83.8679	82.0313	83.7687	82.0313	83.8186
84.9609	84.1882	84.9609	84.0316	84.9609	84.1106
87.8906	84.2569	87.8906	84.0481	87.8906	84.1538
90.8203	84.1008	90.8203	83.9922	90.8203	84.0469
95.2148	84.9416	95.2148	84.8122	95.2148	84.8774
98.1445	84.9717	98.1445	84.7673	98.1445	84.8707
101.074	85.0664	101.074	84.8945	101.074	84.9813
105.469	85.2727	105.469	85.1279	105.469	85.2009
108.398	85.4553	108.398	85.33	108.398	85.3931
112.793	85.8392	112.793	85.6979	112.793	85.7691
117.188	86.0586	117.188	85.8826	117.188	85.9715
120.117	86.3852	120.117	86.2578	120.117	86.3219
124.512	86.5353	124.512	86.3292	124.512	86.4334
128.906	86.5755	128.906	86.3296	128.906	86.4543
133.301	86.65	133.301	86.4408	133.301	86.5467
139.16	86.7033	139.16	86.4974	139.16	86.6016
143.555	86.8282	143.555	86.5665	143.555	86.6993
147.949	86.9277	147.949	86.5802	147.949	86.7574
153.809	87.1787	153.809	86.7862	153.809	86.9869
159.668	87.4085	159.668	87.0126	159.668	87.2151
165.527	87.5415	165.527	87.1785	165.527	87.3638
171.387	87.4595	171.387	87.129	171.387	87.2974
177.246	87.4202	177.246	87.0798	177.246	87.2533
183.105	87.3246	183.105	86.8892	183.105	87.1123
188.965	87.4297	188.965	86.9526	188.965	87.1977
196.289	87.6087	196.289	87.235	196.289	87.4259
203.613	87.5226	203.613	87.1105	203.613	87.3214
210.938	87.4583	210.938	87.008	210.938	87.239
218.262	87.4534	218.262	87.0264	218.262	87.2452
225.586	87.3443	225.586	86.9237	225.586	87.1391
232.91	87.3337	232.91	86.88	232.91	87.1128
241.699	87.3871	241.699	86.8148	241.699	87.1104
250.488	87.3589	250.488	86.6035	250.488	86.9976
259.277	87.5116	259.277	86.8149	259.277	87.1772
268.066	87.1106	268.066	86.2821	268.066	86.7161
276.855	87.2698	276.855	86.3513	276.855	86.8348
287.109	87.4273	287.109	86.6164	287.109	87.0407
297.363	87.1824	297.363	86.2487	297.363	86.7406
307.617	86.9196	307.617	86.2122	307.617	86.5803
319.336	86.7712	319.336	86.0332	319.336	86.4178
329.59	86.8219	329.59	85.7271	329.59	86.3089
341.309	86.5467	341.309	85.4686	341.309	86.041
353.027	86.0828	353.027	84.6484	353.027	85.4246
366.211	85.8677	366.211	83.5926	366.211	84.8775
379.395	87.6115	379.395	85.7815	379.395	86.7922
392.578	87.2371	392.578	85.4936	392.578	86.4523
405.762	86.7811	405.762	85.1173	405.762	86.0284
420.41	87.0959	420.41	85.1839	420.41	86.2443
435.059	86.7216	435.059	85.1594	435.059	86.0104
451.172	86.7259	451.172	84.6755	451.172	85.8206
465.82	86.743	465.82	84.9743	465.82	85.9481
483.398	86.2059	483.398	84.3768	483.398	85.3869
499.512	86.0604	499.512	84.4212	499.512	85.3177
517.09	85.7366	517.09	84.1601	517.09	85.0195
536.133	85.2315	536.133	82.8947	536.133	84.2184
555.176	85.3386	555.176	82.733	555.176	84.2283
574.219	84.962	574.219	82.525	574.219	83.9122
594.727	84.2084	594.727	81.9426	594.727	83.2216
615.234	83.7639	615.234	80.9063	615.234	82.566
637.207	83.0487	637.207	80.3562	637.207	81.9078
659.18	84.7136	659.18	81.4019	659.18	83.3661
682.617	86.9331	682.617	83.1914	682.617	85.4533
707.52	87.5066	707.52	83.6559	707.52	85.9947
732.422	86.8429	732.422	84.1418	732.422	85.699
757.324	86.2062	757.324	83.7484	757.324	85.1489
785.156	86.4897	785.156	84.0058	785.156	85.4229
811.523	85.8049	811.523	84.0736	811.523	85.0249
840.82	86.0202	840.82	83.8354	840.82	85.0638
870.117	85.7221	870.117	83.4989	870.117	84.7513
900.879	85.7573	900.879	83.7139	900.879	84.8547
933.105	85.749	933.105	83.5289	933.105	84.7793
965.332	85.7472	965.332	83.8859	965.332	84.9155
1,000.49	86.1238	1,000.49	83.1231	1,000.49	84.8776
1,035.64	85.8199	1,035.64	83.8392	1,035.64	84.9415
1,072.27	85.4437	1,072.27	83.4389	1,072.27	84.556
1,108.89	84.1743	1,108.89	83.6074	1,108.89	83.9001
1,148.44	83.4034	1,148.44	84.0747	1,148.44	83.752
1,189.45	84.4276	1,189.45	83.1709	1,189.45	83.8445
1,230.47	84.8037	1,230.47	82.2486	1,230.47	83.7114
1,274.41	85.6413	1,274.41	82.05	1,274.41	84.2067
1,319.82	86.2717	1,319.82	82.0571	1,319.82	84.6568
1,366.7	86.2628	1,366.7	83.7485	1,366.7	85.1851
1,413.57	85.1413	1,413.57	82.8564	1,413.57	84.1474
1,463.38	84.5302	1,463.38	81.189	1,463.38	83.1733
1,516.11	83.4151	1,516.11	80.4771	1,516.11	82.19
1,568.85	82.7081	1,568.85	79.8862	1,568.85	81.5224
1,624.51	82.1992	1,624.51	79.0693	1,624.51	80.9103
1,681.64	81.8458	1,681.64	78.5709	1,681.64	80.51
1,741.7	80.5865	1,741.7	79.1125	1,741.7	79.9118
1,803.22	79.5713	1,803.22	78.4834	1,803.22	79.0614
1,866.21	79.8518	1,866.21	78.1466	1,866.21	79.0824
1,932.13	80.3048	1,932.13	77.9462	1,932.13	79.2837
1,999.51	79.2217	1,999.51	77.4683	1,999.51	78.4329
2,069.82	78.2609	2,069.82	77.4557	2,069.82	77.877
2,143.07	78.0838	2,143.07	75.272	2,143.07	76.9016
2,219.24	77.4964	2,219.24	72.7625	2,219.24	75.7448
2,296.88	76.7126	2,296.88	71.6697	2,296.88	74.8853
2,378.91	78.3276	2,378.91	73.3245	2,378.91	76.5098
2,462.4	78.7063	2,462.4	68.8557	2,462.4	76.1237
2,548.83	77.779	2,548.83	68.0077	2,548.83	75.2039
2,639.65	77.3816	2,639.65	70.4271	2,639.65	75.169
2,731.93	77.4868	2,731.93	72.5257	2,731.93	75.6792
2,828.61	78.0633	2,828.61	73.9691	2,828.61	76.4818
2,928.22	77.6409	2,928.22	77.3258	2,928.22	77.4862
3,030.76	77.4458	3,030.76	78.7071	3,030.76	78.1221
3,137.7	77.2538	3,137.7	79.661	3,137.7	78.6221
3,249.02	77.2267	3,249.02	80.331	3,249.02	79.0505
3,363.28	77.1461	3,363.28	80.92	3,363.28	79.4307
3,481.93	77.5753	3,481.93	81.2462	3,481.93	79.7876
3,604.98	78.1712	3,604.98	81.5973	3,604.98	80.2137
3,732.42	79.1848	3,732.42	82.0152	3,732.42	80.8266
3,864.26	80.2716	3,864.26	82.473	3,864.26	81.5103
4,000.49	81.3896	4,000.49	83.2097	4,000.49	82.3943
4,141.11	82.8244	4,141.11	83.4233	4,141.11	83.1341
4,287.6	83.2847	4,287.6	83.2765	4,287.6	83.2806
4,438.48	83.3457	4,438.48	83.3514	4,438.48	83.3486
4,595.21	85.1721	4,595.21	83.4156	4,595.21	84.382
4,756.35	86.6814	4,756.35	83.3987	4,756.35	85.3431
4,924.8	86.8017	4,924.8	83.696	4,924.8	85.5208
5,097.66	86.6452	5,097.66	84.102	5,097.66	85.5571
5,277.83	87.4521	5,277.83	84.2278	5,277.83	86.1325
5,463.87	87.578	5,463.87	84.6373	5,463.87	86.3519
5,657.23	87.0679	5,657.23	84.947	5,657.23	86.1356
5,856.45	86.4162	5,856.45	85.0877	5,856.45	85.8025
6,062.99	86.5712	6,062.99	84.5336	6,062.99	85.6708
6,276.86	86.8272	6,276.86	84.148	6,276.86	85.691
6,498.05	86.5539	6,498.05	83.5632	6,498.05	85.3111
6,726.56	86.2025	6,726.56	83.3368	6,726.56	85.0018
6,963.87	86.343	6,963.87	83.2174	6,963.87	85.0555
7,209.96	85.7004	7,209.96	82.881	7,209.96	84.5156
7,464.84	85.5404	7,464.84	82.6199	7,464.84	84.3211
7,727.05	85.573	7,727.05	82.4992	7,727.05	84.3026
7,999.51	84.8112	7,999.51	82.5074	7,999.51	83.8103
8,282.23	85.1569	8,282.23	82.1335	8,282.23	83.9031
8,573.73	84.7578	8,573.73	81.6054	8,573.73	83.4615
8,876.95	84.6953	8,876.95	81.0752	8,876.95	83.252
9,188.96	84.7406	9,188.96	80.7194	9,188.96	83.1797
9,514.16	84.7176	9,514.16	80.6454	9,514.16	83.1423
9,849.61	84.8921	9,849.61	80.5871	9,849.61	83.2525
10,196.8	85.1564	10,196.8	80.2383	10,196.8	83.3592
10,555.7	84.9673	10,555.7	79.462	10,555.7	83.0341
10,927.7	85.0719	10,927.7	78.8849	10,927.7	82.9979
11,313	85.0435	11,313	78.5864	11,313	82.9184
11,712.9	84.7414	11,712.9	78.0251	11,712.9	82.5697
12,126	84.4028	12,126	77.6237	12,126	82.2202
12,553.7	84.3971	12,553.7	77.2456	12,553.7	82.152
12,996.1	84.363	12,996.1	76.8303	12,996.1	82.0586
13,454.6	83.9973	13,454.6	76.1702	13,454.6	81.65
13,929.2	83.8813	13,929.2	75.0313	13,929.2	81.403
14,419.9	83.3763	14,419.9	73.9906	14,419.9	80.8395
14,928.2	83.0635	14,928.2	72.8535	14,928.2	80.4484
15,455.6	82.744	15,455.6	71.8209	15,455.6	80.0713
16,000.5	82.1646	16,000.5	71.6689	16,000.5	79.5255
16,564.5	81.2087	16,564.5	72.4264	16,564.5	78.7383
17,148.9	80.4629	17,148.9	72.7012	17,148.9	78.1249
17,752.4	79.9422	17,752.4	71.8542	17,752.4	77.5589
18,379.4	79.2234	18,379.4	71.4813	18,379.4	76.8883
19,026.9	78.2647	19,026.9	70.2782	19,026.9	75.8952
19,697.8	77.8805	19,697.8	68.5337	19,697.8	75.3477
19,999.5	77.8217	19,999.5	67.9356	19,999.5	75.2358
