"SPL Vertical"																					
"On-Axis"		"10°"		"-10°"		"20°"		"-20°"		"30°"		"-30°"		"40°"		"-40°"		"50°"		"-50°"	
"Frequency [Hz]"	"Sound Pessure Level [dB]  / [2.83V 1m] "	"Frequency [Hz]"	"Sound Pessure Level [dB]  / [2.83V 1m] "	"Frequency [Hz]"	"Sound Pessure Level [dB]  / [2.83V 1m] "	"Frequency [Hz]"	"Sound Pessure Level [dB]  / [2.83V 1m] "	"Frequency [Hz]"	"Sound Pessure Level [dB]  / [2.83V 1m] "	"Frequency [Hz]"	"Sound Pessure Level [dB]  / [2.83V 1m] "	"Frequency [Hz]"	"Sound Pessure Level [dB]  / [2.83V 1m] "	"Frequency [Hz]"	"Sound Pessure Level [dB]  / [2.83V 1m] "	"Frequency [Hz]"	"Sound Pessure Level [dB]  / [2.83V 1m] "	"Frequency [Hz]"	"Sound Pessure Level [dB]  / [2.83V 1m] "	"Frequency [Hz]"	"Sound Pessure Level [dB]  / [2.83V 1m] "
20.5078	7.5683	20.5078	7.75975	20.5078	7.32302	20.5078	7.90041	20.5078	7.02164	20.5078	7.99302	20.5078	6.6642	20.5078	8.03948	20.5078	6.25513	20.5078	8.04053	20.5078	5.80582
21.2402	14.8026	21.2402	14.7031	21.2402	14.899	21.2402	14.6059	21.2402	14.9876	21.2402	14.5168	21.2402	15.0648	21.2402	14.4417	21.2402	15.1273	21.2402	14.3868	21.2402	15.1736
21.9727	16.4088	21.9727	16.0783	21.9727	16.7534	21.9727	15.7706	21.9727	17.103	21.9727	15.495	21.9727	17.4494	21.9727	15.2606	21.9727	17.7839	21.9727	15.0764	21.9727	18.0983
22.7051	16.888	22.7051	16.7899	22.7051	16.9916	22.7051	16.6983	22.7051	17.0992	22.7051	16.6135	22.7051	17.2082	22.7051	16.5352	22.7051	17.3152	22.7051	16.463	22.7051	17.4159
23.4375	16.9093	23.4375	16.8247	23.4375	17.0121	23.4375	16.7592	23.4375	17.1318	23.4375	16.7131	23.4375	17.2663	23.4375	16.6864	23.4375	17.4129	23.4375	16.6788	23.4375	17.5679
24.1699	-7.63556	24.1699	-7.95443	24.1699	-6.03871	24.1699	-6.93409	24.1699	-4.02007	24.1699	-5.41221	24.1699	-2.10711	24.1699	-3.95981	24.1699	-0.451028	24.1699	-2.74879	24.1699	0.932429
25.6348	9.94847	25.6348	9.75008	25.6348	10.16	25.6348	9.56692	25.6348	10.3832	25.6348	9.40177	25.6348	10.6166	25.6348	9.25821	25.6348	10.8582	25.6348	9.14066	25.6348	11.1052
26.3672	18.0708	26.3672	17.9707	26.3672	18.1659	26.3672	17.868	26.3672	18.254	26.3672	17.7649	26.3672	18.3331	26.3672	17.6641	26.3672	18.4014	26.3672	17.568	26.3672	18.4573
27.0996	18.5651	27.0996	18.4233	27.0996	18.7067	27.0996	18.2847	27.0996	18.8448	27.0996	18.1525	27.0996	18.9757	27.0996	18.0294	27.0996	19.0955	27.0996	17.9185	27.0996	19.2006
27.832	17.488	27.832	17.4597	27.832	17.5357	27.832	17.4521	27.832	17.6008	27.832	17.4666	27.832	17.6815	27.832	17.504	27.832	17.7761	27.832	17.5648	27.832	17.8827
29.2969	9.97201	29.2969	9.86739	29.2969	10.011	29.2969	9.7003	29.2969	9.98245	29.2969	9.47506	29.2969	9.88605	29.2969	9.1974	29.2969	9.72423	29.2969	8.87521	29.2969	9.50332
30.0293	19.9579	30.0293	19.8652	30.0293	20.0261	30.0293	19.7504	30.0293	20.0672	30.0293	19.616	30.0293	20.0791	30.0293	19.4646	30.0293	20.0598	30.0293	19.299	30.0293	20.0078
31.4941	23.7717	31.4941	23.7289	31.4941	23.7976	31.4941	23.6712	31.4941	23.8046	31.4941	23.6007	31.4941	23.7908	31.4941	23.5194	31.4941	23.7546	31.4941	23.4291	31.4941	23.6949
32.2266	28.2025	32.2266	28.1033	32.2266	28.2958	32.2266	28.0005	32.2266	28.381	32.2266	27.8963	32.2266	28.4555	32.2266	27.7931	32.2266	28.5172	32.2266	27.6929	32.2266	28.5638
33.6914	32.2354	33.6914	32.182	33.6914	32.2929	33.6914	32.1345	33.6914	32.3525	33.6914	32.0945	33.6914	32.4121	33.6914	32.0633	33.6914	32.4697	33.6914	32.0419	33.6914	32.5232
34.4238	32.1457	34.4238	32.099	34.4238	32.196	34.4238	32.0575	34.4238	32.248	34.4238	32.0223	34.4238	32.2998	34.4238	31.9945	34.4238	32.3493	34.4238	31.9747	34.4238	32.3945
35.8887	33.796	35.8887	33.6889	35.8887	33.9015	35.8887	33.5829	35.8887	34.0025	35.8887	33.4803	35.8887	34.0962	35.8887	33.3835	35.8887	34.1794	35.8887	33.2944	35.8887	34.2491
37.3535	35.9303	37.3535	35.8446	37.3535	36.0122	37.3535	35.7574	37.3535	36.0879	37.3535	35.6708	37.3535	36.1548	37.3535	35.5869	37.3535	36.2107	37.3535	35.5076	37.3535	36.2531
38.8184	38.7948	38.8184	38.7078	38.8184	38.8796	38.8184	38.621	38.8184	38.9598	38.8184	38.5367	38.8184	39.0327	38.8184	38.4569	38.8184	39.0959	38.8184	38.3835	38.8184	39.1468
39.5508	39.9487	39.5508	39.8438	39.5508	40.0501	39.5508	39.7384	39.5508	40.1453	39.5508	39.635	39.5508	40.2312	39.5508	39.536	39.5508	40.3049	39.5508	39.4439	39.5508	40.3635
41.0156	42.5757	41.0156	42.5457	41.0156	42.6009	41.0156	42.512	41.0156	42.6204	41.0156	42.4753	41.0156	42.6334	41.0156	42.4364	41.0156	42.6388	41.0156	42.3961	41.0156	42.6358
42.4805	44.8441	42.4805	44.7853	42.4805	44.9087	42.4805	44.7341	42.4805	44.9773	42.4805	44.6918	42.4805	45.0474	42.4805	44.6592	42.4805	45.1167	42.4805	44.6368	42.4805	45.1825
43.9453	45.8603	43.9453	45.7755	43.9453	45.9452	43.9453	45.6932	43.9453	46.0274	43.9453	45.6157	43.9453	46.1044	43.9453	45.545	43.9453	46.1736	43.9453	45.483	43.9453	46.2325
45.4102	48.2087	45.4102	48.1227	45.4102	48.2947	45.4102	48.0394	45.4102	48.3781	45.4102	47.961	45.4102	48.4561	45.4102	47.8898	45.4102	48.5261	45.4102	47.8276	45.4102	48.5854
47.6074	51.2574	47.6074	51.1663	47.6074	51.3481	47.6074	51.0773	47.6074	51.4356	47.6074	50.9931	47.6074	51.517	47.6074	50.9157	47.6074	51.5895	47.6074	50.8473	47.6074	51.6506
49.0723	53.1444	49.0723	53.0545	49.0723	53.234	49.0723	52.9668	49.0723	53.3206	49.0723	52.8839	49.0723	53.4013	49.0723	52.8079	49.0723	53.4734	49.0723	52.7408	49.0723	53.5342
50.5371	54.8427	50.5371	54.7525	50.5371	54.9323	50.5371	54.6644	50.5371	55.0187	50.5371	54.5809	50.5371	55.099	50.5371	54.5043	50.5371	55.1704	50.5371	54.4365	50.5371	55.2303
52.7344	57.3048	52.7344	57.2136	52.7344	57.3957	52.7344	57.1247	52.7344	57.4835	52.7344	57.0407	52.7344	57.5654	52.7344	56.964	52.7344	57.6384	52.7344	56.8964	52.7344	57.7002
54.1992	58.8173	54.1992	58.7275	54.1992	58.907	54.1992	58.6403	54.1992	58.9939	54.1992	58.5583	54.1992	59.0751	54.1992	58.4837	54.1992	59.1478	54.1992	58.4187	54.1992	59.2094
56.3965	60.909	56.3965	60.8177	56.3965	60.9996	56.3965	60.7285	56.3965	61.0866	56.3965	60.6439	56.3965	61.1671	56.3965	60.5663	56.3965	61.2385	56.3965	60.498	56.3965	61.2981
58.5938	62.6685	58.5938	62.581	58.5938	62.7549	58.5938	62.4951	58.5938	62.8374	58.5938	62.4133	58.5938	62.9133	58.5938	62.3381	58.5938	62.9798	58.5938	62.2714	58.5938	63.0345
60.0586	63.7633	60.0586	63.6729	60.0586	63.8528	60.0586	63.5847	60.0586	63.9387	60.0586	63.5011	60.0586	64.018	60.0586	63.4246	60.0586	64.088	60.0586	63.3574	60.0586	64.1459
62.2559	65.0839	62.2559	64.9914	62.2559	65.1759	62.2559	64.9014	62.2559	65.2645	62.2559	64.8165	62.2559	65.3466	62.2559	64.7394	62.2559	65.4195	62.2559	64.6721	62.2559	65.4805
64.4531	66.1427	64.4531	66.0498	64.4531	66.2352	64.4531	65.9593	64.4531	66.3241	64.4531	65.8741	64.4531	66.4064	64.4531	65.7966	64.4531	66.4793	64.4531	65.7291	64.4531	66.5402
66.6504	66.968	66.6504	66.8738	66.6504	67.0615	66.6504	66.782	66.6504	67.1513	66.6504	66.6955	66.6504	67.2343	66.6504	66.6168	66.6504	67.3076	66.6504	66.5484	66.6504	67.3684
69.5801	67.8666	69.5801	67.7711	69.5801	67.9612	69.5801	67.6778	69.5801	68.0518	69.5801	67.5896	69.5801	68.1352	69.5801	67.5094	69.5801	68.2086	69.5801	67.4394	69.5801	68.2693
71.7773	68.3817	71.7773	68.2868	71.7773	68.4756	71.7773	68.194	71.7773	68.5653	71.7773	68.1064	71.7773	68.6478	71.7773	68.0267	71.7773	68.7202	71.7773	67.9572	71.7773	68.7797
73.9746	68.8341	73.9746	68.7388	73.9746	68.9286	73.9746	68.6458	73.9746	69.0189	73.9746	68.558	73.9746	69.1021	73.9746	68.4784	73.9746	69.175	73.9746	68.4093	73.9746	69.235
76.9043	69.3754	76.9043	69.2783	76.9043	69.4713	76.9043	69.1833	76.9043	69.5627	76.9043	69.0937	76.9043	69.6464	76.9043	69.0122	76.9043	69.7196	76.9043	68.9415	76.9043	69.7794
79.834	69.8875	79.834	69.7916	79.834	69.9821	79.834	69.6977	79.834	70.0722	79.834	69.6091	79.834	70.1546	79.834	69.5286	79.834	70.2262	79.834	69.4588	79.834	70.2844
82.7637	70.3879	82.7637	70.2901	82.7637	70.4844	82.7637	70.1944	82.7637	70.5763	82.7637	70.1041	82.7637	70.6601	82.7637	70.0223	82.7637	70.733	82.7637	69.9514	82.7637	70.7921
85.6934	70.8158	85.6934	70.7169	85.6934	70.9134	85.6934	70.6203	85.6934	71.0065	85.6934	70.5294	85.6934	71.0915	85.6934	70.4473	85.6934	71.1653	85.6934	70.3767	85.6934	71.2254
88.623	71.2415	88.623	71.1418	88.623	71.34	88.623	71.0447	88.623	71.4338	88.623	70.9535	88.623	71.5195	88.623	70.8714	88.623	71.5939	88.623	70.8014	88.623	71.6542
91.5527	71.704	91.5527	71.6027	91.5527	71.8038	91.5527	71.5035	91.5527	71.8983	91.5527	71.4102	91.5527	71.9841	91.5527	71.3262	91.5527	72.0579	91.5527	71.2545	91.5527	72.1172
94.4824	72.1399	94.4824	72.0378	94.4824	72.2403	94.4824	71.9377	94.4824	72.3352	94.4824	71.8434	94.4824	72.4212	94.4824	71.7583	94.4824	72.4949	94.4824	71.6856	94.4824	72.5538
98.1445	72.601	98.1445	72.498	98.1445	72.7019	98.1445	72.3966	98.1445	72.7969	98.1445	72.3008	98.1445	72.8824	98.1445	72.2141	98.1445	72.9552	98.1445	72.1398	98.1445	73.0126
101.807	73.0435	101.807	72.9399	101.807	73.1448	101.807	72.838	101.807	73.2399	101.807	72.7417	101.807	73.3252	101.807	72.6547	101.807	73.3975	101.807	72.5803	101.807	73.454
105.469	73.4599	105.469	73.3555	105.469	73.5619	105.469	73.2528	105.469	73.6577	105.469	73.156	105.469	73.7434	105.469	73.0687	105.469	73.8159	105.469	72.9944	105.469	73.8723
109.131	73.7595	109.131	73.6539	109.131	73.8631	109.131	73.5505	109.131	73.9605	109.131	73.4536	109.131	74.0479	109.131	73.367	109.131	74.1219	109.131	73.2943	109.131	74.1797
112.793	74.0296	112.793	73.9218	112.793	74.1345	112.793	73.8156	112.793	74.2324	112.793	73.7156	112.793	74.3192	112.793	73.6259	112.793	74.3916	112.793	73.5503	112.793	74.4468
116.455	74.3035	116.455	74.1948	116.455	74.4087	116.455	74.0872	116.455	74.5062	116.455	73.9854	116.455	74.5919	116.455	73.8936	116.455	74.6625	116.455	73.8157	116.455	74.7151
120.85	74.5715	120.85	74.461	120.85	74.6784	120.85	74.3519	120.85	74.7772	120.85	74.2487	120.85	74.8639	120.85	74.1562	120.85	74.9348	120.85	74.0783	120.85	74.9873
125.244	74.7295	125.244	74.6158	125.244	74.8392	125.244	74.5033	125.244	74.9404	125.244	74.3971	125.244	75.0286	125.244	74.3018	125.244	75.1004	125.244	74.222	125.244	75.1528
129.639	74.8202	129.639	74.7039	129.639	74.9319	129.639	74.5884	129.639	75.0343	129.639	74.4789	129.639	75.1231	129.639	74.3804	129.639	75.1945	129.639	74.2975	129.639	75.2456
134.033	74.8564	134.033	74.738	134.033	74.9701	134.033	74.6203	134.033	75.0741	134.033	74.5086	134.033	75.1638	134.033	74.4083	134.033	75.2356	134.033	74.3242	134.033	75.2864
138.428	74.8445	138.428	74.7243	138.428	74.9598	138.428	74.6046	138.428	75.065	138.428	74.4913	138.428	75.1554	138.428	74.3897	138.428	75.2273	138.428	74.3048	138.428	75.2777
143.555	74.7836	143.555	74.6587	143.555	74.9033	143.555	74.5345	143.555	75.0123	143.555	74.4171	143.555	75.1057	143.555	74.3123	143.555	75.1797	143.555	74.2254	143.555	75.2312
148.682	74.6686	148.682	74.5383	148.682	74.7926	148.682	74.4082	148.682	74.9048	148.682	74.2846	148.682	75.0001	148.682	74.174	148.682	75.0746	148.682	74.0821	148.682	75.1253
153.809	74.5371	153.809	74.4032	153.809	74.6638	153.809	74.2685	153.809	74.7774	153.809	74.1399	153.809	74.8729	153.809	74.024	153.809	74.9463	153.809	73.927	153.809	74.9946
159.668	74.417	159.668	74.2787	159.668	74.5474	159.668	74.1391	159.668	74.6638	159.668	74.0054	159.668	74.7611	159.668	73.8849	159.668	74.8354	159.668	73.7841	159.668	74.8838
164.795	74.3304	164.795	74.195	164.795	74.4571	164.795	74.0578	164.795	74.5693	164.795	73.9258	164.795	74.6618	164.795	73.8064	164.795	74.7307	164.795	73.7064	164.795	74.7731
170.654	74.0982	170.654	73.9578	170.654	74.2294	170.654	73.8153	170.654	74.3449	170.654	73.6785	170.654	74.4394	170.654	73.555	170.654	74.5086	170.654	73.4523	170.654	74.5497
176.514	73.9128	176.514	73.7683	176.514	74.0475	176.514	73.6213	176.514	74.1656	176.514	73.4799	176.514	74.2618	176.514	73.3523	176.514	74.3314	176.514	73.2461	176.514	74.3717
183.105	73.6412	183.105	73.4859	183.105	73.7854	183.105	73.3274	183.105	73.9115	183.105	73.1745	183.105	74.0137	183.105	73.0361	183.105	74.0875	183.105	72.9206	183.105	74.1298
189.697	73.485	189.697	73.3259	189.697	73.6317	189.697	73.1624	189.697	73.7589	189.697	73.0035	189.697	73.861	189.697	72.8585	189.697	73.9336	189.697	72.7362	189.697	73.9739
196.289	73.3091	196.289	73.1516	196.289	73.4535	196.289	72.9892	196.289	73.5776	196.289	72.8314	196.289	73.6756	196.289	72.6878	196.289	73.7432	196.289	72.5676	196.289	73.7774
202.881	73.1051	202.881	72.9425	202.881	73.2539	202.881	72.7751	202.881	73.3813	202.881	72.6126	202.881	73.4812	202.881	72.4657	202.881	73.5489	202.881	72.344	202.881	73.5817
210.205	72.878	210.205	72.7087	210.205	73.0314	210.205	72.5329	210.205	73.1612	210.205	72.3612	210.205	73.2611	210.205	72.2048	210.205	73.3263	210.205	72.0743	210.205	73.354
217.529	72.6948	217.529	72.5182	217.529	72.8539	217.529	72.334	217.529	72.9873	217.529	72.1533	217.529	73.0886	217.529	71.9883	217.529	73.1532	217.529	71.8511	217.529	73.1783
225.586	72.5068	225.586	72.3286	225.586	72.6661	225.586	72.1413	225.586	72.7982	225.586	71.9564	225.586	72.8969	225.586	71.7866	225.586	72.9573	225.586	71.6443	225.586	72.9766
232.91	72.3506	232.91	72.1672	232.91	72.5132	232.91	71.9739	232.91	72.6461	232.91	71.7829	232.91	72.7423	232.91	71.6076	232.91	72.7964	232.91	71.4611	232.91	72.8051
241.699	72.0622	241.699	71.8679	241.699	72.2348	241.699	71.6637	241.699	72.3763	241.699	71.4635	241.699	72.4791	241.699	71.2821	241.699	72.538	241.699	71.1342	241.699	72.5494
249.756	72.0142	249.756	71.7817	249.756	72.2184	249.756	71.5336	249.756	72.3847	249.756	71.2853	249.756	72.5057	249.756	71.0541	249.756	72.5761	249.756	70.8581	249.756	72.5926
258.545	71.9802	258.545	71.7531	258.545	72.1791	258.545	71.5101	258.545	72.3406	258.545	71.2662	258.545	72.4578	258.545	71.0389	258.545	72.5258	258.545	70.8463	258.545	72.5416
268.066	71.6537	268.066	71.3928	268.066	71.8793	268.066	71.1098	268.066	72.06	268.066	70.8217	268.066	72.1893	268.066	70.5494	268.066	72.2626	268.066	70.3156	268.066	72.2776
277.588	71.8529	277.588	71.6028	277.588	72.0625	277.588	71.3229	277.588	72.2245	277.588	71.0282	277.588	72.3342	277.588	70.7381	277.588	72.3886	277.588	70.4759	277.588	72.3862
287.109	71.6828	287.109	71.4377	287.109	71.8861	287.109	71.1594	287.109	72.0416	287.109	70.8608	287.109	72.1455	287.109	70.5596	287.109	72.1952	287.109	70.2784	287.109	72.1889
297.363	71.4144	297.363	71.1751	297.363	71.6123	297.363	70.9049	297.363	71.7612	297.363	70.6174	297.363	71.855	297.363	70.3297	297.363	71.8892	297.363	70.0624	297.363	71.8604
307.617	71.3475	307.617	71.1114	307.617	71.5471	307.617	70.8498	307.617	71.7015	307.617	70.577	307.617	71.804	307.617	70.3105	307.617	71.8493	307.617	70.07	307.617	71.8338
318.604	71.3584	318.604	71.0899	318.604	71.5802	318.604	70.7869	318.604	71.7469	318.604	70.4661	318.604	71.8523	318.604	70.1493	318.604	71.8918	318.604	69.8626	318.604	71.8621
329.59	71.1396	329.59	70.8892	329.59	71.3498	329.59	70.6096	329.59	71.5118	329.59	70.3157	329.59	71.6196	329.59	70.0267	329.59	71.6684	329.59	69.7658	329.59	71.6545
341.309	70.6695	341.309	70.3886	341.309	70.9022	341.309	70.0739	341.309	71.077	341.309	69.7456	341.309	71.1873	341.309	69.4303	341.309	71.2283	341.309	69.1595	341.309	71.1971
353.76	71.0957	353.76	70.7977	353.76	71.3346	353.76	70.4511	353.76	71.507	353.76	70.072	353.76	71.6079	353.76	69.6834	353.76	71.633	353.76	69.3158	353.76	71.5793
366.211	71.0388	366.211	70.7346	366.211	71.2867	366.211	70.3882	366.211	71.4688	366.211	70.0205	366.211	71.5792	366.211	69.6595	366.211	71.6141	366.211	69.3382	366.211	71.5712
378.662	70.9837	378.662	70.6477	378.662	71.2503	378.662	70.256	378.662	71.4398	378.662	69.8318	378.662	71.5481	378.662	69.4097	378.662	71.5728	378.662	69.0352	378.662	71.5126
392.578	71.0001	392.578	70.6647	392.578	71.2535	392.578	70.2547	392.578	71.4225	392.578	69.7867	392.578	71.5064	392.578	69.2911	392.578	71.5049	392.578	68.8153	392.578	71.4168
405.762	71.1858	405.762	70.8549	405.762	71.4308	405.762	70.4424	405.762	71.5885	405.762	69.9593	405.762	71.6583	405.762	69.4284	405.762	71.6385	405.762	68.8892	405.762	71.5269
420.41	71.1801	420.41	70.884	420.41	71.4003	420.41	70.5163	420.41	71.5425	420.41	70.0866	420.41	71.6046	420.41	69.6142	420.41	71.5834	420.41	69.1314	420.41	71.4745
435.059	70.9949	435.059	70.6554	435.059	71.2485	435.059	70.2372	435.059	71.4133	435.059	69.7556	435.059	71.4879	435.059	69.2396	435.059	71.4701	435.059	68.7357	435.059	71.3569
450.439	71.257	450.439	70.9118	450.439	71.5041	450.439	70.4705	450.439	71.654	450.439	69.9418	450.439	71.7076	450.439	69.3476	450.439	71.6648	450.439	68.7288	450.439	71.5231
466.553	71.307	466.553	70.9885	466.553	71.5276	466.553	70.5685	466.553	71.6553	466.553	70.0496	466.553	71.6937	466.553	69.4471	466.553	71.6433	466.553	68.798	466.553	71.5017
482.666	71.2699	482.666	70.9799	482.666	71.4625	482.666	70.5882	482.666	71.5626	482.666	70.0953	482.666	71.5735	482.666	69.5122	482.666	71.4957	482.666	68.8683	482.666	71.3261
500.244	71.4706	500.244	71.2126	500.244	71.6337	500.244	70.8507	500.244	71.7091	500.244	70.3784	500.244	71.7	500.244	69.7987	500.244	71.6045	500.244	69.1323	500.244	71.4165
517.822	71.0487	517.822	70.8271	517.822	71.188	517.822	70.5176	517.822	71.2495	517.822	70.1168	517.822	71.2348	517.822	69.6295	517.822	71.1411	517.822	69.0746	517.822	70.9621
536.133	71.2822	536.133	71.05	536.133	71.4172	536.133	70.7215	536.133	71.4535	536.133	70.298	536.133	71.3892	536.133	69.7823	536.133	71.2216	536.133	69.1849	536.133	70.9464
554.443	71.5302	554.443	71.3426	554.443	71.6283	554.443	71.0596	554.443	71.6392	554.443	70.6726	554.443	71.5613	554.443	70.1738	554.443	71.3892	554.443	69.5626	554.443	71.1141
574.219	71.2836	574.219	71.0675	574.219	71.4199	574.219	70.7756	574.219	71.4712	574.219	70.409	574.219	71.4319	574.219	69.9677	574.219	71.2965	574.219	69.4559	574.219	71.0581
594.727	72.2136	594.727	72.034	594.727	72.2914	594.727	71.7479	594.727	72.2687	594.727	71.3457	594.727	72.1452	594.727	70.8154	594.727	71.92	594.727	70.1504	594.727	71.5907
615.234	73.0549	615.234	72.88	615.234	73.1385	615.234	72.6224	615.234	73.1208	615.234	72.2841	615.234	72.9939	615.234	71.8562	615.234	72.752	615.234	71.3204	615.234	72.3903
637.207	72.6479	637.207	72.4661	637.207	72.7531	637.207	72.2242	637.207	72.7679	637.207	71.9335	637.207	72.6837	637.207	71.5908	637.207	72.4957	637.207	71.1775	637.207	72.1991
659.912	72.6883	659.912	72.4649	659.912	72.827	659.912	72.185	659.912	72.8599	659.912	71.8727	659.912	72.7763	659.912	71.5317	659.912	72.573	659.912	71.1393	659.912	72.2499
683.35	72.8862	683.35	72.6807	683.35	72.9677	683.35	72.3645	683.35	72.9217	683.35	71.9597	683.35	72.7511	683.35	71.489	683.35	72.4595	683.35	70.9651	683.35	72.0487
706.787	72.4469	706.787	72.2272	706.787	72.544	706.787	71.9127	706.787	72.5026	706.787	71.5366	706.787	72.3196	706.787	71.125	706.787	72.0023	706.787	70.6827	706.787	71.5643
731.689	72.6407	731.689	72.4382	731.689	72.6861	731.689	72.0993	731.689	72.5745	731.689	71.6665	731.689	72.3185	731.689	71.1905	731.689	71.9342	731.689	70.7024	731.689	71.4352
758.057	72.7662	758.057	72.5285	758.057	72.8331	758.057	72.1433	758.057	72.7269	758.057	71.6611	758.057	72.4564	758.057	71.1529	758.057	72.0358	758.057	70.6785	758.057	71.4793
784.424	72.3062	784.424	72.0961	784.424	72.3268	784.424	71.7088	784.424	72.1701	784.424	71.1926	784.424	71.8596	784.424	70.6276	784.424	71.4178	784.424	70.0949	784.424	70.8593
812.256	72.1421	812.256	71.9729	812.256	72.1719	812.256	71.6633	812.256	72.0686	812.256	71.2275	812.256	71.838	812.256	70.7043	812.256	71.4829	812.256	70.1508	812.256	71.0004
840.82	71.8646	840.82	71.7085	840.82	71.8418	840.82	71.3908	840.82	71.6484	840.82	70.9592	840.82	71.3103	840.82	70.487	840.82	70.8618	840.82	70.0464	840.82	70.3346
870.85	71.7814	870.85	71.6393	870.85	71.6962	870.85	71.2576	870.85	71.4141	870.85	70.6669	870.85	70.9692	870.85	69.9719	870.85	70.393	870.85	69.3515	870.85	69.7107
901.611	72.6591	901.611	72.6278	901.611	72.4562	901.611	72.3466	901.611	72.0566	901.611	71.8369	901.611	71.5126	901.611	71.1804	901.611	70.8817	901.611	70.5294	901.611	70.2136
933.105	75.2165	933.105	75.126	933.105	75.0439	933.105	74.7546	933.105	74.6329	933.105	74.0891	933.105	74.0195	933.105	73.1412	933.105	73.2446	933.105	72.0048	933.105	72.3385
966.064	75.3425	966.064	75.3477	966.064	75.0661	966.064	75.0783	966.064	74.5539	966.064	74.5571	966.064	73.8685	966.064	73.8208	966.064	73.0814	966.064	72.9153	966.064	72.2448
999.756	75.552	999.756	75.6081	999.756	75.225	999.756	75.3483	999.756	74.6962	999.756	74.7647	999.756	74.0429	999.756	73.9047	999.756	73.3284	999.756	72.8963	999.756	72.5748
1,034.91	75.2245	1,034.91	75.4148	1,034.91	74.7074	1,034.91	75.2501	1,034.91	73.9345	1,034.91	74.7373	1,034.91	73.0192	1,034.91	73.9129	1,034.91	72.0979	1,034.91	72.843	1,034.91	71.2808
1,071.53	75.4196	1,071.53	75.7809	1,071.53	74.7669	1,071.53	75.7628	1,071.53	73.9303	1,071.53	75.3048	1,071.53	73.0313	1,071.53	74.3919	1,071.53	72.1885	1,071.53	73.0923	1,071.53	71.4729
1,109.62	75.4839	1,109.62	75.8678	1,109.62	74.734	1,109.62	75.8692	1,109.62	73.6798	1,109.62	75.5014	1,109.62	72.4518	1,109.62	74.805	1,109.62	71.2413	1,109.62	73.8475	1,109.62	70.2225
1,148.44	75.4593	1,148.44	75.9634	1,148.44	74.6237	1,148.44	76.0953	1,148.44	73.5327	1,148.44	75.8213	1,148.44	72.3424	1,148.44	75.1301	1,148.44	71.2738	1,148.44	74.0836	1,148.44	70.4843
1,189.45	75.3529	1,189.45	75.8874	1,189.45	74.4214	1,189.45	75.9822	1,189.45	73.2091	1,189.45	75.6221	1,189.45	71.9375	1,189.45	74.8201	1,189.45	70.853	1,189.45	73.6824	1,189.45	70.0376
1,231.2	75.1603	1,231.2	75.7717	1,231.2	74.1403	1,231.2	75.9581	1,231.2	72.8104	1,231.2	75.7045	1,231.2	71.4209	1,231.2	74.968	1,231.2	70.3069	1,231.2	73.7324	1,231.2	69.6086
1,274.41	74.6092	1,274.41	75.3618	1,274.41	73.4891	1,274.41	75.7589	1,274.41	72.1024	1,274.41	75.8036	1,274.41	70.7634	1,274.41	75.4228	1,274.41	69.8825	1,274.41	74.4963	1,274.41	69.5357
1,319.82	74.5416	1,319.82	75.3433	1,319.82	73.2671	1,319.82	75.7249	1,319.82	71.6631	1,319.82	75.7724	1,319.82	70.2051	1,319.82	75.4774	1,319.82	69.4537	1,319.82	74.727	1,319.82	69.3396
1,365.97	74.5548	1,365.97	75.3365	1,365.97	73.1479	1,365.97	75.5881	1,365.97	71.3079	1,365.97	75.5165	1,365.97	69.7063	1,365.97	75.2436	1,365.97	69.0726	1,365.97	74.6745	1,365.97	69.1209
1,414.31	74.3891	1,414.31	75.4372	1,414.31	72.6442	1,414.31	75.7609	1,414.31	70.6267	1,414.31	75.5512	1,414.31	69.2843	1,414.31	75.0826	1,414.31	69.1365	1,414.31	74.4714	1,414.31	69.4718
1,464.11	74	1,464.11	75.3579	1,464.11	72.0887	1,464.11	75.973	1,464.11	70.1506	1,464.11	75.8486	1,464.11	69.1212	1,464.11	75.1684	1,464.11	69.322	1,464.11	74.236	1,464.11	69.9172
1,515.38	73.7291	1,515.38	75.1587	1,515.38	71.7757	1,515.38	75.9034	1,515.38	69.6937	1,515.38	75.8736	1,515.38	68.4777	1,515.38	75.1132	1,515.38	68.7102	1,515.38	73.868	1,515.38	69.4335
1,568.85	73.8541	1,568.85	75.1137	1,568.85	71.8733	1,568.85	75.7306	1,568.85	69.5285	1,568.85	75.7183	1,568.85	68.3236	1,568.85	74.9994	1,568.85	68.8878	1,568.85	73.5804	1,568.85	69.7553
1,624.51	74.3333	1,624.51	75.373	1,624.51	72.444	1,624.51	75.6735	1,624.51	70.1842	1,624.51	75.473	1,624.51	69.0823	1,624.51	74.8747	1,624.51	69.6843	1,624.51	73.7894	1,624.51	70.598
1,681.64	74.2053	1,681.64	75.5049	1,681.64	71.9089	1,681.64	75.904	1,681.64	69.1397	1,681.64	75.6839	1,681.64	67.8206	1,681.64	75.0739	1,681.64	68.6747	1,681.64	74.0349	1,681.64	69.8252
1,740.97	74.2088	1,740.97	75.8858	1,740.97	71.5667	1,740.97	76.439	1,740.97	68.7937	1,740.97	76.0758	1,740.97	67.5991	1,740.97	75.2813	1,740.97	68.2814	1,740.97	74.4108	1,740.97	69.3817
1,802.49	74.6113	1,802.49	76.3044	1,802.49	72.0663	1,802.49	76.925	1,802.49	68.9481	1,802.49	76.3793	1,802.49	66.5522	1,802.49	74.9351	1,802.49	66.955	1,802.49	73.3468	1,802.49	68.476
1,866.21	74.843	1,866.21	76.5161	1,866.21	72.078	1,866.21	77.2132	1,866.21	67.9429	1,866.21	76.8441	1,866.21	64.0383	1,866.21	75.3937	1,866.21	65.1953	1,866.21	73.1746	1,866.21	67.469
1,932.13	74.6634	1,932.13	76.2027	1,932.13	71.7426	1,932.13	76.7121	1,932.13	66.6593	1,932.13	76.2106	1,932.13	61.3642	1,932.13	74.653	1,932.13	65.0233	1,932.13	72.2169	1,932.13	68.0115
2,000.24	75.6123	2,000.24	77.0418	2,000.24	72.2566	2,000.24	77.0762	2,000.24	65.9258	2,000.24	76.0763	2,000.24	60.1766	2,000.24	74.2763	2,000.24	65.7139	2,000.24	71.8517	2,000.24	68.6215
2,070.56	75.6946	2,070.56	77.5421	2,070.56	71.9157	2,070.56	77.8241	2,070.56	64.7786	2,070.56	76.7359	2,070.56	58.8545	2,070.56	74.5256	2,070.56	66.4724	2,070.56	71.4911	2,070.56	69.4353
2,143.8	75.3948	2,143.8	77.1613	2,143.8	71.7577	2,143.8	77.5974	2,143.8	63.7283	2,143.8	76.6904	2,143.8	59.0413	2,143.8	74.4114	2,143.8	67.6009	2,143.8	71.0217	2,143.8	70.3797
2,219.24	75.9662	2,219.24	77.5279	2,219.24	72.0315	2,219.24	77.5958	2,219.24	62.3453	2,219.24	76.4672	2,219.24	60.5305	2,219.24	74.0073	2,219.24	68.7148	2,219.24	69.9007	2,219.24	71.3904
2,297.61	76.1701	2,297.61	78.0739	2,297.61	71.6514	2,297.61	77.9879	2,297.61	60.0632	2,297.61	76.0856	2,297.61	63.2245	2,297.61	72.4137	2,297.61	70.059	2,297.61	66.8629	2,297.61	72.2971
2,378.17	76.1414	2,378.17	77.6629	2,378.17	72.0496	2,378.17	77.3892	2,378.17	60.3851	2,378.17	75.2723	2,378.17	63.9675	2,378.17	71.0754	2,378.17	70.3476	2,378.17	65.2025	2,378.17	72.2805
2,462.4	76.3921	2,462.4	77.6727	2,462.4	72.2505	2,462.4	76.9695	2,462.4	60.6045	2,462.4	74.5712	2,462.4	63.6151	2,462.4	70.6076	2,462.4	70.1173	2,462.4	66.2777	2,462.4	71.9649
2,548.83	76.0891	2,548.83	77.3418	2,548.83	72.2711	2,548.83	76.6729	2,548.83	62.6902	2,548.83	74.2986	2,548.83	62.3018	2,548.83	70.2758	2,548.83	69.4148	2,548.83	64.7607	2,548.83	71.4755
2,638.92	75.9924	2,638.92	77.4045	2,638.92	71.7779	2,638.92	76.6277	2,638.92	62.1082	2,638.92	73.5545	2,638.92	64.4047	2,638.92	67.5568	2,638.92	69.5554	2,638.92	62.944	2,638.92	71.1444
2,731.93	76.148	2,731.93	77.4087	2,731.93	71.7728	2,731.93	76.1856	2,731.93	61.4054	2,731.93	72.4747	2,731.93	65.7669	2,731.93	67.1132	2,731.93	70.4299	2,731.93	66.1269	2,731.93	71.5738
2,828.61	76.5602	2,828.61	77.5872	2,828.61	72.3194	2,828.61	76.0074	2,828.61	61.531	2,828.61	71.8512	2,828.61	65.8325	2,828.61	67.4524	2,828.61	70.7755	2,828.61	67.8302	2,828.61	71.9589
2,928.22	76.3688	2,928.22	77.0217	2,928.22	72.6412	2,928.22	74.9876	2,928.22	63.1722	2,928.22	70.7772	2,928.22	64.2968	2,928.22	69.0744	2,928.22	70.5467	2,928.22	70.598	2,928.22	72.3303
3,031.49	75.9597	3,031.49	76.1526	3,031.49	73.1213	3,031.49	74.1619	3,031.49	66.4507	3,031.49	71.6578	3,031.49	61.9922	3,031.49	71.5117	3,031.49	69.2266	3,031.49	71.8358	3,031.49	71.9863
3,138.43	75.221	3,138.43	75.6628	3,138.43	72.6694	3,138.43	74.2331	3,138.43	67.9267	3,138.43	72.0756	3,138.43	65.0874	3,138.43	71.1529	3,138.43	68.6349	3,138.43	70.5108	3,138.43	70.9314
3,249.02	74.9244	3,249.02	75.2054	3,249.02	72.504	3,249.02	73.6333	3,249.02	68.2213	3,249.02	71.6622	3,249.02	66.3168	3,249.02	70.6372	3,249.02	69.0496	3,249.02	68.8273	3,249.02	70.8308
3,363.28	74.2793	3,363.28	74.5238	3,363.28	72.257	3,363.28	73.4068	3,363.28	68.8037	3,363.28	71.8568	3,363.28	67.0358	3,363.28	69.9083	3,363.28	68.9915	3,363.28	66.9054	3,363.28	70.6636
3,481.93	73.5475	3,481.93	74.0956	3,481.93	71.8029	3,481.93	73.4417	3,481.93	69.4247	3,481.93	71.6647	3,481.93	68.3099	3,481.93	68.9849	3,481.93	69.3542	3,481.93	67.0432	3,481.93	70.5015
3,604.98	73.1587	3,604.98	74.0011	3,604.98	71.2756	3,604.98	73.4394	3,604.98	69.5361	3,604.98	71.4715	3,604.98	69.4321	3,604.98	69.0567	3,604.98	70.411	3,604.98	68.5522	3,604.98	71.0288
3,732.42	72.613	3,732.42	73.7952	3,732.42	70.7608	3,732.42	73.3725	3,732.42	69.7766	3,732.42	71.154	3,732.42	70.2617	3,732.42	68.9281	3,732.42	71.1301	3,732.42	69.6447	3,732.42	71.4891
3,863.53	71.8733	3,863.53	73.2681	3,863.53	70.0214	3,863.53	72.9197	3,863.53	69.5097	3,863.53	70.4243	3,863.53	70.4703	3,863.53	69.4306	3,863.53	71.4802	3,863.53	71.8881	3,863.53	71.8427
3,999.76	71.2293	3,999.76	73.0014	3,999.76	69.4296	3,999.76	72.6013	3,999.76	69.7999	3,999.76	69.9358	3,999.76	70.9855	3,999.76	70.7665	3,999.76	71.4295	3,999.76	72.7775	3,999.76	71.2266
4,141.11	71.5721	4,141.11	73.1719	4,141.11	69.0767	4,141.11	72.028	4,141.11	69.7604	4,141.11	69.6678	4,141.11	71.8029	4,141.11	71.9647	4,141.11	72.3745	4,141.11	73.0566	4,141.11	71.5824
4,286.87	71.7651	4,286.87	73.0473	4,286.87	69.2572	4,286.87	71.969	4,286.87	69.3975	4,286.87	70.9363	4,286.87	71.9711	4,286.87	72.8183	4,286.87	73.1983	4,286.87	72.477	4,286.87	72.9008
4,438.48	72.6236	4,438.48	73.4713	4,438.48	70.3412	4,438.48	72.1205	4,438.48	69.8332	4,438.48	71.4389	4,438.48	71.992	4,438.48	73.0559	4,438.48	73.1232	4,438.48	72.2943	4,438.48	72.9198
4,594.48	73.4422	4,594.48	73.4501	4,594.48	71.6141	4,594.48	71.8119	4,594.48	70.2123	4,594.48	71.9953	4,594.48	72.0207	4,594.48	73.1716	4,594.48	73.4569	4,594.48	72.0618	4,594.48	73.3818
4,757.08	73.6098	4,757.08	73.1849	4,757.08	72.5338	4,757.08	72.0227	4,757.08	71.072	4,757.08	72.2707	4,757.08	71.9598	4,757.08	72.8059	4,757.08	73.3446	4,757.08	72.9348	4,757.08	73.4999
4,924.8	73.798	4,924.8	73.5155	4,924.8	73.0011	4,924.8	72.3308	4,924.8	71.6263	4,924.8	72.0486	4,924.8	71.4765	4,924.8	73.2243	4,924.8	72.3875	4,924.8	73.5077	4,924.8	72.8958
5,098.39	74.3614	5,098.39	73.9115	5,098.39	73.9394	5,098.39	72.8011	5,098.39	72.7073	5,098.39	72.5692	5,098.39	71.5528	5,098.39	73.2688	5,098.39	71.2916	5,098.39	73.1145	5,098.39	71.2923
5,277.83	75.0337	5,277.83	74.4973	5,277.83	74.6202	5,277.83	72.9322	5,277.83	73.6231	5,277.83	72.4114	5,277.83	72.4433	5,277.83	73.5693	5,277.83	71.2533	5,277.83	72.7476	5,277.83	70.1144
5,463.87	75.9273	5,463.87	74.6967	5,463.87	75.3243	5,463.87	72.1293	5,463.87	73.5695	5,463.87	72.6161	5,463.87	72.2825	5,463.87	73.7137	5,463.87	71.4642	5,463.87	71.747	5,463.87	70.0206
5,656.49	75.6984	5,656.49	73.3948	5,656.49	76.2105	5,656.49	71.8644	5,656.49	74.5955	5,656.49	73.2952	5,656.49	72.035	5,656.49	73.2567	5,656.49	70.3567	5,656.49	71.2384	5,656.49	69.2315
5,856.45	75.051	5,856.45	72.9972	5,856.45	75.8238	5,856.45	72.1634	5,856.45	74.7508	5,856.45	73.4476	5,856.45	72.6077	5,856.45	73.3509	5,856.45	70.3862	5,856.45	71.7279	5,856.45	68.0502
6,062.99	74.8161	6,062.99	72.9533	6,062.99	75.542	6,062.99	72.6726	6,062.99	74.4419	6,062.99	73.7922	6,062.99	72.4697	6,062.99	73.7997	6,062.99	70.5684	6,062.99	72.4576	6,062.99	69.1547
6,276.86	74.5715	6,276.86	73.2648	6,276.86	75.2607	6,276.86	73.2009	6,276.86	74.5073	6,276.86	74.1671	6,276.86	72.782	6,276.86	73.9539	6,276.86	70.7797	6,276.86	71.9586	6,276.86	68.991
6,498.05	74.3586	6,498.05	73.4762	6,498.05	74.8396	6,498.05	73.4689	6,498.05	74.1439	6,498.05	73.9551	6,498.05	72.6884	6,498.05	73.3566	6,498.05	71.1581	6,498.05	70.9071	6,498.05	69.901
6,727.29	74.5508	6,727.29	73.9455	6,727.29	74.6113	6,727.29	73.7903	6,727.29	73.8498	6,727.29	73.8967	6,727.29	72.7152	6,727.29	72.5169	6,727.29	71.6268	6,727.29	70.186	6,727.29	70.38
6,964.6	75.3174	6,964.6	75.0143	6,964.6	74.9735	6,964.6	74.6722	6,964.6	73.8272	6,964.6	74.0658	6,964.6	72.6319	6,964.6	72.2876	6,964.6	71.8698	6,964.6	70.1163	6,964.6	70.9361
7,209.96	76.1615	7,209.96	75.7296	7,209.96	75.5027	7,209.96	74.9769	7,209.96	73.926	7,209.96	74.0657	7,209.96	72.7282	7,209.96	72.3113	7,209.96	72.1312	7,209.96	70.363	7,209.96	70.9802
7,464.11	76.0315	7,464.11	75.6034	7,464.11	75.5885	7,464.11	75.0523	7,464.11	74.1446	7,464.11	74.0907	7,464.11	73.0378	7,464.11	72.0478	7,464.11	72.2172	7,464.11	69.9255	7,464.11	70.5941
7,727.78	76.0965	7,727.78	75.736	7,727.78	75.5767	7,727.78	74.9643	7,727.78	74.198	7,727.78	73.4763	7,727.78	73.2564	7,727.78	71.4248	7,727.78	72.3254	7,727.78	69.9578	7,727.78	70.5876
8,000.24	75.2922	8,000.24	74.6559	8,000.24	75.1597	8,000.24	73.7282	8,000.24	74.1435	8,000.24	72.3741	8,000.24	73.4098	8,000.24	71.0569	8,000.24	72.2804	8,000.24	69.8962	8,000.24	70.1458
8,282.23	73.7779	8,282.23	73.6012	8,282.23	74.0312	8,282.23	73.1562	8,282.23	73.7894	8,282.23	72.1912	8,282.23	73.467	8,282.23	71.3699	8,282.23	72.0375	8,282.23	69.578	8,282.23	69.5649
8,574.46	74.6848	8,574.46	75.1074	8,574.46	73.7416	8,574.46	74.1516	8,574.46	73.2088	8,574.46	72.5236	8,574.46	73.1471	8,574.46	71.1336	8,574.46	71.8194	8,574.46	69.0043	8,574.46	69.1697
8,876.22	76.1998	8,876.22	76.3605	8,876.22	74.503	8,876.22	74.6259	8,876.22	73.2254	8,876.22	72.5326	8,876.22	73.0398	8,876.22	71.1968	8,876.22	71.3778	8,876.22	69.439	8,876.22	69.0027
9,189.7	76.9627	9,189.7	76.9303	9,189.7	75.5116	9,189.7	75.0217	9,189.7	74.0618	9,189.7	72.802	9,189.7	72.974	9,189.7	71.4722	9,189.7	70.7109	9,189.7	68.8798	9,189.7	68.5959
9,513.43	77.3663	9,513.43	76.9856	9,513.43	76.0344	9,513.43	74.5952	9,513.43	74.4581	9,513.43	72.7131	9,513.43	73.0963	9,513.43	70.9393	9,513.43	70.5564	9,513.43	67.5123	9,513.43	68.2214
9,848.88	76.1577	9,848.88	75.2539	9,848.88	75.7989	9,848.88	73.629	9,848.88	74.7202	9,848.88	72.5415	9,848.88	72.8749	9,848.88	70.5307	9,848.88	69.9643	9,848.88	67.952	9,848.88	67.7439
10,196.8	75.2698	10,196.8	74.8809	10,196.8	75.4915	10,196.8	74.378	10,196.8	74.7565	10,196.8	73.1929	10,196.8	72.7569	10,196.8	71.2645	10,196.8	69.7644	10,196.8	67.5924	10,196.8	67.5792
10,556.4	75.2838	10,556.4	75.5537	10,556.4	75.1045	10,556.4	75.0529	10,556.4	74.3055	10,556.4	73.5061	10,556.4	72.4607	10,556.4	71.3656	10,556.4	69.862	10,556.4	66.8763	10,556.4	67.1722
10,928.5	75.8708	10,928.5	76.3915	10,928.5	75.1479	10,928.5	75.5561	10,928.5	73.9187	10,928.5	73.5533	10,928.5	71.7464	10,928.5	70.85	10,928.5	69.0174	10,928.5	65.8575	10,928.5	66.3166
11,313.7	76.3545	11,313.7	76.3986	11,313.7	75.5628	11,313.7	74.8967	11,313.7	73.8814	11,313.7	72.5117	11,313.7	71.3379	11,313.7	69.7184	11,313.7	68.4138	11,313.7	65.1713	11,313.7	64.9177
11,712.9	76.6918	11,712.9	76.2055	11,712.9	76.012	11,712.9	74.497	11,712.9	73.9452	11,712.9	72.394	11,712.9	70.6094	11,712.9	69.2018	11,712.9	67.3024	11,712.9	64.6719	11,712.9	63.9527
12,126	76.8792	12,126	76.2903	12,126	76.2311	12,126	75.0176	12,126	74.0705	12,126	72.7567	12,126	70.9296	12,126	69.1926	12,126	67.5998	12,126	65.3633	12,126	63.0723
12,553.7	76.3725	12,553.7	76.1403	12,553.7	75.8735	12,553.7	75.4174	12,553.7	73.9883	12,553.7	72.649	12,553.7	70.6044	12,553.7	69.2461	12,553.7	67.1216	12,553.7	65.8945	12,553.7	62.7904
12,996.1	76.2083	12,996.1	76.4156	12,996.1	75.4632	12,996.1	75.5011	12,996.1	73.6071	12,996.1	72.2484	12,996.1	70.4613	12,996.1	69.5766	12,996.1	67.1654	12,996.1	65.6847	12,996.1	61.6082
13,454.6	76.3172	13,454.6	76.4462	13,454.6	75.4364	13,454.6	75.2333	13,454.6	73.2923	13,454.6	71.8948	13,454.6	69.6769	13,454.6	68.9	13,454.6	66.0575	13,454.6	64.6337	13,454.6	59.8057
13,928.5	77.3934	13,928.5	77.248	13,928.5	75.8639	13,928.5	75.1066	13,928.5	73.1083	13,928.5	71.3208	13,928.5	68.9589	13,928.5	67.7422	13,928.5	64.1193	13,928.5	62.889	13,928.5	57.324
14,419.9	78.3841	14,419.9	77.5706	14,419.9	76.8441	14,419.9	75.025	14,419.9	73.5948	14,419.9	70.9429	14,419.9	68.4579	14,419.9	66.2279	14,419.9	63.0649	14,419.9	61.4542	14,419.9	57.5189
14,928.2	78.1469	14,928.2	76.9355	14,928.2	76.9047	14,928.2	74.608	14,928.2	73.9763	14,928.2	70.4284	14,928.2	68.7135	14,928.2	65.5802	14,928.2	64.4255	14,928.2	60.9157	14,928.2	57.8834
15,454.8	76.9896	15,454.8	76.3637	15,454.8	75.6025	15,454.8	74.1161	15,454.8	72.8654	15,454.8	69.42	15,454.8	68.1385	15,454.8	64.6758	15,454.8	64.5985	15,454.8	59.2435	15,454.8	56.6807
15,999.8	77.0143	15,999.8	76.2025	15,999.8	75.3098	15,999.8	73.0824	15,999.8	72.025	15,999.8	68.0049	15,999.8	66.8481	15,999.8	62.2661	15,999.8	61.7513	15,999.8	56.5167	15,999.8	53.7457
16,564.5	77.1848	16,564.5	75.6519	16,564.5	75.3853	16,564.5	71.5683	16,564.5	71.6345	16,564.5	66.2475	16,564.5	65.5604	16,564.5	59.5931	16,564.5	59.5664	16,564.5	52.8945	16,564.5	50.8938
17,148.2	76.4656	17,148.2	74.8657	17,148.2	74.5707	17,148.2	70.8093	17,148.2	70.6583	17,148.2	65.4475	17,148.2	64.5482	17,148.2	57.8915	17,148.2	58.9679	17,148.2	49.1891	17,148.2	49.3434
17,753.2	75.5582	17,753.2	73.9344	17,753.2	73.6657	17,753.2	69.7162	17,753.2	69.6375	17,753.2	63.7939	17,753.2	63.4126	17,753.2	55.8781	17,753.2	56.7593	17,753.2	46.385	17,753.2	46.6438
18,379.4	74.9543	18,379.4	73.2487	18,379.4	72.8824	18,379.4	68.5691	18,379.4	68.4956	18,379.4	62.6624	18,379.4	62.2491	18,379.4	53.8661	18,379.4	53.993	18,379.4	43.149	18,379.4	43.0036
19,027.6	75.0428	19,027.6	73.2441	19,027.6	72.5633	19,027.6	67.8066	19,027.6	67.4568	19,027.6	61.4797	19,027.6	60.7517	19,027.6	50.5176	19,027.6	50.2426	19,027.6	41.9494	19,027.6	42.9455
19,698.5	74.965	19,698.5	72.827	19,698.5	72.3508	19,698.5	66.6802	19,698.5	66.7604	19,698.5	60.3113	19,698.5	59.7717	19,698.5	48.8158	19,698.5	48.649	19,698.5	41.1876	19,698.5	44.7059
19,999.5	74.5541	19,999.5	72.1467	19,999.5	72.1333	19,999.5	65.98	19,999.5	66.9612	19,999.5	59.8447	19,999.5	60.2049	19,999.5	46.673	19,999.5	47.4681	19,999.5	42.2535	19,999.5	43.0293
