"SPL Horizontal"																																					
"On-Axis"		"10°"		"20°"		"30°"		"40°"		"50°"		"60°"		"70°"		"80°"		"90°"		"100°"		"110°"		"120°"		"130°"		"140°"		"150°"		"160°"		"170°"		"180°"	
"Frequency [Hz]"	"Sound Pessure Level [dB]  / [2.83V 1m] "	"Frequency [Hz]"	"Sound Pessure Level [dB]  / [2.83V 1m] "	"Frequency [Hz]"	"Sound Pessure Level [dB]  / [2.83V 1m] "	"Frequency [Hz]"	"Sound Pessure Level [dB]  / [2.83V 1m] "	"Frequency [Hz]"	"Sound Pessure Level [dB]  / [2.83V 1m] "	"Frequency [Hz]"	"Sound Pessure Level [dB]  / [2.83V 1m] "	"Frequency [Hz]"	"Sound Pessure Level [dB]  / [2.83V 1m] "	"Frequency [Hz]"	"Sound Pessure Level [dB]  / [2.83V 1m] "	"Frequency [Hz]"	"Sound Pessure Level [dB]  / [2.83V 1m] "	"Frequency [Hz]"	"Sound Pessure Level [dB]  / [2.83V 1m] "	"Frequency [Hz]"	"Sound Pessure Level [dB]  / [2.83V 1m] "	"Frequency [Hz]"	"Sound Pessure Level [dB]  / [2.83V 1m] "	"Frequency [Hz]"	"Sound Pessure Level [dB]  / [2.83V 1m] "	"Frequency [Hz]"	"Sound Pessure Level [dB]  / [2.83V 1m] "	"Frequency [Hz]"	"Sound Pessure Level [dB]  / [2.83V 1m] "	"Frequency [Hz]"	"Sound Pessure Level [dB]  / [2.83V 1m] "	"Frequency [Hz]"	"Sound Pessure Level [dB]  / [2.83V 1m] "	"Frequency [Hz]"	"Sound Pessure Level [dB]  / [2.83V 1m] "	"Frequency [Hz]"	"Sound Pessure Level [dB]  / [2.83V 1m] "
20.5078	7.5683	20.5078	8.06781	20.5078	8.47245	20.5078	8.78441	20.5078	9.00679	20.5078	9.14325	20.5078	9.19778	20.5078	9.17431	20.5078	9.07639	20.5078	8.90666	20.5078	8.66631	20.5078	8.35471	20.5078	7.96923	20.5078	7.50565	20.5078	6.95912	20.5078	6.32562	20.5078	5.60404	20.5078	4.79849	20.5078	3.92104
21.2402	14.8026	21.2402	14.6266	21.2402	14.4543	21.2402	14.2845	21.2402	14.1163	21.2402	13.9504	21.2402	13.7896	21.2402	13.6396	21.2402	13.5092	21.2402	13.4106	21.2402	13.3578	21.2402	13.3653	21.2402	13.4447	21.2402	13.6017	21.2402	13.8337	21.2402	14.1291	21.2402	14.469	21.2402	14.8307	21.2402	15.1912
21.9727	16.4088	21.9727	16.4254	21.9727	16.4641	21.9727	16.5243	21.9727	16.6047	21.9727	16.7027	21.9727	16.8152	21.9727	16.9384	21.9727	17.0677	21.9727	17.1986	21.9727	17.3263	21.9727	17.4464	21.9727	17.5549	21.9727	17.6481	21.9727	17.7234	21.9727	17.7787	21.9727	17.8126	21.9727	17.8246	21.9727	17.8147
22.7051	16.888	22.7051	16.7835	22.7051	16.6908	22.7051	16.6123	22.7051	16.5492	22.7051	16.501	22.7051	16.4659	22.7051	16.4409	22.7051	16.4227	22.7051	16.4079	22.7051	16.3938	22.7051	16.3792	22.7051	16.3645	22.7051	16.3523	22.7051	16.3469	22.7051	16.3541	22.7051	16.3796	22.7051	16.4283	22.7051	16.5026
23.4375	16.9093	23.4375	16.878	23.4375	16.8604	23.4375	16.8557	23.4375	16.8634	23.4375	16.8828	23.4375	16.9136	23.4375	16.9556	23.4375	17.0087	23.4375	17.0729	23.4375	17.1481	23.4375	17.234	23.4375	17.3298	23.4375	17.4338	23.4375	17.5437	23.4375	17.6558	23.4375	17.7656	23.4375	17.8679	23.4375	17.9572
24.1699	-7.63556	24.1699	-8.88037	24.1699	-9.97737	24.1699	-10.8204	24.1699	-11.3681	24.1699	-11.6764	24.1699	-11.865	24.1699	-12.058	24.1699	-12.3483	24.1699	-12.7876	24.1699	-13.3711	24.1699	-13.9878	24.1699	-14.3306	24.1699	-13.9369	24.1699	-12.6267	24.1699	-10.7553	24.1699	-8.77118	24.1699	-6.91788	24.1699	-5.28183
25.6348	9.94847	25.6348	10.0848	25.6348	10.2316	25.6348	10.3858	25.6348	10.5453	25.6348	10.7079	25.6348	10.8713	25.6348	11.0327	25.6348	11.1886	25.6348	11.3347	25.6348	11.4658	25.6348	11.5765	25.6348	11.6611	25.6348	11.7147	25.6348	11.7336	25.6348	11.7152	25.6348	11.6591	25.6348	11.5664	25.6348	11.4403
26.3672	18.0708	26.3672	18.1947	26.3672	18.3086	26.3672	18.4101	26.3672	18.4973	26.3672	18.5685	26.3672	18.6221	26.3672	18.657	26.3672	18.672	26.3672	18.6663	26.3672	18.6393	26.3672	18.591	26.3672	18.5216	26.3672	18.4319	26.3672	18.3235	26.3672	18.1986	26.3672	18.0604	26.3672	17.9128	26.3672	17.7609
27.0996	18.5651	27.0996	18.639	27.0996	18.7083	27.0996	18.7705	27.0996	18.8239	27.0996	18.8667	27.0996	18.8974	27.0996	18.9152	27.0996	18.9195	27.0996	18.9104	27.0996	18.8883	27.0996	18.8542	27.0996	18.8095	27.0996	18.756	27.0996	18.6956	27.0996	18.6301	27.0996	18.5614	27.0996	18.4914	27.0996	18.4217
27.832	17.488	27.832	17.5535	27.832	17.6339	27.832	17.7267	27.832	17.8296	27.832	17.9408	27.832	18.0585	27.832	18.1813	27.832	18.3076	27.832	18.4356	27.832	18.5631	27.832	18.6875	27.832	18.8053	27.832	18.9125	27.832	19.0047	27.832	19.0773	27.832	19.1257	27.832	19.1462	27.832	19.1359
29.2969	9.97201	29.2969	10.0318	29.2969	10.034	29.2969	9.98461	29.2969	9.8903	29.2969	9.759	29.2969	9.60001	29.2969	9.42405	29.2969	9.24293	29.2969	9.06862	29.2969	8.91163	29.2969	8.77876	29.2969	8.67105	29.2969	8.58238	29.2969	8.49981	29.2969	8.40545	29.2969	8.27958	29.2969	8.10419	29.2969	7.86659
30.0293	19.9579	30.0293	19.9029	30.0293	19.8231	30.0293	19.7196	30.0293	19.5937	30.0293	19.4471	30.0293	19.2821	30.0293	19.1014	30.0293	18.9088	30.0293	18.709	30.0293	18.5078	30.0293	18.3121	30.0293	18.1296	30.0293	17.9688	30.0293	17.8379	30.0293	17.7444	30.0293	17.6942	30.0293	17.6904	30.0293	17.7335
31.4941	23.7717	31.4941	23.7584	31.4941	23.7271	31.4941	23.6779	31.4941	23.6109	31.4941	23.5269	31.4941	23.4268	31.4941	23.3122	31.4941	23.1856	31.4941	23.05	31.4941	22.9097	31.4941	22.7693	31.4941	22.6347	31.4941	22.5117	31.4941	22.4062	31.4941	22.3238	31.4941	22.2686	31.4941	22.2435	31.4941	22.2494
32.2266	28.2025	32.2266	28.213	32.2266	28.2171	32.2266	28.2148	32.2266	28.206	32.2266	28.1907	32.2266	28.1688	32.2266	28.1404	32.2266	28.1058	32.2266	28.0653	32.2266	28.0197	32.2266	27.9698	32.2266	27.917	32.2266	27.8629	32.2266	27.8094	32.2266	27.7586	32.2266	27.7128	32.2266	27.6743	32.2266	27.6451
33.6914	32.2354	33.6914	32.2219	33.6914	32.212	33.6914	32.2062	33.6914	32.2049	33.6914	32.2082	33.6914	32.2162	33.6914	32.2287	33.6914	32.2454	33.6914	32.2659	33.6914	32.2892	33.6914	32.3146	33.6914	32.3411	33.6914	32.3675	33.6914	32.3928	33.6914	32.4161	33.6914	32.4364	33.6914	32.4531	33.6914	32.4658
34.4238	32.1457	34.4238	32.14	34.4238	32.1366	34.4238	32.1358	34.4238	32.1377	34.4238	32.1424	34.4238	32.1498	34.4238	32.1595	34.4238	32.1712	34.4238	32.1843	34.4238	32.1981	34.4238	32.2119	34.4238	32.225	34.4238	32.2369	34.4238	32.2469	34.4238	32.2548	34.4238	32.2604	34.4238	32.2637	34.4238	32.2649
35.8887	33.796	35.8887	33.7769	35.8887	33.7549	35.8887	33.7306	35.8887	33.7042	35.8887	33.6763	35.8887	33.6473	35.8887	33.6176	35.8887	33.588	35.8887	33.5589	35.8887	33.5313	35.8887	33.5061	35.8887	33.4841	35.8887	33.4666	35.8887	33.4544	35.8887	33.4485	35.8887	33.4496	35.8887	33.458	35.8887	33.4738
37.3535	35.9303	37.3535	35.9112	37.3535	35.8873	37.3535	35.8593	37.3535	35.8277	37.3535	35.7931	37.3535	35.7561	37.3535	35.7177	37.3535	35.6785	37.3535	35.6396	37.3535	35.6018	37.3535	35.5665	37.3535	35.5347	37.3535	35.5077	37.3535	35.4868	37.3535	35.4729	37.3535	35.4671	37.3535	35.4699	37.3535	35.4817
38.8184	38.7948	38.8184	38.7771	38.8184	38.7566	38.8184	38.7335	38.8184	38.7084	38.8184	38.6817	38.8184	38.6539	38.8184	38.6255	38.8184	38.597	38.8184	38.569	38.8184	38.5424	38.8184	38.5179	38.8184	38.4964	38.8184	38.4789	38.8184	38.4662	38.8184	38.4592	38.8184	38.4586	38.8184	38.4648	38.8184	38.4778
39.5508	39.9487	39.5508	39.9297	39.5508	39.9064	39.5508	39.8792	39.5508	39.8488	39.5508	39.8154	39.5508	39.7799	39.5508	39.7426	39.5508	39.7046	39.5508	39.6665	39.5508	39.6295	39.5508	39.5947	39.5508	39.5633	39.5508	39.5367	39.5508	39.5162	39.5508	39.503	39.5508	39.4981	39.5508	39.5022	39.5508	39.5155
41.0156	42.5757	41.0156	42.5545	41.0156	42.5284	41.0156	42.4978	41.0156	42.4634	41.0156	42.4259	41.0156	42.386	41.0156	42.3444	41.0156	42.3023	41.0156	42.2606	41.0156	42.2206	41.0156	42.1836	41.0156	42.1509	41.0156	42.1239	41.0156	42.104	41.0156	42.0921	41.0156	42.0893	41.0156	42.0959	41.0156	42.1118
42.4805	44.8441	42.4805	44.8447	42.4805	44.8489	42.4805	44.8565	42.4805	44.8675	42.4805	44.8816	42.4805	44.8986	42.4805	44.9179	42.4805	44.9391	42.4805	44.9615	42.4805	44.9843	42.4805	45.0069	42.4805	45.0284	42.4805	45.0479	42.4805	45.0647	42.4805	45.0782	42.4805	45.0878	42.4805	45.0931	42.4805	45.094
43.9453	45.8603	43.9453	45.8428	43.9453	45.8243	43.9453	45.8052	43.9453	45.7861	43.9453	45.7675	43.9453	45.7499	43.9453	45.7338	43.9453	45.7199	43.9453	45.7087	43.9453	45.7005	43.9453	45.6958	43.9453	45.6949	43.9453	45.6979	43.9453	45.7047	43.9453	45.7151	43.9453	45.7287	43.9453	45.745	43.9453	45.7634
45.4102	48.2087	45.4102	48.1944	45.4102	48.179	45.4102	48.163	45.4102	48.1467	45.4102	48.1307	45.4102	48.1153	45.4102	48.1011	45.4102	48.0885	45.4102	48.078	45.4102	48.0697	45.4102	48.0642	45.4102	48.0615	45.4102	48.0617	45.4102	48.065	45.4102	48.0712	45.4102	48.08	45.4102	48.0913	45.4102	48.1046
47.6074	51.2574	47.6074	51.2452	47.6074	51.2313	47.6074	51.2161	47.6074	51.2002	47.6074	51.184	47.6074	51.1678	47.6074	51.1522	47.6074	51.1375	47.6074	51.1242	47.6074	51.1126	47.6074	51.1031	47.6074	51.0959	47.6074	51.0913	47.6074	51.0894	47.6074	51.0904	47.6074	51.0943	47.6074	51.101	47.6074	51.1104
49.0723	53.1444	49.0723	53.1326	49.0723	53.1192	49.0723	53.1047	49.0723	53.0894	49.0723	53.0738	49.0723	53.0584	49.0723	53.0435	49.0723	53.0295	49.0723	53.017	49.0723	53.0061	49.0723	52.9974	49.0723	52.9909	49.0723	52.987	49.0723	52.9857	49.0723	52.9871	49.0723	52.9912	49.0723	52.9979	49.0723	53.0072
50.5371	54.8427	50.5371	54.8302	50.5371	54.8159	50.5371	54.8003	50.5371	54.7838	50.5371	54.7668	50.5371	54.75	50.5371	54.7337	50.5371	54.7185	50.5371	54.7047	50.5371	54.6928	50.5371	54.6831	50.5371	54.6759	50.5371	54.6714	50.5371	54.6697	50.5371	54.6709	50.5371	54.675	50.5371	54.6819	50.5371	54.6914
52.7344	57.3048	52.7344	57.2935	52.7344	57.2807	52.7344	57.2667	52.7344	57.252	52.7344	57.2371	52.7344	57.2223	52.7344	57.2081	52.7344	57.195	52.7344	57.1833	52.7344	57.1734	52.7344	57.1656	52.7344	57.16	52.7344	57.157	52.7344	57.1564	52.7344	57.1584	52.7344	57.1628	52.7344	57.1696	52.7344	57.1784
54.1992	58.8173	54.1992	58.8057	54.1992	58.7929	54.1992	58.7792	54.1992	58.7651	54.1992	58.751	54.1992	58.7374	54.1992	58.7248	54.1992	58.7137	54.1992	58.7043	54.1992	58.6971	54.1992	58.6922	54.1992	58.6898	54.1992	58.6897	54.1992	58.692	54.1992	58.6965	54.1992	58.703	54.1992	58.7111	54.1992	58.7206
56.3965	60.909	56.3965	60.8965	56.3965	60.8821	56.3965	60.8662	56.3965	60.8495	56.3965	60.8323	56.3965	60.8154	56.3965	60.7993	56.3965	60.7845	56.3965	60.7715	56.3965	60.7607	56.3965	60.7524	56.3965	60.7468	56.3965	60.744	56.3965	60.7438	56.3965	60.7463	56.3965	60.7512	56.3965	60.7584	56.3965	60.7676
58.5938	62.6685	58.5938	62.6565	58.5938	62.6421	58.5938	62.626	58.5938	62.6085	58.5938	62.5902	58.5938	62.5718	58.5938	62.5539	58.5938	62.5369	58.5938	62.5216	58.5938	62.5082	58.5938	62.4973	58.5938	62.489	58.5938	62.4835	58.5938	62.4809	58.5938	62.4812	58.5938	62.4843	58.5938	62.49	58.5938	62.4982
60.0586	63.7633	60.0586	63.7504	60.0586	63.7356	60.0586	63.7192	60.0586	63.7019	60.0586	63.6843	60.0586	63.6669	60.0586	63.6503	60.0586	63.635	60.0586	63.6216	60.0586	63.6104	60.0586	63.6017	60.0586	63.5957	60.0586	63.5925	60.0586	63.5921	60.0586	63.5943	60.0586	63.599	60.0586	63.606	60.0586	63.6152
62.2559	65.0839	62.2559	65.0708	62.2559	65.0559	62.2559	65.0397	62.2559	65.0227	62.2559	65.0056	62.2559	64.9892	62.2559	64.974	62.2559	64.9606	62.2559	64.9495	62.2559	64.9412	62.2559	64.9357	62.2559	64.9333	62.2559	64.9337	62.2559	64.9368	62.2559	64.9423	62.2559	64.9497	62.2559	64.9587	62.2559	64.9689
64.4531	66.1427	64.4531	66.1297	64.4531	66.1147	64.4531	66.0983	64.4531	66.0812	64.4531	66.0639	64.4531	66.0473	64.4531	66.032	64.4531	66.0187	64.4531	66.0077	64.4531	65.9996	64.4531	65.9945	64.4531	65.9924	64.4531	65.9932	64.4531	65.9966	64.4531	66.0022	64.4531	66.0096	64.4531	66.0184	64.4531	66.0282
66.6504	66.968	66.6504	66.9543	66.6504	66.9384	66.6504	66.921	66.6504	66.9028	66.6504	66.8845	66.6504	66.8669	66.6504	66.8507	66.6504	66.8367	66.6504	66.8253	66.6504	66.817	66.6504	66.8121	66.6504	66.8104	66.6504	66.8118	66.6504	66.816	66.6504	66.8224	66.6504	66.8306	66.6504	66.8402	66.6504	66.8507
69.5801	67.8666	69.5801	67.8529	69.5801	67.8369	69.5801	67.8191	69.5801	67.8003	69.5801	67.7813	69.5801	67.7629	69.5801	67.746	69.5801	67.7313	69.5801	67.7194	69.5801	67.7107	69.5801	67.7054	69.5801	67.7035	69.5801	67.7047	69.5801	67.7088	69.5801	67.715	69.5801	67.723	69.5801	67.7323	69.5801	67.7423
71.7773	68.3817	71.7773	68.3672	71.7773	68.3503	71.7773	68.3316	71.7773	68.3118	71.7773	68.2918	71.7773	68.2726	71.7773	68.2549	71.7773	68.2396	71.7773	68.2274	71.7773	68.2186	71.7773	68.2135	71.7773	68.2121	71.7773	68.2141	71.7773	68.2189	71.7773	68.2261	71.7773	68.2349	71.7773	68.2449	71.7773	68.2557
73.9746	68.8341	73.9746	68.8199	73.9746	68.8032	73.9746	68.7847	73.9746	68.765	73.9746	68.7452	73.9746	68.726	73.9746	68.7085	73.9746	68.6934	73.9746	68.6814	73.9746	68.6729	73.9746	68.6682	73.9746	68.6671	73.9746	68.6695	73.9746	68.6747	73.9746	68.6823	73.9746	68.6914	73.9746	68.7016	73.9746	68.7123
76.9043	69.3754	76.9043	69.3627	76.9043	69.3473	76.9043	69.3299	76.9043	69.3111	76.9043	69.292	76.9043	69.2734	76.9043	69.2564	76.9043	69.2417	76.9043	69.23	76.9043	69.2217	76.9043	69.2171	76.9043	69.2161	76.9043	69.2182	76.9043	69.2229	76.9043	69.2295	76.9043	69.2373	76.9043	69.2457	76.9043	69.2543
79.834	69.8875	79.834	69.8741	79.834	69.8578	79.834	69.8392	79.834	69.8193	79.834	69.799	79.834	69.7794	79.834	69.7615	79.834	69.746	79.834	69.7338	79.834	69.7253	79.834	69.7205	79.834	69.7194	79.834	69.7215	79.834	69.7261	79.834	69.7326	79.834	69.7401	79.834	69.7482	79.834	69.7564
82.7637	70.3879	82.7637	70.374	82.7637	70.357	82.7637	70.3377	82.7637	70.3169	82.7637	70.2959	82.7637	70.2756	82.7637	70.2571	82.7637	70.2414	82.7637	70.2292	82.7637	70.2209	82.7637	70.2166	82.7637	70.2161	82.7637	70.219	82.7637	70.2244	82.7637	70.2316	82.7637	70.2398	82.7637	70.2483	82.7637	70.2566
85.6934	70.8158	85.6934	70.801	85.6934	70.7832	85.6934	70.7632	85.6934	70.7421	85.6934	70.721	85.6934	70.7009	85.6934	70.6831	85.6934	70.6683	85.6934	70.6574	85.6934	70.6508	85.6934	70.6484	85.6934	70.65	85.6934	70.655	85.6934	70.6625	85.6934	70.6716	85.6934	70.6814	85.6934	70.6911	85.6934	70.7003
88.623	71.2415	88.623	71.2249	88.623	71.2053	88.623	71.1837	88.623	71.1612	88.623	71.139	88.623	71.1183	88.623	71.1005	88.623	71.0866	88.623	71.0772	88.623	71.0728	88.623	71.0733	88.623	71.0783	88.623	71.087	88.623	71.0983	88.623	71.1111	88.623	71.1242	88.623	71.1366	88.623	71.1479
91.5527	71.704	91.5527	71.6872	91.5527	71.6669	91.5527	71.6441	91.5527	71.62	91.5527	71.596	91.5527	71.5734	91.5527	71.5537	91.5527	71.5381	91.5527	71.5275	91.5527	71.5224	91.5527	71.5228	91.5527	71.5284	91.5527	71.5382	91.5527	71.551	91.5527	71.5655	91.5527	71.5803	91.5527	71.5942	91.5527	71.6066
94.4824	72.1399	94.4824	72.1246	94.4824	72.1056	94.4824	72.0837	94.4824	72.0602	94.4824	72.0364	94.4824	72.0138	94.4824	71.9937	94.4824	71.9775	94.4824	71.966	94.4824	71.9598	94.4824	71.9589	94.4824	71.963	94.4824	71.9712	94.4824	71.9822	94.4824	71.9948	94.4824	72.0076	94.4824	72.0195	94.4824	72.0297
98.1445	72.601	98.1445	72.587	98.1445	72.5687	98.1445	72.5473	98.1445	72.5239	98.1445	72.5	98.1445	72.4771	98.1445	72.4568	98.1445	72.4402	98.1445	72.4283	98.1445	72.4216	98.1445	72.4201	98.1445	72.4232	98.1445	72.4299	98.1445	72.4391	98.1445	72.4492	98.1445	72.4589	98.1445	72.4673	98.1445	72.4738
101.807	73.0435	101.807	73.0285	101.807	73.0089	101.807	72.986	101.807	72.961	101.807	72.9355	101.807	72.9113	101.807	72.8898	101.807	72.8725	101.807	72.8603	101.807	72.8539	101.807	72.8531	101.807	72.8575	101.807	72.8658	101.807	72.8766	101.807	72.8884	101.807	72.8997	101.807	72.9093	101.807	72.9166
105.469	73.4599	105.469	73.444	105.469	73.4234	105.469	73.3992	105.469	73.373	105.469	73.3464	105.469	73.3212	105.469	73.299	105.469	73.2813	105.469	73.2692	105.469	73.2632	105.469	73.2633	105.469	73.2687	105.469	73.2784	105.469	73.2906	105.469	73.3038	105.469	73.3163	105.469	73.327	105.469	73.335
109.131	73.7595	109.131	73.7441	109.131	73.724	109.131	73.7007	109.131	73.6755	109.131	73.6504	109.131	73.6271	109.131	73.6074	109.131	73.5928	109.131	73.5844	109.131	73.5825	109.131	73.5869	109.131	73.5968	109.131	73.6106	109.131	73.6264	109.131	73.6424	109.131	73.6566	109.131	73.6678	109.131	73.675
112.793	74.0296	112.793	74.0132	112.793	73.9915	112.793	73.966	112.793	73.9382	112.793	73.9102	112.793	73.8842	112.793	73.862	112.793	73.8454	112.793	73.8355	112.793	73.8328	112.793	73.8369	112.793	73.847	112.793	73.8612	112.793	73.8775	112.793	73.8936	112.793	73.9077	112.793	73.9182	112.793	73.9243
116.455	74.3035	116.455	74.2851	116.455	74.2608	116.455	74.232	116.455	74.2005	116.455	74.1684	116.455	74.1381	116.455	74.1116	116.455	74.0909	116.455	74.0772	116.455	74.0711	116.455	74.0725	116.455	74.0804	116.455	74.0931	116.455	74.1086	116.455	74.1245	116.455	74.1387	116.455	74.1498	116.455	74.157
120.85	74.5715	120.85	74.5506	120.85	74.5235	120.85	74.4916	120.85	74.457	120.85	74.4221	120.85	74.3893	120.85	74.3609	120.85	74.3391	120.85	74.3252	120.85	74.32	120.85	74.3232	120.85	74.3337	120.85	74.3497	120.85	74.3687	120.85	74.3883	120.85	74.406	120.85	74.4202	120.85	74.4298
125.244	74.7295	125.244	74.7092	125.244	74.6819	125.244	74.6494	125.244	74.6138	125.244	74.5774	125.244	74.543	125.244	74.5132	125.244	74.4901	125.244	74.4755	125.244	74.4701	125.244	74.4737	125.244	74.4853	125.244	74.5027	125.244	74.5234	125.244	74.5446	125.244	74.5637	125.244	74.5787	125.244	74.5885
129.639	74.8202	129.639	74.8014	129.639	74.7749	129.639	74.7425	129.639	74.7062	129.639	74.6687	129.639	74.6328	129.639	74.6011	129.639	74.5761	129.639	74.5594	129.639	74.552	129.639	74.5536	129.639	74.5633	129.639	74.5787	129.639	74.5974	129.639	74.6164	129.639	74.6331	129.639	74.6454	129.639	74.6522
134.033	74.8564	134.033	74.8384	134.033	74.8122	134.033	74.7797	134.033	74.7431	134.033	74.7053	134.033	74.6692	134.033	74.6374	134.033	74.6124	134.033	74.596	134.033	74.5891	134.033	74.5913	134.033	74.6013	134.033	74.6169	134.033	74.6352	134.033	74.6533	134.033	74.6683	134.033	74.6783	134.033	74.6823
138.428	74.8445	138.428	74.8245	138.428	74.7961	138.428	74.7612	138.428	74.7224	138.428	74.6825	138.428	74.6448	138.428	74.6122	138.428	74.5871	138.428	74.5714	138.428	74.5659	138.428	74.5701	138.428	74.5825	138.428	74.6005	138.428	74.621	138.428	74.6409	138.428	74.6571	138.428	74.6675	138.428	74.6712
143.555	74.7836	143.555	74.7594	143.555	74.7262	143.555	74.6865	143.555	74.6428	143.555	74.5986	143.555	74.5573	143.555	74.5221	143.555	74.496	143.555	74.4808	143.555	74.4774	143.555	74.4852	143.555	74.5025	143.555	74.5262	143.555	74.5529	143.555	74.5788	143.555	74.6005	143.555	74.6157	143.555	74.6232
148.682	74.6686	148.682	74.643	148.682	74.6077	148.682	74.5648	148.682	74.5175	148.682	74.4693	148.682	74.4239	148.682	74.3852	148.682	74.3563	148.682	74.3394	148.682	74.3355	148.682	74.3443	148.682	74.3635	148.682	74.3902	148.682	74.4203	148.682	74.4496	148.682	74.4744	148.682	74.4919	148.682	74.5006
153.809	74.5371	153.809	74.5112	153.809	74.4744	153.809	74.4291	153.809	74.3785	153.809	74.3263	153.809	74.2766	153.809	74.2335	153.809	74.2003	153.809	74.1796	153.809	74.1726	153.809	74.1788	153.809	74.1965	153.809	74.2222	153.809	74.2518	153.809	74.2809	153.809	74.3056	153.809	74.3229	153.809	74.3311
159.668	74.417	159.668	74.3905	159.668	74.3524	159.668	74.3052	159.668	74.2525	159.668	74.1983	159.668	74.147	159.668	74.1028	159.668	74.0694	159.668	74.0496	159.668	74.0445	159.668	74.0535	159.668	74.0744	159.668	74.1035	159.668	74.1361	159.668	74.1676	159.668	74.1934	159.668	74.2105	159.668	74.2173
164.795	74.3304	164.795	74.3025	164.795	74.2622	164.795	74.2121	164.795	74.1558	164.795	74.0977	164.795	74.0424	164.795	73.9947	164.795	73.9584	164.795	73.9367	164.795	73.9306	164.795	73.9398	164.795	73.9619	164.795	73.9927	164.795	74.0274	164.795	74.0608	164.795	74.0882	164.795	74.1061	164.795	74.1128
170.654	74.0982	170.654	74.0677	170.654	74.0236	170.654	73.9687	170.654	73.9069	170.654	73.8429	170.654	73.7818	170.654	73.7288	170.654	73.6884	170.654	73.6637	170.654	73.6565	170.654	73.6661	170.654	73.69	170.654	73.7239	170.654	73.7623	170.654	73.7995	170.654	73.8304	170.654	73.8512	170.654	73.86
176.514	73.9128	176.514	73.8863	176.514	73.8449	176.514	73.7914	176.514	73.7298	176.514	73.6648	176.514	73.6016	176.514	73.5457	176.514	73.5016	176.514	73.473	176.514	73.4618	176.514	73.4676	176.514	73.488	176.514	73.5189	176.514	73.5545	176.514	73.5892	176.514	73.6174	176.514	73.6353	176.514	73.6405
183.105	73.6412	183.105	73.6135	183.105	73.57	183.105	73.5139	183.105	73.4494	183.105	73.3816	183.105	73.3161	183.105	73.2584	183.105	73.2135	183.105	73.185	183.105	73.1744	183.105	73.1814	183.105	73.203	183.105	73.2345	183.105	73.2701	183.105	73.3035	183.105	73.3292	183.105	73.3432	183.105	73.3433
189.697	73.485	189.697	73.454	189.697	73.4064	189.697	73.3456	189.697	73.2765	189.697	73.2047	189.697	73.1362	189.697	73.077	189.697	73.0321	189.697	73.005	189.697	72.9971	189.697	73.0073	189.697	73.032	189.697	73.0659	189.697	73.1024	189.697	73.1351	189.697	73.1582	189.697	73.1677	189.697	73.1622
196.289	73.3091	196.289	73.2679	196.289	73.2092	196.289	73.1368	196.289	73.0562	196.289	72.9737	196.289	72.8963	196.289	72.8306	196.289	72.7826	196.289	72.7562	196.289	72.753	196.289	72.7713	196.289	72.807	196.289	72.8537	196.289	72.9037	196.289	72.9495	196.289	72.9846	196.289	73.0044	196.289	73.0072
202.881	73.1051	202.881	73.0623	202.881	73.0005	202.881	72.9237	202.881	72.8374	202.881	72.7485	202.881	72.6644	202.881	72.5926	202.881	72.5397	202.881	72.5105	202.881	72.5068	202.881	72.5275	202.881	72.568	202.881	72.6215	202.881	72.6796	202.881	72.7339	202.881	72.7769	202.881	72.8035	202.881	72.8113
210.205	72.878	210.205	72.8303	210.205	72.7614	210.205	72.6758	210.205	72.5793	210.205	72.4793	210.205	72.3841	210.205	72.302	210.205	72.2406	210.205	72.2053	210.205	72.1986	210.205	72.2192	210.205	72.2623	210.205	72.3204	210.205	72.3842	210.205	72.4444	210.205	72.4926	210.205	72.5233	210.205	72.5335
217.529	72.6948	217.529	72.6455	217.529	72.5732	217.529	72.4821	217.529	72.3785	217.529	72.2702	217.529	72.1661	217.529	72.0753	217.529	72.0064	217.529	71.9656	217.529	71.956	217.529	71.9767	217.529	72.0228	217.529	72.0861	217.529	72.1565	217.529	72.2239	217.529	72.279	217.529	72.3154	217.529	72.33
225.586	72.5068	225.586	72.4633	225.586	72.3943	225.586	72.3044	225.586	72.1999	225.586	72.0889	225.586	71.9808	225.586	71.8854	225.586	71.8117	225.586	71.7667	225.586	71.754	225.586	71.7729	225.586	71.8184	225.586	71.8821	225.586	71.9533	225.586	72.0209	225.586	72.0752	225.586	72.1087	225.586	72.1178
232.91	72.3506	232.91	72.3021	232.91	72.2253	232.91	72.1253	232.91	72.0091	232.91	71.8855	232.91	71.7648	232.91	71.6576	232.91	71.5738	232.91	71.5209	232.91	71.5027	232.91	71.5183	232.91	71.562	232.91	71.6244	232.91	71.6939	232.91	71.7585	232.91	71.8081	232.91	71.8351	232.91	71.8362
241.699	72.0622	241.699	72.0027	241.699	71.9133	241.699	71.7994	241.699	71.6686	241.699	71.5305	241.699	71.3963	241.699	71.2779	241.699	71.1863	241.699	71.13	241.699	71.1132	241.699	71.135	241.699	71.1889	241.699	71.2643	241.699	71.3483	241.699	71.4276	241.699	71.4909	241.699	71.53	241.699	71.541
249.756	72.0142	249.756	71.9525	249.756	71.8558	249.756	71.7294	249.756	71.5812	249.756	71.4213	249.756	71.2617	249.756	71.1155	249.756	70.9954	249.756	70.9117	249.756	70.8706	249.756	70.8722	249.756	70.9106	249.756	70.975	249.756	71.0513	249.756	71.1251	249.756	71.1838	249.756	71.2183	249.756	71.2243
258.545	71.9802	258.545	71.9175	258.545	71.8208	258.545	71.6958	258.545	71.5506	258.545	71.3958	258.545	71.2435	258.545	71.107	258.545	70.9988	258.545	70.9287	258.545	70.9019	258.545	70.9173	258.545	70.9683	258.545	71.0428	258.545	71.1266	258.545	71.2049	258.545	71.2653	258.545	71.2989	258.545	71.3019
268.066	71.6537	268.066	71.5725	268.066	71.4518	268.066	71.2977	268.066	71.119	268.066	70.9276	268.066	70.7383	268.066	70.5674	268.066	70.4307	268.066	70.3414	268.066	70.3064	268.066	70.3249	268.066	70.388	268.066	70.4806	268.066	70.5846	268.066	70.6821	268.066	70.7584	268.066	70.8035	268.066	70.8135
277.588	71.8529	277.588	71.7924	277.588	71.6898	277.588	71.5493	277.588	71.3784	277.588	71.1873	277.588	70.9894	277.588	70.8002	277.588	70.6364	277.588	70.5132	277.588	70.4417	277.588	70.426	277.588	70.4621	277.588	70.5385	277.588	70.6384	277.588	70.7434	277.588	70.8364	277.588	70.9045	277.588	70.94
287.109	71.6828	287.109	71.6174	287.109	71.5072	287.109	71.3588	287.109	71.1815	287.109	70.9872	287.109	70.7907	287.109	70.608	287.109	70.4551	287.109	70.3451	287.109	70.2857	287.109	70.277	287.109	70.3114	287.109	70.3748	287.109	70.4497	287.109	70.5182	287.109	70.565	287.109	70.5797	287.109	70.5578
297.363	71.4144	297.363	71.3097	297.363	71.1586	297.363	70.9674	297.363	70.7454	297.363	70.5058	297.363	70.2652	297.363	70.0433	297.363	69.8606	297.363	69.7347	297.363	69.6766	297.363	69.6871	297.363	69.756	297.363	69.8644	297.363	69.9891	297.363	70.1071	297.363	70.1996	297.363	70.2543	297.363	70.2668
307.617	71.3475	307.617	71.2191	307.617	71.0438	307.617	70.8268	307.617	70.5771	307.617	70.3083	307.617	70.0388	307.617	69.7912	307.617	69.5898	307.617	69.4561	307.617	69.4034	307.617	69.4325	307.617	69.531	307.617	69.6768	307.617	69.8433	307.617	70.0057	307.617	70.1448	307.617	70.2487	307.617	70.3137
318.604	71.3584	318.604	71.3104	318.604	71.2044	318.604	71.0401	318.604	70.8207	318.604	70.5539	318.604	70.2524	318.604	69.9356	318.604	69.629	318.604	69.3627	318.604	69.1667	318.604	69.0637	318.604	69.062	318.604	69.1521	318.604	69.3097	318.604	69.5029	318.604	69.7004	318.604	69.8766	318.604	70.0149
329.59	71.1396	329.59	71.1521	329.59	71.1123	329.59	71.0216	329.59	70.8837	329.59	70.7058	329.59	70.4981	329.59	70.2746	329.59	70.0525	329.59	69.8515	329.59	69.6909	329.59	69.5865	329.59	69.5464	329.59	69.5687	329.59	69.6409	329.59	69.7434	329.59	69.853	329.59	69.948	329.59	70.0114
341.309	70.6695	341.309	70.6947	341.309	70.6638	341.309	70.5829	341.309	70.4607	341.309	70.3081	341.309	70.1384	341.309	69.9672	341.309	69.8107	341.309	69.6846	341.309	69.6016	341.309	69.5685	341.309	69.5845	341.309	69.6405	341.309	69.7201	341.309	69.8029	341.309	69.8671	341.309	69.8929	341.309	69.8653
353.76	71.0957	353.76	71.044	353.76	70.9354	353.76	70.7801	353.76	70.5903	353.76	70.3801	353.76	70.1653	353.76	69.9622	353.76	69.7865	353.76	69.6504	353.76	69.5605	353.76	69.5163	353.76	69.509	353.76	69.5235	353.76	69.5398	353.76	69.537	353.76	69.4956	353.76	69.4007	353.76	69.2442
366.211	71.0388	366.211	70.9054	366.211	70.7152	366.211	70.4792	366.211	70.2127	366.211	69.9358	366.211	69.6727	366.211	69.4494	366.211	69.289	366.211	69.2066	366.211	69.2045	366.211	69.271	366.211	69.383	366.211	69.5121	366.211	69.6295	366.211	69.711	366.211	69.7398	366.211	69.7075	366.211	69.6156
378.662	70.9837	378.662	70.8548	378.662	70.6532	378.662	70.3869	378.662	70.0693	378.662	69.7212	378.662	69.3709	378.662	69.0542	378.662	68.8094	378.662	68.6698	378.662	68.6533	378.662	68.7548	378.662	68.948	378.662	69.1932	378.662	69.4482	378.662	69.6756	378.662	69.8476	378.662	69.9465	378.662	69.9651
392.578	71.0001	392.578	70.8908	392.578	70.7	392.578	70.4347	392.578	70.1068	392.578	69.7349	392.578	69.3461	392.578	68.9759	392.578	68.6665	392.578	68.4583	392.578	68.3791	392.578	68.4325	392.578	68.5959	392.578	68.8273	392.578	69.0781	392.578	69.3039	392.578	69.4702	392.578	69.5541	392.578	69.545
405.762	71.1858	405.762	71.0738	405.762	70.8727	405.762	70.5874	405.762	70.2274	405.762	69.808	405.762	69.3535	405.762	68.8988	405.762	68.4894	405.762	68.1758	405.762	68.0007	405.762	67.9823	405.762	68.1053	405.762	68.325	405.762	68.5839	405.762	68.8268	405.762	69.0103	405.762	69.1055	405.762	69.0986
420.41	71.1801	420.41	71.0727	420.41	70.8814	420.41	70.6103	420.41	70.2671	420.41	69.8653	420.41	69.4258	420.41	68.9798	420.41	68.5685	420.41	68.239	420.41	68.0332	420.41	67.9729	420.41	68.0489	420.41	68.2229	420.41	68.4409	420.41	68.649	420.41	68.8033	420.41	68.8748	420.41	68.8501
435.059	70.9949	435.059	70.8997	435.059	70.7133	435.059	70.4393	435.059	70.0855	435.059	69.6667	435.059	69.2069	435.059	68.7424	435.059	68.3223	435.059	68.0024	435.059	67.8306	435.059	67.8282	435.059	67.9778	435.059	68.2294	435.059	68.5193	435.059	68.7872	435.059	68.9863	435.059	69.0862	435.059	69.0724
450.439	71.257	450.439	71.1447	450.439	70.9373	450.439	70.6376	450.439	70.2512	450.439	69.7888	450.439	69.2689	450.439	68.721	450.439	68.1894	450.439	67.7317	450.439	67.409	450.439	67.2645	450.439	67.3024	450.439	67.482	450.439	67.7345	450.439	67.9874	450.439	68.1812	450.439	68.2758	450.439	68.2513
466.553	71.307	466.553	71.1902	466.553	70.9762	466.553	70.6668	466.553	70.2671	466.553	69.7876	466.553	69.2474	466.553	68.6786	466.553	68.13	466.553	67.6652	466.553	67.3506	466.553	67.2304	466.553	67.303	466.553	67.5187	466.553	67.8011	466.553	68.0744	466.553	68.2792	466.553	68.3775	466.553	68.3525
482.666	71.2699	482.666	71.1625	482.666	70.9579	482.666	70.6565	482.666	70.2615	482.666	69.7806	482.666	69.2301	482.666	68.6387	482.666	68.0528	482.666	67.5374	482.666	67.166	482.666	66.9959	482.666	67.0377	482.666	67.2458	482.666	67.5388	482.666	67.8318	482.666	68.0567	482.666	68.1693	482.666	68.1485
500.244	71.4706	500.244	71.3447	500.244	71.1171	500.244	70.7874	500.244	70.3568	500.244	69.8305	500.244	69.2218	500.244	68.5571	500.244	67.8835	500.244	67.2739	500.244	66.8198	500.244	66.6009	500.244	66.6409	500.244	66.887	500.244	67.2376	500.244	67.5866	500.244	67.8523	500.244	67.9835	500.244	67.9573
517.822	71.0487	517.822	70.9413	517.822	70.742	517.822	70.4488	517.822	70.0621	517.822	69.5861	517.822	69.0323	517.822	68.4236	517.822	67.8007	517.822	67.2248	517.822	66.7732	517.822	66.5166	517.822	66.4852	517.822	66.6472	517.822	66.9236	517.822	67.2228	517.822	67.4686	517.822	67.6107	517.822	67.6261
536.133	71.2822	536.133	71.1805	536.133	70.9797	536.133	70.6762	536.133	70.2664	536.133	69.7484	536.133	69.1262	536.133	68.4167	536.133	67.6603	536.133	66.9335	536.133	66.3534	536.133	66.0471	536.133	66.0788	536.133	66.3956	536.133	66.8593	536.133	67.3243	536.133	67.6832	536.133	67.8721	536.133	67.8609
554.443	71.5302	554.443	71.4126	554.443	71.1993	554.443	70.8833	554.443	70.4565	554.443	69.9119	554.443	69.2475	554.443	68.4733	554.443	67.6236	554.443	66.776	554.443	66.065	554.443	65.6571	554.443	65.6539	554.443	66.0018	554.443	66.5286	554.443	67.0557	554.443	67.4592	554.443	67.6715	554.443	67.6656
574.219	71.2836	574.219	71.1946	574.219	71.0208	574.219	70.755	574.219	70.388	574.219	69.9113	574.219	69.3204	574.219	68.621	574.219	67.8392	574.219	67.0369	574.219	66.3271	574.219	65.8615	574.219	65.7596	574.219	66.013	574.219	66.4823	574.219	66.9915	574.219	67.4033	574.219	67.6363	574.219	67.6539
594.727	72.2136	594.727	72.1124	594.727	71.9219	594.727	71.632	594.727	71.2294	594.727	70.6993	594.727	70.0282	594.727	69.2096	594.727	68.2542	594.727	67.2125	594.727	66.2104	594.727	65.471	594.727	65.2282	594.727	65.5208	594.727	66.1363	594.727	66.8009	594.727	67.326	594.727	67.6164	594.727	67.6371
615.234	73.0549	615.234	72.9681	615.234	72.8098	615.234	72.5714	615.234	72.2392	615.234	71.7963	615.234	71.2244	615.234	70.5089	615.234	69.6466	615.234	68.6627	615.234	67.6421	615.234	66.765	615.234	66.2821	615.234	66.3403	615.234	66.819	615.234	67.4385	615.234	67.9613	615.234	68.2522	615.234	68.2535
637.207	72.6479	637.207	72.5781	637.207	72.4476	637.207	72.2468	637.207	71.9604	637.207	71.5689	637.207	71.0518	637.207	70.3918	637.207	69.5833	637.207	68.6491	637.207	67.6726	637.207	66.8359	637.207	66.3957	637.207	66.5033	637.207	67.0324	637.207	67.6949	637.207	68.2503	637.207	68.5667	637.207	68.5929
659.912	72.6883	659.912	72.6034	659.912	72.4549	659.912	72.2322	659.912	71.9181	659.912	71.4907	659.912	70.9249	659.912	70.1967	659.912	69.2907	659.912	68.2181	659.912	67.0578	659.912	66.0224	659.912	65.4626	659.912	65.6145	659.912	66.3035	659.912	67.1358	659.912	67.8174	659.912	68.2042	659.912	68.2422
683.35	72.8862	683.35	72.8009	683.35	72.6531	683.35	72.4359	683.35	72.1337	683.35	71.7233	683.35	71.176	683.35	70.461	683.35	69.5523	683.35	68.4436	683.35	67.1857	683.35	65.9642	683.35	65.1625	683.35	65.144	683.35	65.8006	683.35	66.669	683.35	67.3823	683.35	67.7706	683.35	67.7813
706.787	72.4469	706.787	72.3364	706.787	72.174	706.787	71.9624	706.787	71.6952	706.787	71.3543	706.787	70.9108	706.787	70.3298	706.787	69.5794	706.787	68.645	706.787	67.5616	706.787	66.4756	706.787	65.7012	706.787	65.5811	706.787	66.1087	706.787	66.9094	706.787	67.6173	706.787	68.0333	706.787	68.0766
731.689	72.6407	731.689	72.5635	731.689	72.4158	731.689	72.1996	731.689	71.9079	731.689	71.5199	731.689	71.0004	731.689	70.3033	731.689	69.3787	731.689	68.1865	731.689	66.7374	731.689	65.2105	731.689	64.1523	731.689	64.2408	731.689	65.3123	731.689	66.5945	731.689	67.6029	731.689	68.1699	731.689	68.2542
758.057	72.7662	758.057	72.661	758.057	72.5014	758.057	72.2967	758.057	72.0443	758.057	71.7234	758.057	71.2953	758.057	70.7076	758.057	69.9009	758.057	68.8155	758.057	67.4129	758.057	65.7513	758.057	64.2028	758.057	63.6152	758.057	64.3784	758.057	65.6982	758.057	66.8132	758.057	67.4397	758.057	67.509
784.424	72.3062	784.424	72.2062	784.424	72.0542	784.424	71.8654	784.424	71.643	784.424	71.3683	784.424	71.0001	784.424	70.4815	784.424	69.7481	784.424	68.7379	784.424	67.4118	784.424	65.8225	784.424	64.3087	784.424	63.6542	784.424	64.2948	784.424	65.5421	784.424	66.6347	784.424	67.2587	784.424	67.3259
812.256	72.1421	812.256	72.0262	812.256	71.8479	812.256	71.6517	812.256	71.4687	812.256	71.2927	812.256	71.0739	812.256	70.7326	812.256	70.1778	812.256	69.3199	812.256	68.0785	812.256	66.418	812.256	64.5071	812.256	63.1322	812.256	63.3882	812.256	64.7794	812.256	66.1118	812.256	66.8885	812.256	67.0001
840.82	71.8646	840.82	71.6923	840.82	71.4139	840.82	71.0769	840.82	70.7308	840.82	70.401	840.82	70.0669	840.82	69.6632	840.82	69.0993	840.82	68.2822	840.82	67.1383	840.82	65.6677	840.82	64.1112	840.82	63.2046	840.82	63.6275	840.82	64.8373	840.82	65.9386	840.82	66.5207	840.82	66.4611
870.85	71.7814	870.85	71.564	870.85	71.2182	870.85	70.8076	870.85	70.4009	870.85	70.0375	870.85	69.6983	870.85	69.3056	870.85	68.7489	870.85	67.9114	870.85	66.6885	870.85	65.0308	870.85	63.1383	870.85	61.9437	870.85	62.552	870.85	64.171	870.85	65.5848	870.85	66.3725	870.85	66.4518
901.611	72.6591	901.611	72.4452	901.611	72.094	901.611	71.6692	901.611	71.2477	901.611	70.8829	901.611	70.5659	901.611	70.2186	901.611	69.7228	901.611	68.953	901.611	67.7937	901.611	66.1693	901.611	64.1974	901.611	62.6841	901.611	62.967	901.611	64.527	901.611	65.9625	901.611	66.7395	901.611	66.7588
933.105	75.2165	933.105	74.9828	933.105	74.5735	933.105	74.0474	933.105	73.4953	933.105	73.0153	933.105	72.6536	933.105	72.3552	933.105	71.9764	933.105	71.3374	933.105	70.257	933.105	68.5631	933.105	66.1872	933.105	63.861	933.105	64.0441	933.105	66.3149	933.105	68.2841	933.105	69.3558	933.105	69.5106
966.064	75.3425	966.064	75.0951	966.064	74.6439	966.064	74.0478	966.064	73.4123	966.064	72.8704	966.064	72.5093	966.064	72.2885	966.064	72.0466	966.064	71.5806	966.064	70.7019	966.064	69.2484	966.064	67.1437	966.064	64.8381	966.064	64.232	966.064	65.9022	966.064	67.7091	966.064	68.7106	966.064	68.7768
999.756	75.552	999.756	75.2643	999.756	74.7367	999.756	74.0203	999.756	73.2194	999.756	72.4964	999.756	72.0054	999.756	71.7621	999.756	71.6002	999.756	71.2728	999.756	70.5511	999.756	69.2457	999.756	67.2409	999.756	64.8842	999.756	64.1017	999.756	65.8567	999.756	67.8405	999.756	68.9653	999.756	69.089
1,034.91	75.2245	1,034.91	74.9455	1,034.91	74.4212	1,034.91	73.6842	1,034.91	72.8209	1,034.91	71.9907	1,034.91	71.38	1,034.91	71.0579	1,034.91	70.882	1,034.91	70.5934	1,034.91	69.9494	1,034.91	68.7668	1,034.91	66.9526	1,034.91	64.7893	1,034.91	63.7288	1,034.91	64.8797	1,034.91	66.5453	1,034.91	67.4925	1,034.91	67.447
1,071.53	75.4196	1,071.53	75.1164	1,071.53	74.5525	1,071.53	73.7446	1,071.53	72.7533	1,071.53	71.7195	1,071.53	70.8594	1,071.53	70.3315	1,071.53	70.0593	1,071.53	69.7638	1,071.53	69.1425	1,071.53	67.9534	1,071.53	66.0593	1,071.53	63.8347	1,071.53	63.2671	1,071.53	65.1459	1,071.53	67.1186	1,071.53	68.1526	1,071.53	68.0995
1,109.62	75.4839	1,109.62	75.2254	1,109.62	74.6959	1,109.62	73.88	1,109.62	72.7963	1,109.62	71.5538	1,109.62	70.4044	1,109.62	69.6553	1,109.62	69.3569	1,109.62	69.1918	1,109.62	68.7548	1,109.62	67.7401	1,109.62	65.9584	1,109.62	63.6365	1,109.62	62.6876	1,109.62	64.53	1,109.62	66.6647	1,109.62	67.8214	1,109.62	67.8511
1,148.44	75.4593	1,148.44	75.2186	1,148.44	74.745	1,148.44	74.0169	1,148.44	73.0385	1,148.44	71.8847	1,148.44	70.7438	1,148.44	69.878	1,148.44	69.4032	1,148.44	69.1132	1,148.44	68.6262	1,148.44	67.5789	1,148.44	65.6541	1,148.44	62.7708	1,148.44	60.994	1,148.44	63.3308	1,148.44	66.0573	1,148.44	67.4933	1,148.44	67.586
1,189.45	75.3529	1,189.45	75.1187	1,189.45	74.6759	1,189.45	73.9946	1,189.45	73.0629	1,189.45	71.9275	1,189.45	70.7382	1,189.45	69.7415	1,189.45	69.1183	1,189.45	68.7632	1,189.45	68.3332	1,189.45	67.4611	1,189.45	65.8477	1,189.45	63.4385	1,189.45	61.6997	1,189.45	63.2741	1,189.45	65.7493	1,189.45	67.1679	1,189.45	67.2814
1,231.2	75.1603	1,231.2	74.9435	1,231.2	74.5032	1,231.2	73.7976	1,231.2	72.8047	1,231.2	71.5731	1,231.2	70.2868	1,231.2	69.2739	1,231.2	68.7723	1,231.2	68.6101	1,231.2	68.3377	1,231.2	67.5353	1,231.2	65.8699	1,231.2	63.1941	1,231.2	61.041	1,231.2	62.8538	1,231.2	65.5902	1,231.2	67.064	1,231.2	67.1002
1,274.41	74.6092	1,274.41	74.4383	1,274.41	74.0619	1,274.41	73.4243	1,274.41	72.4855	1,274.41	71.2699	1,274.41	69.9358	1,274.41	68.8175	1,274.41	68.2257	1,274.41	68.0445	1,274.41	67.7882	1,274.41	66.97	1,274.41	65.1748	1,274.41	62.0725	1,274.41	59.3595	1,274.41	61.9351	1,274.41	65.142	1,274.41	66.7385	1,274.41	66.767
1,319.82	74.5416	1,319.82	74.343	1,319.82	73.9588	1,319.82	73.3405	1,319.82	72.4398	1,319.82	71.2494	1,319.82	69.8663	1,319.82	68.5701	1,319.82	67.7445	1,319.82	67.4563	1,319.82	67.2712	1,319.82	66.6423	1,319.82	65.1176	1,319.82	62.2873	1,319.82	58.8327	1,319.82	60.2284	1,319.82	63.7295	1,319.82	65.6046	1,319.82	65.744
1,365.97	74.5548	1,365.97	74.3657	1,365.97	73.9831	1,365.97	73.3683	1,365.97	72.4647	1,365.97	71.2326	1,365.97	69.7207	1,365.97	68.1887	1,365.97	67.1367	1,365.97	66.8169	1,365.97	66.776	1,365.97	66.3472	1,365.97	65.013	1,365.97	62.2741	1,365.97	58.2998	1,365.97	59.2612	1,365.97	63.2482	1,365.97	65.3695	1,365.97	65.5799
1,414.31	74.3891	1,414.31	74.1901	1,414.31	73.8093	1,414.31	73.2295	1,414.31	72.3977	1,414.31	71.2537	1,414.31	69.799	1,414.31	68.2253	1,414.31	67.0196	1,414.31	66.5817	1,414.31	66.5629	1,414.31	66.2411	1,414.31	65.0519	1,414.31	62.4955	1,414.31	58.4979	1,414.31	58.5769	1,414.31	62.584	1,414.31	64.7925	1,414.31	64.9618
1,464.11	74	1,464.11	73.7951	1,464.11	73.3971	1,464.11	72.8122	1,464.11	71.9976	1,464.11	70.8776	1,464.11	69.4123	1,464.11	67.7335	1,464.11	66.3246	1,464.11	65.7667	1,464.11	65.8438	1,464.11	65.7371	1,464.11	64.7886	1,464.11	62.4761	1,464.11	58.6386	1,464.11	58.2561	1,464.11	62.175	1,464.11	64.3698	1,464.11	64.4303
1,515.38	73.7291	1,515.38	73.4389	1,515.38	72.9306	1,515.38	72.266	1,515.38	71.4426	1,515.38	70.3868	1,515.38	69.0282	1,515.38	67.4337	1,515.38	65.9761	1,515.38	65.2089	1,515.38	65.1001	1,515.38	64.923	1,515.38	63.9603	1,515.38	61.5824	1,515.38	57.308	1,515.38	56.6939	1,515.38	61.1969	1,515.38	63.5333	1,515.38	63.5102
1,568.85	73.8541	1,568.85	73.4891	1,568.85	72.8811	1,568.85	72.1201	1,568.85	71.2338	1,568.85	70.1558	1,568.85	68.7914	1,568.85	67.1589	1,568.85	65.5792	1,568.85	64.6482	1,568.85	64.4803	1,568.85	64.3737	1,568.85	63.5468	1,568.85	61.2876	1,568.85	56.7193	1,568.85	55.5027	1,568.85	60.8822	1,568.85	63.5794	1,568.85	63.7417
1,624.51	74.3333	1,624.51	73.9478	1,624.51	73.279	1,624.51	72.4692	1,624.51	71.5964	1,624.51	70.598	1,624.51	69.3293	1,624.51	67.7284	1,624.51	66.0681	1,624.51	65.112	1,624.51	65.2254	1,624.51	65.5783	1,624.51	65.2162	1,624.51	63.4209	1,624.51	59.2252	1,624.51	55.509	1,624.51	60.9614	1,624.51	63.9872	1,624.51	64.0653
1,681.64	74.2053	1,681.64	73.7757	1,681.64	73.0418	1,681.64	72.1619	1,681.64	71.2531	1,681.64	70.2906	1,681.64	69.1308	1,681.64	67.6566	1,681.64	65.9927	1,681.64	64.7517	1,681.64	64.5745	1,681.64	64.9412	1,681.64	64.807	1,681.64	63.4006	1,681.64	59.8362	1,681.64	54.8983	1,681.64	59.3187	1,681.64	62.7189	1,681.64	62.7915
1,740.97	74.2088	1,740.97	73.806	1,740.97	73.0691	1,740.97	72.1386	1,740.97	71.1648	1,740.97	70.1851	1,740.97	69.0746	1,740.97	67.6586	1,740.97	65.9306	1,740.97	64.3651	1,740.97	63.8276	1,740.97	64.1725	1,740.97	64.238	1,740.97	63.0747	1,740.97	59.7479	1,740.97	54.8138	1,740.97	59.0251	1,740.97	62.4797	1,740.97	62.5243
1,802.49	74.6113	1,802.49	74.2564	1,802.49	73.5777	1,802.49	72.6637	1,802.49	71.6349	1,802.49	70.5672	1,802.49	69.4115	1,802.49	68.0232	1,802.49	66.3288	1,802.49	64.6154	1,802.49	63.6984	1,802.49	63.8623	1,802.49	64.0812	1,802.49	63.2835	1,802.49	60.6102	1,802.49	55.8611	1,802.49	57.9664	1,802.49	61.7107	1,802.49	62.0067
1,866.21	74.843	1,866.21	74.4274	1,866.21	73.6909	1,866.21	72.7123	1,866.21	71.6254	1,866.21	70.5435	1,866.21	69.4327	1,866.21	68.1102	1,866.21	66.4202	1,866.21	64.5353	1,866.21	63.3339	1,866.21	63.4929	1,866.21	63.9538	1,866.21	63.432	1,866.21	61.0862	1,866.21	56.9936	1,866.21	58.7726	1,866.21	62.1483	1,866.21	62.2128
1,932.13	74.6634	1,932.13	74.2978	1,932.13	73.6091	1,932.13	72.602	1,932.13	71.359	1,932.13	70.0301	1,932.13	68.7242	1,932.13	67.393	1,932.13	65.891	1,932.13	64.2179	1,932.13	62.8406	1,932.13	62.432	1,932.13	62.5512	1,932.13	61.976	1,932.13	59.7701	1,932.13	56.496	1,932.13	58.4597	1,932.13	61.2776	1,932.13	60.987
2,000.24	75.6123	2,000.24	75.2745	2,000.24	74.6251	2,000.24	73.6481	2,000.24	72.4109	2,000.24	71.0455	2,000.24	69.6398	2,000.24	68.1402	2,000.24	66.4202	2,000.24	64.563	2,000.24	63.2583	2,000.24	63.234	2,000.24	63.6646	2,000.24	63.1857	2,000.24	60.889	2,000.24	56.5299	2,000.24	57.2631	2,000.24	60.864	2,000.24	61.1677
2,070.56	75.6946	2,070.56	75.3914	2,070.56	74.7948	2,070.56	73.8742	2,070.56	72.7001	2,070.56	71.4316	2,070.56	70.1813	2,070.56	68.8791	2,070.56	67.3223	2,070.56	65.4314	2,070.56	63.7261	2,070.56	63.343	2,070.56	63.9501	2,070.56	64.0003	2,070.56	62.5379	2,070.56	59.4372	2,070.56	59.2767	2,070.56	62.0551	2,070.56	62.0988
2,143.8	75.3948	2,143.8	75.1086	2,143.8	74.5256	2,143.8	73.5783	2,143.8	72.3143	2,143.8	70.9075	2,143.8	69.541	2,143.8	68.2313	2,143.8	66.7977	2,143.8	65.081	2,143.8	63.3314	2,143.8	62.4513	2,143.8	62.7188	2,143.8	62.8346	2,143.8	61.5866	2,143.8	59.0093	2,143.8	59.3927	2,143.8	61.6886	2,143.8	61.1332
2,219.24	75.9662	2,219.24	75.6901	2,219.24	75.1047	2,219.24	74.1591	2,219.24	72.9005	2,219.24	71.4706	2,219.24	70.0102	2,219.24	68.551	2,219.24	66.9993	2,219.24	65.2842	2,219.24	63.6571	2,219.24	62.8287	2,219.24	62.9277	2,219.24	62.8401	2,219.24	61.4346	2,219.24	58.3834	2,219.24	58.2993	2,219.24	61.1136	2,219.24	60.9506
2,297.61	76.1701	2,297.61	75.929	2,297.61	75.3712	2,297.61	74.4646	2,297.61	73.2715	2,297.61	71.9284	2,297.61	70.5669	2,297.61	69.2198	2,297.61	67.7761	2,297.61	66.0977	2,297.61	64.331	2,297.61	63.2287	2,297.61	63.3246	2,297.61	63.61	2,297.61	62.7604	2,297.61	60.4484	2,297.61	60.222	2,297.61	62.2389	2,297.61	61.5119
2,378.17	76.1414	2,378.17	75.8636	2,378.17	75.2542	2,378.17	74.3085	2,378.17	73.0821	2,378.17	71.6659	2,378.17	70.1597	2,378.17	68.6513	2,378.17	67.1697	2,378.17	65.6846	2,378.17	64.2864	2,378.17	63.4398	2,378.17	63.5016	2,378.17	63.6895	2,378.17	62.724	2,378.17	60.0116	2,378.17	59.3463	2,378.17	61.6217	2,378.17	61.1052
2,462.4	76.3921	2,462.4	76.0773	2,462.4	75.4979	2,462.4	74.6447	2,462.4	73.5114	2,462.4	72.1032	2,462.4	70.4649	2,462.4	68.7045	2,462.4	66.9245	2,462.4	65.1249	2,462.4	63.3693	2,462.4	62.2647	2,462.4	62.5171	2,462.4	63.2641	2,462.4	62.9589	2,462.4	60.9283	2,462.4	60.1097	2,462.4	62.1215	2,462.4	61.8845
2,548.83	76.0891	2,548.83	75.7864	2,548.83	75.2368	2,548.83	74.4818	2,548.83	73.5213	2,548.83	72.3237	2,548.83	70.8941	2,548.83	69.3192	2,548.83	67.692	2,548.83	66	2,548.83	64.2365	2,548.83	62.8085	2,548.83	62.5256	2,548.83	63.0423	2,548.83	62.7772	2,548.83	60.7359	2,548.83	59.3294	2,548.83	61.1403	2,548.83	60.7503
2,638.92	75.9924	2,638.92	75.6917	2,638.92	75.169	2,638.92	74.439	2,638.92	73.4727	2,638.92	72.2345	2,638.92	70.755	2,638.92	69.1421	2,638.92	67.5017	2,638.92	65.8577	2,638.92	64.1938	2,638.92	62.7174	2,638.92	62.0709	2,638.92	62.3993	2,638.92	62.4891	2,638.92	61.3294	2,638.92	60.2701	2,638.92	61.211	2,638.92	61.0277
2,731.93	76.148	2,731.93	75.8938	2,731.93	75.3733	2,731.93	74.6319	2,731.93	73.6921	2,731.93	72.5388	2,731.93	71.1661	2,731.93	69.5995	2,731.93	67.902	2,731.93	66.1751	2,731.93	64.5443	2,731.93	63.2554	2,731.93	62.7159	2,731.93	62.8092	2,731.93	62.4628	2,731.93	60.9648	2,731.93	60.5195	2,731.93	61.9009	2,731.93	61.353
2,828.61	76.5602	2,828.61	76.2571	2,828.61	75.7034	2,828.61	74.9218	2,828.61	73.9265	2,828.61	72.7439	2,828.61	71.4067	2,828.61	69.9194	2,828.61	68.2995	2,828.61	66.5877	2,828.61	64.7998	2,828.61	63.1427	2,828.61	62.3662	2,828.61	62.782	2,828.61	63.0401	2,828.61	61.9701	2,828.61	60.9942	2,828.61	62.3365	2,828.61	62.8055
2,928.22	76.3688	2,928.22	76.071	2,928.22	75.5306	2,928.22	74.7414	2,928.22	73.721	2,928.22	72.5212	2,928.22	71.1537	2,928.22	69.5968	2,928.22	67.9167	2,928.22	66.2492	2,928.22	64.6941	2,928.22	63.3788	2,928.22	62.5558	2,928.22	62.3582	2,928.22	62.2706	2,928.22	61.7658	2,928.22	62.2034	2,928.22	63.6637	2,928.22	63.2343
3,031.49	75.9597	3,031.49	75.783	3,031.49	75.371	3,031.49	74.6842	3,031.49	73.7014	3,031.49	72.4492	3,031.49	70.9617	3,031.49	69.2977	3,031.49	67.5382	3,031.49	65.6739	3,031.49	63.7016	3,031.49	62.0109	3,031.49	61.3853	3,031.49	61.67	3,031.49	61.4061	3,031.49	59.8974	3,031.49	60.3498	3,031.49	62.5077	3,031.49	62.0827
3,138.43	75.221	3,138.43	75.4029	3,138.43	75.3956	3,138.43	75.0987	3,138.43	74.4037	3,138.43	73.2981	3,138.43	71.889	3,138.43	70.3263	3,138.43	68.6875	3,138.43	66.9444	3,138.43	65.0554	3,138.43	63.2435	3,138.43	62.4898	3,138.43	63.0538	3,138.43	63.0102	3,138.43	60.64	3,138.43	58.3632	3,138.43	60.9774	3,138.43	60.8125
3,249.02	74.9244	3,249.02	75.2216	3,249.02	75.2986	3,249.02	74.9845	3,249.02	74.1908	3,249.02	72.9494	3,249.02	71.3662	3,249.02	69.582	3,249.02	67.8349	3,249.02	66.3091	3,249.02	64.7453	3,249.02	62.6687	3,249.02	60.7976	3,249.02	61.4178	3,249.02	62.8459	3,249.02	62.4606	3,249.02	60.9127	3,249.02	61.9579	3,249.02	61.6866
3,363.28	74.2793	3,363.28	74.314	3,363.28	74.2949	3,363.28	73.9668	3,363.28	73.1906	3,363.28	72.0106	3,363.28	70.5075	3,363.28	68.7378	3,363.28	66.9275	3,363.28	65.3665	3,363.28	63.9437	3,363.28	62.2415	3,363.28	60.4521	3,363.28	60.2587	3,363.28	61.5624	3,363.28	61.7442	3,363.28	61.3405	3,363.28	62.4275	3,363.28	61.2982
3,481.93	73.5475	3,481.93	73.6557	3,481.93	73.793	3,481.93	73.6484	3,481.93	73.0559	3,481.93	72.021	3,481.93	70.5887	3,481.93	68.8097	3,481.93	66.8692	3,481.93	65.1148	3,481.93	63.7225	3,481.93	62.4185	3,481.93	61.0594	3,481.93	60.4184	3,481.93	60.4596	3,481.93	59.5386	3,481.93	59.5496	3,481.93	61.5449	3,481.93	60.4176
3,604.98	73.1587	3,604.98	73.3858	3,604.98	73.6406	3,604.98	73.5952	3,604.98	73.0929	3,604.98	72.1181	3,604.98	70.655	3,604.98	68.7408	3,604.98	66.6581	3,604.98	64.8601	3,604.98	63.4549	3,604.98	62.0401	3,604.98	60.7453	3,604.98	60.8316	3,604.98	61.472	3,604.98	60.269	3,604.98	58.1952	3,604.98	60.2945	3,604.98	60.0024
3,732.42	72.613	3,732.42	72.9706	3,732.42	73.3836	3,732.42	73.473	3,732.42	73.0538	3,732.42	72.0717	3,732.42	70.5606	3,732.42	68.6405	3,732.42	66.5657	3,732.42	64.7959	3,732.42	63.469	3,732.42	61.8634	3,732.42	59.7371	3,732.42	59.5631	3,732.42	60.8476	3,732.42	60.1047	3,732.42	57.9813	3,732.42	60.2363	3,732.42	60.0057
3,863.53	71.8733	3,863.53	72.5045	3,863.53	73.172	3,863.53	73.3107	3,863.53	72.8014	3,863.53	71.7412	3,863.53	70.2475	3,863.53	68.3648	3,863.53	66.2775	3,863.53	64.5371	3,863.53	63.3453	3,863.53	61.8967	3,863.53	59.5993	3,863.53	58.4126	3,863.53	59.6455	3,863.53	59.73	3,863.53	58.6386	3,863.53	60.462	3,863.53	59.7004
3,999.76	71.2293	3,999.76	72.1001	3,999.76	73.0014	3,999.76	73.2917	3,999.76	72.9066	3,999.76	71.9312	3,999.76	70.4208	3,999.76	68.5322	3,999.76	66.4801	3,999.76	64.5867	3,999.76	63.1023	3,999.76	61.5154	3,999.76	59.1113	3,999.76	57.1587	3,999.76	57.6964	3,999.76	57.3289	3,999.76	56.5589	3,999.76	59.0054	3,999.76	57.2341
4,141.11	71.5721	4,141.11	72.3059	4,141.11	73.0071	4,141.11	73.1593	4,141.11	72.6853	4,141.11	71.5303	4,141.11	69.8442	4,141.11	67.8619	4,141.11	65.5684	4,141.11	63.4038	4,141.11	61.8928	4,141.11	60.4478	4,141.11	58.6552	4,141.11	57.9498	4,141.11	58.2827	4,141.11	56.3684	4,141.11	51.2766	4,141.11	55.8897	4,141.11	56.4603
4,286.87	71.7651	4,286.87	72.5244	4,286.87	73.3027	4,286.87	73.5723	4,286.87	73.126	4,286.87	71.9832	4,286.87	70.4749	4,286.87	68.6407	4,286.87	66.3681	4,286.87	64.4079	4,286.87	63.2958	4,286.87	61.9471	4,286.87	59.5106	4,286.87	58.8927	4,286.87	60.9698	4,286.87	60.8044	4,286.87	57.4207	4,286.87	58.144	4,286.87	57.6565
4,438.48	72.6236	4,438.48	73.2832	4,438.48	73.927	4,438.48	74.0121	4,438.48	73.4724	4,438.48	72.4434	4,438.48	70.9801	4,438.48	68.795	4,438.48	66.0563	4,438.48	63.9648	4,438.48	62.8051	4,438.48	61.4284	4,438.48	58.6207	4,438.48	55.6513	4,438.48	56.9835	4,438.48	57.5255	4,438.48	55.938	4,438.48	58.7923	4,438.48	58.5042
4,594.48	73.4422	4,594.48	74.0591	4,594.48	74.5568	4,594.48	74.4934	4,594.48	73.8161	4,594.48	72.5845	4,594.48	70.8809	4,594.48	68.6912	4,594.48	66.3947	4,594.48	64.5029	4,594.48	62.589	4,594.48	60.2841	4,594.48	57.616	4,594.48	56.1613	4,594.48	57.3252	4,594.48	56.8817	4,594.48	53.1779	4,594.48	56.2756	4,594.48	56.4631
4,757.08	73.6098	4,757.08	74.2107	4,757.08	74.7001	4,757.08	74.5675	4,757.08	73.7325	4,757.08	72.3394	4,757.08	70.5147	4,757.08	68.2741	4,757.08	66.0201	4,757.08	64.1683	4,757.08	62.7475	4,757.08	61.4002	4,757.08	59.2722	4,757.08	57.758	4,757.08	59.3615	4,757.08	58.8595	4,757.08	54.1751	4,757.08	57.7871	4,757.08	58.7971
4,924.8	73.798	4,924.8	74.0951	4,924.8	74.4005	4,924.8	74.1705	4,924.8	73.485	4,924.8	72.4467	4,924.8	70.9227	4,924.8	68.9674	4,924.8	66.864	4,924.8	64.7724	4,924.8	62.7687	4,924.8	60.9929	4,924.8	59.1231	4,924.8	58.3023	4,924.8	59.9092	4,924.8	59.3638	4,924.8	54.0075	4,924.8	57.7235	4,924.8	58.1319
5,098.39	74.3614	5,098.39	74.3951	5,098.39	74.4456	5,098.39	74.1489	5,098.39	73.5625	5,098.39	72.548	5,098.39	70.969	5,098.39	69.0605	5,098.39	67.1533	5,098.39	65.0363	5,098.39	62.424	5,098.39	59.8868	5,098.39	57.2661	5,098.39	55.0744	5,098.39	58.2578	5,098.39	59.6519	5,098.39	56.3316	5,098.39	56.2695	5,098.39	56.0214
5,277.83	75.0337	5,277.83	74.6114	5,277.83	74.2708	5,277.83	73.8728	5,277.83	73.3116	5,277.83	72.2156	5,277.83	70.533	5,277.83	68.5998	5,277.83	66.3555	5,277.83	63.491	5,277.83	61.1104	5,277.83	60.5758	5,277.83	59.8195	5,277.83	58.6212	5,277.83	60.0315	5,277.83	59.4154	5,277.83	54.6473	5,277.83	57.6293	5,277.83	58.0704
5,463.87	75.9273	5,463.87	75.0532	5,463.87	74.0518	5,463.87	73.4755	5,463.87	73.2615	5,463.87	72.5394	5,463.87	71.1974	5,463.87	69.512	5,463.87	67.3124	5,463.87	64.8808	5,463.87	63.1019	5,463.87	61.7514	5,463.87	59.1543	5,463.87	56.5028	5,463.87	58.488	5,463.87	58.6807	5,463.87	54.4473	5,463.87	56.111	5,463.87	54.1544
5,656.49	75.6984	5,656.49	74.74	5,656.49	73.4988	5,656.49	72.7436	5,656.49	72.4221	5,656.49	71.5371	5,656.49	70.26	5,656.49	68.7068	5,656.49	66.7775	5,656.49	64.4156	5,656.49	61.9152	5,656.49	59.8961	5,656.49	57.5517	5,656.49	55.5374	5,656.49	57.5985	5,656.49	57.5281	5,656.49	52.0946	5,656.49	55.4469	5,656.49	56.6533
5,856.45	75.051	5,856.45	73.8596	5,856.45	72.3621	5,856.45	71.7815	5,856.45	71.9506	5,856.45	71.4295	5,856.45	70.1706	5,856.45	68.2692	5,856.45	65.7155	5,856.45	62.6191	5,856.45	60.4465	5,856.45	59.3619	5,856.45	57.1194	5,856.45	54.5186	5,856.45	56.7183	5,856.45	57.0436	5,856.45	49.8933	5,856.45	54.0938	5,856.45	55.2143
6,062.99	74.8161	6,062.99	73.4959	6,062.99	71.7498	6,062.99	71.3443	6,062.99	71.6952	6,062.99	70.8985	6,062.99	69.4272	6,062.99	67.5214	6,062.99	65.1507	6,062.99	62.5196	6,062.99	60.356	6,062.99	58.878	6,062.99	57.0019	6,062.99	54.6266	6,062.99	56.5303	6,062.99	56.2812	6,062.99	47.6417	6,062.99	51.1225	6,062.99	53.2756
6,276.86	74.5715	6,276.86	72.9246	6,276.86	70.911	6,276.86	70.9261	6,276.86	71.524	6,276.86	70.8045	6,276.86	69.4678	6,276.86	67.3335	6,276.86	64.5119	6,276.86	61.1737	6,276.86	58.7827	6,276.86	57.6261	6,276.86	56.2229	6,276.86	54.5728	6,276.86	54.9406	6,276.86	54.2762	6,276.86	43.7903	6,276.86	48.2127	6,276.86	52.6287
6,498.05	74.3586	6,498.05	72.8259	6,498.05	71.0727	6,498.05	71.2495	6,498.05	71.5988	6,498.05	70.5922	6,498.05	69.0141	6,498.05	66.7937	6,498.05	64.4279	6,498.05	61.7487	6,498.05	59.3657	6,498.05	57.2464	6,498.05	55.5796	6,498.05	55.0246	6,498.05	57.2928	6,498.05	56.1224	6,498.05	45.164	6,498.05	47.4144	6,498.05	54.1396
6,727.29	74.5508	6,727.29	73.1509	6,727.29	71.5823	6,727.29	71.7846	6,727.29	71.8963	6,727.29	70.6068	6,727.29	68.9346	6,727.29	66.6662	6,727.29	64.0197	6,727.29	60.8529	6,727.29	58.5567	6,727.29	57.1246	6,727.29	55.1868	6,727.29	52.2885	6,727.29	55.5796	6,727.29	55.4621	6,727.29	49.8829	6,727.29	46.8981	6,727.29	53.9348
6,964.6	75.3174	6,964.6	73.8762	6,964.6	72.0953	6,964.6	72.055	6,964.6	71.9104	6,964.6	70.414	6,964.6	68.6863	6,964.6	65.9984	6,964.6	63.4562	6,964.6	60.6518	6,964.6	58.569	6,964.6	56.7768	6,964.6	54.7439	6,964.6	51.7104	6,964.6	54.8427	6,964.6	56.3408	6,964.6	49.7275	6,964.6	46.0339	6,964.6	54.1107
7,209.96	76.1615	7,209.96	74.7577	7,209.96	73.0561	7,209.96	72.7236	7,209.96	72.1709	7,209.96	70.5886	7,209.96	68.6658	7,209.96	66.113	7,209.96	63.6805	7,209.96	60.433	7,209.96	57.8254	7,209.96	56.1933	7,209.96	56.246	7,209.96	52.997	7,209.96	53.8594	7,209.96	55.5011	7,209.96	52.2589	7,209.96	51.8294	7,209.96	56.2892
7,464.11	76.0315	7,464.11	75.1674	7,464.11	73.774	7,464.11	73.1814	7,464.11	72.3696	7,464.11	70.5056	7,464.11	68.6372	7,464.11	66.3153	7,464.11	64.2483	7,464.11	61.1654	7,464.11	57.5277	7,464.11	55.2033	7,464.11	55.5825	7,464.11	53.4539	7,464.11	52.5787	7,464.11	55.6776	7,464.11	51.593	7,464.11	50.3422	7,464.11	55.669
7,727.78	76.0965	7,727.78	75.1249	7,727.78	73.5968	7,727.78	72.8509	7,727.78	71.7875	7,727.78	69.8505	7,727.78	68.2913	7,727.78	66.0209	7,727.78	64.0639	7,727.78	60.5948	7,727.78	57.1906	7,727.78	54.8222	7,727.78	55.1916	7,727.78	52.6628	7,727.78	51.6633	7,727.78	54.3289	7,727.78	50.2446	7,727.78	48.3551	7,727.78	55.724
8,000.24	75.2922	8,000.24	74.4006	8,000.24	73.0514	8,000.24	71.9948	8,000.24	70.5513	8,000.24	68.858	8,000.24	67.2861	8,000.24	65.1909	8,000.24	63.1712	8,000.24	59.8878	8,000.24	56.8133	8,000.24	54.2932	8,000.24	55.0837	8,000.24	53.3313	8,000.24	48.0841	8,000.24	51.5313	8,000.24	51.021	8,000.24	47.7509	8,000.24	54.4864
8,282.23	73.7779	8,282.23	73.2888	8,282.23	71.8493	8,282.23	70.2641	8,282.23	68.7031	8,282.23	67.0663	8,282.23	65.6791	8,282.23	63.265	8,282.23	61.3261	8,282.23	58.2392	8,282.23	54.541	8,282.23	52.4906	8,282.23	51.9685	8,282.23	47.8405	8,282.23	47.1889	8,282.23	51.3374	8,282.23	51.5209	8,282.23	47.3044	8,282.23	53.4041
8,574.46	74.6848	8,574.46	73.946	8,574.46	72.2235	8,574.46	70.1352	8,574.46	68.4091	8,574.46	66.9634	8,574.46	64.9494	8,574.46	62.3002	8,574.46	60.7319	8,574.46	56.6824	8,574.46	51.7393	8,574.46	48.0304	8,574.46	49.6024	8,574.46	49.6376	8,574.46	32.1284	8,574.46	48.6134	8,574.46	53.9146	8,574.46	51.3238	8,574.46	54.3393
8,876.22	76.1998	8,876.22	75.6186	8,876.22	73.9949	8,876.22	71.6748	8,876.22	69.9412	8,876.22	68.1439	8,876.22	65.9382	8,876.22	63.516	8,876.22	62.0913	8,876.22	57.5869	8,876.22	55.2221	8,876.22	50.963	8,876.22	45.4424	8,876.22	50.0739	8,876.22	43.4155	8,876.22	51.6649	8,876.22	54.4069	8,876.22	50.7186	8,876.22	54.6867
9,189.7	76.9627	9,189.7	76.599	9,189.7	75.3256	9,189.7	72.9845	9,189.7	71.1852	9,189.7	69.1959	9,189.7	66.8787	9,189.7	64.5062	9,189.7	63.0946	9,189.7	58.4503	9,189.7	58.1639	9,189.7	52.7658	9,189.7	44.8787	9,189.7	53.485	9,189.7	50.0548	9,189.7	49.9896	9,189.7	52.633	9,189.7	49.9038	9,189.7	53.5477
9,513.43	77.3663	9,513.43	76.5087	9,513.43	75.1896	9,513.43	73.0851	9,513.43	71.4715	9,513.43	69.2784	9,513.43	66.5661	9,513.43	63.8374	9,513.43	62.5127	9,513.43	58.4925	9,513.43	58.5749	9,513.43	54.1679	9,513.43	48.0973	9,513.43	53.0833	9,513.43	50.6403	9,513.43	49.972	9,513.43	50.7459	9,513.43	49.6706	9,513.43	52.9941
9,848.88	76.1577	9,848.88	75.6169	9,848.88	74.6739	9,848.88	72.4999	9,848.88	70.6663	9,848.88	68.1359	9,848.88	65.0781	9,848.88	62.4729	9,848.88	62.0198	9,848.88	57.5624	9,848.88	58.8092	9,848.88	54.1302	9,848.88	47.9356	9,848.88	53.3678	9,848.88	51.2906	9,848.88	48.8849	9,848.88	46.7849	9,848.88	50.6567	9,848.88	51.8451
10,196.8	75.2698	10,196.8	74.4314	10,196.8	73.7136	10,196.8	71.6462	10,196.8	69.5096	10,196.8	66.6558	10,196.8	63.4147	10,196.8	60.9327	10,196.8	60.5833	10,196.8	55.3293	10,196.8	57.6507	10,196.8	53.1597	10,196.8	46.4357	10,196.8	52.1889	10,196.8	50.1689	10,196.8	45.7576	10,196.8	42.5242	10,196.8	52.8649	10,196.8	51.7449
10,556.4	75.2838	10,556.4	74.1222	10,556.4	73.3526	10,556.4	71.1822	10,556.4	68.6423	10,556.4	65.5874	10,556.4	62.152	10,556.4	59.7413	10,556.4	59.6973	10,556.4	53.2896	10,556.4	57.3962	10,556.4	50.6432	10,556.4	45.6709	10,556.4	50.8325	10,556.4	50.5852	10,556.4	45.0743	10,556.4	42.2542	10,556.4	53.8762	10,556.4	53.6634
10,928.5	75.8708	10,928.5	74.5207	10,928.5	73.7536	10,928.5	71.4721	10,928.5	68.3811	10,928.5	65.0798	10,928.5	61.6375	10,928.5	59.229	10,928.5	59.3012	10,928.5	52.2184	10,928.5	57.4774	10,928.5	49.3333	10,928.5	48.3569	10,928.5	50.7349	10,928.5	51.0541	10,928.5	45.8529	10,928.5	44.2231	10,928.5	55.6171	10,928.5	53.6638
11,313.7	76.3545	11,313.7	74.8877	11,313.7	74.2576	11,313.7	71.9127	11,313.7	68.2404	11,313.7	65.1427	11,313.7	61.4679	11,313.7	58.8544	11,313.7	59.5481	11,313.7	50.6798	11,313.7	58.4341	11,313.7	49.4918	11,313.7	52.0987	11,313.7	51.3564	11,313.7	52.0214	11,313.7	49.0898	11,313.7	41.5098	11,313.7	56.7012	11,313.7	53.8099
11,712.9	76.6918	11,712.9	75.1699	11,712.9	74.5014	11,712.9	72.0909	11,712.9	68.1109	11,712.9	65.0296	11,712.9	61.1604	11,712.9	58.4479	11,712.9	59.2544	11,712.9	48.8385	11,712.9	58.7161	11,712.9	49.3407	11,712.9	53.4735	11,712.9	52.1659	11,712.9	52.012	11,712.9	51.0422	11,712.9	45.2358	11,712.9	58.0608	11,712.9	54.6015
12,126	76.8792	12,126	74.927	12,126	73.9629	12,126	71.7818	12,126	67.3017	12,126	64.632	12,126	60.2257	12,126	57.5665	12,126	58.8318	12,126	47.2642	12,126	58.848	12,126	49.8487	12,126	53.1635	12,126	53.1483	12,126	50.316	12,126	53.9956	12,126	48.1356	12,126	59.9571	12,126	56.0991
12,553.7	76.3725	12,553.7	74.3893	12,553.7	73.3536	12,553.7	71.1266	12,553.7	66.3047	12,553.7	63.8629	12,553.7	59.0336	12,553.7	56.5147	12,553.7	58.5205	12,553.7	45.5999	12,553.7	58.7242	12,553.7	50.0055	12,553.7	53.8944	12,553.7	52.968	12,553.7	49.7726	12,553.7	54.6057	12,553.7	49.3751	12,553.7	60.5576	12,553.7	57.0748
12,996.1	76.2083	12,996.1	74.0616	12,996.1	72.8404	12,996.1	70.8591	12,996.1	65.7919	12,996.1	63.5115	12,996.1	58.6384	12,996.1	56.3889	12,996.1	58.921	12,996.1	43.1497	12,996.1	59.1239	12,996.1	51.2517	12,996.1	55.0835	12,996.1	53.4933	12,996.1	50.5496	12,996.1	55.2789	12,996.1	48.8021	12,996.1	60.6576	12,996.1	57.3374
13,454.6	76.3172	13,454.6	74.4292	13,454.6	72.9989	13,454.6	70.9142	13,454.6	65.6135	13,454.6	63.063	13,454.6	58.4045	13,454.6	55.7228	13,454.6	58.3793	13,454.6	35.7107	13,454.6	58.4275	13,454.6	50.864	13,454.6	55.1289	13,454.6	53.8403	13,454.6	50.3712	13,454.6	55.7735	13,454.6	49.098	13,454.6	60.4109	13,454.6	57.2214
13,928.5	77.3934	13,928.5	75.3632	13,928.5	73.2793	13,928.5	70.9002	13,928.5	64.608	13,928.5	62.4489	13,928.5	57.0164	13,928.5	53.8531	13,928.5	57.4502	13,928.5	35.8831	13,928.5	57.0454	13,928.5	50.8387	13,928.5	54.344	13,928.5	54.9948	13,928.5	50.2272	13,928.5	56.8865	13,928.5	51.2505	13,928.5	60.9206	13,928.5	56.5957
14,419.9	78.3841	14,419.9	76.3808	14,419.9	73.5113	14,419.9	70.8926	14,419.9	64.0393	14,419.9	61.7075	14,419.9	56.3981	14,419.9	51.4093	14,419.9	56.9489	14,419.9	44.3202	14,419.9	55.5652	14,419.9	52.3048	14,419.9	52.4661	14,419.9	56.5284	14,419.9	48.2662	14,419.9	57.8761	14,419.9	53.8848	14,419.9	61.4867	14,419.9	58.2888
14,928.2	78.1469	14,928.2	76.4179	14,928.2	73.0331	14,928.2	69.917	14,928.2	62.6147	14,928.2	60.2875	14,928.2	54.1284	14,928.2	46.5351	14,928.2	55.7522	14,928.2	47.931	14,928.2	52.9198	14,928.2	52.8443	14,928.2	48.1346	14,928.2	57.0805	14,928.2	44.0047	14,928.2	57.3731	14,928.2	55.3312	14,928.2	60.652	14,928.2	60.0511
15,454.8	76.9896	15,454.8	75.0399	15,454.8	71.129	15,454.8	68.2653	15,454.8	59.9638	15,454.8	57.8677	15,454.8	51.4414	15,454.8	43.0958	15,454.8	54.0495	15,454.8	48.3718	15,454.8	50.8608	15,454.8	51.8315	15,454.8	46.1718	15,454.8	56.1121	15,454.8	42.7053	15,454.8	55.937	15,454.8	53.3681	15,454.8	58.3425	15,454.8	58.6788
15,999.8	77.0143	15,999.8	74.9294	15,999.8	70.6245	15,999.8	67.1797	15,999.8	57.9403	15,999.8	56.4198	15,999.8	49.6905	15,999.8	44.1961	15,999.8	52.5977	15,999.8	47.9181	15,999.8	46.2267	15,999.8	51.0028	15,999.8	37.0379	15,999.8	55.2378	15,999.8	46.888	15,999.8	55.3054	15,999.8	54.0743	15,999.8	56.9476	15,999.8	57.8376
16,564.5	77.1848	16,564.5	75.2381	16,564.5	70.4976	16,564.5	66.4001	16,564.5	56.1709	16,564.5	54.9617	16,564.5	48.0839	16,564.5	46.3741	16,564.5	51.0431	16,564.5	46.6806	16,564.5	38.6062	16,564.5	50.3788	16,564.5	41.2391	16,564.5	54.9527	16,564.5	48.8482	16,564.5	54.2315	16,564.5	55.3661	16,564.5	56.3259	16,564.5	58.7032
17,148.2	76.4656	17,148.2	74.3552	17,148.2	68.9164	17,148.2	64.721	17,148.2	52.8081	17,148.2	52.2559	17,148.2	44.9721	17,148.2	47.7917	17,148.2	48.7611	17,148.2	44.4604	17,148.2	39.4524	17,148.2	48.0631	17,148.2	45.6017	17,148.2	52.4566	17,148.2	49.5779	17,148.2	52.6542	17,148.2	54.7558	17,148.2	54.8853	17,148.2	58.225
17,753.2	75.5582	17,753.2	73.4307	17,753.2	67.307	17,753.2	62.4104	17,753.2	47.3039	17,753.2	47.9311	17,753.2	44.5725	17,753.2	47.693	17,753.2	47.4011	17,753.2	40.5484	17,753.2	44.2277	17,753.2	47.7496	17,753.2	48.0782	17,753.2	51.2291	17,753.2	49.9554	17,753.2	50.4889	17,753.2	54.6959	17,753.2	53.2183	17,753.2	57.6101
18,379.4	74.9543	18,379.4	72.713	18,379.4	65.803	18,379.4	60.1163	18,379.4	42.0792	18,379.4	43.0921	18,379.4	45.4206	18,379.4	46.7573	18,379.4	47.8898	18,379.4	40.8547	18,379.4	45.596	18,379.4	48.2347	18,379.4	48.0871	18,379.4	49.9929	18,379.4	50.3258	18,379.4	49.2677	18,379.4	54.6028	18,379.4	52.2562	18,379.4	57.0319
19,027.6	75.0428	19,027.6	72.4959	19,027.6	64.5585	19,027.6	58.1823	19,027.6	45.3924	19,027.6	37.4608	19,027.6	46.9892	19,027.6	45.428	19,027.6	47.9002	19,027.6	42.4896	19,027.6	45.4497	19,027.6	49.4414	19,027.6	47.715	19,027.6	48.9071	19,027.6	51.2654	19,027.6	49.0659	19,027.6	55.2412	19,027.6	52.3464	19,027.6	56.9888
19,698.5	74.965	19,698.5	72.3162	19,698.5	63.61	19,698.5	56.4968	19,698.5	48.7256	19,698.5	26.6046	19,698.5	47.9871	19,698.5	42.5998	19,698.5	48.0077	19,698.5	48.1793	19,698.5	45.3087	19,698.5	51.1112	19,698.5	46.3007	19,698.5	48.7398	19,698.5	52.1025	19,698.5	49.1954	19,698.5	55.7488	19,698.5	52.3872	19,698.5	57.4389
19,999.5	74.5541	19,999.5	71.8295	19,999.5	62.8637	19,999.5	55.5656	19,999.5	49.9874	19,999.5	24.3451	19,999.5	49.3855	19,999.5	42.4656	19,999.5	48.3231	19,999.5	49.5615	19,999.5	45.6128	19,999.5	51.5039	19,999.5	46.2688	19,999.5	48.9372	19,999.5	51.8117	19,999.5	49.2027	19,999.5	55.75	19,999.5	51.6935	19,999.5	57.7388
