"SPL Vertical"																																																																							
"On-Axis"		"10°"		"-10°"		"20°"		"-20°"		"30°"		"-30°"		"40°"		"-40°"		"50°"		"-50°"		"60°"		"-60°"		"70°"		"-70°"		"80°"		"-80°"		"90°"		"-90°"		"100°"		"-100°"		"110°"		"-110°"		"120°"		"-120°"		"130°"		"-130°"		"140°"		"-140°"		"150°"		"-150°"		"160°"		"-160°"		"170°"		"-170°"		"180°"	
"Frequency [Hz]"	"Sound Pessure Level [dB]  / [2.83V 1m] "	"Frequency [Hz]"	"Sound Pessure Level [dB]  / [2.83V 1m] "	"Frequency [Hz]"	"Sound Pessure Level [dB]  / [2.83V 1m] "	"Frequency [Hz]"	"Sound Pessure Level [dB]  / [2.83V 1m] "	"Frequency [Hz]"	"Sound Pessure Level [dB]  / [2.83V 1m] "	"Frequency [Hz]"	"Sound Pessure Level [dB]  / [2.83V 1m] "	"Frequency [Hz]"	"Sound Pessure Level [dB]  / [2.83V 1m] "	"Frequency [Hz]"	"Sound Pessure Level [dB]  / [2.83V 1m] "	"Frequency [Hz]"	"Sound Pessure Level [dB]  / [2.83V 1m] "	"Frequency [Hz]"	"Sound Pessure Level [dB]  / [2.83V 1m] "	"Frequency [Hz]"	"Sound Pessure Level [dB]  / [2.83V 1m] "	"Frequency [Hz]"	"Sound Pessure Level [dB]  / [2.83V 1m] "	"Frequency [Hz]"	"Sound Pessure Level [dB]  / [2.83V 1m] "	"Frequency [Hz]"	"Sound Pessure Level [dB]  / [2.83V 1m] "	"Frequency [Hz]"	"Sound Pessure Level [dB]  / [2.83V 1m] "	"Frequency [Hz]"	"Sound Pessure Level [dB]  / [2.83V 1m] "	"Frequency [Hz]"	"Sound Pessure Level [dB]  / [2.83V 1m] "	"Frequency [Hz]"	"Sound Pessure Level [dB]  / [2.83V 1m] "	"Frequency [Hz]"	"Sound Pessure Level [dB]  / [2.83V 1m] "	"Frequency [Hz]"	"Sound Pessure Level [dB]  / [2.83V 1m] "	"Frequency [Hz]"	"Sound Pessure Level [dB]  / [2.83V 1m] "	"Frequency [Hz]"	"Sound Pessure Level [dB]  / [2.83V 1m] "	"Frequency [Hz]"	"Sound Pessure Level [dB]  / [2.83V 1m] "	"Frequency [Hz]"	"Sound Pessure Level [dB]  / [2.83V 1m] "	"Frequency [Hz]"	"Sound Pessure Level [dB]  / [2.83V 1m] "	"Frequency [Hz]"	"Sound Pessure Level [dB]  / [2.83V 1m] "	"Frequency [Hz]"	"Sound Pessure Level [dB]  / [2.83V 1m] "	"Frequency [Hz]"	"Sound Pessure Level [dB]  / [2.83V 1m] "	"Frequency [Hz]"	"Sound Pessure Level [dB]  / [2.83V 1m] "	"Frequency [Hz]"	"Sound Pessure Level [dB]  / [2.83V 1m] "	"Frequency [Hz]"	"Sound Pessure Level [dB]  / [2.83V 1m] "	"Frequency [Hz]"	"Sound Pessure Level [dB]  / [2.83V 1m] "	"Frequency [Hz]"	"Sound Pessure Level [dB]  / [2.83V 1m] "	"Frequency [Hz]"	"Sound Pessure Level [dB]  / [2.83V 1m] "	"Frequency [Hz]"	"Sound Pessure Level [dB]  / [2.83V 1m] "	"Frequency [Hz]"	"Sound Pessure Level [dB]  / [2.83V 1m] "
20.5078	47.3706	20.5078	47.5746	20.5078	47.4366	20.5078	47.9538	20.5078	47.7966	20.5078	48.3999	20.5078	48.382	20.5078	48.8298	20.5078	49.0721	20.5078	49.1923	20.5078	49.7502	20.5078	49.4601	20.5078	50.3312	20.5078	49.6199	20.5078	50.7608	20.5078	49.6661	20.5078	51.0076	20.5078	49.596	20.5078	51.0537	20.5078	49.4081	20.5078	50.8903	20.5078	49.1011	20.5078	50.5152	20.5078	48.6748	20.5078	49.9333	20.5078	48.1326	20.5078	49.1608	20.5078	47.488	20.5078	48.2343	20.5078	46.7765	20.5078	47.2289	20.5078	46.0761	20.5078	46.2798	20.5078	45.5281	20.5078	45.5828	20.5078	45.3195
21.9727	53.703	21.9727	53.4006	21.9727	54.1076	21.9727	53.2074	21.9727	54.5874	21.9727	53.1107	21.9727	55.1027	21.9727	53.0836	21.9727	55.6103	21.9727	53.0945	21.9727	56.0702	21.9727	53.1146	21.9727	56.4498	21.9727	53.1211	21.9727	56.7243	21.9727	53.099	21.9727	56.8768	21.9727	53.0403	21.9727	56.8972	21.9727	52.9439	21.9727	56.782	21.9727	52.8152	21.9727	56.5342	21.9727	52.6665	21.9727	56.1632	21.9727	52.5185	21.9727	55.6862	21.9727	52.3998	21.9727	55.1288	21.9727	52.3463	21.9727	54.526	21.9727	52.3959	21.9727	53.9218	21.9727	52.5786	21.9727	53.3658	21.9727	52.9063
23.4375	58.1807	23.4375	57.8281	23.4375	58.5814	23.4375	57.5355	23.4375	59.0102	23.4375	57.3057	23.4375	59.4423	23.4375	57.1327	23.4375	59.8511	23.4375	57.0052	23.4375	60.2117	23.4375	56.9091	23.4375	60.5022	23.4375	56.8315	23.4375	60.7052	23.4375	56.7622	23.4375	60.8081	23.4375	56.6954	23.4375	60.8035	23.4375	56.6299	23.4375	60.6892	23.4375	56.5696	23.4375	60.4687	23.4375	56.5234	23.4375	60.151	23.4375	56.5048	23.4375	59.7511	23.4375	56.5309	23.4375	59.2896	23.4375	56.6199	23.4375	58.7925	23.4375	56.7879	23.4375	58.2899	23.4375	57.0449	23.4375	57.8129	23.4375	57.3905
24.9023	62.1515	24.9023	61.8514	24.9023	62.4779	24.9023	61.5868	24.9023	62.8169	24.9023	61.3617	24.9023	63.1519	24.9023	61.1756	24.9023	63.4643	24.9023	61.0245	24.9023	63.736	24.9023	60.9027	24.9023	63.9504	24.9023	60.8039	24.9023	64.0937	24.9023	60.7231	24.9023	64.1558	24.9023	60.657	24.9023	64.131	24.9023	60.605	24.9023	64.018	24.9023	60.5692	24.9023	63.821	24.9023	60.5543	24.9023	63.5492	24.9023	60.5676	24.9023	63.2165	24.9023	60.6179	24.9023	62.8414	24.9023	60.7149	24.9023	62.4454	24.9023	60.867	24.9023	62.0515	24.9023	61.0797	24.9023	61.6813	24.9023	61.3531
26.3672	65.6909	26.3672	65.4221	26.3672	65.9746	26.3672	65.1762	26.3672	66.2625	26.3672	64.958	26.3672	66.5414	26.3672	64.7693	26.3672	66.797	26.3672	64.6096	26.3672	67.0152	26.3672	64.4766	26.3672	67.1829	26.3672	64.3676	26.3672	67.2889	26.3672	64.2803	26.3672	67.3253	26.3672	64.213	26.3672	67.288	26.3672	64.1655	26.3672	67.1766	26.3672	64.1391	26.3672	66.9958	26.3672	64.1368	26.3672	66.7542	26.3672	64.1628	26.3672	66.4648	26.3672	64.2224	26.3672	66.1436	26.3672	64.321	26.3672	65.8083	26.3672	64.4634	26.3672	65.477	26.3672	64.6525	26.3672	65.1659	26.3672	64.8881
27.832	68.8469	27.832	68.6033	27.832	69.0984	27.832	68.375	27.832	69.3488	27.832	68.1669	27.832	69.5871	27.832	67.9819	27.832	69.8016	27.832	67.8211	27.832	69.9808	27.832	67.6844	27.832	70.1139	27.832	67.5709	27.832	70.1918	27.832	67.4797	27.832	70.2082	27.832	67.4101	27.832	70.1599	27.832	67.3623	27.832	70.0477	27.832	67.3372	27.832	69.8761	27.832	67.3365	27.832	69.6538	27.832	67.3631	27.832	69.3927	27.832	67.4202	27.832	69.1071	27.832	67.5113	27.832	68.8123	27.832	67.6395	27.832	68.5234	27.832	67.8065	27.832	68.2533	27.832	68.0122
29.2969	71.7552	29.2969	71.534	29.2969	71.9798	29.2969	71.3229	29.2969	72.1998	29.2969	71.1267	29.2969	72.4061	29.2969	70.9488	29.2969	72.5887	29.2969	70.7912	29.2969	72.7379	29.2969	70.6547	29.2969	72.8445	29.2969	70.5398	29.2969	72.9012	29.2969	70.4464	29.2969	72.9028	29.2969	70.3747	29.2969	72.8471	29.2969	70.3249	29.2969	72.7353	29.2969	70.2981	29.2969	72.5723	29.2969	70.2955	29.2969	72.3663	29.2969	70.319	29.2969	72.1282	29.2969	70.3708	29.2969	71.8709	29.2969	70.4534	29.2969	71.6078	29.2969	70.5685	29.2969	71.3515	29.2969	70.7174	29.2969	71.1127	29.2969	70.8996
30.7617	74.1947	30.7617	73.9867	30.7617	74.4031	30.7617	73.7855	30.7617	74.6047	30.7617	73.596	30.7617	74.791	30.7617	73.422	30.7617	74.9534	30.7617	73.266	30.7617	75.0832	30.7617	73.1297	30.7617	75.1727	30.7617	73.0141	30.7617	75.2154	30.7617	72.9199	30.7617	75.2072	30.7617	72.8476	30.7617	75.1466	30.7617	72.7976	30.7617	75.0353	30.7617	72.7707	30.7617	74.8781	30.7617	72.7679	30.7617	74.683	30.7617	72.7905	30.7617	74.4604	30.7617	72.84	30.7617	74.2219	30.7617	72.9177	30.7617	73.9796	30.7617	73.0252	30.7617	73.7445	30.7617	73.163	30.7617	73.5259	30.7617	73.3306
32.2266	76.321	32.2266	76.1157	32.2266	76.5242	32.2266	75.9147	32.2266	76.718	32.2266	75.7233	32.2266	76.8946	32.2266	75.5457	32.2266	77.0459	32.2266	75.3851	32.2266	77.1638	32.2266	75.2439	32.2266	77.2413	32.2266	75.1237	32.2266	77.2727	32.2266	75.0254	32.2266	77.2546	32.2266	74.9499	32.2266	77.1861	32.2266	74.8976	32.2266	77.0693	32.2266	74.8691	32.2266	76.9096	32.2266	74.865	32.2266	76.7149	32.2266	74.8861	32.2266	76.4955	32.2266	74.9335	32.2266	76.2627	32.2266	75.0084	32.2266	76.0279	32.2266	75.1115	32.2266	75.8013	32.2266	75.2436	32.2266	75.5914	32.2266	75.4042
33.6914	77.9705	33.6914	77.7743	33.6914	78.1624	33.6914	77.5798	33.6914	78.3432	33.6914	77.3924	33.6914	78.5054	33.6914	77.2164	33.6914	78.6418	33.6914	77.0555	33.6914	78.7452	33.6914	76.9124	33.6914	78.8094	33.6914	76.7892	33.6914	78.8294	33.6914	76.6873	33.6914	78.8024	33.6914	76.608	33.6914	78.728	33.6914	76.5519	33.6914	78.6089	33.6914	76.5197	33.6914	78.4502	33.6914	76.5119	33.6914	78.26	33.6914	76.5291	33.6914	78.0481	33.6914	76.5721	33.6914	77.8251	33.6914	76.6415	33.6914	77.6016	33.6914	76.738	33.6914	77.387	33.6914	76.8619	33.6914	77.1889	33.6914	77.0128
35.1563	79.1655	35.1563	78.9777	35.1563	79.3471	35.1563	78.7898	35.1563	79.5163	35.1563	78.607	35.1563	79.6661	35.1563	78.4338	35.1563	79.7898	35.1563	78.2741	35.1563	79.881	35.1563	78.1308	35.1563	79.9341	35.1563	78.0066	35.1563	79.9449	35.1563	77.9032	35.1563	79.9113	35.1563	77.8221	35.1563	79.8333	35.1563	77.7641	35.1563	79.7138	35.1563	77.7301	35.1563	79.5583	35.1563	77.7204	35.1563	79.3743	35.1563	77.7355	35.1563	79.1713	35.1563	77.7757	35.1563	78.9592	35.1563	77.8414	35.1563	78.7476	35.1563	77.9329	35.1563	78.5452	35.1563	78.0501	35.1563	78.3585	35.1563	78.1925
36.6211	79.9505	36.6211	79.7688	36.6211	80.1245	36.6211	79.5851	36.6211	80.2848	36.6211	79.4045	36.6211	80.425	36.6211	79.2317	36.6211	80.539	36.6211	79.0706	36.6211	80.6208	36.6211	78.9247	36.6211	80.6655	36.6211	78.7967	36.6211	80.6693	36.6211	78.6889	36.6211	80.6305	36.6211	78.603	36.6211	80.5493	36.6211	78.5403	36.6211	80.4287	36.6211	78.5018	36.6211	80.274	36.6211	78.488	36.6211	80.0926	36.6211	78.4994	36.6211	79.8935	36.6211	78.5363	36.6211	79.6863	36.6211	78.5989	36.6211	79.48	36.6211	78.6873	36.6211	79.2829	36.6211	78.8011	36.6211	79.1012	36.6211	78.9396
38.0859	80.6731	38.0859	80.5059	38.0859	80.8322	38.0859	80.336	38.0859	80.9775	38.0859	80.1683	38.0859	81.1033	38.0859	80.0071	38.0859	81.2038	38.0859	79.8565	38.0859	81.2737	38.0859	79.7197	38.0859	81.3088	38.0859	79.5994	38.0859	81.306	38.0859	79.498	38.0859	81.2641	38.0859	79.417	38.0859	81.1839	38.0859	79.3577	38.0859	81.0685	38.0859	79.321	38.0859	80.9232	38.0859	79.3074	38.0859	80.7553	38.0859	79.3171	38.0859	80.5728	38.0859	79.3501	38.0859	80.3843	38.0859	79.4065	38.0859	80.198	38.0859	79.486	38.0859	80.0206	38.0859	79.5883	38.0859	79.8575	38.0859	79.7126
39.5508	81.0985	39.5508	80.9376	39.5508	81.2503	39.5508	80.7729	39.5508	81.3874	39.5508	80.6092	39.5508	81.5045	39.5508	80.451	39.5508	81.596	39.5508	80.3024	39.5508	81.6571	39.5508	80.1666	39.5508	81.684	39.5508	80.0467	39.5508	81.674	39.5508	79.945	39.5508	81.6264	39.5508	79.8633	39.5508	81.5424	39.5508	79.8029	39.5508	81.4254	39.5508	79.7646	39.5508	81.281	39.5508	79.7488	39.5508	81.1162	39.5508	79.7556	39.5508	80.9391	39.5508	79.785	39.5508	80.7579	39.5508	79.8367	39.5508	80.5801	39.5508	79.9104	39.5508	80.4119	39.5508	80.0058	39.5508	80.2582	39.5508	80.1221
41.0156	81.4741	41.0156	81.3158	41.0156	81.6222	41.0156	81.1525	41.0156	81.7547	41.0156	80.9893	41.0156	81.8662	41.0156	80.8308	41.0156	81.9517	41.0156	80.6811	41.0156	82.0067	41.0156	80.544	41.0156	82.0276	41.0156	80.4227	41.0156	82.0124	41.0156	80.3198	41.0156	81.9607	41.0156	80.2373	41.0156	81.874	41.0156	80.1764	41.0156	81.756	41.0156	80.1381	41.0156	81.6125	41.0156	80.1227	41.0156	81.4504	41.0156	80.13	41.0156	81.2777	41.0156	80.1596	41.0156	81.102	41.0156	80.2111	41.0156	80.9304	41.0156	80.2836	41.0156	80.7686	41.0156	80.3767	41.0156	80.6206	41.0156	80.4894
42.4805	81.9109	42.4805	81.7579	42.4805	82.0528	42.4805	81.5985	42.4805	82.1782	42.4805	81.4379	42.4805	82.2822	42.4805	81.2804	42.4805	82.3599	42.4805	81.1304	42.4805	82.4073	42.4805	80.9916	42.4805	82.4212	42.4805	80.8672	42.4805	82.3998	42.4805	80.7601	42.4805	82.3429	42.4805	80.6725	42.4805	82.2523	42.4805	80.606	42.4805	82.1318	42.4805	80.5616	42.4805	81.987	42.4805	80.54	42.4805	81.8249	42.4805	80.5412	42.4805	81.653	42.4805	80.5651	42.4805	81.4789	42.4805	80.6113	42.4805	81.3094	42.4805	80.6791	42.4805	81.1501	42.4805	80.768	42.4805	81.005	42.4805	80.877
43.9453	82.2684	43.9453	82.1189	43.9453	82.4062	43.9453	81.9626	43.9453	82.527	43.9453	81.8043	43.9453	82.6263	43.9453	81.6487	43.9453	82.6993	43.9453	81.5	43.9453	82.7425	43.9453	81.3623	43.9453	82.7528	43.9453	81.2389	43.9453	82.7289	43.9453	81.1329	43.9453	82.6709	43.9453	81.0464	43.9453	82.5809	43.9453	80.9812	43.9453	82.4627	43.9453	80.9385	43.9453	82.3219	43.9453	80.9186	43.9453	82.1653	43.9453	80.9215	43.9453	82.0002	43.9453	80.9467	43.9453	81.8334	43.9453	80.9937	43.9453	81.6713	43.9453	81.0614	43.9453	81.5186	43.9453	81.149	43.9453	81.3791	43.9453	81.2553
45.4102	82.609	45.4102	82.4609	45.4102	82.7438	45.4102	82.3045	45.4102	82.8605	45.4102	82.1447	45.4102	82.9542	45.4102	81.9862	45.4102	83.0208	45.4102	81.8337	45.4102	83.0567	45.4102	81.6911	45.4102	83.0595	45.4102	81.5624	45.4102	83.0278	45.4102	81.4507	45.4102	82.9624	45.4102	81.3586	45.4102	82.8656	45.4102	81.2882	45.4102	82.7418	45.4102	81.2406	45.4102	82.5967	45.4102	81.2164	45.4102	82.4373	45.4102	81.2157	45.4102	82.2709	45.4102	81.2378	45.4102	82.1044	45.4102	81.2819	45.4102	81.9437	45.4102	81.347	45.4102	81.7933	45.4102	81.4319	45.4102	81.6565	45.4102	81.5355
46.875	82.9735	46.875	82.8293	46.875	83.1035	46.875	82.6754	46.875	83.2143	46.875	82.5168	46.875	83.3015	46.875	82.358	46.875	83.361	46.875	82.2035	46.875	83.3894	46.875	82.0573	46.875	83.3843	46.875	81.9231	46.875	83.3445	46.875	81.8044	46.875	83.2709	46.875	81.7038	46.875	83.1658	46.875	81.6235	46.875	83.0337	46.875	81.5652	46.875	82.8807	46.875	81.5299	46.875	82.7138	46.875	81.5178	46.875	82.5408	46.875	81.5291	46.875	82.3688	46.875	81.5632	46.875	82.2042	46.875	81.6197	46.875	82.0518	46.875	81.6978	46.875	81.9151	46.875	81.7966
48.3398	83.2772	48.3398	83.1353	48.3398	83.4054	48.3398	82.9845	48.3398	83.5152	48.3398	82.8295	48.3398	83.6021	48.3398	82.6751	48.3398	83.6622	48.3398	82.5257	48.3398	83.6922	48.3398	82.3854	48.3398	83.69	48.3398	82.2581	48.3398	83.6546	48.3398	82.1468	48.3398	83.5868	48.3398	82.0544	48.3398	83.4892	48.3398	81.9828	48.3398	83.366	48.3398	81.9332	48.3398	83.2231	48.3398	81.9064	48.3398	83.0672	48.3398	81.9024	48.3398	82.9054	48.3398	81.9207	48.3398	82.7441	48.3398	81.9605	48.3398	82.5891	48.3398	82.0208	48.3398	82.4446	48.3398	82.1005	48.3398	82.3137	48.3398	82.1985
51.2695	84.0026	51.2695	83.8651	51.2695	84.1251	51.2695	83.7173	51.2695	84.2281	51.2695	83.5638	51.2695	84.3075	51.2695	83.4095	51.2695	84.3599	51.2695	83.2592	51.2695	84.3825	51.2695	83.1172	51.2695	84.3739	51.2695	82.9877	51.2695	84.3336	51.2695	82.8743	51.2695	84.263	51.2695	82.7801	51.2695	84.1649	51.2695	82.7074	51.2695	84.0439	51.2695	82.6576	51.2695	83.9056	51.2695	82.6314	51.2695	83.7563	51.2695	82.6287	51.2695	83.6023	51.2695	82.6487	51.2695	83.4495	51.2695	82.6901	51.2695	83.3024	51.2695	82.7514	51.2695	83.1648	51.2695	82.831	51.2695	83.0392	51.2695	82.9274
52.7344	84.4341	52.7344	84.3029	52.7344	84.5494	52.7344	84.1602	52.7344	84.6443	52.7344	84.0107	52.7344	84.7153	52.7344	83.8593	52.7344	84.759	52.7344	83.7106	52.7344	84.7734	52.7344	83.5692	52.7344	84.757	52.7344	83.4394	52.7344	84.7103	52.7344	83.3252	52.7344	84.6349	52.7344	83.2296	52.7344	84.5342	52.7344	83.1552	52.7344	84.4129	52.7344	83.1037	52.7344	84.2769	52.7344	83.0757	52.7344	84.1324	52.7344	83.071	52.7344	83.9852	52.7344	83.0889	52.7344	83.8407	52.7344	83.1276	52.7344	83.7026	52.7344	83.1856	52.7344	83.5739	52.7344	83.2608	52.7344	83.4564	52.7344	83.3516
54.1992	84.8381	54.1992	84.7117	54.1992	84.947	54.1992	84.5721	54.1992	85.0342	54.1992	84.424	54.1992	85.0962	54.1992	84.2721	54.1992	85.1299	54.1992	84.1211	54.1992	85.1333	54.1992	83.9756	54.1992	85.1056	54.1992	83.8401	54.1992	85.0471	54.1992	83.7184	54.1992	84.9601	54.1992	83.6139	54.1992	84.8481	54.1992	83.5293	54.1992	84.7163	54.1992	83.4665	54.1992	84.5708	54.1992	83.4265	54.1992	84.4183	54.1992	83.4095	54.1992	84.2651	54.1992	83.4149	54.1992	84.1166	54.1992	83.4418	54.1992	83.9771	54.1992	83.4887	54.1992	83.8494	54.1992	83.5541	54.1992	83.7356	54.1992	83.6368
55.6641	85.0685	55.6641	84.9444	55.6641	85.1759	55.6641	84.8078	55.6641	85.2625	55.6641	84.6636	55.6641	85.3246	55.6641	84.5163	55.6641	85.3594	55.6641	84.3707	55.6641	85.365	55.6641	84.2313	55.6641	85.3405	55.6641	84.1025	55.6641	85.2866	55.6641	83.9881	55.6641	85.2054	55.6641	83.8913	55.6641	85.1006	55.6641	83.8146	55.6641	84.9772	55.6641	83.7596	55.6641	84.8413	55.6641	83.7272	55.6641	84.6988	55.6641	83.7172	55.6641	84.5557	55.6641	83.7287	55.6641	84.4168	55.6641	83.7604	55.6641	84.2858	55.6641	83.8106	55.6641	84.1649	55.6641	83.8775	55.6641	84.0559	55.6641	83.9597
58.5938	85.7053	58.5938	85.5829	58.5938	85.8106	58.5938	85.4478	58.5938	85.8948	58.5938	85.305	58.5938	85.9542	58.5938	85.1591	58.5938	85.9864	58.5938	85.0154	58.5938	85.9896	58.5938	84.8785	58.5938	85.9633	58.5938	84.753	58.5938	85.9087	58.5938	84.6429	58.5938	85.8282	58.5938	84.5514	58.5938	85.726	58.5938	84.4809	58.5938	85.6073	58.5938	84.4329	58.5938	85.478	58.5938	84.4077	58.5938	85.344	58.5938	84.4046	58.5938	85.2106	58.5938	84.4221	58.5938	85.0821	58.5938	84.4582	58.5938	84.9611	58.5938	84.5107	58.5938	84.8495	58.5938	84.5776	58.5938	84.7479	58.5938	84.657
60.0586	86.0439	60.0586	85.9224	60.0586	86.1477	60.0586	85.7876	60.0586	86.2298	60.0586	85.6445	60.0586	86.2867	60.0586	85.498	60.0586	86.316	60.0586	85.3532	60.0586	86.3161	60.0586	85.215	60.0586	86.2868	60.0586	85.0882	60.0586	86.2294	60.0586	84.9767	60.0586	86.1465	60.0586	84.8842	60.0586	86.0425	60.0586	84.813	60.0586	85.9228	60.0586	84.7645	60.0586	85.7932	60.0586	84.7391	60.0586	85.6599	60.0586	84.7359	60.0586	85.5279	60.0586	84.7534	60.0586	85.4013	60.0586	84.7893	60.0586	85.2827	60.0586	84.8413	60.0586	85.1734	60.0586	84.9072	60.0586	85.0741	60.0586	84.9852
62.9883	86.7327	62.9883	86.6134	62.9883	86.8331	62.9883	86.4797	62.9883	86.9109	62.9883	86.3364	62.9883	86.9629	62.9883	86.1888	62.9883	86.9868	62.9883	86.042	62.9883	86.9817	62.9883	85.9014	62.9883	86.9476	62.9883	85.772	62.9883	86.8863	62.9883	85.6582	62.9883	86.801	62.9883	85.5638	62.9883	86.6963	62.9883	85.4916	62.9883	86.5776	62.9883	85.4431	62.9883	86.4511	62.9883	85.4187	62.9883	86.3223	62.9883	85.4173	62.9883	86.1958	62.9883	85.4371	62.9883	86.0752	62.9883	85.4754	62.9883	85.9621	62.9883	85.5294	62.9883	85.8575	62.9883	85.5964	62.9883	85.7615	62.9883	85.6742
64.4531	87.0576	64.4531	86.94	64.4531	87.156	64.4531	86.8073	64.4531	87.2312	64.4531	86.6646	64.4531	87.2804	64.4531	86.5169	64.4531	87.3015	64.4531	86.3697	64.4531	87.2936	64.4531	86.2284	64.4531	87.2571	64.4531	86.098	64.4531	87.1939	64.4531	85.9833	64.4531	87.1076	64.4531	85.8882	64.4531	87.0027	64.4531	85.8155	64.4531	86.8849	64.4531	85.767	64.4531	86.7602	64.4531	85.7428	64.4531	86.634	64.4531	85.7421	64.4531	86.5107	64.4531	85.7627	64.4531	86.3933	64.4531	85.8019	64.4531	86.2834	64.4531	85.8566	64.4531	86.1814	64.4531	85.9238	64.4531	86.0873	64.4531	86.0012
67.3828	87.6113	67.3828	87.4947	67.3828	87.7074	67.3828	87.3619	67.3828	87.7794	67.3828	87.2179	67.3828	87.8243	67.3828	87.068	67.3828	87.8405	67.3828	86.918	67.3828	87.8275	67.3828	86.7735	67.3828	87.786	67.3828	86.6401	67.3828	87.7185	67.3828	86.5229	67.3828	87.6288	67.3828	86.4261	67.3828	87.522	67.3828	86.3528	67.3828	87.4041	67.3828	86.3049	67.3828	87.2811	67.3828	86.2825	67.3828	87.1583	67.3828	86.2843	67.3828	87.0397	67.3828	86.3079	67.3828	86.9277	67.3828	86.3499	67.3828	86.8233	67.3828	86.4066	67.3828	86.7261	67.3828	86.4748	67.3828	86.6357	67.3828	86.5517
68.8477	87.8554	68.8477	87.7375	68.8477	87.9518	68.8477	87.6025	68.8477	88.0232	68.8477	87.4553	68.8477	88.0671	68.8477	87.3013	68.8477	88.0817	68.8477	87.1464	68.8477	88.0669	68.8477	86.9965	68.8477	88.0238	68.8477	86.8575	68.8477	87.9548	68.8477	86.7349	68.8477	87.864	68.8477	86.6333	68.8477	87.7567	68.8477	86.5564	68.8477	87.6386	68.8477	86.5062	68.8477	87.5156	68.8477	86.483	68.8477	87.3928	68.8477	86.4856	68.8477	87.2739	68.8477	86.5115	68.8477	87.1611	68.8477	86.557	68.8477	87.0548	68.8477	86.6182	68.8477	86.955	68.8477	86.6911	68.8477	86.861	68.8477	86.7727
71.7773	88.4887	71.7773	88.3807	71.7773	88.5737	71.7773	88.2536	71.7773	88.6325	71.7773	88.112	71.7773	88.663	71.7773	87.9612	71.7773	88.6643	71.7773	87.807	71.7773	88.6366	71.7773	87.6554	71.7773	88.5819	71.7773	87.5125	71.7773	88.5035	71.7773	87.3842	71.7773	88.4063	71.7773	87.2756	71.7773	88.2958	71.7773	87.1909	71.7773	88.1783	71.7773	87.1329	71.7773	88.0593	71.7773	87.1026	71.7773	87.9434	71.7773	87.0992	71.7773	87.8333	71.7773	87.1203	71.7773	87.7299	71.7773	87.1621	71.7773	87.6327	71.7773	87.2204	71.7773	87.5406	71.7773	87.2906	71.7773	87.4527	71.7773	87.3689
74.707	89.068	74.707	88.9716	74.707	89.1404	74.707	88.8553	74.707	89.186	74.707	88.7234	74.707	89.2029	74.707	88.5812	74.707	89.1903	74.707	88.4343	74.707	89.1492	74.707	88.2886	74.707	89.0819	74.707	88.1501	74.707	88.9924	74.707	88.0244	74.707	88.8862	74.707	87.9166	74.707	88.7699	74.707	87.8309	74.707	88.6501	74.707	87.7698	74.707	88.5329	74.707	87.7345	74.707	88.4229	74.707	87.7241	74.707	88.3224	74.707	87.7364	74.707	88.2316	74.707	87.7677	74.707	88.1493	74.707	87.8137	74.707	88.0732	74.707	87.8702	74.707	88.0015	74.707	87.9336
77.6367	89.3822	77.6367	89.2919	77.6367	89.4482	77.6367	89.181	77.6367	89.4869	77.6367	89.0543	77.6367	89.4967	77.6367	88.917	77.6367	89.4771	77.6367	88.775	77.6367	89.4294	77.6367	88.6343	77.6367	89.3566	77.6367	88.5012	77.6367	89.2633	77.6367	88.3813	77.6367	89.1557	77.6367	88.2797	77.6367	89.0409	77.6367	88.2005	77.6367	88.9261	77.6367	88.1458	77.6367	88.8174	77.6367	88.1164	77.6367	88.719	77.6367	88.111	77.6367	88.6324	77.6367	88.1266	77.6367	88.557	77.6367	88.1592	77.6367	88.4902	77.6367	88.2038	77.6367	88.4287	77.6367	88.2561	77.6367	88.3698	77.6367	88.3121
79.1016	89.4862	79.1016	89.3977	79.1016	89.5498	79.1016	89.288	79.1016	89.5855	79.1016	89.162	79.1016	89.5916	79.1016	89.0251	79.1016	89.5681	79.1016	88.8832	79.1016	89.5164	79.1016	88.7426	79.1016	89.4396	79.1016	88.6097	79.1016	89.3429	79.1016	88.4904	79.1016	89.2327	79.1016	88.3898	79.1016	89.1167	79.1016	88.312	79.1016	89.0022	79.1016	88.2593	79.1016	88.8956	79.1016	88.232	79.1016	88.801	79.1016	88.2287	79.1016	88.7198	79.1016	88.2461	79.1016	88.6507	79.1016	88.2796	79.1016	88.5905	79.1016	88.3243	79.1016	88.5353	79.1016	88.3751	79.1016	88.4819	79.1016	88.4284
82.0313	89.7944	82.0313	89.7086	82.0313	89.8537	82.0313	89.6002	82.0313	89.8838	82.0313	89.4742	82.0313	89.8832	82.0313	89.336	82.0313	89.852	82.0313	89.192	82.0313	89.7921	82.0313	89.0487	82.0313	89.7071	82.0313	88.9129	82.0313	89.6028	82.0313	88.791	82.0313	89.4863	82.0313	88.6885	82.0313	89.3658	82.0313	88.6096	82.0313	89.2494	82.0313	88.5569	82.0313	89.1437	82.0313	88.5305	82.0313	89.0529	82.0313	88.5286	82.0313	88.9779	82.0313	88.5475	82.0313	88.9166	82.0313	88.5819	82.0313	88.865	82.0313	88.6263	82.0313	88.8183	82.0313	88.6752	82.0313	88.7723	82.0313	88.7246
84.9609	90.0936	84.9609	90.0098	84.9609	90.1493	84.9609	89.9018	84.9609	90.1744	84.9609	89.7744	84.9609	90.1676	84.9609	89.6335	84.9609	90.1294	84.9609	89.4855	84.9609	90.0623	84.9609	89.3376	84.9609	89.9706	84.9609	89.197	84.9609	89.8606	84.9609	89.0706	84.9609	89.7402	84.9609	88.9647	84.9609	89.6182	84.9609	88.8838	84.9609	89.5029	84.9609	88.8308	84.9609	89.401	84.9609	88.806	84.9609	89.316	84.9609	88.8073	84.9609	89.2483	84.9609	88.8303	84.9609	89.1946	84.9609	88.8692	84.9609	89.15	84.9609	88.9176	84.9609	89.1088	84.9609	88.9694	84.9609	89.0662	84.9609	89.0198
87.8906	90.1022	87.8906	90.0225	87.8906	90.1518	87.8906	89.9163	87.8906	90.1691	87.8906	89.7886	87.8906	90.1531	87.8906	89.6449	87.8906	90.1046	87.8906	89.492	87.8906	90.0264	87.8906	89.3369	87.8906	89.9235	87.8906	89.1873	87.8906	89.8027	87.8906	89.0506	87.8906	89.6727	87.8906	88.9337	87.8906	89.5428	87.8906	88.842	87.8906	89.4217	87.8906	88.779	87.8906	89.3164	87.8906	88.7457	87.8906	89.2304	87.8906	88.7403	87.8906	89.1633	87.8906	88.7587	87.8906	89.1114	87.8906	88.7948	87.8906	89.0688	87.8906	88.8416	87.8906	89.0295	87.8906	88.8927	87.8906	88.9883	87.8906	88.9426
90.8203	90.0959	90.8203	90.0251	90.8203	90.1357	90.8203	89.9269	90.8203	90.1425	90.8203	89.8059	90.8203	90.1156	90.8203	89.6678	90.8203	90.0564	90.8203	89.5192	90.8203	89.9681	90.8203	89.3673	90.8203	89.8565	90.8203	89.2195	90.8203	89.7294	90.8203	89.0836	90.8203	89.5961	90.8203	88.9664	90.8203	89.4667	90.8203	88.8736	90.8203	89.3504	90.8203	88.809	90.8203	89.2539	90.8203	88.7739	90.8203	89.1797	90.8203	88.7667	90.8203	89.1263	90.8203	88.7835	90.8203	89.0884	90.8203	88.8181	90.8203	89.0588	90.8203	88.8633	90.8203	89.0303	90.8203	88.9118	90.8203	88.9975	90.8203	88.9578
95.2148	90.1463	95.2148	90.0844	95.2148	90.1739	95.2148	89.9917	95.2148	90.1652	95.2148	89.873	95.2148	90.12	95.2148	89.7344	95.2148	90.0404	95.2148	89.5828	95.2148	89.9306	95.2148	89.4258	95.2148	89.7977	95.2148	89.2719	95.2148	89.6514	95.2148	89.1293	95.2148	89.5031	95.2148	89.0059	95.2148	89.3649	95.2148	88.908	95.2148	89.2475	95.2148	88.8401	95.2148	89.158	95.2148	88.8036	95.2148	89.0981	95.2148	88.7968	95.2148	89.0641	95.2148	88.815	95.2148	89.048	95.2148	88.851	95.2148	89.0399	95.2148	88.8964	95.2148	89.0303	95.2148	88.9426	95.2148	89.0123	95.2148	88.9828
98.1445	90.0176	98.1445	89.9629	98.1445	90.0357	98.1445	89.8751	98.1445	90.0152	98.1445	89.759	98.1445	89.9561	98.1445	89.6208	98.1445	89.8609	98.1445	89.4677	98.1445	89.7345	98.1445	89.3078	98.1445	89.585	98.1445	89.1497	98.1445	89.4231	98.1445	89.0022	98.1445	89.2621	98.1445	88.8738	98.1445	89.1153	98.1445	88.7714	98.1445	88.9948	98.1445	88.6997	98.1445	88.9081	98.1445	88.6604	98.1445	88.8565	98.1445	88.6515	98.1445	88.835	98.1445	88.6681	98.1445	88.8338	98.1445	88.7023	98.1445	88.8411	98.1445	88.7448	98.1445	88.8458	98.1445	88.7866	98.1445	88.8399	98.1445	88.8199
101.074	89.9465	101.074	89.9021	101.074	89.9516	101.074	89.8219	101.074	89.9158	101.074	89.7108	101.074	89.8391	101.074	89.5747	101.074	89.7242	101.074	89.4208	101.074	89.5767	101.074	89.2572	101.074	89.4056	101.074	89.0927	101.074	89.2229	101.074	88.9365	101.074	89.0434	101.074	88.7975	101.074	88.8825	101.074	88.6832	101.074	88.7538	101.074	88.5993	101.074	88.6656	101.074	88.5481	101.074	88.619	101.074	88.5285	101.074	88.6076	101.074	88.5357	101.074	88.6196	101.074	88.5616	101.074	88.641	101.074	88.5965	101.074	88.6591	101.074	88.6306	101.074	88.6652	101.074	88.6553
105.469	89.8307	105.469	89.8059	105.469	89.8125	105.469	89.7419	105.469	89.749	105.469	89.644	105.469	89.64	105.469	89.5185	105.469	89.4882	105.469	89.3727	105.469	89.2995	105.469	89.2146	105.469	89.0842	105.469	89.053	105.469	88.8568	105.469	88.8967	105.469	88.6359	105.469	88.7542	105.469	88.4415	105.469	88.633	105.469	88.2918	105.469	88.5385	105.469	88.1987	105.469	88.4732	105.469	88.1639	105.469	88.436	105.469	88.1787	105.469	88.4223	105.469	88.2271	105.469	88.4242	105.469	88.2902	105.469	88.4321	105.469	88.3511	105.469	88.4356	105.469	88.3982	105.469	88.4262
108.398	89.8549	108.398	89.828	108.398	89.8372	108.398	89.7611	108.398	89.7719	108.398	89.6597	108.398	89.658	108.398	89.5306	108.398	89.4971	108.398	89.3815	108.398	89.2941	108.398	89.2204	108.398	89.0581	108.398	89.0563	108.398	88.8034	108.398	88.8977	108.398	88.5488	108.398	88.7528	108.398	88.3166	108.398	88.6284	108.398	88.1291	108.398	88.5293	108.398	88.003	108.398	88.4569	108.398	87.945	108.398	88.4093	108.398	87.9494	108.398	88.3814	108.398	88.0005	108.398	88.365	108.398	88.0776	108.398	88.3506	108.398	88.1606	108.398	88.3285	108.398	88.2346	108.398	88.2911
112.793	89.8881	112.793	89.8503	112.793	89.88	112.793	89.7713	112.793	89.823	112.793	89.6569	112.793	89.7158	112.793	89.5143	112.793	89.56	112.793	89.3515	112.793	89.36	112.793	89.1773	112.793	89.1246	112.793	89.0012	112.793	88.8671	112.793	88.8328	112.793	88.6059	112.793	88.6808	112.793	88.3628	112.793	88.5527	112.793	88.1603	112.793	88.4529	112.793	88.0165	112.793	88.3829	112.793	87.9402	112.793	88.3399	112.793	87.9283	112.793	88.3175	112.793	87.9668	112.793	88.3064	112.793	88.0355	112.793	88.2962	112.793	88.114	112.793	88.2769	112.793	88.1858	112.793	88.2411
117.188	89.8459	117.188	89.8126	117.188	89.8323	117.188	89.7371	117.188	89.7689	117.188	89.6252	117.188	89.6545	117.188	89.4842	117.188	89.4911	117.188	89.3226	117.188	89.2836	117.188	89.1493	117.188	89.0414	117.188	88.9743	117.188	88.7787	117.188	88.8075	117.188	88.515	117.188	88.658	117.188	88.273	117.188	88.5334	117.188	88.0762	117.188	88.4384	117.188	87.9427	117.188	88.374	117.188	87.8804	117.188	88.3371	117.188	87.8846	117.188	88.3206	117.188	87.9392	117.188	88.3146	117.188	88.0223	117.188	88.3078	117.188	88.1124	117.188	88.2898	117.188	88.1924	117.188	88.2524
120.117	89.8244	120.117	89.7939	120.117	89.8075	120.117	89.7208	120.117	89.7398	120.117	89.6112	120.117	89.6204	120.117	89.4725	120.117	89.4505	120.117	89.3133	120.117	89.2352	120.117	89.1429	120.117	88.984	120.117	88.9713	120.117	88.7113	120.117	88.8083	120.117	88.4377	120.117	88.6633	120.117	88.1874	120.117	88.5435	120.117	87.9856	120.117	88.4534	120.117	87.8523	120.117	88.3935	120.117	87.7963	120.117	88.3601	120.117	87.8123	120.117	88.3455	120.117	87.8827	120.117	88.3393	120.117	87.9834	120.117	88.3296	120.117	88.0906	120.117	88.3054	120.117	88.186	120.117	88.2587
124.512	89.665	124.512	89.6295	124.512	89.6515	124.512	89.5504	124.512	89.5856	124.512	89.4345	124.512	89.4659	124.512	89.2899	124.512	89.2936	124.512	89.1261	124.512	89.0739	124.512	88.9534	124.512	88.8163	124.512	88.7829	124.512	88.5362	124.512	88.6252	124.512	88.255	124.512	88.4901	124.512	87.9989	124.512	88.3848	124.512	87.7952	124.512	88.3128	124.512	87.6658	124.512	88.2731	124.512	87.6207	124.512	88.2598	124.512	87.6538	124.512	88.2632	124.512	87.7454	124.512	88.2706	124.512	87.8687	124.512	88.2689	124.512	87.9971	124.512	88.2462	124.512	88.1097	124.512	88.1942
128.906	89.6093	128.906	89.5667	128.906	89.5995	128.906	89.4772	128.906	89.5335	128.906	89.3479	128.906	89.4098	128.906	89.1876	128.906	89.2294	128.906	89.0063	128.906	88.9971	128.906	88.8154	128.906	88.7228	128.906	88.6273	128.906	88.422	128.906	88.4545	128.906	88.1174	128.906	88.3081	128.906	87.8377	128.906	88.1967	128.906	87.6134	128.906	88.1245	128.906	87.4702	128.906	88.0902	128.906	87.4203	128.906	88.0865	128.906	87.4581	128.906	88.1016	128.906	87.5615	128.906	88.1206	128.906	87.6999	128.906	88.1281	128.906	87.843	128.906	88.1103	128.906	87.967	128.906	88.0577
133.301	89.5125	133.301	89.4646	133.301	89.5062	133.301	89.368	133.301	89.442	133.301	89.2297	133.301	89.3184	133.301	89.0587	133.301	89.1365	133.301	88.8654	133.301	88.9012	133.301	88.662	133.301	88.622	133.301	88.4617	133.301	88.3146	133.301	88.2783	133.301	88.0018	133.301	88.1243	133.301	87.7128	133.301	88.0095	133.301	87.4794	133.301	87.9385	133.301	87.3288	133.301	87.9098	133.301	87.275	133.301	87.9154	133.301	87.3127	133.301	87.9417	133.301	87.4194	133.301	87.9721	133.301	87.5629	133.301	87.9893	133.301	87.711	133.301	87.9784	133.301	87.8382	133.301	87.9292
139.16	89.3535	139.16	89.3034	139.16	89.3465	139.16	89.2018	139.16	89.2786	139.16	89.056	139.16	89.1482	139.16	88.875	139.16	88.9565	139.16	88.67	139.16	88.7081	139.16	88.4537	139.16	88.413	139.16	88.2406	139.16	88.0875	139.16	88.0459	139.16	87.756	139.16	87.884	139.16	87.4501	139.16	87.7663	139.16	87.2054	139.16	87.6983	139.16	87.0524	139.16	87.6787	139.16	87.0068	139.16	87.698	139.16	87.0621	139.16	87.7405	139.16	87.192	139.16	87.7868	139.16	87.3594	139.16	87.8171	139.16	87.5277	139.16	87.8142	139.16	87.6689	139.16	87.7662
143.555	89.2321	143.555	89.1757	143.555	89.2271	143.555	89.0638	143.555	89.1568	143.555	88.904	143.555	89.0194	143.555	88.7062	143.555	88.8157	143.555	88.4821	143.555	88.5505	143.555	88.2458	143.555	88.2338	143.555	88.0137	143.555	87.8828	143.555	87.803	143.555	87.5236	143.555	87.6302	143.555	87.1914	143.555	87.5084	143.555	86.9261	143.555	87.444	143.555	86.7631	143.555	87.4347	143.555	86.7204	143.555	87.469	143.555	86.7906	143.555	87.5284	143.555	86.9428	143.555	87.5905	143.555	87.1344	143.555	87.6327	143.555	87.3242	143.555	87.6359	143.555	87.4812	143.555	87.587
147.949	89.1776	147.949	89.1069	147.949	89.1817	147.949	88.9753	147.949	89.1152	147.949	88.7903	147.949	88.9761	147.949	88.5617	147.949	88.7649	147.949	88.3021	147.949	88.4858	147.949	88.0269	147.949	88.148	147.949	87.7545	147.949	87.7682	147.949	87.5055	147.949	87.3729	147.949	87.3006	147.949	86.9993	147.949	87.1566	147.949	86.6918	147.949	87.0824	147.949	86.4922	147.949	87.0757	147.949	86.4249	147.949	87.1228	147.949	86.4848	147.949	87.2009	147.949	86.6391	147.949	87.2829	147.949	86.8401	147.949	87.3425	147.949	87.0409	147.949	87.3576	147.949	87.2057	147.949	87.3136
153.809	89.2305	153.809	89.1668	153.809	89.2232	153.809	89.0365	153.809	89.1415	153.809	88.8458	153.809	88.9839	153.809	88.6025	153.809	88.7509	153.809	88.317	153.809	88.4462	153.809	88.0025	153.809	88.0786	153.809	87.6764	153.809	87.6639	153.809	87.3596	153.809	87.2278	153.809	87.076	153.809	86.8075	153.809	86.8486	153.809	86.4488	153.809	86.6953	153.809	86.197	153.809	86.6222	153.809	86.0811	153.809	86.6217	153.809	86.0999	153.809	86.6726	153.809	86.2215	153.809	86.7454	153.809	86.3967	153.809	86.8092	153.809	86.5758	153.809	86.8369	153.809	86.7209	153.809	86.81
159.668	89.3097	159.668	89.2318	159.668	89.3171	159.668	89.0884	159.668	89.2504	159.668	88.8862	159.668	89.1076	159.668	88.6339	159.668	88.8885	159.668	88.3429	159.668	88.596	159.668	88.0279	159.668	88.2369	159.668	87.7073	159.668	87.8247	159.668	87.403	159.668	87.3824	159.668	87.1386	159.668	86.9446	159.668	86.9354	159.668	86.557	159.668	86.8073	159.668	86.2688	159.668	86.7563	159.668	86.1169	159.668	86.7702	159.668	86.1094	159.668	86.825	159.668	86.2203	159.668	86.8911	159.668	86.401	159.668	86.9384	159.668	86.5983	159.668	86.9424	159.668	86.7693	159.668	86.8874
165.527	89.5178	165.527	89.457	165.527	89.5062	165.527	89.3276	165.527	89.4204	165.527	89.1343	165.527	89.2598	165.527	88.8839	165.527	89.0263	165.527	88.5857	165.527	88.7251	165.527	88.2525	165.527	88.366	165.527	87.9017	165.527	87.9658	165.527	87.556	165.527	87.5504	165.527	87.2425	165.527	87.1552	165.527	86.9892	165.527	86.8225	165.527	86.819	165.527	86.5919	165.527	86.7423	165.527	86.4868	165.527	86.7519	165.527	86.5032	165.527	86.8242	165.527	86.6105	165.527	86.9258	165.527	86.7628	165.527	87.0217	165.527	86.9143	165.527	87.0822	165.527	87.0294	165.527	87.0874
171.387	89.4661	171.387	89.413	171.387	89.4441	171.387	89.2896	171.387	89.3438	171.387	89.1017	171.387	89.1631	171.387	88.8565	171.387	88.9023	171.387	88.5639	171.387	88.5653	171.387	88.2367	171.387	88.1619	171.387	87.8929	171.387	87.7112	171.387	87.5557	171.387	87.2451	171.387	87.2533	171.387	86.8107	171.387	87.0152	171.387	86.4655	171.387	86.8655	171.387	86.2623	171.387	86.8148	171.387	86.2268	171.387	86.8545	171.387	86.3422	171.387	86.9583	171.387	86.5565	171.387	87.0885	171.387	86.8047	171.387	87.2061	171.387	87.03	171.387	87.2769	171.387	87.1938	171.387	87.2769
177.246	89.2913	177.246	89.2351	177.246	89.272	177.246	89.1084	177.246	89.1733	177.246	88.9173	177.246	88.9924	177.246	88.6694	177.246	88.7285	177.246	88.3746	177.246	88.384	177.246	88.046	177.246	87.9663	177.246	87.7012	177.246	87.4919	177.246	87.3634	177.246	86.9909	177.246	87.0605	177.246	86.5108	177.246	86.8221	177.246	86.1151	177.246	86.6722	177.246	85.8684	177.246	86.6214	177.246	85.8092	177.246	86.6607	177.246	85.9271	177.246	86.7626	177.246	86.1664	177.246	86.8885	177.246	86.4522	177.246	86.9972	177.246	86.7179	177.246	87.0533	177.246	86.9184	177.246	87.0313
183.105	89.0836	183.105	89.0019	183.105	89.0823	183.105	88.8414	183.105	88.9947	183.105	88.6076	183.105	88.8185	183.105	88.3078	183.105	88.5528	183.105	87.9525	183.105	88.1992	183.105	87.557	183.105	87.7642	183.105	87.1438	183.105	87.2625	183.105	86.744	183.105	86.7233	183.105	86.3964	183.105	86.1957	183.105	86.1418	183.105	85.7496	183.105	86.0114	183.105	85.4619	183.105	86.0137	183.105	85.3839	183.105	86.1281	183.105	85.5105	183.105	86.311	183.105	85.7796	183.105	86.5091	183.105	86.104	183.105	86.6725	183.105	86.4054	183.105	86.7618	183.105	86.6304	183.105	86.7513
188.965	89.3066	188.965	89.2579	188.965	89.2707	188.965	89.1267	188.965	89.1484	188.965	88.9151	188.965	88.9383	188.965	88.6257	188.965	88.6398	188.965	88.263	188.965	88.2542	188.965	87.8343	188.965	87.787	188.965	87.3535	188.965	87.2513	188.965	86.8441	188.965	86.6736	188.965	86.3433	188.965	86.1004	188.965	85.9022	188.965	85.6005	188.965	85.5778	188.965	85.2532	188.965	85.4136	188.965	85.116	188.965	85.4184	188.965	85.1895	188.965	85.5575	188.965	85.4123	188.965	85.7669	188.965	85.6934	188.965	85.9765	188.965	85.9489	188.965	86.1281	188.965	86.1215	188.965	86.1825
196.289	89.2757	196.289	89.2464	196.289	89.2232	196.289	89.1389	196.289	89.0861	196.289	88.9569	196.289	88.8622	196.289	88.7047	196.289	88.551	196.289	88.3877	196.289	88.1546	196.289	88.0139	196.289	87.68	196.289	87.5956	196.289	87.1423	196.289	87.1528	196.289	86.5709	196.289	86.7148	196.289	86.0142	196.289	86.3214	196.289	85.5412	196.289	86.0167	196.289	85.2269	196.289	85.8364	196.289	85.1214	196.289	85.7922	196.289	85.2184	196.289	85.8628	196.289	85.4551	196.289	86.0006	196.289	85.7437	196.289	86.1477	196.289	86.0062	196.289	86.2511	196.289	86.1904	196.289	86.2721
203.613	89.2443	203.613	89.2463	203.613	89.1541	203.613	89.1657	203.613	88.9704	203.613	89.0072	203.613	88.6877	203.613	88.7754	203.613	88.3022	203.613	88.4749	203.613	87.8126	203.613	88.1118	203.613	87.2241	203.613	87.6957	203.613	86.554	203.613	87.2431	203.613	85.8417	203.613	86.7806	203.613	85.1599	203.613	86.3472	203.613	84.6161	203.613	85.9911	203.613	84.323	203.613	85.7572	203.613	84.3353	203.613	85.6687	203.613	84.6053	203.613	85.7126	203.613	85.014	203.613	85.842	203.613	85.4377	203.613	85.9927	203.613	85.789	203.613	86.1025	203.613	86.0217	203.613	86.1226
210.938	89.2535	210.938	89.2097	210.938	89.212	210.938	89.0874	210.938	89.0775	210.938	88.8927	210.938	88.8415	210.938	88.631	210.938	88.4948	210.938	88.3082	210.938	88.0287	210.938	87.9315	210.938	87.4369	210.938	87.5123	210.938	86.7212	210.938	87.0687	210.938	85.9019	210.938	86.6286	210.938	85.0373	210.938	86.2304	210.938	84.2462	210.938	85.9178	210.938	83.7032	210.938	85.7271	210.938	83.5588	210.938	85.6703	210.938	83.8159	210.938	85.7255	210.938	84.3218	210.938	85.8417	210.938	84.8887	210.938	85.9555	210.938	85.3839	210.938	86.0064	210.938	85.7423	210.938	85.946
218.262	89.0797	218.262	89.0234	218.262	89.0536	218.262	88.8905	218.262	88.9388	218.262	88.6867	218.262	88.7286	218.262	88.4171	218.262	88.4164	218.262	88.0871	218.262	87.9956	218.262	87.7033	218.262	87.4612	218.262	87.276	218.262	86.8133	218.262	86.8225	218.262	86.0649	218.262	86.3705	218.262	85.2568	218.262	85.9593	218.262	84.4769	218.262	85.6353	218.262	83.8679	218.262	85.4379	218.262	83.5833	218.262	85.3811	218.262	83.6823	218.262	85.441	218.262	84.0727	218.262	85.5627	218.262	84.583	218.262	85.6779	218.262	85.0651	218.262	85.7233	218.262	85.4322	218.262	85.6507
225.586	89.263	225.586	89.2138	225.586	89.2181	225.586	89.0769	225.586	89.072	225.586	88.8583	225.586	88.8172	225.586	88.5634	225.586	88.4463	225.586	88.1979	225.586	87.9531	225.586	87.7697	225.586	87.3347	225.586	87.2919	225.586	86.5978	225.586	86.7872	225.586	85.7704	225.586	86.2924	225.586	84.922	225.586	85.8597	225.586	84.1833	225.586	85.5485	225.586	83.7312	225.586	85.4048	225.586	83.6931	225.586	85.436	225.586	84.0363	225.586	85.6017	225.586	84.5905	225.586	85.8292	225.586	85.1729	225.586	86.0397	225.586	85.6614	225.586	86.1667	225.586	85.9969	225.586	86.1622
232.91	89.6774	232.91	89.6335	232.91	89.6333	232.91	89.5096	232.91	89.4906	232.91	89.3113	232.91	89.2365	232.91	89.0416	232.91	88.8552	232.91	88.7013	232.91	88.3278	232.91	88.2907	232.91	87.6323	232.91	87.8124	232.91	86.7476	232.91	87.2768	232.91	85.6638	232.91	86.709	232.91	84.4136	232.91	86.1563	232.91	83.1411	232.91	85.6894	232.91	82.1888	232.91	85.3863	232.91	81.9823	232.91	85.2951	232.91	82.5679	232.91	85.3996	232.91	83.5371	232.91	85.6205	232.91	84.4924	232.91	85.8516	232.91	85.2431	232.91	85.9948	232.91	85.7348	232.91	85.9739
241.699	89.3286	241.699	89.2227	241.699	89.3625	241.699	89.0557	241.699	89.3126	241.699	88.8379	241.699	89.1664	241.699	88.5777	241.699	88.9091	241.699	88.2809	241.699	88.5229	241.699	87.951	241.699	87.9856	241.699	87.5903	241.699	87.2709	241.699	87.2033	241.699	86.352	241.699	86.8015	241.699	85.2158	241.699	86.4079	241.699	83.8997	241.699	86.058	241.699	82.5773	241.699	85.7931	241.699	81.6545	241.699	85.6425	241.699	81.5778	241.699	85.6038	241.699	82.2904	241.699	85.6338	241.699	83.3032	241.699	85.66	241.699	84.2345	241.699	85.5997	241.699	84.9333	241.699	85.3773
250.488	89.1461	250.488	88.9269	250.488	89.2716	250.488	88.6235	250.488	89.2955	250.488	88.2478	250.488	89.2099	250.488	87.8149	250.488	89.0054	250.488	87.3426	250.488	88.6687	250.488	86.852	250.488	88.1803	250.488	86.368	250.488	87.5134	250.488	85.9194	250.488	86.6348	250.488	85.5397	250.488	85.5109	250.488	85.2634	250.488	84.1318	250.488	85.118	250.488	82.5823	250.488	85.1097	250.488	81.2016	250.488	85.2136	250.488	80.6407	250.488	85.3746	250.488	81.2116	250.488	85.5191	250.488	82.3869	250.488	85.5697	250.488	83.565	250.488	85.4548	250.488	84.49	250.488	85.1116
259.277	89.95	259.277	89.7921	259.277	90.0171	259.277	89.5417	259.277	89.9945	259.277	89.1969	259.277	89.8817	259.277	88.7559	259.277	89.6756	259.277	88.2171	259.277	89.3686	259.277	87.5817	259.277	88.9474	259.277	86.8576	259.277	88.3927	259.277	86.0675	259.277	87.6805	259.277	85.261	259.277	86.7879	259.277	84.5256	259.277	85.7071	259.277	83.9793	259.277	84.4772	259.277	83.7215	259.277	83.2457	259.277	83.7608	259.277	82.322	259.277	83.9963	259.277	82.0439	259.277	84.277	259.277	82.4203	259.277	84.4682	259.277	83.1099	259.277	84.4769	259.277	83.7773	259.277	84.2503
268.066	89.0894	268.066	88.9421	268.066	89.1478	268.066	88.7084	268.066	89.1154	268.066	88.3919	268.066	88.9904	268.066	87.9975	268.066	88.7692	268.066	87.531	268.066	88.4446	268.066	87.0013	268.066	88.0041	268.066	86.424	268.066	87.4298	268.066	85.8282	268.066	86.7013	268.066	85.2646	268.066	85.8052	268.066	84.8074	268.066	84.7586	268.066	84.5377	268.066	83.6564	268.066	84.5029	268.066	82.7344	268.066	84.6787	268.066	82.3325	268.066	84.9734	268.066	82.6075	268.066	85.2707	268.066	83.3323	268.066	85.4673	268.066	84.1507	268.066	85.4879	268.066	84.8323	268.066	85.2836
276.855	89.4807	276.855	89.3523	276.855	89.5163	276.855	89.1247	276.855	89.4647	276.855	88.7905	276.855	89.33	276.855	88.3413	276.855	89.1128	276.855	87.7668	276.855	88.8086	276.855	87.0561	276.855	88.4054	276.855	86.2023	276.855	87.8827	276.855	85.2127	276.855	87.2134	276.855	84.1322	276.855	86.3689	276.855	83.082	276.855	85.3325	276.855	82.2847	276.855	84.1301	276.855	81.9819	276.855	82.8934	276.855	82.2175	276.855	81.9294	276.855	82.773	276.855	81.6115	276.855	83.3641	276.855	81.9879	276.855	83.7941	276.855	82.7016	276.855	83.9605	276.855	83.3787	276.855	83.8212
287.109	89.5215	287.109	89.4928	287.109	89.4597	287.109	89.3711	287.109	89.3095	287.109	89.1523	287.109	89.0724	287.109	88.829	287.109	88.7489	287.109	88.3899	287.109	88.337	287.109	87.8195	287.109	87.8303	287.109	87.1005	287.109	87.2182	287.109	86.2192	287.109	86.4887	287.109	85.18	287.109	85.6381	287.109	84.0334	287.109	84.6894	287.109	82.9237	287.109	83.7238	287.109	82.1151	287.109	82.9088	287.109	81.8669	287.109	82.4588	287.109	82.1733	287.109	82.4776	287.109	82.7551	287.109	82.8411	287.109	83.3196	287.109	83.3053	287.109	83.6953	287.109	83.6676	287.109	83.8131
297.363	89.7478	297.363	89.7226	297.363	89.6889	297.363	89.6136	297.363	89.5445	297.363	89.4193	297.363	89.3132	297.363	89.1331	297.363	88.9917	297.363	88.743	297.363	88.5719	297.363	88.2303	297.363	88.0378	297.363	87.5724	297.363	87.3635	297.363	86.7486	297.363	86.5165	297.363	85.7525	297.363	85.4694	297.363	84.62	297.363	84.2322	297.363	83.4799	297.363	82.9244	297.363	82.6004	297.363	81.8756	297.363	82.2911	297.363	81.5405	297.363	82.6008	297.363	82.0095	297.363	83.2415	297.363	82.8636	297.363	83.8776	297.363	83.6702	297.363	84.3043	297.363	84.215	297.363	84.4282
307.617	89.8655	307.617	89.8536	307.617	89.8159	307.617	89.7872	307.617	89.6967	307.617	89.6689	307.617	89.4991	307.617	89.4942	307.617	89.2136	307.617	89.2495	307.617	88.8277	307.617	88.9121	307.617	88.3223	307.617	88.4526	307.617	87.669	307.617	87.8384	307.617	86.8301	307.617	87.0415	307.617	85.7644	307.617	86.0512	307.617	84.4491	307.617	84.903	307.617	82.9434	307.617	83.7326	307.617	81.5305	307.617	82.8205	307.617	80.8017	307.617	82.4768	307.617	81.1246	307.617	82.721	307.617	82.061	307.617	83.2344	307.617	82.9898	307.617	83.6715	307.617	83.6054	307.617	83.8263
319.336	88.9462	319.336	88.869	319.336	88.9556	319.336	88.7345	319.336	88.8911	319.336	88.5544	319.336	88.7497	319.336	88.3374	319.336	88.5287	319.336	88.0835	319.336	88.2205	319.336	87.7819	319.336	87.8067	319.336	87.4123	319.336	87.255	319.336	86.9512	319.336	86.5186	319.336	86.3831	319.336	85.5424	319.336	85.7151	319.336	84.2816	319.336	84.9982	319.336	82.7614	319.336	84.3447	319.336	81.2385	319.336	83.9096	319.336	80.3865	319.336	83.7994	319.336	80.7626	319.336	83.968	319.336	81.9024	319.336	84.2362	319.336	83.0554	319.336	84.4034	319.336	83.8819	319.336	84.3175
329.59	89.0479	329.59	88.9478	329.59	89.0786	329.59	88.7847	329.59	89.0397	329.59	88.5679	329.59	88.9353	329.59	88.3044	329.59	88.7685	329.59	87.9912	329.59	88.5332	329.59	87.6125	329.59	88.2061	329.59	87.141	329.59	87.7428	329.59	86.5462	329.59	87.0774	329.59	85.8095	329.59	86.1252	329.59	84.9503	329.59	84.7884	329.59	84.0649	329.59	82.9821	329.59	83.3569	329.59	80.7704	329.59	83.0677	329.59	78.8873	329.59	83.2614	329.59	78.9085	329.59	83.7295	329.59	80.5657	329.59	84.1735	329.59	82.2911	329.59	84.3699	329.59	83.5099	329.59	84.1802
341.309	88.6085	341.309	88.5488	341.309	88.5867	341.309	88.4198	341.309	88.4848	341.309	88.2417	341.309	88.319	341.309	88.0334	341.309	88.1159	341.309	87.8021	341.309	87.9006	341.309	87.5355	341.309	87.6801	341.309	87.2025	341.309	87.4297	341.309	86.7605	341.309	87.0923	341.309	86.1699	341.309	86.5898	341.309	85.4133	341.309	85.8425	341.309	84.5258	341.309	84.7941	341.309	83.6358	341.309	83.4644	341.309	82.976	341.309	82.0726	341.309	82.7574	341.309	81.163	341.309	82.9469	341.309	81.2276	341.309	83.2748	341.309	81.986	341.309	83.4578	341.309	82.8016	341.309	83.3204
353.027	88.6462	353.027	88.4749	353.027	88.6678	353.027	88.1709	353.027	88.5347	353.027	87.7617	353.027	88.2542	353.027	87.2827	353.027	87.8457	353.027	86.769	353.027	87.3387	353.027	86.244	353.027	86.7646	353.027	85.7088	353.027	86.1425	353.027	85.1423	353.027	85.464	353.027	84.5175	353.027	84.6881	353.027	83.835	353.027	83.7622	353.027	83.1704	353.027	82.6805	353.027	82.7056	353.027	81.6039	353.027	82.6562	353.027	80.9804	353.027	83.0644	353.027	81.2631	353.027	83.7165	353.027	82.2585	353.027	84.3226	353.027	83.3721	353.027	84.6734	353.027	84.2161	353.027	84.6544
366.211	89.3893	366.211	89.2596	366.211	89.4018	366.211	89.0265	366.211	89.292	366.211	88.7109	366.211	89.0639	366.211	88.3348	366.211	88.7277	366.211	87.9114	366.211	88.2945	366.211	87.4344	366.211	87.7678	366.211	86.8715	366.211	87.133	366.211	86.1668	366.211	86.3484	366.211	85.2505	366.211	85.3423	366.211	84.0606	366.211	84.0224	366.211	82.5944	366.211	82.3157	366.211	81.0522	366.211	80.3301	366.211	80.0546	366.211	78.8219	366.211	80.2687	366.211	79.0492	366.211	81.3575	366.211	80.5807	366.211	82.4981	366.211	82.0985	366.211	83.2483	366.211	83.085	366.211	83.4613
379.395	90.208	379.395	90.1165	379.395	90.1944	379.395	89.928	379.395	90.0727	379.395	89.6543	379.395	89.8444	379.395	89.3073	379.395	89.5127	379.395	88.8929	379.395	89.0778	379.395	88.4061	379.395	88.5317	379.395	87.8272	379.395	87.8516	379.395	87.1218	379.395	86.9958	379.395	86.2451	379.395	85.9005	379.395	85.1513	379.395	84.48	379.395	83.8154	379.395	82.6389	379.395	82.2884	379.395	80.346	379.395	80.815	379.395	77.9755	379.395	79.901	379.395	76.928	379.395	79.8944	379.395	77.9413	379.395	80.4473	379.395	79.4945	379.395	80.959	379.395	80.5938	379.395	81.0631
392.578	89.0387	392.578	88.8928	392.578	89.0958	392.578	88.6742	392.578	89.0676	392.578	88.4164	392.578	88.9714	392.578	88.1586	392.578	88.8283	392.578	87.9267	392.578	88.6475	392.578	87.7132	392.578	88.4133	392.578	87.4734	392.578	88.0783	392.578	87.1375	392.578	87.5669	392.578	86.6326	392.578	86.7808	392.578	85.9027	392.578	85.6034	392.578	84.9349	392.578	83.9041	392.578	83.808	392.578	81.5908	392.578	82.7663	392.578	78.9627	392.578	82.1913	392.578	77.7257	392.578	82.2589	392.578	79.0699	392.578	82.6798	392.578	80.9784	392.578	83.0113	392.578	82.3055	392.578	82.9465
405.762	88.6687	405.762	88.585	405.762	88.6064	405.762	88.3712	405.762	88.4061	405.762	88.0638	405.762	88.1007	405.762	87.7131	405.762	87.745	405.762	87.3675	405.762	87.4002	405.762	87.0511	405.762	87.1036	405.762	86.7466	405.762	86.8367	405.762	86.398	405.762	86.5198	405.762	85.9331	405.762	86.0332	405.762	85.293	405.762	85.2471	405.762	84.4676	405.762	84.0484	405.762	83.5465	405.762	82.4055	405.762	82.7721	405.762	80.6028	405.762	82.4604	405.762	79.6446	405.762	82.6882	405.762	80.3268	405.762	83.1595	405.762	81.7224	405.762	83.4937	405.762	82.8512	405.762	83.4355
420.41	89.4122	420.41	89.2595	420.41	89.4119	420.41	88.9721	420.41	89.2618	420.41	88.5872	420.41	88.9855	420.41	88.1537	420.41	88.6233	420.41	87.7144	420.41	88.2199	420.41	87.2829	420.41	87.8027	420.41	86.8283	420.41	87.3568	420.41	86.2798	420.41	86.8125	420.41	85.5485	420.41	86.051	420.41	84.5586	420.41	84.9193	420.41	83.3037	420.41	83.2452	420.41	81.9795	420.41	80.9153	420.41	81.1608	420.41	78.4078	420.41	81.4301	420.41	77.9911	420.41	82.4751	420.41	80.0996	420.41	83.54	420.41	82.2502	420.41	84.1891	420.41	83.6348	420.41	84.2516
435.059	89.0852	435.059	88.9042	435.059	89.0733	435.059	88.5628	435.059	88.8786	435.059	88.1372	435.059	88.5539	435.059	87.7391	435.059	88.1933	435.059	87.4745	435.059	87.907	435.059	87.3754	435.059	87.7606	435.059	87.3661	435.059	87.7152	435.059	87.3034	435.059	87.6329	435.059	87.0405	435.059	87.3337	435.059	86.4612	435.059	86.6354	435.059	85.4928	435.059	85.3543	435.059	84.1479	435.059	83.3005	435.059	82.6664	435.059	80.43	435.059	81.7107	435.059	78.0085	435.059	81.8809	435.059	78.9451	435.059	82.7334	435.059	81.2878	435.059	83.4452	435.059	82.8952	435.059	83.5687
451.172	90.2536	451.172	89.9649	451.172	90.2437	451.172	89.3773	451.172	89.9433	451.172	88.5053	451.172	89.3725	451.172	87.3991	451.172	88.5784	451.172	86.1848	451.172	87.6588	451.172	85.0963	451.172	86.7737	451.172	84.3965	451.172	86.0907	451.172	84.1446	451.172	85.6459	451.172	84.1128	451.172	85.2644	451.172	84.0079	451.172	84.6498	451.172	83.6697	451.172	83.5027	451.172	83.1441	451.172	81.5977	451.172	82.7343	451.172	79.185	451.172	82.8721	451.172	78.4621	451.172	83.6208	451.172	80.6739	451.172	84.542	451.172	83.0687	451.172	85.1742	451.172	84.5895	451.172	85.2453
465.82	89.9919	465.82	89.7736	465.82	89.9916	465.82	89.337	465.82	89.7813	465.82	88.6916	465.82	89.3816	465.82	87.8616	465.82	88.8311	465.82	86.8938	465.82	88.1911	465.82	85.863	465.82	87.5385	465.82	84.8589	465.82	86.9342	465.82	83.9417	465.82	86.3729	465.82	83.0853	465.82	85.7501	465.82	82.1705	465.82	84.8715	465.82	81.0557	465.82	83.4725	465.82	79.7259	465.82	81.1915	465.82	78.5725	465.82	77.4728	465.82	78.4651	465.82	72.4743	465.82	79.5473	465.82	74.0625	465.82	80.8564	465.82	78.275	465.82	81.6652	465.82	80.659	465.82	81.671
483.398	88.1212	483.398	87.9369	483.398	88.1129	483.398	87.5654	483.398	87.9224	483.398	87.0267	483.398	87.5807	483.398	86.3562	483.398	87.1444	483.398	85.602	483.398	86.6936	483.398	84.8137	483.398	86.3074	483.398	84.017	483.398	86.0132	483.398	83.1817	483.398	85.7464	483.398	82.2038	483.398	85.3582	483.398	80.9136	483.398	84.6554	483.398	79.1105	483.398	83.4237	483.398	76.7235	483.398	81.4234	483.398	74.6877	483.398	78.4599	483.398	75.4734	483.398	75.3733	483.398	77.9801	483.398	75.8949	483.398	80.0076	483.398	78.5965	483.398	81.117	483.398	80.4889	483.398	81.2922
499.512	86.693	499.512	86.7126	499.512	86.4228	499.512	86.5035	499.512	85.898	499.512	86.104	499.512	85.1466	499.512	85.5755	499.512	84.2595	499.512	85.005	499.512	83.4193	499.512	84.4883	499.512	82.8517	499.512	84.0813	499.512	82.6385	499.512	83.7467	499.512	82.5946	499.512	83.3494	499.512	82.3995	499.512	82.7011	499.512	81.7569	499.512	81.5953	499.512	80.4096	499.512	79.814	499.512	78.0933	499.512	77.1869	499.512	74.7512	499.512	74.2923	499.512	72.7349	499.512	74.1724	499.512	75.1143	499.512	76.6072	499.512	77.7505	499.512	78.5565	499.512	79.1624	499.512	79.4102
517.09	88.5731	517.09	88.6365	517.09	88.1949	517.09	88.4236	517.09	87.4895	517.09	88.0025	517.09	86.4884	517.09	87.483	517.09	85.3225	517.09	87.0123	517.09	84.292	517.09	86.7181	517.09	83.7772	517.09	86.6148	517.09	83.8506	517.09	86.5737	517.09	84.1495	517.09	86.394	517.09	84.2446	517.09	85.8775	517.09	83.8365	517.09	84.8442	517.09	82.6737	517.09	83.118	517.09	80.3802	517.09	80.57	517.09	76.0497	517.09	77.6476	517.09	66.3079	517.09	76.8217	517.09	70.7476	517.09	78.6059	517.09	77.1066	517.09	80.188	517.09	79.7802	517.09	80.6481
536.133	90.2559	536.133	90.1771	536.133	89.9245	536.133	89.699	536.133	89.1433	536.133	88.8203	536.133	87.8336	536.133	87.5645	536.133	85.8672	536.133	86.0811	536.133	83.0918	536.133	84.8365	536.133	79.7195	536.133	84.5225	536.133	78.1461	536.133	85.1647	536.133	80.0481	536.133	86.033	536.133	82.1813	536.133	86.5559	536.133	83.342	536.133	86.4902	536.133	83.4421	536.133	85.7383	536.133	82.3792	536.133	84.2908	536.133	79.8294	536.133	82.3985	536.133	75.3897	536.133	81.0243	536.133	73.7688	536.133	81.1564	536.133	78.1255	536.133	81.9081	536.133	80.9393	536.133	82.0356
555.176	91.3568	555.176	91.3388	555.176	91.1124	555.176	91.048	555.176	90.5923	555.176	90.456	555.176	89.7556	555.176	89.5237	555.176	88.5323	555.176	88.2156	555.176	86.8211	555.176	86.5385	555.176	84.4905	555.176	84.6515	555.176	81.4377	555.176	83.0547	555.176	78.0958	555.176	82.3922	555.176	76.7802	555.176	82.5263	555.176	77.9874	555.176	82.6871	555.176	78.8709	555.176	82.3927	555.176	78.2149	555.176	81.643	555.176	75.1941	555.176	80.989	555.176	68.6134	555.176	81.2539	555.176	73.4246	555.176	82.274	555.176	79.1663	555.176	83.1077	555.176	81.9883	555.176	83.1336
574.219	91.8092	574.219	91.8353	574.219	91.5644	574.219	91.6326	574.219	91.0986	574.219	91.1847	574.219	90.3937	574.219	90.478	574.219	89.418	574.219	89.5119	574.219	88.1383	574.219	88.3184	574.219	86.5435	574.219	86.9899	574.219	84.6915	574.219	85.6916	574.219	82.7939	574.219	84.5821	574.219	81.2436	574.219	83.6339	574.219	80.2683	574.219	82.5719	574.219	79.443	574.219	81.0529	574.219	77.8719	574.219	79.016	574.219	74.207	574.219	77.6082	574.219	63.7871	574.219	78.6837	574.219	71.0994	574.219	80.7277	574.219	77.9322	574.219	82.0291	574.219	80.9835	574.219	82.1799
594.727	92.5668	594.727	92.5221	594.727	92.3208	594.727	92.1832	594.727	91.7716	594.727	91.5378	594.727	90.8898	594.727	90.5826	594.727	89.6375	594.727	89.3567	594.727	87.9935	594.727	88.0081	594.727	86.0241	594.727	86.8582	594.727	84.0626	594.727	86.2582	594.727	82.8655	594.727	86.1714	594.727	82.8761	594.727	86.1426	594.727	83.3774	594.727	85.7007	594.727	83.445	594.727	84.5087	594.727	82.4752	594.727	82.3159	594.727	79.7781	594.727	79.2519	594.727	73.2475	594.727	77.7477	594.727	63.1256	594.727	79.6735	594.727	76.6602	594.727	81.5137	594.727	80.6312	594.727	81.9358
615.234	91.7246	615.234	91.861	615.234	91.3517	615.234	91.7405	615.234	90.7313	615.234	91.3185	615.234	89.8168	615.234	90.5323	615.234	88.5241	615.234	89.3102	615.234	86.7253	615.234	87.6009	615.234	84.2238	615.234	85.5066	615.234	80.7308	615.234	83.6712	615.234	76.4201	615.234	83.2349	615.234	75.6171	615.234	83.952	615.234	78.6632	615.234	84.5224	615.234	80.6999	615.234	84.261	615.234	81.1242	615.234	82.9174	615.234	79.7269	615.234	80.4994	615.234	75.5395	615.234	78.3027	615.234	67.7376	615.234	79.0427	615.234	75.2103	615.234	80.749	615.234	79.6859	615.234	81.1783
637.207	91.9367	637.207	92.117	637.207	91.6154	637.207	92.1429	637.207	91.1593	637.207	91.987	637.207	90.5652	637.207	91.5989	637.207	89.8096	637.207	90.9038	637.207	88.8391	637.207	89.8057	637.207	87.5678	637.207	88.1998	637.207	85.8734	637.207	86.0187	637.207	83.5737	637.207	83.432	637.207	80.4067	637.207	81.3517	637.207	76.4061	637.207	80.8962	637.207	74.3375	637.207	81.256	637.207	75.7239	637.207	81.2688	637.207	76.0916	637.207	80.8394	637.207	73.3873	637.207	80.5684	637.207	61.1583	637.207	80.8344	637.207	70.6693	637.207	81.0244	637.207	77.5408	637.207	80.2286
659.18	91.6783	659.18	91.8296	659.18	91.3096	659.18	91.7711	659.18	90.7296	659.18	91.514	659.18	89.9636	659.18	91.063	659.18	89.0547	659.18	90.4106	659.18	88.0523	659.18	89.5391	659.18	86.9979	659.18	88.429	659.18	85.9132	659.18	87.0708	659.18	84.8022	659.18	85.4716	659.18	83.6892	659.18	83.6472	659.18	82.6824	659.18	81.5793	659.18	81.9171	659.18	79.1615	659.18	81.2612	659.18	76.3254	659.18	80.166	659.18	74.0651	659.18	77.8357	659.18	74.7287	659.18	73.142	659.18	76.6451	659.18	68.227	659.18	77.5385	659.18	73.5158	659.18	76.7327
682.617	90.7195	682.617	90.8553	682.617	90.3442	682.617	90.7548	682.617	89.7277	682.617	90.4199	682.617	88.8703	682.617	89.8524	682.617	87.7706	682.617	89.0655	682.617	86.4259	682.617	88.1086	682.617	84.8555	682.617	87.0932	682.617	83.1776	682.617	86.1781	682.617	81.7579	682.617	85.4524	682.617	81.175	682.617	84.7916	682.617	81.5173	682.617	83.8797	682.617	82.0877	682.617	82.35	682.617	82.1568	682.617	79.9	682.617	81.2283	682.617	76.7624	682.617	78.7699	682.617	75.5008	682.617	73.7008	682.617	77.0639	682.617	67.8999	682.617	78.099	682.617	74.0139	682.617	77.3479
707.52	90.8353	707.52	90.9126	707.52	90.5638	707.52	90.8125	707.52	90.0853	707.52	90.5442	707.52	89.3879	707.52	90.0905	707.52	88.4482	707.52	89.402	707.52	87.2277	707.52	88.414	707.52	85.677	707.52	87.0891	707.52	83.7372	707.52	85.4991	707.52	81.3357	707.52	83.9335	707.52	78.5254	707.52	82.7845	707.52	76.2711	707.52	81.9767	707.52	76.2384	707.52	80.8521	707.52	76.9208	707.52	78.8024	707.52	76.0913	707.52	76.3962	707.52	72.2386	707.52	77.1874	707.52	68.7113	707.52	79.9915	707.52	76.0406	707.52	81.6834	707.52	80.1436	707.52	81.7956
732.422	90.653	732.422	90.7873	732.422	90.2289	732.422	90.6656	732.422	89.5045	732.422	90.3371	732.422	88.4937	732.422	89.8513	732.422	87.2355	732.422	89.2414	732.422	85.7945	732.422	88.5228	732.422	84.2568	732.422	87.7149	732.422	82.7187	732.422	86.8645	732.422	81.301	732.422	86.0274	732.422	80.2473	732.422	85.1819	732.422	79.8928	732.422	84.1433	732.422	80.1291	732.422	82.5699	732.422	80.233	732.422	79.9973	732.422	79.4318	732.422	75.8995	732.422	77.021	732.422	71.9651	732.422	72.1512	732.422	74.2471	732.422	69.7777	732.422	76.6302	732.422	74.5186	732.422	76.7956
757.324	91.2304	757.324	91.3943	757.324	90.7692	757.324	91.2907	757.324	90.0013	757.324	90.9517	757.324	88.9523	757.324	90.3909	757.324	87.689	757.324	89.5946	757.324	86.3034	757.324	88.5394	757.324	84.8647	757.324	87.2504	757.324	83.3579	757.324	85.8991	757.324	81.6861	757.324	84.8365	757.324	79.8921	757.324	84.2766	757.324	78.7793	757.324	83.8994	757.324	79.4142	757.324	83.1247	757.324	80.6971	757.324	81.5273	757.324	81.0728	757.324	79.0512	757.324	79.7559	757.324	76.8261	757.324	75.698	757.324	76.776	757.324	62.7014	757.324	77.2135	757.324	69.8682	757.324	75.7964
785.156	91.4787	785.156	91.4736	785.156	91.1647	785.156	91.2191	785.156	90.5049	785.156	90.8168	785.156	89.5102	785.156	90.3563	785.156	88.2196	785.156	89.854	785.156	86.6894	785.156	89.2298	785.156	84.9773	785.156	88.3554	785.156	83.11	785.156	87.1394	785.156	81.0295	785.156	85.619	785.156	78.6309	785.156	84.0092	785.156	76.3363	785.156	82.4914	785.156	75.8057	785.156	80.7291	785.156	76.6193	785.156	77.7787	785.156	76.2496	785.156	73.0252	785.156	72.5778	785.156	74.4912	785.156	51.5616	785.156	79.1624	785.156	73.7956	785.156	81.3646	785.156	79.3885	785.156	81.4633
811.523	90.3238	811.523	90.5339	811.523	89.7432	811.523	90.4082	811.523	88.7921	811.523	90.0066	811.523	87.5118	811.523	89.3953	811.523	85.9878	811.523	88.6272	811.523	84.35	811.523	87.7435	811.523	82.7428	811.523	86.8139	811.523	81.2061	811.523	85.9781	811.523	79.5184	811.523	85.377	811.523	77.3391	811.523	84.9534	811.523	75.3156	811.523	84.3913	811.523	75.9814	811.523	83.2852	811.523	77.9706	811.523	81.2524	811.523	78.7474	811.523	77.9669	811.523	77.6211	811.523	74.0096	811.523	73.8769	811.523	73.3651	811.523	66.3066	811.523	74.683	811.523	69.9127	811.523	74.0386
840.82	90.5502	840.82	90.7732	840.82	89.9232	840.82	90.6618	840.82	88.8744	840.82	90.3159	840.82	87.4737	840.82	89.8379	840.82	85.9295	840.82	89.2852	840.82	84.5954	840.82	88.6323	840.82	83.802	840.82	87.7968	840.82	83.5518	840.82	86.7307	840.82	83.4531	840.82	85.5135	840.82	82.9451	840.82	84.3396	840.82	81.4829	840.82	83.2723	840.82	78.592	840.82	81.9918	840.82	74.4315	840.82	79.9386	840.82	72.5756	840.82	76.731	840.82	72.9745	840.82	73.9911	840.82	70.7507	840.82	75.2331	840.82	66.57	840.82	76.6645	840.82	72.1777	840.82	75.9248
870.117	90.4537	870.117	90.7171	870.117	89.7535	870.117	90.5742	870.117	88.5842	870.117	90.0752	870.117	86.9068	870.117	89.3153	870.117	84.7078	870.117	88.4426	870.117	82.0732	870.117	87.6304	870.117	79.2912	870.117	87.0062	870.117	77.2062	870.117	86.5836	870.117	77.5333	870.117	86.2394	870.117	79.7385	870.117	85.7308	870.117	81.7086	870.117	84.7322	870.117	82.7701	870.117	82.8471	870.117	82.9454	870.117	79.5411	870.117	82.3385	870.117	74.2573	870.117	80.879	870.117	71.7581	870.117	78.0836	870.117	74.8502	870.117	72.5385	870.117	75.5778	870.117	65.8048	870.117	72.8961
900.879	90.0329	900.879	90.3146	900.879	89.4098	900.879	90.2661	900.879	88.4553	900.879	89.9074	900.879	87.2077	900.879	89.2333	900.879	85.7504	900.879	88.172	900.879	84.2167	900.879	86.5889	900.879	82.725	900.879	84.4431	900.879	81.2552	900.879	82.4563	900.879	79.6074	900.879	82.4797	900.879	77.4979	900.879	83.9464	900.879	75.0778	900.879	84.8793	900.879	74.8712	900.879	84.5722	900.879	77.6538	900.879	82.6753	900.879	79.8142	900.879	78.3826	900.879	80.0419	900.879	70.1502	900.879	77.5428	900.879	73.5628	900.879	68.8616	900.879	77.0806	900.879	68.4388	900.879	76.1222
933.105	89.4854	933.105	89.8451	933.105	88.6654	933.105	89.7451	933.105	87.4145	933.105	89.2588	933.105	85.7678	933.105	88.5418	933.105	83.8006	933.105	87.7401	933.105	81.7102	933.105	86.8227	933.105	79.7749	933.105	85.5499	933.105	78.1334	933.105	83.6419	933.105	76.9748	933.105	81.1211	933.105	76.866	933.105	79.2074	933.105	77.686	933.105	79.4272	933.105	78.5286	933.105	80.042	933.105	79.0019	933.105	79.3541	933.105	79.0922	933.105	76.9524	933.105	78.4428	933.105	74.4282	933.105	76.0981	933.105	75.5289	933.105	70.5498	933.105	76.7112	933.105	70.0876	933.105	75.2739
965.332	88.655	965.332	89.0807	965.332	87.751	965.332	89.0061	965.332	86.4415	965.332	88.4851	965.332	84.8561	965.332	87.6704	965.332	83.2187	965.332	86.7643	965.332	81.8168	965.332	85.8594	965.332	80.7248	965.332	84.8394	965.332	79.5587	965.332	83.5307	965.332	77.6419	965.332	82.0384	965.332	74.0171	965.332	81.0142	965.332	68.1021	965.332	80.829	965.332	72.4027	965.332	80.5591	965.332	77.7939	965.332	79.045	965.332	80.4581	965.332	75.1622	965.332	81.055	965.332	67.6616	965.332	79.4378	965.332	70.6787	965.332	74.316	965.332	73.6122	965.332	51.0546	965.332	70.9941
1,000.49	88.268	1,000.49	88.7172	1,000.49	87.2781	1,000.49	88.6129	1,000.49	85.792	1,000.49	87.9827	1,000.49	83.9024	1,000.49	86.9254	1,000.49	81.8068	1,000.49	85.6419	1,000.49	79.8769	1,000.49	84.3756	1,000.49	78.4926	1,000.49	83.1964	1,000.49	77.6261	1,000.49	81.9176	1,000.49	77.094	1,000.49	80.4483	1,000.49	76.9867	1,000.49	79.3135	1,000.49	77.0215	1,000.49	79.1619	1,000.49	76.3374	1,000.49	79.2395	1,000.49	74.3991	1,000.49	78.2226	1,000.49	72.6354	1,000.49	74.8973	1,000.49	73.2986	1,000.49	67.5708	1,000.49	72.8654	1,000.49	69.9721	1,000.49	67.5335	1,000.49	73.7387	1,000.49	64.9787	1,000.49	72.6066
1,035.64	86.6769	1,035.64	87.5264	1,035.64	85.2979	1,035.64	87.8801	1,035.64	83.3944	1,035.64	87.7765	1,035.64	81.1087	1,035.64	87.2375	1,035.64	78.9478	1,035.64	86.2489	1,035.64	77.6655	1,035.64	84.7424	1,035.64	77.0876	1,035.64	82.6321	1,035.64	76.3807	1,035.64	80.1952	1,035.64	75.7181	1,035.64	79.244	1,035.64	76.0708	1,035.64	80.7958	1,035.64	76.8526	1,035.64	82.4084	1,035.64	76.8576	1,035.64	82.7899	1,035.64	76.3555	1,035.64	81.5371	1,035.64	77.1498	1,035.64	77.9642	1,035.64	78.6457	1,035.64	69.6772	1,035.64	78.4863	1,035.64	67.0448	1,035.64	75.0656	1,035.64	71.7421	1,035.64	62.5561	1,035.64	68.0592
1,072.27	87.8086	1,072.27	88.8075	1,072.27	86.0707	1,072.27	89.0808	1,072.27	83.7021	1,072.27	88.675	1,072.27	81.2534	1,072.27	87.7144	1,072.27	80.0617	1,072.27	86.52	1,072.27	80.6523	1,072.27	85.546	1,072.27	81.5233	1,072.27	84.8682	1,072.27	81.4342	1,072.27	83.9192	1,072.27	79.7336	1,072.27	81.8767	1,072.27	75.6251	1,072.27	78.2074	1,072.27	71.2995	1,072.27	76.2269	1,072.27	75.2877	1,072.27	78.7354	1,072.27	77.458	1,072.27	79.7409	1,072.27	77.2624	1,072.27	78.1576	1,072.27	76.4388	1,072.27	74.3922	1,072.27	75.2661	1,072.27	72.943	1,072.27	70.9214	1,072.27	73.8634	1,072.27	50.8836	1,072.27	71.0048
1,108.89	87.1175	1,108.89	88.4054	1,108.89	85.1732	1,108.89	89.023	1,108.89	82.8349	1,108.89	89.0132	1,108.89	81.0178	1,108.89	88.4722	1,108.89	80.7585	1,108.89	87.5767	1,108.89	81.6135	1,108.89	86.5006	1,108.89	82.4155	1,108.89	85.2051	1,108.89	82.3471	1,108.89	83.308	1,108.89	80.9482	1,108.89	80.143	1,108.89	77.9334	1,108.89	76.0586	1,108.89	74.2257	1,108.89	77.1969	1,108.89	74.3016	1,108.89	79.9255	1,108.89	76.705	1,108.89	80.237	1,108.89	79.2236	1,108.89	77.7524	1,108.89	81.1342	1,108.89	70.5233	1,108.89	81.1823	1,108.89	62.2321	1,108.89	78.1731	1,108.89	70.2928	1,108.89	68.6524	1,108.89	65.6174
1,148.44	87.6824	1,148.44	89.2949	1,148.44	85.5411	1,148.44	90.1384	1,148.44	83.347	1,148.44	90.1313	1,148.44	81.8058	1,148.44	89.3402	1,148.44	81.3446	1,148.44	88.0566	1,148.44	81.7833	1,148.44	86.8866	1,148.44	82.5502	1,148.44	86.2882	1,148.44	82.8	1,148.44	85.6997	1,148.44	81.5986	1,148.44	83.9778	1,148.44	77.4249	1,148.44	79.8882	1,148.44	63.7484	1,148.44	73.0573	1,148.44	74.1384	1,148.44	76.1702	1,148.44	78.5679	1,148.44	79.0223	1,148.44	79.2063	1,148.44	78.4653	1,148.44	79.3282	1,148.44	75.1142	1,148.44	79.8168	1,148.44	71.7802	1,148.44	77.8598	1,148.44	71.785	1,148.44	70.1471	1,148.44	66.7053
1,189.45	89.0006	1,189.45	89.9406	1,189.45	87.8685	1,189.45	90.5166	1,189.45	86.6726	1,189.45	90.507	1,189.45	85.5909	1,189.45	89.8254	1,189.45	84.6038	1,189.45	88.6799	1,189.45	83.6511	1,189.45	87.59	1,189.45	83.3607	1,189.45	86.9808	1,189.45	83.9049	1,189.45	86.4939	1,189.45	84.0726	1,189.45	85.2364	1,189.45	82.8463	1,189.45	82.5249	1,189.45	79.6424	1,189.45	78.979	1,189.45	74.0548	1,189.45	78.3633	1,189.45	70.2589	1,189.45	79.0904	1,189.45	73.8526	1,189.45	77.8143	1,189.45	77.9943	1,189.45	73.5143	1,189.45	79.8514	1,189.45	68.3401	1,189.45	78.2094	1,189.45	69.7918	1,189.45	71.1916	1,189.45	65.1155
1,230.47	89.1082	1,230.47	89.4299	1,230.47	88.5099	1,230.47	89.5683	1,230.47	87.741	1,230.47	89.5049	1,230.47	87.0197	1,230.47	89.0294	1,230.47	86.2445	1,230.47	87.961	1,230.47	85.2002	1,230.47	86.4933	1,230.47	84.2652	1,230.47	85.6221	1,230.47	84.1681	1,230.47	85.6812	1,230.47	84.4478	1,230.47	85.1792	1,230.47	83.604	1,230.47	82.8861	1,230.47	80.0326	1,230.47	78.1092	1,230.47	68.4483	1,230.47	72.2468	1,230.47	74.1069	1,230.47	73.1305	1,230.47	79.5364	1,230.47	73.7683	1,230.47	80.4737	1,230.47	70.4977	1,230.47	80.3302	1,230.47	68.8885	1,230.47	78.6064	1,230.47	71.9401	1,230.47	72.5562	1,230.47	68.9158
1,274.41	88.8669	1,274.41	89.1134	1,274.41	88.2293	1,274.41	89.0556	1,274.41	87.3071	1,274.41	88.7887	1,274.41	86.4016	1,274.41	88.217	1,274.41	85.6197	1,274.41	87.0587	1,274.41	84.5124	1,274.41	85.1199	1,274.41	82.823	1,274.41	82.8228	1,274.41	81.9966	1,274.41	81.5377	1,274.41	83.1889	1,274.41	81.5653	1,274.41	84.0175	1,274.41	81.614	1,274.41	83.1135	1,274.41	81.1092	1,274.41	80.5016	1,274.41	80.1495	1,274.41	77.5392	1,274.41	78.8279	1,274.41	75.452	1,274.41	76.7027	1,274.41	74.4148	1,274.41	72.4555	1,274.41	77.5851	1,274.41	65.3582	1,274.41	77.559	1,274.41	67.704	1,274.41	72.2395	1,274.41	66.95
1,319.82	88.934	1,319.82	89.5145	1,319.82	88.1172	1,319.82	89.4754	1,319.82	87.5861	1,319.82	88.8224	1,319.82	87.1735	1,319.82	87.7955	1,319.82	86.2743	1,319.82	86.6254	1,319.82	84.7044	1,319.82	85.3386	1,319.82	82.9604	1,319.82	84.1489	1,319.82	81.6717	1,319.82	83.3951	1,319.82	80.8797	1,319.82	82.2075	1,319.82	79.541	1,319.82	79.0864	1,319.82	76.223	1,319.82	75.008	1,319.82	73.5159	1,319.82	76.9445	1,319.82	76.2278	1,319.82	79.0085	1,319.82	77.8276	1,319.82	77.9045	1,319.82	78.3817	1,319.82	73.0454	1,319.82	78.5822	1,319.82	68.0176	1,319.82	76.8115	1,319.82	68.614	1,319.82	71.0173	1,319.82	63.9484
1,366.7	88.0431	1,366.7	88.5418	1,366.7	87.9443	1,366.7	88.9212	1,366.7	87.6951	1,366.7	88.5624	1,366.7	86.5944	1,366.7	87.4437	1,366.7	84.8757	1,366.7	85.7302	1,366.7	83.7026	1,366.7	82.9402	1,366.7	83.1548	1,366.7	79.158	1,366.7	82.6599	1,366.7	81.0864	1,366.7	83.1997	1,366.7	83.3272	1,366.7	83.6708	1,366.7	81.9961	1,366.7	81.8259	1,366.7	76.6179	1,366.7	74.2022	1,366.7	70.1295	1,366.7	72.1887	1,366.7	75.9641	1,366.7	79.3855	1,366.7	76.8156	1,366.7	78.6868	1,366.7	72.9956	1,366.7	76.3423	1,366.7	66.4641	1,366.7	75.2558	1,366.7	64.6029	1,366.7	71.2882	1,366.7	64.0986
1,413.57	88.7485	1,413.57	89.0745	1,413.57	87.4236	1,413.57	88.6936	1,413.57	85.6652	1,413.57	88.0385	1,413.57	85.1907	1,413.57	87.2906	1,413.57	85.8428	1,413.57	86.6097	1,413.57	85.6672	1,413.57	85.6227	1,413.57	83.8007	1,413.57	82.8167	1,413.57	80.5637	1,413.57	75.575	1,413.57	78.9535	1,413.57	73.2159	1,413.57	81.0969	1,413.57	78.6925	1,413.57	81.6872	1,413.57	79.0905	1,413.57	77.4613	1,413.57	78.262	1,413.57	60.9246	1,413.57	78.2698	1,413.57	76.1194	1,413.57	76.6302	1,413.57	78.4183	1,413.57	72.3806	1,413.57	79.0886	1,413.57	66.3788	1,413.57	76.7878	1,413.57	70.6349	1,413.57	71.4788	1,413.57	71.8473
1,463.38	89.1691	1,463.38	89.5056	1,463.38	87.709	1,463.38	88.7656	1,463.38	86.2046	1,463.38	87.6091	1,463.38	85.6975	1,463.38	86.4822	1,463.38	85.4788	1,463.38	85.4592	1,463.38	84.4552	1,463.38	84.6062	1,463.38	82.535	1,463.38	83.1873	1,463.38	80.0401	1,463.38	79.9636	1,463.38	75.3773	1,463.38	74.2832	1,463.38	77.3431	1,463.38	71.7696	1,463.38	81.2035	1,463.38	69.8571	1,463.38	80.9054	1,463.38	69.6837	1,463.38	74.2409	1,463.38	73.404	1,463.38	69.7881	1,463.38	74.1885	1,463.38	77.3678	1,463.38	72.1535	1,463.38	77.7646	1,463.38	68.3402	1,463.38	74.9424	1,463.38	70.3234	1,463.38	70.2173	1,463.38	70.5718
1,516.11	89.7838	1,516.11	89.7595	1,516.11	88.6411	1,516.11	88.7874	1,516.11	87.2777	1,516.11	87.7839	1,516.11	86.1155	1,516.11	86.9343	1,516.11	84.4138	1,516.11	85.4676	1,516.11	82.4	1,516.11	83.6844	1,516.11	81.4259	1,516.11	82.7969	1,516.11	81.2036	1,516.11	81.9577	1,516.11	79.3798	1,516.11	80.0466	1,516.11	76.6444	1,516.11	77.4822	1,516.11	77.382	1,516.11	72.8297	1,516.11	76.7536	1,516.11	60.4255	1,516.11	66.2394	1,516.11	74.4151	1,516.11	71.9711	1,516.11	76.6199	1,516.11	74.1451	1,516.11	73.8315	1,516.11	71.2673	1,516.11	69.3065	1,516.11	72.4287	1,516.11	70.6325	1,516.11	71.0652	1,516.11	69.0932
1,568.85	89.607	1,568.85	89.7921	1,568.85	89.0753	1,568.85	89.2193	1,568.85	88.0476	1,568.85	87.8114	1,568.85	85.6916	1,568.85	86.0963	1,568.85	82.0865	1,568.85	84.2496	1,568.85	80.2065	1,568.85	81.7247	1,568.85	81.4707	1,568.85	79.4373	1,568.85	81.8657	1,568.85	78.949	1,568.85	79.2429	1,568.85	79.3544	1,568.85	74.5038	1,568.85	79.6704	1,568.85	75.6133	1,568.85	77.6527	1,568.85	76.7861	1,568.85	68.8857	1,568.85	72.7915	1,568.85	67.7597	1,568.85	71.4429	1,568.85	74.6528	1,568.85	70.3362	1,568.85	74.4628	1,568.85	70.4129	1,568.85	70.837	1,568.85	72.5788	1,568.85	71.2825	1,568.85	71.1231	1,568.85	71.3236
1,624.51	89.3368	1,624.51	89.8336	1,624.51	88.3003	1,624.51	89.6032	1,624.51	86.7317	1,624.51	88.6021	1,624.51	84.5033	1,624.51	87.1241	1,624.51	81.7966	1,624.51	85.0553	1,624.51	80.1122	1,624.51	81.8983	1,624.51	80.1634	1,624.51	78.7649	1,624.51	79.5616	1,624.51	76.7071	1,624.51	76.9629	1,624.51	73.2804	1,624.51	74.4637	1,624.51	76.6717	1,624.51	77.1162	1,624.51	78.9089	1,624.51	78.5651	1,624.51	76.4169	1,624.51	74.6235	1,624.51	66.4241	1,624.51	51.5082	1,624.51	67.5816	1,624.51	69.2145	1,624.51	69.1381	1,624.51	71.7476	1,624.51	68.1703	1,624.51	69.8151	1,624.51	70.866	1,624.51	67.6518	1,624.51	70.7221
1,681.64	89.4348	1,681.64	90.0885	1,681.64	88.0831	1,681.64	89.7886	1,681.64	86.5354	1,681.64	88.4181	1,681.64	84.544	1,681.64	86.3992	1,681.64	80.6964	1,681.64	84.5414	1,681.64	75.5782	1,681.64	82.6886	1,681.64	75.871	1,681.64	81.1054	1,681.64	79.2356	1,681.64	80.5792	1,681.64	81.0746	1,681.64	78.5309	1,681.64	79.6013	1,681.64	75.3806	1,681.64	75.4043	1,681.64	78.1732	1,681.64	78.5107	1,681.64	77.8814	1,681.64	79.1868	1,681.64	73.3593	1,681.64	73.4709	1,681.64	70.9326	1,681.64	60.0692	1,681.64	67.7348	1,681.64	65.4588	1,681.64	66.1643	1,681.64	62.7815	1,681.64	70.3708	1,681.64	66.2349	1,681.64	71.7572
1,741.7	89.5818	1,741.7	90.0303	1,741.7	88.6015	1,741.7	89.7447	1,741.7	86.5775	1,741.7	88.1731	1,741.7	82.351	1,741.7	85.4238	1,741.7	75.1397	1,741.7	83.3644	1,741.7	75.5396	1,741.7	82.2605	1,741.7	77.5763	1,741.7	80.1192	1,741.7	77.8493	1,741.7	78.9119	1,741.7	78.1944	1,741.7	78.0387	1,741.7	76.9825	1,741.7	74.863	1,741.7	69.9388	1,741.7	75.4327	1,741.7	72.1356	1,741.7	75.026	1,741.7	76.7425	1,741.7	72.2908	1,741.7	74.1944	1,741.7	67.0254	1,741.7	65.0262	1,741.7	63.0965	1,741.7	65.3784	1,741.7	59.2668	1,741.7	67.2726	1,741.7	72.7885	1,741.7	64.7246	1,741.7	74.4971
1,803.22	90.1683	1,803.22	90.0531	1,803.22	88.5679	1,803.22	89.2825	1,803.22	84.6739	1,803.22	88.2234	1,803.22	79.3115	1,803.22	86.2656	1,803.22	76.6346	1,803.22	83.7234	1,803.22	77.2458	1,803.22	81.5291	1,803.22	77.9471	1,803.22	78.4132	1,803.22	78.986	1,803.22	73.3062	1,803.22	80.7611	1,803.22	69.7257	1,803.22	81.9325	1,803.22	73.0333	1,803.22	80.3403	1,803.22	73.279	1,803.22	73.7337	1,803.22	70.7588	1,803.22	62.4312	1,803.22	72.9241	1,803.22	71.2384	1,803.22	73.8319	1,803.22	72.756	1,803.22	73.2764	1,803.22	65.2484	1,803.22	68.2299	1,803.22	66.9503	1,803.22	73.5143	1,803.22	53.1791	1,803.22	73.138
1,866.21	89.5791	1,866.21	90.2632	1,866.21	88.0261	1,866.21	89.7108	1,866.21	85.2768	1,866.21	87.5687	1,866.21	79.0263	1,866.21	84.1922	1,866.21	77.5165	1,866.21	82.6185	1,866.21	81.4275	1,866.21	83.5934	1,866.21	81.795	1,866.21	83.1506	1,866.21	81.137	1,866.21	80.0522	1,866.21	81.1042	1,866.21	75.4222	1,866.21	81.563	1,866.21	71.8122	1,866.21	81.3027	1,866.21	60.9252	1,866.21	79.8228	1,866.21	63.8842	1,866.21	76.3368	1,866.21	67.8327	1,866.21	69.3847	1,866.21	74.9941	1,866.21	73.2626	1,866.21	73.1652	1,866.21	71.6172	1,866.21	68.079	1,866.21	70.4499	1,866.21	72.7732	1,866.21	55.0647	1,866.21	73.6138
1,932.13	89.4449	1,932.13	89.5072	1,932.13	87.3604	1,932.13	88.524	1,932.13	83.1997	1,932.13	87.2848	1,932.13	79.6861	1,932.13	84.968	1,932.13	77.945	1,932.13	80.3866	1,932.13	78.569	1,932.13	74.2023	1,932.13	80.5461	1,932.13	74.7991	1,932.13	81.5421	1,932.13	72.5211	1,932.13	82.2642	1,932.13	69.2722	1,932.13	81.9291	1,932.13	64.2832	1,932.13	80.1898	1,932.13	67.5085	1,932.13	79.3383	1,932.13	68.7743	1,932.13	77.9044	1,932.13	69.3158	1,932.13	67.358	1,932.13	63.5784	1,932.13	73.8799	1,932.13	70.6788	1,932.13	73.2709	1,932.13	70.1469	1,932.13	64.461	1,932.13	70.8913	1,932.13	63.1251	1,932.13	68.3417
1,999.51	89.3426	1,999.51	90.2984	1,999.51	86.4368	1,999.51	88.3034	1,999.51	84.0368	1,999.51	85.5009	1,999.51	78.6448	1,999.51	85.3778	1,999.51	79.1773	1,999.51	85.1959	1,999.51	84.3519	1,999.51	82.02	1,999.51	83.8893	1,999.51	76.9181	1,999.51	80.7479	1,999.51	78.211	1,999.51	78.1031	1,999.51	79.6954	1,999.51	77.7889	1,999.51	76.8569	1,999.51	76.062	1,999.51	74.5219	1,999.51	75.0895	1,999.51	76.5752	1,999.51	78.7678	1,999.51	68.6174	1,999.51	77.419	1,999.51	69.1477	1,999.51	71.1408	1,999.51	71.9343	1,999.51	73.3082	1,999.51	66.5608	1,999.51	69.8077	1,999.51	68.7372	1,999.51	56.4659	1,999.51	68.093
2,069.82	88.3185	2,069.82	88.8621	2,069.82	86.9051	2,069.82	86.9798	2,069.82	83.2379	2,069.82	82.8204	2,069.82	74.4031	2,069.82	80.2932	2,069.82	83.4997	2,069.82	82.345	2,069.82	84.2356	2,069.82	82.5688	2,069.82	81.3245	2,069.82	81.8329	2,069.82	81.5811	2,069.82	81.9281	2,069.82	82.8384	2,069.82	80.0027	2,069.82	83.3224	2,069.82	78.6327	2,069.82	82.4466	2,069.82	78.9601	2,069.82	77.4475	2,069.82	76.7693	2,069.82	75.6232	2,069.82	69.1035	2,069.82	76.6606	2,069.82	56.8956	2,069.82	75.0274	2,069.82	63.3046	2,069.82	76.7883	2,069.82	67.8755	2,069.82	69.3999	2,069.82	70.3453	2,069.82	61.2498	2,069.82	66.2007
2,143.07	88.17	2,143.07	87.391	2,143.07	86.7658	2,143.07	85.9018	2,143.07	81.5964	2,143.07	84.1735	2,143.07	77.6617	2,143.07	82.34	2,143.07	82.6832	2,143.07	81.4071	2,143.07	84.3279	2,143.07	78.6267	2,143.07	84.3991	2,143.07	78.8391	2,143.07	84.5494	2,143.07	81.7997	2,143.07	85.0428	2,143.07	80.5784	2,143.07	84.1844	2,143.07	73.3019	2,143.07	82.5487	2,143.07	75.2041	2,143.07	79.9893	2,143.07	71.5331	2,143.07	76.6121	2,143.07	66.9519	2,143.07	77.6738	2,143.07	71.6162	2,143.07	69.1081	2,143.07	74.1639	2,143.07	77.6113	2,143.07	71.9145	2,143.07	73.2683	2,143.07	71.5004	2,143.07	62.8204	2,143.07	57.2797
2,219.24	88.3778	2,219.24	87.1641	2,219.24	87.5119	2,219.24	85.6744	2,219.24	82.2419	2,219.24	82.2617	2,219.24	81.8731	2,219.24	77.5485	2,219.24	84.1223	2,219.24	79.4474	2,219.24	83.5936	2,219.24	80.3165	2,219.24	84.4951	2,219.24	81.019	2,219.24	84.7935	2,219.24	81.0398	2,219.24	85.6385	2,219.24	80.4179	2,219.24	85.0419	2,219.24	75.7148	2,219.24	81.3834	2,219.24	60.7074	2,219.24	80.6822	2,219.24	75.5178	2,219.24	75.9448	2,219.24	73.2054	2,219.24	74.7541	2,219.24	71.6007	2,219.24	75.2459	2,219.24	72.8365	2,219.24	67.952	2,219.24	70.0243	2,219.24	71.4403	2,219.24	69.7802	2,219.24	68.5015	2,219.24	56.6712
2,296.88	88.5383	2,296.88	87.8108	2,296.88	87.0431	2,296.88	85.9942	2,296.88	81.1769	2,296.88	80.966	2,296.88	82.2595	2,296.88	68.2884	2,296.88	83.9052	2,296.88	73.1464	2,296.88	85.1649	2,296.88	78.9121	2,296.88	85.9671	2,296.88	80.8569	2,296.88	83.8114	2,296.88	79.4372	2,296.88	81.5995	2,296.88	79.6673	2,296.88	80.1656	2,296.88	78.8225	2,296.88	73.9896	2,296.88	68.3687	2,296.88	77.4064	2,296.88	69.3452	2,296.88	79.303	2,296.88	65.5859	2,296.88	73.8013	2,296.88	65.1883	2,296.88	66.9548	2,296.88	71.2384	2,296.88	74.8193	2,296.88	68.7411	2,296.88	68.4405	2,296.88	69.8263	2,296.88	63.6604	2,296.88	58.4116
2,378.91	89.2965	2,378.91	87.9101	2,378.91	87.1091	2,378.91	83.9624	2,378.91	81.4409	2,378.91	78.3533	2,378.91	81.2682	2,378.91	65.186	2,378.91	83.1006	2,378.91	77.0381	2,378.91	85.8362	2,378.91	81.7862	2,378.91	85.6189	2,378.91	81.0802	2,378.91	82.358	2,378.91	80.7341	2,378.91	81.9517	2,378.91	81.5631	2,378.91	81.5426	2,378.91	79.4116	2,378.91	75.3213	2,378.91	76.1311	2,378.91	68.6039	2,378.91	75.2494	2,378.91	75.4021	2,378.91	70.409	2,378.91	71.3009	2,378.91	74.4712	2,378.91	67.132	2,378.91	73.1206	2,378.91	74.8054	2,378.91	70.1728	2,378.91	69.9776	2,378.91	72.0875	2,378.91	72.2702	2,378.91	67.1371
2,462.4	89.316	2,462.4	87.7926	2,462.4	87.7446	2,462.4	83.5292	2,462.4	82.2918	2,462.4	76.5668	2,462.4	81.3574	2,462.4	72.0407	2,462.4	84.9687	2,462.4	78.5901	2,462.4	85.8573	2,462.4	79.684	2,462.4	84.941	2,462.4	77.1068	2,462.4	81.7709	2,462.4	74.8838	2,462.4	80.0386	2,462.4	74.9588	2,462.4	81.121	2,462.4	73.926	2,462.4	77.7854	2,462.4	70.8237	2,462.4	71.7586	2,462.4	72.299	2,462.4	69.1998	2,462.4	68.6337	2,462.4	69.4117	2,462.4	66.9308	2,462.4	67.8086	2,462.4	70.8544	2,462.4	69.288	2,462.4	67.7199	2,462.4	68.3681	2,462.4	69.5406	2,462.4	68.3661	2,462.4	60.6198
2,548.83	88.7435	2,548.83	87.687	2,548.83	87.1489	2,548.83	84.388	2,548.83	81.913	2,548.83	76.4958	2,548.83	81.619	2,548.83	74.1155	2,548.83	85.1161	2,548.83	79.1206	2,548.83	85.2567	2,548.83	78.9808	2,548.83	83.8137	2,548.83	79.7479	2,548.83	81.0363	2,548.83	78.6847	2,548.83	79.3038	2,548.83	74.2695	2,548.83	80.7714	2,548.83	72.9141	2,548.83	76.6382	2,548.83	73.1928	2,548.83	63.1305	2,548.83	72.5686	2,548.83	69.9068	2,548.83	70.3527	2,548.83	67.1573	2,548.83	67.7364	2,548.83	67.7564	2,548.83	70.5896	2,548.83	64.0674	2,548.83	69.8088	2,548.83	65.6942	2,548.83	70.2971	2,548.83	61.7231	2,548.83	62.8939
2,639.65	89.2732	2,639.65	88.4755	2,639.65	87.0894	2,639.65	84.4262	2,639.65	81.1311	2,639.65	72.7137	2,639.65	79.3731	2,639.65	73.9269	2,639.65	83.463	2,639.65	78.9293	2,639.65	84.2314	2,639.65	79.7122	2,639.65	82.7433	2,639.65	78.8551	2,639.65	80.0854	2,639.65	77.1504	2,639.65	79.5366	2,639.65	77.1153	2,639.65	80.4886	2,639.65	75.9056	2,639.65	77.892	2,639.65	73.0025	2,639.65	75.3627	2,639.65	72.8436	2,639.65	67.6943	2,639.65	69.6484	2,639.65	70.6041	2,639.65	66.6562	2,639.65	65.7276	2,639.65	66.8817	2,639.65	67.2675	2,639.65	65.9428	2,639.65	65.8986	2,639.65	68.5597	2,639.65	67.2174	2,639.65	66.5048
2,731.93	89.4821	2,731.93	88.8239	2,731.93	87.1599	2,731.93	84.815	2,731.93	80.4281	2,731.93	73.1529	2,731.93	76.9213	2,731.93	75.3352	2,731.93	82.2283	2,731.93	79.145	2,731.93	83.2332	2,731.93	80.1523	2,731.93	81.93	2,731.93	80.593	2,731.93	78.189	2,731.93	79.0344	2,731.93	75.8778	2,731.93	76.6078	2,731.93	77.4799	2,731.93	74.2652	2,731.93	75.7356	2,731.93	70.6642	2,731.93	74.0593	2,731.93	70.8264	2,731.93	71.7444	2,731.93	69.224	2,731.93	68.7267	2,731.93	66.0204	2,731.93	65.8247	2,731.93	67.7835	2,731.93	66.633	2,731.93	65.5498	2,731.93	66.5604	2,731.93	66.1413	2,731.93	67.1375	2,731.93	60.5435
2,828.61	88.9851	2,828.61	88.1789	2,828.61	86.7817	2,828.61	83.7565	2,828.61	79.6642	2,828.61	73.3556	2,828.61	75.0313	2,828.61	73.0572	2,828.61	82.226	2,828.61	78.8598	2,828.61	82.7839	2,828.61	79.8439	2,828.61	81.3233	2,828.61	78.1251	2,828.61	78.534	2,828.61	76.5303	2,828.61	72.6564	2,828.61	74.4674	2,828.61	75.2906	2,828.61	70.4739	2,828.61	76.9056	2,828.61	67.3618	2,828.61	75.3079	2,828.61	70.1287	2,828.61	70.36	2,828.61	68.3529	2,828.61	67.1548	2,828.61	63.3718	2,828.61	64.7102	2,828.61	64.6752	2,828.61	58.8818	2,828.61	59.1806	2,828.61	58.0583	2,828.61	63.8999	2,828.61	65.5006	2,828.61	63.2664
2,928.22	89.6384	2,928.22	88.5704	2,928.22	86.9559	2,928.22	83.5711	2,928.22	77.9382	2,928.22	69.814	2,928.22	75.6868	2,928.22	76.9338	2,928.22	82.5035	2,928.22	80.6041	2,928.22	83.1253	2,928.22	80.1151	2,928.22	81.9279	2,928.22	77.9361	2,928.22	79.871	2,928.22	73.9515	2,928.22	72.179	2,928.22	72.1189	2,928.22	70.8397	2,928.22	73.2302	2,928.22	76.8125	2,928.22	69.7624	2,928.22	72.8539	2,928.22	67.376	2,928.22	70.0493	2,928.22	67.1272	2,928.22	57.6845	2,928.22	62.3247	2,928.22	64.1806	2,928.22	65.36	2,928.22	60.8848	2,928.22	63.5221	2,928.22	61.7312	2,928.22	63.4185	2,928.22	65.665	2,928.22	57.1118
3,030.76	89.0386	3,030.76	88.1032	3,030.76	86.5059	3,030.76	83.0296	3,030.76	77.7319	3,030.76	71.7425	3,030.76	75.1961	3,030.76	77.9198	3,030.76	82.3033	3,030.76	80.1518	3,030.76	82.758	3,030.76	79.48	3,030.76	81.5415	3,030.76	76.1028	3,030.76	79.3493	3,030.76	74.7971	3,030.76	71.5093	3,030.76	74.6296	3,030.76	69.69	3,030.76	70.9288	3,030.76	75.5366	3,030.76	65.1324	3,030.76	69.3353	3,030.76	65.6438	3,030.76	64.2988	3,030.76	65.5188	3,030.76	58.1529	3,030.76	61.4286	3,030.76	58.9037	3,030.76	63.7061	3,030.76	59.1429	3,030.76	59.0929	3,030.76	61.8545	3,030.76	60.9832	3,030.76	63.7608	3,030.76	54.6137
3,137.7	88.9801	3,137.7	87.8841	3,137.7	85.9198	3,137.7	82.0613	3,137.7	76.6396	3,137.7	71.9091	3,137.7	76.8179	3,137.7	77.7731	3,137.7	82.1841	3,137.7	79.6493	3,137.7	82.2742	3,137.7	77.4812	3,137.7	80.3671	3,137.7	75.271	3,137.7	77.0679	3,137.7	73.3419	3,137.7	69.5089	3,137.7	67.1481	3,137.7	71.1815	3,137.7	62.9646	3,137.7	74.4538	3,137.7	63.6225	3,137.7	64.0252	3,137.7	62.7366	3,137.7	62.177	3,137.7	63.9316	3,137.7	60.5664	3,137.7	60.3207	3,137.7	59.2995	3,137.7	62.7194	3,137.7	53.8081	3,137.7	60.4368	3,137.7	60.1308	3,137.7	57.8953	3,137.7	61.9381	3,137.7	42.3496
3,249.02	89.5195	3,249.02	88.4429	3,249.02	85.8386	3,249.02	82.2236	3,249.02	74.2132	3,249.02	71.9266	3,249.02	79.983	3,249.02	79.034	3,249.02	82.4934	3,249.02	78.8833	3,249.02	81.8123	3,249.02	76.3061	3,249.02	79.8413	3,249.02	72.588	3,249.02	75.3856	3,249.02	65.5221	3,249.02	69.5286	3,249.02	69.0286	3,249.02	71.0061	3,249.02	68.6172	3,249.02	71.0787	3,249.02	65.2726	3,249.02	60.3207	3,249.02	63.2454	3,249.02	59.6054	3,249.02	62.9165	3,249.02	65.3249	3,249.02	61.3553	3,249.02	51.3176	3,249.02	64.3081	3,249.02	56.3281	3,249.02	64.1485	3,249.02	60.1148	3,249.02	50.6702	3,249.02	58.8577	3,249.02	50.8056
3,363.28	90.0363	3,363.28	88.6026	3,363.28	86.4422	3,363.28	81.2494	3,363.28	73.131	3,363.28	74.477	3,363.28	81.8578	3,363.28	78.4304	3,363.28	83.44	3,363.28	77.7997	3,363.28	81.3896	3,363.28	75.534	3,363.28	78.7785	3,363.28	72.9198	3,363.28	74.4548	3,363.28	74.1202	3,363.28	71.1423	3,363.28	71.5826	3,363.28	72.8061	3,363.28	67.9569	3,363.28	56.4852	3,363.28	67.9195	3,363.28	70.3496	3,363.28	66.3522	3,363.28	61.3767	3,363.28	66.3642	3,363.28	67.8155	3,363.28	64.4912	3,363.28	53.4549	3,363.28	65.0102	3,363.28	58.7438	3,363.28	64.7725	3,363.28	61.2331	3,363.28	58.2264	3,363.28	57.0839	3,363.28	53.2462
3,481.93	90.8669	3,481.93	88.7595	3,481.93	87.2441	3,481.93	79.8448	3,481.93	72.2299	3,481.93	74.5927	3,481.93	82.7202	3,481.93	79.5923	3,481.93	84.2311	3,481.93	80.6001	3,481.93	81.4472	3,481.93	79.0209	3,481.93	77.4189	3,481.93	77.8388	3,481.93	71.0381	3,481.93	75.8893	3,481.93	70.8564	3,481.93	71.2734	3,481.93	73.4113	3,481.93	70.9433	3,481.93	67.635	3,481.93	70.4735	3,481.93	74.4634	3,481.93	67.2974	3,481.93	63.9051	3,481.93	67.5213	3,481.93	67.6811	3,481.93	65.1929	3,481.93	59.613	3,481.93	65.6787	3,481.93	60.718	3,481.93	65.1021	3,481.93	61.9673	3,481.93	60.2266	3,481.93	56.0124	3,481.93	52.9488
3,604.98	91.2777	3,604.98	87.9754	3,604.98	88.5136	3,604.98	75.5144	3,604.98	73.3397	3,604.98	78.0776	3,604.98	83.7447	3,604.98	82.4329	3,604.98	85.2766	3,604.98	82.0997	3,604.98	82.1262	3,604.98	80.5516	3,604.98	77.396	3,604.98	77.7909	3,604.98	70.1359	3,604.98	73.8427	3,604.98	70.3596	3,604.98	72.233	3,604.98	73.7826	3,604.98	69.5495	3,604.98	71.97	3,604.98	67.852	3,604.98	76.8416	3,604.98	65.4944	3,604.98	66.3567	3,604.98	65.6984	3,604.98	66.8537	3,604.98	64.3495	3,604.98	60.1932	3,604.98	64.3266	3,604.98	60.4181	3,604.98	63.2388	3,604.98	61.7139	3,604.98	56.5649	3,604.98	54.7129	3,604.98	52.1623
3,732.42	90.4446	3,732.42	85.7676	3,732.42	88.9251	3,732.42	71.3627	3,732.42	78.9124	3,732.42	81.8676	3,732.42	83.5198	3,732.42	84.0897	3,732.42	85.3437	3,732.42	82.8415	3,732.42	82.2714	3,732.42	79.8982	3,732.42	78.0944	3,732.42	75.6811	3,732.42	73.0431	3,732.42	71.8308	3,732.42	68.1462	3,732.42	68.276	3,732.42	72.2204	3,732.42	64.0721	3,732.42	72.332	3,732.42	64.6254	3,732.42	75.2928	3,732.42	60.7151	3,732.42	64.3416	3,732.42	61.4616	3,732.42	64.2277	3,732.42	62.0991	3,732.42	53.1986	3,732.42	61.6533	3,732.42	57.6592	3,732.42	59.1174	3,732.42	60.1388	3,732.42	54.9923	3,732.42	55.366	3,732.42	49.0458
3,864.26	90.1358	3,864.26	84.4313	3,864.26	88.7383	3,864.26	77.1996	3,864.26	79.3235	3,864.26	83.8089	3,864.26	84.0456	3,864.26	84.3744	3,864.26	85.1287	3,864.26	81.827	3,864.26	81.2053	3,864.26	77.7513	3,864.26	77.305	3,864.26	73.4899	3,864.26	74.8139	3,864.26	67.8907	3,864.26	71.3028	3,864.26	61.2911	3,864.26	72.8828	3,864.26	60.3497	3,864.26	72.1263	3,864.26	63.1654	3,864.26	73.8134	3,864.26	61.9502	3,864.26	60.0235	3,864.26	62.7682	3,864.26	61.4873	3,864.26	62.6206	3,864.26	44.3405	3,864.26	61.6271	3,864.26	47.6854	3,864.26	58.6978	3,864.26	59.8065	3,864.26	55.3371	3,864.26	53.1629	3,864.26	49.87
4,000.49	88.5135	4,000.49	82.5298	4,000.49	87.5619	4,000.49	80.9017	4,000.49	80.4367	4,000.49	84.9398	4,000.49	83.5422	4,000.49	84.4017	4,000.49	84.4322	4,000.49	80.5891	4,000.49	80.3973	4,000.49	76.058	4,000.49	76.5687	4,000.49	70.2533	4,000.49	74.0909	4,000.49	64.5778	4,000.49	71.1206	4,000.49	64.9027	4,000.49	72.1538	4,000.49	64.1753	4,000.49	70.5533	4,000.49	66.0069	4,000.49	71.6228	4,000.49	63.9589	4,000.49	62.1825	4,000.49	63.824	4,000.49	60.5706	4,000.49	63.6404	4,000.49	54.87	4,000.49	62.4374	4,000.49	51.0526	4,000.49	62.3885	4,000.49	60.9688	4,000.49	60.9316	4,000.49	52.4614	4,000.49	54.4734
4,141.11	88.4336	4,141.11	83.1763	4,141.11	87.505	4,141.11	83.3501	4,141.11	80.656	4,141.11	85.4979	4,141.11	83.8686	4,141.11	84.085	4,141.11	83.1331	4,141.11	79.7206	4,141.11	79.0825	4,141.11	74.5536	4,141.11	77.4095	4,141.11	69.4254	4,141.11	73.9688	4,141.11	69.9172	4,141.11	71.5481	4,141.11	61.2613	4,141.11	68.0627	4,141.11	64.8046	4,141.11	68.7696	4,141.11	66.4172	4,141.11	68.9559	4,141.11	64.3214	4,141.11	62.6547	4,141.11	62.5359	4,141.11	60.8382	4,141.11	64.5166	4,141.11	48.8704	4,141.11	62.9368	4,141.11	53.0273	4,141.11	63.0845	4,141.11	60.6393	4,141.11	62.9496	4,141.11	43.0177	4,141.11	56.5635
4,287.6	88.5637	4,287.6	84.3495	4,287.6	87.5087	4,287.6	84.54	4,287.6	81.3171	4,287.6	85.8457	4,287.6	83.7145	4,287.6	83.4122	4,287.6	82.5174	4,287.6	78.2406	4,287.6	78.5987	4,287.6	75.2442	4,287.6	77.9473	4,287.6	72.4767	4,287.6	74.4599	4,287.6	67.344	4,287.6	71.1613	4,287.6	68.3643	4,287.6	67.2463	4,287.6	68.4138	4,287.6	66.8203	4,287.6	66.8086	4,287.6	68.0971	4,287.6	65.9083	4,287.6	67.0601	4,287.6	63.9177	4,287.6	51.7565	4,287.6	64.2016	4,287.6	52.2777	4,287.6	66.3052	4,287.6	57.3127	4,287.6	62.1696	4,287.6	60.008	4,287.6	62.6873	4,287.6	47.6326	4,287.6	58.6168
4,438.48	88.8098	4,438.48	85.3622	4,438.48	87.6029	4,438.48	85.6974	4,438.48	81.9945	4,438.48	85.8752	4,438.48	83.9141	4,438.48	82.7464	4,438.48	82.9126	4,438.48	79.1403	4,438.48	76.6715	4,438.48	76.4208	4,438.48	76.5186	4,438.48	72.4299	4,438.48	74.4356	4,438.48	71.7197	4,438.48	60.8538	4,438.48	65.9413	4,438.48	68.9665	4,438.48	65.6899	4,438.48	66.9964	4,438.48	66.6942	4,438.48	70.0474	4,438.48	64.6211	4,438.48	66.2341	4,438.48	64.8133	4,438.48	52.579	4,438.48	64.3395	4,438.48	55.2447	4,438.48	64.8295	4,438.48	59.2823	4,438.48	62.4662	4,438.48	60.3568	4,438.48	62.7453	4,438.48	52.9869	4,438.48	57.0164
4,595.21	88.9109	4,595.21	85.7198	4,595.21	88.079	4,595.21	86.192	4,595.21	82.7365	4,595.21	85.9514	4,595.21	84.4684	4,595.21	82.8128	4,595.21	82.8913	4,595.21	79.5725	4,595.21	74.9557	4,595.21	76.4667	4,595.21	75.6338	4,595.21	74.5953	4,595.21	70.8919	4,595.21	69.6411	4,595.21	59.7594	4,595.21	66.4166	4,595.21	71.5219	4,595.21	66.5025	4,595.21	66.8039	4,595.21	65.1379	4,595.21	69.7473	4,595.21	64.4752	4,595.21	64.7045	4,595.21	62.5731	4,595.21	57.765	4,595.21	63.3102	4,595.21	28.4106	4,595.21	64.6008	4,595.21	61.7882	4,595.21	59.3282	4,595.21	60.3932	4,595.21	58.5347	4,595.21	53.1276	4,595.21	48.4899
4,756.35	89.2472	4,756.35	86.1164	4,756.35	88.1299	4,756.35	86.63	4,756.35	83.3984	4,756.35	85.4179	4,756.35	84.9201	4,756.35	82.5497	4,756.35	82.4207	4,756.35	79.3027	4,756.35	75.653	4,756.35	76.1315	4,756.35	76.3571	4,756.35	70.4947	4,756.35	71.3836	4,756.35	67.8239	4,756.35	69.6357	4,756.35	65.0089	4,756.35	70.8204	4,756.35	62.164	4,756.35	66.6976	4,756.35	63.8749	4,756.35	66.5503	4,756.35	63.1098	4,756.35	61.9498	4,756.35	59.251	4,756.35	63.0422	4,756.35	58.435	4,756.35	49.1722	4,756.35	60.6231	4,756.35	60.3842	4,756.35	53.9315	4,756.35	57.9057	4,756.35	55.8297	4,756.35	57.4841	4,756.35	50.4834
4,924.8	88.8505	4,924.8	86.4763	4,924.8	88.5358	4,924.8	86.8734	4,924.8	84.2828	4,924.8	85.3431	4,924.8	84.8214	4,924.8	82.396	4,924.8	82.7085	4,924.8	78.5894	4,924.8	76.5072	4,924.8	74.4849	4,924.8	76.7677	4,924.8	70.1674	4,924.8	71.1701	4,924.8	65.1106	4,924.8	71.9616	4,924.8	57.3091	4,924.8	72.0017	4,924.8	63.4999	4,924.8	67.4925	4,924.8	58.5231	4,924.8	66.2905	4,924.8	60.465	4,924.8	60.0609	4,924.8	59.079	4,924.8	57.3132	4,924.8	50.0269	4,924.8	48.9145	4,924.8	57.4267	4,924.8	58.5718	4,924.8	52.2431	4,924.8	56.9007	4,924.8	55.6636	4,924.8	54.9468	4,924.8	56.9021
5,097.66	89.3287	5,097.66	87.3669	5,097.66	89.0924	5,097.66	87.0149	5,097.66	85.3428	5,097.66	84.7827	5,097.66	85.1796	5,097.66	81.2835	5,097.66	82.3121	5,097.66	77.228	5,097.66	74.6594	5,097.66	72.971	5,097.66	74.5928	5,097.66	63.8377	5,097.66	73.4606	5,097.66	61.3174	5,097.66	70.5787	5,097.66	61.3358	5,097.66	67.8125	5,097.66	61.237	5,097.66	67.034	5,097.66	60.2016	5,097.66	65.4248	5,097.66	58.3252	5,097.66	55.7104	5,097.66	61.0111	5,097.66	54.3772	5,097.66	54.0055	5,097.66	48.2503	5,097.66	54.6634	5,097.66	58.8895	5,097.66	56.0802	5,097.66	51.9194	5,097.66	50.9037	5,097.66	56.749	5,097.66	54.7213
5,277.83	89.4325	5,277.83	87.8049	5,277.83	88.7355	5,277.83	86.8034	5,277.83	85.7824	5,277.83	84.2926	5,277.83	84.9866	5,277.83	80.4373	5,277.83	81.3092	5,277.83	75.9908	5,277.83	72.7819	5,277.83	69.1608	5,277.83	72.5732	5,277.83	61.5089	5,277.83	72.0465	5,277.83	63.2225	5,277.83	67.6344	5,277.83	62.6745	5,277.83	58.7107	5,277.83	61.3631	5,277.83	65.0856	5,277.83	60.2543	5,277.83	56.2555	5,277.83	60.3544	5,277.83	48.5474	5,277.83	63.1061	5,277.83	58.7481	5,277.83	59.0704	5,277.83	54.1828	5,277.83	60.2524	5,277.83	56.4484	5,277.83	60.785	5,277.83	47.9978	5,277.83	56.8817	5,277.83	54.2345	5,277.83	56.0818
5,463.87	89.2344	5,463.87	87.5633	5,463.87	88.7137	5,463.87	86.478	5,463.87	85.9874	5,463.87	83.9343	5,463.87	84.7656	5,463.87	79.8722	5,463.87	80.3806	5,463.87	74.2614	5,463.87	72.4197	5,463.87	65.411	5,463.87	71.3999	5,463.87	64.0156	5,463.87	69.2498	5,463.87	65.1245	5,463.87	64.1666	5,463.87	66.6923	5,463.87	62.0153	5,463.87	63.2849	5,463.87	59.0636	5,463.87	61.1589	5,463.87	53.6268	5,463.87	61.572	5,463.87	51.4331	5,463.87	62.4065	5,463.87	51.2603	5,463.87	61.1024	5,463.87	58.1794	5,463.87	62.1722	5,463.87	54.9789	5,463.87	61.3726	5,463.87	44.0911	5,463.87	60.0065	5,463.87	50.6437	5,463.87	52.2469
5,657.23	89.1361	5,657.23	87.5184	5,657.23	88.8355	5,657.23	86.3468	5,657.23	86.3314	5,657.23	83.5039	5,657.23	85.0197	5,657.23	79.378	5,657.23	79.9762	5,657.23	73.3274	5,657.23	70.9043	5,657.23	66.3894	5,657.23	69.69	5,657.23	67.9991	5,657.23	68.8914	5,657.23	65.0914	5,657.23	64.478	5,657.23	66.4436	5,657.23	58.8575	5,657.23	65.3751	5,657.23	56.2117	5,657.23	62.974	5,657.23	59.5262	5,657.23	61.8118	5,657.23	52.5052	5,657.23	62.4247	5,657.23	48.8875	5,657.23	61.1717	5,657.23	57.8669	5,657.23	62.5393	5,657.23	57.4519	5,657.23	60.9076	5,657.23	44.6441	5,657.23	60.4578	5,657.23	45.6798	5,657.23	52.804
5,856.45	89.3487	5,856.45	87.6732	5,856.45	89.1236	5,856.45	86.2625	5,856.45	86.756	5,856.45	83.4105	5,856.45	85.0584	5,856.45	78.6955	5,856.45	79.9266	5,856.45	72.3008	5,856.45	70.7964	5,856.45	68.804	5,856.45	68.2568	5,856.45	67.723	5,856.45	68.7659	5,856.45	68.0998	5,856.45	65.6955	5,856.45	67.0638	5,856.45	61.6737	5,856.45	64.6734	5,856.45	60.6214	5,856.45	62.9659	5,856.45	63.7809	5,856.45	61.7284	5,856.45	53.4761	5,856.45	62.5045	5,856.45	50.0948	5,856.45	60.1763	5,856.45	52.6638	5,856.45	60.3151	5,856.45	58.4069	5,856.45	60.1041	5,856.45	51.3502	5,856.45	57.4956	5,856.45	50.6145	5,856.45	52.6904
6,062.99	89.2724	6,062.99	87.6837	6,062.99	89.1759	6,062.99	86.3398	6,062.99	86.8277	6,062.99	83.0906	6,062.99	84.3234	6,062.99	77.662	6,062.99	79.13	6,062.99	73.1974	6,062.99	68.7341	6,062.99	68.3663	6,062.99	68.2299	6,062.99	67.3738	6,062.99	71.6897	6,062.99	65.8205	6,062.99	71.3768	6,062.99	66.1146	6,062.99	68.7764	6,062.99	63.8298	6,062.99	64.251	6,062.99	61.6096	6,062.99	66.817	6,062.99	61.6264	6,062.99	57.927	6,062.99	62.2053	6,062.99	51.5258	6,062.99	59.4013	6,062.99	55.1035	6,062.99	59.8878	6,062.99	59.2197	6,062.99	59.5831	6,062.99	54.1808	6,062.99	56.2001	6,062.99	55.8128	6,062.99	56.1244
6,276.86	89.3827	6,276.86	87.9023	6,276.86	89.234	6,276.86	86.3971	6,276.86	87.0469	6,276.86	82.447	6,276.86	84.3339	6,276.86	77.337	6,276.86	78.4297	6,276.86	73.3042	6,276.86	68.6882	6,276.86	67.6938	6,276.86	71.2007	6,276.86	67.9081	6,276.86	75.0669	6,276.86	67.312	6,276.86	75.0894	6,276.86	65.2383	6,276.86	68.2807	6,276.86	63.255	6,276.86	62.7172	6,276.86	62.4429	6,276.86	67.1049	6,276.86	61.1592	6,276.86	55.1742	6,276.86	61.4308	6,276.86	50.4022	6,276.86	60.133	6,276.86	43.5797	6,276.86	57.8125	6,276.86	60.0334	6,276.86	60.7912	6,276.86	52.8979	6,276.86	56.9796	6,276.86	52.7184	6,276.86	57.7836
6,498.05	89.5255	6,498.05	88.5129	6,498.05	88.8986	6,498.05	86.8818	6,498.05	86.6944	6,498.05	82.3323	6,498.05	83.7028	6,498.05	78.9034	6,498.05	78.2408	6,498.05	72.312	6,498.05	71.4284	6,498.05	70.4537	6,498.05	71.5414	6,498.05	67.9611	6,498.05	75.5058	6,498.05	69.1129	6,498.05	75.2337	6,498.05	67.6457	6,498.05	70.5776	6,498.05	64.4174	6,498.05	64.079	6,498.05	63.0202	6,498.05	59.7678	6,498.05	61.4597	6,498.05	48.5325	6,498.05	62.5085	6,498.05	53.2152	6,498.05	60.5167	6,498.05	52.691	6,498.05	58.3838	6,498.05	47.0259	6,498.05	59.8597	6,498.05	55.5569	6,498.05	59.7763	6,498.05	52.5566	6,498.05	59.3198
6,726.56	89.6868	6,726.56	89.0241	6,726.56	88.8247	6,726.56	87.2201	6,726.56	85.9475	6,726.56	83.1175	6,726.56	82.3835	6,726.56	78.6904	6,726.56	77.2719	6,726.56	71.5551	6,726.56	75.8017	6,726.56	72.0035	6,726.56	73.9839	6,726.56	70.333	6,726.56	74.7136	6,726.56	69.3983	6,726.56	74.1987	6,726.56	65.1946	6,726.56	71.0146	6,726.56	62.9746	6,726.56	67.3589	6,726.56	61.1495	6,726.56	58.1932	6,726.56	60.4854	6,726.56	51.7245	6,726.56	60.8339	6,726.56	56.8375	6,726.56	60.5402	6,726.56	48.6573	6,726.56	59.7588	6,726.56	55.1801	6,726.56	61.8625	6,726.56	52.8507	6,726.56	60.0135	6,726.56	55.2359	6,726.56	58.7875
6,963.87	89.5329	6,963.87	89.1049	6,963.87	88.2646	6,963.87	87.4721	6,963.87	85.3104	6,963.87	83.2404	6,963.87	81.2068	6,963.87	78.2478	6,963.87	77.2422	6,963.87	73.8053	6,963.87	76.7914	6,963.87	73.7043	6,963.87	73.3589	6,963.87	72.0261	6,963.87	75.6085	6,963.87	69.6164	6,963.87	72.2221	6,963.87	64.4446	6,963.87	65.9668	6,963.87	63.9194	6,963.87	65.3301	6,963.87	60.911	6,963.87	62.8507	6,963.87	62.3342	6,963.87	53.0741	6,963.87	59.7041	6,963.87	46.6996	6,963.87	61.3859	6,963.87	47.1917	6,963.87	59.8573	6,963.87	53.7833	6,963.87	63.7986	6,963.87	51.8805	6,963.87	59.7353	6,963.87	55.4686	6,963.87	56.6256
7,209.96	89.6323	7,209.96	89.3791	7,209.96	88.4383	7,209.96	87.3889	7,209.96	85.3661	7,209.96	83.0101	7,209.96	81.4583	7,209.96	77.9139	7,209.96	78.5551	7,209.96	75.3147	7,209.96	76.1158	7,209.96	73.4579	7,209.96	71.8767	7,209.96	71.6621	7,209.96	73.8176	7,209.96	68.5958	7,209.96	66.4058	7,209.96	67.8407	7,209.96	67.1336	7,209.96	65.9455	7,209.96	63.295	7,209.96	62.7821	7,209.96	54.4039	7,209.96	64.1484	7,209.96	57.4666	7,209.96	61.7778	7,209.96	57.5999	7,209.96	63.5684	7,209.96	48.7482	7,209.96	60.4216	7,209.96	52.1824	7,209.96	64.2565	7,209.96	47.207	7,209.96	60.5977	7,209.96	55.7842	7,209.96	57.0331
7,464.84	89.2768	7,464.84	89.2625	7,464.84	88.2825	7,464.84	87.0256	7,464.84	86.0287	7,464.84	82.5886	7,464.84	82.4266	7,464.84	77.2909	7,464.84	77.7797	7,464.84	75.414	7,464.84	72.6632	7,464.84	73.2322	7,464.84	68.56	7,464.84	72.6196	7,464.84	64.5878	7,464.84	68.9046	7,464.84	62.2235	7,464.84	67.233	7,464.84	65.5845	7,464.84	65.3215	7,464.84	63.551	7,464.84	63.2933	7,464.84	58.277	7,464.84	64.1509	7,464.84	52.2902	7,464.84	59.9555	7,464.84	51.3053	7,464.84	61.761	7,464.84	43.3725	7,464.84	61.3649	7,464.84	51.9996	7,464.84	62.8038	7,464.84	48.7086	7,464.84	61.0147	7,464.84	51.7074	7,464.84	54.7739
7,727.05	89.275	7,727.05	88.7256	7,727.05	88.4374	7,727.05	86.1949	7,727.05	86.2031	7,727.05	81.2075	7,727.05	82.4764	7,727.05	76.6023	7,727.05	75.6173	7,727.05	75.0236	7,727.05	69.3752	7,727.05	72.4085	7,727.05	62.2974	7,727.05	71.7447	7,727.05	63.524	7,727.05	67.2854	7,727.05	70.028	7,727.05	65.2817	7,727.05	64.3991	7,727.05	62.3944	7,727.05	60.3646	7,727.05	61.862	7,727.05	62.4753	7,727.05	62.0298	7,727.05	58.8803	7,727.05	59.6098	7,727.05	45.0086	7,727.05	59.9264	7,727.05	46.9092	7,727.05	60.6877	7,727.05	49.7988	7,727.05	59.7134	7,727.05	49.7841	7,727.05	59.7085	7,727.05	49.7171	7,727.05	54.7173
7,999.51	89.5548	7,999.51	88.5921	7,999.51	88.7251	7,999.51	85.6224	7,999.51	85.8561	7,999.51	79.796	7,999.51	81.5727	7,999.51	77.2505	7,999.51	73.3807	7,999.51	73.4877	7,999.51	69.3399	7,999.51	71.7446	7,999.51	64.3311	7,999.51	68.8123	7,999.51	69.3485	7,999.51	64.602	7,999.51	72.2211	7,999.51	63.0518	7,999.51	66.2243	7,999.51	59.8616	7,999.51	50.1281	7,999.51	60.6512	7,999.51	61.7095	7,999.51	59.8379	7,999.51	58.0602	7,999.51	58.2975	7,999.51	48.5644	7,999.51	57.3157	7,999.51	48.3623	7,999.51	57.8783	7,999.51	34.588	7,999.51	57.9786	7,999.51	44.9741	7,999.51	56.8702	7,999.51	48.558	7,999.51	49.8824
8,282.23	89.6848	8,282.23	88.5875	8,282.23	88.6997	8,282.23	84.9658	8,282.23	85.4129	8,282.23	79.4003	8,282.23	80.199	8,282.23	77.2292	8,282.23	74.5507	8,282.23	72.0276	8,282.23	71.2811	8,282.23	70.3045	8,282.23	69.0597	8,282.23	66.8846	8,282.23	71.4155	8,282.23	64.6012	8,282.23	71.2793	8,282.23	60.9597	8,282.23	62.1071	8,282.23	59.9194	8,282.23	53.2136	8,282.23	59.3876	8,282.23	58.1906	8,282.23	57.0897	8,282.23	53.9319	8,282.23	52.7534	8,282.23	42.1	8,282.23	55.5695	8,282.23	37.3811	8,282.23	53.679	8,282.23	51.2095	8,282.23	57.776	8,282.23	45.7787	8,282.23	53.3906	8,282.23	42.0319	8,282.23	42.4706
8,573.73	89.8208	8,573.73	88.7553	8,573.73	88.9625	8,573.73	84.6487	8,573.73	85.1182	8,573.73	79.3223	8,573.73	79.3473	8,573.73	74.6913	8,573.73	73.9847	8,573.73	71.1106	8,573.73	71.9499	8,573.73	67.3107	8,573.73	67.5141	8,573.73	65.0372	8,573.73	69.5524	8,573.73	58.2772	8,573.73	68.1211	8,573.73	57.2973	8,573.73	60.156	8,573.73	55.9242	8,573.73	55.9674	8,573.73	56.7462	8,573.73	54.8437	8,573.73	54.7574	8,573.73	55.7245	8,573.73	53.4092	8,573.73	46.6547	8,573.73	52.9817	8,573.73	47.8477	8,573.73	50.9612	8,573.73	48.9337	8,573.73	56.612	8,573.73	40.3685	8,573.73	52.2021	8,573.73	46.226	8,573.73	41.1951
8,876.95	89.947	8,876.95	88.7637	8,876.95	88.9268	8,876.95	84.3763	8,876.95	84.7651	8,876.95	78.3457	8,876.95	78.5476	8,876.95	73.6661	8,876.95	74.2104	8,876.95	70.7205	8,876.95	70.6211	8,876.95	64.6944	8,876.95	66.4493	8,876.95	63.9495	8,876.95	67.2517	8,876.95	58.1536	8,876.95	58.7914	8,876.95	58.3507	8,876.95	56.7366	8,876.95	57.2217	8,876.95	59.2215	8,876.95	54.1066	8,876.95	52.0492	8,876.95	54.9402	8,876.95	45.1749	8,876.95	53.0602	8,876.95	54.1375	8,876.95	53.6753	8,876.95	42.6594	8,876.95	45.6517	8,876.95	45.1325	8,876.95	56.2049	8,876.95	45.7529	8,876.95	53.7001	8,876.95	45.6468	8,876.95	51.3774
9,188.96	90.1962	9,188.96	88.9666	9,188.96	88.5766	9,188.96	84.0489	9,188.96	84.3996	9,188.96	78.2306	9,188.96	78.2889	9,188.96	74.4137	9,188.96	74.7011	9,188.96	69.7415	9,188.96	69.8587	9,188.96	64.6335	9,188.96	67.7151	9,188.96	61.904	9,188.96	62.9493	9,188.96	53.7535	9,188.96	53.5607	9,188.96	53.7708	9,188.96	52.5179	9,188.96	50.3135	9,188.96	49.9801	9,188.96	49.9732	9,188.96	52.4219	9,188.96	52.6215	9,188.96	36.5259	9,188.96	47.7344	9,188.96	51.463	9,188.96	51.8918	9,188.96	46.7882	9,188.96	43.2801	9,188.96	50.3026	9,188.96	54.792	9,188.96	42.0351	9,188.96	51.6241	9,188.96	44.1961	9,188.96	51.4003
9,514.16	89.9688	9,514.16	88.6706	9,514.16	88.4494	9,514.16	83.7074	9,514.16	83.7799	9,514.16	78.2322	9,514.16	78.3367	9,514.16	74.2881	9,514.16	74.7774	9,514.16	67.4806	9,514.16	69.6581	9,514.16	59.1866	9,514.16	62.9155	9,514.16	39.987	9,514.16	53.4589	9,514.16	56.0712	9,514.16	59.1299	9,514.16	54.673	9,514.16	58.3819	9,514.16	54.3355	9,514.16	50.3927	9,514.16	50.6151	9,514.16	54.6232	9,514.16	54.492	9,514.16	45.8238	9,514.16	50.8872	9,514.16	45.6145	9,514.16	50.2492	9,514.16	49.8282	9,514.16	44.3558	9,514.16	47.0641	9,514.16	55.1019	9,514.16	36.2924	9,514.16	51.5338	9,514.16	45.979	9,514.16	44.9981
9,849.61	89.7325	9,849.61	88.1127	9,849.61	88.2283	9,849.61	83.04	9,849.61	83.3565	9,849.61	78.1655	9,849.61	78.3815	9,849.61	74.26	9,849.61	73.5079	9,849.61	63.9687	9,849.61	65.8121	9,849.61	55.3222	9,849.61	54.9581	9,849.61	60.5391	9,849.61	57.5147	9,849.61	62.323	9,849.61	64.3794	9,849.61	60.4506	9,849.61	62.5311	9,849.61	57.818	9,849.61	48.0913	9,849.61	54.986	9,849.61	48.2835	9,849.61	54.746	9,849.61	47.2444	9,849.61	53.7692	9,849.61	47.6419	9,849.61	55.8714	9,849.61	51.1786	9,849.61	49.0137	9,849.61	45.3825	9,849.61	57.1638	9,849.61	35.7145	9,849.61	55.9293	9,849.61	45.455	9,849.61	49.4485
10,196.8	89.6358	10,196.8	87.9015	10,196.8	87.9325	10,196.8	82.4598	10,196.8	83.1037	10,196.8	78.2271	10,196.8	78.413	10,196.8	73.3015	10,196.8	71.2995	10,196.8	55.2929	10,196.8	58.6743	10,196.8	61.8588	10,196.8	66.2233	10,196.8	65.2919	10,196.8	61.0962	10,196.8	64.3343	10,196.8	65.4015	10,196.8	62.0165	10,196.8	63.9035	10,196.8	60.805	10,196.8	53.5451	10,196.8	56.7075	10,196.8	39.6375	10,196.8	57.1042	10,196.8	47.5206	10,196.8	54.268	10,196.8	51.3579	10,196.8	55.3935	10,196.8	45.6499	10,196.8	51.7713	10,196.8	47.5944	10,196.8	57.4555	10,196.8	42.2218	10,196.8	55.9993	10,196.8	38.6977	10,196.8	51.5921
10,555.7	89.6568	10,555.7	87.4163	10,555.7	87.5014	10,555.7	82.5592	10,555.7	82.9953	10,555.7	77.738	10,555.7	78.0576	10,555.7	70.4942	10,555.7	69.5603	10,555.7	57.2393	10,555.7	61.7063	10,555.7	65.9857	10,555.7	70.3075	10,555.7	66.8426	10,555.7	63.1541	10,555.7	63.9556	10,555.7	68.4097	10,555.7	63.6253	10,555.7	66.5925	10,555.7	60.381	10,555.7	57.6092	10,555.7	57.1582	10,555.7	42.7593	10,555.7	57.8639	10,555.7	50.3009	10,555.7	55.4178	10,555.7	54.9469	10,555.7	56.7952	10,555.7	46.5913	10,555.7	52.4725	10,555.7	49.558	10,555.7	58.0449	10,555.7	43.8008	10,555.7	58.3599	10,555.7	40.903	10,555.7	48.1097
10,927.7	89.629	10,927.7	87.382	10,927.7	87.4012	10,927.7	83.3014	10,927.7	82.7734	10,927.7	76.8124	10,927.7	78.2631	10,927.7	65.8029	10,927.7	67.9633	10,927.7	66.3211	10,927.7	69.4677	10,927.7	68.5282	10,927.7	70.7209	10,927.7	67.6664	10,927.7	67.7212	10,927.7	64.6701	10,927.7	70.7236	10,927.7	62.2631	10,927.7	63.9526	10,927.7	59.3085	10,927.7	56.9089	10,927.7	56.1514	10,927.7	50.2726	10,927.7	58.2256	10,927.7	40.1608	10,927.7	55.5301	10,927.7	48.9201	10,927.7	54.2709	10,927.7	44.331	10,927.7	51.5817	10,927.7	46.9641	10,927.7	58.5791	10,927.7	39.844	10,927.7	59.0561	10,927.7	29.9542	10,927.7	47.1736
11,313	89.423	11,313	87.8741	11,313	87.826	11,313	84.2582	11,313	83.7251	11,313	75.3699	11,313	77.4741	11,313	62.7103	11,313	69.0121	11,313	71.6483	11,313	72.4054	11,313	71.6276	11,313	69.5217	11,313	68.9965	11,313	70.6987	11,313	66.6802	11,313	71.3366	11,313	63.9466	11,313	64.2088	11,313	61.7141	11,313	63.8437	11,313	57.6061	11,313	59.579	11,313	58.1591	11,313	50.492	11,313	56.0982	11,313	50.452	11,313	55.9248	11,313	51.8014	11,313	50.4984	11,313	47.3197	11,313	58.3686	11,313	47.1975	11,313	59.1611	11,313	41.2297	11,313	47.1757
11,712.9	89.2557	11,712.9	88.4508	11,712.9	88.5211	11,712.9	84.5536	11,712.9	84.0948	11,712.9	73.3603	11,712.9	72.5122	11,712.9	67.6691	11,712.9	72.0248	11,712.9	73.9624	11,712.9	73.1321	11,712.9	73.1882	11,712.9	69.665	11,712.9	71.1014	11,712.9	69.8842	11,712.9	68.3279	11,712.9	68.8679	11,712.9	64.8292	11,712.9	64.3155	11,712.9	61.818	11,712.9	64.5025	11,712.9	58.0233	11,712.9	61.9245	11,712.9	57.2953	11,712.9	52.6811	11,712.9	52.5546	11,712.9	50.6725	11,712.9	55.3947	11,712.9	48.8087	11,712.9	50.6729	11,712.9	48.6999	11,712.9	56.8074	11,712.9	46.9951	11,712.9	59.0737	11,712.9	45.8141	11,712.9	51.9288
12,126	89.4835	12,126	88.6805	12,126	88.8748	12,126	83.8556	12,126	83.6125	12,126	70.8912	12,126	64.16	12,126	69.8987	12,126	72.326	12,126	74.0325	12,126	72.8705	12,126	73.6506	12,126	72.2863	12,126	70.7473	12,126	66.9057	12,126	67.0776	12,126	63.7106	12,126	62.3684	12,126	61.6157	12,126	59.0536	12,126	64.6951	12,126	53.3072	12,126	63.0482	12,126	51.0828	12,126	50.7944	12,126	42.7834	12,126	44.6752	12,126	51.6606	12,126	52.6978	12,126	46.9566	12,126	46.761	12,126	52.4416	12,126	47.3354	12,126	57.3623	12,126	48.1646	12,126	50.8733
12,553.7	89.5274	12,553.7	88.4709	12,553.7	88.7428	12,553.7	82.5912	12,553.7	82.8116	12,553.7	64.2849	12,553.7	57.4831	12,553.7	71.5348	12,553.7	72.4916	12,553.7	73.209	12,553.7	73.0558	12,553.7	72.9861	12,553.7	71.9823	12,553.7	67.1866	12,553.7	66.191	12,553.7	61.9345	12,553.7	63.3747	12,553.7	55.3136	12,553.7	57.3435	12,553.7	52.4468	12,553.7	61.5978	12,553.7	43.2027	12,553.7	60.2279	12,553.7	48.3377	12,553.7	43.4362	12,553.7	46.1856	12,553.7	44.9375	12,553.7	41.2336	12,553.7	49.9944	12,553.7	29.6105	12,553.7	41.7599	12,553.7	49.9989	12,553.7	36.7943	12,553.7	52.9179	12,553.7	43.6687	12,553.7	45.8948
12,996.1	89.5013	12,996.1	88.0741	12,996.1	88.1693	12,996.1	81.2077	12,996.1	81.1371	12,996.1	55.0205	12,996.1	55.9215	12,996.1	72.2474	12,996.1	73.0607	12,996.1	73.6192	12,996.1	73.5554	12,996.1	72.4961	12,996.1	70.9491	12,996.1	64.6862	12,996.1	65.5798	12,996.1	59.7234	12,996.1	62.5845	12,996.1	52.6386	12,996.1	52.4907	12,996.1	52.2305	12,996.1	59.5024	12,996.1	36.6306	12,996.1	56.9368	12,996.1	49.7853	12,996.1	48.8453	12,996.1	45.9122	12,996.1	49.5462	12,996.1	46.8467	12,996.1	49.1135	12,996.1	42.4241	12,996.1	42.0102	12,996.1	46.1792	12,996.1	45.992	12,996.1	52.2486	12,996.1	43.9345	12,996.1	42.6494
13,454.6	89.4113	13,454.6	87.4745	13,454.6	87.6663	13,454.6	79.5384	13,454.6	79.703	13,454.6	54.8587	13,454.6	61.3065	13,454.6	72.5112	13,454.6	73.652	13,454.6	73.9996	13,454.6	73.5129	13,454.6	70.9597	13,454.6	69.4533	13,454.6	65.1173	13,454.6	64.3999	13,454.6	58.5373	13,454.6	60.3868	13,454.6	53.9008	13,454.6	49.3917	13,454.6	48.3452	13,454.6	60.4111	13,454.6	37.2364	13,454.6	58.8625	13,454.6	44.0817	13,454.6	49.2637	13,454.6	24.1934	13,454.6	50.3486	13,454.6	47.1097	13,454.6	48.1101	13,454.6	43.081	13,454.6	40.2495	13,454.6	39.3552	13,454.6	43.6887	13,454.6	49.5577	13,454.6	45.5812	13,454.6	46.3971
13,929.2	89.1187	13,929.2	86.9089	13,929.2	86.8701	13,929.2	77.3882	13,929.2	78.2674	13,929.2	62.9401	13,929.2	64.7722	13,929.2	72.7476	13,929.2	73.251	13,929.2	73.2712	13,929.2	72.2585	13,929.2	70.1705	13,929.2	68.893	13,929.2	63.8641	13,929.2	65.663	13,929.2	56.7535	13,929.2	57.5603	13,929.2	48.5731	13,929.2	51.0841	13,929.2	34.9124	13,929.2	59.5332	13,929.2	34.9843	13,929.2	60.7433	13,929.2	25.5112	13,929.2	42.6569	13,929.2	38.0164	13,929.2	40.1945	13,929.2	31.4287	13,929.2	40.0764	13,929.2	34.3446	13,929.2	41.2578	13,929.2	30.6743	13,929.2	41.5626	13,929.2	43.607	13,929.2	43.3418	13,929.2	40.3205
14,419.9	88.7846	14,419.9	86.6391	14,419.9	86.1727	14,419.9	76.6407	14,419.9	76.4702	14,419.9	65.6855	14,419.9	67.4213	14,419.9	72.957	14,419.9	73.7624	14,419.9	72.27	14,419.9	72.0671	14,419.9	69.4993	14,419.9	68.8494	14,419.9	61.9181	14,419.9	62.5848	14,419.9	54.792	14,419.9	50.1046	14,419.9	48.5234	14,419.9	54.8896	14,419.9	38.0492	14,419.9	56.1164	14,419.9	43.4288	14,419.9	59.7218	14,419.9	34.0804	14,419.9	49.5995	14,419.9	34.1434	14,419.9	36.3756	14,419.9	42.2757	14,419.9	43.7791	14,419.9	42.8601	14,419.9	40.8968	14,419.9	39.0917	14,419.9	42.8719	14,419.9	41.3008	14,419.9	39.4231	14,419.9	37.4811
14,928.2	88.7665	14,928.2	86.4937	14,928.2	85.7644	14,928.2	75.7513	14,928.2	74.8313	14,928.2	68.1088	14,928.2	67.4499	14,928.2	73.2858	14,928.2	73.054	14,928.2	71.0138	14,928.2	70.9306	14,928.2	68.1795	14,928.2	68.2611	14,928.2	62.0394	14,928.2	60.6782	14,928.2	56.9574	14,928.2	55.5063	14,928.2	48.5905	14,928.2	55.0161	14,928.2	47.7975	14,928.2	59.4191	14,928.2	47.4653	14,928.2	58.599	14,928.2	25.7387	14,928.2	49.3755	14,928.2	39.7943	14,928.2	47.359	14,928.2	43.889	14,928.2	46.5234	14,928.2	45.3031	14,928.2	43.578	14,928.2	45.9966	14,928.2	44.8611	14,928.2	21.8986	14,928.2	44.2965	14,928.2	41.5992
15,455.6	88.7311	15,455.6	86.2642	15,455.6	85.7329	15,455.6	74.629	15,455.6	73.8469	15,455.6	70.4583	15,455.6	70.1737	15,455.6	73.1432	15,455.6	72.4892	15,455.6	69.6405	15,455.6	68.6056	15,455.6	67.1341	15,455.6	64.9374	15,455.6	64.7254	15,455.6	64.9009	15,455.6	60.6898	15,455.6	57.3981	15,455.6	54.9506	15,455.6	53.8853	15,455.6	52.4544	15,455.6	60.6605	15,455.6	47.2672	15,455.6	62.3299	15,455.6	43.3549	15,455.6	50.5891	15,455.6	47.7547	15,455.6	50.1378	15,455.6	43.4524	15,455.6	49.1666	15,455.6	46.4615	15,455.6	47.4445	15,455.6	49.8358	15,455.6	46.5791	15,455.6	42.9986	15,455.6	47.8307	15,455.6	43.5609
16,000.5	88.5147	16,000.5	85.6232	16,000.5	85.6533	16,000.5	72.7661	16,000.5	72.3367	16,000.5	71.5701	16,000.5	72.2492	16,000.5	72.7391	16,000.5	73.4027	16,000.5	67.172	16,000.5	66.515	16,000.5	67.0929	16,000.5	66.7678	16,000.5	65.5291	16,000.5	66.2492	16,000.5	62.6041	16,000.5	56.3237	16,000.5	57.5333	16,000.5	59.5505	16,000.5	52.4151	16,000.5	63.7016	16,000.5	48.1395	16,000.5	64.8709	16,000.5	46.7541	16,000.5	54.428	16,000.5	45.7331	16,000.5	48.5666	16,000.5	47.7558	16,000.5	48.9426	16,000.5	46.194	16,000.5	44.6984	16,000.5	48.1914	16,000.5	46.7028	16,000.5	47.3871	16,000.5	44.6209	16,000.5	40.5181
16,564.5	88.1953	16,564.5	84.9373	16,564.5	85.0908	16,564.5	69.5426	16,564.5	68.662	16,564.5	72.3107	16,564.5	73.3734	16,564.5	72.5433	16,564.5	72.0572	16,564.5	63.1655	16,564.5	63.1333	16,564.5	67.1287	16,564.5	68.5388	16,564.5	65.3729	16,564.5	63.8066	16,564.5	62.5801	16,564.5	58.8276	16,564.5	56.381	16,564.5	57.4846	16,564.5	51.1349	16,564.5	65.419	16,564.5	48.8812	16,564.5	67.0579	16,564.5	45.7537	16,564.5	52.4178	16,564.5	41.6097	16,564.5	47.8562	16,564.5	49.1969	16,564.5	48.6423	16,564.5	45.8162	16,564.5	42.0703	16,564.5	40.9037	16,564.5	44.7663	16,564.5	45.67	16,564.5	46.5121	16,564.5	44.2326
17,148.9	87.8413	17,148.9	84.2472	17,148.9	84.0535	17,148.9	65.6501	17,148.9	62.5951	17,148.9	72.5163	17,148.9	73.1049	17,148.9	71.134	17,148.9	70.6205	17,148.9	62.5808	17,148.9	63.8559	17,148.9	67.5006	17,148.9	65.8688	17,148.9	64.4659	17,148.9	63.0626	17,148.9	59.5759	17,148.9	58.151	17,148.9	52.8621	17,148.9	55.9569	17,148.9	49.4719	17,148.9	65.3062	17,148.9	44.5765	17,148.9	66.814	17,148.9	40.4102	17,148.9	48.7905	17,148.9	39.7064	17,148.9	45.6242	17,148.9	45.341	17,148.9	46.5068	17,148.9	44.5802	17,148.9	42.9623	17,148.9	37.0325	17,148.9	45.6311	17,148.9	43.1187	17,148.9	48.46	17,148.9	42.622
17,752.4	87.5776	17,752.4	83.7606	17,752.4	83.1044	17,752.4	60.7965	17,752.4	51.5955	17,752.4	72.5994	17,752.4	72.4736	17,752.4	67.7896	17,752.4	66.3494	17,752.4	63.9243	17,752.4	64.6129	17,752.4	66.3993	17,752.4	66.4885	17,752.4	62.4605	17,752.4	64.1088	17,752.4	56.4089	17,752.4	56.5965	17,752.4	50.5276	17,752.4	51.8452	17,752.4	46.0454	17,752.4	65.3964	17,752.4	39.3053	17,752.4	66.8737	17,752.4	38.2616	17,752.4	49.5128	17,752.4	40.8322	17,752.4	43.2597	17,752.4	38.2474	17,752.4	47.3489	17,752.4	39.8616	17,752.4	44.9658	17,752.4	31.7525	17,752.4	45.5864	17,752.4	33.5001	17,752.4	48.5227	17,752.4	43.6351
18,379.4	87.4754	18,379.4	83.192	18,379.4	82.3535	18,379.4	57.6101	18,379.4	57.9499	18,379.4	72.5187	18,379.4	71.5556	18,379.4	63.3337	18,379.4	61.7206	18,379.4	64.8948	18,379.4	65.4161	18,379.4	66.3584	18,379.4	65.1276	18,379.4	58.6575	18,379.4	59.9265	18,379.4	53.8983	18,379.4	52.1598	18,379.4	46.779	18,379.4	53.9778	18,379.4	41.0595	18,379.4	66.0972	18,379.4	38.4736	18,379.4	66.7365	18,379.4	35.7242	18,379.4	50.2792	18,379.4	43.2298	18,379.4	41.9811	18,379.4	36.3561	18,379.4	46.3673	18,379.4	37.4482	18,379.4	44.2867	18,379.4	37.3744	18,379.4	43.138	18,379.4	30.029	18,379.4	46.4112	18,379.4	39.5585
19,026.9	87.3178	19,026.9	82.5907	19,026.9	81.8961	19,026.9	61.7246	19,026.9	62.9349	19,026.9	71.6796	19,026.9	70.1969	19,026.9	57.9741	19,026.9	57.3564	19,026.9	66.3604	19,026.9	65.1228	19,026.9	65.1907	19,026.9	65.8535	19,026.9	56.8259	19,026.9	55.9009	19,026.9	51.3426	19,026.9	50.7754	19,026.9	45.0658	19,026.9	51.8259	19,026.9	38.2834	19,026.9	66.2074	19,026.9	37.6285	19,026.9	66.5094	19,026.9	34.2502	19,026.9	47.5039	19,026.9	42.0848	19,026.9	40.4904	19,026.9	29.6981	19,026.9	43.9314	19,026.9	36.4307	19,026.9	46.6891	19,026.9	35.0651	19,026.9	44.2526	19,026.9	27.5497	19,026.9	46.1167	19,026.9	30.4931
19,697.8	86.9472	19,697.8	81.6212	19,697.8	81.2046	19,697.8	64.8824	19,697.8	66.0678	19,697.8	69.9201	19,697.8	68.0527	19,697.8	56.3431	19,697.8	58.6388	19,697.8	66.3571	19,697.8	65.8711	19,697.8	63.6824	19,697.8	62.8035	19,697.8	56.7976	19,697.8	53.5312	19,697.8	49.095	19,697.8	52.5878	19,697.8	44.5772	19,697.8	46.9887	19,697.8	37.4484	19,697.8	65.7366	19,697.8	33.7388	19,697.8	66.7603	19,697.8	34.4907	19,697.8	42.8352	19,697.8	37.2558	19,697.8	37.0648	19,697.8	27.2229	19,697.8	46.8939	19,697.8	33.2597	19,697.8	46.0897	19,697.8	39.1135	19,697.8	45.4059	19,697.8	35.0659	19,697.8	47.9239	19,697.8	40.5814
19,999.5	86.6646	19,999.5	81.1557	19,999.5	80.7697	19,999.5	65.4913	19,999.5	66.1995	19,999.5	68.9992	19,999.5	67.0009	19,999.5	57.3532	19,999.5	63.7096	19,999.5	66.0524	19,999.5	64.2251	19,999.5	63.0091	19,999.5	60.1062	19,999.5	56.2476	19,999.5	57.5564	19,999.5	49.7633	19,999.5	51.2986	19,999.5	47.5569	19,999.5	40.5415	19,999.5	43.9362	19,999.5	65.2892	19,999.5	38.24	19,999.5	66.3242	19,999.5	38.3178	19,999.5	46.692	19,999.5	28.7906	19,999.5	34.1011	19,999.5	41.3885	19,999.5	49.9992	19,999.5	40.3035	19,999.5	47.0905	19,999.5	45.4403	19,999.5	48.2298	19,999.5	37.4788	19,999.5	47.7278	19,999.5	50.7513
