"SPL Horizontal"																																																																							
"On-Axis"		"10°"		"-10°"		"20°"		"-20°"		"30°"		"-30°"		"40°"		"-40°"		"50°"		"-50°"		"60°"		"-60°"		"70°"		"-70°"		"80°"		"-80°"		"90°"		"-90°"		"100°"		"-100°"		"110°"		"-110°"		"120°"		"-120°"		"130°"		"-130°"		"140°"		"-140°"		"150°"		"-150°"		"160°"		"-160°"		"170°"		"-170°"		"180°"	
"Frequency [Hz]"	"Sound Pessure Level [dB]  / [2.83V 1m] "	"Frequency [Hz]"	"Sound Pessure Level [dB]  / [2.83V 1m] "	"Frequency [Hz]"	"Sound Pessure Level [dB]  / [2.83V 1m] "	"Frequency [Hz]"	"Sound Pessure Level [dB]  / [2.83V 1m] "	"Frequency [Hz]"	"Sound Pessure Level [dB]  / [2.83V 1m] "	"Frequency [Hz]"	"Sound Pessure Level [dB]  / [2.83V 1m] "	"Frequency [Hz]"	"Sound Pessure Level [dB]  / [2.83V 1m] "	"Frequency [Hz]"	"Sound Pessure Level [dB]  / [2.83V 1m] "	"Frequency [Hz]"	"Sound Pessure Level [dB]  / [2.83V 1m] "	"Frequency [Hz]"	"Sound Pessure Level [dB]  / [2.83V 1m] "	"Frequency [Hz]"	"Sound Pessure Level [dB]  / [2.83V 1m] "	"Frequency [Hz]"	"Sound Pessure Level [dB]  / [2.83V 1m] "	"Frequency [Hz]"	"Sound Pessure Level [dB]  / [2.83V 1m] "	"Frequency [Hz]"	"Sound Pessure Level [dB]  / [2.83V 1m] "	"Frequency [Hz]"	"Sound Pessure Level [dB]  / [2.83V 1m] "	"Frequency [Hz]"	"Sound Pessure Level [dB]  / [2.83V 1m] "	"Frequency [Hz]"	"Sound Pessure Level [dB]  / [2.83V 1m] "	"Frequency [Hz]"	"Sound Pessure Level [dB]  / [2.83V 1m] "	"Frequency [Hz]"	"Sound Pessure Level [dB]  / [2.83V 1m] "	"Frequency [Hz]"	"Sound Pessure Level [dB]  / [2.83V 1m] "	"Frequency [Hz]"	"Sound Pessure Level [dB]  / [2.83V 1m] "	"Frequency [Hz]"	"Sound Pessure Level [dB]  / [2.83V 1m] "	"Frequency [Hz]"	"Sound Pessure Level [dB]  / [2.83V 1m] "	"Frequency [Hz]"	"Sound Pessure Level [dB]  / [2.83V 1m] "	"Frequency [Hz]"	"Sound Pessure Level [dB]  / [2.83V 1m] "	"Frequency [Hz]"	"Sound Pessure Level [dB]  / [2.83V 1m] "	"Frequency [Hz]"	"Sound Pessure Level [dB]  / [2.83V 1m] "	"Frequency [Hz]"	"Sound Pessure Level [dB]  / [2.83V 1m] "	"Frequency [Hz]"	"Sound Pessure Level [dB]  / [2.83V 1m] "	"Frequency [Hz]"	"Sound Pessure Level [dB]  / [2.83V 1m] "	"Frequency [Hz]"	"Sound Pessure Level [dB]  / [2.83V 1m] "	"Frequency [Hz]"	"Sound Pessure Level [dB]  / [2.83V 1m] "	"Frequency [Hz]"	"Sound Pessure Level [dB]  / [2.83V 1m] "	"Frequency [Hz]"	"Sound Pessure Level [dB]  / [2.83V 1m] "	"Frequency [Hz]"	"Sound Pessure Level [dB]  / [2.83V 1m] "	"Frequency [Hz]"	"Sound Pessure Level [dB]  / [2.83V 1m] "
20.5078	47.3706	20.5078	47.2709	20.5078	47.4421	20.5078	47.1432	20.5078	47.486	20.5078	46.9885	20.5078	47.5029	20.5078	46.8091	20.5078	47.4939	20.5078	46.6084	20.5078	47.4597	20.5078	46.3921	20.5078	47.4005	20.5078	46.1671	20.5078	47.3163	20.5078	45.9418	20.5078	47.2061	20.5078	45.7255	20.5078	47.0692	20.5078	45.5275	20.5078	46.9052	20.5078	45.3566	20.5078	46.716	20.5078	45.2208	20.5078	46.5061	20.5078	45.1265	20.5078	46.2835	20.5078	45.0781	20.5078	46.0585	20.5078	45.0765	20.5078	45.8419	20.5078	45.1193	20.5078	45.6429	20.5078	45.202	20.5078	45.4675	20.5078	45.3195
21.9727	53.703	21.9727	53.6176	21.9727	53.7826	21.9727	53.5283	21.9727	53.8544	21.9727	53.4371	21.9727	53.9166	21.9727	53.3462	21.9727	53.9671	21.9727	53.2574	21.9727	54.0037	21.9727	53.1726	21.9727	54.0239	21.9727	53.0932	21.9727	54.0249	21.9727	53.0201	21.9727	54.004	21.9727	52.9537	21.9727	53.9589	21.9727	52.8942	21.9727	53.8885	21.9727	52.8424	21.9727	53.7933	21.9727	52.7997	21.9727	53.6762	21.9727	52.7687	21.9727	53.5428	21.9727	52.753	21.9727	53.4005	21.9727	52.7563	21.9727	53.2579	21.9727	52.7818	21.9727	53.1236	21.9727	52.8316	21.9727	53.0047	21.9727	52.9063
23.4375	58.1807	23.4375	58.1142	23.4375	58.2416	23.4375	58.0437	23.4375	58.2956	23.4375	57.9705	23.4375	58.3408	23.4375	57.8959	23.4375	58.3756	23.4375	57.8211	23.4375	58.3979	23.4375	57.747	23.4375	58.4055	23.4375	57.6745	23.4375	58.3963	23.4375	57.6041	23.4375	58.3681	23.4375	57.5364	23.4375	58.3195	23.4375	57.4722	23.4375	58.25	23.4375	57.413	23.4375	58.1606	23.4375	57.3611	23.4375	58.0543	23.4375	57.3197	23.4375	57.9357	23.4375	57.2926	23.4375	57.8111	23.4375	57.2836	23.4375	57.6877	23.4375	57.2959	23.4375	57.5726	23.4375	57.3314	23.4375	57.472	23.4375	57.3905
24.9023	62.1515	24.9023	62.1037	24.9023	62.1935	24.9023	62.0512	24.9023	62.2287	24.9023	61.9947	24.9023	62.2557	24.9023	61.9349	24.9023	62.273	24.9023	61.8723	24.9023	62.2789	24.9023	61.8072	24.9023	62.2717	24.9023	61.7401	24.9023	62.2497	24.9023	61.6715	24.9023	62.2117	24.9023	61.6021	24.9023	62.1569	24.9023	61.5333	24.9023	62.0856	24.9023	61.4672	24.9023	61.9995	24.9023	61.4067	24.9023	61.9016	24.9023	61.3553	24.9023	61.7965	24.9023	61.3171	24.9023	61.6895	24.9023	61.2955	24.9023	61.5864	24.9023	61.2935	24.9023	61.493	24.9023	61.3125	24.9023	61.414	24.9023	61.3531
26.3672	65.6909	26.3672	65.6549	26.3672	65.7206	26.3672	65.6133	26.3672	65.7432	26.3672	65.5666	26.3672	65.7577	26.3672	65.5152	26.3672	65.7627	26.3672	65.4592	26.3672	65.757	26.3672	65.3991	26.3672	65.7392	26.3672	65.335	26.3672	65.7081	26.3672	65.2676	26.3672	65.6629	26.3672	65.1979	26.3672	65.6037	26.3672	65.1274	26.3672	65.5311	26.3672	65.0585	26.3672	65.4473	26.3672	64.9943	26.3672	65.3554	26.3672	64.9382	26.3672	65.2596	26.3672	64.8939	26.3672	65.1648	26.3672	64.8647	26.3672	65.0761	26.3672	64.8531	26.3672	64.9981	26.3672	64.8608	26.3672	64.9345	26.3672	64.8881
27.832	68.8469	27.832	68.8176	27.832	68.869	27.832	68.7818	27.832	68.8834	27.832	68.7397	27.832	68.8892	27.832	68.6916	27.832	68.8853	27.832	68.6375	27.832	68.8707	27.832	68.5776	27.832	68.8443	27.832	68.5125	27.832	68.8052	27.832	68.4428	27.832	68.7532	27.832	68.3699	27.832	68.6886	27.832	68.2955	27.832	68.6126	27.832	68.2225	27.832	68.5276	27.832	68.1539	27.832	68.4369	27.832	68.0932	27.832	68.3448	27.832	68.0441	27.832	68.2559	27.832	68.0096	27.832	68.1746	27.832	67.992	27.832	68.1049	27.832	67.9927	27.832	68.05	27.832	68.0122
29.2969	71.7552	29.2969	71.7309	29.2969	71.7718	29.2969	71.6993	29.2969	71.7801	29.2969	71.6605	29.2969	71.7795	29.2969	71.6147	29.2969	71.7692	29.2969	71.562	29.2969	71.7482	29.2969	71.5025	29.2969	71.7157	29.2969	71.4367	29.2969	71.6713	29.2969	71.3656	29.2969	71.6147	29.2969	71.2905	29.2969	71.5468	29.2969	71.2135	29.2969	71.469	29.2969	71.1376	29.2969	71.3839	29.2969	71.0659	29.2969	71.2948	29.2969	71.002	29.2969	71.2058	29.2969	70.9495	29.2969	71.1212	29.2969	70.9112	29.2969	71.0451	29.2969	70.8893	29.2969	70.981	29.2969	70.8853	29.2969	70.9319	29.2969	70.8996
30.7617	74.1947	30.7617	74.1731	30.7617	74.208	30.7617	74.1436	30.7617	74.2127	30.7617	74.1064	30.7617	74.2081	30.7617	74.0615	30.7617	74.1935	30.7617	74.009	30.7617	74.1682	30.7617	73.9492	30.7617	74.1316	30.7617	73.8827	30.7617	74.0834	30.7617	73.8104	30.7617	74.0238	30.7617	73.7341	30.7617	73.9538	30.7617	73.6559	30.7617	73.875	30.7617	73.5788	30.7617	73.7903	30.7617	73.5061	30.7617	73.7028	30.7617	73.4415	30.7617	73.6167	30.7617	73.388	30.7617	73.5358	30.7617	73.3487	30.7617	73.4639	30.7617	73.3253	30.7617	73.4043	30.7617	73.3192	30.7617	73.3593	30.7617	73.3306
32.2266	76.321	32.2266	76.3052	32.2266	76.327	32.2266	76.2797	32.2266	76.3228	32.2266	76.2447	32.2266	76.308	32.2266	76.2002	32.2266	76.2822	32.2266	76.1465	32.2266	76.245	32.2266	76.0838	32.2266	76.1961	32.2266	76.0131	32.2266	76.1361	32.2266	75.9357	32.2266	76.0658	32.2266	75.8538	32.2266	75.9869	32.2266	75.7701	32.2266	75.9021	32.2266	75.688	32.2266	75.8145	32.2266	75.6109	32.2266	75.7279	32.2266	75.5423	32.2266	75.6458	32.2266	75.485	32.2266	75.5719	32.2266	75.4415	32.2266	75.509	32.2266	75.413	32.2266	75.4591	32.2266	75.4005	32.2266	75.4239	32.2266	75.4042
33.6914	77.9705	33.6914	77.9572	33.6914	77.9733	33.6914	77.9333	33.6914	77.9652	33.6914	77.8989	33.6914	77.946	33.6914	77.8542	33.6914	77.9153	33.6914	77.7992	33.6914	77.873	33.6914	77.7345	33.6914	77.8191	33.6914	77.6609	33.6914	77.7542	33.6914	77.5801	33.6914	77.6794	33.6914	77.4944	33.6914	77.5966	33.6914	77.4066	33.6914	77.5086	33.6914	77.3202	33.6914	77.4188	33.6914	77.239	33.6914	77.3307	33.6914	77.1664	33.6914	77.2481	33.6914	77.1055	33.6914	77.1744	33.6914	77.0585	33.6914	77.1123	33.6914	77.0269	33.6914	77.0638	33.6914	77.0116	33.6914	77.0303	33.6914	77.0128
35.1563	79.1655	35.1563	79.1527	35.1563	79.1668	35.1563	79.1286	35.1563	79.1565	35.1563	79.0932	35.1563	79.1344	35.1563	79.0468	35.1563	79.1004	35.1563	78.9896	35.1563	79.0545	35.1563	78.9222	35.1563	78.997	35.1563	78.846	35.1563	78.9288	35.1563	78.7627	35.1563	78.8512	35.1563	78.6748	35.1563	78.7663	35.1563	78.5854	35.1563	78.6772	35.1563	78.4982	35.1563	78.5872	35.1563	78.4167	35.1563	78.4998	35.1563	78.3444	35.1563	78.4188	35.1563	78.2841	35.1563	78.3471	35.1563	78.2379	35.1563	78.2872	35.1563	78.2069	35.1563	78.2408	35.1563	78.1917	35.1563	78.209	35.1563	78.1925
36.6211	79.9505	36.6211	79.9385	36.6211	79.9505	36.6211	79.9145	36.6211	79.9383	36.6211	79.8787	36.6211	79.9138	36.6211	79.8313	36.6211	79.8768	36.6211	79.7725	36.6211	79.8274	36.6211	79.7033	36.6211	79.766	36.6211	79.6247	36.6211	79.6935	36.6211	79.5386	36.6211	79.6115	36.6211	79.4477	36.6211	79.5224	36.6211	79.3552	36.6211	79.4292	36.6211	79.2648	36.6211	79.3355	36.6211	79.1802	36.6211	79.2454	36.6211	79.1048	36.6211	79.1624	36.6211	79.0416	36.6211	79.0898	36.6211	78.9925	36.6211	79.0299	36.6211	78.9589	36.6211	78.9844	36.6211	78.9412	36.6211	78.9541	36.6211	78.9396
38.0859	80.6731	38.0859	80.6629	38.0859	80.6714	38.0859	80.6408	38.0859	80.6576	38.0859	80.6069	38.0859	80.6318	38.0859	80.5615	38.0859	80.5939	38.0859	80.5049	38.0859	80.5443	38.0859	80.4382	38.0859	80.4835	38.0859	80.3625	38.0859	80.4125	38.0859	80.2799	38.0859	80.3333	38.0859	80.1929	38.0859	80.248	38.0859	80.1049	38.0859	80.1598	38.0859	80.0192	38.0859	80.0721	38.0859	79.9394	38.0859	79.9885	38.0859	79.8687	38.0859	79.9123	38.0859	79.8095	38.0859	79.8462	38.0859	79.7636	38.0859	79.7922	38.0859	79.732	38.0859	79.7515	38.0859	79.7149	38.0859	79.7249	38.0859	79.7126
39.5508	81.0985	39.5508	81.0895	39.5508	81.0949	39.5508	81.0678	39.5508	81.0785	39.5508	81.0337	39.5508	81.0496	39.5508	80.9874	39.5508	81.0083	39.5508	80.9295	39.5508	80.955	39.5508	80.8609	39.5508	80.8907	39.5508	80.7833	39.5508	80.8165	39.5508	80.6987	39.5508	80.7344	39.5508	80.61	39.5508	80.6471	39.5508	80.5204	39.5508	80.5576	39.5508	80.4336	39.5508	80.4696	39.5508	80.3531	39.5508	80.3866	39.5508	80.2819	39.5508	80.3117	39.5508	80.2223	39.5508	80.2475	39.5508	80.176	39.5508	80.1956	39.5508	80.1438	39.5508	80.1572	39.5508	80.1258	39.5508	80.1326	39.5508	80.1221
41.0156	81.4741	41.0156	81.4655	41.0156	81.4692	41.0156	81.4436	41.0156	81.451	41.0156	81.4086	41.0156	81.4195	41.0156	81.3608	41.0156	81.3752	41.0156	81.301	41.0156	81.3186	41.0156	81.2303	41.0156	81.2508	41.0156	81.1505	41.0156	81.1734	41.0156	81.064	41.0156	81.0886	41.0156	80.9738	41.0156	80.9993	41.0156	80.8833	41.0156	80.9089	41.0156	80.7963	41.0156	80.821	41.0156	80.7163	41.0156	80.7392	41.0156	80.6462	41.0156	80.6664	41.0156	80.588	41.0156	80.6049	41.0156	80.543	41.0156	80.5561	41.0156	80.5116	41.0156	80.5205	41.0156	80.4938	41.0156	80.4983	41.0156	80.4894
42.4805	81.9109	42.4805	81.9037	42.4805	81.9039	42.4805	81.8823	42.4805	81.8826	42.4805	81.8468	42.4805	81.8474	42.4805	81.7979	42.4805	81.7987	42.4805	81.7362	42.4805	81.7372	42.4805	81.6631	42.4805	81.6643	42.4805	81.5804	42.4805	81.5816	42.4805	81.4905	42.4805	81.4916	42.4805	81.3966	42.4805	81.3974	42.4805	81.3022	42.4805	81.3027	42.4805	81.2112	42.4805	81.2111	42.4805	81.127	42.4805	81.1263	42.4805	81.0525	42.4805	81.0515	42.4805	80.9901	42.4805	80.9887	42.4805	80.9409	42.4805	80.9395	42.4805	80.9056	42.4805	80.9045	42.4805	80.8843	42.4805	80.8837	42.4805	80.877
43.9453	82.2684	43.9453	82.2636	43.9453	82.2586	43.9453	82.2441	43.9453	82.2342	43.9453	82.2102	43.9453	82.1957	43.9453	82.1625	43.9453	82.1436	43.9453	82.1018	43.9453	82.0791	43.9453	82.0297	43.9453	82.0035	43.9453	81.9479	43.9453	81.9191	43.9453	81.8593	43.9453	81.8284	43.9453	81.767	43.9453	81.7348	43.9453	81.6745	43.9453	81.642	43.9453	81.5856	43.9453	81.5538	43.9453	81.5037	43.9453	81.4736	43.9453	81.4314	43.9453	81.4043	43.9453	81.3706	43.9453	81.3475	43.9453	81.3225	43.9453	81.3043	43.9453	81.2873	43.9453	81.2747	43.9453	81.2649	43.9453	81.2585	43.9453	81.2553
45.4102	82.609	45.4102	82.606	45.4102	82.5959	45.4102	82.5869	45.4102	82.5668	45.4102	82.5522	45.4102	82.5223	45.4102	82.5025	45.4102	82.463	45.4102	82.4388	45.4102	82.3904	45.4102	82.3629	45.4102	82.3063	45.4102	82.277	45.4102	82.2131	45.4102	82.1838	45.4102	82.114	45.4102	82.0868	45.4102	82.0129	45.4102	81.9898	45.4102	81.9138	45.4102	81.8964	45.4102	81.8211	45.4102	81.8101	45.4102	81.7383	45.4102	81.7336	45.4102	81.6683	45.4102	81.6687	45.4102	81.6126	45.4102	81.6163	45.4102	81.5719	45.4102	81.5767	45.4102	81.546	45.4102	81.5497	45.4102	81.534	45.4102	81.5355
46.875	82.9735	46.875	82.9688	46.875	82.9611	46.875	82.9471	46.875	82.9315	46.875	82.9089	46.875	82.8851	46.875	82.8549	46.875	82.8228	46.875	82.7865	46.875	82.7458	46.875	82.7052	46.875	82.6558	46.875	82.6134	46.875	82.5553	46.875	82.514	46.875	82.4477	46.875	82.4102	46.875	82.3368	46.875	82.3059	46.875	82.2272	46.875	82.2048	46.875	82.1235	46.875	82.1104	46.875	82.0299	46.875	82.0256	46.875	81.9498	46.875	81.9525	46.875	81.8856	46.875	81.8924	46.875	81.8382	46.875	81.8461	46.875	81.808	46.875	81.8141	46.875	81.7944	46.875	81.7966
48.3398	83.2772	48.3398	83.2697	48.3398	83.2682	48.3398	83.246	48.3398	83.2427	48.3398	83.2066	48.3398	83.2011	48.3398	83.1526	48.3398	83.1443	48.3398	83.0852	48.3398	83.0735	48.3398	83.0064	48.3398	82.9905	48.3398	82.9186	48.3398	82.8979	48.3398	82.8249	48.3398	82.7987	48.3398	82.7285	48.3398	82.6969	48.3398	82.6331	48.3398	82.5966	48.3398	82.5421	48.3398	82.502	48.3398	82.4588	48.3398	82.4168	48.3398	82.3853	48.3398	82.3441	48.3398	82.3232	48.3398	82.2856	48.3398	82.2732	48.3398	82.2421	48.3398	82.2358	48.3398	82.2135	48.3398	82.2108	48.3398	82.1992	48.3398	82.1985
51.2695	84.0026	51.2695	83.9927	51.2695	83.9948	51.2695	83.9651	51.2695	83.9692	51.2695	83.9208	51.2695	83.9266	51.2695	83.8608	51.2695	83.868	51.2695	83.7869	51.2695	83.7951	51.2695	83.7016	51.2695	83.71	51.2695	83.6078	51.2695	83.6158	51.2695	83.509	51.2695	83.516	51.2695	83.4094	51.2695	83.4147	51.2695	83.313	51.2695	83.3161	51.2695	83.2235	51.2695	83.2242	51.2695	83.144	51.2695	83.1426	51.2695	83.0766	51.2695	83.0735	51.2695	83.0221	51.2695	83.0181	51.2695	82.9805	51.2695	82.9766	51.2695	82.9513	51.2695	82.9482	51.2695	82.9338	51.2695	82.9321	51.2695	82.9274
52.7344	84.4341	52.7344	84.4267	52.7344	84.4229	52.7344	84.4008	52.7344	84.3931	52.7344	84.3574	52.7344	84.3455	52.7344	84.2976	52.7344	84.2813	52.7344	84.2235	52.7344	84.2025	52.7344	84.1376	52.7344	84.1115	52.7344	84.0431	52.7344	84.0118	52.7344	83.9438	52.7344	83.9073	52.7344	83.8437	52.7344	83.8025	52.7344	83.7472	52.7344	83.7021	52.7344	83.6578	52.7344	83.6106	52.7344	83.5786	52.7344	83.5312	52.7344	83.5114	52.7344	83.4663	52.7344	83.4567	52.7344	83.4167	52.7344	83.4142	52.7344	83.3817	52.7344	83.3831	52.7344	83.3602	52.7344	83.3624	52.7344	83.3506	52.7344	83.3516
54.1992	84.8381	54.1992	84.8279	54.1992	84.8279	54.1992	84.7975	54.1992	84.7972	54.1992	84.748	54.1992	84.7469	54.1992	84.6809	54.1992	84.6783	54.1992	84.5984	54.1992	84.5935	54.1992	84.5034	54.1992	84.4951	54.1992	84.3994	54.1992	84.3867	54.1992	84.2904	54.1992	84.2725	54.1992	84.1808	54.1992	84.1573	54.1992	84.0751	54.1992	84.046	54.1992	83.977	54.1992	83.9435	54.1992	83.8898	54.1992	83.8534	54.1992	83.8152	54.1992	83.7785	54.1992	83.754	54.1992	83.7199	54.1992	83.7063	54.1992	83.6775	54.1992	83.6712	54.1992	83.6504	54.1992	83.6482	54.1992	83.6373	54.1992	83.6368
55.6641	85.0685	55.6641	85.0574	55.6641	85.0597	55.6641	85.0267	55.6641	85.0309	55.6641	84.9776	55.6641	84.9831	55.6641	84.9117	55.6641	84.9175	55.6641	84.8316	55.6641	84.8365	55.6641	84.7402	55.6641	84.7428	55.6641	84.6412	55.6641	84.64	55.6641	84.5387	55.6641	84.5324	55.6641	84.4371	55.6641	84.4246	55.6641	84.3405	55.6641	84.3216	55.6641	84.2524	55.6641	84.2277	55.6641	84.1753	55.6641	84.1463	55.6641	84.1106	55.6641	84.0797	55.6641	84.0585	55.6641	84.0286	55.6641	84.0183	55.6641	83.9924	55.6641	83.989	55.6641	83.97	55.6641	83.9696	55.6641	83.9595	55.6641	83.9597
58.5938	85.7053	58.5938	85.692	58.5938	85.6978	58.5938	85.6583	58.5938	85.6697	58.5938	85.6057	58.5938	85.6218	58.5938	85.5362	58.5938	85.5561	58.5938	85.4528	58.5938	85.4751	58.5938	85.359	58.5938	85.382	58.5938	85.259	58.5938	85.2812	58.5938	85.1576	58.5938	85.1772	58.5938	85.0594	58.5938	85.075	58.5938	84.9686	58.5938	84.9793	58.5938	84.8885	58.5938	84.894	58.5938	84.8212	58.5938	84.8218	58.5938	84.767	58.5938	84.764	58.5938	84.7255	58.5938	84.7203	58.5938	84.6952	58.5938	84.6894	58.5938	84.6745	58.5938	84.6697	58.5938	84.6621	58.5938	84.6594	58.5938	84.657
60.0586	86.0439	60.0586	86.0296	60.0586	86.0366	60.0586	85.9944	60.0586	86.0079	60.0586	85.9395	60.0586	85.959	60.0586	85.8672	60.0586	85.8918	60.0586	85.7806	60.0586	85.809	60.0586	85.6835	60.0586	85.7142	60.0586	85.5803	60.0586	85.6118	60.0586	85.4761	60.0586	85.5066	60.0586	85.3757	60.0586	85.4036	60.0586	85.2835	60.0586	85.3078	60.0586	85.203	60.0586	85.2228	60.0586	85.136	60.0586	85.1513	60.0586	85.0833	60.0586	85.0943	60.0586	85.0438	60.0586	85.0512	60.0586	85.0159	60.0586	85.0206	60.0586	84.9979	60.0586	85.0005	60.0586	84.988	60.0586	84.9891	60.0586	84.9852
62.9883	86.7327	62.9883	86.7174	62.9883	86.7248	62.9883	86.6798	62.9883	86.6942	62.9883	86.6214	62.9883	86.642	62.9883	86.5447	62.9883	86.5706	62.9883	86.4534	62.9883	86.483	62.9883	86.3518	62.9883	86.3833	62.9883	86.2449	62.9883	86.2765	62.9883	86.138	62.9883	86.1679	62.9883	86.0366	62.9883	86.0632	62.9883	85.9453	62.9883	85.9673	62.9883	85.8673	62.9883	85.8842	62.9883	85.8044	62.9883	85.8162	62.9883	85.7565	62.9883	85.7639	62.9883	85.7221	62.9883	85.7261	62.9883	85.6989	62.9883	85.7007	62.9883	85.6845	62.9883	85.685	62.9883	85.6767	62.9883	85.6768	62.9883	85.6742
64.4531	87.0576	64.4531	87.0411	64.4531	87.0504	64.4531	87.0015	64.4531	87.0195	64.4531	86.9405	64.4531	86.9665	64.4531	86.861	64.4531	86.8936	64.4531	86.7668	64.4531	86.8043	64.4531	86.6625	64.4531	86.7027	64.4531	86.5534	64.4531	86.5941	64.4531	86.4452	64.4531	86.4841	64.4531	86.3436	64.4531	86.3786	64.4531	86.253	64.4531	86.2826	64.4531	86.177	64.4531	86.2002	64.4531	86.1168	64.4531	86.1337	64.4531	86.0722	64.4531	86.0833	64.4531	86.0412	64.4531	86.0477	64.4531	86.0212	64.4531	86.0244	64.4531	86.0092	64.4531	86.0105	64.4531	86.003	64.4531	86.0034	64.4531	86.0012
67.3828	87.6113	67.3828	87.5907	67.3828	87.6064	67.3828	87.5453	67.3828	87.5763	67.3828	87.4773	67.3828	87.5224	67.3828	87.3898	67.3828	87.4474	67.3828	87.2872	67.3828	87.3551	67.3828	87.1747	67.3828	87.2504	67.3828	87.0585	67.3828	87.1388	67.3828	86.945	67.3828	87.0265	67.3828	86.8403	67.3828	86.9198	67.3828	86.7497	67.3828	86.8241	67.3828	86.6764	67.3828	86.7432	67.3828	86.6217	67.3828	86.6793	67.3828	86.5846	67.3828	86.632	67.3828	86.5622	67.3828	86.5994	67.3828	86.5511	67.3828	86.5783	67.3828	86.5475	67.3828	86.5652	67.3828	86.5483	67.3828	86.5571	67.3828	86.5517
68.8477	87.8554	68.8477	87.8328	68.8477	87.8513	68.8477	87.7844	68.8477	87.821	68.8477	87.7125	68.8477	87.766	68.8477	87.6203	68.8477	87.6891	68.8477	87.5124	68.8477	87.5943	68.8477	87.3945	68.8477	87.4867	68.8477	87.273	68.8477	87.3721	68.8477	87.1549	68.8477	87.2571	68.8477	87.0466	68.8477	87.148	68.8477	86.9536	68.8477	87.0505	68.8477	86.8794	68.8477	86.9685	68.8477	86.8253	68.8477	86.904	68.8477	86.7901	68.8477	86.8567	68.8477	86.7706	68.8477	86.8241	68.8477	86.7629	68.8477	86.8029	68.8477	86.7627	68.8477	86.7893	68.8477	86.7667	68.8477	86.78	68.8477	86.7727
71.7773	88.4887	71.7773	88.4622	71.7773	88.4867	71.7773	88.408	71.7773	88.4564	71.7773	88.3284	71.7773	88.3999	71.7773	88.2271	71.7773	88.3201	71.7773	88.109	71.7773	88.2214	71.7773	87.9804	71.7773	88.1095	71.7773	87.8485	71.7773	87.9906	71.7773	87.721	71.7773	87.8717	71.7773	87.6053	71.7773	87.7596	71.7773	87.5076	71.7773	87.66	71.7773	87.4318	71.7773	87.5771	71.7773	87.3792	71.7773	87.5124	71.7773	87.3484	71.7773	87.4651	71.7773	87.3356	71.7773	87.4324	71.7773	87.3358	71.7773	87.4103	71.7773	87.344	71.7773	87.3945	71.7773	87.356	71.7773	87.3815	71.7773	87.3689
74.707	89.068	74.707	89.0425	74.707	89.0635	74.707	88.9878	74.707	89.0297	74.707	88.9061	74.707	88.9687	74.707	88.8013	74.707	88.8842	74.707	88.6785	74.707	88.781	74.707	88.5443	74.707	88.6652	74.707	88.4062	74.707	88.5438	74.707	88.2725	74.707	88.424	74.707	88.1511	74.707	88.3127	74.707	88.0487	74.707	88.2157	74.707	87.9699	74.707	88.1365	74.707	87.9164	74.707	88.0761	74.707	87.8868	74.707	88.0329	74.707	87.8774	74.707	88.0033	74.707	87.8826	74.707	87.9826	74.707	87.8969	74.707	87.9663	74.707	87.9151	74.707	87.9506	74.707	87.9336
77.6367	89.3822	77.6367	89.3609	77.6367	89.3726	77.6367	89.3093	77.6367	89.3326	77.6367	89.2299	77.6367	89.2649	77.6367	89.1269	77.6367	89.1734	77.6367	89.0058	77.6367	89.0637	77.6367	88.8736	77.6367	88.9427	77.6367	88.7382	77.6367	88.8182	77.6367	88.6082	77.6367	88.6982	77.6367	88.4915	77.6367	88.5903	77.6367	88.395	77.6367	88.5004	77.6367	88.323	77.6367	88.4318	77.6367	88.2766	77.6367	88.3847	77.6367	88.2541	77.6367	88.3563	77.6367	88.2508	77.6367	88.3416	77.6367	88.2608	77.6367	88.3348	77.6367	88.2778	77.6367	88.3301	77.6367	88.2963	77.6367	88.3234	77.6367	88.3121
79.1016	89.4862	79.1016	89.4663	79.1016	89.4743	79.1016	89.4153	79.1016	89.4313	79.1016	89.336	79.1016	89.3598	79.1016	89.2327	79.1016	89.2639	79.1016	89.111	79.1016	89.1496	79.1016	88.9783	79.1016	89.0241	79.1016	88.8428	79.1016	88.8955	79.1016	88.7132	79.1016	88.7726	79.1016	88.5977	79.1016	88.6633	79.1016	88.503	79.1016	88.5739	79.1016	88.4334	79.1016	88.5078	79.1016	88.3899	79.1016	88.465	79.1016	88.3701	79.1016	88.4425	79.1016	88.3692	79.1016	88.4345	79.1016	88.3807	79.1016	88.4346	79.1016	88.398	79.1016	88.4365	79.1016	88.4153	79.1016	88.4353	79.1016	88.4284
82.0313	89.7944	82.0313	89.7745	82.0313	89.7805	82.0313	89.7219	82.0313	89.7336	82.0313	89.6396	82.0313	89.6564	82.0313	89.5321	82.0313	89.5532	82.0313	89.4059	82.0313	89.4304	82.0313	89.2688	82.0313	89.2958	82.0313	89.1295	82.0313	89.1583	82.0313	88.9972	82.0313	89.0275	82.0313	88.8807	82.0313	88.9123	82.0313	88.7868	82.0313	88.8198	82.0313	88.7197	82.0313	88.7538	82.0313	88.6797	82.0313	88.7144	82.0313	88.6641	82.0313	88.6981	82.0313	88.667	82.0313	88.6984	82.0313	88.6813	82.0313	88.7077	82.0313	88.6994	82.0313	88.7187	82.0313	88.7153	82.0313	88.7255	82.0313	88.7246
84.9609	90.0936	84.9609	90.0721	84.9609	90.0794	84.9609	90.0159	84.9609	90.03	84.9609	89.9283	84.9609	89.9484	84.9609	89.8145	84.9609	89.8393	84.9609	89.6812	84.9609	89.7094	84.9609	89.537	84.9609	89.5672	84.9609	89.3914	84.9609	89.4225	84.9609	89.2545	84.9609	89.2857	84.9609	89.1356	84.9609	89.1664	84.9609	89.042	84.9609	89.0724	84.9609	88.9779	84.9609	89.008	84.9609	88.9435	84.9609	88.973	84.9609	88.9349	84.9609	88.9633	84.9609	88.9456	84.9609	88.9714	84.9609	88.967	84.9609	88.9886	84.9609	88.9908	84.9609	89.0065	84.9609	89.01	84.9609	89.0182	84.9609	89.0198
87.8906	90.1022	87.8906	90.0818	87.8906	90.0847	87.8906	90.0249	87.8906	90.0301	87.8906	89.935	87.8906	89.9411	87.8906	89.8174	87.8906	89.8226	87.8906	89.6791	87.8906	89.6816	87.8906	89.529	87.8906	89.5268	87.8906	89.377	87.8906	89.3688	87.8906	89.2333	87.8906	89.2186	87.8906	89.1076	87.8906	89.0869	87.8906	89.0073	87.8906	88.9824	87.8906	88.937	87.8906	88.9103	87.8906	88.8969	87.8906	88.871	87.8906	88.8832	87.8906	88.8604	87.8906	88.8891	87.8906	88.8707	87.8906	88.9058	87.8906	88.8925	87.8906	88.9248	87.8906	88.9163	87.8906	88.9387	87.8906	88.9346	87.8906	88.9426
90.8203	90.0959	90.8203	90.0715	90.8203	90.0812	90.8203	90.0098	90.8203	90.0282	90.8203	89.9144	90.8203	89.9395	90.8203	89.7913	90.8203	89.8202	90.8203	89.6482	90.8203	89.6776	90.8203	89.4945	90.8203	89.5209	90.8203	89.3405	90.8203	89.3609	90.8203	89.1969	90.8203	89.2092	90.8203	89.0735	90.8203	89.0768	90.8203	88.9777	90.8203	88.9727	90.8203	88.9135	90.8203	88.9022	90.8203	88.8806	90.8203	88.8658	90.8203	88.8746	90.8203	88.859	90.8203	88.8879	90.8203	88.8738	90.8203	88.9113	90.8203	88.9001	90.8203	88.9355	90.8203	88.9279	90.8203	88.9527	90.8203	88.9489	90.8203	88.9578
95.2148	90.1463	95.2148	90.1156	95.2148	90.1341	95.2148	90.0438	95.2148	90.0797	95.2148	89.9352	95.2148	89.9862	95.2148	89.7963	95.2148	89.8591	95.2148	89.6359	95.2148	89.7063	95.2148	89.4649	95.2148	89.538	95.2148	89.2954	95.2148	89.366	95.2148	89.1401	95.2148	89.2031	95.2148	89.0103	95.2148	89.0617	95.2148	88.9146	95.2148	88.9519	95.2148	88.857	95.2148	88.8798	95.2148	88.8363	95.2148	88.8461	95.2148	88.8461	95.2148	88.8459	95.2148	88.8763	95.2148	88.8699	95.2148	88.915	95.2148	88.9063	95.2148	88.9512	95.2148	88.9434	95.2148	88.9756	95.2148	88.9711	95.2148	88.9828
98.1445	90.0176	98.1445	89.984	98.1445	90.006	98.1445	89.9068	98.1445	89.9501	98.1445	89.7902	98.1445	89.8532	98.1445	89.641	98.1445	89.7215	98.1445	89.4682	98.1445	89.5634	98.1445	89.2833	98.1445	89.3895	98.1445	89.0993	98.1445	89.2125	98.1445	88.9302	98.1445	89.0457	98.1445	88.7888	98.1445	88.902	98.1445	88.6852	98.1445	88.7918	98.1445	88.6247	98.1445	88.721	98.1445	88.6065	98.1445	88.6897	98.1445	88.6236	98.1445	88.6923	98.1445	88.6648	98.1445	88.7186	98.1445	88.7167	98.1445	88.7559	98.1445	88.7662	98.1445	88.7916	98.1445	88.8028	98.1445	88.8153	98.1445	88.8199
101.074	89.9465	101.074	89.915	101.074	89.9304	101.074	89.8375	101.074	89.8676	101.074	89.7181	101.074	89.7619	101.074	89.5637	101.074	89.6194	101.074	89.3834	101.074	89.449	101.074	89.1889	101.074	89.2621	101.074	88.9935	101.074	89.072	101.074	88.8116	101.074	88.8929	101.074	88.657	101.074	88.7388	101.074	88.5409	101.074	88.6208	101.074	88.4697	101.074	88.5454	101.074	88.4436	101.074	88.5127	101.074	88.4559	101.074	88.5165	101.074	88.4954	101.074	88.5456	101.074	88.5477	101.074	88.5863	101.074	88.5988	101.074	88.625	101.074	88.6372	101.074	88.6504	101.074	88.6553
105.469	89.8307	105.469	89.7971	105.469	89.8132	105.469	89.714	105.469	89.7457	105.469	89.5861	105.469	89.6317	105.469	89.4203	105.469	89.4777	105.469	89.2264	105.469	89.293	105.469	89.0164	105.469	89.0894	105.469	88.8048	105.469	88.8811	105.469	88.6069	105.469	88.6838	105.469	88.4376	105.469	88.5127	105.469	88.3095	105.469	88.3808	105.469	88.23	105.469	88.296	105.469	88.1995	105.469	88.259	105.469	88.2116	105.469	88.2634	105.469	88.2537	105.469	88.2969	105.469	88.3104	105.469	88.3439	105.469	88.366	105.469	88.3889	105.469	88.4075	105.469	88.4191	105.469	88.4262
108.398	89.8549	108.398	89.819	108.398	89.8378	108.398	89.7319	108.398	89.7689	108.398	89.5978	108.398	89.6518	108.398	89.4238	108.398	89.4931	108.398	89.2193	108.398	89.302	108.398	88.9967	108.398	89.0905	108.398	88.7701	108.398	88.8727	108.398	88.5553	108.398	88.6644	108.398	88.3679	108.398	88.4811	108.398	88.2215	108.398	88.336	108.398	88.1246	108.398	88.2373	108.398	88.0793	108.398	88.1866	108.398	88.0798	108.398	88.1777	108.398	88.1143	108.398	88.1988	108.398	88.1674	108.398	88.2344	108.398	88.2228	108.398	88.2694	108.398	88.2672	108.398	88.291	108.398	88.2911
112.793	89.8881	112.793	89.8513	112.793	89.8697	112.793	89.761	112.793	89.7969	112.793	89.6218	112.793	89.6737	112.793	89.4411	112.793	89.5067	112.793	89.229	112.793	89.3055	112.793	88.9979	112.793	89.0825	112.793	88.7626	112.793	88.8527	112.793	88.5396	112.793	88.6324	112.793	88.3448	112.793	88.4381	112.793	88.192	112.793	88.2839	112.793	88.0903	112.793	88.1788	112.793	88.0413	112.793	88.1243	112.793	88.0393	112.793	88.1144	112.793	88.072	112.793	88.1366	112.793	88.1235	112.793	88.1748	112.793	88.1774	112.793	88.2131	112.793	88.2197	112.793	88.2381	112.793	88.2411
117.188	89.8459	117.188	89.8126	117.188	89.8221	117.188	89.7239	117.188	89.7422	117.188	89.5849	117.188	89.6103	117.188	89.4033	117.188	89.4337	117.188	89.1896	117.188	89.2226	117.188	88.957	117.188	88.9905	117.188	88.7211	117.188	88.7534	117.188	88.4987	117.188	88.5291	117.188	88.3067	117.188	88.335	117.188	88.159	117.188	88.186	117.188	88.0646	117.188	88.091	117.188	88.0248	117.188	88.0508	117.188	88.0327	117.188	88.0577	117.188	88.0746	117.188	88.0976	117.188	88.1335	117.188	88.1527	117.188	88.1916	117.188	88.2055	117.188	88.2345	117.188	88.2418	117.188	88.2524
120.117	89.8244	120.117	89.7867	120.117	89.8038	120.117	89.6928	120.117	89.7259	120.117	89.5476	120.117	89.5947	120.117	89.3593	120.117	89.4174	120.117	89.1388	120.117	89.2046	120.117	88.8998	120.117	88.9697	120.117	88.6584	120.117	88.7291	120.117	88.4323	120.117	88.501	120.117	88.2391	120.117	88.3039	120.117	88.0935	120.117	88.1535	120.117	88.0047	120.117	88.0595	120.117	87.9739	120.117	88.0232	120.117	87.9933	120.117	88.0367	120.117	88.048	120.117	88.0845	120.117	88.119	120.117	88.1477	120.117	88.1874	120.117	88.2072	120.117	88.2374	120.117	88.2475	120.117	88.2587
124.512	89.665	124.512	89.6236	124.512	89.6462	124.512	89.5239	124.512	89.5685	124.512	89.3712	124.512	89.4365	124.512	89.1736	124.512	89.258	124.512	88.9428	124.512	89.0441	124.512	88.6932	124.512	88.8092	124.512	88.4422	124.512	88.5704	124.512	88.209	124.512	88.3465	124.512	88.013	124.512	88.1566	124.512	87.8705	124.512	88.0165	124.512	87.7919	124.512	87.9358	124.512	87.7781	124.512	87.9147	124.512	87.8201	124.512	87.944	124.512	87.9006	124.512	88.0067	124.512	87.9979	124.512	88.0816	124.512	88.0903	124.512	88.1481	124.512	88.1597	124.512	88.1892	124.512	88.1942
128.906	89.6093	128.906	89.5742	128.906	89.5805	128.906	89.4769	128.906	89.4896	128.906	89.322	128.906	89.3417	128.906	89.1178	128.906	89.1454	128.906	88.8755	128.906	88.9127	128.906	88.6099	128.906	88.6593	128.906	88.3388	128.906	88.4036	128.906	88.0827	128.906	88.1663	128.906	87.863	128.906	87.9677	128.906	87.6991	128.906	87.825	128.906	87.6045	128.906	87.7479	128.906	87.5824	128.906	87.736	128.906	87.6248	128.906	87.7779	128.906	87.7133	128.906	87.8539	128.906	87.8236	128.906	87.9403	128.906	87.9308	128.906	88.0141	128.906	88.0136	128.906	88.057	128.906	88.0577
133.301	89.5125	133.301	89.489	133.301	89.4701	133.301	89.4014	133.301	89.3632	133.301	89.2549	133.301	89.1971	133.301	89.0578	133.301	88.9805	133.301	88.8216	133.301	88.7261	133.301	88.5607	133.301	88.4503	133.301	88.2926	133.301	88.1734	133.301	88.037	133.301	87.9179	133.301	87.8148	133.301	87.7068	133.301	87.6451	133.301	87.5592	133.301	87.5417	133.301	87.4861	133.301	87.5094	133.301	87.4867	133.301	87.5415	133.301	87.5478	133.301	87.6207	133.301	87.6467	133.301	87.7228	133.301	87.7568	133.301	87.8222	133.301	87.8524	133.301	87.8962	133.301	87.9138	133.301	87.9292
139.16	89.3535	139.16	89.3183	139.16	89.3191	139.16	89.2166	139.16	89.2159	139.16	89.0549	139.16	89.0482	139.16	88.843	139.16	88.8242	139.16	88.5942	139.16	88.556	139.16	88.3247	139.16	88.2603	139.16	88.0536	139.16	87.9575	139.16	87.8021	139.16	87.6719	139.16	87.5913	139.16	87.4296	139.16	87.4398	139.16	87.2542	139.16	87.3592	139.16	87.1621	139.16	87.3509	139.16	87.1566	139.16	87.4041	139.16	87.2264	139.16	87.4978	139.16	87.3475	139.16	87.6053	139.16	87.4892	139.16	87.6996	139.16	87.6211	139.16	87.7582	139.16	87.7187	139.16	87.7662
143.555	89.2321	143.555	89.1855	143.555	89.2042	143.555	89.0673	143.555	89.1029	143.555	88.884	143.555	88.9329	143.555	88.646	143.555	88.7032	143.555	88.3674	143.555	88.4266	143.555	88.066	143.555	88.1201	143.555	87.7635	143.555	87.8051	143.555	87.484	143.555	87.5068	143.555	87.2527	143.555	87.2523	143.555	87.0915	143.555	87.0668	143.555	87.0143	143.555	86.9681	143.555	87.0221	143.555	86.9607	143.555	87.1012	143.555	87.0333	143.555	87.226	143.555	87.1604	143.555	87.3649	143.555	87.3092	143.555	87.4866	143.555	87.4464	143.555	87.5659	143.555	87.545	143.555	87.587
147.949	89.1776	147.949	89.1309	147.949	89.1441	147.949	89.0065	147.949	89.0316	147.949	88.8106	147.949	88.8455	147.949	88.5536	147.949	88.5949	147.949	88.2494	147.949	88.2936	147.949	87.9164	147.949	87.9595	147.949	87.5768	147.949	87.6154	147.949	87.2571	147.949	87.2884	147.949	86.9854	147.949	87.0079	147.949	86.7883	147.949	86.8019	147.949	86.6841	147.949	86.6901	147.949	86.6772	147.949	86.6778	147.949	86.7546	147.949	86.7523	147.949	86.8887	147.949	86.8852	147.949	87.0435	147.949	87.0404	147.949	87.1836	147.949	87.1813	147.949	87.2798	147.949	87.2787	147.949	87.3136
153.809	89.2305	153.809	89.1862	153.809	89.1885	153.809	89.0584	153.809	89.0614	153.809	88.8535	153.809	88.8541	153.809	88.5816	153.809	88.5755	153.809	88.2564	153.809	88.2388	153.809	87.8956	153.809	87.8619	153.809	87.5207	153.809	87.4673	153.809	87.1572	153.809	87.083	153.809	86.8335	153.809	86.7406	153.809	86.5773	153.809	86.472	153.809	86.4109	153.809	86.3022	153.809	86.3436	153.809	86.2416	153.809	86.3677	153.809	86.2805	153.809	86.4591	153.809	86.3912	153.809	86.5828	153.809	86.5348	153.809	86.7017	153.809	86.672	153.809	86.7845	153.809	86.7704	153.809	86.81
159.668	89.3097	159.668	89.2577	159.668	89.2744	159.668	89.1213	159.668	89.1527	159.668	88.9074	159.668	88.9491	159.668	88.6266	159.668	88.6723	159.668	88.2931	159.668	88.335	159.668	87.9253	159.668	87.9543	159.668	87.5455	159.668	87.552	159.668	87.1805	159.668	87.1555	159.668	86.8596	159.668	86.7968	159.668	86.6118	159.668	86.5096	159.668	86.4587	159.668	86.3224	159.668	86.4079	159.668	86.2496	159.668	86.4485	159.668	86.2849	159.668	86.5528	159.668	86.401	159.668	86.683	159.668	86.5577	159.668	86.801	159.668	86.7125	159.668	86.8758	159.668	86.8301	159.668	86.8874
165.527	89.5178	165.527	89.4614	165.527	89.485	165.527	89.3187	165.527	89.3646	165.527	89.0966	165.527	89.162	165.527	88.8058	165.527	88.8866	165.527	88.4612	165.527	88.552	165.527	88.0815	165.527	88.1758	165.527	87.6901	165.527	87.78	165.527	87.3145	165.527	87.3911	165.527	86.9856	165.527	87.0395	165.527	86.7335	165.527	86.7565	165.527	86.5812	165.527	86.5691	165.527	86.5368	165.527	86.4916	165.527	86.5886	165.527	86.519	165.527	86.7068	165.527	86.6264	165.527	86.8515	165.527	86.7755	165.527	86.9826	165.527	86.9241	165.527	87.0678	165.527	87.0362	165.527	87.0874
171.387	89.4661	171.387	89.4046	171.387	89.4333	171.387	89.2519	171.387	89.3078	171.387	89.0151	171.387	89.0955	171.387	88.7056	171.387	88.8063	171.387	88.339	171.387	88.4549	171.387	87.9359	171.387	88.0604	171.387	87.5218	171.387	87.6473	171.387	87.1283	171.387	87.2455	171.387	86.7914	171.387	86.8902	171.387	86.5472	171.387	86.6178	171.387	86.4234	171.387	86.4587	171.387	86.4281	171.387	86.427	171.387	86.544	171.387	86.5125	171.387	86.7318	171.387	86.6817	171.387	86.9412	171.387	86.8872	171.387	87.1243	171.387	87.0798	171.387	87.2435	171.387	87.2186	171.387	87.2769
177.246	89.2913	177.246	89.2374	177.246	89.2488	177.246	89.0888	177.246	89.1126	177.246	88.8515	177.246	88.8902	177.246	88.5359	177.246	88.5933	177.246	88.1565	177.246	88.238	177.246	87.7326	177.246	87.8444	177.246	87.2888	177.246	87.437	177.246	86.8566	177.246	87.0447	177.246	86.4744	177.246	86.7001	177.246	86.1839	177.246	86.4369	177.246	86.0215	177.246	86.2833	177.246	86.0045	177.246	86.253	177.246	86.1211	177.246	86.3367	177.246	86.3305	177.246	86.5017	177.246	86.5762	177.246	86.7	177.246	86.8016	177.246	86.8805	177.246	86.9623	177.246	87.0004	177.246	87.0313
183.105	89.0836	183.105	89.04	183.105	89.0222	183.105	88.8937	183.105	88.858	183.105	88.6517	183.105	88.5982	183.105	88.3249	183.105	88.2552	183.105	87.9283	183.105	87.8461	183.105	87.4812	183.105	87.3941	183.105	87.0084	183.105	86.9283	183.105	86.5416	183.105	86.4845	183.105	86.1209	183.105	86.1044	183.105	85.7926	183.105	85.8307	183.105	85.6004	183.105	85.6971	183.105	85.5696	183.105	85.7149	183.105	85.6926	183.105	85.8648	183.105	85.9269	183.105	86.0995	183.105	86.2085	183.105	86.3578	183.105	86.4719	183.105	86.5803	183.105	86.6641	183.105	86.7208	183.105	86.7513
188.965	89.3066	188.965	89.2469	188.965	89.2565	188.965	89.0814	188.965	89.097	188.965	88.8185	188.965	88.8332	188.965	88.4704	188.965	88.4748	188.965	88.0527	188.965	88.0361	188.965	87.5837	188.965	87.5363	188.965	87.0858	188.965	87.0009	188.965	86.5862	188.965	86.4632	188.965	86.1189	188.965	85.9659	188.965	85.7252	188.965	85.5599	188.965	85.4481	188.965	85.2948	188.965	85.3208	188.965	85.2023	188.965	85.3495	188.965	85.2783	188.965	85.5048	188.965	85.4783	188.965	85.7286	188.965	85.7326	188.965	85.9529	188.965	85.9689	188.965	86.1178	188.965	86.1301	188.965	86.1825
196.289	89.2757	196.289	89.1856	196.289	89.2541	196.289	88.9885	196.289	89.1208	196.289	88.6943	196.289	88.8809	196.289	88.3169	196.289	88.5442	196.289	87.8745	196.289	88.1248	196.289	87.3895	196.289	87.6418	196.289	86.8889	196.289	87.12	196.289	86.4055	196.289	86.5917	196.289	85.9781	196.289	86.0983	196.289	85.6485	196.289	85.6888	196.289	85.4529	196.289	85.4119	196.289	85.4081	196.289	85.3001	196.289	85.501	196.289	85.3528	196.289	85.6892	196.289	85.5321	196.289	85.9135	196.289	85.7748	196.289	86.1143	196.289	86.013	196.289	86.2438	196.289	86.1907	196.289	86.2721
203.613	89.2443	203.613	89.1616	203.613	89.2104	203.613	88.9658	203.613	89.0615	203.613	88.665	203.613	88.8042	203.613	88.2714	203.613	88.4492	203.613	87.801	203.613	88.0115	203.613	87.2736	203.613	87.5097	203.613	86.7136	203.613	86.9671	203.613	86.1533	203.613	86.4139	203.613	85.6359	203.613	85.89	203.613	85.2164	203.613	85.4464	203.613	84.9528	203.613	85.139	203.613	84.8846	203.613	85.0113	203.613	85.0082	203.613	85.0712	203.613	85.2698	203.613	85.2798	203.613	85.5856	203.613	85.5638	203.613	85.8714	203.613	85.841	203.613	86.0627	203.613	86.0424	203.613	86.1226
210.938	89.2535	210.938	89.1852	210.938	89.2036	210.938	89.0022	210.938	89.0374	210.938	88.7131	210.938	88.7621	210.938	88.3306	210.938	88.3901	210.938	87.8705	210.938	87.9375	210.938	87.3511	210.938	87.4242	210.938	86.7936	210.938	86.8739	210.938	86.2248	210.938	86.3163	210.938	85.6812	210.938	85.7895	210.938	85.2121	210.938	85.3422	210.938	84.8772	210.938	85.0292	210.938	84.7294	210.938	84.8947	210.938	84.7862	210.938	84.9492	210.938	85.0111	210.938	85.1546	210.938	85.3236	210.938	85.4355	210.938	85.6303	210.938	85.7053	210.938	85.8538	210.938	85.8911	210.938	85.946
218.262	89.0797	218.262	89.0119	218.262	89.0242	218.262	88.8248	218.262	88.8476	218.262	88.5281	218.262	88.5583	218.262	88.1367	218.262	88.1698	218.262	87.6688	218.262	87.7007	218.262	87.1461	218.262	87.173	218.262	86.5929	218.262	86.6127	218.262	86.0378	218.262	86.0507	218.262	85.5167	218.262	85.5256	218.262	85.0739	218.262	85.0841	218.262	84.7592	218.262	84.7766	218.262	84.6148	218.262	84.6423	218.262	84.6532	218.262	84.6887	218.262	84.8428	218.262	84.8798	218.262	85.1136	218.262	85.1455	218.262	85.3824	218.262	85.4048	218.262	85.5769	218.262	85.5882	218.262	85.6507
225.586	89.263	225.586	89.213	225.586	89.1804	225.586	89.0337	225.586	88.9682	225.586	88.7339	225.586	88.6352	225.586	88.327	225.586	88.1961	225.586	87.8302	225.586	87.6706	225.586	87.2644	225.586	87.083	225.586	86.6552	225.586	86.4637	225.586	86.0368	225.586	85.8514	225.586	85.4562	225.586	85.297	225.586	84.9762	225.586	84.8638	225.586	84.6672	225.586	84.6172	225.586	84.5825	225.586	84.5982	225.586	84.7261	225.586	84.7949	225.586	85.0409	225.586	85.1385	225.586	85.4305	225.586	85.5298	225.586	85.7948	225.586	85.8734	225.586	86.055	225.586	86.0979	225.586	86.1622
232.91	89.6774	232.91	89.6045	232.91	89.6129	232.91	89.4008	232.91	89.4105	232.91	89.0778	232.91	89.0753	232.91	88.6509	232.91	88.6177	232.91	88.1367	232.91	88.0523	232.91	87.5523	232.91	87.3971	232.91	86.9152	232.91	86.6749	232.91	86.2478	232.91	85.9177	232.91	85.5852	232.91	85.1753	232.91	84.9863	232.91	84.5261	232.91	84.5376	232.91	84.0759	232.91	84.3317	232.91	83.9246	232.91	84.4132	232.91	84.1002	232.91	84.7345	232.91	84.5228	232.91	85.173	232.91	85.0449	232.91	85.5907	232.91	85.5217	232.91	85.8793	232.91	85.85	232.91	85.9739
241.699	89.3286	241.699	89.2389	241.699	89.2855	241.699	89.0226	241.699	89.1105	241.699	88.6935	241.699	88.8122	241.699	88.2704	241.699	88.4045	241.699	87.7748	241.699	87.9047	241.699	87.2284	241.699	87.3314	241.699	86.651	241.699	86.703	241.699	86.0615	241.699	86.0398	241.699	85.4831	241.699	85.3698	241.699	84.9521	241.699	84.7389	241.699	84.5252	241.699	84.2193	241.699	84.2736	241.699	83.9025	241.699	84.2505	241.699	83.8593	241.699	84.4451	241.699	84.0834	241.699	84.771	241.699	84.4768	241.699	85.1031	241.699	84.8988	241.699	85.329	241.699	85.225	241.699	85.3773
250.488	89.1461	250.488	89.0576	250.488	89.0797	250.488	88.8196	250.488	88.8607	250.488	88.4455	250.488	88.4997	250.488	87.9549	250.488	88.0138	250.488	87.3716	250.488	87.425	250.488	86.7219	250.488	86.7583	250.488	86.0328	250.488	86.0405	250.488	85.3336	250.488	85.3019	250.488	84.6596	250.488	84.5821	250.488	84.0608	250.488	83.9393	250.488	83.6092	250.488	83.4567	250.488	83.3893	250.488	83.2279	250.488	83.4559	250.488	83.307	250.488	83.7801	250.488	83.6555	250.488	84.2441	250.488	84.1472	250.488	84.6962	250.488	84.629	250.488	85.0106	250.488	84.9758	250.488	85.1116
259.277	89.95	259.277	89.8617	259.277	89.8863	259.277	89.6271	259.277	89.6725	259.277	89.2589	259.277	89.3178	259.277	88.7751	259.277	88.8373	259.277	88.1967	259.277	88.2496	259.277	87.5451	259.277	87.5743	259.277	86.841	259.277	86.8304	259.277	86.1048	259.277	86.0375	259.277	85.3602	259.277	85.2209	259.277	84.6411	259.277	84.4226	259.277	83.9996	259.277	83.7158	259.277	83.5113	259.277	83.2073	259.277	83.2579	259.277	83.0006	259.277	83.2794	259.277	83.1183	259.277	83.5247	259.277	83.4596	259.277	83.8611	259.277	83.8539	259.277	84.1393	259.277	84.148	259.277	84.2503
268.066	89.0894	268.066	89.005	268.066	89.0207	268.066	88.7743	268.066	88.8009	268.066	88.4124	268.066	88.4409	268.066	87.9401	268.066	87.9585	268.066	87.3805	268.066	87.376	268.066	86.7568	268.066	86.7169	268.066	86.0909	268.066	86.0051	268.066	85.4074	268.066	85.267	268.066	84.7421	268.066	84.5383	268.066	84.1536	268.066	83.8766	268.066	83.7271	268.066	83.3712	268.066	83.5526	268.066	83.1298	268.066	83.6707	268.066	83.2225	268.066	84.0288	268.066	83.614	268.066	84.4979	268.066	84.1652	268.066	84.9328	268.066	84.7069	268.066	85.2181	268.066	85.1053	268.066	85.2836
276.855	89.4807	276.855	89.3763	276.855	89.4229	276.855	89.1161	276.855	89.206	276.855	88.7151	276.855	88.8416	276.855	88.1942	276.855	88.3476	276.855	87.5768	276.855	87.7445	276.855	86.8841	276.855	87.0512	276.855	86.1322	276.855	86.2829	276.855	85.3322	276.855	85.4518	276.855	84.4965	276.855	84.5737	276.855	83.6546	276.855	83.6814	276.855	82.8779	276.855	82.8466	276.855	82.3001	276.855	82.2006	276.855	82.0821	276.855	81.91	276.855	82.2859	276.855	82.063	276.855	82.7808	276.855	82.5562	276.855	83.3261	276.855	83.1498	276.855	83.7129	276.855	83.6176	276.855	83.8212
287.109	89.5215	287.109	89.4529	287.109	89.4308	287.109	89.2303	287.109	89.1878	287.109	88.8699	287.109	88.8099	287.109	88.3958	287.109	88.322	287.109	87.8357	287.109	87.751	287.109	87.2154	287.109	87.1194	287.109	86.5549	287.109	86.4408	287.109	85.8666	287.109	85.7201	287.109	85.1592	287.109	84.9605	287.109	84.4459	287.109	84.178	287.109	83.7609	287.109	83.4246	287.109	83.1776	287.109	82.8069	287.109	82.8091	287.109	82.4702	287.109	82.7524	287.109	82.5068	287.109	82.9912	287.109	82.8521	287.109	83.3713	287.109	83.3091	287.109	83.6938	287.109	83.6728	287.109	83.8131
297.363	89.7478	297.363	89.6397	297.363	89.6816	297.363	89.3692	297.363	89.4442	297.363	88.9607	297.363	89.0532	297.363	88.4465	297.363	88.538	297.363	87.8595	297.363	87.9331	297.363	87.2253	297.363	87.2704	297.363	86.5573	297.363	86.5712	297.363	85.8584	297.363	85.8418	297.363	85.13	297.363	85.0788	297.363	84.3906	297.363	84.2858	297.363	83.699	297.363	83.5034	297.363	83.17	297.363	82.8459	297.363	82.9446	297.363	82.4996	297.363	83.0891	297.363	82.6045	297.363	83.5086	297.363	83.0903	297.363	83.9946	297.363	83.7057	297.363	84.3444	297.363	84.2008	297.363	84.4282
307.617	89.8655	307.617	89.7489	307.617	89.802	307.617	89.4636	307.617	89.5624	307.617	89.0352	307.617	89.1654	307.617	88.4999	307.617	88.642	307.617	87.899	307.617	88.0309	307.617	87.2705	307.617	87.3717	307.617	86.6406	307.617	86.697	307.617	86.0176	307.617	86.0254	307.617	85.3922	307.617	85.3591	307.617	84.7487	307.617	84.6898	307.617	84.0886	307.617	84.0173	307.617	83.4641	307.617	83.3806	307.617	83.0017	307.617	82.8877	307.617	82.8522	307.617	82.6894	307.617	83.0466	307.617	82.8518	307.617	83.4218	307.617	83.2474	307.617	83.7383	307.617	83.6369	307.617	83.8263
319.336	88.9462	319.336	88.8428	319.336	88.8509	319.336	88.5521	319.336	88.5638	319.336	88.102	319.336	88.1089	319.336	87.5332	319.336	87.5249	319.336	86.8937	319.336	86.8594	319.336	86.2318	319.336	86.1618	319.336	85.5904	319.336	85.4763	319.336	85.001	319.336	84.837	319.336	84.4805	319.336	84.2678	319.336	84.0303	319.336	83.7847	319.336	83.6452	319.336	83.4027	319.336	83.3361	319.336	83.1463	319.336	83.1557	319.336	83.0564	319.336	83.1848	319.336	83.1731	319.336	83.4479	319.336	83.4817	319.336	83.8406	319.336	83.8766	319.336	84.1802	319.336	84.1994	319.336	84.3175
329.59	89.0479	329.59	88.9418	329.59	88.9535	329.59	88.6463	329.59	88.6641	329.59	88.1866	329.59	88.2005	329.59	87.5973	329.59	87.595	329.59	86.9151	329.59	86.8844	329.59	86.1712	329.59	86.1034	329.59	85.3885	329.59	85.2781	329.59	84.5866	329.59	84.4262	329.59	83.7956	329.59	83.5646	329.59	83.0711	329.59	82.7276	329.59	82.4988	329.59	81.994	329.59	82.1758	329.59	81.5092	329.59	82.1722	329.59	81.4488	329.59	82.4892	329.59	81.8728	329.59	83.0295	329.59	82.6157	329.59	83.6132	329.59	83.3892	329.59	84.0451	329.59	83.9534	329.59	84.1802
341.309	88.6085	341.309	88.4789	341.309	88.5355	341.309	88.1669	341.309	88.2661	341.309	87.7157	341.309	87.8299	341.309	87.1832	341.309	87.2739	341.309	86.6279	341.309	86.6508	341.309	86.0907	341.309	86.0048	341.309	85.5819	341.309	85.3609	341.309	85.0818	341.309	84.7251	341.309	84.5571	341.309	84.0948	341.309	83.9839	341.309	83.475	341.309	83.3738	341.309	82.8914	341.309	82.7975	341.309	82.397	341.309	82.39	341.309	82.0754	341.309	82.2918	341.309	82.0211	341.309	82.5208	341.309	82.2661	341.309	82.9142	341.309	82.7009	341.309	83.2374	341.309	83.1147	341.309	83.3204
353.027	88.6462	353.027	88.4878	353.027	88.5332	353.027	88.0672	353.027	88.1636	353.027	87.4163	353.027	87.5751	353.027	86.5892	353.027	86.8266	353.027	85.6585	353.027	85.9908	353.027	84.7079	353.027	85.14	353.027	83.8204	353.027	84.3266	353.027	83.0621	353.027	83.5697	353.027	82.4711	353.027	82.8623	353.027	82.0593	353.027	82.2055	353.027	81.8298	353.027	81.6581	353.027	81.8031	353.027	81.3683	353.027	82.0267	353.027	81.5119	353.027	82.5285	353.027	82.1189	353.027	83.2328	353.027	82.9904	353.027	83.9513	353.027	83.8371	353.027	84.4743	353.027	84.4326	353.027	84.6544
366.211	89.3893	366.211	89.2314	366.211	89.2666	366.211	88.8111	366.211	88.8738	366.211	88.1737	366.211	88.2514	366.211	87.3866	366.211	87.4684	366.211	86.5276	366.211	86.614	366.211	85.6669	366.211	85.7779	366.211	84.8447	366.211	85.0188	366.211	84.0597	366.211	84.337	366.211	83.2747	366.211	83.674	366.211	82.4431	366.211	82.9411	366.211	81.5514	366.211	82.0688	366.211	80.6955	366.211	81.0912	366.211	80.176	366.211	80.2905	366.211	80.3856	366.211	80.2078	366.211	81.3015	366.211	81.028	366.211	82.404	366.211	82.1949	366.211	83.2055	366.211	83.1016	366.211	83.4613
379.395	90.208	379.395	90.0357	379.395	90.0897	379.395	89.5928	379.395	89.6837	379.395	88.9215	379.395	89.0156	379.395	88.0834	379.395	88.1317	379.395	87.1542	379.395	87.0952	379.395	86.2147	379.395	85.9818	379.395	85.3378	379.395	84.8749	379.395	84.573	379.395	83.8592	379.395	83.9312	379.395	83.004	379.395	83.3775	379.395	82.3315	379.395	82.8395	379.395	81.7896	379.395	82.2359	379.395	81.2745	379.395	81.5382	379.395	80.7218	379.395	80.8644	379.395	80.2283	379.395	80.4981	379.395	80.0632	379.395	80.6056	379.395	80.3561	379.395	80.9307	379.395	80.8217	379.395	81.0631
392.578	89.0387	392.578	88.8652	392.578	88.9354	392.578	88.4334	392.578	88.5684	392.578	87.7912	392.578	87.9799	392.578	87.0095	392.578	87.2345	392.578	86.169	392.578	86.4066	392.578	85.3407	392.578	85.562	392.578	84.5693	392.578	84.7423	392.578	83.8685	392.578	83.9591	392.578	83.2334	392.578	83.2036	392.578	82.6611	392.578	82.4665	392.578	82.1632	392.578	81.7597	392.578	81.7719	392.578	81.1431	392.578	81.55	392.578	80.7533	392.578	81.5885	392.578	80.7749	392.578	81.9253	392.578	81.2636	392.578	82.4302	392.578	81.9999	392.578	82.8455	392.578	82.6413	392.578	82.9465
405.762	88.6687	405.762	88.4535	405.762	88.5566	405.762	87.9292	405.762	88.135	405.762	87.151	405.762	87.4573	405.762	86.2092	405.762	86.6076	405.762	85.2217	405.762	85.6898	405.762	84.313	405.762	84.8048	405.762	83.5786	405.762	84.0235	405.762	83.0526	405.762	83.3712	405.762	82.7052	405.762	82.8375	405.762	82.4722	405.762	82.4005	405.762	82.2927	405.762	82.0422	405.762	82.1391	405.762	81.756	405.762	82.0468	405.762	81.5727	405.762	82.1212	405.762	81.5963	405.762	82.4474	405.762	81.9417	405.762	82.9381	405.762	82.5448	405.762	83.344	405.762	83.1328	405.762	83.4355
420.41	89.4122	420.41	89.2009	420.41	89.2533	420.41	88.6432	420.41	88.7351	420.41	87.7948	420.41	87.9052	420.41	86.7377	420.41	86.8491	420.41	85.5682	420.41	85.6859	420.41	84.3796	420.41	84.5503	420.41	83.2482	420.41	83.5546	420.41	82.2349	420.41	82.7445	420.41	81.4065	420.41	82.0849	420.41	80.848	420.41	81.4998	420.41	80.6223	420.41	80.9448	420.41	80.7144	420.41	80.4917	420.41	81.0691	420.41	80.3814	420.41	81.6741	420.41	80.8811	420.41	82.5032	420.41	81.918	420.41	83.3845	420.41	83.0641	420.41	84.0425	420.41	83.9122	420.41	84.2516
435.059	89.0852	435.059	88.8589	435.059	88.9388	435.059	88.2918	435.059	88.4281	435.059	87.4541	435.059	87.6021	435.059	86.4481	435.059	86.5474	435.059	85.3925	435.059	85.3788	435.059	84.3935	435.059	84.2182	435.059	83.5099	435.059	83.1657	435.059	82.7367	435.059	82.2785	435.059	82.0319	435.059	81.5731	435.059	81.3722	435.059	81.043	435.059	80.7993	435.059	80.6615	435.059	80.4275	435.059	80.387	435.059	80.4117	435.059	80.2416	435.059	80.8711	435.059	80.4212	435.059	81.7395	435.059	81.1366	435.059	82.7072	435.059	82.2013	435.059	83.4009	435.059	83.1307	435.059	83.5687
451.172	90.2536	451.172	89.9752	451.172	90.1103	451.172	89.2983	451.172	89.559	451.172	88.2837	451.172	88.6509	451.172	87.0283	451.172	87.4747	451.172	85.6584	451.172	86.1521	451.172	84.3103	451.172	84.8232	451.172	83.0951	451.172	83.6121	451.172	82.0621	451.172	82.5782	451.172	81.1906	451.172	81.6859	451.172	80.4322	451.172	80.8414	451.172	79.7747	451.172	79.9907	451.172	79.3076	451.172	79.2602	451.172	79.3217	451.172	79.108	451.172	80.2198	451.172	80.0563	451.172	81.8883	451.172	81.8339	451.172	83.6178	451.172	83.6096	451.172	84.8224	451.172	84.8224	451.172	85.2453
465.82	89.9919	465.82	89.7346	465.82	89.8487	465.82	89.1126	465.82	89.3127	465.82	88.2017	465.82	88.4344	465.82	87.106	465.82	87.3021	465.82	85.9377	465.82	86.0294	465.82	84.7958	465.82	84.7347	465.82	83.7538	465.82	83.5222	465.82	82.844	465.82	82.4701	465.82	82.0378	465.82	81.6127	465.82	81.2513	465.82	80.9054	465.82	80.3921	465.82	80.1969	465.82	79.4116	465.82	79.2575	465.82	78.399	465.82	77.941	465.82	77.8341	465.82	76.7541	465.82	78.4594	465.82	77.2816	465.82	79.9683	465.82	79.3072	465.82	81.2547	465.82	81.0045	465.82	81.671
483.398	88.1212	483.398	88.1787	483.398	87.6962	483.398	87.8956	483.398	86.9388	483.398	87.3468	483.398	85.9487	483.398	86.6336	483.398	84.8712	483.398	85.8566	483.398	83.8479	483.398	85.0915	483.398	82.9598	483.398	84.3753	483.398	82.2083	483.398	83.7076	483.398	81.5396	483.398	83.0651	483.398	80.889	483.398	82.4203	483.398	80.2219	483.398	81.7383	483.398	79.5297	483.398	80.9542	483.398	78.7513	483.398	80.0247	483.398	77.7453	483.398	79.2013	483.398	76.6468	483.398	79.219	483.398	76.6344	483.398	80.2121	483.398	78.3946	483.398	81.1706	483.398	80.3112	483.398	81.2922
499.512	86.693	499.512	86.3568	499.512	86.7482	499.512	85.7675	499.512	86.5365	499.512	84.9958	499.512	86.1007	499.512	84.1419	499.512	85.4995	499.512	83.3126	499.512	84.803	499.512	82.5956	499.512	84.0962	499.512	82.0303	499.512	83.4647	499.512	81.5903	499.512	82.9553	499.512	81.2029	499.512	82.5484	499.512	80.7938	499.512	82.1765	499.512	80.3057	499.512	81.7512	499.512	79.6824	499.512	81.1544	499.512	78.8991	499.512	80.2281	499.512	78.1596	499.512	78.8857	499.512	78.0407	499.512	77.5456	499.512	78.7251	499.512	77.4189	499.512	79.4284	499.512	78.5187	499.512	79.4102
517.09	88.5731	517.09	88.2062	517.09	88.5883	517.09	87.5224	517.09	88.2516	517.09	86.5861	517.09	87.5973	517.09	85.4816	517.09	86.6894	517.09	84.3005	517.09	85.615	517.09	83.1296	517.09	84.4735	517.09	82.0396	517.09	83.361	517.09	81.0879	517.09	82.3637	517.09	80.3481	517.09	81.5801	517.09	79.9141	517.09	81.1386	517.09	79.7776	517.09	81.0989	517.09	79.7028	517.09	81.2909	517.09	79.3665	517.09	81.3881	517.09	78.7101	517.09	81.1803	517.09	78.3166	517.09	80.7827	517.09	78.923	517.09	80.5874	517.09	80.0008	517.09	80.7005	517.09	80.6481
536.133	90.2559	536.133	89.9357	536.133	90.1323	536.133	89.1933	536.133	89.5783	536.133	88.0815	536.133	88.6434	536.133	86.6868	536.133	87.4121	536.133	85.1459	536.133	86.002	536.133	83.663	536.133	84.5566	536.133	82.4432	536.133	83.2068	536.133	81.5209	536.133	81.9998	536.133	80.7443	536.133	80.8907	536.133	80.0419	536.133	79.8923	536.133	79.6289	536.133	79.2372	536.133	79.7325	536.133	79.1727	536.133	80.1139	536.133	79.5355	536.133	80.366	536.133	80.0087	536.133	80.4996	536.133	80.5787	536.133	80.8944	536.133	81.3052	536.133	81.5751	536.133	81.918	536.133	82.0356
555.176	91.3568	555.176	91.0864	555.176	91.2041	555.176	90.4115	555.176	90.638	555.176	89.3732	555.176	89.6986	555.176	88.0282	555.176	88.4553	555.176	86.4483	555.176	87.0065	555.176	84.731	555.176	85.4773	555.176	83.0055	555.176	83.9991	555.176	81.394	555.176	82.6499	555.176	79.9529	555.176	81.3955	555.176	78.7483	555.176	80.1246	555.176	78.0623	555.176	78.7784	555.176	78.187	555.176	77.4939	555.176	78.8553	555.176	76.7319	555.176	79.6485	555.176	77.2096	555.176	80.594	555.176	78.9901	555.176	81.7662	555.176	81.0671	555.176	82.7811	555.176	82.561	555.176	83.1336
574.219	91.8092	574.219	91.541	574.219	91.6136	574.219	90.8426	574.219	90.9523	574.219	89.7782	574.219	89.8553	574.219	88.4372	574.219	88.3865	574.219	86.9228	574.219	86.6525	574.219	85.3335	574.219	84.8191	574.219	83.7301	574.219	83.1102	574.219	82.1029	574.219	81.7266	574.219	80.3784	574.219	80.703	574.219	78.5311	574.219	79.8938	574.219	76.8466	574.219	79.1159	574.219	76.0272	574.219	78.2235	574.219	76.3153	574.219	77.1496	574.219	77.2271	574.219	76.3826	574.219	78.6236	574.219	77.334	574.219	80.3399	574.219	79.6278	574.219	81.7177	574.219	81.472	574.219	82.1799
594.727	92.5668	594.727	92.2887	594.727	92.2685	594.727	91.4503	594.727	91.4143	594.727	90.1069	594.727	90.0638	594.727	88.3646	594.727	88.3232	594.727	86.4111	594.727	86.3528	594.727	84.5519	594.727	84.3599	594.727	83.1297	594.727	82.5278	594.727	82.2196	594.727	80.8664	594.727	81.5091	594.727	79.153	594.727	80.6473	594.727	77.1972	594.727	79.5735	594.727	75.5507	594.727	78.5372	594.727	75.5122	594.727	77.6784	594.727	76.3564	594.727	76.9343	594.727	76.6508	594.727	77.2629	594.727	77.0048	594.727	79.347	594.727	78.8753	594.727	81.3102	594.727	81.0122	594.727	81.9358
615.234	91.7246	615.234	91.4217	615.234	91.4794	615.234	90.6053	615.234	90.6936	615.234	89.3446	615.234	89.4225	615.234	87.731	615.234	87.7772	615.234	85.8689	615.234	85.9381	615.234	83.8949	615.234	84.1719	615.234	82.0266	615.234	82.7905	615.234	80.5108	615.234	81.9194	615.234	79.3716	615.234	81.2742	615.234	78.3858	615.234	80.385	615.234	77.5718	615.234	79.0322	615.234	77.3427	615.234	77.5913	615.234	77.482	615.234	76.6719	615.234	77.1098	615.234	75.796	615.234	76.6519	615.234	75.0033	615.234	78.2355	615.234	76.9999	615.234	80.4578	615.234	79.9226	615.234	81.1783
637.207	91.9367	637.207	91.7147	637.207	91.5643	637.207	90.9295	637.207	90.603	637.207	89.6451	637.207	89.101	637.207	87.9548	637.207	87.1548	637.207	85.9826	637.207	84.9168	637.207	83.8993	637.207	82.6131	637.207	81.9452	637.207	80.5826	637.207	80.3564	637.207	79.1967	637.207	79.108	637.207	78.478	637.207	77.839	637.207	78.0215	637.207	76.2934	637.207	77.533	637.207	75.0552	637.207	77.0638	637.207	75.2922	637.207	76.5529	637.207	76.4992	637.207	75.516	637.207	77.8165	637.207	74.3316	637.207	79.2039	637.207	75.8166	637.207	80.2521	637.207	78.6672	637.207	80.2286
659.18	91.6783	659.18	91.2491	659.18	91.3905	659.18	90.1434	659.18	90.4029	659.18	88.4673	659.18	88.7996	659.18	86.4098	659.18	86.7496	659.18	84.2503	659.18	84.5029	659.18	82.3254	659.18	82.3379	659.18	80.9217	659.18	80.5098	659.18	80.0473	659.18	79.1659	659.18	79.2961	659.18	78.0862	659.18	78.1404	659.18	76.7274	659.18	76.5051	659.18	74.958	659.18	75.4976	659.18	74.2243	659.18	75.7295	659.18	75.2369	659.18	75.0737	659.18	75.4436	659.18	71.5783	659.18	73.11	659.18	70.3549	659.18	70.6053	659.18	75.2571	659.18	74.6378	659.18	76.7327
682.617	90.7195	682.617	90.3341	682.617	90.3829	682.617	89.2772	682.617	89.3605	682.617	87.6874	682.617	87.7806	682.617	85.7796	682.617	85.85	682.617	83.7758	682.617	83.7839	682.617	81.8391	682.617	81.7596	682.617	80.2072	682.617	80.1104	682.617	79.2851	682.617	79.3673	682.617	79.0095	682.617	79.371	682.617	78.5852	682.617	79.1816	682.617	77.3353	682.617	78.0951	682.617	75.5519	682.617	76.2143	682.617	75.3282	682.617	75.4089	682.617	76.6197	682.617	76.3776	682.617	77.2447	682.617	76.7423	682.617	77.2361	682.617	76.2429	682.617	77.4316	682.617	76.527	682.617	77.3479
707.52	90.8353	707.52	90.3596	707.52	90.5898	707.52	89.2201	707.52	89.6709	707.52	87.5766	707.52	88.2291	707.52	85.6462	707.52	86.4809	707.52	83.5922	707.52	84.5885	707.52	81.5147	707.52	82.5499	707.52	79.7832	707.52	80.3332	707.52	79.1446	707.52	78.296	707.52	79.4742	707.52	77.2342	707.52	79.6727	707.52	77.0192	707.52	79.0062	707.52	76.6189	707.52	77.3678	707.52	75.8758	707.52	75.5046	707.52	75.7935	707.52	74.7071	707.52	76.3527	707.52	75.6383	707.52	76.8185	707.52	78.4373	707.52	78.3748	707.52	80.9756	707.52	80.7009	707.52	81.7956
732.422	90.653	732.422	90.221	732.422	90.4358	732.422	89.2539	732.422	89.6132	732.422	87.9957	732.422	88.3673	732.422	86.6723	732.422	86.9318	732.422	85.2839	732.422	85.4266	732.422	83.6455	732.422	83.8013	732.422	81.7243	732.422	82.0773	732.422	80.0047	732.422	80.6927	732.422	79.1093	732.422	80.1341	732.422	78.5237	732.422	79.8436	732.422	77.367	732.422	78.7896	732.422	76.5145	732.422	76.8482	732.422	77.747	732.422	76.2628	732.422	78.7301	732.422	77.313	732.422	77.3442	732.422	76.6937	732.422	74.1659	732.422	74.0955	732.422	75.3829	732.422	75.0217	732.422	76.7956
757.324	91.2304	757.324	90.8233	757.324	91.0137	757.324	89.8926	757.324	90.2086	757.324	88.6408	757.324	88.9725	757.324	87.2552	757.324	87.5152	757.324	85.7619	757.324	85.9593	757.324	84.0355	757.324	84.2497	757.324	82.0423	757.324	82.3066	757.324	80.3094	757.324	80.4894	757.324	79.7978	757.324	79.773	757.324	79.9984	757.324	80.012	757.324	79.4619	757.324	79.7722	757.324	77.7173	757.324	78.3718	757.324	76.7102	757.324	77.0581	757.324	77.9972	757.324	77.7915	757.324	78.4005	757.324	78.2332	757.324	77.0191	757.324	76.9139	757.324	75.8634	757.324	75.5968	757.324	75.7964
785.156	91.4787	785.156	91.0807	785.156	91.1566	785.156	90.0594	785.156	90.1813	785.156	88.6545	785.156	88.7921	785.156	87.1516	785.156	87.3251	785.156	85.6768	785.156	85.9494	785.156	84.1068	785.156	84.4886	785.156	82.2932	785.156	82.6838	785.156	80.481	785.156	80.674	785.156	79.42	785.156	79.239	785.156	79.1076	785.156	78.6371	785.156	78.4548	785.156	77.7767	785.156	76.9388	785.156	75.971	785.156	75.5504	785.156	74.7457	785.156	75.4083	785.156	75.6125	785.156	75.9436	785.156	76.2922	785.156	78.1316	785.156	77.546	785.156	80.6764	785.156	80.0985	785.156	81.4633
811.523	90.3238	811.523	89.9349	811.523	89.993	811.523	88.9902	811.523	89.0302	811.523	87.8359	811.523	87.7629	811.523	86.7567	811.523	86.572	811.523	85.7031	811.523	85.5378	811.523	84.3789	811.523	84.3925	811.523	82.5575	811.523	82.8351	811.523	80.4664	811.523	80.8838	811.523	79.1218	811.523	79.3106	811.523	78.8642	811.523	78.918	811.523	78.2729	811.523	78.6735	811.523	76.5432	811.523	77.3332	811.523	75.867	811.523	75.7506	811.523	77.5802	811.523	76.4819	811.523	77.8237	811.523	76.9688	811.523	75.4561	811.523	75.1717	811.523	73.4988	811.523	73.5749	811.523	74.0386
840.82	90.5502	840.82	90.2109	840.82	90.1599	840.82	89.271	840.82	89.1655	840.82	88.0321	840.82	87.9117	840.82	86.7523	840.82	86.7141	840.82	85.4489	840.82	85.5628	840.82	83.9657	840.82	84.2092	840.82	82.1508	840.82	82.4213	840.82	80.0975	840.82	80.1749	840.82	78.5679	840.82	78.1023	840.82	78.2295	840.82	77.4271	840.82	77.9412	840.82	77.5778	840.82	76.2936	840.82	76.9794	840.82	73.677	840.82	75.6598	840.82	74.066	840.82	75.5563	840.82	75.2956	840.82	76.0015	840.82	75.1434	840.82	75.2061	840.82	75.5831	840.82	75.0192	840.82	75.9248
870.117	90.4537	870.117	89.9366	870.117	90.1604	870.117	88.7883	870.117	89.1578	870.117	87.3988	870.117	87.7651	870.117	86.0573	870.117	86.2872	870.117	84.6778	870.117	84.7484	870.117	82.9975	870.117	82.9851	870.117	80.9226	870.117	80.9394	870.117	78.9293	870.117	78.9446	870.117	78.1242	870.117	77.892	870.117	78.266	870.117	77.9311	870.117	77.7438	870.117	77.6616	870.117	75.7645	870.117	75.7955	870.117	74.0661	870.117	72.5711	870.117	74.9951	870.117	73.1773	870.117	74.8045	870.117	74.818	870.117	72.2431	870.117	73.7647	870.117	71.8365	870.117	72.3992	870.117	72.8961
900.879	90.0329	900.879	89.5778	900.879	89.6698	900.879	88.5373	900.879	88.6425	900.879	87.384	900.879	87.4213	900.879	86.3762	900.879	86.3801	900.879	85.3199	900.879	85.3819	900.879	83.8809	900.879	84.0334	900.879	81.7655	900.879	82.0053	900.879	78.9094	900.879	79.2412	900.879	76.7839	900.879	77.0889	900.879	77.4691	900.879	77.657	900.879	78.1959	900.879	78.5729	900.879	76.8212	900.879	77.7789	900.879	74.127	900.879	75.6644	900.879	75.7879	900.879	75.9582	900.879	77.6167	900.879	77.1409	900.879	76.9691	900.879	76.158	900.879	76.1763	900.879	75.2718	900.879	76.1222
933.105	89.4854	933.105	89.0157	933.105	89.1724	933.105	88.0457	933.105	88.2601	933.105	87.0626	933.105	87.2117	933.105	86.1535	933.105	86.2556	933.105	85.0522	933.105	85.2305	933.105	83.6337	933.105	83.9667	933.105	81.8806	933.105	82.3451	933.105	79.8127	933.105	80.1833	933.105	78.1489	933.105	77.7374	933.105	78.0852	933.105	76.7333	933.105	78.3231	933.105	77.2195	933.105	76.921	933.105	76.4673	933.105	74.1255	933.105	73.2664	933.105	74.7925	933.105	72.7235	933.105	75.9247	933.105	75.4099	933.105	74.4952	933.105	75.3378	933.105	74.2558	933.105	74.7627	933.105	75.2739
965.332	88.655	965.332	88.2421	965.332	88.4605	965.332	87.5555	965.332	87.8164	965.332	86.9624	965.332	87.1262	965.332	86.3119	965.332	86.4457	965.332	85.3156	965.332	85.5141	965.332	83.9609	965.332	84.2029	965.332	82.286	965.332	82.4962	965.332	80.126	965.332	80.2738	965.332	77.7491	965.332	77.6693	965.332	77.1813	965.332	76.5571	965.332	78.1827	965.332	77.7153	965.332	77.7287	965.332	77.9689	965.332	74.6999	965.332	75.7862	965.332	73.9694	965.332	73.9247	965.332	76.3878	965.332	75.8081	965.332	75.479	965.332	75.2691	965.332	72.2137	965.332	72.0455	965.332	70.9941
1,000.49	88.268	1,000.49	88.09	1,000.49	87.9778	1,000.49	87.7808	1,000.49	87.5136	1,000.49	87.57	1,000.49	87.3089	1,000.49	87.0795	1,000.49	87.021	1,000.49	85.9867	1,000.49	86.1209	1,000.49	84.4009	1,000.49	84.5926	1,000.49	82.5976	1,000.49	82.8067	1,000.49	80.5892	1,000.49	81.0107	1,000.49	78.3307	1,000.49	79.0932	1,000.49	76.9845	1,000.49	77.5142	1,000.49	77.5506	1,000.49	77.5398	1,000.49	77.6681	1,000.49	77.897	1,000.49	75.8193	1,000.49	76.6028	1,000.49	74.3585	1,000.49	74.4936	1,000.49	75.3713	1,000.49	74.6937	1,000.49	74.5375	1,000.49	73.9433	1,000.49	72.9288	1,000.49	71.9707	1,000.49	72.6066
1,035.64	86.6769	1,035.64	86.9034	1,035.64	86.8794	1,035.64	87.4717	1,035.64	87.4012	1,035.64	87.8579	1,035.64	87.7956	1,035.64	87.5124	1,035.64	87.5071	1,035.64	86.3015	1,035.64	86.357	1,035.64	84.4644	1,035.64	84.5888	1,035.64	82.3793	1,035.64	82.7046	1,035.64	80.1771	1,035.64	81.0426	1,035.64	78.04	1,035.64	79.4423	1,035.64	77.7356	1,035.64	78.1543	1,035.64	79.2762	1,035.64	78.4127	1,035.64	79.6162	1,035.64	79.0592	1,035.64	77.4492	1,035.64	77.9758	1,035.64	74.9799	1,035.64	75.9456	1,035.64	76.0153	1,035.64	76.5808	1,035.64	74.7004	1,035.64	76.0742	1,035.64	70.012	1,035.64	71.8274	1,035.64	68.0592
1,072.27	87.8086	1,072.27	88.0698	1,072.27	87.8262	1,072.27	88.3852	1,072.27	88.0468	1,072.27	88.3714	1,072.27	88.0656	1,072.27	87.6984	1,072.27	87.537	1,072.27	86.2828	1,072.27	86.4011	1,072.27	84.3062	1,072.27	84.7168	1,072.27	82.1892	1,072.27	82.5641	1,072.27	80.4322	1,072.27	80.3269	1,072.27	79.1641	1,072.27	78.7462	1,072.27	78.4431	1,072.27	78.0793	1,072.27	78.7349	1,072.27	78.2516	1,072.27	79.186	1,072.27	78.6635	1,072.27	78.1285	1,072.27	77.9181	1,072.27	75.8143	1,072.27	76.0216	1,072.27	75.6947	1,072.27	76.0907	1,072.27	75.3032	1,072.27	76.172	1,072.27	72.5368	1,072.27	73.5853	1,072.27	71.0048
1,108.89	87.1175	1,108.89	87.4628	1,108.89	87.5391	1,108.89	88.1614	1,108.89	88.2225	1,108.89	88.4601	1,108.89	88.4417	1,108.89	87.9983	1,108.89	87.9379	1,108.89	86.8201	1,108.89	86.8213	1,108.89	85.1349	1,108.89	85.2043	1,108.89	83.1632	1,108.89	83.0763	1,108.89	81.1183	1,108.89	80.6098	1,108.89	79.4044	1,108.89	78.6015	1,108.89	78.6599	1,108.89	78.016	1,108.89	78.9711	1,108.89	78.7458	1,108.89	79.3391	1,108.89	79.3875	1,108.89	78.4165	1,108.89	78.2315	1,108.89	76.7342	1,108.89	76.1519	1,108.89	76.9343	1,108.89	77.7742	1,108.89	75.3395	1,108.89	77.5862	1,108.89	68.9684	1,108.89	72.3441	1,108.89	65.6174
1,148.44	87.6824	1,148.44	87.9818	1,148.44	87.7616	1,148.44	88.3002	1,148.44	88.1127	1,148.44	88.2301	1,148.44	88.2895	1,148.44	87.6197	1,148.44	87.9694	1,148.44	86.5038	1,148.44	87.0092	1,148.44	84.9083	1,148.44	85.3478	1,148.44	82.8528	1,148.44	83.0098	1,148.44	80.6046	1,148.44	80.2598	1,148.44	78.9916	1,148.44	78.2814	1,148.44	78.3107	1,148.44	77.8996	1,148.44	78.0817	1,148.44	77.7208	1,148.44	78.8828	1,148.44	78.0818	1,148.44	79.1279	1,148.44	78.434	1,148.44	76.9378	1,148.44	76.5233	1,148.44	75.992	1,148.44	75.8905	1,148.44	75.8466	1,148.44	76.5881	1,148.44	71.1016	1,148.44	72.6066	1,148.44	66.7053
1,189.45	89.0006	1,189.45	88.8785	1,189.45	88.9061	1,189.45	88.4849	1,189.45	88.6275	1,189.45	87.8282	1,189.45	88.1073	1,189.45	86.9226	1,189.45	87.27	1,189.45	85.6302	1,189.45	86.0766	1,189.45	83.7206	1,189.45	84.5578	1,189.45	81.2319	1,189.45	82.6235	1,189.45	78.7803	1,189.45	79.8003	1,189.45	77.7161	1,189.45	76.4422	1,189.45	78.2059	1,189.45	76.1988	1,189.45	78.544	1,189.45	77.197	1,189.45	78.4966	1,189.45	78.0627	1,189.45	78.2211	1,189.45	79.0668	1,189.45	76.754	1,189.45	77.2571	1,189.45	75.2135	1,189.45	74.0038	1,189.45	72.8568	1,189.45	75.5736	1,189.45	66.1305	1,189.45	72.6634	1,189.45	65.1155
1,230.47	89.1082	1,230.47	88.9765	1,230.47	89.1304	1,230.47	88.6612	1,230.47	89.0202	1,230.47	88.1201	1,230.47	88.63	1,230.47	87.3896	1,230.47	87.8204	1,230.47	86.4152	1,230.47	86.6433	1,230.47	84.9822	1,230.47	85.2846	1,230.47	82.8668	1,230.47	83.7432	1,230.47	80.1751	1,230.47	81.534	1,230.47	77.7655	1,230.47	78.4443	1,230.47	76.6945	1,230.47	76.9989	1,230.47	76.5817	1,230.47	76.8705	1,230.47	76.8101	1,230.47	74.8965	1,230.47	77.0456	1,230.47	75.2388	1,230.47	76.0553	1,230.47	75.9696	1,230.47	75.4404	1,230.47	74.062	1,230.47	74.7381	1,230.47	74.5677	1,230.47	70.9254	1,230.47	72.5572	1,230.47	68.9158
1,274.41	88.8669	1,274.41	88.6792	1,274.41	88.8533	1,274.41	88.3562	1,274.41	88.6414	1,274.41	88.0095	1,274.41	88.2392	1,274.41	87.6231	1,274.41	87.6806	1,274.41	86.8989	1,274.41	86.8764	1,274.41	85.5226	1,274.41	85.5873	1,274.41	83.578	1,274.41	83.9148	1,274.41	81.1618	1,274.41	82.052	1,274.41	78.2054	1,274.41	79.558	1,274.41	76.8824	1,274.41	77.3719	1,274.41	77.2016	1,274.41	77.7076	1,274.41	76.6631	1,274.41	77.4567	1,274.41	76.7686	1,274.41	76.8077	1,274.41	74.5681	1,274.41	76.1716	1,274.41	72.267	1,274.41	73.4779	1,274.41	73.0176	1,274.41	73.9905	1,274.41	68.706	1,274.41	71.3323	1,274.41	66.95
1,319.82	88.934	1,319.82	88.5439	1,319.82	88.7339	1,319.82	87.7629	1,319.82	88.0704	1,319.82	87.0166	1,319.82	87.2731	1,319.82	86.5888	1,319.82	86.6951	1,319.82	86.0967	1,319.82	86.2368	1,319.82	84.9768	1,319.82	85.3387	1,319.82	83.0753	1,319.82	83.7536	1,319.82	80.5451	1,319.82	81.658	1,319.82	78.0242	1,319.82	79.0498	1,319.82	77.6326	1,319.82	76.9748	1,319.82	78.1435	1,319.82	78.0292	1,319.82	77.0066	1,319.82	78.1359	1,319.82	77.0629	1,319.82	76.4308	1,319.82	76.5542	1,319.82	75.4791	1,319.82	73.0637	1,319.82	72.2247	1,319.82	72.7454	1,319.82	72.3461	1,319.82	67.8138	1,319.82	69.0213	1,319.82	63.9484
1,366.7	88.0431	1,366.7	87.4266	1,366.7	87.7687	1,366.7	86.5846	1,366.7	86.8855	1,366.7	86.3299	1,366.7	86.2996	1,366.7	86.5131	1,366.7	86.4548	1,366.7	86.3474	1,366.7	86.6647	1,366.7	85.4305	1,366.7	86.1007	1,366.7	83.8273	1,366.7	84.563	1,366.7	81.6166	1,366.7	82.4319	1,366.7	78.5187	1,366.7	79.9123	1,366.7	77.1288	1,366.7	77.1754	1,366.7	78.7305	1,366.7	77.5275	1,366.7	77.8759	1,366.7	78.1739	1,366.7	76.863	1,366.7	77.256	1,366.7	76.8065	1,366.7	77.2315	1,366.7	72.7917	1,366.7	73.8353	1,366.7	70.8239	1,366.7	71.8884	1,366.7	63.6812	1,366.7	66.7979	1,366.7	64.0986
1,413.57	88.7485	1,413.57	88.1024	1,413.57	88.3183	1,413.57	87.1131	1,413.57	87.1539	1,413.57	86.7147	1,413.57	86.3311	1,413.57	86.8476	1,413.57	86.2977	1,413.57	86.6893	1,413.57	86.3645	1,413.57	85.5672	1,413.57	85.7516	1,413.57	83.6934	1,413.57	84.213	1,413.57	82.0686	1,413.57	82.4341	1,413.57	80.0207	1,413.57	80.5415	1,413.57	77.7171	1,413.57	77.176	1,413.57	78.5792	1,413.57	76.1074	1,413.57	78.2771	1,413.57	76.9702	1,413.57	77.6275	1,413.57	75.2553	1,413.57	77.275	1,413.57	75.6501	1,413.57	72.8603	1,413.57	73.6238	1,413.57	71.1437	1,413.57	73.1579	1,413.57	68.8174	1,413.57	70.5579	1,413.57	71.8473
1,463.38	89.1691	1,463.38	88.1636	1,463.38	88.7002	1,463.38	86.7081	1,463.38	87.2334	1,463.38	86.2332	1,463.38	86.2802	1,463.38	86.5721	1,463.38	86.4146	1,463.38	86.6319	1,463.38	86.5975	1,463.38	85.6625	1,463.38	86.0177	1,463.38	83.5733	1,463.38	84.3719	1,463.38	81.7403	1,463.38	81.9518	1,463.38	80.2165	1,463.38	80.2419	1,463.38	76.673	1,463.38	78.2961	1,463.38	77.5339	1,463.38	75.6587	1,463.38	78.4363	1,463.38	76.6073	1,463.38	77.1717	1,463.38	74.1715	1,463.38	77.7119	1,463.38	74.3249	1,463.38	71.6658	1,463.38	71.7657	1,463.38	69.1698	1,463.38	70.118	1,463.38	66.1265	1,463.38	65.7782	1,463.38	70.5718
1,516.11	89.7838	1,516.11	88.6283	1,516.11	88.9439	1,516.11	86.7287	1,516.11	86.993	1,516.11	86.2258	1,516.11	86.2646	1,516.11	86.8217	1,516.11	86.9544	1,516.11	87.0764	1,516.11	87.3353	1,516.11	86.3558	1,516.11	86.8621	1,516.11	84.1752	1,516.11	85.4442	1,516.11	81.2808	1,516.11	82.908	1,516.11	79.9223	1,516.11	80.9417	1,516.11	76.9121	1,516.11	80.2452	1,516.11	75.8246	1,516.11	78.1526	1,516.11	77.7369	1,516.11	77.6126	1,516.11	76.2792	1,516.11	76.2166	1,516.11	77.1954	1,516.11	74.8652	1,516.11	72.6583	1,516.11	71.4179	1,516.11	67.9079	1,516.11	66.7357	1,516.11	62.3077	1,516.11	62.4578	1,516.11	69.0932
1,568.85	89.607	1,568.85	88.3778	1,568.85	88.5603	1,568.85	86.4175	1,568.85	86.3116	1,568.85	86.2337	1,568.85	85.6562	1,568.85	87.1011	1,568.85	86.6536	1,568.85	87.4819	1,568.85	87.2633	1,568.85	87.2986	1,568.85	86.8799	1,568.85	85.9604	1,568.85	85.486	1,568.85	83.0093	1,568.85	82.9122	1,568.85	81.0228	1,568.85	80.2854	1,568.85	79.8215	1,568.85	79.5432	1,568.85	77.3219	1,568.85	78.4578	1,568.85	77.3842	1,568.85	78.6107	1,568.85	75.4136	1,568.85	77.4587	1,568.85	75.4845	1,568.85	76.1526	1,568.85	71.6084	1,568.85	73.8228	1,568.85	67.104	1,568.85	60.8907	1,568.85	61.9279	1,568.85	55.0343	1,568.85	71.3236
1,624.51	89.3368	1,624.51	88.2099	1,624.51	88.1464	1,624.51	86.0325	1,624.51	85.6785	1,624.51	85.593	1,624.51	84.9522	1,624.51	86.7659	1,624.51	86.3389	1,624.51	87.1606	1,624.51	86.9707	1,624.51	86.5713	1,624.51	86.0093	1,624.51	85.1285	1,624.51	84.2366	1,624.51	82.0918	1,624.51	82.0073	1,624.51	79.5439	1,624.51	79.1805	1,624.51	79.4395	1,624.51	78.1675	1,624.51	78.3468	1,624.51	77.5549	1,624.51	78.3995	1,624.51	76.4287	1,624.51	76.7921	1,624.51	75.3585	1,624.51	76.4851	1,624.51	74.7542	1,624.51	74.224	1,624.51	74.305	1,624.51	66.6861	1,624.51	61.6625	1,624.51	63.2517	1,624.51	57.3549	1,624.51	70.7221
1,681.64	89.4348	1,681.64	87.9569	1,681.64	88.2967	1,681.64	85.2863	1,681.64	85.7125	1,681.64	84.9381	1,681.64	84.739	1,681.64	86.9424	1,681.64	86.3239	1,681.64	87.6068	1,681.64	87.4388	1,681.64	86.395	1,681.64	86.9022	1,681.64	84.48	1,681.64	85.0838	1,681.64	81.8479	1,681.64	82.3609	1,681.64	78.1049	1,681.64	79.2552	1,681.64	77.0812	1,681.64	76.9431	1,681.64	77.684	1,681.64	76.0963	1,681.64	78.869	1,681.64	76.4991	1,681.64	77.0093	1,681.64	76.146	1,681.64	76.1596	1,681.64	74.1963	1,681.64	73.0697	1,681.64	74.9014	1,681.64	64.64	1,681.64	55.958	1,681.64	59.8696	1,681.64	55.599	1,681.64	71.7572
1,741.7	89.5818	1,741.7	88.2285	1,741.7	88.5927	1,741.7	85.9548	1,741.7	86.5564	1,741.7	85.1271	1,741.7	85.6878	1,741.7	86.9637	1,741.7	86.9791	1,741.7	87.9007	1,741.7	88.2671	1,741.7	87.0538	1,741.7	88.12	1,741.7	85.2404	1,741.7	86.524	1,741.7	82.7419	1,741.7	83.9646	1,741.7	79.1148	1,741.7	81.0908	1,741.7	75.4348	1,741.7	78.7246	1,741.7	75.1443	1,741.7	77.6158	1,741.7	77.0764	1,741.7	77.3775	1,741.7	76.2944	1,741.7	77.247	1,741.7	75.411	1,741.7	73.1652	1,741.7	75.0196	1,741.7	75.4339	1,741.7	62.5531	1,741.7	57.7298	1,741.7	64.9526	1,741.7	60.1758	1,741.7	74.4971
1,803.22	90.1683	1,803.22	89.0123	1,803.22	89.4943	1,803.22	87.1654	1,803.22	87.7132	1,803.22	85.9355	1,803.22	86.251	1,803.22	87.2806	1,803.22	87.0795	1,803.22	88.5277	1,803.22	88.1182	1,803.22	88.0906	1,803.22	87.7366	1,803.22	86.362	1,803.22	86.518	1,803.22	83.9714	1,803.22	84.3966	1,803.22	81.2011	1,803.22	81.2387	1,803.22	78.5088	1,803.22	79.0187	1,803.22	77.0564	1,803.22	78.6677	1,803.22	78.0478	1,803.22	77.8424	1,803.22	76.6027	1,803.22	77.9756	1,803.22	72.0707	1,803.22	71.5946	1,803.22	73.7309	1,803.22	73.6205	1,803.22	65.5447	1,803.22	59.5611	1,803.22	62.4263	1,803.22	54.3037	1,803.22	73.138
1,866.21	89.5791	1,866.21	88.4286	1,866.21	88.9747	1,866.21	86.8944	1,866.21	87.5027	1,866.21	85.4728	1,866.21	85.9074	1,866.21	86.4971	1,866.21	86.4544	1,866.21	87.9811	1,866.21	87.7499	1,866.21	87.7492	1,866.21	87.5329	1,866.21	85.6363	1,866.21	86.2816	1,866.21	82.7435	1,866.21	84.0253	1,866.21	80.216	1,866.21	80.5726	1,866.21	78.3366	1,866.21	76.2516	1,866.21	77.0032	1,866.21	75.5978	1,866.21	79.0547	1,866.21	77.9979	1,866.21	79.1416	1,866.21	78.9155	1,866.21	72.8964	1,866.21	76.4014	1,866.21	70.3088	1,866.21	75.1639	1,866.21	63.3391	1,866.21	66.3088	1,866.21	61.3092	1,866.21	58.5313	1,866.21	73.6138
1,932.13	89.4449	1,932.13	89.4243	1,932.13	89.1954	1,932.13	88.4984	1,932.13	88.8005	1,932.13	86.3277	1,932.13	87.2423	1,932.13	86.4067	1,932.13	87.0486	1,932.13	87.6001	1,932.13	88.371	1,932.13	87.5787	1,932.13	88.4639	1,932.13	86.0108	1,932.13	87.3951	1,932.13	83.6057	1,932.13	85.4993	1,932.13	80.9836	1,932.13	82.8486	1,932.13	77.534	1,932.13	80.0295	1,932.13	74.8187	1,932.13	75.5083	1,932.13	75.8026	1,932.13	75.4666	1,932.13	78.7956	1,932.13	76.3406	1,932.13	73.9403	1,932.13	74.0575	1,932.13	71.7401	1,932.13	74.5021	1,932.13	65.1189	1,932.13	66.8629	1,932.13	62.3895	1,932.13	60.7591	1,932.13	68.3417
1,999.51	89.3426	1,999.51	89.3043	1,999.51	89.2677	1,999.51	88.5499	1,999.51	88.6998	1,999.51	86.6127	1,999.51	87.1737	1,999.51	86.5864	1,999.51	87.0967	1,999.51	87.6683	1,999.51	88.4233	1,999.51	87.092	1,999.51	88.3519	1,999.51	85.2288	1,999.51	86.7682	1,999.51	83.054	1,999.51	84.776	1,999.51	81.1177	1,999.51	82.6454	1,999.51	78.5499	1,999.51	81.2319	1,999.51	76.0283	1,999.51	78.4287	1,999.51	74.0962	1,999.51	77.6176	1,999.51	76.2097	1,999.51	75.9284	1,999.51	73.0145	1,999.51	73.7585	1,999.51	70.7891	1,999.51	71.4887	1,999.51	55.2958	1,999.51	65.3647	1,999.51	68.4715	1,999.51	59.7015	1,999.51	68.093
2,069.82	88.3185	2,069.82	88.9266	2,069.82	88.7964	2,069.82	88.703	2,069.82	88.625	2,069.82	87.0799	2,069.82	86.2912	2,069.82	87.0597	2,069.82	86.0016	2,069.82	87.9622	2,069.82	87.6622	2,069.82	87.5629	2,069.82	87.5541	2,069.82	85.7747	2,069.82	85.2067	2,069.82	83.0123	2,069.82	82.5968	2,069.82	79.9614	2,069.82	79.8867	2,069.82	78.1195	2,069.82	78.4751	2,069.82	74.7607	2,069.82	78.3574	2,069.82	73.7915	2,069.82	74.8054	2,069.82	72.8521	2,069.82	75.1581	2,069.82	73.0627	2,069.82	70.9404	2,069.82	72.3493	2,069.82	68.6541	2,069.82	62.6742	2,069.82	68.6378	2,069.82	65.4037	2,069.82	65.8921	2,069.82	66.2007
2,143.07	88.17	2,143.07	88.9764	2,143.07	89.0742	2,143.07	88.6182	2,143.07	89.3028	2,143.07	86.9998	2,143.07	87.2529	2,143.07	87.6714	2,143.07	86.4407	2,143.07	88.0724	2,143.07	88.0627	2,143.07	86.5044	2,143.07	87.8366	2,143.07	84.7683	2,143.07	85.0818	2,143.07	82.913	2,143.07	81.8545	2,143.07	79.933	2,143.07	79.7789	2,143.07	78.2282	2,143.07	76.4986	2,143.07	75.2532	2,143.07	76.045	2,143.07	75.3177	2,143.07	76.8306	2,143.07	74.414	2,143.07	74.2352	2,143.07	71.7407	2,143.07	73.0593	2,143.07	68.6018	2,143.07	60.9326	2,143.07	66.0958	2,143.07	64.7349	2,143.07	59.4831	2,143.07	69.7751	2,143.07	57.2797
2,219.24	88.3778	2,219.24	89.4068	2,219.24	89.0066	2,219.24	89.577	2,219.24	89.0656	2,219.24	88.1845	2,219.24	87.0527	2,219.24	88.0187	2,219.24	86.4417	2,219.24	88.8943	2,219.24	87.31	2,219.24	87.8301	2,219.24	87.3649	2,219.24	84.9264	2,219.24	85.5069	2,219.24	82.0729	2,219.24	82.0483	2,219.24	79.1965	2,219.24	79.5512	2,219.24	76.8912	2,219.24	75.7984	2,219.24	75.3831	2,219.24	75.0436	2,219.24	73.7916	2,219.24	71.1469	2,219.24	73.897	2,219.24	73.4854	2,219.24	75.2624	2,219.24	72.0028	2,219.24	71.5033	2,219.24	62.48	2,219.24	58.8902	2,219.24	70.3304	2,219.24	64.6929	2,219.24	59.4539	2,219.24	56.6712
2,296.88	88.5383	2,296.88	89.0342	2,296.88	88.9306	2,296.88	89.1553	2,296.88	89.1681	2,296.88	87.9744	2,296.88	87.4762	2,296.88	87.4865	2,296.88	86.2828	2,296.88	87.9478	2,296.88	87.3972	2,296.88	87.0608	2,296.88	85.9796	2,296.88	84.8862	2,296.88	83.482	2,296.88	82.1105	2,296.88	81.201	2,296.88	79.9365	2,296.88	78.1832	2,296.88	76.4447	2,296.88	75.5586	2,296.88	75.8339	2,296.88	72.535	2,296.88	70.4415	2,296.88	72.5773	2,296.88	71.1461	2,296.88	74.4883	2,296.88	68.8309	2,296.88	68.5662	2,296.88	72.2454	2,296.88	66.634	2,296.88	66.0365	2,296.88	70.9244	2,296.88	67.7725	2,296.88	61.7285	2,296.88	58.4116
2,378.91	89.2965	2,378.91	89.1817	2,378.91	89.0796	2,378.91	88.6661	2,378.91	88.8105	2,378.91	87.4905	2,378.91	88.3216	2,378.91	86.9075	2,378.91	87.2428	2,378.91	86.7347	2,378.91	87.0567	2,378.91	85.7949	2,378.91	86.1677	2,378.91	84.4894	2,378.91	84.4487	2,378.91	81.493	2,378.91	81.9542	2,378.91	78.7673	2,378.91	78.6117	2,378.91	76.6426	2,378.91	77.2339	2,378.91	75.2764	2,378.91	74.5546	2,378.91	74.5106	2,378.91	72.8631	2,378.91	67.4849	2,378.91	66.1573	2,378.91	64.3777	2,378.91	65.2744	2,378.91	66.3299	2,378.91	66.5614	2,378.91	67.8695	2,378.91	62.1237	2,378.91	62.4058	2,378.91	66.5566	2,378.91	67.1371
2,462.4	89.316	2,462.4	88.9791	2,462.4	89.0631	2,462.4	89.0251	2,462.4	88.945	2,462.4	88.3471	2,462.4	88.445	2,462.4	87.2566	2,462.4	87.5146	2,462.4	87.1951	2,462.4	87.4622	2,462.4	86.2946	2,462.4	86.6551	2,462.4	84.4153	2,462.4	84.9032	2,462.4	81.7332	2,462.4	82.3402	2,462.4	78.695	2,462.4	79.5001	2,462.4	76.3535	2,462.4	77.2858	2,462.4	74.7734	2,462.4	75.7	2,462.4	72.7757	2,462.4	74.2392	2,462.4	72.8874	2,462.4	70.1237	2,462.4	60.5674	2,462.4	64.7595	2,462.4	69.1696	2,462.4	66.8402	2,462.4	61.6604	2,462.4	68.1004	2,462.4	64.4354	2,462.4	55.8651	2,462.4	60.6198
2,548.83	88.7435	2,548.83	87.6477	2,548.83	87.9278	2,548.83	87.5908	2,548.83	87.4	2,548.83	87.4822	2,548.83	87.7431	2,548.83	86.7129	2,548.83	86.2709	2,548.83	86.6503	2,548.83	86.1749	2,548.83	86.1856	2,548.83	86.1299	2,548.83	84.2106	2,548.83	84.3557	2,548.83	80.7337	2,548.83	81.5212	2,548.83	78.2811	2,548.83	78.3392	2,548.83	75.3652	2,548.83	75.7197	2,548.83	75.2119	2,548.83	73.9037	2,548.83	72.4449	2,548.83	73.2012	2,548.83	70.7469	2,548.83	70.2614	2,548.83	64.0342	2,548.83	57.4652	2,548.83	69.0373	2,548.83	66.6155	2,548.83	67.1171	2,548.83	67.9871	2,548.83	64.739	2,548.83	62.0991	2,548.83	62.8939
2,639.65	89.2732	2,639.65	87.8247	2,639.65	88.3466	2,639.65	87.7208	2,639.65	87.9115	2,639.65	87.6828	2,639.65	88.3519	2,639.65	86.4172	2,639.65	86.9752	2,639.65	86.6283	2,639.65	86.7415	2,639.65	86.3419	2,639.65	87.0876	2,639.65	84.2188	2,639.65	85.3701	2,639.65	80.488	2,639.65	82.0625	2,639.65	76.8143	2,639.65	78.3171	2,639.65	75.4422	2,639.65	76.4933	2,639.65	71.9513	2,639.65	73.802	2,639.65	71.254	2,639.65	73.737	2,639.65	68.7027	2,639.65	68.241	2,639.65	62.5417	2,639.65	54.3859	2,639.65	66.5615	2,639.65	66.9578	2,639.65	61.2006	2,639.65	65.3864	2,639.65	58.3898	2,639.65	62.9019	2,639.65	66.5048
2,731.93	89.4821	2,731.93	87.9992	2,731.93	88.3201	2,731.93	87.6554	2,731.93	87.1446	2,731.93	87.8957	2,731.93	87.9353	2,731.93	86.9338	2,731.93	87.2918	2,731.93	86.758	2,731.93	86.7971	2,731.93	86.3371	2,731.93	86.5307	2,731.93	84.3133	2,731.93	84.5455	2,731.93	81.1006	2,731.93	81.4375	2,731.93	77.7643	2,731.93	77.5972	2,731.93	75.8178	2,731.93	75.7736	2,731.93	74.5774	2,731.93	73.8933	2,731.93	69.3422	2,731.93	72.9453	2,731.93	65.377	2,731.93	69.3829	2,731.93	62.0288	2,731.93	49.4421	2,731.93	67.9999	2,731.93	65.6739	2,731.93	59.8789	2,731.93	66.3959	2,731.93	55.6886	2,731.93	50.8212	2,731.93	60.5435
2,828.61	88.9851	2,828.61	87.465	2,828.61	88.0894	2,828.61	86.6547	2,828.61	86.8008	2,828.61	87.2788	2,828.61	87.3098	2,828.61	86.486	2,828.61	87.3868	2,828.61	85.6927	2,828.61	86.4837	2,828.61	84.7246	2,828.61	85.6333	2,828.61	82.2444	2,828.61	83.3898	2,828.61	78.9094	2,828.61	80.5966	2,828.61	75.6359	2,828.61	77.4855	2,828.61	75.2259	2,828.61	75.1784	2,828.61	71.9341	2,828.61	73.4227	2,828.61	71.6823	2,828.61	72.0622	2,828.61	65.2766	2,828.61	66.6074	2,828.61	63.8835	2,828.61	57.6323	2,828.61	66.4395	2,828.61	65.4266	2,828.61	55.2383	2,828.61	64.0231	2,828.61	60.9421	2,828.61	50.5352	2,828.61	63.2664
2,928.22	89.6384	2,928.22	87.8697	2,928.22	88.4963	2,928.22	86.8978	2,928.22	86.8626	2,928.22	88.192	2,928.22	87.7616	2,928.22	87.6002	2,928.22	87.8798	2,928.22	85.9587	2,928.22	86.6127	2,928.22	84.8578	2,928.22	85.5854	2,928.22	82.759	2,928.22	83.2779	2,928.22	79.808	2,928.22	80.6396	2,928.22	76.6571	2,928.22	77.8885	2,928.22	74.2671	2,928.22	75.0679	2,928.22	73.4951	2,928.22	73.9649	2,928.22	68.6772	2,928.22	72.2568	2,928.22	66.2668	2,928.22	60.3893	2,928.22	61.4523	2,928.22	63.1917	2,928.22	65.4028	2,928.22	68.1003	2,928.22	55.8847	2,928.22	62.7779	2,928.22	52.4968	2,928.22	57.9134	2,928.22	57.1118
3,030.76	89.0386	3,030.76	87.8145	3,030.76	88.2186	3,030.76	86.5314	3,030.76	86.5523	3,030.76	87.9264	3,030.76	87.4877	3,030.76	87.2632	3,030.76	87.5919	3,030.76	85.3002	3,030.76	85.5681	3,030.76	84.6463	3,030.76	84.6392	3,030.76	82.7007	3,030.76	83.071	3,030.76	79.9686	3,030.76	80.4567	3,030.76	76.8806	3,030.76	77.5549	3,030.76	74.1354	3,030.76	74.824	3,030.76	72.9001	3,030.76	73.2718	3,030.76	69.4623	3,030.76	71.9109	3,030.76	62.3647	3,030.76	64.8199	3,030.76	62.8301	3,030.76	60.3208	3,030.76	65.8519	3,030.76	68.2059	3,030.76	56.184	3,030.76	64.1394	3,030.76	56.9711	3,030.76	58.6523	3,030.76	54.6137
3,137.7	88.9801	3,137.7	87.9945	3,137.7	88.4358	3,137.7	86.704	3,137.7	86.7898	3,137.7	87.9409	3,137.7	87.5607	3,137.7	86.7455	3,137.7	87.4863	3,137.7	84.3661	3,137.7	84.7678	3,137.7	84.3035	3,137.7	84.3169	3,137.7	82.8443	3,137.7	83.4214	3,137.7	79.9253	3,137.7	80.8362	3,137.7	77.036	3,137.7	77.4532	3,137.7	73.8472	3,137.7	74.3398	3,137.7	72.6591	3,137.7	72.8742	3,137.7	70.2531	3,137.7	71.9328	3,137.7	57.801	3,137.7	60.7106	3,137.7	64.1962	3,137.7	60.133	3,137.7	65.6199	3,137.7	67.2923	3,137.7	54.5488	3,137.7	63.9759	3,137.7	56.4088	3,137.7	60.4068	3,137.7	42.3496
3,249.02	89.5195	3,249.02	88.3741	3,249.02	88.913	3,249.02	87.1139	3,249.02	87.2187	3,249.02	88.2188	3,249.02	88.1211	3,249.02	86.3907	3,249.02	87.2612	3,249.02	83.6283	3,249.02	84.1544	3,249.02	83.8765	3,249.02	84.1821	3,249.02	82.5904	3,249.02	83.2397	3,249.02	79.5475	3,249.02	80.6342	3,249.02	76.5013	3,249.02	77.3939	3,249.02	73.8518	3,249.02	74.1983	3,249.02	71.5078	3,249.02	72.6558	3,249.02	69.5308	3,249.02	71.3811	3,249.02	56.8533	3,249.02	62.2899	3,249.02	64.2491	3,249.02	57.3667	3,249.02	62.5089	3,249.02	65.5424	3,249.02	49.8531	3,249.02	58.9137	3,249.02	63.1787	3,249.02	61.3478	3,249.02	50.8056
3,363.28	90.0363	3,363.28	88.9976	3,363.28	89.1853	3,363.28	87.8909	3,363.28	87.7972	3,363.28	88.4194	3,363.28	88.2084	3,363.28	86.1435	3,363.28	86.7753	3,363.28	83.8513	3,363.28	83.9707	3,363.28	83.8193	3,363.28	83.8298	3,363.28	81.8555	3,363.28	82.4913	3,363.28	78.5407	3,363.28	79.3036	3,363.28	75.729	3,363.28	76.3302	3,363.28	72.8606	3,363.28	72.4406	3,363.28	72.1168	3,363.28	72.347	3,363.28	68.8281	3,363.28	71.0016	3,363.28	56.6175	3,363.28	62.6428	3,363.28	62.2468	3,363.28	55.8583	3,363.28	59.7799	3,363.28	64.6009	3,363.28	55.1751	3,363.28	55.8287	3,363.28	60.6632	3,363.28	63.0527	3,363.28	53.2462
3,481.93	90.8669	3,481.93	89.77	3,481.93	90.0889	3,481.93	88.8163	3,481.93	89.1285	3,481.93	88.8292	3,481.93	89.2274	3,481.93	86.6496	3,481.93	87.6389	3,481.93	84.6309	3,481.93	85.2906	3,481.93	84.167	3,481.93	84.6618	3,481.93	81.9334	3,481.93	83.2548	3,481.93	78.1253	3,481.93	79.5204	3,481.93	75.795	3,481.93	76.797	3,481.93	72.707	3,481.93	72.8966	3,481.93	72.5013	3,481.93	73.5846	3,481.93	69.0449	3,481.93	72.5674	3,481.93	54.1567	3,481.93	60.403	3,481.93	64.2772	3,481.93	60.6827	3,481.93	58.1732	3,481.93	65.9441	3,481.93	54.8515	3,481.93	59.9651	3,481.93	59.7775	3,481.93	63.6674	3,481.93	52.9488
3,604.98	91.2777	3,604.98	90.2516	3,604.98	90.6266	3,604.98	89.8102	3,604.98	89.9254	3,604.98	89.6476	3,604.98	89.9224	3,604.98	88.1734	3,604.98	88.8218	3,604.98	85.951	3,604.98	86.7213	3,604.98	85.1933	3,604.98	85.8101	3,604.98	83.7711	3,604.98	84.9761	3,604.98	80.2011	3,604.98	81.6635	3,604.98	77.646	3,604.98	78.8791	3,604.98	74.1195	3,604.98	75.8106	3,604.98	74.2667	3,604.98	75.1821	3,604.98	69.63	3,604.98	72.8907	3,604.98	50.3455	3,604.98	57.645	3,604.98	66.0407	3,604.98	62.4728	3,604.98	59.3864	3,604.98	67.8227	3,604.98	54.9492	3,604.98	59.2405	3,604.98	62.4186	3,604.98	61.4629	3,604.98	52.1623
3,732.42	90.4446	3,732.42	89.7265	3,732.42	90.0238	3,732.42	89.2742	3,732.42	89.4005	3,732.42	88.7793	3,732.42	89.125	3,732.42	88.3588	3,732.42	88.6854	3,732.42	85.9464	3,732.42	86.7929	3,732.42	85.3322	3,732.42	85.7957	3,732.42	84.9352	3,732.42	85.5386	3,732.42	81.7838	3,732.42	82.6384	3,732.42	79.6322	3,732.42	79.5916	3,732.42	76.6809	3,732.42	76.428	3,732.42	76.1522	3,732.42	76.2322	3,732.42	70.0899	3,732.42	73.7375	3,732.42	39.5305	3,732.42	55.3535	3,732.42	64.8597	3,732.42	60.4012	3,732.42	57.4438	3,732.42	68.5331	3,732.42	50.3081	3,732.42	63.4678	3,732.42	57.716	3,732.42	59.8344	3,732.42	49.0458
3,864.26	90.1358	3,864.26	89.8493	3,864.26	89.9406	3,864.26	89.0027	3,864.26	89.1603	3,864.26	88.8366	3,864.26	88.9365	3,864.26	88.5674	3,864.26	89.0681	3,864.26	86.3409	3,864.26	86.8422	3,864.26	86.3609	3,864.26	86.736	3,864.26	86.0405	3,864.26	86.9985	3,864.26	82.8478	3,864.26	83.8835	3,864.26	79.5146	3,864.26	80.458	3,864.26	76.565	3,864.26	77.8213	3,864.26	75.9785	3,864.26	76.5139	3,864.26	69.4052	3,864.26	73.7138	3,864.26	55.7792	3,864.26	61.1067	3,864.26	63.1903	3,864.26	62.0482	3,864.26	50.3403	3,864.26	67.4457	3,864.26	46.0855	3,864.26	63.8024	3,864.26	59.5805	3,864.26	60.8507	3,864.26	49.87
4,000.49	88.5135	4,000.49	88.803	4,000.49	88.9141	4,000.49	87.8655	4,000.49	88.3932	4,000.49	88.0352	4,000.49	87.9358	4,000.49	87.4142	4,000.49	87.9807	4,000.49	86.1913	4,000.49	86.2184	4,000.49	86.6374	4,000.49	86.7718	4,000.49	86.0052	4,000.49	86.6078	4,000.49	82.3687	4,000.49	83.2983	4,000.49	79.2341	4,000.49	79.3985	4,000.49	77.012	4,000.49	76.7735	4,000.49	76.9604	4,000.49	75.2774	4,000.49	70.4624	4,000.49	71.9519	4,000.49	52.7627	4,000.49	53.6006	4,000.49	62.9091	4,000.49	59.6306	4,000.49	43.8832	4,000.49	65.2709	4,000.49	57.8381	4,000.49	65.0235	4,000.49	57.3023	4,000.49	61.7063	4,000.49	54.4734
4,141.11	88.4336	4,141.11	88.77	4,141.11	88.9652	4,141.11	88.2132	4,141.11	88.4268	4,141.11	87.6626	4,141.11	87.7252	4,141.11	87.322	4,141.11	87.3398	4,141.11	87.3028	4,141.11	87.1416	4,141.11	86.8628	4,141.11	87.1974	4,141.11	86.0425	4,141.11	86.3246	4,141.11	82.6776	4,141.11	82.7178	4,141.11	78.4949	4,141.11	78.8853	4,141.11	76.0332	4,141.11	76.6199	4,141.11	74.2168	4,141.11	74.4745	4,141.11	67.5741	4,141.11	71.7897	4,141.11	59.9732	4,141.11	57.9967	4,141.11	62.5688	4,141.11	57.9606	4,141.11	48.061	4,141.11	63.0391	4,141.11	59.2996	4,141.11	63.5065	4,141.11	55.8469	4,141.11	59.4615	4,141.11	56.5635
4,287.6	88.5637	4,287.6	88.4229	4,287.6	88.7138	4,287.6	88.5142	4,287.6	88.5801	4,287.6	86.6636	4,287.6	87.6029	4,287.6	86.8068	4,287.6	87.1753	4,287.6	87.3197	4,287.6	88.0048	4,287.6	86.0429	4,287.6	86.5249	4,287.6	84.9424	4,287.6	85.7412	4,287.6	81.874	4,287.6	82.2467	4,287.6	77.8199	4,287.6	78.0231	4,287.6	76.7207	4,287.6	75.5592	4,287.6	74.8004	4,287.6	73.8781	4,287.6	69.5652	4,287.6	70.8276	4,287.6	54.3036	4,287.6	57.6414	4,287.6	62.3813	4,287.6	60.0357	4,287.6	53.7728	4,287.6	57.3066	4,287.6	60.5135	4,287.6	62.7052	4,287.6	52.0907	4,287.6	58.3045	4,287.6	58.6168
4,438.48	88.8098	4,438.48	88.4787	4,438.48	88.1173	4,438.48	88.9004	4,438.48	89.0575	4,438.48	87.0895	4,438.48	87.4711	4,438.48	87.7584	4,438.48	87.3542	4,438.48	87.8205	4,438.48	87.7783	4,438.48	86.3107	4,438.48	85.9277	4,438.48	85.7989	4,438.48	85.6298	4,438.48	82.7031	4,438.48	82.3384	4,438.48	78.4346	4,438.48	78.3434	4,438.48	77.2782	4,438.48	75.7388	4,438.48	74.1791	4,438.48	74.3656	4,438.48	69.2656	4,438.48	70.0855	4,438.48	55.6488	4,438.48	54.6507	4,438.48	62.4536	4,438.48	59.2594	4,438.48	53.0931	4,438.48	49.9672	4,438.48	59.5975	4,438.48	58.9598	4,438.48	55.7706	4,438.48	57.7412	4,438.48	57.0164
4,595.21	88.9109	4,595.21	88.214	4,595.21	88.5461	4,595.21	89.0621	4,595.21	88.9536	4,595.21	86.7604	4,595.21	87.3507	4,595.21	88.2034	4,595.21	87.3244	4,595.21	87.0846	4,595.21	87.4368	4,595.21	86.3336	4,595.21	86.0011	4,595.21	85.9871	4,595.21	85.5026	4,595.21	82.558	4,595.21	82.6643	4,595.21	77.4414	4,595.21	77.3751	4,595.21	76.2029	4,595.21	75.5269	4,595.21	74.2096	4,595.21	74.8232	4,595.21	69.8177	4,595.21	70.9638	4,595.21	57.4772	4,595.21	59.3026	4,595.21	62.6035	4,595.21	55.7159	4,595.21	55.9037	4,595.21	45.9532	4,595.21	56.4383	4,595.21	57.4011	4,595.21	56.6633	4,595.21	59.5614	4,595.21	48.4899
4,756.35	89.2472	4,756.35	88.5739	4,756.35	88.9796	4,756.35	88.9339	4,756.35	89.2703	4,756.35	87.1529	4,756.35	88.1415	4,756.35	87.3404	4,756.35	88.1054	4,756.35	86.7981	4,756.35	87.8047	4,756.35	86.2877	4,756.35	86.5246	4,756.35	85.071	4,756.35	85.6417	4,756.35	82.6154	4,756.35	83.0403	4,756.35	77.5391	4,756.35	77.6572	4,756.35	76.4705	4,756.35	75.629	4,756.35	73.8832	4,756.35	74.2455	4,756.35	69.2944	4,756.35	68.3457	4,756.35	59.1093	4,756.35	61.2885	4,756.35	61.7668	4,756.35	52.5325	4,756.35	59.7551	4,756.35	54.515	4,756.35	55.0072	4,756.35	55.5644	4,756.35	51.3871	4,756.35	60.0706	4,756.35	50.4834
4,924.8	88.8505	4,924.8	88.3461	4,924.8	88.0558	4,924.8	88.5178	4,924.8	88.6459	4,924.8	87.9841	4,924.8	88.1208	4,924.8	87.2295	4,924.8	87.1937	4,924.8	87.3303	4,924.8	86.6548	4,924.8	86.3602	4,924.8	86.1211	4,924.8	85.2789	4,924.8	85.1945	4,924.8	83.0819	4,924.8	82.7597	4,924.8	78.1688	4,924.8	77.3216	4,924.8	76.4969	4,924.8	75.3317	4,924.8	73.1643	4,924.8	73.5375	4,924.8	67.9921	4,924.8	68.3997	4,924.8	55.7715	4,924.8	61.1842	4,924.8	62.317	4,924.8	60.2175	4,924.8	60.4187	4,924.8	53.5361	4,924.8	42.0717	4,924.8	56.1565	4,924.8	55.9532	4,924.8	56.3243	4,924.8	56.9021
5,097.66	89.3287	5,097.66	87.9825	5,097.66	88.4707	5,097.66	89.1479	5,097.66	88.5107	5,097.66	88.4844	5,097.66	88.4551	5,097.66	87.8112	5,097.66	86.9041	5,097.66	87.5465	5,097.66	87.168	5,097.66	86.5431	5,097.66	85.926	5,097.66	85.8611	5,097.66	85.6155	5,097.66	83.5249	5,097.66	83.2271	5,097.66	77.2384	5,097.66	78.2297	5,097.66	76.1779	5,097.66	75.7265	5,097.66	72.7195	5,097.66	73.3562	5,097.66	69.3711	5,097.66	67.7775	5,097.66	53.9253	5,097.66	59.0883	5,097.66	62.418	5,097.66	61.2126	5,097.66	60.3451	5,097.66	54.021	5,097.66	52.3866	5,097.66	57.5486	5,097.66	59.0944	5,097.66	58.48	5,097.66	54.7213
5,277.83	89.4325	5,277.83	88.329	5,277.83	88.4561	5,277.83	89.0925	5,277.83	89.0581	5,277.83	88.0256	5,277.83	88.5209	5,277.83	86.9739	5,277.83	87.2448	5,277.83	86.7542	5,277.83	87.174	5,277.83	85.7834	5,277.83	85.9987	5,277.83	85.5009	5,277.83	86.1522	5,277.83	83.572	5,277.83	83.8343	5,277.83	76.484	5,277.83	78.8423	5,277.83	76.5305	5,277.83	75.5783	5,277.83	73.1784	5,277.83	73.8622	5,277.83	69.6934	5,277.83	66.7324	5,277.83	42.7682	5,277.83	58.1098	5,277.83	58.6046	5,277.83	61.1533	5,277.83	60.8742	5,277.83	56.0245	5,277.83	55.024	5,277.83	58.4235	5,277.83	58.6566	5,277.83	55.8708	5,277.83	56.0818
5,463.87	89.2344	5,463.87	88.3061	5,463.87	88.4031	5,463.87	88.7924	5,463.87	88.9432	5,463.87	87.7827	5,463.87	88.2711	5,463.87	86.5935	5,463.87	86.7473	5,463.87	86.478	5,463.87	86.5083	5,463.87	85.6939	5,463.87	86.2849	5,463.87	85.7819	5,463.87	86.1222	5,463.87	83.9787	5,463.87	83.7585	5,463.87	77.6653	5,463.87	78.7661	5,463.87	76.8645	5,463.87	75.3494	5,463.87	70.9527	5,463.87	73.0415	5,463.87	67.2652	5,463.87	64.341	5,463.87	55.4412	5,463.87	59.6183	5,463.87	59.3657	5,463.87	59.2275	5,463.87	57.4806	5,463.87	56.0425	5,463.87	56.8432	5,463.87	57.0817	5,463.87	57.5059	5,463.87	52.6527	5,463.87	52.2469
5,657.23	89.1361	5,657.23	88.4621	5,657.23	88.8762	5,657.23	89.05	5,657.23	88.9334	5,657.23	87.8589	5,657.23	88.2105	5,657.23	86.8273	5,657.23	86.5187	5,657.23	86.8852	5,657.23	86.754	5,657.23	86.46	5,657.23	86.694	5,657.23	85.9403	5,657.23	85.3953	5,657.23	83.4592	5,657.23	82.8104	5,657.23	76.8361	5,657.23	78.0075	5,657.23	75.224	5,657.23	74.8069	5,657.23	66.7346	5,657.23	71.0565	5,657.23	64.8489	5,657.23	62.1371	5,657.23	54.8941	5,657.23	55.8524	5,657.23	57.9116	5,657.23	57.2301	5,657.23	48.5806	5,657.23	54.1659	5,657.23	56.0032	5,657.23	59.7146	5,657.23	57.414	5,657.23	52.6986	5,657.23	52.804
5,856.45	89.3487	5,856.45	88.7859	5,856.45	88.8995	5,856.45	88.9382	5,856.45	89.0595	5,856.45	87.7263	5,856.45	88.0513	5,856.45	86.945	5,856.45	86.7619	5,856.45	86.9201	5,856.45	86.8829	5,856.45	86.2991	5,856.45	86.6288	5,856.45	84.8218	5,856.45	84.6312	5,856.45	82.8069	5,856.45	82.308	5,856.45	75.7195	5,856.45	78.4285	5,856.45	74.0413	5,856.45	74.5276	5,856.45	69.0041	5,856.45	70.7866	5,856.45	63.9059	5,856.45	63.497	5,856.45	56.3931	5,856.45	57.1602	5,856.45	54.501	5,856.45	54.1882	5,856.45	50.847	5,856.45	51.629	5,856.45	56.1285	5,856.45	57.7243	5,856.45	55.2277	5,856.45	47.5877	5,856.45	52.6904
6,062.99	89.2724	6,062.99	88.8419	6,062.99	89.1769	6,062.99	88.6685	6,062.99	88.7947	6,062.99	87.7503	6,062.99	87.9311	6,062.99	86.9364	6,062.99	87.0749	6,062.99	86.6208	6,062.99	86.9293	6,062.99	85.5362	6,062.99	86.3982	6,062.99	84.2858	6,062.99	84.0478	6,062.99	82.8813	6,062.99	82.8949	6,062.99	76.2099	6,062.99	78.8261	6,062.99	75.1001	6,062.99	74.6856	6,062.99	71.2486	6,062.99	71.3392	6,062.99	63.5452	6,062.99	65.4068	6,062.99	56.1113	6,062.99	55.4632	6,062.99	47.2221	6,062.99	49.9661	6,062.99	43.116	6,062.99	54.8234	6,062.99	55.4217	6,062.99	59.2661	6,062.99	57.6053	6,062.99	47.4182	6,062.99	56.1244
6,276.86	89.3827	6,276.86	89.1247	6,276.86	89.307	6,276.86	88.2913	6,276.86	88.699	6,276.86	87.7764	6,276.86	88.0408	6,276.86	86.9452	6,276.86	87.641	6,276.86	85.6793	6,276.86	86.9362	6,276.86	85.2479	6,276.86	86.0772	6,276.86	84.4497	6,276.86	84.3068	6,276.86	81.8506	6,276.86	82.7835	6,276.86	75.6285	6,276.86	78.3675	6,276.86	74.1695	6,276.86	73.8241	6,276.86	70.7329	6,276.86	70.5119	6,276.86	63.2495	6,276.86	63.7458	6,276.86	59.8874	6,276.86	56.5076	6,276.86	52.5434	6,276.86	51.9157	6,276.86	51.5686	6,276.86	52.7633	6,276.86	57.9732	6,276.86	59.8035	6,276.86	56.2273	6,276.86	51.4872	6,276.86	57.7836
6,498.05	89.5255	6,498.05	89.2415	6,498.05	89.6384	6,498.05	87.8379	6,498.05	88.6461	6,498.05	87.8726	6,498.05	88.3828	6,498.05	86.7595	6,498.05	87.8656	6,498.05	85.3757	6,498.05	86.3588	6,498.05	85.326	6,498.05	85.8877	6,498.05	83.5387	6,498.05	83.7617	6,498.05	81.3043	6,498.05	82.315	6,498.05	75.7282	6,498.05	78.8023	6,498.05	72.6707	6,498.05	72.7942	6,498.05	69.7685	6,498.05	68.6121	6,498.05	59.7189	6,498.05	64.2891	6,498.05	60.0911	6,498.05	56.0412	6,498.05	53.7053	6,498.05	60.3254	6,498.05	55.5951	6,498.05	57.8892	6,498.05	60.0065	6,498.05	62.7515	6,498.05	56.8558	6,498.05	53.4684	6,498.05	59.3198
6,726.56	89.6868	6,726.56	88.9979	6,726.56	89.4114	6,726.56	87.6993	6,726.56	88.4535	6,726.56	87.8439	6,726.56	88.4907	6,726.56	86.4776	6,726.56	87.1989	6,726.56	85.2542	6,726.56	85.6904	6,726.56	84.637	6,726.56	85.1378	6,726.56	83.2844	6,726.56	83.1349	6,726.56	81.6584	6,726.56	83.0398	6,726.56	76.2961	6,726.56	78.9534	6,726.56	72.0237	6,726.56	73.4582	6,726.56	68.8294	6,726.56	69.8984	6,726.56	59.0703	6,726.56	63.0857	6,726.56	57.8309	6,726.56	53.5819	6,726.56	53.1804	6,726.56	62.0932	6,726.56	56.0287	6,726.56	57.9755	6,726.56	58.467	6,726.56	62.3633	6,726.56	53.0658	6,726.56	55.393	6,726.56	58.7875
6,963.87	89.5329	6,963.87	88.9039	6,963.87	89.2815	6,963.87	87.8638	6,963.87	88.1478	6,963.87	87.5527	6,963.87	88.0875	6,963.87	86.1761	6,963.87	86.4519	6,963.87	85.4857	6,963.87	85.2583	6,963.87	84.6625	6,963.87	84.6094	6,963.87	83.067	6,963.87	83.5018	6,963.87	79.2071	6,963.87	81.8312	6,963.87	74.5612	6,963.87	76.824	6,963.87	69.8941	6,963.87	73.0065	6,963.87	67.7785	6,963.87	67.9948	6,963.87	57.2238	6,963.87	61.0277	6,963.87	54.2537	6,963.87	40.1725	6,963.87	59.5955	6,963.87	63.6398	6,963.87	55.9451	6,963.87	53.0415	6,963.87	56.4348	6,963.87	61.653	6,963.87	53.8464	6,963.87	55.0682	6,963.87	56.6256
7,209.96	89.6323	7,209.96	89.0119	7,209.96	89.4229	7,209.96	88.3826	7,209.96	88.4233	7,209.96	87.2377	7,209.96	87.4774	7,209.96	86.1207	7,209.96	86.0654	7,209.96	85.7664	7,209.96	85.492	7,209.96	84.6756	7,209.96	84.4507	7,209.96	82.2268	7,209.96	82.7965	7,209.96	78.0173	7,209.96	81.5073	7,209.96	75.6951	7,209.96	77.0484	7,209.96	69.7436	7,209.96	73.7114	7,209.96	67.9883	7,209.96	67.9823	7,209.96	57.3005	7,209.96	57.378	7,209.96	53.1838	7,209.96	49.5214	7,209.96	58.1982	7,209.96	62.4426	7,209.96	55.0073	7,209.96	57.0176	7,209.96	56.3089	7,209.96	59.6363	7,209.96	53.6433	7,209.96	55.2108	7,209.96	57.0331
7,464.84	89.2768	7,464.84	89.1311	7,464.84	89.2576	7,464.84	88.6587	7,464.84	88.5454	7,464.84	86.7816	7,464.84	87.0994	7,464.84	86.1122	7,464.84	85.961	7,464.84	85.8136	7,464.84	85.6099	7,464.84	84.3108	7,464.84	83.9354	7,464.84	83.0433	7,464.84	83.1679	7,464.84	79.0644	7,464.84	82.1711	7,464.84	76.0815	7,464.84	76.7891	7,464.84	69.3977	7,464.84	73.6649	7,464.84	66.2438	7,464.84	67.1079	7,464.84	56.5799	7,464.84	53.6441	7,464.84	55.9019	7,464.84	47.7698	7,464.84	57.3217	7,464.84	62.9915	7,464.84	51.8118	7,464.84	54.809	7,464.84	52.2774	7,464.84	58.1096	7,464.84	52.8139	7,464.84	49.7935	7,464.84	54.7739
7,727.05	89.275	7,727.05	89.0899	7,727.05	89.1531	7,727.05	88.668	7,727.05	88.7493	7,727.05	86.448	7,727.05	86.66	7,727.05	86.1431	7,727.05	86.229	7,727.05	85.245	7,727.05	85.5905	7,727.05	84.9148	7,727.05	84.0742	7,727.05	83.0795	7,727.05	82.9328	7,727.05	78.5646	7,727.05	81.3148	7,727.05	75.0543	7,727.05	75.4743	7,727.05	67.4412	7,727.05	72.0583	7,727.05	64.6162	7,727.05	66.7077	7,727.05	55.5958	7,727.05	51.8605	7,727.05	56.9355	7,727.05	44.1728	7,727.05	55.3028	7,727.05	61.9649	7,727.05	48.4198	7,727.05	55.1138	7,727.05	53.1386	7,727.05	57.0066	7,727.05	42.6823	7,727.05	49.4835	7,727.05	54.7173
7,999.51	89.5548	7,999.51	89.5001	7,999.51	89.4924	7,999.51	88.7138	7,999.51	88.7931	7,999.51	86.6024	7,999.51	87.0852	7,999.51	85.6747	7,999.51	86.4776	7,999.51	84.761	7,999.51	85.3878	7,999.51	84.878	7,999.51	84.4857	7,999.51	82.5384	7,999.51	82.6057	7,999.51	79.2046	7,999.51	81.8198	7,999.51	75.0318	7,999.51	75.1858	7,999.51	67.2153	7,999.51	71.4939	7,999.51	62.9003	7,999.51	64.4635	7,999.51	54.168	7,999.51	49.141	7,999.51	57.6138	7,999.51	33.3805	7,999.51	53.2322	7,999.51	59.9207	7,999.51	51.1828	7,999.51	52.9651	7,999.51	57.1724	7,999.51	55.361	7,999.51	49.4868	7,999.51	48.9646	7,999.51	49.8824
8,282.23	89.6848	8,282.23	89.4285	8,282.23	89.6526	8,282.23	88.6262	8,282.23	88.5177	8,282.23	86.8977	8,282.23	87.2589	8,282.23	85.0714	8,282.23	86.2646	8,282.23	84.3368	8,282.23	85.4266	8,282.23	84.2669	8,282.23	84.3283	8,282.23	81.9718	8,282.23	82.2387	8,282.23	78.5933	8,282.23	80.9349	8,282.23	74.3062	8,282.23	74.3695	8,282.23	65.8293	8,282.23	71.0833	8,282.23	59.7622	8,282.23	61.0824	8,282.23	51.8823	8,282.23	52.4827	8,282.23	59.7801	8,282.23	43.1879	8,282.23	49.8862	8,282.23	56.691	8,282.23	47.0167	8,282.23	47.9639	8,282.23	54.4244	8,282.23	54.3256	8,282.23	49.762	8,282.23	43.5989	8,282.23	42.4706
8,573.73	89.8208	8,573.73	89.5176	8,573.73	89.483	8,573.73	88.8952	8,573.73	88.6973	8,573.73	87.1377	8,573.73	87.6859	8,573.73	85.1774	8,573.73	85.893	8,573.73	84.4366	8,573.73	85.0882	8,573.73	83.5254	8,573.73	83.9216	8,573.73	81.5027	8,573.73	81.6878	8,573.73	78.7081	8,573.73	80.9688	8,573.73	74.9918	8,573.73	74.8018	8,573.73	64.2711	8,573.73	71.4775	8,573.73	61.4688	8,573.73	59.2516	8,573.73	52.6401	8,573.73	54.5494	8,573.73	59.9957	8,573.73	51.4122	8,573.73	52.2466	8,573.73	55.1277	8,573.73	50.02	8,573.73	49.2007	8,573.73	52.9758	8,573.73	52.1706	8,573.73	47.8856	8,573.73	41.7065	8,573.73	41.1951
8,876.95	89.947	8,876.95	89.6153	8,876.95	89.6904	8,876.95	89.0568	8,876.95	88.9504	8,876.95	87.3315	8,876.95	87.8401	8,876.95	85.4602	8,876.95	85.619	8,876.95	84.2586	8,876.95	85.0023	8,876.95	83.0401	8,876.95	83.2706	8,876.95	81.9664	8,876.95	82.3721	8,876.95	79.0615	8,876.95	81.0831	8,876.95	74.8797	8,876.95	75.3042	8,876.95	63.9173	8,876.95	71.7599	8,876.95	61.8692	8,876.95	57.0077	8,876.95	55.19	8,876.95	57.0803	8,876.95	60.2106	8,876.95	50.4143	8,876.95	51.5393	8,876.95	46.852	8,876.95	49.088	8,876.95	51.2064	8,876.95	47.4784	8,876.95	52.5213	8,876.95	26.7274	8,876.95	42.2176	8,876.95	51.3774
9,188.96	90.1962	9,188.96	89.6785	9,188.96	89.8003	9,188.96	89.1708	9,188.96	89.1087	9,188.96	87.5248	9,188.96	88.0355	9,188.96	85.3389	9,188.96	85.3958	9,188.96	83.6833	9,188.96	84.2155	9,188.96	82.8393	9,188.96	82.5144	9,188.96	81.8443	9,188.96	82.4826	9,188.96	78.4848	9,188.96	80.2278	9,188.96	73.4695	9,188.96	74.4186	9,188.96	64.3319	9,188.96	70.3122	9,188.96	61.8775	9,188.96	53.2553	9,188.96	56.3076	9,188.96	56.5587	9,188.96	58.2398	9,188.96	52.5293	9,188.96	49.895	9,188.96	38.3404	9,188.96	48.2261	9,188.96	52.2998	9,188.96	31.5108	9,188.96	54.5987	9,188.96	44.2223	9,188.96	49.3617	9,188.96	51.4003
9,514.16	89.9688	9,514.16	89.5069	9,514.16	89.4939	9,514.16	89.1777	9,514.16	89.1831	9,514.16	87.4218	9,514.16	87.9353	9,514.16	84.6188	9,514.16	85.1909	9,514.16	83.5254	9,514.16	83.541	9,514.16	82.5288	9,514.16	82.0168	9,514.16	81.4268	9,514.16	81.7128	9,514.16	78.3106	9,514.16	80.0036	9,514.16	73.9945	9,514.16	74.5257	9,514.16	63.3177	9,514.16	70.0246	9,514.16	60.2282	9,514.16	49.199	9,514.16	56.2337	9,514.16	56.5054	9,514.16	57.516	9,514.16	53.0864	9,514.16	50.8851	9,514.16	41.5046	9,514.16	43.7611	9,514.16	52.286	9,514.16	43.6353	9,514.16	52.674	9,514.16	45.5185	9,514.16	50.308	9,514.16	44.9981
9,849.61	89.7325	9,849.61	89.6717	9,849.61	89.5535	9,849.61	89.0162	9,849.61	89.4622	9,849.61	86.7254	9,849.61	87.9232	9,849.61	83.6167	9,849.61	85.0663	9,849.61	83.4697	9,849.61	83.06	9,849.61	81.3059	9,849.61	81.3003	9,849.61	81.0973	9,849.61	81.5066	9,849.61	78.3182	9,849.61	80.3635	9,849.61	74.5956	9,849.61	75.0682	9,849.61	63.4602	9,849.61	69.7368	9,849.61	58.942	9,849.61	48.9198	9,849.61	56.3108	9,849.61	56.4494	9,849.61	54.9904	9,849.61	53.1645	9,849.61	49.5496	9,849.61	52.7597	9,849.61	34.2181	9,849.61	49.6251	9,849.61	46.5395	9,849.61	37.8427	9,849.61	46.2888	9,849.61	46.3994	9,849.61	49.4485
10,196.8	89.6358	10,196.8	89.5256	10,196.8	89.6108	10,196.8	88.9546	10,196.8	89.3873	10,196.8	86.1925	10,196.8	87.561	10,196.8	83.6314	10,196.8	84.7128	10,196.8	82.6015	10,196.8	82.4404	10,196.8	79.7517	10,196.8	80.9899	10,196.8	80.546	10,196.8	81.5902	10,196.8	77.9727	10,196.8	80.3506	10,196.8	74.092	10,196.8	74.9122	10,196.8	64.5356	10,196.8	69.2068	10,196.8	60.1248	10,196.8	52.4179	10,196.8	55.0137	10,196.8	56.0402	10,196.8	49.2732	10,196.8	51.8603	10,196.8	45.3957	10,196.8	55.2449	10,196.8	33.0993	10,196.8	44.1778	10,196.8	49.1276	10,196.8	45.6459	10,196.8	48.3579	10,196.8	37.8285	10,196.8	51.5921
10,555.7	89.6568	10,555.7	89.2791	10,555.7	89.7853	10,555.7	88.819	10,555.7	89.2595	10,555.7	86.0247	10,555.7	86.9475	10,555.7	83.7924	10,555.7	84.1256	10,555.7	81.2082	10,555.7	82.3533	10,555.7	79.843	10,555.7	81.7193	10,555.7	80.1965	10,555.7	81.2044	10,555.7	76.7223	10,555.7	79.2561	10,555.7	72.3926	10,555.7	72.3208	10,555.7	62.6593	10,555.7	67.6819	10,555.7	58.5474	10,555.7	52.9805	10,555.7	56.1201	10,555.7	52.6452	10,555.7	37.9807	10,555.7	51.9097	10,555.7	35.2671	10,555.7	53.9228	10,555.7	43.6456	10,555.7	39.6584	10,555.7	45.1597	10,555.7	49.1725	10,555.7	45.178	10,555.7	46.799	10,555.7	48.1097
10,927.7	89.629	10,927.7	88.9536	10,927.7	89.9218	10,927.7	88.554	10,927.7	88.6848	10,927.7	86.3871	10,927.7	85.8155	10,927.7	83.6067	10,927.7	83.8998	10,927.7	80.7665	10,927.7	83.1487	10,927.7	79.8834	10,927.7	81.9102	10,927.7	79.1144	10,927.7	79.4338	10,927.7	76.6771	10,927.7	77.9809	10,927.7	72.1561	10,927.7	72.0697	10,927.7	61.1518	10,927.7	64.6777	10,927.7	56.5856	10,927.7	54.3954	10,927.7	54.7626	10,927.7	39.4187	10,927.7	47.2687	10,927.7	51.045	10,927.7	27.5645	10,927.7	48.6099	10,927.7	44.752	10,927.7	42.4219	10,927.7	44.7219	10,927.7	47.8314	10,927.7	47.9568	10,927.7	43.2664	10,927.7	47.1736
11,313	89.423	11,313	88.3449	11,313	89.6926	11,313	88.2312	11,313	87.7393	11,313	86.2205	11,313	85.3458	11,313	83.388	11,313	84.5304	11,313	80.9342	11,313	83.6854	11,313	79.2417	11,313	80.8962	11,313	78.5525	11,313	78.9148	11,313	77.0053	11,313	77.4347	11,313	72.0875	11,313	71.8463	11,313	58.6884	11,313	63.4118	11,313	51.4828	11,313	53.5868	11,313	51.3167	11,313	38.6057	11,313	51.5799	11,313	52.2489	11,313	37.5826	11,313	44.2612	11,313	47.9139	11,313	39.9912	11,313	40.0465	11,313	44.0699	11,313	50.0737	11,313	44.6415	11,313	47.1757
11,712.9	89.2557	11,712.9	88.141	11,712.9	89.0812	11,712.9	87.7573	11,712.9	87.0717	11,712.9	86.3021	11,712.9	85.9803	11,712.9	84.2272	11,712.9	85.3806	11,712.9	81.0952	11,712.9	83.2386	11,712.9	79.6047	11,712.9	80.5354	11,712.9	78.9573	11,712.9	80.0108	11,712.9	77.0589	11,712.9	78.5333	11,712.9	72.1071	11,712.9	72.6703	11,712.9	59.9594	11,712.9	65.1802	11,712.9	50.241	11,712.9	58.0594	11,712.9	52.1796	11,712.9	36.1567	11,712.9	52.3443	11,712.9	53.0469	11,712.9	40.2792	11,712.9	49.7242	11,712.9	42.8794	11,712.9	36.9237	11,712.9	32.7732	11,712.9	47.5869	11,712.9	48.079	11,712.9	47.2248	11,712.9	51.9288
12,126	89.4835	12,126	88.0779	12,126	88.9433	12,126	87.7427	12,126	87.2641	12,126	86.7153	12,126	86.7037	12,126	84.8527	12,126	84.9766	12,126	81.3565	12,126	82.0794	12,126	80.7094	12,126	81.3468	12,126	79.0555	12,126	80.7764	12,126	76.8245	12,126	79.3895	12,126	71.9284	12,126	74.1133	12,126	60.3634	12,126	66.4935	12,126	49.2899	12,126	59.4969	12,126	51.7049	12,126	44.6353	12,126	49.5666	12,126	50.2011	12,126	41.9722	12,126	53.6092	12,126	40.8585	12,126	35.2165	12,126	46.6745	12,126	43.1218	12,126	47.6248	12,126	44.824	12,126	50.8733
12,553.7	89.5274	12,553.7	88.2345	12,553.7	88.9081	12,553.7	87.6526	12,553.7	87.9583	12,553.7	86.7353	12,553.7	86.8542	12,553.7	84.9085	12,553.7	84.0378	12,553.7	82.3337	12,553.7	82.299	12,553.7	80.8287	12,553.7	82.2843	12,553.7	78.8767	12,553.7	81.1601	12,553.7	77.9088	12,553.7	79.426	12,553.7	72.7092	12,553.7	75.0892	12,553.7	59.7841	12,553.7	67.1509	12,553.7	46.0484	12,553.7	58.3314	12,553.7	50.7275	12,553.7	52.8499	12,553.7	48.3011	12,553.7	43.4417	12,553.7	42.6012	12,553.7	52.8821	12,553.7	42.6679	12,553.7	44.8861	12,553.7	44.6791	12,553.7	42.9914	12,553.7	44.8567	12,553.7	42.3409	12,553.7	45.8948
12,996.1	89.5013	12,996.1	88.4078	12,996.1	88.925	12,996.1	87.3946	12,996.1	88.1686	12,996.1	86.2818	12,996.1	86.5402	12,996.1	84.5047	12,996.1	83.7888	12,996.1	82.7564	12,996.1	83.2075	12,996.1	80.7265	12,996.1	82.4285	12,996.1	78.8939	12,996.1	81.1169	12,996.1	77.5449	12,996.1	78.5309	12,996.1	71.8796	12,996.1	74.4731	12,996.1	61.0377	12,996.1	66.2043	12,996.1	48.909	12,996.1	57.1258	12,996.1	41.5234	12,996.1	54.3694	12,996.1	36.1766	12,996.1	39.209	12,996.1	28.2598	12,996.1	49.7527	12,996.1	37.1023	12,996.1	47.9241	12,996.1	39.1036	12,996.1	48.7407	12,996.1	42.8886	12,996.1	40.1316	12,996.1	42.6494
13,454.6	89.4113	13,454.6	88.3874	13,454.6	88.9191	13,454.6	87.2412	13,454.6	88.2035	13,454.6	85.7641	13,454.6	86.1628	13,454.6	84.4689	13,454.6	84.2082	13,454.6	82.7949	13,454.6	83.8152	13,454.6	80.4162	13,454.6	82.2147	13,454.6	78.3349	13,454.6	80.354	13,454.6	76.9464	13,454.6	77.7424	13,454.6	71.0182	13,454.6	74.2144	13,454.6	59.617	13,454.6	65.1542	13,454.6	48.2461	13,454.6	55.4452	13,454.6	38.2188	13,454.6	54.4075	13,454.6	31.3208	13,454.6	35.077	13,454.6	32.6168	13,454.6	46.4291	13,454.6	39.2483	13,454.6	47.0789	13,454.6	40.4952	13,454.6	46.9414	13,454.6	43.8977	13,454.6	42.6807	13,454.6	46.3971
13,929.2	89.1187	13,929.2	88.276	13,929.2	88.8388	13,929.2	87.0384	13,929.2	87.9159	13,929.2	85.3554	13,929.2	85.8214	13,929.2	84.3515	13,929.2	84.4321	13,929.2	82.6636	13,929.2	83.7595	13,929.2	80.043	13,929.2	81.8089	13,929.2	78.0601	13,929.2	80.0728	13,929.2	76.7223	13,929.2	77.788	13,929.2	71.1976	13,929.2	74.7321	13,929.2	60.5363	13,929.2	64.6082	13,929.2	46.1834	13,929.2	54.5652	13,929.2	34.8494	13,929.2	56.5341	13,929.2	33.8372	13,929.2	38.1023	13,929.2	40.65	13,929.2	42.4425	13,929.2	38.0412	13,929.2	39.857	13,929.2	40.1358	13,929.2	42.3418	13,929.2	41.2862	13,929.2	43.5031	13,929.2	40.3205
14,419.9	88.7846	14,419.9	88.0329	14,419.9	88.711	14,419.9	86.8054	14,419.9	87.6267	14,419.9	85.1369	14,419.9	85.7563	14,419.9	83.9705	14,419.9	84.4873	14,419.9	82.4151	14,419.9	83.4979	14,419.9	79.8331	14,419.9	81.4479	14,419.9	78.0261	14,419.9	80.4035	14,419.9	76.5564	14,419.9	77.7981	14,419.9	70.3443	14,419.9	74.0117	14,419.9	59.5711	14,419.9	64.0635	14,419.9	46.2049	14,419.9	55.7988	14,419.9	42.2455	14,419.9	57.4985	14,419.9	45.5276	14,419.9	46.5954	14,419.9	41.6198	14,419.9	44.5492	14,419.9	31.2029	14,419.9	21.4267	14,419.9	33.7127	14,419.9	35.5962	14,419.9	42.4167	14,419.9	38.8549	14,419.9	37.4811
14,928.2	88.7665	14,928.2	88.063	14,928.2	88.6893	14,928.2	87.0272	14,928.2	87.5691	14,928.2	85.2186	14,928.2	85.9308	14,928.2	84.069	14,928.2	84.5452	14,928.2	82.1648	14,928.2	83.1111	14,928.2	79.9556	14,928.2	81.1936	14,928.2	77.8855	14,928.2	80.3127	14,928.2	75.9738	14,928.2	77.3604	14,928.2	69.447	14,928.2	73.7607	14,928.2	60.8572	14,928.2	63.1974	14,928.2	50.2117	14,928.2	56.3652	14,928.2	45.7292	14,928.2	55.3547	14,928.2	47.7976	14,928.2	46.7568	14,928.2	37.4689	14,928.2	43.5658	14,928.2	35.5494	14,928.2	39.9214	14,928.2	37.6704	14,928.2	37.0326	14,928.2	41.2171	14,928.2	43.6525	14,928.2	41.5992
15,455.6	88.7311	15,455.6	88.1139	15,455.6	88.5828	15,455.6	87.4756	15,455.6	87.4442	15,455.6	85.7047	15,455.6	86.068	15,455.6	84.3987	15,455.6	84.1831	15,455.6	82.4967	15,455.6	82.5093	15,455.6	80.0587	15,455.6	80.5359	15,455.6	77.7671	15,455.6	79.9031	15,455.6	75.8503	15,455.6	76.6345	15,455.6	69.2886	15,455.6	73.393	15,455.6	60.7566	15,455.6	61.9268	15,455.6	51.1399	15,455.6	55.249	15,455.6	48.6716	15,455.6	52.3092	15,455.6	49.1851	15,455.6	45.2107	15,455.6	36.3166	15,455.6	32.8359	15,455.6	32.1476	15,455.6	43.0985	15,455.6	37.972	15,455.6	37.8449	15,455.6	40.6827	15,455.6	47.5511	15,455.6	43.5609
16,000.5	88.5147	16,000.5	87.9161	16,000.5	88.3683	16,000.5	87.5177	16,000.5	87.323	16,000.5	85.6312	16,000.5	85.7648	16,000.5	83.9768	16,000.5	83.7097	16,000.5	82.3271	16,000.5	81.9123	16,000.5	79.9902	16,000.5	80.0031	16,000.5	77.6799	16,000.5	79.3278	16,000.5	75.2524	16,000.5	75.4109	16,000.5	68.5192	16,000.5	71.9018	16,000.5	59.4394	16,000.5	60.2658	16,000.5	52.0849	16,000.5	53.5528	16,000.5	50.0232	16,000.5	48.2888	16,000.5	47.2976	16,000.5	47.3117	16,000.5	22.0419	16,000.5	31.5672	16,000.5	38.7954	16,000.5	43.1041	16,000.5	38.9488	16,000.5	24.6977	16,000.5	37.7886	16,000.5	47.0537	16,000.5	40.5181
16,564.5	88.1953	16,564.5	87.5757	16,564.5	88.0438	16,564.5	87.1515	16,564.5	87.0201	16,564.5	85.0775	16,564.5	85.4036	16,564.5	83.3928	16,564.5	83.352	16,564.5	81.7445	16,564.5	81.5329	16,564.5	79.1968	16,564.5	79.3848	16,564.5	76.4549	16,564.5	78.0089	16,564.5	73.9401	16,564.5	73.7038	16,564.5	67.3699	16,564.5	70.4498	16,564.5	58.5957	16,564.5	57.2582	16,564.5	53.1635	16,564.5	52.2196	16,564.5	50.0322	16,564.5	47.2086	16,564.5	46.8612	16,564.5	47.9939	16,564.5	35.1829	16,564.5	34.4854	16,564.5	37.7265	16,564.5	39.1036	16,564.5	38.4366	16,564.5	21.0134	16,564.5	40.0335	16,564.5	46.5216	16,564.5	44.2326
17,148.9	87.8413	17,148.9	87.0723	17,148.9	87.7171	17,148.9	86.6034	17,148.9	86.7719	17,148.9	84.3348	17,148.9	85.0536	17,148.9	82.3803	17,148.9	83.0496	17,148.9	80.2418	17,148.9	81.0068	17,148.9	77.552	17,148.9	78.3097	17,148.9	75.0709	17,148.9	76.3786	17,148.9	72.5589	17,148.9	72.1143	17,148.9	66.1951	17,148.9	68.8872	17,148.9	58.1946	17,148.9	54.5891	17,148.9	53.1421	17,148.9	50.5142	17,148.9	51.146	17,148.9	41.6038	17,148.9	44.8965	17,148.9	45.3213	17,148.9	35.5367	17,148.9	37.2051	17,148.9	32.9059	17,148.9	37.7856	17,148.9	37.9225	17,148.9	33.4555	17,148.9	39.1252	17,148.9	47.5647	17,148.9	42.622
17,752.4	87.5776	17,752.4	86.7505	17,752.4	87.4767	17,752.4	86.2892	17,752.4	86.6415	17,752.4	83.8513	17,752.4	84.9191	17,752.4	81.5214	17,752.4	82.7991	17,752.4	78.9019	17,752.4	80.3986	17,752.4	76.183	17,752.4	77.3063	17,752.4	73.9094	17,752.4	75.1337	17,752.4	70.6712	17,752.4	70.7607	17,752.4	64.1479	17,752.4	68.049	17,752.4	56.7953	17,752.4	52.117	17,752.4	52.7771	17,752.4	49.6402	17,752.4	50.2748	17,752.4	43.4276	17,752.4	44.1855	17,752.4	41.7903	17,752.4	31.4446	17,752.4	43.6029	17,752.4	34.9632	17,752.4	34.9071	17,752.4	39.3078	17,752.4	38.2456	17,752.4	32.5979	17,752.4	47.2322	17,752.4	43.6351
18,379.4	87.4754	18,379.4	86.7338	18,379.4	87.345	18,379.4	86.177	18,379.4	86.4283	18,379.4	83.5791	18,379.4	84.6471	18,379.4	81.1396	18,379.4	82.328	18,379.4	77.8521	18,379.4	79.5344	18,379.4	74.8317	18,379.4	76.0869	18,379.4	72.3873	18,379.4	74.0198	18,379.4	69.3229	18,379.4	69.8559	18,379.4	63.3742	18,379.4	66.8561	18,379.4	55.7148	18,379.4	49.6544	18,379.4	51.0598	18,379.4	48.7043	18,379.4	46.0265	18,379.4	39.8508	18,379.4	41.4708	18,379.4	33.4388	18,379.4	22.6358	18,379.4	43.434	18,379.4	31.205	18,379.4	23.7995	18,379.4	35.4679	18,379.4	38.8226	18,379.4	39.8009	18,379.4	47.8797	18,379.4	39.5585
19,026.9	87.3178	19,026.9	86.5863	19,026.9	87.1302	19,026.9	85.9139	19,026.9	86.0394	19,026.9	83.4063	19,026.9	83.986	19,026.9	80.5052	19,026.9	81.4407	19,026.9	76.9322	19,026.9	78.2939	19,026.9	73.7628	19,026.9	74.4816	19,026.9	70.9973	19,026.9	72.41	19,026.9	67.8419	19,026.9	67.7576	19,026.9	61.9121	19,026.9	64.7407	19,026.9	54.384	19,026.9	48.0174	19,026.9	48.2847	19,026.9	46.2156	19,026.9	38.959	19,026.9	35.3036	19,026.9	42.9463	19,026.9	21.6473	19,026.9	32.5109	19,026.9	36.9302	19,026.9	34.2823	19,026.9	36.0365	19,026.9	33.9029	19,026.9	41.7686	19,026.9	38.1409	19,026.9	48.2959	19,026.9	30.4931
19,697.8	86.9472	19,697.8	86.1566	19,697.8	86.6568	19,697.8	85.2825	19,697.8	85.3743	19,697.8	82.733	19,697.8	83.0308	19,697.8	79.5001	19,697.8	80.0679	19,697.8	75.8348	19,697.8	76.8355	19,697.8	72.5116	19,697.8	72.7876	19,697.8	68.9225	19,697.8	70.2431	19,697.8	65.9508	19,697.8	65.5324	19,697.8	59.9993	19,697.8	62.1816	19,697.8	51.4961	19,697.8	45.2567	19,697.8	44.6814	19,697.8	43.3574	19,697.8	31.2107	19,697.8	36.9399	19,697.8	42.9861	19,697.8	30.8728	19,697.8	37.5368	19,697.8	32.2481	19,697.8	36.6104	19,697.8	38.3044	19,697.8	31.2828	19,697.8	40.0613	19,697.8	34.7493	19,697.8	47.0991	19,697.8	40.5814
19,999.5	86.6646	19,999.5	85.9054	19,999.5	86.5625	19,999.5	84.9044	19,999.5	84.9505	19,999.5	82.3766	19,999.5	82.3963	19,999.5	78.7974	19,999.5	79.3293	19,999.5	75.0114	19,999.5	76.2671	19,999.5	71.6082	19,999.5	71.9381	19,999.5	68.2052	19,999.5	69.1973	19,999.5	65.5765	19,999.5	65.0229	19,999.5	57.3185	19,999.5	60.4616	19,999.5	50.0058	19,999.5	47.7041	19,999.5	44.9639	19,999.5	42.8825	19,999.5	43.7824	19,999.5	43.645	19,999.5	48.1154	19,999.5	40.3696	19,999.5	32.57	19,999.5	37.7169	19,999.5	45.6643	19,999.5	41.9188	19,999.5	47.0453	19,999.5	43.8281	19,999.5	32.3598	19,999.5	47.6067	19,999.5	50.7513
