"CEA2034"													
"On Axis"		"Listening Window"		"Early Reflections"		"Sound Power"		"Sound Power DI"		"Early Reflections DI"		"DI offset"	
"Frequency [Hz]"	"Sound Pessure Level [dB]  / [2.83V 1m] "	"Frequency [Hz]"	"Sound Pessure Level [dB]  / [2.83V 1m] "	"Frequency [Hz]"	"Sound Pessure Level [dB]  / [2.83V 1m] "	"Frequency [Hz]"	"Sound Pessure Level [dB]  / [2.83V 1m] "	"Frequency [Hz]"	"Sound Pessure Level [dB]  / [2.83V 1m] "	"Frequency [Hz]"	"Sound Pessure Level [dB]  / [2.83V 1m] "	"Frequency [Hz]"	"Sound Pessure Level [dB]  / [2.83V 1m] "
20.5078	62.1564	20.5078	62.1172	20.5078	61.7624	20.5078	61.144	20.5078	40.9526	20.5078	40.3342	20.5078	39.9794
23.4375	60.2222	23.4375	60.188	23.4375	59.9091	23.4375	59.6664	23.4375	40.501	23.4375	40.2583	23.4375	39.9794
26.3672	66.5187	26.3672	66.5236	26.3672	66.5316	26.3672	66.869	26.3672	39.634	26.3672	39.9714	26.3672	39.9794
29.2969	71.6785	29.2969	71.6803	29.2969	71.6539	29.2969	71.8477	29.2969	39.812	29.2969	40.0058	29.2969	39.9794
32.2266	73.9095	32.2266	73.9125	32.2266	73.9021	32.2266	74.1531	32.2266	39.7389	32.2266	39.9898	32.2266	39.9794
35.1563	76.0567	35.1563	76.0573	35.1563	76.0267	35.1563	76.2182	35.1563	39.8185	35.1563	40.01	35.1563	39.9794
38.0859	78.5835	38.0859	78.5805	38.0859	78.5256	38.0859	78.7137	38.0859	39.8462	38.0859	40.0343	38.0859	39.9794
41.0156	79.9385	41.0156	79.9347	41.0156	79.874	41.0156	80.0462	41.0156	39.8679	41.0156	40.0401	41.0156	39.9794
43.9453	81.0828	43.9453	81.0746	43.9453	80.9833	43.9453	81.0971	43.9453	39.957	43.9453	40.0708	43.9453	39.9794
46.875	82.0148	46.875	82.0088	46.875	81.9326	46.875	82.0732	46.875	39.9149	46.875	40.0556	46.875	39.9794
49.8047	82.9517	49.8047	82.9443	49.8047	82.8595	49.8047	82.9848	49.8047	39.9389	49.8047	40.0643	49.8047	39.9794
55.6641	84.4066	55.6641	84.3981	55.6641	84.3121	55.6641	84.4297	55.6641	39.9478	55.6641	40.0654	55.6641	39.9794
58.5938	85.3882	58.5938	85.3771	58.5938	85.275	58.5938	85.3939	58.5938	39.9627	58.5938	40.0815	58.5938	39.9794
61.5234	85.8308	61.5234	85.8188	61.5234	85.7108	61.5234	85.8199	61.5234	39.9783	61.5234	40.0874	61.5234	39.9794
67.3828	86.3449	67.3828	86.3311	67.3828	86.2149	67.3828	86.3166	67.3828	39.9939	67.3828	40.0957	67.3828	39.9794
73.2422	86.9064	73.2422	86.889	73.2422	86.7534	73.2422	86.8303	73.2422	40.038	73.2422	40.115	73.2422	39.9794
76.1719	87.1643	76.1719	87.1446	76.1719	86.9936	76.1719	87.0476	76.1719	40.0764	76.1719	40.1303	76.1719	39.9794
82.0313	87.4136	82.0313	87.3943	82.0313	87.2527	82.0313	87.3276	82.0313	40.0461	82.0313	40.121	82.0313	39.9794
87.8906	87.9134	87.8906	87.8882	87.8906	87.7067	87.8906	87.7274	87.8906	40.1401	87.8906	40.1608	87.8906	39.9794
93.75	87.8321	93.75	87.8051	93.75	87.6382	93.75	87.711	93.75	40.0734	93.75	40.1463	93.75	39.9794
102.539	87.6674	102.539	87.6268	102.539	87.3745	102.539	87.3392	102.539	40.267	102.539	40.2317	102.539	39.9794
108.398	87.8514	108.398	87.7995	108.398	87.4558	108.398	87.2715	108.398	40.5074	108.398	40.3231	108.398	39.9794
117.188	87.843	117.188	87.7893	117.188	87.4271	117.188	87.1728	117.188	40.5959	117.188	40.3416	117.188	39.9794
125.977	87.7664	125.977	87.7066	125.977	87.309	125.977	87.0056	125.977	40.6804	125.977	40.3769	125.977	39.9794
134.766	87.6066	134.766	87.5421	134.766	87.1301	134.766	86.8198	134.766	40.7017	134.766	40.3914	134.766	39.9794
143.555	87.3559	143.555	87.285	143.555	86.8257	143.555	86.4283	143.555	40.8361	143.555	40.4387	143.555	39.9794
155.273	87.0604	155.273	86.9707	155.273	86.3976	155.273	85.8641	155.273	41.086	155.273	40.5526	155.273	39.9794
164.063	87.6153	164.063	87.513	164.063	86.8189	164.063	86.0271	164.063	41.4653	164.063	40.6736	164.063	39.9794
175.781	87.5585	175.781	87.4645	175.781	86.791	175.781	85.9588	175.781	41.485	175.781	40.6529	175.781	39.9794
190.43	87.4724	190.43	87.3418	190.43	86.4559	190.43	85.2938	190.43	42.0274	190.43	40.8653	190.43	39.9794
202.148	87.7684	202.148	87.649	202.148	86.7486	202.148	85.3479	202.148	42.2805	202.148	40.8798	202.148	39.9794
216.797	86.8102	216.797	86.678	216.797	85.7399	216.797	84.2051	216.797	42.4524	216.797	40.9175	216.797	39.9794
234.375	87.4512	234.375	87.3079	234.375	86.2622	234.375	84.4798	234.375	42.8075	234.375	41.0251	234.375	39.9794
249.023	87.4701	249.023	87.3197	249.023	86.2036	249.023	84.2903	249.023	43.0088	249.023	41.0955	249.023	39.9794
266.602	88.5778	266.602	88.4325	266.602	87.2188	266.602	84.8189	266.602	43.5929	266.602	41.1931	266.602	39.9794
287.109	88.5249	287.109	88.3635	287.109	87.131	287.109	84.7694	287.109	43.5736	287.109	41.2119	287.109	39.9794
307.617	88.7654	307.617	88.5953	307.617	87.2806	307.617	84.7013	307.617	43.8735	307.617	41.2941	307.617	39.9794
331.055	88.4436	331.055	88.271	331.055	86.9756	331.055	84.4559	331.055	43.7945	331.055	41.2748	331.055	39.9794
354.492	88.6906	354.492	88.5058	354.492	87.1867	354.492	84.4977	354.492	43.9875	354.492	41.2984	354.492	39.9794
377.93	88.6411	377.93	88.4563	377.93	87.2571	377.93	84.7199	377.93	43.7158	377.93	41.1785	377.93	39.9794
407.227	88.1703	407.227	87.8737	407.227	86.3472	407.227	84.0044	407.227	43.8487	407.227	41.5059	407.227	39.9794
436.523	88.121	436.523	87.8187	436.523	86.058	436.523	83.5388	436.523	44.2593	436.523	41.7401	436.523	39.9794
465.82	88.6878	465.82	88.4044	465.82	86.8284	465.82	84.1715	465.82	44.2123	465.82	41.5554	465.82	39.9794
500.977	88.1919	500.977	87.9106	500.977	86.1385	500.977	83.4405	500.977	44.4495	500.977	41.7514	500.977	39.9794
536.133	88.8436	536.133	88.4768	536.133	86.5637	536.133	83.7207	536.133	44.7355	536.133	41.8925	536.133	39.9794
574.219	88.5075	574.219	88.152	574.219	86.3359	574.219	83.6578	574.219	44.4737	574.219	41.7955	574.219	39.9794
615.234	88.7053	615.234	88.3486	615.234	86.3809	615.234	83.4638	615.234	44.8642	615.234	41.9472	615.234	39.9794
659.18	89.1269	659.18	88.7523	659.18	86.6533	659.18	83.7283	659.18	45.0034	659.18	42.0784	659.18	39.9794
706.055	88.3769	706.055	88.0527	706.055	86.1961	706.055	83.319	706.055	44.7132	706.055	41.836	706.055	39.9794
758.789	88.2715	758.789	87.8882	758.789	85.846	758.789	83.0533	758.789	44.8143	758.789	42.0216	758.789	39.9794
811.523	88.4977	811.523	88.0588	811.523	86.035	811.523	83.3501	811.523	44.6881	811.523	42.0032	811.523	39.9794
870.117	88.8278	870.117	88.4489	870.117	86.5861	870.117	83.9085	870.117	44.5198	870.117	41.8422	870.117	39.9794
931.641	89.4076	931.641	88.9229	931.641	86.7488	931.641	83.8988	931.641	45.0035	931.641	42.1535	931.641	39.9794
999.023	89.3515	999.023	88.7772	999.023	86.4428	999.023	83.8658	999.023	44.8907	999.023	42.3137	999.023	39.9794
1,072.27	88.0245	1,072.27	87.5636	1,072.27	85.5577	1,072.27	83.3912	1,072.27	44.1519	1,072.27	41.9853	1,072.27	39.9794
1,148.44	87.8353	1,148.44	87.4804	1,148.44	85.5178	1,148.44	83.1429	1,148.44	44.317	1,148.44	41.942	1,148.44	39.9794
1,230.47	88.3878	1,230.47	88.0008	1,230.47	86.1197	1,230.47	83.4757	1,230.47	44.5045	1,230.47	41.8605	1,230.47	39.9794
1,318.36	88.1997	1,318.36	87.9075	1,318.36	86.0229	1,318.36	83.3351	1,318.36	44.5518	1,318.36	41.864	1,318.36	39.9794
1,415.04	86.632	1,415.04	86.7639	1,415.04	85.4429	1,415.04	82.805	1,415.04	43.9383	1,415.04	41.3004	1,415.04	39.9794
1,514.65	86.7534	1,514.65	87.1069	1,514.65	85.8822	1,514.65	83.0195	1,514.65	44.0669	1,514.65	41.2041	1,514.65	39.9794
1,623.05	86.5801	1,623.05	87.1437	1,623.05	85.862	1,623.05	82.7955	1,623.05	44.3276	1,623.05	41.2612	1,623.05	39.9794
1,740.23	86.0068	1,740.23	86.6366	1,740.23	85.0454	1,740.23	81.7848	1,740.23	44.8312	1,740.23	41.5706	1,740.23	39.9794
1,866.21	86.1529	1,866.21	86.7407	1,866.21	84.8136	1,866.21	81.2565	1,866.21	45.4636	1,866.21	41.9065	1,866.21	39.9794
2,000.98	86.2314	2,000.98	86.6118	2,000.98	84.2458	2,000.98	80.61	2,000.98	45.9812	2,000.98	42.3454	2,000.98	39.9794
2,144.53	87.22	2,144.53	87.4304	2,144.53	84.8099	2,144.53	81.01	2,144.53	46.3997	2,144.53	42.5998	2,144.53	39.9794
2,296.88	87.1537	2,296.88	87.3336	2,296.88	84.8508	2,296.88	81.2853	2,296.88	46.0277	2,296.88	42.4622	2,296.88	39.9794
2,460.94	88.1377	2,460.94	88.0896	2,460.94	85.792	2,460.94	82.2151	2,460.94	45.8539	2,460.94	42.277	2,460.94	39.9794
2,639.65	88.2269	2,639.65	87.8617	2,639.65	85.9413	2,639.65	82.5841	2,639.65	45.2569	2,639.65	41.8998	2,639.65	39.9794
2,827.15	88.4737	2,827.15	87.6619	2,827.15	86.1621	2,827.15	82.944	2,827.15	44.6974	2,827.15	41.4793	2,827.15	39.9794
3,032.23	88.1764	3,032.23	87.0285	3,032.23	85.8109	3,032.23	82.5257	3,032.23	44.4822	3,032.23	41.197	3,032.23	39.9794
3,249.02	87.0982	3,249.02	86.1964	3,249.02	85.1516	3,249.02	81.9771	3,249.02	44.1987	3,249.02	41.0241	3,249.02	39.9794
3,483.4	86.8435	3,483.4	86.0416	3,483.4	84.7636	3,483.4	81.4136	3,483.4	44.6074	3,483.4	41.2575	3,483.4	39.9794
3,732.42	86.4579	3,732.42	85.9109	3,732.42	84.4816	3,732.42	80.9055	3,732.42	44.9848	3,732.42	41.4086	3,732.42	39.9794
3,999.02	86.531	3,999.02	86.1091	3,999.02	84.4283	3,999.02	80.6126	3,999.02	45.4758	3,999.02	41.6601	3,999.02	39.9794
4,286.13	87.1989	4,286.13	86.6598	4,286.13	84.549	4,286.13	80.5813	4,286.13	46.0579	4,286.13	42.0901	4,286.13	39.9794
4,593.75	87.8209	4,593.75	86.9278	4,593.75	84.4888	4,593.75	80.4009	4,593.75	46.5063	4,593.75	42.4184	4,593.75	39.9794
4,924.8	88.0109	4,924.8	86.8455	4,924.8	84.1281	4,924.8	80.0461	4,924.8	46.7788	4,924.8	42.6968	4,924.8	39.9794
5,279.3	87.1497	5,279.3	86.3462	5,279.3	83.6574	5,279.3	79.6305	5,279.3	46.6951	5,279.3	42.6682	5,279.3	39.9794
5,657.23	86.9186	5,657.23	86.4702	5,657.23	83.7012	5,657.23	79.5473	5,657.23	46.9023	5,657.23	42.7485	5,657.23	39.9794
6,061.52	87.0338	6,061.52	86.7637	6,061.52	84.1016	6,061.52	79.8573	6,061.52	46.8858	6,061.52	42.6415	6,061.52	39.9794
6,498.05	86.5951	6,498.05	86.7119	6,498.05	84.2027	6,498.05	80.027	6,498.05	46.6643	6,498.05	42.4887	6,498.05	39.9794
6,963.87	85.8408	6,963.87	86.0193	6,963.87	83.722	6,963.87	79.6995	6,963.87	46.2992	6,963.87	42.2766	6,963.87	39.9794
7,464.84	85.6384	7,464.84	85.3289	7,464.84	83.0231	7,464.84	79.0646	7,464.84	46.2437	7,464.84	42.2853	7,464.84	39.9794
8,000.98	85.9637	8,000.98	85.6098	8,000.98	82.9336	8,000.98	78.8092	8,000.98	46.78	8,000.98	42.6556	8,000.98	39.9794
8,575.2	86.8667	8,575.2	86.201	8,575.2	83.2479	8,575.2	78.8403	8,575.2	47.3401	8,575.2	42.9325	8,575.2	39.9794
9,190.43	86.9233	9,190.43	86.165	9,190.43	83.1504	9,190.43	78.6932	9,190.43	47.4512	9,190.43	42.994	9,190.43	39.9794
9,849.61	87.0766	9,849.61	86.2684	9,849.61	83.0188	9,849.61	78.4753	9,849.61	47.7725	9,849.61	43.2291	9,849.61	39.9794
10,555.7	87.577	10,555.7	86.7224	10,555.7	83.2411	10,555.7	78.4801	10,555.7	48.2217	10,555.7	43.4607	10,555.7	39.9794
11,314.5	87.7765	11,314.5	86.6853	11,314.5	83.0788	11,314.5	78.2109	11,314.5	48.4538	11,314.5	43.5858	11,314.5	39.9794
12,126	87.5397	12,126	86.4067	12,126	82.6792	12,126	77.7664	12,126	48.6197	12,126	43.7069	12,126	39.9794
12,996.1	87.6492	12,996.1	86.4271	12,996.1	82.5166	12,996.1	77.4745	12,996.1	48.9321	12,996.1	43.8899	12,996.1	39.9794
13,927.7	87.54	13,927.7	86.1985	13,927.7	82.1835	13,927.7	77.0306	13,927.7	49.1472	13,927.7	43.9943	13,927.7	39.9794
14,929.7	87.6639	14,929.7	86.0587	14,929.7	82.0553	14,929.7	76.7798	14,929.7	49.2583	14,929.7	43.9827	14,929.7	39.9794
15,999	87.7454	15,999	85.9987	15,999	81.9141	15,999	76.5762	15,999	49.4019	15,999	44.064	15,999	39.9794
17,147.5	87.3813	17,147.5	85.8003	17,147.5	81.668	17,147.5	76.278	17,147.5	49.5017	17,147.5	44.1117	17,147.5	39.9794
18,377.9	86.6192	18,377.9	85.3682	18,377.9	81.0885	18,377.9	75.6115	18,377.9	49.7361	18,377.9	44.2591	18,377.9	39.9794
19,699.2	85.2411	19,699.2	84.3007	19,699.2	79.8128	19,699.2	74.281	19,699.2	49.9991	19,699.2	44.4673	19,699.2	39.9794
19,998	84.7363	19,998	84.0192	19,998	79.469	19,998	73.9531	19,998	50.0455	19,998	44.5296	19,998	39.9794
