"SPL Horizontal"																																																																							
"On-Axis"		"10°"		"-10°"		"20°"		"-20°"		"30°"		"-30°"		"40°"		"-40°"		"50°"		"-50°"		"60°"		"-60°"		"70°"		"-70°"		"80°"		"-80°"		"90°"		"-90°"		"100°"		"-100°"		"110°"		"-110°"		"120°"		"-120°"		"130°"		"-130°"		"140°"		"-140°"		"150°"		"-150°"		"160°"		"-160°"		"170°"		"-170°"		"180°"	
"Frequency [Hz]"	"Sound Pessure Level [dB]  / [2.83V 1m] "	"Frequency [Hz]"	"Sound Pessure Level [dB]  / [2.83V 1m] "	"Frequency [Hz]"	"Sound Pessure Level [dB]  / [2.83V 1m] "	"Frequency [Hz]"	"Sound Pessure Level [dB]  / [2.83V 1m] "	"Frequency [Hz]"	"Sound Pessure Level [dB]  / [2.83V 1m] "	"Frequency [Hz]"	"Sound Pessure Level [dB]  / [2.83V 1m] "	"Frequency [Hz]"	"Sound Pessure Level [dB]  / [2.83V 1m] "	"Frequency [Hz]"	"Sound Pessure Level [dB]  / [2.83V 1m] "	"Frequency [Hz]"	"Sound Pessure Level [dB]  / [2.83V 1m] "	"Frequency [Hz]"	"Sound Pessure Level [dB]  / [2.83V 1m] "	"Frequency [Hz]"	"Sound Pessure Level [dB]  / [2.83V 1m] "	"Frequency [Hz]"	"Sound Pessure Level [dB]  / [2.83V 1m] "	"Frequency [Hz]"	"Sound Pessure Level [dB]  / [2.83V 1m] "	"Frequency [Hz]"	"Sound Pessure Level [dB]  / [2.83V 1m] "	"Frequency [Hz]"	"Sound Pessure Level [dB]  / [2.83V 1m] "	"Frequency [Hz]"	"Sound Pessure Level [dB]  / [2.83V 1m] "	"Frequency [Hz]"	"Sound Pessure Level [dB]  / [2.83V 1m] "	"Frequency [Hz]"	"Sound Pessure Level [dB]  / [2.83V 1m] "	"Frequency [Hz]"	"Sound Pessure Level [dB]  / [2.83V 1m] "	"Frequency [Hz]"	"Sound Pessure Level [dB]  / [2.83V 1m] "	"Frequency [Hz]"	"Sound Pessure Level [dB]  / [2.83V 1m] "	"Frequency [Hz]"	"Sound Pessure Level [dB]  / [2.83V 1m] "	"Frequency [Hz]"	"Sound Pessure Level [dB]  / [2.83V 1m] "	"Frequency [Hz]"	"Sound Pessure Level [dB]  / [2.83V 1m] "	"Frequency [Hz]"	"Sound Pessure Level [dB]  / [2.83V 1m] "	"Frequency [Hz]"	"Sound Pessure Level [dB]  / [2.83V 1m] "	"Frequency [Hz]"	"Sound Pessure Level [dB]  / [2.83V 1m] "	"Frequency [Hz]"	"Sound Pessure Level [dB]  / [2.83V 1m] "	"Frequency [Hz]"	"Sound Pessure Level [dB]  / [2.83V 1m] "	"Frequency [Hz]"	"Sound Pessure Level [dB]  / [2.83V 1m] "	"Frequency [Hz]"	"Sound Pessure Level [dB]  / [2.83V 1m] "	"Frequency [Hz]"	"Sound Pessure Level [dB]  / [2.83V 1m] "	"Frequency [Hz]"	"Sound Pessure Level [dB]  / [2.83V 1m] "	"Frequency [Hz]"	"Sound Pessure Level [dB]  / [2.83V 1m] "	"Frequency [Hz]"	"Sound Pessure Level [dB]  / [2.83V 1m] "	"Frequency [Hz]"	"Sound Pessure Level [dB]  / [2.83V 1m] "
20.5078	62.1564	20.5078	62.1339	20.5078	62.1545	20.5078	62.087	20.5078	62.1279	20.5078	62.0158	20.5078	62.0763	20.5078	61.9204	20.5078	61.9995	20.5078	61.8006	20.5078	61.8975	20.5078	61.6567	20.5078	61.7708	20.5078	61.4893	20.5078	61.6201	20.5078	61.2999	20.5078	61.4468	20.5078	61.0912	20.5078	61.2531	20.5078	60.8675	20.5078	61.042	20.5078	60.6353	20.5078	60.818	20.5078	60.4029	20.5078	60.5873	20.5078	60.1808	20.5078	60.358	20.5078	59.9806	20.5078	60.1405	20.5078	59.8146	20.5078	59.9465	20.5078	59.6943	20.5078	59.7884	20.5078	59.6287	20.5078	59.6777	20.5078	59.623
23.4375	60.2222	23.4375	60.1896	23.4375	60.2325	23.4375	60.1351	23.4375	60.2203	23.4375	60.0592	23.4375	60.1859	23.4375	59.963	23.4375	60.13	23.4375	59.8481	23.4375	60.0537	23.4375	59.7165	23.4375	59.9586	23.4375	59.5711	23.4375	59.8469	23.4375	59.4158	23.4375	59.7211	23.4375	59.2553	23.4375	59.5846	23.4375	59.0955	23.4375	59.4408	23.4375	58.943	23.4375	59.2941	23.4375	58.8047	23.4375	59.1486	23.4375	58.6871	23.4375	59.0088	23.4375	58.5955	23.4375	58.879	23.4375	58.5335	23.4375	58.763	23.4375	58.5025	23.4375	58.6643	23.4375	58.5023	23.4375	58.5859	23.4375	58.531
26.3672	66.5187	26.3672	66.5089	26.3672	66.5281	26.3672	66.4992	26.3672	66.5365	26.3672	66.4901	26.3672	66.5438	26.3672	66.4821	26.3672	66.5497	26.3672	66.4756	26.3672	66.5544	26.3672	66.4709	26.3672	66.5579	26.3672	66.468	26.3672	66.5605	26.3672	66.4668	26.3672	66.5624	26.3672	66.4671	26.3672	66.5636	26.3672	66.4687	26.3672	66.5641	26.3672	66.4713	26.3672	66.5637	26.3672	66.4746	26.3672	66.562	26.3672	66.4787	26.3672	66.5587	26.3672	66.4837	26.3672	66.5534	26.3672	66.4898	26.3672	66.5462	26.3672	66.4974	26.3672	66.5372	26.3672	66.5064	26.3672	66.527	26.3672	66.5165
29.2969	71.6785	29.2969	71.6682	29.2969	71.6872	29.2969	71.6559	29.2969	71.6945	29.2969	71.6413	29.2969	71.7003	29.2969	71.624	29.2969	71.7042	29.2969	71.6037	29.2969	71.7059	29.2969	71.5806	29.2969	71.7046	29.2969	71.5549	29.2969	71.6996	29.2969	71.5275	29.2969	71.6902	29.2969	71.4995	29.2969	71.6758	29.2969	71.4723	29.2969	71.6563	29.2969	71.4474	29.2969	71.6318	29.2969	71.4262	29.2969	71.6029	29.2969	71.4099	29.2969	71.5707	29.2969	71.3993	29.2969	71.5368	29.2969	71.3949	29.2969	71.503	29.2969	71.3971	29.2969	71.4715	29.2969	71.4061	29.2969	71.4439	29.2969	71.4218
32.2266	73.9095	32.2266	73.9055	32.2266	73.9123	32.2266	73.9004	32.2266	73.9135	32.2266	73.8944	32.2266	73.9133	32.2266	73.8877	32.2266	73.9115	32.2266	73.8806	32.2266	73.9082	32.2266	73.8731	32.2266	73.9036	32.2266	73.8654	32.2266	73.8978	32.2266	73.8574	32.2266	73.8909	32.2266	73.8492	32.2266	73.883	32.2266	73.8406	32.2266	73.8741	32.2266	73.8317	32.2266	73.8644	32.2266	73.8229	32.2266	73.8539	32.2266	73.8144	32.2266	73.843	32.2266	73.8069	32.2266	73.8321	32.2266	73.8012	32.2266	73.8216	32.2266	73.7979	32.2266	73.8123	32.2266	73.7973	32.2266	73.8048	32.2266	73.7997
35.1563	76.0567	35.1563	76.0491	35.1563	76.0618	35.1563	76.0391	35.1563	76.0643	35.1563	76.0268	35.1563	76.0643	35.1563	76.0124	35.1563	76.0616	35.1563	75.9959	35.1563	76.0561	35.1563	75.9777	35.1563	76.0479	35.1563	75.9582	35.1563	76.0371	35.1563	75.9378	35.1563	76.0236	35.1563	75.9173	35.1563	76.0077	35.1563	75.8972	35.1563	75.9898	35.1563	75.8785	35.1563	75.9701	35.1563	75.862	35.1563	75.9494	35.1563	75.8484	35.1563	75.9283	35.1563	75.8385	35.1563	75.9075	35.1563	75.8329	35.1563	75.8877	35.1563	75.8317	35.1563	75.8699	35.1563	75.8351	35.1563	75.8547	35.1563	75.8429
38.0859	78.5835	38.0859	78.5744	38.0859	78.5871	38.0859	78.5601	38.0859	78.5854	38.0859	78.5406	38.0859	78.5785	38.0859	78.5163	38.0859	78.5665	38.0859	78.4877	38.0859	78.5497	38.0859	78.4554	38.0859	78.5285	38.0859	78.4203	38.0859	78.5035	38.0859	78.3835	38.0859	78.4751	38.0859	78.3461	38.0859	78.444	38.0859	78.3096	38.0859	78.4111	38.0859	78.2753	38.0859	78.3772	38.0859	78.2447	38.0859	78.3432	38.0859	78.2191	38.0859	78.31	38.0859	78.1995	38.0859	78.2786	38.0859	78.1866	38.0859	78.2501	38.0859	78.1809	38.0859	78.2253	38.0859	78.1824	38.0859	78.2052	38.0859	78.1907
41.0156	79.9385	41.0156	79.9316	41.0156	79.9395	41.0156	79.9189	41.0156	79.9347	41.0156	79.9006	41.0156	79.9243	41.0156	79.8771	41.0156	79.9086	41.0156	79.8487	41.0156	79.888	41.0156	79.8163	41.0156	79.8629	41.0156	79.7806	41.0156	79.834	41.0156	79.7428	41.0156	79.8022	41.0156	79.704	41.0156	79.7683	41.0156	79.6658	41.0156	79.7333	41.0156	79.6295	41.0156	79.6981	41.0156	79.5967	41.0156	79.6639	41.0156	79.5686	41.0156	79.6316	41.0156	79.5464	41.0156	79.6019	41.0156	79.5308	41.0156	79.5759	41.0156	79.5223	41.0156	79.5541	41.0156	79.5207	41.0156	79.5372	41.0156	79.5258
43.9453	81.0828	43.9453	81.0885	43.9453	81.0686	43.9453	81.0856	43.9453	81.0463	43.9453	81.0742	43.9453	81.0165	43.9453	81.0545	43.9453	80.9799	43.9453	81.0269	43.9453	80.9375	43.9453	80.9923	43.9453	80.8904	43.9453	80.9515	43.9453	80.8398	43.9453	80.9059	43.9453	80.7874	43.9453	80.8567	43.9453	80.7345	43.9453	80.8056	43.9453	80.683	43.9453	80.7541	43.9453	80.6346	43.9453	80.7038	43.9453	80.591	43.9453	80.6561	43.9453	80.5537	43.9453	80.6124	43.9453	80.5242	43.9453	80.5738	43.9453	80.5036	43.9453	80.5414	43.9453	80.4925	43.9453	80.5163	43.9453	80.4911	43.9453	80.4992
46.875	82.0148	46.875	82.0142	46.875	82.0082	46.875	82.0065	46.875	81.9943	46.875	81.9921	46.875	81.9733	46.875	81.9715	46.875	81.9458	46.875	81.9452	46.875	81.9121	46.875	81.9141	46.875	81.8734	46.875	81.879	46.875	81.8305	46.875	81.8408	46.875	81.7849	46.875	81.8007	46.875	81.738	46.875	81.7596	46.875	81.6916	46.875	81.7186	46.875	81.6474	46.875	81.6788	46.875	81.6072	46.875	81.6412	46.875	81.5727	46.875	81.6067	46.875	81.5451	46.875	81.5761	46.875	81.5256	46.875	81.5505	46.875	81.5145	46.875	81.5307	46.875	81.5119	46.875	81.5176
49.8047	82.9517	49.8047	82.949	49.8047	82.9464	49.8047	82.9384	49.8047	82.9331	49.8047	82.9204	49.8047	82.912	49.8047	82.8955	49.8047	82.8835	49.8047	82.8646	49.8047	82.8485	49.8047	82.8286	49.8047	82.8079	49.8047	82.7887	49.8047	82.7629	49.8047	82.7459	49.8047	82.7151	49.8047	82.7016	49.8047	82.666	49.8047	82.6572	49.8047	82.6174	49.8047	82.6138	49.8047	82.5712	49.8047	82.5727	49.8047	82.5291	49.8047	82.5349	49.8047	82.4926	49.8047	82.5014	49.8047	82.463	49.8047	82.4729	49.8047	82.4411	49.8047	82.45	49.8047	82.4273	49.8047	82.4335	49.8047	82.4217	49.8047	82.4239
55.6641	84.4066	55.6641	84.4063	55.6641	84.3981	55.6641	84.3976	55.6641	84.3806	55.6641	84.3812	55.6641	84.3545	55.6641	84.3579	55.6641	84.3205	55.6641	84.3289	55.6641	84.2794	55.6641	84.2955	55.6641	84.2326	55.6641	84.259	55.6641	84.1818	55.6641	84.2207	55.6641	84.129	55.6641	84.1818	55.6641	84.0764	55.6641	84.1433	55.6641	84.0263	55.6641	84.1059	55.6641	83.9808	55.6641	84.0701	55.6641	83.9422	55.6641	84.0361	55.6641	83.912	55.6641	84.004	55.6641	83.8913	55.6641	83.9739	55.6641	83.8806	55.6641	83.9463	55.6641	83.8794	55.6641	83.9217	55.6641	83.8868	55.6641	83.9014
58.5938	85.3882	58.5938	85.3771	58.5938	85.3885	58.5938	85.3559	58.5938	85.3777	58.5938	85.3255	58.5938	85.3562	58.5938	85.2873	58.5938	85.3245	58.5938	85.243	58.5938	85.2837	58.5938	85.1945	58.5938	85.2354	58.5938	85.1437	58.5938	85.1812	58.5938	85.0927	58.5938	85.1236	58.5938	85.0434	58.5938	85.0647	58.5938	84.9973	58.5938	85.0072	58.5938	84.9554	58.5938	84.9534	58.5938	84.9185	58.5938	84.9056	58.5938	84.8865	58.5938	84.8654	58.5938	84.8594	58.5938	84.834	58.5938	84.8369	58.5938	84.8119	58.5938	84.8188	58.5938	84.7989	58.5938	84.8052	58.5938	84.7942	58.5938	84.7967
61.5234	85.8308	61.5234	85.8183	61.5234	85.8319	61.5234	85.795	61.5234	85.8216	61.5234	85.7619	61.5234	85.8	61.5234	85.7203	61.5234	85.768	61.5234	85.6721	61.5234	85.7268	61.5234	85.6191	61.5234	85.6779	61.5234	85.5638	61.5234	85.6232	61.5234	85.5083	61.5234	85.565	61.5234	85.4548	61.5234	85.5057	61.5234	85.4052	61.5234	85.4477	61.5234	85.3607	61.5234	85.3934	61.5234	85.3223	61.5234	85.3447	61.5234	85.2902	61.5234	85.3032	61.5234	85.2644	61.5234	85.2699	61.5234	85.2445	61.5234	85.2451	61.5234	85.2301	61.5234	85.2286	61.5234	85.221	61.5234	85.2196	61.5234	85.2173
67.3828	86.3449	67.3828	86.3226	67.3828	86.3545	67.3828	86.2885	67.3828	86.3512	67.3828	86.2439	67.3828	86.3352	67.3828	86.1906	67.3828	86.3074	67.3828	86.131	67.3828	86.2689	67.3828	86.0677	67.3828	86.2214	67.3828	86.0035	67.3828	86.167	67.3828	85.9412	67.3828	86.1079	67.3828	85.8836	67.3828	86.0468	67.3828	85.8325	67.3828	85.9861	67.3828	85.7895	67.3828	85.9281	67.3828	85.7552	67.3828	85.8751	67.3828	85.7295	67.3828	85.8284	67.3828	85.7119	67.3828	85.7891	67.3828	85.7013	67.3828	85.7574	67.3828	85.6969	67.3828	85.7331	67.3828	85.6978	67.3828	85.7156	67.3828	85.704
73.2422	86.9064	73.2422	86.8772	73.2422	86.9205	73.2422	86.8335	73.2422	86.9197	73.2422	86.7767	73.2422	86.9046	73.2422	86.7086	73.2422	86.8766	73.2422	86.6322	73.2422	86.8374	73.2422	86.5508	73.2422	86.7893	73.2422	86.4684	73.2422	86.7347	73.2422	86.389	73.2422	86.6763	73.2422	86.3167	73.2422	86.6167	73.2422	86.2551	73.2422	86.558	73.2422	86.2068	73.2422	86.5022	73.2422	86.1734	73.2422	86.4505	73.2422	86.155	73.2422	86.4034	73.2422	86.1504	73.2422	86.3609	73.2422	86.1577	73.2422	86.3225	73.2422	86.1741	73.2422	86.2873	73.2422	86.1971	73.2422	86.2547	73.2422	86.2244
76.1719	87.1643	76.1719	87.1428	76.1719	87.1694	76.1719	87.1053	76.1719	87.1583	76.1719	87.0529	76.1719	87.1322	76.1719	86.9874	76.1719	87.0926	76.1719	86.9115	76.1719	87.0417	76.1719	86.8284	76.1719	86.9822	76.1719	86.7422	76.1719	86.9169	76.1719	86.6569	76.1719	86.849	76.1719	86.5769	76.1719	86.7814	76.1719	86.506	76.1719	86.7169	76.1719	86.4474	76.1719	86.6573	76.1719	86.4032	76.1719	86.604	76.1719	86.3741	76.1719	86.5574	76.1719	86.3593	76.1719	86.5173	76.1719	86.3572	76.1719	86.4826	76.1719	86.3651	76.1719	86.4521	76.1719	86.3805	76.1719	86.4251	76.1719	86.401
82.0313	87.4136	82.0313	87.3929	82.0313	87.4178	82.0313	87.3566	82.0313	87.4059	82.0313	87.3059	82.0313	87.3788	82.0313	87.2431	82.0313	87.338	82.0313	87.171	82.0313	87.286	82.0313	87.0932	82.0313	87.2256	82.0313	87.0136	82.0313	87.1601	82.0313	86.9364	82.0313	87.093	82.0313	86.8655	82.0313	87.0277	82.0313	86.8044	82.0313	86.9671	82.0313	86.7555	82.0313	86.9134	82.0313	86.7201	82.0313	86.8679	82.0313	86.6982	82.0313	86.8306	82.0313	86.6886	82.0313	86.8008	82.0313	86.6889	82.0313	86.7769	82.0313	86.6964	82.0313	86.757	82.0313	86.7086	82.0313	86.7395	82.0313	86.7233
87.8906	87.9134	87.8906	87.8908	87.8906	87.9159	87.8906	87.8487	87.8906	87.8984	87.8906	87.7887	87.8906	87.862	87.8906	87.7133	87.8906	87.8086	87.8906	87.6258	87.8906	87.7409	87.8906	87.5305	87.8906	87.6625	87.8906	87.432	87.8906	87.5776	87.8906	87.3358	87.8906	87.4906	87.8906	87.2468	87.8906	87.4061	87.8906	87.1698	87.8906	87.3284	87.8906	87.1082	87.8906	87.2605	87.8906	87.0637	87.8906	87.2046	87.8906	87.0363	87.8906	87.1609	87.8906	87.0241	87.8906	87.1283	87.8906	87.0238	87.8906	87.1045	87.8906	87.0316	87.8906	87.0865	87.8906	87.0436	87.8906	87.0714	87.8906	87.0573
93.75	87.8321	93.75	87.8206	93.75	87.8221	93.75	87.788	93.75	87.7912	93.75	87.736	93.75	87.7416	93.75	87.6676	93.75	87.6765	93.75	87.587	93.75	87.6003	93.75	87.4995	93.75	87.5184	93.75	87.411	93.75	87.4369	93.75	87.3282	93.75	87.3621	93.75	87.257	93.75	87.2996	93.75	87.2027	93.75	87.2534	93.75	87.1685	93.75	87.2257	93.75	87.1551	93.75	87.216	93.75	87.1603	93.75	87.2212	93.75	87.1799	93.75	87.2362	93.75	87.2076	93.75	87.2547	93.75	87.2365	93.75	87.2704	93.75	87.2605	93.75	87.2783	93.75	87.2752
102.539	87.6674	102.539	87.6502	102.539	87.6544	102.539	87.6043	102.539	87.6115	102.539	87.5325	102.539	87.5402	102.539	87.4389	102.539	87.4438	102.539	87.3295	102.539	87.3274	102.539	87.2113	102.539	87.1977	102.539	87.0921	102.539	87.0629	102.539	86.9804	102.539	86.9324	102.539	86.8837	102.539	86.8156	102.539	86.8083	102.539	86.7211	102.539	86.7574	102.539	86.655	102.539	86.7309	102.539	86.6199	102.539	86.7252	102.539	86.6137	102.539	86.7337	102.539	86.6309	102.539	86.7484	102.539	86.6628	102.539	86.761	102.539	86.6998	102.539	86.7648	102.539	86.7329	102.539	86.7556
108.398	87.8514	108.398	87.8204	108.398	87.8458	108.398	87.7537	108.398	87.8037	108.398	87.654	108.398	87.7268	108.398	87.5255	108.398	87.6182	108.398	87.3741	108.398	87.4828	108.398	87.2075	108.398	87.3271	108.398	87.0352	108.398	87.1593	108.398	86.8679	108.398	86.9893	108.398	86.7165	108.398	86.8275	108.398	86.5905	108.398	86.6842	108.398	86.4968	108.398	86.5681	108.398	86.4376	108.398	86.4843	108.398	86.4102	108.398	86.4338	108.398	86.4073	108.398	86.4127	108.398	86.419	108.398	86.4133	108.398	86.4348	108.398	86.4256	108.398	86.4462	108.398	86.4398	108.398	86.448
117.188	87.843	117.188	87.8179	117.188	87.8306	117.188	87.7569	117.188	87.7808	117.188	87.6624	117.188	87.6947	117.188	87.5387	117.188	87.5753	117.188	87.3911	117.188	87.4271	117.188	87.2268	117.188	87.2566	117.188	87.0542	117.188	87.0727	117.188	86.8829	117.188	86.8858	117.188	86.723	117.188	86.7078	117.188	86.5836	117.188	86.5505	117.188	86.4721	117.188	86.4238	117.188	86.392	117.188	86.3338	117.188	86.3428	117.188	86.2812	117.188	86.3195	117.188	86.2613	117.188	86.3139	117.188	86.265	117.188	86.3164	117.188	86.2814	117.188	86.3182	117.188	86.3	117.188	86.3133
125.977	87.7664	125.977	87.7137	125.977	87.7776	125.977	87.6212	125.977	87.7471	125.977	87.4925	125.977	87.6757	125.977	87.3326	125.977	87.566	125.977	87.1487	125.977	87.4221	125.977	86.9501	125.977	87.2498	125.977	86.7483	125.977	87.0571	125.977	86.5558	125.977	86.8541	125.977	86.3853	125.977	86.6527	125.977	86.2476	125.977	86.4658	125.977	86.149	125.977	86.3056	125.977	86.0905	125.977	86.1821	125.977	86.067	125.977	86.1	125.977	86.0684	125.977	86.058	125.977	86.0824	125.977	86.0489	125.977	86.097	125.977	86.0608	125.977	86.1033	125.977	86.0807	125.977	86.0973
134.766	87.6066	134.766	87.5687	134.766	87.6003	134.766	87.4872	134.766	87.5507	134.766	87.3644	134.766	87.4601	134.766	87.2041	134.766	87.3324	134.766	87.0128	134.766	87.1735	134.766	86.7993	134.766	86.9917	134.766	86.5758	134.766	86.7974	134.766	86.3574	134.766	86.6033	134.766	86.1611	134.766	86.4232	134.766	86.0036	134.766	86.2704	134.766	85.8976	134.766	86.1555	134.766	85.8485	134.766	86.0839	134.766	85.8525	134.766	86.0542	134.766	85.8968	134.766	86.058	134.766	85.9632	134.766	86.0816	134.766	86.0322	134.766	86.1091	134.766	86.0879	134.766	86.1254	134.766	86.1199
143.555	87.3559	143.555	87.3137	143.555	87.3499	143.555	87.2253	143.555	87.2956	143.555	87.0939	143.555	87.194	143.555	86.9245	143.555	87.048	143.555	86.7243	143.555	86.8625	143.555	86.5031	143.555	86.6451	143.555	86.2733	143.555	86.4062	143.555	86.0499	143.555	86.1599	143.555	85.8491	143.555	85.9232	143.555	85.6866	143.555	85.7147	143.555	85.5738	143.555	85.5518	143.555	85.515	143.555	85.4464	143.555	85.505	143.555	85.4021	143.555	85.5303	143.555	85.4116	143.555	85.5721	143.555	85.4587	143.555	85.6106	143.555	85.5223	143.555	85.6297	143.555	85.5816	143.555	85.6202
155.273	87.0604	155.273	87.0064	155.273	87.0546	155.273	86.8934	155.273	86.9899	155.273	86.724	155.273	86.8685	155.273	86.5032	155.273	86.6947	155.273	86.2388	155.273	86.4752	155.273	85.9425	155.273	86.2197	155.273	85.6308	155.273	85.9413	155.273	85.3248	155.273	85.6573	155.273	85.0491	155.273	85.3878	155.273	84.8286	155.273	85.1543	155.273	84.6824	155.273	84.9753	155.273	84.6181	155.273	84.8623	155.273	84.6286	155.273	84.8156	155.273	84.6931	155.273	84.8239	155.273	84.784	155.273	84.8666	155.273	84.8732	155.273	84.9191	155.273	84.9387	155.273	84.9585	155.273	84.9678
164.063	87.6153	164.063	87.5772	164.063	87.587	164.063	87.4742	164.063	87.4919	164.063	87.3088	164.063	87.3306	164.063	87.0848	164.063	87.1055	164.063	86.8084	164.063	86.8214	164.063	86.4886	164.063	86.4865	164.063	86.1383	164.063	86.1145	164.063	85.7762	164.063	85.725	164.063	85.4259	164.063	85.3449	164.063	85.1151	164.063	85.006	164.063	84.8706	164.063	84.7401	164.063	84.711	164.063	84.5697	164.063	84.6394	164.063	84.5	164.063	84.6412	164.063	84.5159	164.063	84.6883	164.063	84.5868	164.063	84.7471	164.063	84.6761	164.063	84.7881	164.063	84.7516	164.063	84.7917
175.781	87.5585	175.781	87.4759	175.781	87.5808	175.781	87.3339	175.781	87.5428	175.781	87.1343	175.781	87.4449	175.781	86.8804	175.781	87.2884	175.781	86.5779	175.781	87.0754	175.781	86.2361	175.781	86.8096	175.781	85.8694	175.781	86.4974	175.781	85.4982	175.781	86.1493	175.781	85.1496	175.781	85.7811	175.781	84.8535	175.781	85.4159	175.781	84.6369	175.781	85.0824	175.781	84.5145	175.781	84.8114	175.781	84.4821	175.781	84.627	175.781	84.5166	175.781	84.5373	175.781	84.5837	175.781	84.5297	175.781	84.6483	175.781	84.5744	175.781	84.6838	175.781	84.6346	175.781	84.6778
190.43	87.4724	190.43	87.4098	190.43	87.4528	190.43	87.2655	190.43	87.3509	190.43	87.0412	190.43	87.1674	190.43	86.7399	190.43	86.9043	190.43	86.3675	190.43	86.5656	190.43	85.9347	190.43	86.1595	190.43	85.4592	190.43	85.7003	190.43	84.9687	190.43	85.2117	190.43	84.5022	190.43	84.7291	190.43	84.107	190.43	84.2984	190.43	83.8288	190.43	83.9689	190.43	83.6953	190.43	83.7773	190.43	83.7022	190.43	83.7317	190.43	83.8133	190.43	83.8055	190.43	83.9738	190.43	83.9475	190.43	84.1285	190.43	84.1008	190.43	84.2344	190.43	84.2175	190.43	84.2662
202.148	87.7684	202.148	87.692	202.148	87.7715	202.148	87.5418	202.148	87.7011	202.148	87.3176	202.148	87.5569	202.148	87.02	202.148	87.3382	202.148	86.6508	202.148	87.0443	202.148	86.2154	202.148	86.6753	202.148	85.725	202.148	86.2341	202.148	85.1999	202.148	85.7296	202.148	84.6735	202.148	85.1809	202.148	84.1929	202.148	84.6228	202.148	83.8121	202.148	84.108	202.148	83.5748	202.148	83.6996	202.148	83.4926	202.148	83.4507	202.148	83.5358	202.148	83.3761	202.148	83.6457	202.148	83.4416	202.148	83.7579	202.148	83.5798	202.148	83.8216	202.148	83.72	202.148	83.8094
216.797	86.8102	216.797	86.7332	216.797	86.8053	216.797	86.5737	216.797	86.7202	216.797	86.3319	216.797	86.5575	216.797	86.009	216.797	86.3214	216.797	85.6078	216.797	86.0175	216.797	85.1341	216.797	85.6535	216.797	84.5989	216.797	85.2392	216.797	84.0223	216.797	84.7873	216.797	83.4383	216.797	84.315	216.797	82.8983	216.797	83.8457	216.797	82.4668	216.797	83.411	216.797	82.2024	216.797	83.0484	216.797	82.1289	216.797	82.7931	216.797	82.2161	216.797	82.6624	216.797	82.3927	216.797	82.6432	216.797	82.579	216.797	82.6927	216.797	82.7148	216.797	82.753	216.797	82.7713
234.375	87.4512	234.375	87.3936	234.375	87.4227	234.375	87.2519	234.375	87.3064	234.375	87.0279	234.375	87.1008	234.375	86.7235	234.375	86.8052	234.375	86.3408	234.375	86.4204	234.375	85.8829	234.375	85.9505	234.375	85.3568	234.375	85.4047	234.375	84.7775	234.375	84.8022	234.375	84.1745	234.375	84.1768	234.375	83.5979	234.375	83.581	234.375	83.1172	234.375	83.0838	234.375	82.8036	234.375	82.7537	234.375	82.6944	234.375	82.6279	234.375	82.7668	234.375	82.6881	234.375	82.9459	234.375	82.8667	234.375	83.1417	234.375	83.0772	234.375	83.2802	234.375	83.2441	234.375	83.3182
249.023	87.4701	249.023	87.3625	249.023	87.489	249.023	87.1644	249.023	87.4208	249.023	86.8742	249.023	87.2668	249.023	86.4908	249.023	87.0278	249.023	86.0147	249.023	86.7033	249.023	85.4505	249.023	86.2914	249.023	84.811	249.023	85.7902	249.023	84.1252	249.023	85.2011	249.023	83.4479	249.023	84.5363	249.023	82.8645	249.023	83.831	249.023	82.4757	249.023	83.1576	249.023	82.3508	249.023	82.6269	249.023	82.4771	249.023	82.3509	249.023	82.7615	249.023	82.3702	249.023	83.0826	249.023	82.615	249.023	83.339	249.023	82.9509	249.023	83.4667	249.023	83.2521	249.023	83.4368
266.602	88.5778	266.602	88.5256	266.602	88.5489	266.602	88.3892	266.602	88.44	266.602	88.1636	266.602	88.2503	266.602	87.8406	266.602	87.9769	266.602	87.4093	266.602	87.6137	266.602	86.8564	266.602	87.152	266.602	86.1696	266.602	86.5819	266.602	85.3447	266.602	85.8961	266.602	84.4005	266.602	85.0995	266.602	83.4037	266.602	84.2253	266.602	82.4965	266.602	83.3562	266.602	81.8829	266.602	82.6355	266.602	81.7117	266.602	82.223	266.602	81.938	266.602	82.1837	266.602	82.3601	266.602	82.4221	266.602	82.7742	266.602	82.7563	266.602	83.0528	266.602	83.0271	266.602	83.1391
287.109	88.5249	287.109	88.4586	287.109	88.4993	287.109	88.3022	287.109	88.3803	287.109	88.0571	287.109	88.1669	287.109	87.7231	287.109	87.8589	287.109	87.2972	287.109	87.4558	287.109	86.7736	287.109	86.9567	287.109	86.1452	287.109	86.3602	287.109	85.4077	287.109	85.6671	287.109	84.5711	287.109	84.8879	287.109	83.679	287.109	84.0559	287.109	82.8354	287.109	83.2467	287.109	82.209	287.109	82.5866	287.109	81.9587	287.109	82.2158	287.109	82.0976	287.109	82.1945	287.109	82.4665	287.109	82.4407	287.109	82.8589	287.109	82.7861	287.109	83.1274	287.109	83.0734	287.109	83.2018
307.617	88.7654	307.617	88.6554	307.617	88.7795	307.617	88.4496	307.617	88.6984	307.617	88.149	307.617	88.523	307.617	87.7549	307.617	88.253	307.617	87.2678	307.617	87.8849	307.617	86.6863	307.617	87.4108	307.617	86.0071	307.617	86.8179	307.617	85.229	307.617	86.0904	307.617	84.3617	307.617	85.2166	307.617	83.4452	307.617	84.2032	307.617	82.5758	307.617	83.105	307.617	81.9135	307.617	82.0676	307.617	81.6168	307.617	81.3367	307.617	81.7095	307.617	81.1251	307.617	82.0388	307.617	81.395	307.617	82.391	307.617	81.8842	307.617	82.6031	307.617	82.3323	307.617	82.5895
331.055	88.4436	331.055	88.4143	331.055	88.377	331.055	88.2915	331.055	88.2155	331.055	88.0787	331.055	87.9652	331.055	87.7767	331.055	87.6363	331.055	87.3792	331.055	87.2412	331.055	86.8699	331.055	86.7903	331.055	86.2212	331.055	86.2867	331.055	85.3991	331.055	85.7222	331.055	84.3743	331.055	85.0792	331.055	83.1516	331.055	84.3405	331.055	81.8323	331.055	83.5126	331.055	80.7045	331.055	82.6609	331.055	80.1944	331.055	81.9396	331.055	80.4496	331.055	81.549	331.055	81.1238	331.055	81.5736	331.055	81.7914	331.055	81.8732	331.055	82.2233	331.055	82.1987	331.055	82.3508
354.492	88.6906	354.492	88.5609	354.492	88.7122	354.492	88.3307	354.492	88.624	354.492	88.0134	354.492	88.4289	354.492	87.6249	354.492	88.132	354.492	87.1783	354.492	87.7365	354.492	86.6744	354.492	87.2401	354.492	86.0939	354.492	86.6303	354.492	85.3957	354.492	85.8825	354.492	84.5266	354.492	84.9611	354.492	83.4475	354.492	83.8313	354.492	82.1928	354.492	82.4939	354.492	80.9809	354.492	81.0711	354.492	80.2776	354.492	79.9416	354.492	80.4244	354.492	79.6409	354.492	81.1377	354.492	80.2234	354.492	81.8766	354.492	81.1461	354.492	82.3148	354.492	81.9228	354.492	82.3346
377.93	88.6411	377.93	88.5548	377.93	88.6171	377.93	88.3717	377.93	88.4819	377.93	88.114	377.93	88.2483	377.93	87.8059	377.93	87.9408	377.93	87.4624	377.93	87.5891	377.93	87.0776	377.93	87.2156	377.93	86.6168	377.93	86.8195	377.93	86.0185	377.93	86.3666	377.93	85.2039	377.93	85.7917	377.93	84.0917	377.93	85.0117	377.93	82.6273	377.93	83.9451	377.93	80.8677	377.93	82.5464	377.93	79.1967	377.93	80.8951	377.93	78.4277	377.93	79.3895	377.93	78.8585	377.93	78.7532	377.93	79.7126	377.93	79.16	377.93	80.2925	377.93	79.8992	377.93	80.3537
407.227	88.1703	407.227	88.0377	407.227	88.1214	407.227	87.7321	407.227	87.8942	407.227	87.2768	407.227	87.5043	407.227	86.7153	407.227	86.9832	407.227	86.1128	407.227	86.3827	407.227	85.5444	407.227	85.7739	407.227	85.0598	407.227	85.2271	407.227	84.6401	407.227	84.7695	407.227	84.1883	407.227	84.3486	407.227	83.5674	407.227	83.8431	407.227	82.6593	407.227	83.1172	407.227	81.4353	407.227	82.088	407.227	80.0813	407.227	80.819	407.227	79.1323	407.227	79.6597	407.227	79.0965	407.227	79.1787	407.227	79.6877	407.227	79.4977	407.227	80.2398	407.227	80.0715	407.227	80.3861
436.523	88.121	436.523	87.9496	436.523	88.1071	436.523	87.5909	436.523	87.9142	436.523	87.0488	436.523	87.5533	436.523	86.3374	436.523	87.0429	436.523	85.4889	436.523	86.4101	436.523	84.5629	436.523	85.6905	436.523	83.6456	436.523	84.9216	436.523	82.8255	436.523	84.1334	436.523	82.1453	436.523	83.3404	436.523	81.5731	436.523	82.5409	436.523	81.034	436.523	81.7262	436.523	80.478	436.523	80.8971	436.523	79.9327	436.523	80.0938	436.523	79.5032	436.523	79.4264	436.523	79.294	436.523	79.047	436.523	79.2929	436.523	79.0102	436.523	79.3563	436.523	79.1767	436.523	79.3311
465.82	88.6878	465.82	88.5478	465.82	88.648	465.82	88.2403	465.82	88.4256	465.82	87.787	465.82	88.0276	465.82	87.2201	465.82	87.4717	465.82	86.5805	465.82	86.7875	465.82	85.9106	465.82	86.0153	465.82	85.2371	465.82	85.1993	465.82	84.5486	465.82	84.3702	465.82	83.785	465.82	83.5241	465.82	82.8532	465.82	82.6149	465.82	81.6749	465.82	81.5817	465.82	80.2887	465.82	80.4209	465.82	79.0422	465.82	79.3041	465.82	78.6017	465.82	78.6483	465.82	79.1387	465.82	78.7928	465.82	79.9882	465.82	79.5007	465.82	80.5595	465.82	80.2374	465.82	80.6413
500.977	88.1919	500.977	88.0967	500.977	88.1181	500.977	87.8394	500.977	87.8747	500.977	87.4286	500.977	87.4693	500.977	86.8676	500.977	86.9177	500.977	86.1522	500.977	86.2418	500.977	85.2775	500.977	85.4677	500.977	84.2579	500.977	84.6254	500.977	83.1489	500.977	83.7497	500.977	82.0403	500.977	82.8743	500.977	80.9914	500.977	82.0049	500.977	79.9615	500.977	81.0871	500.977	78.8694	500.977	80.0273	500.977	77.8153	500.977	78.8157	500.977	77.2665	500.977	77.748	500.977	77.6141	500.977	77.4339	500.977	78.4554	500.977	78.0065	500.977	79.1157	500.977	78.8073	500.977	79.249
536.133	88.8436	536.133	88.6547	536.133	88.8004	536.133	88.2367	536.133	88.5266	536.133	87.5996	536.133	88.0296	536.133	86.7705	536.133	87.3282	536.133	85.8106	536.133	86.4623	536.133	84.8278	536.133	85.503	536.133	83.9515	536.133	84.5462	536.133	83.2417	536.133	83.6668	536.133	82.6025	536.133	82.849	536.133	81.8132	536.133	81.9674	536.133	80.6492	536.133	80.8524	536.133	79.0368	536.133	79.3992	536.133	77.3994	536.133	77.7657	536.133	76.9556	536.133	76.7331	536.133	78.0459	536.133	77.2154	536.133	79.4137	536.133	78.6108	536.133	80.267	536.133	79.8256	536.133	80.4103
574.219	88.5075	574.219	88.2955	574.219	88.4844	574.219	87.8699	574.219	88.22	574.219	87.2605	574.219	87.7259	574.219	86.4947	574.219	87.03	574.219	85.5938	574.219	86.1744	574.219	84.5933	574.219	85.2166	574.219	83.592	574.219	84.2401	574.219	82.7621	574.219	83.3578	574.219	82.2074	574.219	82.6569	574.219	81.7617	574.219	82.0799	574.219	81.0512	574.219	81.3907	574.219	79.7347	574.219	80.3082	574.219	77.7386	574.219	78.6973	574.219	75.8808	574.219	76.8738	574.219	75.9931	574.219	75.9958	574.219	77.4648	574.219	76.7561	574.219	78.5342	574.219	77.9939	574.219	78.6988
615.234	88.7053	615.234	88.5244	615.234	88.6633	615.234	88.1217	615.234	88.4041	615.234	87.5061	615.234	87.9391	615.234	86.6967	615.234	87.2817	615.234	85.723	615.234	86.445	615.234	84.6256	615.234	85.4445	615.234	83.46	615.234	84.3157	615.234	82.3112	615.234	83.1419	615.234	81.2878	615.234	82.0611	615.234	80.4213	615.234	81.1886	615.234	79.5245	615.234	80.4621	615.234	78.25	615.234	79.5996	615.234	76.4219	615.234	78.2719	615.234	74.8386	615.234	76.4683	615.234	75.3567	615.234	75.2988	615.234	77.1424	615.234	76.1859	615.234	78.3897	615.234	77.7627	615.234	78.605
659.18	89.1269	659.18	88.9192	659.18	89.1033	659.18	88.5013	659.18	88.8382	659.18	87.8976	659.18	88.3321	659.18	87.1184	659.18	87.5975	659.18	86.1459	659.18	86.6606	659.18	84.951	659.18	85.5673	659.18	83.5578	659.18	84.3909	659.18	82.144	659.18	83.2381	659.18	81.036	659.18	82.2242	659.18	80.3496	659.18	81.3794	659.18	79.6823	659.18	80.5546	659.18	78.4661	659.18	79.4699	659.18	76.4784	659.18	77.8698	659.18	74.7041	659.18	75.8157	659.18	75.3616	659.18	74.6252	659.18	77.3315	659.18	75.9341	659.18	78.6709	659.18	77.885	659.18	78.8852
706.055	88.3769	706.055	88.2379	706.055	88.3034	706.055	87.8802	706.055	88.0331	706.055	87.3095	706.055	87.5843	706.055	86.5387	706.055	86.9701	706.055	85.574	706.055	86.1869	706.055	84.4183	706.055	85.211	706.055	83.1218	706.055	84.0213	706.055	81.8669	706.055	82.6732	706.055	80.9378	706.055	81.4073	706.055	80.3843	706.055	80.5687	706.055	79.784	706.055	80.1107	706.055	78.5128	706.055	79.4506	706.055	75.972	706.055	77.9606	706.055	72.1201	706.055	75.282	706.055	71.7291	706.055	72.4289	706.055	75.0627	706.055	73.3063	706.055	76.9607	706.055	75.8186	706.055	77.1499
758.789	88.2715	758.789	88.031	758.789	88.2695	758.789	87.5585	758.789	88.0196	758.789	86.882	758.789	87.5147	758.789	86.0476	758.789	86.7502	758.789	85.098	758.789	85.7364	758.789	84.0427	758.789	84.5097	758.789	82.8599	758.789	83.1368	758.789	81.5619	758.789	81.7458	758.789	80.3147	758.789	80.5878	758.789	79.4249	758.789	79.905	758.789	78.8876	758.789	79.5161	758.789	78.1079	758.789	78.858	758.789	76.4261	758.789	77.4894	758.789	74.0217	758.789	75.4051	758.789	73.5714	758.789	73.6847	758.789	75.6017	758.789	74.3862	758.789	77.1448	758.789	76.2975	758.789	77.3841
811.523	88.4977	811.523	88.2622	811.523	88.4295	811.523	87.7524	811.523	88.062	811.523	87.021	811.523	87.4447	811.523	86.1287	811.523	86.6591	811.523	85.1016	811.523	85.7678	811.523	83.8886	811.523	84.7616	811.523	82.4031	811.523	83.5516	811.523	80.707	811.523	82.0188	811.523	79.2804	811.523	80.1749	811.523	78.7143	811.523	78.5487	811.523	78.6102	811.523	78.0725	811.523	77.9743	811.523	78.3324	811.523	76.082	811.523	77.9431	811.523	72.6959	811.523	75.9944	811.523	71.3952	811.523	72.2503	811.523	74.6607	811.523	71.5299	811.523	76.8409	811.523	75.1143	811.523	77.0144
870.117	88.8278	870.117	88.6701	870.117	88.7258	870.117	88.2268	870.117	88.3996	870.117	87.5018	870.117	87.8794	870.117	86.5494	870.117	87.1741	870.117	85.4647	870.117	86.2863	870.117	84.338	870.117	85.2457	870.117	83.2057	870.117	84.0751	870.117	81.9951	870.117	82.6961	870.117	80.5257	870.117	81.0086	870.117	78.8158	870.117	79.2877	870.117	77.5788	870.117	78.275	870.117	77.1719	870.117	77.8318	870.117	76.2477	870.117	76.9174	870.117	73.918	870.117	75.3634	870.117	73.2404	870.117	74.4919	870.117	75.9988	870.117	75.4047	870.117	77.8634	870.117	77.0613	870.117	78.1129
931.641	89.4076	931.641	89.1311	931.641	89.3576	931.641	88.544	931.641	88.9713	931.641	87.6723	931.641	88.2624	931.641	86.5941	931.641	87.2731	931.641	85.453	931.641	86.0924	931.641	84.3425	931.641	84.8871	931.641	83.1491	931.641	83.8057	931.641	81.6164	931.641	82.7334	931.641	79.6706	931.641	81.2983	931.641	78.0028	931.641	79.3702	931.641	77.7762	931.641	77.9029	931.641	78.0058	931.641	77.7997	931.641	76.6922	931.641	77.5303	931.641	71.9606	931.641	75.688	931.641	67.8989	931.641	71.9286	931.641	75.4244	931.641	71.7902	931.641	78.5317	931.641	76.3288	931.641	78.6935
999.023	89.3515	999.023	89.0674	999.023	89.228	999.023	88.4269	999.023	88.6794	999.023	87.4798	999.023	87.7638	999.023	86.315	999.023	86.6227	999.023	85.1369	999.023	85.4519	999.023	84.1428	999.023	84.4233	999.023	83.1841	999.023	83.5431	999.023	81.7797	999.023	82.5431	999.023	79.573	999.023	80.9953	999.023	77	999.023	78.6467	999.023	75.951	999.023	76.2737	999.023	76.4993	999.023	76.0485	999.023	76.1265	999.023	76.7494	999.023	73.3153	999.023	75.8566	999.023	71.0109	999.023	72.7128	999.023	75.7756	999.023	73.1356	999.023	78.8454	999.023	77.428	999.023	79.3562
1,072.27	88.0245	1,072.27	87.7542	1,072.27	87.93	1,072.27	87.1421	1,072.27	87.5112	1,072.27	86.2491	1,072.27	86.8436	1,072.27	85.1573	1,072.27	85.9533	1,072.27	84.0043	1,072.27	84.8117	1,072.27	83.001	1,072.27	83.5066	1,072.27	82.2282	1,072.27	82.402	1,072.27	81.4467	1,072.27	81.7332	1,072.27	80.244	1,072.27	80.991	1,072.27	78.2762	1,072.27	79.3235	1,072.27	76.1672	1,072.27	76.2602	1,072.27	76.0734	1,072.27	74.0154	1,072.27	76.4114	1,072.27	75.4284	1,072.27	74.222	1,072.27	75.6041	1,072.27	67.7372	1,072.27	72.0339	1,072.27	69.8717	1,072.27	66.7019	1,072.27	74.4518	1,072.27	72.7957	1,072.27	75.3034
1,148.44	87.8353	1,148.44	87.574	1,148.44	87.8187	1,148.44	87.0648	1,148.44	87.5161	1,148.44	86.3388	1,148.44	86.9163	1,148.44	85.3994	1,148.44	86.0258	1,148.44	84.2426	1,148.44	84.9451	1,148.44	82.9225	1,148.44	83.8023	1,148.44	81.6646	1,148.44	82.6124	1,148.44	80.6999	1,148.44	81.4317	1,148.44	79.7085	1,148.44	80.4988	1,148.44	77.8751	1,148.44	79.5518	1,148.44	74.8928	1,148.44	77.6228	1,148.44	74.4606	1,148.44	74.5451	1,148.44	76.1007	1,148.44	73.9627	1,148.44	74.2555	1,148.44	75.3471	1,148.44	64.1078	1,148.44	73.641	1,148.44	71.6953	1,148.44	67.0164	1,148.44	76.6201	1,148.44	73.0775	1,148.44	76.8954
1,230.47	88.3878	1,230.47	88.1909	1,230.47	88.3059	1,230.47	87.7949	1,230.47	87.9623	1,230.47	87.2416	1,230.47	87.48	1,230.47	86.5256	1,230.47	86.9081	1,230.47	85.6674	1,230.47	86.187	1,230.47	84.5513	1,230.47	85.278	1,230.47	82.9943	1,230.47	84.134	1,230.47	81.4379	1,230.47	82.7596	1,230.47	80.4161	1,230.47	81.5065	1,230.47	79.0685	1,230.47	80.5147	1,230.47	76.4078	1,230.47	78.8757	1,230.47	74.0581	1,230.47	75.9631	1,230.47	75.3674	1,230.47	74.4637	1,230.47	75.0383	1,230.47	76.0195	1,230.47	68.3088	1,230.47	74.9423	1,230.47	68.5495	1,230.47	68.0996	1,230.47	75.6656	1,230.47	71.0204	1,230.47	75.8933
1,318.36	88.1997	1,318.36	88.0275	1,318.36	88.1691	1,318.36	87.716	1,318.36	87.9127	1,318.36	87.2601	1,318.36	87.4869	1,318.36	86.6422	1,318.36	86.907	1,318.36	85.8684	1,318.36	86.1164	1,318.36	84.9199	1,318.36	85.1122	1,318.36	83.756	1,318.36	83.9221	1,318.36	82.3698	1,318.36	82.5615	1,318.36	81.1047	1,318.36	81.3146	1,318.36	80.0942	1,318.36	80.4758	1,318.36	78.029	1,318.36	79.1887	1,318.36	74.7832	1,318.36	76.3643	1,318.36	76.008	1,318.36	74.2714	1,318.36	77.0651	1,318.36	75.7022	1,318.36	73.1393	1,318.36	75.2533	1,318.36	66.7193	1,318.36	69.8784	1,318.36	73.855	1,318.36	71.8146	1,318.36	75.5818
1,415.04	86.632	1,415.04	86.6723	1,415.04	86.6354	1,415.04	86.7835	1,415.04	86.6603	1,415.04	86.7755	1,415.04	86.704	1,415.04	86.3668	1,415.04	86.583	1,415.04	85.4961	1,415.04	86.0916	1,415.04	84.3497	1,415.04	85.184	1,415.04	83.0655	1,415.04	83.9359	1,415.04	81.6012	1,415.04	82.3893	1,415.04	80.1236	1,415.04	80.5496	1,415.04	79.0271	1,415.04	79.0203	1,415.04	77.4899	1,415.04	78.3359	1,415.04	74.2843	1,415.04	76.5882	1,415.04	74.2373	1,415.04	72.842	1,415.04	76.3017	1,415.04	74.3055	1,415.04	73.2081	1,415.04	75.1742	1,415.04	66.7085	1,415.04	69.1158	1,415.04	74.3207	1,415.04	67.5481	1,415.04	74.7223
1,514.65	86.7534	1,514.65	87.0478	1,514.65	86.7805	1,514.65	87.436	1,514.65	87.1537	1,514.65	87.6656	1,514.65	87.5492	1,514.65	87.472	1,514.65	87.6275	1,514.65	86.6604	1,514.65	87.2016	1,514.65	85.2393	1,514.65	86.2565	1,514.65	83.5944	1,514.65	84.9562	1,514.65	81.9841	1,514.65	83.4885	1,514.65	80.19	1,514.65	81.8007	1,514.65	78.6911	1,514.65	79.9642	1,514.65	77.495	1,514.65	78.7041	1,514.65	74.6931	1,514.65	77.4818	1,514.65	73.8362	1,514.65	74.9032	1,514.65	76.1309	1,514.65	74.9006	1,514.65	73.9961	1,514.65	76.1574	1,514.65	63.211	1,514.65	72.9818	1,514.65	73.0553	1,514.65	67.5888	1,514.65	74.235
1,623.05	86.5801	1,623.05	86.9709	1,623.05	86.695	1,623.05	87.6114	1,623.05	87.2788	1,623.05	88.066	1,623.05	87.8693	1,623.05	87.9645	1,623.05	88.0043	1,623.05	87.2558	1,623.05	87.5157	1,623.05	85.9952	1,623.05	86.3902	1,623.05	84.3102	1,623.05	84.7721	1,623.05	82.6143	1,623.05	83.0469	1,623.05	80.8434	1,623.05	81.4316	1,623.05	78.8386	1,623.05	79.4789	1,623.05	77.7174	1,623.05	77.7116	1,623.05	75.7323	1,623.05	76.8671	1,623.05	72.6892	1,623.05	74.0389	1,623.05	76.009	1,623.05	73.5785	1,623.05	75.3693	1,623.05	76.1972	1,623.05	62.7417	1,623.05	72.3043	1,623.05	72.9157	1,623.05	64.8945	1,623.05	74.3034
1,740.23	86.0068	1,740.23	86.5508	1,740.23	86.1676	1,740.23	87.2716	1,740.23	86.8381	1,740.23	87.5984	1,740.23	87.4644	1,740.23	87.3036	1,740.23	87.5894	1,740.23	86.3593	1,740.23	87.0462	1,740.23	84.7622	1,740.23	85.892	1,740.23	82.6775	1,740.23	84.1145	1,740.23	80.8246	1,740.23	82.022	1,740.23	79.297	1,740.23	80.4078	1,740.23	77.19	1,740.23	78.7126	1,740.23	75.9552	1,740.23	76.2025	1,740.23	75.4212	1,740.23	75.5253	1,740.23	71.7445	1,740.23	74.3522	1,740.23	73.6105	1,740.23	70.473	1,740.23	74.5392	1,740.23	74.0772	1,740.23	65.5274	1,740.23	72.9956	1,740.23	69.8488	1,740.23	56.0056	1,740.23	71.3926
1,866.21	86.1529	1,866.21	86.69	1,866.21	86.3734	1,866.21	87.4141	1,866.21	87.0668	1,866.21	87.7565	1,866.21	87.5859	1,866.21	87.4555	1,866.21	87.589	1,866.21	86.5029	1,866.21	86.9212	1,866.21	85.0055	1,866.21	85.6034	1,866.21	82.8794	1,866.21	83.6595	1,866.21	80.5148	1,866.21	81.1574	1,866.21	78.9342	1,866.21	79.1957	1,866.21	77.2225	1,866.21	78.0831	1,866.21	74.8501	1,866.21	75.6443	1,866.21	74.7178	1,866.21	74.2635	1,866.21	72.7764	1,866.21	75.0229	1,866.21	70.3045	1,866.21	71.0023	1,866.21	72.2069	1,866.21	70.921	1,866.21	64.2158	1,866.21	71.7945	1,866.21	65.7218	1,866.21	56.0203	1,866.21	68.524
2,000.98	86.2314	2,000.98	86.7456	2,000.98	86.3477	2,000.98	87.3006	2,000.98	86.9201	2,000.98	87.3269	2,000.98	87.2866	2,000.98	86.6661	2,000.98	87.1036	2,000.98	85.387	2,000.98	86.2854	2,000.98	83.7006	2,000.98	84.878	2,000.98	81.6402	2,000.98	83.1719	2,000.98	79.1861	2,000.98	81.1514	2,000.98	77.0585	2,000.98	78.6363	2,000.98	75.4894	2,000.98	76.6221	2,000.98	73.5548	2,000.98	75.0222	2,000.98	73.3946	2,000.98	72.6583	2,000.98	73.2178	2,000.98	73.3408	2,000.98	71.5958	2,000.98	72.7355	2,000.98	72.3783	2,000.98	70.8931	2,000.98	66.7345	2,000.98	71.6233	2,000.98	64.8311	2,000.98	63.4595	2,000.98	64.8839
2,144.53	87.22	2,144.53	87.6409	2,144.53	87.2422	2,144.53	88.1574	2,144.53	87.6029	2,144.53	88.1182	2,144.53	87.8887	2,144.53	87.3984	2,144.53	87.4676	2,144.53	86.1703	2,144.53	86.4295	2,144.53	84.43	2,144.53	84.9336	2,144.53	82.3897	2,144.53	82.9568	2,144.53	80.4195	2,144.53	80.9531	2,144.53	78.3232	2,144.53	78.7325	2,144.53	76.2053	2,144.53	76.3978	2,144.53	74.4861	2,144.53	75.4304	2,144.53	73.7944	2,144.53	73.0542	2,144.53	73.7142	2,144.53	71.9173	2,144.53	70.6245	2,144.53	72.4392	2,144.53	72.365	2,144.53	70.8946	2,144.53	70.8663	2,144.53	72.7374	2,144.53	61.0556	2,144.53	64.9585	2,144.53	65.7968
2,296.88	87.1537	2,296.88	87.4792	2,296.88	87.2235	2,296.88	87.9242	2,296.88	87.5946	2,296.88	87.935	2,296.88	87.9334	2,296.88	87.131	2,296.88	87.7517	2,296.88	85.7672	2,296.88	86.7359	2,296.88	84.0361	2,296.88	85.3144	2,296.88	82.0103	2,296.88	83.5859	2,296.88	79.94	2,296.88	81.3629	2,296.88	77.9565	2,296.88	79.1381	2,296.88	76.0604	2,296.88	77.2604	2,296.88	74.4777	2,296.88	75.6024	2,296.88	73.5978	2,296.88	73.7363	2,296.88	73.5473	2,296.88	72.6478	2,296.88	71.3277	2,296.88	73.5286	2,296.88	73.064	2,296.88	70.7233	2,296.88	69.5317	2,296.88	73.1363	2,296.88	60.0438	2,296.88	68.8983	2,296.88	64.3854
2,460.94	88.1377	2,460.94	88.3443	2,460.94	88.0694	2,460.94	88.6188	2,460.94	88.1851	2,460.94	88.66	2,460.94	88.3966	2,460.94	88.0917	2,460.94	88.3205	2,460.94	87.0044	2,460.94	87.4473	2,460.94	85.6326	2,460.94	86.036	2,460.94	83.7791	2,460.94	84.4893	2,460.94	81.4373	2,460.94	82.3413	2,460.94	79.2831	2,460.94	79.9033	2,460.94	77.5535	2,460.94	77.8662	2,460.94	75.6915	2,460.94	75.3911	2,460.94	74.0319	2,460.94	74.4746	2,460.94	74.6477	2,460.94	73.4217	2,460.94	73.8151	2,460.94	73.6296	2,460.94	74.7478	2,460.94	71.8738	2,460.94	72.0462	2,460.94	73.1991	2,460.94	65.5967	2,460.94	69.1715	2,460.94	65.2288
2,639.65	88.2269	2,639.65	87.8375	2,639.65	88.2058	2,639.65	87.7845	2,639.65	87.9386	2,639.65	88.0146	2,639.65	87.9778	2,639.65	87.9982	2,639.65	88.0268	2,639.65	87.2658	2,639.65	87.6822	2,639.65	85.8748	2,639.65	86.686	2,639.65	83.9604	2,639.65	85.2482	2,639.65	81.5236	2,639.65	83.1861	2,639.65	79.2803	2,639.65	80.6273	2,639.65	77.4654	2,639.65	78.4856	2,639.65	75.1908	2,639.65	76.1981	2,639.65	74.509	2,639.65	75.083	2,639.65	74.7853	2,639.65	73.8309	2,639.65	74.7939	2,639.65	74.029	2,639.65	74.18	2,639.65	74.1682	2,639.65	73.2995	2,639.65	73.9315	2,639.65	66.069	2,639.65	70.0078	2,639.65	65.7514
2,827.15	88.4737	2,827.15	87.5392	2,827.15	88.2635	2,827.15	87.1651	2,827.15	87.2425	2,827.15	87.6983	2,827.15	87.056	2,827.15	88.1285	2,827.15	87.5688	2,827.15	87.7798	2,827.15	87.959	2,827.15	86.248	2,827.15	87.2882	2,827.15	84.2188	2,827.15	85.4336	2,827.15	81.8145	2,827.15	83.3552	2,827.15	79.2746	2,827.15	80.7323	2,827.15	77.4939	2,827.15	78.2115	2,827.15	75.3963	2,827.15	76.6595	2,827.15	74.8984	2,827.15	74.7645	2,827.15	74.0249	2,827.15	74.5355	2,827.15	74.9704	2,827.15	73.8982	2,827.15	72.379	2,827.15	74.9483	2,827.15	73.8736	2,827.15	73.6093	2,827.15	61.9392	2,827.15	71.9751	2,827.15	65.1183
3,032.23	88.1764	3,032.23	86.7887	3,032.23	87.7607	3,032.23	85.7935	3,032.23	86.166	3,032.23	86.5561	3,032.23	85.9985	3,032.23	87.3176	3,032.23	87.0899	3,032.23	87.2416	3,032.23	87.5138	3,032.23	85.6048	3,032.23	86.668	3,032.23	83.0914	3,032.23	84.7726	3,032.23	80.5323	3,032.23	82.5446	3,032.23	77.7581	3,032.23	79.6185	3,032.23	75.843	3,032.23	76.7831	3,032.23	74.4003	3,032.23	75.5722	3,032.23	74.1195	3,032.23	73.5789	3,032.23	73.8685	3,032.23	73.5862	3,032.23	74.7079	3,032.23	72.9146	3,032.23	71.3071	3,032.23	74.2498	3,032.23	73.6481	3,032.23	71.7698	3,032.23	60.1311	3,032.23	72.0739	3,032.23	63.3463
3,249.02	87.0982	3,249.02	85.7765	3,249.02	86.7501	3,249.02	84.7746	3,249.02	85.2377	3,249.02	85.7866	3,249.02	84.8271	3,249.02	86.5426	3,249.02	86.0618	3,249.02	86.0662	3,249.02	86.5188	3,249.02	84.3507	3,249.02	85.5856	3,249.02	81.9333	3,249.02	83.5353	3,249.02	79.4002	3,249.02	80.7085	3,249.02	76.5662	3,249.02	78.2555	3,249.02	74.3278	3,249.02	75.479	3,249.02	72.843	3,249.02	73.8492	3,249.02	72.1885	3,249.02	71.9317	3,249.02	72.0621	3,249.02	71.763	3,249.02	73.6655	3,249.02	71.4861	3,249.02	71.2755	3,249.02	73.4407	3,249.02	72.2448	3,249.02	70.7058	3,249.02	57.9789	3,249.02	71.6397	3,249.02	59.6689
3,483.4	86.8435	3,483.4	85.8271	3,483.4	86.5373	3,483.4	84.7819	3,483.4	85.5461	3,483.4	85.093	3,483.4	84.932	3,483.4	85.7484	3,483.4	85.5489	3,483.4	85.2575	3,483.4	85.5609	3,483.4	83.4687	3,483.4	84.4225	3,483.4	81.4295	3,483.4	82.7317	3,483.4	79.1394	3,483.4	80.3021	3,483.4	76.4108	3,483.4	77.7142	3,483.4	73.4293	3,483.4	75.0042	3,483.4	71.4671	3,483.4	72.8302	3,483.4	70.2667	3,483.4	70.5975	3,483.4	71.2368	3,483.4	70.6836	3,483.4	72.4618	3,483.4	70.414	3,483.4	71.4248	3,483.4	72.3929	3,483.4	71.0936	3,483.4	70.2398	3,483.4	57.4349	3,483.4	71.6412	3,483.4	54.8098
3,732.42	86.4579	3,732.42	86.3051	3,732.42	86.2608	3,732.42	85.5054	3,732.42	85.9742	3,732.42	84.6371	3,732.42	84.9931	3,732.42	84.9658	3,732.42	84.6598	3,732.42	84.6409	3,732.42	84.9471	3,732.42	83.7294	3,732.42	84.1653	3,732.42	81.8187	3,732.42	82.7298	3,732.42	79.4576	3,732.42	80.8663	3,732.42	76.5056	3,732.42	77.9329	3,732.42	73.0648	3,732.42	75.2087	3,732.42	71.6467	3,732.42	72.3613	3,732.42	69.8845	3,732.42	70.9365	3,732.42	71.1887	3,732.42	69.9605	3,732.42	71.3731	3,732.42	69.9739	3,732.42	70.8776	3,732.42	71.3708	3,732.42	70.4337	3,732.42	69.2583	3,732.42	55.7028	3,732.42	70.1605	3,732.42	56.9936
3,999.02	86.531	3,999.02	87.1766	3,999.02	86.7165	3,999.02	86.0588	3,999.02	86.9569	3,999.02	84.0914	3,999.02	85.2727	3,999.02	84.3244	3,999.02	83.9426	3,999.02	85.0948	3,999.02	84.7533	3,999.02	84.192	3,999.02	84.8373	3,999.02	81.9347	3,999.02	83.3634	3,999.02	79.2021	3,999.02	80.6743	3,999.02	76.2118	3,999.02	77.9604	3,999.02	73.1897	3,999.02	74.9206	3,999.02	70.7429	3,999.02	72.3396	3,999.02	69.9897	3,999.02	70.4576	3,999.02	70.7742	3,999.02	69.4079	3,999.02	70.4941	3,999.02	70.3099	3,999.02	70.8992	3,999.02	70.6743	3,999.02	68.7832	3,999.02	68.3637	3,999.02	53.0147	3,999.02	68.8576	3,999.02	56.6286
4,286.13	87.1989	4,286.13	87.9133	4,286.13	87.652	4,286.13	86.7372	4,286.13	87.8031	4,286.13	84.3398	4,286.13	85.5703	4,286.13	84.5417	4,286.13	84.1326	4,286.13	85.2274	4,286.13	84.7441	4,286.13	84.0593	4,286.13	84.8562	4,286.13	81.4701	4,286.13	83.1284	4,286.13	78.4104	4,286.13	80.489	4,286.13	75.1443	4,286.13	77.4985	4,286.13	72.3719	4,286.13	74.6036	4,286.13	68.9998	4,286.13	71.7007	4,286.13	68.9829	4,286.13	68.6769	4,286.13	69.4711	4,286.13	69.4363	4,286.13	70.4497	4,286.13	70.1618	4,286.13	70.4255	4,286.13	70.5175	4,286.13	67.8711	4,286.13	68.861	4,286.13	54.4022	4,286.13	67.3673	4,286.13	58.9052
4,593.75	87.8209	4,593.75	88.0035	4,593.75	87.9529	4,593.75	86.6146	4,593.75	87.8374	4,593.75	84.4735	4,593.75	85.9023	4,593.75	84.291	4,593.75	83.9997	4,593.75	84.525	4,593.75	84.57	4,593.75	83.3495	4,593.75	84.3005	4,593.75	80.8729	4,593.75	82.5307	4,593.75	78.4216	4,593.75	79.7263	4,593.75	75.0966	4,593.75	77.0029	4,593.75	72.558	4,593.75	73.8284	4,593.75	69.7927	4,593.75	71.3276	4,593.75	68.6956	4,593.75	68.8558	4,593.75	68.8382	4,593.75	69.0467	4,593.75	70.3452	4,593.75	69.1769	4,593.75	70.3938	4,593.75	69.8951	4,593.75	65.0261	4,593.75	69.273	4,593.75	45.4444	4,593.75	65.2756	4,593.75	60.0031
4,924.8	88.0109	4,924.8	87.4147	4,924.8	87.7978	4,924.8	86.6773	4,924.8	86.9965	4,924.8	84.6288	4,924.8	85.8911	4,924.8	83.0791	4,924.8	83.8708	4,924.8	83.4389	4,924.8	83.2899	4,924.8	82.9756	4,924.8	83.3172	4,924.8	81.2067	4,924.8	82.5564	4,924.8	77.6793	4,924.8	80.3002	4,924.8	75.1434	4,924.8	76.9651	4,924.8	71.5081	4,924.8	74.0247	4,924.8	69.594	4,924.8	71.268	4,924.8	67.0671	4,924.8	68.9962	4,924.8	67.7089	4,924.8	67.4677	4,924.8	70.4124	4,924.8	68.3904	4,924.8	70.0978	4,924.8	69.6403	4,924.8	62.5133	4,924.8	69.0998	4,924.8	37.8122	4,924.8	62.1973	4,924.8	57.2297
5,279.3	87.1497	5,279.3	85.9498	5,279.3	86.7318	5,279.3	86.2892	5,279.3	86.0655	5,279.3	84.7884	5,279.3	86.1527	5,279.3	82.6551	5,279.3	83.71	5,279.3	83.1973	5,279.3	82.9057	5,279.3	82.9919	5,279.3	83.5383	5,279.3	80.8497	5,279.3	82.5544	5,279.3	78.0211	5,279.3	79.9943	5,279.3	74.5559	5,279.3	76.5412	5,279.3	71.1108	5,279.3	73.3659	5,279.3	68.6185	5,279.3	69.5161	5,279.3	65.3773	5,279.3	68.6201	5,279.3	67.4131	5,279.3	65.8208	5,279.3	70.0046	5,279.3	67.2936	5,279.3	68.3499	5,279.3	69.4962	5,279.3	59.6527	5,279.3	68.2488	5,279.3	54.8085	5,279.3	60.6105	5,279.3	59.5001
5,657.23	86.9186	5,657.23	86.278	5,657.23	86.4048	5,657.23	86.8383	5,657.23	86.3123	5,657.23	85.8739	5,657.23	86.5234	5,657.23	83.7293	5,657.23	84.7879	5,657.23	83.3042	5,657.23	83.4479	5,657.23	82.0815	5,657.23	83.1659	5,657.23	79.5451	5,657.23	81.5855	5,657.23	76.3309	5,657.23	78.5217	5,657.23	72.2154	5,657.23	75.0692	5,657.23	69.3569	5,657.23	71.5417	5,657.23	65.0888	5,657.23	67.2189	5,657.23	62.5452	5,657.23	66.1495	5,657.23	65.5857	5,657.23	64.0902	5,657.23	67.805	5,657.23	65.4919	5,657.23	67.6685	5,657.23	68.1577	5,657.23	54.704	5,657.23	66.8841	5,657.23	45.2075	5,657.23	55.1283	5,657.23	58.819
6,061.52	87.0338	6,061.52	87.1858	6,061.52	86.82	6,061.52	87.2434	6,061.52	86.8164	6,061.52	86.7407	6,061.52	86.7697	6,061.52	84.6799	6,061.52	85.8646	6,061.52	83.0547	6,061.52	83.4347	6,061.52	82.1012	6,061.52	82.6105	6,061.52	79.5979	6,061.52	81.3206	6,061.52	76.5652	6,061.52	78.8031	6,061.52	72.5294	6,061.52	75.0396	6,061.52	69.031	6,061.52	71.6608	6,061.52	65.185	6,061.52	67.968	6,061.52	60.7143	6,061.52	66.3155	6,061.52	65.4785	6,061.52	58.4813	6,061.52	66.7688	6,061.52	64.1135	6,061.52	66.195	6,061.52	67.4528	6,061.52	51.2503	6,061.52	65.4081	6,061.52	50.8778	6,061.52	55.021	6,061.52	57.444
6,498.05	86.5951	6,498.05	87.3472	6,498.05	86.933	6,498.05	86.7869	6,498.05	86.7358	6,498.05	86.7189	6,498.05	86.9597	6,498.05	84.127	6,498.05	85.8841	6,498.05	82.8219	6,498.05	83.4416	6,498.05	82.3912	6,498.05	83.0475	6,498.05	80.0319	6,498.05	82.082	6,498.05	77.0734	6,498.05	78.8591	6,498.05	73.3715	6,498.05	76.0952	6,498.05	69.8285	6,498.05	71.4325	6,498.05	65.1135	6,498.05	68.9533	6,498.05	61.2654	6,498.05	63.7044	6,498.05	63.4606	6,498.05	63.3208	6,498.05	67.1593	6,498.05	65.5661	6,498.05	64.1573	6,498.05	67.3723	6,498.05	45.3901	6,498.05	64.4017	6,498.05	59.6322	6,498.05	55.3039	6,498.05	58.4338
6,963.87	85.8408	6,963.87	86.6438	6,963.87	86.1919	6,963.87	86.1386	6,963.87	85.8545	6,963.87	85.77	6,963.87	86.1404	6,963.87	84.0673	6,963.87	84.9817	6,963.87	82.7783	6,963.87	83.0573	6,963.87	82.1918	6,963.87	82.4091	6,963.87	79.7361	6,963.87	81.629	6,963.87	76.5659	6,963.87	78.9508	6,963.87	73.4771	6,963.87	75.8101	6,963.87	68.3105	6,963.87	71.5434	6,963.87	64.9155	6,963.87	68.5782	6,963.87	62.4406	6,963.87	62.2323	6,963.87	63.2103	6,963.87	62.0498	6,963.87	65.3444	6,963.87	64.3689	6,963.87	64.625	6,963.87	66.7811	6,963.87	55.6371	6,963.87	64.4096	6,963.87	61.5685	6,963.87	49.8261	6,963.87	57.6741
7,464.84	85.6384	7,464.84	85.425	7,464.84	85.6453	7,464.84	85.2498	7,464.84	85.5166	7,464.84	84.229	7,464.84	84.9152	7,464.84	83.3392	7,464.84	84.3504	7,464.84	81.0512	7,464.84	82.5346	7,464.84	80.7109	7,464.84	81.529	7,464.84	78.6027	7,464.84	80.911	7,464.84	75.1507	7,464.84	77.4887	7,464.84	71.8848	7,464.84	74.2849	7,464.84	66.0591	7,464.84	69.7346	7,464.84	64.361	7,464.84	67.0669	7,464.84	60.6648	7,464.84	61.1311	7,464.84	62.1924	7,464.84	62.1283	7,464.84	62.5373	7,464.84	62.3155	7,464.84	62.4334	7,464.84	65.1557	7,464.84	57.0084	7,464.84	61.8491	7,464.84	60.5266	7,464.84	45.2529	7,464.84	54.489
8,000.98	85.9637	8,000.98	85.665	8,000.98	85.9958	8,000.98	84.9344	8,000.98	85.8688	8,000.98	84.3891	8,000.98	84.9935	8,000.98	82.5396	8,000.98	84.2253	8,000.98	80.7477	8,000.98	81.8606	8,000.98	79.8675	8,000.98	80.9743	8,000.98	77.4699	8,000.98	80.1756	8,000.98	73.4298	8,000.98	77.3482	8,000.98	70.0856	8,000.98	73.1515	8,000.98	64.2467	8,000.98	70.147	8,000.98	61.6428	8,000.98	64.2608	8,000.98	55.1545	8,000.98	60.6452	8,000.98	55.0258	8,000.98	63.4431	8,000.98	60.2028	8,000.98	59.1886	8,000.98	58.9713	8,000.98	61.6219	8,000.98	56.0995	8,000.98	58.3421	8,000.98	58.0581	8,000.98	37.9822	8,000.98	50.7177
8,575.2	86.8667	8,575.2	86.5166	8,575.2	87.1337	8,575.2	85.2687	8,575.2	86.4878	8,575.2	84.5281	8,575.2	85.1607	8,575.2	83.3209	8,575.2	84.1887	8,575.2	80.1065	8,575.2	82.5132	8,575.2	79.0911	8,575.2	80.653	8,575.2	76.6174	8,575.2	79.5511	8,575.2	71.7213	8,575.2	76.2098	8,575.2	67.5115	8,575.2	71.7031	8,575.2	63.2544	8,575.2	67.7351	8,575.2	59.4305	8,575.2	63.6372	8,575.2	58.0678	8,575.2	58.9337	8,575.2	57.4813	8,575.2	62.1732	8,575.2	62.4215	8,575.2	58.8174	8,575.2	59.6696	8,575.2	60.394	8,575.2	45.4328	8,575.2	59.7706	8,575.2	58.612	8,575.2	53.3303	8,575.2	55.1997
9,190.43	86.9233	9,190.43	86.4124	9,190.43	86.9296	9,190.43	85.3007	9,190.43	86.5462	9,190.43	84.3562	9,190.43	85.3682	9,190.43	82.9041	9,190.43	84.491	9,190.43	79.5228	9,190.43	82.0331	9,190.43	78.1783	9,190.43	79.7076	9,190.43	76.2661	9,190.43	77.9223	9,190.43	71.4805	9,190.43	75.9381	9,190.43	66.8643	9,190.43	71.1292	9,190.43	62.2615	9,190.43	66.6261	9,190.43	59.7957	9,190.43	63.4578	9,190.43	57.8062	9,190.43	60.4762	9,190.43	46.9742	9,190.43	59.1834	9,190.43	60.6998	9,190.43	54.3196	9,190.43	58.0824	9,190.43	56.0119	9,190.43	45.7923	9,190.43	51.8676	9,190.43	56.4145	9,190.43	52.23	9,190.43	50.2941
9,849.61	87.0766	9,849.61	86.4497	9,849.61	87.0541	9,849.61	85.2464	9,849.61	86.2225	9,849.61	84.4583	9,849.61	85.5418	9,849.61	82.3323	9,849.61	84.3322	9,849.61	79.1816	9,849.61	81.9358	9,849.61	77.5618	9,849.61	79.0899	9,849.61	75.6813	9,849.61	77.9944	9,849.61	71.8007	9,849.61	74.749	9,849.61	66.044	9,849.61	70.7817	9,849.61	62.2476	9,849.61	66.0867	9,849.61	61.18	9,849.61	62.6421	9,849.61	58.7753	9,849.61	60.5306	9,849.61	47.645	9,849.61	55.7766	9,849.61	58.8213	9,849.61	53.4287	9,849.61	55.8064	9,849.61	54.5782	9,849.61	45.6047	9,849.61	56.4549	9,849.61	49.8291	9,849.61	49.6858	9,849.61	52.8461
10,555.7	87.577	10,555.7	87.1639	10,555.7	87.5885	10,555.7	85.8492	10,555.7	86.8413	10,555.7	84.662	10,555.7	85.8861	10,555.7	82.394	10,555.7	84.4953	10,555.7	79.5642	10,555.7	81.7113	10,555.7	77.3991	10,555.7	79.7389	10,555.7	76.368	10,555.7	78.4829	10,555.7	72.3878	10,555.7	76.1068	10,555.7	67.1474	10,555.7	71.6385	10,555.7	62.5969	10,555.7	66.4433	10,555.7	60.9334	10,555.7	63.7402	10,555.7	55.9953	10,555.7	61.7192	10,555.7	48.7512	10,555.7	53.5708	10,555.7	54.82	10,555.7	52.8947	10,555.7	55.8449	10,555.7	53.63	10,555.7	43.5986	10,555.7	52.8253	10,555.7	46.2031	10,555.7	45.9555	10,555.7	48.8437
11,314.5	87.7765	11,314.5	87.157	11,314.5	87.7549	11,314.5	85.5474	11,314.5	86.9146	11,314.5	83.8429	11,314.5	85.5968	11,314.5	81.5108	11,314.5	83.8024	11,314.5	78.2929	11,314.5	81.145	11,314.5	76.9876	11,314.5	79.1914	11,314.5	75.4573	11,314.5	78.1107	11,314.5	71.745	11,314.5	75.4241	11,314.5	67.4258	11,314.5	71.4191	11,314.5	62.5621	11,314.5	66.6093	11,314.5	60.1199	11,314.5	62.7582	11,314.5	55.2106	11,314.5	61.3634	11,314.5	45.8843	11,314.5	52.2247	11,314.5	50.6174	11,314.5	52.8338	11,314.5	52.249	11,314.5	52.337	11,314.5	34.3728	11,314.5	46.1528	11,314.5	48.618	11,314.5	47.0882	11,314.5	35.4101
12,126	87.5397	12,126	87.0188	12,126	87.4007	12,126	84.9481	12,126	86.6932	12,126	83.1172	12,126	84.989	12,126	80.8907	12,126	82.8845	12,126	78.0782	12,126	80.4123	12,126	76.6854	12,126	78.9183	12,126	75.0215	12,126	77.4951	12,126	70.9198	12,126	74.8056	12,126	66.0154	12,126	70.6153	12,126	60.9839	12,126	64.807	12,126	59.3244	12,126	61.6114	12,126	53.0304	12,126	59.859	12,126	38.1967	12,126	47.2484	12,126	43.7361	12,126	53.583	12,126	50.777	12,126	55.0783	12,126	34.0058	12,126	40.7409	12,126	33.7024	12,126	45.0334	12,126	48.7814
12,996.1	87.6492	12,996.1	87.0442	12,996.1	87.6269	12,996.1	84.6852	12,996.1	86.7425	12,996.1	82.6494	12,996.1	84.8398	12,996.1	80.9493	12,996.1	82.9689	12,996.1	77.7255	12,996.1	81.0153	12,996.1	75.9484	12,996.1	78.9164	12,996.1	74.1117	12,996.1	77.1161	12,996.1	70.0221	12,996.1	74.4444	12,996.1	66.2275	12,996.1	70.5726	12,996.1	61.5914	12,996.1	63.6483	12,996.1	58.0649	12,996.1	61.172	12,996.1	51.7796	12,996.1	59.7405	12,996.1	46.2033	12,996.1	46.7647	12,996.1	39.3318	12,996.1	54.1473	12,996.1	51.1724	12,996.1	55.2544	12,996.1	32.9731	12,996.1	33.1608	12,996.1	43.0872	12,996.1	43.8509	12,996.1	47.652
13,927.7	87.54	13,927.7	86.7311	13,927.7	87.4735	13,927.7	84.3637	13,927.7	86.2339	13,927.7	82.292	13,927.7	84.4583	13,927.7	80.8523	13,927.7	82.6946	13,927.7	77.4726	13,927.7	80.4182	13,927.7	76.0567	13,927.7	78.1321	13,927.7	74.4772	13,927.7	75.7513	13,927.7	70.4873	13,927.7	74.0618	13,927.7	66.5031	13,927.7	70.4671	13,927.7	62.4258	13,927.7	62.5332	13,927.7	56.9461	13,927.7	61.2986	13,927.7	46.4374	13,927.7	57.8128	13,927.7	51.6649	13,927.7	32.9647	13,927.7	39.5585	13,927.7	54.1593	13,927.7	50.709	13,927.7	56.0203	13,927.7	50.7429	13,927.7	48.151	13,927.7	37.2523	13,927.7	50.5654	13,927.7	48.8801
14,929.7	87.6639	14,929.7	86.4549	14,929.7	87.6761	14,929.7	84.1256	14,929.7	85.9735	14,929.7	82.0706	14,929.7	84.4817	14,929.7	80.415	14,929.7	82.5815	14,929.7	77.5416	14,929.7	79.9281	14,929.7	76.0711	14,929.7	78.0107	14,929.7	74.6197	14,929.7	75.7124	14,929.7	69.887	14,929.7	73.8671	14,929.7	65.6763	14,929.7	70.0476	14,929.7	61.9942	14,929.7	62.6784	14,929.7	53.486	14,929.7	60.9697	14,929.7	45.8104	14,929.7	56.5465	14,929.7	52.5883	14,929.7	35.6853	14,929.7	45.4556	14,929.7	53.6104	14,929.7	47.1393	14,929.7	55.3943	14,929.7	52.9144	14,929.7	54.0461	14,929.7	43.3633	14,929.7	51.7061	14,929.7	48.9122
15,999	87.7454	15,999	86.2138	15,999	87.6181	15,999	84.0722	15,999	85.9423	15,999	81.9497	15,999	84.6314	15,999	80.3882	15,999	82.1779	15,999	78.3133	15,999	79.7688	15,999	76.0875	15,999	77.8763	15,999	73.7182	15,999	74.6167	15,999	68.8234	15,999	72.0659	15,999	64.3806	15,999	67.5144	15,999	60.0514	15,999	60.7449	15,999	46.8722	15,999	59.584	15,999	44.1177	15,999	50.7713	15,999	50.9128	15,999	46.9218	15,999	47.5159	15,999	52.9887	15,999	43.9308	15,999	55.6446	15,999	56.0907	15,999	52.2541	15,999	52.8727	15,999	49.545	15,999	48.8755
17,147.5	87.3813	17,147.5	86.1918	17,147.5	87.2572	17,147.5	83.9772	17,147.5	86.1505	17,147.5	81.4995	17,147.5	84.3463	17,147.5	80.6294	17,147.5	81.8617	17,147.5	77.9418	17,147.5	79.882	17,147.5	74.1144	17,147.5	76.8249	17,147.5	71.9638	17,147.5	72.5501	17,147.5	68.3676	17,147.5	69.8824	17,147.5	64.5383	17,147.5	66.4963	17,147.5	58.9579	17,147.5	61.2235	17,147.5	48.6602	17,147.5	57.49	17,147.5	45.9108	17,147.5	39.0804	17,147.5	47.9285	17,147.5	47.9959	17,147.5	48.4548	17,147.5	48.6345	17,147.5	46.4781	17,147.5	51.866	17,147.5	52.8972	17,147.5	50.4961	17,147.5	51.8164	17,147.5	37.0982	17,147.5	45.5383
18,377.9	86.6192	18,377.9	85.8634	18,377.9	86.637	18,377.9	83.6165	18,377.9	85.8896	18,377.9	81.8082	18,377.9	83.6527	18,377.9	80.3913	18,377.9	81.6946	18,377.9	76.1514	18,377.9	78.7393	18,377.9	72.1564	18,377.9	74.4199	18,377.9	70.7256	18,377.9	69.9836	18,377.9	67.9958	18,377.9	68.9287	18,377.9	64.3845	18,377.9	66.3484	18,377.9	55.8017	18,377.9	60.9137	18,377.9	50.4116	18,377.9	53.809	18,377.9	46.8114	18,377.9	38.7628	18,377.9	44.4535	18,377.9	45.058	18,377.9	49.1383	18,377.9	43.987	18,377.9	40.7733	18,377.9	48.1257	18,377.9	40.1457	18,377.9	43.5828	18,377.9	43.7033	18,377.9	50.8321	18,377.9	45.4384
19,699.2	85.2411	19,699.2	84.74	19,699.2	85.4351	19,699.2	82.6517	19,699.2	85.0422	19,699.2	81.1996	19,699.2	82.9222	19,699.2	78.8134	19,699.2	80.5297	19,699.2	73.0564	19,699.2	75.8764	19,699.2	70.3669	19,699.2	71.2213	19,699.2	68.3519	19,699.2	67.7166	19,699.2	65.5445	19,699.2	65.288	19,699.2	64.162	19,699.2	64.8424	19,699.2	52.727	19,699.2	61.5687	19,699.2	53.7189	19,699.2	48.1457	19,699.2	46.834	19,699.2	43.3477	19,699.2	43.3971	19,699.2	29.2081	19,699.2	46.1169	19,699.2	36.3514	19,699.2	40.9522	19,699.2	48.5022	19,699.2	50.8779	19,699.2	45.919	19,699.2	52.2571	19,699.2	53.6178	19,699.2	48.7265
19,998	84.7363	19,998	84.374	19,998	84.9678	19,998	82.45	19,998	84.7285	19,998	81.3825	19,998	83.1413	19,998	77.9764	19,998	80.109	19,998	72.3383	19,998	75.193	19,998	69.9602	19,998	70.6442	19,998	68.8091	19,998	65.1682	19,998	67.4104	19,998	64.3038	19,998	64.6377	19,998	66.8708	19,998	53.2349	19,998	62.4251	19,998	51.2125	19,998	35.0985	19,998	40.8949	19,998	52.9805	19,998	55.0591	19,998	50.7714	19,998	48.9732	19,998	50.9438	19,998	50.1591	19,998	53.0669	19,998	39.9129	19,998	49.3658	19,998	53.3221	19,998	56.6978	19,998	51.4444
