"SPL Vertical"																																																																							
"On-Axis"		"10°"		"-10°"		"20°"		"-20°"		"30°"		"-30°"		"40°"		"-40°"		"50°"		"-50°"		"60°"		"-60°"		"70°"		"-70°"		"80°"		"-80°"		"90°"		"-90°"		"100°"		"-100°"		"110°"		"-110°"		"120°"		"-120°"		"130°"		"-130°"		"140°"		"-140°"		"150°"		"-150°"		"160°"		"-160°"		"170°"		"-170°"		"180°"	
"Frequency [Hz]"	"Sound Pessure Level [dB]  / [2.83V 1m] "	"Frequency [Hz]"	"Sound Pessure Level [dB]  / [2.83V 1m] "	"Frequency [Hz]"	"Sound Pessure Level [dB]  / [2.83V 1m] "	"Frequency [Hz]"	"Sound Pessure Level [dB]  / [2.83V 1m] "	"Frequency [Hz]"	"Sound Pessure Level [dB]  / [2.83V 1m] "	"Frequency [Hz]"	"Sound Pessure Level [dB]  / [2.83V 1m] "	"Frequency [Hz]"	"Sound Pessure Level [dB]  / [2.83V 1m] "	"Frequency [Hz]"	"Sound Pessure Level [dB]  / [2.83V 1m] "	"Frequency [Hz]"	"Sound Pessure Level [dB]  / [2.83V 1m] "	"Frequency [Hz]"	"Sound Pessure Level [dB]  / [2.83V 1m] "	"Frequency [Hz]"	"Sound Pessure Level [dB]  / [2.83V 1m] "	"Frequency [Hz]"	"Sound Pessure Level [dB]  / [2.83V 1m] "	"Frequency [Hz]"	"Sound Pessure Level [dB]  / [2.83V 1m] "	"Frequency [Hz]"	"Sound Pessure Level [dB]  / [2.83V 1m] "	"Frequency [Hz]"	"Sound Pessure Level [dB]  / [2.83V 1m] "	"Frequency [Hz]"	"Sound Pessure Level [dB]  / [2.83V 1m] "	"Frequency [Hz]"	"Sound Pessure Level [dB]  / [2.83V 1m] "	"Frequency [Hz]"	"Sound Pessure Level [dB]  / [2.83V 1m] "	"Frequency [Hz]"	"Sound Pessure Level [dB]  / [2.83V 1m] "	"Frequency [Hz]"	"Sound Pessure Level [dB]  / [2.83V 1m] "	"Frequency [Hz]"	"Sound Pessure Level [dB]  / [2.83V 1m] "	"Frequency [Hz]"	"Sound Pessure Level [dB]  / [2.83V 1m] "	"Frequency [Hz]"	"Sound Pessure Level [dB]  / [2.83V 1m] "	"Frequency [Hz]"	"Sound Pessure Level [dB]  / [2.83V 1m] "	"Frequency [Hz]"	"Sound Pessure Level [dB]  / [2.83V 1m] "	"Frequency [Hz]"	"Sound Pessure Level [dB]  / [2.83V 1m] "	"Frequency [Hz]"	"Sound Pessure Level [dB]  / [2.83V 1m] "	"Frequency [Hz]"	"Sound Pessure Level [dB]  / [2.83V 1m] "	"Frequency [Hz]"	"Sound Pessure Level [dB]  / [2.83V 1m] "	"Frequency [Hz]"	"Sound Pessure Level [dB]  / [2.83V 1m] "	"Frequency [Hz]"	"Sound Pessure Level [dB]  / [2.83V 1m] "	"Frequency [Hz]"	"Sound Pessure Level [dB]  / [2.83V 1m] "	"Frequency [Hz]"	"Sound Pessure Level [dB]  / [2.83V 1m] "	"Frequency [Hz]"	"Sound Pessure Level [dB]  / [2.83V 1m] "	"Frequency [Hz]"	"Sound Pessure Level [dB]  / [2.83V 1m] "	"Frequency [Hz]"	"Sound Pessure Level [dB]  / [2.83V 1m] "
20.5078	62.1564	20.5078	61.9782	20.5078	62.316	20.5078	61.7887	20.5078	62.4479	20.5078	61.5937	20.5078	62.5415	20.5078	61.3975	20.5078	62.5857	20.5078	61.2031	20.5078	62.57	20.5078	61.0126	20.5078	62.4859	20.5078	60.8275	20.5078	62.3292	20.5078	60.649	20.5078	62.1013	20.5078	60.478	20.5078	61.8112	20.5078	60.3156	20.5078	61.4749	20.5078	60.1635	20.5078	61.115	20.5078	60.0236	20.5078	60.7578	20.5078	59.8987	20.5078	60.4288	20.5078	59.7918	20.5078	60.1483	20.5078	59.7064	20.5078	59.9281	20.5078	59.6467	20.5078	59.7706	20.5078	59.617	20.5078	59.6715	20.5078	59.623
23.4375	60.2222	23.4375	60.0547	23.4375	60.3835	23.4375	59.8823	23.4375	60.5374	23.4375	59.7062	23.4375	60.6836	23.4375	59.5278	23.4375	60.8218	23.4375	59.348	23.4375	60.9513	23.4375	59.1679	23.4375	61.0688	23.4375	58.9888	23.4375	61.1661	23.4375	58.8123	23.4375	61.2286	23.4375	58.641	23.4375	61.2367	23.4375	58.479	23.4375	61.1699	23.4375	58.3321	23.4375	61.0131	23.4375	58.208	23.4375	60.7624	23.4375	58.1167	23.4375	60.428	23.4375	58.0694	23.4375	60.0339	23.4375	58.0779	23.4375	59.6137	23.4375	58.1529	23.4375	59.2035	23.4375	58.3026	23.4375	58.8352	23.4375	58.531
26.3672	66.5187	26.3672	66.2004	26.3672	66.8611	26.3672	65.91	26.3672	67.2224	26.3672	65.6498	26.3672	67.595	26.3672	65.4217	26.3672	67.9682	26.3672	65.2272	26.3672	68.3277	26.3672	65.0677	26.3672	68.6554	26.3672	64.9444	26.3672	68.9307	26.3672	64.8591	26.3672	69.1325	26.3672	64.8135	26.3672	69.2421	26.3672	64.8101	26.3672	69.2459	26.3672	64.8513	26.3672	69.1387	26.3672	64.9397	26.3672	68.9248	26.3672	65.0774	26.3672	68.6179	26.3672	65.2661	26.3672	68.2395	26.3672	65.5061	26.3672	67.8154	26.3672	65.7965	26.3672	67.3722	26.3672	66.1349	26.3672	66.9332	26.3672	66.5165
29.2969	71.6785	29.2969	71.4	29.2969	71.9774	29.2969	71.146	29.2969	72.2908	29.2969	70.9191	29.2969	72.6104	29.2969	70.7213	29.2969	72.9251	29.2969	70.5535	29.2969	73.2209	29.2969	70.4166	29.2969	73.4813	29.2969	70.311	29.2969	73.6885	29.2969	70.2373	29.2969	73.8253	29.2969	70.1958	29.2969	73.8776	29.2969	70.1873	29.2969	73.8366	29.2969	70.2124	29.2969	73.7013	29.2969	70.2722	29.2969	73.4792	29.2969	70.3678	29.2969	73.1858	29.2969	70.5004	29.2969	72.8426	29.2969	70.6713	29.2969	72.474	29.2969	70.8816	29.2969	72.1028	29.2969	71.132	29.2969	71.7478	29.2969	71.4218
32.2266	73.9095	32.2266	73.5911	32.2266	74.2481	32.2266	73.2988	32.2266	74.599	32.2266	73.037	32.2266	74.9523	32.2266	72.809	32.2266	75.2958	32.2266	72.6171	32.2266	75.6149	32.2266	72.4631	32.2266	75.8932	32.2266	72.348	32.2266	76.1139	32.2266	72.2727	32.2266	76.2611	32.2266	72.2378	32.2266	76.3222	32.2266	72.2439	32.2266	76.2897	32.2266	72.2914	32.2266	76.163	32.2266	72.381	32.2266	75.9488	32.2266	72.513	32.2266	75.6605	32.2266	72.6878	32.2266	75.3172	32.2266	72.9053	32.2266	74.9399	32.2266	73.1648	32.2266	74.5497	32.2266	73.4641	32.2266	74.1649	32.2266	73.7997
35.1563	76.0567	35.1563	75.7543	35.1563	76.3764	35.1563	75.4753	35.1563	76.7057	35.1563	75.224	35.1563	77.0351	35.1563	75.0039	35.1563	77.3528	35.1563	74.8176	35.1563	77.6449	35.1563	74.6668	35.1563	77.8959	35.1563	74.553	35.1563	78.0901	35.1563	74.4768	35.1563	78.2129	35.1563	74.4389	35.1563	78.2534	35.1563	74.4397	35.1563	78.2055	35.1563	74.4794	35.1563	78.0701	35.1563	74.5582	35.1563	77.8551	35.1563	74.6764	35.1563	77.5745	35.1563	74.834	35.1563	77.247	35.1563	75.0307	35.1563	76.8927	35.1563	75.2658	35.1563	76.5306	35.1563	75.5376	35.1563	76.1767	35.1563	75.8429
38.0859	78.5835	38.0859	78.2463	38.0859	78.9408	38.0859	77.9363	38.0859	79.3094	38.0859	77.6584	38.0859	79.6776	38.0859	77.4162	38.0859	80.0311	38.0859	77.2119	38.0859	80.3533	38.0859	77.047	38.0859	80.6255	38.0859	76.9223	38.0859	80.8291	38.0859	76.838	38.0859	80.9472	38.0859	76.7942	38.0859	80.9674	38.0859	76.7907	38.0859	80.8843	38.0859	76.8271	38.0859	80.7011	38.0859	76.9034	38.0859	80.4302	38.0859	77.0194	38.0859	80.0918	38.0859	77.1749	38.0859	79.7103	38.0859	77.3701	38.0859	79.3107	38.0859	77.6049	38.0859	78.9145	38.0859	77.8788	38.0859	78.5378	38.0859	78.1907
41.0156	79.9385	41.0156	79.6009	41.0156	80.295	41.0156	79.2897	41.0156	80.6612	41.0156	79.0102	41.0156	81.0252	41.0156	78.7664	41.0156	81.3728	41.0156	78.5609	41.0156	81.6874	41.0156	78.3954	41.0156	81.951	41.0156	78.2708	41.0156	82.1453	41.0156	78.1874	41.0156	82.2542	41.0156	78.145	41.0156	82.2661	41.0156	78.1432	41.0156	82.1763	41.0156	78.1815	41.0156	81.9889	41.0156	78.2592	41.0156	81.717	41.0156	78.3759	41.0156	81.3809	41.0156	78.531	41.0156	81.0052	41.0156	78.7242	41.0156	80.6143	41.0156	78.9548	41.0156	80.2287	41.0156	79.2224	41.0156	79.8628	41.0156	79.5258
43.9453	81.0828	43.9453	80.7528	43.9453	81.4292	43.9453	80.4465	43.9453	81.783	43.9453	80.1692	43.9453	82.1326	43.9453	79.9249	43.9453	82.4639	43.9453	79.7162	43.9453	82.7608	43.9453	79.5449	43.9453	83.0054	43.9453	79.4122	43.9453	83.1802	43.9453	79.3184	43.9453	83.2696	43.9453	79.2638	43.9453	83.2627	43.9453	79.248	43.9453	83.1556	43.9453	79.271	43.9453	82.9534	43.9453	79.3323	43.9453	82.6701	43.9453	79.4318	43.9453	82.3267	43.9453	79.5694	43.9453	81.9484	43.9453	79.7451	43.9453	81.5595	43.9453	79.9588	43.9453	81.18	43.9453	80.2103	43.9453	80.8238	43.9453	80.4992
46.875	82.0148	46.875	81.6758	46.875	82.3714	46.875	81.3622	46.875	82.7357	46.875	81.0798	46.875	83.0954	46.875	80.8331	46.875	83.4361	46.875	80.6248	46.875	83.7411	46.875	80.4566	46.875	83.9926	46.875	80.3296	46.875	84.1729	46.875	80.2436	46.875	84.2667	46.875	80.1986	46.875	84.2633	46.875	80.1936	46.875	84.1594	46.875	80.2281	46.875	83.9602	46.875	80.3012	46.875	83.6799	46.875	80.4122	46.875	83.3397	46.875	80.5605	46.875	82.9645	46.875	80.7456	46.875	82.5781	46.875	80.9672	46.875	82.2001	46.875	81.2247	46.875	81.844	46.875	81.5176
49.8047	82.9517	49.8047	82.6121	49.8047	83.3076	49.8047	82.2966	49.8047	83.6696	49.8047	82.0114	49.8047	84.0258	49.8047	81.7612	49.8047	84.3616	49.8047	81.5492	49.8047	84.6608	49.8047	81.3776	49.8047	84.9057	49.8047	81.2475	49.8047	85.0791	49.8047	81.1593	49.8047	85.1659	49.8047	81.1127	49.8047	85.1561	49.8047	81.107	49.8047	85.0469	49.8047	81.1412	49.8047	84.8442	49.8047	81.2145	49.8047	84.5626	49.8047	81.3256	49.8047	84.2235	49.8047	81.4739	49.8047	83.8514	49.8047	81.6585	49.8047	83.4698	49.8047	81.8788	49.8047	83.0971	49.8047	82.1342	49.8047	82.746	49.8047	82.4239
55.6641	84.4066	55.6641	84.073	55.6641	84.7571	55.6641	83.7647	55.6641	85.1139	55.6641	83.4883	55.6641	85.4643	55.6641	83.2483	55.6641	85.7933	55.6641	83.0479	55.6641	86.0841	55.6641	82.8888	55.6641	86.3189	55.6641	82.7715	55.6641	86.4807	55.6641	82.6956	55.6641	86.5548	55.6641	82.6601	55.6641	86.5324	55.6641	82.6635	55.6641	86.412	55.6641	82.7039	55.6641	86.2014	55.6641	82.7796	55.6641	85.9175	55.6641	82.8888	55.6641	85.5833	55.6641	83.0303	55.6641	85.2242	55.6641	83.2028	55.6641	84.863	55.6641	83.4056	55.6641	84.5165	55.6641	83.6384	55.6641	84.1945	55.6641	83.9014
58.5938	85.3882	58.5938	85.0267	58.5938	85.7661	58.5938	84.6909	58.5938	86.1491	58.5938	84.3884	58.5938	86.5237	58.5938	84.1248	58.5938	86.874	58.5938	83.9044	58.5938	87.1823	58.5938	83.7295	58.5938	87.4295	58.5938	83.6012	58.5938	87.597	58.5938	83.5192	58.5938	87.6692	58.5938	83.4822	58.5938	87.6364	58.5938	83.4878	58.5938	87.4977	58.5938	83.5335	58.5938	87.2626	58.5938	83.6162	58.5938	86.9505	58.5938	83.7336	58.5938	86.5874	58.5938	83.8834	58.5938	86.2009	58.5938	84.0646	58.5938	85.8148	58.5938	84.2768	58.5938	85.4465	58.5938	84.5206	58.5938	85.1056	58.5938	84.7967
61.5234	85.8308	61.5234	85.4683	61.5234	86.209	61.5234	85.1309	61.5234	86.5915	61.5234	84.8263	61.5234	86.9647	61.5234	84.5604	61.5234	87.3128	61.5234	84.3374	61.5234	87.618	61.5234	84.16	61.5234	87.8614	61.5234	84.0295	61.5234	88.0245	61.5234	83.9456	61.5234	88.0919	61.5234	83.907	61.5234	88.0543	61.5234	83.9116	61.5234	87.9112	61.5234	83.9565	61.5234	87.6729	61.5234	84.0389	61.5234	87.359	61.5234	84.1561	61.5234	86.996	61.5234	84.306	61.5234	86.6111	61.5234	84.4872	61.5234	86.2278	61.5234	84.6992	61.5234	85.8625	61.5234	84.9424	61.5234	85.5243	61.5234	85.2173
67.3828	86.3449	67.3828	85.9734	67.3828	86.7315	67.3828	85.6274	67.3828	87.1212	67.3828	85.3151	67.3828	87.4997	67.3828	85.0429	67.3828	87.8508	67.3828	84.8153	67.3828	88.1561	67.3828	84.6352	67.3828	88.3967	67.3828	84.5038	67.3828	88.5541	67.3828	84.4205	67.3828	88.6133	67.3828	84.3837	67.3828	88.5658	67.3828	84.3908	67.3828	88.412	67.3828	84.4387	67.3828	88.1634	67.3828	84.5241	67.3828	87.8413	67.3828	84.644	67.3828	87.473	67.3828	84.7958	67.3828	87.0863	67.3828	84.978	67.3828	86.7042	67.3828	85.1899	67.3828	86.3419	67.3828	85.4317	67.3828	86.0075	67.3828	85.704
73.2422	86.9064	73.2422	86.5283	73.2422	87.2972	73.2422	86.1738	73.2422	87.6878	73.2422	85.8524	73.2422	88.0637	73.2422	85.5716	73.2422	88.4084	73.2422	85.3372	73.2422	88.7041	73.2422	85.1528	73.2422	88.932	73.2422	85.0199	73.2422	89.0742	73.2422	84.9383	73.2422	89.1166	73.2422	84.9058	73.2422	89.0515	73.2422	84.9192	73.2422	88.8813	73.2422	84.9744	73.2422	88.6193	73.2422	85.0667	73.2422	88.2891	73.2422	85.1921	73.2422	87.9198	73.2422	85.3467	73.2422	87.5398	73.2422	85.528	73.2422	87.1709	73.2422	85.7346	73.2422	86.826	73.2422	85.9664	73.2422	86.5104	73.2422	86.2244
76.1719	87.1643	76.1719	86.7862	76.1719	87.5541	76.1719	86.4307	76.1719	87.9429	76.1719	86.1074	76.1719	88.3161	76.1719	85.824	76.1719	88.6573	76.1719	85.5862	76.1719	88.9486	76.1719	85.398	76.1719	89.171	76.1719	85.2612	76.1719	89.3066	76.1719	85.1755	76.1719	89.3409	76.1719	85.139	76.1719	89.2665	76.1719	85.1483	76.1719	89.0858	76.1719	85.1991	76.1719	88.813	76.1719	85.2866	76.1719	88.4726	76.1719	85.4063	76.1719	88.0947	76.1719	85.5545	76.1719	87.7087	76.1719	85.7284	76.1719	87.3371	76.1719	85.9269	76.1719	86.993	76.1719	86.1505	76.1719	86.681	76.1719	86.401
82.0313	87.4136	82.0313	87.0282	82.0313	87.8122	82.0313	86.6682	82.0313	88.2105	82.0313	86.3436	82.0313	88.5929	82.0313	86.0622	82.0313	88.942	82.0313	85.8296	82.0313	89.2393	82.0313	85.6491	82.0313	89.4654	82.0313	85.5217	82.0313	89.6022	82.0313	85.4462	82.0313	89.6355	82.0313	85.4198	82.0313	89.5584	82.0313	85.4385	82.0313	89.3743	82.0313	85.4977	82.0313	89.0987	82.0313	85.5926	82.0313	88.7577	82.0313	85.7186	82.0313	88.3824	82.0313	85.8719	82.0313	88.0024	82.0313	86.0498	82.0313	87.639	82.0313	86.2507	82.0313	87.3034	82.0313	86.4748	82.0313	86.9986	82.0313	86.7233
87.8906	87.9134	87.8906	87.5119	87.8906	88.3237	87.8906	87.132	87.8906	88.7285	87.8906	86.7849	87.8906	89.1121	87.8906	86.48	87.8906	89.4573	87.8906	86.2247	87.8906	89.7454	87.8906	86.0239	87.8906	89.9568	87.8906	85.8797	87.8906	90.0734	87.8906	85.7917	87.8906	90.0811	87.8906	85.7576	87.8906	89.974	87.8906	85.7728	87.8906	89.7583	87.8906	85.832	87.8906	89.4532	87.8906	85.9293	87.8906	89.0888	87.8906	86.0586	87.8906	88.6993	87.8906	86.2149	87.8906	88.3142	87.8906	86.3941	87.8906	87.9526	87.8906	86.5941	87.8906	87.6228	87.8906	86.8146	87.8906	87.3254	87.8906	87.0573
93.75	87.8321	93.75	87.4136	93.75	88.2577	93.75	87.0178	93.75	88.6741	93.75	86.6589	93.75	89.0644	93.75	86.3495	93.75	89.4111	93.75	86.0994	93.75	89.6956	93.75	85.9148	93.75	89.8996	93.75	85.798	93.75	90.0062	93.75	85.7472	93.75	90.0036	93.75	85.7574	93.75	89.8886	93.75	85.8209	93.75	89.6711	93.75	85.929	93.75	89.3745	93.75	86.0722	93.75	89.0324	93.75	86.2416	93.75	88.6798	93.75	86.4295	93.75	88.3436	93.75	86.6295	93.75	88.0368	93.75	86.8378	93.75	87.7606	93.75	87.0526	93.75	87.5092	93.75	87.2752
102.539	87.6674	102.539	87.2282	102.539	88.105	102.539	86.804	102.539	88.5243	102.539	86.4114	102.539	88.9086	102.539	86.0656	102.539	89.2407	102.539	85.7796	102.539	89.5029	102.539	85.5624	102.539	89.6772	102.539	85.4184	102.539	89.7469	102.539	85.3468	102.539	89.7008	102.539	85.3423	102.539	89.5369	102.539	85.3959	102.539	89.2673	102.539	85.497	102.539	88.9197	102.539	85.6342	102.539	88.5329	102.539	85.7966	102.539	88.1471	102.539	85.9752	102.539	87.7917	102.539	86.1629	102.539	87.4796	102.539	86.3556	102.539	87.2094	102.539	86.5523	102.539	86.9716	102.539	86.7556
108.398	87.8514	108.398	87.3959	108.398	88.2928	108.398	86.9419	108.398	88.705	108.398	86.5063	108.398	89.0732	108.398	86.106	108.398	89.3821	108.398	85.7574	108.398	89.6154	108.398	85.4743	108.398	89.7562	108.398	85.2664	108.398	89.7887	108.398	85.1375	108.398	89.702	108.398	85.0856	108.398	89.495	108.398	85.1036	108.398	89.1812	108.398	85.1803	108.398	88.7905	108.398	85.303	108.398	88.3642	108.398	85.4589	108.398	87.9442	108.398	85.6369	108.398	87.5601	108.398	85.8281	108.398	87.224	108.398	86.0273	108.398	86.9333	108.398	86.2331	108.398	86.6783	108.398	86.448
117.188	87.843	117.188	87.4067	117.188	88.2641	117.188	86.9698	117.188	88.6559	117.188	86.5476	117.188	89.0036	117.188	86.1555	117.188	89.2918	117.188	85.8084	117.188	89.5035	117.188	85.5194	117.188	89.6208	117.188	85.2987	117.188	89.6269	117.188	85.1517	117.188	89.5099	117.188	85.079	117.188	89.2693	117.188	85.076	117.188	88.9214	117.188	85.1341	117.188	88.5018	117.188	85.2418	117.188	88.0593	117.188	85.3865	117.188	87.6419	117.188	85.5559	117.188	87.2799	117.188	85.7394	117.188	86.9798	117.188	85.9289	117.188	86.7301	117.188	86.1202	117.188	86.5131	117.188	86.3133
125.977	87.7664	125.977	87.3341	125.977	88.181	125.977	86.899	125.977	88.5638	125.977	86.4762	125.977	88.9005	125.977	86.0816	125.977	89.1758	125.977	85.7302	125.977	89.3729	125.977	85.4355	125.977	89.474	125.977	85.2078	125.977	89.4621	125.977	85.0529	125.977	89.3252	125.977	84.9718	125.977	89.0628	125.977	84.9606	125.977	88.6922	125.977	85.011	125.977	88.2507	125.977	85.1117	125.977	87.7899	125.977	85.2494	125.977	87.3605	125.977	85.4106	125.977	86.9952	125.977	85.5831	125.977	86.7014	125.977	85.7573	125.977	86.4669	125.977	85.9284	125.977	86.272	125.977	86.0973
134.766	87.6066	134.766	87.1673	134.766	88.0245	134.766	86.7242	134.766	88.4049	134.766	86.2963	134.766	88.7322	134.766	85.9026	134.766	88.9909	134.766	85.5611	134.766	89.1646	134.766	85.2867	134.766	89.236	134.766	85.0891	134.766	89.1892	134.766	84.9718	134.766	89.0139	134.766	84.9324	134.766	88.7132	134.766	84.9631	134.766	88.3106	134.766	85.052	134.766	87.8533	134.766	85.185	134.766	87.4026	134.766	85.3466	134.766	87.0139	134.766	85.5212	134.766	86.7154	134.766	85.6945	134.766	86.5029	134.766	85.8553	134.766	86.3518	134.766	85.997	134.766	86.2324	134.766	86.1199
143.555	87.3559	143.555	86.9033	143.555	87.7809	143.555	86.4415	143.555	88.1621	143.555	85.9909	143.555	88.4845	143.555	85.5732	143.555	88.7328	143.555	85.2099	143.555	88.8903	143.555	84.9191	143.555	88.9386	143.555	84.7132	143.555	88.8597	143.555	84.5971	143.555	88.6407	143.555	84.5671	143.555	88.2827	143.555	84.6125	143.555	87.8103	143.555	84.7173	143.555	87.2771	143.555	84.8624	143.555	86.7579	143.555	85.0278	143.555	86.3241	143.555	85.1943	143.555	86.0144	143.555	85.3454	143.555	85.8248	143.555	85.4688	143.555	85.7223	143.555	85.5592	143.555	85.666	143.555	85.6202
155.273	87.0604	155.273	86.5471	155.273	87.5249	155.273	86.006	155.273	87.9239	155.273	85.463	155.273	88.2434	155.273	84.9478	155.273	88.47	155.273	84.492	155.273	88.5897	155.273	84.1241	155.273	88.5869	155.273	83.8643	155.273	88.4462	155.273	83.721	155.273	88.1584	155.273	83.6891	155.273	87.7297	155.273	83.7525	155.273	87.1932	155.273	83.888	155.273	86.6134	155.273	84.0693	155.273	86.0736	155.273	84.2709	155.273	85.644	155.273	84.4696	155.273	85.3509	155.273	84.647	155.273	85.1761	155.273	84.7906	155.273	85.0795	155.273	84.8959	155.273	85.021	155.273	84.9678
164.063	87.6153	164.063	87.1001	164.063	88.0656	164.063	86.5365	164.063	88.4379	164.063	85.9466	164.063	88.7214	164.063	85.3577	164.063	88.9054	164.063	84.8022	164.063	88.977	164.063	84.3147	164.063	88.9207	164.063	83.9272	164.063	88.719	164.063	83.6629	164.063	88.3583	164.063	83.5309	164.063	87.8393	164.063	83.5241	164.063	87.1923	164.063	83.6215	164.063	86.4888	164.063	83.7933	164.063	85.8344	164.063	84.0067	164.063	85.3297	164.063	84.2303	164.063	85.0188	164.063	84.437	164.063	84.874	164.063	84.606	164.063	84.8287	164.063	84.725	164.063	84.8171	164.063	84.7917
175.781	87.5585	175.781	87.0931	175.781	87.9544	175.781	86.5727	175.781	88.2707	175.781	86.0177	175.781	88.5001	175.781	85.4542	175.781	88.6358	175.781	84.9137	175.781	88.6691	175.781	84.4306	175.781	88.5878	175.781	84.0379	175.781	88.377	175.781	83.761	175.781	88.0252	175.781	83.6126	175.781	87.5346	175.781	83.5891	175.781	86.9359	175.781	83.6722	175.781	86.2949	175.781	83.8326	175.781	85.7001	175.781	84.0354	175.781	85.2289	175.781	84.2455	175.781	84.9147	175.781	84.4316	175.781	84.7449	175.781	84.5705	175.781	84.681	175.781	84.6509	175.781	84.6747	175.781	84.6778
190.43	87.4724	190.43	86.9265	190.43	87.9127	190.43	86.2936	190.43	88.234	190.43	85.5985	190.43	88.4262	190.43	84.8732	190.43	88.4809	190.43	84.1577	190.43	88.3889	190.43	83.4981	190.43	88.1383	190.43	82.9431	190.43	87.7165	190.43	82.5363	190.43	87.1184	190.43	82.3062	190.43	86.367	190.43	82.2584	190.43	85.5408	190.43	82.3741	190.43	84.7842	190.43	82.6157	190.43	84.257	190.43	82.9362	190.43	84.027	190.43	83.2877	190.43	84.028	190.43	83.627	190.43	84.1352	190.43	83.9191	190.43	84.2458	190.43	84.1377	190.43	84.2993	190.43	84.2662
202.148	87.7684	202.148	87.2582	202.148	88.1656	202.148	86.6506	202.148	88.4378	202.148	85.9656	202.148	88.5763	202.148	85.2283	202.148	88.5743	202.148	84.4695	202.148	88.425	202.148	83.7271	202.148	88.1194	202.148	83.0455	202.148	87.6456	202.148	82.4734	202.148	86.9967	202.148	82.0578	202.148	86.1896	202.148	81.8329	202.148	85.297	202.148	81.8091	202.148	84.4669	202.148	81.9671	202.148	83.8758	202.148	82.2616	202.148	83.6089	202.148	82.6334	202.148	83.5988	202.148	83.0211	202.148	83.7068	202.148	83.3711	202.148	83.8182	202.148	83.6424	202.148	83.8641	202.148	83.8094
216.797	86.8102	216.797	86.2701	216.797	87.2251	216.797	85.6302	216.797	87.4947	216.797	84.9194	216.797	87.6036	216.797	84.1692	216.797	87.5412	216.797	83.4121	216.797	87.2991	216.797	82.6817	216.797	86.8683	216.797	82.0123	216.797	86.2384	216.797	81.4403	216.797	85.4051	216.797	81.0025	216.797	84.3954	216.797	80.7328	216.797	83.3154	216.797	80.6527	216.797	82.3872	216.797	80.7618	216.797	81.8691	216.797	81.0317	216.797	81.8356	216.797	81.4103	216.797	82.1094	216.797	81.8334	216.797	82.4537	216.797	82.2368	216.797	82.715	216.797	82.5644	216.797	82.826	216.797	82.7713
234.375	87.4512	234.375	86.9064	234.375	87.8393	234.375	86.2332	234.375	88.0479	234.375	85.4653	234.375	88.0593	234.375	84.6427	234.375	87.8607	234.375	83.8111	234.375	87.443	234.375	83.0218	234.375	86.799	234.375	82.3277	234.375	85.9221	234.375	81.7772	234.375	84.8126	234.375	81.4067	234.375	83.5065	234.375	81.234	234.375	82.1486	234.375	81.2559	234.375	81.0764	234.375	81.4498	234.375	80.6898	234.375	81.7757	234.375	81.0191	234.375	82.1796	234.375	81.6964	234.375	82.5983	234.375	82.3789	234.375	82.966	234.375	82.9034	234.375	83.2225	234.375	83.2181	234.375	83.3182
249.023	87.4701	249.023	86.9079	249.023	87.8381	249.023	86.1821	249.023	87.9884	249.023	85.332	249.023	87.9044	249.023	84.4076	249.023	87.5764	249.023	83.471	249.023	87.0025	249.023	82.5945	249.023	86.1904	249.023	81.8537	249.023	85.16	249.023	81.3131	249.023	83.952	249.023	81.0116	249.023	82.6515	249.023	80.9548	249.023	81.4321	249.023	81.1181	249.023	80.5658	249.023	81.4563	249.023	80.2848	249.023	81.9102	249.023	80.5769	249.023	82.4109	249.023	81.2215	249.023	82.8834	249.023	81.9776	249.023	83.2538	249.023	82.6655	249.023	83.4554	249.023	83.1707	249.023	83.4368
266.602	88.5778	266.602	88.0663	266.602	88.875	266.602	87.3717	266.602	88.9307	266.602	86.5309	266.602	88.7207	266.602	85.5872	266.602	88.2239	266.602	84.593	266.602	87.4222	266.602	83.6093	266.602	86.3028	266.602	82.7043	266.602	84.862	266.602	81.9461	266.602	83.1217	266.602	81.3932	266.602	81.181	266.602	81.0841	266.602	79.3513	266.602	81.0312	266.602	78.2556	266.602	81.2165	266.602	78.3288	266.602	81.5896	266.602	79.2089	266.602	82.0696	266.602	80.322	266.602	82.5573	266.602	81.3699	266.602	82.9525	266.602	82.2273	266.602	83.1682	266.602	82.8273	266.602	83.1391
287.109	88.5249	287.109	88.0861	287.109	88.7484	287.109	87.4724	287.109	88.7218	287.109	86.7295	287.109	88.4152	287.109	85.9072	287.109	87.8039	287.109	85.0557	287.109	86.8693	287.109	84.2222	287.109	85.6041	287.109	83.4464	287.109	84.0267	287.109	82.7591	287.109	82.2174	287.109	82.1847	287.109	80.3969	287.109	81.748	287.109	79.009	287.109	81.4811	287.109	78.5351	287.109	81.4182	287.109	78.9798	287.109	81.5743	287.109	79.911	287.109	81.9169	287.109	80.947	287.109	82.3606	287.109	81.8791	287.109	82.7913	287.109	82.596	287.109	83.1001	287.109	83.0414	287.109	83.2018
307.617	88.7654	307.617	88.3325	307.617	88.9486	307.617	87.693	307.617	88.8436	307.617	86.8966	307.617	88.4157	307.617	85.9986	307.617	87.6315	307.617	85.0588	307.617	86.4599	307.617	84.1368	307.617	84.8792	307.617	83.2884	307.617	82.9039	307.617	82.5632	307.617	80.6647	307.617	82.0045	307.617	78.5722	307.617	81.649	307.617	77.3348	307.617	81.519	307.617	77.2817	307.617	81.6054	307.617	77.9736	307.617	81.8563	307.617	78.9276	307.617	82.185	307.617	79.9208	307.617	82.4948	307.617	80.8456	307.617	82.7019	307.617	81.6271	307.617	82.7458	307.617	82.2161	307.617	82.5895
331.055	88.4436	331.055	88.1659	331.055	88.4598	331.055	87.6667	331.055	88.1797	331.055	86.9906	331.055	87.5742	331.055	86.1855	331.055	86.6224	331.055	85.3014	331.055	85.3206	331.055	84.3909	331.055	83.7077	331.055	83.5114	331.055	81.9189	331.055	82.7279	331.055	80.2458	331.055	82.1113	331.055	79.056	331.055	81.7242	331.055	78.4801	331.055	81.5962	331.055	78.3277	331.055	81.7037	331.055	78.409	331.055	81.9729	331.055	78.7077	331.055	82.3024	331.055	79.2759	331.055	82.5874	331.055	80.0796	331.055	82.7348	331.055	80.9686	331.055	82.6713	331.055	81.7664	331.055	82.3508
354.492	88.6906	354.492	88.3232	354.492	88.8113	354.492	87.7512	354.492	88.6485	354.492	87.021	354.492	88.1702	354.492	86.1804	354.492	87.3485	354.492	85.2726	354.492	86.162	354.492	84.3319	354.492	84.6072	354.492	83.3809	354.492	82.7347	354.492	82.4366	354.492	80.7349	354.492	81.5273	354.492	79.0514	354.492	80.7187	354.492	78.2354	354.492	80.1341	354.492	78.3678	354.492	79.9202	354.492	79.0268	354.492	80.1348	354.492	79.8384	354.492	80.666	354.492	80.6268	354.492	81.3027	354.492	81.3143	354.492	81.8578	354.492	81.8538	354.492	82.2177	354.492	82.2056	354.492	82.3346
377.93	88.6411	377.93	88.3497	377.93	88.6928	377.93	87.8484	377.93	88.4884	377.93	87.1765	377.93	88.0267	377.93	86.378	377.93	87.323	377.93	85.4956	377.93	86.4097	377.93	84.5678	377.93	85.3351	377.93	83.6325	377.93	84.1589	377.93	82.7365	377.93	82.9456	377.93	81.9464	377.93	81.7616	377.93	81.3427	377.93	80.6814	377.93	80.9819	377.93	79.795	377.93	80.8465	377.93	79.2028	377.93	80.8425	377.93	78.9799	377.93	80.855	377.93	79.1099	377.93	80.8093	377.93	79.4538	377.93	80.6926	377.93	79.8312	377.93	80.5334	377.93	80.1334	377.93	80.3537
407.227	88.1703	407.227	88.0188	407.227	88.0249	407.227	87.6061	407.227	87.5754	407.227	86.9936	407.227	86.8528	407.227	86.2628	407.227	85.9377	407.227	85.5019	407.227	84.9625	407.227	84.7812	407.227	84.0648	407.227	84.1286	407.227	83.2939	407.227	83.5247	407.227	82.5626	407.227	82.9245	407.227	81.7228	407.227	82.291	407.227	80.6897	407.227	81.6273	407.227	79.5353	407.227	80.9968	407.227	78.5327	407.227	80.513	407.227	78.0543	407.227	80.2732	407.227	78.2422	407.227	80.2712	407.227	78.8537	407.227	80.3874	407.227	79.5399	407.227	80.4664	407.227	80.0789	407.227	80.3861
436.523	88.121	436.523	87.5788	436.523	88.361	436.523	86.778	436.523	88.2631	436.523	85.7735	436.523	87.7976	436.523	84.6416	436.523	86.9416	436.523	83.4939	436.523	85.6879	436.523	82.4841	436.523	84.0809	436.523	81.771	436.523	82.3233	436.523	81.4262	436.523	80.9301	436.523	81.3806	436.523	80.4613	436.523	81.4893	436.523	80.7145	436.523	81.6306	436.523	80.994	436.523	81.7365	436.523	80.9025	436.523	81.7649	436.523	80.4206	436.523	81.6637	436.523	79.7492	436.523	81.3662	436.523	79.1444	436.523	80.8273	436.523	78.7966	436.523	80.0873	436.523	78.8432	436.523	79.3311
465.82	88.6878	465.82	88.3891	465.82	88.789	465.82	87.8745	465.82	88.722	465.82	87.1493	465.82	88.508	465.82	86.2509	465.82	88.1411	465.82	85.2514	465.82	87.5781	465.82	84.242	465.82	86.7362	465.82	83.2848	465.82	85.493	465.82	82.3493	465.82	83.6858	465.82	81.2957	465.82	81.1544	465.82	79.9523	465.82	78.0713	465.82	78.3422	465.82	76.0921	465.82	77.2141	465.82	76.77	465.82	77.7918	465.82	78.05	465.82	79.4472	465.82	78.7481	465.82	80.8229	465.82	78.9749	465.82	81.4493	465.82	79.1908	465.82	81.3241	465.82	79.7802	465.82	80.6413
500.977	88.1919	500.977	87.8879	500.977	88.2113	500.977	87.2849	500.977	87.9849	500.977	86.3907	500.977	87.5712	500.977	85.2368	500.977	87.0315	500.977	83.8931	500.977	86.3995	500.977	82.5003	500.977	85.6566	500.977	81.2929	500.977	84.7291	500.977	80.5104	500.977	83.5192	500.977	80.1779	500.977	81.9662	500.977	80.0689	500.977	80.1282	500.977	79.9557	500.977	78.2299	500.977	79.8098	500.977	76.6193	500.977	79.7888	500.977	75.7037	500.977	80.0088	500.977	75.6965	500.977	80.3185	500.977	76.2853	500.977	80.4092	500.977	77.1305	500.977	80.0603	500.977	78.1703	500.977	79.249
536.133	88.8436	536.133	88.4474	536.133	88.9783	536.133	87.8089	536.133	88.8447	536.133	86.957	536.133	88.4444	536.133	85.9247	536.133	87.7776	536.133	84.7478	536.133	86.8327	536.133	83.476	536.133	85.5805	536.133	82.1971	536.133	83.9803	536.133	81.0546	536.133	82.0226	536.133	80.209	536.133	79.9057	536.133	79.7299	536.133	78.4199	536.133	79.5395	536.133	78.4763	536.133	79.5008	536.133	79.4545	536.133	79.5259	536.133	80.301	536.133	79.5955	536.133	80.7021	536.133	79.7222	536.133	80.7734	536.133	79.917	536.133	80.7101	536.133	80.1646	536.133	80.5944	536.133	80.4103
574.219	88.5075	574.219	88.3305	574.219	88.5095	574.219	87.8936	574.219	88.4416	574.219	87.172	574.219	88.3495	574.219	86.201	574.219	88.1656	574.219	85.0642	574.219	87.7325	574.219	83.881	574.219	86.8523	574.219	82.7908	574.219	85.2984	574.219	81.9054	574.219	82.8444	574.219	81.2242	574.219	79.6428	574.219	80.5959	574.219	77.5047	574.219	79.8152	574.219	77.5452	574.219	78.8308	574.219	77.5038	574.219	77.9959	574.219	77.1443	574.219	77.9133	574.219	77.4795	574.219	78.4775	574.219	78.0835	574.219	78.966	574.219	78.3177	574.219	79.0024	574.219	78.4156	574.219	78.6988
615.234	88.7053	615.234	88.3127	615.234	88.8043	615.234	87.6227	615.234	88.6616	615.234	86.6867	615.234	88.3464	615.234	85.5951	615.234	87.8985	615.234	84.4464	615.234	87.2867	615.234	83.3209	615.234	86.3866	615.234	82.2861	615.234	84.9639	615.234	81.4074	615.234	82.6438	615.234	80.7052	615.234	78.9602	615.234	80.0859	615.234	75.0942	615.234	79.3975	615.234	76.3306	615.234	78.6556	615.234	78.2549	615.234	78.2446	615.234	78.3064	615.234	78.538	615.234	77.2479	615.234	79.1834	615.234	76.632	615.234	79.5356	615.234	77.028	615.234	79.3057	615.234	77.7722	615.234	78.605
659.18	89.1269	659.18	88.7835	659.18	89.112	659.18	88.0651	659.18	88.8437	659.18	87.0237	659.18	88.4886	659.18	85.7421	659.18	88.1718	659.18	84.301	659.18	87.8519	659.18	82.7905	659.18	87.2859	659.18	81.391	659.18	86.0695	659.18	80.4016	659.18	83.6261	659.18	79.9743	659.18	79.1157	659.18	79.8495	659.18	74.0628	659.18	79.6389	659.18	76.6433	659.18	79.211	659.18	78.3605	659.18	78.7899	659.18	78.1587	659.18	78.7169	659.18	77.9968	659.18	78.9584	659.18	78.4651	659.18	79.1461	659.18	78.7626	659.18	79.0784	659.18	78.7964	659.18	78.8852
706.055	88.3769	706.055	88.1885	706.055	88.4299	706.055	87.8402	706.055	88.35	706.055	87.2993	706.055	88.1189	706.055	86.5375	706.055	87.7011	706.055	85.5212	706.055	87.0427	706.055	84.2143	706.055	86.0735	706.055	82.6602	706.055	84.6757	706.055	81.1895	706.055	82.5852	706.055	80.4209	706.055	79.2817	706.055	80.3795	706.055	74.8583	706.055	80.2222	706.055	75.396	706.055	79.299	706.055	78.1889	706.055	77.8141	706.055	78.5236	706.055	77.1995	706.055	76.9295	706.055	77.9338	706.055	75.8681	706.055	78.4453	706.055	76.3837	706.055	78.0276	706.055	76.7077	706.055	77.1499
758.789	88.2715	758.789	88.2569	758.789	87.9977	758.789	87.9591	758.789	87.5204	758.789	87.4094	758.789	87.0503	758.789	86.6438	758.789	86.817	758.789	85.7102	758.789	86.8249	758.789	84.636	758.789	86.745	758.789	83.3591	758.789	86.0425	758.789	81.716	758.789	83.9915	758.789	79.5465	758.789	79.2542	758.789	77.1021	758.789	71.8326	758.789	75.7604	758.789	76.8424	758.789	76.1341	758.789	78.2915	758.789	76.6901	758.789	75.9765	758.789	76.9375	758.789	73.4664	758.789	77.3946	758.789	73.8621	758.789	78.0433	758.789	74.7596	758.789	78.161	758.789	76.0198	758.789	77.3841
811.523	88.4977	811.523	88.5836	811.523	88.2289	811.523	88.2872	811.523	88.0292	811.523	87.6001	811.523	87.9758	811.523	86.6867	811.523	87.9219	811.523	85.7498	811.523	87.6323	811.523	84.8534	811.523	86.87	811.523	83.8822	811.523	85.4009	811.523	82.735	811.523	83.0326	811.523	81.6511	811.523	79.7708	811.523	81.1492	811.523	76.0786	811.523	81.0636	811.523	75.2647	811.523	80.5208	811.523	78.623	811.523	79.0559	811.523	80.223	811.523	77.4031	811.523	79.1261	811.523	77.2897	811.523	77.154	811.523	77.9378	811.523	76.9683	811.523	77.7591	811.523	76.933	811.523	77.0144
870.117	88.8278	870.117	89.2062	870.117	88.3621	870.117	89.3576	870.117	87.9984	870.117	89.19	870.117	87.8835	870.117	88.6348	870.117	87.9411	870.117	87.6481	870.117	87.8501	870.117	86.2205	870.117	87.274	870.117	84.3717	870.117	85.9842	870.117	82.2832	870.117	83.8499	870.117	80.7228	870.117	81.0508	870.117	80.5681	870.117	78.7472	870.117	81.0562	870.117	78.5229	870.117	81.0308	870.117	78.8562	870.117	80.2439	870.117	77.6656	870.117	79.2523	870.117	74.7266	870.117	79.0128	870.117	72.3414	870.117	79.3839	870.117	73.5066	870.117	79.2686	870.117	76.009	870.117	78.1129
931.641	89.4076	931.641	89.8511	931.641	88.7133	931.641	89.8777	931.641	88.0841	931.641	89.4487	931.641	87.8515	931.641	88.6097	931.641	88.0555	931.641	87.4508	931.641	88.329	931.641	86.0461	931.641	88.1003	931.641	84.4137	931.641	86.7167	931.641	82.5486	931.641	83.1904	931.641	80.5095	931.641	74.4317	931.641	78.5051	931.641	69.3709	931.641	76.8707	931.641	76.9768	931.641	76.1015	931.641	77.8633	931.641	76.684	931.641	77.7083	931.641	78.0674	931.641	77.2305	931.641	79.2216	931.641	76.1914	931.641	79.6981	931.641	76.1493	931.641	79.4874	931.641	77.4203	931.641	78.6935
999.023	89.3515	999.023	89.8515	999.023	88.6248	999.023	89.8696	999.023	88.0315	999.023	89.2685	999.023	87.8254	999.023	88.0235	999.023	87.9049	999.023	86.2785	999.023	87.9936	999.023	84.4594	999.023	87.8442	999.023	83.2766	999.023	87.1358	999.023	83.1154	999.023	85.4924	999.023	83.2822	999.023	82.7541	999.023	82.8721	999.023	78.9273	999.023	81.5697	999.023	72.794	999.023	79.5101	999.023	74.7251	999.023	77.2141	999.023	79.6585	999.023	76.2814	999.023	80.1439	999.023	77.7401	999.023	77.8959	999.023	79.4193	999.023	76.4273	999.023	79.9921	999.023	77.8049	999.023	79.3562
1,072.27	88.0245	1,072.27	89.1776	1,072.27	86.7202	1,072.27	89.7373	1,072.27	86.0218	1,072.27	89.4872	1,072.27	86.5023	1,072.27	88.387	1,072.27	87.7673	1,072.27	86.6845	1,072.27	88.944	1,072.27	84.9803	1,072.27	89.3495	1,072.27	83.782	1,072.27	88.3409	1,072.27	82.7905	1,072.27	84.8003	1,072.27	81.2095	1,072.27	75.2786	1,072.27	78.6574	1,072.27	74.5478	1,072.27	75.5442	1,072.27	78.4499	1,072.27	72.996	1,072.27	77.2786	1,072.27	73.845	1,072.27	76.8797	1,072.27	77.234	1,072.27	76.5651	1,072.27	79.3287	1,072.27	73.0085	1,072.27	79.3417	1,072.27	68.1261	1,072.27	77.666	1,072.27	72.2795	1,072.27	75.3034
1,148.44	87.8353	1,148.44	88.9418	1,148.44	86.7647	1,148.44	89.4872	1,148.44	86.3822	1,148.44	89.2421	1,148.44	86.7225	1,148.44	88.2431	1,148.44	87.3563	1,148.44	86.6687	1,148.44	87.9346	1,148.44	84.789	1,148.44	88.1448	1,148.44	83.0399	1,148.44	87.5964	1,148.44	82.004	1,148.44	85.6863	1,148.44	81.49	1,148.44	81.2549	1,148.44	80.413	1,148.44	70.8023	1,148.44	78.004	1,148.44	66.7091	1,148.44	74.3663	1,148.44	71.9084	1,148.44	73.0009	1,148.44	71.9481	1,148.44	75.4355	1,148.44	70.7016	1,148.44	77.2016	1,148.44	68.2651	1,148.44	77.947	1,148.44	69.3395	1,148.44	77.9915	1,148.44	74.0063	1,148.44	76.8954
1,230.47	88.3878	1,230.47	89.0874	1,230.47	87.2095	1,230.47	89.15	1,230.47	86.2311	1,230.47	88.6415	1,230.47	86.695	1,230.47	87.767	1,230.47	88.0345	1,230.47	86.5348	1,230.47	88.4286	1,230.47	84.7999	1,230.47	87.9242	1,230.47	82.5323	1,230.47	87.3532	1,230.47	79.8795	1,230.47	85.6739	1,230.47	77.5044	1,230.47	82.2082	1,230.47	76.7415	1,230.47	75.4249	1,230.47	77.0951	1,230.47	63.1759	1,230.47	76.8319	1,230.47	72.8108	1,230.47	75.5369	1,230.47	73.0871	1,230.47	75.4286	1,230.47	73.4806	1,230.47	77.1902	1,230.47	74.0276	1,230.47	77.8346	1,230.47	71.8124	1,230.47	77.2586	1,230.47	72.9107	1,230.47	75.8933
1,318.36	88.1997	1,318.36	88.8882	1,318.36	87.2506	1,318.36	88.8147	1,318.36	86.9721	1,318.36	88.2367	1,318.36	86.893	1,318.36	87.2794	1,318.36	86.9933	1,318.36	85.7333	1,318.36	87.9614	1,318.36	83.7206	1,318.36	88.4326	1,318.36	82.0076	1,318.36	87.1988	1,318.36	80.8538	1,318.36	84.8585	1,318.36	79.4032	1,318.36	80.359	1,318.36	76.8443	1,318.36	71.7301	1,318.36	73.2013	1,318.36	74.9483	1,318.36	71.1346	1,318.36	72.2025	1,318.36	72.4475	1,318.36	70.751	1,318.36	74.1946	1,318.36	73.1183	1,318.36	75.5031	1,318.36	71.7869	1,318.36	76.7547	1,318.36	69.6996	1,318.36	77.2465	1,318.36	71.7819	1,318.36	75.5818
1,415.04	86.632	1,415.04	87.5304	1,415.04	86.3876	1,415.04	88.2622	1,415.04	86.4245	1,415.04	88.1161	1,415.04	86.6728	1,415.04	87.1028	1,415.04	87.1428	1,415.04	85.6866	1,415.04	87.1484	1,415.04	84.2023	1,415.04	87.1653	1,415.04	82.3992	1,415.04	86.5981	1,415.04	80.1625	1,415.04	83.2334	1,415.04	78.4436	1,415.04	77.0324	1,415.04	77.764	1,415.04	72.9333	1,415.04	76.9761	1,415.04	70.5833	1,415.04	74.9713	1,415.04	73.1442	1,415.04	72.0228	1,415.04	72.7397	1,415.04	72.5945	1,415.04	71.0922	1,415.04	74.7767	1,415.04	72.982	1,415.04	75.8405	1,415.04	71.1864	1,415.04	75.9723	1,415.04	71.1357	1,415.04	74.7223
1,514.65	86.7534	1,514.65	86.8774	1,514.65	86.5598	1,514.65	86.9279	1,514.65	86.3422	1,514.65	86.9503	1,514.65	85.8712	1,514.65	86.7136	1,514.65	85.8416	1,514.65	85.777	1,514.65	86.6772	1,514.65	84.0512	1,514.65	86.614	1,514.65	82.0512	1,514.65	85.8768	1,514.65	80.2057	1,514.65	84.7058	1,514.65	77.9833	1,514.65	80.1288	1,514.65	75.0507	1,514.65	73.5396	1,514.65	73.0454	1,514.65	74.5034	1,514.65	72.3256	1,514.65	74.722	1,514.65	71.4741	1,514.65	73.1796	1,514.65	72.5474	1,514.65	71.6102	1,514.65	74.2905	1,514.65	71.2111	1,514.65	75.2733	1,514.65	69.7119	1,514.65	75.584	1,514.65	70.7548	1,514.65	74.235
1,623.05	86.5801	1,623.05	86.2388	1,623.05	86.6044	1,623.05	85.8671	1,623.05	85.825	1,623.05	85.5964	1,623.05	84.6991	1,623.05	85.4003	1,623.05	83.8132	1,623.05	84.932	1,623.05	84.1324	1,623.05	83.7737	1,623.05	85.7941	1,623.05	81.7489	1,623.05	86.0459	1,623.05	79.2011	1,623.05	84.9925	1,623.05	76.3717	1,623.05	79.6774	1,623.05	73.7487	1,623.05	70.9778	1,623.05	73.4714	1,623.05	73.1259	1,623.05	73.114	1,623.05	70.7265	1,623.05	70.6453	1,623.05	72.4797	1,623.05	71.7887	1,623.05	65.4527	1,623.05	73.4299	1,623.05	68.2122	1,623.05	73.2521	1,623.05	70.7877	1,623.05	74.0566	1,623.05	72.3555	1,623.05	74.3034
1,740.23	86.0068	1,740.23	85.1772	1,740.23	86.0785	1,740.23	84.7523	1,740.23	84.5971	1,740.23	84.8259	1,740.23	82.3357	1,740.23	84.4273	1,740.23	81.8903	1,740.23	83.0734	1,740.23	82.7107	1,740.23	81.1439	1,740.23	84.2633	1,740.23	79.4486	1,740.23	85.0204	1,740.23	77.7597	1,740.23	83.3969	1,740.23	75.5315	1,740.23	78.8084	1,740.23	73.4359	1,740.23	67.0716	1,740.23	71.745	1,740.23	69.9054	1,740.23	69.5581	1,740.23	68.4689	1,740.23	67.8981	1,740.23	69.5241	1,740.23	69.6652	1,740.23	69.2278	1,740.23	72.2714	1,740.23	68.0481	1,740.23	72.9823	1,740.23	68.3773	1,740.23	72.4069	1,740.23	69.4022	1,740.23	71.3926
1,866.21	86.1529	1,866.21	85.186	1,866.21	85.7504	1,866.21	83.5252	1,866.21	83.5487	1,866.21	82.0792	1,866.21	79.854	1,866.21	81.5368	1,866.21	78.1809	1,866.21	80.7996	1,866.21	80.414	1,866.21	79.7293	1,866.21	82.9041	1,866.21	78.0902	1,866.21	84.3387	1,866.21	76.5267	1,866.21	82.3285	1,866.21	75.689	1,866.21	75.9018	1,866.21	73.2306	1,866.21	71.8981	1,866.21	70.3264	1,866.21	69.5198	1,866.21	71.0777	1,866.21	68.0254	1,866.21	68.7825	1,866.21	63.6599	1,866.21	68.3494	1,866.21	67.161	1,866.21	71.1304	1,866.21	62.561	1,866.21	69.9625	1,866.21	67.7911	1,866.21	67.826	1,866.21	69.0986	1,866.21	68.524
2,000.98	86.2314	2,000.98	85.7042	2,000.98	85.11	2,000.98	83.3658	2,000.98	81.9608	2,000.98	79.1826	2,000.98	77.9991	2,000.98	77.582	2,000.98	76.9062	2,000.98	79.0737	2,000.98	79.228	2,000.98	79.6049	2,000.98	82.018	2,000.98	78.2247	2,000.98	84.2361	2,000.98	75.9254	2,000.98	82.9672	2,000.98	74.7543	2,000.98	75.3228	2,000.98	73.4889	2,000.98	68.4737	2,000.98	72.1026	2,000.98	68.6694	2,000.98	72.0786	2,000.98	68.183	2,000.98	69.7742	2,000.98	61.1	2,000.98	67.4749	2,000.98	63.3643	2,000.98	70.6112	2,000.98	58.6364	2,000.98	70.0682	2,000.98	69.3107	2,000.98	66.4099	2,000.98	68.9779	2,000.98	64.8839
2,144.53	87.22	2,144.53	86.7343	2,144.53	85.7707	2,144.53	83.1863	2,144.53	81.8604	2,144.53	72.4123	2,144.53	75.6825	2,144.53	74.3756	2,144.53	74.421	2,144.53	78.9168	2,144.53	77.2468	2,144.53	80.5339	2,144.53	80.9123	2,144.53	80.4903	2,144.53	83.8081	2,144.53	79.0138	2,144.53	82.9894	2,144.53	77.6768	2,144.53	75.5151	2,144.53	76.873	2,144.53	63.3816	2,144.53	74.4686	2,144.53	67.1751	2,144.53	72.0044	2,144.53	69.0557	2,144.53	70.6607	2,144.53	58.7608	2,144.53	67.512	2,144.53	56.9267	2,144.53	70.528	2,144.53	55.8533	2,144.53	69.9146	2,144.53	68.0707	2,144.53	66.033	2,144.53	70.2026	2,144.53	65.7968
2,296.88	87.1537	2,296.88	86.9857	2,296.88	85.1462	2,296.88	83.0111	2,296.88	80.9937	2,296.88	72.0072	2,296.88	70.466	2,296.88	77.6274	2,296.88	74.1249	2,296.88	82.2106	2,296.88	79.2467	2,296.88	82.7519	2,296.88	81.7686	2,296.88	81.4644	2,296.88	84.6547	2,296.88	79.5079	2,296.88	84.8441	2,296.88	77.5429	2,296.88	79.0499	2,296.88	76.6604	2,296.88	65.9091	2,296.88	73.981	2,296.88	61.4006	2,296.88	72.3643	2,296.88	66.0648	2,296.88	72.0305	2,296.88	65.5587	2,296.88	68.5999	2,296.88	51.0164	2,296.88	70.6639	2,296.88	55.3408	2,296.88	68.7638	2,296.88	67.2485	2,296.88	59.9417	2,296.88	70.9357	2,296.88	64.3854
2,460.94	88.1377	2,460.94	87.6851	2,460.94	86.2623	2,460.94	83.9914	2,460.94	82.2701	2,460.94	78.4334	2,460.94	71.7821	2,460.94	81.96	2,460.94	78.334	2,460.94	84.3167	2,460.94	82.239	2,460.94	83.7233	2,460.94	83.3757	2,460.94	82.6372	2,460.94	85.1488	2,460.94	79.5772	2,460.94	84.6882	2,460.94	76.2254	2,460.94	77.6162	2,460.94	77.3603	2,460.94	68.3073	2,460.94	74.9957	2,460.94	70.7075	2,460.94	71.5234	2,460.94	66.5682	2,460.94	72.796	2,460.94	68.2004	2,460.94	65.5184	2,460.94	54.8201	2,460.94	68.1288	2,460.94	62.7364	2,460.94	67.5916	2,460.94	69.2136	2,460.94	58.109	2,460.94	73.3417	2,460.94	65.2288
2,639.65	88.2269	2,639.65	87.7297	2,639.65	86.9038	2,639.65	84.7705	2,639.65	83.6797	2,639.65	83.0084	2,639.65	80.2736	2,639.65	84.9014	2,639.65	82.528	2,639.65	85.2362	2,639.65	83.9484	2,639.65	84.0914	2,639.65	84.9057	2,639.65	82.2118	2,639.65	85.7339	2,639.65	80.1482	2,639.65	83.9414	2,639.65	78.4226	2,639.65	78.2746	2,639.65	77.9271	2,639.65	68.6923	2,639.65	75.1666	2,639.65	71.965	2,639.65	71.7288	2,639.65	69.6834	2,639.65	72.8958	2,639.65	68.2396	2,639.65	67.5854	2,639.65	62.6151	2,639.65	70.13	2,639.65	64.5441	2,639.65	69.1342	2,639.65	70.4396	2,639.65	62.7895	2,639.65	73.0198	2,639.65	65.7514
2,827.15	88.4737	2,827.15	87.9891	2,827.15	87.288	2,827.15	86.2936	2,827.15	86.1017	2,827.15	85.6722	2,827.15	85.042	2,827.15	85.6537	2,827.15	85.1055	2,827.15	85.5219	2,827.15	85.1738	2,827.15	84.6183	2,827.15	83.955	2,827.15	81.9528	2,827.15	85.2856	2,827.15	80.0656	2,827.15	86.2339	2,827.15	78.4523	2,827.15	80.774	2,827.15	77.0773	2,827.15	69.5119	2,827.15	75.3189	2,827.15	65.3582	2,827.15	71.2063	2,827.15	70.2879	2,827.15	72.8733	2,827.15	70.3811	2,827.15	69.3266	2,827.15	68.8509	2,827.15	67.7764	2,827.15	61.5774	2,827.15	67.8965	2,827.15	72.1921	2,827.15	62.6812	2,827.15	71.2747	2,827.15	65.1183
3,032.23	88.1764	3,032.23	88.1375	3,032.23	87.1078	3,032.23	87.4776	3,032.23	87.2984	3,032.23	86.4801	3,032.23	87.7282	3,032.23	86.0375	3,032.23	86.5558	3,032.23	85.6751	3,032.23	84.5588	3,032.23	84.1296	3,032.23	83.1514	3,032.23	81.3526	3,032.23	84.2035	3,032.23	80.1743	3,032.23	84.3604	3,032.23	78.2058	3,032.23	78.1614	3,032.23	76.4909	3,032.23	69.9655	3,032.23	75.9343	3,032.23	67.6798	3,032.23	71.4268	3,032.23	69.8616	3,032.23	72.3398	3,032.23	69.5287	3,032.23	68.6246	3,032.23	70.2843	3,032.23	68.0359	3,032.23	61.2252	3,032.23	69.885	3,032.23	70.7543	3,032.23	62.6616	3,032.23	69.1874	3,032.23	63.3463
3,249.02	87.0982	3,249.02	88.1907	3,249.02	86.1098	3,249.02	87.8984	3,249.02	87.8684	3,249.02	86.2553	3,249.02	88.5596	3,249.02	85.7423	3,249.02	86.5768	3,249.02	85.3643	3,249.02	84.0581	3,249.02	84.5885	3,249.02	81.9167	3,249.02	81.8005	3,249.02	82.9094	3,249.02	79.9494	3,249.02	84.9443	3,249.02	77.2494	3,249.02	81.1296	3,249.02	75.9388	3,249.02	64.9016	3,249.02	75.4174	3,249.02	68.1125	3,249.02	71.1448	3,249.02	71.0092	3,249.02	71.8879	3,249.02	67.6754	3,249.02	68.5452	3,249.02	70.1204	3,249.02	68.9371	3,249.02	58.6178	3,249.02	70.4624	3,249.02	69.5587	3,249.02	63.5706	3,249.02	67.1639	3,249.02	59.6689
3,483.4	86.8435	3,483.4	88.2761	3,483.4	85.248	3,483.4	87.0548	3,483.4	87.2773	3,483.4	85.1236	3,483.4	88.2196	3,483.4	85.5691	3,483.4	86.1678	3,483.4	85.834	3,483.4	83.2915	3,483.4	84.3564	3,483.4	81.3098	3,483.4	82.0604	3,483.4	81.193	3,483.4	79.7913	3,483.4	82.7991	3,483.4	76.6451	3,483.4	81.1952	3,483.4	75.0237	3,483.4	63.6219	3,483.4	74.4018	3,483.4	70.3645	3,483.4	71.6195	3,483.4	70.8868	3,483.4	70.7468	3,483.4	66.4187	3,483.4	68.2277	3,483.4	69.0932	3,483.4	67.333	3,483.4	55.1698	3,483.4	69.7961	3,483.4	68.0703	3,483.4	65.4389	3,483.4	64.0913	3,483.4	54.8098
3,732.42	86.4579	3,732.42	87.8199	3,732.42	84.0659	3,732.42	85.8925	3,732.42	86.8797	3,732.42	84.9488	3,732.42	87.5272	3,732.42	85.4884	3,732.42	85.3203	3,732.42	84.9538	3,732.42	82.1415	3,732.42	83.4767	3,732.42	81.3594	3,732.42	79.9229	3,732.42	79.7835	3,732.42	76.9218	3,732.42	82.0956	3,732.42	74.4187	3,732.42	80.4806	3,732.42	72.7059	3,732.42	62.9393	3,732.42	73.0006	3,732.42	62.3963	3,732.42	70.3029	3,732.42	68.5043	3,732.42	68.4401	3,732.42	63.3588	3,732.42	67.1724	3,732.42	68.0058	3,732.42	65.8104	3,732.42	52.0824	3,732.42	68.8323	3,732.42	63.1582	3,732.42	67.0964	3,732.42	62.2364	3,732.42	56.9936
3,999.02	86.531	3,999.02	87.2485	3,999.02	83.2013	3,999.02	85.3101	3,999.02	86.1767	3,999.02	84.9917	3,999.02	87.0894	3,999.02	84.7001	3,999.02	84.4352	3,999.02	83.7017	3,999.02	81.4507	3,999.02	81.8854	3,999.02	80.2297	3,999.02	79.9895	3,999.02	79.6457	3,999.02	77.2966	3,999.02	79.5091	3,999.02	75.9427	3,999.02	75.8285	3,999.02	72.7626	3,999.02	52.6973	3,999.02	72.7139	3,999.02	61.4811	3,999.02	70.3935	3,999.02	66.6589	3,999.02	69.2426	3,999.02	57.5114	3,999.02	68.1678	3,999.02	68.3186	3,999.02	67.3068	3,999.02	56.3004	3,999.02	70.3453	3,999.02	60.0102	3,999.02	67.4759	3,999.02	63.731	3,999.02	56.6286
4,286.13	87.1989	4,286.13	87.013	4,286.13	83.7219	4,286.13	84.9794	4,286.13	85.2303	4,286.13	84.1754	4,286.13	85.9763	4,286.13	84.2022	4,286.13	83.6678	4,286.13	83.1739	4,286.13	81.3033	4,286.13	82.8633	4,286.13	80.8215	4,286.13	81.2809	4,286.13	79.7437	4,286.13	79.4494	4,286.13	78.8619	4,286.13	76.6789	4,286.13	75.2493	4,286.13	73.6626	4,286.13	59.1991	4,286.13	71.8465	4,286.13	67.3971	4,286.13	70.2979	4,286.13	62.9603	4,286.13	65.6284	4,286.13	62.743	4,286.13	68.2517	4,286.13	64.2825	4,286.13	62.2276	4,286.13	55.8283	4,286.13	69.0663	4,286.13	64.0303	4,286.13	66.7115	4,286.13	61.1603	4,286.13	58.9052
4,593.75	87.8209	4,593.75	86.8775	4,593.75	85.4684	4,593.75	84.7548	4,593.75	85.1657	4,593.75	84.5386	4,593.75	86.0186	4,593.75	83.7858	4,593.75	83.6349	4,593.75	83.8396	4,593.75	81.3859	4,593.75	81.7099	4,593.75	79.6995	4,593.75	79.2533	4,593.75	80.1735	4,593.75	76.3883	4,593.75	81.4068	4,593.75	73.0737	4,593.75	78.6937	4,593.75	70.8368	4,593.75	62.5336	4,593.75	70.7383	4,593.75	65.1453	4,593.75	68.5638	4,593.75	60.8351	4,593.75	65.6966	4,593.75	62.0186	4,593.75	67.7721	4,593.75	64.8467	4,593.75	55.7299	4,593.75	59.6709	4,593.75	68.1454	4,593.75	59.7911	4,593.75	65.624	4,593.75	56.3646	4,593.75	60.0031
4,924.8	88.0109	4,924.8	86.8222	4,924.8	86.4455	4,924.8	85.3065	4,924.8	85.2192	4,924.8	84.118	4,924.8	85.0961	4,924.8	84.255	4,924.8	83.2463	4,924.8	82.9502	4,924.8	80.8458	4,924.8	80.4103	4,924.8	78.9243	4,924.8	79.2275	4,924.8	79.3634	4,924.8	77.1505	4,924.8	81.3266	4,924.8	74.7584	4,924.8	77.8355	4,924.8	71.9614	4,924.8	66.5334	4,924.8	70.5512	4,924.8	59.6314	4,924.8	68.0477	4,924.8	56.5141	4,924.8	65.5337	4,924.8	63.9533	4,924.8	68.948	4,924.8	60.2873	4,924.8	58.676	4,924.8	58.6265	4,924.8	65.8721	4,924.8	57.4768	4,924.8	66.8406	4,924.8	53.8214	4,924.8	57.2297
5,279.3	87.1497	5,279.3	86.9409	5,279.3	86.6197	5,279.3	84.54	5,279.3	85.3025	5,279.3	83.999	5,279.3	84.0866	5,279.3	83.3949	5,279.3	83.2631	5,279.3	82.3392	5,279.3	79.9451	5,279.3	80.9303	5,279.3	78.6619	5,279.3	79.0097	5,279.3	79.3575	5,279.3	74.9369	5,279.3	78.1545	5,279.3	72.904	5,279.3	75.8035	5,279.3	69.5748	5,279.3	63.157	5,279.3	69.3626	5,279.3	56.2342	5,279.3	67.3688	5,279.3	53.951	5,279.3	60.3819	5,279.3	63.8003	5,279.3	66.8564	5,279.3	60.0988	5,279.3	55.4193	5,279.3	62.3537	5,279.3	62.1171	5,279.3	51.0277	5,279.3	59.3025	5,279.3	52.6948	5,279.3	59.5001
5,657.23	86.9186	5,657.23	86.9231	5,657.23	86.0263	5,657.23	83.9775	5,657.23	85.32	5,657.23	84.0203	5,657.23	83.5149	5,657.23	82.1753	5,657.23	83.6564	5,657.23	83.0266	5,657.23	80.8222	5,657.23	79.7772	5,657.23	78.5005	5,657.23	77.4525	5,657.23	79.0415	5,657.23	74.5113	5,657.23	78.0039	5,657.23	72.1951	5,657.23	76.2051	5,657.23	69.7489	5,657.23	66.3192	5,657.23	68.3101	5,657.23	34.175	5,657.23	67.9012	5,657.23	58.7146	5,657.23	60.5291	5,657.23	63.7516	5,657.23	64.9031	5,657.23	58.6792	5,657.23	60.083	5,657.23	60.9876	5,657.23	60.7156	5,657.23	58.3964	5,657.23	63.0222	5,657.23	46.6288	5,657.23	58.819
6,061.52	87.0338	6,061.52	86.2968	6,061.52	85.7809	6,061.52	85.0898	6,061.52	86.4125	6,061.52	82.6448	6,061.52	83.2589	6,061.52	83.1509	6,061.52	83.0361	6,061.52	82.6719	6,061.52	82.4774	6,061.52	81.1719	6,061.52	78.3203	6,061.52	79.8458	6,061.52	79.3014	6,061.52	76.0322	6,061.52	75.3023	6,061.52	74.1634	6,061.52	75.9387	6,061.52	70.5634	6,061.52	64.9762	6,061.52	69.4272	6,061.52	61.407	6,061.52	67.7247	6,061.52	58.6122	6,061.52	60.5029	6,061.52	61.8414	6,061.52	66.6856	6,061.52	58.6102	6,061.52	60.7896	6,061.52	59.7693	6,061.52	59.6941	6,061.52	57.6459	6,061.52	58.1542	6,061.52	56.184	6,061.52	57.444
6,498.05	86.5951	6,498.05	85.8781	6,498.05	86.2941	6,498.05	85.099	6,498.05	86.9732	6,498.05	84.712	6,498.05	84.1214	6,498.05	83.1366	6,498.05	83.6776	6,498.05	83.3762	6,498.05	83.3866	6,498.05	81.2919	6,498.05	79.0735	6,498.05	79.519	6,498.05	77.9314	6,498.05	77.0942	6,498.05	71.3864	6,498.05	72.9517	6,498.05	69.7898	6,498.05	71.8957	6,498.05	62.1786	6,498.05	68.5202	6,498.05	58.2186	6,498.05	65.8438	6,498.05	59.8699	6,498.05	61.6341	6,498.05	61.223	6,498.05	66.5435	6,498.05	60.8724	6,498.05	60.6269	6,498.05	57.6634	6,498.05	62.7378	6,498.05	43.8598	6,498.05	60.1421	6,498.05	54.6317	6,498.05	58.4338
6,963.87	85.8408	6,963.87	85.2853	6,963.87	86.1788	6,963.87	85.8914	6,963.87	86.518	6,963.87	85.2151	6,963.87	85.1216	6,963.87	82.9626	6,963.87	84.1877	6,963.87	82.8572	6,963.87	83.3736	6,963.87	81.0263	6,963.87	78.4831	6,963.87	79.2042	6,963.87	75.7833	6,963.87	75.2764	6,963.87	75.8597	6,963.87	72.3745	6,963.87	67.4616	6,963.87	68.7655	6,963.87	66.1242	6,963.87	67.2127	6,963.87	61.2971	6,963.87	63.8637	6,963.87	58.7267	6,963.87	59.4956	6,963.87	56.6342	6,963.87	63.5471	6,963.87	58.1034	6,963.87	59.985	6,963.87	51.9983	6,963.87	60.2616	6,963.87	44.927	6,963.87	55.2802	6,963.87	50.173	6,963.87	57.6741
7,464.84	85.6384	7,464.84	84.9852	7,464.84	86.0946	7,464.84	86.8122	7,464.84	86.1744	7,464.84	84.6582	7,464.84	85.0744	7,464.84	83.0976	7,464.84	84.2687	7,464.84	82.5734	7,464.84	82.6998	7,464.84	79.8794	7,464.84	78.1713	7,464.84	77.5929	7,464.84	73.7483	7,464.84	73.83	7,464.84	76.4005	7,464.84	70.5898	7,464.84	74.4286	7,464.84	68.5894	7,464.84	63.0865	7,464.84	65.2257	7,464.84	59.3918	7,464.84	65.057	7,464.84	56.7895	7,464.84	56.549	7,464.84	49.8059	7,464.84	59.1935	7,464.84	57.8144	7,464.84	58.6313	7,464.84	60.3288	7,464.84	59.489	7,464.84	54.0991	7,464.84	58.1154	7,464.84	51.9427	7,464.84	54.489
8,000.98	85.9637	8,000.98	86.377	8,000.98	85.9284	8,000.98	86.7484	8,000.98	86.3237	8,000.98	85.141	8,000.98	84.8445	8,000.98	82.9639	8,000.98	84.1243	8,000.98	82.4589	8,000.98	81.1554	8,000.98	79.4197	8,000.98	79.9768	8,000.98	75.6513	8,000.98	72.3031	8,000.98	72.9009	8,000.98	69.141	8,000.98	68.1001	8,000.98	71.2231	8,000.98	66.5466	8,000.98	55.3661	8,000.98	64.9679	8,000.98	45.256	8,000.98	62.6094	8,000.98	49.9298	8,000.98	59.7956	8,000.98	52.5096	8,000.98	60.0993	8,000.98	56.6944	8,000.98	62.1323	8,000.98	45.5819	8,000.98	60.0858	8,000.98	48.1765	8,000.98	56.0223	8,000.98	45.9495	8,000.98	50.7177
8,575.2	86.8667	8,575.2	86.7992	8,575.2	86.327	8,575.2	86.5043	8,575.2	86.9636	8,575.2	84.626	8,575.2	85.1189	8,575.2	82.9879	8,575.2	83.6505	8,575.2	81.75	8,575.2	81.2948	8,575.2	78.8237	8,575.2	79.9219	8,575.2	75.7798	8,575.2	72.9369	8,575.2	72.8913	8,575.2	70.3974	8,575.2	68.6008	8,575.2	65.3718	8,575.2	66.2838	8,575.2	53.6493	8,575.2	64.1893	8,575.2	56.9084	8,575.2	61.8976	8,575.2	49.4789	8,575.2	56.7928	8,575.2	49.4095	8,575.2	56.3296	8,575.2	54.0274	8,575.2	63.0874	8,575.2	54.3604	8,575.2	60.8494	8,575.2	51.4909	8,575.2	52.5862	8,575.2	52.8905	8,575.2	55.1997
9,190.43	86.9233	9,190.43	86.8476	9,190.43	86.0989	9,190.43	86.1702	9,190.43	87.1315	9,190.43	85.2398	9,190.43	85.1319	9,190.43	82.5546	9,190.43	83.9674	9,190.43	81.0905	9,190.43	81.5743	9,190.43	78.977	9,190.43	77.8055	9,190.43	75.4331	9,190.43	73.5944	9,190.43	72.7541	9,190.43	72.0651	9,190.43	68.1371	9,190.43	66.9451	9,190.43	64.8311	9,190.43	50.8823	9,190.43	60.7302	9,190.43	59.5599	9,190.43	60.0497	9,190.43	53.411	9,190.43	55.6818	9,190.43	49.5381	9,190.43	58.3275	9,190.43	47.1983	9,190.43	53.0619	9,190.43	54.1394	9,190.43	58.2913	9,190.43	54.8044	9,190.43	52.5382	9,190.43	48.696	9,190.43	50.2941
9,849.61	87.0766	9,849.61	86.8474	9,849.61	86.7881	9,849.61	86.3748	9,849.61	86.7365	9,849.61	85.0414	9,849.61	85.0716	9,849.61	82.2396	9,849.61	83.5571	9,849.61	80.6836	9,849.61	80.735	9,849.61	78.7406	9,849.61	76.8265	9,849.61	73.7537	9,849.61	74.2545	9,849.61	70.0561	9,849.61	69.3583	9,849.61	64.7015	9,849.61	60.5195	9,849.61	62.7941	9,849.61	45.284	9,849.61	55.224	9,849.61	50.2926	9,849.61	59.4175	9,849.61	48.8965	9,849.61	50.755	9,849.61	50.3267	9,849.61	55.6067	9,849.61	38.8147	9,849.61	50.8607	9,849.61	35.9349	9,849.61	56.0764	9,849.61	51.1719	9,849.61	47.8968	9,849.61	46.8119	9,849.61	52.8461
10,555.7	87.577	10,555.7	86.9378	10,555.7	87.1807	10,555.7	86.5471	10,555.7	86.5069	10,555.7	84.0975	10,555.7	84.894	10,555.7	81.3856	10,555.7	82.4628	10,555.7	80.3785	10,555.7	80.6681	10,555.7	77.4166	10,555.7	77.0287	10,555.7	71.1725	10,555.7	70.0871	10,555.7	67.0736	10,555.7	65.4785	10,555.7	62.8176	10,555.7	59.4139	10,555.7	58.1324	10,555.7	24.2244	10,555.7	54.9999	10,555.7	30.0773	10,555.7	52.6201	10,555.7	46.5923	10,555.7	57.7649	10,555.7	51.9859	10,555.7	51.0434	10,555.7	51.1471	10,555.7	55.3227	10,555.7	51.0959	10,555.7	47.4219	10,555.7	36.2525	10,555.7	39.6082	10,555.7	42.2439	10,555.7	48.8437
11,314.5	87.7765	11,314.5	86.6734	11,314.5	87.482	11,314.5	86.8788	11,314.5	86.7651	11,314.5	84.2576	11,314.5	84.9673	11,314.5	81.4529	11,314.5	82.5962	11,314.5	78.8895	11,314.5	79.4293	11,314.5	76.361	11,314.5	74.6463	11,314.5	71.5674	11,314.5	70.6953	11,314.5	66.9225	11,314.5	63.4461	11,314.5	63.3484	11,314.5	50.5227	11,314.5	58.4479	11,314.5	46.5586	11,314.5	53.6957	11,314.5	44.0026	11,314.5	50.8928	11,314.5	48.3675	11,314.5	57.7909	11,314.5	52.1702	11,314.5	53.6918	11,314.5	51.1033	11,314.5	49.9201	11,314.5	50.8956	11,314.5	56.0548	11,314.5	48.8413	11,314.5	47.7021	11,314.5	45.8506	11,314.5	35.4101
12,126	87.5397	12,126	87.0322	12,126	87.0707	12,126	86.7018	12,126	86.6182	12,126	84.2287	12,126	84.7097	12,126	80.8196	12,126	82.2881	12,126	77.3998	12,126	77.7333	12,126	75.5731	12,126	73.0388	12,126	70.7707	12,126	68.7655	12,126	65.313	12,126	65.2133	12,126	60.8853	12,126	47.3604	12,126	56.3092	12,126	47.3	12,126	54.243	12,126	46.9082	12,126	43.2406	12,126	44.1262	12,126	59.2708	12,126	49.0491	12,126	50.928	12,126	49.3649	12,126	47.7818	12,126	49.631	12,126	49.9139	12,126	47.2375	12,126	40.9354	12,126	43.3115	12,126	48.7814
12,996.1	87.6492	12,996.1	86.8742	12,996.1	87.3541	12,996.1	86.002	12,996.1	86.1641	12,996.1	83.7312	12,996.1	84.0709	12,996.1	80.1494	12,996.1	80.7962	12,996.1	76.561	12,996.1	77.1632	12,996.1	73.9441	12,996.1	73.6613	12,996.1	69.8895	12,996.1	68.1656	12,996.1	63.9953	12,996.1	62.4603	12,996.1	60.0942	12,996.1	51.8404	12,996.1	57.4472	12,996.1	30.458	12,996.1	51.61	12,996.1	46.7793	12,996.1	52.2633	12,996.1	21.3266	12,996.1	54.1476	12,996.1	43.1546	12,996.1	55.7507	12,996.1	46.9457	12,996.1	48.8896	12,996.1	48.3358	12,996.1	55.4709	12,996.1	44.0164	12,996.1	38.5885	12,996.1	37.7942	12,996.1	47.652
13,927.7	87.54	13,927.7	86.9583	13,927.7	87.1151	13,927.7	85.4787	13,927.7	85.9325	13,927.7	82.7372	13,927.7	83.3872	13,927.7	79.5081	13,927.7	80.2501	13,927.7	75.7823	13,927.7	75.392	13,927.7	72.7747	13,927.7	70.7412	13,927.7	69.2862	13,927.7	67.2645	13,927.7	64.5319	13,927.7	61.2022	13,927.7	59.7731	13,927.7	50.5823	13,927.7	55.7372	13,927.7	46.3089	13,927.7	47.4355	13,927.7	47.9629	13,927.7	38.3291	13,927.7	42.0914	13,927.7	57.2664	13,927.7	43.2021	13,927.7	55.5531	13,927.7	41.8688	13,927.7	49.6606	13,927.7	41.1007	13,927.7	53.2613	13,927.7	40.4283	13,927.7	36.5266	13,927.7	32.3235	13,927.7	48.8801
14,929.7	87.6639	14,929.7	86.4343	14,929.7	86.8491	14,929.7	85.1364	14,929.7	85.6615	14,929.7	82.1685	14,929.7	83.1691	14,929.7	79.3913	14,929.7	79.6027	14,929.7	74.9584	14,929.7	75.0819	14,929.7	72.1489	14,929.7	70.5701	14,929.7	67.8983	14,929.7	64.9401	14,929.7	64.9826	14,929.7	57.6829	14,929.7	58.6479	14,929.7	52.458	14,929.7	58.1929	14,929.7	29.5529	14,929.7	51.6061	14,929.7	46.3543	14,929.7	50.3746	14,929.7	40.8211	14,929.7	46.5041	14,929.7	41.6249	14,929.7	51.2397	14,929.7	39.4399	14,929.7	51.9848	14,929.7	34.8204	14,929.7	52.7192	14,929.7	43.2163	14,929.7	24.9488	14,929.7	22.984	14,929.7	48.9122
15,999	87.7454	15,999	86.3012	15,999	86.7087	15,999	84.976	15,999	85.4339	15,999	82.1779	15,999	82.6045	15,999	78.6273	15,999	79.3498	15,999	74.5506	15,999	74.4644	15,999	70.2781	15,999	69.4224	15,999	68.0415	15,999	63.8916	15,999	65.5253	15,999	52.9159	15,999	60.326	15,999	54.9552	15,999	56.4279	15,999	44.4681	15,999	51.5912	15,999	44.7862	15,999	43.0087	15,999	43.8355	15,999	52.4326	15,999	48.5697	15,999	53.9577	15,999	42.5964	15,999	51.6048	15,999	29.9816	15,999	30.2433	15,999	35.3131	15,999	49.4994	15,999	39.2146	15,999	48.8755
17,147.5	87.3813	17,147.5	86.1197	17,147.5	86.4578	17,147.5	84.9907	17,147.5	85.4443	17,147.5	81.4994	17,147.5	82.2526	17,147.5	78.3612	17,147.5	78.2666	17,147.5	73.8559	17,147.5	73.8331	17,147.5	69.3498	17,147.5	68.9989	17,147.5	65.7375	17,147.5	63.8925	17,147.5	62.3819	17,147.5	58.197	17,147.5	58.1715	17,147.5	55.9356	17,147.5	52.6042	17,147.5	55.2622	17,147.5	49.446	17,147.5	52.3187	17,147.5	43.7943	17,147.5	49.3604	17,147.5	49.4061	17,147.5	53.2628	17,147.5	52.7091	17,147.5	46.1633	17,147.5	51.6399	17,147.5	33.2602	17,147.5	43.847	17,147.5	40.9848	17,147.5	48.1868	17,147.5	44.98	17,147.5	45.5383
18,377.9	86.6192	18,377.9	85.7941	18,377.9	86.1353	18,377.9	84.4194	18,377.9	84.9197	18,377.9	79.9601	18,377.9	81.4353	18,377.9	77.0636	18,377.9	77.1051	18,377.9	72.1637	18,377.9	70.576	18,377.9	66.5819	18,377.9	65.0108	18,377.9	62.434	18,377.9	60.1614	18,377.9	59.3968	18,377.9	60.3084	18,377.9	55.9428	18,377.9	55.235	18,377.9	47.7539	18,377.9	57.2918	18,377.9	47.0874	18,377.9	49.918	18,377.9	36.644	18,377.9	47.0787	18,377.9	45.1276	18,377.9	52.7192	18,377.9	51.6989	18,377.9	47.646	18,377.9	49.8055	18,377.9	38.2271	18,377.9	44.07	18,377.9	40.1069	18,377.9	45.7259	18,377.9	43.0029	18,377.9	45.4384
19,699.2	85.2411	19,699.2	84.5725	19,699.2	85.0951	19,699.2	82.3211	19,699.2	82.8532	19,699.2	79.5348	19,699.2	80.0001	19,699.2	75.3492	19,699.2	75.9023	19,699.2	70.115	19,699.2	67.993	19,699.2	65.3512	19,699.2	63.0963	19,699.2	61.7477	19,699.2	58.1649	19,699.2	59.1267	19,699.2	59.1146	19,699.2	56.0882	19,699.2	55.2424	19,699.2	39.2891	19,699.2	54.6836	19,699.2	50.1647	19,699.2	44.1874	19,699.2	39.1177	19,699.2	44.058	19,699.2	35.3764	19,699.2	44.8144	19,699.2	44.2901	19,699.2	40.5156	19,699.2	52.0446	19,699.2	39.364	19,699.2	44.0027	19,699.2	28.2785	19,699.2	49.264	19,699.2	43.3214	19,699.2	48.7265
19,998	84.7363	19,998	84.082	19,998	84.9555	19,998	81.3029	19,998	82.2964	19,998	79.2028	19,998	79.9915	19,998	74.4072	19,998	74.5001	19,998	68.6391	19,998	68.4101	19,998	63.9491	19,998	65.4269	19,998	62.5573	19,998	62.0045	19,998	58.7733	19,998	61.3117	19,998	56.8829	19,998	57.487	19,998	41.5311	19,998	48.0927	19,998	49.1363	19,998	47.039	19,998	46.5994	19,998	44.8052	19,998	45.7971	19,998	33.7771	19,998	47.8078	19,998	44.1925	19,998	49.6541	19,998	48.1667	19,998	55.7649	19,998	44.201	19,998	45.9356	19,998	46.5751	19,998	51.4444
