"SPL Vertical"																																																																							
"On-Axis"		"10°"		"-10°"		"20°"		"-20°"		"30°"		"-30°"		"40°"		"-40°"		"50°"		"-50°"		"60°"		"-60°"		"70°"		"-70°"		"80°"		"-80°"		"90°"		"-90°"		"100°"		"-100°"		"110°"		"-110°"		"120°"		"-120°"		"130°"		"-130°"		"140°"		"-140°"		"150°"		"-150°"		"160°"		"-160°"		"170°"		"-170°"		"180°"	
"Frequency [Hz]"	"Sound Pessure Level [dB]  / [2.83V 1m] "	"Frequency [Hz]"	"Sound Pessure Level [dB]  / [2.83V 1m] "	"Frequency [Hz]"	"Sound Pessure Level [dB]  / [2.83V 1m] "	"Frequency [Hz]"	"Sound Pessure Level [dB]  / [2.83V 1m] "	"Frequency [Hz]"	"Sound Pessure Level [dB]  / [2.83V 1m] "	"Frequency [Hz]"	"Sound Pessure Level [dB]  / [2.83V 1m] "	"Frequency [Hz]"	"Sound Pessure Level [dB]  / [2.83V 1m] "	"Frequency [Hz]"	"Sound Pessure Level [dB]  / [2.83V 1m] "	"Frequency [Hz]"	"Sound Pessure Level [dB]  / [2.83V 1m] "	"Frequency [Hz]"	"Sound Pessure Level [dB]  / [2.83V 1m] "	"Frequency [Hz]"	"Sound Pessure Level [dB]  / [2.83V 1m] "	"Frequency [Hz]"	"Sound Pessure Level [dB]  / [2.83V 1m] "	"Frequency [Hz]"	"Sound Pessure Level [dB]  / [2.83V 1m] "	"Frequency [Hz]"	"Sound Pessure Level [dB]  / [2.83V 1m] "	"Frequency [Hz]"	"Sound Pessure Level [dB]  / [2.83V 1m] "	"Frequency [Hz]"	"Sound Pessure Level [dB]  / [2.83V 1m] "	"Frequency [Hz]"	"Sound Pessure Level [dB]  / [2.83V 1m] "	"Frequency [Hz]"	"Sound Pessure Level [dB]  / [2.83V 1m] "	"Frequency [Hz]"	"Sound Pessure Level [dB]  / [2.83V 1m] "	"Frequency [Hz]"	"Sound Pessure Level [dB]  / [2.83V 1m] "	"Frequency [Hz]"	"Sound Pessure Level [dB]  / [2.83V 1m] "	"Frequency [Hz]"	"Sound Pessure Level [dB]  / [2.83V 1m] "	"Frequency [Hz]"	"Sound Pessure Level [dB]  / [2.83V 1m] "	"Frequency [Hz]"	"Sound Pessure Level [dB]  / [2.83V 1m] "	"Frequency [Hz]"	"Sound Pessure Level [dB]  / [2.83V 1m] "	"Frequency [Hz]"	"Sound Pessure Level [dB]  / [2.83V 1m] "	"Frequency [Hz]"	"Sound Pessure Level [dB]  / [2.83V 1m] "	"Frequency [Hz]"	"Sound Pessure Level [dB]  / [2.83V 1m] "	"Frequency [Hz]"	"Sound Pessure Level [dB]  / [2.83V 1m] "	"Frequency [Hz]"	"Sound Pessure Level [dB]  / [2.83V 1m] "	"Frequency [Hz]"	"Sound Pessure Level [dB]  / [2.83V 1m] "	"Frequency [Hz]"	"Sound Pessure Level [dB]  / [2.83V 1m] "	"Frequency [Hz]"	"Sound Pessure Level [dB]  / [2.83V 1m] "	"Frequency [Hz]"	"Sound Pessure Level [dB]  / [2.83V 1m] "	"Frequency [Hz]"	"Sound Pessure Level [dB]  / [2.83V 1m] "	"Frequency [Hz]"	"Sound Pessure Level [dB]  / [2.83V 1m] "
20.5078	69.9045	20.5078	69.7801	20.5078	70.0059	20.5078	69.6371	20.5078	70.0794	20.5078	69.4802	20.5078	70.1211	20.5078	69.3139	20.5078	70.1273	20.5078	69.1423	20.5078	70.0956	20.5078	68.9694	20.5078	70.0251	20.5078	68.799	20.5078	69.9166	20.5078	68.6346	20.5078	69.7731	20.5078	68.4796	20.5078	69.5996	20.5078	68.3373	20.5078	69.403	20.5078	68.2107	20.5078	69.1916	20.5078	68.1028	20.5078	68.9746	20.5078	68.0167	20.5078	68.7613	20.5078	67.9552	20.5078	68.5603	20.5078	67.921	20.5078	68.379	20.5078	67.9164	20.5078	68.2233	20.5078	67.9436	20.5078	68.0974	20.5078	68.0038
23.4375	72.9706	23.4375	72.8393	23.4375	73.0837	23.4375	72.6944	23.4375	73.1741	23.4375	72.5405	23.4375	73.2373	23.4375	72.382	23.4375	73.2697	23.4375	72.223	23.4375	73.2684	23.4375	72.0673	23.4375	73.2319	23.4375	71.9184	23.4375	73.1601	23.4375	71.7796	23.4375	73.0551	23.4375	71.6538	23.4375	72.9204	23.4375	71.5437	23.4375	72.7615	23.4375	71.4519	23.4375	72.5853	23.4375	71.3805	23.4375	72.3992	23.4375	71.3314	23.4375	72.2113	23.4375	71.3063	23.4375	72.0289	23.4375	71.3066	23.4375	71.8585	23.4375	71.3333	23.4375	71.7056	23.4375	71.3869	23.4375	71.5743	23.4375	71.4675
26.3672	75.0677	26.3672	74.9269	26.3672	75.1925	26.3672	74.7749	26.3672	75.2967	26.3672	74.6162	26.3672	75.3755	26.3672	74.4554	26.3672	75.425	26.3672	74.2965	26.3672	75.4419	26.3672	74.1433	26.3672	75.424	26.3672	73.9994	26.3672	75.3707	26.3672	73.868	26.3672	75.2831	26.3672	73.752	26.3672	75.164	26.3672	73.6539	26.3672	75.0182	26.3672	73.576	26.3672	74.852	26.3672	73.5202	26.3672	74.6726	26.3672	73.4881	26.3672	74.4877	26.3672	73.4807	26.3672	74.3046	26.3672	73.4989	26.3672	74.1301	26.3672	73.5431	26.3672	73.9699	26.3672	73.6133	26.3672	73.8284	26.3672	73.7088
29.2969	76.8629	29.2969	76.7077	29.2969	77.0054	29.2969	76.5448	29.2969	77.1301	29.2969	76.379	29.2969	77.2321	29.2969	76.2148	29.2969	77.307	29.2969	76.0564	29.2969	77.3508	29.2969	75.9078	29.2969	77.3606	29.2969	75.7725	29.2969	77.3349	29.2969	75.6536	29.2969	77.2738	29.2969	75.5538	29.2969	77.179	29.2969	75.4755	29.2969	77.0544	29.2969	75.4204	29.2969	76.9052	29.2969	75.3898	29.2969	76.7379	29.2969	75.3846	29.2969	76.5597	29.2969	75.4051	29.2969	76.3778	29.2969	75.4512	29.2969	76.1991	29.2969	75.5223	29.2969	76.0294	29.2969	75.6175	29.2969	75.8735	29.2969	75.7353
32.2266	78.6199	32.2266	78.4502	32.2266	78.7801	32.2266	78.2759	32.2266	78.9253	32.2266	78.1022	32.2266	79.0501	32.2266	77.9336	32.2266	79.1496	32.2266	77.7744	32.2266	79.219	32.2266	77.6285	32.2266	79.2546	32.2266	77.4993	32.2266	79.254	32.2266	77.3898	32.2266	79.2159	32.2266	77.3026	32.2266	79.1413	32.2266	77.2396	32.2266	79.0328	32.2266	77.2022	32.2266	78.8948	32.2266	77.1914	32.2266	78.7335	32.2266	77.2074	32.2266	78.5558	32.2266	77.25	32.2266	78.3692	32.2266	77.3188	32.2266	78.1811	32.2266	77.4125	32.2266	77.998	32.2266	77.5297	32.2266	77.8255	32.2266	77.6683
35.1563	80.1378	35.1563	79.9549	35.1563	80.3136	35.1563	79.7705	35.1563	80.4768	35.1563	79.5896	35.1563	80.6216	35.1563	79.4171	35.1563	80.7426	35.1563	79.2571	35.1563	80.8344	35.1563	79.1136	35.1563	80.8926	35.1563	78.9901	35.1563	80.9139	35.1563	78.8893	35.1563	80.8963	35.1563	78.8136	35.1563	80.8398	35.1563	78.7647	35.1563	80.7461	35.1563	78.7436	35.1563	80.619	35.1563	78.7509	35.1563	80.464	35.1563	78.7863	35.1563	80.2879	35.1563	78.8493	35.1563	80.0983	35.1563	78.9388	35.1563	79.9028	35.1563	79.0531	35.1563	79.7085	35.1563	79.1902	35.1563	79.5217	35.1563	79.3475
38.0859	81.5352	38.0859	81.3405	38.0859	81.7252	38.0859	81.1468	38.0859	81.9044	38.0859	80.9592	38.0859	82.0667	38.0859	80.7828	38.0859	82.2062	38.0859	80.6218	38.0859	82.317	38.0859	80.4803	38.0859	82.3941	38.0859	80.3616	38.0859	82.4334	38.0859	80.2683	38.0859	82.4321	38.0859	80.2025	38.0859	82.3896	38.0859	80.1655	38.0859	82.3068	38.0859	80.1582	38.0859	82.1872	38.0859	80.1805	38.0859	82.0359	38.0859	80.2319	38.0859	81.8598	38.0859	80.3114	38.0859	81.6664	38.0859	80.4175	38.0859	81.4639	38.0859	80.5481	38.0859	81.2599	38.0859	80.7011	38.0859	81.0611	38.0859	80.8733
41.0156	82.7288	41.0156	82.5259	41.0156	82.9285	41.0156	82.3259	41.0156	83.1187	41.0156	82.134	41.0156	83.2932	41.0156	81.9555	41.0156	83.4453	41.0156	81.7948	41.0156	83.5689	41.0156	81.6558	41.0156	83.6585	41.0156	81.5418	41.0156	83.7095	41.0156	81.4552	41.0156	83.7189	41.0156	81.3979	41.0156	83.6853	41.0156	81.3709	41.0156	83.6096	41.0156	81.3746	41.0156	83.4949	41.0156	81.4085	41.0156	83.3464	41.0156	81.4717	41.0156	83.1709	41.0156	81.5627	41.0156	82.9763	41.0156	81.6798	41.0156	82.7709	41.0156	81.8207	41.0156	82.5624	41.0156	81.9828	41.0156	82.3578	41.0156	82.1631
43.9453	83.9274	43.9453	83.7146	43.9453	84.1379	43.9453	83.5057	43.9453	84.3397	43.9453	83.3066	43.9453	84.5258	43.9453	83.1224	43.9453	84.6894	43.9453	82.9578	43.9453	84.824	43.9453	82.8166	43.9453	84.9234	43.9453	82.7021	43.9453	84.9827	43.9453	82.6168	43.9453	84.9982	43.9453	82.5622	43.9453	84.9683	43.9453	82.5392	43.9453	84.8937	43.9453	82.5479	43.9453	84.7773	43.9453	82.5876	43.9453	84.6245	43.9453	82.6572	43.9453	84.4423	43.9453	82.7551	43.9453	84.2394	43.9453	82.8794	43.9453	84.0244	43.9453	83.0279	43.9453	83.806	43.9453	83.1983	43.9453	83.5916	43.9453	83.3874
46.875	84.8796	46.875	84.6626	46.875	85.0961	46.875	84.4514	46.875	85.3051	46.875	84.2519	46.875	85.4998	46.875	84.0694	46.875	85.6729	46.875	83.9085	46.875	85.8176	46.875	83.7731	46.875	85.9275	46.875	83.6663	46.875	85.9972	46.875	83.5902	46.875	86.023	46.875	83.5462	46.875	86.0028	46.875	83.5345	46.875	85.937	46.875	83.5548	46.875	85.8284	46.875	83.6061	46.875	85.6821	46.875	83.6867	46.875	85.5051	46.875	83.7947	46.875	85.3059	46.875	83.9279	46.875	85.0931	46.875	84.0839	46.875	84.8754	46.875	84.2601	46.875	84.6601	46.875	84.4534
49.8047	85.8012	49.8047	85.5783	49.8047	86.0238	49.8047	85.362	49.8047	86.2392	49.8047	85.1583	49.8047	86.4399	49.8047	84.9727	49.8047	86.6186	49.8047	84.8102	49.8047	86.7681	49.8047	84.6745	49.8047	86.8817	49.8047	84.5689	49.8047	86.954	49.8047	84.4953	49.8047	86.981	49.8047	84.4548	49.8047	86.9605	49.8047	84.4475	49.8047	86.8931	49.8047	84.4725	49.8047	86.7818	49.8047	84.5285	49.8047	86.632	49.8047	84.6133	49.8047	86.4513	49.8047	84.7248	49.8047	86.2485	49.8047	84.8606	49.8047	86.0329	49.8047	85.0182	49.8047	85.8131	49.8047	85.1953	49.8047	85.5966	49.8047	85.3892
52.7344	86.5665	52.7344	86.3415	52.7344	86.7923	52.7344	86.1239	52.7344	87.0114	52.7344	85.9202	52.7344	87.2163	52.7344	85.7357	52.7344	87.3995	52.7344	85.5754	52.7344	87.5535	52.7344	85.4431	52.7344	87.6715	52.7344	85.3416	52.7344	87.7476	52.7344	85.2729	52.7344	87.7776	52.7344	85.2375	52.7344	87.7594	52.7344	85.2353	52.7344	87.6934	52.7344	85.2651	52.7344	87.5825	52.7344	85.3251	52.7344	87.4326	52.7344	85.4131	52.7344	87.2513	52.7344	85.5267	52.7344	87.0479	52.7344	85.6634	52.7344	86.832	52.7344	85.821	52.7344	86.6124	52.7344	85.9974	52.7344	86.3966	52.7344	86.1902
55.6641	87.1745	55.6641	86.9477	55.6641	87.403	55.6641	86.7297	55.6641	87.6256	55.6641	86.5268	55.6641	87.8347	55.6641	86.3447	55.6641	88.0223	55.6641	86.1883	55.6641	88.1806	55.6641	86.0612	55.6641	88.3027	55.6641	85.9661	55.6641	88.3825	55.6641	85.9044	55.6641	88.4156	55.6641	85.8765	55.6641	88.3997	55.6641	85.8815	55.6641	88.3352	55.6641	85.9178	55.6641	88.2252	55.6641	85.9831	55.6641	88.0758	55.6641	86.0748	55.6641	87.895	55.6641	86.1902	55.6641	87.6926	55.6641	86.327	55.6641	87.4783	55.6641	86.483	55.6641	87.2612	55.6641	86.6566	55.6641	87.0486	55.6641	86.8459
58.5938	87.7118	58.5938	87.4803	58.5938	87.9454	58.5938	87.2583	58.5938	88.1734	58.5938	87.0524	58.5938	88.3876	58.5938	86.8686	58.5938	88.5798	58.5938	86.7118	58.5938	88.7422	58.5938	86.5857	58.5938	88.8674	58.5938	86.4929	58.5938	88.9491	58.5938	86.4346	58.5938	88.9827	58.5938	86.4106	58.5938	88.9658	58.5938	86.4199	58.5938	88.899	58.5938	86.4603	58.5938	88.7857	58.5938	86.529	58.5938	88.6321	58.5938	86.6231	58.5938	88.4471	58.5938	86.7397	58.5938	88.2408	58.5938	86.8765	58.5938	88.0237	58.5938	87.0315	58.5938	87.8052	58.5938	87.2034	58.5938	87.5926	58.5938	87.391
61.5234	88.1813	61.5234	87.9438	61.5234	88.4205	61.5234	87.7156	61.5234	88.6534	61.5234	87.5035	61.5234	88.8719	61.5234	87.3136	61.5234	89.0674	61.5234	87.151	61.5234	89.2319	61.5234	87.0195	61.5234	89.3578	61.5234	86.9217	61.5234	89.4385	61.5234	86.859	61.5234	89.4692	61.5234	86.8311	61.5234	89.4475	61.5234	86.8368	61.5234	89.3738	61.5234	86.8739	61.5234	89.2517	61.5234	86.9395	61.5234	89.0878	61.5234	87.0308	61.5234	88.8916	61.5234	87.1448	61.5234	88.6742	61.5234	87.2795	61.5234	88.4469	61.5234	87.4333	61.5234	88.2197	61.5234	87.6054	61.5234	88.0007	61.5234	87.7949
64.4531	88.577	64.4531	88.3365	64.4531	88.8204	64.4531	88.1064	64.4531	89.0583	64.4531	87.8939	64.4531	89.2823	64.4531	87.7048	64.4531	89.4836	64.4531	87.5443	64.4531	89.6538	64.4531	87.4159	64.4531	89.7849	64.4531	87.3221	64.4531	89.8702	64.4531	87.2637	64.4531	89.9045	64.4531	87.2402	64.4531	89.8851	64.4531	87.25	64.4531	89.8124	64.4531	87.2906	64.4531	89.6899	64.4531	87.3591	64.4531	89.5246	64.4531	87.4524	64.4531	89.3262	64.4531	87.5679	64.4531	89.1062	64.4531	87.7033	64.4531	88.8763	64.4531	87.8575	64.4531	88.647	64.4531	88.0297	64.4531	88.4264	64.4531	88.2198
67.3828	88.7497	67.3828	88.5002	67.3828	89.003	67.3828	88.2627	67.3828	89.2514	67.3828	88.0445	67.3828	89.486	67.3828	87.8521	67.3828	89.6975	67.3828	87.6907	67.3828	89.8772	67.3828	87.564	67.3828	90.0167	67.3828	87.4742	67.3828	90.1091	67.3828	87.4218	67.3828	90.1489	67.3828	87.4059	67.3828	90.1333	67.3828	87.4243	67.3828	90.0625	67.3828	87.474	67.3828	89.9402	67.3828	87.5514	67.3828	89.7736	67.3828	87.6531	67.3828	89.5727	67.3828	87.7759	67.3828	89.3493	67.3828	87.9178	67.3828	89.1157	67.3828	88.0773	67.3828	88.8827	67.3828	88.2541	67.3828	88.6584	67.3828	88.448
70.3125	89.0235	70.3125	88.7705	70.3125	89.2801	70.3125	88.5296	70.3125	89.5314	70.3125	88.3086	70.3125	89.7682	70.3125	88.1143	70.3125	89.9814	70.3125	87.9524	70.3125	90.1619	70.3125	87.8266	70.3125	90.3015	70.3125	87.7394	70.3125	90.3933	70.3125	87.6912	70.3125	90.4318	70.3125	87.6807	70.3125	90.4145	70.3125	87.7053	70.3125	90.3418	70.3125	87.7612	70.3125	90.2177	70.3125	87.8445	70.3125	90.0498	70.3125	87.9509	70.3125	89.8487	70.3125	88.0769	70.3125	89.6266	70.3125	88.2199	70.3125	89.3957	70.3125	88.3785	70.3125	89.1668	70.3125	88.5525	70.3125	88.9475	70.3125	88.7422
73.2422	89.3844	73.2422	89.1306	73.2422	89.6415	73.2422	88.8887	73.2422	89.8929	73.2422	88.6665	73.2422	90.1294	73.2422	88.4709	73.2422	90.3417	73.2422	88.3074	73.2422	90.5207	73.2422	88.1801	73.2422	90.6579	73.2422	88.0913	73.2422	90.7462	73.2422	88.0412	73.2422	90.7801	73.2422	88.0285	73.2422	90.7568	73.2422	88.0505	73.2422	90.677	73.2422	88.1032	73.2422	90.5449	73.2422	88.1824	73.2422	90.3687	73.2422	88.2839	73.2422	90.1596	73.2422	88.4041	73.2422	89.9308	73.2422	88.5407	73.2422	89.6954	73.2422	88.6925	73.2422	89.4646	73.2422	88.8601	73.2422	89.2462	73.2422	89.0444
76.1719	89.5614	76.1719	89.3068	76.1719	89.8205	76.1719	89.0652	76.1719	90.0746	76.1719	88.8446	76.1719	90.3144	76.1719	88.652	76.1719	90.5302	76.1719	88.4928	76.1719	90.7127	76.1719	88.3708	76.1719	90.8531	76.1719	88.2878	76.1719	90.944	76.1719	88.2438	76.1719	90.9796	76.1719	88.2368	76.1719	90.9571	76.1719	88.2636	76.1719	90.8768	76.1719	88.32	76.1719	90.7434	76.1719	88.4012	76.1719	90.5652	76.1719	88.503	76.1719	90.354	76.1719	88.6217	76.1719	90.1236	76.1719	88.7551	76.1719	89.8878	76.1719	88.9027	76.1719	89.6581	76.1719	89.0653	76.1719	89.4425	76.1719	89.2448
79.1016	89.6721	79.1016	89.4153	79.1016	89.9349	79.1016	89.1734	79.1016	90.194	79.1016	88.9545	79.1016	90.4395	79.1016	88.7655	79.1016	90.6616	79.1016	88.6116	79.1016	90.8504	79.1016	88.4962	79.1016	90.9967	79.1016	88.4208	79.1016	91.0927	79.1016	88.3846	79.1016	91.1324	79.1016	88.3853	79.1016	91.1127	79.1016	88.4189	79.1016	91.034	79.1016	88.4808	79.1016	90.901	79.1016	88.5661	79.1016	90.7223	79.1016	88.6702	79.1016	90.5102	79.1016	88.7897	79.1016	90.279	79.1016	88.9225	79.1016	90.043	79.1016	89.0682	79.1016	89.8141	79.1016	89.2283	79.1016	89.6002	79.1016	89.405
82.0313	89.7581	82.0313	89.4904	82.0313	90.0313	82.0313	89.2381	82.0313	90.2999	82.0313	89.01	82.0313	90.5533	82.0313	88.8138	82.0313	90.7812	82.0313	88.6552	82.0313	90.9735	82.0313	88.5381	82.0313	91.121	82.0313	88.4637	82.0313	91.2156	82.0313	88.4311	82.0313	91.2516	82.0313	88.4373	82.0313	91.2261	82.0313	88.4776	82.0313	91.1401	82.0313	88.5466	82.0313	90.9987	82.0313	88.6386	82.0313	90.8117	82.0313	88.7483	82.0313	90.5924	82.0313	88.8717	82.0313	90.3558	82.0313	89.0062	82.0313	90.117	82.0313	89.1518	82.0313	89.8878	82.0313	89.3099	82.0313	89.6758	82.0313	89.4835
84.9609	89.7689	84.9609	89.4952	84.9609	90.0484	84.9609	89.2376	84.9609	90.3232	84.9609	89.0052	84.9609	90.5824	84.9609	88.8062	84.9609	90.8153	84.9609	88.6464	84.9609	91.0117	84.9609	88.5296	84.9609	91.1619	84.9609	88.457	84.9609	91.258	84.9609	88.4271	84.9609	91.2937	84.9609	88.4365	84.9609	91.2661	84.9609	88.4799	84.9609	91.1762	84.9609	88.5514	84.9609	91.0291	84.9609	88.6448	84.9609	90.8351	84.9609	88.7546	84.9609	90.6079	84.9609	88.8768	84.9609	90.3638	84.9609	89.0091	84.9609	90.1185	84.9609	89.1517	84.9609	89.8849	84.9609	89.307	84.9609	89.6708	84.9609	89.4788
87.8906	89.7799	87.8906	89.5019	87.8906	90.0641	87.8906	89.2407	87.8906	90.3434	87.8906	89.0062	87.8906	90.6068	87.8906	88.8067	87.8906	90.8434	87.8906	88.6486	87.8906	91.0428	87.8906	88.5356	87.8906	91.1953	87.8906	88.4688	87.8906	91.2927	87.8906	88.4462	87.8906	91.3292	87.8906	88.4639	87.8906	91.3016	87.8906	88.5157	87.8906	91.2111	87.8906	88.5952	87.8906	91.0634	87.8906	88.6954	87.8906	90.8689	87.8906	88.8105	87.8906	90.6421	87.8906	88.936	87.8906	90.3996	87.8906	89.0696	87.8906	90.1573	87.8906	89.2114	87.8906	89.9279	87.8906	89.364	87.8906	89.7187	87.8906	89.5316
90.8203	89.7305	90.8203	89.4452	90.8203	90.0212	90.8203	89.1764	90.8203	90.3056	90.8203	88.9345	90.8203	90.5724	90.8203	88.7286	90.8203	90.8106	90.8203	88.5657	90.8203	91.0092	90.8203	88.45	90.8203	91.1587	90.8203	88.3826	90.8203	91.2507	90.8203	88.3615	90.8203	91.2791	90.8203	88.3819	90.8203	91.241	90.8203	88.4371	90.8203	91.1381	90.8203	88.5196	90.8203	90.9768	90.8203	88.6217	90.8203	90.7687	90.8203	88.7367	90.8203	90.53	90.8203	88.8595	90.8203	90.2789	90.8203	88.9877	90.8203	90.0325	90.8203	89.1216	90.8203	89.8041	90.8203	89.2645	90.8203	89.6005	90.8203	89.4221
93.75	89.796	93.75	89.4971	93.75	90.0998	93.75	89.2149	93.75	90.3964	93.75	88.9605	93.75	90.6742	93.75	88.7437	93.75	90.9217	93.75	88.5721	93.75	91.1281	93.75	88.4504	93.75	91.2834	93.75	88.3799	93.75	91.3792	93.75	88.3585	93.75	91.409	93.75	88.381	93.75	91.3699	93.75	88.4401	93.75	91.2633	93.75	88.5276	93.75	91.0954	93.75	88.6352	93.75	90.8783	93.75	88.7556	93.75	90.6286	93.75	88.8837	93.75	90.3652	93.75	89.0168	93.75	90.1065	93.75	89.1555	93.75	89.8668	93.75	89.3036	93.75	89.6536	93.75	89.4674
96.6797	89.7122	96.6797	89.413	96.6797	90.0158	96.6797	89.13	96.6797	90.312	96.6797	88.8744	96.6797	90.5888	96.6797	88.656	96.6797	90.8348	96.6797	88.4824	96.6797	91.0391	96.6797	88.3582	96.6797	91.1915	96.6797	88.2845	96.6797	91.2832	96.6797	88.2591	96.6797	91.3077	96.6797	88.2767	96.6797	91.2616	96.6797	88.3298	96.6797	91.1461	96.6797	88.4103	96.6797	90.968	96.6797	88.5098	96.6797	90.7395	96.6797	88.6213	96.6797	90.478	96.6797	88.7399	96.6797	90.2037	96.6797	88.8634	96.6797	89.9363	96.6797	88.9931	96.6797	89.6911	96.6797	89.1336	96.6797	89.4762	96.6797	89.2921
102.539	89.525	102.539	89.2045	102.539	89.8495	102.539	88.9012	102.539	90.1648	102.539	88.6279	102.539	90.4584	102.539	88.3962	102.539	90.718	102.539	88.215	102.539	90.9323	102.539	88.0897	102.539	91.0909	102.539	88.0213	102.539	91.1847	102.539	88.0068	102.539	91.2071	102.539	88.0393	102.539	91.155	102.539	88.1095	102.539	91.0301	102.539	88.2074	102.539	90.8399	102.539	88.3228	102.539	90.5981	102.539	88.4474	102.539	90.3239	102.539	88.5753	102.539	90.0395	102.539	88.704	102.539	89.7661	102.539	88.8348	102.539	89.5194	102.539	88.973	102.539	89.3069	102.539	89.1272
105.469	89.4696	105.469	89.1342	105.469	89.8062	105.469	88.8137	105.469	90.1306	105.469	88.5215	105.469	90.4302	105.469	88.2701	105.469	90.6932	105.469	88.0698	105.469	90.9081	105.469	87.9272	105.469	91.0647	105.469	87.8441	105.469	91.1539	105.469	87.8183	105.469	91.1691	105.469	87.8428	105.469	91.1072	105.469	87.9083	105.469	90.9698	105.469	88.0039	105.469	90.7645	105.469	88.1191	105.469	90.5057	105.469	88.2449	105.469	90.2133	105.469	88.3751	105.469	89.9107	105.469	88.5069	105.469	89.6203	105.469	88.6416	105.469	89.3589	105.469	88.7848	105.469	89.1345	105.469	88.9457
108.398	89.6094	108.398	89.2724	108.398	89.9459	108.398	88.9485	108.398	90.269	108.398	88.6515	108.398	90.5661	108.398	88.3939	108.398	90.8255	108.398	88.1864	108.398	91.0361	108.398	88.0361	108.398	91.1877	108.398	87.9458	108.398	91.2712	108.398	87.9135	108.398	91.2801	108.398	87.9328	108.398	91.2113	108.398	87.9944	108.398	91.0665	108.398	88.0874	108.398	90.8537	108.398	88.201	108.398	90.5878	108.398	88.3258	108.398	90.2893	108.398	88.4552	108.398	89.9824	108.398	88.5861	108.398	89.6897	108.398	88.7194	108.398	89.4283	108.398	88.8606	108.398	89.2054	108.398	89.0191
111.328	89.739	111.328	89.4044	111.328	90.0732	111.328	89.0827	111.328	90.3938	111.328	88.7877	111.328	90.6884	111.328	88.5321	111.328	90.9453	111.328	88.3265	111.328	91.1533	111.328	88.1782	111.328	91.302	111.328	88.0898	111.328	91.3823	111.328	88.0592	111.328	91.3876	111.328	88.0802	111.328	91.3146	111.328	88.143	111.328	91.1652	111.328	88.2365	111.328	90.9477	111.328	88.3498	111.328	90.6777	111.328	88.473	111.328	90.3766	111.328	88.5993	111.328	90.0694	111.328	88.7252	111.328	89.7797	111.328	88.8517	111.328	89.5243	111.328	88.9844	111.328	89.3099	111.328	89.1333
117.188	89.7069	117.188	89.3733	117.188	90.0406	117.188	89.0536	117.188	90.3608	117.188	88.7622	117.188	90.6546	117.188	88.5122	117.188	90.9097	117.188	88.3142	117.188	91.1147	117.188	88.1754	117.188	91.2586	117.188	88.0978	117.188	91.3319	117.188	88.0783	117.188	91.3275	117.188	88.1095	117.188	91.2422	117.188	88.1804	117.188	91.0783	117.188	88.279	117.188	90.8455	117.188	88.3932	117.188	90.5611	117.188	88.5126	117.188	90.2498	117.188	88.6296	117.188	89.9394	117.188	88.7405	117.188	89.6558	117.188	88.8466	117.188	89.416	117.188	88.9543	117.188	89.2248	117.188	89.0755
120.117	89.6876	120.117	89.3517	120.117	90.0238	120.117	89.0308	120.117	90.3464	120.117	88.7394	120.117	90.6421	120.117	88.4909	120.117	90.8983	120.117	88.2962	120.117	91.1031	120.117	88.1619	120.117	91.2451	120.117	88.0898	120.117	91.3146	120.117	88.076	120.117	91.3043	120.117	88.1122	120.117	91.2108	120.117	88.1869	120.117	91.0366	120.117	88.2873	120.117	90.792	120.117	88.4007	120.117	90.4957	120.117	88.5166	120.117	90.1739	120.117	88.6272	120.117	89.8569	120.117	88.7287	120.117	89.5722	120.117	88.8224	120.117	89.3375	120.117	88.9158	120.117	89.157	120.117	89.0217
125.977	89.432	125.977	89.0785	125.977	89.7854	125.977	88.7412	125.977	90.1237	125.977	88.4363	125.977	90.4325	125.977	88.1788	125.977	90.6987	125.977	87.9808	125.977	90.9096	125.977	87.8493	125.977	91.0533	125.977	87.7852	125.977	91.1193	125.977	87.7828	125.977	91.0994	125.977	87.8315	125.977	90.9896	125.977	87.9171	125.977	90.792	125.977	88.0244	125.977	90.5173	125.977	88.1394	125.977	90.1863	125.977	88.2501	125.977	89.8289	125.977	88.3483	125.977	89.4808	125.977	88.4308	125.977	89.1754	125.977	88.5002	125.977	88.9342	125.977	88.5663	125.977	88.7618	125.977	88.6462
128.906	89.3166	128.906	88.9479	128.906	89.6843	128.906	88.5947	128.906	90.0352	128.906	88.2741	128.906	90.3552	128.906	88.0021	128.906	90.6306	128.906	87.7916	128.906	90.8489	128.906	87.6503	128.906	90.998	128.906	87.5794	128.906	91.0672	128.906	87.573	128.906	91.048	128.906	87.6199	128.906	90.9358	128.906	87.7052	128.906	90.7324	128.906	87.8132	128.906	90.4481	128.906	87.9292	128.906	90.1032	128.906	88.0409	128.906	89.7282	128.906	88.1404	128.906	89.3597	128.906	88.2246	128.906	89.0331	128.906	88.2969	128.906	88.7723	128.906	88.368	128.906	88.5836	128.906	88.456
134.766	89.3185	134.766	88.9442	134.766	89.6913	134.766	88.5863	134.766	90.0462	134.766	88.2634	134.766	90.3686	134.766	87.993	134.766	90.6449	134.766	87.7893	134.766	90.8625	134.766	87.6606	134.766	91.0095	134.766	87.6075	134.766	91.0755	134.766	87.6229	134.766	91.0522	134.766	87.6936	134.766	90.9356	134.766	87.8027	134.766	90.7285	134.766	87.9327	134.766	90.4424	134.766	88.0674	134.766	90.0998	134.766	88.1936	134.766	89.7334	134.766	88.3024	134.766	89.3813	134.766	88.3897	134.766	89.0787	134.766	88.4581	134.766	88.847	134.766	88.5177	134.766	88.688	134.766	88.5863
137.695	89.14	137.695	88.7577	137.695	89.5201	137.695	88.3921	137.695	89.881	137.695	88.0629	137.695	90.2076	137.695	87.7889	137.695	90.4859	137.695	87.5854	137.695	90.7032	137.695	87.461	137.695	90.8471	137.695	87.4158	137.695	90.9067	137.695	87.4416	137.695	90.8734	137.695	87.5231	137.695	90.743	137.695	87.642	137.695	90.5181	137.695	87.7791	137.695	90.2114	137.695	87.917	137.695	89.8472	137.695	88.0418	137.695	89.4617	137.695	88.1439	137.695	89.0972	137.695	88.2192	137.695	88.7924	137.695	88.2702	137.695	88.5699	137.695	88.3078	137.695	88.4296	137.695	88.3518
143.555	88.8657	143.555	88.4501	143.555	89.275	143.555	88.0488	143.555	89.6601	143.555	87.6838	143.555	90.0054	143.555	87.3772	143.555	90.2968	143.555	87.1474	143.555	90.5211	143.555	87.0052	143.555	90.6658	143.555	86.9517	143.555	90.7191	143.555	86.9774	143.555	90.6716	143.555	87.0648	143.555	90.5181	143.555	87.1921	143.555	90.2604	143.555	87.3372	143.555	89.9111	143.555	87.4803	143.555	89.4964	143.555	87.6057	143.555	89.0567	143.555	87.7027	143.555	88.6415	143.555	87.767	143.555	88.2978	143.555	87.8017	143.555	88.0544	143.555	87.8199	143.555	87.9117	143.555	87.8453
149.414	88.678	149.414	88.2234	149.414	89.1195	149.414	87.7778	149.414	89.5296	149.414	87.3662	149.414	89.8929	149.414	87.0149	149.414	90.1958	149.414	86.7471	149.414	90.4256	149.414	86.5779	149.414	90.57	149.414	86.5102	149.414	90.6172	149.414	86.5339	149.414	90.5573	149.414	86.6284	149.414	90.3839	149.414	86.7679	149.414	90.0981	149.414	86.9263	149.414	89.7118	149.414	87.0807	149.414	89.2518	149.414	87.2131	149.414	88.7613	149.414	87.3119	149.414	88.2957	149.414	87.3726	149.414	87.9101	149.414	87.399	149.414	87.6394	149.414	87.4062	149.414	87.486	149.414	87.4222
155.273	88.7777	155.273	88.3046	155.273	89.2288	155.273	87.8295	155.273	89.6419	155.273	87.3762	155.273	90.0037	155.273	86.9715	155.273	90.3023	155.273	86.6416	155.273	90.5262	155.273	86.4069	155.273	90.6636	155.273	86.2765	155.273	90.7027	155.273	86.2457	155.273	90.6328	155.273	86.2971	155.273	90.4466	155.273	86.4053	155.273	90.1433	155.273	86.5429	155.273	89.7324	155.273	86.685	155.273	89.2383	155.273	86.812	155.273	88.7027	155.273	86.9109	155.273	88.1816	155.273	86.977	155.273	87.7336	155.273	87.015	155.273	87.4011	155.273	87.0418	155.273	87.1936	155.273	87.0876
158.203	88.9169	158.203	88.4543	158.203	89.3585	158.203	87.9902	158.203	89.7636	158.203	87.5478	158.203	90.1192	158.203	87.1531	158.203	90.4135	158.203	86.8317	158.203	90.6353	158.203	86.6033	158.203	90.7727	158.203	86.4772	158.203	90.8141	158.203	86.4488	158.203	90.7488	158.203	86.5015	158.203	90.5695	158.203	86.6107	158.203	90.2755	158.203	86.7496	158.203	89.8766	158.203	86.8938	158.203	89.3974	158.203	87.0241	158.203	88.8793	158.203	87.1276	158.203	88.377	158.203	87.1993	158.203	87.947	158.203	87.2435	158.203	87.6284	158.203	87.2758	158.203	87.4288	158.203	87.3245
164.063	88.8933	164.063	88.4397	164.063	89.3273	164.063	87.9858	164.063	89.7258	164.063	87.5552	164.063	90.0758	164.063	87.174	164.063	90.3652	164.063	86.8681	164.063	90.5824	164.063	86.6578	164.063	90.7151	164.063	86.552	164.063	90.7511	164.063	86.546	164.063	90.6794	164.063	86.6221	164.063	90.4931	164.063	86.7549	164.063	90.1924	164.063	86.9167	164.063	89.7898	164.063	87.082	164.063	89.3139	164.063	87.2304	164.063	88.8115	164.063	87.3477	164.063	88.3416	164.063	87.4265	164.063	87.9606	164.063	87.4682	164.063	87.7012	164.063	87.485	164.063	87.5597	164.063	87.5025
169.922	88.6487	169.922	88.1917	169.922	89.0886	169.922	87.7396	169.922	89.494	169.922	87.3181	169.922	89.8499	169.922	86.9553	169.922	90.1431	169.922	86.6775	169.922	90.361	169.922	86.5033	169.922	90.4903	169.922	86.4386	169.922	90.5181	169.922	86.4741	169.922	90.4328	169.922	86.5881	169.922	90.227	169.922	86.752	169.922	89.9015	169.922	86.9364	169.922	89.4709	169.922	87.1147	169.922	88.9686	169.922	87.2661	169.922	88.4495	169.922	87.3754	169.922	87.9826	169.922	87.4343	169.922	87.6312	169.922	87.4425	169.922	87.4265	169.922	87.4115	169.922	87.3543	169.922	87.3675
175.781	88.4207	175.781	87.9242	175.781	88.8942	175.781	87.4296	175.781	89.3255	175.781	86.9678	175.781	89.6995	175.781	86.5736	175.781	90.0032	175.781	86.2803	175.781	90.2238	175.781	86.1115	175.781	90.3485	175.781	86.0727	175.781	90.3639	175.781	86.1497	175.781	90.258	175.781	86.3128	175.781	90.0225	175.781	86.5253	175.781	89.6581	175.781	86.7515	175.781	89.1806	175.781	86.9613	175.781	88.6278	175.781	87.1314	175.781	88.0637	175.781	87.2458	175.781	87.5704	175.781	87.2952	175.781	87.2228	175.781	87.2788	175.781	87.0533	175.781	87.2079	175.781	87.0368	175.781	87.1107
181.641	88.4881	181.641	87.959	181.641	88.9827	181.641	87.419	181.641	89.4253	181.641	86.8998	181.641	89.8028	181.641	86.4407	181.641	90.1036	181.641	86.0831	181.641	90.3161	181.641	85.8606	181.641	90.4274	181.641	85.7876	181.641	90.424	181.641	85.8532	181.641	90.2924	181.641	86.0246	181.641	90.0231	181.641	86.2583	181.641	89.6151	181.641	86.5112	181.641	89.0834	181.641	86.7467	181.641	88.4678	181.641	86.9374	181.641	87.8392	181.641	87.064	181.641	87.2928	181.641	87.1156	181.641	86.9173	181.641	87.0899	181.641	86.7509	181.641	86.9978	181.641	86.7608	181.641	86.8694
190.43	88.9566	190.43	88.4151	190.43	89.4536	190.43	87.8503	190.43	89.8909	190.43	87.2911	190.43	90.2563	190.43	86.7747	190.43	90.5386	190.43	86.3435	190.43	90.7261	190.43	86.0369	190.43	90.8051	190.43	85.8787	190.43	90.7604	190.43	85.8678	190.43	90.5763	190.43	85.9777	190.43	90.2399	190.43	86.1656	190.43	89.7462	190.43	86.3849	190.43	89.1068	190.43	86.594	190.43	88.3612	190.43	86.7599	190.43	87.5891	190.43	86.8588	190.43	86.9088	190.43	86.8752	190.43	86.4429	190.43	86.804	190.43	86.2509	190.43	86.6546	190.43	86.2918	190.43	86.4609
196.289	89.1163	196.289	88.5664	196.289	89.621	196.289	87.995	196.289	90.0635	196.289	87.4342	196.289	90.4311	196.289	86.9252	196.289	90.7124	196.289	86.5134	196.289	90.8956	196.289	86.2381	196.289	90.9676	196.289	86.1191	196.289	90.9132	196.289	86.1485	196.289	90.7169	196.289	86.2929	196.289	90.3654	196.289	86.5056	196.289	89.8541	196.289	86.739	196.289	89.1952	196.289	86.9524	196.289	88.4309	196.289	87.1145	196.289	87.6469	196.289	87.2028	196.289	86.9705	196.289	87.2027	196.289	86.5311	196.289	87.1087	196.289	86.3849	196.289	86.9291	196.289	86.4787	196.289	86.6962
202.148	89.1155	202.148	88.5077	202.148	89.658	202.148	87.8568	202.148	90.1208	202.148	87.1973	202.148	90.494	202.148	86.5782	202.148	90.769	202.148	86.0598	202.148	90.9363	202.148	85.7012	202.148	90.9841	202.148	85.5384	202.148	90.8978	202.148	85.5671	202.148	90.6611	202.148	85.7436	202.148	90.2586	202.148	86.0045	202.148	89.6818	202.148	86.2867	202.148	88.9387	202.148	86.539	202.148	88.0685	202.148	86.7244	202.148	87.1618	202.148	86.8176	202.148	86.368	202.148	86.8027	202.148	85.8533	202.148	86.6734	202.148	85.7001	202.148	86.4388	202.148	85.8438	202.148	86.1351
210.938	89.3391	210.938	88.8053	210.938	89.8008	210.938	88.2128	210.938	90.182	210.938	87.5839	210.938	90.4763	210.938	86.9523	210.938	90.6775	210.938	86.3645	210.938	90.7771	210.938	85.8749	210.938	90.7634	210.938	85.5324	210.938	90.6206	210.938	85.362	210.938	90.3304	210.938	85.3529	210.938	89.875	210.938	85.4628	210.938	89.243	210.938	85.6348	210.938	88.44	210.938	85.8138	210.938	87.5049	210.938	85.9551	210.938	86.5317	210.938	86.0261	210.938	85.6791	210.938	86.005	210.938	85.1243	210.938	85.8807	210.938	84.951	210.938	85.6571	210.938	85.0846	210.938	85.3657
216.797	89.06	216.797	88.5396	216.797	89.522	216.797	87.9797	216.797	89.9129	216.797	87.4072	216.797	90.223	216.797	86.859	216.797	90.4431	216.797	86.3797	216.797	90.5627	216.797	86.0132	216.797	90.5683	216.797	85.79	216.797	90.4427	216.797	85.7148	216.797	90.166	216.797	85.7639	216.797	89.7189	216.797	85.8942	216.797	89.088	216.797	86.0569	216.797	88.2776	216.797	86.207	216.797	87.3268	216.797	86.3084	216.797	86.3356	216.797	86.3335	216.797	85.4779	216.797	86.262	216.797	84.951	216.797	86.0821	216.797	84.8437	216.797	85.7952	216.797	85.0634	216.797	85.4294
225.586	89.0928	225.586	88.4769	225.586	89.6151	225.586	87.783	225.586	90.036	225.586	87.0408	225.586	90.351	225.586	86.3015	225.586	90.5555	225.586	85.6408	225.586	90.6423	225.586	85.1494	225.586	90.5996	225.586	84.8999	225.586	90.4102	225.586	84.9082	225.586	90.0522	225.586	85.1229	225.586	89.5018	225.586	85.4543	225.586	88.7402	225.586	85.8133	225.586	87.768	225.586	86.1319	225.586	86.6322	225.586	86.3638	225.586	85.4731	225.586	86.4786	225.586	84.5547	225.586	86.4545	225.586	84.1605	225.586	86.2756	225.586	84.3382	225.586	85.9334	225.586	84.8547	225.586	85.4393
234.375	89.8366	234.375	89.321	234.375	90.2617	234.375	88.7224	234.375	90.5929	234.375	88.0555	234.375	90.8276	234.375	87.3472	234.375	90.9622	234.375	86.641	234.375	90.9895	234.375	85.9971	234.375	90.8969	234.375	85.4832	234.375	90.6654	234.375	85.1521	234.375	90.2694	234.375	85.0163	234.375	89.6788	234.375	85.0401	234.375	88.8633	234.375	85.1563	234.375	87.8022	234.375	85.2918	234.375	86.5057	234.375	85.3833	234.375	85.0612	234.375	85.3821	234.375	83.7082	234.375	85.2511	234.375	82.8442	234.375	84.9625	234.375	82.7376	234.375	84.5014	234.375	83.212	234.375	83.885
240.234	89.4404	240.234	88.9558	240.234	89.8451	240.234	88.4029	240.234	90.1629	240.234	87.8022	240.234	90.389	240.234	87.1861	240.234	90.5181	240.234	86.6009	240.234	90.5422	240.234	86.1025	240.234	90.448	240.234	85.7429	240.234	90.2163	240.234	85.5501	240.234	89.8212	240.234	85.5142	240.234	89.2327	240.234	85.5914	240.234	88.4223	240.234	85.7212	240.234	87.3749	240.234	85.8446	240.234	86.115	240.234	85.9122	240.234	84.7589	240.234	85.8857	240.234	83.5823	240.234	85.7349	240.234	82.9676	240.234	85.4356	240.234	83.0739	240.234	84.9724	240.234	83.6528	240.234	84.3539
249.023	89.4831	249.023	88.9628	249.023	89.9083	249.023	88.3567	249.023	90.2345	249.023	87.6833	249.023	90.4595	249.023	86.9758	249.023	90.5801	249.023	86.2862	249.023	90.5895	249.023	85.6833	249.023	90.4753	249.023	85.2367	249.023	90.2167	249.023	84.9886	249.023	89.7843	249.023	84.9313	249.023	89.1407	249.023	85.0099	249.023	88.2437	249.023	85.1479	249.023	87.0539	249.023	85.272	249.023	85.5559	249.023	85.3236	249.023	83.8168	249.023	85.2573	249.023	82.1272	249.023	85.0359	249.023	81.1123	249.023	84.625	249.023	81.2328	249.023	83.9941	249.023	82.1124	249.023	83.1329
257.813	90.1111	257.813	89.6465	257.813	90.4819	257.813	89.0953	257.813	90.7561	257.813	88.473	257.813	90.9327	257.813	87.8075	257.813	91.0098	257.813	87.1429	257.813	90.9819	257.813	86.5382	257.813	90.8371	257.813	86.0557	257.813	90.5543	257.813	85.739	257.813	90.1024	257.813	85.592	257.813	89.4401	257.813	85.5758	257.813	88.52	257.813	85.6262	257.813	87.2956	257.813	85.6759	257.813	85.7422	257.813	85.6671	257.813	83.9182	257.813	85.553	257.813	82.1249	257.813	85.2941	257.813	81.0572	257.813	84.8524	257.813	81.2341	257.813	84.1913	257.813	82.2049	257.813	83.29
266.602	89.6695	266.602	89.1817	266.602	90.0752	266.602	88.6268	266.602	90.3912	266.602	88.0307	266.602	90.6137	266.602	87.4339	266.602	90.7393	266.602	86.8905	266.602	90.7616	266.602	86.4591	266.602	90.6677	266.602	86.1836	266.602	90.435	266.602	86.0727	266.602	90.0288	266.602	86.0945	266.602	89.4031	266.602	86.191	266.602	88.502	266.602	86.298	266.602	87.2647	266.602	86.3592	266.602	85.6408	266.602	86.3284	266.602	83.648	266.602	86.1673	266.602	81.5743	266.602	85.8386	266.602	80.318	266.602	85.3008	266.602	80.696	266.602	84.5057	266.602	82.0348	266.602	83.4093
278.32	89.3901	278.32	88.9161	278.32	89.7696	278.32	88.3516	278.32	90.0558	278.32	87.711	278.32	90.2513	278.32	87.0261	278.32	90.3569	278.32	86.3518	278.32	90.3683	278.32	85.7641	278.32	90.2725	278.32	85.3413	278.32	90.0449	278.32	85.128	278.32	89.6478	278.32	85.1081	278.32	89.032	278.32	85.2131	278.32	88.1406	278.32	85.3559	278.32	86.9154	278.32	85.4587	278.32	85.3143	278.32	85.4634	278.32	83.37	278.32	85.328	278.32	81.3705	278.32	85.0191	278.32	80.1212	278.32	84.5043	278.32	80.3365	278.32	83.7485	278.32	81.4803	278.32	82.7252
287.109	89.0111	287.109	88.4637	287.109	89.4664	287.109	87.8357	287.109	89.8249	287.109	87.1512	287.109	90.085	287.109	86.4539	287.109	90.2441	287.109	85.8092	287.109	90.295	287.109	85.296	287.109	90.2218	287.109	84.9794	287.109	89.9964	287.109	84.8763	287.109	89.5765	287.109	84.9446	287.109	88.9051	287.109	85.106	287.109	87.9113	287.109	85.2792	287.109	86.5118	287.109	85.3997	287.109	84.6207	287.109	85.4213	287.109	82.2129	287.109	85.3093	287.109	79.6477	287.109	85.0315	287.109	78.3825	287.109	84.5466	287.109	79.4012	287.109	83.7956	287.109	81.1852	287.109	82.6982
295.898	89.2488	295.898	88.5976	295.898	89.7831	295.898	87.8374	295.898	90.2005	295.898	86.9931	295.898	90.5031	295.898	86.1193	295.898	90.6919	295.898	85.3118	295.898	90.7623	295.898	84.6996	295.898	90.7005	295.898	84.3934	295.898	90.4799	295.898	84.4124	295.898	90.058	295.898	84.6687	295.898	89.375	295.898	85.0286	295.898	88.3523	295.898	85.3766	295.898	86.8873	295.898	85.635	295.898	84.8443	295.898	85.7551	295.898	82.0657	295.898	85.7024	295.898	78.6441	295.898	85.4413	295.898	76.5551	295.898	84.9228	295.898	78.2701	295.898	84.0703	295.898	80.8369	295.898	82.7632
307.617	89.9278	307.617	89.3141	307.617	90.4142	307.617	88.575	307.617	90.7759	307.617	87.7231	307.617	91.0173	307.617	86.7912	307.617	91.1412	307.617	85.8452	307.617	91.1464	307.617	84.9915	307.617	91.0228	307.617	84.357	307.617	90.748	307.617	84.0284	307.617	90.2832	307.617	83.9918	307.617	89.572	307.617	84.1419	307.617	88.5394	307.617	84.3482	307.617	87.0882	307.617	84.5048	307.617	85.0897	307.617	84.5402	307.617	82.3767	307.617	84.4054	307.617	78.855	307.617	84.0574	307.617	75.6385	307.617	83.4424	307.617	76.2598	307.617	82.4761	307.617	78.8972	307.617	81.0212
319.336	90.0365	319.336	89.4281	319.336	90.4989	319.336	88.6675	319.336	90.825	319.336	87.7575	319.336	91.0248	319.336	86.7217	319.336	91.1063	319.336	85.6227	319.336	91.0723	319.336	84.5829	319.336	90.9164	319.336	83.7777	319.336	90.6176	319.336	83.3569	319.336	90.1369	319.336	83.3301	319.336	89.4156	319.336	83.5587	319.336	88.3747	319.336	83.8643	319.336	86.9118	319.336	84.1124	319.336	84.8919	319.336	84.2228	319.336	82.14	319.336	84.1479	319.336	78.5633	319.336	83.8501	319.336	75.3913	319.336	83.2809	319.336	76.2088	319.336	82.3599	319.336	78.868	319.336	80.9514
331.055	90.8348	331.055	90.38	331.055	91.1559	331.055	89.7847	331.055	91.3524	331.055	89.048	331.055	91.4341	331.055	88.1822	331.055	91.4091	331.055	87.223	331.055	91.2812	331.055	86.2429	331.055	91.0443	331.055	85.3544	331.055	90.6765	331.055	84.6848	331.055	90.1348	331.055	84.3105	331.055	89.3529	331.055	84.2045	331.055	88.2397	331.055	84.257	331.055	86.6732	331.055	84.3413	331.055	84.4815	331.055	84.3571	331.055	81.402	331.055	84.2344	331.055	77.1289	331.055	83.9183	331.055	73.2947	331.055	83.348	331.055	75.4654	331.055	82.4304	331.055	78.7813	331.055	81.0025
342.773	90.1514	342.773	89.6793	342.773	90.4911	342.773	89.0716	342.773	90.7066	342.773	88.3368	342.773	90.8074	342.773	87.5058	342.773	90.802	342.773	86.6463	342.773	90.6924	342.773	85.8709	342.773	90.4683	342.773	85.3149	342.773	90.0988	342.773	85.0685	342.773	89.5272	342.773	85.114	342.773	88.6669	342.773	85.341	342.773	87.3967	342.773	85.6206	342.773	85.5463	342.773	85.8547	342.773	82.8588	342.773	85.9832	342.773	78.982	342.773	85.9708	342.773	74.7227	342.773	85.7913	342.773	76.0501	342.773	85.4105	342.773	79.6725	342.773	84.7679	342.773	82.1628	342.773	83.7514
354.492	90.2415	354.492	89.826	354.492	90.5331	354.492	89.2766	354.492	90.7102	354.492	88.5851	354.492	90.7804	354.492	87.7526	354.492	90.7484	354.492	86.8021	354.492	90.6131	354.492	85.7968	354.492	90.3612	354.492	84.8569	354.492	89.9602	354.492	84.1442	354.492	89.3519	354.492	83.7856	354.492	88.4479	354.492	83.7782	354.492	87.1216	354.492	83.9939	354.492	85.1823	354.492	84.2732	354.492	82.289	354.492	84.4934	354.492	77.6145	354.492	84.5759	354.492	67.6081	354.492	84.4665	354.492	69.3339	354.492	84.1118	354.492	76.9519	354.492	83.4315	354.492	80.3584	354.492	82.2791
366.211	90.5483	366.211	90.0932	366.211	90.8785	366.211	89.513	366.211	91.0869	366.211	88.8122	366.211	91.1784	366.211	88.0041	366.211	91.1584	366.211	87.1178	366.211	91.0284	366.211	86.207	366.211	90.7799	366.211	85.353	366.211	90.3865	366.211	84.6504	366.211	89.7982	366.211	84.168	366.211	88.9382	366.211	83.9081	366.211	87.7003	366.211	83.8032	366.211	85.9367	366.211	83.7525	366.211	83.4155	366.211	83.6598	366.211	79.6817	366.211	83.449	366.211	73.5229	366.211	83.059	366.211	65.3266	366.211	82.4277	366.211	73.147	366.211	81.4612	366.211	77.564	366.211	79.9759
377.93	90.7372	377.93	90.2936	377.93	91.0578	377.93	89.7272	377.93	91.2584	377.93	89.0451	377.93	91.3446	377.93	88.2669	377.93	91.3221	377.93	87.4332	377.93	91.1927	377.93	86.6132	377.93	90.9466	377.93	85.8982	377.93	90.5543	377.93	85.3727	377.93	89.9597	377.93	85.0687	377.93	89.0764	377.93	84.946	377.93	87.7827	377.93	84.9169	377.93	85.9022	377.93	84.8884	377.93	83.1364	377.93	84.7867	377.93	78.8091	377.93	84.5597	377.93	70.2575	377.93	84.1678	377.93	64.4701	377.93	83.5675	377.93	75.3005	377.93	82.6826	377.93	79.2125	377.93	81.3513
392.578	90.7918	392.578	90.397	392.578	91.0695	392.578	89.8938	392.578	91.2242	392.578	89.2916	392.578	91.2523	392.578	88.6009	392.578	91.1524	392.578	87.8364	392.578	90.9208	392.578	87.0231	392.578	90.545	392.578	86.2023	392.578	89.9949	392.578	85.433	392.578	89.2148	392.578	84.7793	392.578	88.1166	392.578	84.2849	392.578	86.5708	392.578	83.9488	392.578	84.3809	392.578	83.7235	392.578	81.2055	392.578	83.536	392.578	76.3105	392.578	83.3123	392.578	68.8244	392.578	82.9903	392.578	71.5801	392.578	82.5166	392.578	76.5223	392.578	81.8264	392.578	79.208	392.578	80.8035
407.227	90.4638	407.227	90.0809	407.227	90.6945	407.227	89.5589	407.227	90.7649	407.227	88.9163	407.227	90.672	407.227	88.1768	407.227	90.4156	407.227	87.3714	407.227	89.9938	407.227	86.5413	407.227	89.3934	407.227	85.7395	407.227	88.5784	407.227	85.0272	407.227	87.4768	407.227	84.4577	407.227	85.9683	407.227	84.0548	407.227	83.8643	407.227	83.7991	407.227	80.8681	407.227	83.6369	407.227	76.5816	407.227	83.5021	407.227	72.3036	407.227	83.3369	407.227	74.3136	407.227	83.1034	407.227	77.6542	407.227	82.7839	407.227	79.7548	407.227	82.3668	407.227	81.0174	407.227	81.8142
421.875	91.8116	421.875	91.4271	421.875	92.0361	421.875	90.9103	421.875	92.0862	421.875	90.3005	421.875	91.9595	421.875	89.6405	421.875	91.6612	421.875	88.964	421.875	91.1996	421.875	88.2833	421.875	90.5814	421.875	87.5888	421.875	89.8073	421.875	86.8588	421.875	88.8719	421.875	86.0738	421.875	87.7697	421.875	85.2257	421.875	86.5094	421.875	84.3214	421.875	85.137	421.875	83.3812	421.875	83.7543	421.875	82.4366	421.875	82.5036	421.875	81.5314	421.875	81.4953	421.875	80.7247	421.875	80.7405	421.875	80.0917	421.875	80.1834	421.875	79.7083	421.875	79.7959	421.875	79.6167
436.523	91.1795	436.523	90.8299	436.523	91.3608	436.523	90.3309	436.523	91.3716	436.523	89.723	436.523	91.2217	436.523	89.0684	436.523	90.9299	436.523	88.4403	436.523	90.5195	436.523	87.8974	436.523	90.0117	436.523	87.4581	436.523	89.4122	436.523	87.095	436.523	88.6946	436.523	86.7553	436.523	87.7896	436.523	86.3866	436.523	86.5842	436.523	85.9496	436.523	84.9292	436.523	85.4195	436.523	82.6494	436.523	84.7818	436.523	79.601	436.523	84.0326	436.523	76.168	436.523	83.1814	436.523	74.8401	436.523	82.2469	436.523	76.5574	436.523	81.2294	436.523	78.5522	436.523	80.0571
451.172	91.0972	451.172	90.7959	451.172	91.2651	451.172	90.3828	451.172	91.2871	451.172	89.8849	451.172	91.1606	451.172	89.3302	451.172	90.8904	451.172	88.7422	451.172	90.4833	451.172	88.1387	451.172	89.9393	451.172	87.5345	451.172	89.2399	451.172	86.945	451.172	88.3398	451.172	86.3872	451.172	87.1696	451.172	85.8755	451.172	85.6613	451.172	85.4155	451.172	83.8208	451.172	85.0007	451.172	81.915	451.172	84.6147	451.172	80.6732	451.172	84.2399	451.172	80.6578	451.172	83.8694	451.172	81.3516	451.172	83.5141	451.172	82.0562	451.172	83.1919	451.172	82.5523	451.172	82.8939
465.82	90.8985	465.82	90.4814	465.82	91.1498	465.82	89.9346	465.82	91.218	465.82	89.3146	465.82	91.1001	465.82	88.6899	465.82	90.8026	465.82	88.1217	465.82	90.3354	465.82	87.6387	465.82	89.7033	465.82	87.2285	465.82	88.8947	465.82	86.8529	465.82	87.8695	465.82	86.4715	465.82	86.5533	465.82	86.0564	465.82	84.8448	465.82	85.5933	465.82	82.6555	465.82	85.0767	465.82	80.0708	465.82	84.5033	465.82	77.8521	465.82	83.8723	465.82	77.4156	465.82	83.192	465.82	78.4317	465.82	82.4889	465.82	79.5779	465.82	81.802	465.82	80.4528	465.82	81.1453
483.398	90.8317	483.398	90.4575	483.398	90.9929	483.398	89.9146	483.398	90.9231	483.398	89.278	483.398	90.624	483.398	88.6434	483.398	90.1105	483.398	88.0945	483.398	89.404	483.398	87.6626	483.398	88.5235	483.398	87.3164	483.398	87.4735	483.398	86.9937	483.398	86.2349	483.398	86.6416	483.398	84.7699	483.398	86.2338	483.398	83.0633	483.398	85.7674	483.398	81.2377	483.398	85.2509	483.398	79.7328	483.398	84.6926	483.398	79.1533	483.398	84.0962	483.398	79.4743	483.398	83.4656	483.398	80.1012	483.398	82.8178	483.398	80.6687	483.398	82.1913	483.398	81.1472	483.398	81.6322
500.977	90.1989	500.977	89.7748	500.977	90.3721	500.977	89.1418	500.977	90.2895	500.977	88.3988	500.977	89.9666	500.977	87.7095	500.977	89.4276	500.977	87.2504	500.977	88.6935	500.977	87.0955	500.977	87.7666	500.977	87.159	500.977	86.6128	500.977	87.2803	500.977	85.1404	500.977	87.3303	500.977	83.1745	500.977	87.2413	500.977	80.4066	500.977	86.9883	500.977	76.2634	500.977	86.5621	500.977	70.0235	500.977	85.9487	500.977	69.1482	500.977	85.12	500.977	73.6423	500.977	84.0377	500.977	76.0536	500.977	82.6789	500.977	77.2695	500.977	81.0956	500.977	78.2226	500.977	79.5017
518.555	91.4286	518.555	91.0664	518.555	91.4896	518.555	90.3989	518.555	91.2677	518.555	89.4498	518.555	90.7885	518.555	88.2971	518.555	90.0811	518.555	87.1091	518.555	89.1725	518.555	86.1459	518.555	88.0762	518.555	85.6329	518.555	86.7738	518.555	85.5693	518.555	85.1944	518.555	85.7488	518.555	83.2175	518.555	85.9545	518.555	80.7767	518.555	86.0553	518.555	78.3475	518.555	85.9885	518.555	77.6006	518.555	85.7196	518.555	78.7695	518.555	85.2171	518.555	80.0127	518.555	84.4502	518.555	80.5981	518.555	83.4166	518.555	80.6515	518.555	82.2201	518.555	80.6632	518.555	81.1714
536.133	92.1728	536.133	91.9514	536.133	92.147	536.133	91.4539	536.133	91.8948	536.133	90.6464	536.133	91.428	536.133	89.4966	536.133	90.7487	536.133	87.9888	536.133	89.8472	536.133	86.1637	536.133	88.6931	536.133	84.2207	536.133	87.2127	536.133	82.6647	536.133	85.2457	536.133	82.1017	536.133	82.4647	536.133	82.4743	536.133	78.2237	536.133	83.1641	536.133	72.2015	536.133	83.7154	536.133	73.364	536.133	83.926	536.133	77.239	536.133	83.6856	536.133	78.6155	536.133	82.8693	536.133	77.8766	536.133	81.2615	536.133	74.8593	536.133	78.4402	536.133	70.1751	536.133	73.6545
553.711	91.7704	553.711	91.6084	553.711	91.7287	553.711	91.2462	553.711	91.4744	553.711	90.6754	553.711	90.9993	553.711	89.873	553.711	90.2952	553.711	88.811	553.711	89.3459	553.711	87.4787	553.711	88.1138	553.711	85.9252	553.711	86.5128	553.711	84.3265	553.711	84.3511	553.711	83.0323	553.711	81.1904	553.711	82.3977	553.711	75.8134	553.711	82.4045	553.711	60.3475	553.711	82.676	553.711	71.2648	553.711	82.8371	553.711	76.6847	553.711	82.6391	553.711	78.1555	553.711	81.8828	553.711	77.2442	553.711	80.299	553.711	73.57	553.711	77.346	553.711	65.1803	553.711	71.5366
574.219	91.8427	574.219	91.6282	574.219	91.8174	574.219	91.1805	574.219	91.5464	574.219	90.5041	574.219	91.0232	574.219	89.5988	574.219	90.2342	574.219	88.465	574.219	89.147	574.219	87.1264	574.219	87.6919	574.219	85.676	574.219	85.7257	574.219	84.3344	574.219	82.9463	574.219	83.4295	574.219	78.6644	574.219	83.1642	574.219	71.8044	574.219	83.3942	574.219	73.2075	574.219	83.7858	574.219	78.2071	574.219	84.0576	574.219	80.3021	574.219	84.0186	574.219	80.3309	574.219	83.5045	574.219	78.2949	574.219	82.2931	574.219	73.0055	574.219	79.9647	574.219	66.3007	574.219	75.4724
594.727	91.7683	594.727	91.475	594.727	91.7638	594.727	90.8773	594.727	91.4672	594.727	89.9778	594.727	90.8737	594.727	88.8014	594.727	89.959	594.727	87.4182	594.727	88.6746	594.727	85.9759	594.727	86.9564	594.727	84.7186	594.727	84.7493	594.727	83.9085	594.727	82.0576	594.727	83.635	594.727	79.0788	594.727	83.7401	594.727	76.6039	594.727	83.9744	594.727	76.0319	594.727	84.1408	594.727	76.9638	594.727	84.1104	594.727	77.6223	594.727	83.7855	594.727	76.9891	594.727	83.0559	594.727	74.196	594.727	81.7467	594.727	66.347	594.727	79.5221	594.727	67.0044	594.727	75.5866
615.234	92.3092	615.234	92.0965	615.234	92.1805	615.234	91.5495	615.234	91.6991	615.234	90.6717	615.234	90.8457	615.234	89.4657	615.234	89.5819	615.234	87.9468	615.234	87.8335	615.234	86.1797	615.234	85.4737	615.234	84.3493	615.234	82.3237	615.234	82.8287	615.234	78.2821	615.234	82.0302	615.234	74.1601	615.234	81.9835	615.234	72.4068	615.234	82.3163	615.234	72.044	615.234	82.6675	615.234	70.9924	615.234	82.8474	615.234	70.1672	615.234	82.7777	615.234	71.5203	615.234	82.4265	615.234	73.9176	615.234	81.7771	615.234	76.1098	615.234	80.818	615.234	77.9737	615.234	79.5461
638.672	92.0005	638.672	91.997	638.672	91.6231	638.672	91.617	638.672	90.8438	638.672	90.8505	638.672	89.6153	638.672	89.6762	638.672	87.8434	638.672	88.0771	638.672	85.3577	638.672	86.0993	638.672	81.907	638.672	84.0119	638.672	77.5607	638.672	82.516	638.672	75.0712	638.672	82.2627	638.672	75.8979	638.672	82.861	638.672	75.6589	638.672	83.5492	638.672	72.1375	638.672	83.9642	638.672	55.9406	638.672	84.0188	638.672	70.8272	638.672	83.7234	638.672	76.7285	638.672	83.1282	638.672	79.1226	638.672	82.324	638.672	80.0396	638.672	81.4676	638.672	80.3845	638.672	80.7796
659.18	92.159	659.18	92.2181	659.18	91.6738	659.18	91.8901	659.18	90.7016	659.18	91.2041	659.18	89.133	659.18	90.1785	659.18	86.7598	659.18	88.817	659.18	83.176	659.18	87.1236	659.18	77.8556	659.18	85.1682	659.18	75.2764	659.18	83.2358	659.18	78.9432	659.18	81.9198	659.18	80.7875	659.18	81.6159	659.18	80.212	659.18	81.9258	659.18	76.774	659.18	82.2352	659.18	69.8536	659.18	82.2152	659.18	74.4851	659.18	81.7445	659.18	78.8014	659.18	80.8036	659.18	80.1664	659.18	79.4985	659.18	79.8514	659.18	78.238	659.18	78.7118	659.18	77.8579
682.617	92.1251	682.617	92.1285	682.617	91.6914	682.617	91.7428	682.617	90.7558	682.617	90.9909	682.617	89.1853	682.617	89.8745	682.617	86.7132	682.617	88.3672	682.617	82.7356	682.617	86.4222	682.617	75.7984	682.617	84.0277	682.617	74.0004	682.617	81.4134	682.617	79.7571	682.617	79.488	682.617	81.8902	682.617	79.2904	682.617	81.4409	682.617	80.1636	682.617	78.2223	682.617	81.029	682.617	71.5365	682.617	81.5231	682.617	75.1889	682.617	81.625	682.617	79.8244	682.617	81.4238	682.617	81.6236	682.617	81.0964	682.617	81.9319	682.617	80.9042	682.617	81.5429	682.617	81.0687
706.055	91.6527	706.055	91.6166	706.055	91.1542	706.055	91.0945	706.055	90.0246	706.055	90.1289	706.055	88.06	706.055	88.7972	706.055	84.7927	706.055	87.2368	706.055	78.8649	706.055	85.6001	706.055	68.6799	706.055	83.9316	706.055	77.8644	706.055	82.1155	706.055	81.5337	706.055	80.0068	706.055	81.9045	706.055	77.6821	706.055	79.3911	706.055	75.8444	706.055	71.7612	706.055	75.6193	706.055	68.3449	706.055	76.6384	706.055	76.3879	706.055	77.6342	706.055	78.2237	706.055	78.0119	706.055	77.6024	706.055	77.6456	706.055	75.957	706.055	76.6376	706.055	74.9149	706.055	75.4092
732.422	91.2586	732.422	91.3337	732.422	90.5968	732.422	90.8576	732.422	89.2643	732.422	89.8618	732.422	87.0519	732.422	88.4152	732.422	83.3985	732.422	86.6578	732.422	76.2099	732.422	84.7814	732.422	64.4979	732.422	82.9226	732.422	78.5764	732.422	81.0873	732.422	82.1327	732.422	79.2731	732.422	82.6919	732.422	77.6861	732.422	80.892	732.422	76.7453	732.422	76.4675	732.422	76.6151	732.422	72.3419	732.422	76.8828	732.422	74.8176	732.422	76.9881	732.422	75.6992	732.422	76.5783	732.422	74.1867	732.422	75.5374	732.422	71.9152	732.422	74.0269	732.422	71.4119	732.422	72.488
758.789	91.1589	758.789	91.2792	758.789	90.4239	758.789	90.8455	758.789	88.9524	758.789	89.9007	758.789	86.4853	758.789	88.505	758.789	82.4456	758.789	86.7465	758.789	76.342	758.789	84.6977	758.789	77.7314	758.789	82.3465	758.789	82.2174	758.789	79.6662	758.789	84.0705	758.789	77.0829	758.789	83.7681	758.789	76.0904	758.789	81.2958	758.789	77.1819	758.789	77.0199	758.789	78.7735	758.789	76.4055	758.789	79.9294	758.789	78.2376	758.789	80.3837	758.789	77.7865	758.789	80.0475	758.789	75.4188	758.789	78.9533	758.789	73.8675	758.789	77.4055	758.789	74.7396	758.789	75.9754
785.156	91.3337	785.156	91.559	785.156	90.3698	785.156	91.1197	785.156	88.4779	785.156	90.0501	785.156	85.1455	785.156	88.3892	785.156	78.7242	785.156	86.2292	785.156	73.6196	785.156	83.7571	785.156	82.0582	785.156	81.2111	785.156	85.569	785.156	78.7344	785.156	86.4471	785.156	76.4975	785.156	85.0812	785.156	75.2919	785.156	80.7249	785.156	75.9478	785.156	69.5093	785.156	77.63	785.156	73.5249	785.156	79.2324	785.156	76.9548	785.156	80.2923	785.156	75.2368	785.156	80.5941	785.156	69.5186	785.156	79.9311	785.156	63.9495	785.156	78.0365	785.156	69.5064	785.156	74.6083
811.523	89.8517	811.523	90.2775	811.523	88.6245	811.523	89.9704	811.523	86.3178	811.523	88.9095	811.523	82.0546	811.523	87.0639	811.523	72.6622	811.523	84.5212	811.523	77.9686	811.523	81.706	811.523	84.3077	811.523	79.2986	811.523	87.0127	811.523	77.355	811.523	87.614	811.523	75.5026	811.523	86.2986	811.523	74.4351	811.523	82.8093	811.523	75.2201	811.523	77.6509	811.523	76.9796	811.523	75.9574	811.523	78.5825	811.523	74.7829	811.523	79.581	811.523	67.8833	811.523	79.7269	811.523	65.171	811.523	78.7255	811.523	70.5415	811.523	76.1077	811.523	69.8498	811.523	71.6255
840.82	88.281	840.82	88.6351	840.82	87.029	840.82	88.2822	840.82	84.3989	840.82	87.2321	840.82	79.0904	840.82	85.357	840.82	73.8115	840.82	82.4541	840.82	82.0416	840.82	78.2673	840.82	86.4838	840.82	72.4372	840.82	88.5331	840.82	68.5732	840.82	88.8108	840.82	73.2874	840.82	87.2889	840.82	76.99	840.82	83.7108	840.82	79.0684	840.82	79.338	840.82	80.1343	840.82	78.9035	840.82	80.6022	840.82	78.1121	840.82	80.6449	840.82	73.7381	840.82	80.1226	840.82	70.9975	840.82	78.6238	840.82	73.4051	840.82	75.605	840.82	72.5822	840.82	71.8671
870.117	87.2181	870.117	87.2835	870.117	85.7687	870.117	86.3132	870.117	82.0627	870.117	84.53	870.117	71.1006	870.117	82.0152	870.117	76.3968	870.117	78.5909	870.117	84.1921	870.117	73.6853	870.117	87.3993	870.117	64.1063	870.117	88.4813	870.117	64.5808	870.117	87.8377	870.117	74.5202	870.117	85.7204	870.117	78.7986	870.117	83.7647	870.117	80.797	870.117	83.4785	870.117	81.2584	870.117	81.9341	870.117	80.5592	870.117	76.8427	870.117	79.068	870.117	75.6963	870.117	77.2502	870.117	78.6683	870.117	75.4432	870.117	77.2669	870.117	73.1027	870.117	71.1329	870.117	68.2489
902.344	86.8882	902.344	86.6547	902.344	85.7317	902.344	85.2409	902.344	82.635	902.344	82.6129	902.344	76.891	902.344	78.2777	902.344	79.2237	902.344	72.2417	902.344	84.7431	902.344	73.464	902.344	87.4993	902.344	75.698	902.344	88.1966	902.344	74.8478	902.344	86.7998	902.344	74.2401	902.344	82.7721	902.344	77.4572	902.344	79.0977	902.344	79.8943	902.344	81.5548	902.344	80.2518	902.344	81.1402	902.344	78.4581	902.344	76.1952	902.344	74.1313	902.344	75.8977	902.344	70.345	902.344	78.6182	902.344	74.127	902.344	76.8547	902.344	76.1055	902.344	73.2129	902.344	74.9985
931.641	90.2444	931.641	89.9336	931.641	89.3785	931.641	88.6473	931.641	87.0611	931.641	86.6429	931.641	82.8317	931.641	84.2437	931.641	78.9972	931.641	81.9552	931.641	82.622	931.641	80.6345	931.641	85.6769	931.641	79.9968	931.641	86.4722	931.641	78.7827	931.641	84.8178	931.641	77.9101	931.641	79.3288	931.641	79.5062	931.641	75.1317	931.641	81.1781	931.641	80.8866	931.641	81.1154	931.641	80.9892	931.641	78.6892	931.641	75.9086	931.641	72.3458	931.641	73.3302	931.641	67.5616	931.641	76.9167	931.641	74.916	931.641	76.1444	931.641	77.1425	931.641	74.8651	931.641	76.5183
966.797	92.4724	966.797	92.5015	966.797	91.3001	966.797	91.5364	966.797	88.7365	966.797	89.7397	966.797	84.1188	966.797	87.3741	966.797	74.7866	966.797	84.8843	966.797	76.7538	966.797	82.8719	966.797	83.006	966.797	81.5049	966.797	84.9065	966.797	80.2952	966.797	83.7972	966.797	79.5535	966.797	78.4513	966.797	80.1605	966.797	66.0833	966.797	80.941	966.797	76.799	966.797	80.3396	966.797	76.8684	966.797	77.2571	966.797	69.8887	966.797	68.6696	966.797	70.8098	966.797	68.9059	966.797	74.5866	966.797	75.4239	966.797	74.4072	966.797	76.6895	966.797	74.1204	966.797	75.5787
999.023	92.6892	999.023	92.8898	999.023	91.3581	999.023	92.0868	999.023	88.619	999.023	90.4041	999.023	83.5424	999.023	88.0681	999.023	69.2673	999.023	85.4833	999.023	78.605	999.023	83.2574	999.023	84.8349	999.023	81.8101	999.023	86.8797	999.023	80.7694	999.023	86.3154	999.023	80.0219	999.023	82.624	999.023	80.2228	999.023	72.2216	999.023	80.7051	999.023	73.6067	999.023	79.9529	999.023	77.1978	999.023	76.5829	999.023	75.6858	999.023	65.5324	999.023	73.8895	999.023	70.0814	999.023	73.8975	999.023	76.5556	999.023	74.4912	999.023	77.9828	999.023	75.6507	999.023	77.1957
1,034.18	92.237	1,034.18	92.5987	1,034.18	90.6528	1,034.18	91.8501	1,034.18	87.5736	1,034.18	90.1217	1,034.18	81.9955	1,034.18	87.6304	1,034.18	74.8801	1,034.18	84.6759	1,034.18	82.325	1,034.18	81.7322	1,034.18	86.3018	1,034.18	79.4024	1,034.18	87.4054	1,034.18	77.5686	1,034.18	85.9686	1,034.18	77.113	1,034.18	81.1575	1,034.18	79.1937	1,034.18	76.1322	1,034.18	80.9042	1,034.18	79.4818	1,034.18	80.6281	1,034.18	78.6994	1,034.18	77.4472	1,034.18	74.9865	1,034.18	66.8345	1,034.18	74.0758	1,034.18	69.9235	1,034.18	72.1039	1,034.18	76.4085	1,034.18	69.7066	1,034.18	77.3738	1,034.18	72.6414	1,034.18	75.7095
1,072.27	91.7351	1,072.27	92.2479	1,072.27	89.9952	1,072.27	91.5613	1,072.27	86.6959	1,072.27	89.6463	1,072.27	80.8359	1,072.27	86.5884	1,072.27	78.9245	1,072.27	82.759	1,072.27	85.1118	1,072.27	79.2621	1,072.27	88.3479	1,072.27	77.8696	1,072.27	89.2082	1,072.27	76.9018	1,072.27	87.604	1,072.27	74.1816	1,072.27	82.2076	1,072.27	74.8918	1,072.27	71.3027	1,072.27	78.579	1,072.27	78.0319	1,072.27	79.595	1,072.27	77.9783	1,072.27	77.2145	1,072.27	76.3914	1,072.27	67.9958	1,072.27	75.6009	1,072.27	69.3424	1,072.27	70.4458	1,072.27	76.2185	1,072.27	70.743	1,072.27	77.3448	1,072.27	74.3919	1,072.27	76.107
1,110.35	91.0352	1,110.35	91.4596	1,110.35	89.4509	1,110.35	90.7507	1,110.35	86.2342	1,110.35	88.7431	1,110.35	80.1482	1,110.35	85.3629	1,110.35	79.3238	1,110.35	81.163	1,110.35	85.782	1,110.35	78.4728	1,110.35	88.9836	1,110.35	78.8909	1,110.35	89.7673	1,110.35	79.2849	1,110.35	88.018	1,110.35	77.7562	1,110.35	82.2861	1,110.35	75.5663	1,110.35	68.4977	1,110.35	76.7172	1,110.35	76.1907	1,110.35	77.5832	1,110.35	73.3424	1,110.35	74.9525	1,110.35	72.8637	1,110.35	62.5191	1,110.35	73.7944	1,110.35	70.6514	1,110.35	65.9262	1,110.35	76.4012	1,110.35	71.6976	1,110.35	76.9999	1,110.35	73.6091	1,110.35	74.782
1,148.44	90.8461	1,148.44	91.0261	1,148.44	89.5171	1,148.44	90.2047	1,148.44	86.5483	1,148.44	88.1519	1,148.44	81.5026	1,148.44	84.5007	1,148.44	81.8149	1,148.44	79.6097	1,148.44	86.99	1,148.44	76.8625	1,148.44	89.7819	1,148.44	77.637	1,148.44	90.3278	1,148.44	78.2415	1,148.44	88.338	1,148.44	76.8804	1,148.44	82.0241	1,148.44	74.585	1,148.44	67.0195	1,148.44	76.4867	1,148.44	77.3492	1,148.44	78.4796	1,148.44	74.2097	1,148.44	77.701	1,148.44	74.4602	1,148.44	73.1248	1,148.44	75.685	1,148.44	51.4222	1,148.44	68.8999	1,148.44	70.9472	1,148.44	69.7369	1,148.44	74.6254	1,148.44	72.9613	1,148.44	74.2195
1,189.45	91.5503	1,189.45	91.5639	1,189.45	89.9895	1,189.45	90.3098	1,189.45	86.3519	1,189.45	87.9243	1,189.45	80.3559	1,189.45	84.4156	1,189.45	83.3139	1,189.45	80.93	1,189.45	88.3007	1,189.45	80.222	1,189.45	90.6312	1,189.45	80.4248	1,189.45	90.7651	1,189.45	79.9862	1,189.45	88.297	1,189.45	78.7819	1,189.45	81.2793	1,189.45	76.7779	1,189.45	68.6717	1,189.45	75.6479	1,189.45	75.57	1,189.45	76.3232	1,189.45	73.2923	1,189.45	75.9919	1,189.45	75.2225	1,189.45	71.9292	1,189.45	72.9242	1,189.45	49.6813	1,189.45	74.2181	1,189.45	71.3948	1,189.45	76.3103	1,189.45	74.3851	1,189.45	73.8285	1,189.45	73.2105
1,230.47	91.5564	1,230.47	91.5331	1,230.47	89.8642	1,230.47	89.9613	1,230.47	86.0843	1,230.47	86.9977	1,230.47	80.7408	1,230.47	83.1605	1,230.47	83.7985	1,230.47	80.7841	1,230.47	88.4545	1,230.47	81.513	1,230.47	90.826	1,230.47	82.3368	1,230.47	91.1135	1,230.47	81.4513	1,230.47	88.9621	1,230.47	77.7107	1,230.47	83.1506	1,230.47	72.9434	1,230.47	73.8873	1,230.47	78.3309	1,230.47	73.2804	1,230.47	81.366	1,230.47	73.6296	1,230.47	81.186	1,230.47	77.194	1,230.47	77.5427	1,230.47	71.2891	1,230.47	66.1882	1,230.47	74.7691	1,230.47	67.0774	1,230.47	78.5798	1,230.47	71.8271	1,230.47	75.8545	1,230.47	71.7023
1,274.41	91.8621	1,274.41	92.0046	1,274.41	90.031	1,274.41	90.6049	1,274.41	86.3221	1,274.41	87.8819	1,274.41	81.738	1,274.41	84.4068	1,274.41	84.7713	1,274.41	82.267	1,274.41	89.113	1,274.41	82.1485	1,274.41	91.2379	1,274.41	82.1753	1,274.41	91.2768	1,274.41	82.4824	1,274.41	88.8045	1,274.41	82.2368	1,274.41	82.4241	1,274.41	79.9164	1,274.41	75.0029	1,274.41	74.3829	1,274.41	74.4345	1,274.41	72.6503	1,274.41	70.1559	1,274.41	75.8603	1,274.41	75.605	1,274.41	74.7314	1,274.41	70.3704	1,274.41	66.9941	1,274.41	71.4677	1,274.41	63.6746	1,274.41	76.1359	1,274.41	72.1176	1,274.41	75.4989	1,274.41	74.2049
1,318.36	91.6929	1,318.36	92.0107	1,318.36	89.6644	1,318.36	90.4583	1,318.36	86.1267	1,318.36	87.1325	1,318.36	82.9533	1,318.36	83.4389	1,318.36	86.1065	1,318.36	82.8222	1,318.36	90.0092	1,318.36	84.0965	1,318.36	91.9714	1,318.36	84.1651	1,318.36	91.8739	1,318.36	82.3264	1,318.36	89.201	1,318.36	79.5716	1,318.36	82.6839	1,318.36	78.8059	1,318.36	77.3123	1,318.36	79.741	1,318.36	75.6968	1,318.36	80.1656	1,318.36	69.8849	1,318.36	79.3309	1,318.36	76.3894	1,318.36	76.5196	1,318.36	70.1885	1,318.36	69.8279	1,318.36	72.3201	1,318.36	61.0054	1,318.36	77.6739	1,318.36	70.1839	1,318.36	76.942	1,318.36	74.0565
1,365.23	90.7176	1,365.23	91.185	1,365.23	89.1235	1,365.23	90.3845	1,365.23	86.5909	1,365.23	88.293	1,365.23	84.9082	1,365.23	85.7166	1,365.23	87.1167	1,365.23	84.2528	1,365.23	90.0621	1,365.23	84.1981	1,365.23	91.6286	1,365.23	85.061	1,365.23	91.4298	1,365.23	85.5573	1,365.23	89.0246	1,365.23	84.5843	1,365.23	83.7894	1,365.23	81.4118	1,365.23	79.0258	1,365.23	73.9161	1,365.23	76.9346	1,365.23	63.4999	1,365.23	63.9354	1,365.23	74.2703	1,365.23	71.2315	1,365.23	75.0844	1,365.23	69.0483	1,365.23	71.4077	1,365.23	65.7244	1,365.23	66.9844	1,365.23	75.0846	1,365.23	72.937	1,365.23	77.1586	1,365.23	76.3507
1,415.04	90.4213	1,415.04	91.124	1,415.04	88.572	1,415.04	90.6285	1,415.04	86.0513	1,415.04	88.9361	1,415.04	85.5511	1,415.04	86.6328	1,415.04	88.0388	1,415.04	85.202	1,415.04	90.443	1,415.04	84.4343	1,415.04	91.5979	1,415.04	83.0987	1,415.04	91.1482	1,415.04	82.551	1,415.04	88.7651	1,415.04	83.6877	1,415.04	84.6011	1,415.04	84.2353	1,415.04	81.3069	1,415.04	83.1007	1,415.04	77.7076	1,415.04	80.0078	1,415.04	64.9022	1,415.04	74.9575	1,415.04	69.5277	1,415.04	70.6487	1,415.04	70.6518	1,415.04	70.2657	1,415.04	67.7319	1,415.04	69.2674	1,415.04	73.1056	1,415.04	71.4834	1,415.04	76.4922	1,415.04	75.6201
1,464.84	89.7211	1,464.84	90.3791	1,464.84	87.8058	1,464.84	89.8173	1,464.84	85.3398	1,464.84	88.1745	1,464.84	85.5415	1,464.84	86.5707	1,464.84	88.4445	1,464.84	86.6255	1,464.84	90.8441	1,464.84	87.1102	1,464.84	91.8208	1,464.84	86.5853	1,464.84	90.9866	1,464.84	84.6254	1,464.84	87.6272	1,464.84	81.1798	1,464.84	81.1964	1,464.84	78.731	1,464.84	79.3742	1,464.84	80.1916	1,464.84	78.5075	1,464.84	81.0909	1,464.84	74.5832	1,464.84	79.8982	1,464.84	74.1754	1,464.84	76.0463	1,464.84	72.5292	1,464.84	68.3775	1,464.84	66.6621	1,464.84	69.5831	1,464.84	72.1628	1,464.84	72.384	1,464.84	75.7302	1,464.84	74.5625
1,514.65	89.4347	1,514.65	90.1797	1,514.65	87.2221	1,514.65	89.5336	1,514.65	84.5646	1,514.65	87.9903	1,514.65	85.0968	1,514.65	86.7891	1,514.65	88.0354	1,514.65	86.884	1,514.65	90.3033	1,514.65	87.1613	1,514.65	91.1263	1,514.65	86.3288	1,514.65	90.0977	1,514.65	84.0036	1,514.65	86.8715	1,514.65	80.6408	1,514.65	82.4073	1,514.65	77.5936	1,514.65	79.8119	1,514.65	76.1259	1,514.65	75.3146	1,514.65	76.2594	1,514.65	69.4057	1,514.65	76.807	1,514.65	65.2514	1,514.65	76.2988	1,514.65	67.5408	1,514.65	73.7326	1,514.65	69.4726	1,514.65	68.6494	1,514.65	73.0101	1,514.65	71.1008	1,514.65	76.4617	1,514.65	75.726
1,570.31	89.4827	1,570.31	90.3699	1,570.31	86.8325	1,570.31	89.8372	1,570.31	83.5222	1,570.31	88.5837	1,570.31	84.6946	1,570.31	87.4806	1,570.31	88.1628	1,570.31	86.8064	1,570.31	90.303	1,570.31	86.2639	1,570.31	90.7384	1,570.31	85.2806	1,570.31	89.3532	1,570.31	82.6868	1,570.31	86.0721	1,570.31	78.7098	1,570.31	82.4359	1,570.31	77.357	1,570.31	79.343	1,570.31	76.8513	1,570.31	73.0424	1,570.31	72.3598	1,570.31	73.1637	1,570.31	68.0182	1,570.31	71.4352	1,570.31	73.9815	1,570.31	73.277	1,570.31	74.0138	1,570.31	66.6007	1,570.31	66.1467	1,570.31	70.8782	1,570.31	66.9837	1,570.31	75.458	1,570.31	74.2525
1,623.05	88.9862	1,623.05	90.5188	1,623.05	85.6867	1,623.05	90.3225	1,623.05	82.4631	1,623.05	89.0714	1,623.05	84.3087	1,623.05	87.745	1,623.05	87.6114	1,623.05	86.7983	1,623.05	89.4685	1,623.05	85.8746	1,623.05	89.7566	1,623.05	84.5755	1,623.05	88.5749	1,623.05	82.6433	1,623.05	86.3958	1,623.05	80.2079	1,623.05	84.7934	1,623.05	77.981	1,623.05	82.4362	1,623.05	75.045	1,623.05	76.7084	1,623.05	67.4947	1,623.05	77.4162	1,623.05	64.3764	1,623.05	76.2615	1,623.05	70.4934	1,623.05	73.5281	1,623.05	70.8386	1,623.05	68.7401	1,623.05	68.5707	1,623.05	72.3009	1,623.05	67.3368	1,623.05	75.7163	1,623.05	72.9949
1,681.64	88.826	1,681.64	90.6336	1,681.64	85.1542	1,681.64	90.4797	1,681.64	81.1036	1,681.64	88.6474	1,681.64	83.2891	1,681.64	86.4524	1,681.64	86.9058	1,681.64	85.7081	1,681.64	88.7285	1,681.64	86.0746	1,681.64	88.9856	1,681.64	85.7151	1,681.64	87.4961	1,681.64	82.8567	1,681.64	84.5083	1,681.64	78.0293	1,681.64	82.0322	1,681.64	80.0585	1,681.64	78.8054	1,681.64	81.3858	1,681.64	76.5197	1,681.64	78.8877	1,681.64	76.259	1,681.64	71.4452	1,681.64	67.8152	1,681.64	55.2148	1,681.64	71.2115	1,681.64	68.8365	1,681.64	67.9577	1,681.64	69.9167	1,681.64	71.2014	1,681.64	68.4263	1,681.64	73.4512	1,681.64	70.2899
1,740.23	88.9432	1,740.23	90.5023	1,740.23	85.8411	1,740.23	90.5177	1,740.23	81.8998	1,740.23	89.3269	1,740.23	82.5474	1,740.23	88.0013	1,740.23	85.5022	1,740.23	87.2099	1,740.23	87.475	1,740.23	86.3888	1,740.23	87.8477	1,740.23	84.9179	1,740.23	86.4539	1,740.23	81.892	1,740.23	83.9743	1,740.23	75.4708	1,740.23	80.8568	1,740.23	71.584	1,740.23	73.3345	1,740.23	76.6303	1,740.23	68.018	1,740.23	77.152	1,740.23	64.0826	1,740.23	74.18	1,740.23	71.0745	1,740.23	68.0795	1,740.23	74.4664	1,740.23	62.2313	1,740.23	70.8514	1,740.23	67.7656	1,740.23	73.1533	1,740.23	69.0981	1,740.23	73.8897	1,740.23	70.5018
1,801.76	89.9774	1,801.76	91.2364	1,801.76	86.8488	1,801.76	90.9878	1,801.76	82.7077	1,801.76	89.7518	1,801.76	82.1231	1,801.76	87.7978	1,801.76	84.3105	1,801.76	85.322	1,801.76	86.041	1,801.76	83.0095	1,801.76	86.6562	1,801.76	81.7113	1,801.76	85.9737	1,801.76	79.8501	1,801.76	84.6404	1,801.76	75.5067	1,801.76	82.7122	1,801.76	67.359	1,801.76	77.0357	1,801.76	61.5774	1,801.76	55.047	1,801.76	58.7864	1,801.76	71.6718	1,801.76	54.01	1,801.76	74.1479	1,801.76	57.8596	1,801.76	73.8882	1,801.76	63.4281	1,801.76	70.9377	1,801.76	66.7407	1,801.76	67.0006	1,801.76	65.948	1,801.76	73.7415	1,801.76	71.6301
1,866.21	90.5447	1,866.21	91.8411	1,866.21	87.4758	1,866.21	91.2306	1,866.21	83.5142	1,866.21	89.1019	1,866.21	81.3517	1,866.21	86.3616	1,866.21	82.2998	1,866.21	83.8254	1,866.21	84.2685	1,866.21	81.8705	1,866.21	85.4363	1,866.21	79.8013	1,866.21	85.7084	1,866.21	77.0082	1,866.21	85.2768	1,866.21	76.7085	1,866.21	82.9362	1,866.21	77.5505	1,866.21	77.6797	1,866.21	75.4287	1,866.21	73.6596	1,866.21	68.3202	1,866.21	67.7626	1,866.21	55.9391	1,866.21	75.6871	1,866.21	56.1872	1,866.21	69.1315	1,866.21	58.8333	1,866.21	69.6492	1,866.21	68.0517	1,866.21	71.174	1,866.21	67.2732	1,866.21	74.0082	1,866.21	70.0613
1,930.66	90.2688	1,930.66	91.9107	1,930.66	86.9976	1,930.66	91.4208	1,930.66	83.1918	1,930.66	88.4516	1,930.66	81.3914	1,930.66	83.6177	1,930.66	82.557	1,930.66	79.9383	1,930.66	84.5586	1,930.66	80.3077	1,930.66	85.863	1,930.66	80.8953	1,930.66	87.078	1,930.66	78.5561	1,930.66	87.5914	1,930.66	71.0961	1,930.66	85.0156	1,930.66	73.6593	1,930.66	78.0658	1,930.66	75.032	1,930.66	75.1437	1,930.66	71.9694	1,930.66	61.8168	1,930.66	64.6033	1,930.66	74.5772	1,930.66	53.4878	1,930.66	65.3422	1,930.66	66.342	1,930.66	70.9811	1,930.66	71.7765	1,930.66	69.3892	1,930.66	70.3837	1,930.66	73.3349	1,930.66	68.887
2,000.98	90.5907	2,000.98	91.6484	2,000.98	87.4213	2,000.98	90.6244	2,000.98	83.0335	2,000.98	86.8074	2,000.98	81.0193	2,000.98	80.9461	2,000.98	82.6099	2,000.98	79.8592	2,000.98	84.7831	2,000.98	82.2008	2,000.98	85.7579	2,000.98	83.0166	2,000.98	86.7931	2,000.98	78.6425	2,000.98	87.5647	2,000.98	59.3981	2,000.98	85.463	2,000.98	74.6255	2,000.98	78.5364	2,000.98	75.095	2,000.98	69.4705	2,000.98	72.4586	2,000.98	72.2832	2,000.98	69.3288	2,000.98	70.8891	2,000.98	63.2671	2,000.98	70.8625	2,000.98	64.379	2,000.98	75.5362	2,000.98	69.7592	2,000.98	65.8494	2,000.98	69.9185	2,000.98	64.9288	2,000.98	66.3158
2,071.29	91.9157	2,071.29	92.5656	2,071.29	88.2639	2,071.29	90.1291	2,071.29	82.7474	2,071.29	86.1073	2,071.29	79.2727	2,071.29	84.6155	2,071.29	81.2524	2,071.29	83.6476	2,071.29	83.7965	2,071.29	81.8491	2,071.29	85.0921	2,071.29	80.9921	2,071.29	86.3185	2,071.29	77.0082	2,071.29	86.1412	2,071.29	66.4746	2,071.29	82.056	2,071.29	58.0861	2,071.29	77.4654	2,071.29	65.501	2,071.29	72.6586	2,071.29	69.6423	2,071.29	76.3928	2,071.29	70.4503	2,071.29	74.5931	2,071.29	69.6804	2,071.29	72.0345	2,071.29	60.3497	2,071.29	72.7578	2,071.29	71.23	2,071.29	67.0085	2,071.29	73.3766	2,071.29	66.3497	2,071.29	66.3952
2,144.53	90.7999	2,144.53	91.3317	2,144.53	88.0056	2,144.53	89.2972	2,144.53	83.4953	2,144.53	85.9352	2,144.53	79.2794	2,144.53	83.4565	2,144.53	80.9989	2,144.53	81.3471	2,144.53	84.2726	2,144.53	78.7392	2,144.53	85.8554	2,144.53	74.522	2,144.53	86.3078	2,144.53	69.2537	2,144.53	85.6919	2,144.53	64.5717	2,144.53	82.3968	2,144.53	75.1548	2,144.53	78.8728	2,144.53	77.8973	2,144.53	76.4307	2,144.53	74.4411	2,144.53	68.0241	2,144.53	71.0164	2,144.53	67.9392	2,144.53	73.6862	2,144.53	70.5763	2,144.53	70.4334	2,144.53	67.6832	2,144.53	66.1216	2,144.53	64.8929	2,144.53	73.3894	2,144.53	71.0611	2,144.53	71.9128
2,217.77	88.7433	2,217.77	89.8774	2,217.77	85.907	2,217.77	89.1627	2,217.77	82.0331	2,217.77	86.2726	2,217.77	78.1108	2,217.77	81.9972	2,217.77	80.5986	2,217.77	78.1659	2,217.77	84.2667	2,217.77	78.6134	2,217.77	85.1538	2,217.77	78.8429	2,217.77	85.4634	2,217.77	76.8509	2,217.77	85.8226	2,217.77	72.5873	2,217.77	82.7204	2,217.77	53.9565	2,217.77	74.5375	2,217.77	70.9265	2,217.77	72.6335	2,217.77	72.1961	2,217.77	65.9629	2,217.77	56.4646	2,217.77	68.4177	2,217.77	70.7796	2,217.77	65.2702	2,217.77	72.2463	2,217.77	70.2549	2,217.77	69.4705	2,217.77	69.7466	2,217.77	70.3757	2,217.77	69.9894	2,217.77	72.5469
2,296.88	89.4222	2,296.88	89.8077	2,296.88	86.2055	2,296.88	87.6241	2,296.88	80.259	2,296.88	84.6348	2,296.88	70.966	2,296.88	83.0284	2,296.88	80.592	2,296.88	80.6349	2,296.88	83.2701	2,296.88	78.4608	2,296.88	83.6288	2,296.88	79.4934	2,296.88	85.7246	2,296.88	79.015	2,296.88	86.1996	2,296.88	76.9968	2,296.88	81.6057	2,296.88	74.3261	2,296.88	74.6532	2,296.88	74.6122	2,296.88	72.7183	2,296.88	75.7538	2,296.88	77.2041	2,296.88	72.2674	2,296.88	71.3735	2,296.88	62.9873	2,296.88	73.5986	2,296.88	70.9716	2,296.88	61.5077	2,296.88	71.8506	2,296.88	69.9322	2,296.88	69.9481	2,296.88	68.8692	2,296.88	73.3764
2,378.91	89.5733	2,378.91	90.1914	2,378.91	86.218	2,378.91	88.2746	2,378.91	78.8477	2,378.91	85.5368	2,378.91	73.9214	2,378.91	83.1839	2,378.91	83.7743	2,378.91	79.1262	2,378.91	85.3867	2,378.91	78.8784	2,378.91	83.8178	2,378.91	79.2099	2,378.91	84.6404	2,378.91	77.1224	2,378.91	85.5212	2,378.91	75.8087	2,378.91	81.0421	2,378.91	77.8457	2,378.91	71.998	2,378.91	79.7113	2,378.91	68.8893	2,378.91	76.8764	2,378.91	74.8068	2,378.91	71.9697	2,378.91	55.8818	2,378.91	72.762	2,378.91	75.165	2,378.91	69.9187	2,378.91	67.047	2,378.91	72.9283	2,378.91	48.4945	2,378.91	72.7399	2,378.91	69.4237	2,378.91	71.3963
2,460.94	89.4463	2,460.94	90.5921	2,460.94	85.1542	2,460.94	88.4913	2,460.94	74.8952	2,460.94	83.9146	2,460.94	77.7278	2,460.94	80.1387	2,460.94	85.2538	2,460.94	78.0167	2,460.94	86.6709	2,460.94	79.1544	2,460.94	84.9354	2,460.94	80.3647	2,460.94	84.4204	2,460.94	79.0327	2,460.94	84.6127	2,460.94	78.0376	2,460.94	79.4104	2,460.94	77.1168	2,460.94	75.8979	2,460.94	76.3633	2,460.94	73.8634	2,460.94	75.5666	2,460.94	68.7666	2,460.94	73.4749	2,460.94	65.6435	2,460.94	72.6401	2,460.94	67.6712	2,460.94	71.6433	2,460.94	54.3221	2,460.94	70.8938	2,460.94	62.154	2,460.94	71.9887	2,460.94	67.7751	2,460.94	72.6141
2,548.83	89.6244	2,548.83	90.6471	2,548.83	84.9029	2,548.83	88.865	2,548.83	69.9992	2,548.83	84.6242	2,548.83	81.035	2,548.83	77.12	2,548.83	87.0931	2,548.83	76.1787	2,548.83	88.4396	2,548.83	79.6202	2,548.83	86.5287	2,548.83	79.9061	2,548.83	85.0464	2,548.83	78.893	2,548.83	85.4514	2,548.83	77.9327	2,548.83	81.2811	2,548.83	76.6236	2,548.83	76.9231	2,548.83	75.6878	2,548.83	70.7616	2,548.83	74.8921	2,548.83	74.3382	2,548.83	72.7343	2,548.83	68.0166	2,548.83	72.5122	2,548.83	72.4152	2,548.83	72.5553	2,548.83	60.8297	2,548.83	70.7277	2,548.83	60.8957	2,548.83	72.0587	2,548.83	67.8141	2,548.83	73.2155
2,639.65	90.4634	2,639.65	90.9989	2,639.65	86.2423	2,639.65	88.729	2,639.65	73.0932	2,639.65	83.6734	2,639.65	83.459	2,639.65	72.4975	2,639.65	88.3782	2,639.65	74.7878	2,639.65	88.8247	2,639.65	79.8648	2,639.65	86.441	2,639.65	80.6077	2,639.65	85.2363	2,639.65	80.1729	2,639.65	84.9404	2,639.65	79.2386	2,639.65	79.1376	2,639.65	77.6347	2,639.65	77.3103	2,639.65	76.4816	2,639.65	73.6451	2,639.65	75.7783	2,639.65	70.7206	2,639.65	73.4663	2,639.65	65.6513	2,639.65	72.0852	2,639.65	69.1319	2,639.65	72.1976	2,639.65	57.1353	2,639.65	70.5569	2,639.65	53.8668	2,639.65	70.0304	2,639.65	68.2719	2,639.65	71.8139
2,733.4	90.5103	2,733.4	91.2553	2,733.4	86.6352	2,733.4	88.5038	2,733.4	75.6168	2,733.4	81.1265	2,733.4	84.0089	2,733.4	62.4746	2,733.4	89.6786	2,733.4	75.271	2,733.4	89.222	2,733.4	79.1655	2,733.4	84.3006	2,733.4	80.5949	2,733.4	84.5012	2,733.4	80.9034	2,733.4	85.3815	2,733.4	80.4325	2,733.4	79.6524	2,733.4	78.8225	2,733.4	68.914	2,733.4	76.3171	2,733.4	72.1214	2,733.4	75.8436	2,733.4	65.3168	2,733.4	74.9334	2,733.4	66.8818	2,733.4	72.8586	2,733.4	63.7411	2,733.4	72.9271	2,733.4	64.6736	2,733.4	70.6253	2,733.4	57.4786	2,733.4	70.3894	2,733.4	66.0797	2,733.4	68.9051
2,827.15	90.4361	2,827.15	90.8859	2,827.15	86.6491	2,827.15	87.4938	2,827.15	76.7052	2,827.15	80.8037	2,827.15	82.1847	2,827.15	74.624	2,827.15	89.6582	2,827.15	75.4658	2,827.15	89.7092	2,827.15	81.0687	2,827.15	84.1161	2,827.15	82.5186	2,827.15	82.1848	2,827.15	82.0488	2,827.15	85.0806	2,827.15	80.6992	2,827.15	81.8227	2,827.15	79.5519	2,827.15	73.9401	2,827.15	78.2183	2,827.15	61.1549	2,827.15	76.297	2,827.15	70.5808	2,827.15	75.0293	2,827.15	71.5427	2,827.15	74.0055	2,827.15	57.5565	2,827.15	72.6563	2,827.15	59.8846	2,827.15	70.3109	2,827.15	49.3306	2,827.15	69.5994	2,827.15	66.264	2,827.15	70.128
2,926.76	89.8194	2,926.76	90.0922	2,926.76	85.6968	2,926.76	86.5468	2,926.76	77.4658	2,926.76	82.0744	2,926.76	81.8345	2,926.76	74.413	2,926.76	89.0389	2,926.76	78.693	2,926.76	89.6115	2,926.76	83.3054	2,926.76	85.142	2,926.76	83.4478	2,926.76	82.2226	2,926.76	81.5134	2,926.76	84.6081	2,926.76	79.1584	2,926.76	80.8531	2,926.76	78.227	2,926.76	74.2708	2,926.76	77.5501	2,926.76	61.6867	2,926.76	76.3594	2,926.76	66.7843	2,926.76	74.7859	2,926.76	71.5956	2,926.76	73.8301	2,926.76	63.511	2,926.76	73.9189	2,926.76	64.6266	2,926.76	72.4307	2,926.76	55.0038	2,926.76	69.5776	2,926.76	65.9063	2,926.76	69.2389
3,032.23	89.2841	3,032.23	89.7127	3,032.23	84.3935	3,032.23	86.4764	3,032.23	79.3183	3,032.23	82.2003	3,032.23	82.9315	3,032.23	69.3695	3,032.23	88.5492	3,032.23	82.2257	3,032.23	89.2555	3,032.23	84.6501	3,032.23	84.9089	3,032.23	83.1391	3,032.23	82.2234	3,032.23	81.5656	3,032.23	84.3275	3,032.23	80.1683	3,032.23	80.0832	3,032.23	79.0138	3,032.23	75.0421	3,032.23	77.8592	3,032.23	62.953	3,032.23	76.7323	3,032.23	65.3527	3,032.23	74.5313	3,032.23	69.4883	3,032.23	73.6697	3,032.23	65.2673	3,032.23	73.9685	3,032.23	61.0347	3,032.23	71.9584	3,032.23	58.5575	3,032.23	70.4873	3,032.23	66.2409	3,032.23	66.5832
3,137.7	89.3049	3,137.7	89.7959	3,137.7	83.681	3,137.7	86.8607	3,137.7	81.1016	3,137.7	80.4184	3,137.7	85.8393	3,137.7	75.2724	3,137.7	88.7398	3,137.7	84.0946	3,137.7	88.6754	3,137.7	84.7927	3,137.7	84.3219	3,137.7	83.1891	3,137.7	81.7618	3,137.7	81.3695	3,137.7	83.2561	3,137.7	79.639	3,137.7	79.4509	3,137.7	78.8453	3,137.7	76.6303	3,137.7	77.721	3,137.7	70.4359	3,137.7	76.8376	3,137.7	54.8452	3,137.7	75.0928	3,137.7	69.7272	3,137.7	73.8656	3,137.7	68.9331	3,137.7	74.3283	3,137.7	65.459	3,137.7	72.3318	3,137.7	60.972	3,137.7	70.4567	3,137.7	65.8892	3,137.7	67.1026
3,249.02	89.3214	3,249.02	89.4798	3,249.02	83.5862	3,249.02	86.4485	3,249.02	81.9268	3,249.02	79.7447	3,249.02	87.8072	3,249.02	80.6302	3,249.02	89.4339	3,249.02	84.942	3,249.02	88.3181	3,249.02	84.5955	3,249.02	82.7644	3,249.02	83.5313	3,249.02	79.9858	3,249.02	81.9603	3,249.02	82.7483	3,249.02	80.4513	3,249.02	79.5543	3,249.02	79.3013	3,249.02	75.4612	3,249.02	77.7817	3,249.02	70.6658	3,249.02	77.0847	3,249.02	63.425	3,249.02	75.3887	3,249.02	67.3685	3,249.02	73.7402	3,249.02	66.1011	3,249.02	74.0531	3,249.02	60.2642	3,249.02	72.4111	3,249.02	59.5047	3,249.02	70.2853	3,249.02	66.3726	3,249.02	67.6319
3,363.28	89.3251	3,363.28	89.4784	3,363.28	84.0642	3,363.28	86.1874	3,363.28	82.0429	3,363.28	79.7632	3,363.28	89.0489	3,363.28	82.771	3,363.28	90.4427	3,363.28	85.3024	3,363.28	88.221	3,363.28	84.7149	3,363.28	81.9035	3,363.28	83.6979	3,363.28	79.2395	3,363.28	81.6108	3,363.28	82.0646	3,363.28	80.4303	3,363.28	81.8187	3,363.28	79.8404	3,363.28	77.0302	3,363.28	78.0449	3,363.28	69.0023	3,363.28	77.6503	3,363.28	66.7322	3,363.28	76.083	3,363.28	70.6599	3,363.28	74.2502	3,363.28	66.718	3,363.28	75.2924	3,363.28	59.8866	3,363.28	73.1982	3,363.28	65.0699	3,363.28	69.6721	3,363.28	67.1446	3,363.28	67.6207
3,483.4	89.1462	3,483.4	89.5735	3,483.4	83.6062	3,483.4	86.3063	3,483.4	83.1563	3,483.4	81.4333	3,483.4	89.0815	3,483.4	83.3485	3,483.4	90.5958	3,483.4	85.8204	3,483.4	88.3932	3,483.4	85.6704	3,483.4	80.0494	3,483.4	84.9153	3,483.4	79.6067	3,483.4	83.0311	3,483.4	82.1038	3,483.4	80.7459	3,483.4	80.5591	3,483.4	79.7631	3,483.4	75.9401	3,483.4	78.7712	3,483.4	71.0936	3,483.4	78.2341	3,483.4	58.7711	3,483.4	76.519	3,483.4	67.6624	3,483.4	74.6199	3,483.4	67.2538	3,483.4	75.7986	3,483.4	61.9076	3,483.4	74.1827	3,483.4	67.1719	3,483.4	70.155	3,483.4	66.5701	3,483.4	67.5021
3,606.45	89.318	3,606.45	90.0853	3,606.45	83.3775	3,606.45	86.8951	3,606.45	84.0493	3,606.45	81.5493	3,606.45	89.361	3,606.45	84.2273	3,606.45	89.9061	3,606.45	86.9216	3,606.45	87.0866	3,606.45	86.9727	3,606.45	79.329	3,606.45	85.6413	3,606.45	80.1093	3,606.45	83.41	3,606.45	82.4772	3,606.45	81.69	3,606.45	79.2174	3,606.45	80.9559	3,606.45	73.0456	3,606.45	79.5488	3,606.45	66.2814	3,606.45	78.8727	3,606.45	63.9295	3,606.45	77.3796	3,606.45	67.4297	3,606.45	75.2185	3,606.45	67.5438	3,606.45	76.2753	3,606.45	63.6375	3,606.45	75.1363	3,606.45	67.7308	3,606.45	71.5156	3,606.45	67.181	3,606.45	68.0324
3,732.42	89.7106	3,732.42	90.3404	3,732.42	82.7926	3,732.42	87.088	3,732.42	84.716	3,732.42	81.7589	3,732.42	89.6549	3,732.42	86.1725	3,732.42	89.8482	3,732.42	88.4485	3,732.42	86.3783	3,732.42	86.8753	3,732.42	77.5209	3,732.42	86.2422	3,732.42	81.3901	3,732.42	84.0038	3,732.42	83.7761	3,732.42	81.1035	3,732.42	80.6229	3,732.42	81.1457	3,732.42	66.2292	3,732.42	79.9467	3,732.42	70.1963	3,732.42	78.9238	3,732.42	61.3917	3,732.42	78.0922	3,732.42	64.101	3,732.42	76.0845	3,732.42	65.1099	3,732.42	76.8863	3,732.42	61.1779	3,732.42	75.7226	3,732.42	66.5108	3,732.42	71.9607	3,732.42	65.1877	3,732.42	68.646
3,864.26	89.9999	3,864.26	90.4368	3,864.26	83.8675	3,864.26	86.6859	3,864.26	84.7609	3,864.26	82.4383	3,864.26	89.5613	3,864.26	87.8181	3,864.26	89.3232	3,864.26	88.2143	3,864.26	85.891	3,864.26	87.2916	3,864.26	77.7808	3,864.26	86.8431	3,864.26	81.8496	3,864.26	84.9005	3,864.26	83.5955	3,864.26	82.4557	3,864.26	80.6129	3,864.26	80.6896	3,864.26	72.6826	3,864.26	79.4343	3,864.26	61.6115	3,864.26	78.2497	3,864.26	65.9315	3,864.26	77.6951	3,864.26	68.1194	3,864.26	76.2724	3,864.26	64.6258	3,864.26	76.3977	3,864.26	55.3499	3,864.26	75.957	3,864.26	66.1395	3,864.26	72.0893	3,864.26	64.3817	3,864.26	68.8315
3,999.02	90.2877	3,999.02	90.8678	3,999.02	83.4181	3,999.02	86.3272	3,999.02	85.5415	3,999.02	83.8985	3,999.02	89.3207	3,999.02	88.5966	3,999.02	88.2553	3,999.02	88.4896	3,999.02	84.8448	3,999.02	87.6557	3,999.02	78.6012	3,999.02	86.721	3,999.02	80.4843	3,999.02	84.1035	3,999.02	80.7593	3,999.02	81.6246	3,999.02	77.9203	3,999.02	80.2422	3,999.02	71.7679	3,999.02	78.8334	3,999.02	61.9877	3,999.02	77.4381	3,999.02	64.6066	3,999.02	76.9456	3,999.02	63.9539	3,999.02	75.3251	3,999.02	66.0706	3,999.02	76.0093	3,999.02	53.6368	3,999.02	75.5396	3,999.02	65.7049	3,999.02	71.4549	3,999.02	61.8276	3,999.02	67.6669
4,139.65	90.4947	4,139.65	90.7185	4,139.65	83.7137	4,139.65	85.4141	4,139.65	85.7574	4,139.65	86.5795	4,139.65	89.5723	4,139.65	88.9186	4,139.65	88.0624	4,139.65	87.8142	4,139.65	84.424	4,139.65	87.3898	4,139.65	79.2569	4,139.65	86.4043	4,139.65	78.9512	4,139.65	84.5755	4,139.65	79.4484	4,139.65	80.4426	4,139.65	75.3833	4,139.65	78.6728	4,139.65	72.8475	4,139.65	78.4679	4,139.65	65.6767	4,139.65	76.9153	4,139.65	54.56	4,139.65	76.6729	4,139.65	57.8911	4,139.65	74.3061	4,139.65	56.5408	4,139.65	75.232	4,139.65	53.5584	4,139.65	75.127	4,139.65	67.7873	4,139.65	72.0934	4,139.65	58.8257	4,139.65	66.8312
4,286.13	90.9932	4,286.13	90.6523	4,286.13	84.3879	4,286.13	85.5321	4,286.13	85.6084	4,286.13	87.5395	4,286.13	89.2334	4,286.13	88.503	4,286.13	87.1852	4,286.13	87.6225	4,286.13	83.4103	4,286.13	87.7995	4,286.13	80.1547	4,286.13	85.8719	4,286.13	79.0158	4,286.13	84.5249	4,286.13	77.8591	4,286.13	81.7216	4,286.13	73.7858	4,286.13	78.2271	4,286.13	76.6929	4,286.13	76.7413	4,286.13	71.9581	4,286.13	75.7195	4,286.13	66.5158	4,286.13	75.535	4,286.13	60.9135	4,286.13	74.0595	4,286.13	64.1033	4,286.13	74.2958	4,286.13	60.3016	4,286.13	74.7336	4,286.13	64.903	4,286.13	71.4262	4,286.13	57.7607	4,286.13	66.1534
4,438.48	91.3492	4,438.48	90.5621	4,438.48	84.6619	4,438.48	85.6075	4,438.48	86.7934	4,438.48	88.2649	4,438.48	89.4636	4,438.48	88.4805	4,438.48	87.1585	4,438.48	88.1049	4,438.48	83.3256	4,438.48	86.7901	4,438.48	79.8428	4,438.48	84.953	4,438.48	79.6489	4,438.48	83.2814	4,438.48	80.0822	4,438.48	80.4187	4,438.48	78.6521	4,438.48	78.1127	4,438.48	80.0133	4,438.48	75.0626	4,438.48	71.5181	4,438.48	74.9409	4,438.48	64.5031	4,438.48	74.2638	4,438.48	53.9756	4,438.48	71.9629	4,438.48	63.8487	4,438.48	73.4289	4,438.48	59.8376	4,438.48	73.1503	4,438.48	65.7898	4,438.48	70.9232	4,438.48	58.7653	4,438.48	65.1327
4,593.75	91.6126	4,593.75	89.8946	4,593.75	85.2675	4,593.75	86.516	4,593.75	86.9599	4,593.75	88.7216	4,593.75	89.3705	4,593.75	88.5307	4,593.75	86.2736	4,593.75	88.0017	4,593.75	83.0655	4,593.75	85.8979	4,593.75	77.7243	4,593.75	84.773	4,593.75	78.0786	4,593.75	82.4125	4,593.75	79.8662	4,593.75	78.1159	4,593.75	76.6691	4,593.75	76.5347	4,593.75	78.6276	4,593.75	73.9725	4,593.75	67.2006	4,593.75	73.247	4,593.75	62.1933	4,593.75	73.614	4,593.75	60.1799	4,593.75	70.2302	4,593.75	63.4003	4,593.75	71.7323	4,593.75	56.4841	4,593.75	72.0485	4,593.75	61.6884	4,593.75	69.3892	4,593.75	57.2459	4,593.75	63.3185
4,757.81	91.2147	4,757.81	89.532	4,757.81	85.8014	4,757.81	87.278	4,757.81	87.2184	4,757.81	88.4478	4,757.81	90.0858	4,757.81	89.0433	4,757.81	86.3386	4,757.81	87.8638	4,757.81	81.6979	4,757.81	85.3543	4,757.81	75.9061	4,757.81	83.0369	4,757.81	73.5983	4,757.81	79.7024	4,757.81	80.5343	4,757.81	75.2463	4,757.81	78.0415	4,757.81	73.0355	4,757.81	79.099	4,757.81	71.3976	4,757.81	64.3083	4,757.81	70.9459	4,757.81	63.284	4,757.81	71.3963	4,757.81	59.1271	4,757.81	68.7706	4,757.81	62.4654	4,757.81	69.9768	4,757.81	63.2098	4,757.81	71.1518	4,757.81	62.279	4,757.81	68.1156	4,757.81	48.5717	4,757.81	59.0163
4,924.8	91.4781	4,924.8	89.7188	4,924.8	85.7993	4,924.8	87.417	4,924.8	87.5037	4,924.8	89.1183	4,924.8	90.4112	4,924.8	89.5219	4,924.8	86.8662	4,924.8	87.1276	4,924.8	81.1206	4,924.8	83.6167	4,924.8	74.2057	4,924.8	80.5805	4,924.8	76.5782	4,924.8	78.0125	4,924.8	80.818	4,924.8	76.1498	4,924.8	76.8849	4,924.8	73.435	4,924.8	77.9285	4,924.8	71.9064	4,924.8	63.9497	4,924.8	70.6939	4,924.8	53.219	4,924.8	71.6184	4,924.8	50.7092	4,924.8	69.0924	4,924.8	60.6924	4,924.8	69.5537	4,924.8	63.7016	4,924.8	71.1784	4,924.8	61.4195	4,924.8	68.7325	4,924.8	50.4811	4,924.8	62.1407
5,097.66	91.6218	5,097.66	89.5436	5,097.66	86.3309	5,097.66	87.6796	5,097.66	86.6884	5,097.66	89.8138	5,097.66	90.4506	5,097.66	89.3772	5,097.66	87.1752	5,097.66	85.744	5,097.66	81.4343	5,097.66	82.4068	5,097.66	76.7215	5,097.66	80.4005	5,097.66	71.3138	5,097.66	78.2676	5,097.66	77.093	5,097.66	76.3886	5,097.66	72.3541	5,097.66	73.1756	5,097.66	75.92	5,097.66	71.2546	5,097.66	58.8929	5,097.66	70.201	5,097.66	58.2208	5,097.66	69.974	5,097.66	59.4622	5,097.66	68.6778	5,097.66	61.6355	5,097.66	67.8731	5,097.66	64.1903	5,097.66	71.0018	5,097.66	62.0172	5,097.66	67.4102	5,097.66	47.9599	5,097.66	61.8634
5,279.3	91.8968	5,279.3	89.4213	5,279.3	87.2446	5,279.3	88.0537	5,279.3	85.8126	5,279.3	90.1465	5,279.3	89.9518	5,279.3	88.5515	5,279.3	86.9543	5,279.3	84.4916	5,279.3	82.2416	5,279.3	82.6648	5,279.3	80.7843	5,279.3	80.168	5,279.3	75.8759	5,279.3	78.7924	5,279.3	75.8482	5,279.3	75.2244	5,279.3	69.6219	5,279.3	72.8317	5,279.3	77.1414	5,279.3	70.8116	5,279.3	67.8558	5,279.3	70.0169	5,279.3	52.8417	5,279.3	69.1439	5,279.3	58.8158	5,279.3	67.9353	5,279.3	59.3627	5,279.3	67.6256	5,279.3	61.4919	5,279.3	69.8519	5,279.3	59.3236	5,279.3	66.4039	5,279.3	55.2032	5,279.3	62.727
5,463.87	92.2773	5,463.87	88.5996	5,463.87	88.9025	5,463.87	88.7196	5,463.87	84.2273	5,463.87	89.9573	5,463.87	89.5093	5,463.87	87.1612	5,463.87	87.0573	5,463.87	84.4996	5,463.87	82.0785	5,463.87	82.5713	5,463.87	81.7012	5,463.87	80.1274	5,463.87	77.7346	5,463.87	76.7808	5,463.87	75.3504	5,463.87	73.5022	5,463.87	61.7616	5,463.87	70.698	5,463.87	74.7228	5,463.87	67.4427	5,463.87	68.0904	5,463.87	68.1971	5,463.87	60.3896	5,463.87	65.5869	5,463.87	60.184	5,463.87	65.5316	5,463.87	58.7515	5,463.87	63.9497	5,463.87	61.7457	5,463.87	67.7836	5,463.87	58.5339	5,463.87	64.2145	5,463.87	48.9462	5,463.87	59.1869
5,657.23	91.4304	5,657.23	87.9462	5,657.23	89.8542	5,657.23	89.5051	5,657.23	84.8277	5,657.23	89.2538	5,657.23	88.5398	5,657.23	86.3477	5,657.23	86.8809	5,657.23	84.6186	5,657.23	83.3033	5,657.23	81.6702	5,657.23	83.1628	5,657.23	77.575	5,657.23	77.7614	5,657.23	73.1867	5,657.23	71.7317	5,657.23	70.9615	5,657.23	72.083	5,657.23	68.7716	5,657.23	71.0021	5,657.23	67.347	5,657.23	63.5081	5,657.23	67.1487	5,657.23	63.8251	5,657.23	65.4808	5,657.23	59.2857	5,657.23	65.7785	5,657.23	58.3577	5,657.23	62.83	5,657.23	60.8562	5,657.23	66.1389	5,657.23	57.8733	5,657.23	63.8863	5,657.23	53.3763	5,657.23	60.8852
5,856.45	91.0672	5,856.45	88.9985	5,856.45	89.9653	5,856.45	90.0558	5,856.45	86.3465	5,856.45	88.8951	5,856.45	87.8419	5,856.45	86.2011	5,856.45	86.5687	5,856.45	83.8212	5,856.45	82.9178	5,856.45	80.2417	5,856.45	82.0091	5,856.45	75.655	5,856.45	79.2039	5,856.45	72.4174	5,856.45	73.4495	5,856.45	72.343	5,856.45	72.6153	5,856.45	70.0944	5,856.45	69.647	5,856.45	68.9271	5,856.45	67.1871	5,856.45	68.3708	5,856.45	65.8102	5,856.45	66.7631	5,856.45	59.713	5,856.45	65.7152	5,856.45	56.327	5,856.45	64.4771	5,856.45	56.5606	5,856.45	65.8698	5,856.45	58.9056	5,856.45	63.9169	5,856.45	48.585	5,856.45	63.368
6,061.52	91.4882	6,061.52	89.8472	6,061.52	90.221	6,061.52	90.366	6,061.52	87.3677	6,061.52	88.4756	6,061.52	87.4959	6,061.52	85.5703	6,061.52	85.9755	6,061.52	82.6235	6,061.52	82.8089	6,061.52	79.4166	6,061.52	79.5114	6,061.52	74.8773	6,061.52	76.5676	6,061.52	74.2885	6,061.52	73.0834	6,061.52	72.8242	6,061.52	69.478	6,061.52	71.638	6,061.52	67.2476	6,061.52	69.2655	6,061.52	63.8145	6,061.52	70.1137	6,061.52	65.1538	6,061.52	67.8302	6,061.52	59.7165	6,061.52	66.8984	6,061.52	49.3062	6,061.52	66.1178	6,061.52	59.2691	6,061.52	67.693	6,061.52	60.5397	6,061.52	63.7142	6,061.52	47.836	6,061.52	63.8726
6,275.39	91.6647	6,275.39	90.5926	6,275.39	90.5405	6,275.39	90.5664	6,275.39	88.1666	6,275.39	88.1843	6,275.39	87.4861	6,275.39	85.3193	6,275.39	85.6093	6,275.39	81.83	6,275.39	83.2505	6,275.39	78.5777	6,275.39	77.6651	6,275.39	75.5791	6,275.39	73.9833	6,275.39	76.8176	6,275.39	75.1538	6,275.39	74.371	6,275.39	69.4856	6,275.39	73.4115	6,275.39	69.1352	6,275.39	70.5176	6,275.39	64.5855	6,275.39	70.5241	6,275.39	62.6633	6,275.39	69.2599	6,275.39	59.8896	6,275.39	68.7132	6,275.39	53.7933	6,275.39	65.0946	6,275.39	58.7717	6,275.39	69.4753	6,275.39	62.3956	6,275.39	65.9067	6,275.39	48.4985	6,275.39	63.9013
6,498.05	91.8431	6,498.05	91.0757	6,498.05	90.7554	6,498.05	90.6481	6,498.05	88.7217	6,498.05	88.3731	6,498.05	87.3962	6,498.05	85.0057	6,498.05	85.4372	6,498.05	81.249	6,498.05	82.739	6,498.05	78.2784	6,498.05	76.7949	6,498.05	77.387	6,498.05	70.1219	6,498.05	77.677	6,498.05	71.274	6,498.05	75.0448	6,498.05	60.3253	6,498.05	73.4529	6,498.05	69.0888	6,498.05	70.3184	6,498.05	60.9444	6,498.05	70.6387	6,498.05	59.5932	6,498.05	69.4938	6,498.05	59.5312	6,498.05	67.068	6,498.05	54.091	6,498.05	67.2508	6,498.05	60.9974	6,498.05	69.0946	6,498.05	60.4665	6,498.05	66.2087	6,498.05	51.8378	6,498.05	62.5835
6,726.56	92.1466	6,726.56	91.4046	6,726.56	91.0362	6,726.56	90.8404	6,726.56	89.153	6,726.56	88.0798	6,726.56	87.76	6,726.56	84.7349	6,726.56	85.1592	6,726.56	80.482	6,726.56	82.488	6,726.56	78.8124	6,726.56	78.1874	6,726.56	78.5983	6,726.56	66.6764	6,726.56	77.5178	6,726.56	70.8193	6,726.56	74.2197	6,726.56	54.7313	6,726.56	72.2906	6,726.56	66.611	6,726.56	69.7391	6,726.56	56.4655	6,726.56	69.8013	6,726.56	58.3964	6,726.56	69.1897	6,726.56	57.2659	6,726.56	67.2285	6,726.56	57.668	6,726.56	65.8354	6,726.56	51.0929	6,726.56	69.3493	6,726.56	60.4714	6,726.56	66.4275	6,726.56	48.4853	6,726.56	63.6887
6,963.87	92.1568	6,963.87	91.5176	6,963.87	91.0367	6,963.87	90.623	6,963.87	89.358	6,963.87	87.7919	6,963.87	87.8432	6,963.87	84.4289	6,963.87	84.9854	6,963.87	80.4237	6,963.87	81.8884	6,963.87	79.9704	6,963.87	78.1049	6,963.87	77.9772	6,963.87	71.8536	6,963.87	76.9038	6,963.87	74.9414	6,963.87	74.5384	6,963.87	70.729	6,963.87	72.4413	6,963.87	59.3945	6,963.87	69.6142	6,963.87	55.257	6,963.87	68.8031	6,963.87	63.4932	6,963.87	68.642	6,963.87	55.1163	6,963.87	67.8539	6,963.87	52.3684	6,963.87	64.5909	6,963.87	55.2086	6,963.87	69.5365	6,963.87	59.7296	6,963.87	67.4763	6,963.87	47.0317	6,963.87	63.5419
7,209.96	91.9923	7,209.96	91.4795	7,209.96	90.9968	7,209.96	90.4496	7,209.96	89.4005	7,209.96	87.7404	7,209.96	87.9555	7,209.96	84.1088	7,209.96	84.9901	7,209.96	81.0334	7,209.96	81.4566	7,209.96	79.299	7,209.96	78.4187	7,209.96	77.7729	7,209.96	72.5126	7,209.96	77.0852	7,209.96	76.3595	7,209.96	75.2646	7,209.96	72.4539	7,209.96	72.7057	7,209.96	63.0996	7,209.96	69.3909	7,209.96	56.8422	7,209.96	67.9702	7,209.96	60.9199	7,209.96	68.0519	7,209.96	53.6277	7,209.96	68.3067	7,209.96	56.7607	7,209.96	63.6032	7,209.96	55.7975	7,209.96	69.5337	7,209.96	56.595	7,209.96	66.0156	7,209.96	39.8275	7,209.96	63.4473
7,464.84	91.9168	7,464.84	91.6514	7,464.84	90.8044	7,464.84	90.3274	7,464.84	89.3777	7,464.84	87.6261	7,464.84	87.8123	7,464.84	84.006	7,464.84	84.9029	7,464.84	80.7955	7,464.84	81.4128	7,464.84	79.185	7,464.84	77.6293	7,464.84	78.3137	7,464.84	73.3186	7,464.84	76.3651	7,464.84	75.0286	7,464.84	75.0627	7,464.84	70.9616	7,464.84	72.5628	7,464.84	66.175	7,464.84	69.5704	7,464.84	55.6584	7,464.84	68.0157	7,464.84	57.289	7,464.84	67.6931	7,464.84	55.2044	7,464.84	67.7869	7,464.84	55.2524	7,464.84	64.9196	7,464.84	49.6082	7,464.84	68.1942	7,464.84	56.2529	7,464.84	64.5598	7,464.84	41.306	7,464.84	61.7189
7,728.52	92.2376	7,728.52	91.8615	7,728.52	91.0027	7,728.52	90.3385	7,728.52	89.2391	7,728.52	87.5746	7,728.52	87.5875	7,728.52	83.7785	7,728.52	84.9116	7,728.52	80.6074	7,728.52	81.5292	7,728.52	79.7792	7,728.52	77.5902	7,728.52	78.0369	7,728.52	72.7416	7,728.52	76.634	7,728.52	71.2201	7,728.52	74.8013	7,728.52	69.2267	7,728.52	72.1985	7,728.52	68.6258	7,728.52	69.5914	7,728.52	65.2984	7,728.52	68.5388	7,728.52	57.5384	7,728.52	67.0702	7,728.52	54.3932	7,728.52	66.981	7,728.52	56.9461	7,728.52	65.7808	7,728.52	53.384	7,728.52	66.8962	7,728.52	58.0111	7,728.52	63.8305	7,728.52	46.6572	7,728.52	59.9524
8,000.98	92.8726	8,000.98	92.3534	8,000.98	91.4867	8,000.98	90.3593	8,000.98	89.5056	8,000.98	87.3309	8,000.98	87.6824	8,000.98	83.1597	8,000.98	85.2783	8,000.98	81.2648	8,000.98	81.9014	8,000.98	79.849	8,000.98	76.0062	8,000.98	78.1051	8,000.98	70.3659	8,000.98	75.8398	8,000.98	67.2431	8,000.98	73.833	8,000.98	62.7311	8,000.98	70.6194	8,000.98	68.1042	8,000.98	68.0801	8,000.98	62.9665	8,000.98	66.9615	8,000.98	47.9831	8,000.98	66.0762	8,000.98	49.3202	8,000.98	65.4206	8,000.98	50.6962	8,000.98	65.0893	8,000.98	51.5657	8,000.98	66.1257	8,000.98	55.2461	8,000.98	64.2349	8,000.98	43.5118	8,000.98	59.6311
8,282.23	93.4965	8,282.23	92.6092	8,282.23	92.1181	8,282.23	90.5038	8,282.23	89.8518	8,282.23	86.7645	8,282.23	88.1177	8,282.23	83.2173	8,282.23	85.5407	8,282.23	81.3701	8,282.23	82.1376	8,282.23	79.9836	8,282.23	76.7502	8,282.23	78.0009	8,282.23	69.3378	8,282.23	75.1068	8,282.23	68.8617	8,282.23	72.8318	8,282.23	58.682	8,282.23	69.3888	8,282.23	67.1787	8,282.23	65.8696	8,282.23	60.8613	8,282.23	66.2556	8,282.23	50.1818	8,282.23	66.3467	8,282.23	48.0528	8,282.23	62.8211	8,282.23	47.0307	8,282.23	63.8784	8,282.23	49.0837	8,282.23	65.4999	8,282.23	57.0825	8,282.23	65.0682	8,282.23	43.8687	8,282.23	59.0306
8,575.2	93.7509	8,575.2	92.7549	8,575.2	92.6407	8,575.2	90.269	8,575.2	90.1251	8,575.2	86.5822	8,575.2	87.847	8,575.2	83.5324	8,575.2	85.4547	8,575.2	81.3424	8,575.2	82.2387	8,575.2	79.8921	8,575.2	77.4227	8,575.2	77.3924	8,575.2	72.1529	8,575.2	74.554	8,575.2	70.0479	8,575.2	71.7999	8,575.2	68.141	8,575.2	68.843	8,575.2	61.9124	8,575.2	65.4161	8,575.2	57.6858	8,575.2	62.4652	8,575.2	53.2952	8,575.2	66.1832	8,575.2	47.084	8,575.2	62.2288	8,575.2	39.494	8,575.2	63.6466	8,575.2	54.1622	8,575.2	63.293	8,575.2	53.096	8,575.2	64.423	8,575.2	43.4468	8,575.2	58.0485
8,876.95	93.7203	8,876.95	92.5786	8,876.95	92.8819	8,876.95	90.08	8,876.95	90.5271	8,876.95	86.6587	8,876.95	87.9671	8,876.95	83.373	8,876.95	85.4054	8,876.95	81.3814	8,876.95	82.2264	8,876.95	79.3726	8,876.95	77.9504	8,876.95	76.424	8,876.95	74.0232	8,876.95	73.3719	8,876.95	71.1323	8,876.95	70.5625	8,876.95	67.2951	8,876.95	68.4066	8,876.95	62.9294	8,876.95	65.6796	8,876.95	65.0711	8,876.95	59.9004	8,876.95	53.349	8,876.95	63.5886	8,876.95	47.6049	8,876.95	63.2437	8,876.95	45.5349	8,876.95	63.988	8,876.95	49.6927	8,876.95	61.8564	8,876.95	53.462	8,876.95	62.5538	8,876.95	47.0477	8,876.95	57.2802
9,190.43	93.7311	9,190.43	92.369	9,190.43	92.9594	9,190.43	89.8779	9,190.43	90.6882	9,190.43	86.6522	9,190.43	87.9379	9,190.43	83.6662	9,190.43	84.9687	9,190.43	81.1662	9,190.43	81.8791	9,190.43	78.2023	9,190.43	78.6734	9,190.43	74.9256	9,190.43	75.0438	9,190.43	71.8158	9,190.43	70.2258	9,190.43	69.5467	9,190.43	67.718	9,190.43	67.0863	9,190.43	64.1558	9,190.43	65.4802	9,190.43	63.5816	9,190.43	59.4653	9,190.43	48.455	9,190.43	61.2591	9,190.43	49.5084	9,190.43	63.5862	9,190.43	49.2418	9,190.43	64.304	9,190.43	50.7806	9,190.43	60.9979	9,190.43	51.7783	9,190.43	60.8911	9,190.43	49.3973	9,190.43	55.6055
9,512.7	93.8492	9,512.7	92.4596	9,512.7	93.1431	9,512.7	90.1172	9,512.7	90.9121	9,512.7	86.6708	9,512.7	88.0757	9,512.7	84.2852	9,512.7	84.606	9,512.7	80.6028	9,512.7	81.3593	9,512.7	76.8103	9,512.7	78.2444	9,512.7	72.9537	9,512.7	73.8526	9,512.7	70.3477	9,512.7	67.494	9,512.7	68.157	9,512.7	62.881	9,512.7	67.4074	9,512.7	62.197	9,512.7	65.3191	9,512.7	63.2178	9,512.7	61.0047	9,512.7	50.6211	9,512.7	61.7117	9,512.7	49.2824	9,512.7	63.3641	9,512.7	46.5598	9,512.7	63.4526	9,512.7	42.2133	9,512.7	62.4242	9,512.7	47.6848	9,512.7	62.1718	9,512.7	51.8659	9,512.7	53.5322
9,849.61	94.2827	9,849.61	93.0608	9,849.61	93.4366	9,849.61	90.2363	9,849.61	91.0965	9,849.61	86.815	9,849.61	88.1235	9,849.61	84.5921	9,849.61	84.2533	9,849.61	80.497	9,849.61	80.7121	9,849.61	76.1501	9,849.61	78.2768	9,849.61	71.0201	9,849.61	72.572	9,849.61	69.9505	9,849.61	66.9079	9,849.61	69.8505	9,849.61	67.6439	9,849.61	68.0737	9,849.61	61.0534	9,849.61	66.9331	9,849.61	60.9882	9,849.61	62.2326	9,849.61	52.9597	9,849.61	63.5214	9,849.61	49.7767	9,849.61	64.3774	9,849.61	47.891	9,849.61	63.5716	9,849.61	36.3159	9,849.61	64.1952	9,849.61	44.5586	9,849.61	63.8022	9,849.61	55.4408	9,849.61	50.4735
10,195.3	94.8083	10,195.3	93.5501	10,195.3	93.6694	10,195.3	90.4352	10,195.3	91.0379	10,195.3	87.0152	10,195.3	87.9998	10,195.3	84.7009	10,195.3	84.0194	10,195.3	80.3357	10,195.3	80.7297	10,195.3	74.3614	10,195.3	78.3182	10,195.3	70.6063	10,195.3	72.7125	10,195.3	71.9297	10,195.3	66.1885	10,195.3	70.8485	10,195.3	67.6887	10,195.3	68.5559	10,195.3	45.3838	10,195.3	67.3835	10,195.3	60.0613	10,195.3	63.1956	10,195.3	49.7604	10,195.3	65.7116	10,195.3	45.6298	10,195.3	64.5594	10,195.3	48.0274	10,195.3	64.9366	10,195.3	41.3967	10,195.3	64.5003	10,195.3	49.1642	10,195.3	64.703	10,195.3	55.3697	10,195.3	53.7719
10,555.7	95.1432	10,555.7	93.5292	10,555.7	94.0172	10,555.7	90.4591	10,555.7	90.9898	10,555.7	86.9977	10,555.7	87.7419	10,555.7	83.8311	10,555.7	83.7684	10,555.7	78.2785	10,555.7	80.489	10,555.7	72.3338	10,555.7	78.2451	10,555.7	71.5026	10,555.7	73.1291	10,555.7	72.8658	10,555.7	65.3874	10,555.7	71.8993	10,555.7	66.5373	10,555.7	69.3176	10,555.7	52.7688	10,555.7	67.2377	10,555.7	59.8502	10,555.7	63.5135	10,555.7	40.4142	10,555.7	65.6503	10,555.7	55.582	10,555.7	64.3431	10,555.7	53.7199	10,555.7	65.2898	10,555.7	50.1886	10,555.7	63.714	10,555.7	51.4588	10,555.7	63.8056	10,555.7	55.468	10,555.7	53.7218
10,927.7	95.3645	10,927.7	93.3707	10,927.7	94.4794	10,927.7	90.1987	10,927.7	90.9364	10,927.7	87.1944	10,927.7	87.4286	10,927.7	82.8684	10,927.7	83.6839	10,927.7	75.476	10,927.7	80.0564	10,927.7	71.6498	10,927.7	78.0183	10,927.7	74.9554	10,927.7	72.9154	10,927.7	74.9873	10,927.7	65.6938	10,927.7	72.8166	10,927.7	65.927	10,927.7	70.6316	10,927.7	52.7619	10,927.7	67.1642	10,927.7	58.6178	10,927.7	62.7422	10,927.7	51.8626	10,927.7	64.5321	10,927.7	55.5497	10,927.7	64.7442	10,927.7	51.4378	10,927.7	65.8541	10,927.7	49.7667	10,927.7	64.5353	10,927.7	34.3085	10,927.7	63.5356	10,927.7	55.6322	10,927.7	52.8937
11,314.5	95.542	11,314.5	93.3222	11,314.5	94.7877	11,314.5	90.4903	11,314.5	91.0167	11,314.5	87.9788	11,314.5	87.135	11,314.5	82.8462	11,314.5	83.727	11,314.5	75.3131	11,314.5	81.1977	11,314.5	77.3914	11,314.5	77.5122	11,314.5	78.4287	11,314.5	73.0902	11,314.5	75.813	11,314.5	71.0614	11,314.5	73.4404	11,314.5	62.9537	11,314.5	71.3986	11,314.5	57.493	11,314.5	68.8279	11,314.5	58.5179	11,314.5	63.961	11,314.5	57.2697	11,314.5	64.4385	11,314.5	55.3322	11,314.5	65.4965	11,314.5	48.4459	11,314.5	67.0178	11,314.5	46.7099	11,314.5	65.054	11,314.5	43.791	11,314.5	65.1594	11,314.5	53.3748	11,314.5	54.7432
11,712.9	95.5205	11,712.9	93.6095	11,712.9	94.6383	11,712.9	90.7843	11,712.9	90.9449	11,712.9	88.5298	11,712.9	86.6672	11,712.9	82.5675	11,712.9	83.9401	11,712.9	77.3199	11,712.9	83.1674	11,712.9	80.9106	11,712.9	78.7399	11,712.9	79.13	11,712.9	76.6822	11,712.9	77.7312	11,712.9	74.0683	11,712.9	73.6069	11,712.9	62.0702	11,712.9	71.6753	11,712.9	60.5949	11,712.9	69.22	11,712.9	61.2599	11,712.9	65.0386	11,712.9	57.8584	11,712.9	64.832	11,712.9	61.8558	11,712.9	66.9733	11,712.9	50.1571	11,712.9	66.5403	11,712.9	52.0531	11,712.9	65.2439	11,712.9	48.3069	11,712.9	66.7612	11,712.9	55.9799	11,712.9	55.308
12,126	95.1714	12,126	93.049	12,126	94.4212	12,126	90.6298	12,126	90.8074	12,126	88.3101	12,126	87.1508	12,126	81.4134	12,126	85.1895	12,126	81.1863	12,126	85.1578	12,126	82.1412	12,126	81.8395	12,126	80.243	12,126	79.7264	12,126	76.5647	12,126	73.5487	12,126	72.6035	12,126	58.0584	12,126	69.572	12,126	59.7185	12,126	69.1454	12,126	54.0425	12,126	63.364	12,126	59.0347	12,126	64.1519	12,126	58.4699	12,126	66.6739	12,126	38.6221	12,126	65.085	12,126	53.9058	12,126	65.0475	12,126	52.4511	12,126	65.9541	12,126	55.4626	12,126	53.7219
12,553.7	94.8495	12,553.7	92.104	12,553.7	94.5489	12,553.7	90.9402	12,553.7	91.1902	12,553.7	88.206	12,553.7	87.5023	12,553.7	81.939	12,553.7	86.341	12,553.7	83.827	12,553.7	86.1942	12,553.7	82.7136	12,553.7	83.5257	12,553.7	78.3877	12,553.7	80.4745	12,553.7	74.7691	12,553.7	72.4409	12,553.7	72.213	12,553.7	59.3399	12,553.7	69.4148	12,553.7	62.5259	12,553.7	67.7626	12,553.7	57.4435	12,553.7	63.488	12,553.7	59.4206	12,553.7	63.3225	12,553.7	59.9438	12,553.7	66.6344	12,553.7	43.4112	12,553.7	64.9361	12,553.7	44.5872	12,553.7	63.9367	12,553.7	51.0668	12,553.7	64.2157	12,553.7	54.8314	12,553.7	57.0946
12,996.1	93.7929	12,996.1	91.9241	12,996.1	93.6067	12,996.1	91.4719	12,996.1	89.8643	12,996.1	87.3546	12,996.1	86.3047	12,996.1	84.1078	12,996.1	86.0231	12,996.1	84.1165	12,996.1	86.1683	12,996.1	81.165	12,996.1	83.3148	12,996.1	77.4106	12,996.1	79.3546	12,996.1	73.7047	12,996.1	70.168	12,996.1	71.1971	12,996.1	61.1517	12,996.1	68.7892	12,996.1	65.3013	12,996.1	67.6709	12,996.1	59.2507	12,996.1	62.3381	12,996.1	58.9385	12,996.1	63.5857	12,996.1	62.2372	12,996.1	65.9988	12,996.1	52.7888	12,996.1	64.66	12,996.1	46.0353	12,996.1	65.19	12,996.1	54.1825	12,996.1	64.2174	12,996.1	55.7067	12,996.1	55.5291
13,453.1	91.6733	13,453.1	91.703	13,453.1	90.6669	13,453.1	90.7165	13,453.1	88.0783	13,453.1	85.9749	13,453.1	86.9069	13,453.1	83.9479	13,453.1	86.275	13,453.1	82.437	13,453.1	85.797	13,453.1	80.3963	13,453.1	83.1424	13,453.1	75.6397	13,453.1	78.4333	13,453.1	74.3457	13,453.1	71.5707	13,453.1	71.4805	13,453.1	60.785	13,453.1	70.1661	13,453.1	63.2642	13,453.1	66.6219	13,453.1	66.9969	13,453.1	60.0913	13,453.1	63.6302	13,453.1	63.5392	13,453.1	61.7187	13,453.1	65.8131	13,453.1	56.5802	13,453.1	66.1799	13,453.1	55.3978	13,453.1	64.3387	13,453.1	57.0067	13,453.1	65.2531	13,453.1	56.8916	13,453.1	57.3408
13,927.7	89.1449	13,927.7	89.4771	13,927.7	90.17	13,927.7	88.5107	13,927.7	91.4639	13,927.7	83.9965	13,927.7	90.7747	13,927.7	84.8575	13,927.7	88.5952	13,927.7	84.3405	13,927.7	86.4396	13,927.7	82.6607	13,927.7	82.3619	13,927.7	78.0766	13,927.7	77.104	13,927.7	76.0086	13,927.7	71.1971	13,927.7	72.972	13,927.7	55.1896	13,927.7	71.7896	13,927.7	63.0668	13,927.7	68.1906	13,927.7	70.5394	13,927.7	61.3406	13,927.7	64.4405	13,927.7	62.4098	13,927.7	61.9769	13,927.7	66.1518	13,927.7	58.3501	13,927.7	66.2395	13,927.7	60.2978	13,927.7	63.9786	13,927.7	60.4449	13,927.7	66.5003	13,927.7	57.0758	13,927.7	59.9612
14,419.9	92.0083	14,419.9	91.5173	14,419.9	94.1499	14,419.9	90.8976	14,419.9	95.1773	14,419.9	88.5661	14,419.9	93.8764	14,419.9	89.7203	14,419.9	91.0472	14,419.9	86.4526	14,419.9	88.0499	14,419.9	83.3144	14,419.9	84.2647	14,419.9	77.6957	14,419.9	79.4789	14,419.9	74.5027	14,419.9	62.9226	14,419.9	70.9788	14,419.9	42.073	14,419.9	70.8226	14,419.9	58.9005	14,419.9	66.7108	14,419.9	70.9533	14,419.9	63.4645	14,419.9	62.123	14,419.9	60.8859	14,419.9	63.4237	14,419.9	65.2956	14,419.9	55.614	14,419.9	66.2283	14,419.9	59.7346	14,419.9	60.8608	14,419.9	60.0406	14,419.9	66.0616	14,419.9	56.6943	14,419.9	58.1305
14,929.7	94.3822	14,929.7	94.0351	14,929.7	95.1755	14,929.7	92.2482	14,929.7	95.1453	14,929.7	90.7574	14,929.7	93.3554	14,929.7	89.4777	14,929.7	89.9561	14,929.7	84.5653	14,929.7	86.3585	14,929.7	80.0002	14,929.7	82.9124	14,929.7	74.8621	14,929.7	76.8581	14,929.7	70.8817	14,929.7	65.3081	14,929.7	68.5928	14,929.7	52.7429	14,929.7	66.6962	14,929.7	49.6357	14,929.7	61.5772	14,929.7	63.2906	14,929.7	58.366	14,929.7	59.6789	14,929.7	57.7895	14,929.7	59.852	14,929.7	62.0135	14,929.7	55.0468	14,929.7	63.4577	14,929.7	38.8981	14,929.7	59.851	14,929.7	57.8116	14,929.7	59.013	14,929.7	49.5807	14,929.7	50.8609
15,454.1	94.6921	15,454.1	93.9311	15,454.1	94.7678	15,454.1	91.8366	15,454.1	93.9981	15,454.1	90.2826	15,454.1	91.9283	15,454.1	87.7071	15,454.1	87.896	15,454.1	82.4671	15,454.1	83.9386	15,454.1	77.8574	15,454.1	79.3118	15,454.1	73.3314	15,454.1	73.0306	15,454.1	68.5362	15,454.1	63.3998	15,454.1	67.4483	15,454.1	53.3971	15,454.1	63.5955	15,454.1	45.8965	15,454.1	60.1185	15,454.1	50.5178	15,454.1	53.3844	15,454.1	57.2894	15,454.1	56.8099	15,454.1	52.8939	15,454.1	60.1486	15,454.1	52.5331	15,454.1	60.042	15,454.1	52.1597	15,454.1	56.2055	15,454.1	55.1923	15,454.1	57.6623	15,454.1	51.2996	15,454.1	49.4848
15,999	94.1634	15,999	93.2679	15,999	93.945	15,999	91.1873	15,999	93.0393	15,999	89.7836	15,999	90.8615	15,999	85.9653	15,999	86.8649	15,999	80.8514	15,999	82.4661	15,999	76.1914	15,999	77.272	15,999	71.0229	15,999	70.8719	15,999	66.2564	15,999	61.7604	15,999	64.301	15,999	58.1173	15,999	59.8867	15,999	50.4718	15,999	56.7109	15,999	52.8235	15,999	51.6848	15,999	50.904	15,999	50.849	15,999	54.9652	15,999	58.7031	15,999	45.6266	15,999	57.2999	15,999	48.7774	15,999	55.0872	15,999	52.5423	15,999	54.9885	15,999	50.3012	15,999	45.4786
16,564.5	93.5367	16,564.5	92.1401	16,564.5	92.9101	16,564.5	90.5914	16,564.5	91.7268	16,564.5	88.7719	16,564.5	89.5769	16,564.5	84.0598	16,564.5	85.6658	16,564.5	79.0863	16,564.5	81.1675	16,564.5	74.526	16,564.5	75.3624	16,564.5	68.7672	16,564.5	68.953	16,564.5	65.4337	16,564.5	62.7488	16,564.5	62.3687	16,564.5	53.1427	16,564.5	56.5438	16,564.5	56.8434	16,564.5	55.6181	16,564.5	56.7862	16,564.5	47.9123	16,564.5	52.8525	16,564.5	52.7212	16,564.5	56.8036	16,564.5	56.1417	16,564.5	45.8582	16,564.5	54.812	16,564.5	34.1044	16,564.5	57.2685	16,564.5	52.5131	16,564.5	54.1196	16,564.5	52.5737	16,564.5	42.6757
17,147.5	93.766	17,147.5	91.4642	17,147.5	93.2726	17,147.5	88.5472	17,147.5	90.2019	17,147.5	83.3879	17,147.5	86.608	17,147.5	79.3507	17,147.5	81.2887	17,147.5	75.5829	17,147.5	75.4838	17,147.5	70.391	17,147.5	70.112	17,147.5	66.4368	17,147.5	64.0157	17,147.5	63.3086	17,147.5	57.6758	17,147.5	60.381	17,147.5	51.5033	17,147.5	53.7708	17,147.5	55.4823	17,147.5	52.8953	17,147.5	51.4302	17,147.5	49.7116	17,147.5	52.9484	17,147.5	49.4963	17,147.5	54.4646	17,147.5	53.7356	17,147.5	52.9306	17,147.5	53.8857	17,147.5	42.153	17,147.5	55.6321	17,147.5	50.9095	17,147.5	49.1006	17,147.5	47.812	17,147.5	37.9247
17,753.9	94.047	17,753.9	91.6506	17,753.9	93.8876	17,753.9	84.7999	17,753.9	90.1693	17,753.9	73.0965	17,753.9	83.9332	17,753.9	67.951	17,753.9	75.6532	17,753.9	68.3035	17,753.9	66.9563	17,753.9	63.0291	17,753.9	62.3171	17,753.9	64.2667	17,753.9	62.6763	17,753.9	61.8266	17,753.9	59.1502	17,753.9	58.4931	17,753.9	54.9115	17,753.9	55.526	17,753.9	57.8166	17,753.9	52.6765	17,753.9	57.1911	17,753.9	50.4911	17,753.9	48.0873	17,753.9	47.0068	17,753.9	49.7434	17,753.9	55.1543	17,753.9	57.8024	17,753.9	54.6695	17,753.9	49.0469	17,753.9	54.8764	17,753.9	51.1999	17,753.9	51.5398	17,753.9	49.5126	17,753.9	43.943
18,377.9	93.9086	18,377.9	91.6584	18,377.9	93.7734	18,377.9	84.7526	18,377.9	90.691	18,377.9	80.9763	18,377.9	84.3863	18,377.9	63.6458	18,377.9	73.9242	18,377.9	66.276	18,377.9	60.2933	18,377.9	56.1547	18,377.9	62.2008	18,377.9	64.3304	18,377.9	65.7857	18,377.9	61.4292	18,377.9	62.8275	18,377.9	57.7868	18,377.9	52.567	18,377.9	57.1382	18,377.9	63.2455	18,377.9	54.6926	18,377.9	61.3534	18,377.9	48.6657	18,377.9	46.0314	18,377.9	46.0672	18,377.9	44.0287	18,377.9	55.9437	18,377.9	59.5974	18,377.9	54.0833	18,377.9	53.0487	18,377.9	55.1483	18,377.9	43.2231	18,377.9	52.3074	18,377.9	54.9809	18,377.9	48.436
19,028.3	94.1759	19,028.3	91.5737	19,028.3	93.7981	19,028.3	87.4353	19,028.3	91.3183	19,028.3	83.4908	19,028.3	85.4746	19,028.3	74.6612	19,028.3	73.8037	19,028.3	69.0338	19,028.3	65.5171	19,028.3	57.5769	19,028.3	65.7822	19,028.3	64.4624	19,028.3	67.8918	19,028.3	60.8811	19,028.3	65.6533	19,028.3	58.2676	19,028.3	50.002	19,028.3	57.3268	19,028.3	63.3668	19,028.3	56.0267	19,028.3	61.8102	19,028.3	48.4915	19,028.3	48.9606	19,028.3	44.852	19,028.3	44.9613	19,028.3	53.2107	19,028.3	59.0932	19,028.3	52.2875	19,028.3	57.5864	19,028.3	55.0474	19,028.3	42.4679	19,028.3	49.0957	19,028.3	57.7284	19,028.3	51.2614
19,699.2	95.0805	19,699.2	91.7632	19,699.2	94.6303	19,699.2	88.2756	19,699.2	91.496	19,699.2	82.6804	19,699.2	85.1447	19,699.2	77.8847	19,699.2	73.4065	19,699.2	71.1259	19,699.2	68.3145	19,699.2	65.3825	19,699.2	65.1048	19,699.2	62.8235	19,699.2	62.6687	19,699.2	57.6791	19,699.2	59.0884	19,699.2	58.3667	19,699.2	44.1342	19,699.2	53.9657	19,699.2	50.2386	19,699.2	53.5992	19,699.2	50.9457	19,699.2	39.0754	19,699.2	55.991	19,699.2	43.5092	19,699.2	45.1061	19,699.2	49.7626	19,699.2	58.7208	19,699.2	48.6995	19,699.2	59.3228	19,699.2	47.6448	19,699.2	49.3775	19,699.2	36.8954	19,699.2	56.4842	19,699.2	47.1598
19,998	95.1322	19,998	91.6655	19,998	94.7807	19,998	87.8171	19,998	91.4184	19,998	82.1674	19,998	84.509	19,998	78.7281	19,998	73.0538	19,998	72.0909	19,998	65.592	19,998	68.6274	19,998	68.4259	19,998	63.2453	19,998	49.2294	19,998	61.3487	19,998	60.3799	19,998	60.5474	19,998	64.0918	19,998	54.2521	19,998	53.5412	19,998	56.452	19,998	56.8027	19,998	45.2858	19,998	59.8859	19,998	53.0208	19,998	58.9392	19,998	53.1086	19,998	61.4404	19,998	57.2156	19,998	58.9173	19,998	57.4113	19,998	42.9558	19,998	45.279	19,998	55.7703	19,998	36.7922
