"SPL Horizontal"																																																																							
"On-Axis"		"10°"		"-10°"		"20°"		"-20°"		"30°"		"-30°"		"40°"		"-40°"		"50°"		"-50°"		"60°"		"-60°"		"70°"		"-70°"		"80°"		"-80°"		"90°"		"-90°"		"100°"		"-100°"		"110°"		"-110°"		"120°"		"-120°"		"130°"		"-130°"		"140°"		"-140°"		"150°"		"-150°"		"160°"		"-160°"		"170°"		"-170°"		"180°"	
"Frequency [Hz]"	"Sound Pessure Level [dB]  / [2.83V 1m] "	"Frequency [Hz]"	"Sound Pessure Level [dB]  / [2.83V 1m] "	"Frequency [Hz]"	"Sound Pessure Level [dB]  / [2.83V 1m] "	"Frequency [Hz]"	"Sound Pessure Level [dB]  / [2.83V 1m] "	"Frequency [Hz]"	"Sound Pessure Level [dB]  / [2.83V 1m] "	"Frequency [Hz]"	"Sound Pessure Level [dB]  / [2.83V 1m] "	"Frequency [Hz]"	"Sound Pessure Level [dB]  / [2.83V 1m] "	"Frequency [Hz]"	"Sound Pessure Level [dB]  / [2.83V 1m] "	"Frequency [Hz]"	"Sound Pessure Level [dB]  / [2.83V 1m] "	"Frequency [Hz]"	"Sound Pessure Level [dB]  / [2.83V 1m] "	"Frequency [Hz]"	"Sound Pessure Level [dB]  / [2.83V 1m] "	"Frequency [Hz]"	"Sound Pessure Level [dB]  / [2.83V 1m] "	"Frequency [Hz]"	"Sound Pessure Level [dB]  / [2.83V 1m] "	"Frequency [Hz]"	"Sound Pessure Level [dB]  / [2.83V 1m] "	"Frequency [Hz]"	"Sound Pessure Level [dB]  / [2.83V 1m] "	"Frequency [Hz]"	"Sound Pessure Level [dB]  / [2.83V 1m] "	"Frequency [Hz]"	"Sound Pessure Level [dB]  / [2.83V 1m] "	"Frequency [Hz]"	"Sound Pessure Level [dB]  / [2.83V 1m] "	"Frequency [Hz]"	"Sound Pessure Level [dB]  / [2.83V 1m] "	"Frequency [Hz]"	"Sound Pessure Level [dB]  / [2.83V 1m] "	"Frequency [Hz]"	"Sound Pessure Level [dB]  / [2.83V 1m] "	"Frequency [Hz]"	"Sound Pessure Level [dB]  / [2.83V 1m] "	"Frequency [Hz]"	"Sound Pessure Level [dB]  / [2.83V 1m] "	"Frequency [Hz]"	"Sound Pessure Level [dB]  / [2.83V 1m] "	"Frequency [Hz]"	"Sound Pessure Level [dB]  / [2.83V 1m] "	"Frequency [Hz]"	"Sound Pessure Level [dB]  / [2.83V 1m] "	"Frequency [Hz]"	"Sound Pessure Level [dB]  / [2.83V 1m] "	"Frequency [Hz]"	"Sound Pessure Level [dB]  / [2.83V 1m] "	"Frequency [Hz]"	"Sound Pessure Level [dB]  / [2.83V 1m] "	"Frequency [Hz]"	"Sound Pessure Level [dB]  / [2.83V 1m] "	"Frequency [Hz]"	"Sound Pessure Level [dB]  / [2.83V 1m] "	"Frequency [Hz]"	"Sound Pessure Level [dB]  / [2.83V 1m] "	"Frequency [Hz]"	"Sound Pessure Level [dB]  / [2.83V 1m] "	"Frequency [Hz]"	"Sound Pessure Level [dB]  / [2.83V 1m] "	"Frequency [Hz]"	"Sound Pessure Level [dB]  / [2.83V 1m] "	"Frequency [Hz]"	"Sound Pessure Level [dB]  / [2.83V 1m] "
20.5078	69.9045	20.5078	69.8887	20.5078	69.8962	20.5078	69.8487	20.5078	69.8639	20.5078	69.785	20.5078	69.8081	20.5078	69.6982	20.5078	69.7296	20.5078	69.5898	20.5078	69.6298	20.5078	69.4615	20.5078	69.5102	20.5078	69.3162	20.5078	69.3733	20.5078	69.1574	20.5078	69.2221	20.5078	68.9896	20.5078	69.0605	20.5078	68.8182	20.5078	68.8933	20.5078	68.6493	20.5078	68.7258	20.5078	68.4892	20.5078	68.5638	20.5078	68.3441	20.5078	68.4133	20.5078	68.2197	20.5078	68.2801	20.5078	68.1207	20.5078	68.169	20.5078	68.0504	20.5078	68.0842	20.5078	68.0111	20.5078	68.0285	20.5078	68.0038
23.4375	72.9706	23.4375	72.9586	23.4375	72.9621	23.4375	72.9263	23.4375	72.9332	23.4375	72.8742	23.4375	72.8845	23.4375	72.8031	23.4375	72.8169	23.4375	72.7146	23.4375	72.7318	23.4375	72.6107	23.4375	72.6309	23.4375	72.4939	23.4375	72.5166	23.4375	72.3674	23.4375	72.3919	23.4375	72.2353	23.4375	72.2604	23.4375	72.1017	23.4375	72.1263	23.4375	71.9714	23.4375	71.9942	23.4375	71.8488	23.4375	71.8688	23.4375	71.7382	23.4375	71.7547	23.4375	71.6433	23.4375	71.6559	23.4375	71.567	23.4375	71.5758	23.4375	71.5114	23.4375	71.5169	23.4375	71.4779	23.4375	71.4805	23.4375	71.4675
26.3672	75.0677	26.3672	75.0541	26.3672	75.0622	26.3672	75.0216	26.3672	75.0377	26.3672	74.9706	26.3672	74.9948	26.3672	74.9023	26.3672	74.9344	26.3672	74.818	26.3672	74.8577	26.3672	74.7199	26.3672	74.7667	26.3672	74.6105	26.3672	74.6636	26.3672	74.4932	26.3672	74.5512	26.3672	74.3716	26.3672	74.4329	26.3672	74.25	26.3672	74.3125	26.3672	74.1326	26.3672	74.194	26.3672	74.0238	26.3672	74.0815	26.3672	73.9271	26.3672	73.9789	26.3672	73.8458	26.3672	73.8896	26.3672	73.7821	26.3672	73.8163	26.3672	73.7376	26.3672	73.761	26.3672	73.713	26.3672	73.7249	26.3672	73.7088
29.2969	76.8629	29.2969	76.8504	29.2969	76.8585	29.2969	76.8214	29.2969	76.8375	29.2969	76.7763	29.2969	76.8003	29.2969	76.7164	29.2969	76.7479	29.2969	76.643	29.2969	76.6815	29.2969	76.5583	29.2969	76.603	29.2969	76.4648	29.2969	76.5147	29.2969	76.3654	29.2969	76.4191	29.2969	76.2637	29.2969	76.3194	29.2969	76.1631	29.2969	76.219	29.2969	76.0674	29.2969	76.1214	29.2969	75.9798	29.2969	76.0298	29.2969	75.9031	29.2969	75.9474	29.2969	75.8395	29.2969	75.8765	29.2969	75.7904	29.2969	75.8189	29.2969	75.7565	29.2969	75.7759	29.2969	75.7381	29.2969	75.7479	29.2969	75.7353
32.2266	78.6199	32.2266	78.608	32.2266	78.6172	32.2266	78.5815	32.2266	78.5999	32.2266	78.5413	32.2266	78.5685	32.2266	78.4882	32.2266	78.5238	32.2266	78.4239	32.2266	78.4671	32.2266	78.3501	32.2266	78.4	32.2266	78.2694	32.2266	78.3246	32.2266	78.1843	32.2266	78.2433	32.2266	78.0979	32.2266	78.1587	32.2266	78.0134	32.2266	78.0739	32.2266	77.9338	32.2266	77.9917	32.2266	77.8616	32.2266	77.915	32.2266	77.7993	32.2266	77.8462	32.2266	77.7482	32.2266	77.7872	32.2266	77.7093	32.2266	77.7393	32.2266	77.683	32.2266	77.7033	32.2266	77.6694	32.2266	77.6796	32.2266	77.6683
35.1563	80.1378	35.1563	80.127	35.1563	80.1357	35.1563	80.1036	35.1563	80.1209	35.1563	80.0683	35.1563	80.0939	35.1563	80.022	35.1563	80.0554	35.1563	79.9663	35.1563	80.0067	35.1563	79.9029	35.1563	79.9492	35.1563	79.834	35.1563	79.885	35.1563	79.762	35.1563	79.8162	35.1563	79.6898	35.1563	79.7453	35.1563	79.6198	35.1563	79.6748	35.1563	79.5547	35.1563	79.6071	35.1563	79.4966	35.1563	79.5446	35.1563	79.447	35.1563	79.4892	35.1563	79.4071	35.1563	79.442	35.1563	79.3773	35.1563	79.4041	35.1563	79.3575	35.1563	79.3757	35.1563	79.3477	35.1563	79.3568	35.1563	79.3475
38.0859	81.5352	38.0859	81.5252	38.0859	81.534	38.0859	81.5041	38.0859	81.5216	38.0859	81.4725	38.0859	81.4984	38.0859	81.4316	38.0859	81.4653	38.0859	81.3825	38.0859	81.4234	38.0859	81.3271	38.0859	81.3743	38.0859	81.2674	38.0859	81.3196	38.0859	81.2057	38.0859	81.2614	38.0859	81.1443	38.0859	81.2018	38.0859	81.0857	38.0859	81.143	38.0859	81.0319	38.0859	81.0871	38.0859	80.9847	38.0859	81.0359	38.0859	80.9453	38.0859	80.9906	38.0859	80.9143	38.0859	80.9523	38.0859	80.892	38.0859	80.9215	38.0859	80.8779	38.0859	80.898	38.0859	80.8718	38.0859	80.882	38.0859	80.8733
41.0156	82.7288	41.0156	82.7212	41.0156	82.7263	41.0156	82.7036	41.0156	82.7137	41.0156	82.6768	41.0156	82.6916	41.0156	82.6417	41.0156	82.6607	41.0156	82.5995	41.0156	82.6222	41.0156	82.5519	41.0156	82.5774	41.0156	82.5008	41.0156	82.5282	41.0156	82.4482	41.0156	82.4765	41.0156	82.3963	41.0156	82.4242	41.0156	82.347	41.0156	82.3735	41.0156	82.3019	41.0156	82.3261	41.0156	82.2626	41.0156	82.2836	41.0156	82.2297	41.0156	82.2471	41.0156	82.2036	41.0156	82.2172	41.0156	82.1843	41.0156	82.1942	41.0156	82.1713	41.0156	82.1777	41.0156	82.1644	41.0156	82.1675	41.0156	82.1631
43.9453	83.9274	43.9453	83.9222	43.9453	83.9228	43.9453	83.9076	43.9453	83.9086	43.9453	83.884	43.9453	83.8854	43.9453	83.8523	43.9453	83.8539	43.9453	83.8137	43.9453	83.8154	43.9453	83.7697	43.9453	83.7713	43.9453	83.7222	43.9453	83.7233	43.9453	83.6729	43.9453	83.6734	43.9453	83.6237	43.9453	83.6235	43.9453	83.5766	43.9453	83.5755	43.9453	83.5331	43.9453	83.5311	43.9453	83.4945	43.9453	83.4917	43.9453	83.4616	43.9453	83.4584	43.9453	83.4348	43.9453	83.4315	43.9453	83.4143	43.9453	83.4112	43.9453	83.3997	43.9453	83.3974	43.9453	83.3908	43.9453	83.3895	43.9453	83.3874
46.875	84.8796	46.875	84.8742	46.875	84.8766	46.875	84.8609	46.875	84.8654	46.875	84.8401	46.875	84.8463	46.875	84.8128	46.875	84.8201	46.875	84.7803	46.875	84.7878	46.875	84.744	46.875	84.7507	46.875	84.7055	46.875	84.7105	46.875	84.6664	46.875	84.6689	46.875	84.6283	46.875	84.6277	46.875	84.5926	46.875	84.5886	46.875	84.5604	46.875	84.5532	46.875	84.5325	46.875	84.5226	46.875	84.5091	46.875	84.4976	46.875	84.4902	46.875	84.4784	46.875	84.4755	46.875	84.465	46.875	84.4647	46.875	84.4567	46.875	84.4574	46.875	84.4531	46.875	84.4534
49.8047	85.8012	49.8047	85.7951	49.8047	85.7989	49.8047	85.7811	49.8047	85.7885	49.8047	85.7598	49.8047	85.7702	49.8047	85.732	49.8047	85.7451	49.8047	85.699	49.8047	85.714	49.8047	85.6624	49.8047	85.6784	49.8047	85.6238	49.8047	85.6398	49.8047	85.5848	49.8047	85.6	49.8047	85.5472	49.8047	85.5607	49.8047	85.5124	49.8047	85.5235	49.8047	85.4814	49.8047	85.4898	49.8047	85.455	49.8047	85.4607	49.8047	85.4335	49.8047	85.4367	49.8047	85.4168	49.8047	85.418	49.8047	85.4045	49.8047	85.4045	49.8047	85.3961	49.8047	85.3955	49.8047	85.3911	49.8047	85.3906	49.8047	85.3892
52.7344	86.5665	52.7344	86.5623	52.7344	86.563	52.7344	86.5506	52.7344	86.5519	52.7344	86.532	52.7344	86.5335	52.7344	86.5074	52.7344	86.5087	52.7344	86.478	52.7344	86.4786	52.7344	86.4452	52.7344	86.4445	52.7344	86.4105	52.7344	86.408	52.7344	86.3755	52.7344	86.3708	52.7344	86.3416	52.7344	86.3344	52.7344	86.3101	52.7344	86.3005	52.7344	86.282	52.7344	86.2703	52.7344	86.2578	52.7344	86.2446	52.7344	86.2377	52.7344	86.2241	52.7344	86.2217	52.7344	86.2087	52.7344	86.2093	52.7344	86.1981	52.7344	86.2001	52.7344	86.192	52.7344	86.1938	52.7344	86.1895	52.7344	86.1902
55.6641	87.1745	55.6641	87.1706	55.6641	87.1711	55.6641	87.1598	55.6641	87.1606	55.6641	87.1427	55.6641	87.1432	55.6641	87.1202	55.6641	87.1198	55.6641	87.0937	55.6641	87.0914	55.6641	87.0645	55.6641	87.0595	55.6641	87.0341	55.6641	87.0254	55.6641	87.0039	55.6641	86.991	55.6641	86.9752	55.6641	86.9578	55.6641	86.949	55.6641	86.9274	55.6641	86.926	55.6641	86.9009	55.6641	86.9064	55.6641	86.8792	55.6641	86.8902	55.6641	86.8627	55.6641	86.8771	55.6641	86.8513	55.6641	86.8664	55.6641	86.8447	55.6641	86.8579	55.6641	86.8421	55.6641	86.851	55.6641	86.8427	55.6641	86.8459
58.5938	87.7118	58.5938	87.7062	58.5938	87.71	58.5938	87.6935	58.5938	87.7008	58.5938	87.6746	58.5938	87.6847	58.5938	87.6505	58.5938	87.6623	58.5938	87.6226	58.5938	87.6349	58.5938	87.5923	58.5938	87.6037	58.5938	87.5612	58.5938	87.5704	58.5938	87.531	58.5938	87.5367	58.5938	87.5028	58.5938	87.5042	58.5938	87.4778	58.5938	87.4743	58.5938	87.4564	58.5938	87.4483	58.5938	87.4389	58.5938	87.4269	58.5938	87.425	58.5938	87.4106	58.5938	87.4142	58.5938	87.3993	58.5938	87.4059	58.5938	87.3924	58.5938	87.3995	58.5938	87.3892	58.5938	87.3945	58.5938	87.389	58.5938	87.391
61.5234	88.1813	61.5234	88.1737	61.5234	88.1806	61.5234	88.1584	61.5234	88.1716	61.5234	88.1361	61.5234	88.1548	61.5234	88.108	61.5234	88.1309	61.5234	88.0755	61.5234	88.101	61.5234	88.0402	61.5234	88.0666	61.5234	88.0039	61.5234	88.0293	61.5234	87.9681	61.5234	87.9908	61.5234	87.9343	61.5234	87.9529	61.5234	87.9038	61.5234	87.9172	61.5234	87.8771	61.5234	87.8851	61.5234	87.8547	61.5234	87.8575	61.5234	87.8365	61.5234	87.8351	61.5234	87.8222	61.5234	87.8179	61.5234	87.8112	61.5234	87.8059	61.5234	87.8031	61.5234	87.7985	61.5234	87.7977	61.5234	87.795	61.5234	87.7949
64.4531	88.577	64.4531	88.5658	64.4531	88.5806	64.4531	88.5473	64.4531	88.5764	64.4531	88.5226	64.4531	88.5646	64.4531	88.4928	64.4531	88.5459	64.4531	88.4596	64.4531	88.5212	64.4531	88.4244	64.4531	88.4919	64.4531	88.389	64.4531	88.4593	64.4531	88.355	64.4531	88.425	64.4531	88.3237	64.4531	88.3905	64.4531	88.2962	64.4531	88.3573	64.4531	88.2731	64.4531	88.3266	64.4531	88.2545	64.4531	88.2994	64.4531	88.2403	64.4531	88.2761	64.4531	88.23	64.4531	88.2571	64.4531	88.2232	64.4531	88.2423	64.4531	88.2194	64.4531	88.2314	64.4531	88.2183	64.4531	88.224	64.4531	88.2198
67.3828	88.7497	67.3828	88.7326	67.3828	88.7597	67.3828	88.7088	67.3828	88.7622	67.3828	88.6794	67.3828	88.7576	67.3828	88.6458	67.3828	88.7464	67.3828	88.6095	67.3828	88.7294	67.3828	88.5725	67.3828	88.7079	67.3828	88.5366	67.3828	88.683	67.3828	88.5036	67.3828	88.6562	67.3828	88.4749	67.3828	88.6285	67.3828	88.4517	67.3828	88.6012	67.3828	88.4345	67.3828	88.5751	67.3828	88.4233	67.3828	88.5508	67.3828	88.4179	67.3828	88.5287	67.3828	88.4174	67.3828	88.5087	67.3828	88.421	67.3828	88.4909	67.3828	88.4277	67.3828	88.475	67.3828	88.4369	67.3828	88.4607	67.3828	88.448
70.3125	89.0235	70.3125	89.009	70.3125	89.0306	70.3125	88.9876	70.3125	89.0302	70.3125	88.9603	70.3125	89.0227	70.3125	88.9283	70.3125	89.009	70.3125	88.8934	70.3125	88.9901	70.3125	88.8574	70.3125	88.9673	70.3125	88.8225	70.3125	88.9422	70.3125	88.7903	70.3125	88.9161	70.3125	88.7625	70.3125	88.8904	70.3125	88.7403	70.3125	88.8659	70.3125	88.7243	70.3125	88.8436	70.3125	88.7144	70.3125	88.8236	70.3125	88.7103	70.3125	88.8061	70.3125	88.711	70.3125	88.7907	70.3125	88.7156	70.3125	88.777	70.3125	88.7229	70.3125	88.7646	70.3125	88.732	70.3125	88.7531	70.3125	88.7422
73.2422	89.3844	73.2422	89.3669	73.2422	89.3937	73.2422	89.3417	73.2422	89.3948	73.2422	89.3097	73.2422	89.3882	73.2422	89.2723	73.2422	89.3747	73.2422	89.2312	73.2422	89.3555	73.2422	89.1884	73.2422	89.332	73.2422	89.1462	73.2422	89.3055	73.2422	89.1066	73.2422	89.2774	73.2422	89.0716	73.2422	89.2489	73.2422	89.0426	73.2422	89.2209	73.2422	89.0208	73.2422	89.1942	73.2422	89.0064	73.2422	89.1689	73.2422	88.9993	73.2422	89.1452	73.2422	88.999	73.2422	89.1228	73.2422	89.0044	73.2422	89.1016	73.2422	89.0146	73.2422	89.0815	73.2422	89.0282	73.2422	89.0623	73.2422	89.0444
76.1719	89.5614	76.1719	89.5492	76.1719	89.5659	76.1719	89.5294	76.1719	89.5626	76.1719	89.5029	76.1719	89.5523	76.1719	89.471	76.1719	89.5357	76.1719	89.4352	76.1719	89.5144	76.1719	89.3975	76.1719	89.4896	76.1719	89.3596	76.1719	89.4629	76.1719	89.3237	76.1719	89.4356	76.1719	89.2915	76.1719	89.409	76.1719	89.2642	76.1719	89.384	76.1719	89.2428	76.1719	89.3608	76.1719	89.2278	76.1719	89.3398	76.1719	89.219	76.1719	89.3208	76.1719	89.216	76.1719	89.3033	76.1719	89.218	76.1719	89.2872	76.1719	89.2241	76.1719	89.272	76.1719	89.2333	76.1719	89.2578	76.1719	89.2448
79.1016	89.6721	79.1016	89.664	79.1016	89.673	79.1016	89.6488	79.1016	89.6667	79.1016	89.6275	79.1016	89.6539	79.1016	89.6013	79.1016	89.6357	79.1016	89.5716	79.1016	89.6133	79.1016	89.5402	79.1016	89.5883	79.1016	89.509	79.1016	89.5623	79.1016	89.4796	79.1016	89.5367	79.1016	89.4535	79.1016	89.5128	79.1016	89.4317	79.1016	89.4915	79.1016	89.4148	79.1016	89.4731	79.1016	89.4028	79.1016	89.4577	79.1016	89.3956	79.1016	89.4451	79.1016	89.3924	79.1016	89.4346	79.1016	89.3925	79.1016	89.4258	79.1016	89.3951	79.1016	89.4181	79.1016	89.3995	79.1016	89.4112	79.1016	89.405
82.0313	89.7581	82.0313	89.7528	82.0313	89.7555	82.0313	89.74	82.0313	89.7452	82.0313	89.7205	82.0313	89.7279	82.0313	89.6957	82.0313	89.7047	82.0313	89.6672	82.0313	89.6773	82.0313	89.6369	82.0313	89.6473	82.0313	89.6065	82.0313	89.6166	82.0313	89.5779	82.0313	89.5872	82.0313	89.5524	82.0313	89.5604	82.0313	89.531	82.0313	89.5375	82.0313	89.5141	82.0313	89.5191	82.0313	89.5017	82.0313	89.5052	82.0313	89.4933	82.0313	89.4956	82.0313	89.4882	82.0313	89.4895	82.0313	89.4854	82.0313	89.486	82.0313	89.4841	82.0313	89.4843	82.0313	89.4836	82.0313	89.4837	82.0313	89.4835
84.9609	89.7689	84.9609	89.7559	84.9609	89.774	84.9609	89.7357	84.9609	89.7711	84.9609	89.7094	84.9609	89.7606	84.9609	89.6785	84.9609	89.7433	84.9609	89.6451	84.9609	89.7206	84.9609	89.6109	84.9609	89.694	84.9609	89.5781	84.9609	89.6652	84.9609	89.5484	84.9609	89.6359	84.9609	89.5229	84.9609	89.6076	84.9609	89.5026	84.9609	89.5814	84.9609	89.4876	84.9609	89.5582	84.9609	89.4776	84.9609	89.5384	84.9609	89.4718	84.9609	89.522	84.9609	89.4695	84.9609	89.5088	84.9609	89.4697	84.9609	89.4984	84.9609	89.4716	84.9609	89.4903	84.9609	89.4747	84.9609	89.4839	84.9609	89.4788
87.8906	89.7799	87.8906	89.7653	87.8906	89.7868	87.8906	89.7435	87.8906	89.7858	87.8906	89.7158	87.8906	89.7775	87.8906	89.6838	87.8906	89.7628	87.8906	89.6496	87.8906	89.7431	87.8906	89.6152	87.8906	89.72	87.8906	89.5829	87.8906	89.6953	87.8906	89.5544	87.8906	89.6705	87.8906	89.5313	87.8906	89.6469	87.8906	89.5142	87.8906	89.6256	87.8906	89.5033	87.8906	89.607	87.8906	89.4982	87.8906	89.5912	87.8906	89.498	87.8906	89.5779	87.8906	89.5015	87.8906	89.5668	87.8906	89.5075	87.8906	89.5571	87.8906	89.515	87.8906	89.5483	87.8906	89.5232	87.8906	89.5399	87.8906	89.5316
90.8203	89.7305	90.8203	89.7177	90.8203	89.734	90.8203	89.6961	90.8203	89.7283	90.8203	89.6668	90.8203	89.7142	90.8203	89.6316	90.8203	89.6931	90.8203	89.5925	90.8203	89.6666	90.8203	89.5521	90.8203	89.6368	90.8203	89.5128	90.8203	89.6057	90.8203	89.477	90.8203	89.5753	90.8203	89.4464	90.8203	89.5471	90.8203	89.4224	90.8203	89.5222	90.8203	89.4056	90.8203	89.501	90.8203	89.3956	90.8203	89.4836	90.8203	89.3918	90.8203	89.4695	90.8203	89.3931	90.8203	89.458	90.8203	89.3979	90.8203	89.4482	90.8203	89.405	90.8203	89.4393	90.8203	89.4134	90.8203	89.4307	90.8203	89.4221
93.75	89.796	93.75	89.7902	93.75	89.7923	93.75	89.775	93.75	89.7793	93.75	89.7515	93.75	89.7581	93.75	89.7212	93.75	89.7303	93.75	89.6859	93.75	89.6977	93.75	89.6479	93.75	89.6628	93.75	89.6096	93.75	89.6276	93.75	89.5732	93.75	89.5944	93.75	89.5405	93.75	89.5648	93.75	89.5129	93.75	89.5398	93.75	89.4912	93.75	89.5199	93.75	89.4755	93.75	89.5049	93.75	89.4656	93.75	89.494	93.75	89.4605	93.75	89.4862	93.75	89.4592	93.75	89.4804	93.75	89.4605	93.75	89.4757	93.75	89.4636	93.75	89.4715	93.75	89.4674
96.6797	89.7122	96.6797	89.6994	96.6797	89.7144	96.6797	89.6767	96.6797	89.706	96.6797	89.6454	96.6797	89.6878	96.6797	89.6075	96.6797	89.661	96.6797	89.5652	96.6797	89.6273	96.6797	89.5211	96.6797	89.5889	96.6797	89.4776	96.6797	89.548	96.6797	89.437	96.6797	89.5066	96.6797	89.401	96.6797	89.4666	96.6797	89.3705	96.6797	89.4296	96.6797	89.3459	96.6797	89.3967	96.6797	89.327	96.6797	89.3684	96.6797	89.3131	96.6797	89.345	96.6797	89.3033	96.6797	89.3263	96.6797	89.2967	96.6797	89.3122	96.6797	89.2928	96.6797	89.3021	96.6797	89.2912	96.6797	89.2955	96.6797	89.2921
102.539	89.525	102.539	89.5165	102.539	89.5215	102.539	89.4964	102.539	89.5062	102.539	89.4661	102.539	89.4803	102.539	89.4278	102.539	89.4456	102.539	89.3841	102.539	89.4045	102.539	89.3378	102.539	89.3599	102.539	89.2919	102.539	89.3147	102.539	89.2493	102.539	89.2716	102.539	89.212	102.539	89.233	102.539	89.1815	102.539	89.2003	102.539	89.1584	102.539	89.1745	102.539	89.1424	102.539	89.1555	102.539	89.1326	102.539	89.1427	102.539	89.1276	102.539	89.1348	102.539	89.1258	102.539	89.1306	102.539	89.1258	102.539	89.1287	102.539	89.1265	102.539	89.1278	102.539	89.1272
105.469	89.4696	105.469	89.4546	105.469	89.4707	105.469	89.4265	105.469	89.4579	105.469	89.3867	105.469	89.4323	105.469	89.3377	105.469	89.3956	105.469	89.2823	105.469	89.3504	105.469	89.2239	105.469	89.2995	105.469	89.1657	105.469	89.246	105.469	89.1109	105.469	89.1931	105.469	89.062	105.469	89.1432	105.469	89.0209	105.469	89.0986	105.469	88.9885	105.469	89.0603	105.469	88.965	105.469	89.029	105.469	88.9494	105.469	89.0043	105.469	88.9407	105.469	88.9855	105.469	88.9373	105.469	88.9712	105.469	88.9377	105.469	88.9605	105.469	88.9408	105.469	88.9522	105.469	88.9457
108.398	89.6094	108.398	89.592	108.398	89.6119	108.398	89.5605	108.398	89.5996	108.398	89.5167	108.398	89.5734	108.398	89.463	108.398	89.5351	108.398	89.4024	108.398	89.4872	108.398	89.3383	108.398	89.4326	108.398	89.2741	108.398	89.3745	108.398	89.2133	108.398	89.316	108.398	89.1586	108.398	89.2601	108.398	89.1119	108.398	89.209	108.398	89.0745	108.398	89.1643	108.398	89.0464	108.398	89.1266	108.398	89.0272	108.398	89.096	108.398	89.0157	108.398	89.0718	108.398	89.0104	108.398	89.053	108.398	89.01	108.398	89.0386	108.398	89.0131	108.398	89.0275	108.398	89.0191
111.328	89.739	111.328	89.7211	111.328	89.7421	111.328	89.6891	111.328	89.7304	111.328	89.6448	111.328	89.7048	111.328	89.5905	111.328	89.667	111.328	89.5293	111.328	89.6193	111.328	89.4645	111.328	89.5648	111.328	89.3996	111.328	89.5063	111.328	89.3379	111.328	89.4471	111.328	89.2822	111.328	89.39	111.328	89.2344	111.328	89.3371	111.328	89.1957	111.328	89.2902	111.328	89.1665	111.328	89.2501	111.328	89.146	111.328	89.217	111.328	89.1332	111.328	89.1904	111.328	89.1267	111.328	89.1697	111.328	89.1252	111.328	89.1538	111.328	89.1276	111.328	89.1419	111.328	89.1333
117.188	89.7069	117.188	89.6895	117.188	89.7085	117.188	89.657	117.188	89.6942	117.188	89.6114	117.188	89.665	117.188	89.5552	117.188	89.6229	117.188	89.4916	117.188	89.5703	117.188	89.4243	117.188	89.5105	117.188	89.357	117.188	89.4469	117.188	89.2931	117.188	89.383	117.188	89.2355	117.188	89.3218	117.188	89.1864	117.188	89.266	117.188	89.1467	117.188	89.2174	117.188	89.1167	117.188	89.1769	117.188	89.0956	117.188	89.1448	117.188	89.0822	117.188	89.1202	117.188	89.0748	117.188	89.1023	117.188	89.0719	117.188	89.0897	117.188	89.0724	117.188	89.0811	117.188	89.0755
120.117	89.6876	120.117	89.6681	120.117	89.6905	120.117	89.6328	120.117	89.6769	120.117	89.5837	120.117	89.6479	120.117	89.5234	120.117	89.6053	120.117	89.4552	120.117	89.5519	120.117	89.383	120.117	89.4908	120.117	89.3106	120.117	89.4255	120.117	89.2419	120.117	89.3596	120.117	89.1799	120.117	89.2961	120.117	89.1271	120.117	89.2377	120.117	89.0847	120.117	89.1863	120.117	89.0531	120.117	89.1429	120.117	89.0315	120.117	89.1075	120.117	89.0186	120.117	89.0798	120.117	89.0128	120.117	89.0585	120.117	89.0122	120.117	89.0426	120.117	89.0155	120.117	89.0306	120.117	89.0217
125.977	89.432	125.977	89.4094	125.977	89.4364	125.977	89.3699	125.977	89.4229	125.977	89.3153	125.977	89.3923	125.977	89.2483	125.977	89.3465	125.977	89.1724	125.977	89.288	125.977	89.0916	125.977	89.2202	125.977	89.0099	125.977	89.1465	125.977	88.9312	125.977	89.0705	125.977	88.859	125.977	88.9958	125.977	88.7959	125.977	88.9255	125.977	88.7437	125.977	88.8618	125.977	88.7029	125.977	88.8064	125.977	88.6733	125.977	88.7601	125.977	88.6538	125.977	88.7229	125.977	88.6428	125.977	88.694	125.977	88.6387	125.977	88.6724	125.977	88.6401	125.977	88.6568	125.977	88.6462
128.906	89.3166	128.906	89.2939	128.906	89.3206	128.906	89.2532	128.906	89.3058	128.906	89.1964	128.906	89.2734	128.906	89.1263	128.906	89.2254	128.906	89.0463	128.906	89.1645	128.906	88.9604	128.906	89.0939	128.906	88.8727	128.906	89.0171	128.906	88.7873	128.906	88.9377	128.906	88.7078	128.906	88.8591	128.906	88.637	128.906	88.7841	128.906	88.577	128.906	88.715	128.906	88.5288	128.906	88.6535	128.906	88.4925	128.906	88.6004	128.906	88.4674	128.906	88.556	128.906	88.4525	128.906	88.5199	128.906	88.4463	128.906	88.4917	128.906	88.4478	128.906	88.4706	128.906	88.456
134.766	89.3185	134.766	89.3085	134.766	89.3092	134.766	89.2799	134.766	89.2813	134.766	89.2345	134.766	89.2363	134.766	89.175	134.766	89.177	134.766	89.1052	134.766	89.1071	134.766	89.0291	134.766	89.0306	134.766	88.9511	134.766	88.952	134.766	88.8755	134.766	88.8756	134.766	88.806	134.766	88.8052	134.766	88.7453	134.766	88.7436	134.766	88.6954	134.766	88.6927	134.766	88.6566	134.766	88.6533	134.766	88.6284	134.766	88.6247	134.766	88.6095	134.766	88.6058	134.766	88.5978	134.766	88.5945	134.766	88.5912	134.766	88.5887	134.766	88.5878	134.766	88.5864	134.766	88.5863
137.695	89.14	137.695	89.1319	137.695	89.1273	137.695	89.1039	137.695	89.094	137.695	89.0582	137.695	89.0418	137.695	88.9979	137.695	88.9732	137.695	88.9268	137.695	88.8922	137.695	88.8495	137.695	88.8032	137.695	88.7703	137.695	88.7114	137.695	88.6935	137.695	88.6219	137.695	88.6227	137.695	88.5395	137.695	88.5606	137.695	88.4682	137.695	88.5087	137.695	88.4109	137.695	88.4672	137.695	88.3688	137.695	88.4353	137.695	88.3417	137.695	88.4113	137.695	88.3281	137.695	88.3929	137.695	88.3253	137.695	88.378	137.695	88.3303	137.695	88.3646	137.695	88.3399	137.695	88.3518
143.555	88.8657	143.555	88.8379	143.555	88.8691	143.555	88.7875	143.555	88.8478	143.555	88.7172	143.555	88.8028	143.555	88.6311	143.555	88.7362	143.555	88.5341	143.555	88.6513	143.555	88.4315	143.555	88.5524	143.555	88.3289	143.555	88.4445	143.555	88.2315	143.555	88.3333	143.555	88.1435	143.555	88.2243	143.555	88.068	143.555	88.123	143.555	88.0066	143.555	88.034	143.555	87.9591	143.555	87.9609	143.555	87.9241	143.555	87.9054	143.555	87.899	143.555	87.8678	143.555	87.8807	143.555	87.8463	143.555	87.8667	143.555	87.8379	143.555	87.8551	143.555	87.8387	143.555	87.8453
149.414	88.678	149.414	88.6452	149.414	88.6826	149.414	88.5854	149.414	88.6591	149.414	88.5011	149.414	88.6091	149.414	88.3961	149.414	88.5353	149.414	88.2756	149.414	88.4416	149.414	88.1454	149.414	88.3326	149.414	88.0121	149.414	88.2137	149.414	87.8822	149.414	88.0905	149.414	87.762	149.414	87.9688	149.414	87.6565	149.414	87.8537	149.414	87.5695	149.414	87.7498	149.414	87.5027	149.414	87.6603	149.414	87.4559	149.414	87.587	149.414	87.427	149.414	87.5299	149.414	87.4126	149.414	87.4877	149.414	87.4089	149.414	87.4576	149.414	87.4128	149.414	87.4366	149.414	87.4222
155.273	88.7777	155.273	88.7479	155.273	88.7756	155.273	88.6874	155.273	88.7415	155.273	88.5988	155.273	88.6768	155.273	88.4858	155.273	88.584	155.273	88.353	155.273	88.4665	155.273	88.2061	155.273	88.3292	155.273	88.0512	155.273	88.1774	155.273	87.8945	155.273	88.0175	155.273	87.7422	155.273	87.8559	155.273	87.5999	155.273	87.6992	155.273	87.472	155.273	87.5538	155.273	87.3619	155.273	87.4248	155.273	87.2712	155.273	87.3161	155.273	87.2002	155.273	87.2296	155.273	87.148	155.273	87.1653	155.273	87.1129	155.273	87.1219	155.273	87.0931	155.273	87.0967	155.273	87.0876
158.203	88.9169	158.203	88.8902	158.203	88.9128	158.203	88.834	158.203	88.878	158.203	88.7509	158.203	88.8137	158.203	88.6446	158.203	88.7222	158.203	88.52	158.203	88.6072	158.203	88.3825	158.203	88.4731	158.203	88.2383	158.203	88.3255	158.203	88.0934	158.203	88.1703	158.203	87.9536	158.203	88.014	158.203	87.8236	158.203	87.8632	158.203	87.7074	158.203	87.7242	158.203	87.6071	158.203	87.6024	158.203	87.5235	158.203	87.5018	158.203	87.4563	158.203	87.4243	158.203	87.4042	158.203	87.3701	158.203	87.3655	158.203	87.3373	158.203	87.339	158.203	87.3232	158.203	87.3245
164.063	88.8933	164.063	88.8678	164.063	88.8886	164.063	88.8132	164.063	88.8534	164.063	88.7324	164.063	88.7893	164.063	88.6293	164.063	88.6987	164.063	88.5092	164.063	88.5855	164.063	88.3782	164.063	88.4544	164.063	88.243	164.063	88.3113	164.063	88.1102	164.063	88.1627	164.063	87.9861	164.063	88.0157	164.063	87.8757	164.063	87.8773	164.063	87.7822	164.063	87.7543	164.063	87.7068	164.063	87.6521	164.063	87.6484	164.063	87.5744	164.063	87.6043	164.063	87.5219	164.063	87.5708	164.063	87.4931	164.063	87.5441	164.063	87.4837	164.063	87.5216	164.063	87.4886	164.063	87.5025
169.922	88.6487	169.922	88.6146	169.922	88.6521	169.922	88.5517	169.922	88.6248	169.922	88.4633	169.922	88.5677	169.922	88.3541	169.922	88.4835	169.922	88.2299	169.922	88.3759	169.922	88.0976	169.922	88.2496	169.922	87.9647	169.922	88.1106	169.922	87.8383	169.922	87.9655	169.922	87.7249	169.922	87.8216	169.922	87.6292	169.922	87.6865	169.922	87.5537	169.922	87.5675	169.922	87.4983	169.922	87.4706	169.922	87.4604	169.922	87.3998	169.922	87.4354	169.922	87.356	169.922	87.4178	169.922	87.3368	169.922	87.4025	169.922	87.3369	169.922	87.386	169.922	87.3494	169.922	87.3675
175.781	88.4207	175.781	88.3663	175.781	88.4391	175.781	88.2773	175.781	88.4223	175.781	88.1567	175.781	88.3723	175.781	88.0097	175.781	88.2928	175.781	87.8438	175.781	88.1882	175.781	87.6685	175.781	88.0642	175.781	87.4946	175.781	87.927	175.781	87.3337	175.781	87.7834	175.781	87.1966	175.781	87.6407	175.781	87.0918	175.781	87.5063	175.781	87.0236	175.781	87.387	175.781	86.9916	175.781	87.2887	175.781	86.9901	175.781	87.2147	175.781	87.0099	175.781	87.1654	175.781	87.0403	175.781	87.1376	175.781	87.0712	175.781	87.1247	175.781	87.0956	175.781	87.1185	175.781	87.1107
181.641	88.4881	181.641	88.4539	181.641	88.4796	181.641	88.3768	181.641	88.4306	181.641	88.2582	181.641	88.3449	181.641	88.102	181.641	88.2276	181.641	87.9144	181.641	88.0852	181.641	87.7043	181.641	87.9254	181.641	87.483	181.641	87.7565	181.641	87.2646	181.641	87.5872	181.641	87.0643	181.641	87.4262	181.641	86.8969	181.641	87.2814	181.641	86.7738	181.641	87.1594	181.641	86.701	181.641	87.0641	181.641	86.6765	181.641	86.9965	181.641	86.6914	181.641	86.9535	181.641	86.7319	181.641	86.9284	181.641	86.7828	181.641	86.9122	181.641	86.8313	181.641	86.8952	181.641	86.8694
190.43	88.9566	190.43	88.9349	190.43	88.9265	190.43	88.8623	190.43	88.8453	190.43	88.7409	190.43	88.7151	190.43	88.5742	190.43	88.5399	190.43	88.3676	190.43	88.3256	190.43	88.128	190.43	88.0801	190.43	87.8647	190.43	87.8137	190.43	87.5896	190.43	87.5392	190.43	87.317	190.43	87.2709	190.43	87.0632	190.43	87.0242	190.43	86.8439	190.43	86.8136	190.43	86.6718	190.43	86.6499	190.43	86.5532	190.43	86.5378	190.43	86.4853	190.43	86.4744	190.43	86.4575	190.43	86.4495	190.43	86.454	190.43	86.4484	190.43	86.4589	190.43	86.456	190.43	86.4609
196.289	89.1163	196.289	89.0771	196.289	89.1023	196.289	88.9866	196.289	89.0348	196.289	88.8482	196.289	88.9151	196.289	88.6667	196.289	88.7464	196.289	88.4489	196.289	88.5336	196.289	88.2034	196.289	88.2843	196.289	87.941	196.289	88.0086	196.289	87.6747	196.289	87.7197	196.289	87.4196	196.289	87.4335	196.289	87.191	196.289	87.1682	196.289	87.0028	196.289	86.9417	196.289	86.8641	196.289	86.769	196.289	86.7763	196.289	86.6578	196.289	86.7325	196.289	86.6062	196.289	86.7186	196.289	86.6027	196.289	86.7174	196.289	86.629	196.289	86.7132	196.289	86.6654	196.289	86.6962
202.148	89.1155	202.148	89.0542	202.148	89.1158	202.148	88.9336	202.148	89.0546	202.148	88.7566	202.148	88.9325	202.148	88.5275	202.148	88.7519	202.148	88.2527	202.148	88.5166	202.148	87.9407	202.148	88.233	202.148	87.6036	202.148	87.9104	202.148	87.2572	202.148	87.562	202.148	86.9218	202.148	87.2058	202.148	86.6201	202.148	86.8639	202.148	86.3745	202.148	86.5613	202.148	86.2009	202.148	86.3209	202.148	86.1036	202.148	86.158	202.148	86.0722	202.148	86.0741	202.148	86.0846	202.148	86.0555	202.148	86.1137	202.148	86.0775	202.148	86.1353	202.148	86.1117	202.148	86.1351
210.938	89.3391	210.938	89.2564	210.938	89.3628	210.938	89.1156	210.938	89.327	210.938	88.9182	210.938	89.2317	210.938	88.6665	210.938	89.0774	210.938	88.3643	210.938	88.8653	210.938	88.0167	210.938	88.5975	210.938	87.6318	210.938	88.2779	210.938	87.2214	210.938	87.9131	210.938	86.8025	210.938	87.5139	210.938	86.3973	210.938	87.0968	210.938	86.0318	210.938	86.684	210.938	85.7317	210.938	86.3025	210.938	85.5145	210.938	85.9785	210.938	85.3836	210.938	85.7303	210.938	85.3264	210.938	85.5615	210.938	85.3192	210.938	85.4597	210.938	85.3376	210.938	85.402	210.938	85.3657
216.797	89.06	216.797	88.996	216.797	89.0675	216.797	88.8758	216.797	89.0192	216.797	88.7007	216.797	88.9168	216.797	88.4729	216.797	88.7627	216.797	88.1964	216.797	88.56	216.797	87.8764	216.797	88.3128	216.797	87.521	216.797	88.0263	216.797	87.1413	216.797	87.7076	216.797	86.7527	216.797	87.3662	216.797	86.3753	216.797	87.0153	216.797	86.0325	216.797	86.6712	216.797	85.7476	216.797	86.3523	216.797	85.5378	216.797	86.0762	216.797	85.4089	216.797	85.8546	216.797	85.3525	216.797	85.6897	216.797	85.3502	216.797	85.5734	216.797	85.3809	216.797	85.4914	216.797	85.4294
225.586	89.0928	225.586	89.049	225.586	89.0581	225.586	88.9265	225.586	88.946	225.586	88.7263	225.586	88.7586	225.586	88.4508	225.586	88.4989	225.586	88.1051	225.586	88.1717	225.586	87.6979	225.586	87.7842	225.586	87.2432	225.586	87.348	225.586	86.7627	225.586	86.8807	225.586	86.2872	225.586	86.4084	225.586	85.8554	225.586	85.9658	225.586	85.5087	225.586	85.5932	225.586	85.2794	225.586	85.327	225.586	85.1775	225.586	85.1864	225.586	85.1842	225.586	85.163	225.586	85.2587	225.586	85.2225	225.586	85.3518	225.586	85.3169	225.586	85.4209	225.586	85.4001	225.586	85.4393
234.375	89.8366	234.375	89.7806	234.375	89.8205	234.375	89.6531	234.375	89.7312	234.375	89.4543	234.375	89.5671	234.375	89.1841	234.375	89.3261	234.375	88.8424	234.375	89.0058	234.375	88.4297	234.375	88.6038	234.375	87.9485	234.375	88.1191	234.375	87.4053	234.375	87.5541	234.375	86.8139	234.375	86.9176	234.375	86.1985	234.375	86.2301	234.375	85.5963	234.375	85.5292	234.375	85.0544	234.375	84.8722	234.375	84.6184	234.375	84.3287	234.375	84.3135	234.375	83.9571	234.375	84.1303	234.375	83.7745	234.375	84.0288	234.375	83.7453	234.375	83.9589	234.375	83.8029	234.375	83.885
240.234	89.4404	240.234	89.3594	240.234	89.4539	240.234	89.2115	240.234	89.3989	240.234	88.9979	240.234	89.2746	240.234	88.72	240.234	89.0798	240.234	88.3797	240.234	88.8134	240.234	87.9805	240.234	88.4744	240.234	87.5284	240.234	88.0629	240.234	87.0339	240.234	87.582	240.234	86.5145	240.234	87.0405	240.234	85.9963	240.234	86.4568	240.234	85.514	240.234	85.8626	240.234	85.105	240.234	85.3041	240.234	84.7984	240.234	84.8359	240.234	84.6015	240.234	84.5041	240.234	84.4951	240.234	84.3243	240.234	84.4417	240.234	84.2731	240.234	84.4023	240.234	84.3002	240.234	84.3539
249.023	89.4831	249.023	89.4047	249.023	89.484	249.023	89.2477	249.023	89.4084	249.023	89.011	249.023	89.2569	249.023	88.6937	249.023	89.0293	249.023	88.2953	249.023	88.7244	249.023	87.8164	249.023	88.34	249.023	87.2602	249.023	87.8738	249.023	86.6349	249.023	87.3246	249.023	85.9584	249.023	86.6962	249.023	85.2622	249.023	86.0013	249.023	84.5954	249.023	85.2691	249.023	84.0195	249.023	84.5507	249.023	83.5902	249.023	83.918	249.023	83.3305	249.023	83.4442	249.023	83.2144	249.023	83.1691	249.023	83.181	249.023	83.0722	249.023	83.1663	249.023	83.0855	249.023	83.1329
257.813	90.1111	257.813	90.0299	257.813	90.1116	257.813	89.8664	257.813	90.0332	257.813	89.6187	257.813	89.8771	257.813	89.2848	257.813	89.644	257.813	88.8629	257.813	89.3339	257.813	88.3521	257.813	88.9459	257.813	87.7541	257.813	88.4787	257.813	87.076	257.813	87.9323	257.813	86.3355	257.813	87.3097	257.813	85.5661	257.813	86.6214	257.813	84.8223	257.813	85.8907	257.813	84.1753	257.813	85.1596	257.813	83.6923	257.813	84.4888	257.813	83.4035	257.813	83.9459	257.813	83.2825	257.813	83.5774	257.813	83.2631	257.813	83.3816	257.813	83.2777	257.813	83.3083	257.813	83.29
266.602	89.6695	266.602	89.6034	266.602	89.6596	266.602	89.4587	266.602	89.5761	266.602	89.2324	266.602	89.4205	266.602	88.921	266.602	89.1936	266.602	88.5208	266.602	88.8952	266.602	88.0288	266.602	88.5239	266.602	87.4446	266.602	88.0775	266.602	86.7738	266.602	87.5551	266.602	86.034	266.602	86.9595	266.602	85.2631	266.602	86.3019	266.602	84.5246	266.602	85.6077	266.602	83.9036	266.602	84.9226	266.602	83.4781	266.602	84.3115	266.602	83.2749	266.602	83.8423	266.602	83.249	266.602	83.5543	266.602	83.3115	266.602	83.4316	266.602	83.3793	266.602	83.409	266.602	83.4093
278.32	89.3901	278.32	89.3251	278.32	89.3805	278.32	89.1844	278.32	89.296	278.32	88.9653	278.32	89.1349	278.32	88.664	278.32	88.8946	278.32	88.2751	278.32	88.5717	278.32	87.7928	278.32	88.1627	278.32	87.2127	278.32	87.6658	278.32	86.534	278.32	87.0826	278.32	85.7657	278.32	86.422	278.32	84.934	278.32	85.7052	278.32	84.0935	278.32	84.9708	278.32	83.3317	278.32	84.2769	278.32	82.753	278.32	83.6918	278.32	82.4309	278.32	83.2688	278.32	82.3578	278.32	83.0161	278.32	82.4483	278.32	82.8888	278.32	82.5959	278.32	82.8135	278.32	82.7252
287.109	89.0111	287.109	88.9775	287.109	88.9715	287.109	88.8669	287.109	88.8608	287.109	88.6748	287.109	88.6796	287.109	88.3956	287.109	88.4263	287.109	88.0227	287.109	88.0972	287.109	87.5496	287.109	87.6865	287.109	86.9712	287.109	87.1876	287.109	86.2876	287.109	86.5963	287.109	85.5103	287.109	85.9147	287.109	84.6729	287.109	85.1592	287.109	83.8423	287.109	84.3701	287.109	83.1225	287.109	83.6207	287.109	82.6256	287.109	83.0106	287.109	82.4077	287.109	82.6284	287.109	82.4221	287.109	82.4938	287.109	82.5481	287.109	82.5362	287.109	82.6646	287.109	82.6384	287.109	82.6982
295.898	89.2488	295.898	89.1978	295.898	89.2138	295.898	89.0585	295.898	89.0944	295.898	88.827	295.898	88.8908	295.898	88.4979	295.898	88.6017	295.898	88.0641	295.898	88.224	295.898	87.5174	295.898	87.7526	295.898	86.8505	295.898	87.1812	295.898	86.0612	295.898	86.5047	295.898	85.1616	295.898	85.7248	295.898	84.1937	295.898	84.8595	295.898	83.2511	295.898	83.9591	295.898	82.4851	295.898	83.1225	295.898	82.0535	295.898	82.4904	295.898	82.0037	295.898	82.1815	295.898	82.2195	295.898	82.1972	295.898	82.5093	295.898	82.4072	295.898	82.7174	295.898	82.6393	295.898	82.7632
307.617	89.9278	307.617	89.8411	307.617	89.9273	307.617	89.6656	307.617	89.8393	307.617	89.3984	307.617	89.6622	307.617	89.0341	307.617	89.3929	307.617	88.5644	307.617	89.0255	307.617	87.9775	307.617	88.5521	307.617	87.2593	307.617	87.9622	307.617	86.3956	307.617	87.244	307.617	85.3779	307.617	86.3881	307.617	84.2173	307.617	85.3931	307.617	82.9704	307.617	84.2801	307.617	81.7766	307.617	83.1148	307.617	80.8654	307.617	82.0338	307.617	80.437	307.617	81.2302	307.617	80.4664	307.617	80.8413	307.617	80.7165	307.617	80.814	307.617	80.9443	307.617	80.9417	307.617	81.0212
319.336	90.0365	319.336	89.9611	319.336	90.0262	319.336	89.7966	319.336	89.9318	319.336	89.5377	319.336	89.7529	319.336	89.1767	319.336	89.4868	319.336	88.7031	319.336	89.128	319.336	88.1035	319.336	88.6676	319.336	87.3618	319.336	88.0942	319.336	86.4616	319.336	87.3949	319.336	85.392	319.336	86.5585	319.336	84.1601	319.336	85.5822	319.336	82.8201	319.336	84.4847	319.336	81.5186	319.336	83.3282	319.336	80.5174	319.336	82.2422	319.336	80.0651	319.336	81.4121	319.336	80.1453	319.336	80.9737	319.336	80.4814	319.336	80.8831	319.336	80.7964	319.336	80.943	319.336	80.9514
331.055	90.8348	331.055	90.797	331.055	90.7907	331.055	90.6734	331.055	90.6664	331.055	90.4583	331.055	90.4618	331.055	90.1427	331.055	90.174	331.055	89.7145	331.055	89.7964	331.055	89.1572	331.055	89.319	331.055	88.4504	331.055	88.7272	331.055	87.5708	331.055	88.0039	331.055	86.4957	331.055	87.1316	331.055	85.2134	331.055	86.0992	331.055	83.7485	331.055	84.9148	331.055	82.2166	331.055	83.6325	331.055	80.8959	331.055	82.3899	331.055	80.1616	331.055	81.4159	331.055	80.1271	331.055	80.9107	331.055	80.48	331.055	80.8423	331.055	80.8379	331.055	80.9588	331.055	81.0025
342.773	90.1514	342.773	90.0817	342.773	90.1362	342.773	89.9255	342.773	90.0371	342.773	89.6807	342.773	89.8549	342.773	89.3433	342.773	89.5895	342.773	88.9065	342.773	89.2392	342.773	88.361	342.773	88.8003	342.773	87.6957	342.773	88.2676	342.773	86.902	342.773	87.6371	342.773	85.9827	342.773	86.9103	342.773	84.97	342.773	86.104	342.773	83.9528	342.773	85.2629	342.773	83.099	342.773	84.4734	342.773	82.6115	342.773	83.8569	342.773	82.5795	342.773	83.518	342.773	82.8796	342.773	83.4638	342.773	83.2821	342.773	83.5849	342.773	83.6025	342.773	83.7235	342.773	83.7514
354.492	90.2415	354.492	90.2282	354.492	90.1639	354.492	90.1199	354.492	89.9959	354.492	89.9082	354.492	89.735	354.492	89.5791	354.492	89.3752	354.492	89.112	354.492	88.9065	354.492	88.4788	354.492	88.3137	354.492	87.6424	354.492	87.5763	354.492	86.5572	354.492	86.6686	354.492	85.1705	354.492	85.564	354.492	83.4397	354.492	84.2478	354.492	81.4031	354.492	82.7533	354.492	79.4181	354.492	81.2481	354.492	78.4456	354.492	80.1413	354.492	79.0506	354.492	79.9026	354.492	80.3409	354.492	80.4734	354.492	81.4548	354.492	81.3137	354.492	82.1134	354.492	81.9844	354.492	82.2791
366.211	90.5483	366.211	90.4361	366.211	90.5677	366.211	90.2353	366.211	90.4882	366.211	89.9469	366.211	90.3025	366.211	89.5664	366.211	90.0016	366.211	89.082	366.211	89.5738	366.211	88.4723	366.211	89.0043	366.211	87.7047	366.211	88.2734	366.211	86.735	366.211	87.3568	366.211	85.5068	366.211	86.2261	366.211	83.9549	366.211	84.855	366.211	82.0252	366.211	83.2388	366.211	79.7658	366.211	81.4521	366.211	77.6371	366.211	79.7758	366.211	76.7788	366.211	78.7589	366.211	77.5363	366.211	78.7333	366.211	78.7486	366.211	79.2901	366.211	79.6261	366.211	79.8185	366.211	79.9759
377.93	90.7372	377.93	90.6577	377.93	90.729	377.93	90.4882	377.93	90.6325	377.93	90.2233	377.93	90.4439	377.93	89.8533	377.93	90.1562	377.93	89.363	377.93	89.7579	377.93	88.7307	377.93	89.2326	377.93	87.9279	377.93	88.559	377.93	86.9202	377.93	87.7121	377.93	85.6711	377.93	86.6662	377.93	84.1562	377.93	85.4044	377.93	82.4066	377.93	83.9424	377.93	80.6242	377.93	82.3846	377.93	79.3361	377.93	81.012	377.93	79.1082	377.93	80.2485	377.93	79.744	377.93	80.2643	377.93	80.5656	377.93	80.7235	377.93	81.1482	377.93	81.1748	377.93	81.3513
392.578	90.7918	392.578	90.7602	392.578	90.7501	392.578	90.654	392.578	90.6329	392.578	90.4671	392.578	90.4343	392.578	90.187	392.578	90.1438	392.578	89.7939	392.578	89.7453	392.578	89.2587	392.578	89.2164	392.578	88.5425	392.578	88.5273	392.578	87.595	392.578	87.641	392.578	86.3522	392.578	86.5145	392.578	84.7354	392.578	85.1039	392.578	82.6618	392.578	83.3851	392.578	80.1291	392.578	81.4272	392.578	77.6195	392.578	79.5889	392.578	76.7061	392.578	78.6481	392.578	77.8601	392.578	78.978	392.578	79.3917	392.578	79.8702	392.578	80.4184	392.578	80.5837	392.578	80.8035
407.227	90.4638	407.227	90.3973	407.227	90.422	407.227	90.23	407.227	90.2693	407.227	89.9715	407.227	90.0084	407.227	89.6284	407.227	89.6455	407.227	89.1986	407.227	89.1853	407.227	88.6675	407.227	88.6271	407.227	88.0058	407.227	87.9604	407.227	87.1709	407.227	87.1645	407.227	86.1104	407.227	86.2126	407.227	84.7717	407.227	85.0835	407.227	83.1295	407.227	83.7907	407.227	81.2766	407.227	82.4401	407.227	79.641	407.227	81.3052	407.227	79.0221	407.227	80.7583	407.227	79.6118	407.227	80.894	407.227	80.6288	407.227	81.3664	407.227	81.4348	407.227	81.7567	407.227	81.8142
421.875	91.8116	421.875	91.618	421.875	91.857	421.875	91.2842	421.875	91.745	421.875	90.8158	421.875	91.466	421.875	90.2145	421.875	91.0086	421.875	89.4741	421.875	90.3575	421.875	88.5784	421.875	89.4908	421.875	87.4976	421.875	88.3759	421.875	86.1866	421.875	86.9636	421.875	84.5848	421.875	85.1805	421.875	82.6246	421.875	82.9188	421.875	80.2813	421.875	80.0381	421.875	77.7832	421.875	76.52	421.875	76.1046	421.875	73.5795	421.875	76.3225	421.875	74.1245	421.875	77.6011	421.875	76.3783	421.875	78.7744	421.875	78.1496	421.875	79.4669	421.875	79.1989	421.875	79.6167
436.523	91.1795	436.523	90.9857	436.523	91.2572	436.523	90.6811	436.523	91.2149	436.523	90.2715	436.523	91.049	436.523	89.7613	436.523	90.7552	436.523	89.1498	436.523	90.3261	436.523	88.4284	436.523	89.7502	436.523	87.5781	436.523	89.0105	436.523	86.5699	436.523	88.0854	436.523	85.3699	436.523	86.951	436.523	83.9531	436.523	85.5894	436.523	82.3372	436.523	84.0097	436.523	80.6595	436.523	82.2963	436.523	79.28	436.523	80.6949	436.523	78.6656	436.523	79.6231	436.523	78.8625	436.523	79.3383	436.523	79.4098	436.523	79.5912	436.523	79.8741	436.523	79.9278	436.523	80.0571
451.172	91.0972	451.172	91.0563	451.172	91.0582	451.172	90.9237	451.172	90.9444	451.172	90.6824	451.172	90.7527	451.172	90.3103	451.172	90.4701	451.172	89.7789	451.172	90.0729	451.172	89.0519	451.172	89.5264	451.172	88.0826	451.172	88.7852	451.172	86.8112	451.172	87.7922	451.172	85.1654	451.172	86.4783	451.172	83.0795	451.172	84.7655	451.172	80.612	451.172	82.5994	451.172	78.4121	451.172	80.1206	451.172	78.0205	451.172	78.2261	451.172	79.4169	451.172	78.3668	451.172	81.0362	451.172	79.9074	451.172	82.2036	451.172	81.4175	451.172	82.8195	451.172	82.4303	451.172	82.8939
465.82	90.8985	465.82	90.7526	465.82	90.9259	465.82	90.5013	465.82	90.8284	465.82	90.1602	465.82	90.6068	465.82	89.7406	465.82	90.2669	465.82	89.2428	465.82	89.8143	465.82	88.651	465.82	89.2497	465.82	87.9326	465.82	88.5642	465.82	87.0415	465.82	87.7384	465.82	85.9243	465.82	86.7458	465.82	84.5351	465.82	85.5618	465.82	82.8744	465.82	84.1864	465.82	81.0913	465.82	82.6918	465.82	79.6553	465.82	81.2999	465.82	79.1983	465.82	80.3905	465.82	79.6819	465.82	80.2092	465.82	80.4345	465.82	80.5414	465.82	80.9756	465.82	80.955	465.82	81.1453
483.398	90.8317	483.398	90.7017	483.398	90.81	483.398	90.4234	483.398	90.6416	483.398	90.0082	483.398	90.3379	483.398	89.4705	483.398	89.9126	483.398	88.822	483.398	89.3761	483.398	88.0632	483.398	88.7299	483.398	87.1773	483.398	87.9638	483.398	86.1282	483.398	87.0549	483.398	84.8666	483.398	85.9728	483.398	83.3516	483.398	84.6919	483.398	81.6155	483.398	83.2211	483.398	79.9269	483.398	81.6722	483.398	78.9472	483.398	80.3647	483.398	79.1626	483.398	79.7698	483.398	80.0822	483.398	80.0217	483.398	80.9819	483.398	80.6984	483.398	81.5261	483.398	81.3216	483.398	81.6322
500.977	90.1989	500.977	90.0801	500.977	90.1563	500.977	89.8023	500.977	89.9572	500.977	89.3751	500.977	89.6134	500.977	88.815	500.977	89.1429	500.977	88.1452	500.977	88.5689	500.977	87.3926	500.977	87.9183	500.977	86.5849	500.977	87.2174	500.977	85.7441	500.977	86.4864	500.977	84.8809	500.977	85.7322	500.977	83.9928	500.977	84.9455	500.977	83.0727	500.977	84.1057	500.977	82.1298	500.977	83.1961	500.977	81.2155	500.977	82.2288	500.977	80.4322	500.977	81.2706	500.977	79.8868	500.977	80.4465	500.977	79.6036	500.977	79.8804	500.977	79.5046	500.977	79.5955	500.977	79.5017
518.555	91.4286	518.555	91.2507	518.555	91.443	518.555	90.9162	518.555	91.2961	518.555	90.4392	518.555	90.9968	518.555	89.8383	518.555	90.5575	518.555	89.1299	518.555	89.9899	518.555	88.3216	518.555	89.2994	518.555	87.4068	518.555	88.4833	518.555	86.3623	518.555	87.5306	518.555	85.155	518.555	86.4283	518.555	83.7595	518.555	85.1771	518.555	82.203	518.555	83.8228	518.555	80.6562	518.555	82.5028	518.555	79.5185	518.555	81.4635	518.555	79.203	518.555	80.9333	518.555	79.6193	518.555	80.8911	518.555	80.2899	518.555	81.0772	518.555	80.8547	518.555	81.224	518.555	81.1714
536.133	92.1728	536.133	91.94	536.133	92.1605	536.133	91.4722	536.133	91.904	536.133	90.7936	536.133	91.4155	536.133	89.9489	536.133	90.7216	536.133	89.0116	536.133	89.8698	536.133	88.0836	536.133	88.935	536.133	87.2682	536.133	88.0157	536.133	86.6075	536.133	87.2019	536.133	86.0325	536.133	86.5167	536.133	85.3808	536.133	85.8789	536.133	84.4555	536.133	85.1257	536.133	83.0638	536.133	84.0665	536.133	81.0271	536.133	82.5185	536.133	78.2384	536.133	80.3343	536.133	75.0563	536.133	77.531	536.133	73.1893	536.133	74.8055	536.133	73.3642	536.133	73.6472	536.133	73.6545
553.711	91.7704	553.711	91.54	553.711	91.7704	553.711	91.0834	553.711	91.5465	553.711	90.4183	553.711	91.1162	553.711	89.5834	553.711	90.5107	553.711	88.6469	553.711	89.7782	553.711	87.7101	553.711	88.9846	553.711	86.882	553.711	88.2041	553.711	86.2156	553.711	87.493	553.711	85.6485	553.711	86.853	553.711	85.0117	553.711	86.2116	553.711	84.0876	553.711	85.4362	553.711	82.6439	553.711	84.3613	553.711	80.4204	553.711	82.8054	553.711	77.1031	553.711	80.5762	553.711	72.6011	553.711	77.5306	553.711	69.5914	553.711	74.0089	553.711	70.7087	553.711	71.8406	553.711	71.5366
574.219	91.8427	574.219	91.5622	574.219	91.8747	574.219	91.0409	574.219	91.6581	574.219	90.2973	574.219	91.1999	574.219	89.3689	574.219	90.518	574.219	88.3249	574.219	89.6495	574.219	87.2767	574.219	88.6643	574.219	86.361	574.219	87.6754	574.219	85.6664	574.219	86.8178	574.219	85.1437	574.219	86.1719	574.219	84.6042	574.219	85.6763	574.219	83.8018	574.219	85.1331	574.219	82.4957	574.219	84.2919	574.219	80.4755	574.219	82.908	574.219	77.6943	574.219	80.7643	574.219	75.0337	574.219	77.8151	574.219	74.6068	574.219	75.035	574.219	75.4328	574.219	74.6618	574.219	75.4724
594.727	91.7683	594.727	91.4749	594.727	91.8147	594.727	90.9355	594.727	91.612	594.727	90.154	594.727	91.1595	594.727	89.1475	594.727	90.465	594.727	87.9702	594.727	89.5589	594.727	86.7522	594.727	88.5177	594.727	85.7201	594.727	87.4876	594.727	85.0909	594.727	86.6618	594.727	84.8396	594.727	86.1541	594.727	84.6587	594.727	85.861	594.727	84.1667	594.727	85.5044	594.727	83.0219	594.727	84.7775	594.727	80.8596	594.727	83.4047	594.727	77.1372	594.727	81.1313	594.727	71.5725	594.727	77.8606	594.727	71.2218	594.727	74.8381	594.727	74.5698	594.727	74.8427	594.727	75.5866
615.234	92.3092	615.234	92.0079	615.234	92.3462	615.234	91.4457	615.234	92.1152	615.234	90.6274	615.234	91.6132	615.234	89.5642	615.234	90.8407	615.234	88.2891	615.234	89.8081	615.234	86.8909	615.234	88.55	615.234	85.5606	615.234	87.1541	615.234	84.5655	615.234	85.793	615.234	84.0203	615.234	84.6857	615.234	83.6684	615.234	83.9037	615.234	83.0268	615.234	83.2033	615.234	81.5757	615.234	82.1308	615.234	78.6165	615.234	80.1712	615.234	72.4664	615.234	76.7711	615.234	67.235	615.234	72.9062	615.234	75.4505	615.234	75.0334	615.234	78.7919	615.234	78.2871	615.234	79.5461
638.672	92.0005	638.672	91.7029	638.672	92.0224	638.672	91.1334	638.672	91.7662	638.672	90.3011	638.672	91.2327	638.672	89.2322	638.672	90.4335	638.672	87.9965	638.672	89.4093	638.672	86.7517	638.672	88.2616	638.672	85.7558	638.672	87.1819	638.672	85.2129	638.672	86.3967	638.672	85.0111	638.672	85.9671	638.672	84.7523	638.672	85.6589	638.672	83.9935	638.672	85.0821	638.672	82.2894	638.672	83.8352	638.672	78.9587	638.672	81.4421	638.672	72.5044	638.672	77.0745	638.672	71.2475	638.672	71.1099	638.672	77.5236	638.672	75.315	638.672	80.2683	638.672	79.3167	638.672	80.7796
659.18	92.159	659.18	91.9475	659.18	92.1307	659.18	91.4939	659.18	91.8583	659.18	90.7855	659.18	91.3316	659.18	89.7945	659.18	90.5344	659.18	88.4786	659.18	89.4452	659.18	86.8063	659.18	88.0491	659.18	84.8715	659.18	86.3855	659.18	83.1827	659.18	84.6746	659.18	82.6114	659.18	83.4405	659.18	83.0318	659.18	83.0968	659.18	83.3274	659.18	83.2265	659.18	82.6912	659.18	83.0378	659.18	80.5298	659.18	81.937	659.18	75.6736	659.18	79.3702	659.18	65.2655	659.18	74.54	659.18	73.2008	659.18	71.0956	659.18	77.3338	659.18	75.5655	659.18	77.8579
682.617	92.1251	682.617	91.8816	682.617	92.1515	682.617	91.4236	682.617	91.9543	682.617	90.7511	682.617	91.5228	682.617	89.8621	682.617	90.8417	682.617	88.7596	682.617	89.8958	682.617	87.477	682.617	88.6836	682.617	86.1338	682.617	87.2481	682.617	84.9748	682.617	85.7286	682.617	84.2177	682.617	84.3685	682.617	83.7172	682.617	83.3298	682.617	82.9536	682.617	82.4068	682.617	81.2752	682.617	81.0652	682.617	77.7255	682.617	78.6341	682.617	69.3302	682.617	74.4266	682.617	70.1512	682.617	72.2076	682.617	77.6201	682.617	76.7631	682.617	80.4517	682.617	79.9069	682.617	81.0687
706.055	91.6527	706.055	91.4927	706.055	91.6252	706.055	91.1472	706.055	91.4079	706.055	90.6141	706.055	90.9964	706.055	89.8806	706.055	90.3795	706.055	88.9207	706.055	89.5394	706.055	87.7101	706.055	88.462	706.055	86.2739	706.055	87.1659	706.055	84.782	706.055	85.752	706.055	83.6034	706.055	84.4433	706.055	82.9972	706.055	83.4743	706.055	82.6304	706.055	82.781	706.055	81.8069	706.055	81.9129	706.055	79.8266	706.055	80.257	706.055	75.6654	706.055	77.0145	706.055	65.8724	706.055	70.4121	706.055	68.5878	706.055	66.0721	706.055	74.3436	706.055	73.1854	706.055	75.4092
732.422	91.2586	732.422	91.0783	732.422	91.2018	732.422	90.6718	732.422	90.9109	732.422	90.0582	732.422	90.3984	732.422	89.2514	732.422	89.675	732.422	88.2482	732.422	88.7392	732.422	87.0333	732.422	87.5768	732.422	85.6261	732.422	86.1826	732.422	84.1917	732.422	84.6273	732.422	83.1327	732.422	83.1791	732.422	82.7647	732.422	82.297	732.422	82.7392	732.422	82.0968	732.422	82.3209	732.422	81.9943	732.422	80.8528	732.422	81.2382	732.422	77.5544	732.422	79.1566	732.422	70.2147	732.422	74.689	732.422	60.1361	732.422	64.5289	732.422	71.2142	732.422	68.3585	732.422	72.488
758.789	91.1589	758.789	90.9765	758.789	91.0666	758.789	90.5389	758.789	90.7022	758.789	89.8773	758.789	90.0919	758.789	89.0172	758.789	89.2757	758.789	87.9623	758.789	88.2907	758.789	86.6969	758.789	87.157	758.789	85.2307	758.789	85.8856	758.789	83.7291	758.789	84.537	758.789	82.6652	758.789	83.3353	758.789	82.4628	758.789	82.6599	758.789	82.7132	758.789	82.5758	758.789	82.5473	758.789	82.5094	758.789	81.2369	758.789	81.686	758.789	77.8865	758.789	79.2959	758.789	69.481	758.789	73.6602	758.789	66.1668	758.789	59.4732	758.789	74.6428	758.789	72.8958	758.789	75.9754
785.156	91.3337	785.156	91.0754	785.156	91.297	785.156	90.5593	785.156	90.9511	785.156	89.8361	785.156	90.3081	785.156	88.9534	785.156	89.4038	785.156	87.9372	785.156	88.2886	785.156	86.7869	785.156	87.011	785.156	85.4985	785.156	85.6019	785.156	84.1336	785.156	84.0879	785.156	82.9245	785.156	82.5929	785.156	82.2304	785.156	81.5143	785.156	82.0774	785.156	81.2811	785.156	81.9071	785.156	81.5194	785.156	80.992	785.156	81.2751	785.156	78.6061	785.156	79.698	785.156	73.7594	785.156	75.8286	785.156	69.3036	785.156	69.2237	785.156	73.3444	785.156	71.8584	785.156	74.6083
811.523	89.8517	811.523	89.6563	811.523	89.7678	811.523	89.213	811.523	89.4034	811.523	88.5718	811.523	88.7938	811.523	87.7869	811.523	88.0099	811.523	86.903	811.523	87.1399	811.523	85.9464	811.523	86.2487	811.523	84.9287	811.523	85.3253	811.523	83.8726	811.523	84.2624	811.523	82.8835	811.523	82.9465	811.523	82.2242	811.523	81.5344	811.523	82.1078	811.523	80.747	811.523	82.2162	811.523	80.9705	811.523	81.794	811.523	81.1813	811.523	80.0316	811.523	80.1737	811.523	75.839	811.523	76.8531	811.523	67.4566	811.523	68.3451	811.523	69.6392	811.523	65.9781	811.523	71.6255
840.82	88.281	840.82	88.1234	840.82	88.2649	840.82	87.8517	840.82	88.0436	840.82	87.524	840.82	87.6189	840.82	87.1539	840.82	87.013	840.82	86.6852	840.82	86.2554	840.82	86.0011	840.82	85.3848	840.82	84.9662	840.82	84.4397	840.82	83.5143	840.82	83.4092	840.82	81.8799	840.82	82.2297	840.82	80.8886	840.82	81.0341	840.82	81.0411	840.82	80.5198	840.82	81.3416	840.82	81.0856	840.82	80.6401	840.82	81.6889	840.82	78.1164	840.82	81.1436	840.82	72.6494	840.82	78.519	840.82	68.4881	840.82	71.7299	840.82	72.4505	840.82	61.3262	840.82	71.8671
870.117	87.2181	870.117	87.2402	870.117	87.162	870.117	87.1983	870.117	87.0758	870.117	87.039	870.117	86.9416	870.117	86.7028	870.117	86.7213	870.117	86.1556	870.117	86.3622	870.117	85.4037	870.117	85.8036	870.117	84.4568	870.117	84.9746	870.117	83.2575	870.117	83.7894	870.117	81.7671	870.117	82.1801	870.117	80.4907	870.117	80.3451	870.117	80.5799	870.117	79.3839	870.117	81.5522	870.117	80.2408	870.117	81.768	870.117	81.4622	870.117	80.2815	870.117	81.6101	870.117	76.3186	870.117	79.9956	870.117	69.631	870.117	75.7707	870.117	68.9984	870.117	67.7844	870.117	68.2489
902.344	86.8882	902.344	86.816	902.344	86.9897	902.344	86.7231	902.344	87.1355	902.344	86.5522	902.344	87.2839	902.344	86.2656	902.344	87.3401	902.344	85.8603	902.344	87.1848	902.344	85.3397	902.344	86.7141	902.344	84.6157	902.344	85.8731	902.344	83.4286	902.344	84.6731	902.344	81.4426	902.344	83.1794	902.344	78.9079	902.344	81.4966	902.344	78.3475	902.344	79.9524	902.344	80.0529	902.344	79.4281	902.344	80.8324	902.344	80.1768	902.344	79.6007	902.344	80.8829	902.344	76.0789	902.344	80.4842	902.344	72.5688	902.344	78.686	902.344	73.8641	902.344	76.2488	902.344	74.9985
931.641	90.2444	931.641	90.1426	931.641	90.1681	931.641	89.8461	931.641	89.9288	931.641	89.3446	931.641	89.5381	931.641	88.6359	931.641	89.0054	931.641	87.7266	931.641	88.3299	931.641	86.6356	931.641	87.4766	931.641	85.3791	931.641	86.3667	931.641	83.9028	931.641	84.9094	931.641	82.0326	931.641	83.0894	931.641	79.7222	931.641	81.1497	931.641	78.0603	931.641	79.7967	931.641	78.603	931.641	79.5998	931.641	79.5348	931.641	79.9497	931.641	79.0348	931.641	79.8873	931.641	76.7042	931.641	78.9575	931.641	74.3319	931.641	77.4777	931.641	75.3559	931.641	76.6974	931.641	76.5183
966.797	92.4724	966.797	92.285	966.797	92.3704	966.797	91.8145	966.797	91.9694	966.797	91.07	966.797	91.2667	966.797	90.0634	966.797	90.2939	966.797	88.7995	966.797	89.1354	966.797	87.2723	966.797	87.8921	966.797	85.5018	966.797	86.6069	966.797	83.5966	966.797	85.2416	966.797	81.723	966.797	83.7333	966.797	79.9291	966.797	82.0568	966.797	78.3173	966.797	80.3656	966.797	77.686	966.797	79.3297	966.797	78.1404	966.797	79.4116	966.797	77.914	966.797	79.4277	966.797	75.5829	966.797	77.9905	966.797	72.2442	966.797	75.0558	966.797	74.1346	966.797	74.473	966.797	75.5787
999.023	92.6892	999.023	92.5289	999.023	92.5058	999.023	92.0079	999.023	91.9955	999.023	91.1283	999.023	91.1876	999.023	89.943	999.023	90.1585	999.023	88.5618	999.023	89.0232	999.023	87.1021	999.023	87.8388	999.023	85.6113	999.023	86.5251	999.023	84.0597	999.023	84.954	999.023	82.4003	999.023	83.1553	999.023	80.5585	999.023	81.4185	999.023	78.4888	999.023	80.0931	999.023	76.8657	999.023	79.5343	999.023	76.8613	999.023	79.8227	999.023	76.9825	999.023	79.8056	999.023	75.3318	999.023	78.0272	999.023	73.7807	999.023	74.4157	999.023	76.1869	999.023	75.1123	999.023	77.1957
1,034.18	92.237	1,034.18	92.034	1,034.18	92.1237	1,034.18	91.511	1,034.18	91.6752	1,034.18	90.6645	1,034.18	90.875	1,034.18	89.5349	1,034.18	89.763	1,034.18	88.2238	1,034.18	88.4662	1,034.18	86.8239	1,034.18	87.1272	1,034.18	85.3024	1,034.18	85.7802	1,034.18	83.5382	1,034.18	84.4085	1,034.18	81.6013	1,034.18	83.1119	1,034.18	79.9482	1,034.18	81.8493	1,034.18	78.9289	1,034.18	80.0492	1,034.18	78.4556	1,034.18	77.4709	1,034.18	78.448	1,034.18	76.6621	1,034.18	78.0524	1,034.18	77.8399	1,034.18	75.8026	1,034.18	76.9574	1,034.18	72.7445	1,034.18	72.3227	1,034.18	74.9354	1,034.18	72.092	1,034.18	75.7095
1,072.27	91.7351	1,072.27	91.5417	1,072.27	91.6947	1,072.27	91.0963	1,072.27	91.3824	1,072.27	90.3583	1,072.27	90.7224	1,072.27	89.3083	1,072.27	89.6734	1,072.27	87.9681	1,072.27	88.2978	1,072.27	86.4044	1,072.27	86.7324	1,072.27	84.7284	1,072.27	85.02	1,072.27	83.0924	1,072.27	83.0608	1,072.27	81.6176	1,072.27	80.978	1,072.27	80.1384	1,072.27	79.3619	1,072.27	78.1599	1,072.27	78.0946	1,072.27	75.8868	1,072.27	76.2555	1,072.27	75.568	1,072.27	75.3194	1,072.27	75.9843	1,072.27	76.5937	1,072.27	73.8038	1,072.27	76.123	1,072.27	71.7557	1,072.27	71.1467	1,072.27	75.605	1,072.27	71.2773	1,072.27	76.107
1,110.35	91.0352	1,110.35	90.858	1,110.35	91.0433	1,110.35	90.4771	1,110.35	90.8367	1,110.35	89.8212	1,110.35	90.3105	1,110.35	88.8323	1,110.35	89.3922	1,110.35	87.4866	1,110.35	88.1245	1,110.35	85.8026	1,110.35	86.6282	1,110.35	83.8831	1,110.35	84.9268	1,110.35	82.0588	1,110.35	82.8951	1,110.35	80.826	1,110.35	80.6462	1,110.35	79.9924	1,110.35	79.0608	1,110.35	78.4939	1,110.35	78.275	1,110.35	75.811	1,110.35	76.6789	1,110.35	74.8828	1,110.35	74.3598	1,110.35	75.9414	1,110.35	74.7233	1,110.35	73.796	1,110.35	74.7814	1,110.35	67.902	1,110.35	70.4318	1,110.35	73.4692	1,110.35	70.0656	1,110.35	74.782
1,148.44	90.8461	1,148.44	90.6644	1,148.44	90.8372	1,148.44	90.2572	1,148.44	90.6164	1,148.44	89.5853	1,148.44	90.0974	1,148.44	88.6235	1,148.44	89.2052	1,148.44	87.341	1,148.44	87.9778	1,148.44	85.6939	1,148.44	86.5716	1,148.44	83.6989	1,148.44	85.1073	1,148.44	81.6622	1,148.44	83.5325	1,148.44	80.2648	1,148.44	81.8127	1,148.44	79.5212	1,148.44	80.2991	1,148.44	78.3278	1,148.44	79.2071	1,148.44	76.5483	1,148.44	77.9448	1,148.44	76.8492	1,148.44	76.7821	1,148.44	77.7088	1,148.44	76.7933	1,148.44	75.0486	1,148.44	75.9834	1,148.44	64.3834	1,148.44	71.2122	1,148.44	72.369	1,148.44	69.0809	1,148.44	74.2195
1,189.45	91.5503	1,189.45	91.4011	1,189.45	91.4375	1,189.45	90.9387	1,189.45	91.0578	1,189.45	90.1079	1,189.45	90.3996	1,189.45	88.9725	1,189.45	89.5185	1,189.45	87.738	1,189.45	88.5185	1,189.45	86.465	1,189.45	87.4231	1,189.45	84.7903	1,189.45	86.1006	1,189.45	82.3202	1,189.45	84.42	1,189.45	79.8116	1,189.45	82.5989	1,189.45	79.1509	1,189.45	81.1748	1,189.45	78.6804	1,189.45	79.9782	1,189.45	77.0599	1,189.45	78.3634	1,189.45	77.5678	1,189.45	77.3043	1,189.45	78.7464	1,189.45	78.1305	1,189.45	76.7963	1,189.45	78.289	1,189.45	71.6737	1,189.45	75.6366	1,189.45	72.7735	1,189.45	71.3922	1,189.45	73.2105
1,230.47	91.5564	1,230.47	91.5176	1,230.47	91.4684	1,230.47	91.2419	1,230.47	91.2348	1,230.47	90.5566	1,230.47	90.7786	1,230.47	89.4066	1,230.47	90.0586	1,230.47	88.0172	1,230.47	89.1042	1,230.47	86.7391	1,230.47	87.9856	1,230.47	85.4052	1,230.47	86.7142	1,230.47	83.3639	1,230.47	85.1464	1,230.47	80.693	1,230.47	83.163	1,230.47	79.3284	1,230.47	81.275	1,230.47	78.8932	1,230.47	80.2006	1,230.47	76.903	1,230.47	78.8052	1,230.47	76.2144	1,230.47	76.4342	1,230.47	78.1452	1,230.47	77.4017	1,230.47	77.1577	1,230.47	79.1003	1,230.47	71.9265	1,230.47	77.0566	1,230.47	71.4791	1,230.47	70.3603	1,230.47	71.7023
1,274.41	91.8621	1,274.41	91.837	1,274.41	91.8498	1,274.41	91.7154	1,274.41	91.7478	1,274.41	91.3063	1,274.41	91.4555	1,274.41	90.4032	1,274.41	90.8495	1,274.41	88.9843	1,274.41	89.8376	1,274.41	87.3751	1,274.41	88.4657	1,274.41	85.9228	1,274.41	86.9654	1,274.41	84.3082	1,274.41	85.502	1,274.41	82.164	1,274.41	83.8404	1,274.41	80.3351	1,274.41	81.8859	1,274.41	79.3353	1,274.41	80.6363	1,274.41	77.3914	1,274.41	79.9992	1,274.41	76.1011	1,274.41	78.3465	1,274.41	78.0507	1,274.41	77.9252	1,274.41	77.4742	1,274.41	79.1435	1,274.41	72.8202	1,274.41	77.0045	1,274.41	73.6985	1,274.41	70.8633	1,274.41	74.2049
1,318.36	91.6929	1,318.36	91.7747	1,318.36	91.7907	1,318.36	91.8885	1,318.36	91.9585	1,318.36	91.7327	1,318.36	91.9149	1,318.36	91.0525	1,318.36	91.3661	1,318.36	89.7978	1,318.36	90.1574	1,318.36	88.2093	1,318.36	88.4405	1,318.36	86.5431	1,318.36	86.7893	1,318.36	84.4943	1,318.36	85.6726	1,318.36	81.7915	1,318.36	84.4867	1,318.36	80.4356	1,318.36	82.5636	1,318.36	81.1386	1,318.36	81.2379	1,318.36	80.1207	1,318.36	80.8955	1,318.36	77.6562	1,318.36	78.8027	1,318.36	79.6088	1,318.36	77.5893	1,318.36	79.9313	1,318.36	80.0228	1,318.36	74.6831	1,318.36	78.8013	1,318.36	72.4364	1,318.36	72.2527	1,318.36	74.0565
1,365.23	90.7176	1,365.23	90.8102	1,365.23	90.7512	1,365.23	90.961	1,365.23	90.8207	1,365.23	90.9602	1,365.23	90.7574	1,365.23	90.5602	1,365.23	90.3708	1,365.23	89.5968	1,365.23	89.4842	1,365.23	88.1451	1,365.23	88.0498	1,365.23	86.5647	1,365.23	86.3793	1,365.23	84.9412	1,365.23	85.1168	1,365.23	82.7125	1,365.23	83.9336	1,365.23	80.3259	1,365.23	81.6156	1,365.23	80.395	1,365.23	79.1101	1,365.23	80.3943	1,365.23	78.8859	1,365.23	78.0901	1,365.23	77.6145	1,365.23	78.5328	1,365.23	76.3113	1,365.23	79.3402	1,365.23	78.3423	1,365.23	74.9574	1,365.23	76.8543	1,365.23	74.3828	1,365.23	72.4481	1,365.23	76.3507
1,415.04	90.4213	1,415.04	90.361	1,415.04	90.3954	1,415.04	90.3036	1,415.04	90.2146	1,415.04	90.2142	1,415.04	89.9434	1,415.04	89.8873	1,415.04	89.6762	1,415.04	89.0478	1,415.04	89.2731	1,415.04	87.5753	1,415.04	88.3694	1,415.04	85.747	1,415.04	86.7812	1,415.04	84.0513	1,415.04	84.9348	1,415.04	82.3735	1,415.04	83.3	1,415.04	80.6597	1,415.04	81.2859	1,415.04	80.0172	1,415.04	79.201	1,415.04	79.348	1,415.04	78.6076	1,415.04	76.9774	1,415.04	77.0646	1,415.04	77.4696	1,415.04	74.6429	1,415.04	78.2903	1,415.04	76.8901	1,415.04	73.5578	1,415.04	75.4845	1,415.04	73.5944	1,415.04	69.7856	1,415.04	75.6201
1,464.84	89.7211	1,464.84	89.8746	1,464.84	89.8749	1,464.84	90.1573	1,464.84	90.1924	1,464.84	90.2559	1,464.84	90.3982	1,464.84	89.9564	1,464.84	90.3401	1,464.84	89.1279	1,464.84	89.9352	1,464.84	87.7292	1,464.84	88.9884	1,464.84	86.0239	1,464.84	87.4114	1,464.84	84.402	1,464.84	85.6414	1,464.84	82.402	1,464.84	84.0753	1,464.84	79.5083	1,464.84	81.8838	1,464.84	78.5958	1,464.84	79.1422	1,464.84	79.2596	1,464.84	79.3273	1,464.84	77.4012	1,464.84	79.0507	1,464.84	76.9788	1,464.84	76.1917	1,464.84	77.6984	1,464.84	77.4996	1,464.84	71.5124	1,464.84	77.1901	1,464.84	73.1671	1,464.84	69.6527	1,464.84	74.5625
1,514.65	89.4347	1,514.65	89.8278	1,514.65	89.5999	1,514.65	90.363	1,514.65	90.1808	1,514.65	90.5784	1,514.65	90.6359	1,514.65	90.2354	1,514.65	90.6206	1,514.65	89.2405	1,514.65	90.1021	1,514.65	87.5928	1,514.65	89.0509	1,514.65	85.5598	1,514.65	87.4077	1,514.65	83.7219	1,514.65	85.523	1,514.65	81.9531	1,514.65	83.9752	1,514.65	79.4677	1,514.65	82.1642	1,514.65	78.1068	1,514.65	79.8851	1,514.65	78.8839	1,514.65	79.7795	1,514.65	77.3805	1,514.65	79.2968	1,514.65	76.2264	1,514.65	76.1511	1,514.65	77.2777	1,514.65	77.4597	1,514.65	72.4014	1,514.65	77.6768	1,514.65	74.2158	1,514.65	72.3993	1,514.65	75.726
1,570.31	89.4827	1,570.31	89.9376	1,570.31	89.6408	1,570.31	90.5209	1,570.31	90.2483	1,570.31	90.6852	1,570.31	90.7391	1,570.31	90.3329	1,570.31	90.693	1,570.31	89.5671	1,570.31	90.0522	1,570.31	88.181	1,570.31	88.9605	1,570.31	85.9102	1,570.31	87.4209	1,570.31	83.481	1,570.31	85.4137	1,570.31	81.9013	1,570.31	83.4921	1,570.31	79.6983	1,570.31	81.7625	1,570.31	77.1897	1,570.31	78.9939	1,570.31	78.3231	1,570.31	77.697	1,570.31	77.0003	1,570.31	78.753	1,570.31	75.4659	1,570.31	76.6234	1,570.31	78.2612	1,570.31	76.5644	1,570.31	74.4535	1,570.31	77.6972	1,570.31	71.0105	1,570.31	72.8334	1,570.31	74.2525
1,623.05	88.9862	1,623.05	89.4592	1,623.05	89.2275	1,623.05	90.233	1,623.05	89.8327	1,623.05	90.5858	1,623.05	90.2664	1,623.05	90.265	1,623.05	90.2154	1,623.05	89.431	1,623.05	89.5668	1,623.05	88.0974	1,623.05	88.3426	1,623.05	86.086	1,623.05	86.5554	1,623.05	83.8023	1,623.05	84.2702	1,623.05	81.9215	1,623.05	82.288	1,623.05	79.3334	1,623.05	81.0801	1,623.05	76.4283	1,623.05	78.7022	1,623.05	78.0005	1,623.05	76.1597	1,623.05	77.557	1,623.05	77.4399	1,623.05	76.3421	1,623.05	75.8692	1,623.05	77.978	1,623.05	75.4362	1,623.05	73.5169	1,623.05	76.7023	1,623.05	69.5523	1,623.05	70.6434	1,623.05	72.9949
1,681.64	88.826	1,681.64	89.3119	1,681.64	88.8227	1,681.64	89.8932	1,681.64	89.2061	1,681.64	90.0302	1,681.64	89.5731	1,681.64	89.5138	1,681.64	89.5368	1,681.64	88.4965	1,681.64	88.897	1,681.64	87.1077	1,681.64	87.7332	1,681.64	85.2888	1,681.64	86.1894	1,681.64	83.4088	1,681.64	84.0791	1,681.64	82.1332	1,681.64	81.4581	1,681.64	80.3671	1,681.64	79.5655	1,681.64	76.9023	1,681.64	77.5725	1,681.64	77.2241	1,681.64	74.8871	1,681.64	77.7871	1,681.64	76.5357	1,681.64	75.4124	1,681.64	76.0722	1,681.64	77.3279	1,681.64	74.0872	1,681.64	74.8648	1,681.64	74.8388	1,681.64	69.5685	1,681.64	67.9976	1,681.64	70.2899
1,740.23	88.9432	1,740.23	89.1681	1,740.23	89.0497	1,740.23	89.4717	1,740.23	89.3964	1,740.23	89.4382	1,740.23	89.6126	1,740.23	88.7606	1,740.23	89.4776	1,740.23	87.4976	1,740.23	88.8863	1,740.23	85.9016	1,740.23	87.7398	1,740.23	84.0307	1,740.23	86.0725	1,740.23	81.9627	1,740.23	83.9505	1,740.23	80.3922	1,740.23	81.5791	1,740.23	79.0545	1,740.23	79.7459	1,740.23	76.3873	1,740.23	77.6442	1,740.23	75.6246	1,740.23	74.1033	1,740.23	76.4525	1,740.23	75.2206	1,740.23	74.1831	1,740.23	75.4328	1,740.23	75.6961	1,740.23	74.0533	1,740.23	74.1533	1,740.23	75.6566	1,740.23	71.989	1,740.23	70.354	1,740.23	70.5018
1,801.76	89.9774	1,801.76	89.9672	1,801.76	90.0559	1,801.76	89.8823	1,801.76	90.0925	1,801.76	89.3745	1,801.76	89.8676	1,801.76	88.4184	1,801.76	89.2695	1,801.76	87.2333	1,801.76	88.3673	1,801.76	85.7245	1,801.76	87.1645	1,801.76	83.6079	1,801.76	85.6094	1,801.76	81.1011	1,801.76	83.7238	1,801.76	79.0202	1,801.76	81.5725	1,801.76	77.5522	1,801.76	79.4514	1,801.76	75.8308	1,801.76	77.5914	1,801.76	74.9581	1,801.76	75.9821	1,801.76	74.8346	1,801.76	76.0371	1,801.76	72.3329	1,801.76	75.4292	1,801.76	74.5258	1,801.76	73.3451	1,801.76	71.476	1,801.76	73.7117	1,801.76	69.3487	1,801.76	66.026	1,801.76	71.6301
1,866.21	90.5447	1,866.21	90.3196	1,866.21	90.3131	1,866.21	89.7498	1,866.21	89.8327	1,866.21	88.9569	1,866.21	89.1313	1,866.21	87.789	1,866.21	88.0535	1,866.21	86.2402	1,866.21	86.6984	1,866.21	84.6759	1,866.21	85.2221	1,866.21	83.2547	1,866.21	83.4668	1,866.21	81.3809	1,866.21	81.2909	1,866.21	78.6941	1,866.21	79.2722	1,866.21	76.5006	1,866.21	78.2727	1,866.21	75.1246	1,866.21	76.867	1,866.21	74.5902	1,866.21	75.2272	1,866.21	75.2708	1,866.21	75.8023	1,866.21	72.9143	1,866.21	74.9981	1,866.21	74.7828	1,866.21	73.263	1,866.21	72.4013	1,866.21	72.7066	1,866.21	61.2037	1,866.21	65.2881	1,866.21	70.0613
1,930.66	90.2688	1,930.66	89.7312	1,930.66	90.1463	1,930.66	88.7445	1,930.66	89.4969	1,930.66	87.7882	1,930.66	88.4198	1,930.66	86.6608	1,930.66	87.0294	1,930.66	84.8288	1,930.66	85.3315	1,930.66	82.8247	1,930.66	83.1748	1,930.66	81.8015	1,930.66	80.8774	1,930.66	81.0216	1,930.66	78.9242	1,930.66	79.4222	1,930.66	76.8691	1,930.66	77.3468	1,930.66	74.8327	1,930.66	73.7998	1,930.66	73.5807	1,930.66	74.1175	1,930.66	72.0137	1,930.66	76.128	1,930.66	72.4421	1,930.66	72.7479	1,930.66	72.4611	1,930.66	74.0747	1,930.66	71.008	1,930.66	71.3279	1,930.66	71.6553	1,930.66	64.8474	1,930.66	61.8314	1,930.66	68.887
2,000.98	90.5907	2,000.98	90.1862	2,000.98	90.4198	2,000.98	89.4781	2,000.98	89.9645	2,000.98	88.8519	2,000.98	89.4297	2,000.98	88.0139	2,000.98	88.5848	2,000.98	86.4735	2,000.98	87.318	2,000.98	84.5204	2,000.98	85.9712	2,000.98	83.001	2,000.98	84.3793	2,000.98	81.6679	2,000.98	81.6907	2,000.98	79.3157	2,000.98	78.533	2,000.98	77.0065	2,000.98	76.8546	2,000.98	74.8719	2,000.98	75.2703	2,000.98	73.7854	2,000.98	74.0018	2,000.98	77.1206	2,000.98	73.5984	2,000.98	75.8201	2,000.98	75.176	2,000.98	73.3277	2,000.98	74.928	2,000.98	68.6059	2,000.98	74.0724	2,000.98	66.3057	2,000.98	72.2721	2,000.98	66.3158
2,071.29	91.9157	2,071.29	91.6611	2,071.29	91.4687	2,071.29	90.8136	2,071.29	90.64	2,071.29	89.6873	2,071.29	89.9721	2,071.29	88.5827	2,071.29	89.1319	2,071.29	87.4154	2,071.29	87.6905	2,071.29	85.7629	2,071.29	86.4347	2,071.29	83.4581	2,071.29	85.3377	2,071.29	81.3134	2,071.29	83.1481	2,071.29	79.3895	2,071.29	80.8196	2,071.29	77.6963	2,071.29	78.9313	2,071.29	76.8372	2,071.29	75.2626	2,071.29	74.7832	2,071.29	73.4151	2,071.29	75.8506	2,071.29	71.2362	2,071.29	72.9658	2,071.29	74.9683	2,071.29	70.5355	2,071.29	75.7728	2,071.29	69.7754	2,071.29	74.9468	2,071.29	67.8599	2,071.29	72.345	2,071.29	66.3952
2,144.53	90.7999	2,144.53	90.7409	2,144.53	90.6262	2,144.53	90.4166	2,144.53	90.0659	2,144.53	89.7295	2,144.53	89.3564	2,144.53	88.9412	2,144.53	88.7258	2,144.53	88.1368	2,144.53	87.6583	2,144.53	86.7561	2,144.53	86.1748	2,144.53	84.4865	2,144.53	84.6062	2,144.53	81.7958	2,144.53	82.2078	2,144.53	79.195	2,144.53	79.3291	2,144.53	77.8801	2,144.53	79.0007	2,144.53	76.9213	2,144.53	78.1934	2,144.53	74.328	2,144.53	75.8606	2,144.53	75.6652	2,144.53	74.2717	2,144.53	72.5341	2,144.53	74.5984	2,144.53	71.6587	2,144.53	74.0438	2,144.53	71.0913	2,144.53	74.0284	2,144.53	70.3997	2,144.53	68.9299	2,144.53	71.9128
2,217.77	88.7433	2,217.77	88.9283	2,217.77	88.8847	2,217.77	89.0879	2,217.77	88.9445	2,217.77	89.0791	2,217.77	88.5267	2,217.77	88.8918	2,217.77	87.9516	2,217.77	88.3023	2,217.77	87.315	2,217.77	87.1596	2,217.77	86.3155	2,217.77	85.3996	2,217.77	84.9601	2,217.77	83.0322	2,217.77	83.4015	2,217.77	80.8438	2,217.77	81.358	2,217.77	79.7736	2,217.77	79.2601	2,217.77	78.0765	2,217.77	77.5607	2,217.77	73.9606	2,217.77	75.0481	2,217.77	75.7413	2,217.77	72.9439	2,217.77	73.9414	2,217.77	74.3182	2,217.77	72.1387	2,217.77	72.6693	2,217.77	73.7606	2,217.77	73.1047	2,217.77	67.2543	2,217.77	67.3398	2,217.77	72.5469
2,296.88	89.4222	2,296.88	89.2989	2,296.88	89.524	2,296.88	89.3027	2,296.88	89.454	2,296.88	89.455	2,296.88	89.0043	2,296.88	89.2418	2,296.88	88.595	2,296.88	88.3578	2,296.88	88.411	2,296.88	87.0475	2,296.88	87.6791	2,296.88	85.2234	2,296.88	86.1706	2,296.88	82.4819	2,296.88	84.346	2,296.88	80.4053	2,296.88	82.1319	2,296.88	80.0802	2,296.88	80.4535	2,296.88	78.9843	2,296.88	79.333	2,296.88	76.4632	2,296.88	77.2701	2,296.88	76.8851	2,296.88	77.1997	2,296.88	77.548	2,296.88	76.7814	2,296.88	66.0839	2,296.88	74.1256	2,296.88	69.8055	2,296.88	68.8621	2,296.88	71.2914	2,296.88	65.4183	2,296.88	73.3764
2,378.91	89.5733	2,378.91	89.5783	2,378.91	89.5072	2,378.91	89.4664	2,378.91	89.6477	2,378.91	89.8959	2,378.91	89.595	2,378.91	90.3357	2,378.91	89.4174	2,378.91	89.7125	2,378.91	89.403	2,378.91	88.1274	2,378.91	88.9561	2,378.91	86.2723	2,378.91	87.4552	2,378.91	83.6111	2,378.91	85.0671	2,378.91	80.7389	2,378.91	82.5268	2,378.91	79.4255	2,378.91	80.9662	2,378.91	76.5113	2,378.91	80.4234	2,378.91	76.5507	2,378.91	78.3921	2,378.91	75.6095	2,378.91	76.9894	2,378.91	76.7068	2,378.91	77.8136	2,378.91	69.8675	2,378.91	74.0471	2,378.91	69.8632	2,378.91	71.5108	2,378.91	62.6023	2,378.91	66.0546	2,378.91	71.3963
2,460.94	89.4463	2,460.94	89.3658	2,460.94	89.1537	2,460.94	89.4077	2,460.94	88.7136	2,460.94	89.6557	2,460.94	88.7222	2,460.94	89.899	2,460.94	88.763	2,460.94	89.7258	2,460.94	88.4661	2,460.94	88.7205	2,460.94	87.7858	2,460.94	86.9584	2,460.94	86.4259	2,460.94	84.7098	2,460.94	84.3518	2,460.94	82.1521	2,460.94	81.914	2,460.94	80.157	2,460.94	79.5828	2,460.94	78.6701	2,460.94	78.1611	2,460.94	76.612	2,460.94	76.227	2,460.94	74.9556	2,460.94	74.8053	2,460.94	75.2889	2,460.94	75.4963	2,460.94	67.7472	2,460.94	72.1525	2,460.94	69.6932	2,460.94	68.3634	2,460.94	69.682	2,460.94	67.7376	2,460.94	72.6141
2,548.83	89.6244	2,548.83	89.3887	2,548.83	89.4758	2,548.83	89.2431	2,548.83	88.963	2,548.83	89.5083	2,548.83	88.8149	2,548.83	89.7954	2,548.83	89.1124	2,548.83	89.4869	2,548.83	88.9536	2,548.83	88.4379	2,548.83	88.1177	2,548.83	86.8955	2,548.83	86.7563	2,548.83	84.8569	2,548.83	84.8317	2,548.83	82.3045	2,548.83	82.5273	2,548.83	80.283	2,548.83	80.2489	2,548.83	79.4764	2,548.83	78.718	2,548.83	78.5589	2,548.83	77.3478	2,548.83	75.9543	2,548.83	74.9575	2,548.83	75.0892	2,548.83	75.0551	2,548.83	66.8485	2,548.83	72.6189	2,548.83	71.61	2,548.83	64.6181	2,548.83	71.5785	2,548.83	68.252	2,548.83	73.2155
2,639.65	90.4634	2,639.65	90.1276	2,639.65	90.4633	2,639.65	89.6619	2,639.65	89.9792	2,639.65	89.4276	2,639.65	89.4197	2,639.65	89.6131	2,639.65	89.3862	2,639.65	89.4448	2,639.65	89.3773	2,639.65	88.21	2,639.65	88.5761	2,639.65	86.2805	2,639.65	86.9747	2,639.65	84.1688	2,639.65	85.0312	2,639.65	81.6763	2,639.65	82.7544	2,639.65	79.4614	2,639.65	80.2177	2,639.65	78.3379	2,639.65	78.6474	2,639.65	78.0486	2,639.65	77.8707	2,639.65	75.3792	2,639.65	76.5992	2,639.65	73.98	2,639.65	74.2763	2,639.65	63.3399	2,639.65	72.3949	2,639.65	69.9813	2,639.65	60.8701	2,639.65	70.7809	2,639.65	68.8759	2,639.65	71.8139
2,733.4	90.5103	2,733.4	89.9819	2,733.4	90.4388	2,733.4	89.3934	2,733.4	89.7492	2,733.4	89.1088	2,733.4	89.0001	2,733.4	89.1698	2,733.4	88.8636	2,733.4	89.1211	2,733.4	88.8401	2,733.4	88.2012	2,733.4	87.9359	2,733.4	86.2066	2,733.4	86.2267	2,733.4	83.6837	2,733.4	84.1394	2,733.4	81.3531	2,733.4	81.9417	2,733.4	79.6507	2,733.4	79.6521	2,733.4	78.0513	2,733.4	77.2629	2,733.4	76.2615	2,733.4	76.0302	2,733.4	72.9653	2,733.4	75.7725	2,733.4	71.2632	2,733.4	72.2292	2,733.4	60.9937	2,733.4	70.1014	2,733.4	71.3483	2,733.4	54.6711	2,733.4	69.4949	2,733.4	67.8016	2,733.4	68.9051
2,827.15	90.4361	2,827.15	90.0281	2,827.15	90.3012	2,827.15	89.4667	2,827.15	89.8548	2,827.15	89.1704	2,827.15	89.3896	2,827.15	88.9524	2,827.15	89.0121	2,827.15	88.498	2,827.15	88.5725	2,827.15	87.3831	2,827.15	87.645	2,827.15	85.1562	2,827.15	85.8562	2,827.15	82.5225	2,827.15	83.2376	2,827.15	80.3038	2,827.15	80.8501	2,827.15	78.0325	2,827.15	79.0255	2,827.15	77.1462	2,827.15	77.5088	2,827.15	75.4938	2,827.15	76.1242	2,827.15	73.1874	2,827.15	74.6588	2,827.15	68.2985	2,827.15	73.0498	2,827.15	59.3803	2,827.15	69.6237	2,827.15	71.3301	2,827.15	57.2813	2,827.15	70.8264	2,827.15	69.6712	2,827.15	70.128
2,926.76	89.8194	2,926.76	89.8515	2,926.76	89.7654	2,926.76	89.949	2,926.76	89.7073	2,926.76	89.9526	2,926.76	89.4588	2,926.76	89.4565	2,926.76	88.9393	2,926.76	88.3075	2,926.76	88.1529	2,926.76	86.7997	2,926.76	86.8287	2,926.76	84.7187	2,926.76	85.0112	2,926.76	81.7956	2,926.76	82.4641	2,926.76	79.1222	2,926.76	79.4194	2,926.76	76.7715	2,926.76	77.7223	2,926.76	74.9146	2,926.76	76.2041	2,926.76	74.8189	2,926.76	74.9854	2,926.76	71.8999	2,926.76	74.0374	2,926.76	68.9606	2,926.76	70.637	2,926.76	55.1804	2,926.76	67.4008	2,926.76	72.1115	2,926.76	62.6294	2,926.76	71.941	2,926.76	70.8738	2,926.76	69.2389
3,032.23	89.2841	3,032.23	89.6854	3,032.23	89.4012	3,032.23	89.8842	3,032.23	89.7677	3,032.23	89.7367	3,032.23	89.5736	3,032.23	89.1483	3,032.23	88.7999	3,032.23	87.777	3,032.23	87.7832	3,032.23	86.0231	3,032.23	86.3638	3,032.23	84.0652	3,032.23	84.1738	3,032.23	81.4149	3,032.23	81.5258	3,032.23	78.7002	3,032.23	78.8966	3,032.23	76.8936	3,032.23	76.782	3,032.23	75.4076	3,032.23	75.3476	3,032.23	74.577	3,032.23	73.6245	3,032.23	71.8477	3,032.23	74.1868	3,032.23	66.0175	3,032.23	71.5889	3,032.23	57.4403	3,032.23	66.7309	3,032.23	70.9646	3,032.23	63.8388	3,032.23	69.6566	3,032.23	69.2134	3,032.23	66.5832
3,137.7	89.3049	3,137.7	89.6561	3,137.7	89.3073	3,137.7	89.8167	3,137.7	89.5606	3,137.7	89.5848	3,137.7	89.3951	3,137.7	88.8799	3,137.7	88.8211	3,137.7	87.4907	3,137.7	87.8246	3,137.7	85.5858	3,137.7	86.2309	3,137.7	83.2744	3,137.7	84.1453	3,137.7	80.2839	3,137.7	81.4248	3,137.7	77.3178	3,137.7	78.4079	3,137.7	75.2063	3,137.7	76.3926	3,137.7	74.5799	3,137.7	75.4248	3,137.7	74.1896	3,137.7	74.2089	3,137.7	71.9468	3,137.7	73.8331	3,137.7	66.2257	3,137.7	73.8339	3,137.7	58.9045	3,137.7	68.255	3,137.7	71.1187	3,137.7	56.554	3,137.7	68.8114	3,137.7	70.5528	3,137.7	67.1026
3,249.02	89.3214	3,249.02	89.3767	3,249.02	89.1675	3,249.02	89.2169	3,249.02	88.9942	3,249.02	88.8157	3,249.02	88.5197	3,249.02	88.3167	3,249.02	88.118	3,249.02	87.2851	3,249.02	87.6924	3,249.02	85.4158	3,249.02	86.2825	3,249.02	83.1421	3,249.02	84.2859	3,249.02	80.3081	3,249.02	82.0004	3,249.02	77.3338	3,249.02	78.9726	3,249.02	75.5354	3,249.02	76.9781	3,249.02	73.3571	3,249.02	75.5241	3,249.02	73.4258	3,249.02	74.5549	3,249.02	70.724	3,249.02	74.6294	3,249.02	65.7557	3,249.02	73.059	3,249.02	61.6643	3,249.02	68.169	3,249.02	70.4951	3,249.02	58.8587	3,249.02	66.2716	3,249.02	72.0534	3,249.02	67.6319
3,363.28	89.3251	3,363.28	89.143	3,363.28	89.0296	3,363.28	88.6887	3,363.28	88.7069	3,363.28	88.0776	3,363.28	88.2913	3,363.28	87.5458	3,363.28	87.877	3,363.28	86.7294	3,363.28	87.6815	3,363.28	84.8779	3,363.28	86.788	3,363.28	82.4388	3,363.28	84.9757	3,363.28	79.8458	3,363.28	82.6344	3,363.28	76.9737	3,363.28	79.9444	3,363.28	75.3833	3,363.28	77.3962	3,363.28	74.1411	3,363.28	76.2228	3,363.28	72.9422	3,363.28	74.677	3,363.28	71.587	3,363.28	74.86	3,363.28	62.4987	3,363.28	72.976	3,363.28	56.6301	3,363.28	66.2786	3,363.28	70.0277	3,363.28	56.6567	3,363.28	66.3436	3,363.28	71.8326	3,363.28	67.6207
3,483.4	89.1462	3,483.4	89.154	3,483.4	89.1089	3,483.4	88.4515	3,483.4	89.0908	3,483.4	87.5291	3,483.4	88.584	3,483.4	87.0233	3,483.4	88.0507	3,483.4	86.1438	3,483.4	87.7788	3,483.4	84.2572	3,483.4	87.1295	3,483.4	81.6908	3,483.4	85.504	3,483.4	78.8546	3,483.4	83.0134	3,483.4	75.943	3,483.4	80.1974	3,483.4	74.115	3,483.4	77.4753	3,483.4	73.1631	3,483.4	76.1503	3,483.4	72.8804	3,483.4	74.7724	3,483.4	71.3076	3,483.4	74.4207	3,483.4	65.5924	3,483.4	73.0254	3,483.4	62.0421	3,483.4	61.8813	3,483.4	70.1415	3,483.4	65.4168	3,483.4	68.5907	3,483.4	72.5808	3,483.4	67.5021
3,606.45	89.318	3,606.45	89.3021	3,606.45	89.3733	3,606.45	88.4338	3,606.45	89.462	3,606.45	87.159	3,606.45	88.7355	3,606.45	86.4986	3,606.45	87.9159	3,606.45	85.7727	3,606.45	87.5893	3,606.45	84.0218	3,606.45	86.7342	3,606.45	81.8076	3,606.45	84.9289	3,606.45	79.3207	3,606.45	82.4149	3,606.45	76.1255	3,606.45	79.5461	3,606.45	74.0832	3,606.45	76.9846	3,606.45	72.5665	3,606.45	75.4158	3,606.45	72.1985	3,606.45	75.1095	3,606.45	70.1948	3,606.45	73.5998	3,606.45	66.0902	3,606.45	71.4917	3,606.45	63.2995	3,606.45	61.6112	3,606.45	69.896	3,606.45	65.5572	3,606.45	69.8806	3,606.45	71.7676	3,606.45	68.0324
3,732.42	89.7106	3,732.42	89.3876	3,732.42	89.7999	3,732.42	88.2895	3,732.42	89.6098	3,732.42	86.7179	3,732.42	88.5453	3,732.42	85.7135	3,732.42	87.6575	3,732.42	85.0446	3,732.42	87.2734	3,732.42	83.5651	3,732.42	86.3109	3,732.42	81.2054	3,732.42	84.5078	3,732.42	78.6304	3,732.42	81.8851	3,732.42	76.0857	3,732.42	78.5961	3,732.42	74.4112	3,732.42	75.9529	3,732.42	73.699	3,732.42	74.6612	3,732.42	73.5858	3,732.42	73.8221	3,732.42	72.2069	3,732.42	73.739	3,732.42	67.121	3,732.42	69.247	3,732.42	63.3197	3,732.42	60.026	3,732.42	69.4063	3,732.42	68.523	3,732.42	69.5814	3,732.42	71.416	3,732.42	68.646
3,864.26	89.9999	3,864.26	89.3371	3,864.26	90.347	3,864.26	88.1312	3,864.26	89.7989	3,864.26	86.4786	3,864.26	88.2035	3,864.26	85.6141	3,864.26	86.9485	3,864.26	85.2388	3,864.26	86.837	3,864.26	84.3264	3,864.26	86.1804	3,864.26	82.5228	3,864.26	84.656	3,864.26	79.8186	3,864.26	82.3306	3,864.26	76.7623	3,864.26	79.6683	3,864.26	75.0813	3,864.26	77.1469	3,864.26	73.6426	3,864.26	74.46	3,864.26	73.062	3,864.26	73.1681	3,864.26	70.7351	3,864.26	73.577	3,864.26	64.9176	3,864.26	68.753	3,864.26	66.5021	3,864.26	61.466	3,864.26	69.9148	3,864.26	67.2979	3,864.26	68.9095	3,864.26	71.7393	3,864.26	68.8315
3,999.02	90.2877	3,999.02	89.6662	3,999.02	90.5828	3,999.02	88.322	3,999.02	89.7882	3,999.02	86.3969	3,999.02	88.0016	3,999.02	85.4224	3,999.02	86.8669	3,999.02	85.3219	3,999.02	86.732	3,999.02	84.4745	3,999.02	86.1438	3,999.02	82.0153	3,999.02	84.6291	3,999.02	79.0348	3,999.02	82.4513	3,999.02	76.5232	3,999.02	79.5936	3,999.02	74.9147	3,999.02	75.8871	3,999.02	73.8073	3,999.02	74.5064	3,999.02	73.3677	3,999.02	72.8932	3,999.02	69.2108	3,999.02	73.7379	3,999.02	65.1983	3,999.02	67.4212	3,999.02	68.8363	3,999.02	60.2853	3,999.02	69.4062	3,999.02	69.1343	3,999.02	67.9456	3,999.02	71.5436	3,999.02	67.6669
4,139.65	90.4947	4,139.65	90.0947	4,139.65	90.6074	4,139.65	88.6866	4,139.65	89.8946	4,139.65	86.6936	4,139.65	87.8675	4,139.65	86.0579	4,139.65	86.4289	4,139.65	85.7658	4,139.65	86.4518	4,139.65	84.5205	4,139.65	85.7884	4,139.65	82.2592	4,139.65	84.1756	4,139.65	79.3413	4,139.65	81.6945	4,139.65	76.556	4,139.65	79.0235	4,139.65	74.479	4,139.65	75.5043	4,139.65	72.5935	4,139.65	74.1544	4,139.65	72.8268	4,139.65	72.2353	4,139.65	68.8656	4,139.65	72.9183	4,139.65	61.2569	4,139.65	66.7561	4,139.65	68.6784	4,139.65	59.4652	4,139.65	69.5412	4,139.65	68.9604	4,139.65	67.1377	4,139.65	70.5269	4,139.65	66.8312
4,286.13	90.9932	4,286.13	90.5007	4,286.13	91.1378	4,286.13	89.0538	4,286.13	90.4399	4,286.13	86.7973	4,286.13	88.5984	4,286.13	85.2791	4,286.13	86.8172	4,286.13	85.0858	4,286.13	86.0944	4,286.13	84.2721	4,286.13	85.5154	4,286.13	81.8217	4,286.13	83.9541	4,286.13	79.255	4,286.13	80.8735	4,286.13	76.9212	4,286.13	78.405	4,286.13	74.6898	4,286.13	75.5143	4,286.13	73.8061	4,286.13	73.7715	4,286.13	73.1049	4,286.13	72.046	4,286.13	70.1235	4,286.13	73.6174	4,286.13	59.832	4,286.13	69.0164	4,286.13	69.2871	4,286.13	61.6276	4,286.13	68.3796	4,286.13	69.857	4,286.13	65.5277	4,286.13	70.0177	4,286.13	66.1534
4,438.48	91.3492	4,438.48	90.7719	4,438.48	91.3909	4,438.48	89.7026	4,438.48	90.5362	4,438.48	87.8332	4,438.48	88.861	4,438.48	86.0071	4,438.48	86.9356	4,438.48	84.8815	4,438.48	85.5586	4,438.48	83.4485	4,438.48	84.722	4,438.48	81.2827	4,438.48	82.9821	4,438.48	78.3802	4,438.48	80.484	4,438.48	75.3902	4,438.48	77.8317	4,438.48	73.441	4,438.48	74.5184	4,438.48	72.5507	4,438.48	73.6309	4,438.48	72.6338	4,438.48	71.5604	4,438.48	70.6592	4,438.48	72.5342	4,438.48	58.5634	4,438.48	68.4152	4,438.48	68.5057	4,438.48	60.6088	4,438.48	68.8956	4,438.48	68.2424	4,438.48	64.7352	4,438.48	68.7538	4,438.48	65.1327
4,593.75	91.6126	4,593.75	90.9962	4,593.75	91.4936	4,593.75	89.7712	4,593.75	90.6165	4,593.75	87.7292	4,593.75	88.9618	4,593.75	85.3015	4,593.75	86.7916	4,593.75	84.164	4,593.75	85.2101	4,593.75	83.5009	4,593.75	84.4088	4,593.75	81.6874	4,593.75	83.0183	4,593.75	79.3159	4,593.75	80.3715	4,593.75	77.0645	4,593.75	77.1793	4,593.75	74.3811	4,593.75	74.5668	4,593.75	72.963	4,593.75	73.2526	4,593.75	72.328	4,593.75	72.0777	4,593.75	71.3463	4,593.75	72.3806	4,593.75	59.7943	4,593.75	70.9258	4,593.75	67.9292	4,593.75	61.5004	4,593.75	67.6358	4,593.75	66.4368	4,593.75	64.2505	4,593.75	66.5392	4,593.75	63.3185
4,757.81	91.2147	4,757.81	90.7921	4,757.81	91.0455	4,757.81	90.0579	4,757.81	90.3029	4,757.81	87.9893	4,757.81	89.1244	4,757.81	85.3395	4,757.81	86.6451	4,757.81	84.655	4,757.81	84.4039	4,757.81	84.3423	4,757.81	83.9267	4,757.81	82.3164	4,757.81	83.0491	4,757.81	78.8435	4,757.81	80.0982	4,757.81	76.163	4,757.81	76.8177	4,757.81	73.5995	4,757.81	74.7403	4,757.81	73.6642	4,757.81	72.4766	4,757.81	72.1795	4,757.81	70.9195	4,757.81	71.2347	4,757.81	71.814	4,757.81	58.5452	4,757.81	69.3007	4,757.81	66.3274	4,757.81	59.057	4,757.81	66.662	4,757.81	67.0871	4,757.81	59.3993	4,757.81	65.2422	4,757.81	59.0163
4,924.8	91.4781	4,924.8	90.8345	4,924.8	91.0769	4,924.8	90.0512	4,924.8	90.1642	4,924.8	87.9377	4,924.8	88.9915	4,924.8	84.9831	4,924.8	86.2535	4,924.8	84.0451	4,924.8	84.1647	4,924.8	83.441	4,924.8	83.9672	4,924.8	81.5612	4,924.8	82.6754	4,924.8	78.4518	4,924.8	80.2586	4,924.8	76.6218	4,924.8	76.6994	4,924.8	74.3947	4,924.8	74.2737	4,924.8	72.6285	4,924.8	72.6517	4,924.8	71.3239	4,924.8	71.3486	4,924.8	70.1091	4,924.8	71.6799	4,924.8	56.14	4,924.8	68.5076	4,924.8	64.9751	4,924.8	62.2515	4,924.8	66.1649	4,924.8	67.2032	4,924.8	58.5023	4,924.8	63.4244	4,924.8	62.1407
5,097.66	91.6218	5,097.66	90.6464	5,097.66	91.2256	5,097.66	89.7576	5,097.66	90.1068	5,097.66	87.5938	5,097.66	88.9152	5,097.66	84.979	5,097.66	86.0958	5,097.66	84.6495	5,097.66	84.3779	5,097.66	83.8406	5,097.66	84.1343	5,097.66	81.546	5,097.66	82.3419	5,097.66	78.2631	5,097.66	79.1342	5,097.66	75.6085	5,097.66	75.2977	5,097.66	72.7474	5,097.66	73.3039	5,097.66	71.0864	5,097.66	71.98	5,097.66	70.7227	5,097.66	70.6969	5,097.66	69.3026	5,097.66	71.3756	5,097.66	58.9456	5,097.66	69.0257	5,097.66	63.0832	5,097.66	60.611	5,097.66	64.5865	5,097.66	65.4938	5,097.66	58.6915	5,097.66	61.5763	5,097.66	61.8634
5,279.3	91.8968	5,279.3	91.2021	5,279.3	91.4661	5,279.3	90.4655	5,279.3	90.1682	5,279.3	87.9981	5,279.3	88.893	5,279.3	85.0664	5,279.3	85.8891	5,279.3	83.7067	5,279.3	83.5294	5,279.3	82.5418	5,279.3	82.6778	5,279.3	80.4945	5,279.3	80.4525	5,279.3	77.2477	5,279.3	77.1065	5,279.3	74.4309	5,279.3	74.6515	5,279.3	72.9895	5,279.3	71.6328	5,279.3	72.1758	5,279.3	69.7042	5,279.3	70.9376	5,279.3	69.7669	5,279.3	68.584	5,279.3	70.621	5,279.3	60.9746	5,279.3	68.525	5,279.3	62.6877	5,279.3	60.4112	5,279.3	61.9788	5,279.3	64.922	5,279.3	60.3365	5,279.3	60.6482	5,279.3	62.727
5,463.87	92.2773	5,463.87	91.468	5,463.87	91.9798	5,463.87	90.0274	5,463.87	90.8321	5,463.87	87.1004	5,463.87	88.9568	5,463.87	83.8248	5,463.87	85.6379	5,463.87	82.3668	5,463.87	82.8217	5,463.87	81.7193	5,463.87	81.3983	5,463.87	80.2804	5,463.87	79.3435	5,463.87	77.7659	5,463.87	77.3647	5,463.87	75.0082	5,463.87	74.8378	5,463.87	72.6097	5,463.87	71.9541	5,463.87	71.5903	5,463.87	70.3573	5,463.87	71.337	5,463.87	71.3895	5,463.87	67.1004	5,463.87	70.7698	5,463.87	57.0757	5,463.87	68.2754	5,463.87	61.4437	5,463.87	60.4619	5,463.87	61.8703	5,463.87	65.2185	5,463.87	54.6149	5,463.87	55.4615	5,463.87	59.1869
5,657.23	91.4304	5,657.23	90.6735	5,657.23	91.2361	5,657.23	89.2468	5,657.23	90.0027	5,657.23	87.1343	5,657.23	88.0382	5,657.23	84.9081	5,657.23	85.7553	5,657.23	83.3269	5,657.23	82.9236	5,657.23	82.8688	5,657.23	80.9091	5,657.23	81.6444	5,657.23	80.0584	5,657.23	78.5034	5,657.23	78.4955	5,657.23	73.8222	5,657.23	75.7758	5,657.23	72.0984	5,657.23	72.6918	5,657.23	72.4969	5,657.23	70.8327	5,657.23	72	5,657.23	71.8171	5,657.23	68.0093	5,657.23	71.5941	5,657.23	58.0615	5,657.23	68.3273	5,657.23	59.7309	5,657.23	58.7626	5,657.23	57.9848	5,657.23	62.3896	5,657.23	57.2153	5,657.23	42.2393	5,657.23	60.8852
5,856.45	91.0672	5,856.45	90.6509	5,856.45	90.7768	5,856.45	89.3911	5,856.45	89.7867	5,856.45	87.9879	5,856.45	88.0175	5,856.45	85.7398	5,856.45	86.2194	5,856.45	83.8204	5,856.45	83.283	5,856.45	83.0083	5,856.45	81.739	5,856.45	81.3905	5,856.45	81.0472	5,856.45	78.1879	5,856.45	79.5555	5,856.45	74.619	5,856.45	76.057	5,856.45	73.689	5,856.45	73.0836	5,856.45	72.899	5,856.45	71.3143	5,856.45	72.1221	5,856.45	71.5801	5,856.45	65.8303	5,856.45	70.661	5,856.45	61.9249	5,856.45	66.5	5,856.45	60.4744	5,856.45	59.3865	5,856.45	55.0242	5,856.45	63.7003	5,856.45	56.8674	5,856.45	55.9276	5,856.45	63.368
6,061.52	91.4882	6,061.52	91.1795	6,061.52	91.2954	6,061.52	89.8373	6,061.52	90.227	6,061.52	88.4087	6,061.52	88.5659	6,061.52	86.0435	6,061.52	87.045	6,061.52	84.2366	6,061.52	84.0491	6,061.52	83.9234	6,061.52	82.5589	6,061.52	82.7924	6,061.52	81.5609	6,061.52	79.1739	6,061.52	79.2816	6,061.52	74.8477	6,061.52	75.7788	6,061.52	73.3379	6,061.52	72.0698	6,061.52	71.9438	6,061.52	70.4687	6,061.52	70.718	6,061.52	71.531	6,061.52	64.9759	6,061.52	70.2038	6,061.52	61.2707	6,061.52	65.7337	6,061.52	60.3998	6,061.52	59.8907	6,061.52	58.1439	6,061.52	62.2587	6,061.52	57.9798	6,061.52	59.511	6,061.52	63.8726
6,275.39	91.6647	6,275.39	91.2972	6,275.39	91.54	6,275.39	90.1164	6,275.39	90.5868	6,275.39	88.9279	6,275.39	89.2688	6,275.39	86.8547	6,275.39	87.6958	6,275.39	85.3992	6,275.39	84.902	6,275.39	84.432	6,275.39	83.455	6,275.39	82.7287	6,275.39	81.9826	6,275.39	78.7789	6,275.39	79.8182	6,275.39	74.3672	6,275.39	76.2294	6,275.39	72.628	6,275.39	72.0859	6,275.39	72.7231	6,275.39	70.3872	6,275.39	71.3377	6,275.39	71.2988	6,275.39	65.9697	6,275.39	69.9796	6,275.39	59.6038	6,275.39	64.4638	6,275.39	60.1852	6,275.39	60.6026	6,275.39	59.1284	6,275.39	61.1608	6,275.39	58.646	6,275.39	61.1317	6,275.39	63.9013
6,498.05	91.8431	6,498.05	91.5181	6,498.05	91.7237	6,498.05	90.6384	6,498.05	90.7334	6,498.05	89.3809	6,498.05	89.6138	6,498.05	87.4749	6,498.05	87.9353	6,498.05	85.6862	6,498.05	85.5229	6,498.05	84.2104	6,498.05	83.7734	6,498.05	82.3987	6,498.05	82.1427	6,498.05	78.5939	6,498.05	80.0051	6,498.05	74.6828	6,498.05	77.1757	6,498.05	73.3746	6,498.05	72.602	6,498.05	73.3657	6,498.05	70.5163	6,498.05	71.3917	6,498.05	71.7258	6,498.05	65.1754	6,498.05	70.6344	6,498.05	59.3634	6,498.05	61.6876	6,498.05	60.119	6,498.05	56.8505	6,498.05	59.5033	6,498.05	61.8359	6,498.05	59.6995	6,498.05	60.8087	6,498.05	62.5835
6,726.56	92.1466	6,726.56	91.8751	6,726.56	91.854	6,726.56	90.8685	6,726.56	91.0512	6,726.56	89.4018	6,726.56	89.5852	6,726.56	87.6775	6,726.56	87.8176	6,726.56	85.6389	6,726.56	85.8273	6,726.56	83.9185	6,726.56	83.5538	6,726.56	82.2958	6,726.56	82.242	6,726.56	79.4346	6,726.56	80.6148	6,726.56	75.1346	6,726.56	77.3283	6,726.56	73.3075	6,726.56	73.4059	6,726.56	73.0702	6,726.56	70.6526	6,726.56	71.0916	6,726.56	72.2552	6,726.56	64.3705	6,726.56	69.9286	6,726.56	60.3252	6,726.56	58.6379	6,726.56	61.1354	6,726.56	54.1483	6,726.56	60.2399	6,726.56	62.1682	6,726.56	59.0512	6,726.56	61.8347	6,726.56	63.6887
6,963.87	92.1568	6,963.87	91.7026	6,963.87	92.0345	6,963.87	90.8573	6,963.87	91.0901	6,963.87	89.3245	6,963.87	89.572	6,963.87	87.5695	6,963.87	87.9101	6,963.87	85.4141	6,963.87	85.9022	6,963.87	84.0932	6,963.87	83.6833	6,963.87	82.1758	6,963.87	82.5134	6,963.87	79.5731	6,963.87	80.4072	6,963.87	75.464	6,963.87	77.324	6,963.87	72.9184	6,963.87	74.1809	6,963.87	72.6451	6,963.87	71.1028	6,963.87	71.2374	6,963.87	71.3853	6,963.87	64.2057	6,963.87	68.7593	6,963.87	61.0866	6,963.87	58.6229	6,963.87	61.425	6,963.87	52.7316	6,963.87	60.7976	6,963.87	61.1179	6,963.87	60.1893	6,963.87	60.3625	6,963.87	63.5419
7,209.96	91.9923	7,209.96	91.6531	7,209.96	91.773	7,209.96	90.6771	7,209.96	90.967	7,209.96	89.4021	7,209.96	89.4538	7,209.96	87.5601	7,209.96	88.0366	7,209.96	85.2139	7,209.96	85.717	7,209.96	83.8154	7,209.96	83.4618	7,209.96	81.2715	7,209.96	82.2177	7,209.96	78.5807	7,209.96	79.8717	7,209.96	74.832	7,209.96	76.4061	7,209.96	72.7975	7,209.96	73.1615	7,209.96	72.1415	7,209.96	69.8613	7,209.96	70.867	7,209.96	70.7456	7,209.96	61.1533	7,209.96	67.0926	7,209.96	60.2587	7,209.96	53.8866	7,209.96	62.5264	7,209.96	52.0348	7,209.96	59.4913	7,209.96	59.9343	7,209.96	59.4217	7,209.96	59.2033	7,209.96	63.4473
7,464.84	91.9168	7,464.84	91.6935	7,464.84	91.7621	7,464.84	90.7123	7,464.84	90.904	7,464.84	89.4759	7,464.84	89.51	7,464.84	87.4426	7,464.84	87.9539	7,464.84	85.274	7,464.84	85.3851	7,464.84	83.3806	7,464.84	83.2697	7,464.84	80.4498	7,464.84	81.487	7,464.84	77.871	7,464.84	78.8966	7,464.84	74.839	7,464.84	75.5365	7,464.84	71.9419	7,464.84	72.3034	7,464.84	71.6274	7,464.84	69.1309	7,464.84	69.1902	7,464.84	69.811	7,464.84	54.3479	7,464.84	64.6345	7,464.84	56.9237	7,464.84	51.6028	7,464.84	62.5526	7,464.84	56.2356	7,464.84	58.2621	7,464.84	59.3418	7,464.84	59.1101	7,464.84	58.848	7,464.84	61.7189
7,728.52	92.2376	7,728.52	92.0941	7,728.52	92.064	7,728.52	91.0004	7,728.52	91.2905	7,728.52	89.6468	7,728.52	89.9005	7,728.52	87.5815	7,728.52	88.1567	7,728.52	85.3366	7,728.52	85.7423	7,728.52	82.8275	7,728.52	83.1844	7,728.52	80.3806	7,728.52	80.9	7,728.52	77.8718	7,728.52	78.7712	7,728.52	75.7881	7,728.52	76.0812	7,728.52	71.4942	7,728.52	71.635	7,728.52	71.0422	7,728.52	68.3563	7,728.52	68.4452	7,728.52	69.7469	7,728.52	48.521	7,728.52	62.5663	7,728.52	52.1451	7,728.52	52.2854	7,728.52	62.0064	7,728.52	58.1925	7,728.52	57.248	7,728.52	55.6583	7,728.52	57.7642	7,728.52	60.3103	7,728.52	59.9524
8,000.98	92.8726	8,000.98	92.5006	8,000.98	92.6773	8,000.98	91.4675	8,000.98	91.7974	8,000.98	90.0522	8,000.98	90.5666	8,000.98	88.0079	8,000.98	88.7216	8,000.98	85.4033	8,000.98	86.4534	8,000.98	82.8112	8,000.98	83.4648	8,000.98	80.6499	8,000.98	81.3163	8,000.98	77.9957	8,000.98	79.142	8,000.98	76.0845	8,000.98	76.1529	8,000.98	70.9777	8,000.98	71.7457	8,000.98	69.6817	8,000.98	67.6852	8,000.98	66.467	8,000.98	69.8612	8,000.98	52.0646	8,000.98	60.4247	8,000.98	42.2268	8,000.98	46.5576	8,000.98	61.352	8,000.98	58.1216	8,000.98	53.6499	8,000.98	56.0244	8,000.98	56.0066	8,000.98	60.8385	8,000.98	59.6311
8,282.23	93.4965	8,282.23	93.111	8,282.23	93.3404	8,282.23	92.0577	8,282.23	92.5518	8,282.23	90.5016	8,282.23	91.1553	8,282.23	88.4999	8,282.23	89.4759	8,282.23	85.4463	8,282.23	87.1987	8,282.23	82.8693	8,282.23	84.1635	8,282.23	79.4672	8,282.23	82.1131	8,282.23	77.123	8,282.23	79.2626	8,282.23	75.7207	8,282.23	75.1474	8,282.23	70.4013	8,282.23	72.8165	8,282.23	68.0854	8,282.23	67.9506	8,282.23	64.6602	8,282.23	69.5363	8,282.23	52.5042	8,282.23	57.9393	8,282.23	47.9927	8,282.23	45.8869	8,282.23	60.575	8,282.23	58.796	8,282.23	55.1206	8,282.23	57.7358	8,282.23	53.9268	8,282.23	60.812	8,282.23	59.0306
8,575.2	93.7509	8,575.2	93.3622	8,575.2	93.5262	8,575.2	92.3698	8,575.2	92.7938	8,575.2	90.8493	8,575.2	91.5723	8,575.2	88.7002	8,575.2	89.7734	8,575.2	85.9062	8,575.2	87.4826	8,575.2	83.0234	8,575.2	84.7512	8,575.2	79.0469	8,575.2	82.3035	8,575.2	77.216	8,575.2	79.1076	8,575.2	75.1883	8,575.2	75.6062	8,575.2	69.7928	8,575.2	73.1783	8,575.2	67.4786	8,575.2	68.6629	8,575.2	64.2499	8,575.2	68.6438	8,575.2	55.5462	8,575.2	55.5398	8,575.2	51.3139	8,575.2	50.0239	8,575.2	62.3716	8,575.2	59.5048	8,575.2	54.3941	8,575.2	59.8832	8,575.2	54.9756	8,575.2	59.1138	8,575.2	58.0485
8,876.95	93.7203	8,876.95	93.3371	8,876.95	93.5744	8,876.95	92.3581	8,876.95	92.8228	8,876.95	90.8841	8,876.95	91.6089	8,876.95	88.5392	8,876.95	89.7608	8,876.95	85.8788	8,876.95	87.1782	8,876.95	82.8592	8,876.95	84.4959	8,876.95	80.1039	8,876.95	81.6593	8,876.95	77.6333	8,876.95	79.2638	8,876.95	75.1229	8,876.95	76.2207	8,876.95	69.8096	8,876.95	73.0773	8,876.95	67.9699	8,876.95	69.464	8,876.95	64.4319	8,876.95	68.4892	8,876.95	56.4758	8,876.95	58.6893	8,876.95	56.0047	8,876.95	46.8173	8,876.95	60.4965	8,876.95	61.7869	8,876.95	54.5972	8,876.95	60.8452	8,876.95	56.4706	8,876.95	58.0736	8,876.95	57.2802
9,190.43	93.7311	9,190.43	93.4076	9,190.43	93.6129	9,190.43	92.2738	9,190.43	92.7577	9,190.43	90.7394	9,190.43	91.4626	9,190.43	88.2984	9,190.43	89.5708	9,190.43	85.5283	9,190.43	86.9056	9,190.43	82.6259	9,190.43	84.0586	9,190.43	80.1173	9,190.43	81.4205	9,190.43	76.7159	9,190.43	78.6343	9,190.43	74.4325	9,190.43	75.0096	9,190.43	69.0281	9,190.43	72.5465	9,190.43	67.0185	9,190.43	69.1	9,190.43	63.3186	9,190.43	68.0894	9,190.43	58.7815	9,190.43	59.6153	9,190.43	56.6351	9,190.43	42.3988	9,190.43	58.8531	9,190.43	61.1368	9,190.43	53.6231	9,190.43	59.3975	9,190.43	57.0349	9,190.43	56.5063	9,190.43	55.6055
9,512.7	93.8492	9,512.7	93.508	9,512.7	93.7275	9,512.7	92.2814	9,512.7	92.9027	9,512.7	90.6171	9,512.7	91.4142	9,512.7	88.0899	9,512.7	89.2578	9,512.7	85.0433	9,512.7	86.5898	9,512.7	82.3688	9,512.7	83.5365	9,512.7	78.7268	9,512.7	80.8622	9,512.7	76.0415	9,512.7	77.1152	9,512.7	73.2427	9,512.7	73.6056	9,512.7	68.5631	9,512.7	71.3082	9,512.7	66.587	9,512.7	67.8391	9,512.7	62.0209	9,512.7	66.8291	9,512.7	57.9858	9,512.7	57.776	9,512.7	56.7372	9,512.7	45.8957	9,512.7	57.2373	9,512.7	59.8945	9,512.7	54.2005	9,512.7	57.6385	9,512.7	56.9885	9,512.7	54.7583	9,512.7	53.5322
9,849.61	94.2827	9,849.61	93.7708	9,849.61	94.0987	9,849.61	92.4861	9,849.61	93.1808	9,849.61	90.6623	9,849.61	91.4841	9,849.61	87.9429	9,849.61	88.9755	9,849.61	84.9024	9,849.61	86.0924	9,849.61	81.778	9,849.61	83.2207	9,849.61	78.1375	9,849.61	80.1532	9,849.61	75.7808	9,849.61	77.0131	9,849.61	72.3497	9,849.61	73.311	9,849.61	68.2845	9,849.61	71.6455	9,849.61	65.8746	9,849.61	67.4241	9,849.61	60.7998	9,849.61	64.9511	9,849.61	56.7406	9,849.61	54.5094	9,849.61	57.9045	9,849.61	50.8265	9,849.61	56.1469	9,849.61	59.0973	9,849.61	50.1914	9,849.61	57.6052	9,849.61	54.2292	9,849.61	53.7212	9,849.61	50.4735
10,195.3	94.8083	10,195.3	94.1882	10,195.3	94.5766	10,195.3	92.8546	10,195.3	93.5522	10,195.3	90.8441	10,195.3	91.7656	10,195.3	88.0948	10,195.3	89.1311	10,195.3	85.0833	10,195.3	86.1592	10,195.3	82.2338	10,195.3	83.1726	10,195.3	79.1845	10,195.3	80.6664	10,195.3	76.1401	10,195.3	77.6044	10,195.3	72.1983	10,195.3	73.4081	10,195.3	67.7174	10,195.3	71.4984	10,195.3	65.8798	10,195.3	67.0165	10,195.3	62.2074	10,195.3	63.6305	10,195.3	58.0693	10,195.3	57.0236	10,195.3	56.4973	10,195.3	52.006	10,195.3	56.5213	10,195.3	57.9897	10,195.3	49.4673	10,195.3	54.7189	10,195.3	53.8623	10,195.3	56.0932	10,195.3	53.7719
10,555.7	95.1432	10,555.7	94.6125	10,555.7	94.9656	10,555.7	93.2022	10,555.7	93.9312	10,555.7	91.3139	10,555.7	92.1277	10,555.7	88.6073	10,555.7	89.6569	10,555.7	85.8668	10,555.7	86.8477	10,555.7	83.563	10,555.7	84.1941	10,555.7	80.3343	10,555.7	82.1646	10,555.7	77.1395	10,555.7	78.2865	10,555.7	72.1534	10,555.7	74.6847	10,555.7	68.6601	10,555.7	71.4277	10,555.7	66.695	10,555.7	67.8891	10,555.7	61.8881	10,555.7	64.8047	10,555.7	57.2668	10,555.7	58.2263	10,555.7	55.8995	10,555.7	48.3379	10,555.7	56.7822	10,555.7	57.9135	10,555.7	45.1448	10,555.7	51.8658	10,555.7	56.5833	10,555.7	58.1273	10,555.7	53.7218
10,927.7	95.3645	10,927.7	94.8192	10,927.7	95.2808	10,927.7	93.4625	10,927.7	94.2006	10,927.7	91.6236	10,927.7	92.4416	10,927.7	89.1344	10,927.7	90.1411	10,927.7	86.6766	10,927.7	87.3912	10,927.7	84.0201	10,927.7	84.9897	10,927.7	80.7235	10,927.7	82.8378	10,927.7	77.9724	10,927.7	80.1264	10,927.7	71.4646	10,927.7	75.8828	10,927.7	69.0789	10,927.7	72.6579	10,927.7	66.1674	10,927.7	68.5198	10,927.7	60.2503	10,927.7	65.8453	10,927.7	54.7673	10,927.7	59.488	10,927.7	52.0887	10,927.7	45.2528	10,927.7	57.4627	10,927.7	57.0629	10,927.7	50.4715	10,927.7	52.3024	10,927.7	57.7884	10,927.7	56.5987	10,927.7	52.8937
11,314.5	95.542	11,314.5	95.1211	11,314.5	95.4513	11,314.5	93.6332	11,314.5	94.337	11,314.5	91.692	11,314.5	92.5062	11,314.5	88.9354	11,314.5	90.1452	11,314.5	86.0409	11,314.5	87.2099	11,314.5	82.6687	11,314.5	84.7978	11,314.5	79.795	11,314.5	83.1625	11,314.5	75.16	11,314.5	80.933	11,314.5	68.0045	11,314.5	76.1501	11,314.5	66.7481	11,314.5	72.7781	11,314.5	62.548	11,314.5	69.3692	11,314.5	55.6608	11,314.5	65.1989	11,314.5	48.9108	11,314.5	60.9129	11,314.5	46.6204	11,314.5	48.9371	11,314.5	58.1615	11,314.5	53.3181	11,314.5	57.0598	11,314.5	52.5906	11,314.5	58.1279	11,314.5	59.1028	11,314.5	54.7432
11,712.9	95.5205	11,712.9	95.1671	11,712.9	95.1365	11,712.9	93.733	11,712.9	94.0673	11,712.9	91.5092	11,712.9	92.3388	11,712.9	88.0949	11,712.9	90.0116	11,712.9	84.3669	11,712.9	87.2463	11,712.9	81.0985	11,712.9	85.0608	11,712.9	77.5477	11,712.9	83.4548	11,712.9	72.3049	11,712.9	80.9178	11,712.9	63.6641	11,712.9	76.6197	11,712.9	65.3822	11,712.9	72.6052	11,712.9	61.6219	11,712.9	69.0679	11,712.9	52.758	11,712.9	65.9973	11,712.9	43.2917	11,712.9	61.9398	11,712.9	32.5022	11,712.9	56.6378	11,712.9	60.4617	11,712.9	53.3637	11,712.9	58.5708	11,712.9	58.2026	11,712.9	56.2296	11,712.9	59.8872	11,712.9	55.308
12,126	95.1714	12,126	94.9189	12,126	95.0258	12,126	93.7361	12,126	93.9805	12,126	91.421	12,126	92.3859	12,126	87.7873	12,126	90.1888	12,126	84.0844	12,126	87.6326	12,126	80.6132	12,126	84.9018	12,126	79.8176	12,126	82.6548	12,126	75.2668	12,126	80.0661	12,126	65.2139	12,126	76.5288	12,126	68.0687	12,126	71.213	12,126	63.3818	12,126	68.2814	12,126	56.96	12,126	63.7089	12,126	47.3411	12,126	63.7942	12,126	33.1982	12,126	59.1561	12,126	60.5538	12,126	58.0171	12,126	57.0064	12,126	58.7009	12,126	56.093	12,126	59.6991	12,126	53.7219
12,553.7	94.8495	12,553.7	94.8133	12,553.7	94.5364	12,553.7	93.568	12,553.7	93.9116	12,553.7	91.4188	12,553.7	92.6862	12,553.7	88.0379	12,553.7	90.6582	12,553.7	85.062	12,553.7	87.8898	12,553.7	83.2873	12,553.7	84.8583	12,553.7	82.7382	12,553.7	82.4614	12,553.7	76.6485	12,553.7	79.3948	12,553.7	67.9269	12,553.7	75.2634	12,553.7	70.6013	12,553.7	69.8991	12,553.7	65.1914	12,553.7	67.5138	12,553.7	59.527	12,553.7	60.9141	12,553.7	51.8881	12,553.7	62.4975	12,553.7	50.1356	12,553.7	60.35	12,553.7	59.1597	12,553.7	56.9401	12,553.7	56.7509	12,553.7	59.5466	12,553.7	51.6169	12,553.7	59.8915	12,553.7	57.0946
12,996.1	93.7929	12,996.1	93.6084	12,996.1	93.7132	12,996.1	92.408	12,996.1	93.8386	12,996.1	90.8345	12,996.1	93.0292	12,996.1	88.4484	12,996.1	91.6029	12,996.1	86.7164	12,996.1	89.3027	12,996.1	85.3184	12,996.1	87.2195	12,996.1	84.5292	12,996.1	85.6504	12,996.1	78.5039	12,996.1	83.3116	12,996.1	69.4212	12,996.1	79.655	12,996.1	72.1333	12,996.1	69.8207	12,996.1	65.7816	12,996.1	71.2776	12,996.1	62.3829	12,996.1	58.7682	12,996.1	55.3234	12,996.1	62.167	12,996.1	58.4078	12,996.1	62.9097	12,996.1	57.7114	12,996.1	56.0556	12,996.1	54.329	12,996.1	60.3505	12,996.1	52.267	12,996.1	60.7034	12,996.1	55.5291
13,453.1	91.6733	13,453.1	90.8894	13,453.1	92.8876	13,453.1	90.5602	13,453.1	93.7043	13,453.1	89.7481	13,453.1	93.7785	13,453.1	88.7606	13,453.1	92.9559	13,453.1	87.9012	13,453.1	91.3673	13,453.1	86.6923	13,453.1	89.6169	13,453.1	86.3436	13,453.1	87.9565	13,453.1	79.8707	13,453.1	86.22	13,453.1	71.6481	13,453.1	82.5101	13,453.1	72.4036	13,453.1	72.7872	13,453.1	66.1408	13,453.1	74.2996	13,453.1	65.064	13,453.1	59.2956	13,453.1	55.854	13,453.1	66.6939	13,453.1	60.5968	13,453.1	64.7746	13,453.1	55.2921	13,453.1	59.8778	13,453.1	54.6711	13,453.1	61.021	13,453.1	55.7861	13,453.1	60.6241	13,453.1	57.3408
13,927.7	89.1449	13,927.7	90.2696	13,927.7	90.1978	13,927.7	91.3262	13,927.7	92.2228	13,927.7	92.211	13,927.7	93.3742	13,927.7	91.7633	13,927.7	93.578	13,927.7	91.3225	13,927.7	92.5258	13,927.7	90.4988	13,927.7	90.9035	13,927.7	89.6649	13,927.7	88.8224	13,927.7	83.4869	13,927.7	86.6295	13,927.7	77.0434	13,927.7	82.656	13,927.7	75.4781	13,927.7	71.5254	13,927.7	69.3658	13,927.7	74.4629	13,927.7	66.8756	13,927.7	59.5399	13,927.7	58.6652	13,927.7	68.9361	13,927.7	62.6061	13,927.7	65.3056	13,927.7	61.039	13,927.7	62.5727	13,927.7	56.4089	13,927.7	61.4819	13,927.7	60.0002	13,927.7	64.0864	13,927.7	59.9612
14,419.9	92.0083	14,419.9	92.4006	14,419.9	91.5071	14,419.9	93.3832	14,419.9	91.4951	14,419.9	94.3248	14,419.9	92.5121	14,419.9	94.0545	14,419.9	93.3009	14,419.9	93.0946	14,419.9	92.7431	14,419.9	91.9766	14,419.9	91.3289	14,419.9	90.7305	14,419.9	89.3834	14,419.9	84.9156	14,419.9	86.8769	14,419.9	80.025	14,419.9	82.684	14,419.9	76.4047	14,419.9	70.9043	14,419.9	70.4029	14,419.9	74.2648	14,419.9	66.0514	14,419.9	55.9297	14,419.9	58.6571	14,419.9	69.25	14,419.9	64.1409	14,419.9	66.2645	14,419.9	64.8311	14,419.9	60.1041	14,419.9	46.1368	14,419.9	59.926	14,419.9	60.0677	14,419.9	62.4571	14,419.9	58.1305
14,929.7	94.3822	14,929.7	93.6874	14,929.7	94.0197	14,929.7	92.8755	14,929.7	92.8275	14,929.7	92.8851	14,929.7	92.0455	14,929.7	92.0958	14,929.7	91.9041	14,929.7	90.9131	14,929.7	91.1428	14,929.7	89.4073	14,929.7	89.5687	14,929.7	88.03	14,929.7	87.4511	14,929.7	81.3135	14,929.7	84.8787	14,929.7	76.9869	14,929.7	80.8257	14,929.7	72.3595	14,929.7	68.5558	14,929.7	66.0723	14,929.7	71.8777	14,929.7	62.4876	14,929.7	45.4831	14,929.7	55.2272	14,929.7	66.5498	14,929.7	59.7014	14,929.7	63.4145	14,929.7	63.7797	14,929.7	51.2048	14,929.7	42.3906	14,929.7	56.6028	14,929.7	56.6956	14,929.7	59.8771	14,929.7	50.8609
15,454.1	94.6921	15,454.1	94.0098	15,454.1	94.0832	15,454.1	92.5496	15,454.1	92.6062	15,454.1	91.4894	15,454.1	91.1021	15,454.1	89.8104	15,454.1	90.0928	15,454.1	88.1994	15,454.1	89.0916	15,454.1	86.4878	15,454.1	87.1882	15,454.1	84.4081	15,454.1	85.0025	15,454.1	78.0233	15,454.1	82.1458	15,454.1	74.2454	15,454.1	78.4487	15,454.1	68.3335	15,454.1	69.2674	15,454.1	61.1891	15,454.1	70.2	15,454.1	56.041	15,454.1	44.1451	15,454.1	50.2924	15,454.1	63.0533	15,454.1	57.1171	15,454.1	57.6579	15,454.1	61.0297	15,454.1	45.1321	15,454.1	42.2869	15,454.1	47.987	15,454.1	57.5345	15,454.1	58.087	15,454.1	49.4848
15,999	94.1634	15,999	93.6754	15,999	93.5011	15,999	92.1978	15,999	91.7235	15,999	90.7878	15,999	89.626	15,999	88.7168	15,999	88.1202	15,999	87.1784	15,999	87.2205	15,999	85.071	15,999	85.339	15,999	82.8265	15,999	83.3518	15,999	76.8359	15,999	80.397	15,999	74.2383	15,999	76.6241	15,999	67.501	15,999	68.36	15,999	57.5335	15,999	68.3804	15,999	52.3683	15,999	48.3494	15,999	44.7249	15,999	59.6819	15,999	54.922	15,999	51.9881	15,999	58.5904	15,999	51.9053	15,999	46.0915	15,999	44.6992	15,999	55.8501	15,999	55.2595	15,999	45.4786
16,564.5	93.5367	16,564.5	93.1118	16,564.5	92.9765	16,564.5	91.5664	16,564.5	91.3432	16,564.5	90.2186	16,564.5	88.9071	16,564.5	88.5415	16,564.5	86.6575	16,564.5	86.9508	16,564.5	85.8964	16,564.5	85.4965	16,564.5	84.2509	16,564.5	82.7712	16,564.5	83.2484	16,564.5	77.5808	16,564.5	79.8157	16,564.5	74.7708	16,564.5	77.3636	16,564.5	68.8087	16,564.5	69.7562	16,564.5	56.4474	16,564.5	68.9176	16,564.5	57.8456	16,564.5	53.2809	16,564.5	45.683	16,564.5	61.0966	16,564.5	54.1341	16,564.5	50.2898	16,564.5	57.4814	16,564.5	54.1509	16,564.5	51.2203	16,564.5	46.8199	16,564.5	55.3192	16,564.5	53.313	16,564.5	42.6757
17,147.5	93.766	17,147.5	92.8757	17,147.5	93.3618	17,147.5	90.8631	17,147.5	91.6493	17,147.5	89.0221	17,147.5	88.7607	17,147.5	87.7174	17,147.5	85.4734	17,147.5	86.3199	17,147.5	84.3762	17,147.5	85.2098	17,147.5	83.5115	17,147.5	81.9291	17,147.5	83.1628	17,147.5	76.8641	17,147.5	79.8553	17,147.5	75.3723	17,147.5	77.448	17,147.5	69.2018	17,147.5	70.7834	17,147.5	54.2771	17,147.5	68.4715	17,147.5	61.7749	17,147.5	56.178	17,147.5	45.7698	17,147.5	62.1748	17,147.5	51.611	17,147.5	49.0501	17,147.5	53.164	17,147.5	53.9401	17,147.5	50.8178	17,147.5	53.814	17,147.5	50.8685	17,147.5	46.8293	17,147.5	37.9247
17,753.9	94.047	17,753.9	92.7615	17,753.9	93.872	17,753.9	89.8378	17,753.9	92.0973	17,753.9	87.0712	17,753.9	88.4369	17,753.9	85.6037	17,753.9	83.9739	17,753.9	84.6826	17,753.9	83.2207	17,753.9	83.1573	17,753.9	83.1401	17,753.9	79.5923	17,753.9	82.6567	17,753.9	75.0611	17,753.9	79.808	17,753.9	73.5929	17,753.9	77.9464	17,753.9	68.3811	17,753.9	71.1764	17,753.9	49.8025	17,753.9	68.779	17,753.9	62.8004	17,753.9	57.0879	17,753.9	46.5932	17,753.9	61.1166	17,753.9	45.2164	17,753.9	52.7771	17,753.9	38.0229	17,753.9	52.1841	17,753.9	47.858	17,753.9	57.7447	17,753.9	48.2226	17,753.9	46.0655	17,753.9	43.943
18,377.9	93.9086	18,377.9	92.1681	18,377.9	93.8704	18,377.9	88.5272	18,377.9	91.9046	18,377.9	84.888	18,377.9	87.8363	18,377.9	83.2413	18,377.9	82.4419	18,377.9	82.6904	18,377.9	82.7075	18,377.9	80.3649	18,377.9	83.5203	18,377.9	76.8062	18,377.9	82.2042	18,377.9	73.5629	18,377.9	79.88	18,377.9	71.574	18,377.9	77.1444	18,377.9	66.2767	18,377.9	71.8335	18,377.9	44.5549	18,377.9	68.6776	18,377.9	62.4188	18,377.9	58.0595	18,377.9	51.9776	18,377.9	60.4709	18,377.9	35.8669	18,377.9	53.6558	18,377.9	32.4831	18,377.9	51.3262	18,377.9	49.7318	18,377.9	59.0877	18,377.9	53.2531	18,377.9	47.6128	18,377.9	48.436
19,028.3	94.1759	19,028.3	91.8992	19,028.3	94.1263	19,028.3	87.634	19,028.3	91.6289	19,028.3	83.3848	19,028.3	86.6787	19,028.3	81.5595	19,028.3	81.8009	19,028.3	79.814	19,028.3	83.2972	19,028.3	76.9257	19,028.3	84.2522	19,028.3	72.1895	19,028.3	81.343	19,028.3	70.8861	19,028.3	80.3991	19,028.3	67.9638	19,028.3	75.7238	19,028.3	62.9366	19,028.3	71.8479	19,028.3	44.0746	19,028.3	68.1852	19,028.3	61.5914	19,028.3	59.5638	19,028.3	54.6468	19,028.3	61.2906	19,028.3	41.3175	19,028.3	55.6266	19,028.3	47.6427	19,028.3	52.6396	19,028.3	52.9165	19,028.3	58.992	19,028.3	54.2388	19,028.3	48.6085	19,028.3	51.2614
19,699.2	95.0805	19,699.2	92.3425	19,699.2	94.9404	19,699.2	87.1976	19,699.2	91.7074	19,699.2	82.814	19,699.2	84.0444	19,699.2	80.5397	19,699.2	81.9145	19,699.2	77.2364	19,699.2	85.4887	19,699.2	71.6854	19,699.2	85.9835	19,699.2	64.8345	19,699.2	82.0082	19,699.2	66.1812	19,699.2	82.8672	19,699.2	64.5389	19,699.2	75.5004	19,699.2	49.009	19,699.2	73.8379	19,699.2	48.8735	19,699.2	68.9117	19,699.2	57.9753	19,699.2	58.1333	19,699.2	54.5511	19,699.2	62.2803	19,699.2	50.3379	19,699.2	56.2147	19,699.2	55.5066	19,699.2	48.9795	19,699.2	51.6594	19,699.2	55.857	19,699.2	54.8313	19,699.2	48.7436	19,699.2	47.1598
19,998	95.1322	19,998	92.0051	19,998	95.0461	19,998	86.4357	19,998	91.6616	19,998	81.9112	19,998	82.6632	19,998	79.8673	19,998	82.0459	19,998	75.718	19,998	86.2835	19,998	66.3041	19,998	86.6166	19,998	65.8507	19,998	82.7507	19,998	64.0897	19,998	83.6131	19,998	62.5324	19,998	75.7344	19,998	46.8756	19,998	74.8258	19,998	53.727	19,998	70.0768	19,998	54.838	19,998	56.3079	19,998	50.96	19,998	61.7722	19,998	57.9928	19,998	54.1223	19,998	58.0819	19,998	45.2722	19,998	51.9762	19,998	54.7399	19,998	51.0987	19,998	46.6104	19,998	36.7922
