"SPL Horizontal"																																																																							
"On-Axis"		"10°"		"-10°"		"20°"		"-20°"		"30°"		"-30°"		"40°"		"-40°"		"50°"		"-50°"		"60°"		"-60°"		"70°"		"-70°"		"80°"		"-80°"		"90°"		"-90°"		"100°"		"-100°"		"110°"		"-110°"		"120°"		"-120°"		"130°"		"-130°"		"140°"		"-140°"		"150°"		"-150°"		"160°"		"-160°"		"170°"		"-170°"		"180°"	
"Frequency [Hz]"	"Sound Pessure Level [dB]  / [2.83V 1m] "	"Frequency [Hz]"	"Sound Pessure Level [dB]  / [2.83V 1m] "	"Frequency [Hz]"	"Sound Pessure Level [dB]  / [2.83V 1m] "	"Frequency [Hz]"	"Sound Pessure Level [dB]  / [2.83V 1m] "	"Frequency [Hz]"	"Sound Pessure Level [dB]  / [2.83V 1m] "	"Frequency [Hz]"	"Sound Pessure Level [dB]  / [2.83V 1m] "	"Frequency [Hz]"	"Sound Pessure Level [dB]  / [2.83V 1m] "	"Frequency [Hz]"	"Sound Pessure Level [dB]  / [2.83V 1m] "	"Frequency [Hz]"	"Sound Pessure Level [dB]  / [2.83V 1m] "	"Frequency [Hz]"	"Sound Pessure Level [dB]  / [2.83V 1m] "	"Frequency [Hz]"	"Sound Pessure Level [dB]  / [2.83V 1m] "	"Frequency [Hz]"	"Sound Pessure Level [dB]  / [2.83V 1m] "	"Frequency [Hz]"	"Sound Pessure Level [dB]  / [2.83V 1m] "	"Frequency [Hz]"	"Sound Pessure Level [dB]  / [2.83V 1m] "	"Frequency [Hz]"	"Sound Pessure Level [dB]  / [2.83V 1m] "	"Frequency [Hz]"	"Sound Pessure Level [dB]  / [2.83V 1m] "	"Frequency [Hz]"	"Sound Pessure Level [dB]  / [2.83V 1m] "	"Frequency [Hz]"	"Sound Pessure Level [dB]  / [2.83V 1m] "	"Frequency [Hz]"	"Sound Pessure Level [dB]  / [2.83V 1m] "	"Frequency [Hz]"	"Sound Pessure Level [dB]  / [2.83V 1m] "	"Frequency [Hz]"	"Sound Pessure Level [dB]  / [2.83V 1m] "	"Frequency [Hz]"	"Sound Pessure Level [dB]  / [2.83V 1m] "	"Frequency [Hz]"	"Sound Pessure Level [dB]  / [2.83V 1m] "	"Frequency [Hz]"	"Sound Pessure Level [dB]  / [2.83V 1m] "	"Frequency [Hz]"	"Sound Pessure Level [dB]  / [2.83V 1m] "	"Frequency [Hz]"	"Sound Pessure Level [dB]  / [2.83V 1m] "	"Frequency [Hz]"	"Sound Pessure Level [dB]  / [2.83V 1m] "	"Frequency [Hz]"	"Sound Pessure Level [dB]  / [2.83V 1m] "	"Frequency [Hz]"	"Sound Pessure Level [dB]  / [2.83V 1m] "	"Frequency [Hz]"	"Sound Pessure Level [dB]  / [2.83V 1m] "	"Frequency [Hz]"	"Sound Pessure Level [dB]  / [2.83V 1m] "	"Frequency [Hz]"	"Sound Pessure Level [dB]  / [2.83V 1m] "	"Frequency [Hz]"	"Sound Pessure Level [dB]  / [2.83V 1m] "	"Frequency [Hz]"	"Sound Pessure Level [dB]  / [2.83V 1m] "	"Frequency [Hz]"	"Sound Pessure Level [dB]  / [2.83V 1m] "	"Frequency [Hz]"	"Sound Pessure Level [dB]  / [2.83V 1m] "
20.5078	50.5048	20.5078	50.5281	20.5078	50.4499	20.5078	50.518	20.5078	50.367	20.5078	50.4748	20.5078	50.2612	20.5078	50.4002	20.5078	50.1388	20.5078	50.2982	20.5078	50.0073	20.5078	50.1741	20.5078	49.8741	20.5078	50.0347	20.5078	49.7467	20.5078	49.8881	20.5078	49.6312	20.5078	49.7428	20.5078	49.5324	20.5078	49.6074	20.5078	49.4531	20.5078	49.4894	20.5078	49.3936	20.5078	49.3942	20.5078	49.3522	20.5078	49.3247	20.5078	49.3256	20.5078	49.2804	20.5078	49.3092	20.5078	49.2582	20.5078	49.2984	20.5078	49.2528	20.5078	49.2893	20.5078	49.258	20.5078	49.2794	20.5078	49.2683
21.9727	53.962	21.9727	54.0075	21.9727	53.8901	21.9727	54.024	21.9727	53.7959	21.9727	54.0107	21.9727	53.6847	21.9727	53.9684	21.9727	53.563	21.9727	53.8996	21.9727	53.4374	21.9727	53.8083	21.9727	53.3148	21.9727	53.6999	21.9727	53.2016	21.9727	53.581	21.9727	53.1028	21.9727	53.4588	21.9727	53.022	21.9727	53.3404	21.9727	52.9609	21.9727	53.2324	21.9727	52.9192	21.9727	53.1399	21.9727	52.895	21.9727	53.0657	21.9727	52.885	21.9727	53.0103	21.9727	52.8852	21.9727	52.9719	21.9727	52.8914	21.9727	52.9468	21.9727	52.9004	21.9727	52.9308	21.9727	52.9099	21.9727	52.9195
23.4375	53.2617	23.4375	53.3223	23.4375	53.1762	23.4375	53.3548	23.4375	53.0703	23.4375	53.3577	23.4375	52.9499	23.4375	53.3311	23.4375	52.8215	23.4375	53.2769	23.4375	52.6918	23.4375	53.1988	23.4375	52.5675	23.4375	53.1018	23.4375	52.4544	23.4375	52.9921	23.4375	52.3571	23.4375	52.8766	23.4375	52.279	23.4375	52.7621	23.4375	52.2214	23.4375	52.6549	23.4375	52.184	23.4375	52.5595	23.4375	52.1651	23.4375	52.4786	23.4375	52.1616	23.4375	52.4129	23.4375	52.17	23.4375	52.3609	23.4375	52.1865	23.4375	52.3199	23.4375	52.2079	23.4375	52.2866	23.4375	52.232	23.4375	52.258
24.9023	50.7271	24.9023	50.7635	24.9023	50.661	24.9023	50.7674	24.9023	50.569	24.9023	50.7379	24.9023	50.4566	24.9023	50.6757	24.9023	50.3295	24.9023	50.5838	24.9023	50.194	24.9023	50.4668	24.9023	50.0562	24.9023	50.3312	24.9023	49.9218	24.9023	50.1845	24.9023	49.7958	24.9023	50.0349	24.9023	49.6821	24.9023	49.8903	24.9023	49.5836	24.9023	49.7573	24.9023	49.5017	24.9023	49.6411	24.9023	49.4367	24.9023	49.5442	24.9023	49.3876	24.9023	49.4674	24.9023	49.353	24.9023	49.4093	24.9023	49.3307	24.9023	49.3677	24.9023	49.3191	24.9023	49.3399	24.9023	49.3168	24.9023	49.3235
26.3672	45.9474	26.3672	45.8789	26.3672	45.9586	26.3672	45.7512	26.3672	45.9162	26.3672	45.5655	26.3672	45.8257	26.3672	45.3261	26.3672	45.6937	26.3672	45.0405	26.3672	45.5274	26.3672	44.7201	26.3672	45.3341	26.3672	44.3793	26.3672	45.1214	26.3672	44.0347	26.3672	44.8959	26.3672	43.7039	26.3672	44.6641	26.3672	43.4036	26.3672	44.4313	26.3672	43.1477	26.3672	44.2017	26.3672	42.9463	26.3672	43.9786	26.3672	42.8043	26.3672	43.7644	26.3672	42.7224	26.3672	43.5606	26.3672	42.6973	26.3672	43.3692	26.3672	42.7232	26.3672	43.1925	26.3672	42.7928	26.3672	43.0341	26.3672	42.8989
27.832	33.2013	27.832	32.4938	27.832	33.605	27.832	31.4225	27.832	33.745	27.832	29.8951	27.832	33.6478	27.832	27.7626	27.832	33.3296	27.832	24.7896	27.832	32.7974	27.832	20.8213	27.832	32.0481	27.832	18.1413	27.832	31.0668	27.832	20.7462	27.832	29.8231	27.832	23.9253	27.832	28.2639	27.832	26.0908	27.832	26.3029	27.832	27.4616	27.832	23.811	27.832	28.2652	27.832	20.6775	27.832	28.646	27.832	17.491	27.832	28.6936	27.832	17.2755	27.832	28.4601	27.832	19.994	27.832	27.966	27.832	22.6405	27.832	27.2013	27.832	24.6453	27.832	26.1223
29.2969	39.9387	29.2969	39.964	29.2969	39.96	29.2969	40.0529	29.2969	40.0094	29.2969	40.2155	29.2969	40.0708	29.2969	40.4503	29.2969	40.1327	29.2969	40.7431	29.2969	40.1882	29.2969	41.0702	29.2969	40.2351	29.2969	41.4039	29.2969	40.2748	29.2969	41.7176	29.2969	40.3123	29.2969	41.9904	29.2969	40.3548	29.2969	42.208	29.2969	40.4116	29.2969	42.3627	29.2969	40.4924	29.2969	42.4526	29.2969	40.6055	29.2969	42.4797	29.2969	40.7554	29.2969	42.4482	29.2969	40.9413	29.2969	42.3635	29.2969	41.1564	29.2969	42.2316	29.2969	41.3896	29.2969	42.0592	29.2969	41.6269	29.2969	41.8542
30.7617	45.7124	30.7617	45.6151	30.7617	45.7751	30.7617	45.4903	30.7617	45.7981	30.7617	45.3469	30.7617	45.7787	30.7617	45.1947	30.7617	45.7162	30.7617	45.0429	30.7617	45.6116	30.7617	44.8984	30.7617	45.4673	30.7617	44.7651	30.7617	45.2869	30.7617	44.6433	30.7617	45.0758	30.7617	44.5302	30.7617	44.8411	30.7617	44.4218	30.7617	44.592	30.7617	44.3134	30.7617	44.3401	30.7617	44.2018	30.7617	44.0994	30.7617	44.0852	30.7617	43.8846	30.7617	43.9644	30.7617	43.7101	30.7617	43.8429	30.7617	43.5869	30.7617	43.7267	30.7617	43.5206	30.7617	43.6248	30.7617	43.5102	30.7617	43.5485
32.2266	46.511	32.2266	46.2921	32.2266	46.6278	32.2266	45.9705	32.2266	46.6454	32.2266	45.5492	32.2266	46.5685	32.2266	45.0349	32.2266	46.4024	32.2266	44.44	32.2266	46.1532	32.2266	43.7827	32.2266	45.8269	32.2266	43.0876	32.2266	45.4298	32.2266	42.3852	32.2266	44.9682	32.2266	41.7092	32.2266	44.4494	32.2266	41.0924	32.2266	43.8818	32.2266	40.5618	32.2266	43.2767	32.2266	40.1336	32.2266	42.649	32.2266	39.813	32.2266	42.0184	32.2266	39.5965	32.2266	41.4094	32.2266	39.4777	32.2266	40.8495	32.2266	39.4529	32.2266	40.3652	32.2266	39.5239	32.2266	39.9774	32.2266	39.6968
33.6914	44.2501	33.6914	43.9811	33.6914	44.3554	33.6914	43.5492	33.6914	44.301	33.6914	42.9638	33.6914	44.0933	33.6914	42.2481	33.6914	43.7405	33.6914	41.4479	33.6914	43.2518	33.6914	40.6374	33.6914	42.6379	33.6914	39.9167	33.6914	41.9127	33.6914	39.3839	33.6914	41.0959	33.6914	39.0892	33.6914	40.2177	33.6914	39.0063	33.6914	39.3249	33.6914	39.0541	33.6914	38.4874	33.6914	39.143	33.6914	37.7953	33.6914	39.205	33.6914	37.3386	33.6914	39.1997	33.6914	37.1669	33.6914	39.1074	33.6914	37.2607	33.6914	38.9225	33.6914	37.5423	33.6914	38.6494	33.6914	37.9165	33.6914	38.3036
35.1563	47.9567	35.1563	48.1505	35.1563	47.7874	35.1563	48.3688	35.1563	47.6453	35.1563	48.6127	35.1563	47.5369	35.1563	48.8804	35.1563	47.4712	35.1563	49.1662	35.1563	47.4574	35.1563	49.4591	35.1563	47.5019	35.1563	49.7446	35.1563	47.6059	35.1563	50.0072	35.1563	47.765	35.1563	50.2333	35.1563	47.9702	35.1563	50.413	35.1563	48.2094	35.1563	50.5408	35.1563	48.4702	35.1563	50.6156	35.1563	48.7412	35.1563	50.6398	35.1563	49.0126	35.1563	50.6177	35.1563	49.2769	35.1563	50.5544	35.1563	49.5281	35.1563	50.4548	35.1563	49.7616	35.1563	50.3229	35.1563	49.9737	35.1563	50.1617
36.6211	54.7476	36.6211	54.883	36.6211	54.6391	36.6211	55.0401	36.6211	54.5611	36.6211	55.2125	36.6211	54.5156	36.6211	55.3925	36.6211	54.5028	36.6211	55.5717	36.6211	54.521	36.6211	55.7416	36.6211	54.5672	36.6211	55.894	36.6211	54.6372	36.6211	56.0221	36.6211	54.7263	36.6211	56.1207	36.6211	54.8296	36.6211	56.1873	36.6211	54.9423	36.6211	56.2217	36.6211	55.0606	36.6211	56.2259	36.6211	55.1811	36.6211	56.2038	36.6211	55.3015	36.6211	56.1599	36.6211	55.4197	36.6211	56.099	36.6211	55.5345	36.6211	56.0251	36.6211	55.6449	36.6211	55.941	36.6211	55.7499	36.6211	55.8489
38.0859	59.496	38.0859	59.6006	38.0859	59.3939	38.0859	59.7038	38.0859	59.2975	38.0859	59.8021	38.0859	59.2101	38.0859	59.8918	38.0859	59.1345	38.0859	59.9697	38.0859	59.0731	38.0859	60.0331	38.0859	59.0278	38.0859	60.0801	38.0859	58.9999	38.0859	60.1098	38.0859	58.9903	38.0859	60.1224	38.0859	58.9991	38.0859	60.1187	38.0859	59.0259	38.0859	60.1002	38.0859	59.0697	38.0859	60.0685	38.0859	59.1288	38.0859	60.0249	38.0859	59.2011	38.0859	59.9704	38.0859	59.284	38.0859	59.9057	38.0859	59.3745	38.0859	59.8315	38.0859	59.4694	38.0859	59.7489	38.0859	59.5654	38.0859	59.6595
39.5508	62.2389	39.5508	62.3042	39.5508	62.168	39.5508	62.3615	39.5508	62.094	39.5508	62.4086	39.5508	62.0192	39.5508	62.4436	39.5508	61.9461	39.5508	62.4651	39.5508	61.877	39.5508	62.4721	39.5508	61.814	39.5508	62.4647	39.5508	61.7591	39.5508	62.4434	39.5508	61.7139	39.5508	62.41	39.5508	61.6799	39.5508	62.3664	39.5508	61.6578	39.5508	62.3151	39.5508	61.6484	39.5508	62.2583	39.5508	61.6517	39.5508	62.1981	39.5508	61.6673	39.5508	62.1359	39.5508	61.6943	39.5508	62.0728	39.5508	61.7314	39.5508	62.0097	39.5508	61.7771	39.5508	61.9473	39.5508	61.8295	39.5508	61.8868
41.0156	63.8901	41.0156	63.9303	41.0156	63.8371	41.0156	63.9561	41.0156	63.7734	41.0156	63.9664	41.0156	63.7011	41.0156	63.9607	41.0156	63.6229	41.0156	63.9388	41.0156	63.5413	41.0156	63.9016	41.0156	63.4591	41.0156	63.8506	41.0156	63.379	41.0156	63.7879	41.0156	63.3035	41.0156	63.7164	41.0156	63.2348	41.0156	63.6392	41.0156	63.1751	41.0156	63.5595	41.0156	63.1259	41.0156	63.4803	41.0156	63.0884	41.0156	63.4041	41.0156	63.0632	41.0156	63.3328	41.0156	63.0507	41.0156	63.2677	41.0156	63.0506	41.0156	63.2097	41.0156	63.0623	41.0156	63.1595	41.0156	63.085	41.0156	63.1177
42.4805	64.7225	42.4805	64.7411	42.4805	64.685	42.4805	64.7398	42.4805	64.6303	42.4805	64.7183	42.4805	64.5607	42.4805	64.6772	42.4805	64.4787	42.4805	64.6176	42.4805	64.3873	42.4805	64.5418	42.4805	64.2897	42.4805	64.4527	42.4805	64.189	42.4805	64.3539	42.4805	64.0885	42.4805	64.2492	42.4805	63.9911	42.4805	64.1429	42.4805	63.8997	42.4805	64.0389	42.4805	63.8167	42.4805	63.9408	42.4805	63.7443	42.4805	63.8516	42.4805	63.6841	42.4805	63.7735	42.4805	63.6372	42.4805	63.7079	42.4805	63.6045	42.4805	63.6556	42.4805	63.5861	42.4805	63.6171	42.4805	63.5822	42.4805	63.5926
43.9453	64.946	43.9453	64.9509	43.9453	64.9167	43.9453	64.9306	43.9453	64.8647	43.9453	64.8855	43.9453	64.7922	43.9453	64.817	43.9453	64.7025	43.9453	64.7274	43.9453	64.5989	43.9453	64.6202	43.9453	64.4852	43.9453	64.4996	43.9453	64.3652	43.9453	64.3703	43.9453	64.2429	43.9453	64.2376	43.9453	64.1217	43.9453	64.1064	43.9453	64.0053	43.9453	63.9814	43.9453	63.8967	43.9453	63.8668	43.9453	63.7985	43.9453	63.7659	43.9453	63.713	43.9453	63.6809	43.9453	63.6418	43.9453	63.6134	43.9453	63.5862	43.9453	63.564	43.9453	63.547	43.9453	63.5329	43.9453	63.5248	43.9453	63.52
45.4102	64.5659	45.4102	64.5561	45.4102	64.5459	45.4102	64.5161	45.4102	64.4978	45.4102	64.4469	45.4102	64.4241	45.4102	64.3507	45.4102	64.3281	45.4102	64.2309	45.4102	64.2138	45.4102	64.0921	45.4102	64.0854	45.4102	63.9397	45.4102	63.9473	45.4102	63.7799	45.4102	63.8039	45.4102	63.6187	45.4102	63.6595	45.4102	63.4622	45.4102	63.5182	45.4102	63.316	45.4102	63.3834	45.4102	63.1846	45.4102	63.2586	45.4102	63.0718	45.4102	63.1465	45.4102	62.9801	45.4102	63.0494	45.4102	62.9111	45.4102	62.9691	45.4102	62.8654	45.4102	62.9071	45.4102	62.8429	45.4102	62.8647	45.4102	62.843
46.875	63.9084	46.875	63.885	46.875	63.8999	46.875	63.8296	46.875	63.8607	46.875	63.7437	46.875	63.7936	46.875	63.6302	46.875	63.702	46.875	63.4935	46.875	63.5899	46.875	63.339	46.875	63.4619	46.875	63.1731	46.875	63.3226	46.875	63.0025	46.875	63.1766	46.875	62.8338	46.875	63.0284	46.875	62.6732	46.875	62.8819	46.875	62.5263	46.875	62.7409	46.875	62.3975	46.875	62.6085	46.875	62.2903	46.875	62.4874	46.875	62.2069	46.875	62.3799	46.875	62.1484	46.875	62.2879	46.875	62.1151	46.875	62.2129	46.875	62.1062	46.875	62.1566	46.875	62.1205
48.3398	63.3032	48.3398	63.2792	48.3398	63.2981	48.3398	63.2265	48.3398	63.2651	48.3398	63.1471	48.3398	63.2066	48.3398	63.0441	48.3398	63.1258	48.3398	62.9222	48.3398	63.0268	48.3398	62.7867	48.3398	62.914	48.3398	62.6435	48.3398	62.7919	48.3398	62.4983	48.3398	62.6647	48.3398	62.3565	48.3398	62.5366	48.3398	62.2229	48.3398	62.411	48.3398	62.1015	48.3398	62.2911	48.3398	61.9954	48.3398	62.1793	48.3398	61.9072	48.3398	62.0776	48.3398	61.8387	48.3398	61.9876	48.3398	61.7907	48.3398	61.9106	48.3398	61.7636	48.3398	61.8477	48.3398	61.7569	48.3398	61.8003	48.3398	61.7695
51.2695	63.7698	51.2695	63.7676	51.2695	63.7597	51.2695	63.7538	51.2695	63.7379	51.2695	63.7295	51.2695	63.7056	51.2695	63.6965	51.2695	63.6644	51.2695	63.6569	51.2695	63.6167	51.2695	63.6126	51.2695	63.5646	51.2695	63.5655	51.2695	63.5104	51.2695	63.5167	51.2695	63.4561	51.2695	63.4671	51.2695	63.4034	51.2695	63.4175	51.2695	63.3536	51.2695	63.3685	51.2695	63.3078	51.2695	63.3212	51.2695	63.2666	51.2695	63.2768	51.2695	63.2308	51.2695	63.2369	51.2695	63.2008	51.2695	63.2033	51.2695	63.1772	51.2695	63.1773	51.2695	63.1607	51.2695	63.1598	51.2695	63.1518	51.2695	63.1514
52.7344	64.8375	52.7344	64.8485	52.7344	64.8213	52.7344	64.8544	52.7344	64.8006	52.7344	64.8553	52.7344	64.7763	52.7344	64.8514	52.7344	64.7495	52.7344	64.8433	52.7344	64.7213	52.7344	64.8313	52.7344	64.693	52.7344	64.8156	52.7344	64.6655	52.7344	64.7962	52.7344	64.6396	52.7344	64.773	52.7344	64.6159	52.7344	64.7464	52.7344	64.5946	52.7344	64.7167	52.7344	64.576	52.7344	64.685	52.7344	64.5602	52.7344	64.6527	52.7344	64.5472	52.7344	64.6214	52.7344	64.5372	52.7344	64.593	52.7344	64.5306	52.7344	64.5689	52.7344	64.528	52.7344	64.5501	52.7344	64.53	52.7344	64.5372
54.1992	66.0846	54.1992	66.1022	54.1992	66.0636	54.1992	66.1159	54.1992	66.0398	54.1992	66.1251	54.1992	66.014	54.1992	66.1295	54.1992	65.9869	54.1992	66.1289	54.1992	65.9593	54.1992	66.1228	54.1992	65.9318	54.1992	66.1108	54.1992	65.905	54.1992	66.0927	54.1992	65.8792	54.1992	66.0686	54.1992	65.8549	54.1992	66.0385	54.1992	65.8322	54.1992	66.0035	54.1992	65.8115	54.1992	65.965	54.1992	65.7932	54.1992	65.9246	54.1992	65.7778	54.1992	65.8848	54.1992	65.7659	54.1992	65.8478	54.1992	65.7584	54.1992	65.8157	54.1992	65.7562	54.1992	65.7899	54.1992	65.7603	54.1992	65.7714
55.6641	67.1602	55.6641	67.1818	55.6641	67.136	55.6641	67.1998	55.6641	67.1097	55.6641	67.2135	55.6641	67.0822	55.6641	67.2224	55.6641	67.0542	55.6641	67.2259	55.6641	67.0264	55.6641	67.2233	55.6641	66.9994	55.6641	67.2144	55.6641	66.9735	55.6641	67.1988	55.6641	66.9492	55.6641	67.1766	55.6641	66.9267	55.6641	67.1482	55.6641	66.9063	55.6641	67.1144	55.6641	66.8883	55.6641	67.0766	55.6641	66.873	55.6641	67.0367	55.6641	66.861	55.6641	66.9966	55.6641	66.8529	55.6641	66.9586	55.6641	66.8494	55.6641	66.9247	55.6641	66.8514	55.6641	66.8963	55.6641	66.8596	55.6641	66.8745
58.5938	68.817	58.5938	68.8392	58.5938	68.7909	58.5938	68.8567	58.5938	68.7619	58.5938	68.8688	58.5938	68.7309	58.5938	68.8748	58.5938	68.6989	58.5938	68.8745	58.5938	68.6667	58.5938	68.8674	58.5938	68.6352	58.5938	68.8537	58.5938	68.6049	58.5938	68.8334	58.5938	68.5765	58.5938	68.8069	58.5938	68.5504	58.5938	68.775	58.5938	68.527	58.5938	68.7387	58.5938	68.5067	58.5938	68.6993	58.5938	68.49	58.5938	68.6586	58.5938	68.4774	58.5938	68.6182	58.5938	68.4693	58.5938	68.5802	58.5938	68.4665	58.5938	68.5461	58.5938	68.4695	58.5938	68.5173	58.5938	68.4787	58.5938	68.4947
60.0586	69.4572	60.0586	69.4783	60.0586	69.4314	60.0586	69.4939	60.0586	69.4019	60.0586	69.5032	60.0586	69.3697	60.0586	69.5059	60.0586	69.336	60.0586	69.5017	60.0586	69.3017	60.0586	69.4907	60.0586	69.2678	60.0586	69.4729	60.0586	69.2351	60.0586	69.4489	60.0586	69.2043	60.0586	69.4192	60.0586	69.1759	60.0586	69.3847	60.0586	69.1505	60.0586	69.3465	60.0586	69.1283	60.0586	69.306	60.0586	69.1098	60.0586	69.2649	60.0586	69.0956	60.0586	69.2247	60.0586	69.086	60.0586	69.1874	60.0586	69.0817	60.0586	69.1543	60.0586	69.0832	60.0586	69.1268	60.0586	69.0911	60.0586	69.1056
62.9883	70.7995	62.9883	70.8218	62.9883	70.7717	62.9883	70.8378	62.9883	70.7396	62.9883	70.8467	62.9883	70.7043	62.9883	70.8483	62.9883	70.6672	62.9883	70.8423	62.9883	70.6295	62.9883	70.8289	62.9883	70.5922	62.9883	70.8085	62.9883	70.5563	62.9883	70.7816	62.9883	70.5226	62.9883	70.749	62.9883	70.4917	62.9883	70.7118	62.9883	70.4642	62.9883	70.6711	62.9883	70.4405	62.9883	70.6283	62.9883	70.421	62.9883	70.5852	62.9883	70.4061	62.9883	70.5433	62.9883	70.3964	62.9883	70.5043	62.9883	70.3924	62.9883	70.4699	62.9883	70.3945	62.9883	70.4411	62.9883	70.4032	62.9883	70.4187
64.4531	71.3367	64.4531	71.3602	64.4531	71.308	64.4531	71.3775	64.4531	71.2754	64.4531	71.3879	64.4531	71.2398	64.4531	71.391	64.4531	71.2028	64.4531	71.3865	64.4531	71.1653	64.4531	71.3745	64.4531	71.1286	64.4531	71.3552	64.4531	71.0934	64.4531	71.3293	64.4531	71.0606	64.4531	71.2974	64.4531	71.0306	64.4531	71.2606	64.4531	71.0041	64.4531	71.2201	64.4531	70.9814	64.4531	71.1774	64.4531	70.963	64.4531	71.1341	64.4531	70.9491	64.4531	71.092	64.4531	70.9403	64.4531	71.0527	64.4531	70.9371	64.4531	71.0178	64.4531	70.94	64.4531	70.9885	64.4531	70.9494	64.4531	70.9656
67.3828	72.8518	67.3828	72.8764	67.3828	72.8221	67.3828	72.8952	67.3828	72.7883	67.3828	72.9073	67.3828	72.7515	67.3828	72.9124	67.3828	72.7129	67.3828	72.91	67.3828	72.6737	67.3828	72.9002	67.3828	72.6352	67.3828	72.8832	67.3828	72.5988	67.3828	72.8596	67.3828	72.5655	67.3828	72.8303	67.3828	72.5367	67.3828	72.7966	67.3828	72.5132	67.3828	72.76	67.3828	72.4955	67.3828	72.7219	67.3828	72.4841	67.3828	72.6839	67.3828	72.4789	67.3828	72.6473	67.3828	72.4795	67.3828	72.6132	67.3828	72.4855	67.3828	72.5822	67.3828	72.4964	67.3828	72.5548	67.3828	72.5117	67.3828	72.5313
68.8477	73.2485	68.8477	73.2722	68.8477	73.2196	68.8477	73.2897	68.8477	73.1863	68.8477	73.3005	68.8477	73.1499	68.8477	73.3041	68.8477	73.1114	68.8477	73.3001	68.8477	73.072	68.8477	73.2887	68.8477	73.0332	68.8477	73.27	68.8477	72.9961	68.8477	73.2449	68.8477	72.9621	68.8477	73.2143	68.8477	72.9323	68.8477	73.1796	68.8477	72.9077	68.8477	73.1422	68.8477	72.8888	68.8477	73.1036	68.8477	72.8761	68.8477	73.0655	68.8477	72.8696	68.8477	73.0291	68.8477	72.8689	68.8477	72.9954	68.8477	72.8737	68.8477	72.9651	68.8477	72.8833	68.8477	72.9386	68.8477	72.8975	68.8477	72.916
71.7773	74.2455	71.7773	74.2677	71.7773	74.2176	71.7773	74.2834	71.7773	74.1849	71.7773	74.2918	71.7773	74.1486	71.7773	74.2927	71.7773	74.1099	71.7773	74.2859	71.7773	74.07	71.7773	74.2715	71.7773	74.0302	71.7773	74.25	71.7773	73.9919	71.7773	74.2223	71.7773	73.9563	71.7773	74.1894	71.7773	73.9247	71.7773	74.153	71.7773	73.8979	71.7773	74.1144	71.7773	73.8769	71.7773	74.0752	71.7773	73.862	71.7773	74.037	71.7773	73.8532	71.7773	74.0009	71.7773	73.8504	71.7773	73.9678	71.7773	73.8532	71.7773	73.9383	71.7773	73.8612	71.7773	73.9127	71.7773	73.874	71.7773	73.8912
74.707	74.9262	74.707	74.9461	74.707	74.9004	74.707	74.9593	74.707	74.8696	74.707	74.9651	74.707	74.835	74.707	74.9632	74.707	74.7978	74.707	74.9537	74.707	74.7593	74.707	74.9368	74.707	74.7208	74.707	74.9133	74.707	74.6836	74.707	74.8843	74.707	74.649	74.707	74.851	74.707	74.6182	74.707	74.8149	74.707	74.592	74.707	74.7777	74.707	74.5712	74.707	74.7408	74.707	74.5562	74.707	74.7056	74.707	74.547	74.707	74.6729	74.707	74.5434	74.707	74.6434	74.707	74.545	74.707	74.6174	74.707	74.5514	74.707	74.5952	74.707	74.562	74.707	74.5767
77.6367	75.2487	77.6367	75.2685	77.6367	75.2216	77.6367	75.2802	77.6367	75.1883	77.6367	75.2831	77.6367	75.1502	77.6367	75.2771	77.6367	75.1085	77.6367	75.2622	77.6367	75.0648	77.6367	75.239	77.6367	75.0205	77.6367	75.2084	77.6367	74.9772	77.6367	75.1719	77.6367	74.9363	77.6367	75.131	77.6367	74.8992	77.6367	75.0877	77.6367	74.8668	77.6367	75.0436	77.6367	74.84	77.6367	75.0006	77.6367	74.8193	77.6367	74.9602	77.6367	74.805	77.6367	74.9232	77.6367	74.797	77.6367	74.8906	77.6367	74.7949	77.6367	74.8626	77.6367	74.7984	77.6367	74.8393	77.6367	74.8071	77.6367	74.8208
79.1016	75.5136	79.1016	75.534	79.1016	75.4855	79.1016	75.5456	79.1016	75.4507	79.1016	75.5479	79.1016	75.4106	79.1016	75.5407	79.1016	75.3666	79.1016	75.5242	79.1016	75.3204	79.1016	75.499	79.1016	75.2734	79.1016	75.4661	79.1016	75.2274	79.1016	75.4271	79.1016	75.1839	79.1016	75.3837	79.1016	75.1441	79.1016	75.3378	79.1016	75.1094	79.1016	75.2912	79.1016	75.0805	79.1016	75.2459	79.1016	75.0581	79.1016	75.2033	79.1016	75.0424	79.1016	75.1644	79.1016	75.0333	79.1016	75.1301	79.1016	75.0305	79.1016	75.1006	79.1016	75.0338	79.1016	75.0762	79.1016	75.0426	79.1016	75.0568
82.0313	76.2038	82.0313	76.224	82.0313	76.1748	82.0313	76.2346	82.0313	76.1384	82.0313	76.235	82.0313	76.0959	82.0313	76.225	82.0313	76.0491	82.0313	76.2051	82.0313	75.9997	82.0313	76.176	82.0313	75.9495	82.0313	76.139	82.0313	75.9001	82.0313	76.0958	82.0313	75.8534	82.0313	76.0483	82.0313	75.8106	82.0313	75.9986	82.0313	75.773	82.0313	75.9489	82.0313	75.7416	82.0313	75.9008	82.0313	75.7168	82.0313	75.8561	82.0313	75.699	82.0313	75.8158	82.0313	75.6881	82.0313	75.7805	82.0313	75.6838	82.0313	75.7505	82.0313	75.6857	82.0313	75.7261	82.0313	75.6936	82.0313	75.7071
84.9609	76.6013	84.9609	76.6219	84.9609	76.5716	84.9609	76.6325	84.9609	76.5341	84.9609	76.6327	84.9609	76.4905	84.9609	76.6222	84.9609	76.4424	84.9609	76.6015	84.9609	76.3918	84.9609	76.5715	84.9609	76.3404	84.9609	76.5337	84.9609	76.2903	84.9609	76.4898	84.9609	76.243	84.9609	76.4418	84.9609	76.2	84.9609	76.3918	84.9609	76.1627	84.9609	76.342	84.9609	76.1317	84.9609	76.2942	84.9609	76.1078	84.9609	76.2498	84.9609	76.0909	84.9609	76.2099	84.9609	76.0809	84.9609	76.1751	84.9609	76.0774	84.9609	76.1455	84.9609	76.0801	84.9609	76.1213	84.9609	76.0885	84.9609	76.1023
87.8906	76.8402	87.8906	76.8619	87.8906	76.8092	87.8906	76.8731	87.8906	76.7702	87.8906	76.8736	87.8906	76.7249	87.8906	76.8632	87.8906	76.6751	87.8906	76.8425	87.8906	76.623	87.8906	76.8127	87.8906	76.5706	87.8906	76.7752	87.8906	76.52	87.8906	76.7318	87.8906	76.473	87.8906	76.6848	87.8906	76.4312	87.8906	76.6363	87.8906	76.3957	87.8906	76.5883	87.8906	76.3673	87.8906	76.5425	87.8906	76.3464	87.8906	76.5002	87.8906	76.3328	87.8906	76.4622	87.8906	76.3262	87.8906	76.4289	87.8906	76.3259	87.8906	76.4003	87.8906	76.3313	87.8906	76.3764	87.8906	76.3418	87.8906	76.3569
90.8203	77.3523	90.8203	77.3733	90.8203	77.3212	90.8203	77.3833	90.8203	77.2815	90.8203	77.382	90.8203	77.2349	90.8203	77.3695	90.8203	77.1833	90.8203	77.3465	90.8203	77.1289	90.8203	77.3142	90.8203	77.074	90.8203	77.2743	90.8203	77.0207	90.8203	77.2287	90.8203	76.971	90.8203	77.1797	90.8203	76.9267	90.8203	77.1296	90.8203	76.8889	90.8203	77.0802	90.8203	76.8586	90.8203	77.0334	90.8203	76.8361	90.8203	76.9903	90.8203	76.8214	90.8203	76.9517	90.8203	76.8141	90.8203	76.9179	90.8203	76.8135	90.8203	76.8889	90.8203	76.8188	90.8203	76.8645	90.8203	76.8293	90.8203	76.8447
95.2148	77.8542	95.2148	77.8719	95.2148	77.8253	95.2148	77.8776	95.2148	77.7864	95.2148	77.8711	95.2148	77.7392	95.2148	77.8528	95.2148	77.6857	95.2148	77.8236	95.2148	77.6283	95.2148	77.785	95.2148	77.5693	95.2148	77.7391	95.2148	77.511	95.2148	77.6881	95.2148	77.4559	95.2148	77.6345	95.2148	77.4058	95.2148	77.5807	95.2148	77.3623	95.2148	77.5287	95.2148	77.3267	95.2148	77.4801	95.2148	77.2994	95.2148	77.4362	95.2148	77.2806	95.2148	77.3975	95.2148	77.2699	95.2148	77.3641	95.2148	77.2667	95.2148	77.3357	95.2148	77.27	95.2148	77.3121	95.2148	77.2791	95.2148	77.2933
98.1445	78.0761	98.1445	78.0941	98.1445	78.0465	98.1445	78.1	98.1445	78.0068	98.1445	78.0932	98.1445	77.9587	98.1445	78.0743	98.1445	77.9043	98.1445	78.0442	98.1445	77.8457	98.1445	78.0042	98.1445	77.7855	98.1445	77.9565	98.1445	77.7259	98.1445	77.9033	98.1445	77.6692	98.1445	77.8473	98.1445	77.6173	98.1445	77.7907	98.1445	77.5718	98.1445	77.7359	98.1445	77.5339	98.1445	77.6847	98.1445	77.5043	98.1445	77.6382	98.1445	77.483	98.1445	77.5971	98.1445	77.47	98.1445	77.5617	98.1445	77.4648	98.1445	77.5319	98.1445	77.4665	98.1445	77.5075	98.1445	77.4745	98.1445	77.4883
101.074	78.409	101.074	78.4279	101.074	78.3793	101.074	78.4352	101.074	78.3403	101.074	78.4306	101.074	78.2937	101.074	78.4142	101.074	78.2418	101.074	78.3871	101.074	78.1866	101.074	78.3506	101.074	78.1307	101.074	78.3068	101.074	78.0763	101.074	78.2578	101.074	78.0255	101.074	78.2063	101.074	77.9799	101.074	78.1545	101.074	77.941	101.074	78.1047	101.074	77.9095	101.074	78.0585	101.074	77.8858	101.074	78.017	101.074	77.8699	101.074	77.9806	101.074	77.8611	101.074	77.9495	101.074	77.859	101.074	77.9233	101.074	77.8626	101.074	77.9017	101.074	77.8712	101.074	77.8843
105.469	78.8741	105.469	78.8934	105.469	78.8435	105.469	78.9007	105.469	78.8033	105.469	78.8956	105.469	78.7552	105.469	78.8784	105.469	78.7015	105.469	78.8502	105.469	78.6447	105.469	78.8125	105.469	78.5873	105.469	78.7675	105.469	78.5319	105.469	78.7175	105.469	78.4806	105.469	78.6652	105.469	78.4353	105.469	78.6132	105.469	78.3973	105.469	78.5635	105.469	78.3674	105.469	78.5181	105.469	78.3458	105.469	78.4777	105.469	78.3322	105.469	78.443	105.469	78.3257	105.469	78.4136	105.469	78.3254	105.469	78.3891	105.469	78.3303	105.469	78.3689	105.469	78.3395	105.469	78.3524
108.398	79.0564	108.398	79.074	108.398	79.0274	108.398	79.0795	108.398	78.9885	108.398	79.0725	108.398	78.9416	108.398	79.0535	108.398	78.889	108.398	79.0235	108.398	78.8331	108.398	78.9841	108.398	78.7766	108.398	78.9376	108.398	78.7221	108.398	78.8864	108.398	78.6717	108.398	78.8333	108.398	78.6273	108.398	78.7807	108.398	78.5901	108.398	78.731	108.398	78.5609	108.398	78.686	108.398	78.5397	108.398	78.6468	108.398	78.5259	108.398	78.6138	108.398	78.5186	108.398	78.5868	108.398	78.5168	108.398	78.5653	108.398	78.5194	108.398	78.5484	108.398	78.5258	108.398	78.5354
112.793	79.5585	112.793	79.5777	112.793	79.5273	112.793	79.5842	112.793	79.4856	112.793	79.5776	112.793	79.4355	112.793	79.5586	112.793	79.3791	112.793	79.5283	112.793	79.3193	112.793	79.4883	112.793	79.2587	112.793	79.4408	112.793	79.2001	112.793	79.3885	112.793	79.1458	112.793	79.334	112.793	79.098	112.793	79.2798	112.793	79.0579	112.793	79.228	112.793	79.0264	112.793	79.1805	112.793	79.0035	112.793	79.1383	112.793	78.989	112.793	79.1018	112.793	78.9818	112.793	79.071	112.793	78.981	112.793	79.0453	112.793	78.9855	112.793	79.0243	112.793	78.9945	112.793	79.0075
117.188	79.7549	117.188	79.773	117.188	79.7247	117.188	79.7782	117.188	79.6838	117.188	79.7704	117.188	79.6342	117.188	79.7504	117.188	79.5783	117.188	79.7196	117.188	79.5191	117.188	79.6799	117.188	79.4595	117.188	79.6338	117.188	79.4024	117.188	79.5842	117.188	79.3504	117.188	79.5336	117.188	79.3057	117.188	79.4847	117.188	79.2697	117.188	79.4394	117.188	79.2431	117.188	79.3991	117.188	79.2258	117.188	79.3643	117.188	79.2172	117.188	79.3348	117.188	79.2159	117.188	79.3101	117.188	79.2204	117.188	79.2892	117.188	79.2292	117.188	79.2711	117.188	79.241	117.188	79.2551
120.117	79.9595	120.117	79.9753	120.117	79.931	120.117	79.9775	120.117	79.891	120.117	79.9662	120.117	79.8419	120.117	79.9421	120.117	79.7861	120.117	79.907	120.117	79.7267	120.117	79.8629	120.117	79.6666	120.117	79.8127	120.117	79.6091	120.117	79.7596	120.117	79.5567	120.117	79.7064	120.117	79.5116	120.117	79.656	120.117	79.4754	120.117	79.6106	120.117	79.4486	120.117	79.5715	120.117	79.4311	120.117	79.5392	120.117	79.422	120.117	79.5132	120.117	79.4199	120.117	79.4926	120.117	79.4231	120.117	79.476	120.117	79.43	120.117	79.4622	120.117	79.4393	120.117	79.4501
124.512	80.2724	124.512	80.2871	124.512	80.2443	124.512	80.2875	124.512	80.2041	124.512	80.2737	124.512	80.1542	124.512	80.2466	124.512	80.0973	124.512	80.2077	124.512	80.0363	124.512	80.1596	124.512	79.9745	124.512	80.1053	124.512	79.9152	124.512	80.0479	124.512	79.8612	124.512	79.991	124.512	79.8147	124.512	79.9375	124.512	79.7772	124.512	79.8898	124.512	79.7494	124.512	79.8496	124.512	79.731	124.512	79.8172	124.512	79.721	124.512	79.7923	124.512	79.7178	124.512	79.7737	124.512	79.7196	124.512	79.7598	124.512	79.7247	124.512	79.7489	124.512	79.7317	124.512	79.7397
128.906	80.4604	128.906	80.4767	128.906	80.4301	128.906	80.4781	128.906	80.3873	128.906	80.4645	128.906	80.3343	128.906	80.4367	128.906	80.2742	128.906	80.3964	128.906	80.2101	128.906	80.3462	128.906	80.1454	128.906	80.289	128.906	80.0836	128.906	80.2284	128.906	80.0277	128.906	80.1679	128.906	79.9799	128.906	80.111	128.906	79.942	128.906	80.0603	128.906	79.9144	128.906	80.0177	128.906	79.8967	128.906	79.9838	128.906	79.8878	128.906	79.9582	128.906	79.8857	128.906	79.9397	128.906	79.8884	128.906	79.9264	128.906	79.8939	128.906	79.9164	128.906	79.9007	128.906	79.9082
133.301	80.6374	133.301	80.657	133.301	80.6034	133.301	80.6611	133.301	80.5566	133.301	80.6499	133.301	80.4994	133.301	80.624	133.301	80.435	133.301	80.5853	133.301	80.3665	133.301	80.536	133.301	80.2978	133.301	80.4794	133.301	80.2322	133.301	80.4188	133.301	80.1729	133.301	80.3578	133.301	80.1225	133.301	80.2997	133.301	80.0826	133.301	80.247	133.301	80.0539	133.301	80.2017	133.301	80.0361	133.301	80.1643	133.301	80.0279	133.301	80.1345	133.301	80.0275	133.301	80.1114	133.301	80.0328	133.301	80.0931	133.301	80.0417	133.301	80.078	133.301	80.0527	133.301	80.0648
139.16	80.7751	139.16	80.7955	139.16	80.7393	139.16	80.7997	139.16	80.6898	139.16	80.7877	139.16	80.6293	139.16	80.7607	139.16	80.5607	139.16	80.7204	139.16	80.4879	139.16	80.6695	139.16	80.4147	139.16	80.6114	139.16	80.3449	139.16	80.5495	139.16	80.282	139.16	80.4875	139.16	80.2288	139.16	80.4285	139.16	80.1871	139.16	80.3752	139.16	80.1577	139.16	80.3292	139.16	80.1402	139.16	80.291	139.16	80.1333	139.16	80.2603	139.16	80.1348	139.16	80.2357	139.16	80.1426	139.16	80.2157	139.16	80.1543	139.16	80.1986	139.16	80.168	139.16	80.1829
143.555	80.9033	143.555	80.922	143.555	80.8685	143.555	80.924	143.555	80.8193	143.555	80.9094	143.555	80.7583	143.555	80.8794	143.555	80.6889	143.555	80.8362	143.555	80.6148	143.555	80.7828	143.555	80.5401	143.555	80.7228	143.555	80.469	143.555	80.66	143.555	80.4051	143.555	80.5982	143.555	80.3515	143.555	80.5407	143.555	80.31	143.555	80.49	143.555	80.2814	143.555	80.4475	143.555	80.2654	143.555	80.4134	143.555	80.2605	143.555	80.3867	143.555	80.2643	143.555	80.3658	143.555	80.2742	143.555	80.3485	143.555	80.2878	143.555	80.3331	143.555	80.3028	143.555	80.3181
147.949	80.9877	147.949	81.0047	147.949	80.9536	147.949	81.0039	147.949	80.9043	147.949	80.9856	147.949	80.8424	147.949	80.9511	147.949	80.7713	147.949	80.9028	147.949	80.6951	147.949	80.8439	147.949	80.618	147.949	80.7782	147.949	80.5443	147.949	80.71	147.949	80.4779	147.949	80.6436	147.949	80.4219	147.949	80.5826	147.949	80.3784	147.949	80.5297	147.949	80.3481	147.949	80.4865	147.949	80.3306	147.949	80.4531	147.949	80.3243	147.949	80.4283	147.949	80.3267	147.949	80.4101	147.949	80.3352	147.949	80.3961	147.949	80.3469	147.949	80.384	147.949	80.3596	147.949	80.3721
153.809	81.0666	153.809	81.0858	153.809	81.0298	153.809	81.0867	153.809	80.9769	153.809	81.0696	153.809	80.9106	153.809	81.036	153.809	80.8343	153.809	80.9882	153.809	80.7524	153.809	80.9295	153.809	80.6693	153.809	80.8636	153.809	80.5897	153.809	80.7947	153.809	80.5179	153.809	80.7269	153.809	80.4576	153.809	80.6641	153.809	80.4111	153.809	80.609	153.809	80.3795	153.809	80.5633	153.809	80.3624	153.809	80.5271	153.809	80.358	153.809	80.4995	153.809	80.3638	153.809	80.4782	153.809	80.3766	153.809	80.4607	153.809	80.3932	153.809	80.4447	153.809	80.411	153.809	80.4283
159.668	81.148	159.668	81.1657	159.668	81.1121	159.668	81.1645	159.668	81.0595	159.668	81.1449	159.668	80.993	159.668	81.1086	159.668	80.9162	159.668	81.0581	159.668	80.8332	159.668	80.997	159.668	80.7488	159.668	80.9293	159.668	80.6677	159.668	80.8594	159.668	80.5944	159.668	80.7913	159.668	80.5325	159.668	80.7286	159.668	80.4846	159.668	80.674	159.668	80.4516	159.668	80.6289	159.668	80.4334	159.668	80.5931	159.668	80.4281	159.668	80.5657	159.668	80.433	159.668	80.5444	159.668	80.445	159.668	80.527	159.668	80.4609	159.668	80.5111	159.668	80.4781	159.668	80.495
165.527	81.2472	165.527	81.2623	165.527	81.2123	165.527	81.257	165.527	81.1594	165.527	81.2317	165.527	81.0915	165.527	81.1884	165.527	81.0124	165.527	81.1301	165.527	80.9268	165.527	81.0609	165.527	80.8395	165.527	80.9857	165.527	80.7557	165.527	80.9096	165.527	80.6801	165.527	80.8377	165.527	80.6165	165.527	80.774	165.527	80.5677	165.527	80.7215	165.527	80.5347	165.527	80.6811	165.527	80.5172	165.527	80.6522	165.527	80.5133	165.527	80.6324	165.527	80.52	165.527	80.6188	165.527	80.5337	165.527	80.6079	165.527	80.5508	165.527	80.5969	165.527	80.5683	165.527	80.5839
171.387	81.2553	171.387	81.2724	171.387	81.2178	171.387	81.2684	171.387	81.1617	171.387	81.2436	171.387	81.0903	171.387	81.1997	171.387	81.0075	171.387	81.1395	171.387	80.9181	171.387	81.067	171.387	80.8274	171.387	80.9869	171.387	80.7405	171.387	80.9045	171.387	80.6625	171.387	80.825	171.387	80.5973	171.387	80.7533	171.387	80.5475	171.387	80.6929	171.387	80.5142	171.387	80.6458	171.387	80.4965	171.387	80.612	171.387	80.4922	171.387	80.5898	171.387	80.4981	171.387	80.5761	171.387	80.5102	171.387	80.5673	171.387	80.5248	171.387	80.5596	171.387	80.5388	171.387	80.5506
177.246	81.2056	177.246	81.2234	177.246	81.1666	177.246	81.2195	177.246	81.1084	177.246	81.1943	177.246	81.0341	177.246	81.1496	177.246	80.948	177.246	81.0886	177.246	80.855	177.246	81.0154	177.246	80.7607	177.246	80.9346	177.246	80.6706	177.246	80.8517	177.246	80.59	177.246	80.7718	177.246	80.5229	177.246	80.6995	177.246	80.4722	177.246	80.6381	177.246	80.4386	177.246	80.5896	177.246	80.4214	177.246	80.5539	177.246	80.4179	177.246	80.5294	177.246	80.4247	177.246	80.5132	177.246	80.4377	177.246	80.5018	177.246	80.4532	177.246	80.4921	177.246	80.4683	177.246	80.4814
183.105	81.1356	183.105	81.158	183.105	81.0909	183.105	81.1574	183.105	81.0259	183.105	81.1344	183.105	80.9439	183.105	81.0911	183.105	80.8494	183.105	81.0308	183.105	80.7479	183.105	80.9578	183.105	80.6452	183.105	80.8773	183.105	80.5476	183.105	80.7946	183.105	80.4606	183.105	80.7151	183.105	80.389	183.105	80.6431	183.105	80.3359	183.105	80.582	183.105	80.3023	183.105	80.533	183.105	80.2873	183.105	80.4958	183.105	80.2884	183.105	80.4684	183.105	80.3016	183.105	80.4477	183.105	80.3226	183.105	80.4302	183.105	80.3469	183.105	80.4129	183.105	80.3713	183.105	80.3936
188.965	81.102	188.965	81.1198	188.965	81.0601	188.965	81.1131	188.965	80.996	188.965	81.083	188.965	80.913	188.965	81.032	188.965	80.8158	188.965	80.9638	188.965	80.7098	188.965	80.8836	188.965	80.6015	188.965	80.797	188.965	80.4977	188.965	80.7104	188.965	80.4047	188.965	80.6293	188.965	80.3278	188.965	80.5587	188.965	80.2708	188.965	80.5015	188.965	80.2353	188.965	80.4587	188.965	80.2205	188.965	80.4289	188.965	80.2237	188.965	80.409	188.965	80.2406	188.965	80.3949	188.965	80.2662	188.965	80.3822	188.965	80.2953	188.965	80.3674	188.965	80.3235	188.965	80.348
196.289	81.066	196.289	81.0812	196.289	81.0257	196.289	81.0709	196.289	80.9624	196.289	81.0358	196.289	80.8796	196.289	80.9784	196.289	80.7822	196.289	80.9024	196.289	80.6759	196.289	80.813	196.289	80.5674	196.289	80.7162	196.289	80.4634	196.289	80.6187	196.289	80.3703	196.289	80.5271	196.289	80.2935	196.289	80.447	196.289	80.2364	196.289	80.3825	196.289	80.2002	196.289	80.3355	196.289	80.1839	196.289	80.3052	196.289	80.1842	196.289	80.2888	196.289	80.1964	196.289	80.2815	196.289	80.2154	196.289	80.2785	196.289	80.2359	196.289	80.2748	196.289	80.254	196.289	80.2671
203.613	80.9772	203.613	80.9906	203.613	80.9373	203.613	80.9769	203.613	80.8729	203.613	80.9372	203.613	80.7877	203.613	80.8746	203.613	80.6866	203.613	80.7933	203.613	80.576	203.613	80.6992	203.613	80.4629	203.613	80.5989	203.613	80.3548	203.613	80.4998	203.613	80.2585	203.613	80.4088	203.613	80.1799	203.613	80.3315	203.613	80.1227	203.613	80.2717	203.613	80.0883	203.613	80.2304	203.613	80.0752	203.613	80.2062	203.613	80.0798	203.613	80.1953	203.613	80.0969	203.613	80.1925	203.613	80.1207	203.613	80.1923	203.613	80.1454	203.613	80.1898	203.613	80.1667	203.613	80.1818
210.938	80.8493	210.938	80.8657	210.938	80.8045	210.938	80.853	210.938	80.7337	210.938	80.8123	210.938	80.6407	210.938	80.7463	210.938	80.5309	210.938	80.6591	210.938	80.411	210.938	80.5565	210.938	80.2886	210.938	80.4454	210.938	80.1718	210.938	80.3336	210.938	80.0681	210.938	80.2288	210.938	79.9839	210.938	80.138	210.938	79.9233	210.938	80.0662	210.938	79.8874	210.938	80.0159	210.938	79.8745	210.938	79.9864	210.938	79.8802	210.938	79.974	210.938	79.8986	210.938	79.973	210.938	79.9229	210.938	79.977	210.938	79.9469	210.938	79.9797	210.938	79.9657	210.938	79.9767
218.262	80.7286	218.262	80.743	218.262	80.685	218.262	80.728	218.262	80.614	218.262	80.6851	218.262	80.5195	218.262	80.6176	218.262	80.4065	218.262	80.53	218.262	80.2819	218.262	80.4286	218.262	80.1536	218.262	80.3202	218.262	80.0299	218.262	80.2122	218.262	79.9189	218.262	80.1118	218.262	79.8276	218.262	80.0249	218.262	79.7606	218.262	79.9556	218.262	79.7196	218.262	79.9053	218.262	79.7034	218.262	79.8731	218.262	79.7078	218.262	79.8554	218.262	79.7268	218.262	79.8471	218.262	79.7536	218.262	79.8426	218.262	79.782	218.262	79.8366	218.262	79.8069	218.262	79.8253
225.586	80.59	225.586	80.6093	225.586	80.5396	225.586	80.5967	225.586	80.4607	225.586	80.5534	225.586	80.3578	225.586	80.4825	225.586	80.237	225.586	80.3888	225.586	80.1059	225.586	80.2791	225.586	79.9735	225.586	80.1614	225.586	79.8491	225.586	80.0447	225.586	79.7415	225.586	79.9378	225.586	79.6581	225.586	79.8483	225.586	79.6032	225.586	79.7814	225.586	79.5776	225.586	79.7391	225.586	79.5783	225.586	79.7195	225.586	79.5995	225.586	79.7179	225.586	79.6332	225.586	79.727	225.586	79.6711	225.586	79.739	225.586	79.7057	225.586	79.7469	225.586	79.7315	225.586	79.7453
232.91	80.586	232.91	80.6076	232.91	80.5303	232.91	80.5945	232.91	80.4426	232.91	80.5479	232.91	80.3273	232.91	80.4712	232.91	80.1902	232.91	80.3692	232.91	80.0388	232.91	80.2486	232.91	79.8822	232.91	80.1177	232.91	79.7304	232.91	79.9853	232.91	79.5932	232.91	79.8607	232.91	79.4793	232.91	79.7519	232.91	79.3953	232.91	79.6646	232.91	79.344	232.91	79.6013	232.91	79.3242	232.91	79.5609	232.91	79.3312	232.91	79.5388	232.91	79.3575	232.91	79.5282	232.91	79.3944	232.91	79.5215	232.91	79.4336	232.91	79.5121	232.91	79.4685	232.91	79.4951
241.699	80.3582	241.699	80.3713	241.699	80.3101	241.699	80.3493	241.699	80.2285	241.699	80.2942	241.699	80.1173	241.699	80.2098	241.699	79.9824	241.699	80.1015	241.699	79.8313	241.699	79.9764	241.699	79.6737	241.699	79.8428	241.699	79.5201	241.699	79.7099	241.699	79.3814	241.699	79.5865	241.699	79.2669	241.699	79.4806	241.699	79.1834	241.699	79.398	241.699	79.1338	241.699	79.341	241.699	79.1164	241.699	79.3085	241.699	79.126	241.699	79.2957	241.699	79.1545	241.699	79.2952	241.699	79.1927	241.699	79.2983	241.699	79.2318	241.699	79.2975	241.699	79.2648	241.699	79.2871
250.488	80.1203	250.488	80.1349	250.488	80.0691	250.488	80.1128	250.488	79.9836	250.488	80.0555	250.488	79.8675	250.488	79.9669	250.488	79.7266	250.488	79.8523	250.488	79.5687	250.488	79.7193	250.488	79.4029	250.488	79.5767	250.488	79.2399	250.488	79.4341	250.488	79.0909	250.488	79.3011	250.488	78.9659	250.488	79.1857	250.488	78.8727	250.488	79.0938	250.488	78.8151	250.488	79.0279	250.488	78.792	250.488	78.9871	250.488	78.7979	250.488	78.9671	250.488	78.824	250.488	78.961	250.488	78.8603	250.488	78.9608	250.488	78.8975	250.488	78.9587	250.488	78.9284	250.488	78.949
259.277	80.1512	259.277	80.167	259.277	80.0977	259.277	80.1449	259.277	80.0088	259.277	80.0862	259.277	79.8885	259.277	79.9943	259.277	79.7428	259.277	79.8746	259.277	79.5792	259.277	79.7343	259.277	79.407	259.277	79.5822	259.277	79.2365	259.277	79.4285	259.277	79.0785	259.277	79.2832	259.277	78.9428	259.277	79.1554	259.277	78.8374	259.277	79.0514	259.277	78.7667	259.277	78.9741	259.277	78.7308	259.277	78.9228	259.277	78.7252	259.277	78.893	259.277	78.7418	259.277	78.8782	259.277	78.7709	259.277	78.871	259.277	78.8032	259.277	78.8641	259.277	78.8315	259.277	78.8519
268.066	79.8275	268.066	79.8374	268.066	79.7776	268.066	79.8085	268.066	79.6888	268.066	79.7434	268.066	79.5638	268.066	79.6468	268.066	79.4081	268.066	79.5249	268.066	79.2293	268.066	79.3856	268.066	79.0378	268.066	79.2378	268.066	78.8461	268.066	79.0916	268.066	78.6678	268.066	78.9564	268.066	78.5163	268.066	78.8402	268.066	78.4022	268.066	78.7485	268.066	78.3312	268.066	78.6827	268.066	78.3032	268.066	78.6406	268.066	78.3121	268.066	78.6163	268.066	78.348	268.066	78.6022	268.066	78.399	268.066	78.5899	268.066	78.454	268.066	78.5722	268.066	78.5042	268.066	78.5443
276.855	79.6663	276.855	79.6624	276.855	79.6313	276.855	79.6186	276.855	79.5598	276.855	79.5361	276.855	79.4556	276.855	79.4179	276.855	79.3234	276.855	79.2698	276.855	79.1698	276.855	79.1002	276.855	79.0023	276.855	78.9197	276.855	78.8302	276.855	78.7403	276.855	78.664	276.855	78.5746	276.855	78.5142	276.855	78.4344	276.855	78.3904	276.855	78.3282	276.855	78.2998	276.855	78.2602	276.855	78.2449	276.855	78.2289	276.855	78.2234	276.855	78.2273	276.855	78.2281	276.855	78.2448	276.855	78.2486	276.855	78.2691	276.855	78.2733	276.855	78.2894	276.855	78.2919	276.855	78.298
287.109	79.7155	287.109	79.74	287.109	79.6479	287.109	79.7205	287.109	79.5406	287.109	79.6589	287.109	79.3996	287.109	79.5595	287.109	79.233	287.109	79.4289	287.109	79.0505	287.109	79.2755	287.109	78.8625	287.109	79.1091	287.109	78.6798	287.109	78.9398	287.109	78.5122	287.109	78.7768	287.109	78.3681	287.109	78.6281	287.109	78.2532	287.109	78.4993	287.109	78.1698	287.109	78.3933	287.109	78.1169	287.109	78.3108	287.109	78.0904	287.109	78.2497	287.109	78.0839	287.109	78.2067	287.109	78.0906	287.109	78.1768	287.109	78.1043	287.109	78.155	287.109	78.1204	287.109	78.1372
297.363	79.4728	297.363	79.4706	297.363	79.4251	297.363	79.4213	297.363	79.3274	297.363	79.3302	297.363	79.1828	297.363	79.2045	297.363	78.9982	297.363	79.0536	297.363	78.784	297.363	78.8885	297.363	78.5546	297.363	78.7212	297.363	78.327	297.363	78.5637	297.363	78.1194	297.363	78.4265	297.363	77.9486	297.363	78.3166	297.363	77.8261	297.363	78.2368	297.363	77.7568	297.363	78.185	297.363	77.7374	297.363	78.1553	297.363	77.7586	297.363	78.1397	297.363	77.8079	297.363	78.129	297.363	77.8723	297.363	78.115	297.363	77.9402	297.363	78.0912	297.363	78.0028	297.363	78.054
307.617	79.5984	307.617	79.5824	307.617	79.5724	307.617	79.5234	307.617	79.5063	307.617	79.4225	307.617	79.4031	307.617	79.2831	307.617	79.2669	307.617	79.1119	307.617	79.1033	307.617	78.9191	307.617	78.9196	307.617	78.7182	307.617	78.7256	307.617	78.5254	307.617	78.5335	307.617	78.3569	307.617	78.3573	307.617	78.2264	307.617	78.2114	307.617	78.1415	307.617	78.1067	307.617	78.1023	307.617	78.0485	307.617	78.101	307.617	78.0344	307.617	78.1247	307.617	78.0548	307.617	78.1586	307.617	78.0956	307.617	78.1892	307.617	78.142	307.617	78.2063	307.617	78.1811	307.617	78.2039
319.336	79.261	319.336	79.272	319.336	79.2025	319.336	79.2331	319.336	79.1008	319.336	79.1445	319.336	78.9623	319.336	79.0093	319.336	78.7949	319.336	78.8341	319.336	78.608	319.336	78.6294	319.336	78.4116	319.336	78.4099	319.336	78.2166	319.336	78.1931	319.336	78.0341	319.336	77.9978	319.336	77.875	319.336	77.8406	319.336	77.7487	319.336	77.7319	319.336	77.6623	319.336	77.674	319.336	77.618	319.336	77.6604	319.336	77.6124	319.336	77.678	319.336	77.6364	319.336	77.7112	319.336	77.6769	319.336	77.7448	319.336	77.7202	319.336	77.7672	319.336	77.7543	319.336	77.771
329.59	79.1285	329.59	79.1562	329.59	79.0528	329.59	79.1341	329.59	78.9329	329.59	79.0619	329.59	78.7745	329.59	78.941	329.59	78.5859	329.59	78.775	329.59	78.3776	329.59	78.5701	329.59	78.1618	329.59	78.3368	329.59	77.9512	329.59	78.0898	329.59	77.7581	329.59	77.8487	329.59	77.5925	329.59	77.6352	329.59	77.4619	329.59	77.4691	329.59	77.3703	329.59	77.3622	329.59	77.3178	329.59	77.3147	329.59	77.3008	329.59	77.3145	329.59	77.3117	329.59	77.3423	329.59	77.3398	329.59	77.3775	329.59	77.3732	329.59	77.4038	329.59	77.4003	329.59	77.412
341.309	79.0105	341.309	79.0133	341.309	78.9568	341.309	78.9675	341.309	78.8529	341.309	78.8771	341.309	78.7027	341.309	78.7477	341.309	78.5142	341.309	78.5858	341.309	78.2991	341.309	78.3984	341.309	78.0729	341.309	78.1932	341.309	77.8533	341.309	77.9793	341.309	77.6581	341.309	77.768	341.309	77.5017	341.309	77.573	341.309	77.3925	341.309	77.4093	341.309	77.3316	341.309	77.2907	341.309	77.3128	341.309	77.2251	341.309	77.3246	341.309	77.2114	341.309	77.353	341.309	77.2384	341.309	77.3839	341.309	77.2887	341.309	77.4049	341.309	77.3428	341.309	77.4067	341.309	77.3853
353.027	78.6386	353.027	78.658	353.027	78.5678	353.027	78.6258	353.027	78.4476	353.027	78.544	353.027	78.282	353.027	78.4166	353.027	78.0773	353.027	78.2501	353.027	77.8428	353.027	78.053	353.027	77.5908	353.027	77.8356	353.027	77.3367	353.027	77.6097	353.027	77.0983	353.027	77.3879	353.027	76.8937	353.027	77.183	353.027	76.7378	353.027	77.007	353.027	76.6387	353.027	76.87	353.027	76.5954	353.027	76.7778	353.027	76.5982	353.027	76.7297	353.027	76.6311	353.027	76.7177	353.027	76.6765	353.027	76.7281	353.027	76.7185	353.027	76.7449	353.027	76.7458	353.027	76.7538
366.211	78.6166	366.211	78.6158	366.211	78.5685	366.211	78.568	366.211	78.4709	366.211	78.4763	366.211	78.3252	366.211	78.3453	366.211	78.1349	366.211	78.1807	366.211	77.906	366.211	77.9896	366.211	77.6475	366.211	77.7803	366.211	77.3722	366.211	77.5619	366.211	77.0958	366.211	77.3442	366.211	76.8368	366.211	77.1373	366.211	76.6139	366.211	76.9504	366.211	76.4417	366.211	76.791	366.211	76.3276	366.211	76.6634	366.211	76.2692	366.211	76.5676	366.211	76.2559	366.211	76.4992	366.211	76.2727	366.211	76.4506	366.211	76.3051	366.211	76.4128	366.211	76.3422	366.211	76.3782
379.395	78.3087	379.395	78.332	379.395	78.2447	379.395	78.3134	379.395	78.1423	379.395	78.254	379.395	78.0061	379.395	78.1564	379.395	77.8421	379.395	78.0251	379.395	77.6584	379.395	77.8669	379.395	77.4646	379.395	77.69	379.395	77.2712	379.395	77.5037	379.395	77.0881	379.395	77.3175	379.395	76.9245	379.395	77.1405	379.395	76.7868	379.395	76.9811	379.395	76.6791	379.395	76.8463	379.395	76.603	379.395	76.7414	379.395	76.5571	379.395	76.668	379.395	76.5374	379.395	76.6231	379.395	76.5374	379.395	76.5992	379.395	76.5487	379.395	76.5864	379.395	76.5633	379.395	76.5761
392.578	77.8387	392.578	77.8745	392.578	77.7661	392.578	77.8733	392.578	77.6583	392.578	77.8366	392.578	77.5189	392.578	77.767	392.578	77.3539	392.578	77.6677	392.578	77.1711	392.578	77.5433	392.578	76.9801	392.578	77.3991	392.578	76.7914	392.578	77.2421	392.578	76.6152	392.578	77.0801	392.578	76.4606	392.578	76.9214	392.578	76.3344	392.578	76.7737	392.578	76.2406	392.578	76.6434	392.578	76.1798	392.578	76.5342	392.578	76.1498	392.578	76.4475	392.578	76.1456	392.578	76.3813	392.578	76.1605	392.578	76.331	392.578	76.1874	392.578	76.2906	392.578	76.2201	392.578	76.2546
405.762	77.1879	405.762	77.2279	405.762	77.119	405.762	77.2398	405.762	77.0245	405.762	77.2283	405.762	76.9115	405.762	77.2001	405.762	76.7892	405.762	77.1615	405.762	76.6668	405.762	77.1164	405.762	76.5519	405.762	77.0645	405.762	76.4493	405.762	77.0022	405.762	76.3605	405.762	76.9242	405.762	76.2846	405.762	76.8263	405.762	76.2187	405.762	76.7075	405.762	76.1594	405.762	76.5713	405.762	76.1039	405.762	76.4256	405.762	76.0513	405.762	76.2818	405.762	76.0027	405.762	76.1525	405.762	75.9614	405.762	76.048	405.762	75.9322	405.762	75.9746	405.762	75.9209	405.762	75.9333
420.41	76.3965	420.41	76.428	420.41	76.3126	420.41	76.4146	420.41	76.1799	420.41	76.3726	420.41	76.0133	420.41	76.3244	420.41	75.8395	420.41	76.2948	420.41	75.6934	420.41	76.3042	420.41	75.6093	420.41	76.3617	420.41	75.6088	420.41	76.4625	420.41	75.6921	420.41	76.5893	420.41	75.8375	420.41	76.7193	420.41	76.0118	420.41	76.831	420.41	76.1823	420.41	76.9094	420.41	76.326	420.41	76.9473	420.41	76.4328	420.41	76.9444	420.41	76.505	420.41	76.9064	420.41	76.5535	420.41	76.8437	420.41	76.5938	420.41	76.77	420.41	76.6398	420.41	76.699
435.059	76.3921	435.059	76.3498	435.059	76.3262	435.059	76.2102	435.059	76.1555	435.059	76.0009	435.059	75.8972	435.059	75.7701	435.059	75.5853	435.059	75.5857	435.059	75.273	435.059	75.5215	435.059	75.031	435.059	75.6285	435.059	74.9346	435.059	75.9064	435.059	75.0354	435.059	76.3041	435.059	75.3344	435.059	76.748	435.059	75.7794	435.059	77.1735	435.059	76.2928	435.059	77.5401	435.059	76.8022	435.059	77.8315	435.059	77.2575	435.059	78.0481	435.059	77.6329	435.059	78.1981	435.059	77.9209	435.059	78.2906	435.059	78.1252	435.059	78.3314	435.059	78.2551	435.059	78.3211
451.172	78.2081	451.172	78.1856	451.172	78.0825	451.172	78.0148	451.172	77.8118	451.172	77.6985	451.172	77.4029	451.172	77.2476	451.172	76.8722	451.172	76.6895	451.172	76.2536	451.172	76.0824	451.172	75.6114	451.172	75.5301	451.172	75.0483	451.172	75.1761	451.172	74.6942	451.172	75.1447	451.172	74.6539	451.172	75.4532	451.172	74.9405	451.172	75.9941	451.172	75.4657	451.172	76.6156	451.172	76.0992	451.172	77.199	451.172	76.7299	451.172	77.6798	451.172	77.2874	451.172	78.0354	451.172	77.7373	451.172	78.266	451.172	78.0683	451.172	78.38	451.172	78.2822	451.172	78.3849
465.82	78.6486	465.82	78.6304	465.82	78.5458	465.82	78.4924	465.82	78.3195	465.82	78.2354	465.82	77.9675	465.82	77.8622	465.82	77.4912	465.82	77.3822	465.82	76.9007	465.82	76.8201	465.82	76.2254	465.82	76.2267	465.82	75.5261	465.82	75.6875	465.82	74.9053	465.82	75.3142	465.82	74.4944	465.82	75.2016	465.82	74.3992	465.82	75.3695	465.82	74.6303	465.82	75.7477	465.82	75.0963	465.82	76.222	465.82	75.6672	465.82	76.6896	465.82	76.235	465.82	77.0814	465.82	76.7314	465.82	77.359	465.82	77.1202	465.82	77.5049	465.82	77.3835	465.82	77.513
483.398	78.5134	483.398	78.4981	483.398	78.4127	483.398	78.3677	483.398	78.1941	483.398	78.122	483.398	77.8553	483.398	77.7617	483.398	77.3962	483.398	77.2925	483.398	76.8229	483.398	76.7316	483.398	76.155	483.398	76.1181	483.398	75.4374	483.398	75.5245	483.398	74.7537	483.398	75.0568	483.398	74.2276	483.398	74.825	483.398	73.9858	483.398	74.8811	483.398	74.0837	483.398	75.1789	483.398	74.4617	483.398	75.6051	483.398	74.9898	483.398	76.0446	483.398	75.5427	483.398	76.4174	483.398	76.036	483.398	76.6806	483.398	76.4245	483.398	76.8164	483.398	76.6879	483.398	76.8191
499.512	78.5115	499.512	78.4741	499.512	78.44	499.512	78.3301	499.512	78.2552	499.512	78.0802	499.512	77.9514	499.512	77.7255	499.512	77.5244	499.512	77.2719	499.512	76.976	499.512	76.7355	499.512	76.3208	499.512	76.1514	499.512	75.5965	499.512	75.581	499.512	74.8764	499.512	75.1106	499.512	74.2746	499.512	74.8297	499.512	73.921	499.512	74.7896	499.512	73.8958	499.512	74.9719	499.512	74.1713	499.512	75.2999	499.512	74.6335	499.512	75.6782	499.512	75.154	499.512	76.0255	499.512	75.6378	499.512	76.286	499.512	76.0287	499.512	76.4268	499.512	76.2981	499.512	76.4322
517.09	78.6087	517.09	78.5694	517.09	78.5349	517.09	78.4182	517.09	78.346	517.09	78.1554	517.09	78.0395	517.09	77.7818	517.09	77.6134	517.09	77.3009	517.09	77.0687	517.09	76.7246	517.09	76.4137	517.09	76.0835	517.09	75.673	517.09	75.439	517.09	74.9012	517.09	74.8883	517.09	74.1971	517.09	74.5415	517.09	73.6994	517.09	74.4634	517.09	73.5329	517.09	74.6279	517.09	73.7212	517.09	74.9386	517.09	74.1624	517.09	75.2907	517.09	74.702	517.09	75.6088	517.09	75.2119	517.09	75.8493	517.09	75.6161	517.09	75.9865	517.09	75.8815	517.09	76.0022
536.133	78.1042	536.133	78.085	536.133	78.0263	536.133	77.9661	536.133	77.8493	536.133	77.7415	536.133	77.5679	536.133	77.4048	536.133	77.1752	536.133	76.9527	536.133	76.6674	536.133	76.3918	536.133	76.0511	536.133	75.7479	536.133	75.3531	536.133	75.0785	536.133	74.6333	536.133	74.4822	536.133	73.9925	536.133	74.0863	536.133	73.5572	536.133	73.9896	536.133	73.4249	536.133	74.1921	536.133	73.6018	536.133	74.5903	536.133	73.9998	536.133	75.0463	536.133	74.4954	536.133	75.45	536.133	74.9846	536.133	75.7364	536.133	75.3991	536.133	75.8764	536.133	75.6992	536.133	75.8624
555.176	78.272	555.176	78.2194	555.176	78.2298	555.176	78.074	555.176	78.0863	555.176	77.8336	555.176	77.8327	555.176	77.4926	555.176	77.4591	555.176	77.0446	555.176	76.958	555.176	76.4884	555.176	76.3285	555.176	75.8373	555.176	75.5851	555.176	75.1326	555.176	74.7718	555.176	74.4594	555.176	73.9801	555.176	73.946	555.176	73.3542	555.176	73.7194	555.176	73.0465	555.176	73.8195	555.176	73.1186	555.176	74.1627	555.176	73.4893	555.176	74.6017	555.176	74.0021	555.176	75.0077	555.176	74.5193	555.176	75.3019	555.176	74.956	555.176	75.4482	555.176	75.2686	555.176	75.4361
574.219	78.0379	574.219	78.0015	574.219	77.9754	574.219	77.8649	574.219	77.8135	574.219	77.6252	574.219	77.5494	574.219	77.2789	574.219	77.1771	574.219	76.8227	574.219	76.6897	574.219	76.2564	574.219	76.0836	574.219	75.591	574.219	75.3684	574.219	74.8625	574.219	74.583	574.219	74.1508	574.219	73.8156	574.219	73.5877	574.219	73.2107	574.219	73.3173	574.219	72.9243	574.219	73.4022	574.219	73.0215	574.219	73.7658	574.219	73.4191	574.219	74.2514	574.219	73.9535	574.219	74.7168	574.219	74.4797	574.219	75.0739	574.219	74.9082	574.219	75.2803	574.219	75.1949	574.219	75.3212
594.727	77.9654	594.727	77.9411	594.727	77.8896	594.727	77.8157	594.727	77.7098	594.727	77.5838	594.727	77.4186	594.727	77.2372	594.727	77.0074	594.727	76.7675	594.727	76.4702	594.727	76.1709	594.727	75.8087	594.727	75.4561	594.727	75.0392	594.727	74.6597	594.727	74.2057	594.727	73.8677	594.727	73.3974	594.727	73.2279	594.727	72.7582	594.727	72.9087	594.727	72.4494	594.727	72.9869	594.727	72.5464	594.727	73.3768	594.727	72.9695	594.727	73.9022	594.727	73.5466	594.727	74.407	594.727	74.1211	594.727	74.795	594.727	74.5942	594.727	75.0186	594.727	74.9148	594.727	75.0593
615.234	78.1235	615.234	78.0968	615.234	78.0631	615.234	77.983	615.234	77.9104	615.234	77.7758	615.234	77.6552	615.234	77.4631	615.234	77.2837	615.234	77.0298	615.234	76.7803	615.234	76.4627	615.234	76.1316	615.234	75.7589	615.234	75.3352	615.234	74.9407	615.234	74.4146	615.234	74.0772	615.234	73.4449	615.234	73.3051	615.234	72.5815	615.234	72.8096	615.234	72.0446	615.234	72.7215	615.234	71.9934	615.234	73.0026	615.234	72.3772	615.234	73.4791	615.234	72.9834	615.234	73.9701	615.234	73.6048	615.234	74.3574	615.234	74.1167	615.234	74.5815	615.234	74.4617	615.234	74.6184
637.207	77.934	637.207	77.8886	637.207	77.9009	637.207	77.7665	637.207	77.7838	637.207	77.5644	637.207	77.5727	637.207	77.2734	637.207	77.2545	637.207	76.8795	637.207	76.8145	637.207	76.3655	637.207	76.2407	637.207	75.718	637.207	75.5318	637.207	74.9423	637.207	74.7102	637.207	74.087	637.207	73.8423	637.207	73.2774	637.207	73.058	637.207	72.7186	637.207	72.5398	637.207	72.5938	637.207	72.4323	637.207	72.8986	637.207	72.7241	637.207	73.4408	637.207	73.2535	637.207	74.0045	637.207	73.8307	637.207	74.4523	637.207	74.3208	637.207	74.7206	637.207	74.6506	637.207	74.7876
659.18	77.6611	659.18	77.6378	659.18	77.5985	659.18	77.5247	659.18	77.4508	659.18	77.3154	659.18	77.2134	659.18	77.0012	659.18	76.8746	659.18	76.5706	659.18	76.4145	659.18	76.0102	659.18	75.8082	659.18	75.3101	659.18	75.0351	659.18	74.4767	659.18	74.097	659.18	73.5583	659.18	73.0525	659.18	72.6806	659.18	72.0665	659.18	72.0576	659.18	71.4196	659.18	71.8966	659.18	71.3503	659.18	72.2159	659.18	71.8133	659.18	72.8177	659.18	72.5337	659.18	73.461	659.18	73.2566	659.18	73.9817	659.18	73.8409	659.18	74.2983	659.18	74.2244	659.18	74.3805
682.617	77.8477	682.617	77.7991	682.617	77.8163	682.617	77.6752	682.617	77.6934	682.617	77.4726	682.617	77.4647	682.617	77.1793	682.617	77.1173	682.617	76.778	682.617	76.6426	682.617	76.2491	682.617	76.0371	682.617	75.5769	682.617	75.3014	682.617	74.7623	682.617	74.4421	682.617	73.8469	682.617	73.485	682.617	72.9508	682.617	72.5128	682.617	72.2866	682.617	71.712	682.617	72.0625	682.617	71.3445	682.617	72.2962	682.617	71.5416	682.617	72.7951	682.617	72.142	682.617	73.3334	682.617	72.8537	682.617	73.7651	682.617	73.4645	682.617	74.0184	682.617	73.8766	682.617	74.0608
707.52	77.6046	707.52	77.5895	707.52	77.5597	707.52	77.5121	707.52	77.4516	707.52	77.3653	707.52	77.2688	707.52	77.136	707.52	76.9903	707.52	76.8045	707.52	76.5864	707.52	76.3445	707.52	76.0245	707.52	75.7282	707.52	75.2803	707.52	74.936	707.52	74.3545	707.52	73.9811	707.52	73.3016	707.52	72.9565	707.52	72.2707	707.52	72.0933	707.52	71.5233	707.52	71.713	707.52	71.3176	707.52	71.9508	707.52	71.6725	707.52	72.5849	707.52	72.3465	707.52	73.2835	707.52	73.067	707.52	73.8363	707.52	73.6656	707.52	74.1595	707.52	74.065	707.52	74.2342
732.422	77.7007	732.422	77.6793	732.422	77.6502	732.422	77.58	732.422	77.5318	732.422	77.3968	732.422	77.3419	732.422	77.122	732.422	77.0644	732.422	76.7442	732.422	76.6692	732.422	76.2457	732.422	76.1173	732.422	75.6038	732.422	75.3725	732.422	74.7973	732.422	74.4177	732.422	73.8255	732.422	73.2833	732.422	72.7523	732.422	72.0997	732.422	71.78	732.422	71.1567	732.422	71.2613	732.422	70.8213	732.422	71.4388	732.422	71.1965	732.422	72.1347	732.422	71.9913	732.422	72.9587	732.422	72.8462	732.422	73.6379	732.422	73.5478	732.422	74.0555	732.422	74.0037	732.422	74.1777
757.324	78.0442	757.324	78.0369	757.324	77.9887	757.324	77.9704	757.324	77.8599	757.324	77.8407	757.324	77.6436	757.324	77.635	757.324	77.3247	757.324	77.3302	757.324	76.8886	757.324	76.8923	757.324	76.3197	757.324	76.2806	757.324	75.5994	757.324	75.4598	757.324	74.7123	757.324	74.4256	757.324	73.6691	757.324	73.253	757.324	72.5602	757.324	72.1685	757.324	71.6312	757.324	71.5527	757.324	71.2512	757.324	71.6656	757.324	71.5902	757.324	72.336	757.324	72.3919	757.324	73.1724	757.324	73.2685	757.324	73.8926	757.324	73.9763	757.324	74.3657	757.324	74.4123	757.324	74.5436
785.156	78.983	785.156	79.0166	785.156	78.8899	785.156	78.9861	785.156	78.7427	785.156	78.8897	785.156	78.5402	785.156	78.7259	785.156	78.2648	785.156	78.4903	785.156	77.8795	785.156	78.1717	785.156	77.3363	785.156	77.7466	785.156	76.5923	785.156	77.1776	785.156	75.6266	785.156	76.4223	785.156	74.4625	785.156	75.4646	785.156	73.2119	785.156	74.3822	785.156	72.1536	785.156	73.4349	785.156	71.7124	785.156	73.0205	785.156	72.0861	785.156	73.2979	785.156	72.9688	785.156	73.9729	785.156	73.9193	785.156	74.6563	785.156	74.6788	785.156	75.1259	785.156	75.1479	785.156	75.2975
811.523	77.1285	811.523	77.3558	811.523	76.8308	811.523	77.5076	811.523	76.4689	811.523	77.5799	811.523	76.0476	811.523	77.5655	811.523	75.5617	811.523	77.452	811.523	74.986	811.523	77.2209	811.523	74.2684	811.523	76.8527	811.523	73.334	811.523	76.3344	811.523	72.1044	811.523	75.6735	811.523	70.5452	811.523	74.9201	811.523	68.8098	811.523	74.1976	811.523	67.566	811.523	73.7066	811.523	67.8042	811.523	73.6172	811.523	69.3009	811.523	73.8965	811.523	71.03	811.523	74.3243	811.523	72.4878	811.523	74.6769	811.523	73.5728	811.523	74.8239	811.523	74.3013	811.523	74.7084
840.82	72.9502	840.82	72.8898	840.82	72.9907	840.82	72.8074	840.82	73.0102	840.82	72.6959	840.82	73.0009	840.82	72.5374	840.82	72.944	840.82	72.2986	840.82	72.8067	840.82	71.9307	840.82	72.5441	840.82	71.3752	840.82	72.0999	840.82	70.5776	840.82	71.4075	840.82	69.5122	840.82	70.3919	840.82	68.2348	840.82	68.9816	840.82	66.9827	840.82	67.1601	840.82	66.2365	840.82	65.172	840.82	66.3872	840.82	63.9702	840.82	67.219	840.82	64.5656	840.82	68.1996	840.82	66.1762	840.82	68.9665	840.82	67.6933	840.82	69.3555	840.82	68.7492	840.82	69.296
870.117	74.376	870.117	74.2769	870.117	74.4061	870.117	74.1189	870.117	74.3682	870.117	73.9196	870.117	74.2685	870.117	73.6931	870.117	74.1078	870.117	73.4328	870.117	73.8707	870.117	73.1016	870.117	73.5239	870.117	72.6377	870.117	73.0227	870.117	71.9721	870.117	72.3186	870.117	71.0517	870.117	71.3668	870.117	69.8746	870.117	70.1429	870.117	68.5776	870.117	68.7049	870.117	67.5843	870.117	67.3512	870.117	67.4729	870.117	66.7256	870.117	68.2409	870.117	67.2203	870.117	69.2782	870.117	68.3424	870.117	70.1132	870.117	69.4442	870.117	70.5698	870.117	70.2275	870.117	70.6083
900.879	74.4655	900.879	74.4286	900.879	74.4434	900.879	74.3273	900.879	74.3851	900.879	74.1674	900.879	74.3172	900.879	73.9538	900.879	74.2426	900.879	73.6814	900.879	74.1208	900.879	73.3343	900.879	73.8758	900.879	72.8823	900.879	73.424	900.879	72.2717	900.879	72.6973	900.879	71.4231	900.879	71.6541	900.879	70.2663	900.879	70.2925	900.879	68.8524	900.879	68.708	900.879	67.5886	900.879	67.2528	900.879	67.2588	900.879	66.629	900.879	68.0412	900.879	67.1988	900.879	69.191	900.879	68.3845	900.879	70.1201	900.879	69.5212	900.879	70.6337	900.879	70.32	900.879	70.6983
933.105	74.7184	933.105	74.5995	933.105	74.7242	933.105	74.3729	933.105	74.6266	933.105	74.0622	933.105	74.4481	933.105	73.7075	933.105	74.2183	933.105	73.3487	933.105	73.9574	933.105	72.9913	933.105	73.65	933.105	72.5821	933.105	73.2297	933.105	72.0204	933.105	72.5911	933.105	71.1977	933.105	71.619	933.105	70.0461	933.105	70.2243	933.105	68.6227	933.105	68.4233	933.105	67.3052	933.105	66.6033	933.105	66.8846	933.105	65.8689	933.105	67.6853	933.105	66.831	933.105	68.9898	933.105	68.4386	933.105	70.1144	933.105	69.7985	933.105	70.8019	933.105	70.6586	933.105	70.9892
965.332	74.8987	965.332	74.8638	965.332	74.8645	965.332	74.7652	965.332	74.7729	965.332	74.6158	965.332	74.6495	965.332	74.4231	965.332	74.5131	965.332	74.1792	965.332	74.3501	965.332	73.8557	965.332	74.1087	965.332	73.403	965.332	73.7179	965.332	72.7545	965.332	73.1052	965.332	71.8383	965.332	72.1999	965.332	70.6038	965.332	70.9337	965.332	69.0868	965.332	69.2848	965.332	67.575	965.332	67.4732	965.332	66.7801	965.332	66.3448	965.332	67.2354	965.332	66.7937	965.332	68.414	965.332	68.1666	965.332	69.5484	965.332	69.4429	965.332	70.2869	965.332	70.2506	965.332	70.5295
1,000.49	75.3144	1,000.49	75.2375	1,000.49	75.2552	1,000.49	75.0324	1,000.49	75.0829	1,000.49	74.7346	1,000.49	74.8454	1,000.49	74.3944	1,000.49	74.5989	1,000.49	74.0545	1,000.49	74.3767	1,000.49	73.7244	1,000.49	74.1586	1,000.49	73.3644	1,000.49	73.8617	1,000.49	72.886	1,000.49	73.3624	1,000.49	72.1677	1,000.49	72.5281	1,000.49	71.084	1,000.49	71.2398	1,000.49	69.5702	1,000.49	69.4399	1,000.49	67.8211	1,000.49	67.3574	1,000.49	66.6883	1,000.49	66.0879	1,000.49	67.1381	1,000.49	66.8013	1,000.49	68.5483	1,000.49	68.4635	1,000.49	69.8674	1,000.49	69.8747	1,000.49	70.7063	1,000.49	70.7236	1,000.49	70.9951
1,035.64	75.9806	1,035.64	75.9118	1,035.64	75.8922	1,035.64	75.695	1,035.64	75.6563	1,035.64	75.3509	1,035.64	75.3162	1,035.64	74.9151	1,035.64	74.9538	1,035.64	74.4413	1,035.64	74.6512	1,035.64	73.9837	1,035.64	74.4183	1,035.64	73.5524	1,035.64	74.1601	1,035.64	73.0782	1,035.64	73.7252	1,035.64	72.4356	1,035.64	72.9694	1,035.64	71.51	1,035.64	71.7826	1,035.64	70.2757	1,035.64	70.1199	1,035.64	68.9218	1,035.64	68.169	1,035.64	68.0389	1,035.64	66.8219	1,035.64	68.296	1,035.64	67.2703	1,035.64	69.4265	1,035.64	68.8629	1,035.64	70.6194	1,035.64	70.3554	1,035.64	71.4121	1,035.64	71.3078	1,035.64	71.6555
1,072.27	76.8699	1,072.27	76.8359	1,072.27	76.7518	1,072.27	76.6491	1,072.27	76.5029	1,072.27	76.3275	1,072.27	76.1696	1,072.27	75.9079	1,072.27	75.8136	1,072.27	75.4404	1,072.27	75.4788	1,072.27	74.9696	1,072.27	75.1594	1,072.27	74.5085	1,072.27	74.7958	1,072.27	74.0107	1,072.27	74.2876	1,072.27	73.3608	1,072.27	73.5062	1,072.27	72.4122	1,072.27	72.3095	1,072.27	71.0856	1,072.27	70.5733	1,072.27	69.5783	1,072.27	68.345	1,072.27	68.6407	1,072.27	66.5102	1,072.27	69.0154	1,072.27	66.9364	1,072.27	70.2119	1,072.27	68.9424	1,072.27	71.3741	1,072.27	70.7509	1,072.27	72.1159	1,072.27	71.8741	1,072.27	72.3071
1,108.89	77.254	1,108.89	77.2191	1,108.89	77.106	1,108.89	77.0083	1,108.89	76.7886	1,108.89	76.6512	1,108.89	76.3371	1,108.89	76.1969	1,108.89	75.8199	1,108.89	75.7049	1,108.89	75.3385	1,108.89	75.2229	1,108.89	74.9674	1,108.89	74.7543	1,108.89	74.6595	1,108.89	74.2306	1,108.89	74.2481	1,108.89	73.5159	1,108.89	73.5408	1,108.89	72.4461	1,108.89	72.3721	1,108.89	70.9028	1,108.89	70.597	1,108.89	69.0062	1,108.89	68.1674	1,108.89	67.6376	1,108.89	65.7727	1,108.89	68.1464	1,108.89	65.7428	1,108.89	69.8622	1,108.89	67.909	1,108.89	71.3639	1,108.89	70.0157	1,108.89	72.1516	1,108.89	71.4473	1,108.89	72.1667
1,148.44	76.9816	1,148.44	76.9071	1,148.44	76.886	1,148.44	76.6583	1,148.44	76.6141	1,148.44	76.251	1,148.44	76.167	1,148.44	75.7577	1,148.44	75.6033	1,148.44	75.288	1,148.44	75.0606	1,148.44	74.8922	1,148.44	74.6718	1,148.44	74.4937	1,148.44	74.4233	1,148.44	73.9445	1,148.44	74.1501	1,148.44	73.1109	1,148.44	73.6544	1,148.44	71.8862	1,148.44	72.7463	1,148.44	70.1988	1,148.44	71.1952	1,148.44	68.1741	1,148.44	68.7233	1,148.44	66.65	1,148.44	65.4768	1,148.44	67.0361	1,148.44	64.5276	1,148.44	68.8573	1,148.44	67.3645	1,148.44	70.6477	1,148.44	70.0074	1,148.44	71.7906	1,148.44	71.5609	1,148.44	72.1209
1,189.45	77.2676	1,189.45	77.1472	1,189.45	77.1856	1,189.45	76.8481	1,189.45	76.9001	1,189.45	76.4124	1,189.45	76.4298	1,189.45	75.8903	1,189.45	75.8326	1,189.45	75.3379	1,189.45	75.2491	1,189.45	74.8143	1,189.45	74.8657	1,189.45	74.3457	1,189.45	74.7117	1,189.45	73.8688	1,189.45	74.5599	1,189.45	73.2244	1,189.45	74.1309	1,189.45	72.2153	1,189.45	73.2637	1,189.45	70.6823	1,189.45	71.8937	1,189.45	68.6447	1,189.45	69.976	1,189.45	66.7436	1,189.45	67.6022	1,189.45	66.5554	1,189.45	65.9274	1,189.45	68.195	1,189.45	67.0503	1,189.45	70.0571	1,189.45	69.404	1,189.45	71.3066	1,189.45	71.0669	1,189.45	71.6846
1,230.47	77.5699	1,230.47	77.4064	1,230.47	77.5071	1,230.47	77.0153	1,230.47	77.2463	1,230.47	76.4432	1,230.47	76.8232	1,230.47	75.7974	1,230.47	76.2783	1,230.47	75.2278	1,230.47	75.6872	1,230.47	74.833	1,230.47	75.1789	1,230.47	74.546	1,230.47	74.8467	1,230.47	74.163	1,230.47	74.6113	1,230.47	73.4802	1,230.47	74.2497	1,230.47	72.3456	1,230.47	73.5192	1,230.47	70.6329	1,230.47	72.1811	1,230.47	68.3275	1,230.47	69.9755	1,230.47	66.1088	1,230.47	66.9032	1,230.47	65.8527	1,230.47	65.247	1,230.47	67.5309	1,230.47	67.4805	1,230.47	69.416	1,230.47	69.9358	1,230.47	70.8096	1,230.47	71.2424	1,230.47	71.4755
1,274.41	77.1384	1,274.41	76.9249	1,274.41	77.1149	1,274.41	76.5098	1,274.41	76.8303	1,274.41	75.9161	1,274.41	76.3016	1,274.41	75.1739	1,274.41	75.6111	1,274.41	74.389	1,274.41	74.9241	1,274.41	73.7645	1,274.41	74.4401	1,274.41	73.4246	1,274.41	74.2224	1,274.41	73.2137	1,274.41	74.088	1,274.41	72.8197	1,274.41	73.7427	1,274.41	71.9877	1,274.41	72.9487	1,274.41	70.5657	1,274.41	71.5584	1,274.41	68.5749	1,274.41	69.4916	1,274.41	66.6672	1,274.41	66.8556	1,274.41	66.4698	1,274.41	64.9602	1,274.41	68.0242	1,274.41	66.2367	1,274.41	69.7243	1,274.41	68.7479	1,274.41	70.8255	1,274.41	70.4591	1,274.41	71.1149
1,319.82	76.2528	1,319.82	75.9708	1,319.82	76.3247	1,319.82	75.4976	1,319.82	76.1704	1,319.82	74.8171	1,319.82	75.8051	1,319.82	73.9112	1,319.82	75.2683	1,319.82	72.8811	1,319.82	74.6318	1,319.82	72.0009	1,319.82	74.048	1,319.82	71.4546	1,319.82	73.7117	1,319.82	71.0565	1,319.82	73.6252	1,319.82	70.4624	1,319.82	73.5131	1,319.82	69.3769	1,319.82	73.0532	1,319.82	67.4406	1,319.82	72.0056	1,319.82	64.053	1,319.82	70.109	1,319.82	59.2406	1,319.82	66.9896	1,319.82	60.7688	1,319.82	63.2199	1,319.82	65.0468	1,319.82	63.9876	1,319.82	67.5507	1,319.82	67.0289	1,319.82	68.8346	1,319.82	68.739	1,319.82	69.2401
1,366.7	80.7687	1,366.7	80.5381	1,366.7	80.8032	1,366.7	80.129	1,366.7	80.5537	1,366.7	79.4787	1,366.7	79.9339	1,366.7	78.5062	1,366.7	78.9573	1,366.7	77.2158	1,366.7	77.8311	1,366.7	75.8148	1,366.7	76.9442	1,366.7	74.7634	1,366.7	76.5721	1,366.7	74.4337	1,366.7	76.5698	1,366.7	74.5628	1,366.7	76.5354	1,366.7	74.5288	1,366.7	76.0978	1,366.7	73.8598	1,366.7	75.0075	1,366.7	72.2003	1,366.7	73.1035	1,366.7	69.0648	1,366.7	70.2916	1,366.7	64.4335	1,366.7	67.4452	1,366.7	65.4058	1,366.7	68.3231	1,366.7	69.7707	1,366.7	71.2256	1,366.7	72.3351	1,366.7	73.0078	1,366.7	73.3586
1,413.57	80.4773	1,413.57	80.2845	1,413.57	80.4604	1,413.57	79.9113	1,413.57	80.1787	1,413.57	79.3276	1,413.57	79.5824	1,413.57	78.4603	1,413.57	78.6318	1,413.57	77.2752	1,413.57	77.3425	1,413.57	75.8972	1,413.57	75.9565	1,413.57	74.697	1,413.57	75.0137	1,413.57	74.0634	1,413.57	74.7578	1,413.57	73.903	1,413.57	74.7609	1,413.57	73.7695	1,413.57	74.5519	1,413.57	73.287	1,413.57	73.8451	1,413.57	72.1613	1,413.57	72.3635	1,413.57	70.1052	1,413.57	69.7687	1,413.57	67.2436	1,413.57	66.2925	1,413.57	66.4028	1,413.57	66.3374	1,413.57	69.1706	1,413.57	69.8034	1,413.57	71.6257	1,413.57	72.0506	1,413.57	72.6222
1,463.38	79.9838	1,463.38	79.8821	1,463.38	79.9119	1,463.38	79.617	1,463.38	79.6555	1,463.38	79.1702	1,463.38	79.1813	1,463.38	78.4722	1,463.38	78.4099	1,463.38	77.4503	1,463.38	77.2771	1,463.38	76.1416	1,463.38	75.8865	1,463.38	74.7966	1,463.38	74.6288	1,463.38	73.7833	1,463.38	73.9496	1,463.38	73.1819	1,463.38	73.7824	1,463.38	72.6148	1,463.38	73.5807	1,463.38	71.5939	1,463.38	72.8356	1,463.38	69.846	1,463.38	71.2482	1,463.38	67.5079	1,463.38	68.6268	1,463.38	65.6061	1,463.38	65.1932	1,463.38	66.0495	1,463.38	64.6753	1,463.38	68.1484	1,463.38	67.9378	1,463.38	69.9674	1,463.38	70.1834	1,463.38	70.7641
1,516.11	80.463	1,516.11	80.3972	1,516.11	80.3289	1,516.11	80.1445	1,516.11	79.9837	1,516.11	79.7001	1,516.11	79.4189	1,516.11	79.0158	1,516.11	78.6172	1,516.11	78.0114	1,516.11	77.5466	1,516.11	76.6733	1,516.11	76.2116	1,516.11	75.2282	1,516.11	74.8448	1,516.11	74.1683	1,516.11	73.9891	1,516.11	73.7162	1,516.11	73.8204	1,516.11	73.4064	1,516.11	73.7134	1,516.11	72.5879	1,516.11	73.0326	1,516.11	70.812	1,516.11	71.4809	1,516.11	67.8569	1,516.11	68.9218	1,516.11	64.6892	1,516.11	65.825	1,516.11	65.574	1,516.11	65.5772	1,516.11	68.4796	1,516.11	68.2661	1,516.11	70.3104	1,516.11	70.2374	1,516.11	70.8885
1,568.85	79.9847	1,568.85	80.0033	1,568.85	79.7524	1,568.85	79.7609	1,568.85	79.3716	1,568.85	79.2506	1,568.85	78.8637	1,568.85	78.4862	1,568.85	78.1543	1,568.85	77.4848	1,568.85	77.1123	1,568.85	76.3036	1,568.85	75.7074	1,568.85	75.1041	1,568.85	74.2381	1,568.85	74.1589	1,568.85	73.3518	1,568.85	73.6866	1,568.85	73.2764	1,568.85	73.4641	1,568.85	73.3894	1,568.85	72.8054	1,568.85	73.0181	1,568.85	71.0873	1,568.85	71.7485	1,568.85	68.0644	1,568.85	69.2818	1,568.85	64.4036	1,568.85	65.9371	1,568.85	64.2192	1,568.85	65.4748	1,568.85	67.5837	1,568.85	68.3569	1,568.85	70.1036	1,568.85	70.4454	1,568.85	71.0416
1,624.51	79.4292	1,624.51	79.4463	1,624.51	79.2426	1,624.51	79.2538	1,624.51	78.8903	1,624.51	78.7884	1,624.51	78.3594	1,624.51	78.0166	1,624.51	77.6152	1,624.51	76.962	1,624.51	76.6249	1,624.51	75.7084	1,624.51	75.4137	1,624.51	74.4293	1,624.51	74.0811	1,624.51	73.4476	1,624.51	72.913	1,624.51	73.1282	1,624.51	72.4577	1,624.51	73.3299	1,624.51	72.6733	1,624.51	73.2707	1,624.51	72.5995	1,624.51	72.1745	1,624.51	71.3926	1,624.51	69.5327	1,624.51	68.5032	1,624.51	65.5705	1,624.51	64.1464	1,624.51	64.8713	1,624.51	64.616	1,624.51	67.8145	1,624.51	68.3379	1,624.51	69.8751	1,624.51	70.3269	1,624.51	70.7247
1,681.64	79.1085	1,681.64	79.0557	1,681.64	78.8999	1,681.64	78.753	1,681.64	78.4939	1,681.64	78.2763	1,681.64	77.9742	1,681.64	77.6693	1,681.64	77.3274	1,681.64	76.8483	1,681.64	76.413	1,681.64	75.6675	1,681.64	75.1376	1,681.64	74.148	1,681.64	73.6682	1,681.64	72.6887	1,681.64	72.5006	1,681.64	71.889	1,681.64	72.0736	1,681.64	71.8896	1,681.64	72.091	1,681.64	72.0473	1,681.64	71.7911	1,681.64	71.4738	1,681.64	70.5527	1,681.64	69.4454	1,681.64	67.8521	1,681.64	65.4749	1,681.64	62.8574	1,681.64	63.6234	1,681.64	59.4881	1,681.64	67.5135	1,681.64	65.3779	1,681.64	69.8955	1,681.64	68.9393	1,681.64	70.3016
1,741.7	79.298	1,741.7	79.1988	1,741.7	79.1824	1,741.7	78.9109	1,741.7	78.8117	1,741.7	78.473	1,741.7	78.2205	1,741.7	77.9441	1,741.7	77.5252	1,741.7	77.2745	1,741.7	76.6946	1,741.7	76.2604	1,741.7	75.4944	1,741.7	74.7498	1,741.7	73.8198	1,741.7	72.9361	1,741.7	72.2127	1,741.7	71.5928	1,741.7	71.8707	1,741.7	71.4578	1,741.7	72.5893	1,741.7	71.6952	1,741.7	72.9658	1,741.7	70.9421	1,741.7	72.1644	1,741.7	68.5993	1,741.7	69.6286	1,741.7	64.9486	1,741.7	64.6733	1,741.7	63.2305	1,741.7	61.8718	1,741.7	65.9451	1,741.7	66.4146	1,741.7	68.5924	1,741.7	69.0358	1,741.7	69.6648
1,803.22	78.7886	1,803.22	78.6125	1,803.22	78.884	1,803.22	78.3508	1,803.22	78.7047	1,803.22	77.891	1,803.22	78.1099	1,803.22	77.2491	1,803.22	77.2257	1,803.22	76.4936	1,803.22	76.287	1,803.22	75.4815	1,803.22	75.2671	1,803.22	73.9947	1,803.22	73.9329	1,803.22	72.1589	1,803.22	72.3222	1,803.22	70.3906	1,803.22	71.2211	1,803.22	69.2212	1,803.22	71.5626	1,803.22	69.2938	1,803.22	72.4619	1,803.22	69.5541	1,803.22	72.4146	1,803.22	68.0815	1,803.22	70.5202	1,803.22	63.7866	1,803.22	65.5973	1,803.22	62.222	1,803.22	57.1423	1,803.22	65.7977	1,803.22	63.7297	1,803.22	67.3662	1,803.22	66.921	1,803.22	67.6687
1,866.21	80.8352	1,866.21	80.8712	1,866.21	80.7035	1,866.21	80.7613	1,866.21	80.3655	1,866.21	80.4391	1,866.21	79.6755	1,866.21	79.9177	1,866.21	78.6827	1,866.21	79.2142	1,866.21	77.5545	1,866.21	78.2991	1,866.21	76.2142	1,866.21	77.1482	1,866.21	74.3658	1,866.21	75.8471	1,866.21	72.1891	1,866.21	74.6955	1,866.21	71.0594	1,866.21	74.0372	1,866.21	71.521	1,866.21	73.7832	1,866.21	72.0308	1,866.21	73.4668	1,866.21	71.6325	1,866.21	72.4194	1,866.21	69.8449	1,866.21	69.7952	1,866.21	65.9533	1,866.21	66.1549	1,866.21	63.2752	1,866.21	67.3457	1,866.21	67.7941	1,866.21	70.013	1,866.21	70.4983	1,866.21	71.0645
1,932.13	77.409	1,932.13	77.7357	1,932.13	77.2176	1,932.13	77.9934	1,932.13	77.089	1,932.13	77.9864	1,932.13	76.6512	1,932.13	77.5743	1,932.13	75.8058	1,932.13	76.7798	1,932.13	74.8781	1,932.13	75.8002	1,932.13	74.0777	1,932.13	74.6401	1,932.13	73.0496	1,932.13	73.0846	1,932.13	71.3267	1,932.13	71.534	1,932.13	69.3393	1,932.13	70.8344	1,932.13	69.0041	1,932.13	70.6321	1,932.13	69.8041	1,932.13	70.1034	1,932.13	69.5936	1,932.13	68.6378	1,932.13	68.0119	1,932.13	65.7781	1,932.13	64.4278	1,932.13	65.0402	1,932.13	54.7558	1,932.13	67.5968	1,932.13	61.9885	1,932.13	69.0942	1,932.13	67.4945	1,932.13	69.2019
1,999.51	78.8118	1,999.51	78.7978	1,999.51	78.3891	1,999.51	78.4012	1,999.51	77.9323	1,999.51	78.0839	1,999.51	77.544	1,999.51	77.8343	1,999.51	76.9903	1,999.51	77.0861	1,999.51	76.2366	1,999.51	75.6881	1,999.51	75.3498	1,999.51	74.2435	1,999.51	74.2651	1,999.51	73.0154	1,999.51	72.82	1,999.51	71.8122	1,999.51	71.1817	1,999.51	71.0332	1,999.51	70.9777	1,999.51	70.5127	1,999.51	71.912	1,999.51	69.2477	1,999.51	71.4933	1,999.51	66.9558	1,999.51	69.2146	1,999.51	62.8228	1,999.51	65.4746	1,999.51	61.5043	1,999.51	59.5903	1,999.51	66.9884	1,999.51	62.9379	1,999.51	70.1268	1,999.51	68.9549	1,999.51	70.9087
2,069.82	78.9939	2,069.82	78.8641	2,069.82	78.3478	2,069.82	78.14	2,069.82	77.4505	2,069.82	77.4953	2,069.82	76.9051	2,069.82	77.208	2,069.82	76.4692	2,069.82	76.4873	2,069.82	75.6977	2,069.82	74.6482	2,069.82	74.5159	2,069.82	72.4607	2,069.82	72.9691	2,069.82	71.3259	2,069.82	71.1996	2,069.82	71.0365	2,069.82	69.4013	2,069.82	71.0864	2,069.82	69.1224	2,069.82	70.7131	2,069.82	70.7235	2,069.82	69.0719	2,069.82	70.7718	2,069.82	66.4225	2,069.82	67.8976	2,069.82	61.909	2,069.82	61.2516	2,069.82	59.2878	2,069.82	57.1981	2,069.82	67.1386	2,069.82	64.1627	2,069.82	70.6933	2,069.82	69.1644	2,069.82	71.2768
2,143.07	78.9655	2,143.07	78.7072	2,143.07	78.7323	2,143.07	78.0947	2,143.07	77.8959	2,143.07	77.1744	2,143.07	76.9187	2,143.07	76.3551	2,143.07	76.3769	2,143.07	75.6134	2,143.07	75.9711	2,143.07	74.2965	2,143.07	75.1396	2,143.07	72.6196	2,143.07	73.7108	2,143.07	70.9185	2,143.07	71.7293	2,143.07	68.7202	2,143.07	68.668	2,143.07	68.3569	2,143.07	65.4644	2,143.07	70.0103	2,143.07	67.9832	2,143.07	69.9932	2,143.07	69.8136	2,143.07	67.9327	2,143.07	69.0597	2,143.07	63.0145	2,143.07	65.259	2,143.07	50.485	2,143.07	55.8498	2,143.07	66.513	2,143.07	62.8347	2,143.07	70.3482	2,143.07	68.5985	2,143.07	70.7137
2,219.24	79.4736	2,219.24	79.4792	2,219.24	79.468	2,219.24	79.353	2,219.24	79.1047	2,219.24	78.6914	2,219.24	78.3103	2,219.24	77.5014	2,219.24	77.2913	2,219.24	76.3842	2,219.24	76.0334	2,219.24	75.8063	2,219.24	74.8977	2,219.24	75.1484	2,219.24	74.3006	2,219.24	73.6983	2,219.24	73.4532	2,219.24	71.3442	2,219.24	71.2053	2,219.24	68.8669	2,219.24	67.3594	2,219.24	68.54	2,219.24	65.1307	2,219.24	69.421	2,219.24	67.6477	2,219.24	68.4129	2,219.24	69.7857	2,219.24	64.5088	2,219.24	68.8138	2,219.24	52.5146	2,219.24	62.522	2,219.24	62.6107	2,219.24	56.7009	2,219.24	67.9759	2,219.24	65.1407	2,219.24	68.1571
2,296.88	79.3844	2,296.88	79.1635	2,296.88	79.0218	2,296.88	78.6157	2,296.88	78.6209	2,296.88	78.4167	2,296.88	78.278	2,296.88	77.9054	2,296.88	77.8135	2,296.88	76.1903	2,296.88	77.0162	2,296.88	74.35	2,296.88	75.6593	2,296.88	73.957	2,296.88	74.5027	2,296.88	73.1982	2,296.88	73.9673	2,296.88	70.5479	2,296.88	72.2082	2,296.88	68.0387	2,296.88	68.9007	2,296.88	68.1743	2,296.88	68.1633	2,296.88	69.1036	2,296.88	70.0182	2,296.88	68.6671	2,296.88	71.1626	2,296.88	65.1259	2,296.88	70.2856	2,296.88	55.7136	2,296.88	66.2443	2,296.88	50.756	2,296.88	57.763	2,296.88	60.9312	2,296.88	61.2453	2,296.88	63.6946
2,378.91	80.5691	2,378.91	80.2678	2,378.91	80.3947	2,378.91	79.5147	2,378.91	79.8198	2,378.91	78.5718	2,378.91	78.8468	2,378.91	77.5898	2,378.91	77.6036	2,378.91	76.3609	2,378.91	76.5944	2,378.91	75.0103	2,378.91	75.8756	2,378.91	73.8879	2,378.91	74.7528	2,378.91	72.5909	2,378.91	73.0078	2,378.91	70.8255	2,378.91	70.9676	2,378.91	68.8818	2,378.91	68.851	2,378.91	66.6223	2,378.91	68.3465	2,378.91	66.3729	2,378.91	70.09	2,378.91	67.4424	2,378.91	71.1812	2,378.91	65.9937	2,378.91	70.4788	2,378.91	61.317	2,378.91	67.0649	2,378.91	61.1791	2,378.91	56.1211	2,378.91	64.2734	2,378.91	58.6563	2,378.91	64.3783
2,462.4	80.4492	2,462.4	80.4524	2,462.4	80.141	2,462.4	80.1145	2,462.4	79.5862	2,462.4	79.3555	2,462.4	78.7005	2,462.4	77.9283	2,462.4	77.5188	2,462.4	75.9756	2,462.4	76.5145	2,462.4	74.3609	2,462.4	75.8932	2,462.4	73.4162	2,462.4	75.0784	2,462.4	72.3024	2,462.4	73.7895	2,462.4	70.6071	2,462.4	72.3418	2,462.4	68.6097	2,462.4	70.6971	2,462.4	67.5984	2,462.4	69.4362	2,462.4	68.0302	2,462.4	70.1939	2,462.4	67.4855	2,462.4	70.8935	2,462.4	65.0335	2,462.4	69.5287	2,462.4	59.8967	2,462.4	65.0699	2,462.4	59.2962	2,462.4	53.0471	2,462.4	64.7839	2,462.4	60.631	2,462.4	65.245
2,548.83	79.6422	2,548.83	79.4824	2,548.83	79.504	2,548.83	79.0668	2,548.83	79.0237	2,548.83	78.2967	2,548.83	78.3263	2,548.83	77.1418	2,548.83	77.3487	2,548.83	75.6437	2,548.83	76.1051	2,548.83	73.7771	2,548.83	75.1829	2,548.83	71.9907	2,548.83	74.4582	2,548.83	70.9792	2,548.83	73.1845	2,548.83	70.251	2,548.83	71.3982	2,548.83	68.8576	2,548.83	69.3137	2,548.83	66.5977	2,548.83	67.6463	2,548.83	66.2063	2,548.83	68.3684	2,548.83	66.705	2,548.83	69.6985	2,548.83	63.6963	2,548.83	69.5634	2,548.83	56.8823	2,548.83	66.2406	2,548.83	61.8606	2,548.83	50.7877	2,548.83	64.7282	2,548.83	62.0126	2,548.83	65.3517
2,639.65	80.2391	2,639.65	79.7749	2,639.65	80.3673	2,639.65	79.1474	2,639.65	80.0799	2,639.65	78.3964	2,639.65	79.433	2,639.65	77.3709	2,639.65	78.54	2,639.65	75.9949	2,639.65	77.3876	2,639.65	74.0942	2,639.65	76.1164	2,639.65	71.6172	2,639.65	75.05	2,639.65	69.5044	2,639.65	74.0132	2,639.65	68.6545	2,639.65	72.7151	2,639.65	67.6098	2,639.65	70.6341	2,639.65	66.0282	2,639.65	67.4839	2,639.65	65.1794	2,639.65	66.9164	2,639.65	64.7308	2,639.65	68.9486	2,639.65	63.2221	2,639.65	69.2521	2,639.65	53.2574	2,639.65	66.6608	2,639.65	60.9893	2,639.65	57.903	2,639.65	67.176	2,639.65	59.7837	2,639.65	66.5972
2,731.93	80.898	2,731.93	80.4201	2,731.93	80.9665	2,731.93	79.7956	2,731.93	80.4823	2,731.93	79.1838	2,731.93	79.7164	2,731.93	78.585	2,731.93	78.9151	2,731.93	77.6499	2,731.93	77.8414	2,731.93	76.017	2,731.93	76.4784	2,731.93	73.9086	2,731.93	75.243	2,731.93	72.0733	2,731.93	74.1315	2,731.93	71.0184	2,731.93	72.9	2,731.93	69.9395	2,731.93	71.2719	2,731.93	67.8257	2,731.93	68.8126	2,731.93	66.704	2,731.93	67.1555	2,731.93	67.0418	2,731.93	68.6279	2,731.93	65.4128	2,731.93	68.9829	2,731.93	60.8307	2,731.93	65.5388	2,731.93	52.5863	2,731.93	53.2837	2,731.93	64.3086	2,731.93	63.4092	2,731.93	66.6625
2,828.61	80.4878	2,828.61	80.3069	2,828.61	80.2712	2,828.61	79.6502	2,828.61	79.8023	2,828.61	78.8449	2,828.61	79.1161	2,828.61	78.11	2,828.61	78.368	2,828.61	77.2077	2,828.61	77.3257	2,828.61	75.8904	2,828.61	75.7856	2,828.61	74.0754	2,828.61	74.3004	2,828.61	71.6409	2,828.61	72.9987	2,828.61	69.5005	2,828.61	71.6901	2,828.61	69.0724	2,828.61	70.4436	2,828.61	68.5716	2,828.61	68.6283	2,828.61	67.2521	2,828.61	67.0003	2,828.61	66.1821	2,828.61	67.5442	2,828.61	65.1153	2,828.61	67.3825	2,828.61	60.3529	2,828.61	64.0018	2,828.61	58.9685	2,828.61	52.2781	2,828.61	66.616	2,828.61	58.7032	2,828.61	65.9869
2,928.22	80.8107	2,928.22	80.6247	2,928.22	80.4861	2,928.22	79.9755	2,928.22	79.9144	2,928.22	79.1261	2,928.22	79.4443	2,928.22	78.3473	2,928.22	78.8069	2,928.22	77.5751	2,928.22	77.4967	2,928.22	76.3844	2,928.22	75.9128	2,928.22	74.5397	2,928.22	74.5336	2,928.22	72.0998	2,928.22	72.9254	2,928.22	69.2345	2,928.22	71.6356	2,928.22	67.159	2,928.22	71.0707	2,928.22	66.7542	2,928.22	69.5897	2,928.22	67.2529	2,928.22	67.6964	2,928.22	68.0948	2,928.22	68.1484	2,928.22	66.564	2,928.22	68.4004	2,928.22	60.5976	2,928.22	65.9322	2,928.22	47.8184	2,928.22	56.2782	2,928.22	61.8643	2,928.22	57.5163	2,928.22	63.6276
3,030.76	80.5581	3,030.76	80.4601	3,030.76	80.3377	3,030.76	79.9472	3,030.76	80.1174	3,030.76	79.0846	3,030.76	79.7696	3,030.76	78.0088	3,030.76	78.9743	3,030.76	76.9089	3,030.76	77.6167	3,030.76	75.511	3,030.76	75.9742	3,030.76	73.5355	3,030.76	74.576	3,030.76	71.6228	3,030.76	73.0847	3,030.76	70.085	3,030.76	71.3588	3,030.76	67.905	3,030.76	70.3663	3,030.76	66.2107	3,030.76	68.8833	3,030.76	66.1735	3,030.76	66.4315	3,030.76	67.4363	3,030.76	67.1132	3,030.76	67.5131	3,030.76	68.5553	3,030.76	62.4748	3,030.76	66.9999	3,030.76	56.4616	3,030.76	60.4136	3,030.76	63.424	3,030.76	55.9228	3,030.76	64.2084
3,137.7	79.8208	3,137.7	79.7066	3,137.7	79.9332	3,137.7	79.5399	3,137.7	80.0472	3,137.7	79.0815	3,137.7	79.721	3,137.7	78.0061	3,137.7	78.6606	3,137.7	76.525	3,137.7	77.3137	3,137.7	75.0823	3,137.7	76.1538	3,137.7	73.4651	3,137.7	74.8478	3,137.7	71.7336	3,137.7	72.6983	3,137.7	70.5891	3,137.7	70.3475	3,137.7	69.4256	3,137.7	69.9142	3,137.7	66.7206	3,137.7	68.8443	3,137.7	65.49	3,137.7	66.0191	3,137.7	66.7758	3,137.7	67.1359	3,137.7	67.0855	3,137.7	68.9564	3,137.7	64.0422	3,137.7	67.4697	3,137.7	52.0298	3,137.7	61.5694	3,137.7	60.2482	3,137.7	47.9435	3,137.7	60.9176
3,249.02	79.1018	3,249.02	79.2995	3,249.02	79.4414	3,249.02	79.7621	3,249.02	79.5548	3,249.02	79.4153	3,249.02	79.0475	3,249.02	78.2563	3,249.02	78.1154	3,249.02	76.8503	3,249.02	77.3185	3,249.02	75.4573	3,249.02	76.1016	3,249.02	74.463	3,249.02	74.4908	3,249.02	73.4468	3,249.02	73.3337	3,249.02	71.2732	3,249.02	71.2448	3,249.02	68.9151	3,249.02	68.4555	3,249.02	67.4577	3,249.02	67.8242	3,249.02	66.0519	3,249.02	66.2411	3,249.02	66.1129	3,249.02	64.651	3,249.02	65.852	3,249.02	66.6972	3,249.02	62.7051	3,249.02	65.6944	3,249.02	60.1876	3,249.02	62.7866	3,249.02	62.9662	3,249.02	40.1058	3,249.02	61.535
3,363.28	79.2073	3,363.28	78.8725	3,363.28	79.4207	3,363.28	78.7981	3,363.28	78.9299	3,363.28	78.4602	3,363.28	78.3088	3,363.28	77.6122	3,363.28	78.0595	3,363.28	76.4966	3,363.28	77.2431	3,363.28	75.5766	3,363.28	75.4817	3,363.28	74.8378	3,363.28	73.8153	3,363.28	73.1985	3,363.28	72.4942	3,363.28	70.6335	3,363.28	70.7345	3,363.28	68.8897	3,363.28	68.9676	3,363.28	66.9691	3,363.28	68.1877	3,363.28	64.2707	3,363.28	66.8931	3,363.28	65.4714	3,363.28	65.1271	3,363.28	65.3667	3,363.28	66.5479	3,363.28	60.7264	3,363.28	66.9608	3,363.28	51.3132	3,363.28	63.3368	3,363.28	57.2992	3,363.28	51.1594	3,363.28	55.0101
3,481.93	79.5691	3,481.93	79.2447	3,481.93	79.3197	3,481.93	78.5724	3,481.93	78.6079	3,481.93	78.1628	3,481.93	78.031	3,481.93	77.7114	3,481.93	77.6143	3,481.93	76.5116	3,481.93	76.4484	3,481.93	75.1425	3,481.93	74.7488	3,481.93	73.9099	3,481.93	73.1909	3,481.93	72.1776	3,481.93	71.4542	3,481.93	69.7722	3,481.93	69.469	3,481.93	67.5346	3,481.93	67.341	3,481.93	66.5416	3,481.93	66.5748	3,481.93	65.0054	3,481.93	66.4274	3,481.93	64.908	3,481.93	64.1377	3,481.93	65.6484	3,481.93	64.6217	3,481.93	60.558	3,481.93	66.5906	3,481.93	51.312	3,481.93	62.2863	3,481.93	58.4355	3,481.93	42.6018	3,481.93	57.611
3,604.98	79.8622	3,604.98	79.6999	3,604.98	79.4841	3,604.98	79.1252	3,604.98	78.8973	3,604.98	78.5701	3,604.98	78.353	3,604.98	77.9615	3,604.98	77.6221	3,604.98	76.6948	3,604.98	76.4602	3,604.98	74.6045	3,604.98	74.9354	3,604.98	72.5497	3,604.98	73.2064	3,604.98	70.5776	3,604.98	71.3734	3,604.98	67.6859	3,604.98	68.8932	3,604.98	65.6284	3,604.98	66.2798	3,604.98	65.0086	3,604.98	65.2622	3,604.98	62.5014	3,604.98	63.1264	3,604.98	61.7277	3,604.98	61.6209	3,604.98	64.9067	3,604.98	65.2817	3,604.98	63.953	3,604.98	66.2582	3,604.98	57.131	3,604.98	61.9717	3,604.98	60.7375	3,604.98	50.2788	3,604.98	58.0544
3,732.42	79.5097	3,732.42	79.5812	3,732.42	79.0801	3,732.42	79.3492	3,732.42	78.3253	3,732.42	78.6134	3,732.42	77.516	3,732.42	77.7023	3,732.42	76.536	3,732.42	76.5576	3,732.42	75.4498	3,732.42	74.3448	3,732.42	73.8198	3,732.42	72.2407	3,732.42	71.5313	3,732.42	71.3388	3,732.42	70.2467	3,732.42	68.7117	3,732.42	68.7247	3,732.42	65.0398	3,732.42	65.5824	3,732.42	64.6144	3,732.42	63.8478	3,732.42	62.4367	3,732.42	62.7027	3,732.42	61.2055	3,732.42	57.8871	3,732.42	64.3589	3,732.42	58.0102	3,732.42	63.7691	3,732.42	61.9538	3,732.42	55.8777	3,732.42	62.2522	3,732.42	59.4673	3,732.42	51.902	3,732.42	59.7565
3,864.26	79.6505	3,864.26	79.5903	3,864.26	79.5404	3,864.26	79.3514	3,864.26	79.0033	3,864.26	78.5688	3,864.26	77.8566	3,864.26	77.4364	3,864.26	76.3055	3,864.26	76.3763	3,864.26	74.8749	3,864.26	74.4505	3,864.26	73.1583	3,864.26	71.9321	3,864.26	70.5773	3,864.26	70.6659	3,864.26	68.8583	3,864.26	68.9596	3,864.26	67.6865	3,864.26	65.0221	3,864.26	64.5129	3,864.26	63.8217	3,864.26	61.969	3,864.26	63.9422	3,864.26	62.9707	3,864.26	59.4819	3,864.26	61.7486	3,864.26	60.0975	3,864.26	57.8159	3,864.26	61.4218	3,864.26	60.9371	3,864.26	59.6114	3,864.26	62.0631	3,864.26	61.7244	3,864.26	49.0521	3,864.26	59.4394
4,000.49	79.3846	4,000.49	79.1305	4,000.49	79.2826	4,000.49	78.7551	4,000.49	78.5661	4,000.49	77.8571	4,000.49	77.3835	4,000.49	76.4175	4,000.49	75.8182	4,000.49	74.8461	4,000.49	73.8413	4,000.49	73.0241	4,000.49	71.5123	4,000.49	70.7699	4,000.49	68.8613	4,000.49	68.9633	4,000.49	66.4412	4,000.49	67.8942	4,000.49	65.0115	4,000.49	64.6769	4,000.49	62.5543	4,000.49	61.8139	4,000.49	58.2238	4,000.49	62.8316	4,000.49	60.5242	4,000.49	61.6567	4,000.49	61.3967	4,000.49	58.6662	4,000.49	58.2525	4,000.49	54.3575	4,000.49	59.574	4,000.49	52.9816	4,000.49	60.309	4,000.49	58.6423	4,000.49	54.2145	4,000.49	55.7903
4,141.11	79.4437	4,141.11	79.2322	4,141.11	79.3284	4,141.11	78.6834	4,141.11	78.4721	4,141.11	77.6252	4,141.11	77.0383	4,141.11	76.3415	4,141.11	75.2283	4,141.11	74.682	4,141.11	73.0384	4,141.11	72.8471	4,141.11	70.6488	4,141.11	70.6813	4,141.11	67.3447	4,141.11	67.8529	4,141.11	63.7327	4,141.11	66.2665	4,141.11	63.6566	4,141.11	63.4623	4,141.11	62.9008	4,141.11	58.4749	4,141.11	58.4156	4,141.11	60.5284	4,141.11	58.4605	4,141.11	61.203	4,141.11	59.5455	4,141.11	61.0193	4,141.11	55.6062	4,141.11	57.4863	4,141.11	57.4905	4,141.11	52.8987	4,141.11	60.2082	4,141.11	53.7057	4,141.11	54.0864	4,141.11	50.7801
4,287.6	79.1304	4,287.6	78.9288	4,287.6	78.8179	4,287.6	78.1309	4,287.6	78.2728	4,287.6	77.3056	4,287.6	77.1254	4,287.6	76.16	4,287.6	74.8294	4,287.6	74.3108	4,287.6	71.9626	4,287.6	72.1971	4,287.6	69.7139	4,287.6	69.939	4,287.6	66.7769	4,287.6	67.5055	4,287.6	61.8777	4,287.6	65.2844	4,287.6	57.9949	4,287.6	62.6821	4,287.6	57.3501	4,287.6	56.9424	4,287.6	52.8127	4,287.6	58.2786	4,287.6	53.1	4,287.6	60.3516	4,287.6	61.2703	4,287.6	61.3604	4,287.6	60.4113	4,287.6	61.817	4,287.6	56.2029	4,287.6	59.9605	4,287.6	57.8571	4,287.6	59.0565	4,287.6	54.7069	4,287.6	51.4548
4,438.48	79.6085	4,438.48	79.3673	4,438.48	79.2205	4,438.48	78.6266	4,438.48	78.375	4,438.48	77.4633	4,438.48	76.7237	4,438.48	75.9145	4,438.48	74.4011	4,438.48	73.87	4,438.48	71.8984	4,438.48	71.0047	4,438.48	68.2968	4,438.48	68.4518	4,438.48	63.6448	4,438.48	66.3871	4,438.48	58.1996	4,438.48	64.3145	4,438.48	52.8487	4,438.48	62.0966	4,438.48	55.2033	4,438.48	56.9499	4,438.48	55.5034	4,438.48	53.9028	4,438.48	45.3769	4,438.48	60.2661	4,438.48	54.8424	4,438.48	60.8826	4,438.48	56.7254	4,438.48	60.4092	4,438.48	53.7311	4,438.48	59.7071	4,438.48	55.951	4,438.48	58.441	4,438.48	56.1639	4,438.48	43.556
4,595.21	79.158	4,595.21	79.315	4,595.21	78.4673	4,595.21	78.8241	4,595.21	76.824	4,595.21	77.3743	4,595.21	74.5182	4,595.21	75.8806	4,595.21	71.7608	4,595.21	74.2162	4,595.21	68.3589	4,595.21	71.8615	4,595.21	64.2389	4,595.21	68.7842	4,595.21	59.2536	4,595.21	64.3736	4,595.21	55.6158	4,595.21	60.7334	4,595.21	54.6506	4,595.21	57.7935	4,595.21	52.4261	4,595.21	56.5117	4,595.21	54.141	4,595.21	52.1914	4,595.21	55.7353	4,595.21	58.6752	4,595.21	53.7159	4,595.21	59.8867	4,595.21	50.4005	4,595.21	55.525	4,595.21	48.8119	4,595.21	57.0645	4,595.21	56.5765	4,595.21	53.1539	4,595.21	57.2765	4,595.21	41.9668
4,756.35	78.2431	4,756.35	78.5546	4,756.35	77.5486	4,756.35	78.186	4,756.35	76.0981	4,756.35	77.1924	4,756.35	73.7049	4,756.35	75.5252	4,756.35	70.5203	4,756.35	73.1371	4,756.35	66.6404	4,756.35	71.4178	4,756.35	63.1011	4,756.35	69.0664	4,756.35	60.7116	4,756.35	64.0459	4,756.35	59.7913	4,756.35	60.4324	4,756.35	58.0515	4,756.35	58.3071	4,756.35	57.1958	4,756.35	56.1524	4,756.35	56.5643	4,756.35	55.6217	4,756.35	55.1819	4,756.35	53.0908	4,756.35	55.097	4,756.35	57.4809	4,756.35	55.6063	4,756.35	52.2564	4,756.35	53.4809	4,756.35	49.3666	4,756.35	55.245	4,756.35	44.5727	4,756.35	57.4808	4,756.35	52.8257
4,924.8	77.0695	4,924.8	77.2529	4,924.8	76.1501	4,924.8	77.0496	4,924.8	74.6921	4,924.8	76.6746	4,924.8	72.7222	4,924.8	75.5219	4,924.8	69.2648	4,924.8	73.0497	4,924.8	64.4317	4,924.8	70.1973	4,924.8	60.8817	4,924.8	68.0631	4,924.8	59.9406	4,924.8	65.4246	4,924.8	59.7722	4,924.8	62.7838	4,924.8	58.8913	4,924.8	61.4993	4,924.8	59.4363	4,924.8	57.4196	4,924.8	58.3568	4,924.8	56.2031	4,924.8	56.5788	4,924.8	54.0947	4,924.8	57.1524	4,924.8	55.0699	4,924.8	54.5548	4,924.8	57.9482	4,924.8	50.6971	4,924.8	54.7515	4,924.8	52.4552	4,924.8	52.0333	4,924.8	54.8671	4,924.8	52.0582
5,097.66	76.6668	5,097.66	76.6438	5,097.66	76.3263	5,097.66	76.2929	5,097.66	75.2268	5,097.66	75.9626	5,097.66	73.0631	5,097.66	75.5615	5,097.66	69.8711	5,097.66	74.1824	5,097.66	65.1711	5,097.66	71.5751	5,097.66	60.243	5,097.66	68.7893	5,097.66	60.034	5,097.66	66.3767	5,097.66	59.0462	5,097.66	63.4355	5,097.66	55.465	5,097.66	60.9465	5,097.66	53.7235	5,097.66	59.2657	5,097.66	55.2026	5,097.66	57.1402	5,097.66	53.9523	5,097.66	58.4992	5,097.66	53.1495	5,097.66	58.8605	5,097.66	53.7395	5,097.66	58.7213	5,097.66	49.1566	5,097.66	55.4922	5,097.66	51.5797	5,097.66	50.399	5,097.66	58.2853	5,097.66	54.2183
5,277.83	77.2307	5,277.83	77.1821	5,277.83	77.0432	5,277.83	76.6046	5,277.83	75.2619	5,277.83	74.7588	5,277.83	71.9788	5,277.83	73.143	5,277.83	68.0202	5,277.83	72.3815	5,277.83	60.0028	5,277.83	71.2129	5,277.83	52.2803	5,277.83	68.8072	5,277.83	53.073	5,277.83	63.973	5,277.83	55.9388	5,277.83	59.7414	5,277.83	58.0805	5,277.83	58.157	5,277.83	58.684	5,277.83	57.3888	5,277.83	57.2869	5,277.83	56.1209	5,277.83	54.1602	5,277.83	57.6017	5,277.83	55.619	5,277.83	58.208	5,277.83	52.3329	5,277.83	54.3786	5,277.83	48.5428	5,277.83	52.3075	5,277.83	52.7329	5,277.83	49.2886	5,277.83	57.9124	5,277.83	56.6649
5,463.87	77.1555	5,463.87	77.7182	5,463.87	75.3334	5,463.87	77.4044	5,463.87	72.2466	5,463.87	76.7538	5,463.87	67.7828	5,463.87	75.1072	5,463.87	61.305	5,463.87	71.7591	5,463.87	63.6041	5,463.87	69.2036	5,463.87	64.9527	5,463.87	67.2115	5,463.87	65.6465	5,463.87	63.4949	5,463.87	65.2361	5,463.87	60.9776	5,463.87	62.6236	5,463.87	58.342	5,463.87	60.6012	5,463.87	55.0575	5,463.87	60.1448	5,463.87	56.2392	5,463.87	59.7209	5,463.87	54.9311	5,463.87	60.4467	5,463.87	56.6286	5,463.87	59.7799	5,463.87	54.2961	5,463.87	56.3199	5,463.87	54.3185	5,463.87	54.4742	5,463.87	56.8894	5,463.87	57.3545	5,463.87	57.5444
5,657.23	76.1954	5,657.23	76.679	5,657.23	74.7878	5,657.23	76.2358	5,657.23	72.7983	5,657.23	76.0423	5,657.23	69.3372	5,657.23	75.5745	5,657.23	67.0943	5,657.23	73.571	5,657.23	66.9243	5,657.23	70.336	5,657.23	66.0129	5,657.23	67.6821	5,657.23	64.7287	5,657.23	65.9607	5,657.23	64.0436	5,657.23	64.0217	5,657.23	63.4555	5,657.23	60.443	5,657.23	61.6738	5,657.23	56.3861	5,657.23	60.6045	5,657.23	57.8195	5,657.23	59.0032	5,657.23	57.8377	5,657.23	56.7122	5,657.23	57.7275	5,657.23	56.3571	5,657.23	56.5903	5,657.23	55.4758	5,657.23	55.615	5,657.23	56.2757	5,657.23	53.0208	5,657.23	60.4621	5,657.23	58.3286
5,856.45	75.9088	5,856.45	76.1328	5,856.45	75.0806	5,856.45	76.1477	5,856.45	72.4267	5,856.45	75.464	5,856.45	69.3874	5,856.45	74.8402	5,856.45	67.8381	5,856.45	73.9467	5,856.45	67.7732	5,856.45	72.1311	5,856.45	67.6272	5,856.45	69.34	5,856.45	66.296	5,856.45	64.7123	5,856.45	65.8266	5,856.45	60.8169	5,856.45	64.8082	5,856.45	59.5254	5,856.45	62.1124	5,856.45	55.9032	5,856.45	60.571	5,856.45	58.0502	5,856.45	60.0847	5,856.45	59.9331	5,856.45	59.0038	5,856.45	61.0259	5,856.45	58.0217	5,856.45	59.4623	5,856.45	57.3572	5,856.45	56.7437	5,856.45	54.0484	5,856.45	54.0365	5,856.45	59.7787	5,856.45	60.7495
6,062.99	76.3063	6,062.99	76.5197	6,062.99	74.8663	6,062.99	75.963	6,062.99	73.095	6,062.99	75.7708	6,062.99	70.517	6,062.99	75.339	6,062.99	68.3337	6,062.99	73.8238	6,062.99	68.1811	6,062.99	72.2531	6,062.99	67.7003	6,062.99	70.3726	6,062.99	66.6678	6,062.99	67.0281	6,062.99	65.5594	6,062.99	63.7032	6,062.99	64.7233	6,062.99	61.5813	6,062.99	62.6143	6,062.99	58.8601	6,062.99	60.9381	6,062.99	58.6526	6,062.99	60.0631	6,062.99	60.4758	6,062.99	59.0335	6,062.99	61.2112	6,062.99	58.5546	6,062.99	60.638	6,062.99	56.9482	6,062.99	56.7982	6,062.99	51.9554	6,062.99	54.009	6,062.99	57.343	6,062.99	60.8987
6,276.86	76.5291	6,276.86	76.9981	6,276.86	75.0238	6,276.86	76.5406	6,276.86	72.2982	6,276.86	75.5489	6,276.86	70.852	6,276.86	75.0907	6,276.86	71.4131	6,276.86	74.181	6,276.86	70.9755	6,276.86	72.1798	6,276.86	69.3965	6,276.86	69.2456	6,276.86	67.2061	6,276.86	66.728	6,276.86	66.0103	6,276.86	64.4871	6,276.86	64.9515	6,276.86	62.007	6,276.86	62.7766	6,276.86	60.5039	6,276.86	61.407	6,276.86	59.1592	6,276.86	58.6899	6,276.86	60.5514	6,276.86	58.0751	6,276.86	61.6515	6,276.86	60.5455	6,276.86	59.4351	6,276.86	59.5379	6,276.86	55.6885	6,276.86	57.1647	6,276.86	54.6937	6,276.86	54.4023	6,276.86	60.4578
6,498.05	76.4266	6,498.05	76.7657	6,498.05	75.1474	6,498.05	76.448	6,498.05	73.5873	6,498.05	76.1198	6,498.05	72.368	6,498.05	75.609	6,498.05	71.6865	6,498.05	74.6432	6,498.05	71.184	6,498.05	73.3458	6,498.05	70.1371	6,498.05	70.9976	6,498.05	68.1899	6,498.05	67.9584	6,498.05	65.6272	6,498.05	64.8166	6,498.05	64.2639	6,498.05	62.0306	6,498.05	62.3269	6,498.05	60.2768	6,498.05	61.3568	6,498.05	61.1971	6,498.05	60.0457	6,498.05	61.4003	6,498.05	57.417	6,498.05	61.9114	6,498.05	60.8735	6,498.05	60.7448	6,498.05	58.8703	6,498.05	54.6606	6,498.05	56.7658	6,498.05	55.6604	6,498.05	56.7704	6,498.05	59.9573
6,726.56	76.9019	6,726.56	76.9993	6,726.56	75.6347	6,726.56	76.145	6,726.56	73.9422	6,726.56	75.6536	6,726.56	73.2549	6,726.56	75.7875	6,726.56	72.7804	6,726.56	74.9608	6,726.56	71.5314	6,726.56	73.2519	6,726.56	70.2957	6,726.56	71.2301	6,726.56	68.3493	6,726.56	69.2055	6,726.56	66.971	6,726.56	66.5511	6,726.56	65.4242	6,726.56	63.6986	6,726.56	61.2095	6,726.56	62.2595	6,726.56	61.4468	6,726.56	62.5987	6,726.56	63.035	6,726.56	62.8506	6,726.56	57.7042	6,726.56	61.6635	6,726.56	56.7957	6,726.56	60.3739	6,726.56	58.2972	6,726.56	56.8275	6,726.56	55.7111	6,726.56	51.9313	6,726.56	58.0341	6,726.56	60.9231
6,963.87	76.7462	6,963.87	76.8367	6,963.87	75.8103	6,963.87	76.1724	6,963.87	74.595	6,963.87	75.4797	6,963.87	73.8689	6,963.87	75.5389	6,963.87	73.0847	6,963.87	75.3293	6,963.87	72.8817	6,963.87	74.1349	6,963.87	72.0186	6,963.87	71.8049	6,963.87	69.7566	6,963.87	69.2797	6,963.87	66.8975	6,963.87	66.1266	6,963.87	65.604	6,963.87	62.924	6,963.87	64.2047	6,963.87	61.9905	6,963.87	61.106	6,963.87	62.9257	6,963.87	61.4706	6,963.87	61.9316	6,963.87	61.1804	6,963.87	61.7574	6,963.87	59.3	6,963.87	58.7059	6,963.87	59.8071	6,963.87	52.0783	6,963.87	58.4385	6,963.87	56.2454	6,963.87	55.7305	6,963.87	60.8233
7,209.96	76.6025	7,209.96	77.1215	7,209.96	75.6151	7,209.96	76.0649	7,209.96	75.7075	7,209.96	75.3074	7,209.96	75.507	7,209.96	75.7033	7,209.96	74.6842	7,209.96	75.344	7,209.96	73.1037	7,209.96	73.9669	7,209.96	71.76	7,209.96	72.063	7,209.96	69.8876	7,209.96	69.6205	7,209.96	67.8359	7,209.96	66.4469	7,209.96	66.7293	7,209.96	63.9744	7,209.96	63.0769	7,209.96	62.2713	7,209.96	61.6692	7,209.96	61.7229	7,209.96	61.7872	7,209.96	62.9179	7,209.96	58.7766	7,209.96	61.7063	7,209.96	55.962	7,209.96	60.1575	7,209.96	52.4372	7,209.96	56.5259	7,209.96	54.9098	7,209.96	60.0435	7,209.96	54.3507	7,209.96	62.3543
7,464.84	76.6887	7,464.84	76.8893	7,464.84	76.5113	7,464.84	76.2881	7,464.84	76.1452	7,464.84	75.2066	7,464.84	75.9098	7,464.84	75.7531	7,464.84	74.7457	7,464.84	75.5831	7,464.84	73.1259	7,464.84	73.8181	7,464.84	71.5377	7,464.84	71.749	7,464.84	68.7759	7,464.84	70.183	7,464.84	66.8192	7,464.84	67.1975	7,464.84	66.3554	7,464.84	63.5185	7,464.84	64.5073	7,464.84	61.8517	7,464.84	61.793	7,464.84	60.4036	7,464.84	61.8667	7,464.84	62.0412	7,464.84	59.0873	7,464.84	63.5323	7,464.84	56.9064	7,464.84	61.5119	7,464.84	57.6262	7,464.84	59.5805	7,464.84	58.7858	7,464.84	60.0161	7,464.84	55.6947	7,464.84	62.8766
7,727.05	77.2717	7,727.05	77.7974	7,727.05	76.427	7,727.05	76.4594	7,727.05	76.5766	7,727.05	75.0776	7,727.05	76.0604	7,727.05	75.8557	7,727.05	74.4868	7,727.05	76.4375	7,727.05	72.9389	7,727.05	75.6427	7,727.05	71.5273	7,727.05	72.8627	7,727.05	70.06	7,727.05	70.154	7,727.05	68.7323	7,727.05	67.7701	7,727.05	67.8548	7,727.05	64.1929	7,727.05	66.1347	7,727.05	63.1283	7,727.05	64.8989	7,727.05	62.3033	7,727.05	63.7339	7,727.05	61.1196	7,727.05	60.8272	7,727.05	62.9073	7,727.05	61.2114	7,727.05	61.6087	7,727.05	58.5927	7,727.05	61.4564	7,727.05	60.6239	7,727.05	60.3967	7,727.05	55.4402	7,727.05	63.8518
7,999.51	77.1369	7,999.51	77.7277	7,999.51	77.0403	7,999.51	77.1612	7,999.51	77.088	7,999.51	76.1484	7,999.51	76.0073	7,999.51	76.3735	7,999.51	74.6183	7,999.51	77.0201	7,999.51	74.0591	7,999.51	76.1833	7,999.51	72.8522	7,999.51	73.8265	7,999.51	71.3736	7,999.51	71.6277	7,999.51	70.4829	7,999.51	68.5406	7,999.51	69.0485	7,999.51	65.8741	7,999.51	67.2945	7,999.51	63.5283	7,999.51	65.5554	7,999.51	60.5649	7,999.51	64.4572	7,999.51	61.9494	7,999.51	61.381	7,999.51	66.4346	7,999.51	60.9138	7,999.51	63.9284	7,999.51	62.4674	7,999.51	60.6194	7,999.51	60.9158	7,999.51	62.2141	7,999.51	59.9748	7,999.51	64.3323
8,282.23	77.2614	8,282.23	77.8706	8,282.23	77.3737	8,282.23	77.4767	8,282.23	77.287	8,282.23	76.5381	8,282.23	75.7058	8,282.23	76.8468	8,282.23	75.1532	8,282.23	77.6073	8,282.23	75.238	8,282.23	77.1663	8,282.23	74.5465	8,282.23	74.9467	8,282.23	73.1284	8,282.23	72.2737	8,282.23	71.2832	8,282.23	69.665	8,282.23	70.1327	8,282.23	66.4521	8,282.23	68.2573	8,282.23	64.4003	8,282.23	65.9716	8,282.23	65.1306	8,282.23	64.9816	8,282.23	62.5211	8,282.23	63.2514	8,282.23	63.0147	8,282.23	63.3076	8,282.23	61.6811	8,282.23	62.9522	8,282.23	60.7272	8,282.23	61.3041	8,282.23	59.9449	8,282.23	59.1252	8,282.23	62.3864
8,573.73	77.6802	8,573.73	78.0116	8,573.73	77.6939	8,573.73	77.7997	8,573.73	77.026	8,573.73	76.9168	8,573.73	75.8501	8,573.73	77.1289	8,573.73	76.2139	8,573.73	78.0572	8,573.73	76.4379	8,573.73	77.3627	8,573.73	75.2978	8,573.73	75.531	8,573.73	73.0495	8,573.73	72.7128	8,573.73	71.5077	8,573.73	69.3904	8,573.73	69.9602	8,573.73	67.6061	8,573.73	67.8455	8,573.73	64.6986	8,573.73	66.749	8,573.73	62.9946	8,573.73	64.8505	8,573.73	64.6238	8,573.73	62.1429	8,573.73	64.8381	8,573.73	62.1698	8,573.73	61.437	8,573.73	62.3538	8,573.73	60.262	8,573.73	59.346	8,573.73	56.6654	8,573.73	57.8636	8,573.73	58.7032
8,876.95	77.8827	8,876.95	78.197	8,876.95	77.6398	8,876.95	77.7428	8,876.95	76.4848	8,876.95	76.6786	8,876.95	76.2672	8,876.95	77.2826	8,876.95	77.3352	8,876.95	78.0812	8,876.95	76.8719	8,876.95	77.5967	8,876.95	75.326	8,876.95	75.5585	8,876.95	72.9635	8,876.95	72.6414	8,876.95	70.9133	8,876.95	69.4148	8,876.95	69.6585	8,876.95	65.7968	8,876.95	67.5883	8,876.95	64.8757	8,876.95	65.0047	8,876.95	64.8326	8,876.95	64.5697	8,876.95	63.1669	8,876.95	62.2142	8,876.95	61.3647	8,876.95	61.7937	8,876.95	59.3339	8,876.95	61.9446	8,876.95	54.9541	8,876.95	58.7636	8,876.95	54.2751	8,876.95	59.8348	8,876.95	60.2355
9,188.96	77.2146	9,188.96	77.9811	9,188.96	76.8308	9,188.96	77.7497	9,188.96	76.6176	9,188.96	76.5932	9,188.96	77.1532	9,188.96	76.7349	9,188.96	77.4645	9,188.96	77.5996	9,188.96	76.4624	9,188.96	77.1835	9,188.96	74.6785	9,188.96	75.6175	9,188.96	72.3737	9,188.96	72.8772	9,188.96	70.6324	9,188.96	69.3553	9,188.96	68.6465	9,188.96	66.4682	9,188.96	66.8633	9,188.96	63.4981	9,188.96	65.6414	9,188.96	63.5911	9,188.96	64.1235	9,188.96	64.2116	9,188.96	60.4424	9,188.96	62.7779	9,188.96	58.9521	9,188.96	60.5244	9,188.96	61.9101	9,188.96	57.3275	9,188.96	57.0203	9,188.96	54.5937	9,188.96	59.2204	9,188.96	60.3161
9,514.16	76.4818	9,514.16	77.0143	9,514.16	77.007	9,514.16	77.4742	9,514.16	77.1861	9,514.16	76.5784	9,514.16	77.5098	9,514.16	76.3625	9,514.16	77.2911	9,514.16	77.1329	9,514.16	76.0709	9,514.16	77.0557	9,514.16	74.1662	9,514.16	75.2027	9,514.16	72.0049	9,514.16	72.9374	9,514.16	70.1276	9,514.16	69.7686	9,514.16	68.3922	9,514.16	65.5226	9,514.16	67.334	9,514.16	62.8749	9,514.16	64.9273	9,514.16	63.197	9,514.16	63.9671	9,514.16	63.8183	9,514.16	63.1092	9,514.16	60.4049	9,514.16	59.0587	9,514.16	59.5664	9,514.16	63.013	9,514.16	55.8237	9,514.16	57.3477	9,514.16	52.941	9,514.16	57.9586	9,514.16	58.0503
9,849.61	76.8822	9,849.61	76.8142	9,849.61	77.0719	9,849.61	76.7719	9,849.61	77.5182	9,849.61	76.0777	9,849.61	77.7131	9,849.61	75.7561	9,849.61	76.9191	9,849.61	76.8348	9,849.61	75.5719	9,849.61	76.6676	9,849.61	73.9522	9,849.61	74.9819	9,849.61	71.9058	9,849.61	72.723	9,849.61	70.4613	9,849.61	69.3439	9,849.61	68.5633	9,849.61	65.5334	9,849.61	66.6688	9,849.61	62.929	9,849.61	65.4533	9,849.61	60.9342	9,849.61	64.5234	9,849.61	64.1531	9,849.61	63.5048	9,849.61	60.1602	9,849.61	56.2028	9,849.61	56.7742	9,849.61	60.6909	9,849.61	54.5651	9,849.61	56.319	9,849.61	54.8761	9,849.61	57.8299	9,849.61	57.9333
10,196.8	76.938	10,196.8	76.4166	10,196.8	77.3353	10,196.8	76.5502	10,196.8	77.6156	10,196.8	75.8564	10,196.8	77.3232	10,196.8	74.7997	10,196.8	76.0873	10,196.8	75.769	10,196.8	75.0687	10,196.8	75.856	10,196.8	73.9932	10,196.8	74.0502	10,196.8	72.0751	10,196.8	71.6156	10,196.8	70.8227	10,196.8	68.11	10,196.8	69.2011	10,196.8	64.4818	10,196.8	66.9741	10,196.8	62.8862	10,196.8	65.6754	10,196.8	61.1741	10,196.8	63.3923	10,196.8	62.5822	10,196.8	62.462	10,196.8	61.4779	10,196.8	57.134	10,196.8	56.6372	10,196.8	61.0925	10,196.8	52.4088	10,196.8	56.917	10,196.8	55.5176	10,196.8	57.6775	10,196.8	57.2785
10,555.7	77.8157	10,555.7	76.433	10,555.7	77.7981	10,555.7	75.7595	10,555.7	77.3055	10,555.7	75.2933	10,555.7	76.5932	10,555.7	74.093	10,555.7	75.7037	10,555.7	74.6681	10,555.7	75.6317	10,555.7	74.7629	10,555.7	74.2834	10,555.7	72.9726	10,555.7	71.5959	10,555.7	69.8661	10,555.7	70.1528	10,555.7	66.5969	10,555.7	68.2125	10,555.7	62.5409	10,555.7	65.3551	10,555.7	62.2371	10,555.7	64.7366	10,555.7	59.9001	10,555.7	62.7246	10,555.7	62.3274	10,555.7	60.8647	10,555.7	58.7202	10,555.7	57.22	10,555.7	54.7495	10,555.7	54.6886	10,555.7	49.8902	10,555.7	55.1632	10,555.7	53.7518	10,555.7	55.0112	10,555.7	56.0711
10,927.7	77.9665	10,927.7	76.8986	10,927.7	77.3738	10,927.7	75.5034	10,927.7	77.1445	10,927.7	75.1695	10,927.7	76.5437	10,927.7	73.8033	10,927.7	75.6402	10,927.7	73.4782	10,927.7	75.4083	10,927.7	73.4844	10,927.7	73.6787	10,927.7	71.6502	10,927.7	70.8352	10,927.7	68.8382	10,927.7	69.4581	10,927.7	65.477	10,927.7	67.3835	10,927.7	59.8089	10,927.7	64.6595	10,927.7	59.6814	10,927.7	64.473	10,927.7	58.2565	10,927.7	61.93	10,927.7	58.2813	10,927.7	59.1184	10,927.7	57.1345	10,927.7	57.5545	10,927.7	52.6252	10,927.7	56.7682	10,927.7	49.5077	10,927.7	53.6146	10,927.7	53.6105	10,927.7	53.7535	10,927.7	54.3464
11,313	77.8087	11,313	77.2218	11,313	77.0168	11,313	75.5386	11,313	76.8366	11,313	74.6029	11,313	76.1457	11,313	73.0139	11,313	75.7973	11,313	72.8839	11,313	75.3542	11,313	73.1574	11,313	72.9573	11,313	71.0669	11,313	69.7453	11,313	68.0724	11,313	68.353	11,313	64.447	11,313	66.8802	11,313	58.0337	11,313	64.1682	11,313	56.697	11,313	63.038	11,313	55.3893	11,313	60.8017	11,313	56.2987	11,313	57.524	11,313	52.9825	11,313	56.8612	11,313	47.9878	11,313	58.0373	11,313	44.6426	11,313	53.0219	11,313	51.2017	11,313	50.0113	11,313	53.5996
11,712.9	77.4921	11,712.9	76.9963	11,712.9	77.0674	11,712.9	75.7769	11,712.9	77.0842	11,712.9	74.8944	11,712.9	76.2739	11,712.9	72.1297	11,712.9	75.6552	11,712.9	71.5061	11,712.9	74.1932	11,712.9	72.5843	11,712.9	71.6025	11,712.9	71.1049	11,712.9	69.5709	11,712.9	68.0726	11,712.9	68.7582	11,712.9	64.396	11,712.9	66.6884	11,712.9	59.3761	11,712.9	64.1209	11,712.9	57.482	11,712.9	62.8285	11,712.9	55.2509	11,712.9	58.9513	11,712.9	56.7956	11,712.9	58.6711	11,712.9	49.7286	11,712.9	56.1858	11,712.9	46.6719	11,712.9	56.5098	11,712.9	46.9665	11,712.9	53.5526	11,712.9	55.9513	11,712.9	54.0316	11,712.9	51.425
12,126	77.5974	12,126	76.8681	12,126	77.3581	12,126	75.2886	12,126	77.0754	12,126	74.7966	12,126	75.7825	12,126	72.4787	12,126	74.9029	12,126	69.9536	12,126	73.519	12,126	70.7129	12,126	72.0138	12,126	70.1023	12,126	69.8025	12,126	67.0807	12,126	68.7059	12,126	63.7092	12,126	66.8167	12,126	59.5825	12,126	64.1314	12,126	56.2664	12,126	62.346	12,126	55.041	12,126	58.7614	12,126	54.0439	12,126	58.7529	12,126	51.9214	12,126	55.5048	12,126	46.8841	12,126	53.9922	12,126	45.7291	12,126	48.4846	12,126	55.0222	12,126	53.8709	12,126	50.7809
12,553.7	77.8291	12,553.7	77.01	12,553.7	77.402	12,553.7	74.9212	12,553.7	76.5704	12,553.7	74.2103	12,553.7	75.3441	12,553.7	72.607	12,553.7	74.3551	12,553.7	69.4365	12,553.7	72.9786	12,553.7	69.1456	12,553.7	71.5036	12,553.7	68.6338	12,553.7	68.6058	12,553.7	65.8001	12,553.7	67.3092	12,553.7	62.494	12,553.7	65.2631	12,553.7	58.1635	12,553.7	62.7285	12,553.7	54.2869	12,553.7	60.1397	12,553.7	53.34	12,553.7	56.7943	12,553.7	54.5334	12,553.7	58.0867	12,553.7	49.2012	12,553.7	54.9161	12,553.7	46.9826	12,553.7	52.6833	12,553.7	43.6351	12,553.7	48.0473	12,553.7	54.9987	12,553.7	53.4464	12,553.7	49.7402
12,996.1	77.9224	12,996.1	77.1436	12,996.1	77.0815	12,996.1	74.7016	12,996.1	76.0866	12,996.1	73.6907	12,996.1	74.8976	12,996.1	72.1636	12,996.1	73.4543	12,996.1	68.947	12,996.1	71.8772	12,996.1	68.2943	12,996.1	69.9948	12,996.1	67.3616	12,996.1	66.3176	12,996.1	64.5049	12,996.1	65.1462	12,996.1	61.3478	12,996.1	62.8981	12,996.1	56.329	12,996.1	60.1616	12,996.1	53.8635	12,996.1	57.9798	12,996.1	51.6081	12,996.1	54.6991	12,996.1	52.7696	12,996.1	55.6794	12,996.1	45.7103	12,996.1	54.3827	12,996.1	46.091	12,996.1	51.6363	12,996.1	44.4	12,996.1	49.1854	12,996.1	51.4462	12,996.1	49.0727	12,996.1	45.1233
13,454.6	77.3466	13,454.6	76.7661	13,454.6	76.6328	13,454.6	74.4747	13,454.6	75.9344	13,454.6	72.9122	13,454.6	74.7241	13,454.6	70.8481	13,454.6	73.1463	13,454.6	67.3377	13,454.6	71.6341	13,454.6	66.466	13,454.6	69.3046	13,454.6	65.2022	13,454.6	65.2657	13,454.6	62.9427	13,454.6	64.3148	13,454.6	59.9526	13,454.6	62.0293	13,454.6	53.6376	13,454.6	58.7559	13,454.6	50.9462	13,454.6	57.2214	13,454.6	50.4295	13,454.6	54.7043	13,454.6	50.7432	13,454.6	52.2555	13,454.6	40.4826	13,454.6	52.3075	13,454.6	42.5203	13,454.6	51.0148	13,454.6	38.223	13,454.6	49.1893	13,454.6	49.1622	13,454.6	45.3737	13,454.6	44.0696
13,929.2	76.9063	13,929.2	76.3783	13,929.2	76.3235	13,929.2	74.069	13,929.2	75.7484	13,929.2	72.3734	13,929.2	74.4976	13,929.2	70.1999	13,929.2	72.8389	13,929.2	66.6322	13,929.2	70.8255	13,929.2	65.0401	13,929.2	68.0659	13,929.2	63.1317	13,929.2	64.3977	13,929.2	61.0011	13,929.2	63.5881	13,929.2	57.299	13,929.2	60.88	13,929.2	51.9913	13,929.2	58.0251	13,929.2	49.0164	13,929.2	56.2534	13,929.2	48.301	13,929.2	54.5326	13,929.2	47.8632	13,929.2	51.1692	13,929.2	41.1223	13,929.2	48.4976	13,929.2	37.7003	13,929.2	49.2197	13,929.2	30.1141	13,929.2	49.3594	13,929.2	45.5782	13,929.2	35.7299	13,929.2	41.4254
14,419.9	76.8432	14,419.9	76.32	14,419.9	76.3802	14,419.9	74.0723	14,419.9	75.8534	14,419.9	72.2733	14,419.9	74.1446	14,419.9	70.0117	14,419.9	72.1176	14,419.9	66.5629	14,419.9	70.127	14,419.9	64.6015	14,419.9	67.3963	14,419.9	62.4955	14,419.9	63.745	14,419.9	60.3012	14,419.9	62.014	14,419.9	55.9934	14,419.9	59.2532	14,419.9	50.2367	14,419.9	56.3968	14,419.9	46.6619	14,419.9	53.1757	14,419.9	46.3175	14,419.9	51.0897	14,419.9	43.0141	14,419.9	51.147	14,419.9	38.3322	14,419.9	45.985	14,419.9	39.0553	14,419.9	48.4965	14,419.9	33.4745	14,419.9	47.6529	14,419.9	47.0851	14,419.9	40.3694	14,419.9	40.9304
14,928.2	77.1517	14,928.2	76.6514	14,928.2	76.5694	14,928.2	74.5845	14,928.2	75.5098	14,928.2	72.8493	14,928.2	73.5466	14,928.2	70.4221	14,928.2	71.5969	14,928.2	66.4492	14,928.2	69.1314	14,928.2	64.0517	14,928.2	66.1769	14,928.2	62.1608	14,928.2	61.7191	14,928.2	59.1005	14,928.2	60.2551	14,928.2	54.5285	14,928.2	57.2961	14,928.2	50.4813	14,928.2	53.8649	14,928.2	43.0451	14,928.2	49.1602	14,928.2	48.6077	14,928.2	46.7722	14,928.2	41.2353	14,928.2	50.2508	14,928.2	38.4836	14,928.2	45.2134	14,928.2	38.5402	14,928.2	44.9786	14,928.2	36.5352	14,928.2	43.4291	14,928.2	45.5822	14,928.2	43.6271	14,928.2	38.1248
15,455.6	77.1473	15,455.6	76.9018	15,455.6	76.3355	15,455.6	74.8481	15,455.6	75.0761	15,455.6	73.1955	15,455.6	73.161	15,455.6	70.9914	15,455.6	70.8956	15,455.6	66.3292	15,455.6	68.0429	15,455.6	62.8862	15,455.6	65.0402	15,455.6	61.2462	15,455.6	60.3342	15,455.6	58.6748	15,455.6	59.0054	15,455.6	53.1574	15,455.6	54.7988	15,455.6	50.3372	15,455.6	52.1486	15,455.6	42.3724	15,455.6	45.7148	15,455.6	48.4917	15,455.6	43.1754	15,455.6	39.4684	15,455.6	48.2298	15,455.6	41.9879	15,455.6	45.3755	15,455.6	30.6594	15,455.6	40.2829	15,455.6	17.6901	15,455.6	42.001	15,455.6	42.9735	15,455.6	42.4566	15,455.6	37.0977
16,000.5	77.1399	16,000.5	76.7654	16,000.5	76.2127	16,000.5	74.7007	16,000.5	74.8793	16,000.5	73.0626	16,000.5	72.8836	16,000.5	70.7315	16,000.5	70.1026	16,000.5	66.3449	16,000.5	67.4074	16,000.5	62.4507	16,000.5	63.6859	16,000.5	58.4561	16,000.5	58.349	16,000.5	56.5742	16,000.5	55.596	16,000.5	49.9936	16,000.5	51.3788	16,000.5	44.6686	16,000.5	49.1755	16,000.5	42.3424	16,000.5	43.9767	16,000.5	43.4254	16,000.5	39.4784	16,000.5	36.0435	16,000.5	44.442	16,000.5	41.9247	16,000.5	43.4139	16,000.5	33.2105	16,000.5	37.0296	16,000.5	32.9331	16,000.5	37.6593	16,000.5	40.9439	16,000.5	36.1659	16,000.5	36.7633
16,564.5	76.8827	16,564.5	76.3228	16,564.5	76.1053	16,564.5	74.2452	16,564.5	74.8634	16,564.5	72.5262	16,564.5	72.5223	16,564.5	69.8567	16,564.5	69.6309	16,564.5	65.3647	16,564.5	66.6669	16,564.5	61.1218	16,564.5	62.2734	16,564.5	55.8633	16,564.5	56.1376	16,564.5	53.1621	16,564.5	53.3549	16,564.5	45.6458	16,564.5	49.13	16,564.5	40.7345	16,564.5	45.0925	16,564.5	39.5472	16,564.5	35.615	16,564.5	38.0247	16,564.5	36.4529	16,564.5	32.8846	16,564.5	41.5447	16,564.5	36.8076	16,564.5	39.8123	16,564.5	35.8055	16,564.5	31.4201	16,564.5	36.6271	16,564.5	37.6627	16,564.5	36.8342	16,564.5	25.3999	16,564.5	32.9286
17,148.9	76.7803	17,148.9	75.9948	17,148.9	76.1194	17,148.9	73.7063	17,148.9	74.9351	17,148.9	71.9079	17,148.9	72.3631	17,148.9	68.8587	17,148.9	69.261	17,148.9	64.0281	17,148.9	65.6266	17,148.9	59.173	17,148.9	60.8042	17,148.9	52.8223	17,148.9	53.3253	17,148.9	45.5795	17,148.9	50.8811	17,148.9	30.9809	17,148.9	44.6219	17,148.9	38.7846	17,148.9	42.8537	17,148.9	32.0963	17,148.9	17.9657	17,148.9	37.094	17,148.9	34.364	17,148.9	26.082	17,148.9	39.2881	17,148.9	32.7834	17,148.9	35.732	17,148.9	36.3222	17,148.9	32.6197	17,148.9	37.8581	17,148.9	37.8935	17,148.9	33.0145	17,148.9	29.5348	17,148.9	31.5808
17,752.4	76.8643	17,752.4	75.9657	17,752.4	76.1907	17,752.4	73.2666	17,752.4	74.8753	17,752.4	71.1642	17,752.4	72.1526	17,752.4	67.734	17,752.4	68.7097	17,752.4	61.7328	17,752.4	64.3363	17,752.4	55.95	17,752.4	58.9726	17,752.4	47.7248	17,752.4	49.2081	17,752.4	25.9297	17,752.4	44.551	17,752.4	38.3904	17,752.4	28.215	17,752.4	36.0822	17,752.4	39.6644	17,752.4	36.2178	17,752.4	38.7178	17,752.4	34.5931	17,752.4	34.2768	17,752.4	25.2231	17,752.4	31.1968	17,752.4	33.4478	17,752.4	37.0658	17,752.4	36.5988	17,752.4	39.4273	17,752.4	37.1695	17,752.4	40.6038	17,752.4	30.5958	17,752.4	19.8689	17,752.4	29.4321
18,379.4	77.1186	18,379.4	76.099	18,379.4	76.492	18,379.4	73.1641	18,379.4	75.0776	18,379.4	70.5564	18,379.4	72.0694	18,379.4	66.5728	18,379.4	68.2829	18,379.4	59.3171	18,379.4	63.2272	18,379.4	50.2693	18,379.4	55.9667	18,379.4	32.275	18,379.4	40.252	18,379.4	46.6917	18,379.4	28.5387	18,379.4	45.2766	18,379.4	40.3736	18,379.4	39.4272	18,379.4	39.9726	18,379.4	40.2866	18,379.4	44.5071	18,379.4	35.3511	18,379.4	40.687	18,379.4	32.2973	18,379.4	36.4184	18,379.4	24.3676	18,379.4	39.3651	18,379.4	32.4062	18,379.4	41.9396	18,379.4	39.1868	18,379.4	42.0805	18,379.4	28.6942	18,379.4	33.3281	18,379.4	29.5555
19,026.9	77.3592	19,026.9	76.1901	19,026.9	76.6026	19,026.9	72.9679	19,026.9	74.9496	19,026.9	69.9344	19,026.9	71.841	19,026.9	65.2083	19,026.9	67.5742	19,026.9	56.067	19,026.9	61.34	19,026.9	37.0228	19,026.9	53.1686	19,026.9	49.2423	19,026.9	37.801	19,026.9	52.0709	19,026.9	43.9899	19,026.9	48.2481	19,026.9	47.0117	19,026.9	43.3823	19,026.9	43.5755	19,026.9	42.2662	19,026.9	47.2132	19,026.9	38.841	19,026.9	43.6647	19,026.9	34.9395	19,026.9	38.621	19,026.9	20.5888	19,026.9	41.2252	19,026.9	28.373	19,026.9	43.6411	19,026.9	40.1625	19,026.9	42.7657	19,026.9	27.3712	19,026.9	29.1646	19,026.9	34.6104
19,697.8	77.0595	19,697.8	75.8549	19,697.8	76.1981	19,697.8	72.2666	19,697.8	74.5072	19,697.8	68.7621	19,697.8	71.0509	19,697.8	63.1252	19,697.8	66.5139	19,697.8	50.2608	19,697.8	59.0298	19,697.8	43.9378	19,697.8	45.0123	19,697.8	53.5102	19,697.8	48.3876	19,697.8	54.9211	19,697.8	50.1081	19,697.8	49.8452	19,697.8	50.47	19,697.8	44.429	19,697.8	45.493	19,697.8	44.1695	19,697.8	49.3041	19,697.8	40.2315	19,697.8	45.2744	19,697.8	37.0584	19,697.8	37.507	19,697.8	36.2578	19,697.8	41.616	19,697.8	22.3458	19,697.8	44.7352	19,697.8	42.2095	19,697.8	43.6623	19,697.8	29.1972	19,697.8	28.5963	19,697.8	36.9799
19,999.5	76.9655	19,999.5	75.6317	19,999.5	76.1238	19,999.5	71.5842	19,999.5	74.2714	19,999.5	67.7674	19,999.5	70.7012	19,999.5	61.8019	19,999.5	66.0488	19,999.5	43.6543	19,999.5	57.2419	19,999.5	48.5099	19,999.5	39.5269	19,999.5	54.1131	19,999.5	49.796	19,999.5	56.2073	19,999.5	52.0189	19,999.5	51.4211	19,999.5	51.4399	19,999.5	44.5644	19,999.5	46.62	19,999.5	45.9537	19,999.5	50.6657	19,999.5	38.9954	19,999.5	44.195	19,999.5	41.1596	19,999.5	42.8036	19,999.5	43.6904	19,999.5	44.7085	19,999.5	32.8639	19,999.5	41.8575	19,999.5	42.3053	19,999.5	44.5814	19,999.5	31.9118	19,999.5	35.2486	19,999.5	35.612
