"SPL Vertical"																																																																							
"On-Axis"		"10°"		"-10°"		"20°"		"-20°"		"30°"		"-30°"		"40°"		"-40°"		"50°"		"-50°"		"60°"		"-60°"		"70°"		"-70°"		"80°"		"-80°"		"90°"		"-90°"		"100°"		"-100°"		"110°"		"-110°"		"120°"		"-120°"		"130°"		"-130°"		"140°"		"-140°"		"150°"		"-150°"		"160°"		"-160°"		"170°"		"-170°"		"180°"	
"Frequency [Hz]"	"Sound Pessure Level [dB]  / [2.83V 1m] "	"Frequency [Hz]"	"Sound Pessure Level [dB]  / [2.83V 1m] "	"Frequency [Hz]"	"Sound Pessure Level [dB]  / [2.83V 1m] "	"Frequency [Hz]"	"Sound Pessure Level [dB]  / [2.83V 1m] "	"Frequency [Hz]"	"Sound Pessure Level [dB]  / [2.83V 1m] "	"Frequency [Hz]"	"Sound Pessure Level [dB]  / [2.83V 1m] "	"Frequency [Hz]"	"Sound Pessure Level [dB]  / [2.83V 1m] "	"Frequency [Hz]"	"Sound Pessure Level [dB]  / [2.83V 1m] "	"Frequency [Hz]"	"Sound Pessure Level [dB]  / [2.83V 1m] "	"Frequency [Hz]"	"Sound Pessure Level [dB]  / [2.83V 1m] "	"Frequency [Hz]"	"Sound Pessure Level [dB]  / [2.83V 1m] "	"Frequency [Hz]"	"Sound Pessure Level [dB]  / [2.83V 1m] "	"Frequency [Hz]"	"Sound Pessure Level [dB]  / [2.83V 1m] "	"Frequency [Hz]"	"Sound Pessure Level [dB]  / [2.83V 1m] "	"Frequency [Hz]"	"Sound Pessure Level [dB]  / [2.83V 1m] "	"Frequency [Hz]"	"Sound Pessure Level [dB]  / [2.83V 1m] "	"Frequency [Hz]"	"Sound Pessure Level [dB]  / [2.83V 1m] "	"Frequency [Hz]"	"Sound Pessure Level [dB]  / [2.83V 1m] "	"Frequency [Hz]"	"Sound Pessure Level [dB]  / [2.83V 1m] "	"Frequency [Hz]"	"Sound Pessure Level [dB]  / [2.83V 1m] "	"Frequency [Hz]"	"Sound Pessure Level [dB]  / [2.83V 1m] "	"Frequency [Hz]"	"Sound Pessure Level [dB]  / [2.83V 1m] "	"Frequency [Hz]"	"Sound Pessure Level [dB]  / [2.83V 1m] "	"Frequency [Hz]"	"Sound Pessure Level [dB]  / [2.83V 1m] "	"Frequency [Hz]"	"Sound Pessure Level [dB]  / [2.83V 1m] "	"Frequency [Hz]"	"Sound Pessure Level [dB]  / [2.83V 1m] "	"Frequency [Hz]"	"Sound Pessure Level [dB]  / [2.83V 1m] "	"Frequency [Hz]"	"Sound Pessure Level [dB]  / [2.83V 1m] "	"Frequency [Hz]"	"Sound Pessure Level [dB]  / [2.83V 1m] "	"Frequency [Hz]"	"Sound Pessure Level [dB]  / [2.83V 1m] "	"Frequency [Hz]"	"Sound Pessure Level [dB]  / [2.83V 1m] "	"Frequency [Hz]"	"Sound Pessure Level [dB]  / [2.83V 1m] "	"Frequency [Hz]"	"Sound Pessure Level [dB]  / [2.83V 1m] "	"Frequency [Hz]"	"Sound Pessure Level [dB]  / [2.83V 1m] "	"Frequency [Hz]"	"Sound Pessure Level [dB]  / [2.83V 1m] "	"Frequency [Hz]"	"Sound Pessure Level [dB]  / [2.83V 1m] "
20.5078	50.5048	20.5078	50.5447	20.5078	50.4324	20.5078	50.5587	20.5078	50.3224	20.5078	50.5535	20.5078	50.1709	20.5078	50.5359	20.5078	49.9765	20.5078	50.5118	20.5078	49.741	20.5078	50.4859	20.5078	49.47	20.5078	50.461	20.5078	49.1745	20.5078	50.4377	20.5078	48.8713	20.5078	50.4142	20.5078	48.5832	20.5078	50.3869	20.5078	48.3369	20.5078	50.3499	20.5078	48.1597	20.5078	50.2964	20.5078	48.0744	20.5078	50.2186	20.5078	48.0932	20.5078	50.1089	20.5078	48.2141	20.5078	49.9607	20.5078	48.4203	20.5078	49.7701	20.5078	48.6849	20.5078	49.5372	20.5078	48.977	20.5078	49.2683
21.9727	53.962	21.9727	54.055	21.9727	53.8385	21.9727	54.1213	21.9727	53.6819	21.9727	54.1651	21.9727	53.4909	21.9727	54.1906	21.9727	53.2664	21.9727	54.2016	21.9727	53.0123	21.9727	54.2013	21.9727	52.7361	21.9727	54.1917	21.9727	52.4505	21.9727	54.1736	21.9727	52.1733	21.9727	54.1463	21.9727	51.9267	21.9727	54.1079	21.9727	51.7351	21.9727	54.0551	21.9727	51.621	21.9727	53.9837	21.9727	51.5997	21.9727	53.8886	21.9727	51.675	21.9727	53.7646	21.9727	51.8381	21.9727	53.6071	21.9727	52.0695	21.9727	53.413	21.9727	52.3436	21.9727	53.1824	21.9727	52.6344	21.9727	52.9195
23.4375	53.2617	23.4375	53.3719	23.4375	53.1219	23.4375	53.4547	23.4375	52.9514	23.4375	53.5127	23.4375	52.7506	23.4375	53.5489	23.4375	52.5219	23.4375	53.5665	23.4375	52.2703	23.4375	53.5679	23.4375	52.0044	23.4375	53.5553	23.4375	51.7368	23.4375	53.5299	23.4375	51.4843	23.4375	53.4921	23.4375	51.267	23.4375	53.4412	23.4375	51.1056	23.4375	53.3755	23.4375	51.0182	23.4375	53.2925	23.4375	51.0154	23.4375	53.1888	23.4375	51.0985	23.4375	53.0606	23.4375	51.2577	23.4375	52.9046	23.4375	51.4751	23.4375	52.7182	23.4375	51.7286	23.4375	52.5016	23.4375	51.9958	23.4375	52.258
24.9023	50.7271	24.9023	50.7559	24.9023	50.6699	24.9023	50.7582	24.9023	50.5829	24.9023	50.7367	24.9023	50.4658	24.9023	50.6946	24.9023	50.3196	24.9023	50.6352	24.9023	50.1471	24.9023	50.5619	24.9023	49.9534	24.9023	50.4782	24.9023	49.7465	24.9023	50.3871	24.9023	49.5372	24.9023	50.2912	24.9023	49.3391	24.9023	50.1928	24.9023	49.1664	24.9023	50.093	24.9023	49.0325	24.9023	49.9923	24.9023	48.9472	24.9023	49.8905	24.9023	48.915	24.9023	49.7863	24.9023	48.9336	24.9023	49.6782	24.9023	48.9953	24.9023	49.5649	24.9023	49.0887	24.9023	49.4461	24.9023	49.2017	24.9023	49.3235
26.3672	45.9474	26.3672	45.6813	26.3672	46.1585	26.3672	45.3668	26.3672	46.3091	26.3672	45.0122	26.3672	46.3956	26.3672	44.6272	26.3672	46.4157	26.3672	44.2229	26.3672	46.3698	26.3672	43.8117	26.3672	46.2604	26.3672	43.4073	26.3672	46.0933	26.3672	43.0246	26.3672	45.8769	26.3672	42.6792	26.3672	45.6222	26.3672	42.3874	26.3672	45.3411	26.3672	42.1649	26.3672	45.0447	26.3672	42.0252	26.3672	44.7417	26.3672	41.9767	26.3672	44.437	26.3672	42.0212	26.3672	44.1318	26.3672	42.1517	26.3672	43.825	26.3672	42.3542	26.3672	43.5154	26.3672	42.6097	26.3672	43.2047	26.3672	42.8989
27.832	33.2013	27.832	30.9856	27.832	34.7817	27.832	27.7613	27.832	35.9088	27.832	22.6964	27.832	36.6824	27.832	17.3311	27.832	37.1617	27.832	22.897	27.832	37.3848	27.832	27.5223	27.832	37.3766	27.832	30.3877	27.832	37.1534	27.832	32.2791	27.832	36.7229	27.832	33.5447	27.832	36.0808	27.832	34.3514	27.832	35.204	27.832	34.7842	27.832	34.0396	27.832	34.8834	27.832	32.4851	27.832	34.6587	27.832	30.3436	27.832	34.0923	27.832	27.1906	27.832	33.133	27.832	21.7861	27.832	31.6757	27.832	5.82351	27.832	29.5065	27.832	19.837	27.832	26.1223
29.2969	39.9387	29.2969	40.1076	29.2969	39.9197	29.2969	40.4194	29.2969	40.0321	29.2969	40.8426	29.2969	40.24	29.2969	41.332	29.2969	40.503	29.2969	41.8412	29.2969	40.7843	29.2969	42.3306	29.2969	41.0538	29.2969	42.7706	29.2969	41.2876	29.2969	43.1405	29.2969	41.4658	29.2969	43.4267	29.2969	41.5727	29.2969	43.6202	29.2969	41.5984	29.2969	43.7156	29.2969	41.5428	29.2969	43.7096	29.2969	41.4216	29.2969	43.6011	29.2969	41.271	29.2969	43.3922	29.2969	41.1471	29.2969	43.0903	29.2969	41.1147	29.2969	42.7113	29.2969	41.2228	29.2969	42.2841	29.2969	41.4808	29.2969	41.8542
30.7617	45.7124	30.7617	45.4508	30.7617	45.9703	30.7617	45.1992	30.7617	46.2121	30.7617	44.9709	30.7617	46.4273	30.7617	44.7767	30.7617	46.6071	30.7617	44.6227	30.7617	46.744	30.7617	44.5085	30.7617	46.8309	30.7617	44.427	30.7617	46.8605	30.7617	44.3665	30.7617	46.8247	30.7617	44.3124	30.7617	46.7156	30.7617	44.2502	30.7617	46.5264	30.7617	44.1684	30.7617	46.2532	30.7617	44.0601	30.7617	45.8986	30.7617	43.9254	30.7617	45.4745	30.7617	43.7734	30.7617	45.0054	30.7617	43.6246	30.7617	44.5301	30.7617	43.5111	30.7617	44.0981	30.7617	43.473	30.7617	43.7592	30.7617	43.5485
32.2266	46.511	32.2266	45.9579	32.2266	46.9501	32.2266	45.2911	32.2266	47.278	32.2266	44.5151	32.2266	47.4988	32.2266	43.6413	32.2266	47.6177	32.2266	42.6916	32.2266	47.6394	32.2266	41.7013	32.2266	47.5681	32.2266	40.7219	32.2266	47.4067	32.2266	39.8165	32.2266	47.156	32.2266	39.0469	32.2266	46.815	32.2266	38.4531	32.2266	46.3805	32.2266	38.0401	32.2266	45.8477	32.2266	37.7861	32.2266	45.2119	32.2266	37.6674	32.2266	44.4699	32.2266	37.6833	32.2266	43.6238	32.2266	37.8633	32.2266	42.6854	32.2266	38.2511	32.2266	41.6818	32.2266	38.8704	32.2266	40.6618	32.2266	39.6968
33.6914	44.2501	33.6914	43.6444	33.6914	44.7026	33.6914	42.9174	33.6914	44.988	33.6914	42.1312	33.6914	45.1012	33.6914	41.39	33.6914	45.0411	33.6914	40.8322	33.6914	44.8074	33.6914	40.5766	33.6914	44.3993	33.6914	40.6461	33.6914	43.8145	33.6914	40.9495	33.6914	43.0482	33.6914	41.3465	33.6914	42.0933	33.6914	41.7155	33.6914	40.9419	33.6914	41.9759	33.6914	39.5927	33.6914	42.0805	33.6914	38.0763	33.6914	42.0013	33.6914	36.5245	33.6914	41.7194	33.6914	35.2963	33.6914	41.2194	33.6914	34.9448	33.6914	40.4867	33.6914	35.6473	33.6914	39.5116	33.6914	36.9354	33.6914	38.3036
35.1563	47.9567	35.1563	48.436	35.1563	47.4793	35.1563	48.9158	35.1563	47.0053	35.1563	49.3918	35.1563	46.5412	35.1563	49.8557	35.1563	46.1032	35.1563	50.2961	35.1563	45.7209	35.1563	50.7004	35.1563	45.4357	35.1563	51.0562	35.1563	45.2916	35.1563	51.3526	35.1563	45.3195	35.1563	51.5812	35.1563	45.523	35.1563	51.7356	35.1563	45.877	35.1563	51.8118	35.1563	46.3401	35.1563	51.8072	35.1563	46.8702	35.1563	51.7212	35.1563	47.4343	35.1563	51.5547	35.1563	48.0099	35.1563	51.31	35.1563	48.5818	35.1563	50.9916	35.1563	49.1385	35.1563	50.606	35.1563	49.6688	35.1563	50.1617
36.6211	54.7476	36.6211	55.0385	36.6211	54.4722	36.6211	55.3339	36.6211	54.2244	36.6211	55.6236	36.6211	54.0166	36.6211	55.8986	36.6211	53.8601	36.6211	56.1508	36.6211	53.7637	36.6211	56.3732	36.6211	53.7313	36.6211	56.56	36.6211	53.7612	36.6211	56.7065	36.6211	53.8461	36.6211	56.8095	36.6211	53.9748	36.6211	56.8668	36.6211	54.135	36.6211	56.8775	36.6211	54.3159	36.6211	56.8419	36.6211	54.5102	36.6211	56.7617	36.6211	54.7141	36.6211	56.6399	36.6211	54.9267	36.6211	56.481	36.6211	55.1481	36.6211	56.2911	36.6211	55.3779	36.6211	56.0776	36.6211	55.6132	36.6211	55.8489
38.0859	59.496	38.0859	59.6174	38.0859	59.3741	38.0859	59.7347	38.0859	59.2551	38.0859	59.8446	38.0859	59.1425	38.0859	59.9441	38.0859	59.0394	38.0859	60.0305	38.0859	58.9491	38.0859	60.1016	38.0859	58.8747	38.0859	60.1561	38.0859	58.8191	38.0859	60.1931	38.0859	58.7856	38.0859	60.2122	38.0859	58.7769	38.0859	60.2138	38.0859	58.7953	38.0859	60.1982	38.0859	58.8417	38.0859	60.1663	38.0859	58.9153	38.0859	60.1185	38.0859	59.0132	38.0859	60.0554	38.0859	59.1303	38.0859	59.9773	38.0859	59.2601	38.0859	59.8848	38.0859	59.3957	38.0859	59.7784	38.0859	59.5307	38.0859	59.6595
39.5508	62.2389	39.5508	62.2819	39.5508	62.1901	39.5508	62.3177	39.5508	62.1369	39.5508	62.3452	39.5508	62.0804	39.5508	62.3632	39.5508	62.0218	39.5508	62.371	39.5508	61.9625	39.5508	62.3682	39.5508	61.904	39.5508	62.3552	39.5508	61.8483	39.5508	62.3326	39.5508	61.7976	39.5508	62.3017	39.5508	61.7548	39.5508	62.2639	39.5508	61.7225	39.5508	62.2211	39.5508	61.703	39.5508	62.175	39.5508	61.6975	39.5508	62.127	39.5508	61.706	39.5508	62.0785	39.5508	61.7272	39.5508	62.0299	39.5508	61.7586	39.5508	61.9817	39.5508	61.7974	39.5508	61.934	39.5508	61.8408	39.5508	61.8868
41.0156	63.8901	41.0156	63.8811	41.0156	63.8873	41.0156	63.8604	41.0156	63.8727	41.0156	63.8283	41.0156	63.8464	41.0156	63.7856	41.0156	63.809	41.0156	63.7331	41.0156	63.7613	41.0156	63.6723	41.0156	63.7045	41.0156	63.6049	41.0156	63.6405	41.0156	63.5332	41.0156	63.5719	41.0156	63.4599	41.0156	63.5015	41.0156	63.3878	41.0156	63.4323	41.0156	63.3198	41.0156	63.3673	41.0156	63.2588	41.0156	63.3085	41.0156	63.207	41.0156	63.2573	41.0156	63.1661	41.0156	63.2141	41.0156	63.1371	41.0156	63.1787	41.0156	63.1198	41.0156	63.1508	41.0156	63.1138	41.0156	63.1303	41.0156	63.1177
42.4805	64.7225	42.4805	64.672	42.4805	64.7556	42.4805	64.6054	42.4805	64.7706	42.4805	64.5244	42.4805	64.7669	42.4805	64.4308	42.4805	64.7447	42.4805	64.3273	42.4805	64.7046	42.4805	64.2166	42.4805	64.6479	42.4805	64.1021	42.4805	64.5766	42.4805	63.9873	42.4805	64.4933	42.4805	63.8764	42.4805	64.4009	42.4805	63.7734	42.4805	64.3028	42.4805	63.6824	42.4805	64.2019	42.4805	63.6073	42.4805	64.1007	42.4805	63.5513	42.4805	64.0015	42.4805	63.5166	42.4805	63.9057	42.4805	63.5042	42.4805	63.8149	42.4805	63.514	42.4805	63.7309	42.4805	63.5443	42.4805	63.6559	42.4805	63.5926
43.9453	64.946	43.9453	64.8671	43.9453	65.0023	43.9453	64.7676	43.9453	65.0345	43.9453	64.6501	43.9453	65.0422	43.9453	64.5177	43.9453	65.0254	43.9453	64.3743	43.9453	64.9849	43.9453	64.224	43.9453	64.9226	43.9453	64.0713	43.9453	64.8409	43.9453	63.9213	43.9453	64.7427	43.9453	63.7791	43.9453	64.6314	43.9453	63.6498	43.9453	64.5105	43.9453	63.5388	43.9453	64.383	43.9453	63.4505	43.9453	64.2517	43.9453	63.3889	43.9453	64.1188	43.9453	63.3567	43.9453	63.9864	43.9453	63.3551	43.9453	63.8569	43.9453	63.3836	43.9453	63.7333	43.9453	63.4398	43.9453	63.6194	43.9453	63.52
45.4102	64.5659	45.4102	64.4634	45.4102	64.6408	45.4102	64.3361	45.4102	64.6866	45.4102	64.1876	45.4102	64.7023	45.4102	64.0219	45.4102	64.6881	45.4102	63.8439	45.4102	64.645	45.4102	63.6589	45.4102	64.5751	45.4102	63.4725	45.4102	64.4813	45.4102	63.2907	45.4102	64.3668	45.4102	63.1195	45.4102	64.2356	45.4102	62.965	45.4102	64.0911	45.4102	62.833	45.4102	63.9368	45.4102	62.729	45.4102	63.7756	45.4102	62.6575	45.4102	63.6102	45.4102	62.622	45.4102	63.4432	45.4102	62.6243	45.4102	63.2782	45.4102	62.6638	45.4102	63.1193	45.4102	62.7382	45.4102	62.9722	45.4102	62.843
46.875	63.9084	46.875	63.7932	46.875	63.9948	46.875	63.6525	46.875	64.0501	46.875	63.4905	46.875	64.0731	46.875	63.3123	46.875	64.0637	46.875	63.1234	46.875	64.0231	46.875	62.9297	46.875	63.9535	46.875	62.7369	46.875	63.8577	46.875	62.5512	46.875	63.7396	46.875	62.3781	46.875	63.6029	46.875	62.2233	46.875	63.4515	46.875	62.0919	46.875	63.2888	46.875	61.9889	46.875	63.1179	46.875	61.9186	46.875	62.9415	46.875	61.8844	46.875	62.7629	46.875	61.8883	46.875	62.586	46.875	61.9306	46.875	62.4157	46.875	62.0094	46.875	62.2582	46.875	62.1205
48.3398	63.3032	48.3398	63.2046	48.3398	63.3768	48.3398	63.0846	48.3398	63.4229	48.3398	62.9476	48.3398	63.4402	48.3398	62.7986	48.3398	63.4288	48.3398	62.6428	48.3398	63.3897	48.3398	62.4851	48.3398	63.3252	48.3398	62.3304	48.3398	63.2383	48.3398	62.1827	48.3398	63.1325	48.3398	62.0456	48.3398	63.0114	48.3398	61.9225	48.3398	62.8784	48.3398	61.8162	48.3398	62.7367	48.3398	61.7297	48.3398	62.5888	48.3398	61.6661	48.3398	62.4375	48.3398	61.6282	48.3398	62.286	48.3398	61.6187	48.3398	62.1381	48.3398	61.6392	48.3398	61.999	48.3398	61.69	48.3398	61.8742	48.3398	61.7695
51.2695	63.7698	51.2695	63.7305	51.2695	63.8006	51.2695	63.6852	51.2695	63.821	51.2695	63.6364	51.2695	63.8299	51.2695	63.5866	51.2695	63.8265	51.2695	63.5377	51.2695	63.811	51.2695	63.491	51.2695	63.7841	51.2695	63.4471	51.2695	63.7469	51.2695	63.4057	51.2695	63.7005	51.2695	63.3664	51.2695	63.6464	51.2695	63.3285	51.2695	63.586	51.2695	63.2915	51.2695	63.5208	51.2695	63.2556	51.2695	63.4529	51.2695	63.2214	51.2695	63.3848	51.2695	63.1905	51.2695	63.3194	51.2695	63.1654	51.2695	63.2603	51.2695	63.1487	51.2695	63.2109	51.2695	63.1433	51.2695	63.174	51.2695	63.1514
52.7344	64.8375	52.7344	64.8209	52.7344	64.8514	52.7344	64.8027	52.7344	64.8619	52.7344	64.784	52.7344	64.8682	52.7344	64.7656	52.7344	64.8699	52.7344	64.7479	52.7344	64.867	52.7344	64.731	52.7344	64.8592	52.7344	64.7146	52.7344	64.8466	52.7344	64.6981	52.7344	64.8291	52.7344	64.6808	52.7344	64.8064	52.7344	64.6621	52.7344	64.7787	52.7344	64.6417	52.7344	64.7463	52.7344	64.6199	52.7344	64.7101	52.7344	64.5973	52.7344	64.6719	52.7344	64.5756	52.7344	64.634	52.7344	64.5565	52.7344	64.599	52.7344	64.5423	52.7344	64.5698	52.7344	64.5353	52.7344	64.5488	52.7344	64.5372
54.1992	66.0846	54.1992	66.0727	54.1992	66.0947	54.1992	66.0594	54.1992	66.1023	54.1992	66.0455	54.1992	66.1068	54.1992	66.0312	54.1992	66.1077	54.1992	66.0165	54.1992	66.1046	54.1992	66.0014	54.1992	66.0968	54.1992	65.9855	54.1992	66.0841	54.1992	65.9681	54.1992	66.0659	54.1992	65.9488	54.1992	66.0419	54.1992	65.9273	54.1992	66.0122	54.1992	65.9035	54.1992	65.9776	54.1992	65.8779	54.1992	65.9392	54.1992	65.8514	54.1992	65.8992	54.1992	65.8256	54.1992	65.8605	54.1992	65.8024	54.1992	65.8259	54.1992	65.7843	54.1992	65.7982	54.1992	65.7733	54.1992	65.7797	54.1992	65.7714
55.6641	67.1602	55.6641	67.1467	55.6641	67.1722	55.6641	67.1319	55.6641	67.1819	55.6641	67.1162	55.6641	67.189	55.6641	67.1001	55.6641	67.1928	55.6641	67.0834	55.6641	67.1929	55.6641	67.0662	55.6641	67.1886	55.6641	67.0483	55.6641	67.1794	55.6641	67.0295	55.6641	67.1648	55.6641	67.0094	55.6641	67.1443	55.6641	66.9882	55.6641	67.118	55.6641	66.9661	55.6641	67.0863	55.6641	66.9436	55.6641	67.0504	55.6641	66.9218	55.6641	67.0122	55.6641	66.9018	55.6641	66.9743	55.6641	66.8854	55.6641	66.9392	55.6641	66.8743	55.6641	66.9097	55.6641	66.8703	55.6641	66.8878	55.6641	66.8745
58.5938	68.817	58.5938	68.7941	58.5938	68.8368	58.5938	68.7685	58.5938	68.8528	58.5938	68.7409	58.5938	68.8647	58.5938	68.7119	58.5938	68.8721	58.5938	68.682	58.5938	68.8745	58.5938	68.6516	58.5938	68.8717	58.5938	68.6213	58.5938	68.8634	58.5938	68.5916	58.5938	68.8491	58.5938	68.5628	58.5938	68.8285	58.5938	68.5358	58.5938	68.8017	58.5938	68.5112	58.5938	68.7688	58.5938	68.49	58.5938	68.7306	58.5938	68.4733	58.5938	68.6885	58.5938	68.4623	58.5938	68.6444	58.5938	68.4581	58.5938	68.6005	58.5938	68.4617	58.5938	68.5595	58.5938	68.4739	58.5938	68.5236	58.5938	68.4947
60.0586	69.4572	60.0586	69.4303	60.0586	69.4802	60.0586	69.4001	60.0586	69.4986	60.0586	69.3671	60.0586	69.5122	60.0586	69.3322	60.0586	69.5206	60.0586	69.2961	60.0586	69.5237	60.0586	69.2595	60.0586	69.5212	60.0586	69.2231	60.0586	69.5128	60.0586	69.1878	60.0586	69.4984	60.0586	69.1543	60.0586	69.4775	60.0586	69.1235	60.0586	69.45	60.0586	69.0964	60.0586	69.4159	60.0586	69.0742	60.0586	69.3757	60.0586	69.0582	60.0586	69.3305	60.0586	69.0496	60.0586	69.2822	60.0586	69.0494	60.0586	69.2329	60.0586	69.0586	60.0586	69.1853	60.0586	69.0774	60.0586	69.1421	60.0586	69.1056
62.9883	70.7995	62.9883	70.7755	62.9883	70.8186	62.9883	70.7471	62.9883	70.8326	62.9883	70.715	62.9883	70.8415	62.9883	70.6797	62.9883	70.8452	62.9883	70.6422	62.9883	70.8439	62.9883	70.6033	62.9883	70.8378	62.9883	70.5638	62.9883	70.8268	62.9883	70.5248	62.9883	70.8107	62.9883	70.4872	62.9883	70.7891	62.9883	70.4523	62.9883	70.7618	62.9883	70.4212	62.9883	70.7285	62.9883	70.3953	62.9883	70.6893	62.9883	70.3761	62.9883	70.645	62.9883	70.3649	62.9883	70.5972	62.9883	70.3631	62.9883	70.5479	62.9883	70.3714	62.9883	70.4999	62.9883	70.3901	62.9883	70.456	62.9883	70.4187
64.4531	71.3367	64.4531	71.3166	64.4531	71.3521	64.4531	71.2922	64.4531	71.3626	64.4531	71.2639	64.4531	71.3683	64.4531	71.2323	64.4531	71.3695	64.4531	71.1981	64.4531	71.3662	64.4531	71.1621	64.4531	71.3586	64.4531	71.1251	64.4531	71.3467	64.4531	71.0881	64.4531	71.3305	64.4531	71.0519	64.4531	71.3094	64.4531	71.0177	64.4531	71.2831	64.4531	70.9866	64.4531	71.2513	64.4531	70.9601	64.4531	71.2143	64.4531	70.9395	64.4531	71.1727	64.4531	70.9262	64.4531	71.128	64.4531	70.9215	64.4531	71.0824	64.4531	70.9263	64.4531	71.0383	64.4531	70.9411	64.4531	70.9986	64.4531	70.9656
67.3828	72.8518	67.3828	72.8294	67.3828	72.8681	67.3828	72.8018	67.3828	72.878	67.3828	72.7698	67.3828	72.8813	67.3828	72.7345	67.3828	72.8779	67.3828	72.6974	67.3828	72.8681	67.3828	72.6598	67.3828	72.852	67.3828	72.6233	67.3828	72.8302	67.3828	72.5893	67.3828	72.8034	67.3828	72.5592	67.3828	72.7728	67.3828	72.5341	67.3828	72.7395	67.3828	72.5149	67.3828	72.7053	67.3828	72.5019	67.3828	72.6717	67.3828	72.4952	67.3828	72.6403	67.3828	72.4942	67.3828	72.6119	67.3828	72.4983	67.3828	72.5871	67.3828	72.5064	67.3828	72.5657	67.3828	72.5176	67.3828	72.5473	67.3828	72.5313
68.8477	73.2485	68.8477	73.2238	68.8477	73.2669	68.8477	73.1935	68.8477	73.2785	68.8477	73.1585	68.8477	73.2831	68.8477	73.1203	68.8477	73.2806	68.8477	73.0801	68.8477	73.2713	68.8477	73.0395	68.8477	73.2553	68.8477	73.0001	68.8477	73.2334	68.8477	72.9637	68.8477	73.2061	68.8477	72.9316	68.8477	73.1748	68.8477	72.9051	68.8477	73.1407	68.8477	72.8852	68.8477	73.1054	68.8477	72.8724	68.8477	73.0706	68.8477	72.8665	68.8477	73.0377	68.8477	72.8673	68.8477	73.0076	68.8477	72.8737	68.8477	72.9806	68.8477	72.8846	68.8477	72.9566	68.8477	72.899	68.8477	72.9352	68.8477	72.916
71.7773	74.2455	71.7773	74.2173	71.7773	74.267	71.7773	74.1831	71.7773	74.2813	71.7773	74.1441	71.7773	74.2881	71.7773	74.1015	71.7773	74.2873	71.7773	74.0567	71.7773	74.2792	71.7773	74.0116	71.7773	74.264	71.7773	73.9678	71.7773	74.2423	71.7773	73.9273	71.7773	74.215	71.7773	73.8915	71.7773	74.1831	71.7773	73.8622	71.7773	74.1481	71.7773	73.8403	71.7773	74.1115	71.7773	73.8267	71.7773	74.0747	71.7773	73.8213	71.7773	74.039	71.7773	73.8238	71.7773	74.0052	71.7773	73.8333	71.7773	73.9735	71.7773	73.8486	71.7773	73.944	71.7773	73.8682	71.7773	73.9166	71.7773	73.8912
74.707	74.9262	74.707	74.8954	74.707	74.9502	74.707	74.8587	74.707	74.9669	74.707	74.817	74.707	74.976	74.707	74.7717	74.707	74.9776	74.707	74.7243	74.707	74.9717	74.707	74.6766	74.707	74.9588	74.707	74.6306	74.707	74.9394	74.707	74.5881	74.707	74.9144	74.707	74.5509	74.707	74.8848	74.707	74.5208	74.707	74.8517	74.707	74.4991	74.707	74.8166	74.707	74.4864	74.707	74.7805	74.707	74.4831	74.707	74.7444	74.707	74.4887	74.707	74.7089	74.707	74.5023	74.707	74.6742	74.707	74.5226	74.707	74.6405	74.707	74.5479	74.707	74.6079	74.707	74.5767
77.6367	75.2487	77.6367	75.2155	77.6367	75.2738	77.6367	75.175	77.6367	75.2902	77.6367	75.1285	77.6367	75.2979	77.6367	75.0772	77.6367	75.2967	77.6367	75.0231	77.6367	75.287	77.6367	74.9681	77.6367	75.2694	77.6367	74.9143	77.6367	75.2446	77.6367	74.8639	77.6367	75.2138	77.6367	74.819	77.6367	75.1781	77.6367	74.7816	77.6367	75.139	77.6367	74.7532	77.6367	75.0978	77.6367	74.7349	77.6367	75.0558	77.6367	74.7272	77.6367	75.0138	77.6367	74.7298	77.6367	74.9725	77.6367	74.742	77.6367	74.9322	77.6367	74.7623	77.6367	74.8932	77.6367	74.7891	77.6367	74.8559	77.6367	74.8208
79.1016	75.5136	79.1016	75.4802	79.1016	75.5384	79.1016	75.439	79.1016	75.5541	79.1016	75.3912	79.1016	75.5604	79.1016	75.3384	79.1016	75.5574	79.1016	75.2823	79.1016	75.5456	79.1016	75.2251	79.1016	75.5256	79.1016	75.1689	79.1016	75.4983	79.1016	75.116	79.1016	75.4649	79.1016	75.0686	79.1016	75.4268	79.1016	75.0287	79.1016	75.3853	79.1016	74.998	79.1016	75.342	79.1016	74.9775	79.1016	75.298	79.1016	74.9678	79.1016	75.2544	79.1016	74.9688	79.1016	75.2116	79.1016	74.9796	79.1016	75.1701	79.1016	74.9989	79.1016	75.1302	79.1016	75.0252	79.1016	75.0922	79.1016	75.0568
82.0313	76.2038	82.0313	76.1688	82.0313	76.2293	82.0313	76.1253	82.0313	76.2448	82.0313	76.0746	82.0313	76.25	82.0313	76.0184	82.0313	76.2453	82.0313	75.9586	82.0313	76.231	82.0313	75.8975	82.0313	76.208	82.0313	75.8375	82.0313	76.1775	82.0313	75.781	82.0313	76.1407	82.0313	75.7301	82.0313	76.0992	82.0313	75.6871	82.0313	76.0545	82.0313	75.6537	82.0313	76.0081	82.0313	75.6309	82.0313	75.9613	82.0313	75.6193	82.0313	75.9149	82.0313	75.6189	82.0313	75.8696	82.0313	75.6289	82.0313	75.8257	82.0313	75.648	82.0313	75.7836	82.0313	75.6746	82.0313	75.7438	82.0313	75.7071
84.9609	76.6013	84.9609	76.5646	84.9609	76.6283	84.9609	76.5192	84.9609	76.645	84.9609	76.4667	84.9609	76.6511	84.9609	76.4087	84.9609	76.647	84.9609	76.3473	84.9609	76.633	84.9609	76.2849	84.9609	76.6102	84.9609	76.2239	84.9609	76.5796	84.9609	76.1667	84.9609	76.5427	84.9609	76.1157	84.9609	76.501	84.9609	76.0729	84.9609	76.456	84.9609	76.0401	84.9609	76.4093	84.9609	76.0182	84.9609	76.362	84.9609	76.0077	84.9609	76.3151	84.9609	76.0086	84.9609	76.2691	84.9609	76.02	84.9609	76.2244	84.9609	76.0404	84.9609	76.1813	84.9609	76.0685	84.9609	76.1403	84.9609	76.1023
87.8906	76.8402	87.8906	76.8037	87.8906	76.8669	87.8906	76.7583	87.8906	76.8832	87.8906	76.7056	87.8906	76.8889	87.8906	76.6472	87.8906	76.8845	87.8906	76.5855	87.8906	76.8706	87.8906	76.5228	87.8906	76.8483	87.8906	76.4616	87.8906	76.8188	87.8906	76.4046	87.8906	76.7836	87.8906	76.3541	87.8906	76.7442	87.8906	76.3122	87.8906	76.7018	87.8906	76.2806	87.8906	76.6579	87.8906	76.2603	87.8906	76.6133	87.8906	76.2519	87.8906	76.5687	87.8906	76.2549	87.8906	76.5244	87.8906	76.2685	87.8906	76.4806	87.8906	76.2913	87.8906	76.4377	87.8906	76.3214	87.8906	76.3961	87.8906	76.3569
90.8203	77.3523	90.8203	77.3154	90.8203	77.3788	90.8203	77.2691	90.8203	77.3943	90.8203	77.215	90.8203	77.399	90.8203	77.1549	90.8203	77.393	90.8203	77.091	90.8203	77.3774	90.8203	77.026	90.8203	77.3532	90.8203	76.9624	90.8203	77.3218	90.8203	76.9029	90.8203	77.2848	90.8203	76.85	90.8203	77.2437	90.8203	76.8058	90.8203	77.1999	90.8203	76.7721	90.8203	77.1547	90.8203	76.75	90.8203	77.1088	90.8203	76.7402	90.8203	77.0629	90.8203	76.7422	90.8203	77.0173	90.8203	76.7553	90.8203	76.9722	90.8203	76.7779	90.8203	76.9278	90.8203	76.8084	90.8203	76.885	90.8203	76.8447
95.2148	77.8542	95.2148	77.8171	95.2148	77.8799	95.2148	77.7697	95.2148	77.8936	95.2148	77.7134	95.2148	77.8953	95.2148	77.6503	95.2148	77.8856	95.2148	77.5829	95.2148	77.8656	95.2148	77.5138	95.2148	77.8366	95.2148	77.4457	95.2148	77.8003	95.2148	77.3815	95.2148	77.7586	95.2148	77.3237	95.2148	77.7131	95.2148	77.2748	95.2148	77.6654	95.2148	77.2365	95.2148	77.6167	95.2148	77.2103	95.2148	77.5679	95.2148	77.1967	95.2148	77.5194	95.2148	77.1957	95.2148	77.4714	95.2148	77.2063	95.2148	77.4243	95.2148	77.2274	95.2148	77.3783	95.2148	77.257	95.2148	77.3342	95.2148	77.2933
98.1445	78.0761	98.1445	78.038	98.1445	78.1024	98.1445	77.9894	98.1445	78.1163	98.1445	77.9319	98.1445	78.1179	98.1445	77.8676	98.1445	78.1075	98.1445	77.7989	98.1445	78.0863	98.1445	77.7285	98.1445	78.0556	98.1445	77.6592	98.1445	78.0172	98.1445	77.5938	98.1445	77.973	98.1445	77.5348	98.1445	77.9247	98.1445	77.4844	98.1445	77.8741	98.1445	77.4446	98.1445	77.8225	98.1445	77.4165	98.1445	77.7708	98.1445	77.4008	98.1445	77.7196	98.1445	77.3976	98.1445	77.6693	98.1445	77.4061	98.1445	77.6204	98.1445	77.4252	98.1445	77.5733	98.1445	77.4532	98.1445	77.5289	98.1445	77.4883
101.074	78.409	101.074	78.3711	101.074	78.4359	101.074	78.3235	101.074	78.4512	101.074	78.2679	101.074	78.4548	101.074	78.2062	101.074	78.4473	101.074	78.1409	101.074	78.4296	101.074	78.0747	101.074	78.403	101.074	78.0101	101.074	78.3693	101.074	77.9499	101.074	78.3302	101.074	77.8964	101.074	78.2875	101.074	77.8518	101.074	78.2425	101.074	77.8176	101.074	78.1965	101.074	77.795	101.074	78.1501	101.074	77.7843	101.074	78.1038	101.074	77.7853	101.074	78.0577	101.074	77.7973	101.074	78.0121	101.074	77.819	101.074	77.9675	101.074	77.8486	101.074	77.9245	101.074	77.8843
105.469	78.8741	105.469	78.8374	105.469	78.8994	105.469	78.7904	105.469	78.9129	105.469	78.735	105.469	78.9145	105.469	78.6732	105.469	78.905	105.469	78.6075	105.469	78.8854	105.469	78.5406	105.469	78.8575	105.469	78.4754	105.469	78.8231	105.469	78.4145	105.469	78.784	105.469	78.3606	105.469	78.742	105.469	78.3157	105.469	78.6985	105.469	78.2815	105.469	78.6544	105.469	78.2592	105.469	78.6102	105.469	78.2491	105.469	78.5661	105.469	78.2509	105.469	78.5221	105.469	78.2637	105.469	78.4782	105.469	78.2862	105.469	78.4347	105.469	78.3164	105.469	78.3924	105.469	78.3524
108.398	79.0564	108.398	79.021	108.398	79.0801	108.398	78.9751	108.398	79.0918	108.398	78.9204	108.398	79.0917	108.398	78.859	108.398	79.0807	108.398	78.7936	108.398	79.0602	108.398	78.727	108.398	79.032	108.398	78.6621	108.398	78.9979	108.398	78.6015	108.398	78.9599	108.398	78.5479	108.398	78.9194	108.398	78.5034	108.398	78.8775	108.398	78.4695	108.398	78.8348	108.398	78.4472	108.398	78.7916	108.398	78.4368	108.398	78.748	108.398	78.438	108.398	78.7042	108.398	78.4499	108.398	78.6602	108.398	78.4712	108.398	78.6168	108.398	78.5003	108.398	78.5747	108.398	78.5354
112.793	79.5585	112.793	79.5202	112.793	79.5842	112.793	79.4708	112.793	79.5967	112.793	79.412	112.793	79.5963	112.793	79.3465	112.793	79.5839	112.793	79.2769	112.793	79.561	112.793	79.2065	112.793	79.5296	112.793	79.1382	112.793	79.4918	112.793	79.0749	112.793	79.4498	112.793	79.0194	112.793	79.4053	112.793	78.9737	112.793	79.3597	112.793	78.9392	112.793	79.3139	112.793	78.9169	112.793	79.2682	112.793	78.9069	112.793	79.2227	112.793	78.9087	112.793	79.1775	112.793	78.9212	112.793	79.1328	112.793	78.9429	112.793	79.089	112.793	78.9723	112.793	79.0468	112.793	79.0075
117.188	79.7549	117.188	79.7147	117.188	79.7829	117.188	79.6637	117.188	79.7981	117.188	79.6038	117.188	79.8007	117.188	79.5375	117.188	79.7917	117.188	79.4679	117.188	79.7726	117.188	79.398	117.188	79.7455	117.188	79.331	117.188	79.7125	117.188	79.27	117.188	79.6756	117.188	79.2175	117.188	79.6366	117.188	79.1756	117.188	79.5965	117.188	79.1459	117.188	79.5559	117.188	79.129	117.188	79.5148	117.188	79.125	117.188	79.4731	117.188	79.1332	117.188	79.4304	117.188	79.1521	117.188	79.3867	117.188	79.1801	117.188	79.3423	117.188	79.2151	117.188	79.298	117.188	79.2551
120.117	79.9595	120.117	79.9186	120.117	79.9876	120.117	79.8661	120.117	80.0022	120.117	79.8043	120.117	80.0036	120.117	79.7357	120.117	79.9928	120.117	79.6636	120.117	79.9716	120.117	79.5913	120.117	79.9422	120.117	79.522	120.117	79.907	120.117	79.459	120.117	79.8683	120.117	79.4051	120.117	79.828	120.117	79.3625	120.117	79.7872	120.117	79.3327	120.117	79.7466	120.117	79.3164	120.117	79.7061	120.117	79.3134	120.117	79.6652	120.117	79.323	120.117	79.6236	120.117	79.3435	120.117	79.581	120.117	79.373	120.117	79.5373	120.117	79.4093	120.117	79.4933	120.117	79.4501
124.512	80.2724	124.512	80.2304	124.512	80.3008	124.512	80.1763	124.512	80.315	124.512	80.1123	124.512	80.3153	124.512	80.0413	124.512	80.3027	124.512	79.9664	124.512	80.2793	124.512	79.8911	124.512	80.2472	124.512	79.819	124.512	80.2092	124.512	79.7534	124.512	80.1678	124.512	79.6972	124.512	80.1249	124.512	79.6527	124.512	80.082	124.512	79.6215	124.512	80.0398	124.512	79.6043	124.512	79.9981	124.512	79.601	124.512	79.9565	124.512	79.6106	124.512	79.9145	124.512	79.6315	124.512	79.8716	124.512	79.6616	124.512	79.8277	124.512	79.6984	124.512	79.7834	124.512	79.7397
128.906	80.4604	128.906	80.416	128.906	80.4906	128.906	80.3587	128.906	80.5057	128.906	80.291	128.906	80.506	128.906	80.216	128.906	80.4926	128.906	80.137	128.906	80.4677	128.906	80.0577	128.906	80.4337	128.906	79.982	128.906	80.3934	128.906	79.9132	128.906	80.3497	128.906	79.8546	128.906	80.3047	128.906	79.8084	128.906	80.26	128.906	79.7765	128.906	80.2163	128.906	79.7596	128.906	80.1736	128.906	79.7574	128.906	80.1314	128.906	79.7688	128.906	80.0887	128.906	79.7921	128.906	80.0449	128.906	79.8248	128.906	79.9999	128.906	79.8644	128.906	79.954	128.906	79.9082
133.301	80.6374	133.301	80.5926	133.301	80.6675	133.301	80.5346	133.301	80.6822	133.301	80.4659	133.301	80.6817	133.301	80.3896	133.301	80.6672	133.301	80.3092	133.301	80.6407	133.301	80.2283	133.301	80.6049	133.301	80.1509	133.301	80.5626	133.301	80.0804	133.301	80.5168	133.301	80.02	133.301	80.4697	133.301	79.9721	133.301	80.423	133.301	79.9386	133.301	80.3777	133.301	79.9201	133.301	80.3336	133.301	79.9166	133.301	80.2902	133.301	79.927	133.301	80.2467	133.301	79.9495	133.301	80.2024	133.301	79.9817	133.301	80.1569	133.301	80.021	133.301	80.1107	133.301	80.0648
139.16	80.7751	139.16	80.7287	139.16	80.8061	139.16	80.6688	139.16	80.821	139.16	80.5979	139.16	80.8201	139.16	80.519	139.16	80.8047	139.16	80.436	139.16	80.7769	139.16	80.3526	139.16	80.7394	139.16	80.2728	139.16	80.6953	139.16	80.2002	139.16	80.6476	139.16	80.138	139.16	80.5988	139.16	80.0888	139.16	80.5506	139.16	80.0542	139.16	80.5039	139.16	80.0351	139.16	80.4586	139.16	80.0314	139.16	80.4141	139.16	80.0419	139.16	80.3695	139.16	80.0648	139.16	80.324	139.16	80.0978	139.16	80.2774	139.16	80.138	139.16	80.2299	139.16	80.1829
143.555	80.9033	143.555	80.8569	143.555	80.9339	143.555	80.7964	143.555	80.948	143.555	80.7246	143.555	80.9459	143.555	80.6448	143.555	80.9291	143.555	80.5608	143.555	80.8997	143.555	80.4767	143.555	80.8609	143.555	80.3965	143.555	80.8158	143.555	80.324	143.555	80.7677	143.555	80.2624	143.555	80.7191	143.555	80.2143	143.555	80.6719	143.555	80.1812	143.555	80.6267	143.555	80.1638	143.555	80.5834	143.555	80.1619	143.555	80.5412	143.555	80.1741	143.555	80.4989	143.555	80.1985	143.555	80.4555	143.555	80.2325	143.555	80.4106	143.555	80.2733	143.555	80.3645	143.555	80.3181
147.949	80.9877	147.949	80.9372	147.949	81.0212	147.949	80.8719	147.949	81.0371	147.949	80.7945	147.949	81.0355	147.949	80.7088	147.949	81.0179	147.949	80.6187	147.949	80.9866	147.949	80.5288	147.949	80.9448	147.949	80.4434	147.949	80.896	147.949	80.3666	147.949	80.8438	147.949	80.302	147.949	80.791	147.949	80.2521	147.949	80.7397	147.949	80.2188	147.949	80.6911	147.949	80.2025	147.949	80.645	147.949	80.2026	147.949	80.6008	147.949	80.2177	147.949	80.5571	147.949	80.2451	147.949	80.5128	147.949	80.2821	147.949	80.4671	147.949	80.3254	147.949	80.4199	147.949	80.3721
153.809	81.0666	153.809	81.0163	153.809	81.0995	153.809	80.9504	153.809	81.1144	153.809	80.8715	153.809	81.1118	153.809	80.7832	153.809	81.0932	153.809	80.6896	153.809	81.0614	153.809	80.5953	153.809	81.0195	153.809	80.5048	153.809	80.971	153.809	80.4226	153.809	80.9193	153.809	80.3527	153.809	80.8673	153.809	80.2981	153.809	80.8167	153.809	80.261	153.809	80.7683	153.809	80.2423	153.809	80.7218	153.809	80.2418	153.809	80.6763	153.809	80.2577	153.809	80.6305	153.809	80.2877	153.809	80.583	153.809	80.3284	153.809	80.5332	153.809	80.3764	153.809	80.4813	153.809	80.4283
159.668	81.148	159.668	81.1017	159.668	81.176	159.668	81.0388	159.668	81.1852	159.668	80.962	159.668	81.1764	159.668	80.875	159.668	81.1517	159.668	80.782	159.668	81.1141	159.668	80.6875	159.668	81.0673	159.668	80.5963	159.668	81.0154	159.668	80.5128	159.668	80.9621	159.668	80.4409	159.668	80.91	159.668	80.3838	159.668	80.8611	159.668	80.3439	159.668	80.8155	159.668	80.3222	159.668	80.7726	159.668	80.3186	159.668	80.7308	159.668	80.3318	159.668	80.6883	159.668	80.3594	159.668	80.6438	159.668	80.3982	159.668	80.5964	159.668	80.4446	159.668	80.5464	159.668	80.495
165.527	81.2472	165.527	81.1955	165.527	81.2792	165.527	81.1263	165.527	81.2908	165.527	81.0427	165.527	81.2826	165.527	80.9488	165.527	81.2568	165.527	80.8495	165.527	81.2165	165.527	80.7498	165.527	81.166	165.527	80.6548	165.527	81.1098	165.527	80.5693	165.527	81.052	165.527	80.4973	165.527	80.9962	165.527	80.4421	165.527	80.9445	165.527	80.4055	165.527	80.8975	165.527	80.3884	165.527	80.8545	165.527	80.39	165.527	80.8137	165.527	80.4083	165.527	80.7729	165.527	80.4406	165.527	80.7303	165.527	80.4832	165.527	80.6845	165.527	80.5321	165.527	80.6354	165.527	80.5839
171.387	81.2553	171.387	81.2038	171.387	81.2862	171.387	81.1337	171.387	81.2957	171.387	81.0483	171.387	81.2848	171.387	80.9516	171.387	81.2556	171.387	80.8485	171.387	81.2115	171.387	80.7442	171.387	81.1569	171.387	80.6439	171.387	81.0966	171.387	80.5526	171.387	81.0351	171.387	80.4749	171.387	80.976	171.387	80.4142	171.387	80.9216	171.387	80.3729	171.387	80.8725	171.387	80.3522	171.387	80.8281	171.387	80.3516	171.387	80.7863	171.387	80.3692	171.387	80.7448	171.387	80.4019	171.387	80.7014	171.387	80.4458	171.387	80.6545	171.387	80.4967	171.387	80.6039	171.387	80.5506
177.246	81.2056	177.246	81.1521	177.246	81.2381	177.246	81.0799	177.246	81.249	177.246	80.9922	177.246	81.2389	177.246	80.8932	177.246	81.2101	177.246	80.7879	177.246	81.1659	177.246	80.6814	177.246	81.1109	177.246	80.5791	177.246	81.0498	177.246	80.4858	177.246	80.9873	177.246	80.4061	177.246	80.927	177.246	80.3436	177.246	80.8712	177.246	80.3008	177.246	80.8206	177.246	80.2788	177.246	80.7743	177.246	80.2773	177.246	80.7304	177.246	80.2945	177.246	80.6865	177.246	80.3276	177.246	80.6404	177.246	80.3726	177.246	80.5908	177.246	80.4253	177.246	80.5374	177.246	80.4814
183.105	81.1356	183.105	81.0791	183.105	81.1708	183.105	81.0033	183.105	81.1836	183.105	80.9118	183.105	81.1748	183.105	80.8091	183.105	81.1465	183.105	80.7002	183.105	81.1024	183.105	80.5905	183.105	81.0469	183.105	80.4854	183.105	80.9849	183.105	80.39	183.105	80.9213	183.105	80.3088	183.105	80.8597	183.105	80.2453	183.105	80.8026	183.105	80.2021	183.105	80.7506	183.105	80.1802	183.105	80.7027	183.105	80.1793	183.105	80.6569	183.105	80.1977	183.105	80.6107	183.105	80.2323	183.105	80.5619	183.105	80.2794	183.105	80.5093	183.105	80.3346	183.105	80.4527	183.105	80.3936
188.965	81.102	188.965	81.0469	188.965	81.1345	188.965	80.9715	188.965	81.1439	188.965	80.8793	188.965	81.1308	188.965	80.7751	188.965	81.0979	188.965	80.664	188.965	81.0489	188.965	80.5519	188.965	80.9887	188.965	80.4444	188.965	80.9225	188.965	80.3471	188.965	80.8554	188.965	80.2646	188.965	80.7914	188.965	80.2007	188.965	80.733	188.965	80.1577	188.965	80.681	188.965	80.1366	188.965	80.6345	188.965	80.1367	188.965	80.5914	188.965	80.156	188.965	80.5489	188.965	80.1911	188.965	80.5044	188.965	80.2377	188.965	80.4562	188.965	80.2915	188.965	80.4037	188.965	80.348
196.289	81.066	196.289	81.017	196.289	81.0905	196.289	80.9451	196.289	81.0904	196.289	80.8537	196.289	81.0675	196.289	80.7472	196.289	81.0248	196.289	80.6311	196.289	80.9669	196.289	80.5114	196.289	80.8992	196.289	80.3949	196.289	80.8271	196.289	80.2877	196.289	80.7558	196.289	80.1957	196.289	80.6892	196.289	80.1236	196.289	80.6297	196.289	80.0748	196.289	80.5781	196.289	80.0504	196.289	80.5333	196.289	80.0497	196.289	80.4931	196.289	80.07	196.289	80.4545	196.289	80.1072	196.289	80.4142	196.289	80.1559	196.289	80.3701	196.289	80.2109	196.289	80.3209	196.289	80.2671
203.613	80.9772	203.613	80.9316	203.613	80.9979	203.613	80.8628	203.613	80.9936	203.613	80.7741	203.613	80.966	203.613	80.6702	203.613	80.9191	203.613	80.5563	203.613	80.8579	203.613	80.4385	203.613	80.7887	203.613	80.3229	203.613	80.7177	203.613	80.2155	203.613	80.65	203.613	80.1219	203.613	80.5893	203.613	80.0469	203.613	80.5371	203.613	79.9941	203.613	80.4928	203.613	79.9655	203.613	80.4542	203.613	79.961	203.613	80.4179	203.613	79.9787	203.613	80.3807	203.613	80.0149	203.613	80.3396	203.613	80.0645	203.613	80.2928	203.613	80.1219	203.613	80.2397	203.613	80.1818
210.938	80.8493	210.938	80.7974	210.938	80.8727	210.938	80.7195	210.938	80.8673	210.938	80.6197	210.938	80.8346	210.938	80.5032	210.938	80.7785	210.938	80.3763	210.938	80.7046	210.938	80.2458	210.938	80.6201	210.938	80.1186	210.938	80.5326	210.938	80.0015	210.938	80.4492	210.938	79.9005	210.938	80.3753	210.938	79.821	210.938	80.3137	210.938	79.7664	210.938	80.2648	210.938	79.7386	210.938	80.226	210.938	79.737	210.938	80.1932	210.938	79.7591	210.938	80.1614	210.938	79.8002	210.938	80.1261	210.938	79.8544	210.938	80.0841	210.938	79.9152	210.938	80.034	210.938	79.9767
218.262	80.7286	218.262	80.6821	218.262	80.7473	218.262	80.6097	218.262	80.738	218.262	80.515	218.262	80.7025	218.262	80.4029	218.262	80.6448	218.262	80.2793	218.262	80.5703	218.262	80.1505	218.262	80.4857	218.262	80.0233	218.262	80.3981	218.262	79.9044	218.262	80.3137	218.262	79.8001	218.262	80.2374	218.262	79.7159	218.262	80.1721	218.262	79.6558	218.262	80.1182	218.262	79.6219	218.262	80.0742	218.262	79.6143	218.262	80.0368	218.262	79.6303	218.262	80.0021	218.262	79.6654	218.262	79.9659	218.262	79.7138	218.262	79.9251	218.262	79.769	218.262	79.8782	218.262	79.8253
225.586	80.59	225.586	80.5469	225.586	80.6026	225.586	80.4754	225.586	80.585	225.586	80.3796	225.586	80.5399	225.586	80.2646	225.586	80.4722	225.586	80.1371	225.586	80.389	225.586	80.004	225.586	80.2987	225.586	79.873	225.586	80.2097	225.586	79.7513	225.586	80.1294	225.586	79.6461	225.586	80.0625	225.586	79.5632	225.586	80.0112	225.586	79.5072	225.586	79.9742	225.586	79.4803	225.586	79.9481	225.586	79.4822	225.586	79.9277	225.586	79.5095	225.586	79.9072	225.586	79.5568	225.586	79.8816	225.586	79.6169	225.586	79.8469	225.586	79.682	225.586	79.8013	225.586	79.7453
232.91	80.586	232.91	80.5388	232.91	80.6003	232.91	80.4616	232.91	80.5807	232.91	80.3587	232.91	80.5286	232.91	80.2359	232.91	80.4482	232.91	80.0995	232.91	80.3456	232.91	79.9566	232.91	80.2292	232.91	79.8142	232.91	80.1085	232.91	79.6795	232.91	79.9925	232.91	79.5593	232.91	79.8889	232.91	79.4597	232.91	79.8028	232.91	79.3855	232.91	79.7359	232.91	79.3395	232.91	79.6869	232.91	79.3219	232.91	79.6516	232.91	79.3298	232.91	79.6245	232.91	79.3582	232.91	79.5996	232.91	79.4	232.91	79.5716	232.91	79.4478	232.91	79.537	232.91	79.4951
241.699	80.3582	241.699	80.3068	241.699	80.3779	241.699	80.2263	241.699	80.365	241.699	80.1212	241.699	80.3212	241.699	79.9971	241.699	80.2505	241.699	79.8602	241.699	80.1593	241.699	79.7173	241.699	80.0552	241.699	79.5751	241.699	79.9468	241.699	79.4404	241.699	79.8417	241.699	79.32	241.699	79.7461	241.699	79.22	241.699	79.6635	241.699	79.1456	241.699	79.5953	241.699	79.1001	241.699	79.5402	241.699	79.0842	241.699	79.4956	241.699	79.0955	241.699	79.4573	241.699	79.1288	241.699	79.4209	241.699	79.1768	241.699	79.3821	241.699	79.2319	241.699	79.3378	241.699	79.2871
250.488	80.1203	250.488	80.0747	250.488	80.1322	250.488	79.9984	250.488	80.1096	250.488	79.8963	250.488	80.0545	250.488	79.7742	250.488	79.9715	250.488	79.6387	250.488	79.8677	250.488	79.4966	250.488	79.7521	250.488	79.3543	250.488	79.6338	250.488	79.2182	250.488	79.5213	250.488	79.0942	250.488	79.4204	250.488	78.9879	250.488	79.3342	250.488	78.904	250.488	79.2628	250.488	78.8459	250.488	79.2045	250.488	78.8151	250.488	79.1562	250.488	78.8102	250.488	79.1143	250.488	78.8272	250.488	79.0753	250.488	78.8605	250.488	79.0359	250.488	78.9031	250.488	78.9939	250.488	78.949
259.277	80.1512	259.277	80.0872	259.277	80.1793	259.277	79.991	259.277	80.1702	259.277	79.8681	259.277	80.125	259.277	79.7251	259.277	80.048	259.277	79.5693	259.277	79.9459	259.277	79.408	259.277	79.8275	259.277	79.2485	259.277	79.7025	259.277	79.0975	259.277	79.58	259.277	78.9614	259.277	79.467	259.277	78.8463	259.277	79.3673	259.277	78.7569	259.277	79.282	259.277	78.6967	259.277	79.2091	259.277	78.6672	259.277	79.1454	259.277	78.6669	259.277	79.0871	259.277	78.6917	259.277	79.0306	259.277	78.7354	259.277	78.9732	259.277	78.7909	259.277	78.9136	259.277	78.8519
268.066	79.8275	268.066	79.7675	268.066	79.8519	268.066	79.676	268.066	79.839	268.066	79.5587	268.066	79.7901	268.066	79.4223	268.066	79.7093	268.066	79.2738	268.066	79.6041	268.066	79.1202	268.066	79.484	268.066	78.9679	268.066	79.3593	268.066	78.8228	268.066	79.2396	268.066	78.6905	268.066	79.1315	268.066	78.576	268.066	79.0382	268.066	78.4841	268.066	78.9595	268.066	78.4188	268.066	78.8926	268.066	78.3822	268.066	78.8335	268.066	78.3745	268.066	78.7781	268.066	78.3927	268.066	78.723	268.066	78.4315	268.066	78.6659	268.066	78.4843	268.066	78.6059	268.066	78.5443
276.855	79.6663	276.855	79.5892	276.855	79.705	276.855	79.4777	276.855	79.7036	276.855	79.3379	276.855	79.6638	276.855	79.1771	276.855	79.5905	276.855	79.003	276.855	79.4916	276.855	78.8233	276.855	79.3769	276.855	78.6457	276.855	79.2566	276.855	78.4773	276.855	79.1394	276.855	78.3256	276.855	79.0314	276.855	78.1976	276.855	78.9347	276.855	78.0998	276.855	78.8489	276.855	78.0372	276.855	78.7709	276.855	78.0121	276.855	78.6972	276.855	78.0231	276.855	78.6242	276.855	78.0652	276.855	78.549	276.855	78.1308	276.855	78.4695	276.855	78.2111	276.855	78.3854	276.855	78.298
287.109	79.7155	287.109	79.6435	287.109	79.7433	287.109	79.532	287.109	79.7256	287.109	79.3884	287.109	79.6647	287.109	79.2217	287.109	79.5668	287.109	79.0419	287.109	79.4416	287.109	78.8583	287.109	79.3009	287.109	78.6791	287.109	79.1569	287.109	78.511	287.109	79.0202	287.109	78.3589	287.109	78.8978	287.109	78.2267	287.109	78.7917	287.109	78.1179	287.109	78.7	287.109	78.0357	287.109	78.618	287.109	77.9831	287.109	78.5404	287.109	77.9616	287.109	78.463	287.109	77.9706	287.109	78.3833	287.109	78.0068	287.109	78.3011	287.109	78.0646	287.109	78.2178	287.109	78.1372
297.363	79.4728	297.363	79.4053	297.363	79.4933	297.363	79.2936	297.363	79.4678	297.363	79.144	297.363	79.4013	297.363	78.9649	297.363	79.3025	297.363	78.767	297.363	79.1831	297.363	78.5617	297.363	79.0559	297.363	78.3608	297.363	78.9325	297.363	78.1752	297.363	78.821	297.363	78.0147	297.363	78.7253	297.363	77.8867	297.363	78.6445	297.363	77.7963	297.363	78.575	297.363	77.7455	297.363	78.5115	297.363	77.7333	297.363	78.4489	297.363	77.7558	297.363	78.3828	297.363	77.8066	297.363	78.3106	297.363	77.8784	297.363	78.231	297.363	77.9633	297.363	78.1447	297.363	78.054
307.617	79.5984	307.617	79.5435	307.617	79.6041	307.617	79.443	307.617	79.5599	307.617	79.303	307.617	79.4698	307.617	79.1312	307.617	79.3427	307.617	78.9363	307.617	79.1922	307.617	78.728	307.617	79.0357	307.617	78.5166	307.617	78.8909	307.617	78.3132	307.617	78.7716	307.617	78.1295	307.617	78.6842	307.617	77.9771	307.617	78.6263	307.617	77.8662	307.617	78.5894	307.617	77.8035	307.617	78.5622	307.617	77.7912	307.617	78.5344	307.617	77.8251	307.617	78.4981	307.617	77.8961	307.617	78.4483	307.617	77.9915	307.617	78.3827	307.617	78.098	307.617	78.3005	307.617	78.2039
319.336	79.261	319.336	79.2055	319.336	79.2671	319.336	79.1056	319.336	79.2218	319.336	78.9688	319.336	79.1273	319.336	78.8031	319.336	78.9911	319.336	78.6169	319.336	78.8261	319.336	78.4183	319.336	78.6501	319.336	78.2147	319.336	78.4829	319.336	78.0139	319.336	78.3421	319.336	77.8241	319.336	78.239	319.336	77.6553	319.336	78.1748	319.336	77.5186	319.336	78.1414	319.336	77.4247	319.336	78.125	319.336	77.3815	319.336	78.1104	319.336	77.391	319.336	78.0848	319.336	77.4479	319.336	78.0398	319.336	77.5405	319.336	77.9713	319.336	77.6534	319.336	77.8801	319.336	77.771
329.59	79.1285	329.59	79.0866	329.59	79.121	329.59	79.0001	329.59	79.0619	329.59	78.8758	329.59	78.9526	329.59	78.7216	329.59	78.7984	329.59	78.5459	329.59	78.6094	329.59	78.3566	329.59	78.3999	329.59	78.1613	329.59	78.188	329.59	77.9667	329.59	77.9927	329.59	77.7798	329.59	77.8299	329.59	77.6084	329.59	77.7089	329.59	77.4612	329.59	77.6302	329.59	77.347	329.59	77.5863	329.59	77.2732	329.59	77.5648	329.59	77.2426	329.59	77.5519	329.59	77.252	329.59	77.536	329.59	77.2921	329.59	77.509	329.59	77.35	329.59	77.4672	329.59	77.412
341.309	79.0105	341.309	78.9616	341.309	79.0093	341.309	78.8667	341.309	78.9576	341.309	78.7327	341.309	78.8594	341.309	78.5681	341.309	78.7233	341.309	78.3817	341.309	78.5618	341.309	78.1823	341.309	78.3898	341.309	77.9782	341.309	78.2217	341.309	77.7772	341.309	78.069	341.309	77.5874	341.309	77.9387	341.309	77.4179	341.309	77.833	341.309	77.2785	341.309	77.7507	341.309	77.1786	341.309	77.6882	341.309	77.125	341.309	77.6405	341.309	77.1191	341.309	77.601	341.309	77.1553	341.309	77.5621	341.309	77.2217	341.309	77.5162	341.309	77.3031	341.309	77.4577	341.309	77.3853
353.027	78.6386	353.027	78.6042	353.027	78.622	353.027	78.5244	353.027	78.552	353.027	78.4069	353.027	78.4306	353.027	78.2598	353.027	78.2658	353.027	78.0906	353.027	78.0712	353.027	77.9055	353.027	77.8655	353.027	77.7092	353.027	77.6686	353.027	77.5055	353.027	77.4977	353.027	77.299	353.027	77.3625	353.027	77.0963	353.027	77.2633	353.027	76.9076	353.027	77.1929	353.027	76.7467	353.027	77.1404	353.027	76.6281	353.027	77.0946	353.027	76.5628	353.027	77.047	353.027	76.5534	353.027	76.9911	353.027	76.5927	353.027	76.9234	353.027	76.6654	353.027	76.843	353.027	76.7538
366.211	78.6166	366.211	78.5538	366.211	78.6275	366.211	78.4481	366.211	78.5807	366.211	78.3095	366.211	78.475	366.211	78.1476	366.211	78.316	366.211	77.9703	366.211	78.1166	366.211	77.7829	366.211	77.896	366.211	77.5884	366.211	77.6768	366.211	77.3878	366.211	77.4794	366.211	77.1823	366.211	77.3162	366.211	76.9748	366.211	77.1891	366.211	76.7716	366.211	77.0899	366.211	76.5835	366.211	77.005	366.211	76.4244	366.211	76.9212	366.211	76.3088	366.211	76.8289	366.211	76.2473	366.211	76.724	366.211	76.2432	366.211	76.6083	366.211	76.291	366.211	76.489	366.211	76.3782
379.395	78.3087	379.395	78.2632	379.395	78.3107	379.395	78.1813	379.395	78.2651	379.395	78.0721	379.395	78.1721	379.395	77.9445	379.395	78.0377	379.395	77.8059	379.395	77.8727	379.395	77.6615	379.395	77.6927	379.395	77.5136	379.395	77.5142	379.395	77.3629	379.395	77.3513	379.395	77.2097	379.395	77.2121	379.395	77.0556	379.395	77.0979	379.395	76.9053	379.395	77.0049	379.395	76.7671	379.395	76.9271	379.395	76.6513	379.395	76.8594	379.395	76.5678	379.395	76.7979	379.395	76.522	379.395	76.7398	379.395	76.5133	379.395	76.6833	379.395	76.5347	379.395	76.6278	379.395	76.5761
392.578	77.8387	392.578	77.775	392.578	77.8615	392.578	77.6793	392.578	77.838	392.578	77.5622	392.578	77.7686	392.578	77.4337	392.578	77.6604	392.578	77.301	392.578	77.527	392.578	77.1671	392.578	77.3866	392.578	77.0312	392.578	77.2574	392.578	76.89	392.578	77.1523	392.578	76.7408	392.578	77.0742	392.578	76.584	392.578	77.0157	392.578	76.4258	392.578	76.9633	392.578	76.2785	392.578	76.9036	392.578	76.1583	392.578	76.8275	392.578	76.0806	392.578	76.7326	392.578	76.0549	392.578	76.6214	392.578	76.0816	392.578	76.4995	392.578	76.1526	392.578	76.3741	392.578	76.2546
405.762	77.1879	405.762	77.1795	405.762	77.1607	405.762	77.1441	405.762	77.0955	405.762	77.0931	405.762	76.9981	405.762	77.0378	405.762	76.8823	405.762	76.9853	405.762	76.7683	405.762	76.9366	405.762	76.6776	405.762	76.8861	405.762	76.6256	405.762	76.8231	405.762	76.6157	405.762	76.7359	405.762	76.6373	405.762	76.6162	405.762	76.6698	405.762	76.4628	405.762	76.6897	405.762	76.285	405.762	76.6781	405.762	76.1029	405.762	76.6242	405.762	75.9439	405.762	76.5268	405.762	75.8357	405.762	76.3927	405.762	75.7977	405.762	76.2359	405.762	75.8338	405.762	76.0753	405.762	75.9333
420.41	76.3965	420.41	76.3843	420.41	76.3654	420.41	76.3505	420.41	76.2781	420.41	76.3199	420.41	76.136	420.41	76.3141	420.41	75.9596	420.41	76.3465	420.41	75.791	420.41	76.4191	420.41	75.6857	420.41	76.5225	420.41	75.6922	420.41	76.6396	420.41	75.8257	420.41	76.7499	420.41	76.0574	420.41	76.835	420.41	76.3298	420.41	76.8822	420.41	76.584	420.41	76.8868	420.41	76.7781	420.41	76.8534	420.41	76.8929	420.41	76.7953	420.41	76.9292	420.41	76.7321	420.41	76.9023	420.41	76.6853	420.41	76.8364	420.41	76.672	420.41	76.7599	420.41	76.699
435.059	76.3921	435.059	76.2482	435.059	76.4386	435.059	76.0465	435.059	76.3649	435.059	75.8412	435.059	76.1665	435.059	75.6948	435.059	75.8626	435.059	75.6624	435.059	75.5036	435.059	75.7725	435.059	75.1784	435.059	76.0164	435.059	75.0013	435.059	76.3539	435.059	75.0653	435.059	76.7331	435.059	75.3837	435.059	77.1066	435.059	75.8808	435.059	77.4413	435.059	76.4448	435.059	77.7188	435.059	76.9825	435.059	77.9343	435.059	77.439	435.059	78.092	435.059	77.7925	435.059	78.2014	435.059	78.043	435.059	78.2729	435.059	78.2027	435.059	78.3129	435.059	78.2893	435.059	78.3211
451.172	78.2081	451.172	77.9557	451.172	78.3113	451.172	77.5756	451.172	78.2503	451.172	77.0997	451.172	78.016	451.172	76.5762	451.172	77.6081	451.172	76.0741	451.172	77.0435	451.172	75.6801	451.172	76.3711	451.172	75.4774	451.172	75.6922	451.172	75.511	451.172	75.1646	451.172	75.7633	451.172	74.9529	451.172	76.167	451.172	75.1208	451.172	76.6396	451.172	75.5826	451.172	77.1115	451.172	76.1809	451.172	77.5359	451.172	76.7836	451.172	77.886	451.172	77.3153	451.172	78.149	451.172	77.7442	451.172	78.3204	451.172	78.0629	451.172	78.3993	451.172	78.2745	451.172	78.3849
465.82	78.6486	465.82	78.4261	465.82	78.7401	465.82	78.0857	465.82	78.69	465.82	77.6456	465.82	78.4906	465.82	77.1318	465.82	78.1387	465.82	76.5828	465.82	77.641	465.82	76.0528	465.82	77.023	465.82	75.6089	465.82	76.3427	465.82	75.3193	465.82	75.7014	465.82	75.2296	465.82	75.2339	465.82	75.3429	465.82	75.0544	465.82	75.6193	465.82	75.1852	465.82	75.9948	465.82	75.5447	465.82	76.4033	465.82	76.0108	465.82	76.7903	465.82	76.4814	465.82	77.1164	465.82	76.8926	465.82	77.3551	465.82	77.2106	465.82	77.4903	465.82	77.4196	465.82	77.513
483.398	78.5134	483.398	78.317	483.398	78.5901	483.398	78.0098	483.398	78.54	483.398	77.6035	483.398	78.3571	483.398	77.1163	483.398	78.0379	483.398	76.5756	483.398	77.5857	483.398	76.0214	483.398	77.0177	483.398	75.5075	483.398	76.376	483.398	75.0961	483.398	75.7389	483.398	74.8443	483.398	75.2198	483.398	74.7848	483.398	74.9321	483.398	74.9125	483.398	74.928	483.398	75.1871	483.398	75.164	483.398	75.5484	483.398	75.5367	483.398	75.9334	483.398	75.9424	483.398	76.2879	483.398	76.3078	483.398	76.5703	483.398	76.5894	483.398	76.7527	483.398	76.7637	483.398	76.8191
499.512	78.5115	499.512	78.3433	499.512	78.5639	499.512	78.0674	499.512	78.495	499.512	77.6948	499.512	78.3019	499.512	77.2413	499.512	77.9855	499.512	76.7294	499.512	77.5532	499.512	76.1921	499.512	77.0227	499.512	75.6738	499.512	76.4294	499.512	75.2284	499.512	75.8332	499.512	74.9101	499.512	75.3201	499.512	74.7572	499.512	74.9844	499.512	74.7789	499.512	74.8878	499.512	74.9516	499.512	75.0223	499.512	75.2285	499.512	75.3148	499.512	75.5543	499.512	75.6687	499.512	75.8763	499.512	76.0009	499.512	76.1506	499.512	76.256	499.512	76.3436	499.512	76.4036	499.512	76.4322
517.09	78.6087	517.09	78.4317	517.09	78.6635	517.09	78.1435	517.09	78.5877	517.09	77.758	517.09	78.3764	517.09	77.2925	517.09	78.03	517.09	76.7692	517.09	77.5565	517.09	76.2168	517.09	76.978	517.09	75.6726	517.09	76.3363	517.09	75.1816	517.09	75.6995	517.09	74.7921	517.09	75.1587	517.09	74.5468	517.09	74.8048	517.09	74.4701	517.09	74.6885	517.09	74.5588	517.09	74.7926	517.09	74.7802	517.09	75.0445	517.09	75.0812	517.09	75.3546	517.09	75.4015	517.09	75.6474	517.09	75.6869	517.09	75.8706	517.09	75.8959	517.09	75.9936	517.09	76.0022
536.133	78.1042	536.133	77.9304	536.133	78.1658	536.133	77.6554	536.133	78.1062	536.133	77.2921	536.133	77.9196	536.133	76.8562	536.133	77.6053	536.133	76.3669	536.133	77.1705	536.133	75.8487	536.133	76.6358	536.133	75.3331	536.133	76.0406	536.133	74.86	536.133	75.4475	536.133	74.4756	536.133	74.9395	536.133	74.2264	536.133	74.6015	536.133	74.1461	536.133	74.487	536.133	74.241	536.133	74.59	536.133	74.4828	536.133	74.8488	536.133	74.8157	536.133	75.1765	536.133	75.1735	536.133	75.4911	536.133	75.4956	536.133	75.7319	536.133	75.7354	536.133	75.8613	536.133	75.8624
555.176	78.272	555.176	78.0796	555.176	78.3441	555.176	77.7801	555.176	78.2843	555.176	77.3892	555.176	78.0848	555.176	76.925	555.176	77.7427	555.176	76.4096	555.176	77.2642	555.176	75.8705	555.176	76.6704	555.176	75.3408	555.176	76.0034	555.176	74.8585	555.176	75.3321	555.176	74.4616	555.176	74.7486	555.176	74.1831	555.176	74.3462	555.176	74.0461	555.176	74.1825	555.176	74.059	555.176	74.25	555.176	74.2104	555.176	74.4832	555.176	74.466	555.176	74.7923	555.176	74.7725	555.176	75.0933	555.176	75.07	555.176	75.3235	555.176	75.3044	555.176	75.4434	555.176	75.4361
574.219	78.0379	574.219	77.8311	574.219	78.1285	574.219	77.523	574.219	78.0896	574.219	77.1301	574.219	77.9111	574.219	76.6711	574.219	77.5882	574.219	76.1681	574.219	77.126	574.219	75.6472	574.219	76.545	574.219	75.1401	574.219	75.8888	574.219	74.6823	574.219	75.2292	574.219	74.3107	574.219	74.6624	574.219	74.057	574.219	74.2838	574.219	73.9411	574.219	74.1456	574.219	73.9664	574.219	74.2297	574.219	74.1185	574.219	74.463	574.219	74.365	574.219	74.7569	574.219	74.6595	574.219	75.035	574.219	74.9487	574.219	75.2418	574.219	75.1824	574.219	75.3423	574.219	75.3212
594.727	77.9654	594.727	77.7565	594.727	78.0463	594.727	77.4341	594.727	77.9869	594.727	77.0155	594.727	77.7784	594.727	76.5214	594.727	77.4181	594.727	75.9772	594.727	76.9149	594.727	75.4123	594.727	76.2934	594.727	74.8586	594.727	75.5989	594.727	74.3492	594.727	74.8982	594.727	73.9179	594.727	74.276	594.727	73.6009	594.727	73.8224	594.727	73.4339	594.727	73.6073	594.727	73.441	594.727	73.6484	594.727	73.6181	594.727	73.8957	594.727	73.924	594.727	74.2523	594.727	74.2903	594.727	74.6141	594.727	74.6418	594.727	74.899	594.727	74.9135	594.727	75.0551	594.727	75.0593
615.234	78.1235	615.234	77.8958	615.234	78.2238	615.234	77.5563	615.234	78.1823	615.234	77.1223	615.234	77.9859	615.234	76.6132	615.234	77.6266	615.234	76.0518	615.234	77.1057	615.234	75.4643	615.234	76.4424	615.234	74.8797	615.234	75.6825	615.234	74.3286	615.234	74.9057	615.234	73.8427	615.234	74.2203	615.234	73.4561	615.234	73.7337	615.234	73.2069	615.234	73.5074	615.234	73.1302	615.234	73.528	615.234	73.2383	615.234	73.7246	615.234	73.5012	615.234	74.0066	615.234	73.8481	615.234	74.2916	615.234	74.1938	615.234	74.5155	615.234	74.4659	615.234	74.6331	615.234	74.6184
637.207	77.934	637.207	77.7062	637.207	78.0556	637.207	77.3832	637.207	78.0565	637.207	76.9744	637.207	77.9183	637.207	76.4921	637.207	77.6228	637.207	75.9548	637.207	77.1591	637.207	75.3892	637.207	76.5329	637.207	74.8289	637.207	75.7786	637.207	74.3087	637.207	74.9703	637.207	73.8578	637.207	74.2257	637.207	73.4986	637.207	73.6833	637.207	73.2544	637.207	73.4433	637.207	73.1567	637.207	73.5071	637.207	73.2349	637.207	73.7825	637.207	73.4859	637.207	74.144	637.207	73.8544	637.207	74.4846	637.207	74.2492	637.207	74.7307	637.207	74.5811	637.207	74.8385	637.207	74.7876
659.18	77.6611	659.18	77.4166	659.18	77.7909	659.18	77.0753	659.18	77.7891	659.18	76.6559	659.18	77.6409	659.18	76.177	659.18	77.3359	659.18	75.657	659.18	76.8722	659.18	75.1128	659.18	76.2613	659.18	74.5611	659.18	75.5345	659.18	74.0211	659.18	74.7518	659.18	73.5198	659.18	74.0083	659.18	73.0954	659.18	73.4288	659.18	72.7963	659.18	73.1271	659.18	72.6706	659.18	73.1403	659.18	72.744	659.18	73.3974	659.18	73.0001	659.18	73.7656	659.18	73.3772	659.18	74.1177	659.18	73.7874	659.18	74.3648	659.18	74.144	659.18	74.4579	659.18	74.3805
682.617	77.8477	682.617	77.5699	682.617	77.9939	682.617	77.1818	682.617	77.9881	682.617	76.7046	682.617	77.8132	682.617	76.1609	682.617	77.4592	682.617	75.5774	682.617	76.9281	682.617	74.9883	682.617	76.2407	682.617	74.433	682.617	75.4423	682.617	73.9461	682.617	74.6084	682.617	73.544	682.617	73.8428	682.617	73.2217	682.617	73.2629	682.617	72.9687	682.617	72.9622	682.617	72.7936	682.617	72.9638	682.617	72.7334	682.617	73.2005	682.617	72.8304	682.617	73.5482	682.617	73.0872	682.617	73.8809	682.617	73.4429	682.617	74.1057	682.617	73.7983	682.617	74.1706	682.617	74.0608
707.52	77.6046	707.52	77.3316	707.52	77.7714	707.52	76.9707	707.52	77.8104	707.52	76.5371	707.52	77.6987	707.52	76.0426	707.52	77.4157	707.52	75.4973	707.52	76.95	707.52	74.9125	707.52	76.3077	707.52	74.3049	707.52	75.5219	707.52	73.7011	707.52	74.6604	707.52	73.1416	707.52	73.8288	707.52	72.6816	707.52	73.1613	707.52	72.3874	707.52	72.785	707.52	72.3172	707.52	72.755	707.52	72.4864	707.52	73.0109	707.52	72.8436	707.52	73.411	707.52	73.2882	707.52	73.8106	707.52	73.7153	707.52	74.1096	707.52	74.0463	707.52	74.2567	707.52	74.2342
732.422	77.7007	732.422	77.4123	732.422	77.8733	732.422	77.0288	732.422	77.9081	732.422	76.5714	732.422	77.7808	732.422	76.0632	732.422	77.4676	732.422	75.5284	732.422	76.9532	732.422	74.9906	732.422	76.2426	732.422	74.4705	732.422	75.3755	732.422	73.9833	732.422	74.4398	732.422	73.5374	732.422	73.5724	732.422	73.1369	732.422	72.9296	732.422	72.796	732.422	72.6248	732.422	72.5568	732.422	72.6746	732.422	72.4891	732.422	72.9946	732.422	72.6464	732.422	73.4424	732.422	73.0053	732.422	73.8718	732.422	73.4612	732.422	74.1717	732.422	73.8855	732.422	74.2797	732.422	74.1777
757.324	78.0442	757.324	77.7813	757.324	78.1786	757.324	77.4063	757.324	78.1661	757.324	76.9341	757.324	77.9878	757.324	76.381	757.324	77.6277	757.324	75.769	757.324	77.0789	757.324	75.1318	757.324	76.3504	757.324	74.5153	757.324	75.4753	757.324	73.9663	757.324	74.5228	757.324	73.5099	757.324	73.6111	757.324	73.1385	757.324	72.9081	757.324	72.8354	757.324	72.5767	757.324	72.6191	757.324	72.669	757.324	72.5634	757.324	73.0795	757.324	72.7502	757.324	73.6235	757.324	73.1746	757.324	74.134	757.324	73.7163	757.324	74.496	757.324	74.2139	757.324	74.6418	757.324	74.5436
785.156	78.983	785.156	78.7598	785.156	79.0941	785.156	78.4553	785.156	79.0608	785.156	78.0966	785.156	78.8508	785.156	77.7023	785.156	78.4363	785.156	77.2789	785.156	77.801	785.156	76.8233	785.156	76.9499	785.156	76.3345	785.156	75.9196	785.156	75.8267	785.156	74.7908	785.156	75.3323	785.156	73.7089	785.156	74.8895	785.156	72.8985	785.156	74.5237	785.156	72.6014	785.156	74.249	785.156	72.8857	785.156	74.0914	785.156	73.549	785.156	74.0973	785.156	74.2923	785.156	74.2934	785.156	74.903	785.156	74.6344	785.156	75.2823	785.156	75.0095	785.156	75.4068	785.156	75.2975
811.523	77.1285	811.523	77.435	811.523	76.6754	811.523	77.616	811.523	76.0498	811.523	77.6903	811.523	75.2226	811.523	77.6764	811.523	74.1711	811.523	77.5911	811.523	72.8953	811.523	77.4459	811.523	71.4294	811.523	77.2449	811.523	69.8388	811.523	76.9864	811.523	68.1934	811.523	76.6704	811.523	66.5474	811.523	76.309	811.523	65.0361	811.523	75.9373	811.523	64.2372	811.523	75.6131	811.523	65.0805	811.523	75.3951	811.523	67.2405	811.523	75.3018	811.523	69.5643	811.523	75.2862	811.523	71.5099	811.523	75.2515	811.523	72.9852	811.523	75.0901	811.523	74.0298	811.523	74.7084
840.82	72.9502	840.82	72.6744	840.82	73.2389	840.82	72.4016	840.82	73.5268	840.82	72.1097	840.82	73.7732	840.82	71.7798	840.82	73.9167	840.82	71.4098	840.82	73.889	840.82	71.0239	840.82	73.633	840.82	70.664	840.82	73.1199	840.82	70.3575	840.82	72.3675	840.82	70.0809	840.82	71.4561	840.82	69.7632	840.82	70.5299	840.82	69.342	840.82	69.7522	840.82	68.8398	840.82	69.2186	840.82	68.4128	840.82	68.9181	840.82	68.2815	840.82	68.7984	840.82	68.508	840.82	68.8316	840.82	68.899	840.82	68.9898	840.82	69.2042	840.82	69.1885	840.82	69.296
870.117	74.376	870.117	74.0999	870.117	74.6445	870.117	73.8206	870.117	74.8805	870.117	73.5243	870.117	75.0392	870.117	73.1816	870.117	75.0623	870.117	72.7567	870.117	74.8922	870.117	72.2291	870.117	74.49	870.117	71.622	870.117	73.8531	870.117	71.0145	870.117	73.0256	870.117	70.506	870.117	72.0952	870.117	70.1388	870.117	71.1673	870.117	69.871	870.117	70.3437	870.117	69.6504	870.117	69.7429	870.117	69.5002	870.117	69.5012	870.117	69.5093	870.117	69.6521	870.117	69.7236	870.117	70.032	870.117	70.069	870.117	70.4045	870.117	70.404	870.117	70.614	870.117	70.6083
900.879	74.4655	900.879	74.1649	900.879	74.7664	900.879	73.8842	900.879	75.0314	900.879	73.6283	900.879	75.208	900.879	73.3833	900.879	75.2371	900.879	73.1126	900.879	75.0697	900.879	72.768	900.879	74.6797	900.879	72.3214	900.879	74.0719	900.879	71.7944	900.879	73.2806	900.879	71.2533	900.879	72.3635	900.879	70.755	900.879	71.4047	900.879	70.2944	900.879	70.5493	900.879	69.835	900.879	70.0219	900.879	69.4111	900.879	69.9808	900.879	69.181	900.879	70.3054	900.879	69.3027	900.879	70.6985	900.879	69.7335	900.879	70.9374	900.879	70.2625	900.879	70.9378	900.879	70.6983
933.105	74.7184	933.105	74.5813	933.105	74.775	933.105	74.3473	933.105	74.7846	933.105	74.0274	933.105	74.7711	933.105	73.6489	933.105	74.7195	933.105	73.237	933.105	74.5734	933.105	72.8058	933.105	74.263	933.105	72.3678	933.105	73.7459	933.105	71.942	933.105	73.0358	933.105	71.5367	933.105	72.2063	933.105	71.1204	933.105	71.3558	933.105	70.6313	933.105	70.5638	933.105	70.0497	933.105	69.9208	933.105	69.4991	933.105	69.604	933.105	69.2548	933.105	69.7613	933.105	69.4969	933.105	70.2571	933.105	70.0632	933.105	70.7628	933.105	70.6336	933.105	71.0361	933.105	70.9892
965.332	74.8987	965.332	74.7606	965.332	74.9645	965.332	74.5154	965.332	74.9926	965.332	74.1554	965.332	74.9788	965.332	73.6967	965.332	74.8687	965.332	73.155	965.332	74.5885	965.332	72.5291	965.332	74.0895	965.332	71.8132	965.332	73.3782	965.332	71.0444	965.332	72.5236	965.332	70.349	965.332	71.6318	965.332	69.9079	965.332	70.7944	965.332	69.7924	965.332	70.0834	965.332	69.8596	965.332	69.6245	965.332	69.8995	965.332	69.5844	965.332	69.8333	965.332	69.9441	965.332	69.762	965.332	70.4269	965.332	69.8553	965.332	70.7452	965.332	70.158	965.332	70.771	965.332	70.5295
1,000.49	75.3144	1,000.49	75.2207	1,000.49	75.2644	1,000.49	74.9747	1,000.49	75.1251	1,000.49	74.6171	1,000.49	74.9617	1,000.49	74.2124	1,000.49	74.7924	1,000.49	73.8014	1,000.49	74.5564	1,000.49	73.3681	1,000.49	74.1472	1,000.49	72.8607	1,000.49	73.4794	1,000.49	72.2466	1,000.49	72.5445	1,000.49	71.5466	1,000.49	71.4505	1,000.49	70.8246	1,000.49	70.4203	1,000.49	70.1456	1,000.49	69.6883	1,000.49	69.5593	1,000.49	69.3599	1,000.49	69.1525	1,000.49	69.4169	1,000.49	69.0818	1,000.49	69.7838	1,000.49	69.4288	1,000.49	70.3099	1,000.49	70.0366	1,000.49	70.7896	1,000.49	70.6274	1,000.49	71.0483	1,000.49	70.9951
1,035.64	75.9806	1,035.64	75.8926	1,035.64	75.8462	1,035.64	75.5772	1,035.64	75.5586	1,035.64	75.0899	1,035.64	75.231	1,035.64	74.5299	1,035.64	74.955	1,035.64	73.996	1,035.64	74.7221	1,035.64	73.5377	1,035.64	74.4266	1,035.64	73.1536	1,035.64	73.9511	1,035.64	72.8346	1,035.64	73.2429	1,035.64	72.5752	1,035.64	72.3311	1,035.64	72.332	1,035.64	71.2804	1,035.64	72.0013	1,035.64	70.1368	1,035.64	71.4804	1,035.64	69.0424	1,035.64	70.7914	1,035.64	68.5221	1,035.64	70.1934	1,035.64	69.0918	1,035.64	70.0752	1,035.64	70.2718	1,035.64	70.5154	1,035.64	71.2639	1,035.64	71.1698	1,035.64	71.7299	1,035.64	71.6555
1,072.27	76.8699	1,072.27	76.7025	1,072.27	76.7712	1,072.27	76.2708	1,072.27	76.4437	1,072.27	75.6208	1,072.27	75.9694	1,072.27	74.8525	1,072.27	75.4607	1,072.27	74.0991	1,072.27	75.0006	1,072.27	73.4521	1,072.27	74.5806	1,072.27	72.9014	1,072.27	74.1163	1,072.27	72.3718	1,072.27	73.5236	1,072.27	71.8182	1,072.27	72.7658	1,072.27	71.2837	1,072.27	71.841	1,072.27	70.8734	1,072.27	70.7679	1,072.27	70.6592	1,072.27	69.6948	1,072.27	70.6333	1,072.27	69.1085	1,072.27	70.7782	1,072.27	69.5188	1,072.27	71.105	1,072.27	70.5984	1,072.27	71.574	1,072.27	71.6166	1,072.27	72.0398	1,072.27	72.2014	1,072.27	72.3071
1,108.89	77.254	1,108.89	77.0195	1,108.89	77.109	1,108.89	76.4431	1,108.89	76.5954	1,108.89	75.5941	1,108.89	75.8139	1,108.89	74.5984	1,108.89	74.9632	1,108.89	73.6562	1,108.89	74.2422	1,108.89	72.9528	1,108.89	73.6878	1,108.89	72.4972	1,108.89	73.1652	1,108.89	72.1384	1,108.89	72.5488	1,108.89	71.7667	1,108.89	71.8755	1,108.89	71.4369	1,108.89	71.3079	1,108.89	71.2704	1,108.89	70.8973	1,108.89	71.2313	1,108.89	70.4889	1,108.89	71.1469	1,108.89	70.0137	1,108.89	71.0055	1,108.89	69.7834	1,108.89	71.0627	1,108.89	70.2106	1,108.89	71.4719	1,108.89	71.0982	1,108.89	71.968	1,108.89	71.8649	1,108.89	72.1667
1,148.44	76.9816	1,148.44	77.0538	1,148.44	76.5884	1,148.44	76.6569	1,148.44	76.0344	1,148.44	75.7187	1,148.44	75.4312	1,148.44	74.3509	1,148.44	74.8021	1,148.44	73.0112	1,148.44	74.1079	1,148.44	72.3488	1,148.44	73.3126	1,148.44	72.3953	1,148.44	72.4393	1,148.44	72.5545	1,148.44	71.6146	1,148.44	72.4413	1,148.44	71.0574	1,148.44	72.0863	1,148.44	70.866	1,148.44	71.6896	1,148.44	70.7876	1,148.44	71.3102	1,148.44	70.4199	1,148.44	70.8877	1,148.44	69.5958	1,148.44	70.5945	1,148.44	68.7207	1,148.44	70.8268	1,148.44	68.8292	1,148.44	71.5234	1,148.44	70.0855	1,148.44	72.1053	1,148.44	71.4077	1,148.44	72.1209
1,189.45	77.2676	1,189.45	77.0276	1,189.45	77.2349	1,189.45	76.5032	1,189.45	76.9298	1,189.45	75.6331	1,189.45	76.4059	1,189.45	74.369	1,189.45	75.7806	1,189.45	72.869	1,189.45	75.1572	1,189.45	71.7406	1,189.45	74.5267	1,189.45	71.6297	1,189.45	73.7817	1,189.45	72.1614	1,189.45	72.849	1,189.45	72.5366	1,189.45	71.8104	1,189.45	72.4418	1,189.45	70.9132	1,189.45	71.969	1,189.45	70.4238	1,189.45	71.3098	1,189.45	70.368	1,189.45	70.5319	1,189.45	70.5143	1,189.45	69.7537	1,189.45	70.7402	1,189.45	69.4543	1,189.45	71.1689	1,189.45	69.9546	1,189.45	71.73	1,189.45	70.8781	1,189.45	71.9992	1,189.45	71.6846
1,230.47	77.5699	1,230.47	77.3946	1,230.47	77.4883	1,230.47	76.9248	1,230.47	77.2147	1,230.47	76.1546	1,230.47	76.8229	1,230.47	75.098	1,230.47	76.378	1,230.47	73.7844	1,230.47	75.9022	1,230.47	72.3368	1,230.47	75.3337	1,230.47	71.2104	1,230.47	74.5464	1,230.47	71.038	1,230.47	73.4633	1,230.47	71.5917	1,230.47	72.2252	1,230.47	72.045	1,230.47	71.2228	1,230.47	71.9568	1,230.47	70.6914	1,230.47	71.2783	1,230.47	70.434	1,230.47	70.2065	1,230.47	70.2581	1,230.47	69.2824	1,230.47	70.1929	1,230.47	69.2655	1,230.47	70.3439	1,230.47	70.1328	1,230.47	70.7769	1,230.47	71.0584	1,230.47	71.2933	1,230.47	71.4755
1,274.41	77.1384	1,274.41	76.783	1,274.41	77.1564	1,274.41	76.0818	1,274.41	76.9136	1,274.41	75.1086	1,274.41	76.5106	1,274.41	73.9878	1,274.41	76.0368	1,274.41	72.8311	1,274.41	75.5551	1,274.41	71.7022	1,274.41	75.0569	1,274.41	70.7168	1,274.41	74.431	1,274.41	70.2427	1,274.41	73.5831	1,274.41	70.6314	1,274.41	72.6378	1,274.41	71.4898	1,274.41	71.9273	1,274.41	72.0418	1,274.41	71.5357	1,274.41	71.7918	1,274.41	71.0695	1,274.41	70.5556	1,274.41	70.2306	1,274.41	68.5243	1,274.41	69.5035	1,274.41	66.9179	1,274.41	69.9122	1,274.41	67.6098	1,274.41	71.0227	1,274.41	69.5954	1,274.41	71.5959	1,274.41	71.1149
1,319.82	76.2528	1,319.82	75.1647	1,319.82	77.0861	1,319.82	74.1299	1,319.82	77.4464	1,319.82	73.3882	1,319.82	77.277	1,319.82	72.9323	1,319.82	76.6904	1,319.82	72.5052	1,319.82	75.9081	1,319.82	71.7601	1,319.82	75.1056	1,319.82	70.3824	1,319.82	74.2742	1,319.82	68.2505	1,319.82	73.3114	1,319.82	66.2504	1,319.82	72.3302	1,319.82	66.6135	1,319.82	71.7796	1,319.82	68.2775	1,319.82	71.8234	1,319.82	69.1168	1,319.82	71.9603	1,319.82	68.6216	1,319.82	71.806	1,319.82	66.9126	1,319.82	71.4669	1,319.82	65.1839	1,319.82	71.1665	1,319.82	65.7522	1,319.82	70.8443	1,319.82	67.6619	1,319.82	70.2631	1,319.82	69.2401
1,366.7	80.7687	1,366.7	80.3385	1,366.7	81.0694	1,366.7	79.7381	1,366.7	81.1341	1,366.7	78.7987	1,366.7	80.8243	1,366.7	77.4037	1,366.7	80.0908	1,366.7	75.7456	1,366.7	79.02	1,366.7	74.4216	1,366.7	77.778	1,366.7	73.7362	1,366.7	76.4466	1,366.7	73.0528	1,366.7	74.9485	1,366.7	71.5393	1,366.7	73.3252	1,366.7	68.8269	1,366.7	72.2142	1,366.7	66.6051	1,366.7	72.2838	1,366.7	68.0819	1,366.7	72.8031	1,366.7	69.9557	1,366.7	72.9195	1,366.7	70.4235	1,366.7	72.9507	1,366.7	69.7135	1,366.7	73.7191	1,366.7	69.2156	1,366.7	74.6855	1,366.7	70.9259	1,366.7	74.7148	1,366.7	73.3586
1,413.57	80.4773	1,413.57	80.3529	1,413.57	80.4423	1,413.57	79.997	1,413.57	80.2521	1,413.57	79.2589	1,413.57	79.8737	1,413.57	78.0157	1,413.57	79.2597	1,413.57	76.4078	1,413.57	78.378	1,413.57	75.0321	1,413.57	77.2179	1,413.57	74.3857	1,413.57	75.7669	1,413.57	73.9636	1,413.57	74.0338	1,413.57	73.0108	1,413.57	72.2516	1,413.57	71.4193	1,413.57	71.2287	1,413.57	70.1144	1,413.57	71.4632	1,413.57	70.2179	1,413.57	71.8692	1,413.57	70.8258	1,413.57	71.4499	1,413.57	70.7772	1,413.57	70.5409	1,413.57	69.9481	1,413.57	71.155	1,413.57	69.2738	1,413.57	72.9541	1,413.57	70.4831	1,413.57	73.6468	1,413.57	72.6222
1,463.38	79.9838	1,463.38	79.4574	1,463.38	80.1327	1,463.38	78.8153	1,463.38	79.7766	1,463.38	78.1573	1,463.38	78.9916	1,463.38	77.2656	1,463.38	77.9707	1,463.38	75.9018	1,463.38	76.901	1,463.38	74.2855	1,463.38	75.882	1,463.38	73.3172	1,463.38	74.8897	1,463.38	73.1758	1,463.38	73.767	1,463.38	72.753	1,463.38	72.3332	1,463.38	71.4426	1,463.38	70.8587	1,463.38	69.6718	1,463.38	70.3951	1,463.38	68.9177	1,463.38	71.0098	1,463.38	69.7955	1,463.38	71.444	1,463.38	70.9628	1,463.38	71.0064	1,463.38	71.4476	1,463.38	70.0117	1,463.38	71.1148	1,463.38	69.9361	1,463.38	70.6544	1,463.38	70.6575	1,463.38	70.7641
1,516.11	80.463	1,516.11	79.771	1,516.11	80.4003	1,516.11	78.6075	1,516.11	79.5922	1,516.11	77.4549	1,516.11	78.2776	1,516.11	76.5025	1,516.11	76.8669	1,516.11	75.3807	1,516.11	75.8051	1,516.11	73.8322	1,516.11	75.2422	1,516.11	72.6105	1,516.11	74.7923	1,516.11	72.5348	1,516.11	73.8499	1,516.11	72.5764	1,516.11	72.1777	1,516.11	71.739	1,516.11	70.6116	1,516.11	70.0736	1,516.11	70.3304	1,516.11	68.7845	1,516.11	70.4353	1,516.11	68.9144	1,516.11	70.1041	1,516.11	69.5485	1,516.11	69.6639	1,516.11	70.0251	1,516.11	69.5137	1,516.11	70.401	1,516.11	69.9159	1,516.11	70.7376	1,516.11	70.5919	1,516.11	70.8885
1,568.85	79.9847	1,568.85	79.3794	1,568.85	80.0212	1,568.85	78.4396	1,568.85	79.3972	1,568.85	77.4769	1,568.85	78.1941	1,568.85	76.6013	1,568.85	76.7185	1,568.85	75.4437	1,568.85	75.4316	1,568.85	73.5512	1,568.85	74.6142	1,568.85	71.5321	1,568.85	73.9921	1,568.85	71.3608	1,568.85	72.8881	1,568.85	72.2234	1,568.85	70.9009	1,568.85	72.087	1,568.85	69.1333	1,568.85	70.5634	1,568.85	69.5869	1,568.85	68.9119	1,568.85	70.4189	1,568.85	68.9765	1,568.85	70.1563	1,568.85	69.5371	1,568.85	69.5313	1,568.85	69.6083	1,568.85	69.563	1,568.85	69.8733	1,568.85	70.1092	1,568.85	70.6043	1,568.85	70.7767	1,568.85	71.0416
1,624.51	79.4292	1,624.51	79.1456	1,624.51	79.3564	1,624.51	78.6027	1,624.51	78.8715	1,624.51	77.816	1,624.51	78.0852	1,624.51	76.8113	1,624.51	77.1455	1,624.51	75.5853	1,624.51	76.0687	1,624.51	73.8357	1,624.51	74.9459	1,624.51	71.4036	1,624.51	73.9967	1,624.51	70.121	1,624.51	72.9662	1,624.51	71.7342	1,624.51	71.0921	1,624.51	73.1394	1,624.51	68.3398	1,624.51	72.8094	1,624.51	68.324	1,624.51	70.8506	1,624.51	70.3602	1,624.51	68.6484	1,624.51	70.3796	1,624.51	67.9141	1,624.51	68.7003	1,624.51	67.8701	1,624.51	68.4913	1,624.51	68.2813	1,624.51	70.0186	1,624.51	69.5373	1,624.51	70.9442	1,624.51	70.7247
1,681.64	79.1085	1,681.64	79.009	1,681.64	78.9246	1,681.64	78.6421	1,681.64	78.4459	1,681.64	77.9788	1,681.64	77.748	1,681.64	76.9894	1,681.64	76.9111	1,681.64	75.676	1,681.64	75.9126	1,681.64	74.0182	1,681.64	74.7679	1,681.64	71.906	1,681.64	73.6427	1,681.64	69.5974	1,681.64	72.5945	1,681.64	69.2167	1,681.64	71.2899	1,681.64	71.1237	1,681.64	69.4441	1,681.64	72.3986	1,681.64	68.2506	1,681.64	72.1533	1,681.64	68.9426	1,681.64	70.7169	1,681.64	69.4028	1,681.64	68.9857	1,681.64	68.498	1,681.64	67.9897	1,681.64	66.8713	1,681.64	68.3285	1,681.64	67.2352	1,681.64	69.6039	1,681.64	69.3682	1,681.64	70.3016
1,741.7	79.298	1,741.7	79.3895	1,741.7	78.7853	1,741.7	78.9296	1,741.7	78.0175	1,741.7	77.9132	1,741.7	77.2033	1,741.7	76.7221	1,741.7	76.4447	1,741.7	75.8836	1,741.7	75.674	1,741.7	75.233	1,741.7	74.7908	1,741.7	74.1023	1,741.7	73.7175	1,741.7	72.1427	1,741.7	72.267	1,741.7	70.3248	1,741.7	70.1754	1,741.7	70.4977	1,741.7	68.2128	1,741.7	71.3892	1,741.7	68.5749	1,741.7	71.7284	1,741.7	69.5075	1,741.7	71.6181	1,741.7	69.0939	1,741.7	71.0687	1,741.7	68.1603	1,741.7	69.7513	1,741.7	68.4684	1,741.7	68.2018	1,741.7	69.2071	1,741.7	68.5645	1,741.7	69.724	1,741.7	69.6648
1,803.22	78.7886	1,803.22	78.7823	1,803.22	78.6777	1,803.22	78.5424	1,803.22	78.4387	1,803.22	77.7666	1,803.22	78.0445	1,803.22	76.2604	1,803.22	77.4389	1,803.22	74.4885	1,803.22	76.6019	1,803.22	73.6185	1,803.22	75.6182	1,803.22	73.4099	1,803.22	74.6226	1,803.22	72.0772	1,803.22	73.5095	1,803.22	68.4735	1,803.22	71.6071	1,803.22	66.7211	1,803.22	68.3271	1,803.22	69.4551	1,803.22	67.9006	1,803.22	70.2913	1,803.22	70.8348	1,803.22	70.0349	1,803.22	71.6137	1,803.22	69.9505	1,803.22	70.3832	1,803.22	69.3467	1,803.22	69.2457	1,803.22	67.4606	1,803.22	69.3889	1,803.22	66.0765	1,803.22	69.1347	1,803.22	67.6687
1,866.21	80.8352	1,866.21	81.0809	1,866.21	80.2683	1,866.21	80.966	1,866.21	79.2377	1,866.21	80.3655	1,866.21	77.6069	1,866.21	79.2593	1,866.21	75.4848	1,866.21	77.703	1,866.21	73.2272	1,866.21	75.8406	1,866.21	71.1265	1,866.21	74.4015	1,866.21	69.3519	1,866.21	74.0082	1,866.21	67.7048	1,866.21	73.3253	1,866.21	65.1695	1,866.21	71.1807	1,866.21	59.2708	1,866.21	68.5562	1,866.21	55.783	1,866.21	67.6561	1,866.21	63.9895	1,866.21	67.4825	1,866.21	66.4642	1,866.21	67.9173	1,866.21	65.7197	1,866.21	69.5949	1,866.21	65.7259	1,866.21	70.7968	1,866.21	69.3089	1,866.21	70.8903	1,866.21	71.1278	1,866.21	71.0645
1,932.13	77.409	1,932.13	78.224	1,932.13	76.777	1,932.13	78.6737	1,932.13	76.469	1,932.13	78.4004	1,932.13	76.0387	1,932.13	77.594	1,932.13	75.0992	1,932.13	76.6858	1,932.13	74.1824	1,932.13	75.6645	1,932.13	74.2342	1,932.13	74.5658	1,932.13	74.8637	1,932.13	74.2211	1,932.13	74.9239	1,932.13	73.9397	1,932.13	73.89	1,932.13	71.8512	1,932.13	71.6226	1,932.13	67.7474	1,932.13	68.1044	1,932.13	66.6449	1,932.13	66.9336	1,932.13	67.6803	1,932.13	69.741	1,932.13	67.7421	1,932.13	70.5273	1,932.13	68.094	1,932.13	68.2705	1,932.13	69.3729	1,932.13	65.6362	1,932.13	69.9002	1,932.13	67.4736	1,932.13	69.2019
1,999.51	78.8118	1,999.51	79.0144	1,999.51	78.4972	1,999.51	79.0484	1,999.51	77.9253	1,999.51	78.7083	1,999.51	77.006	1,999.51	77.7719	1,999.51	75.9868	1,999.51	76.1055	1,999.51	75.2	1,999.51	73.8104	1,999.51	74.801	1,999.51	71.8842	1,999.51	74.641	1,999.51	71.7483	1,999.51	74.1358	1,999.51	72.1854	1,999.51	72.8174	1,999.51	71.4219	1,999.51	70.6142	1,999.51	68.9436	1,999.51	68.1455	1,999.51	65.9896	1,999.51	67.9154	1,999.51	66.1883	1,999.51	69.9001	1,999.51	68.1789	1,999.51	70.6433	1,999.51	68.876	1,999.51	68.9725	1,999.51	68.9549	1,999.51	67.6115	1,999.51	70.0492	1,999.51	69.8597	1,999.51	70.9087
2,069.82	78.9939	2,069.82	79.651	2,069.82	77.9554	2,069.82	79.5573	2,069.82	77.0823	2,069.82	78.7858	2,069.82	76.5804	2,069.82	77.7697	2,069.82	76.1361	2,069.82	76.7057	2,069.82	75.3993	2,069.82	74.9278	2,069.82	74.6919	2,069.82	71.583	2,069.82	74.5537	2,069.82	69.9164	2,069.82	74.4262	2,069.82	72.8598	2,069.82	73.5303	2,069.82	73.9296	2,069.82	71.4959	2,069.82	72.3212	2,069.82	68.7381	2,069.82	69.2445	2,069.82	67.2262	2,069.82	68.0334	2,069.82	68.6976	2,069.82	69.116	2,069.82	70.4689	2,069.82	69.5814	2,069.82	69.452	2,069.82	69.5762	2,069.82	67.0989	2,069.82	70.5115	2,069.82	69.7449	2,069.82	71.2768
2,143.07	78.9655	2,143.07	79.5556	2,143.07	77.8192	2,143.07	79.2717	2,143.07	76.9882	2,143.07	78.3234	2,143.07	76.8552	2,143.07	77.3622	2,143.07	76.7398	2,143.07	76.9834	2,143.07	75.8809	2,143.07	76.5297	2,143.07	74.1497	2,143.07	74.2575	2,143.07	73.1857	2,143.07	68.0607	2,143.07	74.1173	2,143.07	67.4013	2,143.07	74.7167	2,143.07	71.9502	2,143.07	73.6296	2,143.07	71.9937	2,143.07	71.2987	2,143.07	69.6189	2,143.07	69.7947	2,143.07	67.7778	2,143.07	69.3609	2,143.07	68.9301	2,143.07	69.1848	2,143.07	69.9524	2,143.07	67.9651	2,143.07	69.9212	2,143.07	65.2597	2,143.07	70.5652	2,143.07	68.061	2,143.07	70.7137
2,219.24	79.4736	2,219.24	79.1699	2,219.24	78.8681	2,219.24	78.3978	2,219.24	77.7866	2,219.24	77.8221	2,219.24	77.0749	2,219.24	77.2182	2,219.24	77.0088	2,219.24	76.1303	2,219.24	76.8679	2,219.24	75.2646	2,219.24	75.7867	2,219.24	74.6162	2,219.24	73.6807	2,219.24	72.0246	2,219.24	71.9658	2,219.24	63.9565	2,219.24	72.3602	2,219.24	68.0725	2,219.24	73.0587	2,219.24	71.8851	2,219.24	72.1261	2,219.24	71.3349	2,219.24	68.9281	2,219.24	68.7847	2,219.24	68.7772	2,219.24	68.4787	2,219.24	71.322	2,219.24	69.2974	2,219.24	70.0743	2,219.24	67.5591	2,219.24	64.4776	2,219.24	66.867	2,219.24	66.0978	2,219.24	68.1571
2,296.88	79.3844	2,296.88	79.6008	2,296.88	78.9558	2,296.88	79.5103	2,296.88	78.6454	2,296.88	79.0582	2,296.88	78.448	2,296.88	77.9406	2,296.88	77.7213	2,296.88	75.8806	2,296.88	76.2003	2,296.88	72.9787	2,296.88	74.6025	2,296.88	69.6906	2,296.88	73.6017	2,296.88	65.7812	2,296.88	72.3222	2,296.88	50.8843	2,296.88	68.6517	2,296.88	63.5283	2,296.88	64.0648	2,296.88	67.0259	2,296.88	70.2512	2,296.88	65.5573	2,296.88	71.433	2,296.88	64.2066	2,296.88	68.7487	2,296.88	65.5033	2,296.88	69.7558	2,296.88	68.2838	2,296.88	71.5548	2,296.88	67.2055	2,296.88	68.7489	2,296.88	62.0671	2,296.88	64.4035	2,296.88	63.6946
2,378.91	80.5691	2,378.91	80.6353	2,378.91	79.484	2,378.91	79.9402	2,378.91	78.2935	2,378.91	79.1356	2,378.91	77.7847	2,378.91	78.3158	2,378.91	77.2024	2,378.91	77.1668	2,378.91	76.0633	2,378.91	75.3008	2,378.91	74.9406	2,378.91	72.5424	2,378.91	74.5294	2,378.91	70.0129	2,378.91	74.8565	2,378.91	69.3628	2,378.91	74.1779	2,378.91	68.8049	2,378.91	70.804	2,378.91	65.0004	2,378.91	65.568	2,378.91	61.3973	2,378.91	64.5015	2,378.91	66.6132	2,378.91	67.7678	2,378.91	67.204	2,378.91	69.9827	2,378.91	67.393	2,378.91	68.5472	2,378.91	67.0741	2,378.91	66.4941	2,378.91	64.9625	2,378.91	66.3379	2,378.91	64.3783
2,462.4	80.4492	2,462.4	80.7859	2,462.4	79.7231	2,462.4	80.362	2,462.4	78.7055	2,462.4	78.8372	2,462.4	77.535	2,462.4	76.592	2,462.4	76.7581	2,462.4	75.2035	2,462.4	76.7393	2,462.4	74.6452	2,462.4	76.8111	2,462.4	72.5066	2,462.4	76.0651	2,462.4	70.0164	2,462.4	74.3192	2,462.4	68.9553	2,462.4	71.5472	2,462.4	66.6811	2,462.4	68.8541	2,462.4	64.99	2,462.4	69.7381	2,462.4	66.4069	2,462.4	68.4399	2,462.4	66.9704	2,462.4	65.205	2,462.4	66.6439	2,462.4	68.4165	2,462.4	67.8701	2,462.4	68.5181	2,462.4	68.1443	2,462.4	64.9717	2,462.4	66.4446	2,462.4	64.6824	2,462.4	65.245
2,548.83	79.6422	2,548.83	79.9522	2,548.83	79.442	2,548.83	79.5646	2,548.83	79.2884	2,548.83	78.0309	2,548.83	78.7539	2,548.83	76.4569	2,548.83	77.6985	2,548.83	76.0944	2,548.83	76.5197	2,548.83	75.6814	2,548.83	76.0053	2,548.83	73.4411	2,548.83	75.7001	2,548.83	69.7366	2,548.83	74.7695	2,548.83	67.9054	2,548.83	72.5798	2,548.83	66.9176	2,548.83	67.5745	2,548.83	64.7969	2,548.83	61.4158	2,548.83	65.3555	2,548.83	64.8733	2,548.83	66.9144	2,548.83	64.4613	2,548.83	67.058	2,548.83	68.4652	2,548.83	67.7558	2,548.83	70.0966	2,548.83	68.2094	2,548.83	66.9956	2,548.83	66.9785	2,548.83	64.4369	2,548.83	65.3517
2,639.65	80.2391	2,639.65	80.2522	2,639.65	79.5807	2,639.65	79.1888	2,639.65	79.1028	2,639.65	77.8078	2,639.65	78.8795	2,639.65	77.4627	2,639.65	78.1161	2,639.65	77.1386	2,639.65	76.7366	2,639.65	75.8098	2,639.65	75.9942	2,639.65	72.9953	2,639.65	76.036	2,639.65	68.3306	2,639.65	75.4406	2,639.65	64.8391	2,639.65	74.0381	2,639.65	66.929	2,639.65	71.958	2,639.65	68.3869	2,639.65	67.6198	2,639.65	66.9022	2,639.65	63.0539	2,639.65	65.6773	2,639.65	63.494	2,639.65	66.5947	2,639.65	66.1977	2,639.65	67.2813	2,639.65	69.3274	2,639.65	67.3812	2,639.65	68.0626	2,639.65	67.1016	2,639.65	66.199	2,639.65	66.5972
2,731.93	80.898	2,731.93	80.7482	2,731.93	80.3119	2,731.93	79.9969	2,731.93	79.5166	2,731.93	79.5518	2,731.93	78.9284	2,731.93	79.1593	2,731.93	78.1383	2,731.93	77.5513	2,731.93	76.5001	2,731.93	74.2397	2,731.93	74.8362	2,731.93	71.9054	2,731.93	74.8947	2,731.93	72.4745	2,731.93	74.7361	2,731.93	71.7012	2,731.93	72.5518	2,731.93	69.1357	2,731.93	69.7175	2,731.93	68.499	2,731.93	68.4078	2,731.93	67.7004	2,731.93	65.9562	2,731.93	65.6534	2,731.93	62.2259	2,731.93	66.2038	2,731.93	65.8705	2,731.93	67.6924	2,731.93	68.219	2,731.93	67.2311	2,731.93	67.258	2,731.93	66.0241	2,731.93	66.6039	2,731.93	66.6625
2,828.61	80.4878	2,828.61	80.4356	2,828.61	80.0178	2,828.61	80.1901	2,828.61	79.4178	2,828.61	79.8718	2,828.61	79.0931	2,828.61	78.8163	2,828.61	78.4616	2,828.61	76.8484	2,828.61	76.8287	2,828.61	74.9109	2,828.61	74.5269	2,828.61	73.9151	2,828.61	73.7171	2,828.61	73.1631	2,828.61	74.068	2,828.61	71.0347	2,828.61	73.2855	2,828.61	68.1738	2,828.61	72.0229	2,828.61	68.2287	2,828.61	71.2218	2,828.61	68.1605	2,828.61	70.3112	2,828.61	65.5219	2,828.61	67.7071	2,828.61	64.5663	2,828.61	66.7063	2,828.61	67.5003	2,828.61	70.3995	2,828.61	67.5681	2,828.61	68.243	2,828.61	65.4778	2,828.61	66.3374	2,828.61	65.9869
2,928.22	80.8107	2,928.22	80.6942	2,928.22	80.3651	2,928.22	80.1657	2,928.22	79.6973	2,928.22	79.5716	2,928.22	79.2535	2,928.22	78.603	2,928.22	78.8849	2,928.22	77.3824	2,928.22	77.6922	2,928.22	76.438	2,928.22	75.3377	2,928.22	74.9575	2,928.22	73.2906	2,928.22	72.8298	2,928.22	72.9766	2,928.22	69.3325	2,928.22	72.3142	2,928.22	62.6008	2,928.22	71.7555	2,928.22	64.2616	2,928.22	72.312	2,928.22	68.7866	2,928.22	71.3338	2,928.22	67.9036	2,928.22	69.8877	2,928.22	65.9683	2,928.22	67.869	2,928.22	68.4009	2,928.22	69.5372	2,928.22	68.5106	2,928.22	68.3633	2,928.22	64.8717	2,928.22	64.2208	2,928.22	63.6276
3,030.76	80.5581	3,030.76	80.0366	3,030.76	80.7805	3,030.76	79.9364	3,030.76	80.3253	3,030.76	79.9474	3,030.76	79.5265	3,030.76	79.1902	3,030.76	78.5241	3,030.76	77.9008	3,030.76	77.2487	3,030.76	76.6157	3,030.76	75.511	3,030.76	73.988	3,030.76	73.9485	3,030.76	69.9852	3,030.76	74.0196	3,030.76	68.0182	3,030.76	74.0311	3,030.76	66.695	3,030.76	72.1444	3,030.76	65.1008	3,030.76	71.9426	3,030.76	68.253	3,030.76	71.4614	3,030.76	66.8387	3,030.76	69.0249	3,030.76	63.705	3,030.76	67.8604	3,030.76	67.7247	3,030.76	69.6149	3,030.76	68.958	3,030.76	68.8218	3,030.76	65.9938	3,030.76	65.6049	3,030.76	64.2084
3,137.7	79.8208	3,137.7	79.2006	3,137.7	80.5321	3,137.7	79.41	3,137.7	80.7239	3,137.7	79.5908	3,137.7	80.0944	3,137.7	78.7517	3,137.7	78.808	3,137.7	76.9666	3,137.7	77.3916	3,137.7	75.3025	3,137.7	75.0481	3,137.7	72.9255	3,137.7	72.2453	3,137.7	68.2975	3,137.7	73.693	3,137.7	67.5638	3,137.7	75.8857	3,137.7	68.6865	3,137.7	74.3908	3,137.7	65.8821	3,137.7	71.6398	3,137.7	66.1848	3,137.7	70.9335	3,137.7	66.422	3,137.7	69.8588	3,137.7	64.1931	3,137.7	67.9893	3,137.7	67.7862	3,137.7	68.8281	3,137.7	69.3179	3,137.7	68.8224	3,137.7	65.3863	3,137.7	63.7668	3,137.7	60.9176
3,249.02	79.1018	3,249.02	78.9823	3,249.02	79.7029	3,249.02	79.0637	3,249.02	80.1154	3,249.02	79.046	3,249.02	79.7839	3,249.02	78.8232	3,249.02	79.1233	3,249.02	77.272	3,249.02	78.1597	3,249.02	73.4781	3,249.02	76.245	3,249.02	70.0132	3,249.02	73.307	3,249.02	69.2016	3,249.02	73.3934	3,249.02	67.3783	3,249.02	76.2813	3,249.02	66.772	3,249.02	75.2025	3,249.02	65.8958	3,249.02	72.1295	3,249.02	65.8939	3,249.02	70.6671	3,249.02	64.9181	3,249.02	69.0917	3,249.02	59.3304	3,249.02	69.3765	3,249.02	63.3839	3,249.02	67.827	3,249.02	66.666	3,249.02	66.9911	3,249.02	64.818	3,249.02	62.4487	3,249.02	61.535
3,363.28	79.2073	3,363.28	78.9224	3,363.28	79.819	3,363.28	79.3413	3,363.28	79.893	3,363.28	79.1331	3,363.28	79.4136	3,363.28	77.5474	3,363.28	78.6918	3,363.28	74.822	3,363.28	77.8886	3,363.28	71.1379	3,363.28	77.017	3,363.28	69.9122	3,363.28	75.3901	3,363.28	70.8008	3,363.28	73.6103	3,363.28	68.353	3,363.28	75.2088	3,363.28	62.533	3,363.28	73.734	3,363.28	61.3875	3,363.28	68.0923	3,363.28	65.0511	3,363.28	67.829	3,363.28	65.5266	3,363.28	66.8158	3,363.28	61.7549	3,363.28	68.7486	3,363.28	60.3907	3,363.28	67.8264	3,363.28	63.8304	3,363.28	66.6124	3,363.28	62.0399	3,363.28	59.0066	3,363.28	55.0101
3,481.93	79.5691	3,481.93	79.6495	3,481.93	79.707	3,481.93	79.3776	3,481.93	79.7273	3,481.93	78.2782	3,481.93	79.0706	3,481.93	75.7431	3,481.93	77.7092	3,481.93	73.1894	3,481.93	76.8219	3,481.93	72.2853	3,481.93	76.9346	3,481.93	69.191	3,481.93	76.4074	3,481.93	64.0937	3,481.93	75.1189	3,481.93	61.8081	3,481.93	75.1906	3,481.93	57.8769	3,481.93	73.6455	3,481.93	55.4495	3,481.93	67.7613	3,481.93	61.8737	3,481.93	63.8957	3,481.93	64.5908	3,481.93	64.4249	3,481.93	63.3149	3,481.93	67.8466	3,481.93	61.0852	3,481.93	67.5655	3,481.93	63.1251	3,481.93	65.9158	3,481.93	61.9517	3,481.93	60.7229	3,481.93	57.611
3,604.98	79.8622	3,604.98	79.6305	3,604.98	80.081	3,604.98	78.8436	3,604.98	80.1507	3,604.98	77.2257	3,604.98	79.3895	3,604.98	75.2758	3,604.98	77.615	3,604.98	73.5265	3,604.98	76.1234	3,604.98	71.5345	3,604.98	75.477	3,604.98	67.2413	3,604.98	74.9536	3,604.98	60.4447	3,604.98	74.0372	3,604.98	56.5536	3,604.98	72.891	3,604.98	59.5084	3,604.98	70.0694	3,604.98	59.8246	3,604.98	65.831	3,604.98	61.1823	3,604.98	63.798	3,604.98	64.3308	3,604.98	61.3656	3,604.98	62.8987	3,604.98	65.4614	3,604.98	61.1888	3,604.98	66.0971	3,604.98	63.0225	3,604.98	64.1935	3,604.98	61.2584	3,604.98	59.486	3,604.98	58.0544
3,732.42	79.5097	3,732.42	79.2827	3,732.42	79.4346	3,732.42	78.1008	3,732.42	79.191	3,732.42	76.2075	3,732.42	78.3382	3,732.42	74.3413	3,732.42	76.7687	3,732.42	71.8601	3,732.42	75.5692	3,732.42	68.7772	3,732.42	74.6755	3,732.42	67.4615	3,732.42	73.4576	3,732.42	67.7068	3,732.42	72.138	3,732.42	66.0054	3,732.42	71.3922	3,732.42	62.672	3,732.42	68.1516	3,732.42	60.5438	3,732.42	65.4514	3,732.42	61.8193	3,732.42	64.111	3,732.42	63.7339	3,732.42	59.5515	3,732.42	62.7189	3,732.42	63.2028	3,732.42	59.6589	3,732.42	63.8196	3,732.42	60.1692	3,732.42	63.4656	3,732.42	60.756	3,732.42	60.4003	3,732.42	59.7565
3,864.26	79.6505	3,864.26	79.1261	3,864.26	79.2108	3,864.26	77.2821	3,864.26	78.3669	3,864.26	74.6816	3,864.26	77.147	3,864.26	72.7299	3,864.26	75.6737	3,864.26	71.4828	3,864.26	74.739	3,864.26	69.728	3,864.26	73.7309	3,864.26	68.0251	3,864.26	71.3738	3,864.26	67.4082	3,864.26	66.0819	3,864.26	66.2496	3,864.26	65.6587	3,864.26	62.7961	3,864.26	68.3405	3,864.26	59.623	3,864.26	68.5752	3,864.26	60.2764	3,864.26	65.844	3,864.26	63.1588	3,864.26	57.6639	3,864.26	62.9713	3,864.26	59.6407	3,864.26	60.0861	3,864.26	60.7164	3,864.26	59.7216	3,864.26	62.2405	3,864.26	60.6491	3,864.26	60.0556	3,864.26	59.4394
4,000.49	79.3846	4,000.49	78.3657	4,000.49	79.103	4,000.49	75.9994	4,000.49	77.9573	4,000.49	72.9287	4,000.49	76.2804	4,000.49	71.3777	4,000.49	74.2562	4,000.49	70.783	4,000.49	73.1256	4,000.49	70.1811	4,000.49	72.4854	4,000.49	69.1337	4,000.49	70.3535	4,000.49	65.6215	4,000.49	63.0778	4,000.49	61.7211	4,000.49	62.0997	4,000.49	61.5769	4,000.49	69.2505	4,000.49	61.656	4,000.49	69.3676	4,000.49	60.9926	4,000.49	66.8015	4,000.49	62.5493	4,000.49	57.8054	4,000.49	63.0533	4,000.49	59.5581	4,000.49	60.7084	4,000.49	57.3365	4,000.49	56.9862	4,000.49	62.4476	4,000.49	58.1189	4,000.49	57.762	4,000.49	55.7903
4,141.11	79.4437	4,141.11	78.0419	4,141.11	78.9947	4,141.11	74.8512	4,141.11	77.4858	4,141.11	71.1634	4,141.11	75.5781	4,141.11	70.2557	4,141.11	73.5128	4,141.11	70.6799	4,141.11	72.1018	4,141.11	69.4022	4,141.11	70.3248	4,141.11	67.2407	4,141.11	67.9654	4,141.11	64.5751	4,141.11	63.7253	4,141.11	62.9113	4,141.11	58.0884	4,141.11	63.5883	4,141.11	66.9228	4,141.11	62.1408	4,141.11	67.9924	4,141.11	60.1496	4,141.11	65.6634	4,141.11	61.8231	4,141.11	57.0328	4,141.11	62.9174	4,141.11	58.2401	4,141.11	61.5702	4,141.11	56.8987	4,141.11	56.7916	4,141.11	62.3295	4,141.11	53.9846	4,141.11	57.7991	4,141.11	50.7801
4,287.6	79.1304	4,287.6	77.3495	4,287.6	78.7761	4,287.6	73.7003	4,287.6	77.2049	4,287.6	69.804	4,287.6	75.0063	4,287.6	69.0051	4,287.6	72.7381	4,287.6	70.5317	4,287.6	71.2292	4,287.6	69.9614	4,287.6	68.4612	4,287.6	67.8289	4,287.6	65.7495	4,287.6	66.5787	4,287.6	63.539	4,287.6	64.6742	4,287.6	57.8842	4,287.6	62.198	4,287.6	63.6898	4,287.6	60.6309	4,287.6	64.966	4,287.6	59.8027	4,287.6	63.9907	4,287.6	61.7805	4,287.6	57.8605	4,287.6	63.2192	4,287.6	53.204	4,287.6	62.2348	4,287.6	52.9429	4,287.6	57.6039	4,287.6	58.8116	4,287.6	48.0445	4,287.6	57.175	4,287.6	51.4548
4,438.48	79.6085	4,438.48	77.4606	4,438.48	78.9443	4,438.48	72.1703	4,438.48	76.5722	4,438.48	66.792	4,438.48	73.9022	4,438.48	68.921	4,438.48	71.1072	4,438.48	70.0002	4,438.48	69.4273	4,438.48	69.6599	4,438.48	67.6485	4,438.48	69.4139	4,438.48	66.125	4,438.48	67.4305	4,438.48	63.1594	4,438.48	64.1007	4,438.48	52.0838	4,438.48	63.3335	4,438.48	59.6968	4,438.48	62.3084	4,438.48	62.459	4,438.48	60.6686	4,438.48	62.6725	4,438.48	61.1006	4,438.48	58.8638	4,438.48	62.3783	4,438.48	50.1651	4,438.48	62.6359	4,438.48	46.8203	4,438.48	60.4971	4,438.48	57.2556	4,438.48	52.4312	4,438.48	57.5142	4,438.48	43.556
4,595.21	79.158	4,595.21	76.7737	4,595.21	78.5512	4,595.21	71.8388	4,595.21	75.7456	4,595.21	66.3579	4,595.21	71.6684	4,595.21	68.7943	4,595.21	68.3793	4,595.21	70.1682	4,595.21	67.9149	4,595.21	70.1417	4,595.21	68.131	4,595.21	70.3325	4,595.21	65.5885	4,595.21	67.6876	4,595.21	62.2048	4,595.21	64.2429	4,595.21	57.0946	4,595.21	64.2758	4,595.21	59.6047	4,595.21	61.6351	4,595.21	62.1252	4,595.21	59.0847	4,595.21	61.7508	4,595.21	61.637	4,595.21	59.8738	4,595.21	62.3333	4,595.21	50.5638	4,595.21	61.831	4,595.21	54.4261	4,595.21	59.8862	4,595.21	51.3412	4,595.21	54.7837	4,595.21	53.3445	4,595.21	41.9668
4,756.35	78.2431	4,756.35	75.6383	4,756.35	78.0756	4,756.35	70.5854	4,756.35	75.6466	4,756.35	64.8633	4,756.35	71.1809	4,756.35	69.6435	4,756.35	66.5619	4,756.35	71.4983	4,756.35	66.444	4,756.35	70.1568	4,756.35	67.4739	4,756.35	68.1042	4,756.35	65.2763	4,756.35	64.8235	4,756.35	64.7985	4,756.35	61.2349	4,756.35	63.7704	4,756.35	61.048	4,756.35	60.6025	4,756.35	61.0834	4,756.35	58.9798	4,756.35	60.1149	4,756.35	59.8439	4,756.35	60.6479	4,756.35	57.9493	4,756.35	62.116	4,756.35	49.5297	4,756.35	62.2548	4,756.35	54.2816	4,756.35	59.6404	4,756.35	43.1662	4,756.35	55.799	4,756.35	47.086	4,756.35	52.8257
4,924.8	77.0695	4,924.8	74.1641	4,924.8	77.235	4,924.8	68.1544	4,924.8	74.8244	4,924.8	64.192	4,924.8	69.4843	4,924.8	69.7012	4,924.8	62.7212	4,924.8	71.5933	4,924.8	62.7261	4,924.8	69.7016	4,924.8	61.9236	4,924.8	66.0888	4,924.8	61.6383	4,924.8	62.1103	4,924.8	64.1851	4,924.8	59.1782	4,924.8	65.7145	4,924.8	58.5276	4,924.8	64.5863	4,924.8	57.2241	4,924.8	54.8735	4,924.8	58.0625	4,924.8	57.9017	4,924.8	57.434	4,924.8	59.5802	4,924.8	58.5607	4,924.8	44.0636	4,924.8	60.128	4,924.8	53.8105	4,924.8	58.3518	4,924.8	49.0445	4,924.8	55.4436	4,924.8	51.1746	4,924.8	52.0582
5,097.66	76.6668	5,097.66	72.153	5,097.66	77.361	5,097.66	62.66	5,097.66	74.9895	5,097.66	65.9539	5,097.66	70.1774	5,097.66	70.9529	5,097.66	62.6498	5,097.66	71.1729	5,097.66	60.4398	5,097.66	67.412	5,097.66	63.9448	5,097.66	65.638	5,097.66	64.8763	5,097.66	63.351	5,097.66	63.6909	5,097.66	56.7817	5,097.66	64.2458	5,097.66	56.6513	5,097.66	61.4889	5,097.66	55.8072	5,097.66	54.2376	5,097.66	58.3727	5,097.66	54.4937	5,097.66	60.3168	5,097.66	60.9821	5,097.66	57.188	5,097.66	54.5846	5,097.66	59.2581	5,097.66	55.9794	5,097.66	59.0067	5,097.66	55.1044	5,097.66	52.9906	5,097.66	54.4133	5,097.66	54.2183
5,277.83	77.2307	5,277.83	72.8289	5,277.83	78.0621	5,277.83	57.9001	5,277.83	75.7312	5,277.83	69.124	5,277.83	69.6171	5,277.83	73.2397	5,277.83	57.0338	5,277.83	72.2427	5,277.83	58.6089	5,277.83	70.0562	5,277.83	67.0526	5,277.83	67.1831	5,277.83	69.3032	5,277.83	60.588	5,277.83	67.9565	5,277.83	61.8405	5,277.83	67.0724	5,277.83	62.7304	5,277.83	59.9435	5,277.83	59.7651	5,277.83	54.4905	5,277.83	58.8351	5,277.83	48.515	5,277.83	61.9736	5,277.83	60.8605	5,277.83	60.6886	5,277.83	55.861	5,277.83	62.5823	5,277.83	58.8975	5,277.83	62.9631	5,277.83	54.5399	5,277.83	57.7536	5,277.83	57.5789	5,277.83	56.6649
5,463.87	77.1555	5,463.87	74.2448	5,463.87	77.1766	5,463.87	62.6007	5,463.87	74.2693	5,463.87	68.288	5,463.87	65.0739	5,463.87	71.9769	5,463.87	56.8304	5,463.87	70.0868	5,463.87	64.7236	5,463.87	66.3358	5,463.87	67.5818	5,463.87	64.3457	5,463.87	69.1578	5,463.87	64.679	5,463.87	68.5408	5,463.87	62.3851	5,463.87	66.0019	5,463.87	61.2131	5,463.87	60.1467	5,463.87	61.7734	5,463.87	42.7024	5,463.87	58.6352	5,463.87	42.9227	5,463.87	60.721	5,463.87	58.2955	5,463.87	60.9298	5,463.87	54.1328	5,463.87	60.2473	5,463.87	59.4811	5,463.87	61.5969	5,463.87	42.4632	5,463.87	59.4719	5,463.87	53.3704	5,463.87	57.5444
5,657.23	76.1954	5,657.23	71.9268	5,657.23	76.804	5,657.23	56.2188	5,657.23	74.3214	5,657.23	70.3655	5,657.23	67.9595	5,657.23	71.7596	5,657.23	57.4693	5,657.23	68.3934	5,657.23	64.4237	5,657.23	66.8632	5,657.23	66.9597	5,657.23	65.4193	5,657.23	67.1895	5,657.23	62.5814	5,657.23	66.2491	5,657.23	62.763	5,657.23	65.0065	5,657.23	61.9586	5,657.23	60.9323	5,657.23	61.3546	5,657.23	44.3183	5,657.23	58.8386	5,657.23	47.2215	5,657.23	60.5534	5,657.23	53.951	5,657.23	61.6459	5,657.23	53.615	5,657.23	61.9281	5,657.23	57.9978	5,657.23	62.1503	5,657.23	49.7214	5,657.23	58.7962	5,657.23	53.1761	5,657.23	58.3286
5,856.45	75.9088	5,856.45	72.3186	5,856.45	76.1363	5,856.45	64.3231	5,856.45	74.0943	5,856.45	72.4843	5,856.45	68.3111	5,856.45	72.4	5,856.45	64.762	5,856.45	69.8103	5,856.45	68.5259	5,856.45	69.3091	5,856.45	68.1833	5,856.45	68.0392	5,856.45	67.3961	5,856.45	68.1144	5,856.45	67.4005	5,856.45	66.4493	5,856.45	65.2272	5,856.45	63.6957	5,856.45	60.7987	5,856.45	63.7265	5,856.45	39.8293	5,856.45	60.8813	5,856.45	56.3973	5,856.45	61.4128	5,856.45	42.5091	5,856.45	63.4204	5,856.45	49.9751	5,856.45	62.7155	5,856.45	56.9597	5,856.45	63.2124	5,856.45	43.9683	5,856.45	61.7302	5,856.45	55.8965	5,856.45	60.7495
6,062.99	76.3063	6,062.99	72.2411	6,062.99	76.5534	6,062.99	68.4839	6,062.99	74.3555	6,062.99	73.5933	6,062.99	69.0432	6,062.99	73.0395	6,062.99	66.4173	6,062.99	71.3709	6,062.99	71.0973	6,062.99	71.3509	6,062.99	69.862	6,062.99	70.4682	6,062.99	67.6681	6,062.99	67.9209	6,062.99	67.4831	6,062.99	65.1402	6,062.99	63.4992	6,062.99	64.2773	6,062.99	55.0296	6,062.99	64.6397	6,062.99	49.6398	6,062.99	62.1698	6,062.99	57.5348	6,062.99	60.5442	6,062.99	48.9688	6,062.99	63.6045	6,062.99	42.6103	6,062.99	63.8671	6,062.99	57.3532	6,062.99	63.5554	6,062.99	53.0489	6,062.99	61.8296	6,062.99	57.0182	6,062.99	60.8987
6,276.86	76.5291	6,276.86	72.8017	6,276.86	76.4806	6,276.86	70.449	6,276.86	74.5934	6,276.86	73.6176	6,276.86	70.7957	6,276.86	73.05	6,276.86	67.5033	6,276.86	73.6279	6,276.86	70.8473	6,276.86	72.8739	6,276.86	71.3141	6,276.86	70.187	6,276.86	71.2299	6,276.86	68.6782	6,276.86	66.2513	6,276.86	66.5492	6,276.86	57.1401	6,276.86	63.7722	6,276.86	63.6834	6,276.86	63.535	6,276.86	60.4387	6,276.86	62.5664	6,276.86	54.8302	6,276.86	60.5779	6,276.86	49.7652	6,276.86	63.6098	6,276.86	45.63	6,276.86	64.324	6,276.86	59.0628	6,276.86	63.3624	6,276.86	54.6352	6,276.86	62.4861	6,276.86	57.5676	6,276.86	60.4578
6,498.05	76.4266	6,498.05	72.8197	6,498.05	76.3025	6,498.05	71.8539	6,498.05	74.8371	6,498.05	73.4373	6,498.05	72.6696	6,498.05	74.2937	6,498.05	69.3064	6,498.05	74.7525	6,498.05	70.5256	6,498.05	72.9333	6,498.05	73.4204	6,498.05	71.3542	6,498.05	73.3412	6,498.05	68.7044	6,498.05	66.8624	6,498.05	64.5823	6,498.05	61.0826	6,498.05	63.3996	6,498.05	65.8439	6,498.05	62.1336	6,498.05	62.8555	6,498.05	61.1719	6,498.05	55.549	6,498.05	60.7765	6,498.05	47.9785	6,498.05	62.2659	6,498.05	52.2684	6,498.05	64.1876	6,498.05	56.6555	6,498.05	63.3419	6,498.05	58.2483	6,498.05	62.4304	6,498.05	53.7394	6,498.05	59.9573
6,726.56	76.9019	6,726.56	74.0248	6,726.56	76.8209	6,726.56	72.8754	6,726.56	75.0646	6,726.56	74.2099	6,726.56	74.5374	6,726.56	75.5212	6,726.56	73.7258	6,726.56	75.7955	6,726.56	71.9937	6,726.56	74.0563	6,726.56	73.8901	6,726.56	70.6509	6,726.56	72.9112	6,726.56	67.7764	6,726.56	65.7519	6,726.56	66.6756	6,726.56	65.3979	6,726.56	63.2784	6,726.56	67.8281	6,726.56	61.1434	6,726.56	63.1809	6,726.56	60.8848	6,726.56	56.765	6,726.56	60.0462	6,726.56	31.2926	6,726.56	62.4477	6,726.56	51.4966	6,726.56	64.2067	6,726.56	55.8641	6,726.56	64.0658	6,726.56	58.5776	6,726.56	63.4045	6,726.56	54.455	6,726.56	60.9231
6,963.87	76.7462	6,963.87	74.8829	6,963.87	77.2793	6,963.87	74.3624	6,963.87	75.548	6,963.87	75.1475	6,963.87	75.0787	6,963.87	76.922	6,963.87	75.633	6,963.87	76.4362	6,963.87	73.7162	6,963.87	73.4375	6,963.87	73.0626	6,963.87	70.4424	6,963.87	72.1248	6,963.87	67.4216	6,963.87	66.6612	6,963.87	64.9653	6,963.87	62.9577	6,963.87	64.0806	6,963.87	67.2774	6,963.87	62.9134	6,963.87	62.5539	6,963.87	61.0248	6,963.87	59.346	6,963.87	60.7986	6,963.87	53.1059	6,963.87	61.9045	6,963.87	48.9159	6,963.87	63.2932	6,963.87	57.4903	6,963.87	64.4412	6,963.87	58.7729	6,963.87	64.2953	6,963.87	53.87	6,963.87	60.8233
7,209.96	76.6025	7,209.96	75.3325	7,209.96	76.8294	7,209.96	73.8303	7,209.96	75.521	7,209.96	76.3412	7,209.96	74.6701	7,209.96	77.5085	7,209.96	74.7354	7,209.96	75.4658	7,209.96	72.8508	7,209.96	73	7,209.96	70.627	7,209.96	71.1875	7,209.96	69.7787	7,209.96	68.4016	7,209.96	66.7255	7,209.96	66.056	7,209.96	60.5067	7,209.96	64.4393	7,209.96	64.2262	7,209.96	63.6773	7,209.96	62.9445	7,209.96	62.0986	7,209.96	60.1346	7,209.96	61.4375	7,209.96	58.5886	7,209.96	62.0724	7,209.96	48.1106	7,209.96	63.4162	7,209.96	58.5007	7,209.96	64.6033	7,209.96	56.159	7,209.96	63.8666	7,209.96	54.3569	7,209.96	62.3543
7,464.84	76.6887	7,464.84	75.3577	7,464.84	76.2775	7,464.84	74.1665	7,464.84	75.9509	7,464.84	77.7219	7,464.84	75.9933	7,464.84	77.5703	7,464.84	75.3018	7,464.84	74.5836	7,464.84	73.4303	7,464.84	73.8466	7,464.84	70.4909	7,464.84	71.6662	7,464.84	65.2362	7,464.84	67.729	7,464.84	62.4631	7,464.84	66.2155	7,464.84	62.3309	7,464.84	63.7723	7,464.84	57.288	7,464.84	64.3902	7,464.84	57.966	7,464.84	63.3002	7,464.84	56.019	7,464.84	61.3579	7,464.84	53.588	7,464.84	62.6881	7,464.84	47.6562	7,464.84	62.8831	7,464.84	55.2603	7,464.84	65.3279	7,464.84	50.8495	7,464.84	63.7479	7,464.84	56.3303	7,464.84	62.8766
7,727.05	77.2717	7,727.05	75.3954	7,727.05	76.3177	7,727.05	75.4757	7,727.05	76.0919	7,727.05	78.6488	7,727.05	77.5347	7,727.05	77.452	7,727.05	76.4928	7,727.05	75.1219	7,727.05	74.1276	7,727.05	75.0081	7,727.05	72.6493	7,727.05	72.8314	7,727.05	67.8207	7,727.05	70.0406	7,727.05	65.5296	7,727.05	67.5487	7,727.05	63.8625	7,727.05	63.1007	7,727.05	63.1141	7,727.05	64.1129	7,727.05	60.8471	7,727.05	64.7249	7,727.05	50.7164	7,727.05	60.707	7,727.05	55.3045	7,727.05	63.4114	7,727.05	26.7648	7,727.05	63.9558	7,727.05	56.6641	7,727.05	64.6014	7,727.05	56.5779	7,727.05	64.9456	7,727.05	59.8855	7,727.05	63.8518
7,999.51	77.1369	7,999.51	74.9034	7,999.51	76.5945	7,999.51	76.6807	7,999.51	75.1395	7,999.51	78.5941	7,999.51	77.512	7,999.51	77.0601	7,999.51	77.6028	7,999.51	76.1676	7,999.51	75.175	7,999.51	75.3145	7,999.51	71.893	7,999.51	72.2093	7,999.51	69.4438	7,999.51	69.4439	7,999.51	70.5115	7,999.51	68.3066	7,999.51	63.5079	7,999.51	65.4605	7,999.51	60.1483	7,999.51	62.2122	7,999.51	60.5759	7,999.51	63.2653	7,999.51	56.1838	7,999.51	62.0452	7,999.51	54.4996	7,999.51	63.1288	7,999.51	46.8429	7,999.51	63.3978	7,999.51	59.4482	7,999.51	63.6254	7,999.51	49.1322	7,999.51	63.3142	7,999.51	57.7002	7,999.51	64.3323
8,282.23	77.2614	8,282.23	75.4183	8,282.23	77.3825	8,282.23	77.4215	8,282.23	75.8751	8,282.23	78.1987	8,282.23	77.6058	8,282.23	77.0253	8,282.23	78.032	8,282.23	76.6953	8,282.23	75.8438	8,282.23	74.8591	8,282.23	71.3422	8,282.23	72.3977	8,282.23	71.0136	8,282.23	68.9566	8,282.23	72.0371	8,282.23	65.1536	8,282.23	63.7551	8,282.23	64.6807	8,282.23	55.5632	8,282.23	61.4487	8,282.23	60.1767	8,282.23	61.3964	8,282.23	59.3166	8,282.23	61.1236	8,282.23	51.6455	8,282.23	61.2157	8,282.23	49.3024	8,282.23	61.7888	8,282.23	59.2086	8,282.23	63.0679	8,282.23	52.4877	8,282.23	62.9405	8,282.23	56.6352	8,282.23	62.3864
8,573.73	77.6802	8,573.73	75.7553	8,573.73	77.8387	8,573.73	77.3056	8,573.73	76.2219	8,573.73	78.0946	8,573.73	77.87	8,573.73	77.3379	8,573.73	78.2955	8,573.73	76.3559	8,573.73	75.7418	8,573.73	73.8599	8,573.73	71.6434	8,573.73	71.4743	8,573.73	71.5739	8,573.73	67.84	8,573.73	71.4886	8,573.73	62.2239	8,573.73	64.681	8,573.73	61.7933	8,573.73	48.7611	8,573.73	60.2667	8,573.73	54.433	8,573.73	60.1902	8,573.73	49.43	8,573.73	60.9804	8,573.73	41.4293	8,573.73	59.9324	8,573.73	48.7922	8,573.73	59.7916	8,573.73	51.4387	8,573.73	61.8277	8,573.73	56.9462	8,573.73	63.2216	8,573.73	55.8794	8,573.73	58.7032
8,876.95	77.8827	8,876.95	76.1383	8,876.95	78.2177	8,876.95	77.6244	8,876.95	76.9221	8,876.95	78.1666	8,876.95	78.4972	8,876.95	77.3072	8,876.95	78.812	8,876.95	76.1059	8,876.95	75.9591	8,876.95	73.3458	8,876.95	71.7029	8,876.95	69.7687	8,876.95	71.0046	8,876.95	66.4424	8,876.95	69.6023	8,876.95	63.2585	8,876.95	63.6254	8,876.95	61.1619	8,876.95	55.8603	8,876.95	60.8585	8,876.95	45.9873	8,876.95	60.5823	8,876.95	54.4749	8,876.95	59.5578	8,876.95	49.9624	8,876.95	58.3106	8,876.95	49.5537	8,876.95	61.2448	8,876.95	51.7406	8,876.95	61.8043	8,876.95	55.7637	8,876.95	64.0182	8,876.95	54.4686	8,876.95	60.2355
9,188.96	77.2146	9,188.96	75.7929	9,188.96	78.0969	9,188.96	77.7979	9,188.96	77.0876	9,188.96	78.2168	9,188.96	78.3261	9,188.96	77.0972	9,188.96	78.7916	9,188.96	75.7256	9,188.96	75.8875	9,188.96	72.6296	9,188.96	71.1062	9,188.96	68.487	9,188.96	69.5445	9,188.96	66.1091	9,188.96	66.2868	9,188.96	64.4668	9,188.96	59.7813	9,188.96	61.874	9,188.96	59.9104	9,188.96	61.1287	9,188.96	48.2914	9,188.96	60.5085	9,188.96	53.7078	9,188.96	57.73	9,188.96	50.9036	9,188.96	58.162	9,188.96	53.232	9,188.96	62.0774	9,188.96	56.6727	9,188.96	61.6572	9,188.96	54.875	9,188.96	61.9477	9,188.96	52.8639	9,188.96	60.3161
9,514.16	76.4818	9,514.16	76.1792	9,514.16	77.8579	9,514.16	78.1911	9,514.16	77.5035	9,514.16	78.1456	9,514.16	78.0565	9,514.16	77.0036	9,514.16	77.739	9,514.16	75.3098	9,514.16	74.3919	9,514.16	71.9516	9,514.16	69.8996	9,514.16	68.9982	9,514.16	68.782	9,514.16	66.6426	9,514.16	66.0774	9,514.16	63.7446	9,514.16	57.0193	9,514.16	62.001	9,514.16	54.3937	9,514.16	60.1707	9,514.16	54.1872	9,514.16	58.4462	9,514.16	44.5287	9,514.16	57.0884	9,514.16	37.3884	9,514.16	58.4133	9,514.16	53.8517	9,514.16	61.8345	9,514.16	54.3605	9,514.16	60.9161	9,514.16	51.465	9,514.16	59.6269	9,514.16	51.0302	9,514.16	58.0503
9,849.61	76.8822	9,849.61	77.0143	9,849.61	77.7177	9,849.61	78.1831	9,849.61	77.1742	9,849.61	77.5897	9,849.61	77.9623	9,849.61	76.6309	9,849.61	77.3663	9,849.61	74.7512	9,849.61	73.8284	9,849.61	71.8635	9,849.61	70.5038	9,849.61	69.1251	9,849.61	68.8255	9,849.61	65.6674	9,849.61	65.9386	9,849.61	62.006	9,849.61	63.7237	9,849.61	60.6764	9,849.61	57.8785	9,849.61	60.2804	9,849.61	41.2087	9,849.61	57.7829	9,849.61	44.0328	9,849.61	56.8489	9,849.61	45.2681	9,849.61	57.5474	9,849.61	52.6067	9,849.61	60.2641	9,849.61	51.6561	9,849.61	59.8083	9,849.61	53.8049	9,849.61	59.6347	9,849.61	50.309	9,849.61	57.9333
10,196.8	76.938	10,196.8	77.4395	10,196.8	77.1348	10,196.8	77.5912	10,196.8	76.7142	10,196.8	76.883	10,196.8	76.7693	10,196.8	75.8688	10,196.8	76.3354	10,196.8	73.743	10,196.8	74.2723	10,196.8	71.8716	10,196.8	69.6388	10,196.8	67.8788	10,196.8	65.1102	10,196.8	63.3328	10,196.8	66.1557	10,196.8	61.7638	10,196.8	66.6092	10,196.8	59.3851	10,196.8	61.4239	10,196.8	58.3314	10,196.8	50.276	10,196.8	57.5241	10,196.8	42.2872	10,196.8	57.3821	10,196.8	51.3048	10,196.8	55.2727	10,196.8	50.2061	10,196.8	57.8755	10,196.8	45.1799	10,196.8	60.0275	10,196.8	47.2362	10,196.8	60.2279	10,196.8	43.3035	10,196.8	57.2785
10,555.7	77.8157	10,555.7	77.9115	10,555.7	77.3708	10,555.7	77.2201	10,555.7	76.9559	10,555.7	76.7405	10,555.7	76.5588	10,555.7	75.2882	10,555.7	75.4197	10,555.7	73.302	10,555.7	72.8019	10,555.7	71.6145	10,555.7	68.5842	10,555.7	66.2053	10,555.7	65.3641	10,555.7	64.1124	10,555.7	61.6446	10,555.7	62.7134	10,555.7	63.147	10,555.7	60.1424	10,555.7	61.5377	10,555.7	57.9608	10,555.7	46.6909	10,555.7	57.0169	10,555.7	46.1165	10,555.7	58.5505	10,555.7	47.1628	10,555.7	56.7365	10,555.7	51.3439	10,555.7	59.4911	10,555.7	41.4863	10,555.7	61.2865	10,555.7	49.906	10,555.7	60.31	10,555.7	47.7424	10,555.7	56.0711
10,927.7	77.9665	10,927.7	77.5642	10,927.7	77.0868	10,927.7	76.9267	10,927.7	76.2649	10,927.7	76.6682	10,927.7	75.5571	10,927.7	74.5109	10,927.7	74.288	10,927.7	73.197	10,927.7	72.3936	10,927.7	70.9463	10,927.7	70.2973	10,927.7	66.1889	10,927.7	68.2029	10,927.7	64.8594	10,927.7	63.9302	10,927.7	62.0696	10,927.7	52.4953	10,927.7	60.3961	10,927.7	54.6941	10,927.7	57.9883	10,927.7	41.0044	10,927.7	56.8498	10,927.7	51.1659	10,927.7	58.738	10,927.7	48.5478	10,927.7	57.9702	10,927.7	49.7871	10,927.7	60.7047	10,927.7	49.2211	10,927.7	61.7188	10,927.7	43.0306	10,927.7	60.2535	10,927.7	42.3194	10,927.7	54.3464
11,313	77.8087	11,313	76.9129	11,313	77.0634	11,313	76.6931	11,313	75.7432	11,313	76.2006	11,313	74.8382	11,313	73.7308	11,313	73.388	11,313	73.0159	11,313	72.8761	11,313	70.2662	11,313	71.7795	11,313	67.3002	11,313	69.2918	11,313	65.8266	11,313	66.1072	11,313	61.6641	11,313	57.7297	11,313	59.4489	11,313	52.8415	11,313	57.6163	11,313	51.2407	11,313	56.9278	11,313	43.1635	11,313	57.8745	11,313	47.797	11,313	57.4939	11,313	43.6059	11,313	60.7173	11,313	49.357	11,313	60.7133	11,313	42.5654	11,313	58.6713	11,313	43.4808	11,313	53.5996
11,712.9	77.4921	11,712.9	77.0734	11,712.9	76.4057	11,712.9	76.501	11,712.9	74.9419	11,712.9	74.9416	11,712.9	73.991	11,712.9	73.0476	11,712.9	73.0098	11,712.9	72.7048	11,712.9	72.9418	11,712.9	70.0383	11,712.9	71.6367	11,712.9	67.9331	11,712.9	68.7362	11,712.9	65.3119	11,712.9	65.4093	11,712.9	61.7227	11,712.9	60.5981	11,712.9	58.7523	11,712.9	52.2767	11,712.9	56.2713	11,712.9	29.5252	11,712.9	55.5656	11,712.9	46.2447	11,712.9	55.8935	11,712.9	49.2348	11,712.9	54.8518	11,712.9	47.8787	11,712.9	58.9402	11,712.9	46.2392	11,712.9	59.0844	11,712.9	46.132	11,712.9	56.7806	11,712.9	43.6893	11,712.9	51.425
12,126	77.5974	12,126	77.3626	12,126	75.6257	12,126	75.549	12,126	74.0378	12,126	73.4445	12,126	74.0052	12,126	72.6109	12,126	72.7385	12,126	71.8529	12,126	72.6457	12,126	70.1489	12,126	71.4918	12,126	66.8361	12,126	66.4517	12,126	62.782	12,126	61.9633	12,126	60.2087	12,126	60.6975	12,126	56.5458	12,126	56.7679	12,126	54.2804	12,126	49.941	12,126	54.5036	12,126	46.2082	12,126	53.793	12,126	51.9493	12,126	52.3081	12,126	48.2583	12,126	57.4907	12,126	46.6595	12,126	58.2265	12,126	51.4549	12,126	55.438	12,126	45.2935	12,126	50.7809
12,553.7	77.8291	12,553.7	77.1831	12,553.7	75.5336	12,553.7	74.3417	12,553.7	73.6042	12,553.7	72.6893	12,553.7	73.7618	12,553.7	71.9697	12,553.7	73.4924	12,553.7	71.366	12,553.7	72.9281	12,553.7	69.8064	12,553.7	68.5594	12,553.7	65.1089	12,553.7	63.3961	12,553.7	62.3002	12,553.7	60.2635	12,553.7	59.3102	12,553.7	54.7554	12,553.7	55.8234	12,553.7	57.603	12,553.7	52.1961	12,553.7	52.6099	12,553.7	51.4767	12,553.7	48.2984	12,553.7	55.0243	12,553.7	48.7619	12,553.7	52.6663	12,553.7	38.2198	12,553.7	56.5987	12,553.7	38.0005	12,553.7	58.1249	12,553.7	49.198	12,553.7	55.4523	12,553.7	43.9587	12,553.7	49.7402
12,996.1	77.9224	12,996.1	76.4118	12,996.1	75.8946	12,996.1	73.3818	12,996.1	73.6223	12,996.1	72.5301	12,996.1	72.8916	12,996.1	71.1312	12,996.1	72.1161	12,996.1	71.191	12,996.1	71.2358	12,996.1	68.8633	12,996.1	66.8953	12,996.1	63.8671	12,996.1	63.9903	12,996.1	62.0196	12,996.1	60.1347	12,996.1	58.2718	12,996.1	54.6733	12,996.1	55.4827	12,996.1	59.1567	12,996.1	51.8328	12,996.1	56.0795	12,996.1	49.1608	12,996.1	47.8817	12,996.1	54.1659	12,996.1	46.003	12,996.1	50.1621	12,996.1	35.4345	12,996.1	55.3608	12,996.1	40.1906	12,996.1	57.1231	12,996.1	49.7005	12,996.1	54.7406	12,996.1	44.8844	12,996.1	45.1233
13,454.6	77.3466	13,454.6	75.7455	13,454.6	75.9672	13,454.6	73.5717	13,454.6	73.7418	13,454.6	71.9574	13,454.6	72.9323	13,454.6	70.368	13,454.6	72.0441	13,454.6	70.4572	13,454.6	70.4031	13,454.6	67.5665	13,454.6	65.6642	13,454.6	62.8044	13,454.6	63.124	13,454.6	59.5823	13,454.6	61.047	13,454.6	55.8819	13,454.6	54.1446	13,454.6	53.1699	13,454.6	55.9465	13,454.6	48.8019	13,454.6	54.9194	13,454.6	46.1136	13,454.6	47.6475	13,454.6	50.7057	13,454.6	41.8343	13,454.6	45.2736	13,454.6	42.4543	13,454.6	51.8379	13,454.6	37.4736	13,454.6	55.3261	13,454.6	44.0054	13,454.6	53.0288	13,454.6	41.4232	13,454.6	44.0696
13,929.2	76.9063	13,929.2	75.7401	13,929.2	75.923	13,929.2	73.5072	13,929.2	74.0888	13,929.2	71.3574	13,929.2	72.6007	13,929.2	69.9306	13,929.2	71.3021	13,929.2	69.1453	13,929.2	68.8733	13,929.2	65.8513	13,929.2	64.1075	13,929.2	60.3017	13,929.2	61.6035	13,929.2	55.5491	13,929.2	56.9831	13,929.2	52.518	13,929.2	50.3894	13,929.2	47.4499	13,929.2	49.6322	13,929.2	42.5199	13,929.2	47.9379	13,929.2	41.8827	13,929.2	42.7452	13,929.2	44.6451	13,929.2	32.9796	13,929.2	40.1689	13,929.2	34.7751	13,929.2	44.3942	13,929.2	34.0116	13,929.2	49.8652	13,929.2	45.0254	13,929.2	49.6372	13,929.2	42.7562	13,929.2	41.4254
14,419.9	76.8432	14,419.9	76.0463	14,419.9	75.4209	14,419.9	73.4148	14,419.9	73.9298	14,419.9	71.5606	14,419.9	72.8079	14,419.9	69.5706	14,419.9	70.5468	14,419.9	67.7428	14,419.9	67.6768	14,419.9	64.2003	14,419.9	63.0508	14,419.9	56.7986	14,419.9	59.5244	14,419.9	52.629	14,419.9	55.0329	14,419.9	49.3968	14,419.9	47.2807	14,419.9	45.6048	14,419.9	45.8703	14,419.9	38.7481	14,419.9	47.4436	14,419.9	38.2856	14,419.9	36.6618	14,419.9	43.3401	14,419.9	32.2479	14,419.9	35.1915	14,419.9	44.3027	14,419.9	46.8909	14,419.9	36.7401	14,419.9	45.8594	14,419.9	40.2778	14,419.9	47.7866	14,419.9	39.336	14,419.9	40.9304
14,928.2	77.1517	14,928.2	75.9774	14,928.2	75.1734	14,928.2	73.6356	14,928.2	73.3489	14,928.2	72.2401	14,928.2	72.447	14,928.2	68.9072	14,928.2	69.6953	14,928.2	67.1708	14,928.2	66.1903	14,928.2	63.13	14,928.2	61.7508	14,928.2	54.4451	14,928.2	59.8117	14,928.2	51.2833	14,928.2	53.8747	14,928.2	48.2095	14,928.2	48.4461	14,928.2	44.1362	14,928.2	50.4431	14,928.2	37.9633	14,928.2	40.6138	14,928.2	37.3699	14,928.2	36.4202	14,928.2	43.7934	14,928.2	34.8513	14,928.2	33.0908	14,928.2	45.2557	14,928.2	45.6161	14,928.2	26.4989	14,928.2	45.1237	14,928.2	26.3836	14,928.2	45.7503	14,928.2	38.0582	14,928.2	38.1248
15,455.6	77.1473	15,455.6	75.7753	15,455.6	75.8065	15,455.6	74.0241	15,455.6	73.478	15,455.6	72.1254	15,455.6	71.4498	15,455.6	68.9231	15,455.6	68.3574	15,455.6	66.9484	15,455.6	65.3868	15,455.6	61.8062	15,455.6	61.3266	15,455.6	54.0518	15,455.6	57.8681	15,455.6	49.2613	15,455.6	50.3797	15,455.6	47.4018	15,455.6	44.7855	15,455.6	41.0755	15,455.6	51.8142	15,455.6	30.1586	15,455.6	43.1856	15,455.6	38.3052	15,455.6	30.6167	15,455.6	41.898	15,455.6	26.8858	15,455.6	39.9895	15,455.6	43.4115	15,455.6	30.4365	15,455.6	32.5273	15,455.6	42.5832	15,455.6	35.2935	15,455.6	41.0423	15,455.6	39.6108	15,455.6	37.0977
16,000.5	77.1399	16,000.5	75.9576	16,000.5	76.1525	16,000.5	73.9479	16,000.5	74.0221	16,000.5	71.8368	16,000.5	71.2572	16,000.5	68.8684	16,000.5	67.6722	16,000.5	66.453	16,000.5	64.1275	16,000.5	61.3953	16,000.5	58.3715	16,000.5	53.1024	16,000.5	53.5282	16,000.5	48.3646	16,000.5	48.0435	16,000.5	46.0499	16,000.5	39.6557	16,000.5	41.7515	16,000.5	49.569	16,000.5	32.9762	16,000.5	46.5211	16,000.5	34.2989	16,000.5	36.7109	16,000.5	41.0638	16,000.5	31.4786	16,000.5	35.8762	16,000.5	38.6489	16,000.5	42.7947	16,000.5	26.7876	16,000.5	38.2701	16,000.5	40.0939	16,000.5	43.9924	16,000.5	41.2014	16,000.5	36.7633
16,564.5	76.8827	16,564.5	75.9688	16,564.5	75.999	16,564.5	73.93	16,564.5	74.2969	16,564.5	71.7335	16,564.5	71.1939	16,564.5	68.178	16,564.5	66.742	16,564.5	65.8416	16,564.5	63.3934	16,564.5	60.5858	16,564.5	57.892	16,564.5	51.6808	16,564.5	53.0431	16,564.5	47.9936	16,564.5	49.8058	16,564.5	45.907	16,564.5	43.6665	16,564.5	40.9797	16,564.5	49.1076	16,564.5	31.0624	16,564.5	47.5135	16,564.5	33.6787	16,564.5	38.6657	16,564.5	39.6091	16,564.5	37.052	16,564.5	31.5849	16,564.5	34.9559	16,564.5	41.9025	16,564.5	24.4864	16,564.5	39.3966	16,564.5	41.8795	16,564.5	43.3075	16,564.5	39.1973	16,564.5	32.9286
17,148.9	76.7803	17,148.9	75.917	17,148.9	75.636	17,148.9	73.8235	17,148.9	74.1864	17,148.9	71.4774	17,148.9	71.2729	17,148.9	67.6028	17,148.9	66.2528	17,148.9	65.0759	17,148.9	62.5655	17,148.9	59.0848	17,148.9	55.8139	17,148.9	49.8675	17,148.9	51.1297	17,148.9	43.411	17,148.9	47.6167	17,148.9	42.7652	17,148.9	42.5799	17,148.9	33.5991	17,148.9	46.102	17,148.9	28.1117	17,148.9	47.0748	17,148.9	37.2804	17,148.9	36.9699	17,148.9	31.8475	17,148.9	35.6072	17,148.9	31.9165	17,148.9	34.9515	17,148.9	37.2707	17,148.9	25.8009	17,148.9	36.8818	17,148.9	39.6302	17,148.9	36.5713	17,148.9	39.2713	17,148.9	31.5808
17,752.4	76.8643	17,752.4	76.0619	17,752.4	75.3836	17,752.4	73.7049	17,752.4	73.7707	17,752.4	71.1995	17,752.4	71.0985	17,752.4	67.3487	17,752.4	65.9479	17,752.4	64.1959	17,752.4	61.2394	17,752.4	57.4534	17,752.4	54.3732	17,752.4	46.7994	17,752.4	48.643	17,752.4	38.7687	17,752.4	42.1747	17,752.4	37.5894	17,752.4	39.973	17,752.4	26.7496	17,752.4	36.9653	17,752.4	21.8334	17,752.4	43.5042	17,752.4	34.7347	17,752.4	34.4019	17,752.4	23.4416	17,752.4	33.2351	17,752.4	31.1225	17,752.4	28.2728	17,752.4	33.6954	17,752.4	28.2319	17,752.4	37.0363	17,752.4	38.2185	17,752.4	27.0146	17,752.4	36.641	17,752.4	29.4321
18,379.4	77.1186	18,379.4	76.3323	18,379.4	75.2309	18,379.4	73.7036	18,379.4	73.296	18,379.4	70.9869	18,379.4	70.6817	18,379.4	66.627	18,379.4	65.3574	18,379.4	62.7363	18,379.4	59.8612	18,379.4	54.915	18,379.4	51.8928	18,379.4	40.7228	18,379.4	46.3501	18,379.4	19.0959	18,379.4	40.031	18,379.4	31.4594	18,379.4	36.7027	18,379.4	30.8792	18,379.4	28.9409	18,379.4	29.9779	18,379.4	39.9017	18,379.4	33.8329	18,379.4	32.0077	18,379.4	29.539	18,379.4	34.6773	18,379.4	32.5452	18,379.4	25.8873	18,379.4	21.1914	18,379.4	29.9396	18,379.4	38.6462	18,379.4	34.8579	18,379.4	27.4013	18,379.4	34.9109	18,379.4	29.5555
19,026.9	77.3592	19,026.9	76.2992	19,026.9	75.3664	19,026.9	73.3207	19,026.9	73.0666	19,026.9	70.5578	19,026.9	70.0551	19,026.9	65.7571	19,026.9	63.9945	19,026.9	61.0154	19,026.9	58.177	19,026.9	51.5514	19,026.9	48.4421	19,026.9	34.0892	19,026.9	43.1546	19,026.9	35.7269	19,026.9	39.409	19,026.9	34.0126	19,026.9	34.4466	19,026.9	34.7683	19,026.9	39.7553	19,026.9	33.0235	19,026.9	36.2839	19,026.9	31.0689	19,026.9	30.7201	19,026.9	34.4123	19,026.9	34.2163	19,026.9	34.6051	19,026.9	25.9963	19,026.9	30.1331	19,026.9	29.5796	19,026.9	38.8749	19,026.9	31.2392	19,026.9	33.4888	19,026.9	33.1929	19,026.9	34.6104
19,697.8	77.0595	19,697.8	75.8285	19,697.8	75.171	19,697.8	72.5946	19,697.8	72.8035	19,697.8	69.8332	19,697.8	69.0547	19,697.8	64.4501	19,697.8	62.1222	19,697.8	58.754	19,697.8	56.7432	19,697.8	45.7161	19,697.8	45.275	19,697.8	40.5393	19,697.8	43.6264	19,697.8	39.8675	19,697.8	43.5729	19,697.8	36.1686	19,697.8	30.8736	19,697.8	32.6103	19,697.8	41.9012	19,697.8	35.4686	19,697.8	42.3712	19,697.8	34.1389	19,697.8	34.7193	19,697.8	36.1332	19,697.8	35.4405	19,697.8	37.1628	19,697.8	29.179	19,697.8	30.2049	19,697.8	27.4846	19,697.8	41.0892	19,697.8	33.7887	19,697.8	36.3458	19,697.8	33.5036	19,697.8	36.9799
19,999.5	76.9655	19,999.5	75.6934	19,999.5	74.9097	19,999.5	72.3632	19,999.5	72.4149	19,999.5	69.616	19,999.5	68.5565	19,999.5	63.7294	19,999.5	62.1526	19,999.5	58.0145	19,999.5	56.4693	19,999.5	42.5637	19,999.5	45.0096	19,999.5	41.7043	19,999.5	46.234	19,999.5	39.9166	19,999.5	46.7932	19,999.5	36.3221	19,999.5	41.3895	19,999.5	34.9406	19,999.5	44.3779	19,999.5	38.6109	19,999.5	45.1489	19,999.5	37.3051	19,999.5	41.6056	19,999.5	40.233	19,999.5	31.7537	19,999.5	36.5882	19,999.5	35.26	19,999.5	20.3395	19,999.5	35.7817	19,999.5	44.6238	19,999.5	40.622	19,999.5	22.7945	19,999.5	33.9412	19,999.5	35.612
