"Vertical Reflections"					
"Floor Reflection"		"Ceiling Reflection"		"Total Vertical Reflection"	
"Frequency [Hz]"	"Sound Pessure Level [dB]  / [2.83V 1m] "	"Frequency [Hz]"	"Sound Pessure Level [dB]  / [2.83V 1m] "	"Frequency [Hz]"	"Sound Pessure Level [dB]  / [2.83V 1m] "
20.5078	50.1589	20.5078	50.5112	20.5078	50.3386
21.9727	53.4831	21.9727	54.1978	21.9727	53.8551
23.4375	52.7448	23.4375	53.5611	23.4375	53.1721
24.9023	50.4574	24.9023	50.6309	24.9023	50.545
26.3672	46.3737	26.3672	44.2334	26.3672	45.4341
27.832	36.6146	27.832	24.336	27.832	33.854
29.2969	40.2626	29.2969	41.8537	29.2969	41.1306
30.7617	46.4185	30.7617	44.6374	30.7617	45.6186
32.2266	47.4671	32.2266	42.7499	32.2266	45.7198
33.6914	45.0437	33.6914	40.9464	33.6914	43.4613
35.1563	46.5655	35.1563	50.2978	35.1563	48.8208
36.6211	54.0363	36.6211	56.1452	36.6211	55.2175
38.0859	59.1466	38.0859	60.0259	38.0859	59.6084
39.5508	62.0799	39.5508	62.3675	39.5508	62.2261
41.0156	63.8428	41.0156	63.7306	41.0156	63.787
42.4805	64.7607	42.4805	64.3258	42.4805	64.5487
43.9453	65.034	43.9453	64.3736	43.9453	64.7164
45.4102	64.6923	45.4102	63.8441	45.4102	64.2889
46.875	64.0623	46.875	63.1246	46.875	63.6187
48.3398	63.4306	48.3398	62.6441	48.3398	63.0551
51.2695	63.8258	51.2695	63.5386	51.2695	63.6846
52.7344	64.8667	52.7344	64.7482	52.7344	64.8078
54.1992	66.1056	54.1992	66.0164	54.1992	66.0612
55.6641	67.1879	55.6641	67.0833	55.6641	67.1359
58.5938	68.8632	58.5938	68.6819	58.5938	68.7735
60.0586	69.5105	60.0586	69.296	60.0586	69.4046
62.9883	70.8398	62.9883	70.6419	62.9883	70.7419
64.4531	71.3668	64.4531	71.1976	64.4531	71.283
67.3828	72.8791	67.3828	72.6974	67.3828	72.7892
68.8477	73.2808	68.8477	73.0801	68.8477	73.1816
71.7773	74.2855	71.7773	74.0568	71.7773	74.1727
74.707	74.9735	74.707	74.7244	74.707	74.8507
77.6367	75.2949	77.6367	75.0231	77.6367	75.1611
79.1016	75.5573	79.1016	75.2822	79.1016	75.4219
82.0313	76.2467	82.0313	75.9585	82.0313	76.105
84.9609	76.6477	84.9609	76.3472	84.9609	76.5001
87.8906	76.8855	87.8906	76.5855	87.8906	76.7381
90.8203	77.3955	90.8203	77.091	90.8203	77.2459
95.2148	77.8915	95.2148	77.5827	95.2148	77.7399
98.1445	78.1139	98.1445	77.7987	98.1445	77.9592
101.074	78.4511	101.074	78.1409	101.074	78.2988
105.469	78.9108	105.469	78.6074	105.469	78.7618
108.398	79.0881	108.398	78.7936	108.398	78.9433
112.793	79.5923	112.793	79.277	112.793	79.4375
117.188	79.7968	117.188	79.4682	117.188	79.6356
120.117	79.9995	120.117	79.6639	120.117	79.835
124.512	80.311	124.512	79.9667	124.512	80.1423
128.906	80.5014	128.906	80.1374	128.906	80.3232
133.301	80.6771	133.301	80.3095	133.301	80.4972
139.16	80.8153	139.16	80.4364	139.16	80.63
143.555	80.941	143.555	80.5613	143.555	80.7553
147.949	81.0302	147.949	80.6194	147.949	80.8296
153.809	81.1065	153.809	80.69	153.809	80.9032
159.668	81.1711	159.668	80.7822	159.668	80.981
165.527	81.2767	165.527	80.8502	165.527	81.0687
171.387	81.2787	171.387	80.8489	171.387	81.0691
177.246	81.2327	177.246	80.7884	177.246	81.0162
183.105	81.1683	183.105	80.7008	183.105	80.9409
188.965	81.1242	188.965	80.6646	188.965	80.9005
196.289	81.061	196.289	80.631	196.289	80.8513
203.613	80.9597	203.613	80.5561	203.613	80.7625
210.938	80.8269	210.938	80.3764	210.938	80.6075
218.262	80.6953	218.262	80.2788	218.262	80.492
225.586	80.5326	225.586	80.1365	225.586	80.3391
232.91	80.5195	232.91	80.0988	232.91	80.3143
241.699	80.3125	241.699	79.8597	241.699	80.092
250.488	80.0456	250.488	79.638	250.488	79.8466
259.277	80.1147	259.277	79.5694	259.277	79.8506
268.066	79.7798	268.066	79.2739	268.066	79.5342
276.855	79.6529	276.855	79.0035	276.855	79.3403
287.109	79.6529	287.109	79.0432	287.109	79.3587
297.363	79.3911	297.363	78.7677	297.363	79.0905
307.617	79.4584	307.617	78.9349	307.617	79.2046
319.336	79.1144	319.336	78.6156	319.336	78.8722
329.59	78.939	329.59	78.5439	329.59	78.746
341.309	78.8478	341.309	78.3802	341.309	78.6203
353.027	78.4177	353.027	78.0877	353.027	78.2558
366.211	78.4586	366.211	77.9695	366.211	78.2209
379.395	78.1593	379.395	77.8055	379.395	77.986
392.578	77.7563	392.578	77.3019	392.578	77.5351
405.762	76.9929	405.762	76.9868	405.762	76.9898
420.41	76.1265	420.41	76.3601	420.41	76.2449
435.059	76.1362	435.059	75.7101	435.059	75.9284
451.172	77.9662	451.172	76.1257	451.172	77.1427
465.82	78.4457	465.82	76.6115	465.82	77.6247
483.398	78.3166	483.398	76.5941	483.398	77.5402
499.512	78.2659	499.512	76.742	499.512	77.5704
517.09	78.3374	517.09	76.7817	517.09	77.6288
536.133	77.8819	536.133	76.3767	536.133	77.1942
555.176	78.043	555.176	76.423	555.176	77.3081
574.219	77.8679	574.219	76.1822	574.219	77.1063
594.727	77.7341	594.727	75.9939	594.727	76.9506
615.234	77.9377	615.234	76.0684	615.234	77.1028
637.207	77.8697	637.207	75.9687	637.207	77.0224
659.18	77.5927	659.18	75.6706	659.18	76.7372
682.617	77.759	682.617	75.6019	682.617	76.813
707.52	77.6448	707.52	75.5086	707.52	76.7067
732.422	77.7227	732.422	75.5495	732.422	76.7706
757.324	77.933	757.324	75.7905	757.324	76.9925
785.156	78.7903	785.156	77.283	785.156	78.1017
811.523	75.215	811.523	77.5722	811.523	76.5516
840.82	73.7419	840.82	71.4154	840.82	72.7326
870.117	74.9948	870.117	72.7399	870.117	74.012
900.879	75.1598	900.879	73.0953	900.879	74.2491
933.105	74.7585	933.105	73.2442	933.105	74.067
965.332	74.947	965.332	73.153	965.332	74.142
1,000.49	74.9618	1,000.49	73.8076	1,000.49	74.423
1,035.64	75.2552	1,035.64	74.0402	1,035.64	74.69
1,072.27	75.9764	1,072.27	74.1723	1,072.27	75.1674
1,108.89	75.8417	1,108.89	73.7884	1,108.89	74.9353
1,148.44	75.4516	1,148.44	73.3184	1,148.44	74.5147
1,189.45	76.3973	1,189.45	73.1272	1,189.45	75.063
1,230.47	76.8186	1,230.47	73.8842	1,230.47	75.5947
1,274.41	76.5017	1,274.41	72.9401	1,274.41	75.0762
1,319.82	77.1499	1,319.82	72.4259	1,319.82	75.4008
1,366.7	80.7047	1,366.7	76.0288	1,366.7	78.9678
1,413.57	79.8142	1,413.57	76.6562	1,413.57	78.5161
1,463.38	78.9751	1,463.38	75.9852	1,463.38	77.7325
1,516.11	78.3865	1,516.11	75.3732	1,516.11	77.1361
1,568.85	78.2389	1,568.85	75.374	1,568.85	77.0385
1,624.51	78.0909	1,624.51	75.5774	1,624.51	77.0135
1,681.64	77.7466	1,681.64	75.7275	1,681.64	76.8534
1,741.7	77.2693	1,741.7	75.9892	1,741.7	76.6762
1,803.22	77.9933	1,803.22	74.9316	1,803.22	76.7269
1,866.21	77.706	1,866.21	77.8205	1,866.21	77.7636
1,932.13	75.9059	1,932.13	76.719	1,932.13	76.3315
1,999.51	77.0443	1,999.51	76.1876	1,999.51	76.637
2,069.82	76.6168	2,069.82	76.6204	2,069.82	76.6186
2,143.07	76.8622	2,143.07	76.9717	2,143.07	76.9173
2,219.24	77.3046	2,219.24	76.2783	2,219.24	76.8217
2,296.88	78.2894	2,296.88	76.0503	2,296.88	77.3126
2,378.91	77.783	2,378.91	77.0991	2,378.91	77.4545
2,462.4	77.7407	2,462.4	75.5593	2,462.4	76.7856
2,548.83	78.6294	2,548.83	76.0891	2,548.83	77.5424
2,639.65	78.7196	2,639.65	76.8605	2,639.65	77.8887
2,731.93	78.8974	2,731.93	77.4258	2,731.93	78.2237
2,828.61	79.0087	2,828.61	77.1467	2,828.61	78.1768
2,928.22	79.2913	2,928.22	77.5653	2,928.22	78.5135
3,030.76	79.5204	3,030.76	78.0285	3,030.76	78.8382
3,137.7	79.9466	3,137.7	77.2334	3,137.7	78.7985
3,249.02	79.6935	3,249.02	77.0442	3,249.02	78.5678
3,363.28	79.3606	3,363.28	75.2375	3,363.28	77.771
3,481.93	78.9146	3,481.93	73.9962	3,481.93	77.1174
3,604.98	79.1761	3,604.98	73.7081	3,604.98	77.2512
3,732.42	78.2114	3,732.42	72.2242	3,732.42	76.1769
3,864.26	77.1997	3,864.26	71.4831	3,864.26	75.221
4,000.49	76.421	4,000.49	70.808	4,000.49	74.4644
4,141.11	75.8217	4,141.11	70.1446	4,141.11	73.8514
4,287.6	75.3569	4,287.6	69.8777	4,287.6	73.4295
4,438.48	74.4133	4,438.48	69.55	4,438.48	72.6296
4,595.21	72.9458	4,595.21	69.747	4,595.21	71.6345
4,756.35	72.5812	4,756.35	70.505	4,756.35	71.666
4,924.8	71.3695	4,924.8	70.4275	4,924.8	70.924
5,097.66	71.6439	5,097.66	70.1514	5,097.66	70.9615
5,277.83	71.9573	5,277.83	72.0389	5,277.83	71.9983
5,463.87	70.061	5,463.87	70.0386	5,463.87	70.0498
5,657.23	70.5254	5,657.23	69.5036	5,657.23	70.0445
5,856.45	70.7239	5,856.45	70.7286	5,856.45	70.7263
6,062.99	71.213	6,062.99	71.9953	6,062.99	71.6217
6,276.86	71.8972	6,276.86	73.1961	6,276.86	72.595
6,498.05	72.8235	6,498.05	74.0595	6,498.05	73.4853
6,726.56	74.4771	6,726.56	75.1887	6,726.56	74.8475
6,963.87	75.4267	6,963.87	75.8475	6,963.87	75.6422
7,209.96	74.993	7,209.96	75.7016	7,209.96	75.3617
7,464.84	75.76	7,464.84	75.6479	7,464.84	75.7043
7,727.05	76.7499	7,727.05	76.0141	7,727.05	76.3976
7,999.51	76.8909	7,999.51	76.2391	7,999.51	76.5772
8,282.23	77.2663	8,282.23	76.2923	8,282.23	76.8065
8,573.73	77.5504	8,573.73	76.0819	8,573.73	76.8779
8,876.95	78.1523	8,876.95	75.8805	8,876.95	77.1633
9,188.96	78.1262	9,188.96	75.5205	9,188.96	77.0159
9,514.16	77.7722	9,514.16	75.2199	9,514.16	76.6809
9,849.61	77.5141	9,849.61	74.8314	9,849.61	76.3767
10,196.8	76.6105	10,196.8	74.1323	10,196.8	75.5459
10,555.7	76.3589	10,555.7	73.6602	10,555.7	75.2159
10,927.7	75.4451	10,927.7	73.1223	10,927.7	74.4372
11,313	74.7619	11,313	72.5741	11,313	73.8044
11,712.9	74.0522	11,712.9	72.1221	11,712.9	73.1935
12,126	73.6345	12,126	71.6547	12,126	72.7564
12,553.7	73.6209	12,553.7	71.1393	12,553.7	72.555
12,996.1	72.92	12,996.1	70.5215	12,996.1	71.8843
13,454.6	72.9611	13,454.6	69.6543	13,454.6	71.6151
13,929.2	72.8129	13,929.2	68.6336	13,929.2	71.2077
14,419.9	72.644	14,419.9	67.6927	14,419.9	70.8388
14,928.2	72.0872	14,928.2	67.0025	14,928.2	70.25
15,455.6	71.5724	15,455.6	66.7737	15,455.6	69.8046
16,000.5	71.708	16,000.5	66.5333	16,000.5	69.8497
16,564.5	71.7399	16,564.5	65.857	16,564.5	69.7266
17,148.9	71.6481	17,148.9	65.1349	17,148.9	69.5127
17,752.4	71.3182	17,752.4	64.5814	17,752.4	69.1429
18,379.4	70.8509	18,379.4	63.5457	18,379.4	68.5814
19,026.9	70.4004	19,026.9	62.3644	19,026.9	68.0241
19,697.8	69.8143	19,697.8	60.7604	19,697.8	67.313
19,999.5	69.4204	19,999.5	60.0163	19,999.5	66.8817
