"SPL Horizontal"																																																																							
"On-Axis"		"10°"		"-10°"		"20°"		"-20°"		"30°"		"-30°"		"40°"		"-40°"		"50°"		"-50°"		"60°"		"-60°"		"70°"		"-70°"		"80°"		"-80°"		"90°"		"-90°"		"100°"		"-100°"		"110°"		"-110°"		"120°"		"-120°"		"130°"		"-130°"		"140°"		"-140°"		"150°"		"-150°"		"160°"		"-160°"		"170°"		"-170°"		"180°"	
"Frequency [Hz]"	"Sound Pessure Level [dB]  / [2.83V 1m] "	"Frequency [Hz]"	"Sound Pessure Level [dB]  / [2.83V 1m] "	"Frequency [Hz]"	"Sound Pessure Level [dB]  / [2.83V 1m] "	"Frequency [Hz]"	"Sound Pessure Level [dB]  / [2.83V 1m] "	"Frequency [Hz]"	"Sound Pessure Level [dB]  / [2.83V 1m] "	"Frequency [Hz]"	"Sound Pessure Level [dB]  / [2.83V 1m] "	"Frequency [Hz]"	"Sound Pessure Level [dB]  / [2.83V 1m] "	"Frequency [Hz]"	"Sound Pessure Level [dB]  / [2.83V 1m] "	"Frequency [Hz]"	"Sound Pessure Level [dB]  / [2.83V 1m] "	"Frequency [Hz]"	"Sound Pessure Level [dB]  / [2.83V 1m] "	"Frequency [Hz]"	"Sound Pessure Level [dB]  / [2.83V 1m] "	"Frequency [Hz]"	"Sound Pessure Level [dB]  / [2.83V 1m] "	"Frequency [Hz]"	"Sound Pessure Level [dB]  / [2.83V 1m] "	"Frequency [Hz]"	"Sound Pessure Level [dB]  / [2.83V 1m] "	"Frequency [Hz]"	"Sound Pessure Level [dB]  / [2.83V 1m] "	"Frequency [Hz]"	"Sound Pessure Level [dB]  / [2.83V 1m] "	"Frequency [Hz]"	"Sound Pessure Level [dB]  / [2.83V 1m] "	"Frequency [Hz]"	"Sound Pessure Level [dB]  / [2.83V 1m] "	"Frequency [Hz]"	"Sound Pessure Level [dB]  / [2.83V 1m] "	"Frequency [Hz]"	"Sound Pessure Level [dB]  / [2.83V 1m] "	"Frequency [Hz]"	"Sound Pessure Level [dB]  / [2.83V 1m] "	"Frequency [Hz]"	"Sound Pessure Level [dB]  / [2.83V 1m] "	"Frequency [Hz]"	"Sound Pessure Level [dB]  / [2.83V 1m] "	"Frequency [Hz]"	"Sound Pessure Level [dB]  / [2.83V 1m] "	"Frequency [Hz]"	"Sound Pessure Level [dB]  / [2.83V 1m] "	"Frequency [Hz]"	"Sound Pessure Level [dB]  / [2.83V 1m] "	"Frequency [Hz]"	"Sound Pessure Level [dB]  / [2.83V 1m] "	"Frequency [Hz]"	"Sound Pessure Level [dB]  / [2.83V 1m] "	"Frequency [Hz]"	"Sound Pessure Level [dB]  / [2.83V 1m] "	"Frequency [Hz]"	"Sound Pessure Level [dB]  / [2.83V 1m] "	"Frequency [Hz]"	"Sound Pessure Level [dB]  / [2.83V 1m] "	"Frequency [Hz]"	"Sound Pessure Level [dB]  / [2.83V 1m] "	"Frequency [Hz]"	"Sound Pessure Level [dB]  / [2.83V 1m] "	"Frequency [Hz]"	"Sound Pessure Level [dB]  / [2.83V 1m] "	"Frequency [Hz]"	"Sound Pessure Level [dB]  / [2.83V 1m] "	"Frequency [Hz]"	"Sound Pessure Level [dB]  / [2.83V 1m] "
20.5078	56.5271	20.5078	56.4976	20.5078	56.5301	20.5078	56.4415	20.5078	56.5073	20.5078	56.359	20.5078	56.4596	20.5078	56.251	20.5078	56.3882	20.5078	56.1191	20.5078	56.2946	20.5078	55.9655	20.5078	56.1803	20.5078	55.7934	20.5078	56.0473	20.5078	55.607	20.5078	55.8976	20.5078	55.4112	20.5078	55.7335	20.5078	55.2119	20.5078	55.5577	20.5078	55.0157	20.5078	55.3734	20.5078	54.8297	20.5078	55.1847	20.5078	54.6611	20.5078	54.9965	20.5078	54.5177	20.5078	54.8154	20.5078	54.4068	20.5078	54.6493	20.5078	54.3357	20.5078	54.5073	20.5078	54.3095	20.5078	54.3985	20.5078	54.3309
21.9727	56.6722	21.9727	56.616	21.9727	56.7038	21.9727	56.5362	21.9727	56.7103	21.9727	56.4336	21.9727	56.6911	21.9727	56.3094	21.9727	56.6463	21.9727	56.1653	21.9727	56.5759	21.9727	56.0033	21.9727	56.4809	21.9727	55.8264	21.9727	56.3626	21.9727	55.6386	21.9727	56.2231	21.9727	55.4452	21.9727	56.0656	21.9727	55.2528	21.9727	55.8935	21.9727	55.0693	21.9727	55.7115	21.9727	54.9031	21.9727	55.5244	21.9727	54.7623	21.9727	55.3377	21.9727	54.6544	21.9727	55.1573	21.9727	54.5846	21.9727	54.9894	21.9727	54.5564	21.9727	54.8404	21.9727	54.5705	21.9727	54.717	21.9727	54.6252
23.4375	57.1992	23.4375	57.1746	23.4375	57.1972	23.4375	57.1233	23.4375	57.1688	23.4375	57.0456	23.4375	57.1144	23.4375	56.942	23.4375	57.0348	23.4375	56.8134	23.4375	56.9308	23.4375	56.6614	23.4375	56.8036	23.4375	56.4881	23.4375	56.6549	23.4375	56.2965	23.4375	56.4867	23.4375	56.0909	23.4375	56.3018	23.4375	55.8768	23.4375	56.1037	23.4375	55.6612	23.4375	55.8973	23.4375	55.4525	23.4375	55.6883	23.4375	55.2598	23.4375	55.4841	23.4375	55.0926	23.4375	55.2929	23.4375	54.9598	23.4375	55.1236	23.4375	54.869	23.4375	54.9851	23.4375	54.8252	23.4375	54.8855	23.4375	54.8309
24.9023	57.5684	24.9023	57.5409	24.9023	57.5628	24.9023	57.4805	24.9023	57.5247	24.9023	57.3871	24.9023	57.4546	24.9023	57.2615	24.9023	57.3533	24.9023	57.1048	24.9023	57.222	24.9023	56.9188	24.9023	57.0623	24.9023	56.7065	24.9023	56.8764	24.9023	56.472	24.9023	56.6671	24.9023	56.2206	24.9023	56.4382	24.9023	55.9591	24.9023	56.1947	24.9023	55.6959	24.9023	55.9425	24.9023	55.4405	24.9023	55.6888	24.9023	55.2035	24.9023	55.4419	24.9023	54.9961	24.9023	55.2114	24.9023	54.8295	24.9023	55.0075	24.9023	54.7135	24.9023	54.8411	24.9023	54.6552	24.9023	54.7219	24.9023	54.6583
26.3672	57.5371	26.3672	57.4955	26.3672	57.5394	26.3672	57.4148	26.3672	57.5027	26.3672	57.2948	26.3672	57.4271	26.3672	57.1361	26.3672	57.3128	26.3672	56.9394	26.3672	57.1599	26.3672	56.7064	26.3672	56.969	26.3672	56.4396	26.3672	56.7412	26.3672	56.143	26.3672	56.4783	26.3672	55.8218	26.3672	56.1836	26.3672	55.4836	26.3672	55.8619	26.3672	55.1379	26.3672	55.5204	26.3672	54.7966	26.3672	55.169	26.3672	54.4739	26.3672	54.8203	26.3672	54.1857	26.3672	54.4896	26.3672	53.9491	26.3672	54.1943	26.3672	53.78	26.3672	53.9525	26.3672	53.6916	26.3672	53.7807	26.3672	53.6916
27.832	57.3627	27.832	57.3203	27.832	57.3615	27.832	57.234	27.832	57.3172	27.832	57.1037	27.832	57.23	27.832	56.9292	27.832	57.0999	27.832	56.711	27.832	56.9272	27.832	56.4503	27.832	56.7121	27.832	56.1494	27.832	56.4553	27.832	55.8122	27.832	56.1585	27.832	55.4445	27.832	55.8246	27.832	55.0546	27.832	55.4587	27.832	54.6539	27.832	55.0688	27.832	54.2566	27.832	54.6659	27.832	53.88	27.832	54.2647	27.832	53.5431	27.832	53.8834	27.832	53.2662	27.832	53.5423	27.832	53.068	27.832	53.2629	27.832	52.9637	27.832	53.0646	27.832	52.9623
29.2969	59.1697	29.2969	59.1181	29.2969	59.1828	29.2969	59.028	29.2969	59.1573	29.2969	58.8994	29.2969	59.093	29.2969	58.7324	29.2969	58.9897	29.2969	58.5277	29.2969	58.8474	29.2969	58.2863	29.2969	58.6661	29.2969	58.0104	29.2969	58.4462	29.2969	57.7038	29.2969	58.1889	29.2969	57.3722	29.2969	57.8967	29.2969	57.0236	29.2969	57.5738	29.2969	56.6686	29.2969	57.2271	29.2969	56.3205	29.2969	56.8665	29.2969	55.9949	29.2969	56.5051	29.2969	55.7093	29.2969	56.1588	29.2969	55.4812	29.2969	55.8455	29.2969	55.3265	29.2969	55.5836	29.2969	55.257	29.2969	55.3902	29.2969	55.2786
30.7617	58.0605	30.7617	58.0065	30.7617	58.0564	30.7617	57.8942	30.7617	57.9942	30.7617	57.7232	30.7617	57.8743	30.7617	57.4938	30.7617	57.697	30.7617	57.2065	30.7617	57.4632	30.7617	56.8629	30.7617	57.1744	30.7617	56.4661	30.7617	56.8332	30.7617	56.0216	30.7617	56.4437	30.7617	55.5379	30.7617	56.0117	30.7617	55.0277	30.7617	55.5455	30.7617	54.5078	30.7617	55.0559	30.7617	53.9993	30.7617	54.5569	30.7617	53.5265	30.7617	54.0659	30.7617	53.1144	30.7617	53.603	30.7617	52.7867	30.7617	53.1906	30.7617	52.5628	30.7617	52.8515	30.7617	52.4558	30.7617	52.6063	30.7617	52.471
32.2266	56.3996	32.2266	56.3605	32.2266	56.3559	32.2266	56.2382	32.2266	56.2286	32.2266	56.031	32.2266	56.0159	32.2266	55.7362	32.2266	55.7155	32.2266	55.3496	32.2266	55.325	32.2266	54.8664	32.2266	54.8423	32.2266	54.2817	32.2266	54.2667	32.2266	53.5919	32.2266	53.5992	32.2266	52.7961	32.2266	52.8436	32.2266	51.9	32.2266	52.0071	32.2266	50.9193	32.2266	51.1018	32.2266	49.8845	32.2266	50.1469	32.2266	48.8449	32.2266	49.1719	32.2266	47.8671	32.2266	48.2206	32.2266	47.0267	32.2266	47.353	32.2266	46.3942	32.2266	46.6405	32.2266	46.0218	32.2266	46.1525	32.2266	45.9392
33.6914	58.9146	33.6914	58.8856	33.6914	58.8817	33.6914	58.7942	33.6914	58.7873	33.6914	58.6404	33.6914	58.6322	33.6914	58.4245	33.6914	58.4181	33.6914	58.1476	33.6914	58.1477	33.6914	57.8123	33.6914	57.8254	33.6914	57.4238	33.6914	57.4579	33.6914	56.9908	33.6914	57.0543	33.6914	56.5273	33.6914	56.6261	33.6914	56.0527	33.6914	56.1874	33.6914	55.5912	33.6914	55.754	33.6914	55.1691	33.6914	55.3434	33.6914	54.8087	33.6914	54.9729	33.6914	54.5235	33.6914	54.6582	33.6914	54.3156	33.6914	54.4107	33.6914	54.1789	33.6914	54.2351	33.6914	54.1047	33.6914	54.1296	33.6914	54.0879
35.1563	61.2372	35.1563	61.2037	35.1563	61.236	35.1563	61.1359	35.1563	61.2003	35.1563	61.0351	35.1563	61.1315	35.1563	60.9038	35.1563	61.0317	35.1563	60.7458	35.1563	60.904	35.1563	60.5662	35.1563	60.7526	35.1563	60.3722	35.1563	60.5829	35.1563	60.1726	35.1563	60.4011	35.1563	59.9776	35.1563	60.214	35.1563	59.798	35.1563	60.0293	35.1563	59.6432	35.1563	59.8545	35.1563	59.5195	35.1563	59.697	35.1563	59.4285	35.1563	59.563	35.1563	59.3671	35.1563	59.4569	35.1563	59.3287	35.1563	59.38	35.1563	59.3064	35.1563	59.3303	35.1563	59.2951	35.1563	59.3034	35.1563	59.2934
36.6211	63.3032	36.6211	63.2699	36.6211	63.3179	36.6211	63.2182	36.6211	63.315	36.6211	63.1489	36.6211	63.296	36.6211	63.0639	36.6211	63.2628	36.6211	62.9666	36.6211	63.218	36.6211	62.8617	36.6211	63.1644	36.6211	62.7552	36.6211	63.1051	36.6211	62.6546	36.6211	63.0431	36.6211	62.5675	36.6211	62.9813	36.6211	62.5009	36.6211	62.9226	36.6211	62.4591	36.6211	62.8692	36.6211	62.4432	36.6211	62.8229	36.6211	62.4506	36.6211	62.7844	36.6211	62.4757	36.6211	62.7526	36.6211	62.5122	36.6211	62.7251	36.6211	62.5539	36.6211	62.6982	36.6211	62.5959	36.6211	62.6688	36.6211	62.6347
38.0859	63.0026	38.0859	62.9272	38.0859	63.054	38.0859	62.8276	38.0859	63.0821	38.0859	62.7046	38.0859	63.0885	38.0859	62.5607	38.0859	63.0748	38.0859	62.4	38.0859	63.0425	38.0859	62.2289	38.0859	62.9933	38.0859	62.0563	38.0859	62.9285	38.0859	61.8926	38.0859	62.8493	38.0859	61.7487	38.0859	62.7573	38.0859	61.6338	38.0859	62.6544	38.0859	61.5532	38.0859	62.5433	38.0859	61.5077	38.0859	62.4276	38.0859	61.494	38.0859	62.3103	38.0859	61.5073	38.0859	62.1938	38.0859	61.5433	38.0859	62.0794	38.0859	61.5992	38.0859	61.9678	38.0859	61.6727	38.0859	61.8608	38.0859	61.7611
39.5508	64.2898	39.5508	64.2896	39.5508	64.2972	39.5508	64.2993	39.5508	64.3093	39.5508	64.3225	39.5508	64.3248	39.5508	64.3628	39.5508	64.3426	39.5508	64.423	39.5508	64.362	39.5508	64.5043	39.5508	64.3823	39.5508	64.6053	39.5508	64.4034	39.5508	64.7212	39.5508	64.4252	39.5508	64.8446	39.5508	64.4489	39.5508	64.9658	39.5508	64.4766	39.5508	65.0751	39.5508	64.5117	39.5508	65.1637	39.5508	64.5575	39.5508	65.2248	39.5508	64.617	39.5508	65.2547	39.5508	64.6913	39.5508	65.2521	39.5508	64.7792	39.5508	65.2181	39.5508	64.8768	39.5508	65.1566	39.5508	64.9777	39.5508	65.0739
41.0156	69.0518	41.0156	69.1104	41.0156	69.0001	41.0156	69.176	41.0156	68.955	41.0156	69.2477	41.0156	68.9163	41.0156	69.324	41.0156	68.8838	41.0156	69.4023	41.0156	68.8581	41.0156	69.4789	41.0156	68.8402	41.0156	69.5495	41.0156	68.8319	41.0156	69.6094	41.0156	68.8351	41.0156	69.6549	41.0156	68.8514	41.0156	69.6835	41.0156	68.8815	41.0156	69.6949	41.0156	68.9245	41.0156	69.6905	41.0156	68.9787	41.0156	69.6729	41.0156	69.0418	41.0156	69.644	41.0156	69.112	41.0156	69.6047	41.0156	69.1875	41.0156	69.5549	41.0156	69.2666	41.0156	69.4942	41.0156	69.3466	41.0156	69.4238
42.4805	70.612	42.4805	70.637	42.4805	70.5902	42.4805	70.6641	42.4805	70.5723	42.4805	70.6916	42.4805	70.559	42.4805	70.7177	42.4805	70.5507	42.4805	70.7402	42.4805	70.5477	42.4805	70.7569	42.4805	70.5507	42.4805	70.7662	42.4805	70.56	42.4805	70.7677	42.4805	70.5756	42.4805	70.7621	42.4805	70.597	42.4805	70.7519	42.4805	70.6228	42.4805	70.7409	42.4805	70.651	42.4805	70.7329	42.4805	70.679	42.4805	70.7307	42.4805	70.7047	42.4805	70.7347	42.4805	70.7265	42.4805	70.7432	42.4805	70.7436	42.4805	70.753	42.4805	70.7558	42.4805	70.7609	42.4805	70.7628	42.4805	70.7645
43.9453	70.4111	43.9453	70.4073	43.9453	70.4286	43.9453	70.4164	43.9453	70.4603	43.9453	70.4379	43.9453	70.507	43.9453	70.4718	43.9453	70.5687	43.9453	70.5183	43.9453	70.6451	43.9453	70.578	43.9453	70.7349	43.9453	70.6517	43.9453	70.8362	43.9453	70.7398	43.9453	70.9462	43.9453	70.8422	43.9453	71.0613	43.9453	70.9571	43.9453	71.178	43.9453	71.0813	43.9453	71.2924	43.9453	71.2093	43.9453	71.4007	43.9453	71.3348	43.9453	71.4991	43.9453	71.4508	43.9453	71.5838	43.9453	71.5509	43.9453	71.651	43.9453	71.6305	43.9453	71.6972	43.9453	71.6861	43.9453	71.7194	43.9453	71.7159
45.4102	70.494	45.4102	70.4913	45.4102	70.5039	45.4102	70.4961	45.4102	70.5207	45.4102	70.5087	45.4102	70.5438	45.4102	70.5293	45.4102	70.5727	45.4102	70.5577	45.4102	70.607	45.4102	70.5939	45.4102	70.6458	45.4102	70.6375	45.4102	70.6885	45.4102	70.6876	45.4102	70.7343	45.4102	70.743	45.4102	70.7823	45.4102	70.8019	45.4102	70.8316	45.4102	70.8617	45.4102	70.8811	45.4102	70.9197	45.4102	70.9297	45.4102	70.9729	45.4102	70.9758	45.4102	71.0189	45.4102	71.0174	45.4102	71.0556	45.4102	71.0525	45.4102	71.0821	45.4102	71.0793	45.4102	71.0978	45.4102	71.0963	45.4102	71.1026
46.875	70.793	46.875	70.7969	46.875	70.7926	46.875	70.8046	46.875	70.7957	46.875	70.8158	46.875	70.802	46.875	70.8304	46.875	70.8111	46.875	70.848	46.875	70.8229	46.875	70.8683	46.875	70.8367	46.875	70.8907	46.875	70.8523	46.875	70.9144	46.875	70.8694	46.875	70.9386	46.875	70.8876	46.875	70.9623	46.875	70.9066	46.875	70.9845	46.875	70.9262	46.875	71.004	46.875	70.9461	46.875	71.02	46.875	70.9657	46.875	71.0321	46.875	70.9847	46.875	71.0399	46.875	71.0021	46.875	71.0435	46.875	71.0173	46.875	71.0428	46.875	71.0295	46.875	71.0381
48.3398	71.7216	48.3398	71.7278	48.3398	71.7201	48.3398	71.7387	48.3398	71.7234	48.3398	71.754	48.3398	71.7311	48.3398	71.7731	48.3398	71.7428	48.3398	71.7954	48.3398	71.758	48.3398	71.8202	48.3398	71.7758	48.3398	71.8463	48.3398	71.7956	48.3398	71.8729	48.3398	71.8167	48.3398	71.8989	48.3398	71.8383	48.3398	71.9233	48.3398	71.8598	48.3398	71.9451	48.3398	71.8807	48.3398	71.9635	48.3398	71.9006	48.3398	71.9779	48.3398	71.9192	48.3398	71.988	48.3398	71.9365	48.3398	71.9937	48.3398	71.9521	48.3398	71.9951	48.3398	71.9659	48.3398	71.9926	48.3398	71.9775	48.3398	71.9866
51.2695	72.8316	51.2695	72.8287	51.2695	72.8376	51.2695	72.8289	51.2695	72.8467	51.2695	72.8322	51.2695	72.8587	51.2695	72.8383	51.2695	72.8731	51.2695	72.8469	51.2695	72.8895	51.2695	72.8576	51.2695	72.9073	51.2695	72.8702	51.2695	72.926	51.2695	72.8841	51.2695	72.9448	51.2695	72.8989	51.2695	72.963	51.2695	72.9143	51.2695	72.9799	51.2695	72.9301	51.2695	72.9949	51.2695	72.9457	51.2695	73.0075	51.2695	72.9611	51.2695	73.0173	51.2695	72.9757	51.2695	73.0241	51.2695	72.9893	51.2695	73.0276	51.2695	73.0014	51.2695	73.028	51.2695	73.0117	51.2695	73.0253	51.2695	73.0198
52.7344	73.0208	52.7344	73.0211	52.7344	73.024	52.7344	73.025	52.7344	73.0306	52.7344	73.0324	52.7344	73.0405	52.7344	73.043	52.7344	73.0533	52.7344	73.0564	52.7344	73.0686	52.7344	73.0723	52.7344	73.086	52.7344	73.09	52.7344	73.105	52.7344	73.109	52.7344	73.1252	52.7344	73.1288	52.7344	73.1459	52.7344	73.1488	52.7344	73.1666	52.7344	73.1685	52.7344	73.1864	52.7344	73.1874	52.7344	73.2048	52.7344	73.2049	52.7344	73.2211	52.7344	73.2206	52.7344	73.2347	52.7344	73.2339	52.7344	73.2452	52.7344	73.2445	52.7344	73.2523	52.7344	73.2518	52.7344	73.2558	52.7344	73.2556
54.1992	73.3507	54.1992	73.3571	54.1992	73.347	54.1992	73.3661	54.1992	73.346	54.1992	73.3775	54.1992	73.3474	54.1992	73.391	54.1992	73.3512	54.1992	73.4062	54.1992	73.3571	54.1992	73.4224	54.1992	73.3647	54.1992	73.4391	54.1992	73.3739	54.1992	73.4555	54.1992	73.3842	54.1992	73.4709	54.1992	73.3955	54.1992	73.4847	54.1992	73.4073	54.1992	73.4963	54.1992	73.4196	54.1992	73.5053	54.1992	73.432	54.1992	73.5115	54.1992	73.4444	54.1992	73.5147	54.1992	73.4567	54.1992	73.515	54.1992	73.4687	54.1992	73.5125	54.1992	73.4802	54.1992	73.5074	54.1992	73.4908	54.1992	73.5
55.6641	73.9978	55.6641	74.0005	55.6641	73.9979	55.6641	74.0059	55.6641	74.0008	55.6641	74.0136	55.6641	74.0064	55.6641	74.0233	55.6641	74.0145	55.6641	74.0346	55.6641	74.0246	55.6641	74.047	55.6641	74.0363	55.6641	74.0598	55.6641	74.0491	55.6641	74.0726	55.6641	74.0623	55.6641	74.0848	55.6641	74.0755	55.6641	74.0959	55.6641	74.088	55.6641	74.1058	55.6641	74.0994	55.6641	74.1143	55.6641	74.1094	55.6641	74.1213	55.6641	74.1178	55.6641	74.1269	55.6641	74.1246	55.6641	74.1312	55.6641	74.1298	55.6641	74.1342	55.6641	74.1334	55.6641	74.136	55.6641	74.1357	55.6641	74.1365
58.5938	74.6939	58.5938	74.693	58.5938	74.6972	58.5938	74.6945	58.5938	74.7028	58.5938	74.6982	58.5938	74.7107	58.5938	74.7043	58.5938	74.7205	58.5938	74.7124	58.5938	74.7321	58.5938	74.7224	58.5938	74.7452	58.5938	74.734	58.5938	74.7593	58.5938	74.7469	58.5938	74.774	58.5938	74.7607	58.5938	74.7887	58.5938	74.7751	58.5938	74.8031	58.5938	74.7894	58.5938	74.8167	58.5938	74.8034	58.5938	74.829	58.5938	74.8165	58.5938	74.8396	58.5938	74.8283	58.5938	74.8482	58.5938	74.8386	58.5938	74.8544	58.5938	74.847	58.5938	74.8581	58.5938	74.8534	58.5938	74.8591	58.5938	74.8575
60.0586	75.0546	60.0586	75.0568	60.0586	75.0546	60.0586	75.0612	60.0586	75.0569	60.0586	75.0676	60.0586	75.0612	60.0586	75.0758	60.0586	75.0675	60.0586	75.0857	60.0586	75.0756	60.0586	75.0968	60.0586	75.0851	60.0586	75.109	60.0586	75.0959	60.0586	75.1217	60.0586	75.1074	60.0586	75.1347	60.0586	75.1195	60.0586	75.1476	60.0586	75.1318	60.0586	75.16	60.0586	75.1439	60.0586	75.1716	60.0586	75.1557	60.0586	75.1819	60.0586	75.167	60.0586	75.1907	60.0586	75.1774	60.0586	75.1975	60.0586	75.1866	60.0586	75.202	60.0586	75.1943	60.0586	75.2039	60.0586	75.1999	60.0586	75.2032
62.9883	75.6922	62.9883	75.6869	62.9883	75.6978	62.9883	75.682	62.9883	75.7034	62.9883	75.6778	62.9883	75.7087	62.9883	75.6745	62.9883	75.7138	62.9883	75.6722	62.9883	75.7183	62.9883	75.6712	62.9883	75.7221	62.9883	75.6714	62.9883	75.7252	62.9883	75.6729	62.9883	75.7275	62.9883	75.6757	62.9883	75.729	62.9883	75.6796	62.9883	75.7297	62.9883	75.6845	62.9883	75.7298	62.9883	75.6901	62.9883	75.7295	62.9883	75.6962	62.9883	75.729	62.9883	75.7024	62.9883	75.7284	62.9883	75.7084	62.9883	75.7275	62.9883	75.7139	62.9883	75.7264	62.9883	75.7186	62.9883	75.7247	62.9883	75.7222
64.4531	75.9497	64.4531	75.9406	64.4531	75.957	64.4531	75.9297	64.4531	75.9622	64.4531	75.9173	64.4531	75.9653	64.4531	75.9039	64.4531	75.9661	64.4531	75.8896	64.4531	75.9646	64.4531	75.8749	64.4531	75.9608	64.4531	75.8601	64.4531	75.9549	64.4531	75.8458	64.4531	75.9469	64.4531	75.8324	64.4531	75.937	64.4531	75.8204	64.4531	75.9256	64.4531	75.8103	64.4531	75.913	64.4531	75.8027	64.4531	75.8996	64.4531	75.7981	64.4531	75.8858	64.4531	75.7967	64.4531	75.872	64.4531	75.7986	64.4531	75.8585	64.4531	75.8038	64.4531	75.8454	64.4531	75.8116	64.4531	75.8329	64.4531	75.8215
67.3828	76.6697	67.3828	76.6615	67.3828	76.6737	67.3828	76.6495	67.3828	76.6735	67.3828	76.6337	67.3828	76.669	67.3828	76.6144	67.3828	76.6601	67.3828	76.592	67.3828	76.6467	67.3828	76.5666	67.3828	76.6291	67.3828	76.5386	67.3828	76.6075	67.3828	76.5087	67.3828	76.5821	67.3828	76.4774	67.3828	76.5536	67.3828	76.4457	67.3828	76.5227	67.3828	76.4145	67.3828	76.4903	67.3828	76.3852	67.3828	76.4573	67.3828	76.3592	67.3828	76.4251	67.3828	76.3378	67.3828	76.3949	67.3828	76.3223	67.3828	76.3679	67.3828	76.3133	67.3828	76.3452	67.3828	76.3113	67.3828	76.3277	67.3828	76.3162
68.8477	77.1014	68.8477	77.0932	68.8477	77.1059	68.8477	77.0814	68.8477	77.1062	68.8477	77.0664	68.8477	77.1022	68.8477	77.0486	68.8477	77.0938	68.8477	77.0281	68.8477	77.0807	68.8477	77.0054	68.8477	77.0632	68.8477	76.9807	68.8477	77.0413	68.8477	76.9545	68.8477	77.0156	68.8477	76.9272	68.8477	76.9865	68.8477	76.8993	68.8477	76.955	68.8477	76.8716	68.8477	76.922	68.8477	76.8449	68.8477	76.8888	68.8477	76.8204	68.8477	76.8568	68.8477	76.7989	68.8477	76.8276	68.8477	76.7817	68.8477	76.8027	68.8477	76.7695	68.8477	76.7831	68.8477	76.7632	68.8477	76.7698	68.8477	76.7632
71.7773	77.8764	71.7773	77.8633	71.7773	77.8843	71.7773	77.8455	71.7773	77.887	71.7773	77.8234	71.7773	77.8842	71.7773	77.7973	71.7773	77.8757	71.7773	77.7678	71.7773	77.8615	71.7773	77.7354	71.7773	77.8415	71.7773	77.7009	71.7773	77.8158	71.7773	77.6649	71.7773	77.7845	71.7773	77.6281	71.7773	77.7481	71.7773	77.5916	71.7773	77.7072	71.7773	77.5563	71.7773	77.6631	71.7773	77.5231	71.7773	77.6172	71.7773	77.4931	71.7773	77.5716	71.7773	77.4674	71.7773	77.5287	71.7773	77.4469	71.7773	77.4911	71.7773	77.4327	71.7773	77.4609	71.7773	77.426	71.7773	77.4396	71.7773	77.4281
74.707	77.8705	74.707	77.8643	74.707	77.8754	74.707	77.8564	74.707	77.8796	74.707	77.8463	74.707	77.8837	74.707	77.8338	74.707	77.8881	74.707	77.8189	74.707	77.8932	74.707	77.8018	74.707	77.8991	74.707	77.7829	74.707	77.9054	74.707	77.7629	74.707	77.9116	74.707	77.7429	74.707	77.9166	74.707	77.724	74.707	77.9192	74.707	77.7075	74.707	77.9177	74.707	77.6949	74.707	77.9109	74.707	77.6874	74.707	77.8975	74.707	77.6864	74.707	77.8773	74.707	77.6927	74.707	77.8509	74.707	77.7066	74.707	77.82	74.707	77.728	74.707	77.7872	74.707	77.7556
77.6367	78.3664	77.6367	78.3818	77.6367	78.355	77.6367	78.4014	77.6367	78.3472	77.6367	78.4253	77.6367	78.3424	77.6367	78.4534	77.6367	78.3401	77.6367	78.4852	77.6367	78.34	77.6367	78.5198	77.6367	78.3419	77.6367	78.5562	77.6367	78.3459	77.6367	78.5928	77.6367	78.3523	77.6367	78.628	77.6367	78.362	77.6367	78.6601	77.6367	78.3759	77.6367	78.6872	77.6367	78.3947	77.6367	78.7079	77.6367	78.4194	77.6367	78.7207	77.6367	78.45	77.6367	78.7246	77.6367	78.486	77.6367	78.719	77.6367	78.5261	77.6367	78.7038	77.6367	78.5682	77.6367	78.6796	77.6367	78.6095	77.6367	78.6475
79.1016	78.9421	79.1016	78.9174	79.1016	78.9701	79.1016	78.8974	79.1016	79	79.1016	78.8832	79.1016	79.0304	79.1016	78.8757	79.1016	79.0597	79.1016	78.8755	79.1016	79.0868	79.1016	78.8828	79.1016	79.1106	79.1016	78.8974	79.1016	79.1304	79.1016	78.9184	79.1016	79.1458	79.1016	78.9448	79.1016	79.1567	79.1016	78.975	79.1016	79.1637	79.1016	79.0072	79.1016	79.1675	79.1016	79.0398	79.1016	79.169	79.1016	79.0707	79.1016	79.1693	79.1016	79.0984	79.1016	79.169	79.1016	79.1217	79.1016	79.1686	79.1016	79.1399	79.1016	79.1677	79.1016	79.1528	79.1016	79.1656	79.1016	79.161
82.0313	79.4452	82.0313	79.4231	82.0313	79.4674	82.0313	79.4008	82.0313	79.4897	82.0313	79.3783	82.0313	79.512	82.0313	79.3556	82.0313	79.5341	82.0313	79.3327	82.0313	79.5554	82.0313	79.3103	82.0313	79.575	82.0313	79.2888	82.0313	79.5918	82.0313	79.2693	82.0313	79.6046	82.0313	79.2526	82.0313	79.6121	82.0313	79.2399	82.0313	79.613	82.0313	79.2324	82.0313	79.6063	82.0313	79.231	82.0313	79.5914	82.0313	79.2364	82.0313	79.5682	82.0313	79.2494	82.0313	79.5375	82.0313	79.27	82.0313	79.5004	82.0313	79.2981	82.0313	79.4588	82.0313	79.3327	82.0313	79.4154	82.0313	79.3725
84.9609	79.5679	84.9609	79.6011	84.9609	79.5401	84.9609	79.6386	84.9609	79.5188	84.9609	79.6795	84.9609	79.5048	84.9609	79.7227	84.9609	79.4989	84.9609	79.767	84.9609	79.5014	84.9609	79.8116	84.9609	79.5125	84.9609	79.8554	84.9609	79.5319	84.9609	79.8974	84.9609	79.5592	84.9609	79.9366	84.9609	79.5936	84.9609	79.9718	84.9609	79.634	84.9609	80.0021	84.9609	79.6795	84.9609	80.0264	84.9609	79.7286	84.9609	80.0437	84.9609	79.7798	84.9609	80.0532	84.9609	79.8312	84.9609	80.0541	84.9609	79.8812	84.9609	80.046	84.9609	79.9276	84.9609	80.0288	84.9609	79.9686	84.9609	80.0027
87.8906	79.9346	87.8906	79.989	87.8906	79.8867	87.8906	80.0487	87.8906	79.8464	87.8906	80.1133	87.8906	79.8152	87.8906	80.1823	87.8906	79.7948	87.8906	80.2552	87.8906	79.7869	87.8906	80.3316	87.8906	79.7928	87.8906	80.4104	87.8906	79.8136	87.8906	80.4902	87.8906	79.85	87.8906	80.5689	87.8906	79.9021	87.8906	80.6438	87.8906	79.9692	87.8906	80.7118	87.8906	80.0501	87.8906	80.7692	87.8906	80.1427	87.8906	80.8124	87.8906	80.2442	87.8906	80.8381	87.8906	80.3506	87.8906	80.8436	87.8906	80.4574	87.8906	80.8273	87.8906	80.5595	87.8906	80.7889	87.8906	80.6518	87.8906	80.7295
90.8203	80.1743	90.8203	80.1417	90.8203	80.2097	90.8203	80.1131	90.8203	80.2475	90.8203	80.0909	90.8203	80.2881	90.8203	80.0781	90.8203	80.3322	90.8203	80.0786	90.8203	80.3809	90.8203	80.0961	90.8203	80.4347	90.8203	80.1339	90.8203	80.4941	90.8203	80.1939	90.8203	80.5588	90.8203	80.2763	90.8203	80.6283	90.8203	80.3787	90.8203	80.7013	90.8203	80.4964	90.8203	80.7764	90.8203	80.6226	90.8203	80.8518	90.8203	80.7491	90.8203	80.925	90.8203	80.8672	90.8203	80.9928	90.8203	80.9689	90.8203	81.0513	90.8203	81.0478	90.8203	81.0958	90.8203	81.1	90.8203	81.1216	90.8203	81.1241
95.2148	81.6278	95.2148	81.6429	95.2148	81.6015	95.2148	81.6455	95.2148	81.5655	95.2148	81.6349	95.2148	81.5217	95.2148	81.6104	95.2148	81.4721	95.2148	81.5722	95.2148	81.4192	95.2148	81.5206	95.2148	81.3651	95.2148	81.4567	95.2148	81.3119	95.2148	81.3823	95.2148	81.2611	95.2148	81.3	95.2148	81.2135	95.2148	81.2133	95.2148	81.169	95.2148	81.1264	95.2148	81.1269	95.2148	81.0442	95.2148	81.0861	95.2148	80.9717	95.2148	81.0456	95.2148	80.9133	95.2148	81.0048	95.2148	80.8725	95.2148	80.964	95.2148	80.8512	95.2148	80.9246	95.2148	80.8488	95.2148	80.8896	95.2148	80.8629
98.1445	81.6279	98.1445	81.6507	98.1445	81.5983	98.1445	81.667	98.1445	81.5621	98.1445	81.6775	98.1445	81.5203	98.1445	81.6832	98.1445	81.4745	98.1445	81.685	98.1445	81.4269	98.1445	81.6841	98.1445	81.3807	98.1445	81.6813	98.1445	81.339	98.1445	81.6773	98.1445	81.3054	98.1445	81.6725	98.1445	81.2829	98.1445	81.667	98.1445	81.2736	98.1445	81.6607	98.1445	81.2784	98.1445	81.6529	98.1445	81.2966	98.1445	81.643	98.1445	81.3263	98.1445	81.6302	98.1445	81.3645	98.1445	81.6135	98.1445	81.4075	98.1445	81.5921	98.1445	81.4518	98.1445	81.5651	98.1445	81.4942	98.1445	81.5324
101.074	82.0605	101.074	82.0638	101.074	82.0467	101.074	82.0569	101.074	82.0224	101.074	82.0407	101.074	81.9884	101.074	82.0163	101.074	81.9457	101.074	81.9851	101.074	81.896	101.074	81.9488	101.074	81.8414	101.074	81.9091	101.074	81.7843	101.074	81.8678	101.074	81.7276	101.074	81.8264	101.074	81.674	101.074	81.7863	101.074	81.6262	101.074	81.7484	101.074	81.5865	101.074	81.7136	101.074	81.5564	101.074	81.682	101.074	81.5366	101.074	81.6534	101.074	81.527	101.074	81.6277	101.074	81.5266	101.074	81.6042	101.074	81.5337	101.074	81.5827	101.074	81.5465	101.074	81.5632
105.469	82.4096	105.469	82.4237	105.469	82.385	105.469	82.4269	105.469	82.3507	105.469	82.4197	105.469	82.3082	105.469	82.4031	105.469	82.2592	105.469	82.3786	105.469	82.2062	105.469	82.348	105.469	82.1515	105.469	82.3133	105.469	82.0978	105.469	82.2767	105.469	82.0473	105.469	82.24	105.469	82.0024	105.469	82.2045	105.469	81.965	105.469	82.1713	105.469	81.9365	105.469	82.1404	105.469	81.9177	105.469	82.1118	105.469	81.909	105.469	82.0846	105.469	81.9097	105.469	82.0582	105.469	81.9189	105.469	82.0319	105.469	81.9349	105.469	82.0057	105.469	81.9559	105.469	81.98
108.398	82.611	108.398	82.6295	108.398	82.5804	108.398	82.6355	108.398	82.5388	108.398	82.6294	108.398	82.4879	108.398	82.6119	108.398	82.4301	108.398	82.5847	108.398	82.368	108.398	82.5498	108.398	82.3047	108.398	82.5094	108.398	82.2432	108.398	82.4663	108.398	82.1865	108.398	82.4228	108.398	82.1374	108.398	82.3812	108.398	82.0979	108.398	82.343	108.398	82.0696	108.398	82.3089	108.398	82.0533	108.398	82.2786	108.398	82.0489	108.398	82.2513	108.398	82.0553	108.398	82.2255	108.398	82.0706	108.398	82.1999	108.398	82.0925	108.398	82.1734	108.398	82.1185	108.398	82.146
112.793	83.023	112.793	83.0445	112.793	82.9907	112.793	83.0554	112.793	82.9482	112.793	83.0566	112.793	82.8964	112.793	83.049	112.793	82.8374	112.793	83.0343	112.793	82.7735	112.793	83.014	112.793	82.7079	112.793	82.9899	112.793	82.6441	112.793	82.9634	112.793	82.5856	112.793	82.9356	112.793	82.5358	112.793	82.9074	112.793	82.4975	112.793	82.8787	112.793	82.4726	112.793	82.8494	112.793	82.4621	112.793	82.8187	112.793	82.4657	112.793	82.7859	112.793	82.4821	112.793	82.7504	112.793	82.5092	112.793	82.7118	112.793	82.5444	112.793	82.6705	112.793	82.5848	112.793	82.6276
117.188	83.6638	117.188	83.6285	117.188	83.6849	117.188	83.581	117.188	83.6904	117.188	83.5238	117.188	83.68	117.188	83.4599	117.188	83.6541	117.188	83.3929	117.188	83.6137	117.188	83.3261	117.188	83.5609	117.188	83.2626	117.188	83.4982	117.188	83.2047	117.188	83.4288	117.188	83.154	117.188	83.3559	117.188	83.1111	117.188	83.283	117.188	83.0753	117.188	83.213	117.188	83.0458	117.188	83.1486	117.188	83.0209	117.188	83.0917	117.188	82.9997	117.188	83.0438	117.188	82.9818	117.188	83.0061	117.188	82.9675	117.188	82.979	117.188	82.9584	117.188	82.9626	117.188	82.9562
120.117	84.3771	120.117	84.3453	120.117	84.3927	120.117	84.2984	120.117	84.392	120.117	84.238	120.117	84.3752	120.117	84.1666	120.117	84.3435	120.117	84.0872	120.117	84.2984	120.117	84.0036	120.117	84.2421	120.117	83.92	120.117	84.1773	120.117	83.8405	120.117	84.1069	120.117	83.7691	120.117	84.0341	120.117	83.709	120.117	83.962	120.117	83.6618	120.117	83.8934	120.117	83.6282	120.117	83.8306	120.117	83.6071	120.117	83.7753	120.117	83.5964	120.117	83.7283	120.117	83.5939	120.117	83.6898	120.117	83.5974	120.117	83.6592	120.117	83.6056	120.117	83.6358	120.117	83.6183
124.512	84.403	124.512	84.4193	124.512	84.3749	124.512	84.4234	124.512	84.3355	124.512	84.4155	124.512	84.2857	124.512	84.3959	124.512	84.2266	124.512	84.365	124.512	84.1601	124.512	84.324	124.512	84.0885	124.512	84.274	124.512	84.0144	124.512	84.217	124.512	83.9411	124.512	84.1553	124.512	83.8724	124.512	84.0917	124.512	83.8117	124.512	84.0292	124.512	83.7624	124.512	83.9706	124.512	83.7267	124.512	83.918	124.512	83.7055	124.512	83.8726	124.512	83.6978	124.512	83.8346	124.512	83.7015	124.512	83.8029	124.512	83.7136	124.512	83.7759	124.512	83.7312	124.512	83.7522
128.906	84.1782	128.906	84.1796	128.906	84.1687	128.906	84.174	128.906	84.1504	128.906	84.1627	128.906	84.1232	128.906	84.1471	128.906	84.0875	128.906	84.1285	128.906	84.0444	128.906	84.108	128.906	83.9958	128.906	84.0862	128.906	83.9439	128.906	84.0634	128.906	83.8914	128.906	84.0397	128.906	83.8414	128.906	84.0151	128.906	83.7971	128.906	83.9895	128.906	83.7612	128.906	83.9631	128.906	83.736	128.906	83.9361	128.906	83.7227	128.906	83.9087	128.906	83.7214	128.906	83.8811	128.906	83.7306	128.906	83.8533	128.906	83.7482	128.906	83.8254	128.906	83.7714	128.906	83.7977
133.301	84.2101	133.301	84.1985	133.301	84.2121	133.301	84.1785	133.301	84.2041	133.301	84.1519	133.301	84.1865	133.301	84.1215	133.301	84.1604	133.301	84.0903	133.301	84.1274	133.301	84.0614	133.301	84.0899	133.301	84.0375	133.301	84.0502	133.301	84.0206	133.301	84.011	133.301	84.0113	133.301	83.9752	133.301	84.0091	133.301	83.9452	133.301	84.0123	133.301	83.9231	133.301	84.0184	133.301	83.9102	133.301	84.0244	133.301	83.9072	133.301	84.0279	133.301	83.9133	133.301	84.0266	133.301	83.9271	133.301	84.0195	133.301	83.9462	133.301	84.0065	133.301	83.9677	133.301	83.9886
139.16	84.6508	139.16	84.6264	139.16	84.6634	139.16	84.5908	139.16	84.6646	139.16	84.5459	139.16	84.6559	139.16	84.4946	139.16	84.6393	139.16	84.441	139.16	84.6174	139.16	84.3897	139.16	84.5928	139.16	84.3459	139.16	84.5685	139.16	84.314	139.16	84.5468	139.16	84.2976	139.16	84.5299	139.16	84.2984	139.16	84.5192	139.16	84.3156	139.16	84.5154	139.16	84.3468	139.16	84.5181	139.16	84.3873	139.16	84.5263	139.16	84.4317	139.16	84.5378	139.16	84.4747	139.16	84.5498	139.16	84.5116	139.16	84.5589	139.16	84.5392	139.16	84.5619	139.16	84.5559
143.555	84.7684	143.555	84.7539	143.555	84.7693	143.555	84.7264	143.555	84.7573	143.555	84.6876	143.555	84.734	143.555	84.6404	143.555	84.7022	143.555	84.5886	143.555	84.6651	143.555	84.537	143.555	84.6267	143.555	84.4906	143.555	84.5908	143.555	84.4543	143.555	84.5612	143.555	84.4323	143.555	84.5407	143.555	84.4271	143.555	84.5314	143.555	84.4392	143.555	84.5339	143.555	84.4666	143.555	84.5474	143.555	84.5051	143.555	84.5698	143.555	84.5493	143.555	84.5973	143.555	84.5927	143.555	84.6255	143.555	84.6295	143.555	84.6494	143.555	84.6551	143.555	84.6644	143.555	84.6669
147.949	84.9193	147.949	84.9106	147.949	84.9103	147.949	84.8846	147.949	84.8842	147.949	84.8431	147.949	84.8431	147.949	84.789	147.949	84.7905	147.949	84.7261	147.949	84.7309	147.949	84.6591	147.949	84.6699	147.949	84.5936	147.949	84.6134	147.949	84.5352	147.949	84.5668	147.949	84.4895	147.949	84.5347	147.949	84.461	147.949	84.5197	147.949	84.4524	147.949	84.522	147.949	84.4639	147.949	84.5396	147.949	84.4928	147.949	84.5684	147.949	84.5335	147.949	84.6027	147.949	84.5792	147.949	84.636	147.949	84.6219	147.949	84.6621	147.949	84.655	147.949	84.6757	147.949	84.6736
153.809	85.3109	153.809	85.3054	153.809	85.2956	153.809	85.2801	153.809	85.2591	153.809	85.2371	153.809	85.2026	153.809	85.1794	153.809	85.1283	153.809	85.1103	153.809	85.0401	153.809	85.0335	153.809	84.943	153.809	84.9533	153.809	84.8432	153.809	84.8739	153.809	84.7476	153.809	84.7997	153.809	84.6632	153.809	84.7346	153.809	84.5957	153.809	84.682	153.809	84.5491	153.809	84.6439	153.809	84.5245	153.809	84.6204	153.809	84.5199	153.809	84.6096	153.809	84.5308	153.809	84.6077	153.809	84.5507	153.809	84.6096	153.809	84.5732	153.809	84.61	153.809	84.5924	153.809	84.6049
159.668	85.5094	159.668	85.5	159.668	85.499	159.668	85.472	159.668	85.4685	159.668	85.4273	159.668	85.4187	159.668	85.3686	159.668	85.3513	159.668	85.2992	159.668	85.2689	159.668	85.2229	159.668	85.1752	159.668	85.1436	159.668	85.0746	159.668	85.0649	159.668	84.9727	159.668	84.9903	159.668	84.875	159.668	84.9225	159.668	84.7873	159.668	84.8633	159.668	84.7145	159.668	84.8138	159.668	84.6598	159.668	84.7737	159.668	84.6246	159.668	84.7419	159.668	84.6079	159.668	84.716	159.668	84.6066	159.668	84.6938	159.668	84.6164	159.668	84.6731	159.668	84.633	159.668	84.6527
165.527	85.4717	165.527	85.4693	165.527	85.4565	165.527	85.45	165.527	85.4242	165.527	85.4156	165.527	85.3762	165.527	85.369	165.527	85.3149	165.527	85.3137	165.527	85.2436	165.527	85.2539	165.527	85.1664	165.527	85.1937	165.527	85.0878	165.527	85.1371	165.527	85.0125	165.527	85.0871	165.527	84.9451	165.527	85.0457	165.527	84.8896	165.527	85.0137	165.527	84.8491	165.527	84.9906	165.527	84.825	165.527	84.9746	165.527	84.817	165.527	84.9634	165.527	84.8231	165.527	84.954	165.527	84.8397	165.527	84.9432	165.527	84.8625	165.527	84.9289	165.527	84.8872	165.527	84.9101
171.387	85.3593	171.387	85.347	171.387	85.3561	171.387	85.3206	171.387	85.3374	171.387	85.2825	171.387	85.3045	171.387	85.236	171.387	85.2598	171.387	85.1853	171.387	85.2069	171.387	85.1345	171.387	85.1505	171.387	85.0882	171.387	85.0955	171.387	85.0499	171.387	85.047	171.387	85.0228	171.387	85.0095	171.387	85.0086	171.387	84.9864	171.387	85.0074	171.387	84.9792	171.387	85.0182	171.387	84.9874	171.387	85.0384	171.387	85.0084	171.387	85.0641	171.387	85.0377	171.387	85.0906	171.387	85.0697	171.387	85.1131	171.387	85.0988	171.387	85.1271	171.387	85.1199	171.387	85.1298
177.246	85.5945	177.246	85.5774	177.246	85.5908	177.246	85.5411	177.246	85.5661	177.246	85.4887	177.246	85.5219	177.246	85.4247	177.246	85.4613	177.246	85.3549	177.246	85.3886	177.246	85.2854	177.246	85.3096	177.246	85.2226	177.246	85.2305	177.246	85.1716	177.246	85.158	177.246	85.1365	177.246	85.0982	177.246	85.1187	177.246	85.056	177.246	85.1173	177.246	85.034	177.246	85.1293	177.246	85.0323	177.246	85.1501	177.246	85.0486	177.246	85.174	177.246	85.0781	177.246	85.1956	177.246	85.1145	177.246	85.21	177.246	85.1515	177.246	85.2135	177.246	85.1829	177.246	85.2044
183.105	85.5029	183.105	85.4887	183.105	85.4922	183.105	85.4503	183.105	85.4573	183.105	85.3903	183.105	85.4008	183.105	85.3128	183.105	85.3266	183.105	85.2236	183.105	85.2402	183.105	85.1301	183.105	85.148	183.105	85.0402	183.105	85.057	183.105	84.9622	183.105	84.9744	183.105	84.9032	183.105	84.9066	183.105	84.8679	183.105	84.8586	183.105	84.8579	183.105	84.8332	183.105	84.8707	183.105	84.8304	183.105	84.9004	183.105	84.8477	183.105	84.9387	183.105	84.88	183.105	84.9764	183.105	84.9206	183.105	85.0054	183.105	84.9616	183.105	85.0196	183.105	84.9956	183.105	85.0161
188.965	85.5389	188.965	85.5247	188.965	85.5283	188.965	85.4867	188.965	85.4931	188.965	85.4275	188.965	85.4352	188.965	85.3507	188.965	85.3581	188.965	85.2612	188.965	85.2667	188.965	85.1648	188.965	85.1677	188.965	85.0682	188.965	85.0689	188.965	84.9789	188.965	84.9785	188.965	84.9038	188.965	84.9041	188.965	84.8492	188.965	84.8518	188.965	84.819	188.965	84.8248	188.965	84.814	188.965	84.8226	188.965	84.8314	188.965	84.8414	188.965	84.8646	188.965	84.8743	188.965	84.9048	188.965	84.9128	188.965	84.9426	188.965	84.9479	188.965	84.9695	188.965	84.9721	188.965	84.9799
196.289	85.7351	196.289	85.7186	196.289	85.7251	196.289	85.6776	196.289	85.6886	196.289	85.6154	196.289	85.6273	196.289	85.5372	196.289	85.545	196.289	85.4489	196.289	85.447	196.289	85.3573	196.289	85.3402	196.289	85.2694	196.289	85.2326	196.289	85.1916	196.289	85.1324	196.289	85.1286	196.289	85.0474	196.289	85.0835	196.289	84.9836	196.289	85.0568	196.289	84.9443	196.289	85.0467	196.289	84.9299	196.289	85.0492	196.289	84.9373	196.289	85.0595	196.289	84.9608	196.289	85.072	196.289	84.9932	196.289	85.0815	196.289	85.0271	196.289	85.0836	196.289	85.0559	196.289	85.0753
203.613	85.6786	203.613	85.6586	203.613	85.6671	203.613	85.6093	203.613	85.6241	203.613	85.5347	203.613	85.5516	203.613	85.4405	203.613	85.4539	203.613	85.3339	203.613	85.3375	203.613	85.2233	203.613	85.2112	203.613	85.1173	203.613	85.0852	203.613	85.0246	203.613	84.9708	203.613	84.9525	203.613	84.8784	203.613	84.9061	203.613	84.8161	203.613	84.8871	203.613	84.7877	203.613	84.8935	203.613	84.7922	203.613	84.9196	203.613	84.8236	203.613	84.9572	203.613	84.8727	203.613	84.9966	203.613	84.9286	203.613	85.0285	203.613	84.981	203.613	85.0457	203.613	85.0212	203.613	85.0436
210.938	85.6155	210.938	85.5894	210.938	85.6093	210.938	85.5328	210.938	85.5713	210.938	85.4494	210.938	85.5037	210.938	85.3447	210.938	85.4104	210.938	85.2265	210.938	85.2974	210.938	85.1036	210.938	85.1719	210.938	84.9862	210.938	85.0427	210.938	84.884	210.938	84.9195	210.938	84.8055	210.938	84.812	210.938	84.7562	210.938	84.7289	210.938	84.7374	210.938	84.6766	210.938	84.7461	210.938	84.6576	210.938	84.7749	210.938	84.6699	210.938	84.814	210.938	84.7065	210.938	84.8529	210.938	84.7573	210.938	84.8819	210.938	84.8107	210.938	84.8939	210.938	84.856	210.938	84.8852
218.262	85.645	218.262	85.6208	218.262	85.6373	218.262	85.5663	218.262	85.5981	218.262	85.4845	218.262	85.5297	218.262	85.3802	218.262	85.4361	218.262	85.2598	218.262	85.3238	218.262	85.1313	218.262	85.2007	218.262	85.0043	218.262	85.0763	218.262	84.8891	218.262	84.9606	218.262	84.7954	218.262	84.8624	218.262	84.7312	218.262	84.7887	218.262	84.7007	218.262	84.7434	218.262	84.7031	218.262	84.7269	218.262	84.7321	218.262	84.7357	218.262	84.7773	218.262	84.7639	218.262	84.8262	218.262	84.803	218.262	84.8671	218.262	84.8437	218.262	84.8911	218.262	84.8767	218.262	84.8941
225.586	85.5808	225.586	85.563	225.586	85.5654	225.586	85.5134	225.586	85.5172	225.586	85.4358	225.586	85.4389	225.586	85.3354	225.586	85.3355	225.586	85.2198	225.586	85.2141	225.586	85.0977	225.586	85.0842	225.586	84.9788	225.586	84.9566	225.586	84.873	225.586	84.8429	225.586	84.7893	225.586	84.7535	225.586	84.7341	225.586	84.6962	225.586	84.7109	225.586	84.6741	225.586	84.7183	225.586	84.6855	225.586	84.751	225.586	84.7237	225.586	84.7999	225.586	84.7786	225.586	84.8539	225.586	84.8383	225.586	84.9016	225.586	84.8915	225.586	84.9335	225.586	84.9285	225.586	84.9432
232.91	85.5316	232.91	85.5142	232.91	85.5094	232.91	85.4593	232.91	85.4477	232.91	85.3715	232.91	85.3495	232.91	85.2582	232.91	85.2203	232.91	85.1287	232.91	85.0682	232.91	84.9942	232.91	84.9039	232.91	84.8665	232.91	84.7403	232.91	84.757	232.91	84.5914	232.91	84.6752	232.91	84.471	232.91	84.6267	232.91	84.3903	232.91	84.6129	232.91	84.3557	232.91	84.6297	232.91	84.3675	232.91	84.6689	232.91	84.419	232.91	84.7193	232.91	84.4981	232.91	84.768	232.91	84.5896	232.91	84.8031	232.91	84.6782	232.91	84.8148	232.91	84.7506	232.91	84.7976
241.699	85.4339	241.699	85.4056	241.699	85.423	241.699	85.3399	241.699	85.3729	241.699	85.241	241.699	85.2861	241.699	85.1153	241.699	85.1671	241.699	84.9719	241.699	85.0226	241.699	84.8225	241.699	84.8617	241.699	84.6807	241.699	84.6959	241.699	84.5606	241.699	84.5383	241.699	84.4743	241.699	84.403	241.699	84.4295	241.699	84.3034	241.699	84.427	241.699	84.2494	241.699	84.4608	241.699	84.2455	241.699	84.5195	241.699	84.2887	241.699	84.5887	241.699	84.3682	241.699	84.6534	241.699	84.4672	241.699	84.7002	241.699	84.5666	241.699	84.7183	241.699	84.6489	241.699	84.7014
250.488	85.3394	250.488	85.3095	250.488	85.3235	250.488	85.2354	250.488	85.2624	250.488	85.1207	250.488	85.159	250.488	84.9714	250.488	85.0189	250.488	84.7958	250.488	84.85	250.488	84.6062	250.488	84.6633	250.488	84.4181	250.488	84.4724	250.488	84.2502	250.488	84.2924	250.488	84.121	250.488	84.1388	250.488	84.0446	250.488	84.0253	250.488	84.0256	250.488	83.961	250.488	84.0574	250.488	83.9485	250.488	84.1244	250.488	83.9833	250.488	84.2064	250.488	84.0538	250.488	84.2839	250.488	84.1436	250.488	84.3409	250.488	84.2345	250.488	84.3666	250.488	84.3094	250.488	84.3558
259.277	85.4521	259.277	85.4189	259.277	85.4439	259.277	85.3471	259.277	85.3938	259.277	85.2414	259.277	85.3038	259.277	85.1086	259.277	85.1787	259.277	84.9566	259.277	85.0258	259.277	84.7947	259.277	84.8547	259.277	84.6331	259.277	84.6771	259.277	84.4827	259.277	84.5054	259.277	84.3545	259.277	84.3527	259.277	84.2586	259.277	84.2312	259.277	84.2021	259.277	84.1507	259.277	84.1866	259.277	84.1164	259.277	84.2065	259.277	84.1271	259.277	84.2507	259.277	84.1734	259.277	84.3044	259.277	84.2396	259.277	84.3527	259.277	84.3074	259.277	84.3829	259.277	84.3599	259.277	84.3864
268.066	85.1024	268.066	85.0501	268.066	85.1077	268.066	84.9554	268.066	85.0641	268.066	84.8255	268.066	84.9723	268.066	84.6708	268.066	84.8366	268.066	84.5047	268.066	84.6651	268.066	84.3434	268.066	84.4709	268.066	84.2041	268.066	84.2711	268.066	84.1025	268.066	84.0861	268.066	84.049	268.066	83.9355	268.066	84.0462	268.066	83.8349	268.066	84.0881	268.066	83.7918	268.066	84.1617	268.066	83.8052	268.066	84.2497	268.066	83.867	268.066	84.3341	268.066	83.9645	268.066	84.3993	268.066	84.082	268.066	84.4337	268.066	84.2023	268.066	84.4305	268.066	84.3088	268.066	84.3877
276.855	85.2105	276.855	85.1662	276.855	85.2048	276.855	85.069	276.855	85.1537	276.855	84.9187	276.855	85.0622	276.855	84.7197	276.855	84.9353	276.855	84.4827	276.855	84.7783	276.855	84.2258	276.855	84.5977	276.855	83.9748	276.855	84.403	276.855	83.7597	276.855	84.2083	276.855	83.6081	276.855	84.0334	276.855	83.5363	276.855	83.9009	276.855	83.5434	276.855	83.8289	276.855	83.6129	276.855	83.8225	276.855	83.7202	276.855	83.8696	276.855	83.8401	276.855	83.9458	276.855	83.9525	276.855	84.0254	276.855	84.0431	276.855	84.089	276.855	84.1039	276.855	84.126	276.855	84.1316
287.109	85.5348	287.109	85.5388	287.109	85.4699	287.109	85.4803	287.109	85.3497	287.109	85.3616	287.109	85.1832	287.109	85.1889	287.109	84.9825	287.109	84.9725	287.109	84.7612	287.109	84.7276	287.109	84.5326	287.109	84.4747	287.109	84.3085	287.109	84.2398	287.109	84.0982	287.109	84.0511	287.109	83.9099	287.109	83.9325	287.109	83.7542	287.109	83.8951	287.109	83.6457	287.109	83.9312	287.109	83.6001	287.109	84.017	287.109	83.6262	287.109	84.1208	287.109	83.7177	287.109	84.2123	287.109	83.8527	287.109	84.2686	287.109	84.0012	287.109	84.2761	287.109	84.1342	287.109	84.2301
297.363	85.3985	297.363	85.3426	297.363	85.3809	297.363	85.2192	297.363	85.2886	297.363	85.0385	297.363	85.127	297.363	84.8134	297.363	84.9074	297.363	84.5594	297.363	84.6474	297.363	84.2947	297.363	84.3687	297.363	84.0404	297.363	84.0945	297.363	83.8196	297.363	83.8453	297.363	83.6553	297.363	83.6362	297.363	83.5648	297.363	83.4774	297.363	83.5544	297.363	83.378	297.363	83.6156	297.363	83.3474	297.363	83.7269	297.363	83.3914	297.363	83.8588	297.363	83.5035	297.363	83.9811	297.363	83.6611	297.363	84.068	297.363	83.8298	297.363	84.1007	297.363	83.9746	297.363	84.0693
307.617	85.3314	307.617	85.2528	307.617	85.3531	307.617	85.1227	307.617	85.3134	307.617	84.9471	307.617	85.2097	307.617	84.7334	307.617	85.0433	307.617	84.4919	307.617	84.8216	307.617	84.2374	307.617	84.5602	307.617	83.9902	307.617	84.2829	307.617	83.7753	307.617	84.0192	307.617	83.6183	307.617	83.7986	307.617	83.5388	307.617	83.6431	307.617	83.5432	307.617	83.5623	307.617	83.6217	307.617	83.5548	307.617	83.7512	307.617	83.6117	307.617	83.9015	307.617	83.7192	307.617	84.042	307.617	83.857	307.617	84.1473	307.617	83.9991	307.617	84.1991	307.617	84.1174	307.617	84.1885
319.336	85.1356	319.336	85.0772	319.336	85.1302	319.336	84.9571	319.336	85.0613	319.336	84.7799	319.336	84.9312	319.336	84.5535	319.336	84.7446	319.336	84.2897	319.336	84.5106	319.336	84.0047	319.336	84.2443	319.336	83.7199	319.336	83.968	319.336	83.4622	319.336	83.7109	319.336	83.2619	319.336	83.5033	319.336	83.1454	319.336	83.3683	319.336	83.1257	319.336	83.3152	319.336	83.1959	319.336	83.3377	319.336	83.3306	319.336	83.4192	319.336	83.4962	319.336	83.5382	319.336	83.6598	319.336	83.671	319.336	83.7952	319.336	83.7924	319.336	83.8829	319.336	83.8786	319.336	83.9116
329.59	85.3208	329.59	85.2763	329.59	85.2953	329.59	85.1601	329.59	85.2025	329.59	84.9738	329.59	85.0456	329.59	84.7241	329.59	84.8286	329.59	84.425	329.59	84.5573	329.59	84.0984	329.59	84.242	329.59	83.773	329.59	83.9012	329.59	83.4797	329.59	83.5647	329.59	83.2475	329.59	83.2719	329.59	83.0985	329.59	83.0635	329.59	83.0449	329.59	82.9655	329.59	83.0847	329.59	82.977	329.59	83.199	329.59	83.0729	329.59	83.3546	329.59	83.2169	329.59	83.5117	329.59	83.3757	329.59	83.6349	329.59	83.5228	329.59	83.7009	329.59	83.6369	329.59	83.7004
341.309	85.3087	341.309	85.253	341.309	85.2911	341.309	85.1228	341.309	85.2042	341.309	84.9204	341.309	85.0545	341.309	84.6518	341.309	84.8497	341.309	84.3288	341.309	84.5973	341.309	83.9711	341.309	84.3047	341.309	83.6082	341.309	83.9808	341.309	83.278	341.309	83.6413	341.309	83.0193	341.309	83.3141	341.309	82.8608	341.309	83.0405	341.309	82.812	341.309	82.8659	341.309	82.8625	341.309	82.8194	341.309	82.989	341.309	82.896	341.309	83.1605	341.309	83.0579	341.309	83.3417	341.309	83.2525	341.309	83.4967	341.309	83.4318	341.309	83.5951	341.309	83.5608	341.309	83.6181
353.027	85.2178	353.027	85.1575	353.027	85.2042	353.027	85.0291	353.027	85.1135	353.027	84.839	353.027	84.947	353.027	84.5933	353.027	84.712	353.027	84.2991	353.027	84.4231	353.027	83.9664	353.027	84.1011	353.027	83.6126	353.027	83.7695	353.027	83.2655	353.027	83.4508	353.027	82.963	353.027	83.1642	353.027	82.7458	353.027	82.9265	353.027	82.6426	353.027	82.7549	353.027	82.6554	353.027	82.6649	353.027	82.7576	353.027	82.6625	353.027	82.9052	353.027	82.7373	353.027	83.0529	353.027	82.8627	353.027	83.1645	353.027	83.0037	353.027	83.2174	353.027	83.1261	353.027	83.203
366.211	85.4094	366.211	85.3096	366.211	85.4215	366.211	85.1274	366.211	85.3452	366.211	84.8736	366.211	85.1838	366.211	84.5626	366.211	84.9436	366.211	84.2111	366.211	84.6339	366.211	83.836	366.211	84.2676	366.211	83.4551	366.211	83.8636	366.211	83.0891	366.211	83.448	366.211	82.7649	366.211	83.0547	366.211	82.5151	366.211	82.7236	366.211	82.3698	366.211	82.4947	366.211	82.344	366.211	82.3966	366.211	82.4275	366.211	82.4319	366.211	82.5865	366.211	82.5705	366.211	82.7744	366.211	82.7583	366.211	82.9457	366.211	82.9371	366.211	83.0642	366.211	83.0616	366.211	83.106
379.395	85.4513	379.395	85.3862	379.395	85.4448	379.395	85.249	379.395	85.3671	379.395	85.0403	379.395	85.2187	379.395	84.7645	379.395	85.0013	379.395	84.4339	379.395	84.7199	379.395	84.0709	379.395	84.385	379.395	83.7082	379.395	84.0151	379.395	83.383	379.395	83.6393	379.395	83.1283	379.395	83.2958	379.395	82.9649	379.395	83.0251	379.395	82.8989	379.395	82.857	379.395	82.9234	379.395	82.8008	379.395	83.0212	379.395	82.8449	379.395	83.1646	379.395	82.9637	379.395	83.3185	379.395	83.1249	379.395	83.446	379.395	83.2928	379.395	83.5162	379.395	83.4316	379.395	83.5116
392.578	85.2892	392.578	85.2087	392.578	85.296	392.578	85.0555	392.578	85.2285	392.578	84.8327	392.578	85.0866	392.578	84.5471	392.578	84.8714	392.578	84.2113	392.578	84.5877	392.578	83.846	392.578	84.2454	392.578	83.4792	392.578	83.8624	392.578	83.1442	392.578	83.467	392.578	82.8734	392.578	83.0987	392.578	82.6916	392.578	82.8053	392.578	82.6112	392.578	82.6303	392.578	82.6312	392.578	82.5928	392.578	82.7368	392.578	82.6765	392.578	82.8996	392.578	82.8374	392.578	83.0802	392.578	83.0243	392.578	83.2375	392.578	83.1935	392.578	83.3386	392.578	83.3138	392.578	83.3652
405.762	85.2533	405.762	85.1761	405.762	85.2343	405.762	85.0047	405.762	85.1211	405.762	84.7445	405.762	84.9202	405.762	84.4035	405.762	84.6426	405.762	83.9942	405.762	84.3029	405.762	83.5381	405.762	83.9178	405.762	83.0723	405.762	83.5066	405.762	82.6518	405.762	83.0925	405.762	82.341	405.762	82.706	405.762	82.1868	405.762	82.3885	405.762	82.1926	405.762	82.1862	405.762	82.3163	405.762	82.1312	405.762	82.4984	405.762	82.2191	405.762	82.689	405.762	82.4049	405.762	82.857	405.762	82.6261	405.762	82.983	405.762	82.8279	405.762	83.0518	405.762	82.9753	405.762	83.0512
420.41	85.4255	420.41	85.3121	420.41	85.4332	420.41	85.1005	420.41	85.3342	420.41	84.8052	420.41	85.1337	420.41	84.4465	420.41	84.8426	420.41	84.0453	420.41	84.4771	420.41	83.6192	420.41	84.0597	420.41	83.1806	420.41	83.6175	420.41	82.7447	420.41	83.1789	420.41	82.3431	420.41	82.769	420.41	82.0319	420.41	82.4091	420.41	81.8758	420.41	82.1236	420.41	81.9068	420.41	81.9447	420.41	82.0923	420.41	81.902	420.41	82.3493	420.41	81.9969	420.41	82.5897	420.41	82.1902	420.41	82.7525	420.41	82.4189	420.41	82.8107	420.41	82.6238	420.41	82.7631
435.059	85.2217	435.059	85.113	435.059	85.2358	435.059	84.9112	435.059	85.1562	435.059	84.6202	435.059	84.9869	435.059	84.249	435.059	84.7349	435.059	83.8167	435.059	84.4093	435.059	83.3587	435.059	84.0216	435.059	82.9262	435.059	83.589	435.059	82.575	435.059	83.1409	435.059	82.3423	435.059	82.7236	435.059	82.2322	435.059	82.3937	435.059	82.2218	435.059	82.1955	435.059	82.2818	435.059	82.1395	435.059	82.3907	435.059	82.2022	435.059	82.5325	435.059	82.3443	435.059	82.6872	435.059	82.5253	435.059	82.8251	435.059	82.706	435.059	82.912	435.059	82.8487	435.059	82.9223
451.172	86.1678	451.172	86.0585	451.172	86.1326	451.172	85.8036	451.172	85.957	451.172	85.4055	451.172	85.6489	451.172	84.8711	451.172	85.2216	451.172	84.215	451.172	84.6973	451.172	83.466	451.172	84.1116	451.172	82.6812	451.172	83.5154	451.172	81.9648	451.172	82.9723	451.172	81.467	451.172	82.5472	451.172	81.3225	451.172	82.2902	451.172	81.545	451.172	82.2215	451.172	82.006	451.172	82.3256	451.172	82.533	451.172	82.5563	451.172	83.0014	451.172	82.8509	451.172	83.3531	451.172	83.1479	451.172	83.5761	451.172	83.4011	451.172	83.6799	451.172	83.5826	451.172	83.6785
465.82	86.8012	465.82	86.7107	465.82	86.7492	465.82	86.4743	465.82	86.5599	465.82	86.093	465.82	86.2385	465.82	85.5749	465.82	85.7909	465.82	84.9365	465.82	85.2271	465.82	84.2053	465.82	84.5666	465.82	83.4241	465.82	83.8456	465.82	82.6582	465.82	83.1249	465.82	81.9992	465.82	82.4909	465.82	81.551	465.82	82.041	465.82	81.3936	465.82	81.8471	465.82	81.5402	465.82	81.9179	465.82	81.9263	465.82	82.1952	465.82	82.4374	465.82	82.5863	465.82	82.9517	465.82	83.0002	465.82	83.3711	465.82	83.3622	465.82	83.6339	465.82	83.6144	465.82	83.7137
483.398	86.5874	483.398	86.4679	483.398	86.6065	483.398	86.254	483.398	86.5134	483.398	85.9437	483.398	86.2949	483.398	85.5266	483.398	85.9388	483.398	84.9874	483.398	85.4381	483.398	84.3139	483.398	84.7959	483.398	83.511	483.398	84.0343	483.398	82.6263	483.398	83.2081	483.398	81.7862	483.398	82.4172	483.398	81.2093	483.398	81.7989	483.398	81.0972	483.398	81.476	483.398	81.4382	483.398	81.4828	483.398	82.0076	483.398	81.7496	483.398	82.5752	483.398	82.1597	483.398	83.0199	483.398	82.604	483.398	83.3092	483.398	82.9986	483.398	83.447	483.398	83.2869	483.398	83.4391
499.512	86.4183	499.512	86.3262	499.512	86.4076	499.512	86.1364	499.512	86.2895	499.512	85.8515	499.512	86.0603	499.512	85.4689	499.512	85.7169	499.512	84.9811	499.512	85.255	499.512	84.3801	499.512	84.6707	499.512	83.6683	499.512	83.9667	499.512	82.8757	499.512	83.1655	499.512	82.0822	499.512	82.3293	499.512	81.4265	499.512	81.584	499.512	81.0705	499.512	81.1117	499.512	81.1047	499.512	81.0528	499.512	81.4791	499.512	81.3766	499.512	82.0391	499.512	81.9025	499.512	82.612	499.512	82.4468	499.512	83.065	499.512	82.9018	499.512	83.3238	499.512	83.2192	499.512	83.3695
517.09	86.6441	517.09	86.5468	517.09	86.612	517.09	86.3079	517.09	86.4635	517.09	85.921	517.09	86.2101	517.09	85.3895	517.09	85.8602	517.09	84.7295	517.09	85.4182	517.09	83.9722	517.09	84.8833	517.09	83.1645	517.09	84.251	517.09	82.3717	517.09	83.5239	517.09	81.6797	517.09	82.7306	517.09	81.1885	517.09	81.9515	517.09	80.9843	517.09	81.3313	517.09	81.0919	517.09	81.0395	517.09	81.4475	517.09	81.1606	517.09	81.9302	517.09	81.6087	517.09	82.4184	517.09	82.1845	517.09	82.8229	517.09	82.6997	517.09	83.086	517.09	83.0411	517.09	83.1681
536.133	86.0521	536.133	85.9717	536.133	86.0092	536.133	85.7719	536.133	85.8411	536.133	85.456	536.133	85.5477	536.133	85.0228	536.133	85.1318	536.133	84.4631	536.133	84.6016	536.133	83.7619	536.133	83.9723	536.133	82.9107	536.133	83.2629	536.133	81.9338	536.133	82.494	536.133	80.93	536.133	81.6978	536.133	80.1077	536.133	80.9527	536.133	79.728	536.133	80.4119	536.133	79.8999	536.133	80.2483	536.133	80.4716	536.133	80.5052	536.133	81.1941	536.133	81.045	536.133	81.8809	536.133	81.6722	536.133	82.4214	536.133	82.2373	536.133	82.748	536.133	82.6422	536.133	82.823
555.176	86.2811	555.176	86.1352	555.176	86.3146	555.176	85.888	555.176	86.224	555.176	85.5459	555.176	85.9994	555.176	85.1085	555.176	85.6318	555.176	84.567	555.176	85.1107	555.176	83.9039	555.176	84.4255	555.176	83.0967	555.176	83.5769	555.176	82.1336	555.176	82.5931	555.176	81.0526	555.176	81.5455	555.176	80.0034	555.176	80.5477	555.176	79.2776	555.176	79.7351	555.176	79.1513	555.176	79.2446	555.176	79.5917	555.176	79.1887	555.176	80.2897	555.176	79.5708	555.176	80.9556	555.176	80.2198	555.176	81.4374	555.176	80.889	555.176	81.6799	555.176	81.3982	555.176	81.6679
574.219	85.9835	574.219	85.8896	574.219	85.9741	574.219	85.6871	574.219	85.8628	574.219	85.3685	574.219	85.6469	574.219	84.9268	574.219	85.3216	574.219	84.3545	574.219	84.8813	574.219	83.6436	574.219	84.3157	574.219	82.7899	574.219	83.6053	574.219	81.8046	574.219	82.7282	574.219	80.7351	574.219	81.6905	574.219	79.6978	574.219	80.5853	574.219	78.9078	574.219	79.6563	574.219	78.6239	574.219	79.2275	574.219	78.932	574.219	79.3959	574.219	79.615	574.219	79.9064	574.219	80.3467	574.219	80.4509	574.219	80.9064	574.219	80.8782	574.219	81.2132	574.219	81.1571	574.219	81.2804
594.727	85.9103	594.727	85.8248	594.727	85.8641	594.727	85.5924	594.727	85.7056	594.727	85.21	594.727	85.4474	594.727	84.6863	594.727	85.0888	594.727	84.0346	594.727	84.6172	594.727	83.2632	594.727	84.016	594.727	82.3737	594.727	83.2732	594.727	81.3746	594.727	82.3873	594.727	80.3163	594.727	81.3764	594.727	79.3353	594.727	80.2985	594.727	78.6596	594.727	79.2888	594.727	78.495	594.727	78.5838	594.727	78.8589	594.727	78.4369	594.727	79.5717	594.727	78.8999	594.727	80.388	594.727	79.7363	594.727	81.0919	594.727	80.6126	594.727	81.5265	594.727	81.2784	594.727	81.598
615.234	86.3543	615.234	86.1988	615.234	86.3977	615.234	85.9434	615.234	86.3121	615.234	85.5914	615.234	86.0817	615.234	85.1381	615.234	85.6966	615.234	84.5713	615.234	85.1533	615.234	83.8705	615.234	84.4534	615.234	83.0048	615.234	83.6018	615.234	81.9391	615.234	82.608	615.234	80.666	615.234	81.4929	615.234	79.284	615.234	80.3096	615.234	78.103	615.234	79.1983	615.234	77.5785	615.234	78.4405	615.234	77.8615	615.234	78.3241	615.234	78.6171	615.234	78.8052	615.234	79.4546	615.234	79.529	615.234	80.1527	615.234	80.1818	615.234	80.6039	615.234	80.6115	615.234	80.7594
637.207	86.5348	637.207	86.4027	637.207	86.5652	637.207	86.1799	637.207	86.4831	637.207	85.8669	637.207	86.2868	637.207	85.4515	637.207	85.9812	637.207	84.916	637.207	85.5654	637.207	84.245	637.207	85.0222	637.207	83.4279	637.207	84.3211	637.207	82.4542	637.207	83.4391	637.207	81.3116	637.207	82.3886	637.207	80.0143	637.207	81.2365	637.207	78.7025	637.207	80.1096	637.207	77.7773	637.207	79.1945	637.207	77.6896	637.207	78.7181	637.207	78.3251	637.207	78.8102	637.207	79.1618	637.207	79.3193	637.207	79.8578	637.207	79.9133	637.207	80.3024	637.207	80.3321	637.207	80.4662
659.18	86.5614	659.18	86.4998	659.18	86.5136	659.18	86.3069	659.18	86.38	659.18	85.974	659.18	86.1705	659.18	85.5068	659.18	85.8756	659.18	84.9161	659.18	85.4752	659.18	84.202	659.18	84.9519	659.18	83.345	659.18	84.2904	659.18	82.3141	659.18	83.4621	659.18	81.107	659.18	82.424	659.18	79.8205	659.18	81.1665	659.18	78.713	659.18	79.8205	659.18	78.1283	659.18	78.7495	659.18	78.2222	659.18	78.3649	659.18	78.8346	659.18	78.6833	659.18	79.6607	659.18	79.3689	659.18	80.4125	659.18	80.1079	659.18	80.8847	659.18	80.692	659.18	80.9779
682.617	86.7361	682.617	86.6176	682.617	86.7456	682.617	86.4114	682.617	86.637	682.617	86.1388	682.617	86.4133	682.617	85.8016	682.617	86.0834	682.617	85.3739	682.617	85.6531	682.617	84.8172	682.617	85.1129	682.617	84.1012	682.617	84.4358	682.617	83.2067	682.617	83.5942	682.617	82.1177	682.617	82.5841	682.617	80.8468	682.617	81.441	682.617	79.5333	682.617	80.2525	682.617	78.5652	682.617	79.1989	682.617	78.3899	682.617	78.5877	682.617	78.9373	682.617	78.6562	682.617	79.7038	682.617	79.2337	682.617	80.3167	682.617	79.9115	682.617	80.6438	682.617	80.421	682.617	80.6729
707.52	86.6761	707.52	86.6176	707.52	86.6833	707.52	86.4885	707.52	86.6303	707.52	86.2566	707.52	86.4915	707.52	85.9035	707.52	86.2441	707.52	85.4356	707.52	85.8797	707.52	84.8663	707.52	85.4011	707.52	84.193	707.52	84.809	707.52	83.3918	707.52	84.0881	707.52	82.4317	707.52	83.2069	707.52	81.3023	707.52	82.1459	707.52	80.0889	707.52	80.964	707.52	79.1025	707.52	79.8821	707.52	78.8193	707.52	79.2663	707.52	79.335	707.52	79.3424	707.52	80.2064	707.52	79.9429	707.52	80.9976	707.52	80.702	707.52	81.4926	707.52	81.3159	707.52	81.6033
732.422	86.6454	732.422	86.5321	732.422	86.6228	732.422	86.2986	732.422	86.4801	732.422	85.9786	732.422	86.2512	732.422	85.5962	732.422	85.9574	732.422	85.1463	732.422	85.5876	732.422	84.5969	732.422	85.1095	732.422	83.9035	732.422	84.4958	732.422	83.0212	732.422	83.7391	732.422	81.9145	732.422	82.8375	732.422	80.5883	732.422	81.7774	732.422	79.1922	732.422	80.5693	732.422	78.2085	732.422	79.3936	732.422	78.2655	732.422	78.7493	732.422	79.233	732.422	79.0417	732.422	80.3782	732.422	79.921	732.422	81.2399	732.422	80.8061	732.422	81.6905	732.422	81.434	732.422	81.7406
757.324	86.7642	757.324	86.6276	757.324	86.7618	757.324	86.3845	757.324	86.6119	757.324	86.0713	757.324	86.329	757.324	85.6995	757.324	85.9421	757.324	85.244	757.324	85.4848	757.324	84.6643	757.324	84.9692	757.324	83.9296	757.324	84.3598	757.324	83.0201	757.324	83.5875	757.324	81.9128	757.324	82.6037	757.324	80.5945	757.324	81.4193	757.324	79.1599	757.324	80.1101	757.324	78.0166	757.324	78.852	757.324	77.8347	757.324	78.0701	757.324	78.6896	757.324	78.2962	757.324	79.8909	757.324	79.3498	757.324	80.8878	757.324	80.4977	757.324	81.4797	757.324	81.2931	757.324	81.6202
785.156	86.6997	785.156	86.6335	785.156	86.6767	785.156	86.4529	785.156	86.5749	785.156	86.1412	785.156	86.3834	785.156	85.7138	785.156	86.0813	785.156	85.2175	785.156	85.6562	785.156	84.6958	785.156	85.1176	785.156	84.1324	785.156	84.4843	785.156	83.4258	785.156	83.7469	785.156	82.4335	785.156	82.8406	785.156	81.078	785.156	81.6847	785.156	79.4758	785.156	80.3007	785.156	78.05	785.156	78.9498	785.156	77.4231	785.156	78.1001	785.156	77.8336	785.156	78.0343	785.156	78.8354	785.156	78.6086	785.156	79.8477	785.156	79.4829	785.156	80.5128	785.156	80.2725	785.156	80.6629
811.523	86.496	811.523	86.3325	811.523	86.5219	811.523	86.0779	811.523	86.384	811.523	85.7574	811.523	86.1039	811.523	85.3631	811.523	85.7284	811.523	84.8722	811.523	85.2812	811.523	84.2623	811.523	84.7449	811.523	83.5106	811.523	84.0868	811.523	82.5913	811.523	83.286	811.523	81.4716	811.523	82.3268	811.523	80.1166	811.523	81.1743	811.523	78.5674	811.523	79.7945	811.523	77.2142	811.523	78.3115	811.523	76.9578	811.523	77.3028	811.523	78.0025	811.523	77.4869	811.523	79.37	811.523	78.5449	811.523	80.3745	811.523	79.6563	811.523	80.8594	811.523	80.4524	811.523	80.864
840.82	86.8776	840.82	86.7837	840.82	86.7893	840.82	86.4893	840.82	86.5701	840.82	86.0325	840.82	86.2622	840.82	85.4884	840.82	85.8766	840.82	84.9173	840.82	85.4082	840.82	84.3302	840.82	84.861	840.82	83.6962	840.82	84.2371	840.82	82.9625	840.82	83.4967	840.82	82.0554	840.82	82.5542	840.82	80.8784	840.82	81.3372	840.82	79.3762	840.82	79.8696	840.82	77.7434	840.82	78.3354	840.82	76.7257	840.82	77.1654	840.82	77.0796	840.82	77.0345	840.82	78.3088	840.82	78.0453	840.82	79.5187	840.82	79.3448	840.82	80.3091	840.82	80.2497	840.82	80.5683
870.117	86.4719	870.117	86.2583	870.117	86.5659	870.117	85.971	870.117	86.4816	870.117	85.627	870.117	86.1882	870.117	85.2216	870.117	85.7194	870.117	84.7394	870.117	85.1616	870.117	84.1578	870.117	84.5874	870.117	83.4494	870.117	83.995	870.117	82.589	870.117	83.3112	870.117	81.5548	870.117	82.4454	870.117	80.3156	870.117	81.3268	870.117	78.8309	870.117	79.9177	870.117	77.2205	870.117	78.3117	870.117	76.2553	870.117	77.0315	870.117	76.9027	870.117	76.9188	870.117	78.4359	870.117	77.8592	870.117	79.7234	870.117	79.0168	870.117	80.3954	870.117	79.9357	870.117	80.4371
900.879	87.0133	900.879	86.8628	900.879	86.9807	900.879	86.5381	900.879	86.794	900.879	86.0791	900.879	86.4965	900.879	85.5331	900.879	86.1129	900.879	84.9351	900.879	85.6419	900.879	84.3014	900.879	85.0728	900.879	83.6227	900.879	84.3996	900.879	82.8431	900.879	83.6075	900.879	81.8357	900.879	82.6407	900.879	80.4288	900.879	81.4023	900.879	78.5351	900.879	79.8216	900.879	76.4714	900.879	77.9955	900.879	75.4129	900.879	76.441	900.879	76.2225	900.879	76.1627	900.879	77.8691	900.879	77.3762	900.879	79.3456	900.879	78.9821	900.879	80.2921	900.879	80.1366	900.879	80.5778
933.105	86.9684	933.105	86.7661	933.105	87.0004	933.105	86.4405	933.105	86.8398	933.105	86.0456	933.105	86.5018	933.105	85.613	933.105	86.0421	933.105	85.1267	933.105	85.5306	933.105	84.5432	933.105	85.0051	933.105	83.8469	933.105	84.4479	933.105	83.0614	933.105	83.7982	933.105	82.1662	933.105	82.9713	933.105	81	933.105	81.864	933.105	79.2779	933.105	80.3458	933.105	76.8047	933.105	78.3137	933.105	74.3549	933.105	76.1258	933.105	74.5267	933.105	75.4349	933.105	76.6559	933.105	76.839	933.105	78.4875	933.105	78.5053	933.105	79.5683	933.105	79.5661	933.105	79.9194
965.332	87.0696	965.332	86.9098	965.332	87.038	965.332	86.5688	965.332	86.8362	965.332	86.0825	965.332	86.4898	965.332	85.491	965.332	86.0182	965.332	84.8606	965.332	85.4523	965.332	84.2904	965.332	84.8399	965.332	83.8054	965.332	84.2207	965.332	83.254	965.332	83.5909	965.332	82.4036	965.332	82.87	965.332	81.1085	965.332	81.8977	965.332	79.3453	965.332	80.4948	965.332	77.2021	965.332	78.5588	965.332	75.2249	965.332	76.2842	965.332	74.9409	965.332	74.9251	965.332	76.4794	965.332	75.9425	965.332	78.1115	965.332	77.7741	965.332	79.108	965.332	78.9925	965.332	79.4088
1,000.49	86.4731	1,000.49	86.3068	1,000.49	86.4265	1,000.49	85.9583	1,000.49	86.1566	1,000.49	85.4602	1,000.49	85.704	1,000.49	84.8602	1,000.49	85.1494	1,000.49	84.2302	1,000.49	84.5564	1,000.49	83.6282	1,000.49	83.9448	1,000.49	83.058	1,000.49	83.3361	1,000.49	82.4833	1,000.49	82.7584	1,000.49	81.8276	1,000.49	82.1437	1,000.49	80.9377	1,000.49	81.2742	1,000.49	79.6139	1,000.49	79.8742	1,000.49	77.762	1,000.49	77.7733	1,000.49	75.7622	1,000.49	75.4026	1,000.49	74.9388	1,000.49	74.5875	1,000.49	75.9636	1,000.49	75.8001	1,000.49	77.514	1,000.49	77.2744	1,000.49	78.5659	1,000.49	78.3342	1,000.49	78.8225
1,035.64	86.241	1,035.64	86.0493	1,035.64	86.1975	1,035.64	85.6328	1,035.64	85.9159	1,035.64	85.0278	1,035.64	85.4097	1,035.64	84.3079	1,035.64	84.7309	1,035.64	83.5606	1,035.64	83.9627	1,035.64	82.8643	1,035.64	83.1873	1,035.64	82.2701	1,035.64	82.4663	1,035.64	81.7573	1,035.64	81.8213	1,035.64	81.1943	1,035.64	81.1897	1,035.64	80.3704	1,035.64	80.401	1,035.64	79.0744	1,035.64	79.2173	1,035.64	77.2192	1,035.64	77.4018	1,035.64	75.2249	1,035.64	74.9048	1,035.64	74.6306	1,035.64	73.0166	1,035.64	76.0725	1,035.64	74.4053	1,035.64	77.8548	1,035.64	76.9746	1,035.64	78.9926	1,035.64	78.6637	1,035.64	79.2919
1,072.27	85.3727	1,072.27	85.1873	1,072.27	85.2918	1,072.27	84.7866	1,072.27	84.9537	1,072.27	84.2128	1,072.27	84.4255	1,072.27	83.4706	1,072.27	83.7677	1,072.27	82.606	1,072.27	83.0054	1,072.27	81.7649	1,072.27	82.1953	1,072.27	81.0933	1,072.27	81.4889	1,072.27	80.5744	1,072.27	80.9869	1,072.27	80.0493	1,072.27	80.4964	1,072.27	79.3471	1,072.27	79.6499	1,072.27	78.2882	1,072.27	78.2087	1,072.27	76.6628	1,072.27	76.1598	1,072.27	74.6749	1,072.27	73.7299	1,072.27	74.1093	1,072.27	72.0207	1,072.27	75.7399	1,072.27	73.2015	1,072.27	77.3981	1,072.27	75.7316	1,072.27	78.2405	1,072.27	77.5089	1,072.27	78.2885
1,108.89	85.1145	1,108.89	84.9323	1,108.89	85.0933	1,108.89	84.5383	1,108.89	84.8284	1,108.89	83.9135	1,108.89	84.3007	1,108.89	83.1202	1,108.89	83.562	1,108.89	82.3027	1,108.89	82.6955	1,108.89	81.5688	1,108.89	81.7893	1,108.89	80.8962	1,108.89	80.9481	1,108.89	80.2066	1,108.89	80.2355	1,108.89	79.4574	1,108.89	79.6071	1,108.89	78.5676	1,108.89	78.9303	1,108.89	77.2935	1,108.89	77.9973	1,108.89	75.2995	1,108.89	76.5048	1,108.89	72.819	1,108.89	74.0726	1,108.89	72.2021	1,108.89	70.805	1,108.89	74.1019	1,108.89	70.7174	1,108.89	76.0088	1,108.89	74.2623	1,108.89	77.2119	1,108.89	76.6929	1,108.89	77.5508
1,148.44	85.5443	1,148.44	85.3252	1,148.44	85.5177	1,148.44	84.887	1,148.44	85.2429	1,148.44	84.2493	1,148.44	84.7048	1,148.44	83.3913	1,148.44	83.9016	1,148.44	82.3736	1,148.44	82.9312	1,148.44	81.4408	1,148.44	81.9762	1,148.44	80.7744	1,148.44	81.1633	1,148.44	80.1938	1,148.44	80.4917	1,148.44	79.4236	1,148.44	79.8832	1,148.44	78.3623	1,148.44	79.2057	1,148.44	76.8496	1,148.44	78.2304	1,148.44	74.4993	1,148.44	76.5452	1,148.44	71.3771	1,148.44	73.5847	1,148.44	70.5543	1,148.44	69.7219	1,148.44	73.1882	1,148.44	70.5339	1,148.44	75.5155	1,148.44	73.9381	1,148.44	76.6838	1,148.44	75.9605	1,148.44	76.799
1,189.45	86.0228	1,189.45	85.7864	1,189.45	85.9956	1,189.45	85.257	1,189.45	85.7072	1,189.45	84.4516	1,189.45	85.1044	1,189.45	83.4671	1,189.45	84.1818	1,189.45	82.4623	1,189.45	83.0777	1,189.45	81.5449	1,189.45	82.0091	1,189.45	80.7246	1,189.45	81.1442	1,189.45	80.0742	1,189.45	80.5265	1,189.45	79.6507	1,189.45	80.012	1,189.45	79.1479	1,189.45	79.3537	1,189.45	78.0468	1,189.45	78.4385	1,189.45	75.9879	1,189.45	77.2428	1,189.45	72.8677	1,189.45	75.4366	1,189.45	70.2752	1,189.45	72.4706	1,189.45	72.4534	1,189.45	70.4781	1,189.45	75.3792	1,189.45	73.2841	1,189.45	76.7383	1,189.45	75.7731	1,189.45	76.8081
1,230.47	86.8708	1,230.47	86.5952	1,230.47	86.7863	1,230.47	86.0053	1,230.47	86.4205	1,230.47	85.2091	1,230.47	85.8437	1,230.47	84.2264	1,230.47	85.0123	1,230.47	83.0388	1,230.47	83.9027	1,230.47	81.8246	1,230.47	82.6787	1,230.47	80.9411	1,230.47	81.5882	1,230.47	80.5125	1,230.47	80.7613	1,230.47	80.2627	1,230.47	80.2395	1,230.47	79.7476	1,230.47	79.952	1,230.47	78.6251	1,230.47	79.5352	1,230.47	76.7598	1,230.47	78.3956	1,230.47	73.9695	1,230.47	75.9699	1,230.47	70.5828	1,230.47	72.1883	1,230.47	71.1801	1,230.47	70.5057	1,230.47	74.2452	1,230.47	73.0516	1,230.47	75.8858	1,230.47	75.1652	1,230.47	76.1092
1,274.41	87.2452	1,274.41	87.0257	1,274.41	87.2215	1,274.41	86.5226	1,274.41	86.9277	1,274.41	85.7267	1,274.41	86.287	1,274.41	84.6711	1,274.41	85.3359	1,274.41	83.4144	1,274.41	84.2144	1,274.41	82.1295	1,274.41	82.9878	1,274.41	81.1205	1,274.41	81.7533	1,274.41	80.4635	1,274.41	80.8074	1,274.41	79.8633	1,274.41	80.1857	1,274.41	79.2079	1,274.41	79.5184	1,274.41	78.5058	1,274.41	78.6789	1,274.41	77.2289	1,274.41	77.6808	1,274.41	74.7116	1,274.41	76.0647	1,274.41	71.7657	1,274.41	73.2585	1,274.41	71.9132	1,274.41	70.8653	1,274.41	74.2377	1,274.41	72.8499	1,274.41	76.0533	1,274.41	75.4368	1,274.41	76.5334
1,319.82	87.0596	1,319.82	86.7926	1,319.82	86.9898	1,319.82	86.2083	1,319.82	86.6426	1,319.82	85.4048	1,319.82	86.0556	1,319.82	84.4365	1,319.82	85.1802	1,319.82	83.2657	1,319.82	83.9668	1,319.82	81.8794	1,319.82	82.514	1,319.82	80.41	1,319.82	81.1081	1,319.82	79.2488	1,319.82	80.0368	1,319.82	78.7791	1,319.82	79.4066	1,319.82	78.6597	1,319.82	79.0464	1,319.82	78.1278	1,319.82	78.5744	1,319.82	76.6218	1,319.82	77.5913	1,319.82	73.971	1,319.82	75.6781	1,319.82	71.7461	1,319.82	72.6282	1,319.82	73.2397	1,319.82	70.6784	1,319.82	75.6198	1,319.82	73.2043	1,319.82	76.7863	1,319.82	75.7348	1,319.82	76.818
1,366.7	86.9107	1,366.7	86.6483	1,366.7	86.865	1,366.7	86.1211	1,366.7	86.5218	1,366.7	85.359	1,366.7	85.8523	1,366.7	84.3165	1,366.7	84.8916	1,366.7	83.124	1,366.7	83.7543	1,366.7	81.9191	1,366.7	82.4198	1,366.7	80.5089	1,366.7	80.9142	1,366.7	79.1508	1,366.7	79.677	1,366.7	78.5984	1,366.7	78.981	1,366.7	78.3938	1,366.7	78.4996	1,366.7	77.6897	1,366.7	77.9138	1,366.7	76.1294	1,366.7	76.7968	1,366.7	73.0719	1,366.7	74.5491	1,366.7	69.5185	1,366.7	70.8578	1,366.7	71.9735	1,366.7	68.5076	1,366.7	75.1281	1,366.7	71.9578	1,366.7	76.4588	1,366.7	74.8923	1,366.7	76.2937
1,413.57	86.7606	1,413.57	86.5622	1,413.57	86.6682	1,413.57	85.965	1,413.57	86.3608	1,413.57	85.0696	1,413.57	85.7577	1,413.57	84.0488	1,413.57	84.8787	1,413.57	82.8732	1,413.57	83.8554	1,413.57	81.4479	1,413.57	82.698	1,413.57	80.0411	1,413.57	81.3335	1,413.57	79.1017	1,413.57	79.9225	1,413.57	78.6256	1,413.57	79.0083	1,413.57	78.1472	1,413.57	78.5867	1,413.57	77.1668	1,413.57	77.8406	1,413.57	75.3496	1,413.57	76.4476	1,413.57	71.8858	1,413.57	74.4072	1,413.57	66.1684	1,413.57	70.3696	1,413.57	70.1033	1,413.57	63.19	1,413.57	74.2383	1,413.57	69.2831	1,413.57	75.9146	1,413.57	73.704	1,413.57	75.7588
1,463.38	86.5092	1,463.38	86.2006	1,463.38	86.4527	1,463.38	85.5079	1,463.38	86.1227	1,463.38	84.5238	1,463.38	85.5492	1,463.38	83.3928	1,463.38	84.6295	1,463.38	82.0644	1,463.38	83.4014	1,463.38	80.3975	1,463.38	82.0729	1,463.38	78.7377	1,463.38	80.6295	1,463.38	77.8165	1,463.38	79.0673	1,463.38	77.5179	1,463.38	78.1114	1,463.38	77.0546	1,463.38	77.9612	1,463.38	76.2267	1,463.38	77.5051	1,463.38	74.8815	1,463.38	76.3334	1,463.38	72.1722	1,463.38	74.9093	1,463.38	66.5192	1,463.38	72.7167	1,463.38	67.123	1,463.38	68.4296	1,463.38	72.2143	1,463.38	69.5131	1,463.38	74.2254	1,463.38	73.4883	1,463.38	74.6532
1,516.11	86.7775	1,516.11	86.3576	1,516.11	86.7323	1,516.11	85.6546	1,516.11	86.2817	1,516.11	84.6989	1,516.11	85.5985	1,516.11	83.375	1,516.11	84.7064	1,516.11	81.8662	1,516.11	83.59	1,516.11	80.4462	1,516.11	82.2362	1,516.11	79.0515	1,516.11	80.5995	1,516.11	77.5375	1,516.11	78.8611	1,516.11	76.2491	1,516.11	77.6706	1,516.11	75.8097	1,516.11	77.303	1,516.11	75.764	1,516.11	77.0821	1,516.11	75.0724	1,516.11	76.6644	1,516.11	73.05	1,516.11	75.6497	1,516.11	68.5253	1,516.11	72.9774	1,516.11	65.9265	1,516.11	68.5195	1,516.11	71.4875	1,516.11	69.1284	1,516.11	74.4918	1,516.11	73.5846	1,516.11	75.3232
1,568.85	86.8285	1,568.85	86.4691	1,568.85	86.8218	1,568.85	85.8883	1,568.85	86.3323	1,568.85	85.0719	1,568.85	85.5404	1,568.85	84.0424	1,568.85	84.5611	1,568.85	82.7028	1,568.85	83.2747	1,568.85	81.0271	1,568.85	81.6256	1,568.85	79.4557	1,568.85	79.8057	1,568.85	78.1178	1,568.85	78.2362	1,568.85	76.7265	1,568.85	77.3002	1,568.85	76.3743	1,568.85	77.0199	1,568.85	77.184	1,568.85	77.2223	1,568.85	76.8836	1,568.85	77.3342	1,568.85	74.1856	1,568.85	76.0672	1,568.85	68.627	1,568.85	72.3965	1,568.85	61.4354	1,568.85	64.9656	1,568.85	69.3272	1,568.85	66.5529	1,568.85	73.075	1,568.85	72.0044	1,568.85	73.6779
1,624.51	86.5274	1,624.51	86.3512	1,624.51	86.4316	1,624.51	85.7822	1,624.51	86.0328	1,624.51	84.9416	1,624.51	85.2586	1,624.51	83.9877	1,624.51	84.1458	1,624.51	82.6545	1,624.51	82.7725	1,624.51	80.9663	1,624.51	81.0948	1,624.51	79.3185	1,624.51	79.1308	1,624.51	77.7015	1,624.51	77.2077	1,624.51	75.8593	1,624.51	75.7435	1,624.51	75.1105	1,624.51	75.1288	1,624.51	76.3939	1,624.51	75.31	1,624.51	76.7702	1,624.51	75.8612	1,624.51	74.9893	1,624.51	75.4662	1,624.51	70.5759	1,624.51	72.4624	1,624.51	65.4951	1,624.51	64.9448	1,624.51	69.8412	1,624.51	64.1206	1,624.51	72.1433	1,624.51	69.5039	1,624.51	71.9444
1,681.64	85.8775	1,681.64	85.8186	1,681.64	85.6835	1,681.64	85.2309	1,681.64	85.3063	1,681.64	84.1695	1,681.64	84.612	1,681.64	82.8892	1,681.64	83.6318	1,681.64	81.4839	1,681.64	82.4245	1,681.64	79.8924	1,681.64	80.8429	1,681.64	77.9522	1,681.64	78.7526	1,681.64	75.7542	1,681.64	76.9093	1,681.64	73.9289	1,681.64	75.5282	1,681.64	73.4458	1,681.64	73.7985	1,681.64	74.443	1,681.64	73.7177	1,681.64	75.2753	1,681.64	74.7577	1,681.64	74.2687	1,681.64	74.5841	1,681.64	69.7598	1,681.64	72.6775	1,681.64	62.797	1,681.64	66.9559	1,681.64	68.3708	1,681.64	61.3743	1,681.64	70.4584	1,681.64	68.4477	1,681.64	70.6761
1,741.7	85.7619	1,741.7	85.437	1,741.7	85.7443	1,741.7	84.7054	1,741.7	85.436	1,741.7	83.6837	1,741.7	84.7685	1,741.7	82.2541	1,741.7	83.8147	1,741.7	80.6135	1,741.7	82.5454	1,741.7	79.1677	1,741.7	81.0322	1,741.7	77.2283	1,741.7	79.2342	1,741.7	74.8985	1,741.7	76.8121	1,741.7	73.6633	1,741.7	74.6931	1,741.7	72.429	1,741.7	73.7856	1,741.7	71.7626	1,741.7	73.2653	1,741.7	72.8123	1,741.7	74.2146	1,741.7	72.6434	1,741.7	74.3759	1,741.7	69.7085	1,741.7	72.3927	1,741.7	60.1066	1,741.7	68.3163	1,741.7	67.0901	1,741.7	61.709	1,741.7	70.017	1,741.7	69.0215	1,741.7	70.5737
1,803.22	86.1505	1,803.22	85.7104	1,803.22	86.0512	1,803.22	84.8273	1,803.22	85.5857	1,803.22	83.8759	1,803.22	84.8051	1,803.22	82.7625	1,803.22	83.6565	1,803.22	81.088	1,803.22	82.4337	1,803.22	79.0214	1,803.22	81.1962	1,803.22	76.9335	1,803.22	79.2071	1,803.22	74.6336	1,803.22	76.9332	1,803.22	72.7916	1,803.22	75.1923	1,803.22	72.4757	1,803.22	73.4762	1,803.22	72.295	1,803.22	73.1815	1,803.22	72.2188	1,803.22	74.278	1,803.22	72.6008	1,803.22	75.0039	1,803.22	70.6772	1,803.22	73.5062	1,803.22	63.4333	1,803.22	69.3217	1,803.22	62.4197	1,803.22	65.1918	1,803.22	68.7279	1,803.22	65.787	1,803.22	69.8223
1,866.21	85.8639	1,866.21	85.4363	1,866.21	85.8188	1,866.21	84.6077	1,866.21	85.4978	1,866.21	83.8329	1,866.21	84.5893	1,866.21	83.0399	1,866.21	83.1298	1,866.21	81.8062	1,866.21	82.1497	1,866.21	80.3673	1,866.21	81.1859	1,866.21	78.4877	1,866.21	79.4746	1,866.21	76.1581	1,866.21	77.6525	1,866.21	73.8612	1,866.21	75.2517	1,866.21	72.4414	1,866.21	72.9315	1,866.21	72.7178	1,866.21	72.2194	1,866.21	72.6533	1,866.21	73.403	1,866.21	72.9687	1,866.21	74.2841	1,866.21	72.0551	1,866.21	72.8949	1,866.21	67.7439	1,866.21	69.3003	1,866.21	65.666	1,866.21	65.1345	1,866.21	68.2043	1,866.21	68.2834	1,866.21	70.4861
1,932.13	84.7856	1,932.13	84.5186	1,932.13	84.5638	1,932.13	83.7829	1,932.13	84.1102	1,932.13	82.6901	1,932.13	83.3321	1,932.13	81.6807	1,932.13	82.0333	1,932.13	80.9787	1,932.13	80.5589	1,932.13	80.0147	1,932.13	79.2944	1,932.13	78.2677	1,932.13	78.5247	1,932.13	76.1739	1,932.13	77.2601	1,932.13	73.8588	1,932.13	74.7297	1,932.13	71.6508	1,932.13	72.7221	1,932.13	73.0319	1,932.13	72.4835	1,932.13	73.7529	1,932.13	72.9138	1,932.13	72.1121	1,932.13	72.9318	1,932.13	71.1405	1,932.13	72.6639	1,932.13	68.5687	1,932.13	69.4669	1,932.13	68.3876	1,932.13	63.2707	1,932.13	69.7416	1,932.13	67.973	1,932.13	70.3133
1,999.51	84.7808	1,999.51	84.2358	1,999.51	84.6918	1,999.51	83.4686	1,999.51	83.9854	1,999.51	82.3272	1,999.51	83.16	1,999.51	80.825	1,999.51	82.4354	1,999.51	79.4092	1,999.51	81.0416	1,999.51	78.3948	1,999.51	79.3091	1,999.51	77.4858	1,999.51	78.2985	1,999.51	75.5142	1,999.51	76.7521	1,999.51	72.108	1,999.51	74.8202	1,999.51	68.9259	1,999.51	72.6035	1,999.51	69.7479	1,999.51	70.1684	1,999.51	72.1651	1,999.51	71.2237	1,999.51	70.9176	1,999.51	72.0322	1,999.51	67.7619	1,999.51	71.7268	1,999.51	66.2375	1,999.51	69.3636	1,999.51	68.0217	1,999.51	65.3238	1,999.51	69.3814	1,999.51	68.28	1,999.51	70.0507
2,069.82	85.9326	2,069.82	85.1124	2,069.82	85.8392	2,069.82	84.2503	2,069.82	85.0956	2,069.82	83.1452	2,069.82	84.1705	2,069.82	81.5171	2,069.82	82.8648	2,069.82	80.208	2,069.82	81.2056	2,069.82	78.3573	2,069.82	79.7664	2,069.82	77.328	2,069.82	78.7994	2,069.82	76.8442	2,069.82	77.8947	2,069.82	73.9122	2,069.82	76.4287	2,069.82	69.1097	2,069.82	73.9573	2,069.82	67.7603	2,069.82	70.4083	2,069.82	70.6417	2,069.82	70.6922	2,069.82	70.1559	2,069.82	72.7314	2,069.82	68.3691	2,069.82	71.2347	2,069.82	65.3625	2,069.82	68.5467	2,069.82	66.2654	2,069.82	66.367	2,069.82	70.2927	2,069.82	68.2659	2,069.82	71.1672
2,143.07	85.9622	2,143.07	85.5666	2,143.07	85.9103	2,143.07	84.8331	2,143.07	85.0648	2,143.07	83.5005	2,143.07	83.9935	2,143.07	82.1137	2,143.07	82.871	2,143.07	80.6116	2,143.07	80.8594	2,143.07	78.7986	2,143.07	78.8528	2,143.07	77.668	2,143.07	78.3549	2,143.07	77.092	2,143.07	77.8714	2,143.07	75.8662	2,143.07	77.2965	2,143.07	72.5719	2,143.07	75.3211	2,143.07	66.6031	2,143.07	69.0889	2,143.07	67.5554	2,143.07	69.2181	2,143.07	70.2315	2,143.07	71.2395	2,143.07	70.5738	2,143.07	69.5049	2,143.07	66.2591	2,143.07	65.8624	2,143.07	66.6619	2,143.07	61.6628	2,143.07	68.2749	2,143.07	69.2702	2,143.07	69.4598
2,219.24	85.2193	2,219.24	84.7673	2,219.24	85.2157	2,219.24	84.1666	2,219.24	84.765	2,219.24	83.0183	2,219.24	83.9408	2,219.24	81.6891	2,219.24	82.1947	2,219.24	80.3872	2,219.24	79.8133	2,219.24	78.4719	2,219.24	77.9704	2,219.24	76.8925	2,219.24	76.0719	2,219.24	74.8467	2,219.24	75.9124	2,219.24	73.9694	2,219.24	76.4752	2,219.24	73.848	2,219.24	73.7729	2,219.24	69.4461	2,219.24	69.426	2,219.24	66.945	2,219.24	64.9146	2,219.24	69.9601	2,219.24	67.5831	2,219.24	70.7885	2,219.24	68.9676	2,219.24	67.1981	2,219.24	69.0739	2,219.24	66.0035	2,219.24	62.0264	2,219.24	68.6125	2,219.24	67.4016	2,219.24	70.7574
2,296.88	86.0571	2,296.88	85.6574	2,296.88	86.2096	2,296.88	84.9284	2,296.88	85.5076	2,296.88	83.7472	2,296.88	84.4361	2,296.88	82.406	2,296.88	83.501	2,296.88	80.2559	2,296.88	81.7889	2,296.88	77.9103	2,296.88	79.6038	2,296.88	76.0912	2,296.88	77.9947	2,296.88	74.6825	2,296.88	76.5927	2,296.88	73.5711	2,296.88	75.6281	2,296.88	73.0039	2,296.88	74.5127	2,296.88	72.9483	2,296.88	72.1574	2,296.88	70.996	2,296.88	68.011	2,296.88	69.5239	2,296.88	67.1377	2,296.88	66.9757	2,296.88	70.7825	2,296.88	65.372	2,296.88	70.27	2,296.88	67.2636	2,296.88	66.6242	2,296.88	71.1585	2,296.88	64.866	2,296.88	70.7898
2,378.91	87.1237	2,378.91	86.59	2,378.91	87.1071	2,378.91	85.9226	2,378.91	86.306	2,378.91	84.9878	2,378.91	85.5497	2,378.91	83.6341	2,378.91	84.4615	2,378.91	82.1023	2,378.91	82.6859	2,378.91	79.6822	2,378.91	81.1614	2,378.91	76.9008	2,378.91	78.8113	2,378.91	76.6167	2,378.91	77.6472	2,378.91	76.0008	2,378.91	76.9641	2,378.91	72.0985	2,378.91	74.7496	2,378.91	70.833	2,378.91	73.5734	2,378.91	71.3757	2,378.91	71.6695	2,378.91	70.912	2,378.91	69.2367	2,378.91	69.6643	2,378.91	69.8263	2,378.91	64.7097	2,378.91	69.5596	2,378.91	70.2592	2,378.91	69.4434	2,378.91	71.2613	2,378.91	71.878	2,378.91	72.3625
2,462.4	86.4166	2,462.4	86.0674	2,462.4	86.3652	2,462.4	85.4841	2,462.4	85.8014	2,462.4	84.4725	2,462.4	85.0978	2,462.4	83.4376	2,462.4	83.9498	2,462.4	81.8647	2,462.4	82.4345	2,462.4	79.9951	2,462.4	80.4379	2,462.4	77.9378	2,462.4	78.4789	2,462.4	75.4489	2,462.4	76.7004	2,462.4	74.7328	2,462.4	74.912	2,462.4	73.4657	2,462.4	73.9856	2,462.4	70.3794	2,462.4	71.8083	2,462.4	69.9412	2,462.4	68.0155	2,462.4	71.2023	2,462.4	66.292	2,462.4	70.8247	2,462.4	69.5369	2,462.4	68.136	2,462.4	68.7739	2,462.4	64.3487	2,462.4	63.8343	2,462.4	69.8507	2,462.4	65.5531	2,462.4	70.7712
2,548.83	85.9766	2,548.83	85.7726	2,548.83	85.7873	2,548.83	84.9424	2,548.83	85.6489	2,548.83	84.0081	2,548.83	84.8835	2,548.83	82.5625	2,548.83	83.9219	2,548.83	81.0956	2,548.83	82.587	2,548.83	78.939	2,548.83	80.8009	2,548.83	76.8116	2,548.83	78.2463	2,548.83	75.4888	2,548.83	76.0762	2,548.83	74.2451	2,548.83	75.1545	2,548.83	72.8565	2,548.83	73.8219	2,548.83	71.8296	2,548.83	71.4816	2,548.83	68.5133	2,548.83	68.4845	2,548.83	67.1165	2,548.83	67.61	2,548.83	68.6193	2,548.83	69.3713	2,548.83	68.4086	2,548.83	69.9246	2,548.83	69.8407	2,548.83	66.6724	2,548.83	72.1217	2,548.83	68.232	2,548.83	69.0314
2,639.65	86.5286	2,639.65	86.1491	2,639.65	86.5382	2,639.65	85.3931	2,639.65	85.9525	2,639.65	84.2986	2,639.65	85.054	2,639.65	83.1035	2,639.65	84.3089	2,639.65	81.7932	2,639.65	83.2222	2,639.65	79.8252	2,639.65	81.5049	2,639.65	76.7803	2,639.65	78.921	2,639.65	74.1529	2,639.65	76.4825	2,639.65	73.3974	2,639.65	75.0854	2,639.65	72.0907	2,639.65	74.2201	2,639.65	70.0924	2,639.65	72.7865	2,639.65	68.5988	2,639.65	70.4139	2,639.65	69.1593	2,639.65	66.1062	2,639.65	68.5635	2,639.65	67.8218	2,639.65	65.4222	2,639.65	68.9034	2,639.65	68.3947	2,639.65	64.6761	2,639.65	68.3698	2,639.65	70.3184	2,639.65	70.5294
2,731.93	86.7011	2,731.93	86.2874	2,731.93	86.7022	2,731.93	85.6104	2,731.93	86.0496	2,731.93	84.4761	2,731.93	85.0991	2,731.93	83.2032	2,731.93	84.1864	2,731.93	82.0847	2,731.93	82.9185	2,731.93	80.4265	2,731.93	81.3227	2,731.93	77.7283	2,731.93	79.3117	2,731.93	74.8817	2,731.93	76.8091	2,731.93	72.4418	2,731.93	74.5688	2,731.93	71.9576	2,731.93	73.0967	2,731.93	71.3427	2,731.93	72.4681	2,731.93	64.338	2,731.93	70.6731	2,731.93	67.9977	2,731.93	68.9406	2,731.93	69.8803	2,731.93	68.6097	2,731.93	64.0198	2,731.93	68.6602	2,731.93	63.9698	2,731.93	63.4473	2,731.93	71.777	2,731.93	67.0561	2,731.93	71.8728
2,828.61	86.7819	2,828.61	86.4586	2,828.61	86.789	2,828.61	85.8185	2,828.61	86.1533	2,828.61	84.7309	2,828.61	85.442	2,828.61	83.6224	2,828.61	84.3355	2,828.61	81.9874	2,828.61	82.8643	2,828.61	80.4792	2,828.61	81.3763	2,828.61	78.6061	2,828.61	79.7889	2,828.61	75.535	2,828.61	77.6985	2,828.61	73.588	2,828.61	74.3181	2,828.61	72.3413	2,828.61	71.8555	2,828.61	70.8312	2,828.61	71.5524	2,828.61	71.2766	2,828.61	70.8723	2,828.61	68.9403	2,828.61	69.0664	2,828.61	66.319	2,828.61	68.4038	2,828.61	65.1407	2,828.61	66.6729	2,828.61	66.6966	2,828.61	64.504	2,828.61	65.0445	2,828.61	68.8741	2,828.61	69.9885
2,928.22	87.2409	2,928.22	86.9525	2,928.22	87.1034	2,928.22	86.3611	2,928.22	86.6473	2,928.22	85.4288	2,928.22	85.9443	2,928.22	84.1765	2,928.22	84.8112	2,928.22	82.6026	2,928.22	83.3324	2,928.22	80.6683	2,928.22	81.7077	2,928.22	78.4906	2,928.22	80.1358	2,928.22	76.1566	2,928.22	78.039	2,928.22	73.2833	2,928.22	75.4697	2,928.22	72.5902	2,928.22	72.4577	2,928.22	70.7214	2,928.22	70.966	2,928.22	68.7009	2,928.22	69.6876	2,928.22	68.3389	2,928.22	66.7846	2,928.22	68.0248	2,928.22	66.7317	2,928.22	63.8017	2,928.22	66.4119	2,928.22	61.5206	2,928.22	63.2255	2,928.22	70.9367	2,928.22	65.1993	2,928.22	72.3328
3,030.76	87.0676	3,030.76	86.8644	3,030.76	86.9544	3,030.76	86.2234	3,030.76	86.5695	3,030.76	85.3921	3,030.76	85.8073	3,030.76	84.119	3,030.76	84.6887	3,030.76	82.4076	3,030.76	83.1524	3,030.76	80.4791	3,030.76	81.4585	3,030.76	78.6065	3,030.76	79.757	3,030.76	76.2564	3,030.76	77.7276	3,030.76	73.3838	3,030.76	75.4124	3,030.76	71.7937	3,030.76	72.6134	3,030.76	70.7235	3,030.76	70.3012	3,030.76	69.8844	3,030.76	70.072	3,030.76	68.5849	3,030.76	68.0583	3,030.76	67.9133	3,030.76	66.2065	3,030.76	65.0577	3,030.76	66.6544	3,030.76	61.4462	3,030.76	64.422	3,030.76	69.7084	3,030.76	64.0736	3,030.76	70.7992
3,137.7	87.254	3,137.7	87.0364	3,137.7	87.0708	3,137.7	86.506	3,137.7	86.7045	3,137.7	85.6088	3,137.7	85.9293	3,137.7	84.2794	3,137.7	84.9064	3,137.7	82.6758	3,137.7	83.2033	3,137.7	80.7155	3,137.7	81.3952	3,137.7	78.5469	3,137.7	79.7834	3,137.7	76.0859	3,137.7	77.957	3,137.7	72.988	3,137.7	75.8921	3,137.7	71.0468	3,137.7	73.3039	3,137.7	69.4338	3,137.7	71.4114	3,137.7	65.5529	3,137.7	70.04	3,137.7	67.8199	3,137.7	67.5587	3,137.7	68.8867	3,137.7	65.7674	3,137.7	64.378	3,137.7	66.8106	3,137.7	64.969	3,137.7	64.2825	3,137.7	71.5586	3,137.7	65.0841	3,137.7	70.2346
3,249.02	86.8899	3,249.02	86.7332	3,249.02	86.8513	3,249.02	86.3773	3,249.02	86.4118	3,249.02	85.3978	3,249.02	85.7571	3,249.02	84.2078	3,249.02	84.6675	3,249.02	82.3189	3,249.02	82.9745	3,249.02	80.2935	3,249.02	80.8949	3,249.02	78.3906	3,249.02	78.6157	3,249.02	76.1267	3,249.02	76.649	3,249.02	73.2647	3,249.02	74.833	3,249.02	70.5836	3,249.02	72.8013	3,249.02	69.148	3,249.02	70.6481	3,249.02	67.6698	3,249.02	69.0105	3,249.02	65.4112	3,249.02	68.1996	3,249.02	67.4926	3,249.02	65.5392	3,249.02	65.7693	3,249.02	66.3537	3,249.02	66.3349	3,249.02	63.3056	3,249.02	70.7114	3,249.02	66.3198	3,249.02	69.0846
3,363.28	87.2413	3,363.28	86.9362	3,363.28	87.0481	3,363.28	86.5177	3,363.28	86.7053	3,363.28	85.6348	3,363.28	85.9033	3,363.28	83.9075	3,363.28	84.6705	3,363.28	82.1256	3,363.28	82.8966	3,363.28	79.7708	3,363.28	80.273	3,363.28	76.9747	3,363.28	77.9045	3,363.28	75.188	3,363.28	75.7495	3,363.28	72.4847	3,363.28	74.0095	3,363.28	68.8493	3,363.28	71.0947	3,363.28	67.4494	3,363.28	70.1226	3,363.28	65.4681	3,363.28	69.3162	3,363.28	63.6983	3,363.28	65.277	3,363.28	66.3355	3,363.28	64.5674	3,363.28	65.0126	3,363.28	65.7756	3,363.28	66.3603	3,363.28	62.261	3,363.28	67.5102	3,363.28	65.0027	3,363.28	67.9754
3,481.93	87.0096	3,481.93	86.9066	3,481.93	86.7752	3,481.93	86.351	3,481.93	86.5557	3,481.93	85.4334	3,481.93	85.8065	3,481.93	83.661	3,481.93	84.4345	3,481.93	81.8083	3,481.93	82.4727	3,481.93	79.6013	3,481.93	80.219	3,481.93	77.2327	3,481.93	77.4543	3,481.93	74.9385	3,481.93	74.3841	3,481.93	73.3523	3,481.93	72.5278	3,481.93	70.2154	3,481.93	71.2916	3,481.93	66.8341	3,481.93	68.5039	3,481.93	68.2768	3,481.93	67.3254	3,481.93	64.1043	3,481.93	67.0594	3,481.93	63.0228	3,481.93	63.7568	3,481.93	65.0454	3,481.93	65.4936	3,481.93	66.1407	3,481.93	63.1499	3,481.93	67.2656	3,481.93	63.9292	3,481.93	68.2449
3,604.98	87.1612	3,604.98	87.0697	3,604.98	86.7826	3,604.98	86.1738	3,604.98	86.8348	3,604.98	85.4577	3,604.98	85.7957	3,604.98	83.7988	3,604.98	84.2454	3,604.98	81.3088	3,604.98	81.9454	3,604.98	78.93	3,604.98	79.8556	3,604.98	77.0086	3,604.98	77.1139	3,604.98	73.3866	3,604.98	74.699	3,604.98	72.1381	3,604.98	71.5461	3,604.98	69.3329	3,604.98	70.7512	3,604.98	66.5936	3,604.98	69.3558	3,604.98	65.7632	3,604.98	67.5213	3,604.98	63.5361	3,604.98	67.2412	3,604.98	64.0186	3,604.98	63.1917	3,604.98	63.5808	3,604.98	64.0198	3,604.98	62.8631	3,604.98	61.9867	3,604.98	69.6481	3,604.98	58.466	3,604.98	68.8674
3,732.42	87.0888	3,732.42	86.7349	3,732.42	87.2276	3,732.42	85.9436	3,732.42	86.5364	3,732.42	84.3394	3,732.42	85.2733	3,732.42	82.9629	3,732.42	83.5199	3,732.42	79.946	3,732.42	81.3688	3,732.42	77.3693	3,732.42	78.6659	3,732.42	74.8177	3,732.42	75.7369	3,732.42	72.9177	3,732.42	73.0364	3,732.42	71.235	3,732.42	70.6298	3,732.42	69.0487	3,732.42	69.3328	3,732.42	66.5391	3,732.42	68.3414	3,732.42	65.7702	3,732.42	64.0812	3,732.42	61.1199	3,732.42	63.6661	3,732.42	63.1375	3,732.42	61.84	3,732.42	63.264	3,732.42	61.1566	3,732.42	61.6908	3,732.42	63.9212	3,732.42	68.5128	3,732.42	57.4953	3,732.42	67.8244
3,864.26	87.0368	3,864.26	86.6608	3,864.26	87.1497	3,864.26	85.9333	3,864.26	86.191	3,864.26	84.0347	3,864.26	85.135	3,864.26	82.0048	3,864.26	83.3827	3,864.26	79.6665	3,864.26	81.2756	3,864.26	77.2081	3,864.26	78.3685	3,864.26	73.8613	3,864.26	75.9852	3,864.26	72.3681	3,864.26	73.6212	3,864.26	69.0284	3,864.26	70.2984	3,864.26	66.7195	3,864.26	68.8785	3,864.26	65.7048	3,864.26	67.4414	3,864.26	62.4282	3,864.26	67.7396	3,864.26	62.1467	3,864.26	67.2769	3,864.26	63.0256	3,864.26	62.8787	3,864.26	59.1982	3,864.26	63.0906	3,864.26	58.1182	3,864.26	64.3481	3,864.26	69.7843	3,864.26	60.4355	3,864.26	69.7817
4,000.49	86.6533	4,000.49	86.3529	4,000.49	86.436	4,000.49	85.6219	4,000.49	85.8583	4,000.49	84.5277	4,000.49	84.6616	4,000.49	81.9165	4,000.49	82.7318	4,000.49	79.9828	4,000.49	80.5116	4,000.49	77.0904	4,000.49	78.3647	4,000.49	73.9692	4,000.49	76.743	4,000.49	70.4747	4,000.49	75.1136	4,000.49	68.8028	4,000.49	73.4756	4,000.49	66.6593	4,000.49	71.5042	4,000.49	65.2564	4,000.49	70.2464	4,000.49	64.112	4,000.49	68.7409	4,000.49	63.0214	4,000.49	68.3253	4,000.49	61.5939	4,000.49	66.2428	4,000.49	61.6765	4,000.49	63.084	4,000.49	55.8325	4,000.49	64.1358	4,000.49	68.7638	4,000.49	60.7764	4,000.49	68.7464
4,141.11	85.6742	4,141.11	85.9774	4,141.11	85.4286	4,141.11	85.2443	4,141.11	85.644	4,141.11	85.0348	4,141.11	84.4256	4,141.11	83.2211	4,141.11	82.8073	4,141.11	80.443	4,141.11	80.3751	4,141.11	78.1526	4,141.11	79.5078	4,141.11	76.6009	4,141.11	78.2099	4,141.11	73.015	4,141.11	77.3776	4,141.11	70.4236	4,141.11	75.3519	4,141.11	69.9456	4,141.11	73.2292	4,141.11	66.6724	4,141.11	71.2114	4,141.11	67.7535	4,141.11	70.4689	4,141.11	64.2833	4,141.11	69.9043	4,141.11	59.7302	4,141.11	67.7185	4,141.11	65.5082	4,141.11	64.8089	4,141.11	54.1431	4,141.11	65.0655	4,141.11	68.4995	4,141.11	59.4004	4,141.11	69.1705
4,287.6	84.6006	4,287.6	84.4556	4,287.6	84.5416	4,287.6	84.4114	4,287.6	84.3005	4,287.6	83.5766	4,287.6	83.8833	4,287.6	82.3314	4,287.6	82.6339	4,287.6	79.755	4,287.6	82.2992	4,287.6	77.9939	4,287.6	80.773	4,287.6	76.8216	4,287.6	79.1146	4,287.6	76.6975	4,287.6	78.45	4,287.6	74.1073	4,287.6	77.6453	4,287.6	72.8747	4,287.6	74.6054	4,287.6	70.1592	4,287.6	73.2904	4,287.6	68.8511	4,287.6	71.9972	4,287.6	67.8141	4,287.6	69.4286	4,287.6	63.478	4,287.6	68.9989	4,287.6	67.4849	4,287.6	66.0255	4,287.6	54.2488	4,287.6	66.1393	4,287.6	70.0122	4,287.6	53.6256	4,287.6	69.86
4,438.48	84.1256	4,438.48	84.0323	4,438.48	84.6152	4,438.48	84.9539	4,438.48	84.0629	4,438.48	83.4165	4,438.48	84.368	4,438.48	81.9737	4,438.48	83.9919	4,438.48	82.5095	4,438.48	83.6164	4,438.48	80.5508	4,438.48	82.0867	4,438.48	78.4034	4,438.48	80.9102	4,438.48	77.6895	4,438.48	79.2081	4,438.48	76.1872	4,438.48	78.4492	4,438.48	73.4572	4,438.48	76.4102	4,438.48	72.4293	4,438.48	73.993	4,438.48	67.5627	4,438.48	71.2653	4,438.48	69.831	4,438.48	69.9608	4,438.48	64.5658	4,438.48	70.7622	4,438.48	67.6768	4,438.48	67.332	4,438.48	57.3133	4,438.48	69.8618	4,438.48	70.1075	4,438.48	63.1122	4,438.48	71.0557
4,595.21	83.5654	4,595.21	84.7936	4,595.21	82.9883	4,595.21	84.2853	4,595.21	84.235	4,595.21	84.5283	4,595.21	83.6394	4,595.21	83.6108	4,595.21	84.0917	4,595.21	82.9294	4,595.21	82.92	4,595.21	81.4275	4,595.21	82.931	4,595.21	80.0577	4,595.21	82.1418	4,595.21	77.7652	4,595.21	80.4673	4,595.21	75.851	4,595.21	78.3761	4,595.21	73.5583	4,595.21	76.7088	4,595.21	72.4465	4,595.21	73.7815	4,595.21	68.6018	4,595.21	73.7267	4,595.21	70.0231	4,595.21	70.8127	4,595.21	67.1683	4,595.21	69.2695	4,595.21	68.1426	4,595.21	69.2046	4,595.21	62.6161	4,595.21	69.9904	4,595.21	71.4439	4,595.21	63.3287	4,595.21	72.1728
4,756.35	84.5543	4,756.35	84.5051	4,756.35	84.1182	4,756.35	84.6235	4,756.35	83.4115	4,756.35	84.776	4,756.35	83.3485	4,756.35	84.3519	4,756.35	82.378	4,756.35	83.1214	4,756.35	82.7435	4,756.35	82.547	4,756.35	83.3697	4,756.35	80.747	4,756.35	82.321	4,756.35	78.6641	4,756.35	80.5072	4,756.35	76.4464	4,756.35	78.7037	4,756.35	73.5663	4,756.35	77.3194	4,756.35	72.5285	4,756.35	74.8016	4,756.35	70.6247	4,756.35	73.3686	4,756.35	67.8725	4,756.35	71.1653	4,756.35	65.6354	4,756.35	71.8142	4,756.35	69.8879	4,756.35	67.479	4,756.35	64.5067	4,756.35	69.916	4,756.35	70.8631	4,756.35	59.5495	4,756.35	70.9035
4,924.8	85.1291	4,924.8	83.942	4,924.8	85.3023	4,924.8	84.0289	4,924.8	83.1531	4,924.8	82.5461	4,924.8	82.6844	4,924.8	82.763	4,924.8	82.9113	4,924.8	82.7565	4,924.8	84.3562	4,924.8	81.7575	4,924.8	83.7852	4,924.8	80.3292	4,924.8	82.5238	4,924.8	79.0747	4,924.8	81.1012	4,924.8	77.6378	4,924.8	78.8652	4,924.8	75.1423	4,924.8	77.2485	4,924.8	73.3178	4,924.8	74.534	4,924.8	70.5951	4,924.8	73.7246	4,924.8	70.6347	4,924.8	71.4689	4,924.8	67.6173	4,924.8	69.296	4,924.8	70.6514	4,924.8	67.2029	4,924.8	61.5211	4,924.8	70.7083	4,924.8	70.5036	4,924.8	65.9335	4,924.8	72.6754
5,097.66	85.4146	5,097.66	85.6242	5,097.66	84.3195	5,097.66	82.766	5,097.66	83.6296	5,097.66	82.5603	5,097.66	81.5036	5,097.66	83.0745	5,097.66	83.0971	5,097.66	83.8571	5,097.66	83.4115	5,097.66	83.1957	5,097.66	83.3969	5,097.66	81.8301	5,097.66	82.4609	5,097.66	79.5761	5,097.66	80.5116	5,097.66	78.0236	5,097.66	78.4083	5,097.66	75.2318	5,097.66	77.0148	5,097.66	74.4439	5,097.66	74.5246	5,097.66	71.3295	5,097.66	71.909	5,097.66	69.4252	5,097.66	70.9014	5,097.66	67.2774	5,097.66	69.4804	5,097.66	68.8132	5,097.66	66.2022	5,097.66	65.4576	5,097.66	69.1197	5,097.66	69.6366	5,097.66	61.6514	5,097.66	72.0409
5,277.83	85.6199	5,277.83	84.5605	5,277.83	84.5942	5,277.83	83.1503	5,277.83	82.3141	5,277.83	83.4842	5,277.83	81.3453	5,277.83	84.0136	5,277.83	81.9355	5,277.83	84.0933	5,277.83	83.3694	5,277.83	83.5926	5,277.83	83.6018	5,277.83	81.5988	5,277.83	82.276	5,277.83	78.1806	5,277.83	80.9835	5,277.83	76.1707	5,277.83	76.9731	5,277.83	73.0223	5,277.83	75.274	5,277.83	73.6463	5,277.83	72.3703	5,277.83	70.1769	5,277.83	71.3231	5,277.83	69.1181	5,277.83	70.0072	5,277.83	65.8738	5,277.83	69.0972	5,277.83	69.205	5,277.83	65.5161	5,277.83	66.3032	5,277.83	69.04	5,277.83	69.8066	5,277.83	62.6031	5,277.83	71.6301
5,463.87	84.1715	5,463.87	82.6039	5,463.87	83.7094	5,463.87	82.2833	5,463.87	81.019	5,463.87	82.3181	5,463.87	81.5126	5,463.87	83.5893	5,463.87	82.8432	5,463.87	83.84	5,463.87	84.075	5,463.87	83.121	5,463.87	83.5116	5,463.87	81.012	5,463.87	81.6929	5,463.87	79.0563	5,463.87	79.1153	5,463.87	75.2669	5,463.87	76.7551	5,463.87	74.4916	5,463.87	75.2899	5,463.87	72.4405	5,463.87	73.3144	5,463.87	68.7302	5,463.87	68.7206	5,463.87	70.6215	5,463.87	69.2774	5,463.87	67.5335	5,463.87	67.8614	5,463.87	67.5602	5,463.87	63.6496	5,463.87	63.4546	5,463.87	66.4272	5,463.87	70.8127	5,463.87	65.859	5,463.87	71.5589
5,657.23	83.6875	5,657.23	83.4221	5,657.23	82.3468	5,657.23	81.5493	5,657.23	81.7301	5,657.23	82.4935	5,657.23	81.798	5,657.23	83.5754	5,657.23	83.2498	5,657.23	84.349	5,657.23	83.7351	5,657.23	82.5897	5,657.23	82.6466	5,657.23	81.1287	5,657.23	80.8259	5,657.23	78.5711	5,657.23	78.5443	5,657.23	75.7356	5,657.23	76.1977	5,657.23	73.3883	5,657.23	72.4449	5,657.23	69.4625	5,657.23	71.4338	5,657.23	68.0131	5,657.23	69.7245	5,657.23	68.4124	5,657.23	68.5038	5,657.23	66.4408	5,657.23	66.2957	5,657.23	62.8616	5,657.23	66.0433	5,657.23	65.6993	5,657.23	63.9958	5,657.23	69.6373	5,657.23	65.9721	5,657.23	69.881
5,856.45	82.9138	5,856.45	81.9117	5,856.45	82.6609	5,856.45	82.7209	5,856.45	81.7485	5,856.45	83.0934	5,856.45	82.7583	5,856.45	83.9295	5,856.45	83.1406	5,856.45	83.3439	5,856.45	82.9785	5,856.45	81.9053	5,856.45	81.7268	5,856.45	79.915	5,856.45	79.6791	5,856.45	76.6963	5,856.45	78.6893	5,856.45	75.2449	5,856.45	75.982	5,856.45	72.5696	5,856.45	74.1169	5,856.45	68.1658	5,856.45	70.7644	5,856.45	68.0385	5,856.45	67.1438	5,856.45	66.32	5,856.45	65.8023	5,856.45	64.5892	5,856.45	66.3085	5,856.45	63.7655	5,856.45	66.2123	5,856.45	64.5482	5,856.45	63.6846	5,856.45	68.9333	5,856.45	61.1058	5,856.45	69.1316
6,062.99	82.4027	6,062.99	82.7122	6,062.99	81.9022	6,062.99	82.4901	6,062.99	83.3411	6,062.99	82.5681	6,062.99	83.6534	6,062.99	83.4695	6,062.99	83.9172	6,062.99	83.317	6,062.99	83.5403	6,062.99	81.8466	6,062.99	82.2967	6,062.99	79.5442	6,062.99	80.4961	6,062.99	77.4353	6,062.99	78.605	6,062.99	75.0846	6,062.99	76.9401	6,062.99	71.5226	6,062.99	74.4446	6,062.99	69.4187	6,062.99	73.6034	6,062.99	69.0375	6,062.99	69.5696	6,062.99	66.2428	6,062.99	68.9037	6,062.99	65.261	6,062.99	66.1619	6,062.99	63.1208	6,062.99	65.5198	6,062.99	66.4718	6,062.99	63.4598	6,062.99	66.791	6,062.99	65.5838	6,062.99	65.2033
6,276.86	82.7397	6,276.86	83.8751	6,276.86	83.2339	6,276.86	84.6439	6,276.86	84.7883	6,276.86	84.7579	6,276.86	85.4663	6,276.86	84.3931	6,276.86	84.7102	6,276.86	84.0429	6,276.86	83.8351	6,276.86	82.2895	6,276.86	82.4003	6,276.86	79.8631	6,276.86	81.1002	6,276.86	77.9408	6,276.86	79.4304	6,276.86	76.7781	6,276.86	77.3124	6,276.86	73.5827	6,276.86	75.5934	6,276.86	69.9641	6,276.86	73.8081	6,276.86	69.0306	6,276.86	71.6502	6,276.86	63.5296	6,276.86	69.1383	6,276.86	63.6851	6,276.86	66.5216	6,276.86	64.1095	6,276.86	67.5738	6,276.86	68.3931	6,276.86	59.8596	6,276.86	68.1021	6,276.86	67.2287	6,276.86	65.9975
6,498.05	83.933	6,498.05	85.6556	6,498.05	85.1156	6,498.05	87.1735	6,498.05	86.9706	6,498.05	86.664	6,498.05	86.9635	6,498.05	85.5585	6,498.05	85.5941	6,498.05	83.9678	6,498.05	84.0931	6,498.05	81.4554	6,498.05	82.8453	6,498.05	79.3536	6,498.05	80.9904	6,498.05	78.2238	6,498.05	79.3761	6,498.05	74.1925	6,498.05	77.0054	6,498.05	72.479	6,498.05	75.5206	6,498.05	70.795	6,498.05	73.1341	6,498.05	66.7017	6,498.05	70.6178	6,498.05	63.1737	6,498.05	68.7989	6,498.05	66.1031	6,498.05	67.2087	6,498.05	62.5245	6,498.05	66.484	6,498.05	66.2445	6,498.05	63.0365	6,498.05	69.5636	6,498.05	66.7957	6,498.05	67.2913
6,726.56	84.7215	6,726.56	86.7877	6,726.56	85.9417	6,726.56	87.9464	6,726.56	88.1986	6,726.56	87.0859	6,726.56	87.8494	6,726.56	85.0419	6,726.56	86.4079	6,726.56	83.123	6,726.56	84.7237	6,726.56	81.3019	6,726.56	83.1205	6,726.56	79.9408	6,726.56	81.9344	6,726.56	77.4496	6,726.56	80.0152	6,726.56	74.6147	6,726.56	78.259	6,726.56	74.6782	6,726.56	75.6984	6,726.56	70.4075	6,726.56	73.7799	6,726.56	67.9045	6,726.56	72.2438	6,726.56	65.8637	6,726.56	68.4831	6,726.56	63.3633	6,726.56	65.2411	6,726.56	57.7749	6,726.56	68.206	6,726.56	64.6884	6,726.56	61.4195	6,726.56	67.6557	6,726.56	67.3194	6,726.56	66.6922
6,963.87	84.745	6,963.87	86.9316	6,963.87	85.7117	6,963.87	87.9589	6,963.87	87.4928	6,963.87	86.5089	6,963.87	87.4912	6,963.87	84.4426	6,963.87	85.08	6,963.87	83.2513	6,963.87	83.3757	6,963.87	82.4195	6,963.87	82.9987	6,963.87	80.5489	6,963.87	81.9278	6,963.87	78.5978	6,963.87	80.3811	6,963.87	76.3762	6,963.87	78.3314	6,963.87	74.5984	6,963.87	75.9427	6,963.87	73.1571	6,963.87	73.3115	6,963.87	69.3062	6,963.87	71.6362	6,963.87	68.0825	6,963.87	69.5634	6,963.87	65.7501	6,963.87	65.8986	6,963.87	58.0201	6,963.87	66.2886	6,963.87	63.4148	6,963.87	55.4263	6,963.87	62.4876	6,963.87	68.4209	6,963.87	67.2701
7,209.96	85.7917	7,209.96	86.8213	7,209.96	86.0488	7,209.96	87.0509	7,209.96	86.8301	7,209.96	85.2104	7,209.96	85.628	7,209.96	83.9027	7,209.96	83.6599	7,209.96	83.672	7,209.96	83.8636	7,209.96	83.2176	7,209.96	83.1243	7,209.96	81.3753	7,209.96	81.8173	7,209.96	79.6918	7,209.96	80.0207	7,209.96	76.5445	7,209.96	76.951	7,209.96	74.2743	7,209.96	74.1486	7,209.96	71.6015	7,209.96	72.6981	7,209.96	69.5813	7,209.96	70.3492	7,209.96	68.1236	7,209.96	68.4354	7,209.96	63.398	7,209.96	67.3047	7,209.96	57.7736	7,209.96	65.283	7,209.96	65.348	7,209.96	59.3123	7,209.96	61.5662	7,209.96	66.2823	7,209.96	65.5521
7,464.84	86.8533	7,464.84	86.0981	7,464.84	86.927	7,464.84	85.346	7,464.84	85.867	7,464.84	83.7664	7,464.84	84.7363	7,464.84	83.7239	7,464.84	83.8996	7,464.84	83.965	7,464.84	83.3805	7,464.84	82.9361	7,464.84	82.9337	7,464.84	80.7258	7,464.84	81.0075	7,464.84	78.1977	7,464.84	78.3673	7,464.84	75.087	7,464.84	75.4154	7,464.84	72.3766	7,464.84	72.5439	7,464.84	70.4083	7,464.84	70.573	7,464.84	68.0803	7,464.84	69.6833	7,464.84	66.3579	7,464.84	66.5976	7,464.84	63.9481	7,464.84	62.5804	7,464.84	59.4614	7,464.84	63.7871	7,464.84	63.4911	7,464.84	42.0314	7,464.84	63.4922	7,464.84	63.7347	7,464.84	62.4686
7,727.05	87.2596	7,727.05	85.7484	7,727.05	86.9931	7,727.05	85.2384	7,727.05	85.2366	7,727.05	85.3753	7,727.05	84.2291	7,727.05	84.7301	7,727.05	84.6229	7,727.05	83.6814	7,727.05	84.3892	7,727.05	81.5835	7,727.05	81.9303	7,727.05	78.0069	7,727.05	77.9276	7,727.05	75.4438	7,727.05	75.1829	7,727.05	72.5252	7,727.05	72.5457	7,727.05	70.4312	7,727.05	69.2083	7,727.05	66.5562	7,727.05	66.9891	7,727.05	64.8778	7,727.05	65.2274	7,727.05	65.6484	7,727.05	61.1361	7,727.05	63.4226	7,727.05	61.4013	7,727.05	59.3054	7,727.05	57.1397	7,727.05	59.5434	7,727.05	55.3164	7,727.05	61.2026	7,727.05	61.8281	7,727.05	60.3153
7,999.51	87.6216	7,999.51	86.1958	7,999.51	87.8158	7,999.51	86.1207	7,999.51	86.1466	7,999.51	85.5434	7,999.51	85.2676	7,999.51	84.2421	7,999.51	84.8839	7,999.51	83.1358	7,999.51	83.8007	7,999.51	79.9989	7,999.51	81.7234	7,999.51	77.7759	7,999.51	79.0002	7,999.51	75.3695	7,999.51	74.7462	7,999.51	71.5322	7,999.51	72.017	7,999.51	69.8332	7,999.51	69.5187	7,999.51	67.0891	7,999.51	64.28	7,999.51	65.0191	7,999.51	61.3556	7,999.51	65.2976	7,999.51	63.6083	7,999.51	63.8525	7,999.51	58.2904	7,999.51	59.3123	7,999.51	55.9001	7,999.51	59.4761	7,999.51	53.0829	7,999.51	59.8336	7,999.51	44.7785	7,999.51	59.3187
8,282.23	87.9356	8,282.23	87.5921	8,282.23	88.0071	8,282.23	87.1387	8,282.23	87.1522	8,282.23	85.452	8,282.23	86.0602	8,282.23	84.5008	8,282.23	84.7605	8,282.23	83.1252	8,282.23	84.168	8,282.23	81.5979	8,282.23	81.9819	8,282.23	78.7699	8,282.23	78.876	8,282.23	75.7939	8,282.23	74.8567	8,282.23	72.3129	8,282.23	72.8603	8,282.23	70.1004	8,282.23	69.0869	8,282.23	68.0865	8,282.23	65.0552	8,282.23	65.2696	8,282.23	61.7313	8,282.23	62.7038	8,282.23	61.6054	8,282.23	60.8773	8,282.23	60.4738	8,282.23	58.6018	8,282.23	51.938	8,282.23	57.9833	8,282.23	60.2348	8,282.23	57.0071	8,282.23	52.8389	8,282.23	55.1133
8,573.73	88.1266	8,573.73	88.1983	8,573.73	88.0889	8,573.73	87.2946	8,573.73	87.5268	8,573.73	84.9979	8,573.73	86.123	8,573.73	84.0788	8,573.73	84.7797	8,573.73	83.7644	8,573.73	83.7352	8,573.73	81.8284	8,573.73	81.4858	8,573.73	78.9829	8,573.73	78.787	8,573.73	75.9899	8,573.73	75.2157	8,573.73	73.5165	8,573.73	71.796	8,573.73	68.3252	8,573.73	68.4602	8,573.73	68.8493	8,573.73	65.1962	8,573.73	64.1076	8,573.73	64.2344	8,573.73	62.9858	8,573.73	59.5257	8,573.73	58.6264	8,573.73	61.2164	8,573.73	57.9782	8,573.73	58.7298	8,573.73	59.6462	8,573.73	55.3416	8,573.73	58.4517	8,573.73	59.7001	8,573.73	56.9549
8,876.95	87.7051	8,876.95	87.7062	8,876.95	87.6516	8,876.95	86.999	8,876.95	87.4108	8,876.95	84.8984	8,876.95	86.2179	8,876.95	84.0155	8,876.95	84.6319	8,876.95	83.0111	8,876.95	83.2574	8,876.95	81.146	8,876.95	80.4718	8,876.95	77.0552	8,876.95	77.6233	8,876.95	74.7026	8,876.95	74.8294	8,876.95	71.25	8,876.95	70.7517	8,876.95	67.3132	8,876.95	69.439	8,876.95	65.009	8,876.95	65.7209	8,876.95	61.1782	8,876.95	64.537	8,876.95	61.5612	8,876.95	62.9373	8,876.95	57.2649	8,876.95	61.0914	8,876.95	60.0289	8,876.95	58.1366	8,876.95	55.7318	8,876.95	56.6632	8,876.95	58.0936	8,876.95	57.7731	8,876.95	53.7045
9,188.96	87.6648	9,188.96	87.3416	9,188.96	87.5533	9,188.96	86.7298	9,188.96	87.1382	9,188.96	84.8866	9,188.96	86	9,188.96	83.6789	9,188.96	84.1294	9,188.96	82.2633	9,188.96	82.2613	9,188.96	79.8937	9,188.96	80.0641	9,188.96	76.4865	9,188.96	77.7374	9,188.96	74.2795	9,188.96	74.9217	9,188.96	70.5271	9,188.96	70.7318	9,188.96	68.4528	9,188.96	69.3025	9,188.96	64.2673	9,188.96	65.751	9,188.96	61.8187	9,188.96	64.4761	9,188.96	62.9026	9,188.96	61.6424	9,188.96	59.9598	9,188.96	61.6261	9,188.96	60.1895	9,188.96	60.3627	9,188.96	50.3422	9,188.96	59.1785	9,188.96	56.5367	9,188.96	55.6247	9,188.96	49.4612
9,514.16	87.8954	9,514.16	86.9865	9,514.16	87.4426	9,514.16	86.5532	9,514.16	86.9273	9,514.16	84.9332	9,514.16	85.8163	9,514.16	83.1454	9,514.16	83.3837	9,514.16	81.6259	9,514.16	81.12	9,514.16	79.5105	9,514.16	79.0015	9,514.16	76.2787	9,514.16	77.0827	9,514.16	73.3561	9,514.16	73.1164	9,514.16	69.2318	9,514.16	69.8812	9,514.16	68.1349	9,514.16	67.7352	9,514.16	63.3328	9,514.16	63.3164	9,514.16	62.4532	9,514.16	61.7885	9,514.16	61.6897	9,514.16	61.1514	9,514.16	59.1665	9,514.16	59.6976	9,514.16	60.3652	9,514.16	57.2378	9,514.16	52.4489	9,514.16	58.8387	9,514.16	56.6655	9,514.16	55.8333	9,514.16	50.6685
9,849.61	88.0506	9,849.61	86.9238	9,849.61	87.4758	9,849.61	86.5524	9,849.61	86.8166	9,849.61	84.967	9,849.61	85.5563	9,849.61	82.825	9,849.61	82.8665	9,849.61	80.5745	9,849.61	80.3653	9,849.61	78.9021	9,849.61	78.6209	9,849.61	76.0168	9,849.61	76.4549	9,849.61	73.1664	9,849.61	71.812	9,849.61	69.1517	9,849.61	69.1711	9,849.61	66.5854	9,849.61	65.9926	9,849.61	65.4807	9,849.61	63.0701	9,849.61	64.4704	9,849.61	58.0365	9,849.61	61.1426	9,849.61	59.4764	9,849.61	59.1655	9,849.61	56.6704	9,849.61	59.4297	9,849.61	53.9052	9,849.61	55.7888	9,849.61	55.9351	9,849.61	56.5638	9,849.61	57.7652	9,849.61	47.6965
10,196.8	88.2441	10,196.8	87.0859	10,196.8	87.6072	10,196.8	86.7247	10,196.8	87.0108	10,196.8	84.7425	10,196.8	85.2814	10,196.8	82.3381	10,196.8	82.6158	10,196.8	80.2986	10,196.8	80.6664	10,196.8	78.651	10,196.8	78.6616	10,196.8	75.7107	10,196.8	75.6817	10,196.8	72.7388	10,196.8	72.5023	10,196.8	70.0993	10,196.8	66.9146	10,196.8	66.0712	10,196.8	63.8394	10,196.8	64.6539	10,196.8	60.9931	10,196.8	64.7977	10,196.8	56.0167	10,196.8	60.2308	10,196.8	58.7603	10,196.8	58.1081	10,196.8	54.3181	10,196.8	57.4401	10,196.8	56.8031	10,196.8	52.3588	10,196.8	57.0091	10,196.8	55.1903	10,196.8	57.242	10,196.8	43.0499
10,555.7	88.4971	10,555.7	87.3673	10,555.7	87.8785	10,555.7	86.7094	10,555.7	87.2928	10,555.7	84.2803	10,555.7	85.1442	10,555.7	82.0949	10,555.7	82.554	10,555.7	79.7344	10,555.7	80.7511	10,555.7	78.2775	10,555.7	78.0366	10,555.7	75.6375	10,555.7	74.411	10,555.7	72.3255	10,555.7	70.238	10,555.7	69.3416	10,555.7	65.4508	10,555.7	65.9579	10,555.7	60.674	10,555.7	63.6715	10,555.7	61.7232	10,555.7	63.0664	10,555.7	57.4377	10,555.7	59.1388	10,555.7	59.7809	10,555.7	58.5646	10,555.7	53.0018	10,555.7	55.2508	10,555.7	58.049	10,555.7	48.7567	10,555.7	55.8108	10,555.7	56.5554	10,555.7	55.3695	10,555.7	43.5611
10,927.7	88.2982	10,927.7	87.1881	10,927.7	87.8072	10,927.7	86.2993	10,927.7	87.0886	10,927.7	83.5857	10,927.7	84.7542	10,927.7	81.3577	10,927.7	82.6653	10,927.7	79.3804	10,927.7	80.3918	10,927.7	77.3442	10,927.7	76.5905	10,927.7	73.7818	10,927.7	72.7804	10,927.7	70.7928	10,927.7	68.9767	10,927.7	66.8245	10,927.7	67.8409	10,927.7	64.4659	10,927.7	61.5837	10,927.7	59.8082	10,927.7	63.6523	10,927.7	60.1281	10,927.7	57.6975	10,927.7	58.163	10,927.7	60.4973	10,927.7	57.9782	10,927.7	55.5913	10,927.7	50.0728	10,927.7	58.8977	10,927.7	46.9789	10,927.7	56.8488	10,927.7	54.1036	10,927.7	51.4115	10,927.7	43.9197
11,313	87.6059	11,313	86.7516	11,313	87.3227	11,313	85.569	11,313	86.4175	11,313	82.4207	11,313	84.0739	11,313	80.4436	11,313	82.1833	11,313	78.3088	11,313	79.1384	11,313	75.1853	11,313	74.5242	11,313	71.9526	11,313	71.1257	11,313	69.0781	11,313	69.1653	11,313	63.3774	11,313	68.6775	11,313	62.137	11,313	63.7537	11,313	58.7526	11,313	63.382	11,313	58.3134	11,313	59.025	11,313	57.5839	11,313	58.7919	11,313	56.4682	11,313	53.6227	11,313	46.2295	11,313	57.6976	11,313	52.9008	11,313	54.0863	11,313	51.8124	11,313	47.7448	11,313	40.66
11,712.9	86.4381	11,712.9	85.4153	11,712.9	86.3242	11,712.9	84.1618	11,712.9	85.1582	11,712.9	80.8007	11,712.9	82.9239	11,712.9	78.8435	11,712.9	80.3641	11,712.9	74.7205	11,712.9	75.6878	11,712.9	70.6463	11,712.9	69.9423	11,712.9	68.9096	11,712.9	68.8721	11,712.9	67.0732	11,712.9	68.521	11,712.9	64.1329	11,712.9	67.793	11,712.9	60.5285	11,712.9	61.4099	11,712.9	60.0275	11,712.9	60.5352	11,712.9	56.6133	11,712.9	59.3543	11,712.9	56.2199	11,712.9	52.3644	11,712.9	53.9034	11,712.9	53.068	11,712.9	52.0315	11,712.9	58.4561	11,712.9	55.0656	11,712.9	50.1817	11,712.9	43.7825	11,712.9	51.4311	11,712.9	44.2556
12,126	84.5992	12,126	83.6163	12,126	84.8369	12,126	81.9359	12,126	83.865	12,126	78.9302	12,126	81.2073	12,126	75.52	12,126	77.8652	12,126	69.7646	12,126	72.2466	12,126	72.1097	12,126	72.6985	12,126	72.6541	12,126	73.1768	12,126	71.7055	12,126	71.2962	12,126	69.3613	12,126	70.416	12,126	65.9559	12,126	64.4012	12,126	62.4257	12,126	60.7016	12,126	61.3234	12,126	62.4966	12,126	57.9191	12,126	55.8639	12,126	57.2917	12,126	60.6767	12,126	57.3709	12,126	61.476	12,126	58.251	12,126	52.9099	12,126	54.6617	12,126	53.5601	12,126	50.1505
12,553.7	81.9177	12,553.7	82.4799	12,553.7	83.5014	12,553.7	80.9529	12,553.7	83.0145	12,553.7	79.8158	12,553.7	81.6031	12,553.7	77.6226	12,553.7	77.0062	12,553.7	78.3807	12,553.7	77.8461	12,553.7	79.344	12,553.7	78.7309	12,553.7	78.5824	12,553.7	77.2651	12,553.7	77.2555	12,553.7	74.8786	12,553.7	72.5474	12,553.7	74.631	12,553.7	69.4012	12,553.7	72.2331	12,553.7	66.8252	12,553.7	65.2923	12,553.7	67.2734	12,553.7	65.2652	12,553.7	63.358	12,553.7	60.0323	12,553.7	63.3768	12,553.7	65.4319	12,553.7	60.0836	12,553.7	63.0878	12,553.7	62.2981	12,553.7	52.4842	12,553.7	57.6598	12,553.7	56.5994	12,553.7	52.5469
12,996.1	86.7329	12,996.1	86.591	12,996.1	86.3662	12,996.1	86.2661	12,996.1	85.7436	12,996.1	84.931	12,996.1	84.8855	12,996.1	83.99	12,996.1	82.4082	12,996.1	83.5684	12,996.1	83.1648	12,996.1	83.1126	12,996.1	81.1815	12,996.1	81.4687	12,996.1	80.0803	12,996.1	79.0005	12,996.1	77.9303	12,996.1	74.7869	12,996.1	76.5188	12,996.1	71.3675	12,996.1	74.7987	12,996.1	67.5443	12,996.1	69.1611	12,996.1	66.0193	12,996.1	67.1514	12,996.1	63.0704	12,996.1	64.5805	12,996.1	64.5614	12,996.1	65.8518	12,996.1	62.9957	12,996.1	63.7612	12,996.1	61.7116	12,996.1	56.0087	12,996.1	59.5302	12,996.1	59.0313	12,996.1	56.1788
13,454.6	90.0158	13,454.6	88.7775	13,454.6	88.7285	13,454.6	89.2105	13,454.6	87.6343	13,454.6	87.4616	13,454.6	85.9382	13,454.6	86.6231	13,454.6	85.3719	13,454.6	84.9756	13,454.6	83.3363	13,454.6	83.4435	13,454.6	79.5835	13,454.6	80.6382	13,454.6	80.2218	13,454.6	77.9744	13,454.6	77.4489	13,454.6	73.2273	13,454.6	76.0965	13,454.6	71.2305	13,454.6	72.1882	13,454.6	63.7378	13,454.6	69.4473	13,454.6	64.7909	13,454.6	66.2581	13,454.6	60.5077	13,454.6	62.6714	13,454.6	61.9756	13,454.6	62.0139	13,454.6	63.7719	13,454.6	62.0909	13,454.6	55.8438	13,454.6	60.2525	13,454.6	61.3689	13,454.6	52.2793	13,454.6	55.6958
13,929.2	90.6179	13,929.2	89.6891	13,929.2	89.6902	13,929.2	90.0451	13,929.2	88.5141	13,929.2	87.9433	13,929.2	86.3429	13,929.2	86.9526	13,929.2	85.4138	13,929.2	84.1829	13,929.2	82.6244	13,929.2	81.8196	13,929.2	79.1437	13,929.2	79.0219	13,929.2	80.4021	13,929.2	75.8753	13,929.2	77.4793	13,929.2	71.5684	13,929.2	75.9252	13,929.2	69.6782	13,929.2	71.8541	13,929.2	64.2761	13,929.2	68.6022	13,929.2	60.9553	13,929.2	66.3114	13,929.2	62.2851	13,929.2	60.0844	13,929.2	59.7475	13,929.2	62.4504	13,929.2	61.7868	13,929.2	63.3063	13,929.2	51.6186	13,929.2	58.7304	13,929.2	60.2295	13,929.2	55.5363	13,929.2	54.4417
14,419.9	90.6052	14,419.9	90.5699	14,419.9	90.1401	14,419.9	89.7628	14,419.9	88.6581	14,419.9	87.8834	14,419.9	86.9615	14,419.9	85.8975	14,419.9	84.4791	14,419.9	82.369	14,419.9	82.6449	14,419.9	80.0823	14,419.9	80.6465	14,419.9	78.6097	14,419.9	80.2439	14,419.9	76.5036	14,419.9	76.9416	14,419.9	71.1867	14,419.9	75.1195	14,419.9	69.7357	14,419.9	71.7288	14,419.9	65.803	14,419.9	67.2993	14,419.9	62.9468	14,419.9	65.8146	14,419.9	62.4566	14,419.9	61.7617	14,419.9	60.4842	14,419.9	63.9294	14,419.9	58.6462	14,419.9	62.211	14,419.9	55.3567	14,419.9	55.3226	14,419.9	58.5215	14,419.9	53.455	14,419.9	55.9481
14,928.2	89.7441	14,928.2	89.406	14,928.2	89.3805	14,928.2	87.9214	14,928.2	87.5011	14,928.2	85.8851	14,928.2	85.249	14,928.2	81.8667	14,928.2	81.2083	14,928.2	79.1397	14,928.2	81.5264	14,928.2	77.7724	14,928.2	79.5768	14,928.2	76.796	14,928.2	78.1116	14,928.2	75.0629	14,928.2	75.1426	14,928.2	70.757	14,928.2	73.7342	14,928.2	68.521	14,928.2	70.3886	14,928.2	63.1955	14,928.2	65.3169	14,928.2	63.1639	14,928.2	64.5797	14,928.2	59.5808	14,928.2	62.1756	14,928.2	59.0041	14,928.2	64.0599	14,928.2	55.9464	14,928.2	59.7388	14,928.2	55.862	14,928.2	50.6294	14,928.2	58.7042	14,928.2	54.2421	14,928.2	55.1759
15,455.6	88.1095	15,455.6	86.7554	15,455.6	87.2313	15,455.6	84.9033	15,455.6	85.2947	15,455.6	81.1125	15,455.6	80.6396	15,455.6	75.5111	15,455.6	77.127	15,455.6	75.1991	15,455.6	77.4211	15,455.6	75.3215	15,455.6	75.517	15,455.6	73.696	15,455.6	75.36	15,455.6	71.8989	15,455.6	74.3589	15,455.6	67.9732	15,455.6	73.7401	15,455.6	65.4489	15,455.6	70.6115	15,455.6	59.9865	15,455.6	65.5086	15,455.6	60.442	15,455.6	63.724	15,455.6	56.8619	15,455.6	59.4353	15,455.6	57.0172	15,455.6	61.4707	15,455.6	52.0252	15,455.6	55.517	15,455.6	55.9409	15,455.6	51.353	15,455.6	55.2305	15,455.6	55.6554	15,455.6	52.8774
16,000.5	86.5666	16,000.5	84.4483	16,000.5	85.9029	16,000.5	82.1189	16,000.5	83.1419	16,000.5	74.6964	16,000.5	78.0274	16,000.5	71.194	16,000.5	71.0703	16,000.5	71.4663	16,000.5	71.097	16,000.5	71.409	16,000.5	72.7559	16,000.5	68.8193	16,000.5	74.4993	16,000.5	66.6563	16,000.5	73.6072	16,000.5	63.0753	16,000.5	71.6984	16,000.5	59.749	16,000.5	68.9057	16,000.5	55.3529	16,000.5	63.2885	16,000.5	54.7741	16,000.5	60.8136	16,000.5	53.9331	16,000.5	58.0105	16,000.5	54.4373	16,000.5	58.6207	16,000.5	46.939	16,000.5	53.8629	16,000.5	50.5562	16,000.5	49.571	16,000.5	51.9552	16,000.5	51.3251	16,000.5	51.5878
16,564.5	87.5095	16,564.5	85.6742	16,564.5	86.9943	16,564.5	82.4183	16,564.5	84.2057	16,564.5	76.136	16,564.5	79.171	16,564.5	71.3762	16,564.5	68.9039	16,564.5	69.2832	16,564.5	66.462	16,564.5	64.3977	16,564.5	73.4232	16,564.5	64.4876	16,564.5	74.0064	16,564.5	64.2438	16,564.5	72.0195	16,564.5	63.1265	16,564.5	69.8963	16,564.5	60.4172	16,564.5	66.5549	16,564.5	53.2315	16,564.5	60.6468	16,564.5	54.5961	16,564.5	60.5789	16,564.5	50.9019	16,564.5	54.2853	16,564.5	50.7637	16,564.5	58.4785	16,564.5	49.8268	16,564.5	54.801	16,564.5	49.5412	16,564.5	45.5261	16,564.5	50.3602	16,564.5	53.2878	16,564.5	54.2628
17,148.9	86.9899	17,148.9	85.0649	17,148.9	86.5483	17,148.9	80.6499	17,148.9	83.2194	17,148.9	73.647	17,148.9	76.678	17,148.9	68.258	17,148.9	61.9338	17,148.9	68.1094	17,148.9	71.7738	17,148.9	67.2098	17,148.9	75.8496	17,148.9	69.345	17,148.9	73.8007	17,148.9	68.9735	17,148.9	70.71	17,148.9	65.5308	17,148.9	70.449	17,148.9	62.2239	17,148.9	68.2905	17,148.9	57.4045	17,148.9	60.8307	17,148.9	58.8095	17,148.9	60.1742	17,148.9	51.9003	17,148.9	54.9045	17,148.9	49.3355	17,148.9	60.3946	17,148.9	53.9303	17,148.9	54.4119	17,148.9	55.4278	17,148.9	46.2189	17,148.9	44.0776	17,148.9	56.0811	17,148.9	58.6874
17,752.4	87.1494	17,752.4	85.0928	17,752.4	86.5069	17,752.4	80.4612	17,752.4	83.0783	17,752.4	70.4053	17,752.4	74.2109	17,752.4	68.9532	17,752.4	61.9555	17,752.4	71.0764	17,752.4	75.3915	17,752.4	74.2874	17,752.4	75.1159	17,752.4	73.59	17,752.4	71.7039	17,752.4	71.7668	17,752.4	71.2955	17,752.4	68.3835	17,752.4	71.8344	17,752.4	64.7631	17,752.4	70.2747	17,752.4	57.3848	17,752.4	64.0676	17,752.4	60.2657	17,752.4	56.5337	17,752.4	49.8424	17,752.4	59.9633	17,752.4	49.7037	17,752.4	60.3115	17,752.4	58.75	17,752.4	52.7823	17,752.4	59.7471	17,752.4	47.4397	17,752.4	48.4496	17,752.4	55.8081	17,752.4	58.9679
18,379.4	87.2236	18,379.4	84.4645	18,379.4	86.17	18,379.4	80.3297	18,379.4	83.2143	18,379.4	32.0164	18,379.4	74.1787	18,379.4	70.886	18,379.4	67.2879	18,379.4	77.8068	18,379.4	77.1741	18,379.4	77.5209	18,379.4	74.3816	18,379.4	74.839	18,379.4	75.6779	18,379.4	72.692	18,379.4	74.5253	18,379.4	69.8602	18,379.4	73.6084	18,379.4	66.6627	18,379.4	71.5193	18,379.4	55.8017	18,379.4	65.9979	18,379.4	61.1939	18,379.4	54.7241	18,379.4	48.773	18,379.4	61.799	18,379.4	53.4576	18,379.4	61.0047	18,379.4	59.9205	18,379.4	55.9773	18,379.4	61.1895	18,379.4	51.2585	18,379.4	43.8236	18,379.4	54.735	18,379.4	59.2276
19,026.9	87.0111	19,026.9	83.8354	19,026.9	86.4519	19,026.9	78.1921	19,026.9	83.0264	19,026.9	73.0148	19,026.9	75.907	19,026.9	75.6803	19,026.9	73.756	19,026.9	79.1496	19,026.9	75.7436	19,026.9	75.9216	19,026.9	76.6519	19,026.9	73.4092	19,026.9	76.0652	19,026.9	72.2592	19,026.9	73.0292	19,026.9	69.9445	19,026.9	71.6248	19,026.9	67.0013	19,026.9	68.784	19,026.9	56.4315	19,026.9	64.1064	19,026.9	62.8228	19,026.9	50.9346	19,026.9	48.5692	19,026.9	58.717	19,026.9	51.0289	19,026.9	59.8704	19,026.9	59.3424	19,026.9	59.3335	19,026.9	60.8649	19,026.9	53.315	19,026.9	49.8035	19,026.9	58.5451	19,026.9	60.216
19,697.8	87.0163	19,697.8	84.2167	19,697.8	86.5308	19,697.8	79.1758	19,697.8	82.9873	19,697.8	75.5298	19,697.8	76.0351	19,697.8	77.1887	19,697.8	75.4152	19,697.8	76.4638	19,697.8	75.3142	19,697.8	72.7816	19,697.8	74.9442	19,697.8	71.2718	19,697.8	70.7381	19,697.8	70.216	19,697.8	67.5069	19,697.8	66.0618	19,697.8	67.4484	19,697.8	63.0998	19,697.8	64.7443	19,697.8	51.0958	19,697.8	60.0244	19,697.8	60.4308	19,697.8	46.0458	19,697.8	35.4219	19,697.8	54.603	19,697.8	43.064	19,697.8	55.1865	19,697.8	57.3579	19,697.8	58.0339	19,697.8	56.6985	19,697.8	50.2212	19,697.8	52.7926	19,697.8	60.8625	19,697.8	57.6693
19,999.5	86.6381	19,999.5	84.0369	19,999.5	86.1519	19,999.5	79.5411	19,999.5	83.0237	19,999.5	76.0348	19,999.5	76.9568	19,999.5	77.3579	19,999.5	74.7714	19,999.5	75.3344	19,999.5	75.6435	19,999.5	72.3878	19,999.5	72.681	19,999.5	70.6541	19,999.5	68.6513	19,999.5	69.0109	19,999.5	67.0725	19,999.5	63.4916	19,999.5	66.6139	19,999.5	58.336	19,999.5	63.3291	19,999.5	42.472	19,999.5	60.3564	19,999.5	59.1211	19,999.5	36.2778	19,999.5	48.1	19,999.5	57.5274	19,999.5	49.788	19,999.5	55.4296	19,999.5	54.3868	19,999.5	58.4204	19,999.5	53.6177	19,999.5	52.5442	19,999.5	53.5869	19,999.5	59.9779	19,999.5	59.1587
