"SPL Vertical"																																																																							
"On-Axis"		"10°"		"-10°"		"20°"		"-20°"		"30°"		"-30°"		"40°"		"-40°"		"50°"		"-50°"		"60°"		"-60°"		"70°"		"-70°"		"80°"		"-80°"		"90°"		"-90°"		"100°"		"-100°"		"110°"		"-110°"		"120°"		"-120°"		"130°"		"-130°"		"140°"		"-140°"		"150°"		"-150°"		"160°"		"-160°"		"170°"		"-170°"		"180°"	
"Frequency [Hz]"	"Sound Pessure Level [dB]  / [2.83V 1m] "	"Frequency [Hz]"	"Sound Pessure Level [dB]  / [2.83V 1m] "	"Frequency [Hz]"	"Sound Pessure Level [dB]  / [2.83V 1m] "	"Frequency [Hz]"	"Sound Pessure Level [dB]  / [2.83V 1m] "	"Frequency [Hz]"	"Sound Pessure Level [dB]  / [2.83V 1m] "	"Frequency [Hz]"	"Sound Pessure Level [dB]  / [2.83V 1m] "	"Frequency [Hz]"	"Sound Pessure Level [dB]  / [2.83V 1m] "	"Frequency [Hz]"	"Sound Pessure Level [dB]  / [2.83V 1m] "	"Frequency [Hz]"	"Sound Pessure Level [dB]  / [2.83V 1m] "	"Frequency [Hz]"	"Sound Pessure Level [dB]  / [2.83V 1m] "	"Frequency [Hz]"	"Sound Pessure Level [dB]  / [2.83V 1m] "	"Frequency [Hz]"	"Sound Pessure Level [dB]  / [2.83V 1m] "	"Frequency [Hz]"	"Sound Pessure Level [dB]  / [2.83V 1m] "	"Frequency [Hz]"	"Sound Pessure Level [dB]  / [2.83V 1m] "	"Frequency [Hz]"	"Sound Pessure Level [dB]  / [2.83V 1m] "	"Frequency [Hz]"	"Sound Pessure Level [dB]  / [2.83V 1m] "	"Frequency [Hz]"	"Sound Pessure Level [dB]  / [2.83V 1m] "	"Frequency [Hz]"	"Sound Pessure Level [dB]  / [2.83V 1m] "	"Frequency [Hz]"	"Sound Pessure Level [dB]  / [2.83V 1m] "	"Frequency [Hz]"	"Sound Pessure Level [dB]  / [2.83V 1m] "	"Frequency [Hz]"	"Sound Pessure Level [dB]  / [2.83V 1m] "	"Frequency [Hz]"	"Sound Pessure Level [dB]  / [2.83V 1m] "	"Frequency [Hz]"	"Sound Pessure Level [dB]  / [2.83V 1m] "	"Frequency [Hz]"	"Sound Pessure Level [dB]  / [2.83V 1m] "	"Frequency [Hz]"	"Sound Pessure Level [dB]  / [2.83V 1m] "	"Frequency [Hz]"	"Sound Pessure Level [dB]  / [2.83V 1m] "	"Frequency [Hz]"	"Sound Pessure Level [dB]  / [2.83V 1m] "	"Frequency [Hz]"	"Sound Pessure Level [dB]  / [2.83V 1m] "	"Frequency [Hz]"	"Sound Pessure Level [dB]  / [2.83V 1m] "	"Frequency [Hz]"	"Sound Pessure Level [dB]  / [2.83V 1m] "	"Frequency [Hz]"	"Sound Pessure Level [dB]  / [2.83V 1m] "	"Frequency [Hz]"	"Sound Pessure Level [dB]  / [2.83V 1m] "	"Frequency [Hz]"	"Sound Pessure Level [dB]  / [2.83V 1m] "	"Frequency [Hz]"	"Sound Pessure Level [dB]  / [2.83V 1m] "	"Frequency [Hz]"	"Sound Pessure Level [dB]  / [2.83V 1m] "	"Frequency [Hz]"	"Sound Pessure Level [dB]  / [2.83V 1m] "
20.5078	56.5271	20.5078	56.2842	20.5078	56.7371	20.5078	56.0114	20.5078	56.9117	20.5078	55.7125	20.5078	57.049	20.5078	55.3925	20.5078	57.1473	20.5078	55.058	20.5078	57.2052	20.5078	54.7176	20.5078	57.2216	20.5078	54.3818	20.5078	57.1958	20.5078	54.0633	20.5078	57.1269	20.5078	53.7765	20.5078	57.0147	20.5078	53.5364	20.5078	56.8589	20.5078	53.3576	20.5078	56.6596	20.5078	53.2527	20.5078	56.4175	20.5078	53.2312	20.5078	56.1344	20.5078	53.2979	20.5078	55.8139	20.5078	53.4517	20.5078	55.4619	20.5078	53.6849	20.5078	55.088	20.5078	53.984	20.5078	54.7054	20.5078	54.3309
21.9727	56.6722	21.9727	56.3732	21.9727	56.9359	21.9727	56.0428	21.9727	57.161	21.9727	55.6861	21.9727	57.3451	21.9727	55.3101	21.9727	57.4859	21.9727	54.9234	21.9727	57.5814	21.9727	54.537	21.9727	57.6302	21.9727	54.1648	21.9727	57.6307	21.9727	53.8225	21.9727	57.5819	21.9727	53.5276	21.9727	57.4833	21.9727	53.2975	21.9727	57.3345	21.9727	53.1483	21.9727	57.1361	21.9727	53.0922	21.9727	56.8892	21.9727	53.1363	21.9727	56.5957	21.9727	53.2808	21.9727	56.2589	21.9727	53.5186	21.9727	55.884	21.9727	53.8355	21.9727	55.4785	21.9727	54.2118	21.9727	55.0539	21.9727	54.6252
23.4375	57.1992	23.4375	56.8743	23.4375	57.4853	23.4375	56.5149	23.4375	57.7289	23.4375	56.1268	23.4375	57.927	23.4375	55.7174	23.4375	58.0772	23.4375	55.2964	23.4375	58.1771	23.4375	54.876	23.4375	58.2249	23.4375	54.4709	23.4375	58.219	23.4375	54.098	23.4375	58.158	23.4375	53.7753	23.4375	58.0412	23.4375	53.5206	23.4375	57.8683	23.4375	53.3495	23.4375	57.6398	23.4375	53.2743	23.4375	57.3569	23.4375	53.3027	23.4375	57.0224	23.4375	53.4367	23.4375	56.6405	23.4375	53.6714	23.4375	56.2182	23.4375	53.995	23.4375	55.7657	23.4375	54.389	23.4375	55.2972	23.4375	54.8309
24.9023	57.5684	24.9023	57.1942	24.9023	57.8937	24.9023	56.7756	24.9023	58.167	24.9023	56.3189	24.9023	58.3857	24.9023	55.8329	24.9023	58.5479	24.9023	55.3296	24.9023	58.6516	24.9023	54.825	24.9023	58.6954	24.9023	54.3387	24.9023	58.6777	24.9023	53.8927	24.9023	58.5973	24.9023	53.5098	24.9023	58.4532	24.9023	53.2102	24.9023	58.2448	24.9023	53.0097	24.9023	57.9721	24.9023	52.9188	24.9023	57.6361	24.9023	52.9434	24.9023	57.2394	24.9023	53.0852	24.9023	56.7871	24.9023	53.3411	24.9023	56.2873	24.9023	53.7016	24.9023	55.753	24.9023	54.1488	24.9023	55.2022	24.9023	54.6583
26.3672	57.5371	26.3672	57.0626	26.3672	57.9461	26.3672	56.5259	26.3672	58.2876	26.3672	55.9323	26.3672	58.5603	26.3672	55.2903	26.3672	58.7629	26.3672	54.6133	26.3672	58.8942	26.3672	53.9205	26.3672	58.9529	26.3672	53.2381	26.3672	58.9374	26.3672	52.5986	26.3672	58.846	26.3672	52.0373	26.3672	58.6767	26.3672	51.5881	26.3672	58.4274	26.3672	51.2786	26.3672	58.0961	26.3672	51.129	26.3672	57.6813	26.3672	51.1525	26.3672	57.1829	26.3672	51.3565	26.3672	56.6029	26.3672	51.7385	26.3672	55.9472	26.3672	52.2804	26.3672	55.228	26.3672	52.947	26.3672	54.4658	26.3672	53.6916
27.832	57.3627	27.832	56.7689	27.832	57.8707	27.832	56.0879	27.832	58.2948	27.832	55.3195	27.832	58.6364	27.832	54.4661	27.832	58.8965	27.832	53.5352	27.832	59.0756	27.832	52.5431	27.832	59.1732	27.832	51.5188	27.832	59.1881	27.832	50.5092	27.832	59.1185	27.832	49.5808	27.832	58.9616	27.832	48.816	27.832	58.7139	27.832	48.3016	27.832	58.371	27.832	48.1103	27.832	57.9278	27.832	48.2835	27.832	57.3787	27.832	48.8155	27.832	56.7184	27.832	49.6479	27.832	55.9431	27.832	50.6843	27.832	55.0523	27.832	51.8188	27.832	54.0525	27.832	52.9623
29.2969	59.1697	29.2969	58.594	29.2969	59.6652	29.2969	57.9372	29.2969	60.0816	29.2969	57.1999	29.2969	60.4195	29.2969	56.3849	29.2969	60.6796	29.2969	55.5001	29.2969	60.8616	29.2969	54.5613	29.2969	60.9649	29.2969	53.5969	29.2969	60.9883	29.2969	52.6529	29.2969	60.9299	29.2969	51.7959	29.2969	60.7873	29.2969	51.11	29.2969	60.5577	29.2969	50.6831	29.2969	60.2379	29.2969	50.5831	29.2969	59.8243	29.2969	50.8341	29.2969	59.3135	29.2969	51.4061	29.2969	58.7023	29.2969	52.2255	29.2969	57.9891	29.2969	53.1997	29.2969	57.175	29.2969	54.2405	29.2969	56.2664	29.2969	55.2786
30.7617	58.0605	30.7617	57.3447	30.7617	58.6581	30.7617	56.5008	30.7617	59.146	30.7617	55.5185	30.7617	59.5307	30.7617	54.3895	30.7617	59.8172	30.7617	53.1128	30.7617	60.0084	30.7617	51.7051	30.7617	60.1056	30.7617	50.2195	30.7617	60.1087	30.7617	48.7698	30.7617	60.0161	30.7617	47.5351	30.7617	59.8244	30.7617	46.695	30.7617	59.5288	30.7617	46.3128	30.7617	59.1231	30.7617	46.32	30.7617	58.5989	30.7617	46.6416	30.7617	57.9465	30.7617	47.28	30.7617	57.1551	30.7617	48.2638	30.7617	56.2141	30.7617	49.5473	30.7617	55.1159	30.7617	50.9984	30.7617	53.8616	30.7617	52.471
32.2266	56.3996	32.2266	55.3726	32.2266	57.2302	32.2266	54.1155	32.2266	57.89	32.2266	52.588	32.2266	58.3979	32.2266	50.7519	32.2266	58.767	32.2266	48.6173	32.2266	59.0061	32.2266	46.4067	32.2266	59.1195	32.2266	44.8715	32.2266	59.1079	32.2266	44.8624	32.2266	58.9683	32.2266	45.9051	32.2266	58.6941	32.2266	47.01	32.2266	58.2746	32.2266	47.7271	32.2266	57.6939	32.2266	47.9303	32.2266	56.9298	32.2266	47.5719	32.2266	55.9509	32.2266	46.611	32.2266	54.7136	32.2266	45.0739	32.2266	53.1575	32.2266	43.4745	32.2266	51.2038	32.2266	43.5647	32.2266	48.7739	32.2266	45.9392
33.6914	58.9146	33.6914	58.1791	33.6914	59.5565	33.6914	57.3745	33.6914	60.0931	33.6914	56.548	33.6914	60.5197	33.6914	55.7774	33.6914	60.8345	33.6914	55.1678	33.6914	61.0363	33.6914	54.818	33.6914	61.1241	33.6914	54.7627	33.6914	61.0957	33.6914	54.9436	33.6914	60.9482	33.6914	55.2419	33.6914	60.6772	33.6914	55.5364	33.6914	60.2779	33.6914	55.736	33.6914	59.7445	33.6914	55.7842	33.6914	59.0732	33.6914	55.6543	33.6914	58.265	33.6914	55.3488	33.6914	57.3344	33.6914	54.9088	33.6914	56.3256	33.6914	54.4329	33.6914	55.3355	33.6914	54.092	33.6914	54.5281	33.6914	54.0879
35.1563	61.2372	35.1563	60.7768	35.1563	61.6749	35.1563	60.3259	35.1563	62.0664	35.1563	59.925	35.1563	62.3953	35.1563	59.6169	35.1563	62.6509	35.1563	59.4359	35.1563	62.8257	35.1563	59.3947	35.1563	62.9147	35.1563	59.4773	35.1563	62.9143	35.1563	59.6434	35.1563	62.8223	35.1563	59.8418	35.1563	62.6379	35.1563	60.0225	35.1563	62.3627	35.1563	60.1458	35.1563	62.0014	35.1563	60.1857	35.1563	61.5644	35.1563	60.131	35.1563	61.0713	35.1563	59.9871	35.1563	60.5542	35.1563	59.7785	35.1563	60.0611	35.1563	59.5502	35.1563	59.652	35.1563	59.3655	35.1563	59.3852	35.1563	59.2934
36.6211	63.3032	36.6211	63.0585	36.6211	63.5544	36.6211	62.8418	36.6211	63.7933	36.6211	62.6746	36.6211	64.0047	36.6211	62.5747	36.6211	64.1767	36.6211	62.5517	36.6211	64.3007	36.6211	62.6033	36.6211	64.3706	36.6211	62.715	36.6211	64.3826	36.6211	62.8628	36.6211	64.3351	36.6211	63.0184	36.6211	64.2287	36.6211	63.154	36.6211	64.0671	36.6211	63.2467	36.6211	63.8575	36.6211	63.2807	36.6211	63.6117	36.6211	63.2498	36.6211	63.3476	36.6211	63.1582	36.6211	63.0889	36.6211	63.0213	36.6211	62.8641	36.6211	62.8655	36.6211	62.7016	36.6211	62.7248	36.6211	62.6229	36.6211	62.6347
38.0859	63.0026	38.0859	62.7443	38.0859	63.2732	38.0859	62.5211	38.0859	63.5352	38.0859	62.3554	38.0859	63.7715	38.0859	62.264	38.0859	63.9684	38.0859	62.2539	38.0859	64.1153	38.0859	62.3186	38.0859	64.2044	38.0859	62.4388	38.0859	64.2296	38.0859	62.5858	38.0859	64.1868	38.0859	62.7276	38.0859	64.0735	38.0859	62.8336	38.0859	63.8898	38.0859	62.879	38.0859	63.6388	38.0859	62.8475	38.0859	63.3288	38.0859	62.7338	38.0859	62.9752	38.0859	62.5463	38.0859	62.604	38.0859	62.3092	38.0859	62.2527	38.0859	62.0636	38.0859	61.9677	38.0859	61.8629	38.0859	61.7947	38.0859	61.7611
39.5508	64.2898	39.5508	64.4333	39.5508	64.1955	39.5508	64.63	39.5508	64.1418	39.5508	64.8778	39.5508	64.1176	39.5508	65.1679	39.5508	64.1115	39.5508	65.4852	39.5508	64.1129	39.5508	65.8107	39.5508	64.1131	39.5508	66.1233	39.5508	64.1058	39.5508	66.402	39.5508	64.0876	39.5508	66.6273	39.5508	64.0581	39.5508	66.7827	39.5508	64.021	39.5508	66.855	39.5508	63.9846	39.5508	66.8355	39.5508	63.9626	39.5508	66.7206	39.5508	63.9735	39.5508	66.5127	39.5508	64.0388	39.5508	66.2218	39.5508	64.1778	39.5508	65.866	39.5508	64.4016	39.5508	65.4722	39.5508	64.7066	39.5508	65.0739
41.0156	69.0518	41.0156	69.2429	41.0156	68.8775	41.0156	69.4484	41.0156	68.7211	41.0156	69.6639	41.0156	68.5821	41.0156	69.8839	41.0156	68.4594	41.0156	70.1012	41.0156	68.351	41.0156	70.3076	41.0156	68.2556	41.0156	70.4944	41.0156	68.1724	41.0156	70.6525	41.0156	68.1025	41.0156	70.7728	41.0156	68.0491	41.0156	70.847	41.0156	68.0182	41.0156	70.8676	41.0156	68.0182	41.0156	70.829	41.0156	68.0595	41.0156	70.7279	41.0156	68.1522	41.0156	70.564	41.0156	68.3039	41.0156	70.3411	41.0156	68.5163	41.0156	70.0673	41.0156	68.7837	41.0156	69.7556	41.0156	69.0926	41.0156	69.4238
42.4805	70.612	42.4805	70.6846	42.4805	70.5433	42.4805	70.7615	42.4805	70.4778	42.4805	70.843	42.4805	70.4146	42.4805	70.9283	42.4805	70.3528	42.4805	71.0163	42.4805	70.2921	42.4805	71.1047	42.4805	70.2326	42.4805	71.1905	42.4805	70.1752	42.4805	71.2695	42.4805	70.1223	42.4805	71.337	42.4805	70.0774	42.4805	71.3875	42.4805	70.0455	42.4805	71.4155	42.4805	70.0329	42.4805	71.4158	42.4805	70.0459	42.4805	71.3844	42.4805	70.0904	42.4805	71.319	42.4805	70.1697	42.4805	71.2196	42.4805	70.2834	42.4805	71.0893	42.4805	70.4268	42.4805	70.9345	42.4805	70.591	42.4805	70.7645
43.9453	70.4111	43.9453	70.44	43.9453	70.401	43.9453	70.4896	43.9453	70.4072	43.9453	70.5609	43.9453	70.4273	43.9453	70.6538	43.9453	70.4589	43.9453	70.7665	43.9453	70.5002	43.9453	70.8959	43.9453	70.5501	43.9453	71.0371	43.9453	70.608	43.9453	71.1843	43.9453	70.6741	43.9453	71.3308	43.9453	70.7488	43.9453	71.4696	43.9453	70.8331	43.9453	71.594	43.9453	70.9277	43.9453	71.698	43.9453	71.0327	43.9453	71.7766	43.9453	71.1469	43.9453	71.8262	43.9453	71.2679	43.9453	71.8445	43.9453	71.3914	43.9453	71.8311	43.9453	71.5116	43.9453	71.7872	43.9453	71.6221	43.9453	71.7159
45.4102	70.494	45.4102	70.5751	45.4102	70.4227	45.4102	70.6645	45.4102	70.3626	45.4102	70.7603	45.4102	70.3148	45.4102	70.8602	45.4102	70.2801	45.4102	70.9615	45.4102	70.2595	45.4102	71.0612	45.4102	70.2533	45.4102	71.1559	45.4102	70.262	45.4102	71.2417	45.4102	70.2857	45.4102	71.3148	45.4102	70.3242	45.4102	71.3716	45.4102	70.3768	45.4102	71.409	45.4102	70.4426	45.4102	71.4249	45.4102	70.5201	45.4102	71.4183	45.4102	70.6073	45.4102	71.3896	45.4102	70.702	45.4102	71.3405	45.4102	70.8017	45.4102	71.274	45.4102	70.9035	45.4102	71.1935	45.4102	71.0048	45.4102	71.1026
46.875	70.793	46.875	70.8628	46.875	70.7287	46.875	70.9373	46.875	70.671	46.875	71.0149	46.875	70.6207	46.875	71.0939	46.875	70.5786	46.875	71.1722	46.875	70.5452	46.875	71.2471	46.875	70.5214	46.875	71.3154	46.875	70.5077	46.875	71.3739	46.875	70.5045	46.875	71.419	46.875	70.5123	46.875	71.4476	46.875	70.5311	46.875	71.457	46.875	70.5611	46.875	71.4459	46.875	70.6019	46.875	71.414	46.875	70.6532	46.875	71.363	46.875	70.7145	46.875	71.2955	46.875	70.7849	46.875	71.2158	46.875	70.8635	46.875	71.1285	46.875	70.9487	46.875	71.0381
48.3398	71.7216	48.3398	71.7843	48.3398	71.6653	48.3398	71.8524	48.3398	71.6165	48.3398	71.9243	48.3398	71.5757	48.3398	71.9982	48.3398	71.5435	48.3398	72.0719	48.3398	71.5201	48.3398	72.1428	48.3398	71.5055	48.3398	72.208	48.3398	71.4998	48.3398	72.2645	48.3398	71.5027	48.3398	72.3091	48.3398	71.5142	48.3398	72.3389	48.3398	71.5341	48.3398	72.3515	48.3398	71.5622	48.3398	72.3454	48.3398	71.5986	48.3398	72.3202	48.3398	71.6435	48.3398	72.277	48.3398	71.697	48.3398	72.2181	48.3398	71.759	48.3398	72.1472	48.3398	71.829	48.3398	72.0685	48.3398	71.9056	48.3398	71.9866
51.2695	72.8316	51.2695	72.8768	51.2695	72.7893	51.2695	72.924	51.2695	72.7511	51.2695	72.972	51.2695	72.7179	51.2695	73.0199	51.2695	72.6906	51.2695	73.0666	51.2695	72.6701	51.2695	73.1108	51.2695	72.6569	51.2695	73.1513	51.2695	72.6513	51.2695	73.1866	51.2695	72.6533	51.2695	73.215	51.2695	72.663	51.2695	73.2349	51.2695	72.6799	51.2695	73.2446	51.2695	72.7036	51.2695	73.2432	51.2695	72.7338	51.2695	73.2299	51.2695	72.77	51.2695	73.2049	51.2695	72.8119	51.2695	73.1694	51.2695	72.8588	51.2695	73.125	51.2695	72.91	51.2695	73.0742	51.2695	72.9643	51.2695	73.0198
52.7344	73.0208	52.7344	73.0638	52.7344	72.9808	52.7344	73.1091	52.7344	72.9448	52.7344	73.1557	52.7344	72.9137	52.7344	73.2027	52.7344	72.8884	52.7344	73.249	52.7344	72.8695	52.7344	73.2935	52.7344	72.8577	52.7344	73.3349	52.7344	72.8537	52.7344	73.3718	52.7344	72.8576	52.7344	73.4026	52.7344	72.8696	52.7344	73.4258	52.7344	72.8895	52.7344	73.4399	52.7344	72.9172	52.7344	73.4438	52.7344	72.952	52.7344	73.4369	52.7344	72.9934	52.7344	73.4188	52.7344	73.0402	52.7344	73.3903	52.7344	73.0915	52.7344	73.3524	52.7344	73.1458	52.7344	73.3068	52.7344	73.2012	52.7344	73.2556
54.1992	73.3507	54.1992	73.3941	54.1992	73.3096	54.1992	73.4388	54.1992	73.2716	54.1992	73.4839	54.1992	73.2378	54.1992	73.5282	54.1992	73.2089	54.1992	73.5708	54.1992	73.1859	54.1992	73.6103	54.1992	73.1695	54.1992	73.6455	54.1992	73.1603	54.1992	73.675	54.1992	73.1587	54.1992	73.6974	54.1992	73.1649	54.1992	73.7114	54.1992	73.1789	54.1992	73.7161	54.1992	73.2005	54.1992	73.7108	54.1992	73.2291	54.1992	73.6953	54.1992	73.2642	54.1992	73.6702	54.1992	73.3048	54.1992	73.6365	54.1992	73.35	54.1992	73.5956	54.1992	73.3985	54.1992	73.5495	54.1992	73.4491	54.1992	73.5
55.6641	73.9978	55.6641	74.0369	55.6641	73.9605	55.6641	74.0765	55.6641	73.9259	55.6641	74.1159	55.6641	73.8951	55.6641	74.1539	55.6641	73.8689	55.6641	74.1896	55.6641	73.8484	55.6641	74.2221	55.6641	73.8342	55.6641	74.2506	55.6641	73.8268	55.6641	74.274	55.6641	73.8268	55.6641	74.2915	55.6641	73.8341	55.6641	74.3024	55.6641	73.8486	55.6641	74.3061	55.6641	73.8699	55.6641	74.3022	55.6641	73.8975	55.6641	74.2905	55.6641	73.9305	55.6641	74.2714	55.6641	73.9678	55.6641	74.2454	55.6641	74.0083	55.6641	74.2135	55.6641	74.0509	55.6641	74.1768	55.6641	74.0941	55.6641	74.1365
58.5938	74.6939	58.5938	74.725	58.5938	74.6642	58.5938	74.7565	58.5938	74.6368	58.5938	74.7874	58.5938	74.6131	58.5938	74.8169	58.5938	74.5938	58.5938	74.8442	58.5938	74.5802	58.5938	74.8689	58.5938	74.5728	58.5938	74.8902	58.5938	74.5723	58.5938	74.908	58.5938	74.5789	58.5938	74.9218	58.5938	74.5924	58.5938	74.9315	58.5938	74.6124	58.5938	74.937	58.5938	74.6378	58.5938	74.9381	58.5938	74.6676	58.5938	74.9349	58.5938	74.7002	58.5938	74.9275	58.5938	74.7342	58.5938	74.916	58.5938	74.768	58.5938	74.9004	58.5938	74.8005	58.5938	74.8808	58.5938	74.8305	58.5938	74.8575
60.0586	75.0546	60.0586	75.0826	60.0586	75.0277	60.0586	75.1106	60.0586	75.0028	60.0586	75.1378	60.0586	74.981	60.0586	75.1634	60.0586	74.9631	60.0586	75.1868	60.0586	74.9502	60.0586	75.2076	60.0586	74.9429	60.0586	75.2254	60.0586	74.9417	60.0586	75.2402	60.0586	74.9469	60.0586	75.2517	60.0586	74.9584	60.0586	75.2601	60.0586	74.9759	60.0586	75.2653	60.0586	74.9987	60.0586	75.2673	60.0586	75.0258	60.0586	75.2661	60.0586	75.0559	60.0586	75.2614	60.0586	75.0876	60.0586	75.253	60.0586	75.1195	60.0586	75.2406	60.0586	75.1502	60.0586	75.2241	60.0586	75.1784	60.0586	75.2032
62.9883	75.6922	62.9883	75.7141	62.9883	75.669	62.9883	75.7336	62.9883	75.6454	62.9883	75.7502	62.9883	75.6225	62.9883	75.7633	62.9883	75.6015	62.9883	75.7727	62.9883	75.5835	62.9883	75.7783	62.9883	75.5697	62.9883	75.7805	62.9883	75.561	62.9883	75.7798	62.9883	75.5581	62.9883	75.7769	62.9883	75.5612	62.9883	75.7725	62.9883	75.5702	62.9883	75.7674	62.9883	75.5846	62.9883	75.7621	62.9883	75.6032	62.9883	75.7571	62.9883	75.6247	62.9883	75.7523	62.9883	75.6475	62.9883	75.7472	62.9883	75.6699	62.9883	75.741	62.9883	75.6904	62.9883	75.733	62.9883	75.708	62.9883	75.7222
64.4531	75.9497	64.4531	75.9765	64.4531	75.9192	64.4531	75.9983	64.4531	75.8862	64.4531	76.0144	64.4531	75.8522	64.4531	76.0242	64.4531	75.8188	64.4531	76.0276	64.4531	75.7877	64.4531	76.0248	64.4531	75.7604	64.4531	76.0162	64.4531	75.7384	64.4531	76.0028	64.4531	75.7226	64.4531	75.9855	64.4531	75.7135	64.4531	75.9657	64.4531	75.7114	64.4531	75.9446	64.4531	75.7156	64.4531	75.9234	64.4531	75.7252	64.4531	75.9031	64.4531	75.7388	64.4531	75.8844	64.4531	75.7549	64.4531	75.8672	64.4531	75.7722	64.4531	75.8515	64.4531	75.7894	64.4531	75.8365	64.4531	75.8059	64.4531	75.8215
67.3828	76.6697	67.3828	76.7045	67.3828	76.628	67.3828	76.7312	67.3828	76.5813	67.3828	76.7485	67.3828	76.5315	67.3828	76.7561	67.3828	76.4807	67.3828	76.7536	67.3828	76.4311	67.3828	76.7414	67.3828	76.3848	67.3828	76.7201	67.3828	76.3435	67.3828	76.691	67.3828	76.3087	67.3828	76.6553	67.3828	76.2813	67.3828	76.6149	67.3828	76.2617	67.3828	76.5716	67.3828	76.2497	67.3828	76.5273	67.3828	76.2447	67.3828	76.4837	67.3828	76.2459	67.3828	76.4424	67.3828	76.2522	67.3828	76.4045	67.3828	76.2628	67.3828	76.3708	67.3828	76.2771	67.3828	76.3414	67.3828	76.2949	67.3828	76.3162
68.8477	77.1014	68.8477	77.1317	68.8477	77.065	68.8477	77.1544	68.8477	77.024	68.8477	77.1686	68.8477	76.9803	68.8477	77.1735	68.8477	76.9358	68.8477	77.1689	68.8477	76.8922	68.8477	77.1551	68.8477	76.8514	68.8477	77.1328	68.8477	76.8146	68.8477	77.1032	68.8477	76.7831	68.8477	77.0677	68.8477	76.7576	68.8477	77.0282	68.8477	76.7384	68.8477	76.9865	68.8477	76.7255	68.8477	76.9445	68.8477	76.7185	68.8477	76.9042	68.8477	76.7168	68.8477	76.867	68.8477	76.7195	68.8477	76.8341	68.8477	76.7259	68.8477	76.8058	68.8477	76.7353	68.8477	76.7823	68.8477	76.7477	68.8477	76.7632
71.7773	77.8764	71.7773	77.8784	71.7773	77.8682	71.7773	77.8734	71.7773	77.8548	71.7773	77.8611	71.7773	77.837	71.7773	77.841	71.7773	77.8157	71.7773	77.8135	71.7773	77.7917	71.7773	77.7792	71.7773	77.7654	71.7773	77.7391	71.7773	77.7373	71.7773	77.6947	71.7773	77.7076	71.7773	77.6479	71.7773	77.6768	71.7773	77.6007	71.7773	77.645	71.7773	77.5553	71.7773	77.6126	71.7773	77.5139	71.7773	77.5802	71.7773	77.4783	71.7773	77.5484	71.7773	77.4504	71.7773	77.5177	71.7773	77.4311	71.7773	77.4892	71.7773	77.4212	71.7773	77.4639	71.7773	77.4204	71.7773	77.4431	71.7773	77.4281
74.707	77.8705	74.707	77.8592	74.707	77.8799	74.707	77.8457	74.707	77.8875	74.707	77.8303	74.707	77.8935	74.707	77.813	74.707	77.8979	74.707	77.7946	74.707	77.9005	74.707	77.7758	74.707	77.901	74.707	77.7578	74.707	77.8991	74.707	77.7416	74.707	77.8947	74.707	77.7282	74.707	77.8876	74.707	77.7185	74.707	77.8779	74.707	77.7126	74.707	77.8657	74.707	77.7106	74.707	77.8514	74.707	77.7122	74.707	77.8355	74.707	77.7167	74.707	77.8187	74.707	77.7237	74.707	77.8016	74.707	77.7326	74.707	77.785	74.707	77.7432	74.707	77.7696	74.707	77.7556
77.6367	78.3664	77.6367	78.3713	77.6367	78.3628	77.6367	78.3774	77.6367	78.3605	77.6367	78.3849	77.6367	78.3598	77.6367	78.394	77.6367	78.3614	77.6367	78.4049	77.6367	78.3659	77.6367	78.4181	77.6367	78.374	77.6367	78.4337	77.6367	78.3865	77.6367	78.4519	77.6367	78.4037	77.6367	78.4727	77.6367	78.4257	77.6367	78.4961	77.6367	78.4521	77.6367	78.5214	77.6367	78.482	77.6367	78.548	77.6367	78.514	77.6367	78.5745	77.6367	78.5463	77.6367	78.5994	77.6367	78.577	77.6367	78.6208	77.6367	78.6042	77.6367	78.6369	77.6367	78.6258	77.6367	78.6461	77.6367	78.6406	77.6367	78.6475
79.1016	78.9421	79.1016	78.9641	79.1016	78.9207	79.1016	78.9851	79.1016	78.9016	79.1016	79.0038	79.1016	78.8864	79.1016	79.0196	79.1016	78.877	79.1016	79.0317	79.1016	78.8749	79.1016	79.0401	79.1016	78.8813	79.1016	79.0452	79.1016	78.8967	79.1016	79.0479	79.1016	78.9209	79.1016	79.0494	79.1016	78.9528	79.1016	79.0513	79.1016	78.9904	79.1016	79.0551	79.1016	79.0308	79.1016	79.0622	79.1016	79.0709	79.1016	79.0733	79.1016	79.1074	79.1016	79.0886	79.1016	79.1371	79.1016	79.1072	79.1016	79.158	79.1016	79.1271	79.1016	79.1687	79.1016	79.146	79.1016	79.1693	79.1016	79.161
82.0313	79.4452	82.0313	79.4541	82.0313	79.4352	82.0313	79.4612	82.0313	79.4247	82.0313	79.4657	82.0313	79.4146	82.0313	79.4672	82.0313	79.4055	82.0313	79.4651	82.0313	79.398	82.0313	79.4595	82.0313	79.3927	82.0313	79.4505	82.0313	79.3898	82.0313	79.4386	82.0313	79.3893	82.0313	79.4246	82.0313	79.3909	82.0313	79.4095	82.0313	79.394	82.0313	79.3947	82.0313	79.3975	82.0313	79.3813	82.0313	79.4004	82.0313	79.3706	82.0313	79.4016	82.0313	79.3633	82.0313	79.4002	82.0313	79.3601	82.0313	79.3959	82.0313	79.3609	82.0313	79.3892	82.0313	79.3654	82.0313	79.3809	82.0313	79.3725
84.9609	79.5679	84.9609	79.5594	84.9609	79.5794	84.9609	79.5544	84.9609	79.594	84.9609	79.5531	84.9609	79.6116	84.9609	79.5564	84.9609	79.6323	84.9609	79.5647	84.9609	79.6564	84.9609	79.5789	84.9609	79.6838	84.9609	79.5996	84.9609	79.7145	84.9609	79.6271	84.9609	79.7483	84.9609	79.6614	84.9609	79.7845	84.9609	79.702	84.9609	79.8221	84.9609	79.7475	84.9609	79.8601	84.9609	79.7959	84.9609	79.8967	84.9609	79.8447	84.9609	79.9306	84.9609	79.8911	84.9609	79.9599	84.9609	79.9321	84.9609	79.9832	84.9609	79.9654	84.9609	79.9989	84.9609	79.9893	84.9609	80.0058	84.9609	80.0027
87.8906	79.9346	87.8906	79.9348	87.8906	79.9384	87.8906	79.9387	87.8906	79.947	87.8906	79.9467	87.8906	79.9616	87.8906	79.9593	87.8906	79.9836	87.8906	79.9779	87.8906	80.0147	87.8906	80.0038	87.8906	80.0562	87.8906	80.0384	87.8906	80.1088	87.8906	80.0828	87.8906	80.1725	87.8906	80.1374	87.8906	80.2459	87.8906	80.202	87.8906	80.3266	87.8906	80.2752	87.8906	80.4109	87.8906	80.3545	87.8906	80.4945	87.8906	80.4364	87.8906	80.5722	87.8906	80.5166	87.8906	80.6393	87.8906	80.5904	87.8906	80.6913	87.8906	80.6531	87.8906	80.7249	87.8906	80.7006	87.8906	80.7379	87.8906	80.7295
90.8203	80.1743	90.8203	80.1637	90.8203	80.1825	90.8203	80.1507	90.8203	80.1895	90.8203	80.1364	90.8203	80.1973	90.8203	80.1229	90.8203	80.2089	90.8203	80.1138	90.8203	80.2274	90.8203	80.1132	90.8203	80.2566	90.8203	80.1262	90.8203	80.2996	90.8203	80.1575	90.8203	80.3589	90.8203	80.2107	90.8203	80.4354	90.8203	80.2878	90.8203	80.5282	90.8203	80.3877	90.8203	80.6338	90.8203	80.5064	90.8203	80.7465	90.8203	80.6368	90.8203	80.8589	90.8203	80.7695	90.8203	80.9621	90.8203	80.8939	90.8203	81.0473	90.8203	80.9999	90.8203	81.1064	90.8203	81.0787	90.8203	81.1332	90.8203	81.1241
95.2148	81.6278	95.2148	81.6175	95.2148	81.6276	95.2148	81.5964	95.2148	81.6174	95.2148	81.5645	95.2148	81.5979	95.2148	81.5218	95.2148	81.5698	95.2148	81.4686	95.2148	81.5344	95.2148	81.4057	95.2148	81.4928	95.2148	81.3342	95.2148	81.4465	95.2148	81.2558	95.2148	81.3967	95.2148	81.1731	95.2148	81.3447	95.2148	81.0896	95.2148	81.2914	95.2148	81.0094	95.2148	81.2373	95.2148	80.9373	95.2148	81.1828	95.2148	80.878	95.2148	81.1276	95.2148	80.8358	95.2148	81.0717	95.2148	80.8135	95.2148	81.0154	95.2148	80.8118	95.2148	80.96	95.2148	80.8294	95.2148	80.9079	95.2148	80.8629
98.1445	81.6279	98.1445	81.6133	98.1445	81.6348	98.1445	81.5912	98.1445	81.6343	98.1445	81.5622	98.1445	81.6274	98.1445	81.5275	98.1445	81.6151	98.1445	81.4888	98.1445	81.5993	98.1445	81.4486	98.1445	81.5817	98.1445	81.4098	98.1445	81.5645	98.1445	81.3755	98.1445	81.5498	98.1445	81.3491	98.1445	81.5394	98.1445	81.3332	98.1445	81.5344	98.1445	81.3299	98.1445	81.5351	98.1445	81.3396	98.1445	81.5406	98.1445	81.3615	98.1445	81.5489	98.1445	81.3929	98.1445	81.5573	98.1445	81.4301	98.1445	81.5626	98.1445	81.4686	98.1445	81.5615	98.1445	81.5039	98.1445	81.5518	98.1445	81.5324
101.074	82.0605	101.074	82.0405	101.074	82.0692	101.074	82.0094	101.074	82.0672	101.074	81.9675	101.074	82.0549	101.074	81.9158	101.074	82.0335	101.074	81.8558	101.074	82.0043	101.074	81.7897	101.074	81.969	101.074	81.7204	101.074	81.9297	101.074	81.6515	101.074	81.8885	101.074	81.587	101.074	81.8473	101.074	81.5311	101.074	81.8081	101.074	81.4874	101.074	81.7721	101.074	81.4588	101.074	81.7397	101.074	81.4466	101.074	81.7105	101.074	81.4503	101.074	81.6833	101.074	81.4677	101.074	81.6564	101.074	81.4951	101.074	81.628	101.074	81.5283	101.074	81.597	101.074	81.5632
105.469	82.4096	105.469	82.3868	105.469	82.4206	105.469	82.352	105.469	82.4204	105.469	82.306	105.469	82.4101	105.469	82.2502	105.469	82.3915	105.469	82.1865	105.469	82.3663	105.469	82.1181	105.469	82.3369	105.469	82.0484	105.469	82.3053	105.469	81.9814	105.469	82.2736	105.469	81.9215	105.469	82.2432	105.469	81.8725	105.469	82.215	105.469	81.8378	105.469	82.1893	105.469	81.8194	105.469	82.1653	105.469	81.8179	105.469	82.1418	105.469	81.832	105.469	82.1171	105.469	81.8592	105.469	82.0894	105.469	81.8957	105.469	82.0574	105.469	81.9373	105.469	82.0208	105.469	81.98
108.398	82.611	108.398	82.5822	108.398	82.6255	108.398	82.5395	108.398	82.6261	108.398	82.484	108.398	82.6138	108.398	82.4178	108.398	82.5902	108.398	82.3436	108.398	82.5576	108.398	82.265	108.398	82.5187	108.398	82.1864	108.398	82.4764	108.398	82.1125	108.398	82.4336	108.398	82.0484	108.398	82.393	108.398	81.9984	108.398	82.3566	108.398	81.9661	108.398	82.3255	108.398	81.9531	108.398	82.2997	108.398	81.9592	108.398	82.2779	108.398	81.982	108.398	82.2579	108.398	82.0172	108.398	82.2371	108.398	82.0597	108.398	82.2126	108.398	82.1041	108.398	82.1825	108.398	82.146
112.793	83.023	112.793	82.9877	112.793	83.0452	112.793	82.9398	112.793	83.0546	112.793	82.8807	112.793	83.0518	112.793	82.8124	112.793	83.0385	112.793	82.7376	112.793	83.0165	112.793	82.6598	112.793	82.9883	112.793	82.5834	112.793	82.9564	112.793	82.513	112.793	82.9235	112.793	82.4533	112.793	82.8916	112.793	82.4089	112.793	82.8622	112.793	82.383	112.793	82.836	112.793	82.3775	112.793	82.8127	112.793	82.3919	112.793	82.7907	112.793	82.4239	112.793	82.7682	112.793	82.4688	112.793	82.7426	112.793	82.5214	112.793	82.7114	112.793	82.5759	112.793	82.6732	112.793	82.6276
117.188	83.6638	117.188	83.654	117.188	83.662	117.188	83.6323	117.188	83.6489	117.188	83.5986	117.188	83.6254	117.188	83.553	117.188	83.5923	117.188	83.4962	117.188	83.551	117.188	83.4294	117.188	83.503	117.188	83.3543	117.188	83.4503	117.188	83.2736	117.188	83.395	117.188	83.1912	117.188	83.339	117.188	83.1113	117.188	83.2844	117.188	83.0389	117.188	83.2325	117.188	82.9786	117.188	83.1844	117.188	82.9344	117.188	83.1402	117.188	82.9082	117.188	83.0994	117.188	82.9	117.188	83.0611	117.188	82.9078	117.188	83.0244	117.188	82.9279	117.188	82.9891	117.188	82.9562
120.117	84.3771	120.117	84.3841	120.117	84.3585	120.117	84.3786	120.117	84.3297	120.117	84.3599	120.117	84.2921	120.117	84.3279	120.117	84.2474	120.117	84.283	120.117	84.1974	120.117	84.2262	120.117	84.1438	120.117	84.1592	120.117	84.0881	120.117	84.0844	120.117	84.0318	120.117	84.0046	120.117	83.9761	120.117	83.9236	120.117	83.9219	120.117	83.8453	120.117	83.8702	120.117	83.7737	120.117	83.8213	120.117	83.7126	120.117	83.7757	120.117	83.6646	120.117	83.7338	120.117	83.6315	120.117	83.6961	120.117	83.6136	120.117	83.6633	120.117	83.6098	120.117	83.6368	120.117	83.6183
124.512	84.403	124.512	84.3677	124.512	84.4254	124.512	84.3202	124.512	84.4344	124.512	84.2622	124.512	84.4305	124.512	84.1956	124.512	84.4145	124.512	84.1227	124.512	84.3877	124.512	84.0462	124.512	84.3522	124.512	83.969	124.512	84.3098	124.512	83.8941	124.512	84.2626	124.512	83.8246	124.512	84.2125	124.512	83.7632	124.512	84.161	124.512	83.7128	124.512	84.1091	124.512	83.6755	124.512	84.0572	124.512	83.6531	124.512	84.0055	124.512	83.6461	124.512	83.9538	124.512	83.6544	124.512	83.902	124.512	83.6765	124.512	83.8503	124.512	83.7101	124.512	83.7998	124.512	83.7522
128.906	84.1782	128.906	84.1472	128.906	84.1961	128.906	84.1042	128.906	84.2006	128.906	84.0513	128.906	84.1925	128.906	83.9911	128.906	84.1734	128.906	83.9267	128.906	84.1461	128.906	83.8615	128.906	84.1138	128.906	83.7991	128.906	84.0797	128.906	83.7428	128.906	84.0467	128.906	83.6957	128.906	84.017	128.906	83.6604	128.906	83.9916	128.906	83.6386	128.906	83.9703	128.906	83.631	128.906	83.9519	128.906	83.6372	128.906	83.9343	128.906	83.6558	128.906	83.9154	128.906	83.6843	128.906	83.8931	128.906	83.7198	128.906	83.8662	128.906	83.7587	128.906	83.8341	128.906	83.7977
133.301	84.2101	133.301	84.1869	133.301	84.2223	133.301	84.153	133.301	84.2238	133.301	84.1096	133.301	84.2158	133.301	84.0587	133.301	84.2002	133.301	84.0031	133.301	84.1795	133.301	83.9459	133.301	84.1563	133.301	83.8911	133.301	84.1334	133.301	83.8425	133.301	84.1132	133.301	83.8039	133.301	84.0972	133.301	83.7783	133.301	84.0863	133.301	83.7677	133.301	84.0799	133.301	83.7726	133.301	84.0767	133.301	83.792	133.301	84.0741	133.301	83.8234	133.301	84.0697	133.301	83.8631	133.301	84.0606	133.301	83.9066	133.301	84.0447	133.301	83.9497	133.301	84.0207	133.301	83.9886
139.16	84.6508	139.16	84.6178	139.16	84.674	139.16	84.5762	139.16	84.6873	139.16	84.5278	139.16	84.6914	139.16	84.4751	139.16	84.6876	139.16	84.421	139.16	84.6783	139.16	84.369	139.16	84.666	139.16	84.3228	139.16	84.6538	139.16	84.2858	139.16	84.6439	139.16	84.2611	139.16	84.6383	139.16	84.2508	139.16	84.6372	139.16	84.256	139.16	84.6401	139.16	84.2764	139.16	84.6446	139.16	84.3101	139.16	84.6481	139.16	84.3543	139.16	84.6472	139.16	84.4051	139.16	84.639	139.16	84.4583	139.16	84.6215	139.16	84.5098	139.16	84.5936	139.16	84.5559
143.555	84.7684	143.555	84.7277	143.555	84.7958	143.555	84.6752	143.555	84.8095	143.555	84.6132	143.555	84.8106	143.555	84.5451	143.555	84.801	143.555	84.4753	143.555	84.7837	143.555	84.4084	143.555	84.7627	143.555	84.3493	143.555	84.742	143.555	84.3028	143.555	84.7254	143.555	84.273	143.555	84.7157	143.555	84.2626	143.555	84.7141	143.555	84.2729	143.555	84.72	143.555	84.303	143.555	84.7308	143.555	84.3503	143.555	84.7425	143.555	84.4105	143.555	84.7503	143.555	84.4781	143.555	84.7496	143.555	84.5471	143.555	84.7366	143.555	84.6117	143.555	84.7091	143.555	84.6669
147.949	84.9193	147.949	84.8679	147.949	84.9527	147.949	84.8003	147.949	84.9673	147.949	84.7199	147.949	84.9636	147.949	84.6307	147.949	84.9436	147.949	84.5379	147.949	84.9107	147.949	84.4474	147.949	84.8696	147.949	84.3652	147.949	84.8258	147.949	84.2977	147.949	84.7851	147.949	84.2501	147.949	84.7528	147.949	84.2267	147.949	84.7325	147.949	84.2295	147.949	84.7253	147.949	84.258	147.949	84.7294	147.949	84.3091	147.949	84.7402	147.949	84.3775	147.949	84.7512	147.949	84.456	147.949	84.7551	147.949	84.5365	147.949	84.7458	147.949	84.6112	147.949	84.7191	147.949	84.6736
153.809	85.3109	153.809	85.2623	153.809	85.3379	153.809	85.1935	153.809	85.3428	153.809	85.1071	153.809	85.326	153.809	85.0065	153.809	85.2893	153.809	84.896	153.809	85.2355	153.809	84.7809	153.809	85.1685	153.809	84.6672	153.809	85.0934	153.809	84.5616	153.809	85.0158	153.809	84.4706	153.809	84.9415	153.809	84.4004	153.809	84.8755	153.809	84.3554	153.809	84.8215	153.809	84.338	153.809	84.7809	153.809	84.3474	153.809	84.7518	153.809	84.3801	153.809	84.7301	153.809	84.4298	153.809	84.7098	153.809	84.489	153.809	84.6848	153.809	84.5496	153.809	84.6505	153.809	84.6049
159.668	85.5094	159.668	85.4651	159.668	85.5344	159.668	85.4029	159.668	85.5396	159.668	85.3248	159.668	85.5253	159.668	85.2335	159.668	85.4928	159.668	85.1322	159.668	85.444	159.668	85.0248	159.668	85.3817	159.668	84.9156	159.668	85.3092	159.668	84.8093	159.668	85.2304	159.668	84.7112	159.668	85.1491	159.668	84.6266	159.668	85.0697	159.668	84.5601	159.668	84.9957	159.668	84.5157	159.668	84.9298	159.668	84.4953	159.668	84.8733	159.668	84.4981	159.668	84.8251	159.668	84.5211	159.668	84.7824	159.668	84.5588	159.668	84.7414	159.668	84.6047	159.668	84.6987	159.668	84.6527
165.527	85.4717	165.527	85.4289	165.527	85.496	165.527	85.3696	165.527	85.5016	165.527	85.2966	165.527	85.4895	165.527	85.2143	165.527	85.4623	165.527	85.1271	165.527	85.4234	165.527	85.04	165.527	85.3769	165.527	84.9577	165.527	85.3269	165.527	84.8844	165.527	85.2769	165.527	84.8235	165.527	85.2297	165.527	84.7774	165.527	85.1865	165.527	84.7477	165.527	85.148	165.527	84.7348	165.527	85.1136	165.527	84.7382	165.527	85.0822	165.527	84.7562	165.527	85.052	165.527	84.7861	165.527	85.0212	165.527	84.8244	165.527	84.9879	165.527	84.867	165.527	84.9509	165.527	84.9101
171.387	85.3593	171.387	85.3172	171.387	85.3853	171.387	85.2607	171.387	85.3952	171.387	85.1928	171.387	85.3901	171.387	85.1174	171.387	85.3727	171.387	85.0392	171.387	85.3467	171.387	84.9632	171.387	85.3169	171.387	84.8947	171.387	85.2878	171.387	84.8383	171.387	85.2635	171.387	84.7981	171.387	85.2467	171.387	84.7767	171.387	85.2382	171.387	84.7754	171.387	85.2369	171.387	84.7939	171.387	85.2401	171.387	84.8303	171.387	85.2435	171.387	84.8812	171.387	85.2426	171.387	84.9421	171.387	85.2332	171.387	85.0075	171.387	85.2119	171.387	85.0718	171.387	85.1773	171.387	85.1298
177.246	85.5945	177.246	85.5481	177.246	85.6217	177.246	85.4848	177.246	85.6288	177.246	85.4083	177.246	85.6165	177.246	85.3232	177.246	85.5873	177.246	85.2348	177.246	85.5452	177.246	85.1488	177.246	85.4952	177.246	85.0704	177.246	85.4433	177.246	85.0046	177.246	85.3949	177.246	84.9551	177.246	85.3546	177.246	84.9247	177.246	85.3253	177.246	84.9142	177.246	85.3074	177.246	84.9234	177.246	85.2991	177.246	84.9503	177.246	85.2965	177.246	84.9917	177.246	85.2943	177.246	85.0432	177.246	85.2875	177.246	85.0994	177.246	85.2716	177.246	85.1549	177.246	85.244	177.246	85.2044
183.105	85.5029	183.105	85.4476	183.105	85.5339	183.105	85.3705	183.105	85.5397	183.105	85.2757	183.105	85.5216	183.105	85.1688	183.105	85.4826	183.105	85.0563	183.105	85.4274	183.105	84.9455	183.105	85.3622	183.105	84.8435	183.105	85.294	183.105	84.7572	183.105	85.2298	183.105	84.6923	183.105	85.1754	183.105	84.6528	183.105	85.1352	183.105	84.6404	183.105	85.1106	183.105	84.6545	183.105	85.1002	183.105	84.6922	183.105	85.0994	183.105	84.7484	183.105	85.1019	183.105	84.8163	183.105	85.1002	183.105	84.8885	183.105	85.0878	183.105	84.9573	183.105	85.0602	183.105	85.0161
188.965	85.5389	188.965	85.4808	188.965	85.5716	188.965	85.4003	188.965	85.5778	188.965	85.302	188.965	85.5584	188.965	85.1916	188.965	85.5162	188.965	85.0759	188.965	85.4562	188.965	84.9618	188.965	85.3846	188.965	84.8564	188.965	85.3085	188.965	84.7661	188.965	85.2352	188.965	84.6962	188.965	85.1711	188.965	84.6505	188.965	85.121	188.965	84.6312	188.965	85.0873	188.965	84.6382	188.965	85.0692	188.965	84.6693	188.965	85.0631	188.965	84.7201	188.965	85.0628	188.965	84.7844	188.965	85.0605	188.965	84.8545	188.965	85.049	188.965	84.9221	188.965	85.0228	188.965	84.9799
196.289	85.7351	196.289	85.6838	196.289	85.7604	196.289	85.6091	196.289	85.7591	196.289	85.5151	196.289	85.7329	196.289	85.4076	196.289	85.6852	196.289	85.2933	196.289	85.6211	196.289	85.1796	196.289	85.5467	196.289	85.0736	196.289	85.4689	196.289	84.9818	196.289	85.3939	196.289	84.9094	196.289	85.3271	196.289	84.8594	196.289	85.2722	196.289	84.8332	196.289	85.2308	196.289	84.83	196.289	85.2023	196.289	84.8472	196.289	85.1837	196.289	84.8811	196.289	85.1705	196.289	84.9266	196.289	85.1575	196.289	84.9779	196.289	85.1393	196.289	85.0292	196.289	85.1124	196.289	85.0753
203.613	85.6786	203.613	85.6199	203.613	85.7064	203.613	85.5335	203.613	85.7027	203.613	85.4247	203.613	85.6691	203.613	85.3004	203.613	85.6096	203.613	85.169	203.613	85.5306	203.613	85.0397	203.613	85.4398	203.613	84.9216	203.613	85.346	203.613	84.8231	203.613	85.2581	203.613	84.7504	203.613	85.1838	203.613	84.7071	203.613	85.1285	203.613	84.6938	203.613	85.0944	203.613	84.7081	203.613	85.0804	203.613	84.7455	203.613	85.0816	203.613	84.7999	203.613	85.0903	203.613	84.8643	203.613	85.0976	203.613	84.9311	203.613	85.0956	203.613	84.9931	203.613	85.0783	203.613	85.0436
210.938	85.6155	210.938	85.5526	210.938	85.6478	210.938	85.4624	210.938	85.6488	210.938	85.3497	210.938	85.6196	210.938	85.2211	210.938	85.5634	210.938	85.0844	210.938	85.4856	210.938	84.9485	210.938	85.393	210.938	84.8222	210.938	85.2935	210.938	84.714	210.938	85.1954	210.938	84.631	210.938	85.1062	210.938	84.5778	210.938	85.0325	210.938	84.556	210.938	84.9782	210.938	84.5642	210.938	84.9447	210.938	84.598	210.938	84.9298	210.938	84.6507	210.938	84.9277	210.938	84.7142	210.938	84.9302	210.938	84.7797	210.938	84.9285	210.938	84.8389	210.938	84.9149	210.938	84.8852
218.262	85.645	218.262	85.5843	218.262	85.6752	218.262	85.4963	218.262	85.6741	218.262	85.3859	218.262	85.643	218.262	85.2597	218.262	85.5854	218.262	85.1252	218.262	85.5069	218.262	84.9912	218.262	85.4148	218.262	84.8662	218.262	85.317	218.262	84.7586	218.262	85.2216	218.262	84.6751	218.262	85.1354	218.262	84.6205	218.262	85.0636	218.262	84.5963	218.262	85.0093	218.262	84.6013	218.262	84.973	218.262	84.631	218.262	84.9528	218.262	84.6791	218.262	84.9445	218.262	84.7374	218.262	84.9414	218.262	84.7976	218.262	84.9362	218.262	84.8517	218.262	84.9219	218.262	84.8941
225.586	85.5808	225.586	85.5195	225.586	85.6107	225.586	85.4299	225.586	85.6084	225.586	85.3176	225.586	85.5756	225.586	85.1898	225.586	85.517	225.586	85.0547	225.586	85.4392	225.586	84.9216	225.586	85.3504	225.586	84.7995	225.586	85.2594	225.586	84.6969	225.586	85.1744	225.586	84.6205	225.586	85.102	225.586	84.5748	225.586	85.0466	225.586	84.5612	225.586	85.01	225.586	84.578	225.586	84.9912	225.586	84.6207	225.586	84.9865	225.586	84.6822	225.586	84.9903	225.586	84.7539	225.586	84.9949	225.586	84.8267	225.586	84.9926	225.586	84.892	225.586	84.9767	225.586	84.9432
232.91	85.5316	232.91	85.462	232.91	85.5657	232.91	85.3604	232.91	85.563	232.91	85.2328	232.91	85.5252	232.91	85.0868	232.91	85.457	232.91	84.9313	232.91	85.3657	232.91	84.7763	232.91	85.2606	232.91	84.6322	232.91	85.152	232.91	84.5094	232.91	85.0498	232.91	84.4168	232.91	84.9621	232.91	84.3609	232.91	84.8944	232.91	84.3445	232.91	84.8494	232.91	84.366	232.91	84.8264	232.91	84.4192	232.91	84.8217	232.91	84.495	232.91	84.8289	232.91	84.5818	232.91	84.839	232.91	84.6677	232.91	84.8425	232.91	84.7421	232.91	84.8306	232.91	84.7976
241.699	85.4339	241.699	85.3498	241.699	85.4835	241.699	85.2362	241.699	85.4957	241.699	85.1005	241.699	85.4708	241.699	84.9509	241.699	85.4125	241.699	84.7963	241.699	85.3276	241.699	84.6459	241.699	85.2255	241.699	84.5083	241.699	85.1169	241.699	84.3919	241.699	85.0126	241.699	84.3039	241.699	84.9213	241.699	84.2498	241.699	84.8493	241.699	84.2328	241.699	84.799	241.699	84.2524	241.699	84.7698	241.699	84.3043	241.699	84.7582	241.699	84.3806	241.699	84.7581	241.699	84.47	241.699	84.7612	241.699	84.5603	241.699	84.7582	241.699	84.6403	241.699	84.7402	241.699	84.7014
250.488	85.3394	250.488	85.2413	250.488	85.3968	250.488	85.1088	250.488	85.4102	250.488	84.9506	250.488	85.3801	250.488	84.7766	250.488	85.3101	250.488	84.5978	250.488	85.2076	250.488	84.4243	250.488	85.0829	250.488	84.2654	250.488	84.9482	250.488	84.1289	250.488	84.8161	250.488	84.0207	250.488	84.6985	250.488	83.9456	250.488	84.6043	250.488	83.9065	250.488	84.538	250.488	83.9049	250.488	84.4988	250.488	83.939	250.488	84.4807	250.488	84.0036	250.488	84.4741	250.488	84.0896	250.488	84.4673	250.488	84.185	250.488	84.4499	250.488	84.2773	250.488	84.4139	250.488	84.3558
259.277	85.4521	259.277	85.3523	259.277	85.514	259.277	85.2213	259.277	85.5345	259.277	85.0685	259.277	85.514	259.277	84.9046	259.277	85.4566	259.277	84.7408	259.277	85.3699	259.277	84.587	259.277	85.2632	259.277	84.4514	259.277	85.1467	259.277	84.339	259.277	85.0293	259.277	84.2517	259.277	84.9174	259.277	84.1892	259.277	84.8156	259.277	84.15	259.277	84.7268	259.277	84.1327	259.277	84.6531	259.277	84.1366	259.277	84.5951	259.277	84.1611	259.277	84.5509	259.277	84.2044	259.277	84.5153	259.277	84.2617	259.277	84.4804	259.277	84.3252	259.277	84.4386	259.277	84.3864
268.066	85.1024	268.066	84.966	268.066	85.1937	268.066	84.7935	268.066	85.2348	268.066	84.5971	268.066	85.2254	268.066	84.3912	268.066	85.1705	268.066	84.1911	268.066	85.0806	268.066	84.0122	268.066	84.9709	268.066	83.8679	268.066	84.8586	268.066	83.7679	268.066	84.7598	268.066	83.7165	268.066	84.6851	268.066	83.712	268.066	84.6377	268.066	83.7473	268.066	84.613	268.066	83.8126	268.066	84.6021	268.066	83.8981	268.066	84.5945	268.066	83.9955	268.066	84.5816	268.066	84.0984	268.066	84.5574	268.066	84.2016	268.066	84.5179	268.066	84.2998	268.066	84.4612	268.066	84.3877
276.855	85.2105	276.855	85.0811	276.855	85.2864	276.855	84.9059	276.855	85.3054	276.855	84.6961	276.855	85.2679	276.855	84.4656	276.855	85.1784	276.855	84.2302	276.855	85.0455	276.855	84.0055	276.855	84.8827	276.855	83.8058	276.855	84.7074	276.855	83.6426	276.855	84.5406	276.855	83.5239	276.855	84.4028	276.855	83.4544	276.855	84.3092	276.855	83.4347	276.855	84.2646	276.855	83.4622	276.855	84.261	276.855	83.5307	276.855	84.2809	276.855	83.6315	276.855	84.3025	276.855	83.754	276.855	84.307	276.855	83.8862	276.855	84.2819	276.855	84.016	276.855	84.2226	276.855	84.1316
287.109	85.5348	287.109	85.4384	287.109	85.5726	287.109	85.2884	287.109	85.551	287.109	85.0943	287.109	85.4732	287.109	84.8696	287.109	85.3458	287.109	84.6311	287.109	85.1788	287.109	84.3974	287.109	84.9849	287.109	84.1864	287.109	84.7797	287.109	84.0123	287.109	84.5806	287.109	83.8835	287.109	84.4064	287.109	83.8019	287.109	84.2741	287.109	83.7647	287.109	84.1956	287.109	83.7665	287.109	84.1726	287.109	83.802	287.109	84.1942	287.109	83.8657	287.109	84.239	287.109	83.9512	287.109	84.2818	287.109	84.0493	287.109	84.3009	287.109	84.1472	287.109	84.284	287.109	84.2301
297.363	85.3985	297.363	85.3133	297.363	85.4281	297.363	85.1744	297.363	85.4037	297.363	84.988	297.363	85.3306	297.363	84.7643	297.363	85.2162	297.363	84.5181	297.363	85.07	297.363	84.2679	297.363	84.9009	297.363	84.0343	297.363	84.7177	297.363	83.8365	297.363	84.5287	297.363	83.6883	297.363	84.3439	297.363	83.5957	297.363	84.1771	297.363	83.5573	297.363	84.0455	297.363	83.5667	297.363	83.9653	297.363	83.6158	297.363	83.9436	297.363	83.6961	297.363	83.9719	297.363	83.7971	297.363	84.0263	297.363	83.9048	297.363	84.0759	297.363	84.0017	297.363	84.0947	297.363	84.0693
307.617	85.3314	307.617	85.2262	307.617	85.3806	307.617	85.0723	307.617	85.3704	307.617	84.8799	307.617	85.3026	307.617	84.6606	307.617	85.1852	307.617	84.428	307.617	85.0322	307.617	84.1983	307.617	84.8612	307.617	83.99	307.617	84.6895	307.617	83.8223	307.617	84.531	307.617	83.7112	307.617	84.3931	307.617	83.6642	307.617	84.2787	307.617	83.6778	307.617	84.1889	307.617	83.7388	307.617	84.1262	307.617	83.8291	307.617	84.0943	307.617	83.9307	307.617	84.0936	307.617	84.0281	307.617	84.118	307.617	84.1092	307.617	84.1533	307.617	84.1645	307.617	84.1819	307.617	84.1885
319.336	85.1356	319.336	85.0393	319.336	85.1682	319.336	84.8881	319.336	85.1338	319.336	84.6939	319.336	85.0353	319.336	84.4706	319.336	84.8832	319.336	84.2326	319.336	84.6947	319.336	83.9942	319.336	84.4919	319.336	83.7706	319.336	84.2973	319.336	83.5777	319.336	84.1287	319.336	83.4319	319.336	83.9953	319.336	83.3459	319.336	83.8975	319.336	83.3254	319.336	83.8313	319.336	83.3658	319.336	83.7935	319.336	83.4531	319.336	83.7835	319.336	83.5677	319.336	83.8005	319.336	83.6883	319.336	83.8377	319.336	83.7952	319.336	83.881	319.336	83.8727	319.336	83.9112	319.336	83.9116
329.59	85.3208	329.59	85.191	329.59	85.3764	329.59	84.9994	329.59	85.351	329.59	84.7626	329.59	85.2443	329.59	84.5007	329.59	85.0635	329.59	84.2345	329.59	84.8241	329.59	83.9834	329.59	84.55	329.59	83.763	329.59	84.2715	329.59	83.5837	329.59	84.0195	329.59	83.4507	329.59	83.8184	329.59	83.3649	329.59	83.6797	329.59	83.3245	329.59	83.6013	329.59	83.3255	329.59	83.5722	329.59	83.3623	329.59	83.5793	329.59	83.4267	329.59	83.6102	329.59	83.5073	329.59	83.6519	329.59	83.5898	329.59	83.6901	329.59	83.6584	329.59	83.7099	329.59	83.7004
341.309	85.3087	341.309	85.1788	341.309	85.3685	341.309	84.9879	341.309	85.3532	341.309	84.7481	341.309	85.2626	341.309	84.4748	341.309	85.1015	341.309	84.1853	341.309	84.881	341.309	83.8987	341.309	84.618	341.309	83.6346	341.309	84.3356	341.309	83.4107	341.309	84.0605	341.309	83.2411	341.309	83.8187	341.309	83.1336	341.309	83.6303	341.309	83.0892	341.309	83.5052	341.309	83.103	341.309	83.4428	341.309	83.1651	341.309	83.4346	341.309	83.262	341.309	83.4674	341.309	83.3758	341.309	83.5234	341.309	83.4861	341.309	83.5814	341.309	83.5721	341.309	83.6188	341.309	83.6181
353.027	85.2178	353.027	85.0837	353.027	85.2752	353.027	84.8839	353.027	85.2504	353.027	84.6337	353.027	85.1434	353.027	84.3516	353.027	84.9607	353.027	84.0587	353.027	84.7151	353.027	83.7769	353.027	84.4256	353.027	83.5263	353.027	84.1168	353.027	83.3219	353.027	83.8165	353.027	83.1701	353.027	83.5529	353.027	83.0676	353.027	83.3495	353.027	83.0051	353.027	83.2187	353.027	82.973	353.027	83.1583	353.027	82.9662	353.027	83.1526	353.027	82.9841	353.027	83.1783	353.027	83.0261	353.027	83.2117	353.027	83.0859	353.027	83.2338	353.027	83.1502	353.027	83.2323	353.027	83.203
366.211	85.4094	366.211	85.2826	366.211	85.4498	366.211	85.0769	366.211	85.4018	366.211	84.8055	366.211	85.2699	366.211	84.4865	366.211	85.0652	366.211	84.1432	366.211	84.8048	366.211	83.8033	366.211	84.5105	366.211	83.496	366.211	84.2064	366.211	83.2467	366.211	83.9157	366.211	83.0697	366.211	83.6581	366.211	82.9636	366.211	83.4478	366.211	82.9131	366.211	83.2937	366.211	82.8975	366.211	83.1978	366.211	82.9012	366.211	83.1538	366.211	82.9181	366.211	83.1468	366.211	82.9493	366.211	83.1558	366.211	82.9958	366.211	83.1598	366.211	83.0521	366.211	83.1444	366.211	83.106
379.395	85.4513	379.395	85.3211	379.395	85.5009	379.395	85.1225	379.395	85.4631	379.395	84.8715	379.395	85.3388	379.395	84.5852	379.395	85.1375	379.395	84.2813	379.395	84.8765	379.395	83.9778	379.395	84.579	379.395	83.6948	379.395	84.2696	379.395	83.4532	379.395	83.9702	379.395	83.2719	379.395	83.6976	379.395	83.1612	379.395	83.4654	379.395	83.1188	379.395	83.2876	379.395	83.1316	379.395	83.18	379.395	83.1824	379.395	83.1535	379.395	83.256	379.395	83.2029	379.395	83.3404	379.395	83.3012	379.395	83.4228	379.395	83.4078	379.395	83.4862	379.395	83.4851	379.395	83.5116
392.578	85.2892	392.578	85.1479	392.578	85.3486	392.578	84.9382	392.578	85.3178	392.578	84.6774	392.578	85.1963	392.578	84.3838	392.578	84.9928	392.578	84.076	392.578	84.7271	392.578	83.7712	392.578	84.4285	392.578	83.4865	392.578	84.1308	392.578	83.239	392.578	83.8634	392.578	83.0444	392.578	83.6428	392.578	82.9137	392.578	83.4713	392.578	82.8497	392.578	83.3444	392.578	82.8467	392.578	83.2602	392.578	82.8936	392.578	83.223	392.578	82.9779	392.578	83.2351	392.578	83.086	392.578	83.2849	392.578	83.201	392.578	83.3438	392.578	83.3014	392.578	83.3782	392.578	83.3652
405.762	85.2533	405.762	85.0765	405.762	85.33	405.762	84.817	405.762	85.298	405.762	84.5022	405.762	85.1564	405.762	84.1681	405.762	84.9125	405.762	83.854	405.762	84.5815	405.762	83.5934	405.762	84.1884	405.762	83.4035	405.762	83.7682	405.762	83.2811	405.762	83.3647	405.762	83.2068	405.762	83.0232	405.762	83.1565	405.762	82.7792	405.762	83.112	405.762	82.6456	405.762	83.068	405.762	82.6101	405.762	83.0317	405.762	82.6447	405.762	83.015	405.762	82.721	405.762	83.0232	405.762	82.8175	405.762	83.0466	405.762	82.9167	405.762	83.0633	405.762	83.0002	405.762	83.0512
420.41	85.4255	420.41	85.2434	420.41	85.5004	420.41	84.9629	420.41	85.4661	420.41	84.6001	420.41	85.328	420.41	84.1813	420.41	85.0992	420.41	83.7457	420.41	84.7984	420.41	83.3477	420.41	84.4476	420.41	83.047	420.41	84.0673	420.41	82.8864	420.41	83.6751	420.41	82.8657	420.41	83.2876	420.41	82.9376	420.41	82.9272	420.41	83.0317	420.41	82.6268	420.41	83.0889	420.41	82.4239	420.41	83.0829	420.41	82.3421	420.41	83.0235	420.41	82.3714	420.41	82.9427	420.41	82.4707	420.41	82.8706	420.41	82.5897	420.41	82.8156	420.41	82.6913	420.41	82.7631
435.059	85.2217	435.059	85.0477	435.059	85.2802	435.059	84.7727	435.059	85.2182	435.059	84.4198	435.059	85.041	435.059	84.0196	435.059	84.7666	435.059	83.6087	435.059	84.4262	435.059	83.2294	435.059	84.0618	435.059	82.9265	435.059	83.7183	435.059	82.74	435.059	83.4298	435.059	82.689	435.059	83.208	435.059	82.7567	435.059	83.0434	435.059	82.891	435.059	82.9182	435.059	83.0274	435.059	82.8221	435.059	83.1163	435.059	82.7581	435.059	83.1393	435.059	82.7351	435.059	83.1078	435.059	82.7538	435.059	83.0484	435.059	82.8017	435.059	82.9838	435.059	82.8615	435.059	82.9223
451.172	86.1678	451.172	85.9411	451.172	86.2525	451.172	85.5821	451.172	86.1906	451.172	85.1056	451.172	85.9845	451.172	84.5338	451.172	85.6458	451.172	83.8993	451.172	85.1994	451.172	83.2515	451.172	84.6864	451.172	82.6625	451.172	84.1638	451.172	82.2239	451.172	83.6961	451.172	82.0197	451.172	83.3387	451.172	82.0789	451.172	83.118	451.172	82.3492	451.172	83.0237	451.172	82.725	451.172	83.0215	451.172	83.1015	451.172	83.0766	451.172	83.4091	451.172	83.1682	451.172	83.6173	451.172	83.288	451.172	83.7232	451.172	83.427	451.172	83.738	451.172	83.566	451.172	83.6785
465.82	86.8012	465.82	86.5974	465.82	86.8566	465.82	86.2562	465.82	86.7604	465.82	85.7965	465.82	86.5172	465.82	85.2461	465.82	86.1412	465.82	84.6417	465.82	85.6568	465.82	84.0286	465.82	85.1003	465.82	83.4595	465.82	84.5186	465.82	82.9919	465.82	83.9657	465.82	82.678	465.82	83.4946	465.82	82.5473	465.82	83.1488	465.82	82.59	465.82	82.954	465.82	82.7579	465.82	82.9127	465.82	82.9869	465.82	83.0015	465.82	83.222	465.82	83.174	465.82	83.4279	465.82	83.3736	465.82	83.5858	465.82	83.5497	465.82	83.6841	465.82	83.6683	465.82	83.7137
483.398	86.5874	483.398	86.343	483.398	86.6983	483.398	85.9761	483.398	86.6688	483.398	85.5023	483.398	86.4974	483.398	84.9421	483.398	86.1894	483.398	84.3235	483.398	85.7597	483.398	83.6855	483.398	85.2374	483.398	83.082	483.398	84.6681	483.398	82.5821	483.398	84.1122	483.398	82.2552	483.398	83.6321	483.398	82.1406	483.398	83.2707	483.398	82.2211	483.398	83.0367	483.398	82.4317	483.398	82.9124	483.398	82.6964	483.398	82.8779	483.398	82.9584	483.398	82.9238	483.398	83.1841	483.398	83.0404	483.398	83.3516	483.398	83.1985	483.398	83.4413	483.398	83.3483	483.398	83.4391
499.512	86.4183	499.512	86.2432	499.512	86.468	499.512	85.9498	499.512	86.3899	499.512	85.5499	499.512	86.186	499.512	85.0617	499.512	85.863	499.512	84.5107	499.512	85.4333	499.512	83.9313	499.512	84.9177	499.512	83.3688	499.512	84.3479	499.512	82.8784	499.512	83.7697	499.512	82.5173	499.512	83.2453	499.512	82.3239	499.512	82.8464	499.512	82.2966	499.512	82.6318	499.512	82.3946	499.512	82.6139	499.512	82.5627	499.512	82.7466	499.512	82.7576	499.512	82.951	499.512	82.9546	499.512	83.1531	499.512	83.1365	499.512	83.3041	499.512	83.2827	499.512	83.3788	499.512	83.3695
517.09	86.6441	517.09	86.4448	517.09	86.705	517.09	86.1221	517.09	86.6184	517.09	85.6939	517.09	86.3837	517.09	85.1795	517.09	86.0117	517.09	84.5992	517.09	85.5262	517.09	83.9789	517.09	84.9654	517.09	83.3587	517.09	84.3778	517.09	82.7994	517.09	83.8136	517.09	82.3755	517.09	83.3113	517.09	82.1458	517.09	82.8893	517.09	82.1166	517.09	82.5559	517.09	82.2366	517.09	82.3307	517.09	82.4324	517.09	82.2516	517.09	82.648	517.09	82.3436	517.09	82.8541	517.09	82.5727	517.09	83.0304	517.09	82.8464	517.09	83.1476	517.09	83.0648	517.09	83.1681
536.133	86.0521	536.133	85.8101	536.133	86.144	536.133	85.4267	536.133	86.0891	536.133	84.9239	536.133	85.8996	536.133	84.3359	536.133	85.5936	536.133	83.7047	536.133	85.1933	536.133	83.0754	536.133	84.7245	536.133	82.4937	536.133	84.215	536.133	82.009	536.133	83.6921	536.133	81.6747	536.133	83.1801	536.133	81.534	536.133	82.7034	536.133	81.5901	536.133	82.2968	536.133	81.7923	536.133	82.0127	536.133	82.061	536.133	81.9061	536.133	82.3285	536.133	81.9919	536.133	82.5575	536.133	82.2175	536.133	82.7294	536.133	82.4858	536.133	82.8258	536.133	82.7056	536.133	82.823
555.176	86.2811	555.176	86.0124	555.176	86.3742	555.176	85.5844	555.176	86.2873	555.176	85.0215	555.176	86.0309	555.176	84.3499	555.176	85.6314	555.176	83.5945	555.176	85.1287	555.176	82.7826	555.176	84.5709	555.176	81.9608	555.176	84.0038	555.176	81.218	555.176	83.4604	555.176	80.6865	555.176	82.9539	555.176	80.4788	555.176	82.482	555.176	80.5858	555.176	82.042	555.176	80.8702	555.176	81.6505	555.176	81.1757	555.176	81.3519	555.176	81.4152	555.176	81.2015	555.176	81.5752	555.176	81.2215	555.176	81.6716	555.176	81.3662	555.176	81.708	555.176	81.5426	555.176	81.6679
574.219	85.9835	574.219	85.7015	574.219	86.1055	574.219	85.2735	574.219	86.0626	574.219	84.7275	574.219	85.8564	574.219	84.1069	574.219	85.4959	574.219	83.4606	574.219	85.0044	574.219	82.8248	574.219	84.424	574.219	82.2097	574.219	83.8138	574.219	81.6149	574.219	83.2362	574.219	81.0675	574.219	82.7314	574.219	80.6515	574.219	82.2987	574.219	80.471	574.219	81.9075	574.219	80.5487	574.219	81.5392	574.219	80.7798	574.219	81.2242	574.219	81.0208	574.219	81.0307	574.219	81.1893	574.219	80.9974	574.219	81.2773	574.219	81.0834	574.219	81.3051	574.219	81.2	574.219	81.2804
594.727	85.9103	594.727	85.6495	594.727	85.9827	594.727	85.2127	594.727	85.8667	594.727	84.6236	594.727	85.578	594.727	83.9171	594.727	85.1506	594.727	83.1396	594.727	84.6363	594.727	82.3471	594.727	84.0966	594.727	81.6001	594.727	83.5865	594.727	80.9572	594.727	83.1366	594.727	80.4701	594.727	82.7432	594.727	80.1846	594.727	82.3757	594.727	80.1338	594.727	81.9991	594.727	80.3111	594.727	81.6059	594.727	80.6464	594.727	81.2418	594.727	81.0298	594.727	81.0033	594.727	81.363	594.727	80.9764	594.727	81.5856	594.727	81.1475	594.727	81.6673	594.727	81.3989	594.727	81.598
615.234	86.3543	615.234	86.0978	615.234	86.4021	615.234	85.643	615.234	86.2394	615.234	85.0154	615.234	85.8742	615.234	84.2648	615.234	85.3328	615.234	83.4646	615.234	84.6686	615.234	82.6934	615.234	83.9608	615.234	82.0025	615.234	83.2961	615.234	81.3965	615.234	82.7374	615.234	80.8541	615.234	82.2977	615.234	80.3804	615.234	81.9445	615.234	80.0454	615.234	81.6305	615.234	79.944	615.234	81.3232	615.234	80.0866	615.234	81.0194	615.234	80.363	615.234	80.749	615.234	80.6317	615.234	80.5704	615.234	80.8008	615.234	80.5339	615.234	80.8383	615.234	80.6253	615.234	80.7594
637.207	86.5348	637.207	86.2865	637.207	86.5622	637.207	85.825	637.207	86.3703	637.207	85.1749	637.207	85.9701	637.207	84.3898	637.207	85.3895	637.207	83.5567	637.207	84.6781	637.207	82.7785	637.207	83.9065	637.207	82.1288	637.207	83.156	637.207	81.6065	637.207	82.5001	637.207	81.1417	637.207	81.9811	637.207	80.6663	637.207	81.6	637.207	80.1982	637.207	81.3316	637.207	79.8583	637.207	81.1487	637.207	79.7639	637.207	81.0227	637.207	79.8906	637.207	80.9149	637.207	80.102	637.207	80.7922	637.207	80.2825	637.207	80.6576	637.207	80.3954	637.207	80.5439	637.207	80.4662
659.18	86.5614	659.18	86.334	659.18	86.5568	659.18	85.8855	659.18	86.3213	659.18	85.2437	659.18	85.8688	659.18	84.4593	659.18	85.2326	659.18	83.6066	659.18	84.4748	659.18	82.7766	659.18	83.6911	659.18	82.06	659.18	82.9961	659.18	81.5175	659.18	82.4728	659.18	81.1456	659.18	82.1147	659.18	80.8731	659.18	81.8276	659.18	80.6144	659.18	81.5094	659.18	80.342	659.18	81.1386	659.18	80.1199	659.18	80.8031	659.18	80.0573	659.18	80.6353	659.18	80.2055	659.18	80.6827	659.18	80.4977	659.18	80.8513	659.18	80.796	659.18	80.9869	659.18	80.9779
682.617	86.7361	682.617	86.4742	682.617	86.7506	682.617	85.981	682.617	86.5189	682.617	85.2916	682.617	86.0599	682.617	84.462	682.617	85.4129	682.617	83.5685	682.617	84.6383	682.617	82.7049	682.617	83.8176	682.617	81.9755	682.617	83.0501	682.617	81.4666	682.617	82.4369	682.617	81.1968	682.617	82.0357	682.617	81.0956	682.617	81.8128	682.617	81.0513	682.617	81.6589	682.617	80.9838	682.617	81.4711	682.617	80.8809	682.617	81.2181	682.617	80.7826	682.617	80.9418	682.617	80.7306	682.617	80.7187	682.617	80.7228	682.617	80.609	682.617	80.7155	682.617	80.6142	682.617	80.6729
707.52	86.6761	707.52	86.3088	707.52	86.7581	707.52	85.6608	707.52	86.568	707.52	84.776	707.52	86.1249	707.52	83.7535	707.52	85.4569	707.52	82.7413	707.52	84.6207	707.52	81.8855	707.52	83.7202	707.52	81.2525	707.52	82.8947	707.52	80.808	707.52	82.2641	707.52	80.4962	707.52	81.8629	707.52	80.3391	707.52	81.6343	707.52	80.4205	707.52	81.499	707.52	80.7264	707.52	81.4209	707.52	81.0861	707.52	81.4029	707.52	81.3368	707.52	81.4432	707.52	81.4516	707.52	81.5165	707.52	81.5015	707.52	81.5868	707.52	81.5516	707.52	81.621	707.52	81.6033
732.422	86.6454	732.422	86.3746	732.422	86.6612	732.422	85.8511	732.422	86.4234	732.422	85.093	732.422	85.9389	732.422	84.1489	732.422	85.2339	732.422	83.1089	732.422	84.3642	732.422	82.1081	732.422	83.4102	732.422	81.3119	732.422	82.4761	732.422	80.8494	732.422	81.7032	732.422	80.708	732.422	81.2305	732.422	80.7316	732.422	81.0614	732.422	80.7719	732.422	81.0306	732.422	80.798	732.422	80.9711	732.422	80.862	732.422	80.8615	732.422	81.0094	732.422	80.8182	732.422	81.2367	732.422	80.9623	732.422	81.4937	732.422	81.271	732.422	81.6939	732.422	81.5826	732.422	81.7406
757.324	86.7642	757.324	86.4891	757.324	86.7842	757.324	85.9725	757.324	86.5503	757.324	85.2526	757.324	86.0758	757.324	84.3966	757.324	85.3922	757.324	83.4875	757.324	84.5529	757.324	82.6075	757.324	83.6258	757.324	81.836	757.324	82.6933	757.324	81.2478	757.324	81.8651	757.324	80.868	757.324	81.2551	757.324	80.6289	757.324	80.901	757.324	80.4342	757.324	80.74	757.324	80.2732	757.324	80.6966	757.324	80.234	757.324	80.7461	757.324	80.3992	757.324	80.8881	757.324	80.7443	757.324	81.1079	757.324	81.1488	757.324	81.3607	757.324	81.4736	757.324	81.5641	757.324	81.6202
785.156	86.6997	785.156	86.3169	785.156	86.861	785.156	85.7622	785.156	86.7565	785.156	85.0862	785.156	86.3651	785.156	84.345	785.156	85.7064	785.156	83.6006	785.156	84.8361	785.156	82.915	785.156	83.8298	785.156	82.3266	785.156	82.7798	785.156	81.8074	785.156	81.8029	785.156	81.2668	785.156	81.0099	785.156	80.6593	785.156	80.4441	785.156	80.1057	785.156	80.0825	785.156	79.8404	785.156	79.9108	785.156	79.9339	785.156	79.9311	785.156	80.197	785.156	80.089	785.156	80.43	785.156	80.2817	785.156	80.5763	785.156	80.4508	785.156	80.655	785.156	80.5866	785.156	80.6629
811.523	86.496	811.523	86.3383	811.523	86.4683	811.523	86.0036	811.523	86.253	811.523	85.5046	811.523	85.8514	811.523	84.8471	811.523	85.2634	811.523	84.0261	811.523	84.486	811.523	83.0617	811.523	83.5254	811.523	82.0789	811.523	82.435	811.523	81.3202	811.523	81.3688	811.523	80.9225	811.523	80.5627	811.523	80.7114	811.523	80.1338	811.523	80.4401	811.523	79.9231	811.523	80.121	811.523	79.6994	811.523	80.0069	811.523	79.4303	811.523	80.2304	811.523	79.3122	811.523	80.6092	811.523	79.54	811.523	80.8988	811.523	80.0319	811.523	80.9888	811.523	80.5298	811.523	80.864
840.82	86.8776	840.82	86.7399	840.82	86.8141	840.82	86.4075	840.82	86.5534	840.82	85.9067	840.82	86.1046	840.82	85.2719	840.82	85.4865	840.82	84.5157	840.82	84.7276	840.82	83.6261	840.82	83.8454	840.82	82.6332	840.82	82.8368	840.82	81.7082	840.82	81.7173	840.82	81.1112	840.82	80.6018	840.82	80.8629	840.82	79.7331	840.82	80.6523	840.82	79.3037	840.82	80.2471	840.82	79.2209	840.82	79.7595	840.82	79.2441	840.82	79.5109	840.82	79.2963	840.82	79.6725	840.82	79.5077	840.82	80.0833	840.82	79.9323	840.82	80.4506	840.82	80.3665	840.82	80.5683
870.117	86.4719	870.117	86.193	870.117	86.5739	870.117	85.7592	870.117	86.4681	870.117	85.2012	870.117	86.1234	870.117	84.5699	870.117	85.5362	870.117	83.9143	870.117	84.7389	870.117	83.2444	870.117	83.778	870.117	82.5324	870.117	82.7117	870.117	81.779	870.117	81.6625	870.117	81.0705	870.117	80.82	870.117	80.514	870.117	80.258	870.117	80.1193	870.117	79.8182	870.117	79.8456	870.117	79.3463	870.117	79.7227	870.117	78.9212	870.117	79.821	870.117	78.7786	870.117	80.1126	870.117	79.026	870.117	80.427	870.117	79.5222	870.117	80.5691	870.117	80.0506	870.117	80.4371
900.879	87.0133	900.879	86.9066	900.879	86.8408	900.879	86.5256	900.879	86.415	900.879	85.8925	900.879	85.8004	900.879	85.0396	900.879	85.082	900.879	84.0107	900.879	84.3143	900.879	82.8556	900.879	83.478	900.879	81.6332	900.879	82.5126	900.879	80.4771	900.879	81.4101	900.879	79.6712	900.879	80.3112	900.879	79.4645	900.879	79.5246	900.879	79.7007	900.879	79.2935	900.879	79.9685	900.879	79.4631	900.879	80.0343	900.879	79.6245	900.879	79.9557	900.879	79.5613	900.879	79.9688	900.879	79.4899	900.879	80.2118	900.879	79.7689	900.879	80.5131	900.879	80.2714	900.879	80.5778
933.105	86.9684	933.105	86.8684	933.105	86.7802	933.105	86.4759	933.105	86.3422	933.105	85.8213	933.105	85.7094	933.105	84.9518	933.105	84.9332	933.105	83.9123	933.105	84.0492	933.105	82.7522	933.105	83.0687	933.105	81.5659	933.105	81.9955	933.105	80.5114	933.105	80.8999	933.105	79.7297	933.105	79.9925	933.105	79.2308	933.105	79.4961	933.105	78.9348	933.105	79.3698	933.105	78.8103	933.105	79.351	933.105	78.8883	933.105	79.2356	933.105	79.1654	933.105	79.003	933.105	79.5555	933.105	78.832	933.105	79.9155	933.105	78.9867	933.105	80.0795	933.105	79.4627	933.105	79.9194
965.332	87.0696	965.332	86.9922	965.332	86.8158	965.332	86.5654	965.332	86.2871	965.332	85.8087	965.332	85.5704	965.332	84.7728	965.332	84.7553	965.332	83.5381	965.332	83.8698	965.332	82.2128	965.332	82.8502	965.332	80.8931	965.332	81.6248	965.332	79.6236	965.332	80.2216	965.332	78.491	965.332	78.8162	965.332	77.8225	965.332	77.7872	965.332	77.9425	965.332	77.6089	965.332	78.5645	965.332	78.2077	965.332	79.1741	965.332	78.8592	965.332	79.5341	965.332	79.0137	965.332	79.6376	965.332	78.7225	965.332	79.6262	965.332	78.5879	965.332	79.5954	965.332	78.9608	965.332	79.4088
1,000.49	86.4731	1,000.49	86.3546	1,000.49	86.2221	1,000.49	85.8852	1,000.49	85.6329	1,000.49	85.1233	1,000.49	84.8207	1,000.49	84.1661	1,000.49	83.968	1,000.49	83.1059	1,000.49	83.172	1,000.49	81.9573	1,000.49	82.332	1,000.49	80.6757	1,000.49	81.2887	1,000.49	79.3076	1,000.49	80.0129	1,000.49	78.1032	1,000.49	78.673	1,000.49	77.3503	1,000.49	77.6515	1,000.49	77.0676	1,000.49	77.3164	1,000.49	77.1432	1,000.49	77.5481	1,000.49	77.4829	1,000.49	77.8885	1,000.49	77.9093	1,000.49	78.0579	1,000.49	78.2571	1,000.49	78.1378	1,000.49	78.5123	1,000.49	78.3675	1,000.49	78.7219	1,000.49	78.6859	1,000.49	78.8225
1,035.64	86.241	1,035.64	86.1684	1,035.64	85.9789	1,035.64	85.7185	1,035.64	85.4653	1,035.64	84.8874	1,035.64	84.8129	1,035.64	83.7325	1,035.64	84.0951	1,035.64	82.3683	1,035.64	83.2875	1,035.64	80.8641	1,035.64	82.3276	1,035.64	79.1887	1,035.64	81.1995	1,035.64	77.51	1,035.64	79.9352	1,035.64	76.5214	1,035.64	78.623	1,035.64	76.5398	1,035.64	77.4816	1,035.64	76.8908	1,035.64	76.8242	1,035.64	77.1069	1,035.64	76.7949	1,035.64	77.2512	1,035.64	77.1133	1,035.64	77.6749	1,035.64	77.2498	1,035.64	78.4845	1,035.64	77.0929	1,035.64	79.2595	1,035.64	77.3798	1,035.64	79.5864	1,035.64	78.3933	1,035.64	79.2919
1,072.27	85.3727	1,072.27	85.5185	1,072.27	84.9565	1,072.27	85.2659	1,072.27	84.3919	1,072.27	84.4714	1,072.27	83.7503	1,072.27	83.0073	1,072.27	83.0128	1,072.27	80.945	1,072.27	82.1502	1,072.27	78.8623	1,072.27	81.2222	1,072.27	77.6151	1,072.27	80.3106	1,072.27	77.0985	1,072.27	79.3679	1,072.27	76.3202	1,072.27	78.256	1,072.27	74.8024	1,072.27	77.0635	1,072.27	74.2494	1,072.27	76.3956	1,072.27	76.1894	1,072.27	76.7299	1,072.27	78.1434	1,072.27	77.3861	1,072.27	79.0569	1,072.27	77.5307	1,072.27	79.185	1,072.27	77.1443	1,072.27	79.036	1,072.27	76.9306	1,072.27	78.8087	1,072.27	77.4642	1,072.27	78.2885
1,108.89	85.1145	1,108.89	85.3269	1,108.89	84.6105	1,108.89	85.1806	1,108.89	83.9047	1,108.89	84.587	1,108.89	83.1034	1,108.89	83.4137	1,108.89	82.2704	1,108.89	81.5729	1,108.89	81.3771	1,108.89	79.2693	1,108.89	80.3258	1,108.89	77.2759	1,108.89	79.0518	1,108.89	76.4025	1,108.89	77.6233	1,108.89	76.1472	1,108.89	76.2798	1,108.89	75.4247	1,108.89	75.4789	1,108.89	74.3662	1,108.89	75.7454	1,108.89	74.6893	1,108.89	76.8689	1,108.89	76.4097	1,108.89	77.8453	1,108.89	77.86	1,108.89	77.9389	1,108.89	78.577	1,108.89	77.0798	1,108.89	78.7393	1,108.89	76.0929	1,108.89	78.429	1,108.89	76.3757	1,108.89	77.5508
1,148.44	85.5443	1,148.44	85.6502	1,148.44	85.1159	1,148.44	85.4758	1,148.44	84.3479	1,148.44	84.965	1,148.44	83.3961	1,148.44	83.9944	1,148.44	82.5162	1,148.44	82.5047	1,148.44	81.7509	1,148.44	80.6128	1,148.44	80.8626	1,148.44	78.6406	1,148.44	79.6286	1,148.44	77.2667	1,148.44	78.0406	1,148.44	77.0137	1,148.44	76.2892	1,148.44	76.8994	1,148.44	74.6379	1,148.44	76.1275	1,148.44	73.7803	1,148.44	75.3289	1,148.44	74.8099	1,148.44	75.7124	1,148.44	76.4563	1,148.44	76.8006	1,148.44	77.1521	1,148.44	77.4692	1,148.44	76.9285	1,148.44	77.546	1,148.44	76.4938	1,148.44	77.2681	1,148.44	76.418	1,148.44	76.799
1,189.45	86.0228	1,189.45	86.0014	1,189.45	85.6686	1,189.45	85.6445	1,189.45	84.9548	1,189.45	84.9206	1,189.45	84.0466	1,189.45	83.8084	1,189.45	83.1163	1,189.45	82.4818	1,189.45	82.1874	1,189.45	81.2085	1,189.45	81.2279	1,189.45	79.9031	1,189.45	80.1844	1,189.45	78.2319	1,189.45	78.9422	1,189.45	76.8249	1,189.45	77.5073	1,189.45	76.7704	1,189.45	76.0259	1,189.45	76.9002	1,189.45	74.6038	1,189.45	76.3677	1,189.45	74.2124	1,189.45	75.7987	1,189.45	75.8181	1,189.45	76.2246	1,189.45	77.2144	1,189.45	77.151	1,189.45	77.2016	1,189.45	77.5099	1,189.45	76.5792	1,189.45	77.2486	1,189.45	76.4767	1,189.45	76.8081
1,230.47	86.8708	1,230.47	86.611	1,230.47	86.5427	1,230.47	85.8229	1,230.47	85.72	1,230.47	84.7176	1,230.47	84.6072	1,230.47	83.5898	1,230.47	83.4196	1,230.47	82.7079	1,230.47	82.2968	1,230.47	82.1001	1,230.47	81.2704	1,230.47	81.3077	1,230.47	80.1742	1,230.47	79.7125	1,230.47	78.7608	1,230.47	77.5034	1,230.47	77.1685	1,230.47	76.4084	1,230.47	75.9064	1,230.47	76.6461	1,230.47	74.887	1,230.47	77.052	1,230.47	74.2889	1,230.47	77.3187	1,230.47	75.5496	1,230.47	77.4359	1,230.47	76.9939	1,230.47	77.4509	1,230.47	76.9721	1,230.47	77.1985	1,230.47	76.0617	1,230.47	76.689	1,230.47	75.7086	1,230.47	76.1092
1,274.41	87.2452	1,274.41	87.1918	1,274.41	86.6892	1,274.41	86.5664	1,274.41	85.6833	1,274.41	85.5186	1,274.41	84.5407	1,274.41	84.2354	1,274.41	83.438	1,274.41	82.8787	1,274.41	82.2773	1,274.41	81.5445	1,274.41	80.9824	1,274.41	80.2158	1,274.41	79.6926	1,274.41	78.4431	1,274.41	78.6631	1,274.41	75.3436	1,274.41	77.9473	1,274.41	72.023	1,274.41	77.1063	1,274.41	73.6245	1,274.41	75.7403	1,274.41	76.4451	1,274.41	74.7848	1,274.41	77.3959	1,274.41	75.4705	1,274.41	76.5481	1,274.41	76.1896	1,274.41	75.5873	1,274.41	76.355	1,274.41	75.6676	1,274.41	76.6087	1,274.41	76.0899	1,274.41	76.7738	1,274.41	76.5334
1,319.82	87.0596	1,319.82	87.1489	1,319.82	86.4832	1,319.82	86.762	1,319.82	85.5084	1,319.82	85.8251	1,319.82	84.3921	1,319.82	84.4117	1,319.82	83.1679	1,319.82	83.0046	1,319.82	81.7174	1,319.82	81.9716	1,319.82	80.309	1,319.82	80.927	1,319.82	79.2413	1,319.82	79.3978	1,319.82	78.3774	1,319.82	77.2733	1,319.82	77.4257	1,319.82	74.3043	1,319.82	76.3489	1,319.82	71.9158	1,319.82	75.5353	1,319.82	73.892	1,319.82	74.9592	1,319.82	75.8047	1,319.82	74.0783	1,319.82	75.8154	1,319.82	74.6164	1,319.82	75.1704	1,319.82	76.2153	1,319.82	75.627	1,319.82	76.3794	1,319.82	76.693	1,319.82	76.2204	1,319.82	76.818
1,366.7	86.9107	1,366.7	87.2989	1,366.7	86.0882	1,366.7	87.1329	1,366.7	85.0322	1,366.7	86.2605	1,366.7	84.0722	1,366.7	84.7229	1,366.7	83.1647	1,366.7	82.9392	1,366.7	82.0416	1,366.7	81.5067	1,366.7	80.7941	1,366.7	80.7132	1,366.7	79.5782	1,366.7	79.6567	1,366.7	78.284	1,366.7	77.4936	1,366.7	77.0975	1,366.7	74.4718	1,366.7	76.3151	1,366.7	72.0627	1,366.7	75.5311	1,366.7	73.0985	1,366.7	74.6969	1,366.7	75.9196	1,366.7	75.1623	1,366.7	77.2468	1,366.7	76.0044	1,366.7	77.3138	1,366.7	76.0333	1,366.7	77.0825	1,366.7	75.5252	1,366.7	76.876	1,366.7	75.4547	1,366.7	76.2937
1,413.57	86.7606	1,413.57	87.1182	1,413.57	85.9583	1,413.57	87.0069	1,413.57	84.7536	1,413.57	86.2735	1,413.57	83.5699	1,413.57	84.9654	1,413.57	82.7992	1,413.57	83.1705	1,413.57	82.2767	1,413.57	80.7679	1,413.57	81.5332	1,413.57	78.5802	1,413.57	80.1834	1,413.57	76.2396	1,413.57	78.4109	1,413.57	72.9482	1,413.57	77.0289	1,413.57	70.8256	1,413.57	76.1421	1,413.57	70.4161	1,413.57	75.144	1,413.57	73.1782	1,413.57	74.5178	1,413.57	75.576	1,413.57	74.376	1,413.57	76.37	1,413.57	74.6939	1,413.57	77.3242	1,413.57	75.2207	1,413.57	77.9989	1,413.57	74.8784	1,413.57	77.5109	1,413.57	74.2724	1,413.57	75.7588
1,463.38	86.5092	1,463.38	86.9948	1,463.38	85.509	1,463.38	86.8663	1,463.38	84.2129	1,463.38	86.2337	1,463.38	82.9382	1,463.38	85.408	1,463.38	82.0007	1,463.38	84.0819	1,463.38	81.3755	1,463.38	81.4065	1,463.38	80.6838	1,463.38	77.7269	1,463.38	79.5585	1,463.38	75.2536	1,463.38	78.2282	1,463.38	74.9692	1,463.38	77.5675	1,463.38	74.901	1,463.38	77.2301	1,463.38	72.7037	1,463.38	76.1439	1,463.38	70.5896	1,463.38	74.4792	1,463.38	74.215	1,463.38	72.5669	1,463.38	76.3952	1,463.38	72.9989	1,463.38	77.4382	1,463.38	74.8042	1,463.38	77.5998	1,463.38	74.0965	1,463.38	76.7154	1,463.38	73.0536	1,463.38	74.6532
1,516.11	86.7775	1,516.11	87.0692	1,516.11	85.6884	1,516.11	86.5241	1,516.11	84.2681	1,516.11	85.6797	1,516.11	82.756	1,516.11	84.9146	1,516.11	81.4916	1,516.11	83.6202	1,516.11	80.8602	1,516.11	81.1573	1,516.11	80.1326	1,516.11	78.4766	1,516.11	78.7368	1,516.11	77.5242	1,516.11	77.5955	1,516.11	78.0583	1,516.11	77.5397	1,516.11	78.4944	1,516.11	77.0987	1,516.11	77.2445	1,516.11	75.1759	1,516.11	72.8563	1,516.11	72.929	1,516.11	70.9153	1,516.11	70.6116	1,516.11	73.8256	1,516.11	70.8347	1,516.11	74.9313	1,516.11	72.8699	1,516.11	75.648	1,516.11	72.4683	1,516.11	76.5013	1,516.11	72.4329	1,516.11	75.3232
1,568.85	86.8285	1,568.85	87.2064	1,568.85	85.7267	1,568.85	86.668	1,568.85	84.2814	1,568.85	85.7605	1,568.85	82.6966	1,568.85	85.0137	1,568.85	81.1023	1,568.85	83.7896	1,568.85	79.9112	1,568.85	81.5685	1,568.85	79.4895	1,568.85	79.4314	1,568.85	78.8196	1,568.85	78.6429	1,568.85	76.9898	1,568.85	79.0271	1,568.85	75.4346	1,568.85	79.3022	1,568.85	76.3372	1,568.85	78.221	1,568.85	76.4669	1,568.85	74.4413	1,568.85	74.349	1,568.85	70.5031	1,568.85	72.9904	1,568.85	73.5805	1,568.85	72.0363	1,568.85	76.0859	1,568.85	72.3397	1,568.85	75.8932	1,568.85	73.5833	1,568.85	75.1218	1,568.85	72.7874	1,568.85	73.6779
1,624.51	86.5274	1,624.51	87.0826	1,624.51	85.4482	1,624.51	86.8045	1,624.51	84.212	1,624.51	86.0656	1,624.51	82.8783	1,624.51	85.1363	1,624.51	81.3763	1,624.51	83.4852	1,624.51	79.8355	1,624.51	80.8363	1,624.51	78.8119	1,624.51	77.7418	1,624.51	77.9486	1,624.51	75.1171	1,624.51	76.1767	1,624.51	73.856	1,624.51	73.9366	1,624.51	74.5654	1,624.51	74.3738	1,624.51	76.6443	1,624.51	74.7085	1,624.51	76.0623	1,624.51	72.963	1,624.51	72.832	1,624.51	73.1929	1,624.51	73.6688	1,624.51	72.9026	1,624.51	76.4299	1,624.51	71.7954	1,624.51	75.649	1,624.51	72.8495	1,624.51	73.4192	1,624.51	72.4121	1,624.51	71.9444
1,681.64	85.8775	1,681.64	86.4948	1,681.64	84.7452	1,681.64	86.4788	1,681.64	83.4397	1,681.64	86.0749	1,681.64	82.1748	1,681.64	85.0922	1,681.64	80.9887	1,681.64	83.1338	1,681.64	79.8093	1,681.64	80.9372	1,681.64	78.298	1,681.64	79.3221	1,681.64	77.1021	1,681.64	77.3564	1,681.64	76.8361	1,681.64	75.7488	1,681.64	76.6079	1,681.64	74.4073	1,681.64	76.6342	1,681.64	72.4917	1,681.64	76.2762	1,681.64	71.7646	1,681.64	74.5301	1,681.64	72.4407	1,681.64	74.0703	1,681.64	74.7445	1,681.64	73.2248	1,681.64	76.0002	1,681.64	70.7973	1,681.64	74.7221	1,681.64	71.7995	1,681.64	72.3348	1,681.64	71.1786	1,681.64	70.6761
1,741.7	85.7619	1,741.7	86.0093	1,741.7	84.8199	1,741.7	86.0886	1,741.7	83.0897	1,741.7	85.9579	1,741.7	81.5177	1,741.7	84.6523	1,741.7	80.6901	1,741.7	81.9808	1,741.7	79.9234	1,741.7	79.9068	1,741.7	78.6383	1,741.7	78.5641	1,741.7	77.2513	1,741.7	75.8267	1,741.7	75.9744	1,741.7	71.0199	1,741.7	74.5967	1,741.7	62.6342	1,741.7	74.3166	1,741.7	64.5621	1,741.7	75.2586	1,741.7	69.7656	1,741.7	75.0725	1,741.7	70.5739	1,741.7	73.7266	1,741.7	74.376	1,741.7	73.2152	1,741.7	76.5801	1,741.7	73.1344	1,741.7	74.5708	1,741.7	72.0157	1,741.7	70.7802	1,741.7	71.2413	1,741.7	70.5737
1,803.22	86.1505	1,803.22	86.1106	1,803.22	84.823	1,803.22	85.8045	1,803.22	82.9966	1,803.22	85.8551	1,803.22	81.8133	1,803.22	84.8544	1,803.22	80.2564	1,803.22	82.4518	1,803.22	79.0218	1,803.22	80.7906	1,803.22	78.892	1,803.22	79.1922	1,803.22	78.3313	1,803.22	74.493	1,803.22	75.9967	1,803.22	70.5295	1,803.22	73.6372	1,803.22	72.572	1,803.22	73.549	1,803.22	70.4309	1,803.22	73.2308	1,803.22	66.5564	1,803.22	73.5592	1,803.22	69.0932	1,803.22	74.2038	1,803.22	70.9278	1,803.22	73.205	1,803.22	75.6663	1,803.22	72.7694	1,803.22	76.1508	1,803.22	71.7038	1,803.22	71.9639	1,803.22	71.0427	1,803.22	69.8223
1,866.21	85.8639	1,866.21	86.1134	1,866.21	84.667	1,866.21	85.9273	1,866.21	83.6841	1,866.21	85.6593	1,866.21	82.2774	1,866.21	84.4527	1,866.21	80.1182	1,866.21	82.6832	1,866.21	79.19	1,866.21	81.4013	1,866.21	79.029	1,866.21	78.4318	1,866.21	78.0667	1,866.21	71.1951	1,866.21	76.3995	1,866.21	67.5442	1,866.21	72.6074	1,866.21	74.7254	1,866.21	68.5269	1,866.21	76.2408	1,866.21	68.2916	1,866.21	69.559	1,866.21	69.7908	1,866.21	69.2204	1,866.21	74.4128	1,866.21	69.7718	1,866.21	74.5681	1,866.21	72.3259	1,866.21	73.5318	1,866.21	76.4362	1,866.21	72.766	1,866.21	75.0057	1,866.21	70.1742	1,866.21	70.4861
1,932.13	84.7856	1,932.13	85.9888	1,932.13	84.2389	1,932.13	86.5726	1,932.13	83.5587	1,932.13	85.2217	1,932.13	81.8895	1,932.13	83.0916	1,932.13	80.5753	1,932.13	82.5201	1,932.13	79.0751	1,932.13	81.0405	1,932.13	76.8796	1,932.13	76.4416	1,932.13	75.949	1,932.13	73.5003	1,932.13	76.7894	1,932.13	72.8707	1,932.13	75.0219	1,932.13	74.4068	1,932.13	70.0323	1,932.13	77.4166	1,932.13	72.6934	1,932.13	74.189	1,932.13	72.6366	1,932.13	68.2203	1,932.13	70.5802	1,932.13	71.2262	1,932.13	73.6034	1,932.13	73.4884	1,932.13	72.977	1,932.13	74.9976	1,932.13	71.8272	1,932.13	74.2857	1,932.13	68.8107	1,932.13	70.3133
1,999.51	84.7808	1,999.51	86.0573	1,999.51	83.711	1,999.51	86.4773	1,999.51	82.7836	1,999.51	85.1655	1,999.51	81.6982	1,999.51	82.6259	1,999.51	80.4821	1,999.51	81.1121	1,999.51	77.3578	1,999.51	79.9042	1,999.51	75.4521	1,999.51	76.7943	1,999.51	76.9744	1,999.51	75.5921	1,999.51	77.5382	1,999.51	74.3625	1,999.51	76.0868	1,999.51	70.8487	1,999.51	71.847	1,999.51	75.549	1,999.51	71.2331	1,999.51	74.7287	1,999.51	72.0464	1,999.51	68.8755	1,999.51	67.4059	1,999.51	70.7667	1,999.51	71.4752	1,999.51	73.9488	1,999.51	71.5042	1,999.51	74.5471	1,999.51	70.8658	1,999.51	73.3839	1,999.51	69.9308	1,999.51	70.0507
2,069.82	85.9326	2,069.82	86.9561	2,069.82	84.2825	2,069.82	86.4103	2,069.82	83.0228	2,069.82	85.0625	2,069.82	81.3794	2,069.82	83.6926	2,069.82	79.1067	2,069.82	81.5975	2,069.82	76.885	2,069.82	78.4927	2,069.82	76.4294	2,069.82	75.9308	2,069.82	76.6043	2,069.82	74.4976	2,069.82	76.0892	2,069.82	70.54	2,069.82	75.0285	2,069.82	63.8759	2,069.82	73.0255	2,069.82	73.197	2,069.82	71.74	2,069.82	74.1986	2,069.82	72.2143	2,069.82	65.9448	2,069.82	68.178	2,069.82	63.8378	2,069.82	69.6617	2,069.82	72.0656	2,069.82	69.0478	2,069.82	73.5095	2,069.82	69.0228	2,069.82	72.9142	2,069.82	69.9939	2,069.82	71.1672
2,143.07	85.9622	2,143.07	86.9417	2,143.07	84.6066	2,143.07	86.1978	2,143.07	83.2583	2,143.07	84.8853	2,143.07	80.9989	2,143.07	83.7066	2,143.07	78.3943	2,143.07	81.1036	2,143.07	76.8388	2,143.07	78.0487	2,143.07	75.4208	2,143.07	75.716	2,143.07	75.632	2,143.07	73.0808	2,143.07	76.3131	2,143.07	72.3175	2,143.07	74.3687	2,143.07	61.705	2,143.07	72.8382	2,143.07	69.5626	2,143.07	72.9495	2,143.07	72.7879	2,143.07	72.4796	2,143.07	70.3438	2,143.07	70.9032	2,143.07	63.6022	2,143.07	70.1765	2,143.07	70.5222	2,143.07	68.7536	2,143.07	73.4626	2,143.07	67.3373	2,143.07	73.1325	2,143.07	68.7899	2,143.07	69.4598
2,219.24	85.2193	2,219.24	86.5818	2,219.24	84.1605	2,219.24	86.4504	2,219.24	82.7776	2,219.24	84.8504	2,219.24	80.6441	2,219.24	83.2958	2,219.24	78.5173	2,219.24	79.8145	2,219.24	75.3273	2,219.24	75.2632	2,219.24	72.7611	2,219.24	74.9692	2,219.24	75.2029	2,219.24	72.0124	2,219.24	76.7705	2,219.24	68.0486	2,219.24	74.7456	2,219.24	58.3098	2,219.24	70.7494	2,219.24	63.5051	2,219.24	70.5391	2,219.24	68.2568	2,219.24	72.6186	2,219.24	70.9019	2,219.24	70.6953	2,219.24	64.2698	2,219.24	71.0241	2,219.24	70.084	2,219.24	69.6684	2,219.24	72.9439	2,219.24	66.3367	2,219.24	71.9421	2,219.24	68.43	2,219.24	70.7574
2,296.88	86.0571	2,296.88	86.1333	2,296.88	84.5362	2,296.88	85.5314	2,296.88	81.9197	2,296.88	84.3825	2,296.88	80.1908	2,296.88	82.4579	2,296.88	78.7444	2,296.88	78.2845	2,296.88	76.5459	2,296.88	70.312	2,296.88	76.0765	2,296.88	69.7181	2,296.88	76.2839	2,296.88	71.4479	2,296.88	75.9802	2,296.88	65.1468	2,296.88	74.0312	2,296.88	64.2921	2,296.88	72.0648	2,296.88	68.9795	2,296.88	70.5209	2,296.88	69.825	2,296.88	73.2546	2,296.88	69.9779	2,296.88	72.9072	2,296.88	62.6313	2,296.88	67.1581	2,296.88	65.0211	2,296.88	68.4584	2,296.88	71.9894	2,296.88	65.1358	2,296.88	72.3612	2,296.88	69.0869	2,296.88	70.7898
2,378.91	87.1237	2,378.91	86.3204	2,378.91	85.4264	2,378.91	84.9729	2,378.91	82.3237	2,378.91	84.3091	2,378.91	79.5871	2,378.91	81.2767	2,378.91	78.601	2,378.91	77.5704	2,378.91	78.2611	2,378.91	74.7519	2,378.91	78.2525	2,378.91	52.3314	2,378.91	78.1112	2,378.91	70.4088	2,378.91	76.6596	2,378.91	71.5213	2,378.91	75.5013	2,378.91	67.9595	2,378.91	73.8869	2,378.91	68.8435	2,378.91	66.0381	2,378.91	69.5548	2,378.91	71.1398	2,378.91	68.9982	2,378.91	70.8836	2,378.91	65.2507	2,378.91	69.5773	2,378.91	65.0696	2,378.91	66.2594	2,378.91	71.5239	2,378.91	65.8236	2,378.91	72.1255	2,378.91	69.3219	2,378.91	72.3625
2,462.4	86.4166	2,462.4	86.5789	2,462.4	85.7968	2,462.4	86.1403	2,462.4	83.4362	2,462.4	82.8771	2,462.4	79.934	2,462.4	79.0741	2,462.4	77.8941	2,462.4	78.3156	2,462.4	77.271	2,462.4	75.683	2,462.4	75.8131	2,462.4	68.7692	2,462.4	76.1194	2,462.4	61.1876	2,462.4	76.5487	2,462.4	62.9373	2,462.4	72.1189	2,462.4	60.3201	2,462.4	63.2513	2,462.4	58.6991	2,462.4	56.9939	2,462.4	61.5177	2,462.4	62.112	2,462.4	67.4928	2,462.4	67.9122	2,462.4	66.3661	2,462.4	71.7756	2,462.4	62.8024	2,462.4	71.8632	2,462.4	71.7472	2,462.4	67.6426	2,462.4	73.2915	2,462.4	67.0852	2,462.4	70.7712
2,548.83	85.9766	2,548.83	86.2177	2,548.83	85.4799	2,548.83	85.3777	2,548.83	83.8505	2,548.83	82.186	2,548.83	80.8817	2,548.83	80.4518	2,548.83	77.9913	2,548.83	78.9513	2,548.83	76.2727	2,548.83	74.4575	2,548.83	74.5975	2,548.83	71.1539	2,548.83	73.3508	2,548.83	66.8263	2,548.83	76.3831	2,548.83	61.9702	2,548.83	76.6796	2,548.83	65.6119	2,548.83	73.2	2,548.83	64.4188	2,548.83	68.6797	2,548.83	61.4999	2,548.83	65.788	2,548.83	65.1718	2,548.83	70.431	2,548.83	62.8155	2,548.83	70.3658	2,548.83	56.6238	2,548.83	72.9304	2,548.83	69.1044	2,548.83	70.6275	2,548.83	71.4786	2,548.83	67.7265	2,548.83	69.0314
2,639.65	86.5286	2,639.65	86.2294	2,639.65	85.3896	2,639.65	84.3166	2,639.65	83.3874	2,639.65	82.4973	2,639.65	80.5177	2,639.65	80.5173	2,639.65	78.3033	2,639.65	76.2902	2,639.65	76.8734	2,639.65	72.9529	2,639.65	75.1273	2,639.65	68.3971	2,639.65	75.2692	2,639.65	59.7342	2,639.65	77.7687	2,639.65	66.5054	2,639.65	76.412	2,639.65	63.3229	2,639.65	75.6333	2,639.65	66.307	2,639.65	75.6212	2,639.65	66.4519	2,639.65	68.841	2,639.65	64.3538	2,639.65	72.229	2,639.65	62.1659	2,639.65	70.6159	2,639.65	53.915	2,639.65	72.3825	2,639.65	66.9953	2,639.65	69.269	2,639.65	71.3354	2,639.65	68.5717	2,639.65	70.5294
2,731.93	86.7011	2,731.93	86.4254	2,731.93	85.5737	2,731.93	84.4815	2,731.93	83.5957	2,731.93	81.9831	2,731.93	80.9358	2,731.93	78.4605	2,731.93	78.665	2,731.93	73.5177	2,731.93	77.9523	2,731.93	70.3549	2,731.93	77.9001	2,731.93	69.1079	2,731.93	76.0529	2,731.93	70.4994	2,731.93	74.5751	2,731.93	70.9512	2,731.93	74.0745	2,731.93	64.0364	2,731.93	77.1375	2,731.93	62.1859	2,731.93	75.7369	2,731.93	66.9525	2,731.93	73.7983	2,731.93	66.9398	2,731.93	73.5783	2,731.93	64.2431	2,731.93	73.4059	2,731.93	56.9895	2,731.93	73.7795	2,731.93	65.0937	2,731.93	70.8312	2,731.93	72.1397	2,731.93	69.3333	2,731.93	71.8728
2,828.61	86.7819	2,828.61	86.2873	2,828.61	85.5692	2,828.61	84.5689	2,828.61	83.4411	2,828.61	81.5759	2,828.61	80.7055	2,828.61	76.0833	2,828.61	78.6838	2,828.61	70.0778	2,828.61	77.7594	2,828.61	70.7806	2,828.61	77.4098	2,828.61	70.6202	2,828.61	76.2852	2,828.61	67.2468	2,828.61	71.2116	2,828.61	65.1974	2,828.61	73.2888	2,828.61	57.9403	2,828.61	78.5117	2,828.61	54.3705	2,828.61	76.1663	2,828.61	65.6209	2,828.61	73.7058	2,828.61	67.9582	2,828.61	73.7675	2,828.61	65.5069	2,828.61	72.255	2,828.61	61.7827	2,828.61	72.361	2,828.61	62.1115	2,828.61	69.8436	2,828.61	70.1239	2,828.61	69.0658	2,828.61	69.9885
2,928.22	87.2409	2,928.22	86.3802	2,928.22	86.3096	2,928.22	84.2258	2,928.22	83.7422	2,928.22	79.8995	2,928.22	80.0815	2,928.22	73.8769	2,928.22	77.6502	2,928.22	71.5931	2,928.22	76.1865	2,928.22	69.6929	2,928.22	76.0441	2,928.22	70.1488	2,928.22	75.7283	2,928.22	65.3239	2,928.22	69.6002	2,928.22	52.5896	2,928.22	70.8213	2,928.22	64.1421	2,928.22	77.4069	2,928.22	60.0343	2,928.22	74.9087	2,928.22	56.4247	2,928.22	70.8131	2,928.22	66.126	2,928.22	72.9911	2,928.22	64.0157	2,928.22	69.9012	2,928.22	62.6606	2,928.22	69.4553	2,928.22	61.8511	2,928.22	64.4184	2,928.22	71.039	2,928.22	68.835	2,928.22	72.3328
3,030.76	87.0676	3,030.76	85.946	3,030.76	86.5914	3,030.76	83.554	3,030.76	84.1107	3,030.76	79.1294	3,030.76	79.7269	3,030.76	72.5148	3,030.76	76.2657	3,030.76	71.1212	3,030.76	75.7985	3,030.76	71.2194	3,030.76	76.2881	3,030.76	66.9575	3,030.76	73.8067	3,030.76	63.5236	3,030.76	69.6242	3,030.76	69.3023	3,030.76	74.3128	3,030.76	64.423	3,030.76	75.4472	3,030.76	64.3388	3,030.76	72.6082	3,030.76	52.5393	3,030.76	67.9558	3,030.76	63.6089	3,030.76	71.9483	3,030.76	64.2852	3,030.76	68.6048	3,030.76	59.8164	3,030.76	66.2368	3,030.76	58.9163	3,030.76	65.4972	3,030.76	68.8996	3,030.76	67.4084	3,030.76	70.7992
3,137.7	87.254	3,137.7	85.8747	3,137.7	87.0348	3,137.7	82.6584	3,137.7	84.7386	3,137.7	77.3824	3,137.7	80.3538	3,137.7	72.2309	3,137.7	76.8703	3,137.7	72.634	3,137.7	77.0768	3,137.7	72.7573	3,137.7	77.3787	3,137.7	66.2318	3,137.7	72.4881	3,137.7	70.6319	3,137.7	68.9317	3,137.7	70.9156	3,137.7	75.7623	3,137.7	59.3766	3,137.7	74.9312	3,137.7	65.0583	3,137.7	72.4434	3,137.7	64.9876	3,137.7	68.5738	3,137.7	61.5943	3,137.7	71.6654	3,137.7	63.8214	3,137.7	70.0276	3,137.7	58.0643	3,137.7	63.8138	3,137.7	56.899	3,137.7	62.5879	3,137.7	67.5819	3,137.7	65.8806	3,137.7	70.2346
3,249.02	86.8899	3,249.02	85.5779	3,249.02	86.6905	3,249.02	81.8491	3,249.02	85.0076	3,249.02	74.9152	3,249.02	81.269	3,249.02	72.626	3,249.02	78.516	3,249.02	75.3351	3,249.02	78.7904	3,249.02	73.1368	3,249.02	78.6376	3,249.02	73.7494	3,249.02	73.6739	3,249.02	72.7364	3,249.02	70.6717	3,249.02	67.7725	3,249.02	76.1487	3,249.02	69.5883	3,249.02	76.4948	3,249.02	63.9977	3,249.02	72.7872	3,249.02	65.6451	3,249.02	68.4232	3,249.02	64.4845	3,249.02	70.2294	3,249.02	65.1595	3,249.02	71.2695	3,249.02	52.8131	3,249.02	64.3327	3,249.02	62.1206	3,249.02	55.9551	3,249.02	64.7969	3,249.02	66.7338	3,249.02	69.0846
3,363.28	87.2413	3,363.28	85.2093	3,363.28	87.0409	3,363.28	80.6479	3,363.28	85.0234	3,363.28	74.8633	3,363.28	81.2769	3,363.28	74.5532	3,363.28	78.0961	3,363.28	75.6472	3,363.28	79.6699	3,363.28	75.8069	3,363.28	80.5262	3,363.28	76.9215	3,363.28	77.7447	3,363.28	67.308	3,363.28	76.0529	3,363.28	70.5384	3,363.28	76.2092	3,363.28	71.1732	3,363.28	77.0878	3,363.28	63.852	3,363.28	72.0788	3,363.28	65.7544	3,363.28	68.9037	3,363.28	66.1849	3,363.28	69.0333	3,363.28	64.9227	3,363.28	71.1694	3,363.28	51.9999	3,363.28	61.3511	3,363.28	61.7972	3,363.28	46.8575	3,363.28	66.1181	3,363.28	66.5552	3,363.28	67.9754
3,481.93	87.0096	3,481.93	85.2091	3,481.93	87.1052	3,481.93	80.0755	3,481.93	85.391	3,481.93	74.3213	3,481.93	80.8757	3,481.93	76.7693	3,481.93	75.4891	3,481.93	78.048	3,481.93	79.3659	3,481.93	79.8617	3,481.93	81.2046	3,481.93	77.0073	3,481.93	79.5508	3,481.93	75.0155	3,481.93	78.1804	3,481.93	74.6636	3,481.93	74.6844	3,481.93	70.2885	3,481.93	73.3991	3,481.93	69.4583	3,481.93	70.0687	3,481.93	64.6569	3,481.93	66.0801	3,481.93	67.7188	3,481.93	67.2454	3,481.93	66.5413	3,481.93	69.9347	3,481.93	61.3582	3,481.93	58.8339	3,481.93	63.3663	3,481.93	53.1627	3,481.93	67.9219	3,481.93	66.0469	3,481.93	68.2449
3,604.98	87.1612	3,604.98	84.7926	3,604.98	87.2374	3,604.98	78.5913	3,604.98	85.6154	3,604.98	74.9909	3,604.98	80.9681	3,604.98	78.854	3,604.98	76.1549	3,604.98	80.37	3,604.98	79.9442	3,604.98	80.5195	3,604.98	81.672	3,604.98	77.0618	3,604.98	79.5525	3,604.98	77.9472	3,604.98	78.9126	3,604.98	73.2132	3,604.98	72.9553	3,604.98	70.7577	3,604.98	57.5801	3,604.98	68.7427	3,604.98	66.4044	3,604.98	65.3809	3,604.98	69.5738	3,604.98	66.4087	3,604.98	66.0411	3,604.98	66.1544	3,604.98	70.9077	3,604.98	61.9754	3,604.98	55.6243	3,604.98	63.9269	3,604.98	46.4757	3,604.98	68.5273	3,604.98	64.6102	3,604.98	68.8674
3,732.42	87.0888	3,732.42	84.0443	3,732.42	87.8598	3,732.42	76.8155	3,732.42	85.8267	3,732.42	77.1208	3,732.42	80.0285	3,732.42	79.7019	3,732.42	73.3581	3,732.42	80.72	3,732.42	80.3156	3,732.42	79.1301	3,732.42	81.6089	3,732.42	78.636	3,732.42	79.2361	3,732.42	74.1537	3,732.42	76.4846	3,732.42	70.6106	3,732.42	71.2912	3,732.42	70.8943	3,732.42	68.2222	3,732.42	67.238	3,732.42	70.8377	3,732.42	64.9267	3,732.42	70.9938	3,732.42	62.6331	3,732.42	67.5381	3,732.42	65.7635	3,732.42	70.6291	3,732.42	60.3657	3,732.42	61.2319	3,732.42	67.2431	3,732.42	47.5963	3,732.42	68.6365	3,732.42	63.2861	3,732.42	67.8244
3,864.26	87.0368	3,864.26	82.8846	3,864.26	88.0294	3,864.26	74.9323	3,864.26	86.1632	3,864.26	77.9742	3,864.26	79.676	3,864.26	81.0333	3,864.26	69.5199	3,864.26	81.4305	3,864.26	79.091	3,864.26	79.6578	3,864.26	79.9727	3,864.26	77.7298	3,864.26	79.2048	3,864.26	72.4061	3,864.26	72.728	3,864.26	72.825	3,864.26	69.1811	3,864.26	70.4966	3,864.26	71.133	3,864.26	69.2668	3,864.26	71.9027	3,864.26	66.8106	3,864.26	72.643	3,864.26	62.9379	3,864.26	68.1174	3,864.26	64.4071	3,864.26	70.7441	3,864.26	55.9629	3,864.26	62.4974	3,864.26	67.9229	3,864.26	47.0935	3,864.26	68.6849	3,864.26	60.6139	3,864.26	69.7817
4,000.49	86.6533	4,000.49	80.5097	4,000.49	88.0638	4,000.49	73.6278	4,000.49	86.2112	4,000.49	79.2967	4,000.49	79.9358	4,000.49	81.9857	4,000.49	61.3638	4,000.49	81.1322	4,000.49	77.4014	4,000.49	80.3238	4,000.49	78.8045	4,000.49	75.0969	4,000.49	77.2817	4,000.49	75.8404	4,000.49	70.964	4,000.49	72.0181	4,000.49	68.2932	4,000.49	70.7361	4,000.49	73.2947	4,000.49	68.3433	4,000.49	71.376	4,000.49	66.312	4,000.49	70.2407	4,000.49	66.7648	4,000.49	70.0607	4,000.49	66.0115	4,000.49	69.8862	4,000.49	58.5999	4,000.49	63.324	4,000.49	66.1833	4,000.49	56.034	4,000.49	68.3316	4,000.49	59.4937	4,000.49	68.7464
4,141.11	85.6742	4,141.11	76.1658	4,141.11	87.8961	4,141.11	75.234	4,141.11	86.294	4,141.11	81.013	4,141.11	80.5258	4,141.11	82.4939	4,141.11	64.5212	4,141.11	82.3377	4,141.11	77.3082	4,141.11	80.4681	4,141.11	77.6259	4,141.11	78.3018	4,141.11	77.0169	4,141.11	76.4088	4,141.11	68.3981	4,141.11	70.2413	4,141.11	60.3791	4,141.11	71.8867	4,141.11	72.1973	4,141.11	70.0791	4,141.11	69.4082	4,141.11	67.2972	4,141.11	71.387	4,141.11	66.955	4,141.11	69.8321	4,141.11	67.2821	4,141.11	69.5048	4,141.11	64.0535	4,141.11	62.6131	4,141.11	66.1252	4,141.11	52.6311	4,141.11	70.7744	4,141.11	56.6975	4,141.11	69.1705
4,287.6	84.6006	4,287.6	70.1271	4,287.6	87.8972	4,287.6	77.682	4,287.6	86.2242	4,287.6	82.2718	4,287.6	80.1575	4,287.6	83.275	4,287.6	67.117	4,287.6	82.7421	4,287.6	76.3141	4,287.6	79.5058	4,287.6	79.822	4,287.6	78.7621	4,287.6	77.4292	4,287.6	74.2032	4,287.6	69.9312	4,287.6	75.9487	4,287.6	66.1227	4,287.6	70.7871	4,287.6	67.1209	4,287.6	70.3785	4,287.6	63.2771	4,287.6	64.7436	4,287.6	70.7038	4,287.6	69.3529	4,287.6	71.5703	4,287.6	68.4855	4,287.6	69.1898	4,287.6	67.018	4,287.6	63.4629	4,287.6	63.8549	4,287.6	51.1283	4,287.6	71.2601	4,287.6	59.7271	4,287.6	69.86
4,438.48	84.1256	4,438.48	68.402	4,438.48	87.4696	4,438.48	79.9549	4,438.48	86.2378	4,438.48	83.7657	4,438.48	79.3153	4,438.48	83.6918	4,438.48	64.7935	4,438.48	81.7541	4,438.48	76.6336	4,438.48	80.7515	4,438.48	79.5125	4,438.48	77.4746	4,438.48	75.8455	4,438.48	77.432	4,438.48	67.9731	4,438.48	72.0798	4,438.48	71.6072	4,438.48	71.3133	4,438.48	64.3308	4,438.48	68.4591	4,438.48	50.1308	4,438.48	66.0103	4,438.48	69.3933	4,438.48	65.2704	4,438.48	71.5335	4,438.48	68.0662	4,438.48	66.5528	4,438.48	67.4318	4,438.48	64.2024	4,438.48	64.0908	4,438.48	56.2506	4,438.48	72.2859	4,438.48	64.7892	4,438.48	71.0557
4,595.21	83.5654	4,595.21	71.868	4,595.21	87.3174	4,595.21	81.9525	4,595.21	85.6653	4,595.21	85.5772	4,595.21	80.3276	4,595.21	83.8117	4,595.21	73.1138	4,595.21	81.3243	4,595.21	75.814	4,595.21	78.6936	4,595.21	78.6273	4,595.21	79.4262	4,595.21	73.4924	4,595.21	75.0588	4,595.21	72.9535	4,595.21	73.9293	4,595.21	72.1208	4,595.21	70.9521	4,595.21	63.1159	4,595.21	68.6366	4,595.21	62.8153	4,595.21	64.1389	4,595.21	63.5874	4,595.21	65.2535	4,595.21	68.9566	4,595.21	67.3214	4,595.21	65.9266	4,595.21	67.658	4,595.21	63.7133	4,595.21	67.7415	4,595.21	63.2141	4,595.21	73.1438	4,595.21	63.2962	4,595.21	72.1728
4,756.35	84.5543	4,756.35	74.6318	4,756.35	87.841	4,756.35	84.0149	4,756.35	86.0343	4,756.35	85.8564	4,756.35	81.6747	4,756.35	83.5398	4,756.35	76.9044	4,756.35	80.4391	4,756.35	74.0907	4,756.35	79.5985	4,756.35	75.6353	4,756.35	76.9086	4,756.35	73.6222	4,756.35	76.4772	4,756.35	75.6667	4,756.35	72.8048	4,756.35	74.0515	4,756.35	71.0839	4,756.35	71.3934	4,756.35	68.0891	4,756.35	63.8621	4,756.35	62.7284	4,756.35	62.61	4,756.35	60.224	4,756.35	65.8926	4,756.35	65.0835	4,756.35	63.804	4,756.35	63.1498	4,756.35	65.7687	4,756.35	66.2938	4,756.35	63.7862	4,756.35	71.1153	4,756.35	64.9622	4,756.35	70.9035
4,924.8	85.1291	4,924.8	77.4417	4,924.8	87.6771	4,924.8	85.8265	4,924.8	86.3431	4,924.8	86.0405	4,924.8	82.7535	4,924.8	82.9687	4,924.8	79.3663	4,924.8	80.6023	4,924.8	74.9299	4,924.8	79.3819	4,924.8	73.0208	4,924.8	78.0042	4,924.8	74.5648	4,924.8	75.941	4,924.8	75.9363	4,924.8	71.6744	4,924.8	74.7416	4,924.8	70.5818	4,924.8	76.0757	4,924.8	68.2959	4,924.8	66.7602	4,924.8	66.4781	4,924.8	44.6271	4,924.8	52.8021	4,924.8	67.1839	4,924.8	63.4903	4,924.8	63.536	4,924.8	64.0039	4,924.8	68.4417	4,924.8	67.2163	4,924.8	63.1516	4,924.8	71.1571	4,924.8	65.8893	4,924.8	72.6754
5,097.66	85.4146	5,097.66	79.2588	5,097.66	88.1002	5,097.66	87.2118	5,097.66	85.5677	5,097.66	85.9809	5,097.66	82.9757	5,097.66	82.5319	5,097.66	80.3468	5,097.66	81.2287	5,097.66	76.1588	5,097.66	78.8915	5,097.66	73.6059	5,097.66	75.1501	5,097.66	78.9239	5,097.66	73.4647	5,097.66	76.4988	5,097.66	72.3713	5,097.66	75.3113	5,097.66	69.9528	5,097.66	77.0526	5,097.66	66.9458	5,097.66	70.6242	5,097.66	63.2488	5,097.66	60.8314	5,097.66	57.5477	5,097.66	66.4441	5,097.66	57.8848	5,097.66	67.1844	5,097.66	63.2621	5,097.66	67.5081	5,097.66	65.7603	5,097.66	65.7634	5,097.66	72.1001	5,097.66	64.6835	5,097.66	72.0409
5,277.83	85.6199	5,277.83	82.1401	5,277.83	88.6611	5,277.83	87.6533	5,277.83	85.5619	5,277.83	84.5903	5,277.83	82.8717	5,277.83	82.7141	5,277.83	82.3821	5,277.83	81.1696	5,277.83	76.507	5,277.83	78.0283	5,277.83	73.6385	5,277.83	75.8882	5,277.83	81.0695	5,277.83	73.703	5,277.83	76.85	5,277.83	70.7773	5,277.83	73.2778	5,277.83	71.4247	5,277.83	75.5002	5,277.83	68.9074	5,277.83	69.6496	5,277.83	66.0575	5,277.83	57.4951	5,277.83	61.8157	5,277.83	64.9385	5,277.83	60.78	5,277.83	66.4529	5,277.83	55.5537	5,277.83	66.323	5,277.83	62.773	5,277.83	66.7925	5,277.83	68.5693	5,277.83	64.3955	5,277.83	71.6301
5,463.87	84.1715	5,463.87	83.7732	5,463.87	88.9703	5,463.87	87.1693	5,463.87	86.3334	5,463.87	84.2825	5,463.87	83.6083	5,463.87	83.5065	5,463.87	83.2182	5,463.87	81.6976	5,463.87	79.4123	5,463.87	79.4441	5,463.87	76.8444	5,463.87	77.783	5,463.87	79.6639	5,463.87	76.1306	5,463.87	75.6898	5,463.87	75.2483	5,463.87	74.231	5,463.87	73.0531	5,463.87	74.3005	5,463.87	70.9796	5,463.87	71.3712	5,463.87	67.6437	5,463.87	64.2066	5,463.87	62.1684	5,463.87	63.6803	5,463.87	61.6423	5,463.87	67.6822	5,463.87	59.3713	5,463.87	69.7544	5,463.87	64.5963	5,463.87	67.6374	5,463.87	68.7562	5,463.87	63.3659	5,463.87	71.5589
5,657.23	83.6875	5,657.23	85.0793	5,657.23	88.9988	5,657.23	86.1317	5,657.23	86.6747	5,657.23	84.1063	5,657.23	83.7384	5,657.23	83.851	5,657.23	84.1659	5,657.23	82.8374	5,657.23	80.043	5,657.23	80.5336	5,657.23	77.2343	5,657.23	80.9363	5,657.23	79.2551	5,657.23	77.4203	5,657.23	74.2915	5,657.23	73.5779	5,657.23	72.7827	5,657.23	73.6929	5,657.23	71.9306	5,657.23	70.3501	5,657.23	73.2416	5,657.23	68.6996	5,657.23	60.8287	5,657.23	63.95	5,657.23	63.7432	5,657.23	57.4661	5,657.23	66.3808	5,657.23	59.7266	5,657.23	70.9795	5,657.23	61.7393	5,657.23	68.7486	5,657.23	68.2183	5,657.23	57.697	5,657.23	69.881
5,856.45	82.9138	5,856.45	85.8401	5,856.45	88.3757	5,856.45	85.1576	5,856.45	86.3438	5,856.45	84.9378	5,856.45	83.9361	5,856.45	84.4132	5,856.45	85.1138	5,856.45	83.9135	5,856.45	79.486	5,856.45	82.2837	5,856.45	76.9108	5,856.45	80.1064	5,856.45	77.9562	5,856.45	77.6091	5,856.45	75.3461	5,856.45	75.1223	5,856.45	72.9033	5,856.45	72.1961	5,856.45	71.9628	5,856.45	69.5717	5,856.45	74.4536	5,856.45	67.8744	5,856.45	65.2179	5,856.45	64.1052	5,856.45	68.3432	5,856.45	53.5913	5,856.45	57.051	5,856.45	57.9443	5,856.45	68.5515	5,856.45	61.5834	5,856.45	66.7175	5,856.45	64.8154	5,856.45	54.3421	5,856.45	69.1316
6,062.99	82.4027	6,062.99	85.5448	6,062.99	87.9452	6,062.99	85.3344	6,062.99	86.9144	6,062.99	85.8842	6,062.99	84.1165	6,062.99	83.8543	6,062.99	85.4285	6,062.99	84.0274	6,062.99	79.8397	6,062.99	81.9504	6,062.99	74.1774	6,062.99	78.9983	6,062.99	77.3355	6,062.99	75.8533	6,062.99	76.5786	6,062.99	71.2173	6,062.99	75.3766	6,062.99	72.1977	6,062.99	72.1463	6,062.99	67.8379	6,062.99	71.1417	6,062.99	65.1629	6,062.99	68.1079	6,062.99	63.0465	6,062.99	69.4665	6,062.99	61.6236	6,062.99	52.4294	6,062.99	57.8826	6,062.99	63.5824	6,062.99	63.063	6,062.99	58.1624	6,062.99	64.5063	6,062.99	57.2055	6,062.99	65.2033
6,276.86	82.7397	6,276.86	85.7594	6,276.86	87.8888	6,276.86	86.0651	6,276.86	87.1019	6,276.86	86.0398	6,276.86	83.5787	6,276.86	83.5437	6,276.86	85.2033	6,276.86	83.3421	6,276.86	81.7002	6,276.86	81.6512	6,276.86	69.5196	6,276.86	76.9676	6,276.86	77.1403	6,276.86	77.2805	6,276.86	77.0713	6,276.86	72.6757	6,276.86	74.5111	6,276.86	72.15	6,276.86	72.5626	6,276.86	70.0908	6,276.86	66.7895	6,276.86	66.178	6,276.86	70.7854	6,276.86	63.4484	6,276.86	67.4103	6,276.86	54.9741	6,276.86	41.2963	6,276.86	61.9829	6,276.86	59.9688	6,276.86	61.457	6,276.86	65.3574	6,276.86	65.538	6,276.86	62.6053	6,276.86	65.9975
6,498.05	83.933	6,498.05	85.893	6,498.05	87.5169	6,498.05	86.6609	6,498.05	87.1931	6,498.05	85.5913	6,498.05	83.1469	6,498.05	83.7521	6,498.05	84.9729	6,498.05	82.7563	6,498.05	83.6858	6,498.05	82.1579	6,498.05	73.1805	6,498.05	79.4215	6,498.05	78.0523	6,498.05	76.4609	6,498.05	78.2614	6,498.05	74.5122	6,498.05	72.6202	6,498.05	72.4496	6,498.05	73.0017	6,498.05	72.1312	6,498.05	50.9586	6,498.05	67.5712	6,498.05	71.8625	6,498.05	67.1198	6,498.05	63.0137	6,498.05	51.6889	6,498.05	57.6839	6,498.05	64.411	6,498.05	63.0903	6,498.05	54.6778	6,498.05	67.5199	6,498.05	65.7113	6,498.05	63.9618	6,498.05	67.2913
6,726.56	84.7215	6,726.56	86.348	6,726.56	87.1968	6,726.56	86.2161	6,726.56	87.7164	6,726.56	83.9481	6,726.56	85.1322	6,726.56	84.8245	6,726.56	84.8889	6,726.56	83.5863	6,726.56	83.1329	6,726.56	83.1052	6,726.56	75.8973	6,726.56	80.4228	6,726.56	77.1181	6,726.56	77.8034	6,726.56	74.3155	6,726.56	74.6188	6,726.56	71.0425	6,726.56	72.5896	6,726.56	73.7112	6,726.56	71.7787	6,726.56	64.4939	6,726.56	67.6641	6,726.56	72.0089	6,726.56	67.9326	6,726.56	60.6535	6,726.56	60.2132	6,726.56	55.1526	6,726.56	63.9701	6,726.56	62.3319	6,726.56	51.5129	6,726.56	66.6818	6,726.56	66.2687	6,726.56	60.1448	6,726.56	66.6922
6,963.87	84.745	6,963.87	86.4443	6,963.87	86.7813	6,963.87	85.429	6,963.87	87.7125	6,963.87	84.193	6,963.87	85.7735	6,963.87	85.1432	6,963.87	84.8079	6,963.87	84.3655	6,963.87	84.1738	6,963.87	82.2125	6,963.87	78.1488	6,963.87	79.8215	6,963.87	73.6887	6,963.87	74.0092	6,963.87	72.1492	6,963.87	73.8005	6,963.87	69.9589	6,963.87	69.1658	6,963.87	70.1958	6,963.87	69.7443	6,963.87	64.1586	6,963.87	66.2401	6,963.87	70.229	6,963.87	66.2343	6,963.87	64.0591	6,963.87	62.1464	6,963.87	60.3071	6,963.87	59.3743	6,963.87	63.371	6,963.87	54.4819	6,963.87	62.2994	6,963.87	63.895	6,963.87	63.3567	6,963.87	67.2701
7,209.96	85.7917	7,209.96	86.6364	7,209.96	86.362	7,209.96	85.0053	7,209.96	87.0762	7,209.96	84.7352	7,209.96	85.5091	7,209.96	84.8082	7,209.96	85.1341	7,209.96	84.5676	7,209.96	84.673	7,209.96	80.2342	7,209.96	77.8134	7,209.96	78.3615	7,209.96	66.2982	7,209.96	74.1931	7,209.96	70.7316	7,209.96	72.9066	7,209.96	71.0723	7,209.96	69.2073	7,209.96	66.1576	7,209.96	68.3041	7,209.96	67.3732	7,209.96	64.8976	7,209.96	68.5136	7,209.96	63.2547	7,209.96	65.2213	7,209.96	59.8373	7,209.96	58.1403	7,209.96	52.6727	7,209.96	58.2276	7,209.96	58.7663	7,209.96	65.115	7,209.96	57.7725	7,209.96	63.2666	7,209.96	65.5521
7,464.84	86.8533	7,464.84	86.8811	7,464.84	86.6853	7,464.84	85.213	7,464.84	86.8176	7,464.84	85.0844	7,464.84	85.7356	7,464.84	84.5528	7,464.84	85.6405	7,464.84	83.5194	7,464.84	84.6516	7,464.84	79.6327	7,464.84	78.2381	7,464.84	78.3735	7,464.84	66.8165	7,464.84	75.4759	7,464.84	74.7963	7,464.84	73.9807	7,464.84	67.7803	7,464.84	70.7701	7,464.84	61.0492	7,464.84	68.3174	7,464.84	67.6651	7,464.84	66.778	7,464.84	65.8484	7,464.84	62.0946	7,464.84	63.8513	7,464.84	62.9831	7,464.84	46.9051	7,464.84	57.367	7,464.84	50.1285	7,464.84	57.5505	7,464.84	66.0485	7,464.84	55.2224	7,464.84	62.0604	7,464.84	62.4686
7,727.05	87.2596	7,727.05	87.6728	7,727.05	87.0252	7,727.05	85.879	7,727.05	86.6485	7,727.05	84.6841	7,727.05	85.3441	7,727.05	83.9359	7,727.05	84.632	7,727.05	83.0019	7,727.05	83.3826	7,727.05	81.4112	7,727.05	76.7588	7,727.05	78.946	7,727.05	75.8785	7,727.05	74.3468	7,727.05	75.8989	7,727.05	71.6712	7,727.05	69.164	7,727.05	70.6398	7,727.05	57.3308	7,727.05	67.1961	7,727.05	68.1271	7,727.05	67.451	7,727.05	54.6607	7,727.05	64.2927	7,727.05	63.0515	7,727.05	61.821	7,727.05	48.1025	7,727.05	58.4533	7,727.05	42.546	7,727.05	56.4134	7,727.05	63.6063	7,727.05	54.2755	7,727.05	57.7521	7,727.05	60.3153
7,999.51	87.6216	7,999.51	87.9988	7,999.51	87.0126	7,999.51	85.983	7,999.51	86.1294	7,999.51	84.2566	7,999.51	84.6164	7,999.51	84.1358	7,999.51	83.3787	7,999.51	83.5028	7,999.51	81.8544	7,999.51	81.1705	7,999.51	77.9054	7,999.51	76.6369	7,999.51	78.174	7,999.51	72.1793	7,999.51	76.6027	7,999.51	65.4791	7,999.51	71.7436	7,999.51	67.2602	7,999.51	64.2739	7,999.51	62.7998	7,999.51	63.1334	7,999.51	62.4449	7,999.51	60.0208	7,999.51	60.8682	7,999.51	59.3367	7,999.51	60.3642	7,999.51	59.1344	7,999.51	56.7202	7,999.51	56.1184	7,999.51	56.8932	7,999.51	63.6964	7,999.51	58.9896	7,999.51	48.1673	7,999.51	59.3187
8,282.23	87.9356	8,282.23	88.4331	8,282.23	87.08	8,282.23	86.155	8,282.23	86.586	8,282.23	84.6441	8,282.23	85.1053	8,282.23	83.6532	8,282.23	83.6347	8,282.23	82.7827	8,282.23	79.972	8,282.23	79.0561	8,282.23	78.8392	8,282.23	75.0872	8,282.23	78.6723	8,282.23	72.4853	8,282.23	74.869	8,282.23	67.1965	8,282.23	66.4108	8,282.23	64.6484	8,282.23	65.0719	8,282.23	65.1987	8,282.23	61.6899	8,282.23	60.0481	8,282.23	63.2214	8,282.23	57.9824	8,282.23	56.8996	8,282.23	58.3934	8,282.23	58.5994	8,282.23	51.177	8,282.23	58.0183	8,282.23	51.2196	8,282.23	60.3506	8,282.23	55.4586	8,282.23	47.2747	8,282.23	55.1133
8,573.73	88.1266	8,573.73	88.1902	8,573.73	87.2295	8,573.73	86.2202	8,573.73	86.6608	8,573.73	84.5774	8,573.73	85.1927	8,573.73	82.8697	8,573.73	81.6044	8,573.73	81.2707	8,573.73	76.5792	8,573.73	79.6595	8,573.73	78.9295	8,573.73	76.7076	8,573.73	76.8003	8,573.73	73.3284	8,573.73	68.7727	8,573.73	70.0827	8,573.73	61.8457	8,573.73	66.0706	8,573.73	65.8277	8,573.73	66.5426	8,573.73	65.1361	8,573.73	63.2184	8,573.73	59.6364	8,573.73	58.8817	8,573.73	61.578	8,573.73	60.1573	8,573.73	57.0625	8,573.73	56.2199	8,573.73	57.0735	8,573.73	52.0775	8,573.73	55.7748	8,573.73	40.096	8,573.73	51.316	8,573.73	56.9549
8,876.95	87.7051	8,876.95	87.8808	8,876.95	87.7545	8,876.95	86.6022	8,876.95	86.9132	8,876.95	84.595	8,876.95	84.8904	8,876.95	82.1427	8,876.95	81.0544	8,876.95	81.6803	8,876.95	77.7611	8,876.95	79.2065	8,876.95	79.3564	8,876.95	76.3009	8,876.95	73.1844	8,876.95	72.6185	8,876.95	63.908	8,876.95	68.9115	8,876.95	59.8482	8,876.95	65.8011	8,876.95	62.7455	8,876.95	64.2754	8,876.95	65.2857	8,876.95	63.0823	8,876.95	57.7528	8,876.95	61.3519	8,876.95	61.2353	8,876.95	61.4796	8,876.95	51.7779	8,876.95	53.8187	8,876.95	56.4941	8,876.95	48.3048	8,876.95	54.5219	8,876.95	51.7545	8,876.95	45.9443	8,876.95	53.7045
9,188.96	87.6648	9,188.96	87.7677	9,188.96	87.8817	9,188.96	86.5832	9,188.96	86.8864	9,188.96	84.5213	9,188.96	84.9515	9,188.96	82.3776	9,188.96	82.9411	9,188.96	81.1729	9,188.96	79.7233	9,188.96	77.6764	9,188.96	80.0112	9,188.96	74.8493	9,188.96	66.85	9,188.96	72.2138	9,188.96	66.4773	9,188.96	68.7879	9,188.96	60.3167	9,188.96	65.7319	9,188.96	62.2426	9,188.96	62.0807	9,188.96	57.0363	9,188.96	60.8148	9,188.96	42.0818	9,188.96	61.1112	9,188.96	54.877	9,188.96	59.9844	9,188.96	33.4144	9,188.96	54.5517	9,188.96	55.8941	9,188.96	30.6693	9,188.96	50.5137	9,188.96	52.7072	9,188.96	48.318	9,188.96	49.4612
9,514.16	87.8954	9,514.16	87.9136	9,514.16	87.8841	9,514.16	86.3634	9,514.16	86.6077	9,514.16	84.972	9,514.16	84.7866	9,514.16	82.5429	9,514.16	82.8759	9,514.16	79.9373	9,514.16	80.8164	9,514.16	76.5713	9,514.16	78.9596	9,514.16	74.5064	9,514.16	64.3995	9,514.16	71.7197	9,514.16	67.1668	9,514.16	67.5487	9,514.16	60.7641	9,514.16	65.025	9,514.16	62.0102	9,514.16	62.6612	9,514.16	54.7543	9,514.16	60.143	9,514.16	54.1303	9,514.16	60.1839	9,514.16	58.3229	9,514.16	57.8667	9,514.16	40.3034	9,514.16	54.744	9,514.16	50.369	9,514.16	44.2752	9,514.16	41.1483	9,514.16	53.6469	9,514.16	50.0264	9,514.16	50.6685
9,849.61	88.0506	9,849.61	88.3401	9,849.61	87.9319	9,849.61	86.5757	9,849.61	86.509	9,849.61	84.7367	9,849.61	84.0103	9,849.61	81.8686	9,849.61	81.4159	9,849.61	79.6935	9,849.61	80.961	9,849.61	76.3457	9,849.61	76.2628	9,849.61	72.0955	9,849.61	68.8103	9,849.61	68.2849	9,849.61	65.2418	9,849.61	64.8377	9,849.61	58.181	9,849.61	60.3834	9,849.61	60.1803	9,849.61	61.7263	9,849.61	61.5159	9,849.61	59.2576	9,849.61	60.3395	9,849.61	57.0631	9,849.61	55.5217	9,849.61	54.7285	9,849.61	48.8058	9,849.61	52.052	9,849.61	49.254	9,849.61	46.423	9,849.61	44.2147	9,849.61	51.7054	9,849.61	53.1663	9,849.61	47.6965
10,196.8	88.2441	10,196.8	88.5824	10,196.8	87.7032	10,196.8	86.5433	10,196.8	86.8047	10,196.8	83.9212	10,196.8	84.1122	10,196.8	81.3944	10,196.8	81.0143	10,196.8	79.4479	10,196.8	79.9267	10,196.8	74.2999	10,196.8	72.4112	10,196.8	68.5535	10,196.8	68.9268	10,196.8	64.8825	10,196.8	57.5393	10,196.8	64.708	10,196.8	52.4706	10,196.8	60.4653	10,196.8	60.0204	10,196.8	59.7916	10,196.8	65.8436	10,196.8	58.474	10,196.8	60.5639	10,196.8	55.8547	10,196.8	58.0403	10,196.8	56.4419	10,196.8	46.3475	10,196.8	52.2386	10,196.8	50.7644	10,196.8	51.0735	10,196.8	43.5055	10,196.8	46.5112	10,196.8	52.0526	10,196.8	43.0499
10,555.7	88.4971	10,555.7	88.3893	10,555.7	87.3795	10,555.7	86.2247	10,555.7	86.4999	10,555.7	83.3772	10,555.7	84.2758	10,555.7	80.9822	10,555.7	81.564	10,555.7	77.6631	10,555.7	77.3146	10,555.7	71.3118	10,555.7	71.523	10,555.7	66.7647	10,555.7	63.8327	10,555.7	62.9943	10,555.7	40.5664	10,555.7	61.775	10,555.7	42.5455	10,555.7	60.1065	10,555.7	60.2571	10,555.7	57.9195	10,555.7	64.1408	10,555.7	57.3968	10,555.7	56.5602	10,555.7	58.061	10,555.7	59.208	10,555.7	56.5099	10,555.7	51.2052	10,555.7	55.468	10,555.7	51.8441	10,555.7	52.9363	10,555.7	50.4367	10,555.7	45.948	10,555.7	46.9532	10,555.7	43.5611
10,927.7	88.2982	10,927.7	87.6584	10,927.7	87.45	10,927.7	85.7353	10,927.7	85.9804	10,927.7	83.1746	10,927.7	83.7028	10,927.7	79.8044	10,927.7	80.3278	10,927.7	75.8631	10,927.7	74.9899	10,927.7	69.5296	10,927.7	72.1437	10,927.7	64.5154	10,927.7	63.2794	10,927.7	63.0602	10,927.7	45.0399	10,927.7	61.1893	10,927.7	51.0012	10,927.7	58.6379	10,927.7	55.6887	10,927.7	59.5279	10,927.7	63.8975	10,927.7	59.0521	10,927.7	54.6076	10,927.7	59.2369	10,927.7	60.1978	10,927.7	58.3504	10,927.7	46.9101	10,927.7	56.1368	10,927.7	52.661	10,927.7	51.4395	10,927.7	49.6131	10,927.7	50.7302	10,927.7	43.9355	10,927.7	43.9197
11,313	87.6059	11,313	86.8007	11,313	87.14	11,313	85.1802	11,313	85.5504	11,313	82.4231	11,313	82.5435	11,313	78.9053	11,313	78.7138	11,313	75.285	11,313	75.2423	11,313	70.0283	11,313	69.5849	11,313	68.9908	11,313	67.2266	11,313	66.7418	11,313	62.7355	11,313	63.171	11,313	53.1073	11,313	60.6345	11,313	60.8972	11,313	61.1763	11,313	66.7833	11,313	60.2136	11,313	58.6809	11,313	58.8075	11,313	57.7683	11,313	60.7149	11,313	42.8759	11,313	57.2132	11,313	53.099	11,313	46.8718	11,313	47.063	11,313	47.5663	11,313	46.817	11,313	40.66
11,712.9	86.4381	11,712.9	86.0581	11,712.9	86.2426	11,712.9	84.2468	11,712.9	83.97	11,712.9	81.2417	11,712.9	81.3056	11,712.9	77.9116	11,712.9	78.8658	11,712.9	74.8766	11,712.9	77.8664	11,712.9	74.4287	11,712.9	67.0913	11,712.9	71.4245	11,712.9	71.1465	11,712.9	69.0721	11,712.9	69.6042	11,712.9	65.5968	11,712.9	56.9626	11,712.9	61.3742	11,712.9	63.9357	11,712.9	60.9891	11,712.9	70.5975	11,712.9	60.4684	11,712.9	63.5219	11,712.9	60.2696	11,712.9	58.0733	11,712.9	63.1751	11,712.9	38.8505	11,712.9	57.2047	11,712.9	54.505	11,712.9	51.152	11,712.9	47.8571	11,712.9	50.7012	11,712.9	48.0967	11,712.9	44.2556
12,126	84.5992	12,126	84.2496	12,126	84.9818	12,126	82.288	12,126	81.3471	12,126	78.8458	12,126	78.8236	12,126	75.9895	12,126	78.7423	12,126	77.0708	12,126	77.9242	12,126	76.9323	12,126	75.1113	12,126	75.6904	12,126	69.6614	12,126	72.6256	12,126	72.9356	12,126	65.7684	12,126	59.0486	12,126	63.2905	12,126	67.3511	12,126	60.8404	12,126	72.9857	12,126	59.2687	12,126	65.5884	12,126	61.5772	12,126	59.5953	12,126	62.4151	12,126	39.7794	12,126	57.1714	12,126	44.8733	12,126	53.4597	12,126	49.4657	12,126	55.3261	12,126	54.5054	12,126	50.1505
12,553.7	81.9177	12,553.7	81.9647	12,553.7	83.3201	12,553.7	81.5799	12,553.7	81.8084	12,553.7	78.4026	12,553.7	80.1045	12,553.7	78.1612	12,553.7	79.144	12,553.7	81.4445	12,553.7	80.587	12,553.7	80.3757	12,553.7	77.2318	12,553.7	77.6364	12,553.7	73.521	12,553.7	75.967	12,553.7	77.215	12,553.7	70.1351	12,553.7	65.0207	12,553.7	66.3075	12,553.7	66.8386	12,553.7	62.6634	12,553.7	75.2171	12,553.7	58.6628	12,553.7	63.5368	12,553.7	62.5273	12,553.7	63.2155	12,553.7	64.049	12,553.7	47.7199	12,553.7	59.2834	12,553.7	44.9679	12,553.7	59.0205	12,553.7	52.3841	12,553.7	54.4344	12,553.7	55.9636	12,553.7	52.5469
12,996.1	86.7329	12,996.1	86.4398	12,996.1	85.8933	12,996.1	85.6289	12,996.1	86.445	12,996.1	85.3228	12,996.1	85.0075	12,996.1	83.2102	12,996.1	84.2644	12,996.1	85.0659	12,996.1	81.8342	12,996.1	82.5573	12,996.1	80.9049	12,996.1	79.8702	12,996.1	77.525	12,996.1	77.9876	12,996.1	79.2163	12,996.1	72.0379	12,996.1	67.8404	12,996.1	69.5435	12,996.1	70.3636	12,996.1	65.0171	12,996.1	76.2788	12,996.1	61.3886	12,996.1	64.9421	12,996.1	65.6432	12,996.1	62.7827	12,996.1	65.2588	12,996.1	54.694	12,996.1	60.781	12,996.1	33.2733	12,996.1	64.3356	12,996.1	51.2043	12,996.1	55.2338	12,996.1	59.7914	12,996.1	56.1788
13,454.6	90.0158	13,454.6	89.5924	13,454.6	88.6934	13,454.6	88.7905	13,454.6	88.7027	13,454.6	87.6728	13,454.6	86.4563	13,454.6	85.8066	13,454.6	84.3583	13,454.6	85.4498	13,454.6	83.1653	13,454.6	82.5337	13,454.6	80.4673	13,454.6	78.4159	13,454.6	76.9428	13,454.6	76.2244	13,454.6	74.3366	13,454.6	71.1606	13,454.6	66.5265	13,454.6	66.0266	13,454.6	64.7436	13,454.6	63.5794	13,454.6	74.2171	13,454.6	59.2506	13,454.6	65.4025	13,454.6	65.9058	13,454.6	60.1622	13,454.6	65.0344	13,454.6	53.7475	13,454.6	58.9661	13,454.6	55.7182	13,454.6	61.6557	13,454.6	52.2182	13,454.6	60.5266	13,454.6	58.1773	13,454.6	55.6958
13,929.2	90.6179	13,929.2	90.6217	13,929.2	89.5981	13,929.2	89.5472	13,929.2	89.0126	13,929.2	88.1185	13,929.2	86.9846	13,929.2	86.1361	13,929.2	84.792	13,929.2	84.4864	13,929.2	82.6589	13,929.2	81.2629	13,929.2	79.4243	13,929.2	77.4058	13,929.2	71.5682	13,929.2	74.2989	13,929.2	74.5357	13,929.2	70.2356	13,929.2	63.6655	13,929.2	64.0469	13,929.2	65.6359	13,929.2	61.9319	13,929.2	73.0937	13,929.2	56.6021	13,929.2	63.3567	13,929.2	64.6063	13,929.2	62.9039	13,929.2	62.782	13,929.2	58.3789	13,929.2	54.8292	13,929.2	59.301	13,929.2	62.0516	13,929.2	48.9532	13,929.2	60.597	13,929.2	58.6068	13,929.2	54.4417
14,419.9	90.6052	14,419.9	90.3879	14,419.9	89.5276	14,419.9	89.5399	14,419.9	88.0595	14,419.9	87.9193	14,419.9	85.7325	14,419.9	85.5835	14,419.9	82.8638	14,419.9	83.4965	14,419.9	80.0443	14,419.9	79.9833	14,419.9	78.1844	14,419.9	75.83	14,419.9	69.2579	14,419.9	71.5091	14,419.9	71.8302	14,419.9	68.5794	14,419.9	62.2721	14,419.9	63.7133	14,419.9	61.3991	14,419.9	60.4708	14,419.9	69.0487	14,419.9	56.8047	14,419.9	59.4748	14,419.9	60.866	14,419.9	60.0242	14,419.9	58.1453	14,419.9	56.5662	14,419.9	55.7711	14,419.9	57.4904	14,419.9	60.5411	14,419.9	49.1524	14,419.9	62.0456	14,419.9	55.6367	14,419.9	55.9481
14,928.2	89.7441	14,928.2	89.4993	14,928.2	88.5656	14,928.2	88.1278	14,928.2	86.3911	14,928.2	85.9073	14,928.2	82.6896	14,928.2	82.9745	14,928.2	77.9322	14,928.2	80.2781	14,928.2	75.812	14,928.2	77.4861	14,928.2	70.5554	14,928.2	73.8391	14,928.2	66.4019	14,928.2	69.2665	14,928.2	65.9775	14,928.2	66.2032	14,928.2	58.5622	14,928.2	60.8558	14,928.2	50.1896	14,928.2	57.8696	14,928.2	62.2883	14,928.2	52.0722	14,928.2	56.1069	14,928.2	58.1035	14,928.2	51.4453	14,928.2	52.3374	14,928.2	49.1888	14,928.2	52.635	14,928.2	55.8517	14,928.2	58.9482	14,928.2	46.5951	14,928.2	61.7215	14,928.2	54.2903	14,928.2	55.1759
15,455.6	88.1095	15,455.6	87.749	15,455.6	86.7152	15,455.6	84.9136	15,455.6	84.111	15,455.6	81.7524	15,455.6	78.7988	15,455.6	77.711	15,455.6	72.004	15,455.6	74.5735	15,455.6	61.8178	15,455.6	72.4269	15,455.6	55.3973	15,455.6	69.7754	15,455.6	60.5698	15,455.6	66.4178	15,455.6	62.2167	15,455.6	63.3725	15,455.6	50.6358	15,455.6	57.8584	15,455.6	38.3309	15,455.6	53.8444	15,455.6	51.2149	15,455.6	49.7507	15,455.6	42.6198	15,455.6	54.7973	15,455.6	44.854	15,455.6	48.2318	15,455.6	42.1137	15,455.6	52.2714	15,455.6	53.9162	15,455.6	55.5612	15,455.6	42.3267	15,455.6	59.1992	15,455.6	51.3926	15,455.6	52.8774
16,000.5	86.5666	16,000.5	85.7544	16,000.5	85.3179	16,000.5	82.1155	16,000.5	82.5595	16,000.5	77.896	16,000.5	77.879	16,000.5	68.6499	16,000.5	70.7416	16,000.5	64.4149	16,000.5	60.2895	16,000.5	66.6924	16,000.5	59.1172	16,000.5	65.0172	16,000.5	53.8302	16,000.5	62.1916	16,000.5	60.5821	16,000.5	59.9703	16,000.5	51.6421	16,000.5	51.1687	16,000.5	46.9215	16,000.5	49.76	16,000.5	59.1545	16,000.5	44.5025	16,000.5	50.8398	16,000.5	51.5071	16,000.5	46.4375	16,000.5	44.2622	16,000.5	43.5074	16,000.5	50.4066	16,000.5	48.466	16,000.5	53.8414	16,000.5	43.138	16,000.5	54.6364	16,000.5	49.8772	16,000.5	51.5878
16,564.5	87.5095	16,564.5	86.6671	16,564.5	86.1449	16,564.5	83.4596	16,564.5	83.4503	16,564.5	78.907	16,564.5	79.2407	16,564.5	67.6288	16,564.5	72.1586	16,564.5	59.4396	16,564.5	62.7697	16,564.5	63.8435	16,564.5	54.2884	16,564.5	64.6078	16,564.5	47.3964	16,564.5	61.9299	16,564.5	51.6549	16,564.5	59.729	16,564.5	44.0183	16,564.5	48.228	16,564.5	46.1926	16,564.5	47.9622	16,564.5	54.9551	16,564.5	45.4445	16,564.5	51.5451	16,564.5	47.7673	16,564.5	39.1372	16,564.5	46.8977	16,564.5	42.0543	16,564.5	49.6171	16,564.5	42.8096	16,564.5	50.6483	16,564.5	29.4197	16,564.5	56.1967	16,564.5	52.2401	16,564.5	54.2628
17,148.9	86.9899	17,148.9	85.8207	17,148.9	85.6238	17,148.9	82.1049	17,148.9	82.2888	17,148.9	75.4615	17,148.9	77.3056	17,148.9	59.0197	17,148.9	67.5404	17,148.9	61.8207	17,148.9	62.5202	17,148.9	63.5914	17,148.9	56.19	17,148.9	63.3743	17,148.9	56.1746	17,148.9	62.6118	17,148.9	50.146	17,148.9	60.1267	17,148.9	50.2401	17,148.9	50.2188	17,148.9	41.8367	17,148.9	47.2965	17,148.9	57.9867	17,148.9	48.1482	17,148.9	51.0564	17,148.9	39.51	17,148.9	47.3295	17,148.9	46.8242	17,148.9	46.4076	17,148.9	51.9588	17,148.9	53.3807	17,148.9	49.8379	17,148.9	45.9209	17,148.9	59.5863	17,148.9	53.4527	17,148.9	58.6874
17,752.4	87.1494	17,752.4	85.8581	17,752.4	86.0334	17,752.4	81.6743	17,752.4	83.0236	17,752.4	74.5974	17,752.4	77.7957	17,752.4	63.2141	17,752.4	69.8082	17,752.4	61.7924	17,752.4	64.4444	17,752.4	64.3463	17,752.4	53.1645	17,752.4	64.2407	17,752.4	53.7352	17,752.4	59.583	17,752.4	49.3567	17,752.4	58.8613	17,752.4	48.3678	17,752.4	51.0984	17,752.4	42.8088	17,752.4	46.6639	17,752.4	57.8459	17,752.4	51.0457	17,752.4	52.3938	17,752.4	42.9515	17,752.4	46.8326	17,752.4	49.8228	17,752.4	43.1995	17,752.4	54.6498	17,752.4	52.1276	17,752.4	42.7414	17,752.4	49.383	17,752.4	61.2536	17,752.4	49.375	17,752.4	58.9679
18,379.4	87.2236	18,379.4	85.8117	18,379.4	86.0987	18,379.4	81.2544	18,379.4	83.6354	18,379.4	75.0087	18,379.4	77.3793	18,379.4	65.2067	18,379.4	69.2533	18,379.4	66.4475	18,379.4	58.3907	18,379.4	67.1497	18,379.4	55.411	18,379.4	67.7642	18,379.4	56.5898	18,379.4	61.3373	18,379.4	59.2513	18,379.4	62.4574	18,379.4	55.0744	18,379.4	54.1696	18,379.4	42.8945	18,379.4	46.6954	18,379.4	59.8552	18,379.4	53.8417	18,379.4	54.1768	18,379.4	46.278	18,379.4	41.7272	18,379.4	52.4408	18,379.4	44.5101	18,379.4	57.0023	18,379.4	51.0014	18,379.4	44.9883	18,379.4	47.2367	18,379.4	60.624	18,379.4	46.3847	18,379.4	59.2276
19,026.9	87.0111	19,026.9	85.7015	19,026.9	85.6913	19,026.9	81.5168	19,026.9	82.1917	19,026.9	75.9924	19,026.9	75.5813	19,026.9	70.9937	19,026.9	67.3817	19,026.9	71.3192	19,026.9	55.9657	19,026.9	68.2784	19,026.9	59.4447	19,026.9	68.0611	19,026.9	58.6139	19,026.9	61.1748	19,026.9	59.8408	19,026.9	62.2619	19,026.9	55.7559	19,026.9	56.0118	19,026.9	49.6069	19,026.9	50.1614	19,026.9	63.8351	19,026.9	51.9171	19,026.9	57.4429	19,026.9	48.298	19,026.9	49.8391	19,026.9	51.7155	19,026.9	47.3826	19,026.9	56.6921	19,026.9	55.7843	19,026.9	49.309	19,026.9	46.6139	19,026.9	59.9516	19,026.9	54.1341	19,026.9	60.216
19,697.8	87.0163	19,697.8	86.3681	19,697.8	85.1692	19,697.8	82.3249	19,697.8	80.788	19,697.8	78.2844	19,697.8	74.9319	19,697.8	73.1069	19,697.8	69.5781	19,697.8	70.7554	19,697.8	61.3935	19,697.8	66.4023	19,697.8	59.7422	19,697.8	65.2781	19,697.8	56.8598	19,697.8	56.1258	19,697.8	52.7028	19,697.8	56.343	19,697.8	52.6888	19,697.8	52.5716	19,697.8	48.6904	19,697.8	47.5352	19,697.8	62.3932	19,697.8	46.5335	19,697.8	58.8452	19,697.8	44.227	19,697.8	52.1483	19,697.8	46.2788	19,697.8	47.8046	19,697.8	52.3381	19,697.8	52.934	19,697.8	51.1084	19,697.8	48.3461	19,697.8	59.3681	19,697.8	53.1963	19,697.8	57.6693
19,999.5	86.6381	19,999.5	86.2142	19,999.5	84.6529	19,999.5	82.3784	19,999.5	79.946	19,999.5	78.6784	19,999.5	74.2583	19,999.5	73.2994	19,999.5	68.9583	19,999.5	69.9153	19,999.5	60.6074	19,999.5	63.7327	19,999.5	63.3633	19,999.5	64.4381	19,999.5	53.7534	19,999.5	55.2102	19,999.5	50.4003	19,999.5	53.8962	19,999.5	54.4219	19,999.5	48.1198	19,999.5	49.8657	19,999.5	49.7279	19,999.5	60.0798	19,999.5	42.1341	19,999.5	57.661	19,999.5	44.256	19,999.5	57.5037	19,999.5	45.7869	19,999.5	55.563	19,999.5	52.7864	19,999.5	44.4853	19,999.5	49.0742	19,999.5	50.7169	19,999.5	54.1999	19,999.5	53.0043	19,999.5	59.1587
