"SPL Vertical"																																																																							
"On-Axis"		"10°"		"-10°"		"20°"		"-20°"		"30°"		"-30°"		"40°"		"-40°"		"50°"		"-50°"		"60°"		"-60°"		"70°"		"-70°"		"80°"		"-80°"		"90°"		"-90°"		"100°"		"-100°"		"110°"		"-110°"		"120°"		"-120°"		"130°"		"-130°"		"140°"		"-140°"		"150°"		"-150°"		"160°"		"-160°"		"170°"		"-170°"		"180°"	
"Frequency [Hz]"	"Sound Pessure Level [dB]  / [2.83V 1m] "	"Frequency [Hz]"	"Sound Pessure Level [dB]  / [2.83V 1m] "	"Frequency [Hz]"	"Sound Pessure Level [dB]  / [2.83V 1m] "	"Frequency [Hz]"	"Sound Pessure Level [dB]  / [2.83V 1m] "	"Frequency [Hz]"	"Sound Pessure Level [dB]  / [2.83V 1m] "	"Frequency [Hz]"	"Sound Pessure Level [dB]  / [2.83V 1m] "	"Frequency [Hz]"	"Sound Pessure Level [dB]  / [2.83V 1m] "	"Frequency [Hz]"	"Sound Pessure Level [dB]  / [2.83V 1m] "	"Frequency [Hz]"	"Sound Pessure Level [dB]  / [2.83V 1m] "	"Frequency [Hz]"	"Sound Pessure Level [dB]  / [2.83V 1m] "	"Frequency [Hz]"	"Sound Pessure Level [dB]  / [2.83V 1m] "	"Frequency [Hz]"	"Sound Pessure Level [dB]  / [2.83V 1m] "	"Frequency [Hz]"	"Sound Pessure Level [dB]  / [2.83V 1m] "	"Frequency [Hz]"	"Sound Pessure Level [dB]  / [2.83V 1m] "	"Frequency [Hz]"	"Sound Pessure Level [dB]  / [2.83V 1m] "	"Frequency [Hz]"	"Sound Pessure Level [dB]  / [2.83V 1m] "	"Frequency [Hz]"	"Sound Pessure Level [dB]  / [2.83V 1m] "	"Frequency [Hz]"	"Sound Pessure Level [dB]  / [2.83V 1m] "	"Frequency [Hz]"	"Sound Pessure Level [dB]  / [2.83V 1m] "	"Frequency [Hz]"	"Sound Pessure Level [dB]  / [2.83V 1m] "	"Frequency [Hz]"	"Sound Pessure Level [dB]  / [2.83V 1m] "	"Frequency [Hz]"	"Sound Pessure Level [dB]  / [2.83V 1m] "	"Frequency [Hz]"	"Sound Pessure Level [dB]  / [2.83V 1m] "	"Frequency [Hz]"	"Sound Pessure Level [dB]  / [2.83V 1m] "	"Frequency [Hz]"	"Sound Pessure Level [dB]  / [2.83V 1m] "	"Frequency [Hz]"	"Sound Pessure Level [dB]  / [2.83V 1m] "	"Frequency [Hz]"	"Sound Pessure Level [dB]  / [2.83V 1m] "	"Frequency [Hz]"	"Sound Pessure Level [dB]  / [2.83V 1m] "	"Frequency [Hz]"	"Sound Pessure Level [dB]  / [2.83V 1m] "	"Frequency [Hz]"	"Sound Pessure Level [dB]  / [2.83V 1m] "	"Frequency [Hz]"	"Sound Pessure Level [dB]  / [2.83V 1m] "	"Frequency [Hz]"	"Sound Pessure Level [dB]  / [2.83V 1m] "	"Frequency [Hz]"	"Sound Pessure Level [dB]  / [2.83V 1m] "	"Frequency [Hz]"	"Sound Pessure Level [dB]  / [2.83V 1m] "	"Frequency [Hz]"	"Sound Pessure Level [dB]  / [2.83V 1m] "	"Frequency [Hz]"	"Sound Pessure Level [dB]  / [2.83V 1m] "
20.5078	53.7975	20.5078	53.2891	20.5078	54.2899	20.5078	52.787	20.5078	54.7466	20.5078	52.3146	20.5078	55.1517	20.5078	51.8931	20.5078	55.4927	20.5078	51.5389	20.5078	55.7608	20.5078	51.2614	20.5078	55.9501	20.5078	51.0625	20.5078	56.057	20.5078	50.9387	20.5078	56.0803	20.5078	50.8836	20.5078	56.0208	20.5078	50.8913	20.5078	55.8811	20.5078	50.9571	20.5078	55.6658	20.5078	51.0788	20.5078	55.3818	20.5078	51.2551	20.5078	55.038	20.5078	51.4852	20.5078	54.646	20.5078	51.7677	20.5078	54.2195	20.5078	52.0994	20.5078	53.7737	20.5078	52.4751	20.5078	53.3244	20.5078	52.8871
21.9727	55.9739	21.9727	55.5545	21.9727	56.3867	21.9727	55.1471	21.9727	56.7749	21.9727	54.7691	21.9727	57.1232	21.9727	54.4349	21.9727	57.4188	21.9727	54.1535	21.9727	57.6521	21.9727	53.9284	21.9727	57.816	21.9727	53.7583	21.9727	57.9065	21.9727	53.6391	21.9727	57.9214	21.9727	53.5666	21.9727	57.8611	21.9727	53.538	21.9727	57.7278	21.9727	53.5531	21.9727	57.5261	21.9727	53.6138	21.9727	57.2628	21.9727	53.7233	21.9727	56.947	21.9727	53.8845	21.9727	56.59	21.9727	54.0987	21.9727	56.2051	21.9727	54.3645	21.9727	55.8068	21.9727	54.6772	21.9727	55.41	21.9727	55.0292
23.4375	58.5277	23.4375	58.1409	23.4375	58.904	23.4375	57.7595	23.4375	59.2552	23.4375	57.3986	23.4375	59.5682	23.4375	57.0713	23.4375	59.8321	23.4375	56.7875	23.4375	60.0387	23.4375	56.5531	23.4375	60.1821	23.4375	56.3704	23.4375	60.2587	23.4375	56.2394	23.4375	60.267	23.4375	56.1589	23.4375	60.2074	23.4375	56.1277	23.4375	60.0826	23.4375	56.1459	23.4375	59.8967	23.4375	56.2139	23.4375	59.656	23.4375	56.3323	23.4375	59.3687	23.4375	56.501	23.4375	59.0446	23.4375	56.7183	23.4375	58.6949	23.4375	56.9803	23.4375	58.3317	23.4375	57.2813	23.4375	57.9672	23.4375	57.6134
24.9023	60.1506	24.9023	59.8266	24.9023	60.4713	24.9023	59.5135	24.9023	60.7747	24.9023	59.2241	24.9023	61.0477	24.9023	58.9683	24.9023	61.2794	24.9023	58.7523	24.9023	61.4609	24.9023	58.5784	24.9023	61.5861	24.9023	58.4459	24.9023	61.6511	24.9023	58.3523	24.9023	61.6546	24.9023	58.2951	24.9023	61.5971	24.9023	58.2724	24.9023	61.4816	24.9023	58.284	24.9023	61.3131	24.9023	58.3309	24.9023	61.0983	24.9023	58.4147	24.9023	60.8459	24.9023	58.5365	24.9023	60.5658	24.9023	58.6968	24.9023	60.269	24.9023	58.894	24.9023	59.9664	24.9023	59.1253	24.9023	59.6688	24.9023	59.3857
26.3672	62.041	26.3672	61.7476	26.3672	62.3294	26.3672	61.4616	26.3672	62.6006	26.3672	61.1939	26.3672	62.843	26.3672	60.9535	26.3672	63.0468	26.3672	60.7461	26.3672	63.2041	26.3672	60.5746	26.3672	63.3091	26.3672	60.4395	26.3672	63.3583	26.3672	60.3397	26.3672	63.3503	26.3672	60.2738	26.3672	63.2859	26.3672	60.2406	26.3672	63.1681	26.3672	60.2402	26.3672	63.0017	26.3672	60.2733	26.3672	62.7936	26.3672	60.341	26.3672	62.5521	26.3672	60.4443	26.3672	62.2871	26.3672	60.5834	26.3672	62.0091	26.3672	60.7571	26.3672	61.7285	26.3672	60.9632	26.3672	61.4551	26.3672	61.1977
27.832	63.9577	27.832	63.7033	27.832	64.2077	27.832	63.455	27.832	64.4426	27.832	63.2221	27.832	64.6524	27.832	63.0117	27.832	64.8281	27.832	62.8288	27.832	64.9626	27.832	62.6757	27.832	65.0506	27.832	62.5531	27.832	65.0888	27.832	62.4603	27.832	65.0762	27.832	62.3963	27.832	65.0136	27.832	62.3608	27.832	64.9039	27.832	62.354	27.832	64.7518	27.832	62.3768	27.832	64.5638	27.832	62.4303	27.832	64.3477	27.832	62.5156	27.832	64.1125	27.832	62.6327	27.832	63.8673	27.832	62.7808	27.832	63.6215	27.832	62.9576	27.832	63.3833	27.832	63.16
29.2969	65.6646	29.2969	65.4357	29.2969	65.8882	29.2969	65.2107	29.2969	66.0973	29.2969	64.998	29.2969	66.2826	29.2969	64.8039	29.2969	66.4365	29.2969	64.6333	29.2969	66.5522	29.2969	64.4886	29.2969	66.6253	29.2969	64.3709	29.2969	66.6528	29.2969	64.2802	29.2969	66.6339	29.2969	64.2161	29.2969	66.5695	29.2969	64.1783	29.2969	66.4627	29.2969	64.1671	29.2969	66.3182	29.2969	64.1832	29.2969	66.1422	29.2969	64.2274	29.2969	65.9422	29.2969	64.3004	29.2969	65.7264	29.2969	64.4023	29.2969	65.5033	29.2969	64.5322	29.2969	65.2812	29.2969	64.6884	29.2969	65.0673	29.2969	64.868
30.7617	67.3908	30.7617	67.1957	30.7617	67.5806	30.7617	67.003	30.7617	67.7573	30.7617	66.8196	30.7617	67.9131	30.7617	66.6508	30.7617	68.0411	30.7617	66.5006	30.7617	68.1356	30.7617	66.3712	30.7617	68.1926	30.7617	66.2638	30.7617	68.2097	30.7617	66.1788	30.7617	68.1863	30.7617	66.1163	30.7617	68.1236	30.7617	66.0766	30.7617	68.0245	30.7617	66.0602	30.7617	67.8936	30.7617	66.068	30.7617	67.7368	30.7617	66.1009	30.7617	67.5607	30.7617	66.1594	30.7617	67.3726	30.7617	66.2436	30.7617	67.1798	30.7617	66.3525	30.7617	66.9891	30.7617	66.4844	30.7617	66.8064	30.7617	66.6368
32.2266	68.9803	32.2266	68.8067	32.2266	69.1472	32.2266	68.6333	32.2266	69.3005	32.2266	68.466	32.2266	69.4335	32.2266	68.3094	32.2266	69.54	32.2266	68.1674	32.2266	69.6151	32.2266	68.0421	32.2266	69.6552	32.2266	67.935	32.2266	69.6582	32.2266	67.8467	32.2266	69.6239	32.2266	67.7779	32.2266	69.5536	32.2266	67.7292	32.2266	69.4505	32.2266	67.7014	32.2266	69.3192	32.2266	67.6957	32.2266	69.1655	32.2266	67.7129	32.2266	68.9961	32.2266	67.7539	32.2266	68.8182	32.2266	67.8189	32.2266	68.6388	32.2266	67.9075	32.2266	68.4643	32.2266	68.0186	32.2266	68.2999	32.2266	68.1502
33.6914	70.5372	33.6914	70.3802	33.6914	70.6868	33.6914	70.2218	33.6914	70.8226	33.6914	70.0673	33.6914	70.9387	33.6914	69.9214	33.6914	71.0296	33.6914	69.7874	33.6914	71.091	33.6914	69.6677	33.6914	71.1196	33.6914	69.564	33.6914	71.1138	33.6914	69.4771	33.6914	71.0736	33.6914	69.4077	33.6914	71.0004	33.6914	69.3565	33.6914	70.8975	33.6914	69.3242	33.6914	70.7694	33.6914	69.3117	33.6914	70.6218	33.6914	69.32	33.6914	70.4613	33.6914	69.3498	33.6914	70.2946	33.6914	69.4017	33.6914	70.1283	33.6914	69.4756	33.6914	69.9683	33.6914	69.5708	33.6914	69.8196	33.6914	69.6862
35.1563	72.108	35.1563	71.967	35.1563	72.2413	35.1563	71.8234	35.1563	72.3613	35.1563	71.6821	35.1563	72.4627	35.1563	71.5474	35.1563	72.5409	35.1563	71.4223	35.1563	72.5921	35.1563	71.3096	35.1563	72.6137	35.1563	71.2109	35.1563	72.6043	35.1563	71.1276	35.1563	72.5641	35.1563	71.0605	35.1563	72.4948	35.1563	71.0106	35.1563	72.3992	35.1563	70.9787	35.1563	72.2817	35.1563	70.9656	35.1563	72.1475	35.1563	70.9722	35.1563	72.0023	35.1563	70.999	35.1563	71.8521	35.1563	71.0462	35.1563	71.7026	35.1563	71.1135	35.1563	71.5589	35.1563	71.2001	35.1563	71.4251	35.1563	71.3046
36.6211	73.5318	36.6211	73.4038	36.6211	73.6517	36.6211	73.2724	36.6211	73.7585	36.6211	73.1419	36.6211	73.8477	36.6211	73.0162	36.6211	73.9152	36.6211	72.8982	36.6211	73.9577	36.6211	72.7904	36.6211	73.9731	36.6211	72.6945	36.6211	73.9602	36.6211	72.612	36.6211	73.9194	36.6211	72.5438	36.6211	73.8523	36.6211	72.491	36.6211	73.7616	36.6211	72.4545	36.6211	73.6512	36.6211	72.4353	36.6211	73.5257	36.6211	72.4348	36.6211	73.3899	36.6211	72.454	36.6211	73.2492	36.6211	72.4936	36.6211	73.1085	36.6211	72.5536	36.6211	72.9726	36.6211	72.6336	36.6211	72.8458	36.6211	72.7317
38.0859	74.8895	38.0859	74.7749	38.0859	74.9952	38.0859	74.6556	38.0859	75.0879	38.0859	74.5354	38.0859	75.1634	38.0859	74.4179	38.0859	75.2184	38.0859	74.306	38.0859	75.2502	38.0859	74.2022	38.0859	75.257	38.0859	74.1085	38.0859	75.2381	38.0859	74.0263	38.0859	75.194	38.0859	73.9569	38.0859	75.1265	38.0859	73.9016	38.0859	75.0382	38.0859	73.8614	38.0859	74.9328	38.0859	73.8375	38.0859	74.8145	38.0859	73.8312	38.0859	74.6878	38.0859	73.8435	38.0859	74.5575	38.0859	73.8753	38.0859	74.428	38.0859	73.9267	38.0859	74.3035	38.0859	73.997	38.0859	74.188	38.0859	74.0849
39.5508	75.9659	39.5508	75.8601	39.5508	76.0622	39.5508	75.7486	39.5508	76.1452	39.5508	75.6352	39.5508	76.2113	39.5508	75.5232	39.5508	76.2574	39.5508	75.4158	39.5508	76.2814	39.5508	75.3155	39.5508	76.2819	39.5508	75.2245	39.5508	76.2585	39.5508	75.1446	39.5508	76.212	39.5508	75.077	39.5508	76.1443	39.5508	75.023	39.5508	76.058	39.5508	74.9835	39.5508	75.9569	39.5508	74.9595	39.5508	75.8449	39.5508	74.9519	39.5508	75.7263	39.5508	74.9615	39.5508	75.6055	39.5508	74.9889	39.5508	75.4864	39.5508	75.0341	39.5508	75.3729	39.5508	75.0967	39.5508	75.2682	39.5508	75.1753
41.0156	76.9097	41.0156	76.8074	41.0156	77.0018	41.0156	76.6986	41.0156	77.0807	41.0156	76.5865	41.0156	77.143	41.0156	76.4745	41.0156	77.1863	41.0156	76.3654	41.0156	77.2085	41.0156	76.2623	41.0156	77.2085	41.0156	76.1677	41.0156	77.1861	41.0156	76.0839	41.0156	77.1422	41.0156	76.0129	41.0156	77.0785	41.0156	75.9564	41.0156	76.9977	41.0156	75.9159	41.0156	76.9029	41.0156	75.8926	41.0156	76.7978	41.0156	75.8876	41.0156	76.686	41.0156	75.9016	41.0156	76.5709	41.0156	75.935	41.0156	76.4557	41.0156	75.9872	41.0156	76.3437	41.0156	76.0566	41.0156	76.2378	41.0156	76.1411
42.4805	77.969	42.4805	77.8745	42.4805	78.0515	42.4805	77.771	42.4805	78.1187	42.4805	77.6621	42.4805	78.1678	42.4805	77.5511	42.4805	78.1967	42.4805	77.441	42.4805	78.2039	42.4805	77.3348	42.4805	78.1885	42.4805	77.2352	42.4805	78.151	42.4805	77.1447	42.4805	78.0925	42.4805	77.0655	42.4805	78.0153	42.4805	76.9995	42.4805	77.9223	42.4805	76.9482	42.4805	77.8172	42.4805	76.9132	42.4805	77.7042	42.4805	76.8953	42.4805	77.5873	42.4805	76.8954	42.4805	77.4707	42.4805	76.9137	42.4805	77.3579	42.4805	76.9499	42.4805	77.2522	42.4805	77.0033	42.4805	77.1563	42.4805	77.0727
43.9453	78.9339	43.9453	78.8516	43.9453	79.0044	43.9453	78.7603	43.9453	79.0603	43.9453	78.663	43.9453	79.0995	43.9453	78.5626	43.9453	79.12	43.9453	78.4618	43.9453	79.1207	43.9453	78.3634	43.9453	79.1012	43.9453	78.2698	43.9453	79.062	43.9453	78.1834	43.9453	79.0043	43.9453	78.1061	43.9453	78.9302	43.9453	78.04	43.9453	78.8425	43.9453	77.9868	43.9453	78.7446	43.9453	77.948	43.9453	78.64	43.9453	77.925	43.9453	78.5324	43.9453	77.9187	43.9453	78.4254	43.9453	77.9297	43.9453	78.3222	43.9453	77.9581	43.9453	78.2259	43.9453	78.0033	43.9453	78.1391	43.9453	78.0642
45.4102	79.6161	45.4102	79.5397	45.4102	79.6801	45.4102	79.4536	45.4102	79.7292	45.4102	79.3607	45.4102	79.7614	45.4102	79.2642	45.4102	79.7752	45.4102	79.1669	45.4102	79.7699	45.4102	79.0717	45.4102	79.7454	45.4102	78.9813	45.4102	79.7026	45.4102	78.8982	45.4102	79.6432	45.4102	78.8244	45.4102	79.5695	45.4102	78.7619	45.4102	79.4845	45.4102	78.7122	45.4102	79.3917	45.4102	78.6764	45.4102	79.2944	45.4102	78.6555	45.4102	79.196	45.4102	78.6501	45.4102	79.0996	45.4102	78.6604	45.4102	79.0077	45.4102	78.6861	45.4102	78.9225	45.4102	78.7264	45.4102	78.8461	45.4102	78.7802
46.875	80.2961	46.875	80.2251	46.875	80.3541	46.875	80.1435	46.875	80.3968	46.875	80.0543	46.875	80.4225	46.875	79.9603	46.875	80.4301	46.875	79.8646	46.875	80.419	46.875	79.7702	46.875	80.3895	46.875	79.6799	46.875	80.3427	46.875	79.5963	46.875	80.2804	46.875	79.5217	46.875	80.2052	46.875	79.4581	46.875	80.1201	46.875	79.4071	46.875	80.0285	46.875	79.3698	46.875	79.9339	46.875	79.3471	46.875	79.8393	46.875	79.3394	46.875	79.7477	46.875	79.3466	46.875	79.6614	46.875	79.3684	46.875	79.5824	46.875	79.404	46.875	79.5122	46.875	79.4523
48.3398	80.8243	48.3398	80.7591	48.3398	80.8752	48.3398	80.6819	48.3398	80.9099	48.3398	80.5952	48.3398	80.9269	48.3398	80.5019	48.3398	80.9254	48.3398	80.4048	48.3398	80.9051	48.3398	80.3069	48.3398	80.8665	48.3398	80.2112	48.3398	80.8109	48.3398	80.1204	48.3398	80.7403	48.3398	80.0371	48.3398	80.6573	48.3398	79.9635	48.3398	80.5651	48.3398	79.9016	48.3398	80.4671	48.3398	79.8529	48.3398	80.3668	48.3398	79.8187	48.3398	80.2677	48.3398	79.7998	48.3398	80.1728	48.3398	79.7966	48.3398	80.0845	48.3398	79.8093	48.3398	80.0052	48.3398	79.8374	48.3398	79.9366	48.3398	79.8802
51.2695	81.7057	51.2695	81.6475	51.2695	81.7493	51.2695	81.5766	51.2695	81.7767	51.2695	81.4955	51.2695	81.7868	51.2695	81.4069	51.2695	81.7792	51.2695	81.3138	51.2695	81.7541	51.2695	81.219	51.2695	81.7123	51.2695	81.1258	51.2695	81.6553	51.2695	81.0368	51.2695	81.5855	51.2695	80.9549	51.2695	81.5053	51.2695	80.8822	51.2695	81.4178	51.2695	80.8208	51.2695	81.3262	51.2695	80.7723	51.2695	81.2335	51.2695	80.7378	51.2695	81.1426	51.2695	80.7181	51.2695	81.0558	51.2695	80.7137	51.2695	80.9754	51.2695	80.7244	51.2695	80.903	51.2695	80.7497	51.2695	80.8403	51.2695	80.7888
52.7344	82.0595	52.7344	82.0051	52.7344	82.0989	52.7344	81.9376	52.7344	82.1219	52.7344	81.8594	52.7344	82.1277	52.7344	81.7731	52.7344	82.1162	52.7344	81.6817	52.7344	82.0877	52.7344	81.5884	52.7344	82.0435	52.7344	81.4964	52.7344	81.9853	52.7344	81.4086	52.7344	81.9155	52.7344	81.3279	52.7344	81.8367	52.7344	81.2565	52.7344	81.7521	52.7344	81.1964	52.7344	81.6646	52.7344	81.1492	52.7344	81.5769	52.7344	81.1158	52.7344	81.4916	52.7344	81.0968	52.7344	81.4108	52.7344	81.0925	52.7344	81.3362	52.7344	81.1026	52.7344	81.2691	52.7344	81.1265	52.7344	81.211	52.7344	81.163
54.1992	82.3818	54.1992	82.3331	54.1992	82.415	54.1992	82.2707	54.1992	82.4317	54.1992	82.1968	54.1992	82.4313	54.1992	82.1139	54.1992	82.4138	54.1992	82.025	54.1992	82.38	54.1992	81.9332	54.1992	82.3312	54.1992	81.8417	54.1992	82.2694	54.1992	81.7536	54.1992	82.1971	54.1992	81.6717	54.1992	82.1172	54.1992	81.5986	54.1992	82.0328	54.1992	81.5363	54.1992	81.9467	54.1992	81.4865	54.1992	81.8617	54.1992	81.4501	54.1992	81.7802	54.1992	81.428	54.1992	81.704	54.1992	81.4201	54.1992	81.6344	54.1992	81.4262	54.1992	81.5728	54.1992	81.4456	54.1992	81.5201	54.1992	81.4773
55.6641	82.6078	55.6641	82.5627	55.6641	82.6378	55.6641	82.5043	55.6641	82.6517	55.6641	82.4348	55.6641	82.6489	55.6641	82.3568	55.6641	82.6297	55.6641	82.2734	55.6641	82.5951	55.6641	82.1877	55.6641	82.5464	55.6641	82.1029	55.6641	82.486	55.6641	82.0219	55.6641	82.4164	55.6641	81.9475	55.6641	82.3406	55.6641	81.8817	55.6641	82.2617	55.6641	81.8262	55.6641	82.1823	55.6641	81.7822	55.6641	82.1053	55.6641	81.7503	55.6641	82.0324	55.6641	81.7309	55.6641	81.9653	55.6641	81.7238	55.6641	81.9049	55.6641	81.7287	55.6641	81.8521	55.6641	81.7448	55.6641	81.8073	55.6641	81.7713
58.5938	83.0916	58.5938	83.0481	58.5938	83.1184	58.5938	82.9896	58.5938	83.1276	58.5938	82.9186	58.5938	83.1189	58.5938	82.8378	58.5938	83.0928	58.5938	82.7508	58.5938	83.0505	58.5938	82.661	58.5938	82.9939	58.5938	82.5721	58.5938	82.9254	58.5938	82.4874	58.5938	82.8481	58.5938	82.4099	58.5938	82.7651	58.5938	82.3417	58.5938	82.6798	58.5938	82.2842	58.5938	82.5954	58.5938	82.2383	58.5938	82.5146	58.5938	82.204	58.5938	82.4398	58.5938	82.1812	58.5938	82.3727	58.5938	82.1694	58.5938	82.3142	58.5938	82.1682	58.5938	82.2652	58.5938	82.1774	58.5938	82.226	58.5938	82.1967
60.0586	83.3045	60.0586	83.2635	60.0586	83.3282	60.0586	83.2066	60.0586	83.3336	60.0586	83.1362	60.0586	83.3207	60.0586	83.0551	60.0586	83.2901	60.0586	82.9667	60.0586	83.2433	60.0586	82.8747	60.0586	83.1824	60.0586	82.7827	60.0586	83.1099	60.0586	82.6943	60.0586	83.029	60.0586	82.6125	60.0586	82.943	60.0586	82.5398	60.0586	82.8553	60.0586	82.4779	60.0586	82.769	60.0586	82.4278	60.0586	82.687	60.0586	82.3897	60.0586	82.6114	60.0586	82.3635	60.0586	82.5439	60.0586	82.3489	60.0586	82.4857	60.0586	82.3455	60.0586	82.4372	60.0586	82.3528	60.0586	82.3988	60.0586	82.3707
62.9883	83.6688	62.9883	83.6346	62.9883	83.6853	62.9883	83.5839	62.9883	83.6836	62.9883	83.5186	62.9883	83.6639	62.9883	83.4416	62.9883	83.6273	62.9883	83.356	62.9883	83.5754	62.9883	83.2654	62.9883	83.5108	62.9883	83.1737	62.9883	83.436	62.9883	83.0845	62.9883	83.3544	62.9883	83.0011	62.9883	83.2692	62.9883	82.9263	62.9883	83.1837	62.9883	82.8618	62.9883	83.1008	62.9883	82.8088	62.9883	83.023	62.9883	82.7678	62.9883	82.9522	62.9883	82.7388	62.9883	82.8897	62.9883	82.7213	62.9883	82.8363	62.9883	82.7149	62.9883	82.7923	62.9883	82.7192	62.9883	82.7581	62.9883	82.7336
64.4531	83.797	64.4531	83.7636	64.4531	83.8127	64.4531	83.7138	64.4531	83.8104	64.4531	83.6495	64.4531	83.7903	64.4531	83.5736	64.4531	83.7536	64.4531	83.4892	64.4531	83.7022	64.4531	83.4002	64.4531	83.6385	64.4531	83.3104	64.4531	83.5654	64.4531	83.2236	64.4531	83.4862	64.4531	83.1431	64.4531	83.4043	64.4531	83.0716	64.4531	83.3228	64.4531	83.0109	64.4531	83.2445	64.4531	82.9621	64.4531	83.1716	64.4531	82.9254	64.4531	83.1059	64.4531	82.9004	64.4531	83.0482	64.4531	82.8865	64.4531	82.999	64.4531	82.8828	64.4531	82.9585	64.4531	82.8885	64.4531	82.9266	64.4531	82.9033
67.3828	84.0545	67.3828	84.0236	67.3828	84.0668	67.3828	83.9752	67.3828	84.0602	67.3828	83.9115	67.3828	84.0354	67.3828	83.8352	67.3828	83.9938	67.3828	83.75	67.3828	83.9378	67.3828	83.6599	67.3828	83.8702	67.3828	83.569	67.3828	83.7944	67.3828	83.4813	67.3828	83.714	67.3828	83.4005	67.3828	83.6327	67.3828	83.3294	67.3828	83.5536	67.3828	83.2699	67.3828	83.4794	67.3828	83.223	67.3828	83.4121	67.3828	83.1887	67.3828	83.3527	67.3828	83.1664	67.3828	83.3016	67.3828	83.1549	67.3828	83.2586	67.3828	83.1531	67.3828	83.2233	67.3828	83.1597	67.3828	83.1952	67.3828	83.1739
68.8477	84.1666	68.8477	84.1379	68.8477	84.1756	68.8477	84.0905	68.8477	84.1648	68.8477	84.0267	68.8477	84.1349	68.8477	83.9493	68.8477	84.0878	68.8477	83.8619	68.8477	84.0259	68.8477	83.7689	68.8477	83.9525	68.8477	83.6744	68.8477	83.8713	68.8477	83.5829	68.8477	83.7862	68.8477	83.4981	68.8477	83.7011	68.8477	83.4232	68.8477	83.6194	68.8477	83.3602	68.8477	83.5439	68.8477	83.3103	68.8477	83.4765	68.8477	83.2736	68.8477	83.418	68.8477	83.2493	68.8477	83.3687	68.8477	83.2363	68.8477	83.3281	68.8477	83.233	68.8477	83.2953	68.8477	83.2381	68.8477	83.2696	68.8477	83.2505
71.7773	84.4354	71.7773	84.412	71.7773	84.4379	71.7773	84.3688	71.7773	84.4196	71.7773	84.3075	71.7773	84.3815	71.7773	84.2312	71.7773	84.3255	71.7773	84.1435	71.7773	84.2544	71.7773	84.0485	71.7773	84.1716	71.7773	83.9509	71.7773	84.081	71.7773	83.8549	71.7773	83.9868	71.7773	83.7645	71.7773	83.8929	71.7773	83.683	71.7773	83.8032	71.7773	83.6125	71.7773	83.7208	71.7773	83.5544	71.7773	83.648	71.7773	83.5087	71.7773	83.5863	71.7773	83.4749	71.7773	83.536	71.7773	83.452	71.7773	83.4968	71.7773	83.4386	71.7773	83.4679	71.7773	83.4339	71.7773	83.4483	71.7773	83.4372
74.707	84.6864	74.707	84.6699	74.707	84.6821	74.707	84.6335	74.707	84.6575	74.707	84.5787	74.707	84.614	74.707	84.5083	74.707	84.5537	74.707	84.4258	74.707	84.4797	74.707	84.3352	74.707	84.3955	74.707	84.2411	74.707	84.3052	74.707	84.1477	74.707	84.2127	74.707	84.059	74.707	84.1221	74.707	83.9781	74.707	84.0367	74.707	83.9072	74.707	83.9592	74.707	83.8475	74.707	83.8915	74.707	83.7991	74.707	83.8346	74.707	83.7616	74.707	83.7887	74.707	83.7342	74.707	83.7535	74.707	83.7161	74.707	83.7283	74.707	83.7066	74.707	83.7125	74.707	83.7054
77.6367	84.8291	77.6367	84.8192	77.6367	84.8179	77.6367	84.7888	77.6367	84.7858	77.6367	84.7397	77.6367	84.7343	77.6367	84.6747	77.6367	84.6658	77.6367	84.5972	77.6367	84.5837	77.6367	84.5113	77.6367	84.4919	77.6367	84.4215	77.6367	84.3951	77.6367	84.3322	77.6367	84.2982	77.6367	84.2473	77.6367	84.2057	77.6367	84.1701	77.6367	84.1217	77.6367	84.1027	77.6367	84.0493	77.6367	84.0461	77.6367	83.9904	77.6367	84.0003	77.6367	83.9456	77.6367	83.9642	77.6367	83.9144	77.6367	83.9365	77.6367	83.8952	77.6367	83.9156	77.6367	83.8861	77.6367	83.9003	77.6367	83.8849	77.6367	83.89
79.1016	84.9041	79.1016	84.8922	79.1016	84.8938	79.1016	84.859	79.1016	84.8615	79.1016	84.8066	79.1016	84.8088	79.1016	84.738	79.1016	84.7382	79.1016	84.6572	79.1016	84.6532	79.1016	84.5688	79.1016	84.5581	79.1016	84.4774	79.1016	84.4578	79.1016	84.3877	79.1016	84.3574	79.1016	84.3037	79.1016	84.2617	79.1016	84.2283	79.1016	84.175	79.1016	84.1635	79.1016	84.1007	79.1016	84.1098	79.1016	84.0408	79.1016	84.0665	79.1016	83.996	79.1016	84.0323	79.1016	83.966	79.1016	84.0054	79.1016	83.949	79.1016	83.9839	79.1016	83.9429	79.1016	83.9668	79.1016	83.9452	79.1016	83.9537
82.0313	85.1712	82.0313	85.1626	82.0313	85.1549	82.0313	85.1294	82.0313	85.1143	82.0313	85.0735	82.0313	85.0515	82.0313	84.9978	82.0313	84.9694	82.0313	84.9063	82.0313	84.8719	82.0313	84.804	82.0313	84.7638	82.0313	84.6961	82.0313	84.6502	82.0313	84.5881	82.0313	84.5363	82.0313	84.4849	82.0313	84.4272	82.0313	84.3908	82.0313	84.3273	82.0313	84.3084	82.0313	84.2402	82.0313	84.239	82.0313	84.1683	82.0313	84.1825	82.0313	84.1125	82.0313	84.1376	82.0313	84.0728	82.0313	84.1025	82.0313	84.0477	82.0313	84.0754	82.0313	84.0356	82.0313	84.055	82.0313	84.034	82.0313	84.041
84.9609	85.3943	84.9609	85.3896	84.9609	85.3749	84.9609	85.3609	84.9609	85.3325	84.9609	85.3093	84.9609	85.2686	84.9609	85.2369	84.9609	85.1861	84.9609	85.1466	84.9609	85.0882	84.9609	85.0419	84.9609	84.979	84.9609	84.9271	84.9609	84.8627	84.9609	84.8067	84.9609	84.7438	84.9609	84.6854	84.9609	84.6265	84.9609	84.5676	84.9609	84.5147	84.9609	84.4574	84.9609	84.4118	84.9609	84.3582	84.9609	84.3203	84.9609	84.2723	84.9609	84.2422	84.9609	84.2014	84.9609	84.1785	84.9609	84.1461	84.9609	84.1297	84.9609	84.1063	84.9609	84.0957	84.9609	84.0817	84.9609	84.0765	84.9609	84.0718
87.8906	85.2736	87.8906	85.2648	87.8906	85.2634	87.8906	85.238	87.8906	85.2342	87.8906	85.1953	87.8906	85.1872	87.8906	85.1394	87.8906	85.1244	87.8906	85.0737	87.8906	85.0489	87.8906	85.0014	87.8906	84.9642	87.8906	84.9259	87.8906	84.8743	87.8906	84.8499	87.8906	84.7833	87.8906	84.7752	87.8906	84.6948	87.8906	84.7033	87.8906	84.6122	87.8906	84.6351	87.8906	84.538	87.8906	84.5713	87.8906	84.474	87.8906	84.5126	87.8906	84.4215	87.8906	84.4601	87.8906	84.3807	87.8906	84.415	87.8906	84.3518	87.8906	84.3783	87.8906	84.3347	87.8906	84.3513	87.8906	84.3291	87.8906	84.3348
90.8203	84.8564	90.8203	84.8353	90.8203	84.8617	90.8203	84.8006	90.8203	84.8506	90.8203	84.7562	90.8203	84.8247	90.8203	84.7077	90.8203	84.7868	90.8203	84.6615	90.8203	84.7409	90.8203	84.6241	90.8203	84.6917	90.8203	84.601	90.8203	84.644	90.8203	84.5954	90.8203	84.602	90.8203	84.6079	90.8203	84.5691	90.8203	84.6358	90.8203	84.5477	90.8203	84.6737	90.8203	84.5389	90.8203	84.7147	90.8203	84.5427	90.8203	84.7513	90.8203	84.5583	90.8203	84.7774	90.8203	84.5841	90.8203	84.789	90.8203	84.6179	90.8203	84.7847	90.8203	84.6568	90.8203	84.7656	90.8203	84.6973	90.8203	84.7351
95.2148	86.0127	95.2148	86.032	95.2148	85.96	95.2148	86.0166	95.2148	85.8765	95.2148	85.9665	95.2148	85.7662	95.2148	85.8828	95.2148	85.6338	95.2148	85.7682	95.2148	85.4854	95.2148	85.6267	95.2148	85.3278	95.2148	85.4638	95.2148	85.1684	95.2148	85.2863	95.2148	85.0146	95.2148	85.1029	95.2148	84.8732	95.2148	84.9233	95.2148	84.7497	95.2148	84.7575	95.2148	84.6475	95.2148	84.6152	95.2148	84.5676	95.2148	84.5034	95.2148	84.5082	95.2148	84.4253	95.2148	84.4655	95.2148	84.3795	95.2148	84.4345	95.2148	84.3606	95.2148	84.4105	95.2148	84.3609	95.2148	84.3901	95.2148	84.3726
98.1445	85.5791	98.1445	85.5755	98.1445	85.5558	98.1445	85.5464	98.1445	85.5062	98.1445	85.4945	98.1445	85.4324	98.1445	85.4239	98.1445	85.3382	98.1445	85.3397	98.1445	85.2286	98.1445	85.2471	98.1445	85.1097	98.1445	85.1512	98.1445	84.9879	98.1445	85.0565	98.1445	84.8698	98.1445	84.966	98.1445	84.7611	98.1445	84.8821	98.1445	84.6666	98.1445	84.8056	98.1445	84.5893	98.1445	84.7369	98.1445	84.5306	98.1445	84.6762	98.1445	84.4901	98.1445	84.6233	98.1445	84.4662	98.1445	84.578	98.1445	84.4561	98.1445	84.5401	98.1445	84.4574	98.1445	84.5092	98.1445	84.4675	98.1445	84.485
101.074	85.5896	101.074	85.593	101.074	85.5566	101.074	85.5673	101.074	85.4951	101.074	85.5147	101.074	85.4083	101.074	85.4389	101.074	85.3005	101.074	85.3451	101.074	85.1777	101.074	85.2392	101.074	85.0466	101.074	85.1273	101.074	84.9147	101.074	85.0155	101.074	84.789	101.074	84.9091	101.074	84.6759	101.074	84.8118	101.074	84.5801	101.074	84.7263	101.074	84.5046	101.074	84.6536	101.074	84.45	101.074	84.5934	101.074	84.4152	101.074	84.5446	101.074	84.3973	101.074	84.5055	101.074	84.3928	101.074	84.474	101.074	84.3981	101.074	84.4484	101.074	84.4102	101.074	84.4272
105.469	85.8032	105.469	85.8082	105.469	85.7684	105.469	85.7844	105.469	85.7048	105.469	85.7347	105.469	85.6151	105.469	85.6634	105.469	85.504	105.469	85.5765	105.469	85.3774	105.469	85.4802	105.469	85.2426	105.469	85.3812	105.469	85.1073	105.469	85.2851	105.469	84.9792	105.469	85.1964	105.469	84.8653	105.469	85.1175	105.469	84.7713	105.469	85.0493	105.469	84.7005	105.469	84.9908	105.469	84.6542	105.469	84.9403	105.469	84.6312	105.469	84.8955	105.469	84.6287	105.469	84.854	105.469	84.6423	105.469	84.8143	105.469	84.6676	105.469	84.7753	105.469	84.7002	105.469	84.7369
108.398	85.8352	108.398	85.8375	108.398	85.8022	108.398	85.8102	108.398	85.7392	108.398	85.7566	108.398	85.6488	108.398	85.6817	108.398	85.5358	108.398	85.5917	108.398	85.4064	108.398	85.494	108.398	85.2681	108.398	85.3958	108.398	85.1291	108.398	85.3037	108.398	84.9979	108.398	85.2225	108.398	84.8822	108.398	85.1548	108.398	84.7885	108.398	85.1005	108.398	84.7208	108.398	85.0576	108.398	84.6807	108.398	85.0223	108.398	84.6671	108.398	84.9904	108.398	84.6765	108.398	84.9579	108.398	84.7039	108.398	84.9221	108.398	84.7434	108.398	84.8815	108.398	84.7893	108.398	84.8366
112.793	86.1203	112.793	86.1183	112.793	86.0882	112.793	86.0832	112.793	86.0234	112.793	86.0177	112.793	85.929	112.793	85.9264	112.793	85.8096	112.793	85.8156	112.793	85.6717	112.793	85.6928	112.793	85.5225	112.793	85.566	112.793	85.3702	112.793	85.4432	112.793	85.223	112.793	85.331	112.793	85.0887	112.793	85.2341	112.793	84.9739	112.793	85.1548	112.793	84.8836	112.793	85.0925	112.793	84.8203	112.793	85.0444	112.793	84.784	112.793	85.0062	112.793	84.7725	112.793	84.9731	112.793	84.7812	112.793	84.9411	112.793	84.8045	112.793	84.9076	112.793	84.8366	112.793	84.8722
117.188	86.2204	117.188	86.2231	117.188	86.1813	117.188	86.1899	117.188	86.1071	117.188	86.1236	117.188	86.0014	117.188	86.0293	117.188	85.8694	117.188	85.9138	117.188	85.7181	117.188	85.7857	117.188	85.5552	117.188	85.654	117.188	85.3897	117.188	85.5279	117.188	85.2303	117.188	85.4148	117.188	85.0857	117.188	85.3197	117.188	84.9633	117.188	85.2444	117.188	84.8687	117.188	85.1871	117.188	84.8052	117.188	85.1432	117.188	84.7733	117.188	85.1067	117.188	84.7708	117.188	85.0714	117.188	84.7928	117.188	85.0324	117.188	84.8326	117.188	84.9872	117.188	84.8828	117.188	84.9362
120.117	86.5125	120.117	86.5306	120.117	86.4586	120.117	86.512	120.117	86.3721	120.117	86.458	120.117	86.2574	120.117	86.372	120.117	86.1208	120.117	86.2597	120.117	85.9693	120.117	86.1288	120.117	85.8111	120.117	85.9887	120.117	85.654	120.117	85.8492	120.117	85.5059	120.117	85.7198	120.117	85.3735	120.117	85.6079	120.117	85.2625	120.117	85.5178	120.117	85.1767	120.117	85.4496	120.117	85.118	120.117	85.3997	120.117	85.0865	120.117	85.3616	120.117	85.0802	120.117	85.3284	120.117	85.0952	120.117	85.2941	120.117	85.1264	120.117	85.2554	120.117	85.1674	120.117	85.2121
124.512	86.3566	124.512	86.3684	124.512	86.3084	124.512	86.3438	124.512	86.226	124.512	86.2851	124.512	86.1136	124.512	86.1963	124.512	85.9775	124.512	86.0831	124.512	85.8256	124.512	85.9523	124.512	85.6672	124.512	85.8117	124.512	85.5118	124.512	85.6696	124.512	85.369	124.512	85.5341	124.512	85.2469	124.512	85.4126	124.512	85.1512	124.512	85.3113	124.512	85.0849	124.512	85.2338	124.512	85.0475	124.512	85.1809	124.512	85.0352	124.512	85.1498	124.512	85.042	124.512	85.1349	124.512	85.0602	124.512	85.129	124.512	85.0826	124.512	85.1249	124.512	85.1027	124.512	85.117
128.906	86.1627	128.906	86.1708	128.906	86.1157	128.906	86.1411	128.906	86.0311	128.906	86.0763	128.906	85.9118	128.906	85.9811	128.906	85.7631	128.906	85.8614	128.906	85.5917	128.906	85.7241	128.906	85.406	128.906	85.5764	128.906	85.2153	128.906	85.4254	128.906	85.0295	128.906	85.2778	128.906	84.8583	128.906	85.1391	128.906	84.7102	128.906	85.0136	128.906	84.5919	128.906	84.9043	128.906	84.5073	128.906	84.8124	128.906	84.4567	128.906	84.7373	128.906	84.4371	128.906	84.6763	128.906	84.4428	128.906	84.6255	128.906	84.4662	128.906	84.5808	128.906	84.5001	128.906	84.5392
133.301	86.1448	133.301	86.1498	133.301	86.1051	133.301	86.1209	133.301	86.0321	133.301	86.0609	133.301	85.9292	133.301	85.9744	133.301	85.8015	133.301	85.8672	133.301	85.6557	133.301	85.7461	133.301	85.4992	133.301	85.618	133.301	85.3396	133.301	85.4892	133.301	85.1843	133.301	85.3649	133.301	85.0398	133.301	85.2489	133.301	84.9116	133.301	85.1435	133.301	84.8039	133.301	85.0495	133.301	84.7194	133.301	84.9666	133.301	84.6594	133.301	84.8935	133.301	84.6238	133.301	84.8288	133.301	84.6109	133.301	84.7711	133.301	84.6178	133.301	84.7199	133.301	84.6407	133.301	84.6758
139.16	86.0481	139.16	86.052	139.16	86.0074	139.16	86.0203	139.16	85.9319	139.16	85.9569	139.16	85.8264	139.16	85.8689	139.16	85.6984	139.16	85.765	139.16	85.557	139.16	85.6553	139.16	85.4125	139.16	85.5496	139.16	85.275	139.16	85.4561	139.16	85.1534	139.16	85.3801	139.16	85.0544	139.16	85.3235	139.16	84.9817	139.16	85.2846	139.16	84.9362	139.16	85.259	139.16	84.9164	139.16	85.2411	139.16	84.9188	139.16	85.2249	139.16	84.9393	139.16	85.2055	139.16	84.973	139.16	85.1796	139.16	85.015	139.16	85.146	139.16	85.0607	139.16	85.1056
143.555	86.151	143.555	86.1476	143.555	86.1105	143.555	86.101	143.555	86.0283	143.555	86.0152	143.555	85.9097	143.555	85.897	143.555	85.7626	143.555	85.7561	143.555	85.5973	143.555	85.6041	143.555	85.4253	143.555	85.4532	143.555	85.259	143.555	85.3155	143.555	85.1097	143.555	85.2005	143.555	84.9869	143.555	85.1143	143.555	84.8967	143.555	85.0586	143.555	84.8414	143.555	85.0305	143.555	84.8191	143.555	85.0232	143.555	84.8249	143.555	85.0279	143.555	84.8516	143.555	85.0355	143.555	84.891	143.555	85.0379	143.555	84.935	143.555	85.0299	143.555	84.9763	143.555	85.0091
147.949	86.1795	147.949	86.1754	147.949	86.138	147.949	86.1259	147.949	86.0533	147.949	86.0348	147.949	85.931	147.949	85.9084	147.949	85.7789	147.949	85.7559	147.949	85.6072	147.949	85.5884	147.949	85.4274	147.949	85.4181	147.949	85.2516	147.949	85.257	147.949	85.0915	147.949	85.1155	147.949	84.9569	147.949	85.0011	147.949	84.8542	147.949	84.9178	147.949	84.7863	147.949	84.8655	147.949	84.7516	147.949	84.8404	147.949	84.745	147.949	84.8356	147.949	84.7588	147.949	84.8423	147.949	84.7842	147.949	84.8518	147.949	84.8127	147.949	84.8567	147.949	84.837	147.949	84.8522
153.809	86.3235	153.809	86.3155	153.809	86.2828	153.809	86.2596	153.809	86.1954	153.809	86.1593	153.809	86.0658	153.809	86.0209	153.809	85.9014	153.809	85.8537	153.809	85.7119	153.809	85.6692	153.809	85.5094	153.809	85.4806	153.809	85.3076	153.809	85.3017	153.809	85.1207	153.809	85.1449	153.809	84.962	153.809	85.0196	153.809	84.8417	153.809	84.9306	153.809	84.765	153.809	84.8775	153.809	84.731	153.809	84.8555	153.809	84.7332	153.809	84.8562	153.809	84.7608	153.809	84.8697	153.809	84.8011	153.809	84.8857	153.809	84.842	153.809	84.8954	153.809	84.8744	153.809	84.8926
159.668	86.4997	159.668	86.4904	159.668	86.4606	159.668	86.4334	159.668	86.3746	159.668	86.3321	159.668	86.2454	159.668	86.1922	159.668	86.079	159.668	86.0212	159.668	85.8829	159.668	85.8282	159.668	85.6662	159.668	85.6235	159.668	85.4392	159.668	85.4179	159.668	85.2131	159.668	85.2225	159.668	84.9996	159.668	85.0471	159.668	84.8107	159.668	84.8996	159.668	84.6564	159.668	84.7846	159.668	84.544	159.668	84.7022	159.668	84.4757	159.668	84.648	159.668	84.4481	159.668	84.6139	159.668	84.4524	159.668	84.5903	159.668	84.4769	159.668	84.5681	159.668	84.5096	159.668	84.5415
165.527	86.2452	165.527	86.2457	165.527	86.1991	165.527	86.2013	165.527	86.11	165.527	86.1156	165.527	85.9834	165.527	85.9952	165.527	85.827	165.527	85.8489	165.527	85.6501	165.527	85.6865	165.527	85.4623	165.527	85.5185	165.527	85.2732	165.527	85.3548	165.527	85.0915	165.527	85.2038	165.527	84.925	165.527	85.0716	165.527	84.7803	165.527	84.962	165.527	84.6634	165.527	84.876	165.527	84.5784	165.527	84.8117	165.527	84.5273	165.527	84.7645	165.527	84.5086	165.527	84.7283	165.527	84.5173	165.527	84.6962	165.527	84.5456	165.527	84.6627	165.527	84.5843	165.527	84.625
171.387	86.0339	171.387	86.0501	171.387	85.97	171.387	86.0189	171.387	85.8618	171.387	85.9438	171.387	85.7163	171.387	85.8318	171.387	85.5433	171.387	85.6915	171.387	85.354	171.387	85.5325	171.387	85.16	171.387	85.3644	171.387	84.972	171.387	85.1958	171.387	84.7982	171.387	85.034	171.387	84.6443	171.387	84.8853	171.387	84.5139	171.387	84.7546	171.387	84.4087	171.387	84.6452	171.387	84.3295	171.387	84.5581	171.387	84.2767	171.387	84.4911	171.387	84.2494	171.387	84.4394	171.387	84.2453	171.387	84.3971	171.387	84.26	171.387	84.3588	171.387	84.2876	171.387	84.3219
177.246	85.7976	177.246	85.8189	177.246	85.732	177.246	85.7964	177.246	85.6259	177.246	85.7349	177.246	85.4873	177.246	85.6427	177.246	85.3272	177.246	85.5309	177.246	85.1584	177.246	85.4106	177.246	84.9941	177.246	85.2918	177.246	84.8454	177.246	85.1816	177.246	84.7207	177.246	85.0833	177.246	84.6239	177.246	84.9971	177.246	84.5551	177.246	84.9216	177.246	84.5115	177.246	84.855	177.246	84.4886	177.246	84.7959	177.246	84.4817	177.246	84.7432	177.246	84.4869	177.246	84.6961	177.246	84.5012	177.246	84.6538	177.246	84.5225	177.246	84.6154	177.246	84.5493	177.246	84.5805
183.105	85.6869	183.105	85.686	183.105	85.6322	183.105	85.6302	183.105	85.527	183.105	85.5253	183.105	85.3807	183.105	85.3829	183.105	85.2069	183.105	85.2184	183.105	85.021	183.105	85.0499	183.105	84.8395	183.105	84.8946	183.105	84.677	183.105	84.766	183.105	84.5453	183.105	84.6716	183.105	84.4515	183.105	84.6127	183.105	84.3981	183.105	84.5856	183.105	84.3831	183.105	84.5839	183.105	84.4006	183.105	84.6003	183.105	84.4426	183.105	84.6269	183.105	84.499	183.105	84.6558	183.105	84.5598	183.105	84.6792	183.105	84.6155	183.105	84.6902	183.105	84.6585	183.105	84.6839
188.965	85.6039	188.965	85.6066	188.965	85.5396	188.965	85.5494	188.965	85.4181	188.965	85.4391	188.965	85.2493	188.965	85.2878	188.965	85.048	188.965	85.112	188.965	84.8329	188.965	84.93	188.965	84.6245	188.965	84.7597	188.965	84.4427	188.965	84.6145	188.965	84.3034	188.965	84.5019	188.965	84.2162	188.965	84.4233	188.965	84.1834	188.965	84.3764	188.965	84.2	188.965	84.3579	188.965	84.255	188.965	84.3653	188.965	84.3335	188.965	84.3952	188.965	84.4191	188.965	84.4417	188.965	84.4962	188.965	84.4953	188.965	84.552	188.965	84.5436	188.965	84.5788	188.965	84.5746
196.289	85.8278	196.289	85.831	196.289	85.7541	196.289	85.7649	196.289	85.6149	196.289	85.6364	196.289	85.4209	196.289	85.4586	196.289	85.1887	196.289	85.2503	196.289	84.9394	196.289	85.0357	196.289	84.6963	196.289	84.8412	196.289	84.4818	196.289	84.6909	196.289	84.3139	196.289	84.5994	196.289	84.2035	196.289	84.5683	196.289	84.154	196.289	84.5865	196.289	84.1626	196.289	84.6361	196.289	84.2213	196.289	84.6987	196.289	84.3179	196.289	84.7601	196.289	84.4375	196.289	84.8106	196.289	84.5629	196.289	84.8427	196.289	84.6775	196.289	84.8498	196.289	84.7678	196.289	84.8259
203.613	85.7536	203.613	85.7649	203.613	85.6665	203.613	85.7029	203.613	85.5064	203.613	85.5755	203.613	85.2822	203.613	85.3956	203.613	85.0091	203.613	85.181	203.613	84.709	203.613	84.9531	203.613	84.4091	203.613	84.7355	203.613	84.1392	203.613	84.5501	203.613	83.9266	203.613	84.4134	203.613	83.7907	203.613	84.3329	203.613	83.7385	203.613	84.3064	203.613	83.764	203.613	84.324	203.613	83.8515	203.613	84.3722	203.613	83.9803	203.613	84.4357	203.613	84.1285	203.613	84.4996	203.613	84.2755	203.613	84.5492	203.613	84.4038	203.613	84.5714	203.613	84.5002	203.613	84.5566
210.938	85.7807	210.938	85.7933	210.938	85.6861	210.938	85.7251	210.938	85.5138	210.938	85.5825	210.938	85.2739	210.938	85.3777	210.938	84.9821	210.938	85.1283	210.938	84.66	210.938	84.8574	210.938	84.333	210.938	84.5923	210.938	84.0284	210.938	84.361	210.938	83.7717	210.938	84.1863	210.938	83.5825	210.938	84.0795	210.938	83.4717	210.938	84.0378	210.938	83.4407	210.938	84.0465	210.938	83.4812	210.938	84.0854	210.938	83.5776	210.938	84.1351	210.938	83.7091	210.938	84.1796	210.938	83.8528	210.938	84.2065	210.938	83.9876	210.938	84.2059	210.938	84.0968	210.938	84.1705
218.262	85.8803	218.262	85.9045	218.262	85.7654	218.262	85.8415	218.262	85.5633	218.262	85.7006	218.262	85.2846	218.262	85.4966	218.262	84.949	218.262	85.2494	218.262	84.5849	218.262	84.9832	218.262	84.2282	218.262	84.7252	218.262	83.9167	218.262	84.5018	218.262	83.682	218.262	84.3349	218.262	83.5414	218.262	84.2362	218.262	83.4941	218.262	84.2046	218.262	83.525	218.262	84.2262	218.262	83.6125	218.262	84.2796	218.262	83.7355	218.262	84.3417	218.262	83.8765	218.262	84.3924	218.262	84.0212	218.262	84.4171	218.262	84.1571	218.262	84.4067	218.262	84.2726	218.262	84.3579
225.586	86.0186	225.586	86.0185	225.586	85.913	225.586	85.9173	225.586	85.7022	225.586	85.7255	225.586	85.3933	225.586	85.4593	225.586	85.0013	225.586	85.1422	225.586	84.5523	225.586	84.8048	225.586	84.0859	225.586	84.4836	225.586	83.6547	225.586	84.2159	225.586	83.3168	225.586	84.0326	225.586	83.1204	225.586	83.9496	225.586	83.0855	225.586	83.9638	225.586	83.1962	225.586	84.0547	225.586	83.4099	225.586	84.1922	225.586	83.6756	225.586	84.3438	225.586	83.9484	225.586	84.4809	225.586	84.1958	225.586	84.5814	225.586	84.3967	225.586	84.6299	225.586	84.5391	225.586	84.6171
232.91	86.3872	232.91	86.3674	232.91	86.3048	232.91	86.2496	232.91	86.1191	232.91	86.0415	232.91	85.8323	232.91	85.7547	232.91	85.4518	232.91	85.4068	232.91	84.9919	232.91	85.0219	232.91	84.4771	232.91	84.6316	232.91	83.9457	232.91	84.2723	232.91	83.4499	232.91	83.9805	232.91	83.0505	232.91	83.7849	232.91	82.8025	232.91	83.6978	232.91	82.7336	232.91	83.7122	232.91	82.8326	232.91	83.8036	232.91	83.0547	232.91	83.937	232.91	83.3407	232.91	84.0741	232.91	83.6343	232.91	84.18	232.91	83.8921	232.91	84.2273	232.91	84.0853	232.91	84.1982
241.699	86.3709	241.699	86.3432	241.699	86.3029	241.699	86.2235	241.699	86.1383	241.699	86.0187	241.699	85.8797	241.699	85.7394	241.699	85.5341	241.699	85.4011	241.699	85.1147	241.699	85.0253	241.699	84.6426	241.699	84.6405	241.699	84.1488	241.699	84.2809	241.699	83.6744	241.699	83.9818	241.699	83.2676	241.699	83.7713	241.699	82.9746	241.699	83.6623	241.699	82.8268	241.699	83.6481	241.699	82.8293	241.699	83.7058	241.699	82.9586	241.699	83.8031	241.699	83.1714	241.699	83.9054	241.699	83.4177	241.699	83.9812	241.699	83.6518	241.699	84.0047	241.699	83.8393	241.699	83.9593
250.488	86.4645	250.488	86.4109	250.488	86.417	250.488	86.2595	250.488	86.2679	250.488	86.0168	250.488	86.02	250.488	85.6937	250.488	85.6801	250.488	85.3062	250.488	85.2606	250.488	84.8779	250.488	84.7818	250.488	84.4404	250.488	84.2736	250.488	84.0323	250.488	83.7763	250.488	83.6935	250.488	83.3374	250.488	83.455	250.488	83.0031	250.488	83.3292	250.488	82.8052	250.488	83.3065	250.488	82.7506	250.488	83.3603	250.488	82.8194	250.488	83.4557	250.488	82.9734	250.488	83.557	250.488	83.1681	250.488	83.633	250.488	83.3616	250.488	83.6599	250.488	83.5207	250.488	83.6233
259.277	86.4989	259.277	86.4689	259.277	86.4378	259.277	86.3491	259.277	86.2862	259.277	86.1433	259.277	86.0468	259.277	85.8588	259.277	85.725	259.277	85.5073	259.277	85.3298	259.277	85.1072	259.277	84.8766	259.277	84.6847	259.277	84.3896	259.277	84.2744	259.277	83.9043	259.277	83.9164	259.277	83.4669	259.277	83.6472	259.277	83.1275	259.277	83.4896	259.277	82.9262	259.277	83.444	259.277	82.8774	259.277	83.4893	259.277	82.9629	259.277	83.5899	259.277	83.1397	259.277	83.706	259.277	83.3555	259.277	83.8008	259.277	83.5628	259.277	83.8457	259.277	83.7256	259.277	83.8225
268.066	86.1432	268.066	86.0951	268.066	86.0983	268.066	85.9567	268.066	85.9606	268.066	85.7341	268.066	85.7328	268.066	85.4377	268.066	85.4203	268.066	85.0824	268.066	85.0326	268.066	84.6887	268.066	84.5847	268.066	84.2828	268.066	84.0996	268.066	83.8961	268.066	83.6103	268.066	83.5623	268.066	83.1587	268.066	83.3109	268.066	82.7918	268.066	83.1605	268.066	82.5509	268.066	83.1122	268.066	82.4589	268.066	83.1496	268.066	82.5108	268.066	83.2424	268.066	82.6734	268.066	83.353	268.066	82.8965	268.066	83.4425	268.066	83.1262	268.066	83.4781	268.066	83.3169	268.066	83.4382
276.855	86.2964	276.855	86.2995	276.855	86.1957	276.855	86.1968	276.855	86.0094	276.855	85.9852	276.855	85.7505	276.855	85.6679	276.855	85.4311	276.855	85.2557	276.855	85.0611	276.855	84.7695	276.855	84.6486	276.855	84.2436	276.855	84.204	276.855	83.7271	276.855	83.7451	276.855	83.2802	276.855	83.302	276.855	82.9587	276.855	82.9169	276.855	82.793	276.855	82.6353	276.855	82.7738	276.855	82.4882	276.855	82.8581	276.855	82.4779	276.855	82.9899	276.855	82.576	276.855	83.1179	276.855	82.7375	276.855	83.2047	276.855	82.9161	276.855	83.2291	276.855	83.0739	276.855	83.1837
287.109	86.3318	287.109	86.3673	287.109	86.1881	287.109	86.2924	287.109	85.944	287.109	86.1092	287.109	85.6131	287.109	85.8235	287.109	85.2144	287.109	85.4451	287.109	84.7707	287.109	84.9887	287.109	84.3065	287.109	84.4775	287.109	83.8457	287.109	83.9457	287.109	83.4111	287.109	83.4397	287.109	83.0266	287.109	83.0118	287.109	82.7194	287.109	82.7076	287.109	82.5184	287.109	82.5519	287.109	82.4446	287.109	82.5406	287.109	82.4973	287.109	82.6425	287.109	82.647	287.109	82.8088	287.109	82.8414	287.109	82.9844	287.109	83.0229	287.109	83.1195	287.109	83.1445	287.109	83.1784
297.363	86.3134	297.363	86.3196	297.363	86.197	297.363	86.221	297.363	85.9694	297.363	86.0245	297.363	85.6364	297.363	85.7377	297.363	85.2129	297.363	85.3675	297.363	84.7239	297.363	84.9227	297.363	84.2034	297.363	84.417	297.363	83.6897	297.363	83.8749	297.363	83.2191	297.363	83.3372	297.363	82.8206	297.363	82.8597	297.363	82.5162	297.363	82.5027	297.363	82.3241	297.363	82.3094	297.363	82.2582	297.363	82.2866	297.363	82.3186	297.363	82.4012	297.363	82.4798	297.363	82.5948	297.363	82.6901	297.363	82.8021	297.363	82.8866	297.363	82.9653	297.363	83.015	297.363	83.043
307.617	86.4366	307.617	86.4152	307.617	86.3585	307.617	86.3013	307.617	86.1762	307.617	86.1037	307.617	85.8886	307.617	85.8324	307.617	85.4995	307.617	85.4978	307.617	85.021	307.617	85.1109	307.617	84.4772	307.617	84.6844	307.617	83.9061	307.617	84.237	307.617	83.3585	307.617	83.7958	307.617	82.889	307.617	83.3976	307.617	82.5427	307.617	83.0842	307.617	82.3432	307.617	82.8904	307.617	82.2896	307.617	82.8288	307.617	82.3615	307.617	82.88	307.617	82.5252	307.617	82.9967	307.617	82.7369	307.617	83.1206	307.617	82.9479	307.617	83.2	307.617	83.1133	307.617	83.2012
319.336	86.4707	319.336	86.4435	319.336	86.3797	319.336	86.3053	319.336	86.1672	319.336	86.0676	319.336	85.8338	319.336	85.746	319.336	85.3838	319.336	85.3594	319.336	84.8284	319.336	84.9279	319.336	84.1895	319.336	84.4721	319.336	83.505	319.336	84.013	319.336	82.8337	319.336	83.5746	319.336	82.2513	319.336	83.1857	319.336	81.8336	319.336	82.879	319.336	81.6289	319.336	82.6857	319.336	81.638	319.336	82.6227	319.336	81.8182	319.336	82.6789	319.336	82.1044	319.336	82.8114	319.336	82.4272	319.336	82.9572	319.336	82.7238	319.336	83.054	319.336	82.9439	319.336	83.0562
329.59	86.5654	329.59	86.5061	329.59	86.522	329.59	86.3472	329.59	86.3758	329.59	86.0951	329.59	86.1283	329.59	85.7606	329.59	85.7811	329.59	85.3578	329.59	85.3359	329.59	84.9046	329.59	84.7968	329.59	84.4233	329.59	84.1745	329.59	83.941	329.59	83.4943	329.59	83.4889	329.59	82.8041	329.59	83.0985	329.59	82.1802	329.59	82.7981	329.59	81.716	329.59	82.609	329.59	81.4889	329.59	82.54	329.59	81.5161	329.59	82.578	329.59	81.7421	329.59	82.6832	329.59	82.0695	329.59	82.7966	329.59	82.4013	329.59	82.8575	329.59	82.6652	329.59	82.8204
341.309	85.9687	341.309	85.9175	341.309	85.9188	341.309	85.7692	341.309	85.7707	341.309	85.535	341.309	85.5312	341.309	85.2314	341.309	85.209	341.309	84.8769	341.309	84.8123	341.309	84.4886	341.309	84.3494	341.309	84.0816	341.309	83.8322	341.309	83.6715	341.309	83.2833	341.309	83.2794	341.309	82.7433	341.309	82.9359	341.309	82.2742	341.309	82.6789	341.309	81.9493	341.309	82.544	341.309	81.8251	341.309	82.5464	341.309	81.909	341.309	82.6663	341.309	82.1516	341.309	82.8502	341.309	82.47	341.309	83.0289	341.309	82.7802	341.309	83.1398	341.309	83.017	341.309	83.1409
353.027	86.2495	353.027	86.2112	353.027	86.1544	353.027	86.0391	353.027	85.9335	353.027	85.7414	353.027	85.6005	353.027	85.3346	353.027	85.173	353.027	84.8442	353.027	84.6694	353.027	84.3041	353.027	84.1071	353.027	83.7559	353.027	83.5016	353.027	83.2442	353.027	82.8712	353.027	82.8083	353.027	82.2469	353.027	82.4723	353.027	81.6843	353.027	82.2462	353.027	81.2671	353.027	82.1361	353.027	81.0834	353.027	82.1484	353.027	81.1723	353.027	82.2763	353.027	81.4861	353.027	82.4793	353.027	81.9117	353.027	82.6851	353.027	82.3279	353.027	82.815	353.027	82.644	353.027	82.8099
366.211	86.4797	366.211	86.4447	366.211	86.3779	366.211	86.2757	366.211	86.1441	366.211	85.9816	366.211	85.7914	366.211	85.5755	366.211	85.3407	366.211	85.0734	366.211	84.8188	366.211	84.4949	366.211	84.2545	366.211	83.8667	366.211	83.6726	366.211	83.2284	366.211	83.0898	366.211	82.6342	366.211	82.5168	366.211	82.1443	366.211	81.9687	366.211	81.8078	366.211	81.4828	366.211	81.6477	366.211	81.1284	366.211	81.6571	366.211	80.986	366.211	81.7993	366.211	81.0916	366.211	82.01	366.211	81.3915	366.211	82.2087	366.211	81.7653	366.211	82.318	366.211	82.0899	366.211	82.284
379.395	86.8109	379.395	86.7849	379.395	86.7106	379.395	86.6396	379.395	86.4822	379.395	86.3858	379.395	86.1298	379.395	86.0358	379.395	85.6638	379.395	85.6009	379.395	85.103	379.395	85.0902	379.395	84.4748	379.395	84.515	379.395	83.8164	379.395	83.8966	379.395	83.1712	379.395	83.274	379.395	82.5833	379.395	82.7021	379.395	82.0919	379.395	82.24	379.395	81.7292	379.395	81.9341	379.395	81.5215	379.395	81.8053	379.395	81.4843	379.395	81.8411	379.395	81.6069	379.395	81.993	379.395	81.8385	379.395	82.1847	379.395	82.0965	379.395	82.335	379.395	82.2966	379.395	82.3814
392.578	86.2646	392.578	86.2217	392.578	86.201	392.578	86.0726	392.578	86.0343	392.578	85.8242	392.578	85.7683	392.578	85.4908	392.578	85.4062	392.578	85.0903	392.578	84.9524	392.578	84.6381	392.578	84.416	392.578	84.1451	392.578	83.8143	392.578	83.6237	392.578	83.1758	392.578	83.0992	392.578	82.5426	392.578	82.6188	392.578	81.9715	392.578	82.247	392.578	81.5342	392.578	82.0431	392.578	81.3054	392.578	82.0318	392.578	81.3315	392.578	82.1852	392.578	81.5909	392.578	82.4314	392.578	81.9883	392.578	82.6792	392.578	82.3969	392.578	82.8435	392.578	82.7091	392.578	82.8627
405.762	86.1016	405.762	86.0669	405.762	85.9887	405.762	85.8833	405.762	85.7411	405.762	85.5616	405.762	85.3802	405.762	85.1249	405.762	84.932	405.762	84.6071	405.762	84.4213	405.762	84.0509	405.762	83.869	405.762	83.502	405.762	83.2912	405.762	83.0022	405.762	82.7043	405.762	82.5811	405.762	82.133	405.762	82.255	405.762	81.6185	405.762	82.0359	405.762	81.221	405.762	81.9415	405.762	81.0095	405.762	81.9884	405.762	81.033	405.762	82.1657	405.762	81.2851	405.762	82.4156	405.762	81.6915	405.762	82.6475	405.762	82.137	405.762	82.7726	405.762	82.5097	405.762	82.7319
420.41	86.7466	420.41	86.7043	420.41	86.6437	420.41	86.524	420.41	86.3974	420.41	86.2182	420.41	86.0197	420.41	85.8005	420.41	85.5313	420.41	85.2822	420.41	84.9581	420.41	84.6745	420.41	84.3249	420.41	83.9971	420.41	83.6487	420.41	83.2882	420.41	82.9352	420.41	82.6072	420.41	82.1844	420.41	82.0224	420.41	81.4108	420.41	81.5904	420.41	80.6774	420.41	81.3471	420.41	80.1246	420.41	81.3086	420.41	79.933	420.41	81.4594	420.41	80.1775	420.41	81.7306	420.41	80.7274	420.41	82.0072	420.41	81.3474	420.41	82.1689	420.41	81.8471	420.41	82.1282
435.059	86.1581	435.059	86.1383	435.059	86.0389	435.059	85.9826	435.059	85.7935	435.059	85.7108	435.059	85.4453	435.059	85.3532	435.059	85.0228	435.059	84.938	435.059	84.5542	435.059	84.4805	435.059	84.0639	435.059	83.9873	435.059	83.57	435.059	83.4743	435.059	83.0831	435.059	82.9823	435.059	82.6081	435.059	82.5709	435.059	82.1488	435.059	82.2897	435.059	81.7196	435.059	82.1554	435.059	81.3611	435.059	82.1565	435.059	81.1471	435.059	82.2666	435.059	81.1575	435.059	82.4383	435.059	81.4105	435.059	82.5952	435.059	81.8195	435.059	82.6486	435.059	82.2362	435.059	82.5328
451.172	86.8835	451.172	86.8148	451.172	86.761	451.172	86.5624	451.172	86.4568	451.172	86.1509	451.172	85.9953	451.172	85.6178	451.172	85.4137	451.172	85.0017	451.172	84.7583	451.172	84.3278	451.172	84.0773	451.172	83.6021	451.172	83.4127	451.172	82.8243	451.172	82.792	451.172	82.0205	451.172	82.2278	451.172	81.2817	451.172	81.7281	451.172	80.7796	451.172	81.3171	451.172	80.6964	451.172	81.0541	451.172	81.0632	451.172	81.0249	451.172	81.7034	451.172	81.2811	451.172	82.3713	451.172	81.7702	451.172	82.8843	451.172	82.3436	451.172	83.1463	451.172	82.8357	451.172	83.1249
465.82	86.901	465.82	86.8417	465.82	86.7817	465.82	86.6157	465.82	86.4873	465.82	86.2519	465.82	86.0332	465.82	85.7919	465.82	85.444	465.82	85.2767	465.82	84.7527	465.82	84.7269	465.82	84.0011	465.82	84.1334	465.82	83.2395	465.82	83.4687	465.82	82.5204	465.82	82.716	465.82	81.8845	465.82	81.9006	465.82	81.3478	465.82	81.1122	465.82	80.9091	465.82	80.5053	465.82	80.5791	465.82	80.2449	465.82	80.4068	465.82	80.3871	465.82	80.4577	465.82	80.8057	465.82	80.737	465.82	81.2743	465.82	81.1403	465.82	81.5995	465.82	81.5016	465.82	81.6788
483.398	86.399	483.398	86.3442	483.398	86.2672	483.398	86.1079	483.398	85.9693	483.398	85.7228	483.398	85.5446	483.398	85.2441	483.398	85.0395	483.398	84.7346	483.398	84.4942	483.398	84.2429	483.398	83.9316	483.398	83.7837	483.398	83.3561	483.398	83.3336	483.398	82.7621	483.398	82.8437	483.398	82.1497	483.398	82.2651	483.398	81.542	483.398	81.5903	483.398	80.999	483.398	80.9148	483.398	80.6205	483.398	80.4763	483.398	80.5208	483.398	80.5228	483.398	80.7551	483.398	81.0264	483.398	81.2472	483.398	81.6809	483.398	81.8085	483.398	82.1855	483.398	82.235	483.398	82.3813
499.512	86.6717	499.512	86.581	499.512	86.5549	499.512	86.2855	499.512	86.2474	499.512	85.8146	499.512	85.7781	499.512	85.2258	499.512	85.1834	499.512	84.5916	499.512	84.5068	499.512	83.9726	499.512	83.7986	499.512	83.3964	499.512	83.1115	499.512	82.8619	499.512	82.4886	499.512	82.3617	499.512	81.9481	499.512	81.8947	499.512	81.48	499.512	81.4641	499.512	81.0655	499.512	81.0911	499.512	80.7173	499.512	80.8515	499.512	80.5137	499.512	80.8668	499.512	80.5738	499.512	81.1789	499.512	80.937	499.512	81.6446	499.512	81.4668	499.512	82.0246	499.512	81.9294	499.512	82.1387
517.09	86.8018	517.09	86.6912	517.09	86.6996	517.09	86.3813	517.09	86.4052	517.09	85.9242	517.09	85.965	517.09	85.4013	517.09	85.4369	517.09	84.891	517.09	84.8732	517.09	84.4247	517.09	84.3025	517.09	83.9741	517.09	83.7239	517.09	83.4854	517.09	83.1174	517.09	82.9249	517.09	82.4655	517.09	82.2984	517.09	81.7768	517.09	81.6494	517.09	81.1066	517.09	81.0695	517.09	80.5689	517.09	80.7179	517.09	80.3161	517.09	80.7581	517.09	80.4514	517.09	81.1742	517.09	80.9218	517.09	81.7254	517.09	81.523	517.09	82.1378	517.09	82.0208	517.09	82.2487
536.133	86.5768	536.133	86.464	536.133	86.3855	536.133	86.0446	536.133	85.9189	536.133	85.3546	536.133	85.2321	536.133	84.4942	536.133	84.416	536.133	83.6453	536.133	83.6048	536.133	83.0191	536.133	82.9508	536.133	82.7076	536.133	82.5464	536.133	82.6035	536.133	82.3534	536.133	82.518	536.133	82.23	536.133	82.3198	536.133	82.0298	536.133	81.9698	536.133	81.6796	536.133	81.5132	536.133	81.2294	536.133	81.0947	536.133	80.8825	536.133	80.949	536.133	80.9074	536.133	81.2284	536.133	81.3616	536.133	81.7948	536.133	81.9858	536.133	82.3303	536.133	82.4569	536.133	82.5848
555.176	87.0075	555.176	86.9315	555.176	86.8211	555.176	86.5853	555.176	86.3889	555.176	85.9828	555.176	85.7283	555.176	85.1757	555.176	84.8588	555.176	84.2649	555.176	83.8154	555.176	83.3864	555.176	82.6787	555.176	82.6581	555.176	81.6129	555.176	82.1205	555.176	80.8481	555.176	81.7369	555.176	80.5201	555.176	81.4386	555.176	80.5049	555.176	81.1508	555.176	80.5188	555.176	80.8113	555.176	80.3492	555.176	80.4299	555.176	79.9903	555.176	80.1537	555.176	79.6944	555.176	80.1883	555.176	79.8073	555.176	80.5392	555.176	80.3256	555.176	80.9407	555.176	80.8647	555.176	81.0963
574.219	86.9566	574.219	86.881	574.219	86.7816	574.219	86.5431	574.219	86.3765	574.219	85.9485	574.219	85.7668	574.219	85.1309	574.219	84.9818	574.219	84.1631	574.219	84.0554	574.219	83.1593	574.219	83.0336	574.219	82.2517	574.219	81.9926	574.219	81.5349	574.219	81.0577	574.219	81.0193	574.219	80.3751	574.219	80.6479	574.219	80.0069	574.219	80.3503	574.219	79.8548	574.219	80.0787	574.219	79.7523	574.219	79.8419	574.219	79.6318	574.219	79.7388	574.219	79.6012	574.219	79.9005	574.219	79.828	574.219	80.3039	574.219	80.2867	574.219	80.7192	574.219	80.7248	574.219	80.8958
594.727	86.3836	594.727	86.3625	594.727	86.1519	594.727	86.0837	594.727	85.6932	594.727	85.5695	594.727	85.0468	594.727	84.874	594.727	84.2573	594.727	84.0826	594.727	83.37	594.727	83.2954	594.727	82.4348	594.727	82.592	594.727	81.5117	594.727	81.9955	594.727	80.6695	594.727	81.4705	594.727	79.9685	594.727	80.9568	594.727	79.4456	594.727	80.4189	594.727	79.1269	594.727	79.8925	594.727	79.0478	594.727	79.5048	594.727	79.2263	594.727	79.4148	594.727	79.6062	594.727	79.6663	594.727	80.0645	594.727	80.1139	594.727	80.472	594.727	80.5321	594.727	80.7269	594.727	80.7558
615.234	86.4521	615.234	86.3958	615.234	86.1731	615.234	86.0001	615.234	85.5976	615.234	85.3047	615.234	84.7895	615.234	84.4019	615.234	83.8285	615.234	83.4348	615.234	82.8022	615.234	82.5682	615.234	81.8036	615.234	81.9246	615.234	80.9296	615.234	81.5197	615.234	80.2557	615.234	81.2595	615.234	79.7822	615.234	80.991	615.234	79.4063	615.234	80.5663	615.234	78.9803	615.234	79.913	615.234	78.4313	615.234	79.1282	615.234	77.8907	615.234	78.5423	615.234	77.7137	615.234	78.5079	615.234	78.1252	615.234	78.9498	615.234	78.8527	615.234	79.4466	615.234	79.448	615.234	79.6587
637.207	86.0687	637.207	85.965	637.207	85.7982	637.207	85.4802	637.207	85.1908	637.207	84.6476	637.207	84.3073	637.207	83.5622	637.207	83.2215	637.207	82.4143	637.207	82.012	637.207	81.4765	637.207	80.7747	637.207	80.948	637.207	79.6612	637.207	80.777	637.207	78.8809	637.207	80.7476	637.207	78.5534	637.207	80.6816	637.207	78.5277	637.207	80.4968	637.207	78.4874	637.207	80.1863	637.207	78.2317	637.207	79.8267	637.207	77.8752	637.207	79.5944	637.207	77.8672	637.207	79.6639	637.207	78.502	637.207	80.0038	637.207	79.4361	637.207	80.3639	637.207	80.1682	637.207	80.4733
659.18	87.095	659.18	87.1401	659.18	86.6979	659.18	86.8262	659.18	85.9771	659.18	86.162	659.18	84.9844	659.18	85.1716	659.18	83.7901	659.18	83.9124	659.18	82.4724	659.18	82.5147	659.18	81.1126	659.18	81.2128	659.18	79.8127	659.18	80.2897	659.18	78.7259	659.18	79.9022	659.18	78.0318	659.18	79.9417	659.18	77.7888	659.18	80.1077	659.18	77.8296	659.18	80.1116	659.18	77.8971	659.18	79.8431	659.18	77.8531	659.18	79.4464	659.18	77.7784	659.18	79.2286	659.18	77.9207	659.18	79.3187	659.18	78.4067	659.18	79.4872	659.18	79.0181	659.18	79.4259
682.617	88.5447	682.617	88.6071	682.617	88.0708	682.617	88.2566	682.617	87.2139	682.617	87.5139	682.617	86.0399	682.617	86.4289	682.617	84.6579	682.617	85.0994	682.617	83.2138	682.617	83.6918	682.617	81.8631	682.617	82.431	682.617	80.7226	682.617	81.5212	682.617	79.8289	682.617	81.0354	682.617	79.1582	682.617	80.8859	682.617	78.6899	682.617	80.8987	682.617	78.4206	682.617	80.94	682.617	78.323	682.617	81.0226	682.617	78.3834	682.617	81.2755	682.617	78.7242	682.617	81.7392	682.617	79.5212	682.617	82.2374	682.617	80.6498	682.617	82.5075	682.617	81.701	682.617	82.3531
707.52	89.963	707.52	89.9461	707.52	89.5641	707.52	89.5027	707.52	88.7829	707.52	88.6478	707.52	87.6697	707.52	87.4335	707.52	86.2798	707.52	85.9858	707.52	84.6676	707.52	84.5347	707.52	82.9102	707.52	83.3282	707.52	81.1792	707.52	82.4393	707.52	79.8278	707.52	81.7972	707.52	79.2306	707.52	81.4104	707.52	79.2995	707.52	81.3024	707.52	79.5452	707.52	81.3039	707.52	79.6635	707.52	81.2729	707.52	79.7938	707.52	81.4359	707.52	80.3569	707.52	82.1167	707.52	81.4779	707.52	83.1108	707.52	82.7532	707.52	83.8938	707.52	83.7221	707.52	84.1286
732.422	89.861	732.422	89.845	732.422	89.5407	732.422	89.4789	732.422	88.9017	732.422	88.7562	732.422	87.9595	732.422	87.6853	732.422	86.725	732.422	86.3153	732.422	85.2095	732.422	84.7815	732.422	83.4435	732.422	83.2943	732.422	81.5296	732.422	81.9774	732.422	79.7565	732.422	80.799	732.422	78.6146	732.422	79.8724	732.422	78.2987	732.422	79.4989	732.422	78.3485	732.422	79.5023	732.422	78.2878	732.422	79.3904	732.422	78.181	732.422	79.296	732.422	78.6378	732.422	79.9604	732.422	79.9868	732.422	81.3634	732.422	81.6067	732.422	82.6152	732.422	82.7713	732.422	83.1353
757.324	88.9935	757.324	88.9546	757.324	88.704	757.324	88.5922	757.324	88.0931	757.324	87.9069	757.324	87.1941	757.324	86.8916	757.324	86.0626	757.324	85.5577	757.324	84.7495	757.324	84.0066	757.324	83.2769	757.324	82.5106	757.324	81.6708	757.324	81.4002	757.324	80.0819	757.324	80.6886	757.324	78.864	757.324	80.0321	757.324	78.2453	757.324	79.1254	757.324	77.869	757.324	77.9349	757.324	77.1275	757.324	76.7699	757.324	75.7724	757.324	76.377	757.324	74.7611	757.324	77.3421	757.324	76.109	757.324	78.9875	757.324	78.5558	757.324	80.3079	757.324	80.2408	757.324	80.7984
785.156	87.6518	785.156	87.6866	785.156	87.3352	785.156	87.3737	785.156	86.7836	785.156	86.6461	785.156	86.0159	785.156	85.4692	785.156	85.0251	785.156	83.9123	785.156	83.7899	785.156	82.2684	785.156	82.3035	785.156	81.0362	785.156	80.6304	785.156	80.4217	785.156	78.9934	785.156	80.0443	785.156	77.7832	785.156	79.5159	785.156	77.2272	785.156	78.8391	785.156	77.0513	785.156	78.1731	785.156	76.7795	785.156	77.4136	785.156	76.0961	785.156	76.4399	785.156	75.1566	785.156	76.1131	785.156	75.3466	785.156	77.5691	785.156	77.4251	785.156	79.4048	785.156	79.4278	785.156	80.1492
811.523	86.3573	811.523	86.539	811.523	85.8314	811.523	86.2902	811.523	85.0672	811.523	85.5452	811.523	84.1712	811.523	84.2602	811.523	83.2003	811.523	82.4294	811.523	82.1113	811.523	80.1789	811.523	80.7561	811.523	78.0791	811.523	78.9438	811.523	77.2375	811.523	76.6531	811.523	77.7216	811.523	74.7356	811.523	78.3455	811.523	74.8715	811.523	78.4463	811.523	76.1871	811.523	77.9839	811.523	76.9085	811.523	77.1483	811.523	76.4344	811.523	76.2305	811.523	74.7304	811.523	75.8115	811.523	73.0689	811.523	76.3814	811.523	74.2114	811.523	77.2618	811.523	76.3586	811.523	77.4234
840.82	86.4622	840.82	86.5253	840.82	85.9435	840.82	86.1198	840.82	85.0725	840.82	85.2636	840.82	84.0577	840.82	83.9618	840.82	83.123	840.82	82.2037	840.82	82.3426	840.82	80.0061	840.82	81.5614	840.82	77.5626	840.82	80.4845	840.82	75.6192	840.82	78.8027	840.82	75.2347	840.82	76.3362	840.82	76.0284	840.82	73.7767	840.82	76.8645	840.82	73.7894	840.82	77.1979	840.82	75.7814	840.82	76.7951	840.82	77.0429	840.82	75.5144	840.82	76.8668	840.82	73.6964	840.82	75.4321	840.82	73.2086	840.82	74.2854	840.82	74.593	840.82	74.9339	840.82	75.4474
870.117	86.6074	870.117	86.6171	870.117	86.1413	870.117	86.1457	870.117	85.3101	870.117	85.2275	870.117	84.254	870.117	83.9154	870.117	83.1336	870.117	82.2276	870.117	82.0848	870.117	80.1179	870.117	81.1563	870.117	77.5028	870.117	80.2725	870.117	74.524	870.117	79.2672	870.117	72.6895	870.117	77.9731	870.117	73.78	870.117	76.3786	870.117	75.6721	870.117	74.9769	870.117	76.8397	870.117	74.7207	870.117	77.1113	870.117	75.3099	870.117	76.6649	870.117	75.4699	870.117	75.9966	870.117	74.8744	870.117	75.8312	870.117	74.5712	870.117	76.1587	870.117	75.374	870.117	76.1465
900.879	86.6724	900.879	86.5943	900.879	86.1945	900.879	85.9246	900.879	85.2521	900.879	84.6863	900.879	83.9921	900.879	82.9825	900.879	82.5965	900.879	81.0295	900.879	81.2234	900.879	79.136	900.879	79.9447	900.879	77.5198	900.879	78.7534	900.879	76.0626	900.879	77.6266	900.879	74.522	900.879	76.5587	900.879	73.4921	900.879	75.5891	900.879	74.1107	900.879	74.9692	900.879	75.2474	900.879	75.1319	900.879	75.4593	900.879	75.8215	900.879	74.5348	900.879	76.0748	900.879	73.5141	900.879	75.4187	900.879	74.2649	900.879	74.73	900.879	75.7201	900.879	75.3588	900.879	76.1302
933.105	86.1015	933.105	85.9229	933.105	85.6611	933.105	85.1366	933.105	84.6929	933.105	83.8689	933.105	83.3871	933.105	82.3389	933.105	81.9997	933.105	80.7364	933.105	80.7313	933.105	79.0815	933.105	79.5976	933.105	77.3086	933.105	78.4636	933.105	75.5474	933.105	77.219	933.105	73.9516	933.105	75.9176	933.105	72.3624	933.105	74.8288	933.105	71.8593	933.105	74.3796	933.105	73.5486	933.105	74.7589	933.105	75.0956	933.105	75.4086	933.105	75.2327	933.105	75.4597	933.105	74.122	933.105	74.6901	933.105	73.4323	933.105	74.3724	933.105	74.6484	933.105	75.3045	933.105	75.6827
965.332	85.9247	965.332	85.5851	965.332	85.6016	965.332	84.655	965.332	84.7112	965.332	83.3655	965.332	83.4681	965.332	82.0151	965.332	82.0887	965.332	80.7556	965.332	80.6936	965.332	79.4359	965.332	79.3034	965.332	77.754	965.332	77.8817	965.332	75.6383	965.332	76.4457	965.332	73.5427	965.332	75.2128	965.332	72.0528	965.332	74.4397	965.332	71.4625	965.332	73.9992	965.332	72.0738	965.332	73.9194	965.332	73.1321	965.332	74.7709	965.332	73.4004	965.332	75.9152	965.332	72.7233	965.332	76.0741	965.332	72.807	965.332	75.2953	965.332	74.3163	965.332	75.0285	965.332	75.1858
1,000.49	86.2221	1,000.49	85.792	1,000.49	85.994	1,000.49	84.8059	1,000.49	85.1292	1,000.49	83.4879	1,000.49	83.7715	1,000.49	82.0826	1,000.49	82.2037	1,000.49	80.7454	1,000.49	80.7621	1,000.49	79.5135	1,000.49	79.5892	1,000.49	78.2296	1,000.49	78.4934	1,000.49	76.6122	1,000.49	77.1737	1,000.49	74.4704	1,000.49	75.5417	1,000.49	71.8819	1,000.49	73.9048	1,000.49	70.337	1,000.49	72.7435	1,000.49	72.2275	1,000.49	72.369	1,000.49	74.5837	1,000.49	73.241	1,000.49	75.3576	1,000.49	74.6456	1,000.49	74.4762	1,000.49	75.2643	1,000.49	72.7661	1,000.49	75.261	1,000.49	72.9271	1,000.49	75.3004	1,000.49	74.6244
1,035.64	85.9495	1,035.64	85.683	1,035.64	85.6302	1,035.64	84.9401	1,035.64	84.7232	1,035.64	83.8541	1,035.64	83.3487	1,035.64	82.5376	1,035.64	81.6656	1,035.64	81.1156	1,035.64	79.8473	1,035.64	79.6885	1,035.64	78.1774	1,035.64	78.2638	1,035.64	76.8984	1,035.64	76.9695	1,035.64	75.8798	1,035.64	76.062	1,035.64	74.8505	1,035.64	75.1082	1,035.64	74.0077	1,035.64	73.1955	1,035.64	73.789	1,035.64	70.9372	1,035.64	73.9298	1,035.64	71.1103	1,035.64	74.0523	1,035.64	72.3197	1,035.64	74.1868	1,035.64	72.5361	1,035.64	74.099	1,035.64	72.3359	1,035.64	73.9665	1,035.64	73.5347	1,035.64	74.5609	1,035.64	74.7566
1,072.27	85.5798	1,072.27	85.1853	1,072.27	85.4602	1,072.27	84.3638	1,072.27	84.7584	1,072.27	83.1893	1,072.27	83.4497	1,072.27	81.7137	1,072.27	81.6285	1,072.27	80.0299	1,072.27	79.5799	1,072.27	78.2707	1,072.27	77.7284	1,072.27	76.5712	1,072.27	76.4021	1,072.27	75.4581	1,072.27	75.5249	1,072.27	75.6513	1,072.27	74.7626	1,072.27	76.0403	1,072.27	73.9744	1,072.27	75.1435	1,072.27	73.3464	1,072.27	73.1527	1,072.27	73.3235	1,072.27	72.6791	1,072.27	74.0319	1,072.27	74.4813	1,072.27	74.5464	1,072.27	75.4336	1,072.27	74.0436	1,072.27	74.7625	1,072.27	73.5345	1,072.27	74.181	1,072.27	74.3374	1,072.27	74.6499
1,108.89	85.1309	1,108.89	84.8744	1,108.89	85.0312	1,108.89	84.2694	1,108.89	84.4703	1,108.89	83.2219	1,108.89	83.3869	1,108.89	81.6742	1,108.89	81.8699	1,108.89	79.7108	1,108.89	80.1213	1,108.89	77.5187	1,108.89	78.3149	1,108.89	75.2196	1,108.89	76.4313	1,108.89	72.6249	1,108.89	74.2462	1,108.89	70.0618	1,108.89	71.9883	1,108.89	70.153	1,108.89	71.3258	1,108.89	71.9228	1,108.89	72.359	1,108.89	73.0251	1,108.89	73.2554	1,108.89	73.4773	1,108.89	73.971	1,108.89	73.6747	1,108.89	75.0029	1,108.89	73.4735	1,108.89	75.4586	1,108.89	72.9587	1,108.89	74.9816	1,108.89	73.3462	1,108.89	74.6275	1,108.89	74.2963
1,148.44	86.1021	1,148.44	85.6014	1,148.44	85.959	1,148.44	84.5184	1,148.44	85.2124	1,148.44	83.1341	1,148.44	83.9412	1,148.44	81.8643	1,148.44	82.2767	1,148.44	80.7055	1,148.44	80.454	1,148.44	78.9233	1,148.44	78.8099	1,148.44	75.6818	1,148.44	77.4637	1,148.44	71.6624	1,148.44	75.9361	1,148.44	70.7013	1,148.44	73.6228	1,148.44	70.8076	1,148.44	71.242	1,148.44	69.6429	1,148.44	71.0467	1,148.44	69.491	1,148.44	72.0907	1,148.44	71.9724	1,148.44	73.5092	1,148.44	74.0189	1,148.44	74.964	1,148.44	74.542	1,148.44	75.3143	1,148.44	73.8316	1,148.44	75.222	1,148.44	73.9172	1,148.44	75.6682	1,148.44	75.2837
1,189.45	86.9908	1,189.45	86.4096	1,189.45	86.7276	1,189.45	85.1363	1,189.45	85.6979	1,189.45	83.5677	1,189.45	84.1095	1,189.45	82.1598	1,189.45	82.2363	1,189.45	81.0853	1,189.45	80.3799	1,189.45	79.8687	1,189.45	78.7455	1,189.45	77.6047	1,189.45	77.2272	1,189.45	73.4882	1,189.45	75.3965	1,189.45	68.0624	1,189.45	72.9353	1,189.45	67.5546	1,189.45	70.5656	1,189.45	68.1689	1,189.45	70.0451	1,189.45	69.4917	1,189.45	71.0444	1,189.45	73.098	1,189.45	72.9796	1,189.45	75.112	1,189.45	74.7931	1,189.45	74.9922	1,189.45	75.165	1,189.45	73.7798	1,189.45	74.8086	1,189.45	73.8449	1,189.45	75.1429	1,189.45	74.9991
1,230.47	87.3411	1,230.47	86.8281	1,230.47	87.0523	1,230.47	85.7042	1,230.47	85.977	1,230.47	84.248	1,230.47	84.2705	1,230.47	82.4926	1,230.47	82.1577	1,230.47	80.3701	1,230.47	79.948	1,230.47	78.4438	1,230.47	78.0837	1,230.47	77.1286	1,230.47	76.795	1,230.47	75.2296	1,230.47	75.5128	1,230.47	71.5521	1,230.47	73.4208	1,230.47	69.5209	1,230.47	70.9592	1,230.47	69.5881	1,230.47	69.8289	1,230.47	66.8685	1,230.47	68.132	1,230.47	67.1803	1,230.47	67.3208	1,230.47	72.0361	1,230.47	72.0835	1,230.47	73.6261	1,230.47	74.1443	1,230.47	72.8797	1,230.47	74.3977	1,230.47	73.1904	1,230.47	75.0205	1,230.47	74.8047
1,274.41	87.2891	1,274.41	86.8287	1,274.41	86.8491	1,274.41	85.6059	1,274.41	85.5947	1,274.41	83.9248	1,274.41	83.7106	1,274.41	81.9839	1,274.41	81.3425	1,274.41	79.8112	1,274.41	78.7527	1,274.41	77.8461	1,274.41	76.531	1,274.41	76.4913	1,274.41	75.0052	1,274.41	74.4446	1,274.41	73.558	1,274.41	70.9556	1,274.41	71.5367	1,274.41	70.2713	1,274.41	69.8613	1,274.41	70.6526	1,274.41	69.8894	1,274.41	68.3569	1,274.41	69.6726	1,274.41	66.5599	1,274.41	69.7172	1,274.41	70.6968	1,274.41	71.645	1,274.41	72.019	1,274.41	72.3605	1,274.41	70.9215	1,274.41	72.497	1,274.41	71.2223	1,274.41	73.4347	1,274.41	73.0615
1,319.82	86.6771	1,319.82	86.4418	1,319.82	86.3719	1,319.82	85.6516	1,319.82	85.3779	1,319.82	84.2584	1,319.82	83.5237	1,319.82	82.3045	1,319.82	80.7849	1,319.82	79.9734	1,319.82	77.6172	1,319.82	77.5032	1,319.82	75.2289	1,319.82	75.3866	1,319.82	74.2979	1,319.82	73.9158	1,319.82	73.6885	1,319.82	70.2961	1,319.82	72.0716	1,319.82	63.395	1,319.82	69.0437	1,319.82	68.411	1,319.82	66.9128	1,319.82	70.1434	1,319.82	68.434	1,319.82	67.5062	1,319.82	68.6122	1,319.82	69.9624	1,319.82	68.5502	1,319.82	72.41	1,319.82	70.1114	1,319.82	71.3493	1,319.82	71.3316	1,319.82	69.7433	1,319.82	72.4907	1,319.82	71.6129
1,366.7	86.2312	1,366.7	85.9755	1,366.7	85.8195	1,366.7	85.2066	1,366.7	84.9283	1,366.7	84.1426	1,366.7	83.4519	1,366.7	82.3351	1,366.7	80.9892	1,366.7	79.458	1,366.7	77.7439	1,366.7	76.547	1,366.7	74.4692	1,366.7	74.9839	1,366.7	72.0707	1,366.7	73.9937	1,366.7	71.4261	1,366.7	71.7617	1,366.7	70.5645	1,366.7	67.8264	1,366.7	67.6682	1,366.7	68.0562	1,366.7	65.1976	1,366.7	69.6578	1,366.7	65.2416	1,366.7	67.1965	1,366.7	63.8458	1,366.7	67.8514	1,366.7	69.487	1,366.7	70.7635	1,366.7	72.2103	1,366.7	70.701	1,366.7	71.9834	1,366.7	68.554	1,366.7	72.8094	1,366.7	71.5804
1,413.57	85.7796	1,413.57	85.5796	1,413.57	85.4557	1,413.57	85.0932	1,413.57	84.4047	1,413.57	84.2683	1,413.57	82.4228	1,413.57	82.6534	1,413.57	79.4041	1,413.57	79.7668	1,413.57	75.8981	1,413.57	75.3804	1,413.57	72.7078	1,413.57	72.4629	1,413.57	70.6188	1,413.57	73.171	1,413.57	71.511	1,413.57	72.0733	1,413.57	72.7058	1,413.57	68.3481	1,413.57	71.742	1,413.57	67.5613	1,413.57	68.5509	1,413.57	69.8715	1,413.57	65.0205	1,413.57	66.9758	1,413.57	63.4727	1,413.57	64.0003	1,413.57	67.0152	1,413.57	68.9608	1,413.57	70.0506	1,413.57	71.0697	1,413.57	71.0303	1,413.57	69.813	1,413.57	70.7559	1,413.57	70.0776
1,463.38	85.6523	1,463.38	85.0733	1,463.38	85.27	1,463.38	84.4254	1,463.38	83.4817	1,463.38	83.8035	1,463.38	80.6425	1,463.38	82.3251	1,463.38	77.6873	1,463.38	79.6057	1,463.38	75.1788	1,463.38	75.6538	1,463.38	72.2968	1,463.38	69.6708	1,463.38	67.8841	1,463.38	68.457	1,463.38	63.1238	1,463.38	70.3999	1,463.38	65.4306	1,463.38	70.2371	1,463.38	67.5979	1,463.38	71.3827	1,463.38	66.9683	1,463.38	71.779	1,463.38	68.8875	1,463.38	68.838	1,463.38	68.4334	1,463.38	65.2186	1,463.38	52.2177	1,463.38	68.4204	1,463.38	67.067	1,463.38	70.7534	1,463.38	69.6085	1,463.38	69.1161	1,463.38	67.7511	1,463.38	66.0356
1,516.11	85.871	1,516.11	85.2584	1,516.11	85.4351	1,516.11	84.2081	1,516.11	83.5163	1,516.11	82.8425	1,516.11	80.1033	1,516.11	80.9244	1,516.11	75.9125	1,516.11	78.4651	1,516.11	72.5105	1,516.11	75.3685	1,516.11	70.9184	1,516.11	69.7219	1,516.11	70.5523	1,516.11	62.729	1,516.11	69.631	1,516.11	67.3268	1,516.11	67.1496	1,516.11	66.3272	1,516.11	66.7224	1,516.11	67.6356	1,516.11	66.3121	1,516.11	68.6644	1,516.11	62.4331	1,516.11	65.7234	1,516.11	63.6232	1,516.11	61.617	1,516.11	61.52	1,516.11	64.6935	1,516.11	61.2778	1,516.11	69.2035	1,516.11	69.6954	1,516.11	69.2736	1,516.11	70.2943	1,516.11	68.5986
1,568.85	85.7099	1,568.85	85.3976	1,568.85	85.3369	1,568.85	84.6025	1,568.85	83.4817	1,568.85	82.8125	1,568.85	79.8147	1,568.85	80.0984	1,568.85	74.6745	1,568.85	76.7922	1,568.85	69.056	1,568.85	73.0484	1,568.85	67.162	1,568.85	69.5196	1,568.85	70.0309	1,568.85	65.6331	1,568.85	70.8831	1,568.85	65.7229	1,568.85	70.0271	1,568.85	63.3739	1,568.85	69.3868	1,568.85	63.6128	1,568.85	67.9033	1,568.85	68.0785	1,568.85	61.6338	1,568.85	67.9706	1,568.85	62.656	1,568.85	63.9859	1,568.85	65.6651	1,568.85	64.0933	1,568.85	61.8965	1,568.85	67.5818	1,568.85	68.7319	1,568.85	68.1295	1,568.85	70.9121	1,568.85	69.1836
1,624.51	85.4174	1,624.51	85.4763	1,624.51	84.9261	1,624.51	84.9211	1,624.51	83.0175	1,624.51	83.0582	1,624.51	79.0312	1,624.51	79.5212	1,624.51	73.0008	1,624.51	74.8416	1,624.51	65.9103	1,624.51	72.4386	1,624.51	65.743	1,624.51	69.2122	1,624.51	69.8381	1,624.51	62.9987	1,624.51	71.0973	1,624.51	69.0068	1,624.51	70.3475	1,624.51	68.874	1,624.51	69.4902	1,624.51	64.0157	1,624.51	70.2467	1,624.51	65.7024	1,624.51	69.0123	1,624.51	66.6079	1,624.51	58.7441	1,624.51	62.7169	1,624.51	62.0017	1,624.51	61.5081	1,624.51	62.8873	1,624.51	63.0162	1,624.51	68.3178	1,624.51	65.906	1,624.51	71.4707	1,624.51	69.0378
1,681.64	85.4141	1,681.64	85.766	1,681.64	84.3512	1,681.64	84.7891	1,681.64	82.5857	1,681.64	82.4643	1,681.64	78.8691	1,681.64	78.7234	1,681.64	70.1532	1,681.64	71.5092	1,681.64	57.1528	1,681.64	67.7885	1,681.64	65.1149	1,681.64	71.3001	1,681.64	66.6835	1,681.64	66.3213	1,681.64	70.1126	1,681.64	65.0243	1,681.64	70.3554	1,681.64	67.6009	1,681.64	67.9334	1,681.64	66.6081	1,681.64	70.1796	1,681.64	66.8372	1,681.64	71.6112	1,681.64	65.3909	1,681.64	66.3806	1,681.64	61.7649	1,681.64	56.9604	1,681.64	59.5433	1,681.64	62.7419	1,681.64	62.8731	1,681.64	66.4731	1,681.64	68.0869	1,681.64	70.5577	1,681.64	70.4755
1,741.7	85.6981	1,741.7	85.5928	1,741.7	84.3811	1,741.7	84.001	1,741.7	81.9764	1,741.7	81.2881	1,741.7	77.5351	1,741.7	76.3951	1,741.7	66.5743	1,741.7	67.6586	1,741.7	66.2921	1,741.7	66.3144	1,741.7	70.5657	1,741.7	68.5309	1,741.7	69.6226	1,741.7	70.0864	1,741.7	70.4768	1,741.7	67.8536	1,741.7	71.7375	1,741.7	66.7658	1,741.7	70.2407	1,741.7	67.3416	1,741.7	68.2709	1,741.7	68.137	1,741.7	70.4903	1,741.7	68.3273	1,741.7	66.6804	1,741.7	65.4188	1,741.7	56.5589	1,741.7	59.6269	1,741.7	53.1577	1,741.7	61.4081	1,741.7	63.9801	1,741.7	67.9701	1,741.7	67.6974	1,741.7	69.3087
1,803.22	86.3694	1,803.22	85.7926	1,803.22	84.7436	1,803.22	83.6361	1,803.22	81.2113	1,803.22	80.3097	1,803.22	75.845	1,803.22	73.5181	1,803.22	64.6116	1,803.22	62.4786	1,803.22	70.2793	1,803.22	69.3712	1,803.22	73.1011	1,803.22	70.3283	1,803.22	71.6307	1,803.22	71.9384	1,803.22	71.4076	1,803.22	72.7791	1,803.22	72.1702	1,803.22	72.618	1,803.22	70.4033	1,803.22	71.4818	1,803.22	69.0818	1,803.22	70.1996	1,803.22	70.7428	1,803.22	69.8173	1,803.22	67.6601	1,803.22	67.2832	1,803.22	57.4249	1,803.22	64.2967	1,803.22	58.9886	1,803.22	60.0196	1,803.22	62.2703	1,803.22	65.3041	1,803.22	70.6888	1,803.22	70.1576
1,866.21	85.8907	1,866.21	85.483	1,866.21	85.1829	1,866.21	84.0584	1,866.21	82.2346	1,866.21	79.7127	1,866.21	75.4359	1,866.21	70.1076	1,866.21	67.6164	1,866.21	66.2199	1,866.21	71.6089	1,866.21	72.1936	1,866.21	73.0096	1,866.21	73.8866	1,866.21	71.6217	1,866.21	76.7428	1,866.21	71.3278	1,866.21	77.0197	1,866.21	73.6765	1,866.21	76.2112	1,866.21	72.1469	1,866.21	73.265	1,866.21	69.0052	1,866.21	68.5939	1,866.21	71.0807	1,866.21	70.0297	1,866.21	68.6975	1,866.21	70.2621	1,866.21	62.9193	1,866.21	67.0723	1,866.21	60.0482	1,866.21	57.7554	1,866.21	62.2717	1,866.21	67.9363	1,866.21	70.5114	1,866.21	68.5872
1,932.13	84.923	1,932.13	85.3474	1,932.13	84.0147	1,932.13	84.1275	1,932.13	81.5903	1,932.13	78.8548	1,932.13	74.8783	1,932.13	61.5569	1,932.13	70.7179	1,932.13	71.2391	1,932.13	73.6841	1,932.13	74.108	1,932.13	73.7045	1,932.13	74.765	1,932.13	73.7213	1,932.13	73.9988	1,932.13	73.725	1,932.13	76.051	1,932.13	75.0526	1,932.13	73.6238	1,932.13	74.3409	1,932.13	69.943	1,932.13	66.7876	1,932.13	70.4465	1,932.13	69.9259	1,932.13	67.9786	1,932.13	70.6698	1,932.13	67.7591	1,932.13	63.9029	1,932.13	67.2406	1,932.13	57.9249	1,932.13	45.4377	1,932.13	57.5575	1,932.13	68.2313	1,932.13	67.1275	1,932.13	69.7449
1,999.51	85.832	1,999.51	85.7879	1,999.51	83.9803	1,999.51	83.3759	1,999.51	80.2645	1,999.51	77.1975	1,999.51	73.8452	1,999.51	68.3612	1,999.51	72.7518	1,999.51	73.1042	1,999.51	76.1838	1,999.51	74.8925	1,999.51	76.0048	1,999.51	75.2289	1,999.51	73.7223	1,999.51	73.6202	1,999.51	72.5243	1,999.51	68.5497	1,999.51	74.4038	1,999.51	70.8007	1,999.51	74.6539	1,999.51	71.6445	1,999.51	71.3328	1,999.51	70.6363	1,999.51	72.7191	1,999.51	73.1975	1,999.51	72.8095	1,999.51	70.3817	1,999.51	62.3815	1,999.51	65.6388	1,999.51	63.7184	1,999.51	52.8989	1,999.51	64.2633	1,999.51	64.797	1,999.51	69.5464	1,999.51	66.4106
2,069.82	86.7903	2,069.82	86.636	2,069.82	84.8652	2,069.82	83.5332	2,069.82	80.2754	2,069.82	74.0285	2,069.82	72.7187	2,069.82	70.6128	2,069.82	72.973	2,069.82	74.207	2,069.82	77.6367	2,069.82	78.4774	2,069.82	77.914	2,069.82	79.9939	2,069.82	74.761	2,069.82	76.9496	2,069.82	72.3339	2,069.82	74.0214	2,069.82	72.13	2,069.82	75.1931	2,069.82	73.9958	2,069.82	75.0761	2,069.82	72.429	2,069.82	70.5811	2,069.82	70.5638	2,069.82	70.9499	2,069.82	74.644	2,069.82	71.4647	2,069.82	65.1572	2,069.82	67.8646	2,069.82	65.2657	2,069.82	59.9728	2,069.82	65.6631	2,069.82	68.809	2,069.82	71.5232	2,069.82	70.2288
2,143.07	87.0178	2,143.07	86.2956	2,143.07	85.5983	2,143.07	83.1809	2,143.07	80.3522	2,143.07	75.3869	2,143.07	71.7235	2,143.07	77.251	2,143.07	74.224	2,143.07	77.2502	2,143.07	78.1027	2,143.07	78.9132	2,143.07	78.952	2,143.07	77.8426	2,143.07	76.6107	2,143.07	76.9914	2,143.07	74.5482	2,143.07	78.2007	2,143.07	74.3592	2,143.07	76.0859	2,143.07	74.5047	2,143.07	74.8394	2,143.07	73.049	2,143.07	71.0646	2,143.07	69.9148	2,143.07	66.8912	2,143.07	69.4775	2,143.07	65.8207	2,143.07	62.6941	2,143.07	69.1431	2,143.07	59.0958	2,143.07	65.6108	2,143.07	67.0319	2,143.07	68.4925	2,143.07	70.9965	2,143.07	71.4324
2,219.24	86.2208	2,219.24	85.9575	2,219.24	85.2803	2,219.24	82.0893	2,219.24	80.8316	2,219.24	77.1934	2,219.24	70.66	2,219.24	78.4373	2,219.24	77.6695	2,219.24	78.8122	2,219.24	79.897	2,219.24	78.2032	2,219.24	79.5472	2,219.24	76.532	2,219.24	77.6539	2,219.24	77.3198	2,219.24	73.1635	2,219.24	76.1841	2,219.24	72.3477	2,219.24	75.3224	2,219.24	70.9389	2,219.24	73.1533	2,219.24	72.7635	2,219.24	71.9333	2,219.24	71.2566	2,219.24	71.2891	2,219.24	71.2128	2,219.24	67.6875	2,219.24	64.6182	2,219.24	61.1557	2,219.24	65.7315	2,219.24	60.9101	2,219.24	64.8242	2,219.24	69.3392	2,219.24	72.8049	2,219.24	71.3463
2,296.88	86.3824	2,296.88	85.9936	2,296.88	84.6043	2,296.88	81.0115	2,296.88	81.5419	2,296.88	78.4392	2,296.88	71.3431	2,296.88	79.4934	2,296.88	77.8089	2,296.88	80.3426	2,296.88	80.0467	2,296.88	76.3144	2,296.88	80.2887	2,296.88	79.2235	2,296.88	78.9113	2,296.88	78.984	2,296.88	72.3237	2,296.88	75.8681	2,296.88	71.4965	2,296.88	75.3238	2,296.88	70.9128	2,296.88	74.0191	2,296.88	71.4323	2,296.88	72.7644	2,296.88	74.6378	2,296.88	73.3418	2,296.88	68.8547	2,296.88	71.3271	2,296.88	68.8758	2,296.88	65.7399	2,296.88	63.7893	2,296.88	60.2365	2,296.88	69.1031	2,296.88	68.702	2,296.88	71.6606	2,296.88	70.6228
2,378.91	87.6797	2,378.91	87.0406	2,378.91	85.5696	2,378.91	82.5954	2,378.91	81.3309	2,378.91	78.3173	2,378.91	72.1171	2,378.91	79.9291	2,378.91	77.7863	2,378.91	81.4094	2,378.91	80.811	2,378.91	81.8657	2,378.91	80.4681	2,378.91	80.4042	2,378.91	78.9796	2,378.91	76.2182	2,378.91	75.9429	2,378.91	76.2287	2,378.91	73.2811	2,378.91	76.9269	2,378.91	73.4418	2,378.91	75.5218	2,378.91	67.3086	2,378.91	70.0513	2,378.91	72.3014	2,378.91	68.5319	2,378.91	72.4011	2,378.91	71.6673	2,378.91	66.3667	2,378.91	65.1801	2,378.91	57.1681	2,378.91	64.9248	2,378.91	67.5442	2,378.91	61.4155	2,378.91	70.3219	2,378.91	70.0533
2,462.4	87.012	2,462.4	86.1078	2,462.4	85.677	2,462.4	82.5302	2,462.4	82.101	2,462.4	81.1504	2,462.4	74.8031	2,462.4	81.3863	2,462.4	78.1948	2,462.4	82.2064	2,462.4	81.5644	2,462.4	80.7633	2,462.4	81.1019	2,462.4	78.3933	2,462.4	77.6844	2,462.4	78.1501	2,462.4	72.0162	2,462.4	75.9344	2,462.4	71.9417	2,462.4	74.5071	2,462.4	74.5321	2,462.4	73.5127	2,462.4	74.5932	2,462.4	72.017	2,462.4	73.1874	2,462.4	71.8096	2,462.4	72.9441	2,462.4	71.3576	2,462.4	69.6134	2,462.4	68.3973	2,462.4	57.8431	2,462.4	61.7056	2,462.4	66.0554	2,462.4	67.7743	2,462.4	71.6907	2,462.4	71.6143
2,548.83	86.4915	2,548.83	85.4704	2,548.83	85.0277	2,548.83	82.2717	2,548.83	82.0067	2,548.83	81.9436	2,548.83	75.5894	2,548.83	82.9537	2,548.83	77.92	2,548.83	82.2398	2,548.83	81.238	2,548.83	81.0515	2,548.83	81.3321	2,548.83	79.758	2,548.83	79.346	2,548.83	76.2809	2,548.83	75.5942	2,548.83	75.2506	2,548.83	72.0342	2,548.83	75.1353	2,548.83	72.6826	2,548.83	74.17	2,548.83	71.7395	2,548.83	72.0033	2,548.83	74.1818	2,548.83	71.2486	2,548.83	72.4125	2,548.83	71.1986	2,548.83	69.1865	2,548.83	67.2765	2,548.83	54.183	2,548.83	65.9139	2,548.83	65.578	2,548.83	63.1777	2,548.83	71.4965	2,548.83	69.6157
2,639.65	86.839	2,639.65	85.4875	2,639.65	84.7347	2,639.65	82.5973	2,639.65	81.3728	2,639.65	83.332	2,639.65	76.6161	2,639.65	83.1705	2,639.65	77.6736	2,639.65	82.5243	2,639.65	81.0128	2,639.65	82.0448	2,639.65	81.4781	2,639.65	80.2188	2,639.65	80.2245	2,639.65	77.8859	2,639.65	77.2081	2,639.65	76.0084	2,639.65	70.7278	2,639.65	73.6119	2,639.65	72.9514	2,639.65	71.9162	2,639.65	72.7828	2,639.65	71.0582	2,639.65	72.549	2,639.65	69.3541	2,639.65	72.965	2,639.65	69.1903	2,639.65	63.4777	2,639.65	67.6538	2,639.65	33.4873	2,639.65	63.7257	2,639.65	68.4662	2,639.65	68.851	2,639.65	71.526	2,639.65	69.5029
2,731.93	86.8206	2,731.93	85.353	2,731.93	85.3381	2,731.93	83.491	2,731.93	81.5612	2,731.93	83.5631	2,731.93	76.6732	2,731.93	82.8772	2,731.93	78.2039	2,731.93	82.8557	2,731.93	80.7469	2,731.93	81.3201	2,731.93	80.8407	2,731.93	78.6651	2,731.93	79.3868	2,731.93	76.1659	2,731.93	76.2672	2,731.93	74.9063	2,731.93	68.0272	2,731.93	73.9202	2,731.93	68.4982	2,731.93	72.887	2,731.93	73.3448	2,731.93	71.5405	2,731.93	71.525	2,731.93	70.5141	2,731.93	72.0769	2,731.93	70.9585	2,731.93	68.6487	2,731.93	66.8862	2,731.93	48.5806	2,731.93	63.3511	2,731.93	66.7622	2,731.93	67.168	2,731.93	70.8688	2,731.93	71.1311
2,828.61	86.6069	2,828.61	84.9686	2,828.61	85.341	2,828.61	84.0693	2,828.61	82.2872	2,828.61	83.7371	2,828.61	77.6737	2,828.61	83.4535	2,828.61	79.552	2,828.61	82.8871	2,828.61	81.9801	2,828.61	81.3844	2,828.61	80.9177	2,828.61	79.3063	2,828.61	79.0748	2,828.61	76.8743	2,828.61	77.2901	2,828.61	76.5364	2,828.61	70.5743	2,828.61	75.5842	2,828.61	64.1679	2,828.61	73.4433	2,828.61	67.2947	2,828.61	72.0694	2,828.61	73.3395	2,828.61	70.2895	2,828.61	69.9711	2,828.61	70.5009	2,828.61	70.3267	2,828.61	67.446	2,828.61	57.2801	2,828.61	60.6052	2,828.61	66.2499	2,828.61	65.5239	2,828.61	72.2182	2,828.61	70.6282
2,928.22	86.4621	2,928.22	84.7765	2,928.22	85.3127	2,928.22	84.5288	2,928.22	82.5123	2,928.22	83.7325	2,928.22	78.4873	2,928.22	83.8222	2,928.22	79.5194	2,928.22	83.0352	2,928.22	82.9962	2,928.22	81.1292	2,928.22	82.2615	2,928.22	79.6426	2,928.22	79.2624	2,928.22	77.7046	2,928.22	75.7212	2,928.22	75.034	2,928.22	66.0628	2,928.22	73.4466	2,928.22	67.7467	2,928.22	72.2318	2,928.22	72.0576	2,928.22	71.4822	2,928.22	73.3135	2,928.22	68.4446	2,928.22	72.519	2,928.22	71.7544	2,928.22	68.5446	2,928.22	67.7364	2,928.22	57.7544	2,928.22	66.1432	2,928.22	65.8649	2,928.22	62.4196	2,928.22	70.8878	2,928.22	69.8787
3,030.76	85.9032	3,030.76	84.5739	3,030.76	84.9514	3,030.76	84.374	3,030.76	82.3924	3,030.76	83.6792	3,030.76	79.8237	3,030.76	84.4176	3,030.76	79.0243	3,030.76	83.0545	3,030.76	83.1346	3,030.76	81.7259	3,030.76	83.5916	3,030.76	80.8638	3,030.76	81.0164	3,030.76	77.1612	3,030.76	76.5449	3,030.76	75.8126	3,030.76	69.3678	3,030.76	74.5912	3,030.76	63.5883	3,030.76	73.8517	3,030.76	74.6767	3,030.76	72.8346	3,030.76	74.9783	3,030.76	70.637	3,030.76	73.047	3,030.76	70.9413	3,030.76	69.9147	3,030.76	67.7495	3,030.76	43.9511	3,030.76	62.7305	3,030.76	63.1371	3,030.76	63.0385	3,030.76	70.4632	3,030.76	66.9106
3,137.7	85.5319	3,137.7	84.691	3,137.7	85.0292	3,137.7	84.6526	3,137.7	82.2394	3,137.7	83.6315	3,137.7	80.4171	3,137.7	84.4426	3,137.7	79.1398	3,137.7	83.5144	3,137.7	82.7452	3,137.7	82.8157	3,137.7	84.0158	3,137.7	79.7278	3,137.7	82.2235	3,137.7	79.2401	3,137.7	77.9351	3,137.7	77.6828	3,137.7	74.2322	3,137.7	74.409	3,137.7	70.7303	3,137.7	72.7877	3,137.7	72.5817	3,137.7	71.107	3,137.7	74.8126	3,137.7	69.4604	3,137.7	72.699	3,137.7	70.9239	3,137.7	68.3827	3,137.7	68.321	3,137.7	54.9182	3,137.7	62.0847	3,137.7	63.5088	3,137.7	65.2363	3,137.7	70.8859	3,137.7	68.2398
3,249.02	84.9241	3,249.02	84.8536	3,249.02	85.0539	3,249.02	84.3301	3,249.02	82.2948	3,249.02	84.2531	3,249.02	80.5451	3,249.02	84.2425	3,249.02	79.455	3,249.02	84.1973	3,249.02	82.553	3,249.02	82.8736	3,249.02	84.6288	3,249.02	81.1532	3,249.02	83.3828	3,249.02	76.5794	3,249.02	78.9916	3,249.02	72.171	3,249.02	75.88	3,249.02	72.6181	3,249.02	70.9247	3,249.02	71.883	3,249.02	73.3017	3,249.02	71.199	3,249.02	72.8444	3,249.02	69.4293	3,249.02	71.386	3,249.02	70.4858	3,249.02	68.2965	3,249.02	69.0633	3,249.02	61.2704	3,249.02	64.4925	3,249.02	66.2973	3,249.02	62.4173	3,249.02	70.4695	3,249.02	68.2297
3,363.28	84.521	3,363.28	85.1682	3,363.28	84.7704	3,363.28	84.0623	3,363.28	83.0125	3,363.28	84.3223	3,363.28	81.0738	3,363.28	84.5347	3,363.28	80.3831	3,363.28	84.6175	3,363.28	82.6835	3,363.28	82.2215	3,363.28	84.603	3,363.28	79.6562	3,363.28	83.4691	3,363.28	75.4774	3,363.28	79.4368	3,363.28	76.9241	3,363.28	77.8235	3,363.28	72.4793	3,363.28	73.3615	3,363.28	71.453	3,363.28	70.9139	3,363.28	70.8694	3,363.28	72.0699	3,363.28	69.6341	3,363.28	67.4059	3,363.28	68.9	3,363.28	64.3956	3,363.28	67.7245	3,363.28	60.1357	3,363.28	61.474	3,363.28	63.7151	3,363.28	59.246	3,363.28	67.3547	3,363.28	67.5927
3,481.93	84.7112	3,481.93	85.1674	3,481.93	84.5635	3,481.93	84.1722	3,481.93	83.6726	3,481.93	84.5351	3,481.93	81.661	3,481.93	85.0879	3,481.93	80.9779	3,481.93	84.0287	3,481.93	82.9046	3,481.93	82.562	3,481.93	84.4974	3,481.93	79.0869	3,481.93	82.7613	3,481.93	78.5833	3,481.93	77.8082	3,481.93	73.0996	3,481.93	76.6588	3,481.93	71.0668	3,481.93	74.225	3,481.93	69.9574	3,481.93	74.2013	3,481.93	69.8245	3,481.93	72.0568	3,481.93	67.7463	3,481.93	69.9255	3,481.93	67.6588	3,481.93	61.3998	3,481.93	66.7667	3,481.93	63.1857	3,481.93	59.6121	3,481.93	62.6474	3,481.93	56.8644	3,481.93	66.2128	3,481.93	66.9873
3,604.98	85.0591	3,604.98	85.4582	3,604.98	84.3135	3,604.98	84.0701	3,604.98	83.8728	3,604.98	84.862	3,604.98	82.3111	3,604.98	85.1177	3,604.98	81.0324	3,604.98	84.1256	3,604.98	82.7937	3,604.98	81.1139	3,604.98	83.8077	3,604.98	78.945	3,604.98	82.3275	3,604.98	73.1123	3,604.98	76.9394	3,604.98	73.6459	3,604.98	76.1155	3,604.98	71.4393	3,604.98	73.4994	3,604.98	69.1327	3,604.98	72.485	3,604.98	68.6673	3,604.98	72.8491	3,604.98	66.7764	3,604.98	69.3018	3,604.98	67.46	3,604.98	63.0964	3,604.98	66.4719	3,604.98	62.8993	3,604.98	59.7778	3,604.98	61.8145	3,604.98	57.7069	3,604.98	65.3901	3,604.98	67.2093
3,732.42	85.462	3,732.42	85.4968	3,732.42	84.1196	3,732.42	84.2934	3,732.42	83.8664	3,732.42	85.2133	3,732.42	82.4861	3,732.42	84.8889	3,732.42	81.0554	3,732.42	82.9566	3,732.42	81.3319	3,732.42	81.0265	3,732.42	84.1507	3,732.42	76.3764	3,732.42	82.6161	3,732.42	76.9053	3,732.42	77.2612	3,732.42	72.1803	3,732.42	73.3843	3,732.42	71.0479	3,732.42	70.6143	3,732.42	69.4314	3,732.42	72.1266	3,732.42	68.9258	3,732.42	72.532	3,732.42	66.5707	3,732.42	70.4753	3,732.42	66.7003	3,732.42	62.3535	3,732.42	66.3318	3,732.42	63.2976	3,732.42	56.7308	3,732.42	61.1973	3,732.42	41.4618	3,732.42	65.0645	3,732.42	66.8966
3,864.26	86.2236	3,864.26	85.6178	3,864.26	84.4023	3,864.26	85.1939	3,864.26	84.0208	3,864.26	85.713	3,864.26	82.9904	3,864.26	84.714	3,864.26	79.7331	3,864.26	82.4762	3,864.26	81.4562	3,864.26	79.6786	3,864.26	82.9264	3,864.26	78.2149	3,864.26	81.3112	3,864.26	74.4543	3,864.26	78.1443	3,864.26	71.7523	3,864.26	70.7208	3,864.26	71.5053	3,864.26	63.4086	3,864.26	69.4293	3,864.26	67.8267	3,864.26	68.6448	3,864.26	68.7302	3,864.26	66.9714	3,864.26	66.3372	3,864.26	66.4507	3,864.26	64.7753	3,864.26	66.8685	3,864.26	63.9555	3,864.26	61.4742	3,864.26	57.08	3,864.26	48.5999	3,864.26	66.2982	3,864.26	65.841
4,000.49	86.5162	4,000.49	85.923	4,000.49	85.0833	4,000.49	85.571	4,000.49	84.0915	4,000.49	85.8162	4,000.49	82.9235	4,000.49	84.3523	4,000.49	80.8158	4,000.49	81.8566	4,000.49	81.127	4,000.49	80.2232	4,000.49	81.445	4,000.49	77.604	4,000.49	80.3083	4,000.49	76.1978	4,000.49	77.5811	4,000.49	75.2675	4,000.49	74.3619	4,000.49	71.9166	4,000.49	64.847	4,000.49	69.8648	4,000.49	58.5112	4,000.49	68.7453	4,000.49	69.5523	4,000.49	67.4445	4,000.49	67.3719	4,000.49	67.4284	4,000.49	63.9389	4,000.49	66.8121	4,000.49	65.0252	4,000.49	60.9286	4,000.49	60.3878	4,000.49	48.174	4,000.49	66.5027	4,000.49	65.5387
4,141.11	86.9476	4,141.11	86.3301	4,141.11	85.1179	4,141.11	86.0919	4,141.11	84.4362	4,141.11	86.1336	4,141.11	84.3261	4,141.11	84.1897	4,141.11	81.0151	4,141.11	81.8837	4,141.11	80.0622	4,141.11	80.4917	4,141.11	82.3068	4,141.11	78.1518	4,141.11	80.1262	4,141.11	76.327	4,141.11	75.1952	4,141.11	68.7104	4,141.11	69.5569	4,141.11	70.7929	4,141.11	63.3424	4,141.11	69.3463	4,141.11	70.4545	4,141.11	69.2831	4,141.11	71.8859	4,141.11	67.4874	4,141.11	69.7317	4,141.11	67.629	4,141.11	64.9366	4,141.11	67.1497	4,141.11	67.2611	4,141.11	61.5814	4,141.11	63.07	4,141.11	36.4316	4,141.11	64.862	4,141.11	64.7593
4,287.6	87.3957	4,287.6	86.4079	4,287.6	85.8498	4,287.6	86.4196	4,287.6	84.3217	4,287.6	86.1137	4,287.6	84.3509	4,287.6	83.9288	4,287.6	79.2739	4,287.6	82.192	4,287.6	78.5227	4,287.6	80.3978	4,287.6	81.7835	4,287.6	78.7557	4,287.6	79.3689	4,287.6	75.1897	4,287.6	74.509	4,287.6	75.325	4,287.6	62.6694	4,287.6	69.359	4,287.6	62.7135	4,287.6	69.2739	4,287.6	70.5238	4,287.6	66.5276	4,287.6	73.942	4,287.6	67.3511	4,287.6	66.352	4,287.6	66.238	4,287.6	64.5868	4,287.6	67.4228	4,287.6	63.6817	4,287.6	60.0799	4,287.6	61.5486	4,287.6	56.875	4,287.6	65.8901	4,287.6	63.5563
4,438.48	87.8601	4,438.48	86.921	4,438.48	86.4293	4,438.48	87.1337	4,438.48	84.2533	4,438.48	86.0512	4,438.48	83.6235	4,438.48	83.9695	4,438.48	79.9344	4,438.48	81.762	4,438.48	77.2117	4,438.48	80.2948	4,438.48	80.8636	4,438.48	77.1072	4,438.48	79.3162	4,438.48	73.5433	4,438.48	73.8973	4,438.48	69.6313	4,438.48	71.0145	4,438.48	69.1751	4,438.48	63.7469	4,438.48	67.2431	4,438.48	70.9515	4,438.48	66.9354	4,438.48	72.8127	4,438.48	65.8415	4,438.48	66.7895	4,438.48	66.9685	4,438.48	60.7793	4,438.48	67.6599	4,438.48	63.6241	4,438.48	63.6595	4,438.48	56.4096	4,438.48	42.5618	4,438.48	66.1096	4,438.48	62.9761
4,595.21	87.9823	4,595.21	86.847	4,595.21	86.9751	4,595.21	87.2764	4,595.21	84.9659	4,595.21	86.2738	4,595.21	85.1216	4,595.21	83.9957	4,595.21	81.3551	4,595.21	82.1035	4,595.21	74.3695	4,595.21	79.6254	4,595.21	78.0549	4,595.21	75.7106	4,595.21	77.7272	4,595.21	74.7627	4,595.21	75.2062	4,595.21	72.5489	4,595.21	72.7777	4,595.21	68.8105	4,595.21	57.5984	4,595.21	68.4376	4,595.21	67.326	4,595.21	67.0892	4,595.21	69.9095	4,595.21	66.188	4,595.21	65.2154	4,595.21	66.2397	4,595.21	54.5504	4,595.21	68.3598	4,595.21	64.2991	4,595.21	63.5666	4,595.21	57.1405	4,595.21	57.7032	4,595.21	62.6318	4,595.21	60.6005
4,756.35	87.8871	4,756.35	87.3436	4,756.35	87.2205	4,756.35	87.536	4,756.35	85.1826	4,756.35	86.022	4,756.35	84.5542	4,756.35	84.1465	4,756.35	80.9961	4,756.35	81.8943	4,756.35	71.5462	4,756.35	78.8592	4,756.35	75.639	4,756.35	76.6783	4,756.35	76.4896	4,756.35	72.5454	4,756.35	75.7034	4,756.35	71.5518	4,756.35	73.1033	4,756.35	70.1963	4,756.35	65.1997	4,756.35	67.7285	4,756.35	63.1009	4,756.35	66.9877	4,756.35	69.5265	4,756.35	65.7124	4,756.35	68.1285	4,756.35	67.0793	4,756.35	51.0844	4,756.35	67.7529	4,756.35	57.1977	4,756.35	65.0716	4,756.35	57.4443	4,756.35	52.2881	4,756.35	61.3466	4,756.35	59.8822
4,924.8	88.0648	4,924.8	87.3136	4,924.8	87.3146	4,924.8	87.3455	4,924.8	84.776	4,924.8	86.1084	4,924.8	84.7928	4,924.8	84.4017	4,924.8	82.0431	4,924.8	81.5612	4,924.8	72.3612	4,924.8	78.554	4,924.8	73.175	4,924.8	76.0744	4,924.8	76.7913	4,924.8	74.8492	4,924.8	77.1353	4,924.8	69.7947	4,924.8	73.8863	4,924.8	70.2509	4,924.8	54.4795	4,924.8	67.6837	4,924.8	58.9698	4,924.8	67.9872	4,924.8	67.776	4,924.8	66.1286	4,924.8	68.4552	4,924.8	67.4384	4,924.8	56.1979	4,924.8	67.8053	4,924.8	60.6737	4,924.8	66.2366	4,924.8	55.7832	4,924.8	57.4973	4,924.8	61.1046	4,924.8	59.9021
5,097.66	87.5558	5,097.66	87.1952	5,097.66	87.5886	5,097.66	87.5131	5,097.66	85.4762	5,097.66	86.1945	5,097.66	84.8583	5,097.66	84.5333	5,097.66	81.9807	5,097.66	81.3378	5,097.66	73.724	5,097.66	79.3199	5,097.66	75.229	5,097.66	75.8789	5,097.66	79.0412	5,097.66	74.5567	5,097.66	77.8186	5,097.66	73.0947	5,097.66	72.7483	5,097.66	70.6928	5,097.66	65.4574	5,097.66	69.6262	5,097.66	48.3477	5,097.66	67.8058	5,097.66	63.8428	5,097.66	67.5234	5,097.66	66.0715	5,097.66	68.319	5,097.66	53.2341	5,097.66	68.7564	5,097.66	62.9932	5,097.66	66.9888	5,097.66	43.5187	5,097.66	54.8688	5,097.66	60.4305	5,097.66	57.5563
5,277.83	87.5698	5,277.83	87.3593	5,277.83	87.3634	5,277.83	86.9928	5,277.83	84.9809	5,277.83	86.3206	5,277.83	84.6933	5,277.83	84.1888	5,277.83	82.1475	5,277.83	81.9578	5,277.83	75.0103	5,277.83	79.0733	5,277.83	76.7375	5,277.83	77.4641	5,277.83	79.7605	5,277.83	75.7105	5,277.83	76.4107	5,277.83	71.2602	5,277.83	71.328	5,277.83	70.9198	5,277.83	65.2012	5,277.83	69.0322	5,277.83	62.6066	5,277.83	67.4893	5,277.83	54.2536	5,277.83	65.615	5,277.83	63.8895	5,277.83	68.6108	5,277.83	50.6371	5,277.83	67.75	5,277.83	64.338	5,277.83	68.2335	5,277.83	58.9507	5,277.83	54.0155	5,277.83	61.4935	5,277.83	58.935
5,463.87	86.9622	5,463.87	87.1101	5,463.87	87.0932	5,463.87	86.8228	5,463.87	84.9632	5,463.87	86.1605	5,463.87	84.1695	5,463.87	84.0939	5,463.87	82.0809	5,463.87	82.0954	5,463.87	75.4526	5,463.87	79.899	5,463.87	76.6031	5,463.87	76.9627	5,463.87	78.5054	5,463.87	75.8318	5,463.87	75.181	5,463.87	72.2734	5,463.87	72.8207	5,463.87	70.7143	5,463.87	66.0889	5,463.87	69.3588	5,463.87	65.3907	5,463.87	67.6591	5,463.87	58.3742	5,463.87	66.3297	5,463.87	62.2917	5,463.87	67.4175	5,463.87	50.6275	5,463.87	67.8594	5,463.87	59.3273	5,463.87	67.611	5,463.87	52.0559	5,463.87	46.5291	5,463.87	55.6194	5,463.87	55.1252
5,657.23	86.7526	5,657.23	86.8997	5,657.23	86.9047	5,657.23	86.9082	5,657.23	84.5822	5,657.23	86.2493	5,657.23	83.3824	5,657.23	84.0401	5,657.23	82.1556	5,657.23	81.9824	5,657.23	76.3333	5,657.23	80.6774	5,657.23	76.4041	5,657.23	77.1199	5,657.23	76.8109	5,657.23	75.682	5,657.23	73.8072	5,657.23	73.2747	5,657.23	67.921	5,657.23	71.3709	5,657.23	65.6302	5,657.23	71.2233	5,657.23	64.354	5,657.23	67.4023	5,657.23	58.3552	5,657.23	67.3716	5,657.23	64.2391	5,657.23	67.0343	5,657.23	51.0411	5,657.23	68.7148	5,657.23	60.807	5,657.23	68.4999	5,657.23	49.3616	5,657.23	50.6434	5,657.23	54.7003	5,657.23	55.0227
5,856.45	86.6323	5,856.45	86.9525	5,856.45	86.4814	5,856.45	86.8779	5,856.45	84.3326	5,856.45	86.1461	5,856.45	83.127	5,856.45	83.8868	5,856.45	81.584	5,856.45	82.8804	5,856.45	76.5299	5,856.45	81.2461	5,856.45	74.2411	5,856.45	79.6127	5,856.45	75.4843	5,856.45	77.2341	5,856.45	74.1841	5,856.45	73.7288	5,856.45	70.2234	5,856.45	71.2349	5,856.45	68.509	5,856.45	71.2021	5,856.45	62.9619	5,856.45	67.9941	5,856.45	54.5884	5,856.45	68.1041	5,856.45	65.0372	5,856.45	66.9928	5,856.45	56.1135	5,856.45	68.746	5,856.45	63.7145	5,856.45	68.0854	5,856.45	55.1948	5,856.45	57.7826	5,856.45	56.5237	5,856.45	45.2434
6,062.99	86.4539	6,062.99	86.6674	6,062.99	86.0599	6,062.99	86.8874	6,062.99	84.2414	6,062.99	85.9092	6,062.99	81.7087	6,062.99	83.5613	6,062.99	80.502	6,062.99	83.2102	6,062.99	75.4378	6,062.99	82.1866	6,062.99	68.1406	6,062.99	80.2425	6,062.99	73.5339	6,062.99	76.5953	6,062.99	75.5932	6,062.99	73.6621	6,062.99	73.5279	6,062.99	70.9189	6,062.99	69.9455	6,062.99	70.2291	6,062.99	62.0133	6,062.99	67.0795	6,062.99	57.2166	6,062.99	67.9715	6,062.99	62.4583	6,062.99	67.1151	6,062.99	52.9898	6,062.99	69.0021	6,062.99	64.1386	6,062.99	68.2097	6,062.99	51.3484	6,062.99	59.5237	6,062.99	56.9411	6,062.99	51.0524
6,276.86	86.1705	6,276.86	86.4575	6,276.86	85.843	6,276.86	86.7881	6,276.86	83.9684	6,276.86	84.9694	6,276.86	81.6228	6,276.86	84.0823	6,276.86	80.6276	6,276.86	83.012	6,276.86	76.5949	6,276.86	81.9906	6,276.86	68.812	6,276.86	79.8307	6,276.86	73.4541	6,276.86	75.3078	6,276.86	77.9746	6,276.86	73.0116	6,276.86	73.7493	6,276.86	70.3104	6,276.86	68.5978	6,276.86	69.8983	6,276.86	63.447	6,276.86	67.0678	6,276.86	62.608	6,276.86	67.401	6,276.86	66.5544	6,276.86	65.608	6,276.86	55.6125	6,276.86	68.3097	6,276.86	65.6081	6,276.86	67.7596	6,276.86	52.165	6,276.86	59.8755	6,276.86	53.8834	6,276.86	52.8545
6,498.05	86.7237	6,498.05	86.5533	6,498.05	86.3743	6,498.05	86.0471	6,498.05	84.6114	6,498.05	84.2311	6,498.05	82.5269	6,498.05	83.6413	6,498.05	81.821	6,498.05	82.3922	6,498.05	79.4815	6,498.05	81.1102	6,498.05	73.9497	6,498.05	79.0998	6,498.05	76.093	6,498.05	75.5304	6,498.05	78.7226	6,498.05	72.8812	6,498.05	72.6307	6,498.05	69.0789	6,498.05	67.5527	6,498.05	69.5165	6,498.05	61.9705	6,498.05	67.0196	6,498.05	55.7238	6,498.05	66.8977	6,498.05	66.1398	6,498.05	64.2556	6,498.05	54.4747	6,498.05	67.973	6,498.05	54.8597	6,498.05	67.0745	6,498.05	54.7072	6,498.05	62.6508	6,498.05	60.039	6,498.05	38.2306
6,726.56	87.3459	6,726.56	86.6863	6,726.56	86.7232	6,726.56	85.1763	6,726.56	84.809	6,726.56	83.3553	6,726.56	83.3066	6,726.56	82.7131	6,726.56	82.7302	6,726.56	82.4435	6,726.56	80.7469	6,726.56	79.7978	6,726.56	75.2496	6,726.56	77.8841	6,726.56	73.9342	6,726.56	73.3953	6,726.56	76.9158	6,726.56	69.9639	6,726.56	71.1635	6,726.56	66.7468	6,726.56	66.4132	6,726.56	66.0193	6,726.56	57.3448	6,726.56	65.4493	6,726.56	60.0301	6,726.56	64.4917	6,726.56	63.9499	6,726.56	61.7274	6,726.56	48.3576	6,726.56	65.1757	6,726.56	56.2547	6,726.56	65.4426	6,726.56	53.6767	6,726.56	63.4755	6,726.56	57.9725	6,726.56	55.5514
6,963.87	87.4193	6,963.87	86.8556	6,963.87	87.2485	6,963.87	84.8845	6,963.87	85.0797	6,963.87	83.4373	6,963.87	82.7936	6,963.87	83.0043	6,963.87	81.7864	6,963.87	82.0311	6,963.87	79.3665	6,963.87	78.8568	6,963.87	75.3091	6,963.87	74.5977	6,963.87	74.3744	6,963.87	72.3515	6,963.87	73.8328	6,963.87	68.1658	6,963.87	65.8597	6,963.87	65.7496	6,963.87	64.3792	6,963.87	61.2514	6,963.87	63.0932	6,963.87	62.1256	6,963.87	57.2494	6,963.87	61.61	6,963.87	63.7024	6,963.87	60.8874	6,963.87	59.2484	6,963.87	63.2309	6,963.87	57.9281	6,963.87	64.4063	6,963.87	54.8825	6,963.87	62.3806	6,963.87	55.7513	6,963.87	52.3857
7,209.96	87.4629	7,209.96	87.0517	7,209.96	86.7252	7,209.96	84.8168	7,209.96	83.9823	7,209.96	84.0024	7,209.96	81.4666	7,209.96	83.2004	7,209.96	80.6044	7,209.96	81.3553	7,209.96	77.9656	7,209.96	78.0144	7,209.96	73.7751	7,209.96	74.2705	7,209.96	71.3979	7,209.96	71.6607	7,209.96	70.9664	7,209.96	69.1746	7,209.96	66.7422	7,209.96	66.42	7,209.96	60.975	7,209.96	63.6202	7,209.96	60.0145	7,209.96	61.5524	7,209.96	56.6015	7,209.96	60.7916	7,209.96	60.0716	7,209.96	61.2059	7,209.96	55.0495	7,209.96	63.0537	7,209.96	57.3596	7,209.96	65.4417	7,209.96	58.4858	7,209.96	61.632	7,209.96	53.2124	7,209.96	52.0421
7,464.84	86.9243	7,464.84	86.9792	7,464.84	85.8913	7,464.84	85.0578	7,464.84	83.33	7,464.84	84.5841	7,464.84	80.9642	7,464.84	83.1334	7,464.84	80.0361	7,464.84	79.9899	7,464.84	76.3427	7,464.84	77.6495	7,464.84	71.3668	7,464.84	74.5241	7,464.84	70.2421	7,464.84	71.7814	7,464.84	74.4802	7,464.84	69.4811	7,464.84	65.6559	7,464.84	65.8221	7,464.84	55.7165	7,464.84	65.3795	7,464.84	57.8722	7,464.84	62.4494	7,464.84	49.1133	7,464.84	61.3827	7,464.84	64.3647	7,464.84	60.4752	7,464.84	37.9466	7,464.84	63.5104	7,464.84	53.7506	7,464.84	64.8287	7,464.84	57.5193	7,464.84	60.7839	7,464.84	43.5669	7,464.84	46.1458
7,727.05	86.3909	7,727.05	86.308	7,727.05	84.9114	7,727.05	85.6988	7,727.05	83.4479	7,727.05	85.0634	7,727.05	81.3208	7,727.05	82.7549	7,727.05	79.107	7,727.05	80.3494	7,727.05	75.2334	7,727.05	77.9954	7,727.05	69.9148	7,727.05	75.3011	7,727.05	73.2079	7,727.05	70.8446	7,727.05	75.8269	7,727.05	68.0742	7,727.05	69.7609	7,727.05	65.147	7,727.05	58.8195	7,727.05	64.3736	7,727.05	58.6617	7,727.05	61.1113	7,727.05	56.3876	7,727.05	59.7111	7,727.05	58.9163	7,727.05	59.8643	7,727.05	37.2827	7,727.05	62.2677	7,727.05	55.3306	7,727.05	63.4034	7,727.05	50.648	7,727.05	62.3606	7,727.05	51.2787	7,727.05	45.912
7,999.51	86.5363	7,999.51	86.1318	7,999.51	85.0502	7,999.51	85.8006	7,999.51	83.1015	7,999.51	84.5911	7,999.51	81.3337	7,999.51	82.748	7,999.51	78.7787	7,999.51	81.6698	7,999.51	74.313	7,999.51	77.6677	7,999.51	73.5118	7,999.51	74.4093	7,999.51	74.4973	7,999.51	69.6806	7,999.51	75.7866	7,999.51	65.3709	7,999.51	70.6379	7,999.51	62.7439	7,999.51	62.8611	7,999.51	62.4615	7,999.51	58.8758	7,999.51	60.4143	7,999.51	54.8143	7,999.51	57.5057	7,999.51	55.8052	7,999.51	56.9274	7,999.51	45.0477	7,999.51	61.0616	7,999.51	59.1806	7,999.51	62.6594	7,999.51	54.9905	7,999.51	61.8742	7,999.51	50.9781	7,999.51	47.7286
8,282.23	86.9984	8,282.23	86.4866	8,282.23	85.2556	8,282.23	85.5881	8,282.23	82.6037	8,282.23	83.9104	8,282.23	80.8956	8,282.23	83.2611	8,282.23	78.9572	8,282.23	81.0942	8,282.23	75.3295	8,282.23	77.6688	8,282.23	75.1598	8,282.23	74.1209	8,282.23	73.2009	8,282.23	70.6796	8,282.23	73.4983	8,282.23	67.3396	8,282.23	67.827	8,282.23	64.2845	8,282.23	56.7954	8,282.23	61.2664	8,282.23	54.204	8,282.23	61.4994	8,282.23	52.2261	8,282.23	61.0505	8,282.23	57.2528	8,282.23	58.0692	8,282.23	48.5586	8,282.23	61.2351	8,282.23	51.4991	8,282.23	62.3752	8,282.23	49.109	8,282.23	62.5399	8,282.23	41.6032	8,282.23	44.7362
8,573.73	86.956	8,573.73	86.5694	8,573.73	85.3376	8,573.73	84.9624	8,573.73	82.858	8,573.73	83.624	8,573.73	81.1098	8,573.73	82.731	8,573.73	79.77	8,573.73	80.3684	8,573.73	76.89	8,573.73	77.8804	8,573.73	76.1088	8,573.73	74.6665	8,573.73	71.8827	8,573.73	71.6609	8,573.73	70.9585	8,573.73	68.6716	8,573.73	65.8135	8,573.73	65.2184	8,573.73	63.0139	8,573.73	62.0116	8,573.73	54.2243	8,573.73	61.6897	8,573.73	48.1951	8,573.73	60.367	8,573.73	50.8679	8,573.73	59.2699	8,573.73	45.1681	8,573.73	61.1213	8,573.73	42.7276	8,573.73	63.4456	8,573.73	51.2677	8,573.73	62.0685	8,573.73	44.9535	8,573.73	45.7924
8,876.95	86.3293	8,876.95	85.9914	8,876.95	85.2462	8,876.95	84.3241	8,876.95	83.4092	8,876.95	83.6691	8,876.95	81.5992	8,876.95	81.7049	8,876.95	80.4184	8,876.95	80.1801	8,876.95	78.4235	8,876.95	76.6893	8,876.95	76.5483	8,876.95	75.621	8,876.95	65.7261	8,876.95	71.0925	8,876.95	64.6607	8,876.95	67.0249	8,876.95	59.9356	8,876.95	64.8136	8,876.95	63.0419	8,876.95	61.0049	8,876.95	43.7177	8,876.95	62.4774	8,876.95	56.8533	8,876.95	58.953	8,876.95	53.3113	8,876.95	59.1726	8,876.95	53.9165	8,876.95	60.3693	8,876.95	52.5587	8,876.95	62.4384	8,876.95	54.57	8,876.95	60.8363	8,876.95	34.3425	8,876.95	46.7678
9,188.96	85.7106	9,188.96	85.0893	9,188.96	85.05	9,188.96	84.1505	9,188.96	83.8464	9,188.96	83.354	9,188.96	82.1125	9,188.96	81.6692	9,188.96	80.3596	9,188.96	79.1137	9,188.96	79.6523	9,188.96	77.4436	9,188.96	76.7249	9,188.96	74.49	9,188.96	68.1954	9,188.96	70.5209	9,188.96	66.1743	9,188.96	65.3366	9,188.96	57.0005	9,188.96	62.7305	9,188.96	58.7439	9,188.96	60.0835	9,188.96	54.3047	9,188.96	61.5661	9,188.96	51.657	9,188.96	58.5156	9,188.96	49.4025	9,188.96	58.2815	9,188.96	53.759	9,188.96	59.2312	9,188.96	54.3111	9,188.96	58.7678	9,188.96	48.8368	9,188.96	58.7656	9,188.96	44.3035	9,188.96	50.3581
9,514.16	85.5818	9,514.16	85.2386	9,514.16	85.0846	9,514.16	84.4261	9,514.16	84.0071	9,514.16	83.296	9,514.16	82.4391	9,514.16	81.1643	9,514.16	79.8438	9,514.16	78.9562	9,514.16	78.458	9,514.16	76.608	9,514.16	73.5452	9,514.16	72.4742	9,514.16	70.7484	9,514.16	67.9957	9,514.16	65.8859	9,514.16	64.4892	9,514.16	55.0846	9,514.16	59.1554	9,514.16	54.6833	9,514.16	56.8746	9,514.16	52.3831	9,514.16	58.0088	9,514.16	46.6722	9,514.16	55.4028	9,514.16	43.3333	9,514.16	57.7089	9,514.16	54.1465	9,514.16	56.0068	9,514.16	51.69	9,514.16	57.1416	9,514.16	49.4072	9,514.16	57.0522	9,514.16	43.461	9,514.16	46.7844
9,849.61	85.8103	9,849.61	85.9274	9,849.61	85.053	9,849.61	84.945	9,849.61	83.7008	9,849.61	83.1295	9,849.61	81.7842	9,849.61	80.5205	9,849.61	78.8259	9,849.61	79.2816	9,849.61	76.304	9,849.61	74.8156	9,849.61	71.2998	9,849.61	70.6272	9,849.61	68.3378	9,849.61	64.7499	9,849.61	63.7577	9,849.61	60.7022	9,849.61	56.2706	9,849.61	56.2351	9,849.61	54.505	9,849.61	53.194	9,849.61	55.1827	9,849.61	55.7968	9,849.61	45.5827	9,849.61	51.5014	9,849.61	50.1517	9,849.61	57.3879	9,849.61	51.9712	9,849.61	52.3331	9,849.61	51.9605	9,849.61	53.522	9,849.61	41.5022	9,849.61	54.6332	9,849.61	47.5783	9,849.61	47.5875
10,196.8	85.7276	10,196.8	86.0952	10,196.8	84.802	10,196.8	85.1214	10,196.8	83.3275	10,196.8	82.312	10,196.8	80.9941	10,196.8	80.2401	10,196.8	78.1485	10,196.8	78.5917	10,196.8	74.9375	10,196.8	74.7004	10,196.8	71.0514	10,196.8	68.1217	10,196.8	65.1358	10,196.8	64.154	10,196.8	63.0754	10,196.8	60.8601	10,196.8	57.6946	10,196.8	58.0155	10,196.8	54.7856	10,196.8	54.6236	10,196.8	50.1206	10,196.8	54.8035	10,196.8	50.1164	10,196.8	53.4588	10,196.8	46.6927	10,196.8	57.5051	10,196.8	49.2127	10,196.8	49.0749	10,196.8	47.296	10,196.8	54.0729	10,196.8	41.8655	10,196.8	53.55	10,196.8	46.9425	10,196.8	47.8272
10,555.7	85.3744	10,555.7	85.7964	10,555.7	84.7967	10,555.7	84.7856	10,555.7	83.2976	10,555.7	81.7803	10,555.7	80.7014	10,555.7	79.7604	10,555.7	78.3617	10,555.7	78.2868	10,555.7	75.9084	10,555.7	73.5936	10,555.7	70.1037	10,555.7	67.9811	10,555.7	66.4951	10,555.7	62.3408	10,555.7	62.4051	10,555.7	60.2935	10,555.7	56.2342	10,555.7	56.7302	10,555.7	54.5062	10,555.7	54.7725	10,555.7	49.6987	10,555.7	54.1751	10,555.7	47.802	10,555.7	54.1361	10,555.7	37.1001	10,555.7	56.3874	10,555.7	47.6783	10,555.7	48.4733	10,555.7	50.5894	10,555.7	54.6971	10,555.7	45.9329	10,555.7	51.6331	10,555.7	45.0694	10,555.7	48.8903
10,927.7	85.2944	10,927.7	85.599	10,927.7	85.072	10,927.7	84.6011	10,927.7	83.7893	10,927.7	81.7272	10,927.7	80.8443	10,927.7	79.8495	10,927.7	78.0834	10,927.7	77.8855	10,927.7	75.2821	10,927.7	72.0272	10,927.7	69.8172	10,927.7	66.6811	10,927.7	68.7441	10,927.7	64.0839	10,927.7	61.8983	10,927.7	60.905	10,927.7	53.8748	10,927.7	55.9804	10,927.7	43.1735	10,927.7	55.6155	10,927.7	50.5527	10,927.7	52.5348	10,927.7	47.1974	10,927.7	54.4598	10,927.7	41.1393	10,927.7	55.9705	10,927.7	28.9479	10,927.7	49.6166	10,927.7	51.1113	10,927.7	54.265	10,927.7	43.6095	10,927.7	50.6005	10,927.7	44.0541	10,927.7	46.9098
11,313	85.4609	11,313	85.6297	11,313	85.1131	11,313	84.7277	11,313	83.5198	11,313	82.1291	11,313	80.7653	11,313	79.6574	11,313	76.7488	11,313	76.9273	11,313	72.2355	11,313	71.6076	11,313	66.793	11,313	66.7819	11,313	67.4977	11,313	62.9158	11,313	57.9207	11,313	60.4527	11,313	51.5687	11,313	54.5612	11,313	51.9513	11,313	54.501	11,313	33.4237	11,313	52.5212	11,313	45.516	11,313	52.9895	11,313	46.0805	11,313	54.6287	11,313	38.3542	11,313	50.8196	11,313	50.1063	11,313	53.7608	11,313	28.2459	11,313	49.6935	11,313	47.0956	11,313	43.3779
11,712.9	85.0388	11,712.9	85.5725	11,712.9	84.5404	11,712.9	84.4575	11,712.9	82.8517	11,712.9	82.2689	11,712.9	79.8826	11,712.9	79.3141	11,712.9	75.5157	11,712.9	76.0177	11,712.9	71.1778	11,712.9	70.8532	11,712.9	65.7441	11,712.9	66.8087	11,712.9	64.8726	11,712.9	62.3096	11,712.9	51.3097	11,712.9	59.147	11,712.9	49.1528	11,712.9	54.9365	11,712.9	53.7321	11,712.9	52.7239	11,712.9	49.679	11,712.9	52.1171	11,712.9	39.6878	11,712.9	51.4979	11,712.9	48.6486	11,712.9	54.1108	11,712.9	39.6125	11,712.9	49.6776	11,712.9	43.0629	11,712.9	52.9667	11,712.9	26.0255	11,712.9	49.7147	11,712.9	39.3635	11,712.9	42.1727
12,126	84.5927	12,126	85.4621	12,126	83.8932	12,126	84.0578	12,126	82.4917	12,126	81.8728	12,126	79.6487	12,126	79.1109	12,126	75.0416	12,126	74.7664	12,126	70.6691	12,126	70.6337	12,126	64.0874	12,126	66.6272	12,126	62.4972	12,126	62.5654	12,126	50.2546	12,126	57.5787	12,126	51.4505	12,126	54.9056	12,126	53.714	12,126	52.5205	12,126	52.1297	12,126	51.7418	12,126	44.8005	12,126	48.9643	12,126	41.1715	12,126	53.2942	12,126	34.4088	12,126	49.1892	12,126	38.6986	12,126	51.8004	12,126	28.3072	12,126	52.0787	12,126	33.0069	12,126	43.7666
12,553.7	84.784	12,553.7	85.3102	12,553.7	84.0361	12,553.7	83.7296	12,553.7	82.6329	12,553.7	81.8537	12,553.7	79.6023	12,553.7	78.7618	12,553.7	74.4683	12,553.7	74.1613	12,553.7	70.0001	12,553.7	70.6785	12,553.7	62.8399	12,553.7	66.2688	12,553.7	62.4382	12,553.7	61.4584	12,553.7	50.7418	12,553.7	57.4914	12,553.7	46.5409	12,553.7	53.2026	12,553.7	54.9888	12,553.7	51.6288	12,553.7	54.3123	12,553.7	50.945	12,553.7	44.1767	12,553.7	48.2968	12,553.7	28.5421	12,553.7	52.1214	12,553.7	40.4205	12,553.7	48.713	12,553.7	44.0107	12,553.7	50.8239	12,553.7	33.3985	12,553.7	51.3551	12,553.7	37.8836	12,553.7	39.7241
12,996.1	84.8851	12,996.1	84.9937	12,996.1	84.2236	12,996.1	83.5866	12,996.1	82.5843	12,996.1	82.153	12,996.1	79.3826	12,996.1	78.4249	12,996.1	74.5374	12,996.1	73.9108	12,996.1	69.6086	12,996.1	71.0765	12,996.1	62.3328	12,996.1	65.6585	12,996.1	61.5309	12,996.1	59.5295	12,996.1	51.5274	12,996.1	56.2411	12,996.1	44.8481	12,996.1	51.7723	12,996.1	53.1656	12,996.1	51.1187	12,996.1	54.1323	12,996.1	47.4713	12,996.1	45.3397	12,996.1	48.5369	12,996.1	40.9555	12,996.1	50.831	12,996.1	30.0192	12,996.1	47.7752	12,996.1	35.8502	12,996.1	49.5179	12,996.1	27.8846	12,996.1	51.8859	12,996.1	39.3401	12,996.1	40.4053
13,454.6	84.5114	13,454.6	84.729	13,454.6	84.0282	13,454.6	83.6628	13,454.6	82.5375	13,454.6	82.1442	13,454.6	79.1171	13,454.6	77.5429	13,454.6	73.7114	13,454.6	73.482	13,454.6	67.9423	13,454.6	69.6135	13,454.6	60.8111	13,454.6	63.6201	13,454.6	61.0375	13,454.6	56.3622	13,454.6	46.2175	13,454.6	53.1723	13,454.6	47.0871	13,454.6	48.8975	13,454.6	54.9836	13,454.6	45.1912	13,454.6	55.2228	13,454.6	46.9696	13,454.6	46.5374	13,454.6	43.6201	13,454.6	42.5761	13,454.6	45.8196	13,454.6	37.6839	13,454.6	42.7809	13,454.6	31.5952	13,454.6	47.549	13,454.6	36.378	13,454.6	52.3487	13,454.6	43.6654	13,454.6	37.2759
13,929.2	84.1308	13,929.2	84.6738	13,929.2	83.8251	13,929.2	83.5656	13,929.2	82.7066	13,929.2	81.9705	13,929.2	78.605	13,929.2	76.4137	13,929.2	72.6177	13,929.2	71.7353	13,929.2	65.0437	13,929.2	67.0943	13,929.2	58.965	13,929.2	60.6839	13,929.2	57.949	13,929.2	52.5036	13,929.2	18.505	13,929.2	47.0158	13,929.2	43.5914	13,929.2	46.7748	13,929.2	56.9183	13,929.2	40.8498	13,929.2	57.2469	13,929.2	44.8417	13,929.2	47.0747	13,929.2	29.1574	13,929.2	43.4462	13,929.2	41.3633	13,929.2	43.901	13,929.2	34.5846	13,929.2	41.6047	13,929.2	49.1073	13,929.2	43.3972	13,929.2	51.4	13,929.2	42.5556	13,929.2	37.4696
14,419.9	83.0983	14,419.9	83.3718	14,419.9	83.4233	14,419.9	83.1844	14,419.9	82.9593	14,419.9	82.0733	14,419.9	78.5455	14,419.9	76.1646	14,419.9	72.6372	14,419.9	72.5492	14,419.9	65.6209	14,419.9	66.6349	14,419.9	58.9585	14,419.9	57.3478	14,419.9	54.3301	14,419.9	51.374	14,419.9	47.642	14,419.9	47.7424	14,419.9	50.0523	14,419.9	46.0297	14,419.9	57.7804	14,419.9	40.9288	14,419.9	59.1624	14,419.9	45.4598	14,419.9	47.8837	14,419.9	38.2827	14,419.9	45.0953	14,419.9	44.0332	14,419.9	46.1745	14,419.9	35.4012	14,419.9	43.7392	14,419.9	49.4122	14,419.9	42.9135	14,419.9	51.349	14,419.9	40.6206	14,419.9	35.0564
14,928.2	81.4332	14,928.2	81.5141	14,928.2	83.5974	14,928.2	83.6323	14,928.2	83.0376	14,928.2	82.3548	14,928.2	78.2867	14,928.2	76.0375	14,928.2	72.1539	14,928.2	72.6406	14,928.2	64.9828	14,928.2	64.5908	14,928.2	52.5498	14,928.2	50.8225	14,928.2	45.4461	14,928.2	39.2137	14,928.2	41.7925	14,928.2	45.3054	14,928.2	48.1605	14,928.2	37.7646	14,928.2	57.0116	14,928.2	33.9281	14,928.2	57.6075	14,928.2	43.5573	14,928.2	47.5515	14,928.2	42.2237	14,928.2	46.208	14,928.2	38.1968	14,928.2	45.1241	14,928.2	37.6371	14,928.2	48.523	14,928.2	48.5614	14,928.2	46.1133	14,928.2	49.4543	14,928.2	43.8013	14,928.2	40.5115
15,455.6	79.8955	15,455.6	80.2653	15,455.6	84.4989	15,455.6	84.4036	15,455.6	83.0892	15,455.6	82.3795	15,455.6	77.6316	15,455.6	74.835	15,455.6	70.514	15,455.6	70.8821	15,455.6	60.5465	15,455.6	58.4139	15,455.6	54.6509	15,455.6	55.4484	15,455.6	38.2591	15,455.6	51.4914	15,455.6	52.0268	15,455.6	42.6794	15,455.6	46.8449	15,455.6	40.7423	15,455.6	58.3614	15,455.6	37.2101	15,455.6	58.4525	15,455.6	40.378	15,455.6	47.145	15,455.6	45.0989	15,455.6	46.1381	15,455.6	36.3112	15,455.6	41.5084	15,455.6	44.9713	15,455.6	51.0471	15,455.6	50.6368	15,455.6	44.7147	15,455.6	43.9653	15,455.6	44.9122	15,455.6	41.9212
16,000.5	79.4183	16,000.5	78.893	16,000.5	84.4536	16,000.5	83.8748	16,000.5	82.0925	16,000.5	80.5474	16,000.5	75.9488	16,000.5	72.9642	16,000.5	66.0644	16,000.5	66.8423	16,000.5	58.1235	16,000.5	62.2003	16,000.5	61.3461	16,000.5	61.3754	16,000.5	52.3744	16,000.5	57.8046	16,000.5	56.8411	16,000.5	48.908	16,000.5	48.3932	16,000.5	47.2572	16,000.5	59.5685	16,000.5	41.6697	16,000.5	58.8733	16,000.5	36.0897	16,000.5	42.8527	16,000.5	50.3503	16,000.5	45.9238	16,000.5	43.5993	16,000.5	35.8651	16,000.5	48.4451	16,000.5	51.4441	16,000.5	49.9606	16,000.5	43.1076	16,000.5	42.6513	16,000.5	42.5287	16,000.5	47.2329
16,564.5	81.2286	16,564.5	80.2505	16,564.5	83.7638	16,564.5	82.4439	16,564.5	80.773	16,564.5	76.6773	16,564.5	74.6789	16,564.5	72.4827	16,564.5	61.7104	16,564.5	48.555	16,564.5	63.8811	16,564.5	66.6657	16,564.5	63.5893	16,564.5	63.0216	16,564.5	60.4205	16,564.5	59.459	16,564.5	57.7037	16,564.5	51.4323	16,564.5	45.5662	16,564.5	48.5993	16,564.5	60.3713	16,564.5	43.3894	16,564.5	60.2408	16,564.5	38.6051	16,564.5	47.3966	16,564.5	51.1455	16,564.5	43.136	16,564.5	45.749	16,564.5	35.8307	16,564.5	48.4173	16,564.5	49.4543	16,564.5	47.5295	16,564.5	43.318	16,564.5	49.7995	16,564.5	33.5884	16,564.5	51.3002
17,148.9	83.5876	17,148.9	83.2525	17,148.9	83.7622	17,148.9	82.8102	17,148.9	80.5976	17,148.9	76.5462	17,148.9	74.164	17,148.9	71.626	17,148.9	58.5608	17,148.9	60.363	17,148.9	68.537	17,148.9	67.8609	17,148.9	66.873	17,148.9	63.3084	17,148.9	63.2828	17,148.9	60.8679	17,148.9	56.6815	17,148.9	53.9237	17,148.9	48.2295	17,148.9	49.3862	17,148.9	60.9916	17,148.9	45.6915	17,148.9	61.5544	17,148.9	47.4981	17,148.9	50.4686	17,148.9	49.3965	17,148.9	44.1011	17,148.9	42.3993	17,148.9	42.0369	17,148.9	48.9324	17,148.9	49.2088	17,148.9	50.1918	17,148.9	48.2217	17,148.9	55.8941	17,148.9	38.6315	17,148.9	51.884
17,752.4	84.4943	17,752.4	84.6447	17,752.4	83.0553	17,752.4	82.3917	17,752.4	80.1542	17,752.4	77.35	17,752.4	73.7521	17,752.4	68.0438	17,752.4	66.0229	17,752.4	65.4853	17,752.4	70.414	17,752.4	68.4578	17,752.4	69.0111	17,752.4	64.7691	17,752.4	66.0672	17,752.4	61.9141	17,752.4	61.5453	17,752.4	54.1061	17,752.4	49.7261	17,752.4	50.8746	17,752.4	62.9056	17,752.4	37.926	17,752.4	63.1643	17,752.4	49.177	17,752.4	53.546	17,752.4	46.8998	17,752.4	44.044	17,752.4	39.3477	17,752.4	41.8437	17,752.4	50.3633	17,752.4	51.6971	17,752.4	53.4282	17,752.4	48.7469	17,752.4	59.4176	17,752.4	44.3816	17,752.4	53.4289
18,379.4	84.3799	18,379.4	85.0266	18,379.4	82.2903	18,379.4	80.9695	18,379.4	79.8206	18,379.4	76.7792	18,379.4	71.6016	18,379.4	63.7428	18,379.4	71.0303	18,379.4	67.2788	18,379.4	72.1222	18,379.4	68.0008	18,379.4	69.0382	18,379.4	63.8561	18,379.4	63.8028	18,379.4	59.8056	18,379.4	61.86	18,379.4	49.6554	18,379.4	50.4846	18,379.4	48.4889	18,379.4	62.7716	18,379.4	39.0424	18,379.4	63.7019	18,379.4	48.7452	18,379.4	53.6505	18,379.4	44.1556	18,379.4	41.1675	18,379.4	48.2254	18,379.4	43.7002	18,379.4	47.6684	18,379.4	50.8425	18,379.4	52.857	18,379.4	48.0991	18,379.4	61.4934	18,379.4	46.4054	18,379.4	52.2998
19,026.9	84.036	19,026.9	84.9067	19,026.9	81.5878	19,026.9	80.2298	19,026.9	79.067	19,026.9	76.0817	19,026.9	69.5273	19,026.9	68.2101	19,026.9	72.2055	19,026.9	67.8107	19,026.9	70.7496	19,026.9	67.6887	19,026.9	65.7895	19,026.9	61.5846	19,026.9	65.9677	19,026.9	57.824	19,026.9	58.0383	19,026.9	48.948	19,026.9	53.2239	19,026.9	45.2322	19,026.9	61.0852	19,026.9	41.4693	19,026.9	62.6978	19,026.9	48.0357	19,026.9	51.446	19,026.9	48.4567	19,026.9	35.3058	19,026.9	49.1794	19,026.9	47.6225	19,026.9	47.2468	19,026.9	43.7433	19,026.9	49.4175	19,026.9	43.4481	19,026.9	62.3667	19,026.9	42.7259	19,026.9	53.6299
19,697.8	83.993	19,697.8	84.2374	19,697.8	81.3734	19,697.8	79.6082	19,697.8	78.024	19,697.8	75.1201	19,697.8	71.4171	19,697.8	69.6349	19,697.8	72.1924	19,697.8	66.9238	19,697.8	69.454	19,697.8	66.0183	19,697.8	65.5439	19,697.8	57.6528	19,697.8	65.9553	19,697.8	55.2413	19,697.8	52.9853	19,697.8	47.5575	19,697.8	52.9943	19,697.8	42.9442	19,697.8	60.0434	19,697.8	46.3361	19,697.8	61.0578	19,697.8	46.9306	19,697.8	49.5978	19,697.8	52.3751	19,697.8	34.5034	19,697.8	51.3062	19,697.8	49.4996	19,697.8	48.4105	19,697.8	43.2056	19,697.8	49.7393	19,697.8	37.4631	19,697.8	63.768	19,697.8	44.0359	19,697.8	53.9383
19,999.5	83.7881	19,999.5	83.9509	19,999.5	81.3195	19,999.5	79.3562	19,999.5	77.8852	19,999.5	74.2821	19,999.5	72.9568	19,999.5	69.3095	19,999.5	72.1568	19,999.5	65.8889	19,999.5	68.6262	19,999.5	64.8586	19,999.5	65.2233	19,999.5	56.4594	19,999.5	65.3961	19,999.5	53.0853	19,999.5	54.27	19,999.5	48.0732	19,999.5	53.9795	19,999.5	40.3097	19,999.5	60.6035	19,999.5	49.0707	19,999.5	61.7985	19,999.5	46.675	19,999.5	50.2486	19,999.5	52.7037	19,999.5	40.061	19,999.5	54.4671	19,999.5	51.7598	19,999.5	46.1945	19,999.5	52.6391	19,999.5	49.0489	19,999.5	44.0484	19,999.5	63.3144	19,999.5	50.0211	19,999.5	51.4858
