"SPL Horizontal"																																																																							
"On-Axis"		"10°"		"-10°"		"20°"		"-20°"		"30°"		"-30°"		"40°"		"-40°"		"50°"		"-50°"		"60°"		"-60°"		"70°"		"-70°"		"80°"		"-80°"		"90°"		"-90°"		"100°"		"-100°"		"110°"		"-110°"		"120°"		"-120°"		"130°"		"-130°"		"140°"		"-140°"		"150°"		"-150°"		"160°"		"-160°"		"170°"		"-170°"		"180°"	
"Frequency [Hz]"	"Sound Pessure Level [dB]  / [2.83V 1m] "	"Frequency [Hz]"	"Sound Pessure Level [dB]  / [2.83V 1m] "	"Frequency [Hz]"	"Sound Pessure Level [dB]  / [2.83V 1m] "	"Frequency [Hz]"	"Sound Pessure Level [dB]  / [2.83V 1m] "	"Frequency [Hz]"	"Sound Pessure Level [dB]  / [2.83V 1m] "	"Frequency [Hz]"	"Sound Pessure Level [dB]  / [2.83V 1m] "	"Frequency [Hz]"	"Sound Pessure Level [dB]  / [2.83V 1m] "	"Frequency [Hz]"	"Sound Pessure Level [dB]  / [2.83V 1m] "	"Frequency [Hz]"	"Sound Pessure Level [dB]  / [2.83V 1m] "	"Frequency [Hz]"	"Sound Pessure Level [dB]  / [2.83V 1m] "	"Frequency [Hz]"	"Sound Pessure Level [dB]  / [2.83V 1m] "	"Frequency [Hz]"	"Sound Pessure Level [dB]  / [2.83V 1m] "	"Frequency [Hz]"	"Sound Pessure Level [dB]  / [2.83V 1m] "	"Frequency [Hz]"	"Sound Pessure Level [dB]  / [2.83V 1m] "	"Frequency [Hz]"	"Sound Pessure Level [dB]  / [2.83V 1m] "	"Frequency [Hz]"	"Sound Pessure Level [dB]  / [2.83V 1m] "	"Frequency [Hz]"	"Sound Pessure Level [dB]  / [2.83V 1m] "	"Frequency [Hz]"	"Sound Pessure Level [dB]  / [2.83V 1m] "	"Frequency [Hz]"	"Sound Pessure Level [dB]  / [2.83V 1m] "	"Frequency [Hz]"	"Sound Pessure Level [dB]  / [2.83V 1m] "	"Frequency [Hz]"	"Sound Pessure Level [dB]  / [2.83V 1m] "	"Frequency [Hz]"	"Sound Pessure Level [dB]  / [2.83V 1m] "	"Frequency [Hz]"	"Sound Pessure Level [dB]  / [2.83V 1m] "	"Frequency [Hz]"	"Sound Pessure Level [dB]  / [2.83V 1m] "	"Frequency [Hz]"	"Sound Pessure Level [dB]  / [2.83V 1m] "	"Frequency [Hz]"	"Sound Pessure Level [dB]  / [2.83V 1m] "	"Frequency [Hz]"	"Sound Pessure Level [dB]  / [2.83V 1m] "	"Frequency [Hz]"	"Sound Pessure Level [dB]  / [2.83V 1m] "	"Frequency [Hz]"	"Sound Pessure Level [dB]  / [2.83V 1m] "	"Frequency [Hz]"	"Sound Pessure Level [dB]  / [2.83V 1m] "	"Frequency [Hz]"	"Sound Pessure Level [dB]  / [2.83V 1m] "	"Frequency [Hz]"	"Sound Pessure Level [dB]  / [2.83V 1m] "	"Frequency [Hz]"	"Sound Pessure Level [dB]  / [2.83V 1m] "	"Frequency [Hz]"	"Sound Pessure Level [dB]  / [2.83V 1m] "	"Frequency [Hz]"	"Sound Pessure Level [dB]  / [2.83V 1m] "	"Frequency [Hz]"	"Sound Pessure Level [dB]  / [2.83V 1m] "
20.5078	53.7975	20.5078	53.8258	20.5078	53.7555	20.5078	53.8396	20.5078	53.7008	20.5078	53.8387	20.5078	53.635	20.5078	53.823	20.5078	53.5598	20.5078	53.793	20.5078	53.4773	20.5078	53.7495	20.5078	53.3901	20.5078	53.694	20.5078	53.3007	20.5078	53.6278	20.5078	53.2123	20.5078	53.5527	20.5078	53.1279	20.5078	53.4709	20.5078	53.0505	20.5078	53.3847	20.5078	52.9829	20.5078	53.2966	20.5078	52.9273	20.5078	53.2096	20.5078	52.885	20.5078	53.1267	20.5078	52.8568	20.5078	53.0508	20.5078	52.843	20.5078	52.9843	20.5078	52.8436	20.5078	52.9293	20.5078	52.8584	20.5078	52.8871
21.9727	55.9739	21.9727	55.986	21.9727	55.9484	21.9727	55.9846	21.9727	55.9096	21.9727	55.9702	21.9727	55.8583	21.9727	55.9436	21.9727	55.7953	21.9727	55.9057	21.9727	55.7222	21.9727	55.8577	21.9727	55.6408	21.9727	55.8008	21.9727	55.5531	21.9727	55.7361	21.9727	55.4619	21.9727	55.6649	21.9727	55.3702	21.9727	55.5886	21.9727	55.2813	21.9727	55.5087	21.9727	55.199	21.9727	55.427	21.9727	55.1268	21.9727	55.3454	21.9727	55.0679	21.9727	55.2664	21.9727	55.0248	21.9727	55.1926	21.9727	54.9992	21.9727	55.1268	21.9727	54.9917	21.9727	55.0715	21.9727	55.0021	21.9727	55.0292
23.4375	58.5277	23.4375	58.5297	23.4375	58.514	23.4375	58.52	23.4375	58.4891	23.4375	58.4985	23.4375	58.4534	23.4375	58.4655	23.4375	58.4078	23.4375	58.4214	23.4375	58.3532	23.4375	58.367	23.4375	58.2909	23.4375	58.3034	23.4375	58.2221	23.4375	58.2318	23.4375	58.1486	23.4375	58.1542	23.4375	58.0723	23.4375	58.0727	23.4375	57.9951	23.4375	57.9898	23.4375	57.9192	23.4375	57.9083	23.4375	57.8467	23.4375	57.8311	23.4375	57.7799	23.4375	57.7615	23.4375	57.7212	23.4375	57.7025	23.4375	57.673	23.4375	57.6569	23.4375	57.6377	23.4375	57.6267	23.4375	57.6173	23.4375	57.6134
24.9023	60.1506	24.9023	60.1505	24.9023	60.1392	24.9023	60.139	24.9023	60.1168	24.9023	60.1163	24.9023	60.0841	24.9023	60.0831	24.9023	60.0421	24.9023	60.0403	24.9023	59.992	24.9023	59.9892	24.9023	59.9354	24.9023	59.9312	24.9023	59.8739	24.9023	59.868	24.9023	59.8093	24.9023	59.8015	24.9023	59.7436	24.9023	59.7337	24.9023	59.6786	24.9023	59.6667	24.9023	59.6163	24.9023	59.6027	24.9023	59.5585	24.9023	59.5439	24.9023	59.5068	24.9023	59.4921	24.9023	59.4626	24.9023	59.4492	24.9023	59.4275	24.9023	59.4166	24.9023	59.4023	24.9023	59.3952	24.9023	59.3882	24.9023	59.3857
26.3672	62.041	26.3672	62.0393	26.3672	62.0304	26.3672	62.0251	26.3672	62.0079	26.3672	61.9989	26.3672	61.9742	26.3672	61.9612	26.3672	61.9303	26.3672	61.9131	26.3672	61.8775	26.3672	61.8557	26.3672	61.8174	26.3672	61.7908	26.3672	61.7515	26.3672	61.7202	26.3672	61.6819	26.3672	61.6461	26.3672	61.6105	26.3672	61.5706	26.3672	61.5393	26.3672	61.4963	26.3672	61.4703	26.3672	61.4256	26.3672	61.4055	26.3672	61.3611	26.3672	61.3467	26.3672	61.305	26.3672	61.2956	26.3672	61.2594	26.3672	61.2539	26.3672	61.2257	26.3672	61.2229	26.3672	61.2049	26.3672	61.2038	26.3672	61.1977
27.832	63.9577	27.832	63.9542	27.832	63.9491	27.832	63.9389	27.832	63.9289	27.832	63.912	27.832	63.8977	27.832	63.8743	27.832	63.8564	27.832	63.8269	27.832	63.8062	27.832	63.771	27.832	63.7487	27.832	63.7084	27.832	63.6855	27.832	63.641	27.832	63.6185	27.832	63.5708	27.832	63.5498	27.832	63.5001	27.832	63.4813	27.832	63.4311	27.832	63.4152	27.832	63.3662	27.832	63.3533	27.832	63.3074	27.832	63.2976	27.832	63.2567	27.832	63.2497	27.832	63.2156	27.832	63.211	27.832	63.1854	27.832	63.1826	27.832	63.1667	27.832	63.1654	27.832	63.16
29.2969	65.6646	29.2969	65.6605	29.2969	65.6566	29.2969	65.6446	29.2969	65.6371	29.2969	65.6171	29.2969	65.6066	29.2969	65.5788	29.2969	65.5662	29.2969	65.5306	29.2969	65.5169	29.2969	65.474	29.2969	65.4602	29.2969	65.4107	29.2969	65.3979	29.2969	65.3427	29.2969	65.3316	29.2969	65.2721	29.2969	65.2634	29.2969	65.2013	29.2969	65.1952	29.2969	65.1325	29.2969	65.129	29.2969	65.068	29.2969	65.0668	29.2969	65.0099	29.2969	65.0106	29.2969	64.9602	29.2969	64.9619	29.2969	64.9201	29.2969	64.9223	29.2969	64.891	29.2969	64.8929	29.2969	64.8735	29.2969	64.8746	29.2969	64.868
30.7617	67.3908	30.7617	67.3845	30.7617	67.3853	30.7617	67.3665	30.7617	67.3683	30.7617	67.3373	30.7617	67.3404	30.7617	67.2976	30.7617	67.3026	30.7617	67.2486	30.7617	67.2561	30.7617	67.1918	30.7617	67.2023	30.7617	67.1291	30.7617	67.1429	30.7617	67.0625	30.7617	67.0797	30.7617	66.9943	30.7617	67.0147	30.7617	66.927	30.7617	66.9497	30.7617	66.8629	30.7617	66.8868	30.7617	66.804	30.7617	66.8279	30.7617	66.7523	30.7617	66.7747	30.7617	66.7092	30.7617	66.7288	30.7617	66.6756	30.7617	66.6913	30.7617	66.6522	30.7617	66.6631	30.7617	66.6392	30.7617	66.6448	30.7617	66.6368
32.2266	68.9803	32.2266	68.9761	32.2266	68.9717	32.2266	68.9592	32.2266	68.9507	32.2266	68.9299	32.2266	68.918	32.2266	68.8892	32.2266	68.8746	32.2266	68.838	32.2266	68.822	32.2266	68.778	32.2266	68.7617	32.2266	68.7109	32.2266	68.6955	32.2266	68.6391	32.2266	68.6256	32.2266	68.5648	32.2266	68.5541	32.2266	68.4907	32.2266	68.483	32.2266	68.4193	32.2266	68.4145	32.2266	68.3529	32.2266	68.3506	32.2266	68.2936	32.2266	68.2932	32.2266	68.2432	32.2266	68.2437	32.2266	68.2029	32.2266	68.2038	32.2266	68.1737	32.2266	68.1744	32.2266	68.156	32.2266	68.1564	32.2266	68.1502
33.6914	70.5372	33.6914	70.5323	33.6914	70.5292	33.6914	70.5147	33.6914	70.5087	33.6914	70.4847	33.6914	70.4762	33.6914	70.4433	33.6914	70.4327	33.6914	70.3916	33.6914	70.3797	33.6914	70.331	33.6914	70.3187	33.6914	70.2634	33.6914	70.2515	33.6914	70.1909	33.6914	70.1804	33.6914	70.1156	33.6914	70.1073	33.6914	70.0402	33.6914	70.0346	33.6914	69.9669	33.6914	69.9643	33.6914	69.8982	33.6914	69.8984	33.6914	69.8363	33.6914	69.8388	33.6914	69.7833	33.6914	69.7872	33.6914	69.7408	33.6914	69.745	33.6914	69.7099	33.6914	69.7134	33.6914	69.6916	33.6914	69.6936	33.6914	69.6862
35.1563	72.108	35.1563	72.101	35.1563	72.1026	35.1563	72.0815	35.1563	72.0848	35.1563	72.0501	35.1563	72.0553	35.1563	72.0077	35.1563	72.015	35.1563	71.9556	35.1563	71.9653	35.1563	71.8953	35.1563	71.9078	35.1563	71.8287	35.1563	71.8442	35.1563	71.7581	35.1563	71.7767	35.1563	71.6857	35.1563	71.7075	35.1563	71.6141	35.1563	71.6385	35.1563	71.5457	35.1563	71.5721	35.1563	71.4828	35.1563	71.5099	35.1563	71.4273	35.1563	71.4537	35.1563	71.381	35.1563	71.405	35.1563	71.3449	35.1563	71.3648	35.1563	71.32	35.1563	71.3343	35.1563	71.3066	35.1563	71.314	35.1563	71.3046
36.6211	73.5318	36.6211	73.5255	36.6211	73.5258	36.6211	73.507	36.6211	73.5077	36.6211	73.4769	36.6211	73.4781	36.6211	73.436	36.6211	73.4379	36.6211	73.3855	36.6211	73.3884	36.6211	73.327	36.6211	73.3311	36.6211	73.2624	36.6211	73.2678	36.6211	73.1937	36.6211	73.2005	36.6211	73.1231	36.6211	73.1313	36.6211	73.053	36.6211	73.0623	36.6211	72.9856	36.6211	72.9955	36.6211	72.9229	36.6211	72.933	36.6211	72.8668	36.6211	72.8764	36.6211	72.8189	36.6211	72.8274	36.6211	72.7806	36.6211	72.7875	36.6211	72.7529	36.6211	72.7577	36.6211	72.7364	36.6211	72.7389	36.6211	72.7317
38.0859	74.8895	38.0859	74.8829	38.0859	74.8837	38.0859	74.8641	38.0859	74.8655	38.0859	74.8337	38.0859	74.8356	38.0859	74.7927	38.0859	74.7947	38.0859	74.7422	38.0859	74.7442	38.0859	74.684	38.0859	74.6855	38.0859	74.6199	38.0859	74.6207	38.0859	74.5518	38.0859	74.5516	38.0859	74.482	38.0859	74.4805	38.0859	74.4128	38.0859	74.4096	38.0859	74.3461	38.0859	74.3413	38.0859	74.284	38.0859	74.2777	38.0859	74.2281	38.0859	74.2207	38.0859	74.1799	38.0859	74.1721	38.0859	74.1405	38.0859	74.1334	38.0859	74.1111	38.0859	74.1055	38.0859	74.0923	38.0859	74.0893	38.0859	74.0849
39.5508	75.9659	39.5508	75.9554	39.5508	75.9639	39.5508	75.9327	39.5508	75.9495	39.5508	75.8986	39.5508	75.9229	39.5508	75.8543	39.5508	75.8851	39.5508	75.8011	39.5508	75.8372	39.5508	75.741	39.5508	75.7808	39.5508	75.676	39.5508	75.7176	39.5508	75.6083	39.5508	75.6494	39.5508	75.5403	39.5508	75.5786	39.5508	75.474	39.5508	75.5074	39.5508	75.4114	39.5508	75.4382	39.5508	75.3541	39.5508	75.3734	39.5508	75.3032	39.5508	75.3151	39.5508	75.2597	39.5508	75.2654	39.5508	75.2244	39.5508	75.2258	39.5508	75.198	39.5508	75.1973	39.5508	75.1814	39.5508	75.1805	39.5508	75.1753
41.0156	76.9097	41.0156	76.9	41.0156	76.9066	41.0156	76.8776	41.0156	76.891	41.0156	76.8432	41.0156	76.8636	41.0156	76.7977	41.0156	76.8256	41.0156	76.7429	41.0156	76.7783	41.0156	76.6805	41.0156	76.7234	41.0156	76.6131	41.0156	76.6627	41.0156	76.5433	41.0156	76.5982	41.0156	76.4737	41.0156	76.5318	41.0156	76.4068	41.0156	76.4656	41.0156	76.345	41.0156	76.4015	41.0156	76.2899	41.0156	76.3413	41.0156	76.2427	41.0156	76.2867	41.0156	76.2039	41.0156	76.2392	41.0156	76.174	41.0156	76.2	41.0156	76.1533	41.0156	76.1701	41.0156	76.1422	41.0156	76.1504	41.0156	76.1411
42.4805	77.969	42.4805	77.9638	42.4805	77.9602	42.4805	77.9446	42.4805	77.9378	42.4805	77.9118	42.4805	77.9025	42.4805	77.8663	42.4805	77.8556	42.4805	77.8094	42.4805	77.7986	42.4805	77.7428	42.4805	77.7333	42.4805	77.6685	42.4805	77.6617	42.4805	77.5891	42.4805	77.5863	42.4805	77.5071	42.4805	77.5095	42.4805	77.4255	42.4805	77.4336	42.4805	77.3472	42.4805	77.361	42.4805	77.2749	42.4805	77.2935	42.4805	77.2113	42.4805	77.233	42.4805	77.1583	42.4805	77.1807	42.4805	77.1174	42.4805	77.1378	42.4805	77.0895	42.4805	77.1049	42.4805	77.0747	42.4805	77.083	42.4805	77.0727
43.9453	78.9339	43.9453	78.9279	43.9453	78.9265	43.9453	78.9085	43.9453	78.9061	43.9453	78.8763	43.9453	78.8733	43.9453	78.832	43.9453	78.8292	43.9453	78.7771	43.9453	78.7752	43.9453	78.7131	43.9453	78.7129	43.9453	78.642	43.9453	78.6443	43.9453	78.5661	43.9453	78.5714	43.9453	78.4879	43.9453	78.4965	43.9453	78.41	43.9453	78.422	43.9453	78.3351	43.9453	78.3499	43.9453	78.2658	43.9453	78.2826	43.9453	78.2042	43.9453	78.2219	43.9453	78.1525	43.9453	78.1695	43.9453	78.1119	43.9453	78.1266	43.9453	78.0834	43.9453	78.0942	43.9453	78.0675	43.9453	78.0732	43.9453	78.0642
45.4102	79.6161	45.4102	79.6113	45.4102	79.6072	45.4102	79.5928	45.4102	79.5849	45.4102	79.5613	45.4102	79.5501	45.4102	79.5178	45.4102	79.5039	45.4102	79.4637	45.4102	79.448	45.4102	79.4009	45.4102	79.3842	45.4102	79.3316	45.4102	79.3147	45.4102	79.2582	45.4102	79.242	45.4102	79.1833	45.4102	79.1684	45.4102	79.1094	45.4102	79.0962	45.4102	79.039	45.4102	79.0278	45.4102	78.9743	45.4102	78.9652	45.4102	78.9172	45.4102	78.9101	45.4102	78.8691	45.4102	78.8637	45.4102	78.8309	45.4102	78.8271	45.4102	78.8031	45.4102	78.8007	45.4102	78.7862	45.4102	78.785	45.4102	78.7802
46.875	80.2961	46.875	80.2916	46.875	80.2867	46.875	80.2732	46.875	80.2636	46.875	80.2417	46.875	80.2277	46.875	80.198	46.875	80.18	46.875	80.1437	46.875	80.1223	46.875	80.0808	46.875	80.0565	46.875	80.0113	46.875	79.9849	46.875	79.9377	46.875	79.9099	46.875	79.8627	46.875	79.8343	46.875	79.7887	46.875	79.7604	46.875	79.7183	46.875	79.6909	46.875	79.6535	46.875	79.6278	46.875	79.5962	46.875	79.5729	46.875	79.5475	46.875	79.5275	46.875	79.5084	46.875	79.4924	46.875	79.4793	46.875	79.4682	46.875	79.4605	46.875	79.4548	46.875	79.4523
48.3398	80.8243	48.3398	80.8193	48.3398	80.8143	48.3398	80.7996	48.3398	80.7896	48.3398	80.7657	48.3398	80.7508	48.3398	80.7188	48.3398	80.6991	48.3398	80.6605	48.3398	80.6361	48.3398	80.5927	48.3398	80.5637	48.3398	80.5177	48.3398	80.4845	48.3398	80.4379	48.3398	80.4008	48.3398	80.356	48.3398	80.3157	48.3398	80.2746	48.3398	80.2319	48.3398	80.1962	48.3398	80.1524	48.3398	80.1231	48.3398	80.0797	48.3398	80.0572	48.3398	80.016	48.3398	80	48.3398	79.9633	48.3398	79.9528	48.3398	79.9228	48.3398	79.9166	48.3398	79.8953	48.3398	79.8922	48.3398	79.8811	48.3398	79.8802
51.2695	81.7057	51.2695	81.6979	51.2695	81.6987	51.2695	81.6756	51.2695	81.677	51.2695	81.6394	51.2695	81.6413	51.2695	81.5906	51.2695	81.5928	51.2695	81.5309	51.2695	81.5331	51.2695	81.4622	51.2695	81.4641	51.2695	81.3868	51.2695	81.3881	51.2695	81.3075	51.2695	81.3076	51.2695	81.2269	51.2695	81.2255	51.2695	81.1475	51.2695	81.1445	51.2695	81.072	51.2695	81.0672	51.2695	81.0026	51.2695	80.9962	51.2695	80.941	51.2695	80.9336	51.2695	80.8886	51.2695	80.8811	51.2695	80.8466	51.2695	80.8398	51.2695	80.8157	51.2695	80.8105	51.2695	80.7963	51.2695	80.7934	51.2695	80.7888
52.7344	82.0595	52.7344	82.0512	52.7344	82.053	52.7344	82.0283	52.7344	82.0318	52.7344	81.9916	52.7344	81.9966	52.7344	81.9422	52.7344	81.9488	52.7344	81.8821	52.7344	81.8898	52.7344	81.8132	52.7344	81.8218	52.7344	81.738	52.7344	81.747	52.7344	81.6592	52.7344	81.6681	52.7344	81.5796	52.7344	81.5878	52.7344	81.5019	52.7344	81.5089	52.7344	81.4285	52.7344	81.4339	52.7344	81.3616	52.7344	81.3652	52.7344	81.3028	52.7344	81.3048	52.7344	81.2535	52.7344	81.2541	52.7344	81.2144	52.7344	81.2141	52.7344	81.1861	52.7344	81.1855	52.7344	81.1689	52.7344	81.1685	52.7344	81.163
54.1992	82.3818	54.1992	82.3728	54.1992	82.3755	54.1992	82.349	54.1992	82.3543	54.1992	82.3112	54.1992	82.3187	54.1992	82.2607	54.1992	82.27	54.1992	82.1994	54.1992	82.2098	54.1992	82.1294	54.1992	82.1401	54.1992	82.0534	54.1992	82.0633	54.1992	81.9741	54.1992	81.9823	54.1992	81.8942	54.1992	81.8998	54.1992	81.8165	54.1992	81.8189	54.1992	81.7435	54.1992	81.7423	54.1992	81.6772	54.1992	81.6726	54.1992	81.6192	54.1992	81.6118	54.1992	81.5704	54.1992	81.5616	54.1992	81.5315	54.1992	81.5229	54.1992	81.5029	54.1992	81.496	54.1992	81.4847	54.1992	81.4809	54.1992	81.4773
55.6641	82.6078	55.6641	82.5974	55.6641	82.6034	55.6641	82.5726	55.6641	82.5845	55.6641	82.5343	55.6641	82.5518	55.6641	82.4839	55.6641	82.5067	55.6641	82.4232	55.6641	82.4508	55.6641	82.3546	55.6641	82.3862	55.6641	82.2808	55.6641	82.3154	55.6641	82.2047	55.6641	82.2409	55.6641	82.129	55.6641	82.1656	55.6641	82.0565	55.6641	82.092	55.6641	81.9896	55.6641	82.0225	55.6641	81.9302	55.6641	81.9594	55.6641	81.8796	55.6641	81.9041	55.6641	81.8385	55.6641	81.858	55.6641	81.8072	55.6641	81.8215	55.6641	81.7857	55.6641	81.795	55.6641	81.7737	55.6641	81.7783	55.6641	81.7713
58.5938	83.0916	58.5938	83.0815	58.5938	83.0855	58.5938	83.0558	58.5938	83.0636	58.5938	83.0154	58.5938	83.0266	58.5938	82.9619	58.5938	82.9759	58.5938	82.8973	58.5938	82.9134	58.5938	82.8243	58.5938	82.8414	58.5938	82.7458	58.5938	82.7627	58.5938	82.6648	58.5938	82.6804	58.5938	82.5845	58.5938	82.5977	58.5938	82.5078	58.5938	82.5176	58.5938	82.437	58.5938	82.443	58.5938	82.3742	58.5938	82.3763	58.5938	82.3206	58.5938	82.3192	58.5938	82.2766	58.5938	82.2729	58.5938	82.2425	58.5938	82.2378	58.5938	82.2179	58.5938	82.2137	58.5938	82.2026	58.5938	82.2002	58.5938	82.1967
60.0586	83.3045	60.0586	83.2945	60.0586	83.2979	60.0586	83.2683	60.0586	83.2749	60.0586	83.2268	60.0586	83.2363	60.0586	83.1717	60.0586	83.1834	60.0586	83.1051	60.0586	83.1183	60.0586	83.0296	60.0586	83.0433	60.0586	82.9482	60.0586	82.9613	60.0586	82.8641	60.0586	82.8754	60.0586	82.7804	60.0586	82.7889	60.0586	82.7002	60.0586	82.7051	60.0586	82.626	60.0586	82.627	60.0586	82.56	60.0586	82.5571	60.0586	82.5033	60.0586	82.4973	60.0586	82.4568	60.0586	82.4489	60.0586	82.4204	60.0586	82.4123	60.0586	82.3941	60.0586	82.3875	60.0586	82.3775	60.0586	82.3738	60.0586	82.3707
62.9883	83.6688	62.9883	83.658	62.9883	83.663	62.9883	83.6308	62.9883	83.6407	62.9883	83.5885	62.9883	83.6028	62.9883	83.5325	62.9883	83.5505	62.9883	83.4651	62.9883	83.486	62.9883	83.389	62.9883	83.4115	62.9883	83.3071	62.9883	83.33	62.9883	83.2227	62.9883	83.2447	62.9883	83.1389	62.9883	83.1586	62.9883	83.0588	62.9883	83.0751	62.9883	82.9849	62.9883	82.9971	62.9883	82.9191	62.9883	82.927	62.9883	82.8627	62.9883	82.8667	62.9883	82.8165	62.9883	82.8174	62.9883	82.7806	62.9883	82.7797	62.9883	82.7549	62.9883	82.7534	62.9883	82.7393	62.9883	82.7382	62.9883	82.7336
64.4531	83.797	64.4531	83.7852	64.4531	83.7922	64.4531	83.7573	64.4531	83.771	64.4531	83.7144	64.4531	83.7343	64.4531	83.6581	64.4531	83.6835	64.4531	83.5908	64.4531	83.6207	64.4531	83.5151	64.4531	83.5483	64.4531	83.4343	64.4531	83.4693	64.4531	83.3516	64.4531	83.3868	64.4531	83.2703	64.4531	83.3041	64.4531	83.1935	64.4531	83.2243	64.4531	83.1236	64.4531	83.1504	64.4531	83.0624	64.4531	83.0845	64.4531	83.0113	64.4531	83.0283	64.4531	82.9704	64.4531	82.9827	64.4531	82.9397	64.4531	82.9478	64.4531	82.9185	64.4531	82.9234	64.4531	82.9065	64.4531	82.9088	64.4531	82.9033
67.3828	84.0545	67.3828	84.0413	67.3828	84.0504	67.3828	84.0115	67.3828	84.0292	67.3828	83.9663	67.3828	83.9917	67.3828	83.9075	67.3828	83.9396	67.3828	83.838	67.3828	83.8748	67.3828	83.7605	67.3828	83.8003	67.3828	83.6788	67.3828	83.7191	67.3828	83.5962	67.3828	83.6347	67.3828	83.5162	67.3828	83.5507	67.3828	83.4419	67.3828	83.4706	67.3828	83.3757	67.3828	83.3973	67.3828	83.319	67.3828	83.3332	67.3828	83.2725	67.3828	83.28	67.3828	83.236	67.3828	83.2383	67.3828	83.2088	67.3828	83.2078	67.3828	83.1898	67.3828	83.1877	67.3828	83.1783	67.3828	83.1768	67.3828	83.1739
68.8477	84.1666	68.8477	84.1522	68.8477	84.1628	68.8477	84.1203	68.8477	84.141	68.8477	84.0722	68.8477	84.1021	68.8477	84.01	68.8477	84.0476	68.8477	83.9364	68.8477	83.9798	68.8477	83.8547	68.8477	83.9017	68.8477	83.7685	68.8477	83.8165	68.8477	83.6818	68.8477	83.7279	68.8477	83.5982	68.8477	83.6397	68.8477	83.521	68.8477	83.5556	68.8477	83.4526	68.8477	83.4789	68.8477	83.3947	68.8477	83.4121	68.8477	83.3477	68.8477	83.3571	68.8477	83.3114	68.8477	83.3143	68.8477	83.2846	68.8477	83.2835	68.8477	83.2661	68.8477	83.2636	68.8477	83.2549	68.8477	83.2531	68.8477	83.2505
71.7773	84.4354	71.7773	84.4153	71.7773	84.4363	71.7773	84.3767	71.7773	84.4181	71.7773	84.3209	71.7773	84.3816	71.7773	84.2502	71.7773	84.3285	71.7773	84.1674	71.7773	84.2608	71.7773	84.0761	71.7773	84.1815	71.7773	83.9802	71.7773	84.0939	71.7773	83.8838	71.7773	84.0014	71.7773	83.7911	71.7773	83.9081	71.7773	83.7058	71.7773	83.8175	71.7773	83.6308	71.7773	83.733	71.7773	83.5679	71.7773	83.6575	71.7773	83.518	71.7773	83.5927	71.7773	83.4808	71.7773	83.5397	71.7773	83.4553	71.7773	83.4985	71.7773	83.4403	71.7773	83.4684	71.7773	83.4345	71.7773	83.4483	71.7773	83.4372
74.707	84.6864	74.707	84.6649	74.707	84.6884	74.707	84.6246	74.707	84.6715	74.707	84.5666	74.707	84.6367	74.707	84.493	74.707	84.586	74.707	84.4069	74.707	84.5218	74.707	84.3119	74.707	84.4469	74.707	84.2122	74.707	84.3647	74.707	84.1124	74.707	84.2785	74.707	84.017	74.707	84.1918	74.707	83.93	74.707	84.1076	74.707	83.8548	74.707	84.0285	74.707	83.7934	74.707	83.9565	74.707	83.7467	74.707	83.8929	74.707	83.7146	74.707	83.8381	74.707	83.696	74.707	83.7923	74.707	83.6892	74.707	83.7552	74.707	83.6928	74.707	83.7262	74.707	83.7054
77.6367	84.8291	77.6367	84.816	77.6367	84.8221	77.6367	84.783	77.6367	84.7955	77.6367	84.7313	77.6367	84.7507	77.6367	84.6631	77.6367	84.69	77.6367	84.5814	77.6367	84.6164	77.6367	84.4899	77.6367	84.5334	77.6367	84.3929	77.6367	84.445	77.6367	84.2953	77.6367	84.3553	77.6367	84.2017	77.6367	84.2684	77.6367	84.1164	77.6367	84.1877	77.6367	84.0431	77.6367	84.116	77.6367	83.9839	77.6367	84.0551	77.6367	83.9396	77.6367	84.0054	77.6367	83.9096	77.6367	83.9666	77.6367	83.892	77.6367	83.9373	77.6367	83.8844	77.6367	83.9158	77.6367	83.8843	77.6367	83.9004	77.6367	83.89
79.1016	84.9041	79.1016	84.8966	79.1016	84.891	79.1016	84.8688	79.1016	84.8579	79.1016	84.8218	79.1016	84.8063	79.1016	84.7578	79.1016	84.7385	79.1016	84.6798	79.1016	84.6577	79.1016	84.5913	79.1016	84.5678	79.1016	84.4967	79.1016	84.4731	79.1016	84.4005	79.1016	84.3781	79.1016	84.3073	79.1016	84.2873	79.1016	84.2214	79.1016	84.2047	79.1016	84.1463	79.1016	84.1333	79.1016	84.0842	79.1016	84.0748	79.1016	84.0359	79.1016	84.0298	79.1016	84.0009	79.1016	83.9974	79.1016	83.9774	79.1016	83.9758	79.1016	83.9632	79.1016	83.9626	79.1016	83.9559	79.1016	83.9558	79.1016	83.9537
82.0313	85.1712	82.0313	85.1632	82.0313	85.156	82.0313	85.1327	82.0313	85.118	82.0313	85.0809	82.0313	85.0586	82.0313	85.0103	82.0313	84.98	82.0313	84.9239	82.0313	84.8855	82.0313	84.8257	82.0313	84.7791	82.0313	84.72	82.0313	84.6658	82.0313	84.6118	82.0313	84.5507	82.0313	84.5058	82.0313	84.4393	82.0313	84.4065	82.0313	84.3368	82.0313	84.3177	82.0313	84.2473	82.0313	84.2417	82.0313	84.1736	82.0313	84.1798	82.0313	84.1171	82.0313	84.1315	82.0313	84.0773	82.0313	84.0955	82.0313	84.0523	82.0313	84.0696	82.0313	84.0396	82.0313	84.0519	82.0313	84.0366	82.0313	84.041
84.9609	85.3943	84.9609	85.3853	84.9609	85.3806	84.9609	85.3542	84.9609	85.3442	84.9609	85.3025	84.9609	85.2861	84.9609	85.232	84.9609	85.2077	84.9609	85.1455	84.9609	85.1114	84.9609	85.0462	84.9609	85.0004	84.9609	84.9377	84.9609	84.8786	84.9609	84.8241	84.9609	84.7509	84.9609	84.7096	84.9609	84.6223	84.9609	84.5979	84.9609	84.4981	84.9609	84.4927	84.9609	84.3837	84.9609	84.3966	84.9609	84.2835	84.9609	84.3116	84.9609	84.2007	84.9609	84.2387	84.9609	84.1375	84.9609	84.1782	84.9609	84.0941	84.9609	84.1302	84.9609	84.0699	84.9609	84.0946	84.9609	84.0631	84.9609	84.0718
87.8906	85.2736	87.8906	85.2578	87.8906	85.2717	87.8906	85.2253	87.8906	85.2519	87.8906	85.1777	87.8906	85.2148	87.8906	85.1173	87.8906	85.1616	87.8906	85.0467	87.8906	85.0944	87.8906	84.9693	87.8906	85.0157	87.8906	84.888	87.8906	84.9288	87.8906	84.8063	87.8906	84.8373	87.8906	84.727	87.8906	84.7449	87.8906	84.6525	87.8906	84.6557	87.8906	84.5848	87.8906	84.5732	87.8906	84.5249	87.8906	84.5005	87.8906	84.4733	87.8906	84.4399	87.8906	84.4299	87.8906	84.3929	87.8906	84.3945	87.8906	84.3597	87.8906	84.3668	87.8906	84.3398	87.8906	84.3467	87.8906	84.332	87.8906	84.3348
90.8203	84.8564	90.8203	84.819	90.8203	84.8809	90.8203	84.7701	90.8203	84.8922	90.8203	84.7127	90.8203	84.8913	90.8203	84.6508	90.8203	84.8801	90.8203	84.5892	90.8203	84.8613	90.8203	84.5331	90.8203	84.8382	90.8203	84.4875	90.8203	84.8139	90.8203	84.4565	90.8203	84.7913	90.8203	84.4425	90.8203	84.7728	90.8203	84.4463	90.8203	84.7597	90.8203	84.4665	90.8203	84.7524	90.8203	84.5	90.8203	84.7505	90.8203	84.5426	90.8203	84.7524	90.8203	84.5892	90.8203	84.756	90.8203	84.6353	90.8203	84.7587	90.8203	84.6766	90.8203	84.7577	90.8203	84.7104	90.8203	84.7505	90.8203	84.7351
95.2148	86.0127	95.2148	86.0046	95.2148	85.9885	95.2148	85.9646	95.2148	85.9328	95.2148	85.8938	95.2148	85.8472	95.2148	85.7945	95.2148	85.7348	95.2148	85.6703	95.2148	85.5994	95.2148	85.5258	95.2148	85.4463	95.2148	85.367	95.2148	85.2822	95.2148	85.201	95.2148	85.1146	95.2148	85.0357	95.2148	84.9518	95.2148	84.8793	95.2148	84.8018	95.2148	84.7393	95.2148	84.6716	95.2148	84.6215	95.2148	84.5659	95.2148	84.5292	95.2148	84.4867	95.2148	84.4623	95.2148	84.4323	95.2148	84.4181	95.2148	84.3988	95.2148	84.3918	95.2148	84.3809	95.2148	84.3781	95.2148	84.3733	95.2148	84.3726
98.1445	85.5791	98.1445	85.567	98.1445	85.5675	98.1445	85.5323	98.1445	85.5326	98.1445	85.4768	98.1445	85.4755	98.1445	85.4035	98.1445	85.3986	98.1445	85.3161	98.1445	85.305	98.1445	85.2192	98.1445	85.199	98.1445	85.1176	98.1445	85.0852	98.1445	85.0163	98.1445	84.9692	98.1445	84.9199	98.1445	84.8563	98.1445	84.8321	98.1445	84.752	98.1445	84.7552	98.1445	84.6607	98.1445	84.6905	98.1445	84.5859	98.1445	84.6373	98.1445	84.5296	98.1445	84.5941	98.1445	84.4918	98.1445	84.5588	98.1445	84.4713	98.1445	84.5295	98.1445	84.4654	98.1445	84.5049	98.1445	84.4711	98.1445	84.485
101.074	85.5896	101.074	85.5628	101.074	85.5885	101.074	85.509	101.074	85.56	101.074	85.4305	101.074	85.5059	101.074	85.331	101.074	85.4295	101.074	85.2157	101.074	85.3349	101.074	85.0905	101.074	85.2272	101.074	84.9624	101.074	85.1123	101.074	84.8382	101.074	84.996	101.074	84.7244	101.074	84.8839	101.074	84.6263	101.074	84.781	101.074	84.5473	101.074	84.691	101.074	84.4884	101.074	84.616	101.074	84.4488	101.074	84.5567	101.074	84.4257	101.074	84.5118	101.074	84.4154	101.074	84.4791	101.074	84.4141	101.074	84.4559	101.074	84.4187	101.074	84.4393	101.074	84.4272
105.469	85.8032	105.469	85.7998	105.469	85.7791	105.469	85.7692	105.469	85.7284	105.469	85.7131	105.469	85.6535	105.469	85.6342	105.469	85.5577	105.469	85.5368	105.469	85.4459	105.469	85.4264	105.469	85.3238	105.469	85.3092	105.469	85.1984	105.469	85.1923	105.469	85.0766	105.469	85.0825	105.469	84.9655	105.469	84.9857	105.469	84.871	105.469	84.9062	105.469	84.7972	105.469	84.8457	105.469	84.7457	105.469	84.8037	105.469	84.7157	105.469	84.7773	105.469	84.7039	105.469	84.7621	105.469	84.7052	105.469	84.753	105.469	84.7143	105.469	84.7456	105.469	84.726	105.469	84.7369
108.398	85.8352	108.398	85.8255	108.398	85.8173	108.398	85.789	108.398	85.772	108.398	85.7281	108.398	85.7012	108.398	85.6461	108.398	85.6081	108.398	85.5478	108.398	85.4972	108.398	85.4388	108.398	85.3747	108.398	85.3258	108.398	85.2477	108.398	85.2153	108.398	85.1241	108.398	85.1141	108.398	85.0118	108.398	85.0275	108.398	84.9175	108.398	84.9591	108.398	84.8461	108.398	84.9102	108.398	84.7997	108.398	84.8792	108.398	84.7771	108.398	84.8627	108.398	84.7742	108.398	84.8552	108.398	84.7851	108.398	84.8514	108.398	84.8029	108.398	84.8463	108.398	84.8215	108.398	84.8366
112.793	86.1203	112.793	86.1087	112.793	86.099	112.793	86.0666	112.793	86.0444	112.793	85.9974	112.793	85.9577	112.793	85.9063	112.793	85.842	112.793	85.7995	112.793	85.7023	112.793	85.6837	112.793	85.5452	112.793	85.5663	112.793	85.3791	112.793	85.4537	112.793	85.2135	112.793	85.3517	112.793	85.0587	112.793	85.264	112.793	84.9242	112.793	85.192	112.793	84.8182	112.793	85.1345	112.793	84.7457	112.793	85.0884	112.793	84.7083	112.793	85.0489	112.793	84.7035	112.793	85.0109	112.793	84.7255	112.793	84.9701	112.793	84.7665	112.793	84.9239	112.793	84.818	112.793	84.8722
117.188	86.2204	117.188	86.1439	117.188	86.2602	117.188	86.033	117.188	86.2627	117.188	85.8919	117.188	86.2292	117.188	85.7273	117.188	86.1626	117.188	85.5481	117.188	86.0673	117.188	85.3652	117.188	85.9489	117.188	85.1906	117.188	85.8143	117.188	85.0365	117.188	85.6714	117.188	84.9132	117.188	85.5284	117.188	84.8273	117.188	85.3932	117.188	84.7802	117.188	85.2728	117.188	84.768	117.188	85.1719	117.188	84.7825	117.188	85.0931	117.188	84.8133	117.188	85.0359	117.188	84.8502	117.188	84.9973	117.188	84.8854	117.188	84.972	117.188	84.9143	117.188	84.9538	117.188	84.9362
120.117	86.5125	120.117	86.4347	120.117	86.554	120.117	86.3211	120.117	86.5602	120.117	86.174	120.117	86.5332	120.117	85.9974	120.117	86.4765	120.117	85.798	120.117	86.3947	120.117	85.5847	120.117	86.2935	120.117	85.3695	120.117	86.1798	120.117	85.1664	120.117	86.0606	120.117	84.9902	120.117	85.943	120.117	84.8548	120.117	85.833	120.117	84.7696	120.117	85.7347	120.117	84.7384	120.117	85.6493	120.117	84.7577	120.117	85.5755	120.117	84.818	120.117	85.5093	120.117	84.9062	120.117	85.445	120.117	85.0087	120.117	85.3769	120.117	85.1135	120.117	85.3002	120.117	85.2121
124.512	86.3566	124.512	86.3653	124.512	86.3159	124.512	86.3408	124.512	86.2459	124.512	86.283	124.512	86.1501	124.512	86.1933	124.512	86.0334	124.512	86.0749	124.512	85.9016	124.512	85.9325	124.512	85.7616	124.512	85.7734	124.512	85.621	124.512	85.6067	124.512	85.488	124.512	85.4431	124.512	85.3704	124.512	85.2945	124.512	85.2747	124.512	85.1715	124.512	85.2052	124.512	85.0822	124.512	85.1623	124.512	85.0301	124.512	85.1425	124.512	85.0132	124.512	85.1389	124.512	85.0243	124.512	85.1424	124.512	85.0528	124.512	85.144	124.512	85.087	124.512	85.1366	124.512	85.117
128.906	86.1627	128.906	86.1669	128.906	86.1223	128.906	86.1363	128.906	86.0462	128.906	86.0733	128.906	85.9361	128.906	85.9817	128.906	85.7959	128.906	85.8665	128.906	85.6312	128.906	85.7332	128.906	85.4492	128.906	85.5882	128.906	85.2589	128.906	85.4385	128.906	85.0704	128.906	85.2906	128.906	84.8941	128.906	85.1506	128.906	84.7397	128.906	85.0237	128.906	84.6147	128.906	84.913	128.906	84.5239	128.906	84.8197	128.906	84.4681	128.906	84.743	128.906	84.4445	128.906	84.6802	128.906	84.4469	128.906	84.6276	128.906	84.468	128.906	84.5815	128.906	84.5005	128.906	84.5392
133.301	86.1448	133.301	86.1257	133.301	86.1295	133.301	86.0743	133.301	86.0791	133.301	85.9939	133.301	85.9945	133.301	85.8893	133.301	85.8781	133.301	85.7662	133.301	85.7345	133.301	85.6313	133.301	85.5699	133.301	85.4918	133.301	85.3927	133.301	85.3551	133.301	85.2126	133.301	85.228	133.301	85.0407	133.301	85.1156	133.301	84.8873	133.301	85.021	133.301	84.7614	133.301	84.9444	133.301	84.6684	133.301	84.8838	133.301	84.6102	133.301	84.8349	133.301	84.5842	133.301	84.7932	133.301	84.585	133.301	84.7542	133.301	84.6053	133.301	84.7153	133.301	84.6377	133.301	84.6758
139.16	86.0481	139.16	86.0115	139.16	86.049	139.16	85.941	139.16	86.0143	139.16	85.8408	139.16	85.9464	139.16	85.7176	139.16	85.8496	139.16	85.58	139.16	85.7297	139.16	85.4383	139.16	85.5945	139.16	85.3038	139.16	85.4527	139.16	85.1871	139.16	85.3142	139.16	85.0968	139.16	85.189	139.16	85.0377	139.16	85.086	139.16	85.0103	139.16	85.012	139.16	85.0103	139.16	84.9701	139.16	85.0299	139.16	84.9592	139.16	85.0592	139.16	84.974	139.16	85.0884	139.16	85.0057	139.16	85.1091	139.16	85.0443	139.16	85.1156	139.16	85.0802	139.16	85.1056
143.555	86.151	143.555	86.1164	143.555	86.1437	143.555	86.0412	143.555	86.0951	143.555	85.9293	143.555	86.008	143.555	85.7869	143.555	85.8875	143.555	85.623	143.555	85.7405	143.555	85.4486	143.555	85.5761	143.555	85.277	143.555	85.4051	143.555	85.1219	143.555	85.2395	143.555	84.9958	143.555	85.0913	143.555	84.9078	143.555	84.9712	143.555	84.8616	143.555	84.887	143.555	84.8543	143.555	84.8419	143.555	84.8771	143.555	84.8337	143.555	84.9174	143.555	84.8553	143.555	84.9612	143.555	84.8958	143.555	84.9963	143.555	84.9426	143.555	85.0136	143.555	84.9836	143.555	85.0091
147.949	86.1795	147.949	86.1469	147.949	86.1679	147.949	86.0712	147.949	86.1131	147.949	85.9559	147.949	86.018	147.949	85.8069	147.949	85.8878	147.949	85.6328	147.949	85.7297	147.949	85.4445	147.949	85.553	147.949	85.2552	147.949	85.3687	147.949	85.0791	147.949	85.1892	147.949	84.9299	147.949	85.027	147.949	84.8181	147.949	84.8933	147.949	84.7491	147.949	84.7964	147.949	84.7218	147.949	84.7395	147.949	84.7289	147.949	84.7207	147.949	84.7585	147.949	84.7325	147.949	84.7967	147.949	84.7636	147.949	84.8308	147.949	84.8015	147.949	84.8511	147.949	84.8341	147.949	84.8522
153.809	86.3235	153.809	86.2918	153.809	86.3073	153.809	86.2132	153.809	86.2438	153.809	86.0909	153.809	86.1358	153.809	85.9305	153.809	85.9882	153.809	85.74	153.809	85.8086	153.809	85.5305	153.809	85.6071	153.809	85.3161	153.809	85.3965	153.809	85.1128	153.809	85.192	153.809	84.9374	153.809	85.0093	153.809	84.804	153.809	84.8628	153.809	84.7214	153.809	84.7625	153.809	84.6905	153.809	84.7119	153.809	84.7035	153.809	84.7066	153.809	84.7461	153.809	84.7357	153.809	84.8009	153.809	84.7839	153.809	84.8513	153.809	84.835	153.809	84.8844	153.809	84.8746	153.809	84.8926
159.668	86.4997	159.668	86.4699	159.668	86.4838	159.668	86.3947	159.668	86.4225	159.668	86.2762	159.668	86.3179	159.668	86.1184	159.668	86.1729	159.668	85.9271	159.668	85.9924	159.668	85.7111	159.668	85.7832	159.668	85.482	159.668	85.5545	159.668	85.2537	159.668	85.3183	159.668	85.0413	159.668	85.089	159.668	84.8591	159.668	84.8818	159.668	84.7178	159.668	84.7107	159.668	84.6216	159.668	84.5852	159.668	84.5677	159.668	84.5081	159.668	84.5467	159.668	84.475	159.668	84.5457	159.668	84.4753	159.668	84.5509	159.668	84.4952	159.668	84.5515	159.668	84.5208	159.668	84.5415
165.527	86.2452	165.527	86.2263	165.527	86.2269	165.527	86.1713	165.527	86.1717	165.527	86.0822	165.527	86.0807	165.527	85.9618	165.527	85.9566	165.527	85.8142	165.527	85.8039	165.527	85.6453	165.527	85.6283	165.527	85.4629	165.527	85.4376	165.527	85.2777	165.527	85.2414	165.527	85.1017	165.527	85.0506	165.527	84.9476	165.527	84.8773	165.527	84.8255	165.527	84.7326	165.527	84.7405	165.527	84.6251	165.527	84.6909	165.527	84.5586	165.527	84.6686	165.527	84.5312	165.527	84.6616	165.527	84.5355	165.527	84.6575	165.527	84.5605	165.527	84.6468	165.527	84.5939	165.527	84.625
171.387	86.0339	171.387	86.0044	171.387	86.0239	171.387	85.9393	171.387	85.9725	171.387	85.8436	171.387	85.8801	171.387	85.7233	171.387	85.75	171.387	85.5843	171.387	85.5881	171.387	85.4325	171.387	85.4026	171.387	85.2739	171.387	85.2035	171.387	85.1146	171.387	85.0019	171.387	84.9615	171.387	84.809	171.387	84.8217	171.387	84.6355	171.387	84.7013	171.387	84.49	171.387	84.6041	171.387	84.3783	171.387	84.5299	171.387	84.3027	171.387	84.4747	171.387	84.2616	171.387	84.4318	171.387	84.2501	171.387	84.3946	171.387	84.2614	171.387	84.3584	171.387	84.2878	171.387	84.3219
177.246	85.7976	177.246	85.7463	177.246	85.8052	177.246	85.6564	177.246	85.767	177.246	85.5361	177.246	85.6844	177.246	85.3959	177.246	85.5619	177.246	85.2476	177.246	85.4069	177.246	85.1024	177.246	85.2299	177.246	84.9695	177.246	85.0433	177.246	84.8551	177.246	84.8614	177.246	84.7625	177.246	84.6981	177.246	84.6926	177.246	84.5655	177.246	84.6447	177.246	84.4716	177.246	84.6169	177.246	84.4193	177.246	84.6057	177.246	84.4055	177.246	84.6057	177.246	84.4223	177.246	84.6097	177.246	84.4588	177.246	84.6105	177.246	84.5035	177.246	84.6019	177.246	84.5465	177.246	84.5805
183.105	85.6869	183.105	85.6329	183.105	85.6827	183.105	85.5229	183.105	85.6226	183.105	85.3642	183.105	85.5128	183.105	85.1698	183.105	85.3628	183.105	84.9573	183.105	85.1852	183.105	84.7478	183.105	84.9946	183.105	84.5617	183.105	84.8076	183.105	84.4149	183.105	84.6405	183.105	84.3156	183.105	84.5085	183.105	84.2639	183.105	84.4227	183.105	84.2543	183.105	84.3884	183.105	84.2792	183.105	84.403	183.105	84.3312	183.105	84.4562	183.105	84.4029	183.105	84.5309	183.105	84.4859	183.105	84.6072	183.105	84.5691	183.105	84.666	183.105	84.6394	183.105	84.6936	183.105	84.6839
188.965	85.6039	188.965	85.5721	188.965	85.5664	188.965	85.4716	188.965	85.464	188.965	85.3086	188.965	85.3055	188.965	85.096	188.965	85.1037	188.965	84.8546	188.965	84.8757	188.965	84.6115	188.965	84.6423	188.965	84.3974	188.965	84.4261	188.965	84.2393	188.965	84.2488	188.965	84.1527	188.965	84.1267	188.965	84.1369	188.965	84.0676	188.965	84.1766	188.965	84.0696	188.965	84.2496	188.965	84.1218	188.965	84.3347	188.965	84.2079	188.965	84.4166	188.965	84.3095	188.965	84.4866	188.965	84.4091	188.965	84.5392	188.965	84.4921	188.965	84.5701	188.965	84.5488	188.965	84.5746
196.289	85.8278	196.289	85.7531	196.289	85.8318	196.289	85.6096	196.289	85.7662	196.289	85.4023	196.289	85.6349	196.289	85.1414	196.289	85.4448	196.289	84.8442	196.289	85.2076	196.289	84.5368	196.289	84.9404	196.289	84.2551	196.289	84.6667	196.289	84.0402	196.289	84.4151	196.289	83.9278	196.289	84.2154	196.289	83.9343	196.289	84.0916	196.289	84.0475	196.289	84.0544	196.289	84.2301	196.289	84.098	196.289	84.4351	196.289	84.203	196.289	84.621	196.289	84.3431	196.289	84.76	196.289	84.4929	196.289	84.8398	196.289	84.6324	196.289	84.8597	196.289	84.747	196.289	84.8259
203.613	85.7536	203.613	85.6844	203.613	85.7556	203.613	85.5491	203.613	85.6905	203.613	85.3511	203.613	85.5603	203.613	85.0963	203.613	85.3694	203.613	84.7956	203.613	85.1259	203.613	84.4673	203.613	84.8438	203.613	84.1388	203.613	84.5442	203.613	83.8472	203.613	84.2565	203.613	83.6336	203.613	84.0156	203.613	83.5316	203.613	83.8541	203.613	83.5532	203.613	83.7921	203.613	83.6817	203.613	83.829	203.613	83.8782	203.613	83.9433	203.613	84.0964	203.613	84.1012	203.613	84.2953	203.613	84.2671	203.613	84.4468	203.613	84.4114	203.613	84.5355	203.613	84.5125	203.613	84.5566
210.938	85.7807	210.938	85.7262	210.938	85.7636	210.938	85.6009	210.938	85.6765	210.938	85.4078	210.938	85.5238	210.938	85.1526	210.938	85.3128	210.938	84.8454	210.938	85.0538	210.938	84.5024	210.938	84.7613	210.938	84.1485	210.938	84.4539	210.938	83.8186	210.938	84.1554	210.938	83.5545	210.938	83.8936	210.938	83.3942	210.938	83.6967	210.938	83.3578	210.938	83.5859	210.938	83.4363	210.938	83.5675	210.938	83.5941	210.938	83.6295	210.938	83.7835	210.938	83.7458	210.938	83.96	210.938	83.8847	210.938	84.0922	210.938	84.0165	210.938	84.1637	210.938	84.1175	210.938	84.1705
218.262	85.8803	218.262	85.8275	218.262	85.8523	218.262	85.697	218.262	85.7438	218.262	85.4949	218.262	85.5585	218.262	85.2307	218.262	85.3053	218.262	84.9181	218.262	84.9989	218.262	84.5765	218.262	84.6609	218.262	84.2315	218.262	84.3197	218.262	83.9152	218.262	84.0079	218.262	83.6629	218.262	83.7587	218.262	83.5067	218.262	83.5984	218.262	83.4651	218.262	83.5402	218.262	83.5345	218.262	83.58	218.262	83.6882	218.262	83.6973	218.262	83.8848	218.262	83.8614	218.262	84.0804	218.262	84.0379	218.262	84.2385	218.262	84.1954	218.262	84.3348	218.262	84.3082	218.262	84.3579
225.586	86.0186	225.586	85.9801	225.586	85.9604	225.586	85.848	225.586	85.805	225.586	85.6289	225.586	85.5547	225.586	85.3339	225.586	85.2164	225.586	84.9804	225.586	84.8038	225.586	84.5942	225.586	84.342	225.586	84.2101	225.586	83.871	225.586	83.8701	225.586	83.4468	225.586	83.6167	225.586	83.1337	225.586	83.482	225.586	82.985	225.586	83.4773	225.586	83.0201	225.586	83.5892	225.586	83.214	225.586	83.7845	225.586	83.5098	225.586	84.0208	225.586	83.8414	225.586	84.2551	225.586	84.1514	225.586	84.4505	225.586	84.3985	225.586	84.5779	225.586	84.5574	225.586	84.6171
232.91	86.3872	232.91	86.3154	232.91	86.36	232.91	86.1462	232.91	86.2333	232.91	85.8833	232.91	86.0074	232.91	85.5338	232.91	85.6842	232.91	85.1118	232.91	85.2686	232.91	84.6414	232.91	84.7724	232.91	84.1612	232.91	84.2196	232.91	83.7241	232.91	83.6531	232.91	83.39	232.91	83.1388	232.91	83.2067	232.91	82.7578	232.91	83.189	232.91	82.58	232.91	83.3111	232.91	82.6273	232.91	83.5203	232.91	82.8585	232.91	83.758	232.91	83.1926	232.91	83.9752	232.91	83.5454	232.91	84.1359	232.91	83.8528	232.91	84.2155	232.91	84.0764	232.91	84.1982
241.699	86.3709	241.699	86.267	241.699	86.3864	241.699	86.075	241.699	86.3128	241.699	85.7965	241.699	86.1492	241.699	85.4358	241.699	85.8948	241.699	85.0026	241.699	85.5501	241.699	84.5166	241.699	85.1194	241.699	84.012	241.699	84.6159	241.699	83.5404	241.699	84.0675	241.699	83.1656	241.699	83.5242	241.699	82.946	241.699	83.0581	241.699	82.9077	241.699	82.7485	241.699	83.0302	241.699	82.6483	241.699	83.2553	241.699	82.7523	241.699	83.5139	241.699	82.9997	241.699	83.7471	241.699	83.3066	241.699	83.9135	241.699	83.5988	241.699	83.9882	241.699	83.8258	241.699	83.9593
250.488	86.4645	250.488	86.3838	250.488	86.4582	250.488	86.2141	250.488	86.3654	250.488	85.953	250.488	86.186	250.488	85.5987	250.488	85.9189	250.488	85.1533	250.488	85.5641	250.488	84.6272	250.488	85.1247	250.488	84.0475	250.488	84.6118	250.488	83.4655	250.488	84.0502	250.488	82.9588	250.488	83.4857	250.488	82.6145	250.488	82.9871	250.488	82.4902	250.488	82.6339	250.488	82.5776	250.488	82.484	250.488	82.8078	250.488	82.5407	250.488	83.091	250.488	82.7489	250.488	83.3521	250.488	83.0261	250.488	83.5424	250.488	83.296	250.488	83.6362	250.488	83.5053	250.488	83.6233
259.277	86.4989	259.277	86.4331	259.277	86.486	259.277	86.2872	259.277	86.3942	259.277	86.0588	259.277	86.2224	259.277	85.7458	259.277	85.9685	259.277	85.3482	259.277	85.6315	259.277	84.8724	259.277	85.2132	259.277	84.3371	259.277	84.7226	259.277	83.781	259.277	84.1817	259.277	83.2684	259.277	83.6322	259.277	82.8823	259.277	83.1396	259.277	82.695	259.277	82.7835	259.277	82.7262	259.277	82.6287	259.277	82.9279	259.277	82.6869	259.277	83.2121	259.277	82.9066	259.277	83.4925	259.277	83.2014	259.277	83.7078	259.277	83.4877	259.277	83.8229	259.277	83.7061	259.277	83.8225
268.066	86.1432	268.066	86.0443	268.066	86.1601	268.066	85.864	268.066	86.0938	268.066	85.6023	268.066	85.9414	268.066	85.2603	268.066	85.6987	268.066	84.8421	268.066	85.3613	268.066	84.3583	268.066	84.9265	268.066	83.8309	268.066	84.3987	268.066	83.3001	268.066	83.7964	268.066	82.8276	268.066	83.1622	268.066	82.489	268.066	82.5709	268.066	82.3467	268.066	82.1226	268.066	82.4133	268.066	81.9081	268.066	82.639	268.066	81.957	268.066	82.9356	268.066	82.2153	268.066	83.2155	268.066	82.5801	268.066	83.414	268.066	82.9496	268.066	83.4935	268.066	83.2502	268.066	83.4382
276.855	86.2964	276.855	86.266	276.855	86.2419	276.855	86.1386	276.855	86.1152	276.855	85.9035	276.855	85.9265	276.855	85.5526	276.855	85.6823	276.855	85.0832	276.855	85.3837	276.855	84.5014	276.855	85.0273	276.855	83.8302	276.855	84.6099	276.855	83.1197	276.855	84.1356	276.855	82.4558	276.855	83.6263	276.855	81.9518	276.855	83.1311	276.855	81.7058	276.855	82.7242	276.855	81.7417	276.855	82.4814	276.855	81.9911	276.855	82.4368	276.855	82.3401	276.855	82.5577	276.855	82.6857	276.855	82.7646	276.855	82.9603	276.855	82.9743	276.855	83.1299	276.855	83.1259	276.855	83.1837
287.109	86.3318	287.109	86.2851	287.109	86.2814	287.109	86.1437	287.109	86.1339	287.109	85.9093	287.109	85.8925	287.109	85.5822	287.109	85.5656	287.109	85.1607	287.109	85.165	287.109	84.6458	287.109	84.7055	287.109	84.048	287.109	84.2029	287.109	83.4	287.109	83.6754	287.109	82.769	287.109	83.148	287.109	82.2569	287.109	82.6599	287.109	81.9686	287.109	82.2687	287.109	81.9508	287.109	82.0398	287.109	82.1568	287.109	82.0153	287.109	82.4783	287.109	82.1812	287.109	82.8048	287.109	82.4664	287.109	83.0565	287.109	82.7774	287.109	83.1874	287.109	83.0328	287.109	83.1784
297.363	86.3134	297.363	86.2076	297.363	86.3201	297.363	86.0116	297.363	86.2169	297.363	85.7313	297.363	85.9923	297.363	85.3699	297.363	85.6378	297.363	84.9289	297.363	85.1505	297.363	84.4117	297.363	84.538	297.363	83.8283	297.363	83.824	297.363	83.2053	297.363	83.0573	297.363	82.5976	297.363	82.3179	297.363	82.0935	297.363	81.7128	297.363	81.7941	297.363	81.3454	297.363	81.7585	297.363	81.2672	297.363	81.9568	297.363	81.4489	297.363	82.2859	297.363	81.8005	297.363	82.6296	297.363	82.2149	297.363	82.9001	297.363	82.5997	297.363	83.0458	297.363	82.8888	297.363	83.043
307.617	86.4366	307.617	86.3423	307.617	86.4619	307.617	86.1741	307.617	86.4178	307.617	85.9233	307.617	86.2978	307.617	85.5797	307.617	86.0891	307.617	85.1346	307.617	85.7752	307.617	84.5858	307.617	85.3402	307.617	83.9469	307.617	84.7747	307.617	83.2596	307.617	84.0855	307.617	82.6064	307.617	83.3108	307.617	82.106	307.617	82.5373	307.617	81.8687	307.617	81.9044	307.617	81.9245	307.617	81.5598	307.617	82.1985	307.617	81.5652	307.617	82.5629	307.617	81.8477	307.617	82.9035	307.617	82.2615	307.617	83.1455	307.617	82.6748	307.617	83.2496	307.617	83.003	307.617	83.2012
319.336	86.4707	319.336	86.4028	319.336	86.4523	319.336	86.2457	319.336	86.3491	319.336	85.994	319.336	86.1609	319.336	85.6391	319.336	85.8852	319.336	85.1691	319.336	85.5163	319.336	84.5717	319.336	85.0465	319.336	83.842	319.336	84.47	319.336	82.9984	319.336	83.7931	319.336	82.1097	319.336	83.0488	319.336	81.3242	319.336	82.3151	319.336	80.851	319.336	81.7211	319.336	80.8336	319.336	81.4081	319.336	81.2128	319.336	81.4398	319.336	81.7805	319.336	81.7474	319.336	82.3382	319.336	82.1817	319.336	82.766	319.336	82.6013	319.336	83.0105	319.336	82.9108	319.336	83.0562
329.59	86.5654	329.59	86.5031	329.59	86.5532	329.59	86.3634	329.59	86.4675	329.59	86.1418	329.59	86.3068	329.59	85.8312	329.59	86.0667	329.59	85.4229	329.59	85.7378	329.59	84.9077	329.59	85.3065	329.59	84.2811	329.59	84.7572	329.59	83.5534	329.59	84.0811	329.59	82.7677	329.59	83.2916	329.59	82.022	329.59	82.4501	329.59	81.4702	329.59	81.6909	329.59	81.2581	329.59	81.203	329.59	81.4084	329.59	81.1189	329.59	81.7933	329.59	81.3953	329.59	82.2343	329.59	81.8521	329.59	82.5952	329.59	82.3083	329.59	82.8009	329.59	82.6496	329.59	82.8204
341.309	85.9687	341.309	85.9146	341.309	85.9354	341.309	85.7722	341.309	85.8184	341.309	85.5412	341.309	85.6244	341.309	85.2192	341.309	85.3611	341.309	84.8009	341.309	85.0344	341.309	84.2795	341.309	84.645	341.309	83.6539	341.309	84.1886	341.309	82.9425	341.309	83.6619	341.309	82.2039	341.309	83.0769	341.309	81.5554	341.309	82.4807	341.309	81.1579	341.309	81.9709	341.309	81.129	341.309	81.6749	341.309	81.4418	341.309	81.675	341.309	81.9405	341.309	81.9367	341.309	82.4511	341.309	82.3316	341.309	82.8545	341.309	82.7215	341.309	83.091	341.309	83.0093	341.309	83.1409
353.027	86.2495	353.027	86.1572	353.027	86.2448	353.027	85.9724	353.027	86.1365	353.027	85.6966	353.027	85.9177	353.027	85.3267	353.027	85.5808	353.027	84.8541	353.027	85.1189	353.027	84.2668	353.027	84.5273	353.027	83.557	353.027	83.8059	353.027	82.7365	353.027	82.9667	353.027	81.8646	353.027	82.0469	353.027	81.0801	353.027	81.1366	353.027	80.5929	353.027	80.405	353.027	80.5638	353.027	80.0683	353.027	80.9503	353.027	80.2366	353.027	81.5417	353.027	80.7915	353.027	82.1252	353.027	81.4876	353.027	82.5677	353.027	82.1206	353.027	82.8047	353.027	82.5774	353.027	82.8099
366.211	86.4797	366.211	86.3506	366.211	86.5169	366.211	86.1316	366.211	86.4594	366.211	85.8237	366.211	86.303	366.211	85.4258	366.211	86.0414	366.211	84.9324	366.211	85.6643	366.211	84.3319	366.211	85.1569	366.211	83.6087	366.211	84.5002	366.211	82.7549	366.211	83.6754	366.211	81.7997	366.211	82.676	366.211	80.8592	366.211	81.5371	366.211	80.1723	366.211	80.3938	366.211	79.9969	366.211	79.541	366.211	80.3549	366.211	79.3246	366.211	80.9934	366.211	79.7845	366.211	81.6304	366.211	80.5862	366.211	82.0985	366.211	81.3756	366.211	82.3257	366.211	81.9636	366.211	82.284
379.395	86.8109	379.395	86.7495	379.395	86.8112	379.395	86.6152	379.395	86.7559	379.395	86.3899	379.395	86.6434	379.395	86.0495	379.395	86.4639	379.395	85.5663	379.395	86.1984	379.395	84.9146	379.395	85.8204	379.395	84.0804	379.395	85.3007	379.395	83.0786	379.395	84.6154	379.395	81.9827	379.395	83.7611	379.395	80.965	379.395	82.7791	379.395	80.2915	379.395	81.79	379.395	80.1701	379.395	81.0081	379.395	80.5452	379.395	80.6549	379.395	81.1548	379.395	80.7785	379.395	81.7503	379.395	81.2089	379.395	82.187	379.395	81.717	379.395	82.4025	379.395	82.1382	379.395	82.3814
392.578	86.2646	392.578	86.2168	392.578	86.2392	392.578	86.1022	392.578	86.138	392.578	85.9243	392.578	85.9638	392.578	85.6765	392.578	85.7234	392.578	85.3364	392.578	85.4206	392.578	84.8667	392.578	85.0487	392.578	84.2229	392.578	84.5862	392.578	83.3705	392.578	84.0023	392.578	82.3153	392.578	83.2744	392.578	81.1632	392.578	82.4224	392.578	80.198	392.578	81.5574	392.578	79.8213	392.578	80.913	392.578	80.1725	392.578	80.7434	392.578	80.9449	392.578	81.0789	392.578	81.7538	392.578	81.681	392.578	82.3854	392.578	82.2745	392.578	82.7615	392.578	82.6924	392.578	82.8627
405.762	86.1016	405.762	86.0191	405.762	86.0829	405.762	85.8448	405.762	85.9582	405.762	85.589	405.762	85.7275	405.762	85.2572	405.762	85.3945	405.762	84.842	405.762	84.9648	405.762	84.3181	405.762	84.4419	405.762	83.6459	405.762	83.8239	405.762	82.7874	405.762	83.1032	405.762	81.7433	405.762	82.2783	405.762	80.6231	405.762	81.3864	405.762	79.731	405.762	80.5589	405.762	79.4806	405.762	80.0469	405.762	79.9664	405.762	80.08	405.762	80.8284	405.762	80.6125	405.762	81.6758	405.762	81.3555	405.762	82.3095	405.762	82.0387	405.762	82.6651	405.762	82.5166	405.762	82.7319
420.41	86.7466	420.41	86.6439	420.41	86.7733	420.41	86.4622	420.41	86.725	420.41	86.1976	420.41	86.5989	420.41	85.8445	420.41	86.3852	420.41	85.3943	420.41	86.0653	420.41	84.8318	420.41	85.6102	420.41	84.1313	420.41	84.9811	420.41	83.257	420.41	84.1313	420.41	82.1786	420.41	83.0125	420.41	80.9242	420.41	81.5978	420.41	79.6977	420.41	79.9593	420.41	78.9775	420.41	78.467	420.41	79.1737	420.41	77.8913	420.41	80.0387	420.41	78.5654	420.41	81.0087	420.41	79.8059	420.41	81.7444	420.41	80.9449	420.41	82.1277	420.41	81.735	420.41	82.1282
435.059	86.1581	435.059	86.0971	435.059	86.1512	435.059	85.9668	435.059	86.0822	435.059	85.7657	435.059	85.9599	435.059	85.4863	435.059	85.7914	435.059	85.1098	435.059	85.5729	435.059	84.6051	435.059	85.2822	435.059	83.9365	435.059	84.8776	435.059	83.0782	435.059	84.3065	435.059	82.0425	435.059	83.5235	435.059	80.9307	435.059	82.5182	435.059	79.9986	435.059	81.3674	435.059	79.6113	435.059	80.316	435.059	79.9259	435.059	79.7746	435.059	80.6875	435.059	79.9916	435.059	81.5161	435.059	80.7302	435.059	82.1646	435.059	81.5608	435.059	82.5183	435.059	82.2017	435.059	82.5328
451.172	86.8835	451.172	86.8259	451.172	86.861	451.172	86.6917	451.172	86.759	451.172	86.4844	451.172	86.5812	451.172	86.1998	451.172	86.3307	451.172	85.8161	451.172	86.0041	451.172	85.2881	451.172	85.5847	451.172	84.5479	451.172	85.0388	451.172	83.5127	451.172	84.3165	451.172	82.1087	451.172	83.3609	451.172	80.3493	451.172	82.1358	451.172	78.5965	451.172	80.7031	451.172	77.8834	451.172	79.4008	451.172	78.7928	451.172	78.9241	451.172	80.3513	451.172	79.5974	451.172	81.7052	451.172	80.8234	451.172	82.6203	451.172	81.9605	451.172	83.0859	451.172	82.7475	451.172	83.1249
465.82	86.901	465.82	86.8145	465.82	86.8987	465.82	86.6502	465.82	86.8079	465.82	86.4263	465.82	86.6395	465.82	86.1581	465.82	86.4089	465.82	85.8452	465.82	86.1253	465.82	85.4602	465.82	85.7797	465.82	84.9465	465.82	85.3363	465.82	84.2253	465.82	84.7343	465.82	83.2078	465.82	83.8998	465.82	81.8193	465.82	82.7677	465.82	80.0766	465.82	81.3273	465.82	78.3448	465.82	79.7371	465.82	77.6322	465.82	78.5244	465.82	78.4667	465.82	78.3952	465.82	79.8732	465.82	79.2624	465.82	81.0033	465.82	80.3775	465.82	81.6109	465.82	81.2444	465.82	81.6788
483.398	86.399	483.398	86.3148	483.398	86.3991	483.398	86.1606	483.398	86.3125	483.398	85.9556	483.398	86.1482	483.398	85.7129	483.398	85.9208	483.398	85.4251	483.398	85.6397	483.398	85.0538	483.398	85.2967	483.398	84.5288	483.398	84.8582	483.398	83.7601	483.398	84.2666	483.398	82.6665	483.398	83.4528	483.398	81.2375	483.398	82.3618	483.398	79.6872	483.398	81.0134	483.398	78.6627	483.398	79.6459	483.398	78.8207	483.398	78.8641	483.398	79.8312	483.398	79.1794	483.398	80.95	483.398	80.2189	483.398	81.8067	483.398	81.2923	483.398	82.2949	483.398	82.0457	483.398	82.3813
499.512	86.6717	499.512	86.5899	499.512	86.6309	499.512	86.3977	499.512	86.4742	499.512	86.1245	499.512	86.2243	499.512	85.8074	499.512	85.914	499.512	85.4695	499.512	85.5733	499.512	85.0957	499.512	85.2086	499.512	84.6232	499.512	84.7859	499.512	83.9527	499.512	84.229	499.512	82.9733	499.512	83.4363	499.512	81.598	499.512	82.3097	499.512	79.8625	499.512	80.8135	499.512	78.2286	499.512	79.1419	499.512	77.7997	499.512	78.0277	499.512	78.8744	499.512	78.3146	499.512	80.343	499.512	79.5639	499.512	81.4631	499.512	80.836	499.512	82.0602	499.512	81.7239	499.512	82.1387
517.09	86.8018	517.09	86.694	517.09	86.8007	517.09	86.4829	517.09	86.7027	517.09	86.1888	517.09	86.5366	517.09	85.8367	517.09	86.3401	517.09	85.4419	517.09	86.1412	517.09	84.9918	517.09	85.9349	517.09	84.4345	517.09	85.6675	517.09	83.6806	517.09	85.2427	517.09	82.6202	517.09	84.5426	517.09	81.168	517.09	83.4495	517.09	79.4094	517.09	81.8746	517.09	77.9937	517.09	79.8633	517.09	78.0689	517.09	77.9853	517.09	79.4261	517.09	77.6084	517.09	80.8755	517.09	78.8957	517.09	81.8747	517.09	80.4714	517.09	82.3302	517.09	81.6305	517.09	82.2487
536.133	86.5768	536.133	86.4509	536.133	86.5425	536.133	86.1916	536.133	86.3414	536.133	85.8421	536.133	85.9898	536.133	85.4515	536.133	85.5266	536.133	85.055	536.133	85.0078	536.133	84.6459	536.133	84.4878	536.133	84.1564	536.133	83.9893	536.133	83.4627	536.133	83.4772	536.133	82.4091	536.133	82.8569	536.133	80.8446	536.133	82.0062	536.133	78.7311	536.133	80.839	536.133	76.6325	536.133	79.4464	536.133	76.3685	536.133	78.3829	536.133	78.1837	536.133	78.533	536.133	80.1957	536.133	79.7784	536.133	81.6346	536.133	81.1677	536.133	82.4205	536.133	82.1549	536.133	82.5848
555.176	87.0075	555.176	86.8524	555.176	87.0214	555.176	86.5695	555.176	86.9032	555.176	86.1994	555.176	86.6791	555.176	85.8035	555.176	86.3839	555.176	85.4373	555.176	86.0485	555.176	85.1053	555.176	85.6804	555.176	84.7309	555.176	85.2462	555.176	84.1706	555.176	84.6671	555.176	83.25	555.176	83.825	555.176	81.7846	555.176	82.5658	555.176	79.6021	555.176	80.6915	555.176	76.7832	555.176	77.9828	555.176	74.9312	555.176	74.6963	555.176	76.2884	555.176	73.8314	555.176	78.5853	555.176	76.4632	555.176	80.2035	555.176	78.9338	555.176	81.0171	555.176	80.4377	555.176	81.0963
574.219	86.9566	574.219	86.8342	574.219	86.9183	574.219	86.5732	574.219	86.7255	574.219	86.2212	574.219	86.415	574.219	85.8395	574.219	86.051	574.219	85.4746	574.219	85.7091	574.219	85.1203	574.219	85.4384	574.219	84.6987	574.219	85.2169	574.219	84.074	574.219	84.9342	574.219	83.0769	574.219	84.422	574.219	81.5099	574.219	83.4994	574.219	79.1456	574.219	82.0046	574.219	75.933	574.219	79.8448	574.219	73.7172	574.219	77.2651	574.219	75.6148	574.219	75.7125	574.219	78.3474	574.219	76.6878	574.219	80.1213	574.219	78.6028	574.219	80.928	574.219	80.1008	574.219	80.8958
594.727	86.3836	594.727	86.1945	594.727	86.3966	594.727	85.8466	594.727	86.2354	594.727	85.3884	594.727	85.9221	594.727	84.9087	594.727	85.5096	594.727	84.5218	594.727	85.0883	594.727	84.3016	594.727	84.753	594.727	84.2004	594.727	84.5292	594.727	84.0456	594.727	84.3288	594.727	83.6157	594.727	83.9849	594.727	82.7032	594.727	83.3083	594.727	81.131	594.727	82.1082	594.727	78.8124	594.727	80.2134	594.727	76.2344	594.727	77.6923	594.727	75.5626	594.727	75.8874	594.727	77.3576	594.727	76.8579	594.727	79.2669	594.727	78.8675	594.727	80.4245	594.727	80.2475	594.727	80.7558
615.234	86.4521	615.234	86.2483	615.234	86.4436	615.234	85.8489	615.234	86.2276	615.234	85.2958	615.234	85.8318	615.234	84.6613	615.234	85.3087	615.234	84.038	615.234	84.7334	615.234	83.4963	615.234	84.1858	615.234	83.0251	615.234	83.7161	615.234	82.5085	615.234	83.2991	615.234	81.7573	615.234	82.8163	615.234	80.5585	615.234	82.0913	615.234	78.716	615.234	80.9466	615.234	76.1986	615.234	79.2608	615.234	73.9688	615.234	77.1344	615.234	74.4419	615.234	75.4836	615.234	76.6452	615.234	75.8791	615.234	78.4717	615.234	77.5788	615.234	79.4815	615.234	79.0043	615.234	79.6587
637.207	86.0687	637.207	85.8566	637.207	86.0406	637.207	85.4207	637.207	85.7827	637.207	84.8153	637.207	85.3306	637.207	84.1489	637.207	84.7547	637.207	83.5826	637.207	84.1738	637.207	83.2505	637.207	83.7307	637.207	83.1206	637.207	83.4891	637.207	82.9683	637.207	83.3425	637.207	82.4973	637.207	83.0645	637.207	81.4256	637.207	82.422	637.207	79.4741	637.207	81.2202	637.207	76.4197	637.207	79.3136	637.207	73.3333	637.207	76.8081	637.207	74.4776	637.207	75.0658	637.207	77.4529	637.207	76.1028	637.207	79.4453	637.207	78.2089	637.207	80.3942	637.207	79.7471	637.207	80.4733
659.18	87.095	659.18	86.91	659.18	87.0696	659.18	86.5127	659.18	86.8466	659.18	85.9298	659.18	86.4426	659.18	85.2332	659.18	85.8877	659.18	84.5415	659.18	85.2503	659.18	83.9821	659.18	84.6502	659.18	83.6001	659.18	84.2061	659.18	83.2837	659.18	83.9125	659.18	82.7956	659.18	83.5822	659.18	81.8559	659.18	82.9359	659.18	80.1733	659.18	81.6989	659.18	77.4344	659.18	79.6212	659.18	73.7279	659.18	76.5754	659.18	72.6135	659.18	73.6682	659.18	75.5789	659.18	74.376	659.18	78.0241	659.18	76.8831	659.18	79.246	659.18	78.6489	659.18	79.4259
682.617	88.5447	682.617	88.28	682.617	88.557	682.617	87.7855	682.617	88.2912	682.617	87.0941	682.617	87.7392	682.617	86.2984	682.617	86.9564	682.617	85.5989	682.617	86.1147	682.617	85.2361	682.617	85.491	682.617	85.2581	682.617	85.2811	682.617	85.4186	682.617	85.3838	682.617	85.3682	682.617	85.4855	682.617	84.8114	682.617	85.266	682.617	83.4962	682.617	84.4531	682.617	81.1635	682.617	82.7838	682.617	77.8009	682.617	80.0409	682.617	75.9413	682.617	76.9095	682.617	78.3288	682.617	77.0691	682.617	80.8234	682.617	79.6733	682.617	82.1312	682.617	81.5549	682.617	82.3531
707.52	89.963	707.52	89.7188	707.52	89.8751	707.52	89.136	707.52	89.4734	707.52	88.2274	707.52	88.7829	707.52	87.0588	707.52	87.8401	707.52	85.8442	707.52	86.735	707.52	85.0258	707.52	85.7097	707.52	84.9593	707.52	85.1691	707.52	85.3715	707.52	85.2893	707.52	85.645	707.52	85.6761	707.52	85.3166	707.52	85.756	707.52	84.0715	707.52	85.1153	707.52	81.5978	707.52	83.439	707.52	77.8917	707.52	80.4303	707.52	76.6859	707.52	76.8506	707.52	79.9818	707.52	77.8264	707.52	82.6224	707.52	81.138	707.52	83.934	707.52	83.249	707.52	84.1286
732.422	89.861	732.422	89.6576	732.422	89.7865	732.422	89.1647	732.422	89.4277	732.422	88.3534	732.422	88.7604	732.422	87.1934	732.422	87.752	732.422	85.7264	732.422	86.4079	732.422	84.2537	732.422	84.9066	732.422	83.4505	732.422	83.7954	732.422	83.6322	732.422	83.6712	732.422	84.1165	732.422	84.2369	732.422	84.1198	732.422	84.6654	732.422	83.1802	732.422	84.401	732.422	80.8979	732.422	83.099	732.422	76.8787	732.422	80.3776	732.422	74.4797	732.422	76.1558	732.422	78.391	732.422	75.5808	732.422	81.4936	732.422	79.4906	732.422	82.9631	732.422	82.0593	732.422	83.1353
757.324	88.9935	757.324	88.812	757.324	88.9616	757.324	88.3768	757.324	88.7175	757.324	87.6309	757.324	88.2152	757.324	86.526	757.324	87.3744	757.324	85.0561	757.324	86.1139	757.324	83.3565	757.324	84.4249	757.324	81.9192	757.324	82.5643	757.324	81.4552	757.324	81.3116	757.324	81.8097	757.324	81.2895	757.324	82.0282	757.324	81.8076	757.324	81.3982	757.324	81.8852	757.324	79.4721	757.324	80.9751	757.324	75.8678	757.324	78.66	757.324	72.5962	757.324	74.6177	757.324	75.6247	757.324	72.7527	757.324	78.9148	757.324	76.7224	757.324	80.5648	757.324	79.6122	757.324	80.7984
785.156	87.6518	785.156	87.4738	785.156	87.6181	785.156	87.1001	785.156	87.3641	785.156	86.5186	785.156	86.8983	785.156	85.6729	785.156	86.2191	785.156	84.4998	785.156	85.2842	785.156	83.0439	785.156	84.0339	785.156	81.6531	785.156	82.5224	785.156	80.9423	785.156	81.1572	785.156	80.9568	785.156	80.5752	785.156	80.9	785.156	80.6328	785.156	79.9806	785.156	80.4402	785.156	77.5455	785.156	79.2838	785.156	72.5473	785.156	76.5395	785.156	68.1218	785.156	71.1803	785.156	74.4648	785.156	69.4922	785.156	78.2885	785.156	75.5353	785.156	79.9794	785.156	78.8262	785.156	80.1492
811.523	86.3573	811.523	86.24	811.523	86.3221	811.523	85.9605	811.523	86.1233	811.523	85.4757	811.523	85.7322	811.523	84.7016	811.523	85.103	811.523	83.5424	811.523	84.1777	811.523	81.9929	811.523	82.9055	811.523	80.3814	811.523	81.3363	811.523	79.5528	811.523	79.8907	811.523	79.8865	811.523	79.4213	811.523	80.4842	811.523	79.9726	811.523	80.4102	811.523	80.4546	811.523	79.0572	811.523	79.9734	811.523	75.5887	811.523	77.8962	811.523	67.5376	811.523	73.1031	811.523	68.4215	811.523	63.756	811.523	74.8881	811.523	71.2278	811.523	77.2167	811.523	75.7696	811.523	77.4234
840.82	86.4622	840.82	86.2496	840.82	86.4611	840.82	85.8383	840.82	86.2457	840.82	85.2294	840.82	85.84	840.82	84.4011	840.82	85.2502	840.82	83.3177	840.82	84.4165	840.82	81.9513	840.82	83.2278	840.82	80.3771	840.82	81.6009	840.82	79.0193	840.82	79.6882	840.82	78.587	840.82	78.3304	840.82	78.9471	840.82	78.4996	840.82	79.1027	840.82	79.3445	840.82	78.284	840.82	79.5437	840.82	75.904	840.82	78.4497	840.82	71.1187	840.82	75.5601	840.82	67.5944	840.82	70.3379	840.82	72.507	840.82	69.0518	840.82	75.202	840.82	73.4185	840.82	75.4474
870.117	86.6074	870.117	86.4373	870.117	86.5458	870.117	86.0544	870.117	86.2642	870.117	85.4872	870.117	85.7906	870.117	84.7219	870.117	85.1399	870.117	83.6748	870.117	84.3004	870.117	82.253	870.117	83.2472	870.117	80.5556	870.117	81.99	870.117	79.2224	870.117	80.6758	870.117	79.084	870.117	79.7085	870.117	79.6543	870.117	79.4748	870.117	79.7924	870.117	79.6658	870.117	78.8229	870.117	79.5007	870.117	76.2237	870.117	78.3338	870.117	71.1609	870.117	75.6385	870.117	67.9749	870.117	71.3095	870.117	73.1118	870.117	70.7602	870.117	75.8222	870.117	74.3487	870.117	76.1465
900.879	86.6724	900.879	86.4707	900.879	86.6326	900.879	86.0427	900.879	86.3355	900.879	85.391	900.879	85.7931	900.879	84.5055	900.879	85.0463	900.879	83.3423	900.879	84.1106	900.879	81.8029	900.879	82.9207	900.879	79.8092	900.879	81.3644	900.879	77.6924	900.879	79.4752	900.879	76.7693	900.879	77.8577	900.879	77.4919	900.879	77.5589	900.879	78.2047	900.879	78.2131	900.879	77.7735	900.879	78.5208	900.879	75.6178	900.879	77.7459	900.879	71.1859	900.879	75.4646	900.879	68.8479	900.879	71.9317	900.879	73.1109	900.879	71.8328	900.879	75.6484	900.879	74.7366	900.879	76.1302
933.105	86.1015	933.105	85.8996	933.105	86.0867	933.105	85.5203	933.105	85.8476	933.105	84.9995	933.105	85.3986	933.105	84.3147	933.105	84.7638	933.105	83.3907	933.105	83.9668	933.105	82.1708	933.105	82.9943	933.105	80.6789	933.105	81.7841	933.105	79.0837	933.105	80.3239	933.105	77.7905	933.105	78.8441	933.105	77.1534	933.105	77.8004	933.105	76.7209	933.105	77.2342	933.105	75.4785	933.105	76.4835	933.105	72.3586	933.105	74.7607	933.105	65.6683	933.105	71.327	933.105	66.0428	933.105	67.5208	933.105	72.2855	933.105	70.9174	933.105	75.0476	933.105	74.4077	933.105	75.6827
965.332	85.9247	965.332	85.7452	965.332	85.878	965.332	85.3498	965.332	85.6247	965.332	84.789	965.332	85.1922	965.332	84.1185	965.332	84.5997	965.332	83.3268	965.332	83.8306	965.332	82.2996	965.332	82.8046	965.332	80.8897	965.332	81.4081	965.332	79.1395	965.332	79.669	965.332	77.6521	965.332	78.1303	965.332	77.2327	965.332	77.7047	965.332	77.3847	965.332	78.0864	965.332	76.9485	965.332	78.0287	965.332	75.0335	965.332	76.6473	965.332	70.3686	965.332	73.2195	965.332	64.7077	965.332	67.7683	965.332	71.3385	965.332	69.5044	965.332	74.6676	965.332	73.524	965.332	75.1858
1,000.49	86.2221	1,000.49	86.0128	1,000.49	86.1909	1,000.49	85.5783	1,000.49	85.8991	1,000.49	84.9542	1,000.49	85.3372	1,000.49	84.1761	1,000.49	84.5454	1,000.49	83.2007	1,000.49	83.5656	1,000.49	81.8894	1,000.49	82.3258	1,000.49	80.1608	1,000.49	80.6825	1,000.49	78.3676	1,000.49	78.7232	1,000.49	77.549	1,000.49	77.3011	1,000.49	77.995	1,000.49	77.5104	1,000.49	78.556	1,000.49	78.4689	1,000.49	78.2891	1,000.49	78.7105	1,000.49	76.5409	1,000.49	77.4803	1,000.49	72.3191	1,000.49	74.0847	1,000.49	66.9288	1,000.49	67.113	1,000.49	71.6408	1,000.49	66.736	1,000.49	74.5173	1,000.49	72.3708	1,000.49	74.6244
1,035.64	85.9495	1,035.64	85.7394	1,035.64	85.8737	1,035.64	85.2952	1,035.64	85.5098	1,035.64	84.6853	1,035.64	84.9083	1,035.64	83.9492	1,035.64	84.1463	1,035.64	83.078	1,035.64	83.2758	1,035.64	82.0014	1,035.64	82.276	1,035.64	80.5667	1,035.64	81.0369	1,035.64	78.6768	1,035.64	79.3804	1,035.64	76.9237	1,035.64	77.2854	1,035.64	76.7558	1,035.64	75.7239	1,035.64	77.5425	1,035.64	76.0429	1,035.64	77.4317	1,035.64	76.6976	1,035.64	75.5117	1,035.64	76.0164	1,035.64	70.9508	1,035.64	73.2349	1,035.64	65.0013	1,035.64	66.6787	1,035.64	70.3818	1,035.64	65.5916	1,035.64	74.0568	1,035.64	72.4846	1,035.64	74.7566
1,072.27	85.5798	1,072.27	85.346	1,072.27	85.5074	1,072.27	84.8736	1,072.27	85.1283	1,072.27	84.2401	1,072.27	84.507	1,072.27	83.4687	1,072.27	83.7195	1,072.27	82.5133	1,072.27	82.8031	1,072.27	81.2883	1,072.27	81.735	1,072.27	79.7051	1,072.27	80.4097	1,072.27	77.8066	1,072.27	78.6759	1,072.27	76.268	1,072.27	76.654	1,072.27	76.2723	1,072.27	75.3631	1,072.27	77.0916	1,072.27	75.5905	1,072.27	77.0433	1,072.27	76.0757	1,072.27	75.1752	1,072.27	75.5619	1,072.27	70.6156	1,072.27	73.1767	1,072.27	66.1948	1,072.27	67.4292	1,072.27	71.193	1,072.27	66.3951	1,072.27	74.2137	1,072.27	72.4442	1,072.27	74.6499
1,108.89	85.1309	1,108.89	84.8977	1,108.89	85.0709	1,108.89	84.4019	1,108.89	84.7502	1,108.89	83.7814	1,108.89	84.243	1,108.89	83.2063	1,108.89	83.6389	1,108.89	82.6549	1,108.89	82.9658	1,108.89	81.844	1,108.89	82.1654	1,108.89	80.4087	1,108.89	81.0955	1,108.89	78.1397	1,108.89	79.4577	1,108.89	75.6954	1,108.89	76.8798	1,108.89	75.4647	1,108.89	74.1365	1,108.89	76.9012	1,108.89	74.8041	1,108.89	77.4088	1,108.89	76.8979	1,108.89	75.9806	1,108.89	77.3634	1,108.89	71.5885	1,108.89	75.433	1,108.89	64.3222	1,108.89	69.803	1,108.89	70.7956	1,108.89	63.4405	1,108.89	74.1944	1,108.89	71.3365	1,108.89	74.2963
1,148.44	86.1021	1,148.44	85.6729	1,148.44	86.0937	1,148.44	84.8655	1,148.44	85.6572	1,148.44	83.8537	1,148.44	84.8833	1,148.44	82.9378	1,148.44	83.9818	1,148.44	82.3287	1,148.44	83.1647	1,148.44	81.8434	1,148.44	82.405	1,148.44	80.966	1,148.44	81.4732	1,148.44	79.124	1,148.44	80.1041	1,148.44	76.0527	1,148.44	78.0032	1,148.44	73.862	1,148.44	75.3948	1,148.44	75.4551	1,148.44	74.9159	1,148.44	76.7343	1,148.44	76.64	1,148.44	75.8096	1,148.44	77.0817	1,148.44	71.6228	1,148.44	75.1713	1,148.44	64.1476	1,148.44	69.9672	1,148.44	71.9303	1,148.44	63.7896	1,148.44	75.424	1,148.44	71.7503	1,148.44	75.2837
1,189.45	86.9908	1,189.45	86.5572	1,189.45	86.93	1,189.45	85.6279	1,189.45	86.4217	1,189.45	84.2922	1,189.45	85.5001	1,189.45	82.8154	1,189.45	84.2195	1,189.45	81.6607	1,189.45	82.8661	1,189.45	81.0059	1,189.45	81.9118	1,189.45	80.3245	1,189.45	81.3413	1,189.45	78.8859	1,189.45	80.5588	1,189.45	76.2192	1,189.45	78.936	1,189.45	73.5379	1,189.45	76.157	1,189.45	74.8489	1,189.45	74.2145	1,189.45	76.8191	1,189.45	76.0919	1,189.45	76.6273	1,189.45	77.6228	1,189.45	73.3274	1,189.45	76.8403	1,189.45	64.6962	1,189.45	72.6947	1,189.45	69.8904	1,189.45	65.4577	1,189.45	74.3727	1,189.45	72.1559	1,189.45	74.9991
1,230.47	87.3411	1,230.47	87.0177	1,230.47	87.2815	1,230.47	86.2912	1,230.47	86.8233	1,230.47	85.0975	1,230.47	85.9153	1,230.47	83.4383	1,230.47	84.5668	1,230.47	81.6521	1,230.47	82.9928	1,230.47	80.3617	1,230.47	81.5269	1,230.47	79.6595	1,230.47	80.3941	1,230.47	78.8821	1,230.47	79.5879	1,230.47	77.2269	1,230.47	78.6033	1,230.47	74.353	1,230.47	76.7564	1,230.47	72.911	1,230.47	74.7597	1,230.47	74.6809	1,230.47	74.9792	1,230.47	75.1049	1,230.47	75.879	1,230.47	72.2064	1,230.47	75.1991	1,230.47	61.2399	1,230.47	71.2563	1,230.47	68.4924	1,230.47	62.2723	1,230.47	74.014	1,230.47	71.5356	1,230.47	74.8047
1,274.41	87.2891	1,274.41	87.0209	1,274.41	87.1915	1,274.41	86.3815	1,274.41	86.714	1,274.41	85.3621	1,274.41	85.8865	1,274.41	84.0429	1,274.41	84.764	1,274.41	82.5887	1,274.41	83.3931	1,274.41	81.1856	1,274.41	81.9326	1,274.41	80.0195	1,274.41	80.6745	1,274.41	78.9485	1,274.41	79.5803	1,274.41	77.2845	1,274.41	78.1221	1,274.41	74.7137	1,274.41	75.96	1,274.41	73.656	1,274.41	74.2489	1,274.41	75.1842	1,274.41	75.2026	1,274.41	75.5571	1,274.41	76.3976	1,274.41	73.204	1,274.41	75.3427	1,274.41	65.4004	1,274.41	70.5258	1,274.41	65.7948	1,274.41	59.482	1,274.41	72.3732	1,274.41	69.4848	1,274.41	73.0615
1,319.82	86.6771	1,319.82	86.4347	1,319.82	86.6	1,319.82	85.9231	1,319.82	86.2163	1,319.82	85.1333	1,319.82	85.525	1,319.82	83.9776	1,319.82	84.4673	1,319.82	82.4995	1,319.82	83.1129	1,319.82	80.9698	1,319.82	81.6762	1,319.82	79.6576	1,319.82	80.2959	1,319.82	78.4049	1,319.82	79.0874	1,319.82	76.6032	1,319.82	78.0465	1,319.82	74.2564	1,319.82	76.6371	1,319.82	73.6524	1,319.82	74.825	1,319.82	75.1199	1,319.82	74.7178	1,319.82	75.6562	1,319.82	75.7066	1,319.82	73.8368	1,319.82	75.1577	1,319.82	67.6411	1,319.82	71.6364	1,319.82	62.2057	1,319.82	60.5238	1,319.82	70.3103	1,319.82	67.5275	1,319.82	71.6129
1,366.7	86.2312	1,366.7	86.0578	1,366.7	86.1014	1,366.7	85.5191	1,366.7	85.6849	1,366.7	84.6553	1,366.7	84.9369	1,366.7	83.5358	1,366.7	83.8908	1,366.7	82.1698	1,366.7	82.5733	1,366.7	80.6451	1,366.7	80.9598	1,366.7	79.1626	1,366.7	79.293	1,366.7	77.7314	1,366.7	78.0295	1,366.7	76.164	1,366.7	77.032	1,366.7	74.5864	1,366.7	75.5186	1,366.7	73.8518	1,366.7	73.3384	1,366.7	74.8041	1,366.7	72.6433	1,366.7	75.6352	1,366.7	74.3773	1,366.7	74.146	1,366.7	75.0722	1,366.7	68.299	1,366.7	72.3398	1,366.7	63.661	1,366.7	61.0929	1,366.7	70.4005	1,366.7	67.1553	1,366.7	71.5804
1,413.57	85.7796	1,413.57	85.5307	1,413.57	85.6762	1,413.57	84.8136	1,413.57	85.2171	1,413.57	83.761	1,413.57	84.2693	1,413.57	82.6379	1,413.57	83.0003	1,413.57	81.3987	1,413.57	81.705	1,413.57	79.952	1,413.57	80.244	1,413.57	78.5883	1,413.57	78.6744	1,413.57	77.5082	1,413.57	77.5158	1,413.57	76.4928	1,413.57	76.2317	1,413.57	74.8508	1,413.57	74.0129	1,413.57	73.038	1,413.57	71.3582	1,413.57	74.1123	1,413.57	70.9823	1,413.57	75.0626	1,413.57	73.608	1,413.57	73.477	1,413.57	74.1501	1,413.57	67.749	1,413.57	70.8846	1,413.57	63.2968	1,413.57	59.7498	1,413.57	70.0008	1,413.57	63.6898	1,413.57	70.0776
1,463.38	85.6523	1,463.38	85.3603	1,463.38	85.5533	1,463.38	84.6376	1,463.38	85.1566	1,463.38	83.5833	1,463.38	84.4662	1,463.38	82.3007	1,463.38	83.4088	1,463.38	80.7884	1,463.38	82.0729	1,463.38	79.1217	1,463.38	80.6789	1,463.38	77.7952	1,463.38	79.2719	1,463.38	77.2023	1,463.38	77.9733	1,463.38	76.4601	1,463.38	76.5892	1,463.38	74.1951	1,463.38	74.5396	1,463.38	71.0825	1,463.38	72.3253	1,463.38	72.1243	1,463.38	71.2128	1,463.38	73.9555	1,463.38	72.8706	1,463.38	73.1698	1,463.38	74.1052	1,463.38	68.6665	1,463.38	72.5875	1,463.38	62.4294	1,463.38	67.4354	1,463.38	66.3304	1,463.38	60.6841	1,463.38	66.0356
1,516.11	85.871	1,516.11	85.432	1,516.11	85.8559	1,516.11	84.8274	1,516.11	85.368	1,516.11	83.9539	1,516.11	84.674	1,516.11	82.6563	1,516.11	83.7503	1,516.11	81.192	1,516.11	82.4468	1,516.11	79.6834	1,516.11	80.9121	1,516.11	78.2646	1,516.11	79.3812	1,516.11	77.1941	1,516.11	77.9694	1,516.11	76.0353	1,516.11	76.7698	1,516.11	74.0648	1,516.11	75.6861	1,516.11	70.7391	1,516.11	74.4195	1,516.11	70.4314	1,516.11	72.9358	1,516.11	73.2982	1,516.11	72.8452	1,516.11	72.9908	1,516.11	73.96	1,516.11	68.2847	1,516.11	73.2857	1,516.11	62.7437	1,516.11	68.9545	1,516.11	67.9556	1,516.11	65.1229	1,516.11	68.5986
1,568.85	85.7099	1,568.85	85.45	1,568.85	85.5388	1,568.85	84.8395	1,568.85	85.0581	1,568.85	84.0242	1,568.85	84.3516	1,568.85	82.9333	1,568.85	83.3024	1,568.85	81.3412	1,568.85	81.7822	1,568.85	79.3188	1,568.85	80.135	1,568.85	77.6676	1,568.85	78.7482	1,568.85	76.6046	1,568.85	77.3435	1,568.85	75.5022	1,568.85	75.9001	1,568.85	74.0076	1,568.85	74.8476	1,568.85	71.4636	1,568.85	73.7901	1,568.85	70.1751	1,568.85	72.2233	1,568.85	72.4455	1,568.85	71.8012	1,568.85	72.8698	1,568.85	72.7066	1,568.85	69.1231	1,568.85	72.0096	1,568.85	61.8593	1,568.85	67.6863	1,568.85	68.5761	1,568.85	65.1636	1,568.85	69.1836
1,624.51	85.4174	1,624.51	85.1638	1,624.51	85.2031	1,624.51	84.4664	1,624.51	84.6075	1,624.51	83.5292	1,624.51	83.6078	1,624.51	82.4747	1,624.51	82.3532	1,624.51	81.1837	1,624.51	81.1348	1,624.51	79.5935	1,624.51	79.6954	1,624.51	78.0692	1,624.51	77.7615	1,624.51	76.7676	1,624.51	76.0082	1,624.51	75.4509	1,624.51	74.5828	1,624.51	74.3288	1,624.51	73.1696	1,624.51	72.698	1,624.51	72.1407	1,624.51	71.0623	1,624.51	70.3669	1,624.51	72.1703	1,624.51	69.4549	1,624.51	72.3312	1,624.51	71.1925	1,624.51	69.1051	1,624.51	70.9586	1,624.51	63.1649	1,624.51	66.9538	1,624.51	67.1099	1,624.51	66.3217	1,624.51	69.0378
1,681.64	85.4141	1,681.64	85.1228	1,681.64	85.2268	1,681.64	84.534	1,681.64	84.7045	1,681.64	83.5287	1,681.64	83.9629	1,681.64	82.0929	1,681.64	82.5384	1,681.64	80.6328	1,681.64	80.7717	1,681.64	79.0718	1,681.64	79.6505	1,681.64	77.6444	1,681.64	78.3821	1,681.64	76.8225	1,681.64	76.5788	1,681.64	75.4038	1,681.64	75.0824	1,681.64	73.4806	1,681.64	73.6044	1,681.64	72.2711	1,681.64	72.3439	1,681.64	71.7157	1,681.64	70.8109	1,681.64	72.6805	1,681.64	70.8098	1,681.64	73.1155	1,681.64	72.2608	1,681.64	70.8434	1,681.64	71.3102	1,681.64	65.9283	1,681.64	66.2636	1,681.64	69.521	1,681.64	64.1155	1,681.64	70.4755
1,741.7	85.6981	1,741.7	85.3473	1,741.7	85.5263	1,741.7	84.4296	1,741.7	85.0314	1,741.7	83.224	1,741.7	84.2192	1,741.7	82.0473	1,741.7	83.1037	1,741.7	80.7575	1,741.7	81.8219	1,741.7	79.0369	1,741.7	80.3369	1,741.7	77.1946	1,741.7	78.7019	1,741.7	76.0819	1,741.7	77.1786	1,741.7	75.3655	1,741.7	75.9091	1,741.7	73.7027	1,741.7	74.7282	1,741.7	71.9055	1,741.7	73.7757	1,741.7	70.9546	1,741.7	72.4655	1,741.7	72.3838	1,741.7	70.5907	1,741.7	72.717	1,741.7	71.6715	1,741.7	68.9017	1,741.7	71.85	1,741.7	66.5171	1,741.7	68.3297	1,741.7	69.7534	1,741.7	65.4588	1,741.7	69.3087
1,803.22	86.3694	1,803.22	86.046	1,803.22	86.1005	1,803.22	85.1152	1,803.22	85.4557	1,803.22	83.9145	1,803.22	84.6939	1,803.22	82.6354	1,803.22	83.6165	1,803.22	81.0407	1,803.22	82.0165	1,803.22	79.1509	1,803.22	80.4648	1,803.22	77.4874	1,803.22	78.973	1,803.22	76.232	1,803.22	77.62	1,803.22	74.4605	1,803.22	76.8161	1,803.22	72.5744	1,803.22	75.5557	1,803.22	72.0988	1,803.22	74.2512	1,803.22	70.8532	1,803.22	72.7105	1,803.22	71.5502	1,803.22	71.1516	1,803.22	72.764	1,803.22	73.5327	1,803.22	69.6227	1,803.22	73.6956	1,803.22	65.2427	1,803.22	68.4941	1,803.22	69.7603	1,803.22	66.0956	1,803.22	70.1576
1,866.21	85.8907	1,866.21	85.254	1,866.21	85.8873	1,866.21	84.2017	1,866.21	85.2574	1,866.21	83.0955	1,866.21	84.005	1,866.21	82.2829	1,866.21	82.8147	1,866.21	81.4388	1,866.21	81.7652	1,866.21	79.8633	1,866.21	79.6549	1,866.21	78.2347	1,866.21	77.0695	1,866.21	76.6812	1,866.21	75.6063	1,866.21	75.0837	1,866.21	75.0754	1,866.21	73.3701	1,866.21	74.2098	1,866.21	71.3504	1,866.21	72.6688	1,866.21	70.1008	1,866.21	71.8082	1,866.21	68.7225	1,866.21	70.0331	1,866.21	71.9487	1,866.21	72.2036	1,866.21	71.6777	1,866.21	74.0933	1,866.21	64.6859	1,866.21	69.3442	1,866.21	66.8465	1,866.21	59.2208	1,866.21	68.5872
1,932.13	84.923	1,932.13	84.7407	1,932.13	84.902	1,932.13	84.3619	1,932.13	84.4664	1,932.13	83.5817	1,932.13	83.6896	1,932.13	82.2957	1,932.13	82.6852	1,932.13	80.7359	1,932.13	80.9807	1,932.13	79.3706	1,932.13	79.6	1,932.13	78.1829	1,932.13	78.6676	1,932.13	76.8535	1,932.13	76.1065	1,932.13	75.3692	1,932.13	74.4001	1,932.13	74.4635	1,932.13	73.1852	1,932.13	74.1735	1,932.13	70.4413	1,932.13	72.7031	1,932.13	70.594	1,932.13	71.2151	1,932.13	69.8913	1,932.13	71.6434	1,932.13	69.9442	1,932.13	71.2643	1,932.13	71.0932	1,932.13	67.7608	1,932.13	70.0546	1,932.13	70.2139	1,932.13	60.9595	1,932.13	69.7449
1,999.51	85.832	1,999.51	85.3799	1,999.51	86.0489	1,999.51	84.7239	1,999.51	85.4794	1,999.51	83.5897	1,999.51	84.5296	1,999.51	82.2608	1,999.51	83.5627	1,999.51	80.7817	1,999.51	82.6191	1,999.51	79.2103	1,999.51	81.0927	1,999.51	77.6641	1,999.51	79.4006	1,999.51	76.7763	1,999.51	78.0685	1,999.51	75.3577	1,999.51	76.2277	1,999.51	73.5557	1,999.51	75.4574	1,999.51	72.6352	1,999.51	73.5108	1,999.51	71.9641	1,999.51	71.4012	1,999.51	72.2905	1,999.51	71.0153	1,999.51	72.8696	1,999.51	70.524	1,999.51	70.4752	1,999.51	72.2229	1,999.51	65.9526	1,999.51	70.6018	1,999.51	67.5145	1,999.51	67.7451	1,999.51	66.4106
2,069.82	86.7903	2,069.82	86.6696	2,069.82	86.5105	2,069.82	86.083	2,069.82	86.2954	2,069.82	85.2303	2,069.82	86.0682	2,069.82	83.8356	2,069.82	84.9864	2,069.82	81.9441	2,069.82	83.1305	2,069.82	80.6102	2,069.82	81.3527	2,069.82	79.2113	2,069.82	80.1247	2,069.82	77.0088	2,069.82	78.5411	2,069.82	75.2891	2,069.82	77.1485	2,069.82	73.5371	2,069.82	76.6161	2,069.82	72.7334	2,069.82	73.6092	2,069.82	70.6088	2,069.82	72.3582	2,069.82	68.1847	2,069.82	73.3996	2,069.82	71.7706	2,069.82	71.9762	2,069.82	70.5085	2,069.82	72.7257	2,069.82	65.6971	2,069.82	71.6617	2,069.82	70.0297	2,069.82	68.1274	2,069.82	70.2288
2,143.07	87.0178	2,143.07	86.8569	2,143.07	86.7375	2,143.07	86.4443	2,143.07	86.4234	2,143.07	85.8887	2,143.07	85.6871	2,143.07	84.8898	2,143.07	84.093	2,143.07	83.6118	2,143.07	82.6735	2,143.07	82.1546	2,143.07	82.1386	2,143.07	80.3665	2,143.07	80.6179	2,143.07	78.2829	2,143.07	78.2136	2,143.07	77.4486	2,143.07	77.2976	2,143.07	75.2152	2,143.07	76.1279	2,143.07	72.3021	2,143.07	73.6695	2,143.07	73.2052	2,143.07	74.1102	2,143.07	71.8457	2,143.07	73.3955	2,143.07	70.8418	2,143.07	70.1219	2,143.07	73.0088	2,143.07	71.2812	2,143.07	69.8382	2,143.07	70.3355	2,143.07	69.8956	2,143.07	68.8091	2,143.07	71.4324
2,219.24	86.2208	2,219.24	85.9455	2,219.24	86.2034	2,219.24	85.5124	2,219.24	85.801	2,219.24	84.829	2,219.24	84.5133	2,219.24	84.0716	2,219.24	83.696	2,219.24	83.1572	2,219.24	83.6499	2,219.24	81.6954	2,219.24	82.0149	2,219.24	80.4446	2,219.24	80.0349	2,219.24	78.8158	2,219.24	78.2041	2,219.24	77.599	2,219.24	74.9944	2,219.24	77.4533	2,219.24	74.9453	2,219.24	74.6868	2,219.24	73.7904	2,219.24	72.0813	2,219.24	70.4735	2,219.24	70.9256	2,219.24	71.8501	2,219.24	72.0133	2,219.24	70.8831	2,219.24	72.7464	2,219.24	70.8442	2,219.24	65.8921	2,219.24	69.5337	2,219.24	69.5411	2,219.24	61.4497	2,219.24	71.3463
2,296.88	86.3824	2,296.88	86.2579	2,296.88	85.8774	2,296.88	85.7203	2,296.88	85.5425	2,296.88	84.4951	2,296.88	85.7387	2,296.88	83.7619	2,296.88	84.8134	2,296.88	82.6256	2,296.88	83.0241	2,296.88	81.0794	2,296.88	81.5403	2,296.88	79.6202	2,296.88	80.7171	2,296.88	77.3254	2,296.88	79.8545	2,296.88	76.8559	2,296.88	78.4861	2,296.88	75.089	2,296.88	76.082	2,296.88	74.1616	2,296.88	74.7824	2,296.88	74.0193	2,296.88	73.5455	2,296.88	71.5489	2,296.88	72.595	2,296.88	73.2563	2,296.88	72.1859	2,296.88	73.6132	2,296.88	73.3441	2,296.88	69.9078	2,296.88	74.5236	2,296.88	70.4047	2,296.88	67.7494	2,296.88	70.6228
2,378.91	87.6797	2,378.91	87.5427	2,378.91	87.3114	2,378.91	86.9771	2,378.91	87.24	2,378.91	86.4169	2,378.91	86.3289	2,378.91	85.3697	2,378.91	85.1845	2,378.91	83.7699	2,378.91	84.8583	2,378.91	82.0405	2,378.91	83.2039	2,378.91	80.4921	2,378.91	81.607	2,378.91	78.3738	2,378.91	80.8373	2,378.91	75.7202	2,378.91	77.9231	2,378.91	74.5871	2,378.91	76.1962	2,378.91	72.27	2,378.91	76.6439	2,378.91	73.6333	2,378.91	74.6427	2,378.91	71.1069	2,378.91	74.3723	2,378.91	70.3324	2,378.91	72.4388	2,378.91	72.7649	2,378.91	72.3318	2,378.91	68.8027	2,378.91	71.4056	2,378.91	68.8157	2,378.91	67.5644	2,378.91	70.0533
2,462.4	87.012	2,462.4	87.1319	2,462.4	86.8587	2,462.4	86.8279	2,462.4	86.5857	2,462.4	86.3558	2,462.4	85.8691	2,462.4	85.5766	2,462.4	85.1644	2,462.4	84.5357	2,462.4	84.3164	2,462.4	82.833	2,462.4	82.9111	2,462.4	81.1511	2,462.4	80.7418	2,462.4	79.6759	2,462.4	79.2831	2,462.4	77.0828	2,462.4	77.4328	2,462.4	76.3293	2,462.4	75.427	2,462.4	74.5474	2,462.4	74.5553	2,462.4	72.8968	2,462.4	71.422	2,462.4	74.0846	2,462.4	71.7697	2,462.4	73.7752	2,462.4	70.8876	2,462.4	74.2053	2,462.4	72.5683	2,462.4	70.7927	2,462.4	72.3113	2,462.4	72.3641	2,462.4	65.1867	2,462.4	71.6143
2,548.83	86.4915	2,548.83	86.5108	2,548.83	86.603	2,548.83	86.4881	2,548.83	86.4489	2,548.83	85.9493	2,548.83	86.1625	2,548.83	85.2641	2,548.83	85.4789	2,548.83	84.0191	2,548.83	84.4619	2,548.83	82.1165	2,548.83	83.0343	2,548.83	80.2133	2,548.83	80.9632	2,548.83	78.9301	2,548.83	79.3081	2,548.83	76.7998	2,548.83	77.5911	2,548.83	75.1868	2,548.83	74.6255	2,548.83	74.7126	2,548.83	74.6064	2,548.83	73.9472	2,548.83	71.7093	2,548.83	72.498	2,548.83	72.4546	2,548.83	71.5845	2,548.83	72.2483	2,548.83	74.4297	2,548.83	71.6983	2,548.83	70.8435	2,548.83	72.7648	2,548.83	72.4827	2,548.83	68.1967	2,548.83	69.6157
2,639.65	86.839	2,639.65	86.8137	2,639.65	86.8112	2,639.65	86.7516	2,639.65	86.7935	2,639.65	86.4351	2,639.65	86.9249	2,639.65	85.604	2,639.65	86.2829	2,639.65	84.2309	2,639.65	85.0388	2,639.65	82.3292	2,639.65	83.8081	2,639.65	79.889	2,639.65	81.9774	2,639.65	78.0181	2,639.65	79.6378	2,639.65	75.4526	2,639.65	77.7542	2,639.65	74.553	2,639.65	75.1815	2,639.65	73.2405	2,639.65	74.9394	2,639.65	71.8378	2,639.65	73.2873	2,639.65	73.9971	2,639.65	72.1403	2,639.65	71.81	2,639.65	73.5717	2,639.65	73.1671	2,639.65	71.9568	2,639.65	68.0643	2,639.65	72.9556	2,639.65	66.4104	2,639.65	68.4016	2,639.65	69.5029
2,731.93	86.8206	2,731.93	86.9117	2,731.93	86.7711	2,731.93	87.0763	2,731.93	86.8385	2,731.93	86.9291	2,731.93	86.7821	2,731.93	85.9584	2,731.93	86.1725	2,731.93	84.4804	2,731.93	84.7977	2,731.93	82.7551	2,731.93	83.0806	2,731.93	80.3596	2,731.93	81.7073	2,731.93	78.2146	2,731.93	79.1006	2,731.93	75.9253	2,731.93	77.115	2,731.93	74.4997	2,731.93	74.7886	2,731.93	74.254	2,731.93	73.5943	2,731.93	72.2823	2,731.93	72.9135	2,731.93	72.8496	2,731.93	71.787	2,731.93	71.282	2,731.93	73.4489	2,731.93	73.9527	2,731.93	71.3409	2,731.93	70.3423	2,731.93	73.2941	2,731.93	69.6423	2,731.93	67.7487	2,731.93	71.1311
2,828.61	86.6069	2,828.61	86.791	2,828.61	86.6061	2,828.61	86.8216	2,828.61	86.9205	2,828.61	86.7504	2,828.61	86.7851	2,828.61	85.7444	2,828.61	86.4192	2,828.61	84.0718	2,828.61	85.0232	2,828.61	82.692	2,828.61	83.1329	2,828.61	80.4806	2,828.61	81.6456	2,828.61	77.5947	2,828.61	79.2364	2,828.61	75.7132	2,828.61	77.3204	2,828.61	74.0604	2,828.61	75.2503	2,828.61	74.2416	2,828.61	73.2124	2,828.61	69.824	2,828.61	73.4957	2,828.61	74.2964	2,828.61	68.911	2,828.61	73.0776	2,828.61	71.7623	2,828.61	72.8747	2,828.61	70.7093	2,828.61	69.3928	2,828.61	73.3271	2,828.61	69.2642	2,828.61	69.7182	2,828.61	70.6282
2,928.22	86.4621	2,928.22	86.6205	2,928.22	86.375	2,928.22	86.6862	2,928.22	86.7346	2,928.22	86.4721	2,928.22	86.6934	2,928.22	85.7941	2,928.22	86.4401	2,928.22	84.2128	2,928.22	85.4316	2,928.22	82.6278	2,928.22	83.5504	2,928.22	80.3165	2,928.22	81.5709	2,928.22	77.2604	2,928.22	79.1192	2,928.22	75.9647	2,928.22	77.0675	2,928.22	72.705	2,928.22	75.491	2,928.22	72.8317	2,928.22	73.2006	2,928.22	71.3885	2,928.22	73.4709	2,928.22	70.5466	2,928.22	70.7781	2,928.22	70.8072	2,928.22	72.0913	2,928.22	72.6744	2,928.22	71.238	2,928.22	70.6426	2,928.22	72.9189	2,928.22	68.6734	2,928.22	69.1314	2,928.22	69.8787
3,030.76	85.9032	3,030.76	86.3088	3,030.76	86.051	3,030.76	86.5319	3,030.76	86.3099	3,030.76	86.2037	3,030.76	86.4431	3,030.76	85.6373	3,030.76	85.8533	3,030.76	84.0116	3,030.76	84.7976	3,030.76	81.7959	3,030.76	83.1337	3,030.76	80.0509	3,030.76	80.7294	3,030.76	77.7182	3,030.76	78.3857	3,030.76	75.9014	3,030.76	76.179	3,030.76	73.4791	3,030.76	74.9084	3,030.76	73.2738	3,030.76	71.9891	3,030.76	72.4747	3,030.76	71.26	3,030.76	70.7115	3,030.76	68.811	3,030.76	70.4655	3,030.76	71.1415	3,030.76	72.8894	3,030.76	70.2037	3,030.76	70.9391	3,030.76	72.4611	3,030.76	67.5456	3,030.76	68.6005	3,030.76	66.9106
3,137.7	85.5319	3,137.7	86.0113	3,137.7	85.7013	3,137.7	86.5458	3,137.7	86.2148	3,137.7	86.2818	3,137.7	86.4016	3,137.7	85.447	3,137.7	85.7958	3,137.7	83.91	3,137.7	84.7003	3,137.7	81.418	3,137.7	82.8423	3,137.7	78.8213	3,137.7	80.6684	3,137.7	76.5098	3,137.7	78.5026	3,137.7	74.3511	3,137.7	75.3616	3,137.7	72.2611	3,137.7	73.4702	3,137.7	70.4786	3,137.7	70.8903	3,137.7	70.2511	3,137.7	71.2942	3,137.7	72.0439	3,137.7	69.3055	3,137.7	71.558	3,137.7	70.6826	3,137.7	72.0217	3,137.7	69.8234	3,137.7	69.5004	3,137.7	72.1321	3,137.7	62.8814	3,137.7	69.5889	3,137.7	68.2398
3,249.02	84.9241	3,249.02	85.3263	3,249.02	84.8654	3,249.02	86.0692	3,249.02	85.5536	3,249.02	86.1099	3,249.02	86.0005	3,249.02	84.8386	3,249.02	85.5807	3,249.02	83.3783	3,249.02	84.1673	3,249.02	80.812	3,249.02	82.2809	3,249.02	78.2104	3,249.02	80.2049	3,249.02	76.2393	3,249.02	78.1661	3,249.02	74.539	3,249.02	75.7796	3,249.02	72.4997	3,249.02	73.5787	3,249.02	70.6884	3,249.02	71.0582	3,249.02	69.1298	3,249.02	71.3687	3,249.02	70.1455	3,249.02	69.9843	3,249.02	71.9966	3,249.02	69.3031	3,249.02	69.4636	3,249.02	70.3247	3,249.02	69.3915	3,249.02	70.3744	3,249.02	68.1547	3,249.02	68.1067	3,249.02	68.2297
3,363.28	84.521	3,363.28	85.2267	3,363.28	84.6901	3,363.28	85.8763	3,363.28	85.5779	3,363.28	85.8775	3,363.28	85.8262	3,363.28	84.5997	3,363.28	85.3063	3,363.28	82.4495	3,363.28	83.8388	3,363.28	80.2552	3,363.28	81.9119	3,363.28	78.0273	3,363.28	79.6083	3,363.28	75.4883	3,363.28	77.3596	3,363.28	73.6484	3,363.28	75.3001	3,363.28	71.6191	3,363.28	73.5874	3,363.28	69.6691	3,363.28	71.7433	3,363.28	69.38	3,363.28	68.941	3,363.28	68.7978	3,363.28	68.3402	3,363.28	71.6041	3,363.28	69.7516	3,363.28	68.9427	3,363.28	71.0875	3,363.28	70.3906	3,363.28	69.6484	3,363.28	67.0403	3,363.28	68.8929	3,363.28	67.5927
3,481.93	84.7112	3,481.93	85.3784	3,481.93	84.8849	3,481.93	85.5809	3,481.93	85.5745	3,481.93	85.4693	3,481.93	85.7573	3,481.93	84.5793	3,481.93	85.3048	3,481.93	82.2045	3,481.93	83.7983	3,481.93	80.2586	3,481.93	81.8388	3,481.93	78.172	3,481.93	79.6277	3,481.93	75.7178	3,481.93	77.5246	3,481.93	73.4787	3,481.93	74.9224	3,481.93	71.8019	3,481.93	72.8222	3,481.93	67.23	3,481.93	70.7638	3,481.93	68.9152	3,481.93	69.0865	3,481.93	65.352	3,481.93	68.5666	3,481.93	71.0345	3,481.93	68.1844	3,481.93	69.5021	3,481.93	70.684	3,481.93	70.7265	3,481.93	69.5069	3,481.93	64.607	3,481.93	69.2768	3,481.93	66.9873
3,604.98	85.0591	3,604.98	85.6624	3,604.98	85.4853	3,604.98	86.2038	3,604.98	85.8153	3,604.98	85.6001	3,604.98	86.0142	3,604.98	84.1122	3,604.98	85.4224	3,604.98	82.4828	3,604.98	84.1942	3,604.98	80.5588	3,604.98	82.0495	3,604.98	78.166	3,604.98	79.5064	3,604.98	76.4992	3,604.98	77.3551	3,604.98	73.984	3,604.98	75.3959	3,604.98	72.7132	3,604.98	73.2684	3,604.98	68.9186	3,604.98	71.5638	3,604.98	68.4595	3,604.98	69.4762	3,604.98	67.7158	3,604.98	69.2596	3,604.98	70.7047	3,604.98	68.1855	3,604.98	68.9468	3,604.98	70.8345	3,604.98	69.6395	3,604.98	69.3758	3,604.98	65.7748	3,604.98	69.0636	3,604.98	67.2093
3,732.42	85.462	3,732.42	85.7892	3,732.42	85.2683	3,732.42	86.1328	3,732.42	86.3127	3,732.42	86.3213	3,732.42	86.2217	3,732.42	84.4704	3,732.42	85.399	3,732.42	82.9128	3,732.42	83.693	3,732.42	80.8299	3,732.42	82.1001	3,732.42	78.3469	3,732.42	79.926	3,732.42	75.8578	3,732.42	77.2129	3,732.42	73.4993	3,732.42	75.1202	3,732.42	71.5345	3,732.42	73.408	3,732.42	69.2915	3,732.42	71.7603	3,732.42	68.1511	3,732.42	67.5473	3,732.42	65.8538	3,732.42	68.0945	3,732.42	70.3651	3,732.42	68.1451	3,732.42	68.7448	3,732.42	71.3308	3,732.42	70.1689	3,732.42	68.904	3,732.42	65.6446	3,732.42	69.4621	3,732.42	66.8966
3,864.26	86.2236	3,864.26	86.1563	3,864.26	86.5398	3,864.26	86.276	3,864.26	86.6396	3,864.26	85.4868	3,864.26	86.5827	3,864.26	84.7029	3,864.26	85.5395	3,864.26	82.6412	3,864.26	84.2486	3,864.26	80.997	3,864.26	82.3944	3,864.26	78.6591	3,864.26	80.1827	3,864.26	76.2542	3,864.26	78.5717	3,864.26	73.3845	3,864.26	75.9042	3,864.26	71.2286	3,864.26	73.0239	3,864.26	67.319	3,864.26	70.7443	3,864.26	69.4958	3,864.26	69.8629	3,864.26	66.3092	3,864.26	68.8939	3,864.26	69.61	3,864.26	68.7352	3,864.26	67.9731	3,864.26	70.8919	3,864.26	70.845	3,864.26	69.8843	3,864.26	62.9181	3,864.26	69.195	3,864.26	65.841
4,000.49	86.5162	4,000.49	86.5937	4,000.49	86.7658	4,000.49	86.5926	4,000.49	86.6134	4,000.49	85.7427	4,000.49	86.6869	4,000.49	84.2672	4,000.49	86.0692	4,000.49	83.2606	4,000.49	84.6738	4,000.49	80.872	4,000.49	82.6883	4,000.49	79.17	4,000.49	80.6966	4,000.49	77.834	4,000.49	78.1742	4,000.49	74.5181	4,000.49	76.5371	4,000.49	73.1764	4,000.49	74.4198	4,000.49	71.1829	4,000.49	73.2225	4,000.49	69.7918	4,000.49	70.4821	4,000.49	68.2343	4,000.49	68.8405	4,000.49	70.7551	4,000.49	66.7054	4,000.49	69.0149	4,000.49	70.6593	4,000.49	70.0433	4,000.49	69.1832	4,000.49	64.7446	4,000.49	68.6047	4,000.49	65.5387
4,141.11	86.9476	4,141.11	87.1913	4,141.11	86.5608	4,141.11	86.9686	4,141.11	86.9907	4,141.11	87.0769	4,141.11	86.2701	4,141.11	85.546	4,141.11	85.5475	4,141.11	83.7202	4,141.11	83.886	4,141.11	82.217	4,141.11	82.9828	4,141.11	79.6936	4,141.11	81.0058	4,141.11	76.3141	4,141.11	78.9561	4,141.11	74.1517	4,141.11	75.9807	4,141.11	72.2738	4,141.11	73.7011	4,141.11	70.9988	4,141.11	72.1222	4,141.11	68.4422	4,141.11	69.0889	4,141.11	66.5766	4,141.11	69.558	4,141.11	70.0189	4,141.11	67.5433	4,141.11	69.1844	4,141.11	71.3601	4,141.11	69.7236	4,141.11	69.5765	4,141.11	62.101	4,141.11	69.7961	4,141.11	64.7593
4,287.6	87.3957	4,287.6	86.3294	4,287.6	87.5854	4,287.6	86.0276	4,287.6	86.5149	4,287.6	85.0584	4,287.6	86.2565	4,287.6	84.2229	4,287.6	85.1163	4,287.6	82.8869	4,287.6	84.8673	4,287.6	81.6028	4,287.6	83.0356	4,287.6	78.7926	4,287.6	81.0641	4,287.6	76.5088	4,287.6	78.634	4,287.6	73.8775	4,287.6	75.9693	4,287.6	72.7472	4,287.6	73.6847	4,287.6	71.112	4,287.6	71.8092	4,287.6	67.3842	4,287.6	70.25	4,287.6	68.9688	4,287.6	69.2156	4,287.6	70.367	4,287.6	66.9912	4,287.6	68.5442	4,287.6	69.9585	4,287.6	70.375	4,287.6	68.0634	4,287.6	63.4211	4,287.6	70.6049	4,287.6	63.5563
4,438.48	87.8601	4,438.48	87.5839	4,438.48	87.4032	4,438.48	86.1127	4,438.48	87.1528	4,438.48	85.7097	4,438.48	85.9907	4,438.48	84.6707	4,438.48	85.9891	4,438.48	84.2787	4,438.48	84.6153	4,438.48	81.1597	4,438.48	82.9078	4,438.48	79.1333	4,438.48	81.0341	4,438.48	76.8885	4,438.48	78.5644	4,438.48	74.4451	4,438.48	75.8687	4,438.48	71.4271	4,438.48	74.1707	4,438.48	68.8083	4,438.48	72.7188	4,438.48	67.6277	4,438.48	68.9407	4,438.48	66.4512	4,438.48	68.627	4,438.48	69.7267	4,438.48	67.3806	4,438.48	68.5838	4,438.48	70.5751	4,438.48	69.4252	4,438.48	70.1774	4,438.48	60.2767	4,438.48	69.2878	4,438.48	62.9761
4,595.21	87.9823	4,595.21	86.4725	4,595.21	87.8267	4,595.21	86.1383	4,595.21	86.0483	4,595.21	85.5432	4,595.21	85.6122	4,595.21	85.082	4,595.21	84.6986	4,595.21	83.2233	4,595.21	84.2047	4,595.21	81.8011	4,595.21	83.1979	4,595.21	78.8223	4,595.21	80.8597	4,595.21	75.5026	4,595.21	78.1706	4,595.21	73.8887	4,595.21	75.4842	4,595.21	71.2555	4,595.21	72.7028	4,595.21	70.3053	4,595.21	70.2981	4,595.21	65.6696	4,595.21	68.8413	4,595.21	65.0374	4,595.21	67.8877	4,595.21	68.8991	4,595.21	66.275	4,595.21	69.3634	4,595.21	69.7539	4,595.21	69.7084	4,595.21	69.5418	4,595.21	62.142	4,595.21	69.6925	4,595.21	60.6005
4,756.35	87.8871	4,756.35	87.1456	4,756.35	87.6724	4,756.35	85.4323	4,756.35	86.4872	4,756.35	84.5089	4,756.35	85.4664	4,756.35	83.9485	4,756.35	85.0947	4,756.35	82.9728	4,756.35	84.5388	4,756.35	80.2742	4,756.35	82.4807	4,756.35	77.866	4,756.35	79.9838	4,756.35	74.9911	4,756.35	77.35	4,756.35	71.1211	4,756.35	74.4268	4,756.35	69.4795	4,756.35	72.0276	4,756.35	68.0052	4,756.35	69.6638	4,756.35	65.5024	4,756.35	68.1795	4,756.35	65.2304	4,756.35	66.8151	4,756.35	67.5573	4,756.35	65.9754	4,756.35	68.8923	4,756.35	69.1036	4,756.35	68.9846	4,756.35	68.3409	4,756.35	59.9281	4,756.35	68.7897	4,756.35	59.8822
4,924.8	88.0648	4,924.8	86.6325	4,924.8	87.7737	4,924.8	85.3144	4,924.8	86.4163	4,924.8	84.8756	4,924.8	84.9019	4,924.8	83.6771	4,924.8	84.8304	4,924.8	81.9239	4,924.8	83.8379	4,924.8	79.0113	4,924.8	81.9325	4,924.8	76.1688	4,924.8	79.1649	4,924.8	73.519	4,924.8	76.4755	4,924.8	72.0452	4,924.8	74.0334	4,924.8	68.541	4,924.8	71.8115	4,924.8	67.7259	4,924.8	70.0993	4,924.8	68.1971	4,924.8	66.3643	4,924.8	64.1013	4,924.8	66.226	4,924.8	65.1371	4,924.8	65.7374	4,924.8	68.6371	4,924.8	67.5932	4,924.8	69.2037	4,924.8	68.4704	4,924.8	61.4136	4,924.8	67.5565	4,924.8	59.9021
5,097.66	87.5558	5,097.66	86.1347	5,097.66	87.2675	5,097.66	85.0297	5,097.66	85.4506	5,097.66	83.8977	5,097.66	84.6771	5,097.66	83.5658	5,097.66	83.9213	5,097.66	81.9239	5,097.66	83.2606	5,097.66	79.3459	5,097.66	81.0497	5,097.66	76.3757	5,097.66	78.5302	5,097.66	74.3932	5,097.66	75.6412	5,097.66	70.6607	5,097.66	72.0705	5,097.66	67.2536	5,097.66	70.8496	5,097.66	67.9545	5,097.66	67.1975	5,097.66	63.4838	5,097.66	66.9643	5,097.66	66.2102	5,097.66	63.7799	5,097.66	63.915	5,097.66	64.9896	5,097.66	68.498	5,097.66	67.1881	5,097.66	68.6567	5,097.66	68.0754	5,097.66	60.2841	5,097.66	68.0917	5,097.66	57.5563
5,277.83	87.5698	5,277.83	86.4286	5,277.83	87.0018	5,277.83	84.4521	5,277.83	85.5386	5,277.83	83.9956	5,277.83	84.3226	5,277.83	82.596	5,277.83	84.0816	5,277.83	80.7284	5,277.83	82.6479	5,277.83	77.7551	5,277.83	80.3847	5,277.83	75.4725	5,277.83	77.9305	5,277.83	71.8184	5,277.83	74.7727	5,277.83	70.5005	5,277.83	73.0802	5,277.83	67.8725	5,277.83	69.7144	5,277.83	66.8057	5,277.83	67.3713	5,277.83	64.8725	5,277.83	65.7687	5,277.83	66.2944	5,277.83	63.424	5,277.83	64.3396	5,277.83	63.4484	5,277.83	68.1147	5,277.83	65.0353	5,277.83	67.093	5,277.83	66.7164	5,277.83	59.8221	5,277.83	66.5675	5,277.83	58.935
5,463.87	86.9622	5,463.87	85.3172	5,463.87	86.8207	5,463.87	84.2031	5,463.87	85.1714	5,463.87	83.0901	5,463.87	84.374	5,463.87	81.8516	5,463.87	83.3592	5,463.87	79.496	5,463.87	82.0919	5,463.87	77.4337	5,463.87	79.966	5,463.87	75.531	5,463.87	77.4111	5,463.87	73.5508	5,463.87	75.2839	5,463.87	71.8446	5,463.87	72.2087	5,463.87	69.3217	5,463.87	70.9757	5,463.87	66.1082	5,463.87	68.1319	5,463.87	62.7963	5,463.87	66.6769	5,463.87	63.9081	5,463.87	63.6106	5,463.87	62.67	5,463.87	63.154	5,463.87	68.0345	5,463.87	66.6922	5,463.87	67.0033	5,463.87	68.1478	5,463.87	60.11	5,463.87	65.5148	5,463.87	55.1252
5,657.23	86.7526	5,657.23	85.6321	5,657.23	86.3878	5,657.23	83.8651	5,657.23	85.1747	5,657.23	83.2017	5,657.23	83.7472	5,657.23	81.7291	5,657.23	83.0328	5,657.23	80.3043	5,657.23	81.5074	5,657.23	78.0389	5,657.23	79.5939	5,657.23	75.3979	5,657.23	77.9255	5,657.23	72.7497	5,657.23	75.3817	5,657.23	70.4219	5,657.23	73.5653	5,657.23	67.884	5,657.23	70.8003	5,657.23	66.8468	5,657.23	68.4757	5,657.23	62.3469	5,657.23	66.7509	5,657.23	63.5225	5,657.23	63.2862	5,657.23	62.8991	5,657.23	62.8006	5,657.23	67.2498	5,657.23	65.0421	5,657.23	65.9561	5,657.23	66.9271	5,657.23	56.2335	5,657.23	65.8402	5,657.23	55.0227
5,856.45	86.6323	5,856.45	85.2836	5,856.45	86.8435	5,856.45	84.4089	5,856.45	85.1965	5,856.45	82.7334	5,856.45	83.903	5,856.45	81.2848	5,856.45	82.7146	5,856.45	79.4097	5,856.45	81.2969	5,856.45	77.3397	5,856.45	79.9469	5,856.45	75.3821	5,856.45	77.8784	5,856.45	73.7612	5,856.45	76.3183	5,856.45	71.5517	5,856.45	73.4734	5,856.45	69.2168	5,856.45	71.6854	5,856.45	66.2357	5,856.45	68.8725	5,856.45	64.3562	5,856.45	66.416	5,856.45	64.3134	5,856.45	64.1979	5,856.45	61.7439	5,856.45	64.0872	5,856.45	67.3171	5,856.45	65.5724	5,856.45	65.8926	5,856.45	68.0845	5,856.45	57.809	5,856.45	66.3386	5,856.45	45.2434
6,062.99	86.4539	6,062.99	85.3317	6,062.99	86.6031	6,062.99	83.6752	6,062.99	85.6418	6,062.99	81.7352	6,062.99	84.0037	6,062.99	80.0489	6,062.99	82.5395	6,062.99	79.4583	6,062.99	81.726	6,062.99	78.7177	6,062.99	80.4858	6,062.99	76.4187	6,062.99	78.9219	6,062.99	73.8957	6,062.99	76.7539	6,062.99	71.8002	6,062.99	74.1506	6,062.99	68.1086	6,062.99	71.8053	6,062.99	66.5803	6,062.99	68.658	6,062.99	62.1821	6,062.99	66.7622	6,062.99	62.3653	6,062.99	63.8287	6,062.99	58.8394	6,062.99	62.1088	6,062.99	66.5425	6,062.99	66.0624	6,062.99	64.8559	6,062.99	68.0218	6,062.99	57.3293	6,062.99	67.1327	6,062.99	51.0524
6,276.86	86.1705	6,276.86	85.2715	6,276.86	86.5067	6,276.86	83.8859	6,276.86	85.8125	6,276.86	81.7402	6,276.86	84.0236	6,276.86	80.8498	6,276.86	82.4913	6,276.86	80.9958	6,276.86	81.8628	6,276.86	79.3897	6,276.86	80.8352	6,276.86	76.3984	6,276.86	78.7738	6,276.86	74.6578	6,276.86	76.5229	6,276.86	71.3754	6,276.86	73.3745	6,276.86	68.1206	6,276.86	71.1552	6,276.86	64.8415	6,276.86	67.6449	6,276.86	63.989	6,276.86	65.526	6,276.86	60.8561	6,276.86	60.4162	6,276.86	56.8048	6,276.86	61.4006	6,276.86	65.6276	6,276.86	63.9362	6,276.86	65.4697	6,276.86	66.4183	6,276.86	57.0299	6,276.86	66.4926	6,276.86	52.8545
6,498.05	86.7237	6,498.05	86.3676	6,498.05	86.7775	6,498.05	84.721	6,498.05	86.2474	6,498.05	82.9618	6,498.05	84.2476	6,498.05	82.422	6,498.05	82.3973	6,498.05	81.9731	6,498.05	81.624	6,498.05	80.2792	6,498.05	80.7081	6,498.05	77.8032	6,498.05	78.7464	6,498.05	74.4999	6,498.05	75.7196	6,498.05	70.9621	6,498.05	72.0843	6,498.05	69.4045	6,498.05	68.8782	6,498.05	66.9048	6,498.05	66.2406	6,498.05	64.2419	6,498.05	66.5693	6,498.05	64.6328	6,498.05	64.4268	6,498.05	56.4178	6,498.05	57.7593	6,498.05	67.0586	6,498.05	61.8147	6,498.05	65.7304	6,498.05	65.122	6,498.05	59.846	6,498.05	65.8129	6,498.05	38.2306
6,726.56	87.3459	6,726.56	86.7937	6,726.56	87.2796	6,726.56	85.3086	6,726.56	86.0067	6,726.56	83.6555	6,726.56	83.6863	6,726.56	83.2677	6,726.56	82.147	6,726.56	82.8044	6,726.56	81.6783	6,726.56	80.8149	6,726.56	80.1925	6,726.56	78.5424	6,726.56	78.2487	6,726.56	76.0247	6,726.56	75.8038	6,726.56	72.2993	6,726.56	72.2633	6,726.56	69.4553	6,726.56	69.3884	6,726.56	66.6339	6,726.56	67.8	6,726.56	66.2106	6,726.56	64.0682	6,726.56	62.2695	6,726.56	63.0379	6,726.56	60.3614	6,726.56	62.21	6,726.56	66.5873	6,726.56	56.6008	6,726.56	65.5159	6,726.56	64.9344	6,726.56	58.2376	6,726.56	65.7202	6,726.56	55.5514
6,963.87	87.4193	6,963.87	87.0161	6,963.87	87.3593	6,963.87	85.6209	6,963.87	85.7747	6,963.87	83.8484	6,963.87	83.8266	6,963.87	83.7248	6,963.87	82.4275	6,963.87	83.1221	6,963.87	81.9532	6,963.87	81.03	6,963.87	80.898	6,963.87	78.7524	6,963.87	78.7805	6,963.87	76.1461	6,963.87	75.9082	6,963.87	72.6146	6,963.87	73.1824	6,963.87	69.6428	6,963.87	70.5337	6,963.87	66.0384	6,963.87	67.7758	6,963.87	66.1865	6,963.87	64.1764	6,963.87	62.1461	6,963.87	60.8294	6,963.87	58.4194	6,963.87	61.9344	6,963.87	65.5347	6,963.87	56.021	6,963.87	64.5226	6,963.87	64.4469	6,963.87	59.1305	6,963.87	63.9973	6,963.87	52.3857
7,209.96	87.4629	7,209.96	86.8306	7,209.96	87.1471	7,209.96	85.3099	7,209.96	85.7633	7,209.96	83.8203	7,209.96	83.7614	7,209.96	83.5938	7,209.96	82.7351	7,209.96	82.7056	7,209.96	82.0968	7,209.96	80.3529	7,209.96	80.8703	7,209.96	77.1997	7,209.96	78.744	7,209.96	74.4016	7,209.96	76.089	7,209.96	71.2312	7,209.96	73.4112	7,209.96	68.2015	7,209.96	69.9321	7,209.96	64.3134	7,209.96	67.5052	7,209.96	64.5714	7,209.96	64.1128	7,209.96	54.4208	7,209.96	58.2929	7,209.96	58.4308	7,209.96	61.5078	7,209.96	64.4366	7,209.96	56.714	7,209.96	60.9646	7,209.96	64.8159	7,209.96	55.1772	7,209.96	62.5493	7,209.96	52.0421
7,464.84	86.9243	7,464.84	86.7557	7,464.84	86.7148	7,464.84	85.2537	7,464.84	86.0414	7,464.84	83.0288	7,464.84	83.9801	7,464.84	82.6428	7,464.84	82.0795	7,464.84	82.2846	7,464.84	82.0233	7,464.84	80.4164	7,464.84	81.4773	7,464.84	76.4791	7,464.84	79.0405	7,464.84	73.3827	7,464.84	75.4827	7,464.84	70.0463	7,464.84	72.1085	7,464.84	67.2133	7,464.84	68.1632	7,464.84	63.8409	7,464.84	64.8303	7,464.84	63.1258	7,464.84	62.2156	7,464.84	52.2028	7,464.84	62.1583	7,464.84	54.1312	7,464.84	51.6874	7,464.84	63.9905	7,464.84	56.1899	7,464.84	58.9029	7,464.84	62.8604	7,464.84	55.2605	7,464.84	61.6756	7,464.84	46.1458
7,727.05	86.3909	7,727.05	87.0147	7,727.05	87.0077	7,727.05	85.0522	7,727.05	86.5257	7,727.05	81.6612	7,727.05	83.4448	7,727.05	82.0387	7,727.05	81.7287	7,727.05	82.1978	7,727.05	82.4332	7,727.05	79.4939	7,727.05	81.4715	7,727.05	75.54	7,727.05	78.4772	7,727.05	72.4046	7,727.05	74.9316	7,727.05	69.7405	7,727.05	71.3019	7,727.05	66.4762	7,727.05	67.1274	7,727.05	63.2017	7,727.05	63.9881	7,727.05	62.0559	7,727.05	62.0123	7,727.05	55.2819	7,727.05	61.2515	7,727.05	51.7175	7,727.05	52.0928	7,727.05	62.0816	7,727.05	54.3808	7,727.05	60.3315	7,727.05	62.0397	7,727.05	49.3558	7,727.05	61.1864	7,727.05	45.912
7,999.51	86.5363	7,999.51	86.8318	7,999.51	86.9049	7,999.51	84.8576	7,999.51	86.387	7,999.51	82.2295	7,999.51	83.7133	7,999.51	81.6109	7,999.51	81.7847	7,999.51	80.7123	7,999.51	81.5714	7,999.51	78.6156	7,999.51	80.2871	7,999.51	75.2716	7,999.51	77.8409	7,999.51	72.5621	7,999.51	74.3552	7,999.51	68.4656	7,999.51	71.3133	7,999.51	65.9507	7,999.51	67.887	7,999.51	62.3952	7,999.51	65.6196	7,999.51	61.759	7,999.51	61.8129	7,999.51	59.1224	7,999.51	62.5271	7,999.51	56.6713	7,999.51	57.3759	7,999.51	58.8514	7,999.51	53.6308	7,999.51	59.6386	7,999.51	62.2375	7,999.51	49.9692	7,999.51	60.6625	7,999.51	47.7286
8,282.23	86.9984	8,282.23	86.2791	8,282.23	87.124	8,282.23	84.8654	8,282.23	86.0613	8,282.23	82.7629	8,282.23	84.4983	8,282.23	81.4666	8,282.23	82.3202	8,282.23	80.3333	8,282.23	81.2588	8,282.23	78.5992	8,282.23	79.9369	8,282.23	74.9596	8,282.23	77.5445	8,282.23	72.6879	8,282.23	73.7914	8,282.23	68.2641	8,282.23	71.5157	8,282.23	65.2784	8,282.23	68.1344	8,282.23	63.2815	8,282.23	65.9382	8,282.23	60.6826	8,282.23	60.4694	8,282.23	56.7425	8,282.23	60.3353	8,282.23	56.3791	8,282.23	55.2768	8,282.23	58.7486	8,282.23	51.036	8,282.23	59.7723	8,282.23	61.557	8,282.23	43.3425	8,282.23	60.9678	8,282.23	44.7362
8,573.73	86.956	8,573.73	85.9492	8,573.73	86.9062	8,573.73	85.3009	8,573.73	85.7363	8,573.73	83.0861	8,573.73	84.7287	8,573.73	81.6629	8,573.73	82.4215	8,573.73	81.0018	8,573.73	80.9793	8,573.73	78.8459	8,573.73	80.0102	8,573.73	74.9832	8,573.73	77.2116	8,573.73	72.1094	8,573.73	73.1203	8,573.73	68.5846	8,573.73	70.7018	8,573.73	64.7471	8,573.73	66.4915	8,573.73	64.6718	8,573.73	65.2719	8,573.73	58.4487	8,573.73	60.5118	8,573.73	56.6476	8,573.73	60.3405	8,573.73	55.529	8,573.73	56.4861	8,573.73	59.1933	8,573.73	48.1537	8,573.73	60.8301	8,573.73	59.6813	8,573.73	42.4943	8,573.73	59.1321	8,573.73	45.7924
8,876.95	86.3293	8,876.95	85.393	8,876.95	85.9498	8,876.95	85.1295	8,876.95	84.9064	8,876.95	82.7744	8,876.95	84.09	8,876.95	81.4882	8,876.95	81.6963	8,876.95	80.8333	8,876.95	80.2673	8,876.95	78.2022	8,876.95	79.2802	8,876.95	74.1374	8,876.95	76.1273	8,876.95	71.0987	8,876.95	72.3785	8,876.95	68.4876	8,876.95	69.2708	8,876.95	64.0251	8,876.95	65.4712	8,876.95	63.9325	8,876.95	63.8704	8,876.95	59.8487	8,876.95	58.9257	8,876.95	58.1634	8,876.95	60.2563	8,876.95	53.9867	8,876.95	50.1371	8,876.95	58.6314	8,876.95	41.5455	8,876.95	58.1899	8,876.95	58.5637	8,876.95	42.8701	8,876.95	59.0931	8,876.95	46.7678
9,188.96	85.7106	9,188.96	84.673	9,188.96	85.0553	9,188.96	84.4541	9,188.96	83.7807	9,188.96	82.2541	9,188.96	83.0362	9,188.96	81.0693	9,188.96	80.7765	9,188.96	80.1252	9,188.96	79.6733	9,188.96	77.3717	9,188.96	77.9888	9,188.96	73.7883	9,188.96	74.4398	9,188.96	69.7774	9,188.96	69.9587	9,188.96	66.7947	9,188.96	66.3876	9,188.96	63.7073	9,188.96	62.929	9,188.96	62.5244	9,188.96	61.6841	9,188.96	59.3926	9,188.96	57.9529	9,188.96	58.0585	9,188.96	58.7145	9,188.96	56.0792	9,188.96	47.6514	9,188.96	55.1909	9,188.96	49.6159	9,188.96	58.1686	9,188.96	56.7285	9,188.96	40.8983	9,188.96	55.5675	9,188.96	50.3581
9,514.16	85.5818	9,514.16	84.6086	9,514.16	85.0468	9,514.16	84.2706	9,514.16	83.5008	9,514.16	82.0669	9,514.16	82.452	9,514.16	80.9226	9,514.16	80.6881	9,514.16	79.31	9,514.16	79.0722	9,514.16	76.6823	9,514.16	76.6302	9,514.16	73.4555	9,514.16	72.9781	9,514.16	69.6502	9,514.16	67.7073	9,514.16	66.8005	9,514.16	66.0189	9,514.16	63.1249	9,514.16	61.6958	9,514.16	62.6108	9,514.16	60.443	9,514.16	55.7232	9,514.16	58.3465	9,514.16	56.9043	9,514.16	57.2485	9,514.16	55.0326	9,514.16	49.1523	9,514.16	53.869	9,514.16	51.2487	9,514.16	56.4069	9,514.16	55.5304	9,514.16	40.4802	9,514.16	54.7471	9,514.16	46.7844
9,849.61	85.8103	9,849.61	84.9567	9,849.61	85.349	9,849.61	84.2488	9,849.61	83.8647	9,849.61	82.0183	9,849.61	82.4552	9,849.61	80.7749	9,849.61	80.7475	9,849.61	78.8444	9,849.61	78.2014	9,849.61	75.8924	9,849.61	75.6553	9,849.61	72.5029	9,849.61	72.2377	9,849.61	69.0068	9,849.61	67.9548	9,849.61	66.7796	9,849.61	65.98	9,849.61	62.3899	9,849.61	63.3581	9,849.61	62.3852	9,849.61	58.2636	9,849.61	51.9812	9,849.61	58.8645	9,849.61	57.0697	9,849.61	55.9762	9,849.61	55.0658	9,849.61	44.3468	9,849.61	54.617	9,849.61	49.4094	9,849.61	54.3974	9,849.61	53.9871	9,849.61	42.3794	9,849.61	54.9497	9,849.61	47.5875
10,196.8	85.7276	10,196.8	85.0298	10,196.8	85.2599	10,196.8	83.9569	10,196.8	83.9109	10,196.8	82.0342	10,196.8	82.3538	10,196.8	80.4833	10,196.8	80.4781	10,196.8	78.3484	10,196.8	77.4112	10,196.8	75.32	10,196.8	75.1702	10,196.8	71.8338	10,196.8	72.0458	10,196.8	67.391	10,196.8	68.2537	10,196.8	65.6014	10,196.8	63.4738	10,196.8	61.2824	10,196.8	63.075	10,196.8	60.6211	10,196.8	56.3162	10,196.8	54.6806	10,196.8	58.2731	10,196.8	57.719	10,196.8	54.9981	10,196.8	54.7995	10,196.8	44.2506	10,196.8	53.4568	10,196.8	50.1569	10,196.8	54.9297	10,196.8	53.659	10,196.8	44.3931	10,196.8	54.2255	10,196.8	47.8272
10,555.7	85.3744	10,555.7	84.8645	10,555.7	84.9166	10,555.7	83.6691	10,555.7	83.7727	10,555.7	81.9269	10,555.7	82.3408	10,555.7	79.7439	10,555.7	80.0323	10,555.7	77.287	10,555.7	76.8991	10,555.7	74.4021	10,555.7	74.5585	10,555.7	71.0558	10,555.7	71.3217	10,555.7	66.157	10,555.7	66.7765	10,555.7	63.6161	10,555.7	62.4606	10,555.7	60.9359	10,555.7	61.5062	10,555.7	58.4666	10,555.7	56.139	10,555.7	53.4933	10,555.7	57.9092	10,555.7	57.2965	10,555.7	49.7089	10,555.7	52.8844	10,555.7	45.6684	10,555.7	50.8675	10,555.7	49.4777	10,555.7	53.1171	10,555.7	53.9248	10,555.7	40.8314	10,555.7	52.3889	10,555.7	48.8903
10,927.7	85.2944	10,927.7	84.7483	10,927.7	84.896	10,927.7	83.6171	10,927.7	83.5101	10,927.7	81.4099	10,927.7	81.9313	10,927.7	78.8618	10,927.7	79.288	10,927.7	76.0021	10,927.7	76.234	10,927.7	73.2241	10,927.7	73.2504	10,927.7	69.6468	10,927.7	69.9339	10,927.7	66.022	10,927.7	65.9853	10,927.7	62.5071	10,927.7	62.5855	10,927.7	60.1002	10,927.7	60.9623	10,927.7	56.9364	10,927.7	56.2632	10,927.7	54.232	10,927.7	56.9137	10,927.7	55.8736	10,927.7	50.8948	10,927.7	52.1393	10,927.7	49.4257	10,927.7	46.6244	10,927.7	50.5205	10,927.7	53.6288	10,927.7	53.4035	10,927.7	43.8433	10,927.7	50.7894	10,927.7	46.9098
11,313	85.4609	11,313	84.7306	11,313	85.1345	11,313	83.5218	11,313	83.5359	11,313	81.0173	11,313	81.9863	11,313	78.4544	11,313	79.2792	11,313	74.8466	11,313	76.0447	11,313	71.6457	11,313	72.6029	11,313	68.5665	11,313	69.841	11,313	64.8935	11,313	67.1667	11,313	61.3457	11,313	62.3641	11,313	59.7294	11,313	61.5341	11,313	55.3413	11,313	56.1942	11,313	54.8497	11,313	55.3363	11,313	54.4862	11,313	52.4063	11,313	50.3895	11,313	51.5814	11,313	48.9735	11,313	50.8263	11,313	52.0233	11,313	50.083	11,313	41.6021	11,313	51.9878	11,313	43.3779
11,712.9	85.0388	11,712.9	84.3936	11,712.9	84.7445	11,712.9	83.1533	11,712.9	83.4337	11,712.9	80.5096	11,712.9	81.9983	11,712.9	77.8579	11,712.9	79.0188	11,712.9	73.8661	11,712.9	75.4467	11,712.9	70.8761	11,712.9	72.3073	11,712.9	68.5114	11,712.9	69.8613	11,712.9	64.6681	11,712.9	66.7951	11,712.9	60.5382	11,712.9	61.7912	11,712.9	60.0392	11,712.9	59.9817	11,712.9	54.8474	11,712.9	56.6838	11,712.9	56.0908	11,712.9	53.58	11,712.9	54.7854	11,712.9	49.1698	11,712.9	48.6982	11,712.9	51.3512	11,712.9	48.4003	11,712.9	50.437	11,712.9	50.6542	11,712.9	50.4586	11,712.9	37.5665	11,712.9	50.0325	11,712.9	42.1727
12,126	84.5927	12,126	84.0031	12,126	84.2554	12,126	82.8638	12,126	83.1892	12,126	79.9307	12,126	81.6216	12,126	76.8793	12,126	78.4209	12,126	72.7242	12,126	74.5995	12,126	70.3414	12,126	71.9808	12,126	67.7839	12,126	69.0952	12,126	63.9152	12,126	64.8913	12,126	58.4953	12,126	61.1093	12,126	59.4333	12,126	57.2271	12,126	53.4011	12,126	55.5551	12,126	56.595	12,126	52.7577	12,126	53.0843	12,126	49.7268	12,126	48.1915	12,126	50.9179	12,126	49.4614	12,126	51.3054	12,126	47.7642	12,126	49.7128	12,126	38.6239	12,126	48.3626	12,126	43.7666
12,553.7	84.784	12,553.7	84.1701	12,553.7	84.4422	12,553.7	83.0409	12,553.7	83.5025	12,553.7	79.8959	12,553.7	81.7831	12,553.7	76.4792	12,553.7	78.5429	12,553.7	72.4883	12,553.7	74.4869	12,553.7	70.0222	12,553.7	71.5486	12,553.7	66.4742	12,553.7	67.6443	12,553.7	63.1933	12,553.7	63.4507	12,553.7	57.1472	12,553.7	60.1904	12,553.7	57.6734	12,553.7	55.8768	12,553.7	51.7463	12,553.7	54.2094	12,553.7	55.6185	12,553.7	51.8366	12,553.7	51.1884	12,553.7	47.5598	12,553.7	44.5065	12,553.7	49.3843	12,553.7	47.6598	12,553.7	50.6916	12,553.7	46.7106	12,553.7	49.5614	12,553.7	41.1699	12,553.7	48.5865	12,553.7	39.7241
12,996.1	84.8851	12,996.1	84.3036	12,996.1	84.6002	12,996.1	83.1441	12,996.1	83.8702	12,996.1	79.8527	12,996.1	82.0811	12,996.1	76.1137	12,996.1	78.3632	12,996.1	72.4472	12,996.1	74.0284	12,996.1	68.8077	12,996.1	70.6675	12,996.1	65.3059	12,996.1	66.9203	12,996.1	62.1515	12,996.1	63.4791	12,996.1	55.2251	12,996.1	58.4194	12,996.1	56.2212	12,996.1	53.9772	12,996.1	50.2838	12,996.1	53.9821	12,996.1	55.4466	12,996.1	50.1669	12,996.1	49.1681	12,996.1	47.6283	12,996.1	40.6896	12,996.1	45.1101	12,996.1	42.4581	12,996.1	46.7067	12,996.1	44.8052	12,996.1	48.373	12,996.1	42.7389	12,996.1	47.077	12,996.1	40.4053
13,454.6	84.5114	13,454.6	84.1197	13,454.6	84.3861	13,454.6	83.2469	13,454.6	83.9645	13,454.6	79.8184	13,454.6	82.0414	13,454.6	75.7009	13,454.6	77.9209	13,454.6	71.283	13,454.6	73.1595	13,454.6	67.541	13,454.6	69.1744	13,454.6	64.2942	13,454.6	65.4051	13,454.6	60.8415	13,454.6	60.7142	13,454.6	52.7982	13,454.6	56.9333	13,454.6	55.3056	13,454.6	49.3364	13,454.6	47.745	13,454.6	53.0513	13,454.6	54.2243	13,454.6	47.9847	13,454.6	50.3606	13,454.6	48.2599	13,454.6	38.056	13,454.6	44.6378	13,454.6	41.2863	13,454.6	47.2321	13,454.6	36.5391	13,454.6	48.2981	13,454.6	39.9759	13,454.6	49.5742	13,454.6	37.2759
13,929.2	84.1308	13,929.2	83.9899	13,929.2	84.2991	13,929.2	83.3675	13,929.2	83.9808	13,929.2	79.5496	13,929.2	81.682	13,929.2	75.1468	13,929.2	76.8441	13,929.2	70.4227	13,929.2	71.4251	13,929.2	66.586	13,929.2	66.7286	13,929.2	61.497	13,929.2	61.2045	13,929.2	58.7779	13,929.2	56.6607	13,929.2	52.234	13,929.2	55.8141	13,929.2	52.2637	13,929.2	47.2472	13,929.2	44.9189	13,929.2	51.3245	13,929.2	52.2601	13,929.2	43.4244	13,929.2	47.4333	13,929.2	49.3772	13,929.2	37.1408	13,929.2	45.0851	13,929.2	43.0335	13,929.2	48.425	13,929.2	36.039	13,929.2	48.1895	13,929.2	39.9529	13,929.2	50.2931	13,929.2	37.4696
14,419.9	83.0983	14,419.9	83.8515	14,419.9	83.3332	14,419.9	83.6661	14,419.9	83.9989	14,419.9	79.2883	14,419.9	81.7651	14,419.9	75.7236	14,419.9	76.4298	14,419.9	71.4839	14,419.9	71.3887	14,419.9	66.0887	14,419.9	66.8677	14,419.9	60.3743	14,419.9	60.6212	14,419.9	59.1682	14,419.9	57.5705	14,419.9	54.4338	14,419.9	57.3334	14,419.9	50.7354	14,419.9	50.9984	14,419.9	47.2896	14,419.9	50.1642	14,419.9	52.7795	14,419.9	42.5829	14,419.9	47.6485	14,419.9	50.2347	14,419.9	34.989	14,419.9	44.2214	14,419.9	42.4104	14,419.9	47.5453	14,419.9	35.4836	14,419.9	48.3106	14,419.9	42.8734	14,419.9	48.9974	14,419.9	35.0564
14,928.2	81.4332	14,928.2	84.037	14,928.2	82.5432	14,928.2	84.21	14,928.2	84.6684	14,928.2	79.5878	14,928.2	81.8756	14,928.2	76.1856	14,928.2	75.8828	14,928.2	71.3091	14,928.2	71.1294	14,928.2	62.6334	14,928.2	64.5647	14,928.2	55.3356	14,928.2	52.334	14,928.2	56.4968	14,928.2	57.2181	14,928.2	53.8604	14,928.2	56.3622	14,928.2	47.0515	14,928.2	52.5346	14,928.2	46.4618	14,928.2	48.5787	14,928.2	50.9312	14,928.2	43.5143	14,928.2	47.2218	14,928.2	50.6688	14,928.2	23.9622	14,928.2	46.7861	14,928.2	39.2246	14,928.2	46.4869	14,928.2	38.7605	14,928.2	47.2309	14,928.2	42.5003	14,928.2	48.2773	14,928.2	40.5115
15,455.6	79.8955	15,455.6	84.7342	15,455.6	81.6342	15,455.6	84.651	15,455.6	84.5913	15,455.6	79.4137	15,455.6	80.74	15,455.6	75.6417	15,455.6	73.7695	15,455.6	68.5054	15,455.6	67.5272	15,455.6	55.2847	15,455.6	59.6381	15,455.6	56.1929	15,455.6	63.4566	15,455.6	55.6338	15,455.6	62.071	15,455.6	48.8143	15,455.6	58.3323	15,455.6	42.9445	15,455.6	55.7664	15,455.6	38.8088	15,455.6	50.7411	15,455.6	51.4562	15,455.6	46.0603	15,455.6	44.7203	15,455.6	49.1596	15,455.6	40.5841	15,455.6	49.3597	15,455.6	42.0124	15,455.6	47.1761	15,455.6	44.7787	15,455.6	48.4698	15,455.6	42.0746	15,455.6	47.1452	15,455.6	41.9212
16,000.5	79.4183	16,000.5	85.3419	16,000.5	80.5133	16,000.5	84.3342	16,000.5	83.5175	16,000.5	78.489	16,000.5	77.6661	16,000.5	74.3142	16,000.5	70.5776	16,000.5	61.7874	16,000.5	51.1965	16,000.5	66.7809	16,000.5	68.5024	16,000.5	65.8273	16,000.5	70.4219	16,000.5	63.4209	16,000.5	66.6013	16,000.5	58.0506	16,000.5	63.9651	16,000.5	53.5478	16,000.5	58.7498	16,000.5	51.4749	16,000.5	56.7645	16,000.5	54.6219	16,000.5	49.71	16,000.5	45.8616	16,000.5	49.2979	16,000.5	44.9643	16,000.5	52.5179	16,000.5	40.9603	16,000.5	48.3723	16,000.5	40.0868	16,000.5	51.331	16,000.5	42.7143	16,000.5	45.5803	16,000.5	47.2329
16,564.5	81.2286	16,564.5	84.7678	16,564.5	81.0549	16,564.5	82.8057	16,564.5	81.2932	16,564.5	77.7926	16,564.5	75.561	16,564.5	70.5526	16,564.5	69.7527	16,564.5	65.0521	16,564.5	63.3819	16,564.5	69.532	16,564.5	71.0483	16,564.5	67.1026	16,564.5	70.7684	16,564.5	65.5527	16,564.5	66.1614	16,564.5	60.9439	16,564.5	65.0367	16,564.5	54.8641	16,564.5	59.931	16,564.5	54.5912	16,564.5	56.5717	16,564.5	52.9309	16,564.5	53.6422	16,564.5	41.2743	16,564.5	52.1302	16,564.5	44.091	16,564.5	53.5064	16,564.5	44.7845	16,564.5	47.9156	16,564.5	31.6828	16,564.5	50.8412	16,564.5	43.7778	16,564.5	46.3483	16,564.5	51.3002
17,148.9	83.5876	17,148.9	84.5735	17,148.9	84.1718	17,148.9	82.6171	17,148.9	81.5454	17,148.9	77.5138	17,148.9	77.3542	17,148.9	62.4949	17,148.9	69.3918	17,148.9	69.7754	17,148.9	69.6038	17,148.9	70.416	17,148.9	71.1617	17,148.9	69.3111	17,148.9	70.3614	17,148.9	67.5721	17,148.9	65.8768	17,148.9	62.7518	17,148.9	64.4469	17,148.9	58.4839	17,148.9	60.7845	17,148.9	56.0019	17,148.9	55.3257	17,148.9	43.1511	17,148.9	56.4135	17,148.9	48.5598	17,148.9	50.6299	17,148.9	40.19	17,148.9	51.2487	17,148.9	49.01	17,148.9	47.0536	17,148.9	46.7705	17,148.9	48.8859	17,148.9	46.7285	17,148.9	50.5327	17,148.9	51.884
17,752.4	84.4943	17,752.4	83.4255	17,752.4	85.4225	17,752.4	81.6677	17,752.4	81.8106	17,752.4	75.1379	17,752.4	78.6631	17,752.4	63.4343	17,752.4	67.9528	17,752.4	72.5843	17,752.4	73.2088	17,752.4	72.7289	17,752.4	72.6512	17,752.4	71.6896	17,752.4	72.1208	17,752.4	69.3316	17,752.4	67.8386	17,752.4	63.1665	17,752.4	65.7579	17,752.4	60.5569	17,752.4	62.2733	17,752.4	53.327	17,752.4	58.051	17,752.4	52.6022	17,752.4	56.7114	17,752.4	53.2798	17,752.4	49.8564	17,752.4	43.3402	17,752.4	48.956	17,752.4	51.153	17,752.4	48.561	17,752.4	49.2909	17,752.4	48.7627	17,752.4	47.1817	17,752.4	53.1028	17,752.4	53.4289
18,379.4	84.3799	18,379.4	82.1284	18,379.4	84.7261	18,379.4	80.1839	18,379.4	81.0871	18,379.4	73.3682	18,379.4	77.9015	18,379.4	68.5871	18,379.4	70.257	18,379.4	73.197	18,379.4	74.2628	18,379.4	72.7033	18,379.4	73.8436	18,379.4	71.3126	18,379.4	72.3012	18,379.4	68.5868	18,379.4	67.8186	18,379.4	61.4558	18,379.4	64.6674	18,379.4	59.2872	18,379.4	61.166	18,379.4	48.5311	18,379.4	57.5489	18,379.4	55.6819	18,379.4	54.7934	18,379.4	55.1474	18,379.4	45.1911	18,379.4	42.0808	18,379.4	38.3414	18,379.4	51.6713	18,379.4	51.6878	18,379.4	51.2943	18,379.4	46.0299	18,379.4	46.3362	18,379.4	54.4711	18,379.4	52.2998
19,026.9	84.036	19,026.9	81.4089	19,026.9	83.619	19,026.9	78.6748	19,026.9	80.6021	19,026.9	71.1637	19,026.9	76.9537	19,026.9	69.4777	19,026.9	73.3707	19,026.9	73.1101	19,026.9	75.3188	19,026.9	71.3111	19,026.9	74.4245	19,026.9	68.8688	19,026.9	72.8966	19,026.9	65.6171	19,026.9	67.7062	19,026.9	55.42	19,026.9	63.5624	19,026.9	54.642	19,026.9	59.4691	19,026.9	44.8737	19,026.9	58.0532	19,026.9	55.6633	19,026.9	51.8366	19,026.9	55.8928	19,026.9	26.5866	19,026.9	42.2499	19,026.9	44.5997	19,026.9	52.2382	19,026.9	53.1636	19,026.9	51.7729	19,026.9	45.8949	19,026.9	43.5635	19,026.9	52.9871	19,026.9	53.6299
19,697.8	83.993	19,697.8	81.743	19,697.8	83.0844	19,697.8	78.5881	19,697.8	80.8275	19,697.8	70.7013	19,697.8	76.7465	19,697.8	71.003	19,697.8	74.3805	19,697.8	72.9041	19,697.8	75.7807	19,697.8	69.9303	19,697.8	74.2697	19,697.8	66.8587	19,697.8	71.7179	19,697.8	65.7006	19,697.8	67.1647	19,697.8	56.7806	19,697.8	62.6231	19,697.8	49.6006	19,697.8	54.8136	19,697.8	53.9093	19,697.8	57.9182	19,697.8	57.8652	19,697.8	45.9924	19,697.8	55.6308	19,697.8	48.5307	19,697.8	45.6977	19,697.8	51.8017	19,697.8	53.0613	19,697.8	56.1538	19,697.8	52.8458	19,697.8	49.1071	19,697.8	30.7033	19,697.8	53.0462	19,697.8	53.9383
19,999.5	83.7881	19,999.5	81.7143	19,999.5	82.6534	19,999.5	78.8834	19,999.5	80.7316	19,999.5	70.5717	19,999.5	76.8802	19,999.5	70.955	19,999.5	74.5736	19,999.5	72.4839	19,999.5	75.6962	19,999.5	69.5127	19,999.5	73.9345	19,999.5	66.4247	19,999.5	70.7813	19,999.5	65.8141	19,999.5	67.0937	19,999.5	59.4461	19,999.5	62.6125	19,999.5	51.836	19,999.5	53.7419	19,999.5	56.064	19,999.5	57.8208	19,999.5	56.3168	19,999.5	35.4991	19,999.5	55.2209	19,999.5	53.2154	19,999.5	53.065	19,999.5	52.509	19,999.5	51.5379	19,999.5	56.1153	19,999.5	52.3136	19,999.5	45.7968	19,999.5	46.1129	19,999.5	52.665	19,999.5	51.4858
