"Early Reflections"											
"Floor Bounce"		"Ceiling Bounce"		"Front Wall Bounce"		"Side Wall Bounce"		"Rear Wall Bounce"		"Total Early Reflection"	
"Frequency [Hz]"	"Sound Pessure Level [dB]  / [2.83V 1m] "	"Frequency [Hz]"	"Sound Pessure Level [dB]  / [2.83V 1m] "	"Frequency [Hz]"	"Sound Pessure Level [dB]  / [2.83V 1m] "	"Frequency [Hz]"	"Sound Pessure Level [dB]  / [2.83V 1m] "	"Frequency [Hz]"	"Sound Pessure Level [dB]  / [2.83V 1m] "	"Frequency [Hz]"	"Sound Pessure Level [dB]  / [2.83V 1m] "
20.5078	50.3925	20.5078	50.9354	20.5078	50.0053	20.5078	50.7136	20.5078	57.1212	20.5078	52.0056
23.4375	54.6527	23.4375	54.6827	23.4375	54.3024	23.4375	54.6301	23.4375	59.9192	23.4375	55.6236
26.3672	58.7819	26.3672	59.0769	26.3672	58.62	26.3672	59.1311	26.3672	63.3049	26.3672	59.7231
29.2969	62.4952	29.2969	62.5652	29.2969	62.3093	29.2969	62.752	29.2969	66.1209	29.2969	63.1567
32.2266	66.2664	32.2266	66.3696	32.2266	66.125	32.2266	66.6016	32.2266	69.255	32.2266	66.8326
35.1563	69.9968	35.1563	69.8114	35.1563	69.7775	35.1563	70.1637	35.1563	72.1948	35.1563	70.3028
38.0859	73.153	38.0859	72.8561	38.0859	72.9028	38.0859	73.2632	38.0859	74.8767	38.0859	73.3375
41.0156	75.8498	41.0156	75.4192	41.0156	75.5641	41.0156	75.8701	41.0156	77.1177	41.0156	75.9054
43.9453	77.7493	43.9453	77.2067	43.9453	77.4344	43.9453	77.6934	43.9453	78.6738	43.9453	77.706
46.875	79.0181	46.875	78.3925	46.875	78.6743	46.875	78.9131	46.875	79.7125	46.875	78.9075
49.8047	79.833	49.8047	79.1375	49.8047	79.4686	49.8047	79.6808	49.8047	80.3156	49.8047	79.6628
52.7344	80.3466	52.7344	79.6021	52.7344	79.9649	52.7344	80.1645	52.7344	80.688	52.7344	80.1367
55.6641	80.7498	55.6641	79.9517	55.6641	80.35	55.6641	80.5341	55.6641	80.9577	55.6641	80.4994
58.5938	81.0321	58.5938	80.207	58.5938	80.6223	58.5938	80.7969	58.5938	81.1452	58.5938	80.7567
61.5234	81.2959	61.5234	80.4324	61.5234	80.8737	61.5234	81.0349	61.5234	81.3099	61.5234	80.9909
64.4531	81.4652	64.4531	80.5551	64.4531	81.0313	64.4531	81.1687	64.4531	81.3612	64.4531	81.1241
67.3828	81.7066	67.3828	80.7526	67.3828	81.2613	67.3828	81.3792	67.3828	81.5058	67.3828	81.3344
70.3125	81.9167	70.3125	80.9301	70.3125	81.453	70.3125	81.5731	70.3125	81.6941	70.3125	81.5274
73.2422	82.1148	73.2422	81.1201	73.2422	81.6445	73.2422	81.7742	73.2422	81.8883	73.2422	81.7237
76.1719	82.3706	76.1719	81.317	76.1719	81.8806	76.1719	81.9934	76.1719	82.0559	76.1719	81.9436
79.1016	82.4645	79.1016	81.4341	79.1016	81.9775	79.1016	82.1082	79.1016	82.1996	79.1016	82.0547
82.0313	82.8315	82.0313	81.7932	82.0313	82.3555	82.0313	82.4344	82.0313	82.4191	82.0313	82.3906
84.9609	83.093	84.9609	81.9658	84.9609	82.6251	84.9609	82.5938	84.9609	82.3384	84.9609	82.5671
87.8906	83.0588	87.8906	81.9989	87.8906	82.5864	87.8906	82.633	87.8906	82.5213	87.8906	82.5911
90.8203	82.7793	90.8203	81.7464	90.8203	82.2537	90.8203	82.4524	90.8203	82.6403	90.8203	82.3857
93.75	83.3587	93.75	82.2109	93.75	82.8445	93.75	82.9035	93.75	82.8465	93.75	82.8625
96.6797	83.611	96.6797	82.4203	96.6797	83.1145	96.6797	83.0792	96.6797	82.7858	96.6797	83.0507
102.539	83.8305	102.539	82.5959	102.539	83.2863	102.539	83.295	102.539	83.1091	102.539	83.2628
105.469	83.8433	105.469	82.5913	105.469	83.2932	105.469	83.3038	105.469	83.1376	105.469	83.2725
108.398	83.8535	108.398	82.5798	108.398	83.2969	108.398	83.3033	108.398	83.1366	108.398	83.2734
111.328	84.0241	111.328	82.7079	111.328	83.459	111.328	83.4396	111.328	83.2294	111.328	83.4156
117.188	84.4497	117.188	83.0617	117.188	83.8691	117.188	83.8021	117.188	83.5252	117.188	83.7914
120.117	84.7053	120.117	83.3127	120.117	84.1308	120.117	84.0279	120.117	83.7115	120.117	84.0292
125.977	84.6721	125.977	83.3403	125.977	84.1456	125.977	83.9986	125.977	83.5847	125.977	84.0069
128.906	84.6005	128.906	83.3361	128.906	84.1125	128.906	83.9565	128.906	83.4758	128.906	83.9602
134.766	84.6594	134.766	83.3591	134.766	84.1148	134.766	84.0155	134.766	83.72	134.766	84.0194
137.695	84.7024	137.695	83.356	137.695	84.1352	137.695	84.0303	137.695	83.7622	137.695	84.0407
143.555	84.5477	143.555	83.096	143.555	83.9396	143.555	83.8017	143.555	83.5346	143.555	83.8282
149.414	84.7602	149.414	83.0724	149.414	84.1229	149.414	83.8465	149.414	83.3929	149.414	83.9087
155.273	84.9336	155.273	83.2094	155.273	84.3096	155.273	83.9887	155.273	83.3689	155.273	84.0508
158.203	84.8711	158.203	83.2011	158.203	84.2622	158.203	83.9617	158.203	83.3792	158.203	84.0184
164.063	84.7583	164.063	83.0414	164.063	84.1047	164.063	83.8474	164.063	83.3969	164.063	83.9011
169.922	84.6532	169.922	82.8916	169.922	84.0213	169.922	83.6696	169.922	83.1605	169.922	83.7571
175.781	84.4938	175.781	82.6909	175.781	83.8345	175.781	83.4496	175.781	82.8829	175.781	83.5513
181.641	84.4886	181.641	82.5475	181.641	83.7768	181.641	83.3622	181.641	82.7779	181.641	83.4773
190.43	84.4126	190.43	82.3721	190.43	83.6949	190.43	83.2629	190.43	82.6577	190.43	83.3774
196.289	84.32	196.289	82.2837	196.289	83.6063	196.289	83.1207	196.289	82.5628	196.289	83.2676
202.148	84.3485	202.148	82.1925	202.148	83.6231	202.148	83.0256	202.148	82.3341	202.148	83.2113
210.938	84.2257	210.938	82.0566	210.938	83.5452	210.938	82.8743	210.938	82.0232	210.938	83.0728
216.797	84.0858	216.797	81.8768	216.797	83.3506	216.797	82.6796	216.797	81.8943	216.797	82.8937
225.586	84.1376	225.586	81.6862	225.586	83.381	225.586	82.5702	225.586	81.6426	225.586	82.8313
234.375	84.2526	234.375	81.6873	234.375	83.4744	234.375	82.6278	234.375	81.5266	234.375	82.889
240.234	84.0913	240.234	81.4984	240.234	83.2944	240.234	82.4146	240.234	81.3524	240.234	82.6997
249.023	84.1527	249.023	81.2232	249.023	83.3212	249.023	82.3193	249.023	80.9133	249.023	82.6246
257.813	84.0934	257.813	81.3532	257.813	83.3037	257.813	82.3923	257.813	81.1218	257.813	82.6632
266.602	83.8404	266.602	80.71	266.602	82.9308	266.602	81.8786	266.602	80.4831	266.602	82.2159
278.32	83.438	278.32	80.3448	278.32	82.7322	278.32	81.6567	278.32	80.3989	278.32	81.971
287.109	83.5227	287.109	80.5789	287.109	82.8634	287.109	81.6495	287.109	80.1883	287.109	82.0272
295.898	83.7172	295.898	80.5666	295.898	83.0065	295.898	81.6769	295.898	79.9142	295.898	82.0952
307.617	83.5741	307.617	80.3697	307.617	82.8232	307.617	81.6226	307.617	79.9843	307.617	81.981
319.336	83.5231	319.336	80.2416	319.336	82.8368	319.336	81.4457	319.336	79.5664	319.336	81.8753
331.055	83.1911	331.055	80.2863	331.055	82.6858	331.055	81.325	331.055	79.355	331.055	81.7167
342.773	82.7471	342.773	79.4613	342.773	82.1365	342.773	80.6337	342.773	78.9146	342.773	81.1206
354.492	83.2808	354.492	79.7387	354.492	82.7124	354.492	81.0943	354.492	78.6148	354.492	81.5707
366.211	84.065	366.211	80.2341	366.211	83.5092	366.211	82.0507	366.211	79.3774	366.211	82.3973
377.93	84.6673	377.93	81.2388	377.93	84.2064	377.93	82.8519	377.93	80.4649	377.93	83.1613
392.578	84.2282	392.578	81.412	392.578	84.0486	392.578	82.7009	392.578	80.3948	392.578	82.9924
407.227	83.8983	407.227	80.8602	407.227	83.5705	407.227	81.9832	407.227	79.8658	407.227	82.444
421.875	84.0715	421.875	80.5772	421.875	83.7244	421.875	82.2407	421.875	79.4479	421.875	82.5697
436.523	83.9424	436.523	80.4912	436.523	83.6633	436.523	81.9555	436.523	79.745	436.523	82.4383
451.172	84.227	451.172	81.2824	451.172	84.3947	451.172	82.5265	451.172	79.7082	451.172	83.0039
465.82	84.0495	465.82	81.6073	465.82	84.1804	465.82	82.3356	465.82	79.6705	465.82	82.8571
483.398	83.7357	483.398	81.5027	483.398	83.9284	483.398	82.1377	483.398	79.0336	483.398	82.6069
500.977	83.959	500.977	81.4471	500.977	84.0023	500.977	82.3472	500.977	79.5151	500.977	82.7606
518.555	83.1262	518.555	81.175	518.555	83.8839	518.555	82.2953	518.555	79.5121	518.555	82.5582
536.133	82.8431	536.133	81.164	536.133	83.7533	536.133	81.9526	536.133	79.127	536.133	82.3279
553.711	83.2229	553.711	81.0175	553.711	84.1092	553.711	82.2919	553.711	79.0677	553.711	82.6168
574.219	83.1666	574.219	80.6735	574.219	84.1112	574.219	82.4929	574.219	79.5539	574.219	82.6828
594.727	82.916	594.727	81.242	594.727	84.0066	594.727	82.198	594.727	79.5591	594.727	82.5502
615.234	83.0776	615.234	81.2563	615.234	83.9184	615.234	82.0401	615.234	79.0064	615.234	82.4531
638.672	83.7413	638.672	80.8636	638.672	84.4439	638.672	82.4081	638.672	79.7714	638.672	82.8825
659.18	83.1548	659.18	81.0705	659.18	84.3129	659.18	82.2568	659.18	79.2558	659.18	82.6879
682.617	83.7352	682.617	81.1269	682.617	84.5243	682.617	82.1787	682.617	79.3871	682.617	82.8346
706.055	83.7355	706.055	81.1533	706.055	84.4736	706.055	81.6567	706.055	78.7505	706.055	82.6178
732.422	83.0609	732.422	81.5983	732.422	83.8473	732.422	81.4351	732.422	78.2718	732.422	82.2163
758.789	84.3725	758.789	82.1058	758.789	84.0686	758.789	81.3793	758.789	78.8046	758.789	82.5677
785.156	83.4269	785.156	82.2003	785.156	83.226	785.156	80.6634	785.156	77.4203	785.156	81.8275
811.523	84.8899	811.523	82.8033	811.523	84.212	811.523	80.8781	811.523	78.2964	811.523	82.6355
840.82	85.4926	840.82	83.0897	840.82	84.2737	840.82	80.6548	840.82	77.5524	840.82	82.7344
870.117	85.5665	870.117	82.94	870.117	84.3211	870.117	80.3658	870.117	77.6002	870.117	82.6853
902.344	85.849	902.344	83.0255	902.344	84.2201	902.344	79.9406	902.344	76.0663	902.344	82.5833
931.641	86.0543	931.641	83.1979	931.641	84.3789	931.641	80.1687	931.641	76.4488	931.641	82.7757
966.797	85.8171	966.797	81.5373	966.797	84.0365	966.797	79.725	966.797	74.8348	966.797	82.2607
999.023	85.8218	999.023	81.711	999.023	83.8415	999.023	79.5352	999.023	74.6595	999.023	82.1573
1,034.18	86.1342	1,034.18	81.4538	1,034.18	83.6852	1,034.18	79.2896	1,034.18	73.0816	1,034.18	82.0792
1,072.27	85.7025	1,072.27	82.0097	1,072.27	83.6286	1,072.27	79.2597	1,072.27	72.9372	1,072.27	81.9868
1,110.35	85.0046	1,110.35	80.8672	1,110.35	83.1635	1,110.35	78.7455	1,110.35	72.9162	1,110.35	81.3819
1,148.44	84.8503	1,148.44	80.4491	1,148.44	82.8726	1,148.44	78.4712	1,148.44	72.9355	1,148.44	81.1237
1,189.45	84.341	1,189.45	79.2264	1,189.45	83.2788	1,189.45	78.4704	1,189.45	72.237	1,189.45	81.047
1,230.47	84.1275	1,230.47	79.4582	1,230.47	83.9243	1,230.47	78.8242	1,230.47	72.3892	1,230.47	81.3935
1,274.41	83.2514	1,274.41	79.352	1,274.41	84.7551	1,274.41	79.2874	1,274.41	73.7967	1,274.41	81.767
1,318.36	82.2599	1,318.36	78.7987	1,318.36	85.5596	1,318.36	80.1506	1,318.36	75.0768	1,318.36	82.2671
1,365.23	80.7265	1,365.23	77.7964	1,365.23	86.3686	1,365.23	80.7133	1,365.23	74.9931	1,365.23	82.7006
1,415.04	78.7607	1,415.04	76.6997	1,415.04	86.0876	1,415.04	80.2108	1,415.04	74.3155	1,415.04	82.2253
1,464.84	77.9924	1,464.84	75.8998	1,464.84	85.6142	1,464.84	79.6409	1,464.84	73.4276	1,464.84	81.6961
1,514.65	78.3325	1,514.65	74.2731	1,514.65	85.3428	1,514.65	79.5981	1,514.65	72.6936	1,514.65	81.4701
1,570.31	78.4794	1,570.31	73.8682	1,570.31	84.8476	1,570.31	79.0669	1,570.31	71.7425	1,570.31	81
1,623.05	79.1287	1,623.05	75.4151	1,623.05	84.002	1,623.05	77.6538	1,623.05	71.2097	1,623.05	80.2138
1,681.64	80.4055	1,681.64	76.5582	1,681.64	83.177	1,681.64	76.8468	1,681.64	71.365	1,681.64	79.7328
1,740.23	81.2767	1,740.23	77.4521	1,740.23	83.5118	1,740.23	77.2841	1,740.23	71.7208	1,740.23	80.1966
1,801.76	82.3225	1,801.76	77.3028	1,801.76	83.6694	1,801.76	77.487	1,801.76	71.9808	1,801.76	80.4903
1,866.21	83.2815	1,866.21	78.7395	1,866.21	83.3053	1,866.21	77.586	1,866.21	71.568	1,866.21	80.5897
1,930.66	84.2019	1,930.66	80.0609	1,930.66	82.6115	1,930.66	77.1744	1,930.66	71.4415	1,930.66	80.5254
2,000.98	84.7695	2,000.98	80.5848	2,000.98	83.5883	2,000.98	78.2117	2,000.98	71.7499	2,000.98	81.352
2,071.29	85.3469	2,071.29	80.7823	2,071.29	84.5813	2,071.29	79.299	2,071.29	72.7396	2,071.29	82.1892
2,144.53	85.8186	2,144.53	81.2898	2,144.53	84.4161	2,144.53	79.1311	2,144.53	72.7812	2,144.53	82.245
2,217.77	85.8496	2,217.77	81.0744	2,217.77	83.5583	2,217.77	78.7277	2,217.77	72.3503	2,217.77	81.7873
2,296.88	85.3042	2,296.88	81.4704	2,296.88	84.3233	2,296.88	79.6276	2,296.88	72.6049	2,296.88	82.1901
2,378.91	85.0259	2,378.91	81.3848	2,378.91	84.6027	2,378.91	79.6523	2,378.91	72.6016	2,378.91	82.2499
2,460.94	85.0141	2,460.94	80.437	2,460.94	83.5511	2,460.94	78.5077	2,460.94	71.3784	2,460.94	81.4369
2,548.83	84.6755	2,548.83	80.6502	2,548.83	83.2665	2,548.83	78.2256	2,548.83	70.2717	2,548.83	81.1784
2,639.65	84.2893	2,639.65	80.4534	2,639.65	83.2872	2,639.65	78.7426	2,639.65	70.6777	2,639.65	81.1834
2,733.4	84.0711	2,733.4	80.5095	2,733.4	82.9593	2,733.4	78.7535	2,733.4	70.6364	2,733.4	80.9987
2,827.15	83.8958	2,827.15	80.4312	2,827.15	83.2144	2,827.15	78.9742	2,827.15	70.5655	2,827.15	81.1113
2,926.76	83.8517	2,926.76	80.5739	2,926.76	83.2649	2,926.76	78.7076	2,926.76	69.9388	2,926.76	81.0713
3,032.23	83.8249	3,032.23	80.8995	3,032.23	83.246	3,032.23	77.7018	3,032.23	68.8274	3,032.23	80.8785
3,137.7	83.7858	3,137.7	80.6687	3,137.7	83.9592	3,137.7	78.0711	3,137.7	69.0127	3,137.7	81.2591
3,249.02	84.0822	3,249.02	80.5619	3,249.02	84.3215	3,249.02	78.3788	3,249.02	69.6669	3,249.02	81.5546
3,363.28	83.9523	3,363.28	80.4548	3,363.28	84.5053	3,363.28	78.6556	3,363.28	69.7006	3,363.28	81.6658
3,483.4	83.3608	3,483.4	80.36	3,483.4	85.0151	3,483.4	79.3035	3,483.4	70.347	3,483.4	81.959
3,606.45	82.8029	3,606.45	80.1887	3,606.45	84.8932	3,606.45	79.4524	3,606.45	71.3329	3,606.45	81.8354
3,732.42	82.437	3,732.42	79.5159	3,732.42	84.4669	3,732.42	79.4277	3,732.42	71.2286	3,732.42	81.495
3,864.26	81.6443	3,864.26	78.8982	3,864.26	84.7355	3,864.26	79.8432	3,864.26	70.9796	3,864.26	81.5973
3,999.02	81.0398	3,999.02	78.7552	3,999.02	84.8074	3,999.02	79.9183	3,999.02	70.6362	3,999.02	81.579
4,139.65	80.6462	4,139.65	78.4438	4,139.65	84.2608	4,139.65	79.4806	4,139.65	69.9796	4,139.65	81.0904
4,286.13	80.6824	4,286.13	77.9889	4,286.13	84.6625	4,286.13	79.5405	4,286.13	68.8597	4,286.13	81.3041
4,438.48	80.4531	4,438.48	77.4363	4,438.48	84.1151	4,438.48	79.0054	4,438.48	68.2034	4,438.48	80.7917
4,593.75	80.9619	4,593.75	77.3123	4,593.75	84.384	4,593.75	79.185	4,593.75	68.1134	4,593.75	81.0422
4,757.81	81.7273	4,757.81	77.7267	4,757.81	84.2922	4,757.81	79.3831	4,757.81	68.9092	4,757.81	81.1598
4,924.8	81.8812	4,924.8	77.4666	4,924.8	84.4676	4,924.8	80.056	4,924.8	69.2753	4,924.8	81.4453
5,097.66	82.2971	5,097.66	77.3556	5,097.66	84.4683	5,097.66	80.0408	5,097.66	69.2296	5,097.66	81.4915
5,279.3	82.2549	5,279.3	76.4798	5,279.3	84.011	5,279.3	79.8457	5,279.3	69.5146	5,279.3	81.1552
5,463.87	82.0956	5,463.87	76.1441	5,463.87	84.5105	5,463.87	79.8038	5,463.87	68.6707	5,463.87	81.371
5,657.23	81.671	5,657.23	75.9925	5,657.23	83.9998	5,657.23	79.4158	5,657.23	68.8482	5,657.23	80.9226
5,856.45	81.221	5,856.45	74.9955	5,856.45	83.986	5,856.45	79.4489	5,856.45	68.3261	5,856.45	80.8279
6,061.52	80.6837	6,061.52	74.4489	6,061.52	84.2309	6,061.52	79.3932	6,061.52	67.2857	6,061.52	80.8673
6,275.39	80.3091	6,275.39	74.4691	6,275.39	84.2872	6,275.39	79.4446	6,275.39	67.1523	6,275.39	80.8747
6,498.05	80.0416	6,498.05	74.5122	6,498.05	83.8999	6,498.05	79.3935	6,498.05	68.0674	6,498.05	80.614
6,726.56	80.1494	6,726.56	74.4345	6,726.56	83.5774	6,726.56	79.1917	6,726.56	67.5831	6,726.56	80.378
6,963.87	80.2744	6,963.87	74.6773	6,963.87	83.3345	6,963.87	78.7736	6,963.87	67.3016	6,963.87	80.1417
7,209.96	80.1235	7,209.96	75.4243	7,209.96	83.2526	7,209.96	78.2686	7,209.96	66.4049	7,209.96	79.9629
7,464.84	80.178	7,464.84	75.9423	7,464.84	83.4581	7,464.84	78.1343	7,464.84	65.6653	7,464.84	80.0734
7,728.52	80.0837	7,728.52	76.4296	7,728.52	83.8649	7,728.52	78.4706	7,728.52	65.5464	7,728.52	80.408
8,000.98	80.0887	8,000.98	76.6738	8,000.98	84.6416	8,000.98	79.1077	8,000.98	66.3707	8,000.98	81.0501
8,282.23	79.8219	8,282.23	76.3208	8,282.23	85.3756	8,282.23	79.6226	8,282.23	67.286	8,282.23	81.6055
8,575.2	79.9399	8,575.2	75.7456	8,575.2	85.4739	8,575.2	79.3352	8,575.2	66.5622	8,575.2	81.5894
8,876.95	80.2176	8,876.95	75.5077	8,876.95	85.1998	8,876.95	78.7393	8,876.95	65.1062	8,876.95	81.288
9,190.43	80.0161	9,190.43	74.9788	9,190.43	84.6137	9,190.43	78.196	9,190.43	64.4651	9,190.43	80.7487
9,512.7	79.5503	9,512.7	74.8829	9,512.7	84.0687	9,512.7	77.7127	9,512.7	64.761	9,512.7	80.2416
9,849.61	77.4463	9,849.61	72.8847	9,849.61	82.208	9,849.61	75.4896	9,849.61	60.9491	9,849.61	78.2718
10,195.3	77.483	10,195.3	70.9782	10,195.3	81.5861	10,195.3	74.9621	10,195.3	59.0176	10,195.3	77.6974
10,555.7	78.3143	10,555.7	72.1585	10,555.7	82.7278	10,555.7	76.4065	10,555.7	60.9209	10,555.7	78.8725
10,927.7	79.0153	10,927.7	72.9325	10,927.7	83.2435	10,927.7	76.4538	10,927.7	60.985	10,927.7	79.3158
11,314.5	79.8315	11,314.5	73.8709	11,314.5	83.5317	11,314.5	76.1971	11,314.5	59.6148	11,314.5	79.5788
11,712.9	79.8765	11,712.9	74.9241	11,712.9	83.2856	11,712.9	75.9308	11,712.9	58.688	11,712.9	79.4114
12,126	79.6143	12,126	74.9899	12,126	83.2451	12,126	75.6831	12,126	59.0868	12,126	79.3127
12,553.7	79.5844	12,553.7	75.1538	12,553.7	82.9398	12,553.7	74.9907	12,553.7	58.3976	12,553.7	79.0016
12,996.1	79.7126	12,996.1	74.9887	12,996.1	82.4408	12,996.1	74.0318	12,996.1	57.6399	12,996.1	78.541
13,453.1	79.9882	13,453.1	75.3561	13,453.1	81.9039	13,453.1	73.2786	13,453.1	57.8141	13,453.1	78.1595
13,927.7	80.3295	13,927.7	75.994	13,927.7	81.2689	13,927.7	72.4616	13,927.7	56.6203	13,927.7	77.7762
14,419.9	81.1237	14,419.9	77.0455	14,419.9	80.9966	14,419.9	72.0052	14,419.9	56.3156	14,419.9	77.8397
14,929.7	80.8262	14,929.7	76.5923	14,929.7	79.5469	14,929.7	70.5173	14,929.7	54.5024	14,929.7	76.7981
15,454.1	79.8393	15,454.1	74.6683	15,454.1	76.5252	15,454.1	67.6337	15,454.1	50.4355	15,454.1	74.5998
15,999	79.6348	15,999	73.5801	15,999	82.3409	15,999	72.2364	15,999	55.3471	15,999	78.1869
16,564.5	77.8841	16,564.5	70.6117	16,564.5	79.9105	16,564.5	69.6339	16,564.5	52.2326	16,564.5	75.8371
17,147.5	75.581	17,147.5	68.8736	17,147.5	76.5221	17,147.5	65.7565	17,147.5	48.3008	17,147.5	72.6962
17,753.9	73.6234	17,753.9	63.8635	17,753.9	77.8702	17,753.9	66.472	17,753.9	48.2924	17,753.9	73.2511
18,377.9	73.6612	18,377.9	60.1203	18,377.9	73.5691	18,377.9	62.283	18,377.9	43.9551	18,377.9	69.8123
19,028.3	72.353	19,028.3	58.4337	19,028.3	73.0295	19,028.3	59.164	19,028.3	39.3398	19,028.3	68.9158
19,699.2	58.2642	19,699.2	49.5288	19,699.2	60.883	19,699.2	56.0391	19,699.2	39.2034	19,699.2	57.5824
19,998	54.4126	19,998	50.1805	19,998	66.1157	19,998	56.9176	19,998	38.7359	19,998	61.2537
