"SPL Horizontal"																																																																							
"On-Axis"		"10°"		"-10°"		"20°"		"-20°"		"30°"		"-30°"		"40°"		"-40°"		"50°"		"-50°"		"60°"		"-60°"		"70°"		"-70°"		"80°"		"-80°"		"90°"		"-90°"		"100°"		"-100°"		"110°"		"-110°"		"120°"		"-120°"		"130°"		"-130°"		"140°"		"-140°"		"150°"		"-150°"		"160°"		"-160°"		"170°"		"-170°"		"180°"	
"Frequency [Hz]"	"Sound Pessure Level [dB]  / [2.83V 1m] "	"Frequency [Hz]"	"Sound Pessure Level [dB]  / [2.83V 1m] "	"Frequency [Hz]"	"Sound Pessure Level [dB]  / [2.83V 1m] "	"Frequency [Hz]"	"Sound Pessure Level [dB]  / [2.83V 1m] "	"Frequency [Hz]"	"Sound Pessure Level [dB]  / [2.83V 1m] "	"Frequency [Hz]"	"Sound Pessure Level [dB]  / [2.83V 1m] "	"Frequency [Hz]"	"Sound Pessure Level [dB]  / [2.83V 1m] "	"Frequency [Hz]"	"Sound Pessure Level [dB]  / [2.83V 1m] "	"Frequency [Hz]"	"Sound Pessure Level [dB]  / [2.83V 1m] "	"Frequency [Hz]"	"Sound Pessure Level [dB]  / [2.83V 1m] "	"Frequency [Hz]"	"Sound Pessure Level [dB]  / [2.83V 1m] "	"Frequency [Hz]"	"Sound Pessure Level [dB]  / [2.83V 1m] "	"Frequency [Hz]"	"Sound Pessure Level [dB]  / [2.83V 1m] "	"Frequency [Hz]"	"Sound Pessure Level [dB]  / [2.83V 1m] "	"Frequency [Hz]"	"Sound Pessure Level [dB]  / [2.83V 1m] "	"Frequency [Hz]"	"Sound Pessure Level [dB]  / [2.83V 1m] "	"Frequency [Hz]"	"Sound Pessure Level [dB]  / [2.83V 1m] "	"Frequency [Hz]"	"Sound Pessure Level [dB]  / [2.83V 1m] "	"Frequency [Hz]"	"Sound Pessure Level [dB]  / [2.83V 1m] "	"Frequency [Hz]"	"Sound Pessure Level [dB]  / [2.83V 1m] "	"Frequency [Hz]"	"Sound Pessure Level [dB]  / [2.83V 1m] "	"Frequency [Hz]"	"Sound Pessure Level [dB]  / [2.83V 1m] "	"Frequency [Hz]"	"Sound Pessure Level [dB]  / [2.83V 1m] "	"Frequency [Hz]"	"Sound Pessure Level [dB]  / [2.83V 1m] "	"Frequency [Hz]"	"Sound Pessure Level [dB]  / [2.83V 1m] "	"Frequency [Hz]"	"Sound Pessure Level [dB]  / [2.83V 1m] "	"Frequency [Hz]"	"Sound Pessure Level [dB]  / [2.83V 1m] "	"Frequency [Hz]"	"Sound Pessure Level [dB]  / [2.83V 1m] "	"Frequency [Hz]"	"Sound Pessure Level [dB]  / [2.83V 1m] "	"Frequency [Hz]"	"Sound Pessure Level [dB]  / [2.83V 1m] "	"Frequency [Hz]"	"Sound Pessure Level [dB]  / [2.83V 1m] "	"Frequency [Hz]"	"Sound Pessure Level [dB]  / [2.83V 1m] "	"Frequency [Hz]"	"Sound Pessure Level [dB]  / [2.83V 1m] "	"Frequency [Hz]"	"Sound Pessure Level [dB]  / [2.83V 1m] "	"Frequency [Hz]"	"Sound Pessure Level [dB]  / [2.83V 1m] "	"Frequency [Hz]"	"Sound Pessure Level [dB]  / [2.83V 1m] "
20.5078	50.1768	20.5078	50.1524	20.5078	50.0973	20.5078	50.0483	20.5078	49.9221	20.5078	49.9254	20.5078	49.6955	20.5078	49.889	20.5078	49.5107	20.5078	50.0767	20.5078	49.5128	20.5078	50.6038	20.5078	49.8586	20.5078	51.4883	20.5078	50.6222	20.5078	52.6365	20.5078	51.7347	20.5078	53.9083	20.5078	53.0396	20.5078	55.1833	20.5078	54.3869	20.5078	56.3815	20.5078	55.6754	20.5078	57.4565	20.5078	56.8475	20.5078	58.3822	20.5078	57.8728	20.5078	59.1438	20.5078	58.7349	20.5078	59.7322	20.5078	59.4246	20.5078	60.1415	20.5078	59.9359	20.5078	60.3679	20.5078	60.2649	20.5078	60.4092
23.4375	54.4452	23.4375	54.4076	23.4375	54.3986	23.4375	54.3024	23.4375	54.2746	23.4375	54.172	23.4375	54.1051	23.4375	54.0905	23.4375	53.9528	23.4375	54.1592	23.4375	53.9144	23.4375	54.4788	23.4375	54.1023	23.4375	55.0985	23.4375	54.5968	23.4375	55.9832	23.4375	55.3955	23.4375	57.035	23.4375	56.4136	23.4375	58.1444	23.4375	57.5343	23.4375	59.224	23.4375	58.6559	23.4375	60.2151	23.4375	59.7081	23.4375	61.0814	23.4375	60.6471	23.4375	61.8013	23.4375	61.4468	23.4375	62.3612	23.4375	62.0915	23.4375	62.7529	23.4375	62.5713	23.4375	62.9713	23.4375	62.8799	23.4375	63.0138
26.3672	58.6739	26.3672	58.6666	26.3672	58.6455	26.3672	58.6355	26.3672	58.5865	26.3672	58.6103	26.3672	58.5195	26.3672	58.6371	26.3672	58.4852	26.3672	58.7736	26.3672	58.5399	26.3672	59.0738	26.3672	58.7444	26.3672	59.5665	26.3672	59.1431	26.3672	60.24	26.3672	59.7427	26.3672	61.0462	26.3672	60.5071	26.3672	61.9195	26.3672	61.3728	26.3672	62.7957	26.3672	62.2708	26.3672	63.6226	26.3672	63.142	26.3672	64.3619	26.3672	63.9418	26.3672	64.9864	26.3672	64.6385	26.3672	65.4774	26.3672	65.2099	26.3672	65.8226	26.3672	65.6412	26.3672	66.014	26.3672	65.9224	26.3672	66.0475
29.2969	62.3357	29.2969	62.3289	29.2969	62.3232	29.2969	62.3114	29.2969	62.295	29.2969	62.3039	29.2969	62.2667	29.2969	62.3384	29.2969	62.2657	29.2969	62.4544	29.2969	62.3294	29.2969	62.6901	29.2969	62.4982	29.2969	63.07	29.2969	62.8047	29.2969	63.5942	29.2969	63.261	29.2969	64.2362	29.2969	63.8522	29.2969	64.9513	29.2969	64.5404	29.2969	65.6888	29.2969	65.2763	29.2969	66.4017	29.2969	66.0104	29.2969	67.0515	29.2969	66.7	29.2969	67.6088	29.2969	67.3116	29.2969	68.052	29.2969	67.8201	29.2969	68.3661	29.2969	68.2073	29.2969	68.5416	29.2969	68.461	29.2969	68.5735
32.2266	66.1173	32.2266	66.1275	32.2266	66.1069	32.2266	66.1435	32.2266	66.0986	32.2266	66.1784	32.2266	66.1022	32.2266	66.2518	32.2266	66.1347	32.2266	66.3867	32.2266	66.2186	32.2266	66.605	32.2266	66.3778	32.2266	66.921	32.2266	66.6322	32.2266	67.336	32.2266	66.9909	32.2266	67.8362	32.2266	67.4481	32.2266	68.3954	32.2266	67.9834	32.2266	68.9797	32.2266	68.5654	32.2266	69.554	32.2266	69.1586	32.2266	70.086	32.2266	69.7283	32.2266	70.5481	32.2266	70.2438	32.2266	70.9188	32.2266	70.6802	32.2266	71.1819	32.2266	71.018	32.2266	71.3268	32.2266	71.2433	32.2266	71.3475
35.1563	69.7629	35.1563	69.7734	35.1563	69.7572	35.1563	69.7923	35.1563	69.7577	35.1563	69.8279	35.1563	69.7709	35.1563	69.8924	35.1563	69.8074	35.1563	70.0008	35.1563	69.8814	35.1563	70.1675	35.1563	70.0083	35.1563	70.4036	35.1563	70.2016	35.1563	70.7129	35.1563	70.4694	35.1563	71.0897	35.1563	70.8113	35.1563	71.5189	35.1563	71.2167	35.1563	71.9775	35.1563	71.6664	35.1563	72.4388	35.1563	72.135	35.1563	72.8753	35.1563	72.5949	35.1563	73.2617	35.1563	73.0191	35.1563	73.5763	35.1563	73.3837	35.1563	73.8026	35.1563	73.669	35.1563	73.9287	35.1563	73.8604	35.1563	73.9483
38.0859	72.8796	38.0859	72.8933	38.0859	72.8759	38.0859	72.9192	38.0859	72.883	38.0859	72.9626	38.0859	72.905	38.0859	73.0311	38.0859	72.9486	38.0859	73.1338	38.0859	73.0224	38.0859	73.2798	38.0859	73.1361	38.0859	73.4761	38.0859	73.2983	38.0859	73.7255	38.0859	73.5146	38.0859	74.025	38.0859	73.7854	38.0859	74.3652	38.0859	74.1049	38.0859	74.7304	38.0859	74.4609	38.0859	75.1011	38.0859	74.8356	38.0859	75.4555	38.0859	75.2081	38.0859	75.7724	38.0859	75.5564	38.0859	76.0325	38.0859	75.8596	38.0859	76.2203	38.0859	76.0997	38.0859	76.3245	38.0859	76.2626	38.0859	76.3389
41.0156	75.5398	41.0156	75.5542	41.0156	75.5366	41.0156	75.5811	41.0156	75.545	41.0156	75.6237	41.0156	75.5674	41.0156	75.6867	41.0156	75.6078	41.0156	75.7757	41.0156	75.6717	41.0156	75.8961	41.0156	75.765	41.0156	76.0527	41.0156	75.8933	41.0156	76.2477	41.0156	76.0608	41.0156	76.4796	41.0156	76.2685	41.0156	76.7427	41.0156	76.5135	41.0156	77.0267	41.0156	76.7884	41.0156	77.3174	41.0156	77.0812	41.0156	77.5981	41.0156	77.3762	41.0156	77.8515	41.0156	77.6562	41.0156	78.0609	41.0156	77.9034	41.0156	78.2124	41.0156	78.1019	41.0156	78.2955	41.0156	78.2386	41.0156	78.3045
43.9453	77.4112	43.9453	77.4281	43.9453	77.4052	43.9453	77.4567	43.9453	77.4106	43.9453	77.4988	43.9453	77.429	43.9453	77.5571	43.9453	77.4631	43.9453	77.635	43.9453	77.5161	43.9453	77.736	43.9453	77.5922	43.9453	77.8631	43.9453	77.695	43.9453	78.0179	43.9453	77.8275	43.9453	78.1999	43.9453	77.9908	43.9453	78.4054	43.9453	78.1833	43.9453	78.6276	43.9453	78.4002	43.9453	78.8563	43.9453	78.6329	43.9453	79.0787	43.9453	78.87	43.9453	79.2807	43.9453	79.0975	43.9453	79.4484	43.9453	79.3008	43.9453	79.5696	43.9453	79.4661	43.9453	79.6349	43.9453	79.5816	43.9453	79.6392
46.875	78.6503	46.875	78.6665	46.875	78.6458	46.875	78.6946	46.875	78.6533	46.875	78.7356	46.875	78.6737	46.875	78.7909	46.875	78.7086	46.875	78.8624	46.875	78.7598	46.875	78.9518	46.875	78.8296	46.875	79.0608	46.875	78.9201	46.875	79.1903	46.875	79.0329	46.875	79.3396	46.875	79.1686	46.875	79.5063	46.875	79.3258	46.875	79.6854	46.875	79.5012	46.875	79.8694	46.875	79.6887	46.875	80.0487	46.875	79.8796	46.875	80.2122	46.875	80.0634	46.875	80.3485	46.875	80.2283	46.875	80.4473	46.875	80.3628	46.875	80.5008	46.875	80.4572	46.875	80.5043
49.8047	79.4452	49.8047	79.4602	49.8047	79.4418	49.8047	79.4867	49.8047	79.4501	49.8047	79.5251	49.8047	79.4706	49.8047	79.5757	49.8047	79.5039	49.8047	79.6392	49.8047	79.5508	49.8047	79.7162	49.8047	79.6124	49.8047	79.8075	49.8047	79.6894	49.8047	79.9132	49.8047	79.7826	49.8047	80.0327	49.8047	79.8921	49.8047	80.1642	49.8047	80.017	49.8047	80.3044	49.8047	80.1549	49.8047	80.448	49.8047	80.3016	49.8047	80.588	49.8047	80.451	49.8047	80.716	49.8047	80.5952	49.8047	80.8231	49.8047	80.7253	49.8047	80.9009	49.8047	80.8319	49.8047	80.9428	49.8047	80.9072	49.8047	80.9451
52.7344	79.9412	52.7344	79.9546	52.7344	79.9396	52.7344	79.9798	52.7344	79.95	52.7344	80.0164	52.7344	79.9723	52.7344	80.0644	52.7344	80.0065	52.7344	80.1235	52.7344	80.0526	52.7344	80.1936	52.7344	80.1105	52.7344	80.2742	52.7344	80.1802	52.7344	80.365	52.7344	80.2615	52.7344	80.4652	52.7344	80.3541	52.7344	80.5732	52.7344	80.4571	52.7344	80.6866	52.7344	80.5687	52.7344	80.8015	52.7344	80.6859	52.7344	80.9128	52.7344	80.8044	52.7344	81.0143	52.7344	80.9184	52.7344	81.099	52.7344	81.0212	52.7344	81.1607	52.7344	81.1056	52.7344	81.1938	52.7344	81.1653	52.7344	81.1955
55.6641	80.3268	55.6641	80.339	55.6641	80.3263	55.6641	80.3626	55.6641	80.3375	55.6641	80.3972	55.6641	80.3602	55.6641	80.4419	55.6641	80.3939	55.6641	80.4959	55.6641	80.4379	55.6641	80.5583	55.6641	80.4915	55.6641	80.6283	55.6641	80.5539	55.6641	80.7049	55.6641	80.6243	55.6641	80.7871	55.6641	80.7019	55.6641	80.8737	55.6641	80.7858	55.6641	80.9628	55.6641	80.8745	55.6641	81.052	55.6641	80.966	55.6641	81.1376	55.6641	81.0573	55.6641	81.2153	55.6641	81.1445	55.6641	81.2802	55.6641	81.2227	55.6641	81.3275	55.6641	81.2868	55.6641	81.3531	55.6641	81.3321	55.6641	81.3548
58.5938	80.5992	58.5938	80.6095	58.5938	80.6006	58.5938	80.6313	58.5938	80.6137	58.5938	80.6638	58.5938	80.6379	58.5938	80.7058	58.5938	80.6725	58.5938	80.756	58.5938	80.7161	58.5938	80.8129	58.5938	80.7675	58.5938	80.8752	58.5938	80.8253	58.5938	80.9415	58.5938	80.8881	58.5938	81.0106	58.5938	80.9548	58.5938	81.0812	58.5938	81.0241	58.5938	81.152	58.5938	81.095	58.5938	81.2213	58.5938	81.166	58.5938	81.2869	58.5938	81.2352	58.5938	81.3458	58.5938	81.3001	58.5938	81.3949	58.5938	81.3576	58.5938	81.4308	58.5938	81.4043	58.5938	81.4507	58.5938	81.4369	58.5938	81.4528
61.5234	80.8513	61.5234	80.8628	61.5234	80.8511	61.5234	80.8854	61.5234	80.8624	61.5234	80.9179	61.5234	80.8843	61.5234	80.9589	61.5234	80.9158	61.5234	81.0067	61.5234	80.9555	61.5234	81.0593	61.5234	81.0014	61.5234	81.1149	61.5234	81.052	61.5234	81.1718	61.5234	81.1054	61.5234	81.2285	61.5234	81.1603	61.5234	81.2838	61.5234	81.2153	61.5234	81.3366	61.5234	81.2696	61.5234	81.386	61.5234	81.3223	61.5234	81.4309	61.5234	81.3725	61.5234	81.4698	61.5234	81.419	61.5234	81.501	61.5234	81.4601	61.5234	81.5226	61.5234	81.4939	61.5234	81.5331	61.5234	81.5183	61.5234	81.5317
64.4531	81.0113	64.4531	81.0222	64.4531	81.0106	64.4531	81.0429	64.4531	81.0202	64.4531	81.0721	64.4531	81.0393	64.4531	81.1083	64.4531	81.0666	64.4531	81.1495	64.4531	81.1006	64.4531	81.1936	64.4531	81.1393	64.4531	81.2385	64.4531	81.1805	64.4531	81.2823	64.4531	81.2225	64.4531	81.3235	64.4531	81.2637	64.4531	81.3611	64.4531	81.3028	64.4531	81.3945	64.4531	81.3391	64.4531	81.4234	64.4531	81.3722	64.4531	81.4478	64.4531	81.4022	64.4531	81.4676	64.4531	81.4288	64.4531	81.4825	64.4531	81.4518	64.4531	81.492	64.4531	81.4707	64.4531	81.4957	64.4531	81.4848	64.4531	81.4933
67.3828	81.2433	67.3828	81.2518	67.3828	81.2442	67.3828	81.269	67.3828	81.2542	67.3828	81.294	67.3828	81.2726	67.3828	81.3248	67.3828	81.298	67.3828	81.3595	67.3828	81.3285	67.3828	81.3958	67.3828	81.3619	67.3828	81.4314	67.3828	81.3961	67.3828	81.4644	67.3828	81.4289	67.3828	81.4931	67.3828	81.4588	67.3828	81.5168	67.3828	81.4846	67.3828	81.535	67.3828	81.5057	67.3828	81.5482	67.3828	81.5223	67.3828	81.5571	67.3828	81.535	67.3828	81.5627	67.3828	81.5446	67.3828	81.5657	67.3828	81.5519	67.3828	81.5669	67.3828	81.5575	67.3828	81.5665	67.3828	81.5618	67.3828	81.5648
70.3125	81.4346	70.3125	81.4352	70.3125	81.4435	70.3125	81.4449	70.3125	81.4618	70.3125	81.4627	70.3125	81.4883	70.3125	81.4868	70.3125	81.5216	70.3125	81.5154	70.3125	81.5596	70.3125	81.546	70.3125	81.5998	70.3125	81.5766	70.3125	81.6397	70.3125	81.6051	70.3125	81.677	70.3125	81.6303	70.3125	81.7095	70.3125	81.6513	70.3125	81.7359	70.3125	81.6681	70.3125	81.7552	70.3125	81.6814	70.3125	81.7674	70.3125	81.6922	70.3125	81.7731	70.3125	81.7018	70.3125	81.7731	70.3125	81.7111	70.3125	81.7689	70.3125	81.7209	70.3125	81.7615	70.3125	81.7312	70.3125	81.7522	70.3125	81.7418
73.2422	81.6244	73.2422	81.6278	73.2422	81.6315	73.2422	81.641	73.2422	81.6487	73.2422	81.6628	73.2422	81.6751	73.2422	81.6913	73.2422	81.709	73.2422	81.7241	73.2422	81.7482	73.2422	81.7587	73.2422	81.79	73.2422	81.7925	73.2422	81.8315	73.2422	81.8233	73.2422	81.8699	73.2422	81.8492	73.2422	81.9028	73.2422	81.8692	73.2422	81.9284	73.2422	81.8831	73.2422	81.9457	73.2422	81.8915	73.2422	81.9546	73.2422	81.8958	73.2422	81.956	73.2422	81.8977	73.2422	81.9514	73.2422	81.899	73.2422	81.9428	73.2422	81.9013	73.2422	81.9323	73.2422	81.9057	73.2422	81.9217	73.2422	81.9126
76.1719	81.8625	76.1719	81.8646	76.1719	81.8698	76.1719	81.8757	76.1719	81.8862	76.1719	81.8946	76.1719	81.9108	76.1719	81.9193	76.1719	81.9417	76.1719	81.9475	76.1719	81.9767	76.1719	81.9766	76.1719	82.013	76.1719	82.004	76.1719	82.0476	76.1719	82.0271	76.1719	82.0778	76.1719	82.0443	76.1719	82.1011	76.1719	82.0542	76.1719	82.1158	76.1719	82.0569	76.1719	82.121	76.1719	82.0532	76.1719	82.1171	76.1719	82.0449	76.1719	82.1054	76.1719	82.0346	76.1719	82.0883	76.1719	82.0249	76.1719	82.0685	76.1719	82.0183	76.1719	82.0492	76.1719	82.017	76.1719	82.0329	76.1719	82.0218
79.1016	81.9571	79.1016	81.9592	79.1016	81.9656	79.1016	81.9713	79.1016	81.9844	79.1016	81.9923	79.1016	82.0124	79.1016	82.0202	79.1016	82.0478	79.1016	82.0527	79.1016	82.0882	79.1016	82.087	79.1016	82.1307	79.1016	82.1203	79.1016	82.1721	79.1016	82.1498	79.1016	82.2095	79.1016	82.1735	79.1016	82.2399	79.1016	82.1899	79.1016	82.2614	79.1016	82.1986	79.1016	82.2727	79.1016	82.2003	79.1016	82.2738	79.1016	82.1965	79.1016	82.266	79.1016	82.1898	79.1016	82.2513	79.1016	82.183	79.1016	82.2329	79.1016	82.1786	79.1016	82.2139	79.1016	82.179	79.1016	82.1972	79.1016	82.1852
82.0313	82.3419	82.0313	82.3522	82.0313	82.3387	82.0313	82.369	82.0313	82.3427	82.0313	82.3908	82.0313	82.3533	82.0313	82.4157	82.0313	82.3691	82.0313	82.4416	82.0313	82.3884	82.0313	82.4657	82.0313	82.4088	82.0313	82.4854	82.0313	82.4275	82.0313	82.4983	82.0313	82.4421	82.0313	82.5023	82.0313	82.4501	82.0313	82.4964	82.0313	82.4498	82.0313	82.4805	82.0313	82.4405	82.0313	82.4556	82.0313	82.4229	82.0313	82.4244	82.0313	82.3987	82.0313	82.3902	82.0313	82.371	82.0313	82.3571	82.0313	82.3437	82.0313	82.3293	82.0313	82.3209	82.0313	82.3103	82.0313	82.3063	82.0313	82.3024
84.9609	82.6251	84.9609	82.647	84.9609	82.6034	84.9609	82.6681	84.9609	82.5823	84.9609	82.6869	84.9609	82.5616	84.9609	82.7014	84.9609	82.5408	84.9609	82.7094	84.9609	82.5184	84.9609	82.7082	84.9609	82.4931	84.9609	82.6953	84.9609	82.463	84.9609	82.6687	84.9609	82.4265	84.9609	82.6269	84.9609	82.3824	84.9609	82.5695	84.9609	82.3303	84.9609	82.4977	84.9609	82.271	84.9609	82.4142	84.9609	82.2066	84.9609	82.3233	84.9609	82.1408	84.9609	82.2311	84.9609	82.0788	84.9609	82.1443	84.9609	82.0264	84.9609	82.07	84.9609	81.9896	84.9609	82.0143	84.9609	81.9736	84.9609	81.9815
87.8906	82.5759	87.8906	82.5784	87.8906	82.579	87.8906	82.5862	87.8906	82.5873	87.8906	82.5979	87.8906	82.5998	87.8906	82.6119	87.8906	82.6146	87.8906	82.6255	87.8906	82.6294	87.8906	82.636	87.8906	82.6414	87.8906	82.6406	87.8906	82.6479	87.8906	82.6365	87.8906	82.6463	87.8906	82.622	87.8906	82.6345	87.8906	82.5961	87.8906	82.6114	87.8906	82.5592	87.8906	82.5772	87.8906	82.5135	87.8906	82.5334	87.8906	82.4625	87.8906	82.4832	87.8906	82.4109	87.8906	82.4307	87.8906	82.3641	87.8906	82.3812	87.8906	82.3272	87.8906	82.3399	87.8906	82.3048	87.8906	82.3115	87.8906	82.2993
90.8203	82.2243	90.8203	82.2112	90.8203	82.2523	90.8203	82.2133	90.8203	82.2945	90.8203	82.2295	90.8203	82.349	90.8203	82.2582	90.8203	82.4132	90.8203	82.2968	90.8203	82.4838	90.8203	82.3422	90.8203	82.557	90.8203	82.3909	90.8203	82.6283	90.8203	82.4393	90.8203	82.6936	90.8203	82.4841	90.8203	82.7489	90.8203	82.5228	90.8203	82.7909	90.8203	82.5541	90.8203	82.8176	90.8203	82.5778	90.8203	82.8282	90.8203	82.5954	90.8203	82.8236	90.8203	82.6092	90.8203	82.8061	90.8203	82.6223	90.8203	82.7792	90.8203	82.6378	90.8203	82.747	90.8203	82.6578	90.8203	82.7139	90.8203	82.6834
93.75	82.8339	93.75	82.8351	93.75	82.8383	93.75	82.8411	93.75	82.8484	93.75	82.8508	93.75	82.8638	93.75	82.8626	93.75	82.8836	93.75	82.8745	93.75	82.9061	93.75	82.8844	93.75	82.9291	93.75	82.8899	93.75	82.9497	93.75	82.889	93.75	82.9649	93.75	82.88	93.75	82.9718	93.75	82.862	93.75	82.9681	93.75	82.8355	93.75	82.9523	93.75	82.8023	93.75	82.9243	93.75	82.7654	93.75	82.8858	93.75	82.7293	93.75	82.8399	93.75	82.6989	93.75	82.7913	93.75	82.6788	93.75	82.7454	93.75	82.6728	93.75	82.7077	93.75	82.6826
96.6797	83.1147	96.6797	83.1261	96.6797	83.1035	96.6797	83.137	96.6797	83.0924	96.6797	83.1464	96.6797	83.0809	96.6797	83.1526	96.6797	83.0678	96.6797	83.1533	96.6797	83.0514	96.6797	83.1459	96.6797	83.0298	96.6797	83.1278	96.6797	83.0007	96.6797	83.0964	96.6797	82.9621	96.6797	83.0497	96.6797	82.9122	96.6797	82.9868	96.6797	82.8506	96.6797	82.9086	96.6797	82.7779	96.6797	82.8178	96.6797	82.6968	96.6797	82.719	96.6797	82.6116	96.6797	82.619	96.6797	82.5287	96.6797	82.526	96.6797	82.4556	96.6797	82.4481	96.6797	82.4	96.6797	82.3929	96.6797	82.3685	96.6797	82.3657
102.539	83.2816	102.539	83.2826	102.539	83.2832	102.539	83.2857	102.539	83.2873	102.539	83.2902	102.539	83.2933	102.539	83.2946	102.539	83.2999	102.539	83.2968	102.539	83.3055	102.539	83.2947	102.539	83.3079	102.539	83.2857	102.539	83.3045	102.539	83.2673	102.539	83.2926	102.539	83.2376	102.539	83.27	102.539	83.1957	102.539	83.2351	102.539	83.142	102.539	83.1875	102.539	83.079	102.539	83.1285	102.539	83.0106	102.539	83.0612	102.539	82.9427	102.539	82.9906	102.539	82.882	102.539	82.9231	102.539	82.8354	102.539	82.8655	102.539	82.8083	102.539	82.8243	102.539	82.8045
105.469	83.2887	105.469	83.284	105.469	83.2959	105.469	83.2814	105.469	83.3053	105.469	83.2801	105.469	83.3167	105.469	83.2787	105.469	83.3289	105.469	83.2758	105.469	83.3404	105.469	83.2694	105.469	83.349	105.469	83.2571	105.469	83.3521	105.469	83.2371	105.469	83.3471	105.469	83.2076	105.469	83.3313	105.469	83.1681	105.469	83.3029	105.469	83.1192	105.469	83.261	105.469	83.0632	105.469	83.2064	105.469	83.0042	105.469	83.1417	105.469	82.9476	105.469	83.0715	105.469	82.8995	105.469	83.0016	105.469	82.866	105.469	82.939	105.469	82.852	105.469	82.89	105.469	82.8601
108.398	83.2934	108.398	83.2981	108.398	83.2906	108.398	83.3042	108.398	83.2899	108.398	83.3107	108.398	83.2914	108.398	83.3163	108.398	83.2943	108.398	83.3193	108.398	83.2976	108.398	83.3179	108.398	83.2993	108.398	83.3098	108.398	83.2973	108.398	83.2928	108.398	83.2888	108.398	83.2652	108.398	83.2714	108.398	83.2262	108.398	83.2432	108.398	83.1762	108.398	83.2033	108.398	83.1173	108.398	83.1524	108.398	83.0535	108.398	83.0933	108.398	82.99	108.398	83.0302	108.398	82.9333	108.398	82.969	108.398	82.8896	108.398	82.9165	108.398	82.8643	108.398	82.8787	108.398	82.8605
111.328	83.459	111.328	83.4669	111.328	83.4511	111.328	83.4745	111.328	83.4436	111.328	83.481	111.328	83.4363	111.328	83.4853	111.328	83.4289	111.328	83.4859	111.328	83.4205	111.328	83.4809	111.328	83.4098	111.328	83.4681	111.328	83.3951	111.328	83.4454	111.328	83.3742	111.328	83.4109	111.328	83.3453	111.328	83.3639	111.328	83.3067	111.328	83.3047	111.328	83.2581	111.328	83.2357	111.328	83.2005	111.328	83.161	111.328	83.1367	111.328	83.0861	111.328	83.0712	111.328	83.018	111.328	83.0101	111.328	82.9633	111.328	82.96	111.328	82.9279	111.328	82.9269	111.328	82.9155
117.188	83.8759	117.188	83.8725	117.188	83.8759	117.188	83.8658	117.188	83.8726	117.188	83.8556	117.188	83.8656	117.188	83.8416	117.188	83.8548	117.188	83.8229	117.188	83.8396	117.188	83.7985	117.188	83.8191	117.188	83.7668	117.188	83.7922	117.188	83.7263	117.188	83.7574	117.188	83.676	117.188	83.7134	117.188	83.6153	117.188	83.6594	117.188	83.5454	117.188	83.5953	117.188	83.4687	117.188	83.5228	117.188	83.3895	117.188	83.4447	117.188	83.3134	117.188	83.3658	117.188	83.2472	117.188	83.2921	117.188	83.1971	117.188	83.2301	117.188	83.1686	117.188	83.1861	117.188	83.1648
120.117	84.143	120.117	84.1324	120.117	84.1475	120.117	84.1157	120.117	84.1458	120.117	84.0932	120.117	84.1379	120.117	84.065	120.117	84.1241	120.117	84.0311	120.117	84.1041	120.117	83.9911	120.117	84.0777	120.117	83.9444	120.117	84.044	120.117	83.8901	120.117	84.0021	120.117	83.8278	120.117	83.951	120.117	83.7576	120.117	83.89	120.117	83.6809	120.117	83.8192	120.117	83.6004	120.117	83.7399	120.117	83.5207	120.117	83.655	120.117	83.4472	120.117	83.5688	120.117	83.3863	120.117	83.487	120.117	83.344	120.117	83.4162	120.117	83.3248	120.117	83.3625	120.117	83.331
125.977	84.1634	125.977	84.1547	125.977	84.1631	125.977	84.1367	125.977	84.1542	125.977	84.1095	125.977	84.1374	125.977	84.0729	125.977	84.113	125.977	84.027	125.977	84.0813	125.977	83.9716	125.977	84.0421	125.977	83.9066	125.977	83.9946	125.977	83.8315	125.977	83.9376	125.977	83.7466	125.977	83.8699	125.977	83.6525	125.977	83.7908	125.977	83.5515	125.977	83.7002	125.977	83.4472	125.977	83.6	125.977	83.3448	125.977	83.4937	125.977	83.2512	125.977	83.3868	125.977	83.1736	125.977	83.2863	125.977	83.1191	125.977	83.2	125.977	83.0932	125.977	83.1355	125.977	83.0987
128.906	84.1301	128.906	84.1173	128.906	84.1342	128.906	84.0956	128.906	84.1293	128.906	84.065	128.906	84.1155	128.906	84.0253	128.906	84.0926	128.906	83.9761	128.906	84.0602	128.906	83.9164	128.906	84.0174	128.906	83.8453	128.906	83.9632	128.906	83.7619	128.906	83.8962	128.906	83.6658	128.906	83.8151	128.906	83.5578	128.906	83.7193	128.906	83.44	128.906	83.6096	128.906	83.3168	128.906	83.4884	128.906	83.1947	128.906	83.3601	128.906	83.0819	128.906	83.2317	128.906	82.9874	128.906	83.1115	128.906	82.92	128.906	83.009	128.906	82.8867	128.906	82.9332	128.906	82.8911
134.766	84.1273	134.766	84.1338	134.766	84.1144	134.766	84.1339	134.766	84.0954	134.766	84.1278	134.766	84.0709	134.766	84.1155	134.766	84.0416	134.766	84.0969	134.766	84.0081	134.766	84.0714	134.766	83.9706	134.766	84.038	134.766	83.929	134.766	83.9953	134.766	83.8828	134.766	83.9424	134.766	83.8314	134.766	83.8787	134.766	83.7742	134.766	83.805	134.766	83.7114	134.766	83.7236	134.766	83.6441	134.766	83.6386	134.766	83.575	134.766	83.5557	134.766	83.508	134.766	83.4811	134.766	83.4481	134.766	83.4213	134.766	83.401	134.766	83.3814	134.766	83.3719	134.766	83.3647
137.695	84.1494	137.695	84.1455	137.695	84.146	137.695	84.1347	137.695	84.1353	137.695	84.118	137.695	84.1175	137.695	84.0964	137.695	84.0934	137.695	84.0705	137.695	84.0638	137.695	84.0405	137.695	84.029	137.695	84.0061	137.695	83.9894	137.695	83.9663	137.695	83.9448	137.695	83.92	137.695	83.895	137.695	83.8665	137.695	83.84	137.695	83.8059	137.695	83.7802	137.695	83.7397	137.695	83.717	137.695	83.671	137.695	83.6528	137.695	83.6043	137.695	83.5912	137.695	83.5447	137.695	83.5364	137.695	83.4976	137.695	83.493	137.695	83.4671	137.695	83.4652	137.695	83.4561
143.555	83.9602	143.555	83.9471	143.555	83.9624	143.555	83.9239	143.555	83.9543	143.555	83.8917	143.555	83.9369	143.555	83.8527	143.555	83.912	143.555	83.8091	143.555	83.881	143.555	83.7627	143.555	83.8453	143.555	83.7151	143.555	83.8054	143.555	83.6669	143.555	83.7611	143.555	83.6179	143.555	83.7121	143.555	83.5678	143.555	83.6577	143.555	83.5162	143.555	83.5981	143.555	83.4635	143.555	83.5345	143.555	83.4111	143.555	83.4694	143.555	83.3615	143.555	83.4066	143.555	83.318	143.555	83.3503	143.555	83.2845	143.555	83.3051	143.555	83.2645	143.555	83.2745	143.555	83.2608
149.414	84.1619	149.414	84.1476	149.414	84.1561	149.414	84.1133	149.414	84.1311	149.414	84.0603	149.414	84.0888	149.414	83.9907	149.414	84.0322	149.414	83.9075	149.414	83.9643	149.414	83.8136	149.414	83.8882	149.414	83.7126	149.414	83.8068	149.414	83.6078	149.414	83.7222	149.414	83.5023	149.414	83.6358	149.414	83.3995	149.414	83.5486	149.414	83.3026	149.414	83.4617	149.414	83.2149	149.414	83.3763	149.414	83.1395	149.414	83.2939	149.414	83.0792	149.414	83.2171	149.414	83.0359	149.414	83.1483	149.414	83.0109	149.414	83.0903	149.414	83.0046	149.414	83.0457	149.414	83.0165
155.273	84.3524	155.273	84.3465	155.273	84.3364	155.273	84.3191	155.273	84.299	155.273	84.2712	155.273	84.2416	155.273	84.2044	155.273	84.1664	155.273	84.1208	155.273	84.0758	155.273	84.0221	155.273	83.9728	155.273	83.9105	155.273	83.8599	155.273	83.7878	155.273	83.7398	155.273	83.6562	155.273	83.6146	155.273	83.5186	155.273	83.4866	155.273	83.3786	155.273	83.3585	155.273	83.241	155.273	83.2333	155.273	83.1116	155.273	83.115	155.273	82.9967	155.273	83.0078	155.273	82.9022	155.273	82.9166	155.273	82.8329	155.273	82.8459	155.273	82.7921	155.273	82.7997	155.273	82.7812
158.203	84.3026	158.203	84.2993	158.203	84.2851	158.203	84.2758	158.203	84.2474	158.203	84.2332	158.203	84.191	158.203	84.1731	158.203	84.1178	158.203	84.0975	158.203	84.0303	158.203	84.0083	158.203	83.9313	158.203	83.9075	158.203	83.8231	158.203	83.7965	158.203	83.7081	158.203	83.6771	158.203	83.5884	158.203	83.5514	158.203	83.466	158.203	83.4223	158.203	83.3437	158.203	83.2937	158.203	83.2245	158.203	83.1706	158.203	83.1126	158.203	83.0586	158.203	83.0127	158.203	82.9633	158.203	82.9295	158.203	82.8898	158.203	82.8678	158.203	82.842	158.203	82.8312	158.203	82.8223
164.063	84.1409	164.063	84.1287	164.063	84.1345	164.063	84.0987	164.063	84.1095	164.063	84.0529	164.063	84.067	164.063	83.9939	164.063	84.0092	164.063	83.9245	164.063	83.9385	164.063	83.8473	164.063	83.8577	164.063	83.7645	164.063	83.7695	164.063	83.6778	164.063	83.676	164.063	83.5884	164.063	83.5792	164.063	83.4976	164.063	83.4811	164.063	83.407	164.063	83.384	164.063	83.3186	164.063	83.2908	164.063	83.2352	164.063	83.2048	164.063	83.1598	164.063	83.1298	164.063	83.0956	164.063	83.0692	164.063	83.0456	164.063	83.0258	164.063	83.0121	164.063	83.0016	164.063	82.9971
169.922	84.0721	169.922	84.0541	169.922	84.0638	169.922	84.0111	169.922	84.0295	169.922	83.9458	169.922	83.9712	169.922	83.8619	169.922	83.8921	169.922	83.7638	169.922	83.7964	169.922	83.6562	169.922	83.6893	169.922	83.5433	169.922	83.5758	169.922	83.4292	169.922	83.4605	169.922	83.3171	169.922	83.3477	169.922	83.2103	169.922	83.2406	169.922	83.1116	169.922	83.142	169.922	83.0237	169.922	83.0538	169.922	82.9488	169.922	82.9775	169.922	82.8884	169.922	82.9143	169.922	82.8433	169.922	82.8645	169.922	82.8131	169.922	82.8282	169.922	82.7972	169.922	82.805	169.922	82.7947
175.781	83.8894	175.781	83.8641	175.781	83.8863	175.781	83.8115	175.781	83.8554	175.781	83.7341	175.781	83.7987	175.781	83.6357	175.781	83.7196	175.781	83.521	175.781	83.6222	175.781	83.3951	175.781	83.5114	175.781	83.2633	175.781	83.392	175.781	83.1304	175.781	83.2685	175.781	83.0008	175.781	83.1452	175.781	82.8786	175.781	83.0259	175.781	82.7677	175.781	82.9139	175.781	82.6714	175.781	82.8118	175.781	82.5923	175.781	82.7219	175.781	82.5323	175.781	82.6453	175.781	82.4918	175.781	82.5825	175.781	82.4698	175.781	82.5333	175.781	82.4645	175.781	82.4973	175.781	82.4742
181.641	83.8363	181.641	83.8159	181.641	83.8259	181.641	83.7658	181.641	83.7854	181.641	83.6885	181.641	83.7174	181.641	83.5881	181.641	83.6257	181.641	83.4699	181.641	83.5151	181.641	83.3397	181.641	83.3911	181.641	83.2031	181.641	83.2593	181.641	83.0659	181.641	83.1249	181.641	82.9329	181.641	82.993	181.641	82.8087	181.641	82.868	181.641	82.6971	181.641	82.7537	181.641	82.601	181.641	82.6533	181.641	82.5226	181.641	82.569	181.641	82.4626	181.641	82.5017	181.641	82.4204	181.641	82.451	181.641	82.3944	181.641	82.4154	181.641	82.3822	181.641	82.3929	181.641	82.382
190.43	83.7566	190.43	83.7443	190.43	83.737	190.43	83.7012	190.43	83.6861	190.43	83.6303	190.43	83.6062	190.43	83.5356	190.43	83.5012	190.43	83.4224	190.43	83.376	190.43	83.2962	190.43	83.2365	190.43	83.1628	190.43	83.0889	190.43	83.0276	190.43	82.9392	190.43	82.8955	190.43	82.7935	190.43	82.7709	190.43	82.6572	190.43	82.6575	190.43	82.5354	190.43	82.5582	190.43	82.4324	190.43	82.4745	190.43	82.3515	190.43	82.4066	190.43	82.2939	190.43	82.353	190.43	82.2589	190.43	82.3116	190.43	82.2437	190.43	82.2802	190.43	82.2446	190.43	82.2576
196.289	83.6789	196.289	83.6504	196.289	83.6696	196.289	83.5862	196.289	83.6229	196.289	83.4909	196.289	83.5416	196.289	83.3709	196.289	83.4308	196.289	83.2342	196.289	83.2973	196.289	83.0891	196.289	83.1489	196.289	82.9441	196.289	82.9944	196.289	82.8065	196.289	82.8419	196.289	82.6823	196.289	82.6993	196.289	82.5759	196.289	82.5729	196.289	82.4895	196.289	82.4675	196.289	82.4238	196.289	82.386	196.289	82.3771	196.289	82.3291	196.289	82.3464	196.289	82.2951	196.289	82.3273	196.289	82.28	196.289	82.3148	196.289	82.2787	196.289	82.3048	196.289	82.2853	196.289	82.2949
202.148	83.7103	202.148	83.6653	202.148	83.7101	202.148	83.5771	202.148	83.6649	202.148	83.4506	202.148	83.5777	202.148	83.293	202.148	83.4534	202.148	83.1134	202.148	83.2991	202.148	82.9224	202.148	83.1234	202.148	82.7314	202.148	82.9359	202.148	82.551	202.148	82.7468	202.148	82.3907	202.148	82.5663	202.148	82.2576	202.148	82.4038	202.148	82.1557	202.148	82.2668	202.148	82.0857	202.148	82.1606	202.148	82.0444	202.148	82.0866	202.148	82.026	202.148	82.0428	202.148	82.0224	202.148	82.0232	202.148	82.0257	202.148	82.0197	202.148	82.0288	202.148	82.0238	202.148	82.0282
210.938	83.6396	210.938	83.591	210.938	83.6394	210.938	83.4942	210.938	83.5919	210.938	83.3522	210.938	83.5009	210.938	83.1703	210.938	83.3717	210.938	82.9562	210.938	83.211	210.938	82.72	210.938	83.027	210.938	82.4737	210.938	82.8281	210.938	82.2309	210.938	82.6236	210.938	82.006	210.938	82.4229	210.938	81.8126	210.938	82.235	210.938	81.6612	210.938	82.0684	210.938	81.5579	210.938	81.9296	210.938	81.5022	210.938	81.8221	210.938	81.4874	210.938	81.7451	210.938	81.5021	210.938	81.6933	210.938	81.5331	210.938	81.6583	210.938	81.5689	210.938	81.6305	210.938	81.6019
216.797	83.4466	216.797	83.4086	216.797	83.4349	216.797	83.3216	216.797	83.3754	216.797	83.1888	216.797	83.2721	216.797	83.0157	216.797	83.1314	216.797	82.8104	216.797	82.9615	216.797	82.5832	216.797	82.772	216.797	82.3467	216.797	82.5735	216.797	82.1146	216.797	82.3767	216.797	81.9014	216.797	82.1919	216.797	81.7202	216.797	82.0278	216.797	81.5812	216.797	81.891	216.797	81.4896	216.797	81.7849	216.797	81.4443	216.797	81.7093	216.797	81.4383	216.797	81.6602	216.797	81.4599	216.797	81.6304	216.797	81.4959	216.797	81.6107	216.797	81.5343	216.797	81.5919	216.797	81.5672
225.586	83.4933	225.586	83.4731	225.586	83.4556	225.586	83.3949	225.586	83.3627	225.586	83.2603	225.586	83.2193	225.586	83.074	225.586	83.032	225.586	82.8431	225.586	82.8097	225.586	82.578	225.586	82.5628	225.586	82.2925	225.586	82.3042	225.586	82.0041	225.586	82.0482	225.586	81.733	225.586	81.8108	225.586	81.5002	225.586	81.6075	225.586	81.3239	225.586	81.4514	225.586	81.2145	225.586	81.35	225.586	81.1718	225.586	81.3023	225.586	81.1842	225.586	81.2985	225.586	81.2315	225.586	81.322	225.586	81.2909	225.586	81.353	225.586	81.3421	225.586	81.3736	225.586	81.3714
234.375	83.5894	234.375	83.5607	234.375	83.559	234.375	83.476	234.375	83.4684	234.375	83.3403	234.375	83.3187	234.375	83.1598	234.375	83.1138	234.375	82.9419	234.375	82.8603	234.375	82.6952	234.375	82.5679	234.375	82.4295	234.375	82.2497	234.375	82.1567	234.375	81.9223	234.375	81.8905	234.375	81.6053	234.375	81.6467	234.375	81.3204	234.375	81.4407	234.375	81.0884	234.375	81.2841	234.375	80.9254	234.375	81.181	234.375	80.8378	234.375	81.1256	234.375	80.8197	234.375	81.1027	234.375	80.854	234.375	81.0924	234.375	80.9172	234.375	81.0761	234.375	80.9856	234.375	81.0413
240.234	83.4155	240.234	83.3473	240.234	83.4211	240.234	83.2193	240.234	83.3634	240.234	83.0369	240.234	83.2443	240.234	82.8082	240.234	83.0677	240.234	82.5436	240.234	82.8399	240.234	82.256	240.234	82.5694	240.234	81.9603	240.234	82.2682	240.234	81.6733	240.234	81.9512	240.234	81.4127	240.234	81.6375	240.234	81.1955	240.234	81.3488	240.234	81.0353	240.234	81.1074	240.234	80.9386	240.234	80.9317	240.234	80.9017	240.234	80.8309	240.234	80.9107	240.234	80.8013	240.234	80.944	240.234	80.8263	240.234	80.9784	240.234	80.8812	240.234	80.9946	240.234	80.9401	240.234	80.9817
249.023	83.4527	249.023	83.3978	249.023	83.4402	249.023	83.276	249.023	83.3615	249.023	83.0895	249.023	83.219	249.023	82.8425	249.023	83.0164	249.023	82.5419	249.023	82.7586	249.023	82.1976	249.023	82.4527	249.023	81.823	249.023	82.1081	249.023	81.4361	249.023	81.7382	249.023	81.0591	249.023	81.3616	249.023	80.7182	249.023	81.0018	249.023	80.4391	249.023	80.6856	249.023	80.242	249.023	80.438	249.023	80.1339	249.023	80.2745	249.023	80.1052	249.023	80.1947	249.023	80.1314	249.023	80.181	249.023	80.181	249.023	80.2042	249.023	80.2247	249.023	80.2331	249.023	80.2436
257.813	83.4255	257.813	83.3712	257.813	83.4171	257.813	83.255	257.813	83.3475	257.813	83.0794	257.813	83.2194	257.813	82.8495	257.813	83.0374	257.813	82.5727	257.813	82.8071	257.813	82.2589	257.813	82.5353	257.813	81.9212	257.813	82.2306	257.813	81.5759	257.813	81.9039	257.813	81.2425	257.813	81.5695	257.813	80.9432	257.813	81.2457	257.813	80.6996	257.813	80.9541	257.813	80.5276	257.813	80.7163	257.813	80.4318	257.813	80.5485	257.813	80.4028	257.813	80.4551	257.813	80.4186	257.813	80.426	257.813	80.4518	257.813	80.4386	257.813	80.4781	257.813	80.4654	257.813	80.483
266.602	83.073	266.602	82.9947	266.602	83.0778	266.602	82.8428	266.602	83.0115	266.602	82.6198	266.602	82.8782	266.602	82.331	266.602	82.6837	266.602	81.986	266.602	82.4356	266.602	81.5985	266.602	82.1429	266.602	81.1874	266.602	81.8163	266.602	80.7769	266.602	81.4685	266.602	80.3948	266.602	81.1146	266.602	80.0698	266.602	80.7725	266.602	79.8259	266.602	80.4625	266.602	79.6764	266.602	80.2051	266.602	79.6185	266.602	80.0159	266.602	79.6334	266.602	79.9004	266.602	79.6917	266.602	79.8495	266.602	79.7616	266.602	79.8417	266.602	79.8176	266.602	79.8492	266.602	79.8463
278.32	82.8791	278.32	82.847	278.32	82.8355	278.32	82.736	278.32	82.7219	278.32	82.5462	278.32	82.5468	278.32	82.2803	278.32	82.3204	278.32	81.9444	278.32	82.0544	278.32	81.5485	278.32	81.7605	278.32	81.1092	278.32	81.4511	278.32	80.6517	278.32	81.1396	278.32	80.2115	278.32	80.842	278.32	79.8324	278.32	80.5766	278.32	79.5577	278.32	80.3626	278.32	79.4163	278.32	80.2149	278.32	79.4095	278.32	80.1378	278.32	79.5099	278.32	80.1204	278.32	79.6721	278.32	80.1384	278.32	79.8485	278.32	80.1604	278.32	80.001	278.32	80.1567	278.32	80.1062
287.109	83.0255	287.109	83.0165	287.109	82.951	287.109	82.9241	287.109	82.795	287.109	82.7495	287.109	82.5627	287.109	82.4948	287.109	82.2635	287.109	82.1631	287.109	81.9123	287.109	81.7603	287.109	81.5284	287.109	81.2982	287.109	81.1353	287.109	80.798	287.109	80.7574	287.109	80.2949	287.109	80.4179	287.109	79.8383	287.109	80.1362	287.109	79.4841	287.109	79.9257	287.109	79.2762	287.109	79.7925	287.109	79.2256	287.109	79.7337	287.109	79.3034	287.109	79.736	287.109	79.4538	287.109	79.7759	287.109	79.6181	287.109	79.8241	287.109	79.7516	287.109	79.8503	287.109	79.8303
295.898	83.1726	295.898	83.1233	295.898	83.1377	295.898	82.9959	295.898	83.0121	295.898	82.7962	295.898	82.7903	295.898	82.5295	295.898	82.4693	295.898	82.2005	295.898	82.051	295.898	81.8141	295.898	81.5459	295.898	81.3767	295.898	80.9766	295.898	80.8992	295.898	80.382	295.898	80.4013	295.898	79.8178	295.898	79.9163	295.898	79.3486	295.898	79.492	295.898	79.0306	295.898	79.1821	295.898	78.8887	295.898	79.0249	295.898	78.9055	295.898	79.0207	295.898	79.03	295.898	79.1268	295.898	79.1988	295.898	79.2769	295.898	79.3542	295.898	79.4068	295.898	79.4535	295.898	79.4722
307.617	82.9725	307.617	82.8882	307.617	82.9805	307.617	82.7268	307.617	82.9133	307.617	82.4894	307.617	82.7712	307.617	82.1797	307.617	82.5528	307.617	81.8056	307.617	82.2557	307.617	81.3803	307.617	81.8777	307.617	80.9239	307.617	81.4211	307.617	80.4636	307.617	80.8972	307.617	80.0334	307.617	80.3337	307.617	79.6705	307.617	79.7799	307.617	79.4073	307.617	79.3055	307.617	79.2624	307.617	78.9831	307.617	79.2324	307.617	78.8554	307.617	79.2911	307.617	78.9086	307.617	79.3965	307.617	79.078	307.617	79.501	307.617	79.2819	307.617	79.5622	307.617	79.4526	307.617	79.5499
319.336	83.0188	319.336	82.9597	319.336	82.9841	319.336	82.8043	319.336	82.861	319.336	82.552	319.336	82.6569	319.336	82.2043	319.336	82.381	319.336	81.7645	319.336	82.0425	319.336	81.2397	319.336	81.6499	319.336	80.6433	319.336	81.21	319.336	80.0013	319.336	80.7302	319.336	79.3591	319.336	80.2232	319.336	78.7859	319.336	79.7137	319.336	78.3649	319.336	79.2437	319.336	78.1611	319.336	78.8696	319.336	78.1818	319.336	78.6438	319.336	78.366	319.336	78.5864	319.336	78.6177	319.336	78.667	319.336	78.8468	319.336	78.8166	319.336	78.9925	319.336	78.9575	319.336	79.0278
331.055	82.8566	331.055	82.8058	331.055	82.8203	331.055	82.6649	331.055	82.7007	331.055	82.4316	331.055	82.5021	331.055	82.1044	331.055	82.2299	331.055	81.6829	331.055	81.8909	331.055	81.1693	331.055	81.4937	331.055	80.571	331.055	81.0502	331.055	79.906	331.055	80.5764	331.055	79.2113	331.055	80.0945	331.055	78.5507	331.055	79.6328	331.055	78.0137	331.055	79.225	331.055	77.6897	331.055	78.9048	331.055	77.6191	331.055	78.6962	331.055	77.7628	331.055	78.6019	331.055	78.0232	331.055	78.5976	331.055	78.2971	331.055	78.6372	331.055	78.5116	331.055	78.6653	331.055	78.6335
342.773	82.3285	342.773	82.318	342.773	82.2404	342.773	82.2114	342.773	82.0522	342.773	82.0122	342.773	81.7647	342.773	81.7241	342.773	81.3806	342.773	81.3507	342.773	80.9062	342.773	80.8965	342.773	80.3532	342.773	80.3698	342.773	79.7429	342.773	79.7871	342.773	79.1124	342.773	79.1813	342.773	78.5206	342.773	78.609	342.773	78.047	342.773	78.1499	342.773	77.7714	342.773	77.8857	342.773	77.7357	342.773	77.858	342.773	77.9136	342.773	78.0368	342.773	78.2208	342.773	78.3341	342.773	78.5554	342.773	78.6468	342.773	78.8321	342.773	78.8913	342.773	78.9947	342.773	79.0151
354.492	82.904	354.492	82.8161	354.492	82.8945	354.492	82.6342	354.492	82.7835	354.492	82.3607	354.492	82.5669	354.492	81.9964	354.492	82.2402	354.492	81.54	354.492	81.7988	354.492	80.9889	354.492	81.239	354.492	80.3419	354.492	80.5609	354.492	79.6068	354.492	79.7739	354.492	78.812	354.492	78.9078	354.492	78.0246	354.492	78.0292	354.492	77.3605	354.492	77.2554	354.492	76.9582	354.492	76.7383	354.492	76.8963	354.492	76.5872	354.492	77.1222	354.492	76.7795	354.492	77.4849	354.492	77.1712	354.492	77.828	354.492	77.593	354.492	78.0438	354.492	77.9189	354.492	78.078
366.211	83.679	366.211	83.583	366.211	83.6887	366.211	83.3965	366.211	83.615	366.211	83.1145	366.211	83.4598	366.211	82.732	366.211	83.2221	366.211	82.2438	366.211	82.8983	366.211	81.6458	366.211	82.4817	366.211	80.9375	366.211	81.9633	366.211	80.1269	366.211	81.3352	366.211	79.2409	366.211	80.5964	366.211	78.3415	366.211	79.7651	366.211	77.5408	366.211	78.8951	366.211	76.9871	366.211	78.0924	366.211	76.7892	366.211	77.5036	366.211	76.9248	366.211	77.2422	366.211	77.2478	366.211	77.2947	366.211	77.5858	366.211	77.5218	366.211	77.8139	366.211	77.7545	366.211	77.8709
377.93	84.3682	377.93	84.3319	377.93	84.3223	377.93	84.2107	377.93	84.1974	377.93	84.0014	377.93	83.9969	377.93	83.6998	377.93	83.7241	377.93	83.3	377.93	83.3814	377.93	82.7943	377.93	82.9695	377.93	82.1756	377.93	82.4887	377.93	81.4427	377.93	81.9414	377.93	80.61	377.93	81.3376	377.93	79.724	377.93	80.702	377.93	78.8838	377.93	80.0826	377.93	78.2412	377.93	79.5502	377.93	77.9404	377.93	79.1809	377.93	78.0082	377.93	79.015	377.93	78.3214	377.93	79.0246	377.93	78.7009	377.93	79.1217	377.93	79.0089	377.93	79.2007	377.93	79.1777
392.578	84.217	392.578	84.2037	392.578	84.1435	392.578	84.1029	392.578	83.9865	392.578	83.9154	392.578	83.7515	392.578	83.6417	392.578	83.4446	392.578	83.2799	392.578	83.0707	392.578	82.8245	392.578	82.6318	392.578	82.2676	392.578	82.1275	392.578	81.6031	392.578	81.5592	392.578	80.8362	392.578	80.9366	392.578	80.0002	392.578	80.2879	392.578	79.1773	392.578	79.6701	392.578	78.5074	392.578	79.1668	392.578	78.1424	392.578	78.8615	392.578	78.1397	392.578	78.7867	392.578	78.4028	392.578	78.8915	392.578	78.7562	392.578	79.0664	392.578	79.0505	392.578	79.1975	392.578	79.2037
407.227	83.786	407.227	83.7586	407.227	83.7007	407.227	83.6269	407.227	83.4997	407.227	83.4017	407.227	83.1878	407.227	83.0917	407.227	82.7777	407.227	82.6991	407.227	82.2879	407.227	82.2179	407.227	81.7403	407.227	81.6354	407.227	81.1559	407.227	80.9391	407.227	80.5542	407.227	80.1305	407.227	79.9575	407.227	79.2477	407.227	79.4001	407.227	78.3975	407.227	78.939	407.227	77.7677	407.227	78.6483	407.227	77.5521	407.227	78.5844	407.227	77.7845	407.227	78.7377	407.227	78.2915	407.227	79.0206	407.227	78.8395	407.227	79.3082	407.227	79.2631	407.227	79.4879	407.227	79.484
421.875	83.9124	421.875	83.8168	421.875	83.9106	421.875	83.6324	421.875	83.8058	421.875	83.3713	421.875	83.595	421.875	83.0459	421.875	83.2764	421.875	82.6649	421.875	82.8482	421.875	82.2265	421.875	82.3085	421.875	81.715	421.875	81.6554	421.875	81.1018	421.875	80.8895	421.875	80.3546	421.875	80.0197	421.875	79.4555	421.875	79.0769	421.875	78.4322	421.875	78.1343	421.875	77.4041	421.875	77.3238	421.875	76.6071	421.875	76.8081	421.875	76.2848	421.875	76.6766	421.875	76.45	421.875	76.8547	421.875	76.8568	421.875	77.1514	421.875	77.2326	421.875	77.38	421.875	77.4212
436.523	83.9006	436.523	83.7933	436.523	83.8838	436.523	83.5639	436.523	83.7459	436.523	83.221	436.523	83.4937	436.523	82.7818	436.523	83.1353	436.523	82.2708	436.523	82.6796	436.523	81.7177	436.523	82.135	436.523	81.1503	436.523	81.5103	436.523	80.5874	436.523	80.8181	436.523	80.0361	436.523	80.083	436.523	79.4999	436.523	79.3532	436.523	78.9962	436.523	78.7111	436.523	78.574	436.523	78.263	436.523	78.3097	436.523	78.0922	436.523	78.2636	436.523	78.1947	436.523	78.4212	436.523	78.4685	436.523	78.6836	436.523	78.7712	436.523	78.9224	436.523	78.9836	436.523	79.0378
451.172	84.6328	451.172	84.5483	451.172	84.5946	451.172	84.3413	451.172	84.4355	451.172	84.0145	451.172	84.1588	451.172	83.5727	451.172	83.7687	451.172	83.0221	451.172	83.2692	451.172	82.3696	451.172	82.6649	451.172	81.6226	451.172	81.9613	451.172	80.7913	451.172	81.1687	451.172	79.896	451.172	80.3097	451.172	78.9822	451.172	79.4326	451.172	78.1425	451.172	78.6277	451.172	77.5229	451.172	78.0262	451.172	77.2681	451.172	77.7503	451.172	77.4069	451.172	77.8198	451.172	77.8062	451.172	78.1182	451.172	78.2645	451.172	78.4679	451.172	78.6188	451.172	78.718	451.172	78.7786
465.82	84.3985	465.82	84.2876	465.82	84.3981	465.82	84.0698	465.82	84.281	465.82	83.7479	465.82	84.042	465.82	83.3226	465.82	83.6754	465.82	82.7919	465.82	83.1754	465.82	82.1531	465.82	82.5357	465.82	81.4063	465.82	81.7522	465.82	80.562	465.82	80.8301	465.82	79.6546	465.82	79.7994	465.82	78.7637	465.82	78.7456	465.82	78.0306	465.82	77.8427	465.82	77.6301	465.82	77.3306	465.82	77.661	465.82	77.3557	465.82	78.0472	465.82	77.8145	465.82	78.5907	465.82	78.446	465.82	79.0983	465.82	79.0218	465.82	79.4419	465.82	79.4103	465.82	79.554
483.398	84.1507	483.398	84.0965	483.398	84.0896	483.398	83.9261	483.398	83.9186	483.398	83.6419	483.398	83.6449	483.398	83.2477	483.398	83.2732	483.398	82.7436	483.398	82.8014	483.398	82.1219	483.398	82.2167	483.398	81.3647	483.398	81.4961	483.398	80.4445	483.398	80.6118	483.398	79.3332	483.398	79.5445	483.398	78.0281	483.398	78.316	483.398	76.6171	483.398	77.0534	483.398	75.397	483.398	76.0677	483.398	74.8737	483.398	75.7509	483.398	75.2728	483.398	76.1574	483.398	76.1912	483.398	76.9055	483.398	77.1161	483.398	77.5963	483.398	77.7784	483.398	78.0169	483.398	78.0848
500.977	84.2075	500.977	84.1376	500.977	84.1713	500.977	83.9673	500.977	84.0268	500.977	83.7045	500.977	83.7746	500.977	83.357	500.977	83.4161	500.977	82.9267	500.977	82.95	500.977	82.4049	500.977	82.3669	500.977	81.7682	500.977	81.6466	500.977	80.9796	500.977	80.7582	500.977	79.9989	500.977	79.67	500.977	78.8108	500.977	78.3795	500.977	77.4902	500.977	76.9865	500.977	76.3214	500.977	75.8205	500.977	75.8121	500.977	75.4124	500.977	76.2113	500.977	75.9398	500.977	77.1234	500.977	76.9398	500.977	78.0171	500.977	77.8948	500.977	78.606	500.977	78.5427	500.977	78.7881
518.555	84.0982	518.555	83.9769	518.555	84.1069	518.555	83.7452	518.555	84.0057	518.555	83.4133	518.555	83.7997	518.555	83.0008	518.555	83.4938	518.555	82.5329	518.555	83.0885	518.555	82.0303	518.555	82.5761	518.555	81.4935	518.555	81.9362	518.555	80.8918	518.555	81.1354	518.555	80.1679	518.555	80.1325	518.555	79.2611	518.555	78.8952	518.555	78.155	518.555	77.4464	518.555	76.9662	518.555	75.9777	518.555	76.0516	518.555	74.9901	518.555	75.8643	518.555	75.0095	518.555	76.3975	518.555	75.8409	518.555	77.1553	518.555	76.8313	518.555	77.7074	518.555	77.5567	518.555	77.859
536.133	83.9958	536.133	83.849	536.133	84.0138	536.133	83.5823	536.133	83.9017	536.133	83.2116	536.133	83.6642	536.133	82.7564	536.133	83.3089	536.133	82.2336	536.133	82.8417	536.133	81.6489	536.133	82.2606	536.133	80.9904	536.133	81.5496	536.133	80.2284	536.133	80.6751	536.133	79.3248	536.133	79.5893	536.133	78.2603	536.133	78.2494	536.133	77.0922	536.133	76.683	536.133	76.0554	536.133	75.1619	536.133	75.5804	536.133	74.3892	536.133	75.9192	536.133	74.8877	536.133	76.7691	536.133	76.1091	536.133	77.6364	536.133	77.2822	536.133	78.2155	536.133	78.0656	536.133	78.3753
553.711	84.372	553.711	84.2495	553.711	84.3536	553.711	83.9697	553.711	84.2218	553.711	83.5303	553.711	84.0086	553.711	82.9426	553.711	83.7387	553.711	82.2305	553.711	83.4173	553.711	81.4261	553.711	83.0228	553.711	80.5606	553.711	82.5065	553.711	79.6517	553.711	81.7978	553.711	78.6932	553.711	80.8069	553.711	77.6649	553.711	79.4236	553.711	76.5788	553.711	77.5166	553.711	75.5704	553.711	74.9907	553.711	74.9591	553.711	72.213	553.711	75.0325	553.711	71.1804	553.711	75.649	553.711	72.8286	553.711	76.3605	553.711	74.8195	553.711	76.8041	553.711	76.1497	553.711	76.7766
574.219	84.3579	574.219	84.3729	574.219	84.2092	574.219	84.2604	574.219	83.9332	574.219	84.0326	574.219	83.5545	574.219	83.7009	574.219	83.117	574.219	83.2686	574.219	82.674	574.219	82.7221	574.219	82.2642	574.219	82.0245	574.219	81.8822	574.219	81.1123	574.219	81.4666	574.219	79.9005	574.219	80.9152	574.219	78.2995	574.219	80.1163	574.219	76.2829	574.219	78.9816	574.219	74.1499	574.219	77.4997	574.219	73.0095	574.219	75.873	574.219	73.7114	574.219	74.72	574.219	75.164	574.219	74.7096	574.219	76.33	574.219	75.5446	574.219	76.9301	574.219	76.4361	574.219	76.9481
594.727	84.3136	594.727	84.2098	594.727	84.2504	594.727	83.9458	594.727	84.032	594.727	83.5479	594.727	83.6883	594.727	83.0586	594.727	83.2631	594.727	82.5247	594.727	82.8038	594.727	81.9755	594.727	82.3418	594.727	81.3979	594.727	81.8704	594.727	80.7272	594.727	81.3341	594.727	79.8637	594.727	80.6391	594.727	78.7097	594.727	79.675	594.727	77.2408	594.727	78.3448	594.727	75.6754	594.727	76.6365	594.727	74.7075	594.727	74.8578	594.727	74.9915	594.727	73.9707	594.727	76.0557	594.727	74.6441	594.727	77.0674	594.727	75.9896	594.727	77.6379	594.727	77.0913	594.727	77.6547
615.234	84.2085	615.234	84.111	615.234	84.1502	615.234	83.872	615.234	83.9363	615.234	83.5163	615.234	83.5832	615.234	83.0729	615.234	83.1232	615.234	82.5649	615.234	82.5979	615.234	81.9973	615.234	82.042	615.234	81.3464	615.234	81.4615	615.234	80.5535	615.234	80.8154	615.234	79.5277	615.234	80.0164	615.234	78.1581	615.234	78.9534	615.234	76.3579	615.234	77.5341	615.234	74.2491	615.234	75.7854	615.234	72.6973	615.234	74.1139	615.234	73.0117	615.234	73.485	615.234	74.527	615.234	74.2538	615.234	75.9016	615.234	75.4888	615.234	76.695	615.234	76.4402	615.234	76.8642
638.672	84.8028	638.672	84.6933	638.672	84.7169	638.672	84.3976	638.672	84.4471	638.672	83.9473	638.672	84.0237	638.672	83.3968	638.672	83.4963	638.672	82.8141	638.672	82.9296	638.672	82.2543	638.672	82.3848	638.672	81.72	638.672	81.8839	638.672	81.1357	638.672	81.3751	638.672	80.358	638.672	80.7321	638.672	79.2052	638.672	79.7893	638.672	77.4809	638.672	78.3891	638.672	75.057	638.672	76.4659	638.672	72.4659	638.672	74.3581	638.672	72.1361	638.672	73.3955	638.672	74.2333	638.672	74.4097	638.672	76.1957	638.672	76.0059	638.672	77.3136	638.672	77.153	638.672	77.6088
659.18	84.6604	659.18	84.5122	659.18	84.6197	659.18	84.1871	659.18	84.3965	659.18	83.7168	659.18	84.0159	659.18	83.1528	659.18	83.5213	659.18	82.5571	659.18	82.9662	659.18	81.9759	659.18	82.395	659.18	81.4034	659.18	81.8151	659.18	80.7619	659.18	81.1799	659.18	79.9158	659.18	80.3931	659.18	78.7007	659.18	79.324	659.18	76.9499	659.18	77.8193	659.18	74.5659	659.18	75.7382	659.18	71.9716	659.18	73.2059	659.18	71.1991	659.18	71.6044	659.18	72.9693	659.18	72.6799	659.18	74.9573	659.18	74.6707	659.18	76.1876	659.18	76.0467	659.18	76.5518
682.617	84.9248	682.617	84.8337	682.617	84.8006	682.617	84.5418	682.617	84.4616	682.617	84.0764	682.617	83.9303	682.617	83.4807	682.617	83.2628	682.617	82.8164	682.617	82.5514	682.617	82.1519	682.617	81.9022	682.617	81.5246	682.617	81.3768	682.617	80.8961	682.617	80.936	682.617	80.1422	682.617	80.4421	682.617	79.0898	682.617	79.7105	682.617	77.5641	682.617	78.5518	682.617	75.4618	682.617	76.7961	682.617	73.0868	682.617	74.42	682.617	72.0071	682.617	72.2807	682.617	73.2942	682.617	72.5715	682.617	75.1318	682.617	74.5287	682.617	76.3393	682.617	76.0664	682.617	76.6718
706.055	84.9406	706.055	84.8133	706.055	84.8166	706.055	84.4445	706.055	84.4472	706.055	83.8635	706.055	83.8527	706.055	83.1257	706.055	83.0728	706.055	82.3159	706.055	82.1804	706.055	81.5393	706.055	81.2918	706.055	80.8793	706.055	80.5406	706.055	80.3308	706.055	79.987	706.055	79.7629	706.055	79.5329	706.055	78.9507	706.055	78.9536	706.055	77.6278	706.055	77.9916	706.055	75.5181	706.055	76.4071	706.055	72.5166	706.055	74.0544	706.055	70.1759	706.055	71.5255	706.055	71.6864	706.055	71.406	706.055	74.2115	706.055	73.5627	706.055	75.7132	706.055	75.3436	706.055	76.0747
732.422	84.231	732.422	84.0946	732.422	84.1631	732.422	83.7701	732.422	83.8856	732.422	83.2854	732.422	83.4077	732.422	82.6854	732.422	82.7588	732.422	82.0307	732.422	81.9944	732.422	81.3821	732.422	81.1965	732.422	80.768	732.422	80.4562	732.422	80.1546	732.422	79.828	732.422	79.4412	732.422	79.2772	732.422	78.482	732.422	78.6645	732.422	77.1162	732.422	77.7876	732.422	75.214	732.422	76.4482	732.422	72.8711	732.422	74.563	732.422	71.1007	732.422	72.5303	732.422	71.5125	732.422	71.7607	732.422	73.1027	732.422	72.781	732.422	74.2853	732.422	74.0434	732.422	74.6116
758.789	84.5601	758.789	84.3899	758.789	84.4633	758.789	83.9655	758.789	84.1057	758.789	83.3248	758.789	83.5156	758.789	82.5407	758.789	82.757	758.789	81.7294	758.789	81.9414	758.789	81.0359	758.789	81.2098	758.789	80.5581	758.789	80.6546	758.789	80.2446	758.789	80.2344	758.789	79.8857	758.789	79.7772	758.789	79.2025	758.789	79.0556	758.789	77.9029	758.789	77.8433	758.789	75.6769	758.789	75.9448	758.789	72.3515	758.789	73.3369	758.789	69.6885	758.789	70.963	758.789	71.4022	758.789	71.1966	758.789	73.9023	758.789	73.1708	758.789	75.2471	758.789	74.7701	758.789	75.4914
785.156	83.6609	785.156	83.5031	785.156	83.5802	785.156	83.1142	785.156	83.2793	785.156	82.5286	785.156	82.7936	785.156	81.8114	785.156	82.16	785.156	81.0611	785.156	81.4099	785.156	80.3843	785.156	80.5885	785.156	79.8324	785.156	79.7854	785.156	79.3511	785.156	79.1131	785.156	78.7988	785.156	78.5904	785.156	78.0023	785.156	78.0534	785.156	76.7845	785.156	77.2241	785.156	74.9545	785.156	75.8266	785.156	72.3358	785.156	73.6497	785.156	69.2796	785.156	70.8039	785.156	68.3955	785.156	68.9402	785.156	70.337	785.156	70.0006	785.156	71.9806	785.156	71.6895	785.156	72.4345
811.523	84.7866	811.523	84.5618	811.523	84.703	811.523	84.03	811.523	84.3162	811.523	83.2168	811.523	83.64	811.523	82.2002	811.523	82.7208	811.523	81.1404	811.523	81.6676	811.523	80.2788	811.523	80.656	811.523	79.8124	811.523	79.8612	811.523	79.6746	811.523	79.3364	811.523	79.541	811.523	78.9537	811.523	79.0564	811.523	78.4672	811.523	77.9541	811.523	77.6002	811.523	76.0375	811.523	76.093	811.523	73.2752	811.523	73.8129	811.523	70.8526	811.523	71.4135	811.523	71.567	811.523	71.243	811.523	73.6746	811.523	73.0902	811.523	75.0147	811.523	74.6618	811.523	75.3268
840.82	84.8264	840.82	84.6105	840.82	84.7471	840.82	84.1123	840.82	84.3678	840.82	83.3491	840.82	83.693	840.82	82.3486	840.82	82.7418	840.82	81.1808	840.82	81.5806	840.82	80.0115	840.82	80.3803	840.82	79.1043	840.82	79.4121	840.82	78.6313	840.82	78.8515	840.82	78.4344	840.82	78.5718	840.82	78.113	840.82	78.2516	840.82	77.2625	840.82	77.5758	840.82	75.5636	840.82	76.2747	840.82	72.8629	840.82	74.1028	840.82	70.0051	840.82	71.1666	840.82	70.1455	840.82	69.8515	840.82	72.4231	840.82	71.9278	840.82	74.0958	840.82	73.9176	840.82	74.6303
870.117	84.9279	870.117	84.6968	870.117	84.838	870.117	84.1393	870.117	84.4284	870.117	83.2599	870.117	83.697	870.117	82.0977	870.117	82.6584	870.117	80.7702	870.117	81.3798	870.117	79.5339	870.117	80.0346	870.117	78.748	870.117	78.9383	870.117	78.5469	870.117	78.3943	870.117	78.6124	870.117	78.3369	870.117	78.4837	870.117	78.3422	870.117	77.8261	870.117	77.9807	870.117	76.3964	870.117	76.9414	870.117	74.0041	870.117	75.024	870.117	71.1277	870.117	72.5002	870.117	70.7844	870.117	71.3498	870.117	72.9937	870.117	72.7483	870.117	74.6057	870.117	74.3414	870.117	75.0246
902.344	84.8322	902.344	84.6035	902.344	84.7325	902.344	84.0571	902.344	84.3017	902.344	83.2015	902.344	83.5552	902.344	82.0426	902.344	82.527	902.344	80.6012	902.344	81.2598	902.344	78.9774	902.344	79.8157	902.344	77.4946	902.344	78.3468	902.344	76.7234	902.344	77.2047	902.344	76.8316	902.344	76.76	902.344	77.1435	902.344	76.7935	902.344	76.8939	902.344	76.5829	902.344	75.6249	902.344	75.5495	902.344	73.0978	902.344	73.443	902.344	69.8641	902.344	70.6481	902.344	69.4814	902.344	69.5903	902.344	71.8854	902.344	71.444	902.344	73.6161	902.344	73.3196	902.344	74.0879
931.641	84.9733	931.641	84.7655	931.641	84.864	931.641	84.2302	931.641	84.4543	931.641	83.3696	931.641	83.752	931.641	82.2003	931.641	82.749	931.641	80.7738	931.641	81.4479	931.641	79.237	931.641	79.9389	931.641	77.9159	931.641	78.5197	931.641	77.2075	931.641	77.6468	931.641	77.1273	931.641	77.4307	931.641	77.2004	931.641	77.43	931.641	76.8792	931.641	77.1369	931.641	75.7112	931.641	76.1768	931.641	73.2894	931.641	74.2414	931.641	69.7878	931.641	71.3502	931.641	69.1793	931.641	69.5813	931.641	71.9328	931.641	71.2144	931.641	73.7067	931.641	73.1787	931.641	74.0619
966.797	84.5893	966.797	84.4145	966.797	84.4735	966.797	83.945	966.797	84.0704	966.797	83.1796	966.797	83.3791	966.797	82.1067	966.797	82.3987	966.797	80.6908	966.797	81.1281	966.797	78.9191	966.797	79.5618	966.797	77.0014	966.797	77.7529	966.797	75.6812	966.797	76.0717	966.797	75.6154	966.797	75.3369	966.797	76.1018	966.797	75.6055	966.797	76.1436	966.797	75.7658	966.797	75.3179	966.797	75.0065	966.797	73.5077	966.797	73.0658	966.797	70.8034	966.797	70.2649	966.797	68.7491	966.797	68.9929	966.797	70.1014	966.797	70.827	966.797	72.2428	966.797	72.6453	966.797	73.1631
999.023	84.3668	999.023	84.1756	999.023	84.2813	999.023	83.7078	999.023	83.9222	999.023	82.9464	999.023	83.2997	999.023	81.8424	999.023	82.4089	999.023	80.3302	999.023	81.2041	999.023	78.41	999.023	79.6124	999.023	76.3814	999.023	77.6411	999.023	75.1083	999.023	75.6681	999.023	75.1448	999.023	74.6283	999.023	75.6662	999.023	74.831	999.023	75.7514	999.023	75.2899	999.023	74.9892	999.023	75.101	999.023	73.1653	999.023	73.7014	999.023	70.2583	999.023	70.7441	999.023	68.2123	999.023	68.4895	999.023	70.3674	999.023	71.1279	999.023	73.0098	999.023	73.559	999.023	74.1481
1,034.18	84.2159	1,034.18	84.0075	1,034.18	84.1445	1,034.18	83.5315	1,034.18	83.7832	1,034.18	82.7978	1,034.18	83.1213	1,034.18	81.7921	1,034.18	82.1431	1,034.18	80.4552	1,034.18	80.8189	1,034.18	78.6919	1,034.18	79.0952	1,034.18	76.4512	1,034.18	76.9361	1,034.18	74.0094	1,034.18	74.5483	1,034.18	72.5082	1,034.18	72.8492	1,034.18	72.82	1,034.18	72.7867	1,034.18	73.6733	1,034.18	73.4619	1,034.18	73.8702	1,034.18	73.6666	1,034.18	73.0796	1,034.18	72.93	1,034.18	71.6317	1,034.18	71.2078	1,034.18	70.9853	1,034.18	69.7579	1,034.18	72.0631	1,034.18	70.9904	1,034.18	73.367	1,034.18	72.9541	1,034.18	73.7848
1,072.27	84.2659	1,072.27	84.0299	1,072.27	84.135	1,072.27	83.4708	1,072.27	83.6612	1,072.27	82.6773	1,072.27	82.9037	1,072.27	81.7041	1,072.27	81.9017	1,072.27	80.4886	1,072.27	80.646	1,072.27	78.8409	1,072.27	79.0998	1,072.27	76.5416	1,072.27	77.2476	1,072.27	73.7141	1,072.27	75.1597	1,072.27	71.8375	1,072.27	73.1794	1,072.27	72.216	1,072.27	72.1642	1,072.27	72.912	1,072.27	72.3804	1,072.27	72.5832	1,072.27	72.5457	1,072.27	71.0812	1,072.27	71.532	1,072.27	69.3593	1,072.27	69.1231	1,072.27	69.8041	1,072.27	67.6902	1,072.27	71.7975	1,072.27	70.1079	1,072.27	73.2752	1,072.27	72.5688	1,072.27	73.6054
1,110.35	83.821	1,110.35	83.5888	1,110.35	83.6955	1,110.35	83.0021	1,110.35	83.2227	1,110.35	82.0925	1,110.35	82.4304	1,110.35	80.9231	1,110.35	81.3784	1,110.35	79.5517	1,110.35	80.1492	1,110.35	77.9829	1,110.35	78.7926	1,110.35	76.1767	1,110.35	77.2594	1,110.35	74.1688	1,110.35	75.4462	1,110.35	72.392	1,110.35	73.5554	1,110.35	71.7716	1,110.35	72.469	1,110.35	72.2044	1,110.35	72.431	1,110.35	72.325	1,110.35	72.272	1,110.35	71.2006	1,110.35	71.133	1,110.35	68.8469	1,110.35	68.931	1,110.35	68.3416	1,110.35	67.3275	1,110.35	70.9398	1,110.35	68.9305	1,110.35	72.6558	1,110.35	71.344	1,110.35	72.7168
1,148.44	83.6146	1,148.44	83.2842	1,148.44	83.5207	1,148.44	82.5514	1,148.44	83.0291	1,148.44	81.4906	1,148.44	82.2205	1,148.44	80.2341	1,148.44	81.2065	1,148.44	78.9136	1,148.44	80.0641	1,148.44	77.542	1,148.44	78.7774	1,148.44	75.9935	1,148.44	77.2614	1,148.44	74.1431	1,148.44	75.4602	1,148.44	72.2179	1,148.44	73.52	1,148.44	71.2638	1,148.44	72.0677	1,148.44	71.5342	1,148.44	71.7633	1,148.44	71.414	1,148.44	71.8384	1,148.44	69.7488	1,148.44	70.8444	1,148.44	66.3083	1,148.44	67.7045	1,148.44	65.5507	1,148.44	64.1334	1,148.44	69.61	1,148.44	68.1859	1,148.44	72.2806	1,148.44	71.7174	1,148.44	72.9712
1,189.45	84.0189	1,189.45	83.6842	1,189.45	83.9393	1,189.45	82.9479	1,189.45	83.4623	1,189.45	81.8633	1,189.45	82.6259	1,189.45	80.5236	1,189.45	81.4909	1,189.45	79.0395	1,189.45	80.1286	1,189.45	77.4702	1,189.45	78.5832	1,189.45	75.6962	1,189.45	76.845	1,189.45	73.4466	1,189.45	74.8562	1,189.45	70.998	1,189.45	72.6595	1,189.45	70.2484	1,189.45	71.0776	1,189.45	71.1853	1,189.45	71.3851	1,189.45	71.4732	1,189.45	72.2616	1,189.45	70.2467	1,189.45	71.8782	1,189.45	67.4827	1,189.45	69.5143	1,189.45	66.0636	1,189.45	66.4695	1,189.45	69.2917	1,189.45	68.6614	1,189.45	72.016	1,189.45	71.7136	1,189.45	72.8289
1,230.47	84.7578	1,230.47	84.4184	1,230.47	84.6281	1,230.47	83.6301	1,230.47	84.0425	1,230.47	82.4503	1,230.47	83.0506	1,230.47	81.0024	1,230.47	81.7423	1,230.47	79.4704	1,230.47	80.256	1,230.47	77.928	1,230.47	78.7455	1,230.47	76.1585	1,230.47	77.272	1,230.47	73.7942	1,230.47	75.7216	1,230.47	70.8544	1,230.47	73.9075	1,230.47	69.328	1,230.47	72.0796	1,230.47	70.7185	1,230.47	71.4618	1,230.47	71.9891	1,230.47	72.0668	1,230.47	71.6556	1,230.47	72.062	1,230.47	69.3052	1,230.47	70.2744	1,230.47	66.1149	1,230.47	66.4878	1,230.47	68.1747	1,230.47	66.4699	1,230.47	71.0956	1,230.47	70.2373	1,230.47	71.8299
1,274.41	85.6349	1,274.41	85.3158	1,274.41	85.4678	1,274.41	84.5332	1,274.41	84.8051	1,274.41	83.3216	1,274.41	83.6682	1,274.41	81.7567	1,274.41	82.1433	1,274.41	80.0054	1,274.41	80.4249	1,274.41	78.323	1,274.41	78.8004	1,274.41	76.8784	1,274.41	77.4471	1,274.41	75.4594	1,274.41	76.1625	1,274.41	73.4763	1,274.41	74.4697	1,274.41	70.6678	1,274.41	72.24	1,274.41	69.3106	1,274.41	70.7165	1,274.41	70.8147	1,274.41	71.0289	1,274.41	71.4734	1,274.41	71.3173	1,274.41	69.9766	1,274.41	70.1469	1,274.41	67.7026	1,274.41	68.1508	1,274.41	69.742	1,274.41	69.45	1,274.41	72.5067	1,274.41	72.2322	1,274.41	73.356
1,318.36	86.454	1,318.36	86.1986	1,318.36	86.2105	1,318.36	85.4503	1,318.36	85.4882	1,318.36	84.2441	1,318.36	84.3308	1,318.36	82.6612	1,318.36	82.8356	1,318.36	80.8977	1,318.36	81.1926	1,318.36	79.2795	1,318.36	79.6249	1,318.36	78.0156	1,318.36	78.2399	1,318.36	76.8484	1,318.36	76.9216	1,318.36	75.1604	1,318.36	75.2727	1,318.36	72.6104	1,318.36	72.9251	1,318.36	70.599	1,318.36	70.9497	1,318.36	70.993	1,318.36	71.6286	1,318.36	71.4608	1,318.36	72.6312	1,318.36	70.5548	1,318.36	71.5071	1,318.36	69.3558	1,318.36	68.2728	1,318.36	71.3721	1,318.36	69.6598	1,318.36	74.0304	1,318.36	73.3347	1,318.36	74.7823
1,365.23	87.2619	1,365.23	86.9755	1,365.23	87.0459	1,365.23	86.23	1,365.23	86.3212	1,365.23	85.0668	1,365.23	85.1433	1,365.23	83.5219	1,365.23	83.6161	1,365.23	81.6884	1,365.23	81.8557	1,365.23	79.7989	1,365.23	79.9923	1,365.23	78.1533	1,365.23	78.2467	1,365.23	76.726	1,365.23	76.8336	1,365.23	75.0491	1,365.23	75.5399	1,365.23	73.0124	1,365.23	73.9008	1,365.23	71.8832	1,365.23	72.2184	1,365.23	72.1	1,365.23	72.1527	1,365.23	71.7098	1,365.23	72.8869	1,365.23	69.6936	1,365.23	71.7835	1,365.23	67.883	1,365.23	67.6077	1,365.23	70.9004	1,365.23	67.2352	1,365.23	73.8092	1,365.23	72.1742	1,365.23	74.3018
1,415.04	86.9705	1,415.04	86.6254	1,415.04	86.8273	1,415.04	85.8317	1,415.04	86.1727	1,415.04	84.6025	1,415.04	85.031	1,415.04	82.9418	1,415.04	83.4753	1,415.04	80.9415	1,415.04	81.6183	1,415.04	78.8582	1,415.04	79.6233	1,415.04	77.072	1,415.04	77.7717	1,415.04	75.765	1,415.04	76.4134	1,415.04	74.4355	1,415.04	75.4639	1,415.04	72.4408	1,415.04	74.0935	1,415.04	70.8953	1,415.04	71.7211	1,415.04	71.6559	1,415.04	70.3791	1,415.04	72.2436	1,415.04	71.2855	1,415.04	70.2832	1,415.04	71.0417	1,415.04	65.1539	1,415.04	67.9231	1,415.04	67.7435	1,415.04	65.0684	1,415.04	71.7738	1,415.04	70.1825	1,415.04	72.572
1,464.84	86.5541	1,464.84	86.1484	1,464.84	86.4174	1,464.84	85.278	1,464.84	85.7258	1,464.84	84.0321	1,464.84	84.5244	1,464.84	82.4255	1,464.84	82.9288	1,464.84	80.4215	1,464.84	81.1312	1,464.84	78.0909	1,464.84	79.2649	1,464.84	75.8997	1,464.84	77.3568	1,464.84	74.729	1,464.84	75.767	1,464.84	74.1511	1,464.84	74.7978	1,464.84	72.1837	1,464.84	73.3478	1,464.84	68.0583	1,464.84	70.2225	1,464.84	68.2199	1,464.84	68.1047	1,464.84	70.928	1,464.84	70.984	1,464.84	70.8218	1,464.84	72.4047	1,464.84	67.272	1,464.84	70.7978	1,464.84	63.5695	1,464.84	66.7454	1,464.84	68.369	1,464.84	67.752	1,464.84	69.9381
1,514.65	86.2816	1,514.65	85.9104	1,514.65	86.1	1,514.65	85.0524	1,514.65	85.3849	1,514.65	83.8297	1,514.65	84.2509	1,514.65	82.3564	1,514.65	82.8409	1,514.65	80.6412	1,514.65	81.1982	1,514.65	78.5613	1,514.65	79.2232	1,514.65	76.1005	1,514.65	76.8446	1,514.65	74.1797	1,514.65	74.6001	1,514.65	73.8499	1,514.65	73.7613	1,514.65	72.9592	1,514.65	73.5889	1,514.65	69.4773	1,514.65	71.6465	1,514.65	64.4092	1,514.65	67.3029	1,514.65	67.2611	1,514.65	69.1999	1,514.65	70.1584	1,514.65	71.5666	1,514.65	69.7072	1,514.65	70.9512	1,514.65	67.1495	1,514.65	68.7799	1,514.65	67.944	1,514.65	68.0011	1,514.65	68.8871
1,570.31	85.948	1,570.31	85.5988	1,570.31	85.6311	1,570.31	84.6205	1,570.31	84.7285	1,570.31	83.1891	1,570.31	83.4243	1,570.31	81.6169	1,570.31	81.9526	1,570.31	80.1508	1,570.31	80.4555	1,570.31	78.6661	1,570.31	78.7788	1,570.31	76.691	1,570.31	76.5613	1,570.31	74.0102	1,570.31	73.8014	1,570.31	72.3565	1,570.31	72.0873	1,570.31	72.6926	1,570.31	72.6155	1,570.31	71.8698	1,570.31	72.2533	1,570.31	68.3131	1,570.31	68.7205	1,570.31	64.5906	1,570.31	62.8337	1,570.31	67.2252	1,570.31	66.8406	1,570.31	68.3596	1,570.31	68.8977	1,570.31	68.7354	1,570.31	69.2925	1,570.31	69.7619	1,570.31	70.2737	1,570.31	70.5819
1,623.05	85.226	1,623.05	84.8457	1,623.05	84.8897	1,623.05	83.7641	1,623.05	83.8635	1,623.05	82.1122	1,623.05	82.2671	1,623.05	80.2495	1,623.05	80.3549	1,623.05	78.6197	1,623.05	78.482	1,623.05	77.2947	1,623.05	76.9729	1,623.05	75.845	1,623.05	75.6681	1,623.05	73.5862	1,623.05	73.6791	1,623.05	70.5925	1,623.05	70.4572	1,623.05	70.2894	1,623.05	69.189	1,623.05	71.174	1,623.05	70.71	1,623.05	69.9421	1,623.05	70.2997	1,623.05	66.4845	1,623.05	66.4677	1,623.05	64.9276	1,623.05	62.5486	1,623.05	67.195	1,623.05	65.9939	1,623.05	69.7493	1,623.05	69.2029	1,623.05	71.8307	1,623.05	71.3899	1,623.05	72.3208
1,681.64	84.3159	1,681.64	83.8768	1,681.64	84.0967	1,681.64	82.778	1,681.64	83.2541	1,681.64	81.1242	1,681.64	81.8455	1,681.64	79.0965	1,681.64	80.0489	1,681.64	76.991	1,681.64	78.157	1,681.64	75.4076	1,681.64	76.4727	1,681.64	74.4999	1,681.64	75.1769	1,681.64	73.286	1,681.64	73.888	1,681.64	71.0458	1,681.64	71.6432	1,681.64	68.4048	1,681.64	68.7754	1,681.64	68.1374	1,681.64	68.585	1,681.64	69.4455	1,681.64	68.9787	1,681.64	68.4579	1,681.64	67.4394	1,681.64	64.0232	1,681.64	63.1425	1,681.64	61.2957	1,681.64	55.7214	1,681.64	67.0838	1,681.64	63.8905	1,681.64	70.6965	1,681.64	69.3192	1,681.64	71.3854
1,740.23	84.6118	1,740.23	84.1725	1,740.23	84.4331	1,740.23	83.1049	1,740.23	83.6247	1,740.23	81.4954	1,740.23	82.2369	1,740.23	79.607	1,740.23	80.4662	1,740.23	77.6502	1,740.23	78.5921	1,740.23	75.8097	1,740.23	76.8892	1,740.23	74.4077	1,740.23	75.6134	1,740.23	73.2672	1,740.23	74.7242	1,740.23	71.7119	1,740.23	73.349	1,740.23	69.2771	1,740.23	70.5472	1,740.23	66.847	1,740.23	67.5177	1,740.23	66.5716	1,740.23	67.5077	1,740.23	66.8745	1,740.23	68.1021	1,740.23	65.606	1,740.23	66.4834	1,740.23	58.3624	1,740.23	61.3321	1,740.23	60.7554	1,740.23	57.9432	1,740.23	67.7226	1,740.23	66.3945	1,740.23	69.1022
1,801.76	84.733	1,801.76	84.3691	1,801.76	84.4731	1,801.76	83.4305	1,801.76	83.6179	1,801.76	82.0287	1,801.76	82.2684	1,801.76	80.3083	1,801.76	80.5424	1,801.76	78.3772	1,801.76	78.614	1,801.76	76.3417	1,801.76	76.7532	1,801.76	74.5168	1,801.76	75.1414	1,801.76	73.4028	1,801.76	74.0197	1,801.76	72.5555	1,801.76	73.2051	1,801.76	70.5681	1,801.76	71.4827	1,801.76	67.18	1,801.76	68.547	1,801.76	66.2259	1,801.76	66.8802	1,801.76	67.1617	1,801.76	68.167	1,801.76	65.9874	1,801.76	67.7373	1,801.76	60.2427	1,801.76	62.7949	1,801.76	60.0821	1,801.76	56.8444	1,801.76	67.6378	1,801.76	66.3932	1,801.76	69.247
1,866.21	84.409	1,866.21	84.039	1,866.21	84.1009	1,866.21	83.1138	1,866.21	83.1409	1,866.21	81.7533	1,866.21	81.7951	1,866.21	80.1775	1,866.21	80.341	1,866.21	78.6312	1,866.21	78.8339	1,866.21	77.0729	1,866.21	77.1178	1,866.21	75.266	1,866.21	75.1428	1,866.21	73.5118	1,866.21	73.1413	1,866.21	72.7164	1,866.21	71.8536	1,866.21	72.0728	1,866.21	71.3088	1,866.21	69.9916	1,866.21	69.7187	1,866.21	66.2504	1,866.21	65.7646	1,866.21	65.5638	1,866.21	64.2761	1,866.21	66.3849	1,866.21	66.6575	1,866.21	61.1972	1,866.21	64.1014	1,866.21	58.6303	1,866.21	50.5588	1,866.21	67.9754	1,866.21	66.0836	1,866.21	69.5568
1,930.66	83.8268	1,930.66	83.286	1,930.66	83.5946	1,930.66	82.0921	1,930.66	82.6454	1,930.66	80.5547	1,930.66	81.2867	1,930.66	79.0386	1,930.66	79.8917	1,930.66	77.731	1,930.66	78.5368	1,930.66	76.5461	1,930.66	77.0875	1,930.66	75.2591	1,930.66	75.4736	1,930.66	73.8351	1,930.66	73.8088	1,930.66	72.615	1,930.66	72.2616	1,930.66	71.8435	1,930.66	71.3391	1,930.66	70.2712	1,930.66	70.4176	1,930.66	68.1904	1,930.66	68.3924	1,930.66	67.7928	1,930.66	66.2084	1,930.66	67.7658	1,930.66	66.6174	1,930.66	64.1443	1,930.66	64.3652	1,930.66	52.9665	1,930.66	45.1	1,930.66	66.8834	1,930.66	64.0014	1,930.66	68.271
2,000.98	84.7026	2,000.98	84.2238	2,000.98	84.5012	2,000.98	83.142	2,000.98	83.6432	2,000.98	81.7119	2,000.98	82.3492	2,000.98	80.1944	2,000.98	80.9316	2,000.98	78.7041	2,000.98	79.5743	2,000.98	77.2565	2,000.98	78.3686	2,000.98	75.7788	2,000.98	76.9799	2,000.98	73.9993	2,000.98	75.3689	2,000.98	72.272	2,000.98	73.7461	2,000.98	71.6069	2,000.98	72.5875	2,000.98	70.3836	2,000.98	71.8789	2,000.98	67.1796	2,000.98	69.5032	2,000.98	67.4649	2,000.98	66.0189	2,000.98	68.7686	2,000.98	67.5114	2,000.98	64.7657	2,000.98	67.9343	2,000.98	43.7027	2,000.98	60.9478	2,000.98	64.3232	2,000.98	59.5788	2,000.98	66.3548
2,071.29	85.6793	2,071.29	85.3392	2,071.29	85.3219	2,071.29	84.4264	2,071.29	84.3552	2,071.29	83.1769	2,071.29	83.0184	2,071.29	81.7141	2,071.29	81.5799	2,071.29	80.1982	2,071.29	80.2101	2,071.29	78.8139	2,071.29	79.0616	2,071.29	77.4158	2,071.29	77.7346	2,071.29	75.6203	2,071.29	76.1681	2,071.29	73.2402	2,071.29	74.8269	2,071.29	71.5361	2,071.29	73.3736	2,071.29	71.2563	2,071.29	71.9508	2,071.29	69.6341	2,071.29	70.8623	2,071.29	66.9596	2,071.29	69.3868	2,071.29	68.3905	2,071.29	69.2872	2,071.29	67.3922	2,071.29	68.8574	2,071.29	56.1565	2,071.29	61.7883	2,071.29	63.2655	2,071.29	62.062	2,071.29	66.9024
2,144.53	85.6075	2,144.53	85.2409	2,144.53	85.1762	2,144.53	84.26	2,144.53	84.0968	2,144.53	82.8895	2,144.53	82.7828	2,144.53	81.4586	2,144.53	81.4684	2,144.53	80.1417	2,144.53	80.0654	2,144.53	78.8605	2,144.53	78.5596	2,144.53	77.5494	2,144.53	77.1579	2,144.53	76.1527	2,144.53	75.4297	2,144.53	74.5172	2,144.53	73.5633	2,144.53	72.5965	2,144.53	72.3482	2,144.53	71.1788	2,144.53	71.6612	2,144.53	69.7418	2,144.53	69.8602	2,144.53	67.3979	2,144.53	66.51	2,144.53	68.0907	2,144.53	67.3674	2,144.53	66.3759	2,144.53	68.2145	2,144.53	59.9382	2,144.53	63.2868	2,144.53	64.8643	2,144.53	61.38	2,144.53	67.7121
2,217.77	84.5059	2,217.77	83.9965	2,217.77	84.3486	2,217.77	83.0537	2,217.77	83.6682	2,217.77	81.9788	2,217.77	82.7979	2,217.77	80.8892	2,217.77	81.6619	2,217.77	79.5408	2,217.77	80.2535	2,217.77	77.8584	2,217.77	78.4706	2,217.77	76.156	2,217.77	76.6043	2,217.77	74.656	2,217.77	75.2004	2,217.77	73.5367	2,217.77	73.4305	2,217.77	72.4712	2,217.77	71.3502	2,217.77	70.9475	2,217.77	70.3348	2,217.77	69.8166	2,217.77	69.5074	2,217.77	68.1396	2,217.77	66.8717	2,217.77	67.4565	2,217.77	66.6538	2,217.77	66.0464	2,217.77	67.9752	2,217.77	61.4744	2,217.77	64.5774	2,217.77	67.2739	2,217.77	62.9581	2,217.77	68.408
2,296.88	85.1375	2,296.88	84.765	2,296.88	85.0154	2,296.88	83.9951	2,296.88	84.3928	2,296.88	83.0574	2,296.88	83.4799	2,296.88	81.9099	2,296.88	82.4397	2,296.88	80.428	2,296.88	81.3059	2,296.88	78.7032	2,296.88	79.6797	2,296.88	76.5711	2,296.88	77.7905	2,296.88	74.3697	2,296.88	76.2144	2,296.88	72.1468	2,296.88	74.6053	2,296.88	70.4565	2,296.88	72.8206	2,296.88	69.6617	2,296.88	72.3798	2,296.88	67.5804	2,296.88	71.469	2,296.88	67.0424	2,296.88	67.4194	2,296.88	67.4427	2,296.88	65.5216	2,296.88	63.6291	2,296.88	66.0555	2,296.88	54.9737	2,296.88	61.647	2,296.88	68.1092	2,296.88	65.1628	2,296.88	69.7238
2,378.91	85.3753	2,378.91	85.1149	2,378.91	85.1537	2,378.91	84.4658	2,378.91	84.5277	2,378.91	83.5346	2,378.91	83.6931	2,378.91	82.3144	2,378.91	82.5343	2,378.91	80.7443	2,378.91	81.0027	2,378.91	79.0652	2,378.91	79.0207	2,378.91	76.9804	2,378.91	77.1922	2,378.91	74.7498	2,378.91	75.5852	2,378.91	73.056	2,378.91	73.9515	2,378.91	71.106	2,378.91	72.6376	2,378.91	69.8164	2,378.91	71.4992	2,378.91	68.3716	2,378.91	70.8469	2,378.91	65.2785	2,378.91	68.6065	2,378.91	66.5807	2,378.91	65.9808	2,378.91	66.3179	2,378.91	66.8069	2,378.91	55.9552	2,378.91	59.8188	2,378.91	66.8181	2,378.91	65.3992	2,378.91	69.8042
2,460.94	84.33	2,460.94	84.0908	2,460.94	84.1125	2,460.94	83.4095	2,460.94	83.5294	2,460.94	82.4018	2,460.94	82.5968	2,460.94	81.2254	2,460.94	81.4592	2,460.94	79.7204	2,460.94	79.9021	2,460.94	77.6843	2,460.94	78.0124	2,460.94	75.7183	2,460.94	75.9109	2,460.94	73.7975	2,460.94	73.5994	2,460.94	72.3313	2,460.94	71.8878	2,460.94	70.4403	2,460.94	69.6842	2,460.94	68.9312	2,460.94	67.7508	2,460.94	68.3248	2,460.94	67.4949	2,460.94	67.1609	2,460.94	65.7043	2,460.94	67.3465	2,460.94	64.0407	2,460.94	66.385	2,460.94	65.8096	2,460.94	51.7821	2,460.94	59.5353	2,460.94	66.0298	2,460.94	63.5504	2,460.94	69.3734
2,548.83	84.136	2,548.83	83.6941	2,548.83	83.9106	2,548.83	82.9674	2,548.83	83.2256	2,548.83	82.106	2,548.83	82.4329	2,548.83	80.7546	2,548.83	81.4776	2,548.83	79.1463	2,548.83	80.0649	2,548.83	77.1419	2,548.83	77.9988	2,548.83	74.5019	2,548.83	75.8488	2,548.83	72.3873	2,548.83	73.5414	2,548.83	71.0121	2,548.83	71.5266	2,548.83	69.4623	2,548.83	69.982	2,548.83	67.6625	2,548.83	67.4813	2,548.83	66.6018	2,548.83	66.5788	2,548.83	62.4463	2,548.83	66.0853	2,548.83	66.1121	2,548.83	63.0982	2,548.83	67.4497	2,548.83	66.6551	2,548.83	57.0374	2,548.83	63.7034	2,548.83	64.5421	2,548.83	56.4009	2,548.83	67.0762
2,639.65	83.8469	2,639.65	83.5934	2,639.65	83.6892	2,639.65	83.154	2,639.65	83.2642	2,639.65	82.5521	2,639.65	82.7501	2,639.65	81.5022	2,639.65	81.8322	2,639.65	79.8022	2,639.65	80.3292	2,639.65	77.7116	2,639.65	78.3036	2,639.65	75.5879	2,639.65	76.1847	2,639.65	73.2759	2,639.65	74.0945	2,639.65	71.1961	2,639.65	71.9688	2,639.65	69.8916	2,639.65	70.4922	2,639.65	67.9178	2,639.65	68.9565	2,639.65	67.4187	2,639.65	67.5383	2,639.65	64.6026	2,639.65	66.5884	2,639.65	62.2895	2,639.65	62.2522	2,639.65	65.6981	2,639.65	65.6265	2,639.65	53.1558	2,639.65	62.4139	2,639.65	65.4754	2,639.65	59.7257	2,639.65	67.8962
2,733.4	83.2711	2,733.4	83.1315	2,733.4	83.2272	2,733.4	82.9473	2,733.4	82.9705	2,733.4	82.489	2,733.4	82.6173	2,733.4	81.5289	2,733.4	81.8309	2,733.4	79.8612	2,733.4	80.368	2,733.4	77.8225	2,733.4	78.2562	2,733.4	75.592	2,733.4	75.943	2,733.4	73.4806	2,733.4	73.9526	2,733.4	71.3117	2,733.4	72.0531	2,733.4	69.8154	2,733.4	70.5957	2,733.4	68.6453	2,733.4	69.0392	2,733.4	67.5931	2,733.4	67.5841	2,733.4	64.7002	2,733.4	66.8972	2,733.4	61.2133	2,733.4	62.055	2,733.4	65.9482	2,733.4	65.4059	2,733.4	57.7567	2,733.4	63.4947	2,733.4	63.6849	2,733.4	56.0037	2,733.4	67.1304
2,827.15	83.3778	2,827.15	83.2783	2,827.15	83.3502	2,827.15	83.1638	2,827.15	83.3268	2,827.15	82.8274	2,827.15	83.1514	2,827.15	81.7083	2,827.15	82.421	2,827.15	79.8951	2,827.15	80.8309	2,827.15	77.5759	2,827.15	78.5789	2,827.15	75.195	2,827.15	76.0135	2,827.15	73.323	2,827.15	73.853	2,827.15	71.1422	2,827.15	72.1597	2,827.15	69.6364	2,827.15	70.4588	2,827.15	68.1037	2,827.15	69.4615	2,827.15	67.577	2,827.15	67.9177	2,827.15	66.8545	2,827.15	67.4794	2,827.15	61.4399	2,827.15	62.3608	2,827.15	66.39	2,827.15	65.2657	2,827.15	60.4749	2,827.15	64.5865	2,827.15	63.1051	2,827.15	51.8201	2,827.15	66.7408
2,926.76	83.2064	2,926.76	83.244	2,926.76	83.2528	2,926.76	83.4022	2,926.76	83.4401	2,926.76	83.0144	2,926.76	83.2808	2,926.76	81.6668	2,926.76	82.3486	2,926.76	79.6507	2,926.76	80.5102	2,926.76	77.0171	2,926.76	78.1502	2,926.76	74.4374	2,926.76	75.5961	2,926.76	72.5277	2,926.76	73.3783	2,926.76	70.7057	2,926.76	71.5437	2,926.76	69.1492	2,926.76	69.6787	2,926.76	67.83	2,926.76	68.1789	2,926.76	67.0724	2,926.76	66.862	2,926.76	66.3127	2,926.76	66.8568	2,926.76	60.0585	2,926.76	62.5448	2,926.76	65.7767	2,926.76	64.4579	2,926.76	61.5944	2,926.76	64.9362	2,926.76	60.3228	2,926.76	47.1542	2,926.76	65.4987
3,032.23	83.3379	3,032.23	83.4899	3,032.23	83.4012	3,032.23	83.3893	3,032.23	83.4596	3,032.23	82.5065	3,032.23	83.0552	3,032.23	80.7393	3,032.23	81.8048	3,032.23	78.3531	3,032.23	79.6032	3,032.23	75.5151	3,032.23	77.002	3,032.23	72.7683	3,032.23	74.2531	3,032.23	70.8372	3,032.23	72.0081	3,032.23	69.7065	3,032.23	70.4702	3,032.23	68.0479	3,032.23	68.6787	3,032.23	67.126	3,032.23	67.7087	3,032.23	65.6097	3,032.23	65.8109	3,032.23	65.5497	3,032.23	66.0475	3,032.23	58.755	3,032.23	63.2471	3,032.23	64.5333	3,032.23	62.0556	3,032.23	60.8901	3,032.23	65.1674	3,032.23	59.1986	3,032.23	45.859	3,032.23	63.8228
3,137.7	84.1818	3,137.7	84.2458	3,137.7	84.1768	3,137.7	84.0162	3,137.7	84.2078	3,137.7	83.1779	3,137.7	83.5989	3,137.7	81.3688	3,137.7	82.1226	3,137.7	78.769	3,137.7	79.7664	3,137.7	76.0473	3,137.7	77.0247	3,137.7	73.665	3,137.7	74.3836	3,137.7	71.5845	3,137.7	71.8944	3,137.7	70.4111	3,137.7	70.3941	3,137.7	68.4653	3,137.7	69.0136	3,137.7	66.5762	3,137.7	68.4207	3,137.7	64.9442	3,137.7	66.9492	3,137.7	66.3435	3,137.7	66.1318	3,137.7	60.9125	3,137.7	64.3233	3,137.7	63.6481	3,137.7	59.9825	3,137.7	62.4048	3,137.7	64.7565	3,137.7	55.739	3,137.7	46.2692	3,137.7	62.9157
3,249.02	84.5959	3,249.02	84.5791	3,249.02	84.6282	3,249.02	84.379	3,249.02	84.5191	3,249.02	83.5149	3,249.02	83.9124	3,249.02	81.6758	3,249.02	82.4194	3,249.02	79.028	3,249.02	79.8624	3,249.02	76.3984	3,249.02	77.2023	3,249.02	74.3721	3,249.02	75.0266	3,249.02	71.9195	3,249.02	72.8114	3,249.02	71.0373	3,249.02	71.1368	3,249.02	69.49	3,249.02	69.7244	3,249.02	68.8522	3,249.02	67.6487	3,249.02	67.0144	3,249.02	67.5243	3,249.02	67.0158	3,249.02	66.1603	3,249.02	63.8317	3,249.02	66.1637	3,249.02	62.9859	3,249.02	60.578	3,249.02	64.2863	3,249.02	65.4762	3,249.02	53.6809	3,249.02	51.5404	3,249.02	63.2117
3,363.28	84.5125	3,363.28	84.7024	3,363.28	84.584	3,363.28	84.7608	3,363.28	84.7319	3,363.28	83.8904	3,363.28	84.2896	3,363.28	81.9431	3,363.28	82.6128	3,363.28	79.2306	3,363.28	80.0747	3,363.28	76.7761	3,363.28	77.453	3,363.28	74.9699	3,363.28	75.3101	3,363.28	72.727	3,363.28	73.4247	3,363.28	70.7334	3,363.28	71.3679	3,363.28	69.7764	3,363.28	70.7771	3,363.28	68.3874	3,363.28	68.6248	3,363.28	66.9517	3,363.28	67.5807	3,363.28	66.1754	3,363.28	65.4782	3,363.28	64.9731	3,363.28	66.5187	3,363.28	63.5842	3,363.28	60.2244	3,363.28	64.173	3,363.28	65.4565	3,363.28	57.2202	3,363.28	52.5149	3,363.28	63.9081
3,483.4	84.9261	3,483.4	85.295	3,483.4	85.0643	3,483.4	85.2945	3,483.4	85.358	3,483.4	84.2882	3,483.4	84.7827	3,483.4	82.2598	3,483.4	83.143	3,483.4	79.8875	3,483.4	80.8167	3,483.4	77.5301	3,483.4	78.4709	3,483.4	75.6217	3,483.4	76.2483	3,483.4	73.8984	3,483.4	74.6391	3,483.4	71.1999	3,483.4	72.3	3,483.4	70.6327	3,483.4	71.2055	3,483.4	68.5414	3,483.4	70.1594	3,483.4	68.3272	3,483.4	69.211	3,483.4	65.7861	3,483.4	67.1838	3,483.4	65.56	3,483.4	67.366	3,483.4	61.6522	3,483.4	62.4347	3,483.4	63.772	3,483.4	65.3286	3,483.4	55.8314	3,483.4	54.5936	3,483.4	63.6743
3,606.45	84.5714	3,606.45	85.0129	3,606.45	84.9071	3,606.45	85.2238	3,606.45	85.362	3,606.45	84.3068	3,606.45	84.7768	3,606.45	82.2338	3,606.45	82.987	3,606.45	80.1109	3,606.45	80.943	3,606.45	78.1747	3,606.45	78.7713	3,606.45	76.0434	3,606.45	76.6268	3,606.45	74.7485	3,606.45	74.9731	3,606.45	72.9262	3,606.45	72.8095	3,606.45	71.5065	3,606.45	71.0616	3,606.45	69.1968	3,606.45	69.3894	3,606.45	68.8186	3,606.45	68.996	3,606.45	65.8781	3,606.45	66.4284	3,606.45	67.1539	3,606.45	67.3582	3,606.45	62.1386	3,606.45	63.7225	3,606.45	64.1325	3,606.45	65.8261	3,606.45	53.0233	3,606.45	54.5389	3,606.45	63.1468
3,732.42	83.9688	3,732.42	84.5487	3,732.42	84.318	3,732.42	84.93	3,732.42	84.8398	3,732.42	84.109	3,732.42	84.467	3,732.42	82.1737	3,732.42	82.7762	3,732.42	80.1616	3,732.42	80.636	3,732.42	78.4213	3,732.42	79.0591	3,732.42	76.3516	3,732.42	77.0157	3,732.42	74.6058	3,732.42	74.789	3,732.42	72.4922	3,732.42	73.0254	3,732.42	70.9711	3,732.42	71.0301	3,732.42	69.3031	3,732.42	70.2686	3,732.42	69.6226	3,732.42	68.7152	3,732.42	66.4761	3,732.42	67.8589	3,732.42	67.4917	3,732.42	66.4152	3,732.42	62.5488	3,732.42	63.9742	3,732.42	64.8369	3,732.42	64.9207	3,732.42	54.1954	3,732.42	57.3945	3,732.42	62.9859
3,864.26	84.1769	3,864.26	84.8121	3,864.26	84.4546	3,864.26	85.2541	3,864.26	85.2369	3,864.26	84.2919	3,864.26	84.7935	3,864.26	82.445	3,864.26	83.1178	3,864.26	80.7455	3,864.26	81.1979	3,864.26	78.9942	3,864.26	79.4514	3,864.26	76.8396	3,864.26	77.7515	3,864.26	74.2	3,864.26	75.0227	3,864.26	71.9412	3,864.26	72.9384	3,864.26	70.1684	3,864.26	70.4562	3,864.26	69.3129	3,864.26	69.9411	3,864.26	68.3463	3,864.26	67.6762	3,864.26	66.0225	3,864.26	67.9927	3,864.26	66.5491	3,864.26	65.8427	3,864.26	62.2812	3,864.26	65.1936	3,864.26	64.6497	3,864.26	64.8682	3,864.26	53.4016	3,864.26	57.5676	3,864.26	63.5845
3,999.02	84.2892	3,999.02	85.0039	3,999.02	84.7555	3,999.02	85.2222	3,999.02	85.3409	3,999.02	84.169	3,999.02	84.7363	3,999.02	82.5117	3,999.02	83.2113	3,999.02	80.8395	3,999.02	81.4503	3,999.02	79.1056	3,999.02	79.6386	3,999.02	76.8191	3,999.02	77.6013	3,999.02	73.6031	3,999.02	74.8643	3,999.02	71.5858	3,999.02	72.6834	3,999.02	68.914	3,999.02	70.2349	3,999.02	68.3043	3,999.02	69.5257	3,999.02	66.9079	3,999.02	67.1184	3,999.02	66.4184	3,999.02	67.8056	3,999.02	65.7803	3,999.02	64.9179	3,999.02	61.8319	3,999.02	65.0624	3,999.02	64.2021	3,999.02	64.4203	3,999.02	50.7768	3,999.02	59.1203	3,999.02	62.4945
4,139.65	83.8358	4,139.65	84.4294	4,139.65	84.3434	4,139.65	84.6213	4,139.65	84.7387	4,139.65	83.6082	4,139.65	84.1332	4,139.65	82.1463	4,139.65	82.713	4,139.65	80.5153	4,139.65	81.163	4,139.65	78.5612	4,139.65	79.2997	4,139.65	76.1614	4,139.65	76.7953	4,139.65	73.6341	4,139.65	73.8319	4,139.65	71.6203	4,139.65	71.6471	4,139.65	68.7312	4,139.65	69.2046	4,139.65	68.1006	4,139.65	67.8401	4,139.65	66.0605	4,139.65	65.8123	4,139.65	65.9914	4,139.65	66.7759	4,139.65	65.7728	4,139.65	63.8365	4,139.65	62.2366	4,139.65	64.3083	4,139.65	63.5287	4,139.65	62.789	4,139.65	46.0515	4,139.65	59.0509	4,139.65	58.6028
4,286.13	84.4743	4,286.13	84.8628	4,286.13	84.7284	4,286.13	84.9587	4,286.13	85.1338	4,286.13	83.9339	4,286.13	84.436	4,286.13	82.3923	4,286.13	82.8813	4,286.13	80.7924	4,286.13	81.4865	4,286.13	78.113	4,286.13	79.3447	4,286.13	75.1944	4,286.13	76.6313	4,286.13	72.0752	4,286.13	74.0071	4,286.13	69.7261	4,286.13	71.114	4,286.13	67.4744	4,286.13	69.576	4,286.13	66.9762	4,286.13	67.4104	4,286.13	64.0188	4,286.13	66.0162	4,286.13	65.6466	4,286.13	66.3894	4,286.13	63.3396	4,286.13	62.8953	4,286.13	62.1831	4,286.13	64.4802	4,286.13	63.0959	4,286.13	61.6089	4,286.13	47.9584	4,286.13	59.0488	4,286.13	58.804
4,438.48	83.9954	4,438.48	84.5225	4,438.48	84.2633	4,438.48	84.3908	4,438.48	84.5627	4,438.48	83.1247	4,438.48	83.7718	4,438.48	81.9016	4,438.48	82.3269	4,438.48	80.3667	4,438.48	80.7096	4,438.48	78.0363	4,438.48	78.4418	4,438.48	75.5348	4,438.48	75.699	4,438.48	72.4694	4,438.48	72.7611	4,438.48	69.8799	4,438.48	69.6515	4,438.48	68.5466	4,438.48	68.1746	4,438.48	66.4297	4,438.48	66.0284	4,438.48	64.4239	4,438.48	65.7036	4,438.48	65.1007	4,438.48	64.5589	4,438.48	61.6262	4,438.48	63.2101	4,438.48	62.9306	4,438.48	63.8096	4,438.48	62.2857	4,438.48	61.2613	4,438.48	49.862	4,438.48	60.518	4,438.48	59.4469
4,593.75	84.2919	4,593.75	84.7298	4,593.75	84.7125	4,593.75	84.649	4,593.75	84.717	4,593.75	83.5961	4,593.75	83.8426	4,593.75	82.3	4,593.75	82.7591	4,593.75	80.4597	4,593.75	81.0983	4,593.75	77.7672	4,593.75	78.7636	4,593.75	74.0885	4,593.75	75.5405	4,593.75	71.7802	4,593.75	72.7488	4,593.75	68.8766	4,593.75	70.5067	4,593.75	67.0345	4,593.75	67.8601	4,593.75	65.8671	4,593.75	66.4371	4,593.75	63.8079	4,593.75	65.9754	4,593.75	64.9256	4,593.75	63.3876	4,593.75	62.4199	4,593.75	63.3701	4,593.75	63.4865	4,593.75	64.2521	4,593.75	63.6936	4,593.75	63.1319	4,593.75	53.9429	4,593.75	61.5433	4,593.75	56.7294
4,757.81	84.2967	4,757.81	84.6975	4,757.81	84.4204	4,757.81	84.4119	4,757.81	84.6435	4,757.81	83.4982	4,757.81	83.9583	4,757.81	82.4717	4,757.81	82.9993	4,757.81	80.5713	4,757.81	81.4563	4,757.81	77.5244	4,757.81	78.8627	4,757.81	74.6669	4,757.81	75.7495	4,757.81	72.362	4,757.81	72.992	4,757.81	70.3671	4,757.81	70.6726	4,757.81	69.0529	4,757.81	69.1512	4,757.81	66.9719	4,757.81	67.1316	4,757.81	66.8717	4,757.81	67.1267	4,757.81	65.9515	4,757.81	64.64	4,757.81	61.7584	4,757.81	64.5863	4,757.81	63.5712	4,757.81	64.5178	4,757.81	64.5327	4,757.81	62.3269	4,757.81	51.9449	4,757.81	61.8349	4,757.81	58.9194
4,924.8	84.6047	4,924.8	84.6448	4,924.8	84.749	4,924.8	84.4787	4,924.8	84.568	4,924.8	84.0722	4,924.8	84.1071	4,924.8	83.4217	4,924.8	83.5565	4,924.8	81.3927	4,924.8	81.9248	4,924.8	78.5284	4,924.8	79.119	4,924.8	75.5208	4,924.8	76.2413	4,924.8	72.8856	4,924.8	73.5517	4,924.8	70.1068	4,924.8	71.4427	4,924.8	68.5123	4,924.8	68.9756	4,924.8	66.5821	4,924.8	67.5487	4,924.8	66.3334	4,924.8	66.8224	4,924.8	64.3355	4,924.8	63.9933	4,924.8	62.4396	4,924.8	66.1397	4,924.8	64.2626	4,924.8	64.1258	4,924.8	64.0203	4,924.8	62.5042	4,924.8	55.6068	4,924.8	64.1781	4,924.8	60.7936
5,097.66	84.6215	5,097.66	84.5381	5,097.66	84.6754	5,097.66	84.3003	5,097.66	84.4848	5,097.66	84.348	5,097.66	84.2934	5,097.66	83.466	5,097.66	84.0173	5,097.66	80.8329	5,097.66	82.1176	5,097.66	77.5912	5,097.66	79.1134	5,097.66	74.5897	5,097.66	76.1193	5,097.66	72.5449	5,097.66	73.8945	5,097.66	70.3707	5,097.66	71.2368	5,097.66	68.4044	5,097.66	69.3603	5,097.66	67.1077	5,097.66	67.5915	5,097.66	67.5706	5,097.66	66.42	5,097.66	64.1287	5,097.66	64.3855	5,097.66	63.596	5,097.66	65.8899	5,097.66	64.5058	5,097.66	62.9035	5,097.66	64.6853	5,097.66	62.3419	5,097.66	56.8551	5,097.66	62.962	5,097.66	59.7226
5,279.3	84.3492	5,279.3	83.9459	5,279.3	83.9453	5,279.3	83.9326	5,279.3	83.554	5,279.3	84.2898	5,279.3	84.0127	5,279.3	83.3069	5,279.3	83.705	5,279.3	80.6206	5,279.3	81.6078	5,279.3	77.8345	5,279.3	78.5909	5,279.3	75.8348	5,279.3	75.9572	5,279.3	73.5362	5,279.3	73.5694	5,279.3	70.6992	5,279.3	71.4267	5,279.3	68.6224	5,279.3	69.2438	5,279.3	66.3822	5,279.3	67.4073	5,279.3	65.3033	5,279.3	65.0686	5,279.3	62.6769	5,279.3	65.4757	5,279.3	63.4986	5,279.3	65.8855	5,279.3	63.5815	5,279.3	62.2877	5,279.3	63.5334	5,279.3	62.021	5,279.3	53.4195	5,279.3	62.9478	5,279.3	60.762
5,463.87	85.0966	5,463.87	84.4706	5,463.87	84.6929	5,463.87	84.2104	5,463.87	84.1025	5,463.87	84.5589	5,463.87	84.3651	5,463.87	83.4027	5,463.87	83.7929	5,463.87	80.6275	5,463.87	81.2431	5,463.87	78.0729	5,463.87	78.448	5,463.87	75.3102	5,463.87	76.1303	5,463.87	72.2526	5,463.87	73.5851	5,463.87	69.4301	5,463.87	70.8371	5,463.87	67.622	5,463.87	68.3892	5,463.87	66.2825	5,463.87	66.0222	5,463.87	64.9825	5,463.87	64.8537	5,463.87	62.8139	5,463.87	64.5349	5,463.87	64.6045	5,463.87	64.1094	5,463.87	62.5313	5,463.87	59.6697	5,463.87	62.9701	5,463.87	61.1864	5,463.87	55.4577	5,463.87	64.089	5,463.87	60.7682
5,657.23	84.6588	5,657.23	83.7047	5,657.23	84.0541	5,657.23	83.6692	5,657.23	83.505	5,657.23	84.0928	5,657.23	84.2055	5,657.23	82.6252	5,657.23	83.4256	5,657.23	79.9444	5,657.23	81.0594	5,657.23	77.5856	5,657.23	78.5989	5,657.23	75.2807	5,657.23	76.1759	5,657.23	72.4868	5,657.23	73.4222	5,657.23	69.8811	5,657.23	70.9044	5,657.23	67.8758	5,657.23	68.2029	5,657.23	65.8623	5,657.23	66.8076	5,657.23	64.3396	5,657.23	64.8438	5,657.23	63.9116	5,657.23	65.0816	5,657.23	64.4545	5,657.23	63.3433	5,657.23	61.7224	5,657.23	59.7519	5,657.23	61.9757	5,657.23	60.9271	5,657.23	56.1224	5,657.23	62.982	5,657.23	59.8507
5,856.45	84.72	5,856.45	83.7173	5,856.45	84.0586	5,856.45	83.7767	5,856.45	83.4081	5,856.45	84.1289	5,856.45	83.9741	5,856.45	82.5477	5,856.45	83.1383	5,856.45	80.4519	5,856.45	80.9675	5,856.45	78.2878	5,856.45	78.8692	5,856.45	75.2709	5,856.45	76.2275	5,856.45	72.5952	5,856.45	73.191	5,856.45	69.7167	5,856.45	70.1087	5,856.45	66.7598	5,856.45	67.3893	5,856.45	65.0347	5,856.45	65.3762	5,856.45	63.0956	5,856.45	64.7549	5,856.45	62.6781	5,856.45	63.6425	5,856.45	63.695	5,856.45	61.7742	5,856.45	60.5673	5,856.45	60.0809	5,856.45	60.205	5,856.45	60.5205	5,856.45	54.2786	5,856.45	62.9531	5,856.45	58.9354
6,061.52	84.9674	6,061.52	84.0287	6,061.52	84.2446	6,061.52	84.0669	6,061.52	83.6709	6,061.52	84.2985	6,061.52	84.2301	6,061.52	82.7213	6,061.52	82.9106	6,061.52	80.886	6,061.52	81.034	6,061.52	78.1415	6,061.52	78.6764	6,061.52	74.9008	6,061.52	75.5709	6,061.52	71.4901	6,061.52	72.4357	6,061.52	68.1215	6,061.52	69.4751	6,061.52	65.6079	6,061.52	66.92	6,061.52	63.7584	6,061.52	65.3977	6,061.52	63.8126	6,061.52	63.584	6,061.52	63.8569	6,061.52	62.8226	6,061.52	62.3	6,061.52	60.4873	6,061.52	60.574	6,061.52	60.1951	6,061.52	60.9033	6,061.52	60.1505	6,061.52	56.9724	6,061.52	62.9473	6,061.52	58.4984
6,275.39	85.0326	6,275.39	83.9955	6,275.39	84.3772	6,275.39	84.1795	6,275.39	83.9665	6,275.39	84.1284	6,275.39	84.2366	6,275.39	82.6665	6,275.39	83.1796	6,275.39	80.7752	6,275.39	81.4689	6,275.39	77.6081	6,275.39	79.1032	6,275.39	73.8498	6,275.39	75.5979	6,275.39	70.6764	6,275.39	72.0938	6,275.39	67.892	6,275.39	69.4167	6,275.39	66.3938	6,275.39	66.9831	6,275.39	65.211	6,275.39	64.6408	6,275.39	63.8958	6,275.39	64.4226	6,275.39	62.7691	6,275.39	61.893	6,275.39	61.634	6,275.39	61.2215	6,275.39	59.4405	6,275.39	61.0632	6,275.39	59.277	6,275.39	60.9126	6,275.39	57.2766	6,275.39	63.5765	6,275.39	58.2878
6,498.05	84.5692	6,498.05	83.65	6,498.05	83.8945	6,498.05	83.772	6,498.05	83.5597	6,498.05	83.7279	6,498.05	84.0444	6,498.05	82.6441	6,498.05	82.9226	6,498.05	80.8018	6,498.05	81.7366	6,498.05	77.2652	6,498.05	78.9138	6,498.05	73.9053	6,498.05	75.2781	6,498.05	71.3891	6,498.05	72.3497	6,498.05	69.1822	6,498.05	70.0797	6,498.05	66.9867	6,498.05	67.9825	6,498.05	64.7947	6,498.05	65.7203	6,498.05	63.7438	6,498.05	63.6497	6,498.05	62.81	6,498.05	63.694	6,498.05	61.2964	6,498.05	62.0359	6,498.05	59.7295	6,498.05	61.3908	6,498.05	59.9147	6,498.05	61.6628	6,498.05	58.7603	6,498.05	64.2006	6,498.05	58.7864
6,726.56	84.1093	6,726.56	83.5227	6,726.56	83.564	6,726.56	83.6733	6,726.56	83.4811	6,726.56	83.3562	6,726.56	83.2833	6,726.56	82.6927	6,726.56	82.5477	6,726.56	80.6987	6,726.56	81.3319	6,726.56	77.3892	6,726.56	78.2534	6,726.56	74.282	6,726.56	74.9059	6,726.56	71.9133	6,726.56	72.0819	6,726.56	68.9007	6,726.56	69.522	6,726.56	66.046	6,726.56	67.1987	6,726.56	64.5039	6,726.56	64.8068	6,726.56	63.6595	6,726.56	63.9538	6,726.56	62.406	6,726.56	62.6664	6,726.56	60.9087	6,726.56	61.1833	6,726.56	58.663	6,726.56	61.6051	6,726.56	59.9375	6,726.56	61.7399	6,726.56	59.8287	6,726.56	64.0558	6,726.56	56.7651
6,963.87	83.8515	6,963.87	83.5422	6,963.87	83.6209	6,963.87	83.311	6,963.87	83.4036	6,963.87	82.6703	6,963.87	82.8165	6,963.87	82.3322	6,963.87	82.4079	6,963.87	79.9608	6,963.87	80.8716	6,963.87	76.6181	6,963.87	77.6736	6,963.87	73.9589	6,963.87	74.699	6,963.87	71.1138	6,963.87	71.9671	6,963.87	68.4787	6,963.87	69.3497	6,963.87	66.1957	6,963.87	67.1294	6,963.87	64.3742	6,963.87	64.5058	6,963.87	62.3893	6,963.87	62.889	6,963.87	62.2445	6,963.87	62.1674	6,963.87	60.5875	6,963.87	61.5274	6,963.87	58.3349	6,963.87	61.0523	6,963.87	59.5924	6,963.87	60.6169	6,963.87	60.5653	6,963.87	63.9639	6,963.87	56.6517
7,209.96	83.5591	7,209.96	83.8653	7,209.96	83.7588	7,209.96	83.1009	7,209.96	83.448	7,209.96	82.4821	7,209.96	82.2974	7,209.96	81.9687	7,209.96	82.0803	7,209.96	79.2015	7,209.96	80.1262	7,209.96	76.3981	7,209.96	77.0092	7,209.96	73.3606	7,209.96	74.2375	7,209.96	70.2863	7,209.96	71.3061	7,209.96	67.5494	7,209.96	68.4532	7,209.96	65.2249	7,209.96	65.4191	7,209.96	62.2946	7,209.96	63.2101	7,209.96	61.6252	7,209.96	61.8986	7,209.96	60.3536	7,209.96	61.6003	7,209.96	58.9832	7,209.96	60.1649	7,209.96	57.4927	7,209.96	59.4362	7,209.96	57.5027	7,209.96	58.6991	7,209.96	60.0912	7,209.96	63.0875	7,209.96	56.2199
7,464.84	83.6692	7,464.84	84.1862	7,464.84	84.0271	7,464.84	83.1806	7,464.84	83.5677	7,464.84	82.703	7,464.84	82.6153	7,464.84	81.7208	7,464.84	82.2228	7,464.84	78.986	7,464.84	79.8113	7,464.84	76.3049	7,464.84	77.0978	7,464.84	72.8477	7,464.84	74.2143	7,464.84	69.4222	7,464.84	70.7975	7,464.84	66.9755	7,464.84	67.5448	7,464.84	64.4509	7,464.84	64.8649	7,464.84	62.8857	7,464.84	63.2353	7,464.84	61.2344	7,464.84	61.6314	7,464.84	60.6493	7,464.84	61.0006	7,464.84	59.0634	7,464.84	59.2561	7,464.84	57.7006	7,464.84	58.2451	7,464.84	56.2816	7,464.84	57.1812	7,464.84	59.8832	7,464.84	61.6855	7,464.84	55.9324
7,728.52	83.8977	7,728.52	84.6361	7,728.52	84.5333	7,728.52	83.5369	7,728.52	84.0095	7,728.52	83.089	7,728.52	83.0776	7,728.52	81.9338	7,728.52	82.5857	7,728.52	79.4259	7,728.52	80.1664	7,728.52	76.7103	7,728.52	77.7971	7,728.52	73.005	7,728.52	74.3213	7,728.52	69.48	7,728.52	70.4865	7,728.52	66.7953	7,728.52	67.4705	7,728.52	64.7157	7,728.52	65.1966	7,728.52	63.0376	7,728.52	63.1817	7,728.52	61.4391	7,728.52	62.1884	7,728.52	61.1625	7,728.52	60.8865	7,728.52	59.0131	7,728.52	59.4828	7,728.52	57.5442	7,728.52	58.5829	7,728.52	56.4103	7,728.52	56.9677	7,728.52	59.9901	7,728.52	61.164	7,728.52	55.9358
8,000.98	84.7052	8,000.98	85.4286	8,000.98	85.3383	8,000.98	84.2856	8,000.98	84.66	8,000.98	83.927	8,000.98	83.8782	8,000.98	82.5144	8,000.98	82.9926	8,000.98	80.5126	8,000.98	81.1917	8,000.98	77.164	8,000.98	78.5098	8,000.98	73.1029	8,000.98	74.2494	8,000.98	69.9838	8,000.98	70.9937	8,000.98	67.5309	8,000.98	68.3514	8,000.98	65.445	8,000.98	65.7704	8,000.98	63.0663	8,000.98	64.068	8,000.98	62.3056	8,000.98	62.8543	8,000.98	61.3423	8,000.98	61.1346	8,000.98	59.2223	8,000.98	59.9855	8,000.98	58.5168	8,000.98	59.1198	8,000.98	57.5853	8,000.98	55.8555	8,000.98	59.8299	8,000.98	60.7881	8,000.98	57.0116
8,282.23	85.6003	8,282.23	86.0788	8,282.23	86.101	8,282.23	85.0261	8,282.23	85.3587	8,282.23	84.5387	8,282.23	84.6486	8,282.23	83.0218	8,282.23	83.444	8,282.23	81.1187	8,282.23	81.9348	8,282.23	77.1023	8,282.23	78.6866	8,282.23	73.8633	8,282.23	74.8936	8,282.23	71.0818	8,282.23	72.1734	8,282.23	68.3787	8,282.23	69.3025	8,282.23	65.672	8,282.23	66.9772	8,282.23	63.6472	8,282.23	64.8797	8,282.23	62.7132	8,282.23	63.3205	8,282.23	61.8305	8,282.23	61.5884	8,282.23	60.4961	8,282.23	60.8925	8,282.23	59.9732	8,282.23	60.2177	8,282.23	58.7616	8,282.23	55.559	8,282.23	60.8428	8,282.23	60.6572	8,282.23	58.1863
8,575.2	86.0344	8,575.2	86.0338	8,575.2	86.1187	8,575.2	85.3044	8,575.2	85.6577	8,575.2	84.1879	8,575.2	84.5905	8,575.2	82.9327	8,575.2	83.3534	8,575.2	80.488	8,575.2	81.6796	8,575.2	76.2589	8,575.2	77.9115	8,575.2	73.7801	8,575.2	74.9689	8,575.2	70.4974	8,575.2	71.9002	8,575.2	67.6138	8,575.2	68.6042	8,575.2	65.4124	8,575.2	66.3538	8,575.2	63.3905	8,575.2	63.8229	8,575.2	61.7828	8,575.2	62.3059	8,575.2	60.6859	8,575.2	60.5975	8,575.2	59.8793	8,575.2	60.2218	8,575.2	58.962	8,575.2	58.8756	8,575.2	58.6141	8,575.2	54.322	8,575.2	59.9802	8,575.2	58.8809	8,575.2	57.5576
8,876.95	85.9118	8,876.95	85.6559	8,876.95	85.6915	8,876.95	85.1203	8,876.95	85.5112	8,876.95	83.8899	8,876.95	84.2059	8,876.95	82.7091	8,876.95	83.154	8,876.95	79.0808	8,876.95	80.5355	8,876.95	75.9111	8,876.95	77.4238	8,876.95	73.245	8,876.95	74.2136	8,876.95	68.9825	8,876.95	70.4156	8,876.95	66.108	8,876.95	67.2633	8,876.95	63.9271	8,876.95	65.0374	8,876.95	61.7468	8,876.95	63.1364	8,876.95	60.2677	8,876.95	61.1348	8,876.95	58.961	8,876.95	59.7378	8,876.95	57.7592	8,876.95	59.8127	8,876.95	57.8919	8,876.95	58.1296	8,876.95	57.187	8,876.95	53.6082	8,876.95	58.5374	8,876.95	57.4854	8,876.95	54.9881
9,190.43	85.194	9,190.43	85.0456	9,190.43	85.0341	9,190.43	84.582	9,190.43	84.8076	9,190.43	83.5724	9,190.43	83.782	9,190.43	82.3243	9,190.43	82.4666	9,190.43	78.4528	9,190.43	80.1371	9,190.43	75.8305	9,190.43	77.3511	9,190.43	71.0651	9,190.43	73.0483	9,190.43	66.2752	9,190.43	69.9038	9,190.43	63.9328	9,190.43	67.4981	9,190.43	61.9598	9,190.43	65.2579	9,190.43	59.7068	9,190.43	63.3192	9,190.43	57.5216	9,190.43	61.7547	9,190.43	57.0264	9,190.43	60.4365	9,190.43	56.0986	9,190.43	59.9985	9,190.43	56.4725	9,190.43	58.2164	9,190.43	55.9756	9,190.43	54.8665	9,190.43	57.9551	9,190.43	57.7624	9,190.43	54.6721
9,512.7	84.5222	9,512.7	84.5582	9,512.7	84.8222	9,512.7	83.4692	9,512.7	84.0087	9,512.7	83.077	9,512.7	83.7445	9,512.7	81.4643	9,512.7	81.7128	9,512.7	79.0611	9,512.7	80.0764	9,512.7	74.8447	9,512.7	76.2582	9,512.7	69.7628	9,512.7	73.0474	9,512.7	67.4954	9,512.7	70.7064	9,512.7	64.8308	9,512.7	67.507	9,512.7	62.146	9,512.7	64.9908	9,512.7	59.586	9,512.7	63.0168	9,512.7	57.3584	9,512.7	61.4867	9,512.7	56.1816	9,512.7	59.9854	9,512.7	55.4765	9,512.7	59.2023	9,512.7	55.6203	9,512.7	57.5838	9,512.7	55.485	9,512.7	55.8118	9,512.7	57.7121	9,512.7	57.8928	9,512.7	54.8428
9,849.61	82.5385	9,849.61	83.102	9,849.61	83.236	9,849.61	81.543	9,849.61	81.9478	9,849.61	81.0625	9,849.61	81.5388	9,849.61	79.2982	9,849.61	79.712	9,849.61	77.4875	9,849.61	77.115	9,849.61	72.0565	9,849.61	73.3596	9,849.61	69.9183	9,849.61	70.4705	9,849.61	66.6644	9,849.61	66.4708	9,849.61	62.7356	9,849.61	62.4635	9,849.61	59.6216	9,849.61	59.997	9,849.61	56.5495	9,849.61	58.3042	9,849.61	54.6022	9,849.61	56.592	9,849.61	52.9879	9,849.61	54.9626	9,849.61	52.0905	9,849.61	53.5891	9,849.61	51.0145	9,849.61	52.4665	9,849.61	51.2436	9,849.61	49.9722	9,849.61	54.3219	9,849.61	52.8775	9,849.61	49.6356
10,195.3	82.0951	10,195.3	82.4818	10,195.3	82.4548	10,195.3	81.3638	10,195.3	81.5971	10,195.3	79.9392	10,195.3	80.5521	10,195.3	78.8644	10,195.3	79.7844	10,195.3	75.4882	10,195.3	76.6622	10,195.3	72.0819	10,195.3	73.505	10,195.3	68.9425	10,195.3	68.8765	10,195.3	63.4935	10,195.3	65.0743	10,195.3	59.124	10,195.3	61.8406	10,195.3	56.9967	10,195.3	59.2041	10,195.3	54.8164	10,195.3	57.714	10,195.3	52.4195	10,195.3	54.7813	10,195.3	51.9662	10,195.3	53.9075	10,195.3	50.8591	10,195.3	52.7312	10,195.3	47.0184	10,195.3	51.0312	10,195.3	46.0223	10,195.3	48.7542	10,195.3	50.4268	10,195.3	50.1857	10,195.3	46.7746
10,555.7	83.5465	10,555.7	83.2148	10,555.7	83.5466	10,555.7	82.6638	10,555.7	83.1527	10,555.7	80.5595	10,555.7	81.5995	10,555.7	80.4305	10,555.7	81.089	10,555.7	76.7168	10,555.7	78.4026	10,555.7	74.275	10,555.7	74.8331	10,555.7	68.5279	10,555.7	70.103	10,555.7	64.5438	10,555.7	66.6945	10,555.7	61.9252	10,555.7	63.154	10,555.7	59.5628	10,555.7	59.8189	10,555.7	57.5299	10,555.7	57.9365	10,555.7	55.5896	10,555.7	55.7188	10,555.7	55.1267	10,555.7	54.1211	10,555.7	54.6871	10,555.7	53.204	10,555.7	51.423	10,555.7	51.6703	10,555.7	45.5915	10,555.7	49.0361	10,555.7	50.1486	10,555.7	49.6144	10,555.7	49.2184
10,927.7	84.6158	10,927.7	83.4689	10,927.7	83.7318	10,927.7	83.4291	10,927.7	83.6987	10,927.7	81.0942	10,927.7	81.6461	10,927.7	80.5002	10,927.7	80.6562	10,927.7	78.2917	10,927.7	78.3743	10,927.7	73.8601	10,927.7	73.8967	10,927.7	69.7	10,927.7	70.0281	10,927.7	67.0879	10,927.7	65.8186	10,927.7	63.5868	10,927.7	61.4059	10,927.7	60.5598	10,927.7	57.696	10,927.7	58.5302	10,927.7	55.7794	10,927.7	56.5806	10,927.7	53.9018	10,927.7	55.9279	10,927.7	51.6885	10,927.7	56.2788	10,927.7	50.1518	10,927.7	52.9584	10,927.7	49.5836	10,927.7	48.7879	10,927.7	47.3428	10,927.7	49.5657	10,927.7	43.8541	10,927.7	49.8938
11,314.5	85.0284	11,314.5	83.6759	11,314.5	83.8049	11,314.5	83.6456	11,314.5	83.9464	11,314.5	81.6855	11,314.5	82.0406	11,314.5	79.7743	11,314.5	80.7695	11,314.5	77.8388	11,314.5	78.5694	11,314.5	72.4413	11,314.5	74.2049	11,314.5	69.8774	11,314.5	69.7493	11,314.5	65.3488	11,314.5	64.878	11,314.5	61.4546	11,314.5	61.0218	11,314.5	58.6356	11,314.5	57.9983	11,314.5	56.6285	11,314.5	54.5757	11,314.5	54.3756	11,314.5	53.5045	11,314.5	54.1229	11,314.5	51.1826	11,314.5	54.8918	11,314.5	50.7122	11,314.5	51.0664	11,314.5	49.7719	11,314.5	45.0131	11,314.5	47.9397	11,314.5	46.9784	11,314.5	41.8301	11,314.5	49.1514
11,712.9	84.7139	11,712.9	83.6047	11,712.9	83.5951	11,712.9	83.041	11,712.9	83.7102	11,712.9	81.6222	11,712.9	81.9232	11,712.9	79.8913	11,712.9	80.5878	11,712.9	76.5992	11,712.9	78.3083	11,712.9	72.7116	11,712.9	74.2963	11,712.9	68.1853	11,712.9	69.6933	11,712.9	62.9768	11,712.9	64.6296	11,712.9	59.7266	11,712.9	60.8354	11,712.9	56.9335	11,712.9	57.8663	11,712.9	55.4823	11,712.9	54.7904	11,712.9	53.5497	11,712.9	53.2026	11,712.9	51.8315	11,712.9	50.7092	11,712.9	52.3265	11,712.9	52.2896	11,712.9	50.2087	11,712.9	51.0696	11,712.9	41.9812	11,712.9	48.8959	11,712.9	42.7978	11,712.9	40.552	11,712.9	48.2396
12,126	84.6165	12,126	83.7817	12,126	83.8734	12,126	82.8304	12,126	83.6238	12,126	81.0965	12,126	81.8889	12,126	79.6379	12,126	80.4831	12,126	76.2116	12,126	77.9066	12,126	72.7137	12,126	74.0653	12,126	67.4598	12,126	68.9474	12,126	63.7253	12,126	64.496	12,126	60.1287	12,126	61.2638	12,126	57.6416	12,126	57.894	12,126	55.2385	12,126	55.1049	12,126	53.2778	12,126	53.4387	12,126	52.2505	12,126	52.0585	12,126	53.3366	12,126	52.2372	12,126	51.0768	12,126	51.7665	12,126	44.9767	12,126	49.6209	12,126	40.1661	12,126	40.7698	12,126	48.009
12,553.7	84.2572	12,553.7	83.6258	12,553.7	83.7329	12,553.7	82.8137	12,553.7	83.0756	12,553.7	80.625	12,553.7	81.292	12,553.7	79.1998	12,553.7	79.5449	12,553.7	76.2621	12,553.7	76.9649	12,553.7	71.2623	12,553.7	73.0594	12,553.7	67.0635	12,553.7	68.5022	12,553.7	62.8078	12,553.7	64.2247	12,553.7	59.6647	12,553.7	60.3147	12,553.7	55.8933	12,553.7	57.6518	12,553.7	54.3004	12,553.7	53.9495	12,553.7	52.2295	12,553.7	53.2162	12,553.7	51.1284	12,553.7	51.6657	12,553.7	51.3583	12,553.7	51.6597	12,553.7	50.6828	12,553.7	50.8236	12,553.7	47.3206	12,553.7	48.7816	12,553.7	37.9427	12,553.7	35.3116	12,553.7	48.664
12,996.1	83.6807	12,996.1	83.2394	12,996.1	83.315	12,996.1	82.4701	12,996.1	82.4014	12,996.1	80.0657	12,996.1	80.6903	12,996.1	77.9586	12,996.1	78.5718	12,996.1	75.3557	12,996.1	76.2822	12,996.1	70.4586	12,996.1	72.1161	12,996.1	66.6405	12,996.1	67.8104	12,996.1	61.6341	12,996.1	63.5256	12,996.1	58.4263	12,996.1	59.899	12,996.1	56.1563	12,996.1	56.9439	12,996.1	54.2081	12,996.1	53.0964	12,996.1	52.3743	12,996.1	53.0222	12,996.1	50.4703	12,996.1	50.2552	12,996.1	50.3145	12,996.1	50.6028	12,996.1	49.8668	12,996.1	50.856	12,996.1	45.3687	12,996.1	48.7421	12,996.1	36.4019	12,996.1	28.7256	12,996.1	48.4003
13,453.1	83.0651	13,453.1	82.6197	13,453.1	82.9491	13,453.1	81.7506	13,453.1	82.1068	13,453.1	79.162	13,453.1	80.3372	13,453.1	76.2135	13,453.1	78.173	13,453.1	73.5385	13,453.1	76.3305	13,453.1	69.0392	13,453.1	72.6019	13,453.1	64.8799	13,453.1	68.2546	13,453.1	60.5899	13,453.1	64.1367	13,453.1	58.1703	13,453.1	60.4384	13,453.1	54.689	13,453.1	56.7801	13,453.1	52.5989	13,453.1	54.5698	13,453.1	51.717	13,453.1	51.7429	13,453.1	48.3229	13,453.1	50.5233	13,453.1	44.7144	13,453.1	50.579	13,453.1	46.6817	13,453.1	50.6632	13,453.1	39.4149	13,453.1	48.0278	13,453.1	38.4798	13,453.1	33.7984	13,453.1	47.0882
13,927.7	82.4372	13,927.7	81.7663	13,927.7	82.5614	13,927.7	80.84	13,927.7	81.6056	13,927.7	78.2764	13,927.7	79.9304	13,927.7	75.0597	13,927.7	77.7085	13,927.7	72.1796	13,927.7	75.6237	13,927.7	67.4577	13,927.7	71.8594	13,927.7	63.9267	13,927.7	67.4785	13,927.7	59.5286	13,927.7	63.6182	13,927.7	56.4015	13,927.7	59.5885	13,927.7	54.0131	13,927.7	55.2442	13,927.7	52.6062	13,927.7	53.5968	13,927.7	50.6244	13,927.7	50.8521	13,927.7	46.0036	13,927.7	48.3494	13,927.7	44.0927	13,927.7	48.1569	13,927.7	43.9047	13,927.7	48.1144	13,927.7	40.4677	13,927.7	46.5286	13,927.7	42.4972	13,927.7	38.7199	13,927.7	44.9755
14,419.9	82.3545	14,419.9	81.5168	14,419.9	82.3514	14,419.9	80.3648	14,419.9	81.2586	14,419.9	77.85	14,419.9	79.6196	14,419.9	75.0184	14,419.9	77.1228	14,419.9	72.1384	14,419.9	74.9471	14,419.9	67.2764	14,419.9	70.9076	14,419.9	63.7958	14,419.9	67.009	14,419.9	59.1128	14,419.9	62.7039	14,419.9	57.072	14,419.9	58.7314	14,419.9	52.8151	14,419.9	54.1381	14,419.9	51.2567	14,419.9	52.8135	14,419.9	49.9449	14,419.9	49.9639	14,419.9	45.914	14,419.9	49.0522	14,419.9	39.4604	14,419.9	49.1532	14,419.9	44.2131	14,419.9	45.7082	14,419.9	44.2855	14,419.9	45.576	14,419.9	42.3221	14,419.9	39.3435	14,419.9	44.4852
14,929.7	81.0198	14,929.7	80.1156	14,929.7	81.0874	14,929.7	78.6821	14,929.7	79.687	14,929.7	75.8927	14,929.7	78.282	14,929.7	73.3603	14,929.7	75.786	14,929.7	70.3544	14,929.7	73.6982	14,929.7	65.2033	14,929.7	69.3874	14,929.7	61.7423	14,929.7	65.1402	14,929.7	58.4249	14,929.7	61.2675	14,929.7	53.9541	14,929.7	57.6182	14,929.7	49.7127	14,929.7	53.6731	14,929.7	48.2193	14,929.7	51.0477	14,929.7	47.2372	14,929.7	49.6295	14,929.7	42.9498	14,929.7	49.6374	14,929.7	35.1195	14,929.7	47.6362	14,929.7	41.0252	14,929.7	44.044	14,929.7	42.131	14,929.7	42.8816	14,929.7	39.9597	14,929.7	41.222	14,929.7	42.9197
15,454.1	78.2254	15,454.1	76.7102	15,454.1	78.3874	15,454.1	74.1808	15,454.1	77.1828	15,454.1	70.8389	15,454.1	76.1891	15,454.1	67.1329	15,454.1	73.9523	15,454.1	64.7042	15,454.1	71.7862	15,454.1	60.2452	15,454.1	67.4118	15,454.1	56.6149	15,454.1	63.286	15,454.1	52.2084	15,454.1	57.884	15,454.1	47.9102	15,454.1	54.2162	15,454.1	43.3788	15,454.1	51.0583	15,454.1	36.0362	15,454.1	44.9228	15,454.1	39.0354	15,454.1	47.8043	15,454.1	39.7132	15,454.1	47.3698	15,454.1	38.9417	15,454.1	42.4319	15,454.1	42.0593	15,454.1	38.6884	15,454.1	43.4794	15,454.1	35.0521	15,454.1	40.8272	15,454.1	41.4646	15,454.1	37.6545
15,999	84.0299	15,999	83.2662	15,999	83.8369	15,999	81.5599	15,999	82.2041	15,999	79.0148	15,999	80.1703	15,999	76.0628	15,999	77.1799	15,999	73.0218	15,999	74.1279	15,999	69.2829	15,999	70.196	15,999	64.5043	15,999	66.5241	15,999	60.2271	15,999	61.7557	15,999	56.6696	15,999	57.3978	15,999	53.5686	15,999	53.2133	15,999	49.531	15,999	50.6222	15,999	46.7989	15,999	49.2675	15,999	46.0172	15,999	47.9904	15,999	38.7371	15,999	48.3963	15,999	43.684	15,999	45.9117	15,999	47.5709	15,999	33.9429	15,999	45.2169	15,999	46.4242	15,999	41.4197
16,564.5	81.6776	16,564.5	80.8884	16,564.5	81.3528	16,564.5	79.3068	16,564.5	79.6561	16,564.5	76.5799	16,564.5	77.4971	16,564.5	73.4619	16,564.5	74.2796	16,564.5	70.4683	16,564.5	71.5596	16,564.5	67.56	16,564.5	67.9333	16,564.5	62.0906	16,564.5	64.4099	16,564.5	57.4909	16,564.5	57.9292	16,564.5	53.8456	16,564.5	53.9189	16,564.5	51.7993	16,564.5	50.7406	16,564.5	48.9346	16,564.5	47.7037	16,564.5	43.7037	16,564.5	46.7548	16,564.5	39.3722	16,564.5	43.7601	16,564.5	30.5268	16,564.5	47.3449	16,564.5	38.9626	16,564.5	43.7323	16,564.5	43.413	16,564.5	35.4984	16,564.5	41.3929	16,564.5	44.4473	16,564.5	41.0273
17,147.5	78.4532	17,147.5	76.9791	17,147.5	78.4126	17,147.5	74.7424	17,147.5	77.1744	17,147.5	71.0698	17,147.5	74.802	17,147.5	67.4361	17,147.5	71.5727	17,147.5	63.9879	17,147.5	69.1591	17,147.5	61.5349	17,147.5	66.2183	17,147.5	52.7198	17,147.5	59.0879	17,147.5	48.6526	17,147.5	54.9025	17,147.5	46.8472	17,147.5	51.6285	17,147.5	41.2652	17,147.5	47.0478	17,147.5	36.9148	17,147.5	44.4524	17,147.5	35.4401	17,147.5	43.4453	17,147.5	35.3358	17,147.5	37.9535	17,147.5	38.3943	17,147.5	44.321	17,147.5	30.5415	17,147.5	38.8185	17,147.5	38.5898	17,147.5	31.9506	17,147.5	29.8752	17,147.5	43.6332	17,147.5	39.5322
17,753.9	79.9501	17,753.9	78.893	17,753.9	79.548	17,753.9	76.6196	17,753.9	77.9539	17,753.9	73.3776	17,753.9	75.0621	17,753.9	70.3312	17,753.9	71.5723	17,753.9	67.1454	17,753.9	68.4613	17,753.9	63.3232	17,753.9	64.7009	17,753.9	57.2138	17,753.9	58.9498	17,753.9	54.8068	17,753.9	54.9386	17,753.9	49.1484	17,753.9	50.6048	17,753.9	46.5921	17,753.9	46.5415	17,753.9	44.3855	17,753.9	44.0645	17,753.9	39.2066	17,753.9	41.2648	17,753.9	37.9308	17,753.9	31.8545	17,753.9	36.5799	17,753.9	39.6915	17,753.9	30.5854	17,753.9	36.8683	17,753.9	37.8657	17,753.9	22.1963	17,753.9	24.0279	17,753.9	40.4948	17,753.9	37.2676
18,377.9	75.6973	18,377.9	74.3474	18,377.9	75.5107	18,377.9	71.5718	18,377.9	74.0371	18,377.9	67.9045	18,377.9	71.2862	18,377.9	64.7499	18,377.9	68.2159	18,377.9	61.3527	18,377.9	65.0222	18,377.9	57.4241	18,377.9	61.3778	18,377.9	53.3555	18,377.9	55.7877	18,377.9	49.7885	18,377.9	51.427	18,377.9	43.0911	18,377.9	47.251	18,377.9	41.5298	18,377.9	43.7022	18,377.9	37.5899	18,377.9	41.4891	18,377.9	31.9886	18,377.9	38.2466	18,377.9	32.2739	18,377.9	33.7841	18,377.9	26.6561	18,377.9	33.1567	18,377.9	28.2327	18,377.9	34.1079	18,377.9	31.5985	18,377.9	23.0664	18,377.9	24.177	18,377.9	31.9897	18,377.9	30.4334
19,028.3	75.3631	19,028.3	73.8947	19,028.3	75.1609	19,028.3	70.6955	19,028.3	73.4901	19,028.3	66.2888	19,028.3	70.244	19,028.3	61.5164	19,028.3	65.9759	19,028.3	57.5643	19,028.3	61.0257	19,028.3	54.3936	19,028.3	56.4927	19,028.3	50.6361	19,028.3	50.4066	19,028.3	45.8877	19,028.3	46.9614	19,028.3	40.0403	19,028.3	41.8833	19,028.3	37.3772	19,028.3	39.4026	19,028.3	35.7709	19,028.3	37.2526	19,028.3	26.6088	19,028.3	34.0787	19,028.3	27.6507	19,028.3	28.836	19,028.3	24.5404	19,028.3	31.0717	19,028.3	19.5177	19,028.3	32.2918	19,028.3	29.1712	19,028.3	16.3908	19,028.3	18.2204	19,028.3	25.5605	19,028.3	23.9399
19,699.2	62.8621	19,699.2	63.1543	19,699.2	60.5468	19,699.2	61.6318	19,699.2	56.2118	19,699.2	60.8371	19,699.2	55.527	19,699.2	60.4298	19,699.2	57.4809	19,699.2	58.6185	19,699.2	57.4531	19,699.2	56.18	19,699.2	55.1333	19,699.2	50.3675	19,699.2	51.7527	19,699.2	45.8208	19,699.2	44.9946	19,699.2	41.2345	19,699.2	40.5836	19,699.2	38.0907	19,699.2	37.075	19,699.2	35.3091	19,699.2	35.4794	19,699.2	27.347	19,699.2	32.4407	19,699.2	25.8194	19,699.2	22.2671	19,699.2	23.8696	19,699.2	18.2102	19,699.2	25.2786	19,699.2	29.1363	19,699.2	19.9532	19,699.2	16.2125	19,699.2	22.8502	19,699.2	18.5417	19,699.2	23.9105
19,998	68.4778	19,998	67.4357	19,998	67.605	19,998	64.7308	19,998	65.6869	19,998	61.9203	19,998	63.1008	19,998	59.8214	19,998	61.4131	19,998	57.1738	19,998	59.6937	19,998	54.3738	19,998	56.6791	19,998	48.3966	19,998	53.4808	19,998	45.4804	19,998	47.262	19,998	38.5365	19,998	41.8171	19,998	35.5886	19,998	37.5872	19,998	34.2551	19,998	37.2642	19,998	23.1468	19,998	32.4	19,998	30.1844	19,998	30.1443	19,998	23.2892	19,998	23.9414	19,998	12.7271	19,998	31.3828	19,998	20.0588	19,998	29.2833	19,998	27.2694	19,998	19.6676	19,998	19.5037
