"SPL Vertical"																																																																							
"On-Axis"		"10°"		"-10°"		"20°"		"-20°"		"30°"		"-30°"		"40°"		"-40°"		"50°"		"-50°"		"60°"		"-60°"		"70°"		"-70°"		"80°"		"-80°"		"90°"		"-90°"		"100°"		"-100°"		"110°"		"-110°"		"120°"		"-120°"		"130°"		"-130°"		"140°"		"-140°"		"150°"		"-150°"		"160°"		"-160°"		"170°"		"-170°"		"180°"	
"Frequency [Hz]"	"Sound Pessure Level [dB]  / [2.83V 1m] "	"Frequency [Hz]"	"Sound Pessure Level [dB]  / [2.83V 1m] "	"Frequency [Hz]"	"Sound Pessure Level [dB]  / [2.83V 1m] "	"Frequency [Hz]"	"Sound Pessure Level [dB]  / [2.83V 1m] "	"Frequency [Hz]"	"Sound Pessure Level [dB]  / [2.83V 1m] "	"Frequency [Hz]"	"Sound Pessure Level [dB]  / [2.83V 1m] "	"Frequency [Hz]"	"Sound Pessure Level [dB]  / [2.83V 1m] "	"Frequency [Hz]"	"Sound Pessure Level [dB]  / [2.83V 1m] "	"Frequency [Hz]"	"Sound Pessure Level [dB]  / [2.83V 1m] "	"Frequency [Hz]"	"Sound Pessure Level [dB]  / [2.83V 1m] "	"Frequency [Hz]"	"Sound Pessure Level [dB]  / [2.83V 1m] "	"Frequency [Hz]"	"Sound Pessure Level [dB]  / [2.83V 1m] "	"Frequency [Hz]"	"Sound Pessure Level [dB]  / [2.83V 1m] "	"Frequency [Hz]"	"Sound Pessure Level [dB]  / [2.83V 1m] "	"Frequency [Hz]"	"Sound Pessure Level [dB]  / [2.83V 1m] "	"Frequency [Hz]"	"Sound Pessure Level [dB]  / [2.83V 1m] "	"Frequency [Hz]"	"Sound Pessure Level [dB]  / [2.83V 1m] "	"Frequency [Hz]"	"Sound Pessure Level [dB]  / [2.83V 1m] "	"Frequency [Hz]"	"Sound Pessure Level [dB]  / [2.83V 1m] "	"Frequency [Hz]"	"Sound Pessure Level [dB]  / [2.83V 1m] "	"Frequency [Hz]"	"Sound Pessure Level [dB]  / [2.83V 1m] "	"Frequency [Hz]"	"Sound Pessure Level [dB]  / [2.83V 1m] "	"Frequency [Hz]"	"Sound Pessure Level [dB]  / [2.83V 1m] "	"Frequency [Hz]"	"Sound Pessure Level [dB]  / [2.83V 1m] "	"Frequency [Hz]"	"Sound Pessure Level [dB]  / [2.83V 1m] "	"Frequency [Hz]"	"Sound Pessure Level [dB]  / [2.83V 1m] "	"Frequency [Hz]"	"Sound Pessure Level [dB]  / [2.83V 1m] "	"Frequency [Hz]"	"Sound Pessure Level [dB]  / [2.83V 1m] "	"Frequency [Hz]"	"Sound Pessure Level [dB]  / [2.83V 1m] "	"Frequency [Hz]"	"Sound Pessure Level [dB]  / [2.83V 1m] "	"Frequency [Hz]"	"Sound Pessure Level [dB]  / [2.83V 1m] "	"Frequency [Hz]"	"Sound Pessure Level [dB]  / [2.83V 1m] "	"Frequency [Hz]"	"Sound Pessure Level [dB]  / [2.83V 1m] "	"Frequency [Hz]"	"Sound Pessure Level [dB]  / [2.83V 1m] "	"Frequency [Hz]"	"Sound Pessure Level [dB]  / [2.83V 1m] "	"Frequency [Hz]"	"Sound Pessure Level [dB]  / [2.83V 1m] "
20.5078	50.1768	20.5078	49.9546	20.5078	50.3819	20.5078	49.8155	20.5078	50.4919	20.5078	49.8684	20.5078	50.4516	20.5078	50.1956	20.5078	50.2293	20.5078	50.8139	20.5078	49.8341	20.5078	51.6697	20.5078	49.3679	20.5078	52.6741	20.5078	49.1134	20.5078	53.7421	20.5078	49.508	20.5078	54.8107	20.5078	50.7456	20.5078	55.839	20.5078	52.5052	20.5078	56.8012	20.5078	54.3443	20.5078	57.6802	20.5078	56.0103	20.5078	58.462	20.5078	57.4103	20.5078	59.1335	20.5078	58.5254	20.5078	59.6806	20.5078	59.364	20.5078	60.0875	20.5078	59.9437	20.5078	60.3367	20.5078	60.2852	20.5078	60.4092
23.4375	54.4452	23.4375	54.241	23.4375	54.6232	23.4375	54.0805	23.4375	54.7203	23.4375	54.0431	23.4375	54.6982	23.4375	54.1999	23.4375	54.5372	23.4375	54.5891	23.4375	54.25	23.4375	55.2001	23.4375	53.9119	23.4375	55.9819	23.4375	53.7056	23.4375	56.8674	23.4375	53.9108	23.4375	57.7949	23.4375	54.7188	23.4375	58.7165	23.4375	56.0212	23.4375	59.5984	23.4375	57.5198	23.4375	60.4164	23.4375	58.9655	23.4375	61.1518	23.4375	60.2272	23.4375	61.7884	23.4375	61.2543	23.4375	62.31	23.4375	62.0362	23.4375	62.7001	23.4375	62.5798	23.4375	62.9409	23.4375	62.8997	23.4375	63.0138
26.3672	58.6739	26.3672	58.5822	26.3672	58.7621	26.3672	58.5294	26.3672	58.8127	26.3672	58.5605	26.3672	58.8033	26.3672	58.7148	26.3672	58.7293	26.3672	59.0162	26.3672	58.6131	26.3672	59.4666	26.3672	58.519	26.3672	60.0464	26.3672	58.5605	26.3672	60.7216	26.3672	58.873	26.3672	61.4541	26.3672	59.5341	26.3672	62.2075	26.3672	60.4952	26.3672	62.9512	26.3672	61.6112	26.3672	63.6594	26.3672	62.7294	26.3672	64.3103	26.3672	63.7419	26.3672	64.8846	26.3672	64.589	26.3672	65.3637	26.3672	65.2441	26.3672	65.7293	26.3672	65.7012	26.3672	65.9632	26.3672	65.9652	26.3672	66.0475
29.2969	62.3357	29.2969	62.2524	29.2969	62.4201	29.2969	62.1995	29.2969	62.4821	29.2969	62.2086	29.2969	62.5076	29.2969	62.3085	29.2969	62.4957	29.2969	62.5198	29.2969	62.4651	29.2969	62.8501	29.2969	62.4604	29.2969	63.2921	29.2969	62.5535	29.2969	63.8263	29.2969	62.8268	29.2969	64.4261	29.2969	63.3327	29.2969	65.0624	29.2969	64.0561	29.2969	65.7074	29.2969	64.9161	29.2969	66.3356	29.2969	65.8078	29.2969	66.9243	29.2969	66.6403	29.2969	67.4524	29.2969	67.3524	29.2969	67.9001	29.2969	67.91	29.2969	68.2483	29.2969	68.2989	29.2969	68.4786	29.2969	68.5177	29.2969	68.5735
32.2266	66.1173	32.2266	66.0709	32.2266	66.1737	32.2266	66.0519	32.2266	66.2268	32.2266	66.0792	32.2266	66.2692	32.2266	66.1702	32.2266	66.303	32.2266	66.3382	32.2266	66.3428	32.2266	66.59	32.2266	66.4177	32.2266	66.9247	32.2266	66.5694	32.2266	67.3333	32.2266	66.8418	32.2266	67.801	32.2266	67.2616	32.2266	68.3088	32.2266	67.821	32.2266	68.836	32.2266	68.476	32.2266	69.3614	32.2266	69.1618	32.2266	69.864	32.2266	69.8142	32.2266	70.3236	32.2266	70.382	32.2266	70.7203	32.2266	70.8315	32.2266	71.0349	32.2266	71.1447	32.2266	71.2494	32.2266	71.3157	32.2266	71.3475
35.1563	69.7629	35.1563	69.6974	35.1563	69.8397	35.1563	69.6548	35.1563	69.9191	35.1563	69.6477	35.1563	69.9966	35.1563	69.6886	35.1563	70.0734	35.1563	69.7881	35.1563	70.1585	35.1563	69.9532	35.1563	70.2688	35.1563	70.1865	35.1563	70.4279	35.1563	70.485	35.1563	70.6605	35.1563	70.8408	35.1563	70.9829	35.1563	71.2415	35.1563	71.3936	35.1563	71.6717	35.1563	71.8698	35.1563	72.1137	35.1563	72.3723	35.1563	72.5486	35.1563	72.8565	35.1563	72.957	35.1563	73.2818	35.1563	73.3194	35.1563	73.6177	35.1563	73.6168	35.1563	73.845	35.1563	73.8316	35.1563	73.9551	35.1563	73.9483
38.0859	72.8796	38.0859	72.811	38.0859	72.9624	38.0859	72.7642	38.0859	73.0537	38.0859	72.7476	38.0859	73.1503	38.0859	72.7698	38.0859	73.2528	38.0859	72.8381	38.0859	73.366	38.0859	72.9583	38.0859	73.4997	38.0859	73.1331	38.0859	73.6667	38.0859	73.3621	38.0859	73.8805	38.0859	73.641	38.0859	74.1496	38.0859	73.9622	38.0859	74.4729	38.0859	74.3145	38.0859	74.8366	38.0859	74.6843	38.0859	75.2158	38.0859	75.0559	38.0859	75.5798	38.0859	75.4124	38.0859	75.8984	38.0859	75.7358	38.0859	76.1466	38.0859	76.0086	38.0859	76.3073	38.0859	76.2143	38.0859	76.3717	38.0859	76.3389
41.0156	75.5398	41.0156	75.4615	41.0156	75.6327	41.0156	75.403	41.0156	75.7358	41.0156	75.3703	41.0156	75.8465	41.0156	75.3692	41.0156	75.964	41.0156	75.4051	41.0156	76.0903	41.0156	75.4825	41.0156	76.2298	41.0156	75.6041	41.0156	76.3891	41.0156	75.7709	41.0156	76.575	41.0156	75.9811	41.0156	76.7923	41.0156	76.2304	41.0156	77.04	41.0156	76.5116	41.0156	77.31	41.0156	76.8146	41.0156	77.5864	41.0156	77.1272	41.0156	77.8485	41.0156	77.4349	41.0156	78.0741	41.0156	77.722	41.0156	78.2436	41.0156	77.9724	41.0156	78.3426	41.0156	78.171	41.0156	78.3633	41.0156	78.3045
43.9453	77.4112	43.9453	77.3236	43.9453	77.5128	43.9453	77.254	43.9453	77.6253	43.9453	77.2066	43.9453	77.7459	43.9453	77.1856	43.9453	77.8733	43.9453	77.1953	43.9453	78.0075	43.9453	77.2392	43.9453	78.1497	43.9453	77.3202	43.9453	78.3026	43.9453	77.4399	43.9453	78.4689	43.9453	77.5984	43.9453	78.6503	43.9453	77.7934	43.9453	78.8457	43.9453	78.0203	43.9453	79.0492	43.9453	78.2721	43.9453	79.2503	43.9453	78.539	43.9453	79.4349	43.9453	78.8088	43.9453	79.5871	43.9453	79.0678	43.9453	79.6922	43.9453	79.3016	43.9453	79.7392	43.9453	79.4962	43.9453	79.7217	43.9453	79.6392
46.875	78.6503	46.875	78.5546	46.875	78.7608	46.875	78.4768	46.875	78.883	46.875	78.4201	46.875	79.0144	46.875	78.3877	46.875	79.1526	46.875	78.3825	46.875	79.2959	46.875	78.4074	46.875	79.4433	46.875	78.4646	46.875	79.5946	46.875	78.5557	46.875	79.7496	46.875	78.681	46.875	79.908	46.875	78.8395	46.875	80.0678	46.875	79.0282	46.875	80.2246	46.875	79.2419	46.875	80.3712	46.875	79.473	46.875	80.4979	46.875	79.7117	46.875	80.5936	46.875	79.9467	46.875	80.6482	46.875	80.1651	46.875	80.6535	46.875	80.3547	46.875	80.6055	46.875	80.5043
49.8047	79.4452	49.8047	79.3428	49.8047	79.5623	49.8047	79.2577	49.8047	79.6913	49.8047	79.1921	49.8047	79.8294	49.8047	79.1485	49.8047	79.9737	49.8047	79.1288	49.8047	80.1212	49.8047	79.1352	49.8047	80.2694	49.8047	79.1695	49.8047	80.4158	49.8047	79.2331	49.8047	80.5586	49.8047	79.3268	49.8047	80.6955	49.8047	79.4504	49.8047	80.8243	49.8047	79.6025	49.8047	80.9412	49.8047	79.7797	49.8047	81.0413	49.8047	79.9767	49.8047	81.1181	49.8047	80.186	49.8047	81.1645	49.8047	80.3983	49.8047	81.1738	49.8047	80.6029	49.8047	81.1411	49.8047	80.7886	49.8047	81.0644	49.8047	80.9451
52.7344	79.9412	52.7344	79.8339	52.7344	80.0636	52.7344	79.7439	52.7344	80.1985	52.7344	79.6729	52.7344	80.3429	52.7344	79.6225	52.7344	80.4932	52.7344	79.5943	52.7344	80.6457	52.7344	79.5895	52.7344	80.7964	52.7344	79.6095	52.7344	80.9415	52.7344	79.6555	52.7344	81.0773	52.7344	79.7283	52.7344	81.2008	52.7344	79.8282	52.7344	81.3088	52.7344	79.9546	52.7344	81.3981	52.7344	80.1055	52.7344	81.465	52.7344	80.2771	52.7344	81.5053	52.7344	80.464	52.7344	81.5148	52.7344	80.6586	52.7344	81.4896	52.7344	80.8518	52.7344	81.4276	52.7344	81.0339	52.7344	81.3287	52.7344	81.1955
55.6641	80.3268	55.6641	80.2136	55.6641	80.4551	55.6641	80.1175	55.6641	80.596	55.6641	80.0399	55.6641	80.7463	55.6641	79.9819	55.6641	80.9018	55.6641	79.9445	55.6641	81.0582	55.6641	79.9284	55.6641	81.2103	55.6641	79.9346	55.6641	81.3533	55.6641	79.9641	55.6641	81.4825	55.6641	80.0176	55.6641	81.5937	55.6641	80.096	55.6641	81.6833	55.6641	80.1992	55.6641	81.7484	55.6641	80.3264	55.6641	81.786	55.6641	80.4756	55.6641	81.7939	55.6641	80.6427	55.6641	81.77	55.6641	80.8221	55.6641	81.7131	55.6641	81.0063	55.6641	81.6232	55.6641	81.1867	55.6641	81.5024	55.6641	81.3548
58.5938	80.5992	58.5938	80.4831	58.5938	80.7306	58.5938	80.3843	58.5938	80.8749	58.5938	80.3038	58.5938	81.0286	58.5938	80.2423	58.5938	81.1871	58.5938	80.2003	58.5938	81.3454	58.5938	80.178	58.5938	81.4977	58.5938	80.1759	58.5938	81.6383	58.5938	80.1946	58.5938	81.7618	58.5938	80.2347	58.5938	81.8632	58.5938	80.297	58.5938	81.9387	58.5938	80.3821	58.5938	81.9852	58.5938	80.4899	58.5938	82.0009	58.5938	80.6195	58.5938	81.9845	58.5938	80.7685	58.5938	81.9357	58.5938	80.9328	58.5938	81.8553	58.5938	81.1066	58.5938	81.7453	58.5938	81.2826	58.5938	81.6093	58.5938	81.4528
61.5234	80.8513	61.5234	80.7309	61.5234	80.9869	61.5234	80.6275	61.5234	81.1353	61.5234	80.5421	61.5234	81.2926	61.5234	80.475	61.5234	81.454	61.5234	80.4262	61.5234	81.614	61.5234	80.3957	61.5234	81.7662	61.5234	80.3836	61.5234	81.9041	61.5234	80.3902	61.5234	82.0218	61.5234	80.4161	61.5234	82.1137	61.5234	80.4623	61.5234	82.1757	61.5234	80.5298	61.5234	82.2048	61.5234	80.6193	61.5234	82.1995	61.5234	80.7312	61.5234	82.1597	61.5234	80.8645	61.5234	82.0866	61.5234	81.0164	61.5234	81.9826	61.5234	81.1826	61.5234	81.8517	61.5234	81.3569	61.5234	81.6992	61.5234	81.5317
64.4531	81.0113	64.4531	80.8856	64.4531	81.1513	64.4531	80.7761	64.4531	81.3029	64.4531	80.6834	64.4531	81.4623	64.4531	80.6079	64.4531	81.6244	64.4531	80.5494	64.4531	81.7832	64.4531	80.5076	64.4531	81.9319	64.4531	80.4825	64.4531	82.0639	64.4531	80.4743	64.4531	82.1725	64.4531	80.4837	64.4531	82.2521	64.4531	80.5118	64.4531	82.2983	64.4531	80.5602	64.4531	82.3084	64.4531	80.6306	64.4531	82.2813	64.4531	80.7243	64.4531	82.2178	64.4531	80.8416	64.4531	82.1203	64.4531	80.9814	64.4531	81.9929	64.4531	81.1404	64.4531	81.8412	64.4531	81.3134	64.4531	81.672	64.4531	81.4933
67.3828	81.2433	67.3828	81.1128	67.3828	81.3874	67.3828	80.9975	67.3828	81.5423	67.3828	80.8982	67.3828	81.7041	67.3828	80.8149	67.3828	81.8674	67.3828	80.7472	67.3828	82.0261	67.3828	80.6948	67.3828	82.1731	67.3828	80.6575	67.3828	82.3012	67.3828	80.6356	67.3828	82.4035	67.3828	80.63	67.3828	82.474	67.3828	80.6422	67.3828	82.5081	67.3828	80.6745	67.3828	82.5033	67.3828	80.7293	67.3828	82.4587	67.3828	80.809	67.3828	82.3758	67.3828	80.915	67.3828	82.2579	67.3828	81.0471	67.3828	82.1104	67.3828	81.203	67.3828	81.9401	67.3828	81.3779	67.3828	81.7552	67.3828	81.5648
70.3125	81.4346	70.3125	81.299	70.3125	81.5846	70.3125	81.1797	70.3125	81.746	70.3125	81.0776	70.3125	81.9142	70.3125	80.9927	70.3125	82.0833	70.3125	80.9245	70.3125	82.2467	70.3125	80.8724	70.3125	82.3967	70.3125	80.836	70.3125	82.5259	70.3125	80.8152	70.3125	82.6273	70.3125	80.8109	70.3125	82.6949	70.3125	80.8242	70.3125	82.7245	70.3125	80.8572	70.3125	82.7138	70.3125	80.9122	70.3125	82.6625	70.3125	80.9914	70.3125	82.5728	70.3125	81.0964	70.3125	82.4485	70.3125	81.2271	70.3125	82.2954	70.3125	81.3814	70.3125	82.1209	70.3125	81.5552	70.3125	81.9334	70.3125	81.7418
73.2422	81.6244	73.2422	81.4869	73.2422	81.777	73.2422	81.3666	73.2422	81.9412	73.2422	81.2645	73.2422	82.1122	73.2422	81.1805	73.2422	82.2841	73.2422	81.1143	73.2422	82.4499	73.2422	81.0648	73.2422	82.602	73.2422	81.0313	73.2422	82.7327	73.2422	81.0133	73.2422	82.8348	73.2422	81.0109	73.2422	82.9023	73.2422	81.0249	73.2422	82.9306	73.2422	81.057	73.2422	82.9172	73.2422	81.1093	73.2422	82.8618	73.2422	81.1841	73.2422	82.7666	73.2422	81.2835	73.2422	82.6361	73.2422	81.4081	73.2422	82.4767	73.2422	81.5571	73.2422	82.2968	73.2422	81.7272	73.2422	82.1055	73.2422	81.9126
76.1719	81.8625	76.1719	81.7168	76.1719	82.0225	76.1719	81.5879	76.1719	82.1929	76.1719	81.4772	76.1719	82.3686	76.1719	81.385	76.1719	82.5431	76.1719	81.3109	76.1719	82.7092	76.1719	81.2541	76.1719	82.859	76.1719	81.2136	76.1719	82.9847	76.1719	81.1887	76.1719	83.079	76.1719	81.1791	76.1719	83.136	76.1719	81.1854	76.1719	83.1513	76.1719	81.2091	76.1719	83.1228	76.1719	81.2522	76.1719	83.0508	76.1719	81.3174	76.1719	82.9384	76.1719	81.4074	76.1719	82.7907	76.1719	81.524	76.1719	82.6155	76.1719	81.6672	76.1719	82.4221	76.1719	81.8348	76.1719	82.2207	76.1719	82.0218
79.1016	81.9571	79.1016	81.8143	79.1016	82.1154	79.1016	81.6892	79.1016	82.2854	79.1016	81.5832	79.1016	82.462	79.1016	81.4963	79.1016	82.639	79.1016	81.428	79.1016	82.809	79.1016	81.3772	79.1016	82.9642	79.1016	81.3427	79.1016	83.0966	79.1016	81.3235	79.1016	83.1988	79.1016	81.3192	79.1016	83.2643	79.1016	81.3302	79.1016	83.2884	79.1016	81.3576	79.1016	83.2684	79.1016	81.4037	79.1016	83.2039	79.1016	81.4712	79.1016	83.0975	79.1016	81.5631	79.1016	82.954	79.1016	81.6813	79.1016	82.7811	79.1016	81.8264	79.1016	82.5881	79.1016	81.9961	79.1016	82.3858	79.1016	82.1852
82.0313	82.3419	82.0313	82.199	82.0313	82.4976	82.0313	82.0714	82.0313	82.6622	82.0313	81.9604	82.0313	82.8303	82.0313	81.8662	82.0313	82.9956	82.0313	81.7879	82.0313	83.1509	82.0313	81.7243	82.0313	83.2885	82.0313	81.6742	82.0313	83.4009	82.0313	81.6367	82.0313	83.4812	82.0313	81.6113	82.0313	83.5236	82.0313	81.5991	82.0313	83.524	82.0313	81.6019	82.0313	83.4804	82.0313	81.6227	82.0313	83.3932	82.0313	81.6654	82.0313	83.2656	82.0313	81.7341	82.0313	83.1035	82.0313	81.8321	82.0313	82.9152	82.0313	81.9608	82.0313	82.7113	82.0313	82.119	82.0313	82.5032	82.0313	82.3024
84.9609	82.6251	84.9609	82.4741	84.9609	82.7815	84.9609	82.3312	84.9609	82.9396	84.9609	82.198	84.9609	83.0944	84.9609	82.0749	84.9609	83.2399	84.9609	81.9618	84.9609	83.3693	84.9609	81.8581	84.9609	83.4755	84.9609	81.7633	84.9609	83.5513	84.9609	81.6772	84.9609	83.5905	84.9609	81.6007	84.9609	83.5877	84.9609	81.5356	84.9609	83.5394	84.9609	81.4853	84.9609	83.4445	84.9609	81.4546	84.9609	83.3047	84.9609	81.4494	84.9609	83.1246	84.9609	81.4761	84.9609	82.9122	84.9609	81.5405	84.9609	82.6783	84.9609	81.6465	84.9609	82.4359	84.9609	81.7947	84.9609	82.1991	84.9609	81.9815
87.8906	82.5759	87.8906	82.4333	87.8906	82.7299	87.8906	82.3039	87.8906	82.8922	87.8906	82.1881	87.8906	83.0577	87.8906	82.0855	87.8906	83.2204	87.8906	81.9948	87.8906	83.3727	87.8906	81.9148	87.8906	83.5066	87.8906	81.8443	87.8906	83.6138	87.8906	81.7828	87.8906	83.6866	87.8906	81.731	87.8906	83.7184	87.8906	81.6908	87.8906	83.7048	87.8906	81.6654	87.8906	83.6435	87.8906	81.6597	87.8906	83.535	87.8906	81.6793	87.8906	83.3832	87.8906	81.7299	87.8906	83.1948	87.8906	81.8164	87.8906	82.9796	87.8906	81.9414	87.8906	82.7497	87.8906	82.104	87.8906	82.5185	87.8906	82.2993
90.8203	82.2243	90.8203	82.0769	90.8203	82.3933	90.8203	81.9543	90.8203	82.5792	90.8203	81.8577	90.8203	82.7754	90.8203	81.7867	90.8203	82.9742	90.8203	81.7393	90.8203	83.1671	90.8203	81.7129	90.8203	83.3451	90.8203	81.7046	90.8203	83.4995	90.8203	81.7117	90.8203	83.6223	90.8203	81.7322	90.8203	83.7066	90.8203	81.7654	90.8203	83.7473	90.8203	81.8116	90.8203	83.7411	90.8203	81.8728	90.8203	83.6876	90.8203	81.9516	90.8203	83.589	90.8203	82.0513	90.8203	83.4504	90.8203	82.1744	90.8203	83.2798	90.8203	82.3222	90.8203	83.0875	90.8203	82.4934	90.8203	82.8849	90.8203	82.6834
93.75	82.8339	93.75	82.6739	93.75	83.005	93.75	82.529	93.75	83.1819	93.75	82.4018	93.75	83.3587	93.75	82.2935	93.75	83.5286	93.75	82.2044	93.75	83.6846	93.75	82.1332	93.75	83.8196	93.75	82.0784	93.75	83.9267	93.75	82.0385	93.75	83.9995	93.75	82.0121	93.75	84.0327	93.75	81.9991	93.75	84.0224	93.75	82.0003	93.75	83.9663	93.75	82.0183	93.75	83.8648	93.75	82.0566	93.75	83.721	93.75	82.1198	93.75	83.5413	93.75	82.2123	93.75	83.3351	93.75	82.3372	93.75	83.1144	93.75	82.495	93.75	82.8926	93.75	82.6826
96.6797	83.1147	96.6797	82.9551	96.6797	83.2806	96.6797	82.8045	96.6797	83.4483	96.6797	82.6644	96.6797	83.6125	96.6797	82.5352	96.6797	83.7665	96.6797	82.4162	96.6797	83.9029	96.6797	82.3064	96.6797	84.0144	96.6797	82.2045	96.6797	84.0933	96.6797	82.1099	96.6797	84.1331	96.6797	82.0231	96.6797	84.1282	96.6797	81.9462	96.6797	84.0747	96.6797	81.8829	96.6797	83.9713	96.6797	81.8389	96.6797	83.8191	96.6797	81.8216	96.6797	83.6226	96.6797	81.839	96.6797	83.3899	96.6797	81.8988	96.6797	83.1325	96.6797	82.0065	96.6797	82.8651	96.6797	82.1634	96.6797	82.6042	96.6797	82.3657
102.539	83.2816	102.539	83.1105	102.539	83.463	102.539	82.9541	102.539	83.6488	102.539	82.815	102.539	83.8317	102.539	82.6939	102.539	84.0039	102.539	82.5901	102.539	84.157	102.539	82.5017	102.539	84.2832	102.539	82.4264	102.539	84.375	102.539	82.3622	102.539	84.4262	102.539	82.308	102.539	84.4319	102.539	82.2644	102.539	84.3893	102.539	82.2334	102.539	84.2976	102.539	82.2194	102.539	84.1588	102.539	82.228	102.539	83.9777	102.539	82.266	102.539	83.7621	102.539	82.3398	102.539	83.5231	102.539	82.454	102.539	83.2741	102.539	82.6099	102.539	83.0298	102.539	82.8045
105.469	83.2887	105.469	83.1144	105.469	83.4728	105.469	82.9547	105.469	83.6605	105.469	82.8126	105.469	83.8446	105.469	82.6895	105.469	84.0174	105.469	82.5849	105.469	84.171	105.469	82.4974	105.469	84.2977	105.469	82.4247	105.469	84.3906	105.469	82.3647	105.469	84.4436	105.469	82.3163	105.469	84.4523	105.469	82.2793	105.469	84.4137	105.469	82.2559	105.469	84.3268	105.469	82.2495	105.469	84.1932	105.469	82.2654	105.469	84.0174	105.469	82.31	105.469	83.8068	105.469	82.389	105.469	83.5722	105.469	82.5069	105.469	83.3265	105.469	82.665	105.469	83.0845	105.469	82.8601
108.398	83.2934	108.398	83.1153	108.398	83.4806	108.398	82.9516	108.398	83.6704	108.398	82.8058	108.398	83.8553	108.398	82.6797	108.398	84.0275	108.398	82.5731	108.398	84.1794	108.398	82.4846	108.398	84.3035	108.398	82.412	108.398	84.3933	108.398	82.3532	108.398	84.4432	108.398	82.3067	108.398	84.449	108.398	82.2722	108.398	84.4081	108.398	82.2514	108.398	84.3198	108.398	82.2477	108.398	84.1857	108.398	82.266	108.398	84.0102	108.398	82.3121	108.398	83.8005	108.398	82.3919	108.398	83.5672	108.398	82.5097	108.398	83.3233	108.398	82.6669	108.398	83.0831	108.398	82.8605
111.328	83.459	111.328	83.2754	111.328	83.65	111.328	83.1048	111.328	83.8417	111.328	82.9511	111.328	84.0265	111.328	82.8165	111.328	84.1966	111.328	82.701	111.328	84.3443	111.328	82.6035	111.328	84.4625	111.328	82.5221	111.328	84.5446	111.328	82.4547	111.328	84.5855	111.328	82.3999	111.328	84.5814	111.328	82.3577	111.328	84.53	111.328	82.3296	111.328	84.4308	111.328	82.3193	111.328	84.286	111.328	82.3316	111.328	84.1	111.328	82.3727	111.328	83.8806	111.328	82.4486	111.328	83.6386	111.328	82.564	111.328	83.3874	111.328	82.7205	111.328	83.1416	111.328	82.9155
117.188	83.8759	117.188	83.6814	117.188	84.0748	117.188	83.498	117.188	84.2703	117.188	83.3308	117.188	84.4541	117.188	83.1826	117.188	84.6179	117.188	83.0543	117.188	84.754	117.188	82.945	117.188	84.8556	117.188	82.8527	117.188	84.9172	117.188	82.7753	117.188	84.9348	117.188	82.7114	117.188	84.9062	117.188	82.6608	117.188	84.8307	117.188	82.6252	117.188	84.7097	117.188	82.6081	117.188	84.5467	117.188	82.6142	117.188	84.3474	117.188	82.6493	117.188	84.1199	117.188	82.7192	117.188	83.8749	117.188	82.8279	117.188	83.6252	117.188	82.9772	117.188	83.3842	117.188	83.1648
120.117	84.143	120.117	83.9466	120.117	84.3415	120.117	83.7597	120.117	84.5335	120.117	83.5882	120.117	84.7108	120.117	83.436	120.117	84.8652	120.117	83.3047	120.117	84.9893	120.117	83.1939	120.117	85.0769	120.117	83.1016	120.117	85.1231	120.117	83.0255	120.117	85.1245	120.117	82.9636	120.117	85.0794	120.117	82.9148	120.117	84.9881	120.117	82.8799	120.117	84.8528	120.117	82.8612	120.117	84.678	120.117	82.8624	120.117	84.4707	120.117	82.8884	120.117	84.2401	120.117	82.9446	120.117	83.998	120.117	83.0357	120.117	83.7574	120.117	83.1645	120.117	83.5313	120.117	83.331
125.977	84.1634	125.977	83.9783	125.977	84.3464	125.977	83.7979	125.977	84.5202	125.977	83.6277	125.977	84.678	125.977	83.472	125.977	84.8132	125.977	83.3332	125.977	84.9196	125.977	83.2117	125.977	84.9917	125.977	83.1065	125.977	85.0248	125.977	83.0156	125.977	85.0152	125.977	82.937	125.977	84.9604	125.977	82.8696	125.977	84.8592	125.977	82.8134	125.977	84.7126	125.977	82.7704	125.977	84.5239	125.977	82.7446	125.977	84.2998	125.977	82.7418	125.977	84.0503	125.977	82.7691	125.977	83.7893	125.977	82.8341	125.977	83.5331	125.977	82.9431	125.977	83.2983	125.977	83.0987
128.906	84.1301	128.906	83.959	128.906	84.2987	128.906	83.7903	128.906	84.4592	128.906	83.6279	128.906	84.6057	128.906	83.4744	128.906	84.7323	128.906	83.3312	128.906	84.8331	128.906	83.1982	128.906	84.9027	128.906	83.0746	128.906	84.9358	128.906	82.9593	128.906	84.9279	128.906	82.8519	128.906	84.8755	128.906	82.753	128.906	84.7762	128.906	82.6648	128.906	84.6294	128.906	82.5917	128.906	84.4369	128.906	82.54	128.906	84.2037	128.906	82.5178	128.906	83.9393	128.906	82.5345	128.906	83.6575	128.906	82.5988	128.906	83.3763	128.906	82.7172	128.906	83.115	128.906	82.8911
134.766	84.1273	134.766	83.9459	134.766	84.3123	134.766	83.7746	134.766	84.4938	134.766	83.6176	134.766	84.6638	134.766	83.4771	134.766	84.8147	134.766	83.3531	134.766	84.9399	134.766	83.244	134.766	85.0334	134.766	83.1472	134.766	85.0909	134.766	83.061	134.766	85.1091	134.766	82.9843	134.766	85.086	134.766	82.9183	134.766	85.0205	134.766	82.8659	134.766	84.9122	134.766	82.8321	134.766	84.762	134.766	82.8234	134.766	84.5727	134.766	82.8469	134.766	84.35	134.766	82.9094	134.766	84.1034	134.766	83.0162	134.766	83.8465	134.766	83.169	134.766	83.595	134.766	83.3647
137.695	84.1494	137.695	83.9581	137.695	84.344	137.695	83.7779	137.695	84.5331	137.695	83.6145	137.695	84.7079	137.695	83.4712	137.695	84.8601	137.695	83.3486	137.695	84.983	137.695	83.2451	137.695	85.071	137.695	83.158	137.695	85.1208	137.695	83.0845	137.695	85.1302	137.695	83.0232	137.695	85.0988	137.695	82.9739	137.695	85.027	137.695	82.9385	137.695	84.9158	137.695	82.9208	137.695	84.767	137.695	82.9257	137.695	84.5839	137.695	82.9587	137.695	84.3722	137.695	83.0253	137.695	84.1408	137.695	83.13	137.695	83.9017	137.695	83.2742	137.695	83.6689	137.695	83.4561
143.555	83.9602	143.555	83.7485	143.555	84.1724	143.555	83.5481	143.555	84.3743	143.555	83.3676	143.555	84.5554	143.555	83.2129	143.555	84.7071	143.555	83.0861	143.555	84.8226	143.555	82.986	143.555	84.8976	143.555	82.9093	143.555	84.9298	143.555	82.8517	143.555	84.919	143.555	82.8097	143.555	84.867	143.555	82.781	143.555	84.7764	143.555	82.7653	143.555	84.6504	143.555	82.7641	143.555	84.4926	143.555	82.7804	143.555	84.3073	143.555	82.8181	143.555	84.1006	143.555	82.8815	143.555	83.8813	143.555	82.9749	143.555	83.6602	143.555	83.1013	143.555	83.4497	143.555	83.2608
149.414	84.1619	149.414	83.922	149.414	84.3905	149.414	83.6824	149.414	84.5969	149.414	83.4539	149.414	84.7715	149.414	83.2449	149.414	84.9066	149.414	83.0611	149.414	84.997	149.414	82.9046	149.414	85.0394	149.414	82.7753	149.414	85.033	149.414	82.6715	149.414	84.9794	149.414	82.5914	149.414	84.8819	149.414	82.5341	149.414	84.7453	149.414	82.4997	149.414	84.5749	149.414	82.4891	149.414	84.3763	149.414	82.5036	149.414	84.1553	149.414	82.5449	149.414	83.9189	149.414	82.615	149.414	83.676	149.414	82.7159	149.414	83.4375	149.414	82.8496	149.414	83.2146	149.414	83.0165
155.273	84.3524	155.273	84.1122	155.273	84.5779	155.273	83.8678	155.273	84.7785	155.273	83.6292	155.273	84.9455	155.273	83.4045	155.273	85.0719	155.273	83.1992	155.273	85.1524	155.273	83.0157	155.273	85.1834	155.273	82.8543	155.273	85.1636	155.273	82.7141	155.273	85.0932	155.273	82.5946	155.273	84.9747	155.273	82.4959	155.273	84.8115	155.273	82.4197	155.273	84.6085	155.273	82.3683	155.273	84.3711	155.273	82.3448	155.273	84.1063	155.273	82.3528	155.273	83.8233	155.273	82.3964	155.273	83.5345	155.273	82.4798	155.273	83.2547	155.273	82.6073	155.273	82.9995	155.273	82.7812
158.203	84.3026	158.203	84.0698	158.203	84.5219	158.203	83.8338	158.203	84.718	158.203	83.6041	158.203	84.8824	158.203	83.3884	158.203	85.0081	158.203	83.1915	158.203	85.0901	158.203	83.0153	158.203	85.1252	158.203	82.8597	158.203	85.112	158.203	82.7237	158.203	85.0514	158.203	82.6067	158.203	84.9455	158.203	82.509	158.203	84.7978	158.203	82.4329	158.203	84.612	158.203	82.3812	158.203	84.392	158.203	82.358	158.203	84.1426	158.203	82.3676	158.203	83.871	158.203	82.4147	158.203	83.5882	158.203	82.5041	158.203	83.3086	158.203	82.6395	158.203	83.0485	158.203	82.8223
164.063	84.1409	164.063	83.8961	164.063	84.3755	164.063	83.653	164.063	84.5884	164.063	83.4225	164.063	84.7696	164.063	83.2131	164.063	84.911	164.063	83.0299	164.063	85.0068	164.063	82.8746	164.063	85.0535	164.063	82.7461	164.063	85.0501	164.063	82.6422	164.063	84.998	164.063	82.5612	164.063	84.9009	164.063	82.5023	164.063	84.7638	164.063	82.4661	164.063	84.5923	164.063	82.454	164.063	84.3916	164.063	82.4679	164.063	84.1675	164.063	82.5099	164.063	83.9266	164.063	82.5818	164.063	83.6778	164.063	82.686	164.063	83.4323	164.063	82.8242	164.063	83.202	164.063	82.9971
169.922	84.0721	169.922	83.8233	169.922	84.3028	169.922	83.5687	169.922	84.5042	169.922	83.3203	169.922	84.6669	169.922	83.0881	169.922	84.784	169.922	82.8794	169.922	84.8512	169.922	82.6985	169.922	84.8668	169.922	82.5471	169.922	84.8318	169.922	82.4258	169.922	84.75	169.922	82.3347	169.922	84.6276	169.922	82.2741	169.922	84.4717	169.922	82.2441	169.922	84.2895	169.922	82.2441	169.922	84.0867	169.922	82.2725	169.922	83.8684	169.922	82.3273	169.922	83.64	169.922	82.4067	169.922	83.4091	169.922	82.5101	169.922	83.1852	169.922	82.6389	169.922	82.9779	169.922	82.7947
175.781	83.8894	175.781	83.6343	175.781	84.1278	175.781	83.3753	175.781	84.3373	175.781	83.1243	175.781	84.5078	175.781	82.8904	175.781	84.6315	175.781	82.6795	175.781	84.7032	175.781	82.4938	175.781	84.7207	175.781	82.3338	175.781	84.6842	175.781	82.1996	175.781	84.5969	175.781	82.0922	175.781	84.4645	175.781	82.0138	175.781	84.2941	175.781	81.9668	175.781	84.0929	175.781	81.9524	175.781	83.8679	175.781	81.97	175.781	83.6253	175.781	82.0172	175.781	83.3729	175.781	82.0914	175.781	83.1206	175.781	82.1912	175.781	82.8801	175.781	82.3179	175.781	82.6622	175.781	82.4742
181.641	83.8363	181.641	83.5578	181.641	84.0955	181.641	83.2753	181.641	84.3217	181.641	83.0035	181.641	84.5039	181.641	82.7541	181.641	84.6344	181.641	82.5339	181.641	84.7088	181.641	82.345	181.641	84.7257	181.641	82.1862	181.641	84.6866	181.641	82.0553	181.641	84.596	181.641	81.9517	181.641	84.4608	181.641	81.8762	181.641	84.2884	181.641	81.8311	181.641	84.0857	181.641	81.8184	181.641	83.8581	181.641	81.8382	181.641	83.6099	181.641	81.8889	181.641	83.3475	181.641	81.9683	181.641	83.0806	181.641	82.0755	181.641	82.8225	181.641	82.2123	181.641	82.5865	181.641	82.382
190.43	83.7566	190.43	83.4658	190.43	84.0229	190.43	83.1661	190.43	84.2508	190.43	82.8732	190.43	84.4297	190.43	82.6005	190.43	84.5521	190.43	82.3569	190.43	84.6136	190.43	82.147	190.43	84.6136	190.43	81.9714	190.43	84.555	190.43	81.8295	190.43	84.4445	190.43	81.7211	190.43	84.2919	190.43	81.6472	190.43	84.108	190.43	81.6095	190.43	83.9021	190.43	81.6087	190.43	83.6799	190.43	81.6435	190.43	83.4441	190.43	81.7107	190.43	83.1973	190.43	81.8069	190.43	82.945	190.43	81.9296	190.43	82.6971	190.43	82.0792	190.43	82.4649	190.43	82.2576
196.289	83.6789	196.289	83.3837	196.289	83.9462	196.289	83.0785	196.289	84.1703	196.289	82.7813	196.289	84.3394	196.289	82.5073	196.289	84.4457	196.289	82.2671	196.289	84.4855	196.289	82.0655	196.289	84.4594	196.289	81.9037	196.289	84.3723	196.289	81.7806	196.289	84.2341	196.289	81.6957	196.289	84.0583	196.289	81.649	196.289	83.8601	196.289	81.6404	196.289	83.6522	196.289	81.6679	196.289	83.4426	196.289	81.7272	196.289	83.2339	196.289	81.8112	196.289	83.0272	196.289	81.9129	196.289	82.8247	196.289	82.0274	196.289	82.6316	196.289	82.1539	196.289	82.4539	196.289	82.2949
202.148	83.7103	202.148	83.3975	202.148	83.9869	202.148	83.0681	202.148	84.2109	202.148	82.7428	202.148	84.371	202.148	82.4401	202.148	84.4599	202.148	82.1735	202.148	84.4749	202.148	81.9502	202.148	84.4174	202.148	81.7725	202.148	84.293	202.148	81.6399	202.148	84.1123	202.148	81.5511	202.148	83.8899	202.148	81.5053	202.148	83.643	202.148	81.5003	202.148	83.3875	202.148	81.5315	202.148	83.1357	202.148	81.5909	202.148	82.8951	202.148	81.668	202.148	82.6708	202.148	81.7529	202.148	82.468	202.148	81.8399	202.148	82.2922	202.148	81.9293	202.148	82.1464	202.148	82.0282
210.938	83.6396	210.938	83.3371	210.938	83.9004	210.938	83.0092	210.938	84.1063	210.938	82.6733	210.938	84.2481	210.938	82.3459	210.938	84.3202	210.938	82.0399	210.938	84.3205	210.938	81.7646	210.938	84.2506	210.938	81.5262	210.938	84.1159	210.938	81.3304	210.938	83.9265	210.938	81.1827	210.938	83.6966	210.938	81.0883	210.938	83.4421	210.938	81.0493	210.938	83.1765	210.938	81.0619	210.938	82.9086	210.938	81.1159	210.938	82.6429	210.938	81.1965	210.938	82.3839	210.938	81.2893	210.938	82.1405	210.938	81.3857	210.938	81.9244	210.938	81.4867	210.938	81.7447	210.938	81.6019
216.797	83.4466	216.797	83.1291	216.797	83.7263	216.797	82.7937	216.797	83.9514	216.797	82.4604	216.797	84.1095	216.797	82.1456	216.797	84.193	216.797	81.86	216.797	84.1986	216.797	81.6083	216.797	84.1279	216.797	81.3921	216.797	83.9876	216.797	81.2134	216.797	83.7903	216.797	81.0765	216.797	83.5539	216.797	80.9872	216.797	83.2986	216.797	80.9502	216.797	83.0411	216.797	80.9647	216.797	82.7908	216.797	81.0226	216.797	82.5496	216.797	81.1107	216.797	82.3168	216.797	81.2146	216.797	82.0953	216.797	81.3249	216.797	81.8925	216.797	81.4402	216.797	81.716	216.797	81.5672
225.586	83.4933	225.586	83.1439	225.586	83.7904	225.586	82.7637	225.586	84.0183	225.586	82.3764	225.586	84.1658	225.586	82.0042	225.586	84.2261	225.586	81.664	225.586	84.197	225.586	81.367	225.586	84.0806	225.586	81.1193	225.586	83.8845	225.586	80.9258	225.586	83.6228	225.586	80.7916	225.586	83.3171	225.586	80.7222	225.586	82.9934	225.586	80.7186	225.586	82.6762	225.586	80.7742	225.586	82.3829	225.586	80.8734	225.586	82.1214	225.586	80.9939	225.586	81.895	225.586	81.1133	225.586	81.7066	225.586	81.2163	225.586	81.5595	225.586	81.2991	225.586	81.4517	225.586	81.3714
234.375	83.5894	234.375	83.2252	234.375	83.8977	234.375	82.8276	234.375	84.1324	234.375	82.4211	234.375	84.2821	234.375	82.0282	234.375	84.3407	234.375	81.6652	234.375	84.3069	234.375	81.3413	234.375	84.1832	234.375	81.0619	234.375	83.9774	234.375	80.8322	234.375	83.703	234.375	80.6602	234.375	83.3799	234.375	80.5548	234.375	83.0318	234.375	80.521	234.375	82.6804	234.375	80.5533	234.375	82.3403	234.375	80.6343	234.375	82.0192	234.375	80.7382	234.375	81.7244	234.375	80.8389	234.375	81.4683	234.375	80.9201	234.375	81.2668	234.375	80.9817	234.375	81.1278	234.375	81.0413
240.234	83.4155	240.234	83.0464	240.234	83.7285	240.234	82.6443	240.234	83.9676	240.234	82.2345	240.234	84.121	240.234	81.8396	240.234	84.1825	240.234	81.4759	240.234	84.1505	240.234	81.1525	240.234	84.0269	240.234	80.8748	240.234	83.819	240.234	80.649	240.234	83.5403	240.234	80.4845	240.234	83.212	240.234	80.3918	240.234	82.8603	240.234	80.3758	240.234	82.51	240.234	80.4298	240.234	82.1778	240.234	80.5332	240.234	81.8717	240.234	80.657	240.234	81.5967	240.234	80.7727	240.234	81.3623	240.234	80.8625	240.234	81.1808	240.234	80.9263	240.234	81.0578	240.234	80.9817
249.023	83.4527	249.023	83.0427	249.023	83.7907	249.023	82.5857	249.023	84.0389	249.023	82.1096	249.023	84.1867	249.023	81.6404	249.023	84.2301	249.023	81.197	249.023	84.1698	249.023	80.7906	249.023	84.0106	249.023	80.4285	249.023	83.7619	249.023	80.1202	249.023	83.4392	249.023	79.8808	249.023	83.0652	249.023	79.7275	249.023	82.6656	249.023	79.6703	249.023	82.263	249.023	79.7023	249.023	81.8696	249.023	79.798	249.023	81.4891	249.023	79.9202	249.023	81.1265	249.023	80.034	249.023	80.7991	249.023	80.1193	249.023	80.5339	249.023	80.18	249.023	80.3508	249.023	80.2436
257.813	83.4255	257.813	83.0356	257.813	83.7482	257.813	82.6046	257.813	83.9852	257.813	82.1616	257.813	84.126	257.813	81.7318	257.813	84.167	257.813	81.3307	257.813	84.109	257.813	80.9628	257.813	83.9561	257.813	80.628	257.813	83.7167	257.813	80.3302	257.813	83.4055	257.813	80.0829	257.813	83.0451	257.813	79.9078	257.813	82.6632	257.813	79.8238	257.813	82.2857	257.813	79.8348	257.813	81.9276	257.813	79.9228	257.813	81.5924	257.813	80.053	257.813	81.2805	257.813	80.1882	257.813	81.0004	257.813	80.3033	257.813	80.769	257.813	80.3951	257.813	80.5987	257.813	80.483
266.602	83.073	266.602	82.6147	266.602	83.4484	266.602	82.1069	266.602	83.7199	266.602	81.5907	266.602	83.8779	266.602	81.1057	266.602	83.9207	266.602	80.6771	266.602	83.8516	266.602	80.3108	266.602	83.6768	266.602	79.9985	266.602	83.4069	266.602	79.7313	266.602	83.0589	266.602	79.511	266.602	82.6585	266.602	79.3518	266.602	82.2365	266.602	79.2714	266.602	81.8197	266.602	79.277	266.602	81.4216	266.602	79.3556	266.602	81.0438	266.602	79.476	266.602	80.6885	266.602	79.6008	266.602	80.3715	266.602	79.7031	266.602	80.1192	266.602	79.7778	266.602	79.948	266.602	79.8463
278.32	82.8791	278.32	82.4725	278.32	83.1843	278.32	81.9812	278.32	83.3815	278.32	81.432	278.32	83.4716	278.32	80.8603	278.32	83.4603	278.32	80.3052	278.32	83.3558	278.32	79.8045	278.32	83.1676	278.32	79.391	278.32	82.9092	278.32	79.0916	278.32	82.5999	278.32	78.9263	278.32	82.2661	278.32	78.9033	278.32	81.9356	278.32	79.011	278.32	81.626	278.32	79.2151	278.32	81.337	278.32	79.4646	278.32	81.0561	278.32	79.7053	278.32	80.7772	278.32	79.895	278.32	80.5155	278.32	80.014	278.32	80.3043	278.32	80.0717	278.32	80.17	278.32	80.1062
287.109	83.0255	287.109	82.6329	287.109	83.3182	287.109	82.1616	287.109	83.4983	287.109	81.639	287.109	83.5612	287.109	81.0935	287.109	83.5083	287.109	80.55	287.109	83.345	287.109	80.0279	287.109	83.0799	287.109	79.5463	287.109	82.7285	287.109	79.1312	287.109	82.3182	287.109	78.8189	287.109	81.8912	287.109	78.6477	287.109	81.4965	287.109	78.6374	287.109	81.1686	287.109	78.7714	287.109	80.908	287.109	78.9983	287.109	80.6855	287.109	79.2522	287.109	80.4705	287.109	79.477	287.109	80.2577	287.109	79.6424	287.109	80.0681	287.109	79.7502	287.109	79.9258	287.109	79.8303
295.898	83.1726	295.898	82.7534	295.898	83.4868	295.898	82.2515	295.898	83.6832	295.898	81.6961	295.898	83.7574	295.898	81.1169	295.898	83.7107	295.898	80.5368	295.898	83.5456	295.898	79.9705	295.898	83.2656	295.898	79.4307	295.898	82.8779	295.898	78.9395	295.898	82.401	295.898	78.5367	295.898	81.8721	295.898	78.274	295.898	81.3455	295.898	78.1909	295.898	80.8757	295.898	78.2868	295.898	80.4917	295.898	78.5139	295.898	80.1875	295.898	78.7975	295.898	79.9425	295.898	79.0661	295.898	79.7479	295.898	79.2724	295.898	79.6094	295.898	79.4016	295.898	79.5262	295.898	79.4722
307.617	82.9725	307.617	82.5293	307.617	83.3098	307.617	82.0082	307.617	83.5257	307.617	81.4458	307.617	83.6154	307.617	80.8791	307.617	83.5808	307.617	80.336	307.617	83.426	307.617	79.8309	307.617	83.1553	307.617	79.3717	307.617	82.7749	307.617	78.9728	307.617	82.2995	307.617	78.6646	307.617	81.7598	307.617	78.488	307.617	81.2033	307.617	78.4725	307.617	80.6835	307.617	78.6125	307.617	80.2393	307.617	78.8599	307.617	79.8859	307.617	79.1418	307.617	79.627	307.617	79.3864	307.617	79.4717	307.617	79.5424	307.617	79.4269	307.617	79.591	307.617	79.4719	307.617	79.5499
319.336	83.0188	319.336	82.5702	319.336	83.3404	319.336	82.0231	319.336	83.5225	319.336	81.4187	319.336	83.5661	319.336	80.8008	319.336	83.4803	319.336	80.2033	319.336	83.2766	319.336	79.6436	319.336	82.9659	319.336	79.1303	319.336	82.5601	319.336	78.6815	319.336	82.0774	319.336	78.3383	319.336	81.5486	319.336	78.1561	319.336	81.0127	319.336	78.1716	319.336	80.5009	319.336	78.3678	319.336	80.0217	319.336	78.6702	319.336	79.5696	319.336	78.9787	319.336	79.161	319.336	79.2034	319.336	78.8593	319.336	79.2863	319.336	78.7433	319.336	79.2139	319.336	78.8278	319.336	79.0278
331.055	82.8566	331.055	82.4762	331.055	83.1085	331.055	81.9877	331.055	83.2286	331.055	81.4271	331.055	83.2264	331.055	80.837	331.055	83.1173	331.055	80.2529	331.055	82.9148	331.055	79.6939	331.055	82.627	331.055	79.1676	331.055	82.2602	331.055	78.6883	331.055	81.827	331.055	78.2934	331.055	81.3534	331.055	78.0401	331.055	80.8756	331.055	77.9744	331.055	80.4209	331.055	78.0917	331.055	79.9903	331.055	78.3261	331.055	79.5661	331.055	78.5803	331.055	79.1484	331.055	78.7658	331.055	78.7869	331.055	78.8297	331.055	78.5649	331.055	78.768	331.055	78.529	331.055	78.6335
342.773	82.3285	342.773	81.8877	342.773	82.6261	342.773	81.3266	342.773	82.7764	342.773	80.6893	342.773	82.7885	342.773	80.0333	342.773	82.6756	342.773	79.4123	342.773	82.4498	342.773	78.8587	342.773	82.1204	342.773	78.3848	342.773	81.7015	342.773	78.003	342.773	81.2232	342.773	77.7474	342.773	80.7374	342.773	77.6679	342.773	80.3015	342.773	77.7938	342.773	79.9406	342.773	78.0967	342.773	79.6259	342.773	78.4919	342.773	79.3083	342.773	78.8745	342.773	78.9845	342.773	79.1542	342.773	78.7309	342.773	79.2726	342.773	78.6541	342.773	79.2134	342.773	78.781	342.773	79.0151
354.492	82.904	354.492	82.4619	354.492	83.1951	354.492	81.8849	354.492	83.3331	354.492	81.204	354.492	83.3255	354.492	80.4598	354.492	83.182	354.492	79.6916	354.492	82.9086	354.492	78.9303	354.492	82.5067	354.492	78.2035	354.492	81.9813	354.492	77.5563	354.492	81.3573	354.492	77.0702	354.492	80.6942	354.492	76.8444	354.492	80.0783	354.492	76.9295	354.492	79.5719	354.492	77.2692	354.492	79.1579	354.492	77.7244	354.492	78.7588	354.492	78.1462	354.492	78.3303	354.492	78.4233	354.492	77.9379	354.492	78.4952	354.492	77.7329	354.492	78.3576	354.492	77.8076	354.492	78.078
366.211	83.679	366.211	83.2142	366.211	83.9814	366.211	82.6005	366.211	84.1219	366.211	81.8661	366.211	84.1107	366.211	81.0481	366.211	83.9607	366.211	80.1825	366.211	83.6808	366.211	79.2958	366.211	83.2744	366.211	78.412	366.211	82.7466	366.211	77.5786	366.211	82.1206	366.211	76.8955	366.211	81.4545	366.211	76.5037	366.211	80.8339	366.211	76.4966	366.211	80.3199	366.211	76.8228	366.211	79.8869	366.211	77.3111	366.211	79.4378	366.211	77.7777	366.211	78.9011	366.211	78.0932	366.211	78.323	366.211	78.1942	366.211	77.8783	366.211	78.0878	366.211	77.7355	366.211	77.8709
377.93	84.3682	377.93	83.9326	377.93	84.6449	377.93	83.3623	377.93	84.7567	377.93	82.6953	377.93	84.7128	377.93	81.9697	377.93	84.529	377.93	81.2057	377.93	84.2185	377.93	80.3998	377.93	83.7864	377.93	79.5397	377.93	83.2358	377.93	78.6425	377.93	82.586	377.93	77.7977	377.93	81.8955	377.93	77.1808	377.93	81.2646	377.93	76.9743	377.93	80.7839	377.93	77.209	377.93	80.4554	377.93	77.7226	377.93	80.1891	377.93	78.2941	377.93	79.8976	377.93	78.7637	377.93	79.5797	377.93	79.0564	377.93	79.318	377.93	79.172	377.93	79.1902	377.93	79.1777
392.578	84.217	392.578	83.878	392.578	84.3872	392.578	83.3843	392.578	84.3958	392.578	82.7721	392.578	84.2641	392.578	82.0897	392.578	84.0161	392.578	81.3775	392.578	83.6679	392.578	80.65	392.578	83.2236	392.578	79.8994	392.578	82.6845	392.578	79.1286	392.578	82.0703	392.578	78.3945	392.578	81.4402	392.578	77.83	392.578	80.8825	392.578	77.5947	392.578	80.4516	392.578	77.7496	392.578	80.1077	392.578	78.1863	392.578	79.7553	392.578	78.7073	392.578	79.3552	392.578	79.1398	392.578	78.998	392.578	79.3786	392.578	78.8462	392.578	79.3871	392.578	78.9582	392.578	79.2037
407.227	83.786	407.227	83.4026	407.227	83.9969	407.227	82.8653	407.227	84.0405	407.227	82.2187	407.227	83.9376	407.227	81.5215	407.227	83.7104	407.227	80.8204	407.227	83.3696	407.227	80.1271	407.227	82.9089	407.227	79.4272	407.227	82.3166	407.227	78.726	407.227	81.6069	407.227	78.1024	407.227	80.8553	407.227	77.7184	407.227	80.195	407.227	77.729	407.227	79.7216	407.227	78.1339	407.227	79.3807	407.227	78.7599	407.227	79.0253	407.227	79.389	407.227	78.609	407.227	79.8533	407.227	78.3068	407.227	80.0471	407.227	78.3901	407.227	79.9185	407.227	78.8784	407.227	79.484
421.875	83.9124	421.875	83.496	421.875	84.1421	421.875	82.9039	421.875	84.1979	421.875	82.174	421.875	84.1082	421.875	81.3626	421.875	83.9032	421.875	80.5236	421.875	83.5996	421.875	79.6837	421.875	83.1948	421.875	78.8389	421.875	82.6785	421.875	77.9924	421.875	82.0624	421.875	77.2132	421.875	81.4108	421.875	76.6672	421.875	80.8312	421.875	76.5379	421.875	80.387	421.875	76.8473	421.875	80.001	421.875	77.4023	421.875	79.4954	421.875	77.9444	421.875	78.7452	421.875	78.2779	421.875	77.8267	421.875	78.2935	421.875	77.1004	421.875	77.9698	421.875	76.9833	421.875	77.4212
436.523	83.9006	436.523	83.4987	436.523	84.1044	436.523	82.9076	436.523	84.1232	436.523	82.1626	436.523	83.9832	436.523	81.3194	436.523	83.7107	436.523	80.4341	436.523	83.3205	436.523	79.5382	436.523	82.8149	436.523	78.6379	436.523	82.2053	436.523	77.7589	436.523	81.5531	436.523	77.0142	436.523	80.9975	436.523	76.6134	436.523	80.6896	436.523	76.7208	436.523	80.6263	436.523	77.2686	436.523	80.6057	436.523	78.007	436.523	80.3997	436.523	78.6947	436.523	79.9229	436.523	79.1795	436.523	79.3023	436.523	79.3874	436.523	78.8425	436.523	79.3118	436.523	78.7845	436.523	79.0378
451.172	84.6328	451.172	84.3272	451.172	84.7139	451.172	83.804	451.172	84.5832	451.172	83.0894	451.172	84.2676	451.172	82.2211	451.172	83.794	451.172	81.2335	451.172	83.1725	451.172	80.147	451.172	82.3891	451.172	78.9781	451.172	81.4305	451.172	77.7912	451.172	80.3617	451.172	76.7788	451.172	79.4417	451.172	76.2692	451.172	79.0678	451.172	76.4749	451.172	79.3006	451.172	77.2181	451.172	79.689	451.172	78.1186	451.172	79.7811	451.172	78.8878	451.172	79.4216	451.172	79.3729	451.172	78.7677	451.172	79.5047	451.172	78.2585	451.172	79.2754	451.172	78.2989	451.172	78.7786
465.82	84.3985	465.82	84.1367	465.82	84.4705	465.82	83.7017	465.82	84.3574	465.82	83.1234	465.82	84.0839	465.82	82.4258	465.82	83.6806	465.82	81.6024	465.82	83.1591	465.82	80.604	465.82	82.4872	465.82	79.3609	465.82	81.5934	465.82	77.8513	465.82	80.4248	465.82	76.2546	465.82	79.0944	465.82	75.1842	465.82	78.0983	465.82	75.3678	465.82	78.0493	465.82	76.5516	465.82	78.7122	465.82	77.92	465.82	79.3307	465.82	79.0237	465.82	79.5279	465.82	79.726	465.82	79.3593	465.82	80.007	465.82	79.1433	465.82	79.9067	465.82	79.2069	465.82	79.554
483.398	84.1507	483.398	83.8813	483.398	84.2013	483.398	83.4195	483.398	84.0513	483.398	82.8278	483.398	83.7549	483.398	82.1755	483.398	83.3747	483.398	81.4897	483.398	82.9378	483.398	80.722	483.398	82.407	483.398	79.7681	483.398	81.6994	483.398	78.5293	483.398	80.7512	483.398	76.9978	483.398	79.6156	483.398	75.4236	483.398	78.5627	483.398	74.5182	483.398	77.9632	483.398	74.9137	483.398	77.8232	483.398	76.1387	483.398	77.7384	483.398	77.382	483.398	77.4276	483.398	78.2581	483.398	77.0191	483.398	78.6581	483.398	76.9413	483.398	78.5765	483.398	77.4018	483.398	78.0848
500.977	84.2075	500.977	83.8694	500.977	84.3247	500.977	83.3407	500.977	84.2367	500.977	82.7005	500.977	83.9892	500.977	82.0478	500.977	83.6297	500.977	81.4276	500.977	83.1697	500.977	80.7723	500.977	82.5596	500.977	79.9342	500.977	81.7024	500.977	78.776	500.977	80.5149	500.977	77.2692	500.977	79.0615	500.977	75.6633	500.977	77.7883	500.977	74.7137	500.977	77.4002	500.977	75.1086	500.977	77.8342	500.977	76.3488	500.977	78.3241	500.977	77.6005	500.977	78.458	500.977	78.4998	500.977	78.3203	500.977	78.9687	500.977	78.2386	500.977	79.0327	500.977	78.433	500.977	78.7881
518.555	84.0982	518.555	83.9932	518.555	83.9486	518.555	83.603	518.555	83.6021	518.555	82.9378	518.555	83.1287	518.555	82.0616	518.555	82.5888	518.555	81.0928	518.555	82.007	518.555	80.1638	518.555	81.3576	518.555	79.3368	518.555	80.59	518.555	78.5576	518.555	79.7036	518.555	77.7207	518.555	78.833	518.555	76.793	518.555	78.2101	518.555	75.9329	518.555	77.8939	518.555	75.5213	518.555	77.6417	518.555	75.8387	518.555	77.2163	518.555	76.649	518.555	76.6896	518.555	77.4726	518.555	76.4325	518.555	78.001	518.555	76.704	518.555	78.1262	518.555	77.3042	518.555	77.859
536.133	83.9958	536.133	83.8914	536.133	83.8218	536.133	83.5031	536.133	83.4155	536.133	82.862	536.133	82.8479	536.133	82.03	536.133	82.178	536.133	81.0966	536.133	81.4165	536.133	80.166	536.133	80.5348	536.133	79.3156	536.133	79.5334	536.133	78.5458	536.133	78.5432	536.133	77.7895	536.133	77.8562	536.133	77.0096	536.133	77.6629	536.133	76.337	536.133	77.743	536.133	76.1149	536.133	77.7244	536.133	76.5829	536.133	77.4735	536.133	77.4846	536.133	77.1392	536.133	78.3342	536.133	76.9868	536.133	78.8101	536.133	77.1949	536.133	78.8039	536.133	77.7366	536.133	78.3753
553.711	84.372	553.711	84.2256	553.711	84.197	553.711	83.7394	553.711	83.7776	553.711	82.9599	553.711	83.2182	553.711	81.9838	553.711	82.5924	553.711	80.9274	553.711	81.8983	553.711	79.8899	553.711	81.0723	553.711	78.9359	553.711	80.0544	553.711	78.0936	553.711	78.8667	553.711	77.3509	553.711	77.6944	553.711	76.6775	553.711	76.8944	553.711	76.109	553.711	76.7229	553.711	75.8333	553.711	76.9824	553.711	76.0745	553.711	77.1987	553.711	76.7483	553.711	77.0119	553.711	77.4446	553.711	76.3836	553.711	77.7725	553.711	75.7781	553.711	77.5352	553.711	75.9363	553.711	76.7766
574.219	84.3579	574.219	84.2486	574.219	84.1482	574.219	83.7652	574.219	83.7178	574.219	82.9191	574.219	83.1643	574.219	81.7947	574.219	82.538	574.219	80.5421	574.219	81.8297	574.219	79.3378	574.219	81.0002	574.219	78.3137	574.219	80.0279	574.219	77.5066	574.219	78.9529	574.219	76.8757	574.219	77.9009	574.219	76.3699	574.219	77.0599	574.219	76.0052	574.219	76.6241	574.219	75.9066	574.219	76.6887	574.219	76.2078	574.219	77.0604	574.219	76.8236	574.219	77.3139	574.219	77.4288	574.219	77.1633	574.219	77.6982	574.219	76.7372	574.219	77.4891	574.219	76.564	574.219	76.9481
594.727	84.3136	594.727	84.3549	594.727	83.9969	594.727	84.0596	594.727	83.4952	594.727	83.4075	594.727	82.9006	594.727	82.42	594.727	82.2652	594.727	81.1605	594.727	81.5797	594.727	79.7361	594.727	80.804	594.727	78.2952	594.727	79.9334	594.727	77.0083	594.727	79.0422	594.727	76.0162	594.727	78.2437	594.727	75.3833	594.727	77.5668	594.727	75.1253	594.727	76.9121	594.727	75.279	594.727	76.2226	594.727	75.8568	594.727	75.7049	594.727	76.6998	594.727	75.6949	594.727	77.4944	594.727	76.1356	594.727	77.9606	594.727	76.6747	594.727	77.9854	594.727	77.1765	594.727	77.6547
615.234	84.2085	615.234	84.2536	615.234	83.9109	615.234	83.9576	615.234	83.4974	615.234	83.3055	615.234	83.0709	615.234	82.3462	615.234	82.6204	615.234	81.1749	615.234	82.0438	615.234	79.9091	615.234	81.2472	615.234	78.6567	615.234	80.221	615.234	77.4872	615.234	79.0678	615.234	76.4324	615.234	77.9869	615.234	75.5213	615.234	77.1891	615.234	74.8437	615.234	76.7708	615.234	74.6063	615.234	76.6625	615.234	75.0064	615.234	76.6884	615.234	75.8919	615.234	76.6696	615.234	76.7869	615.234	76.527	615.234	77.2903	615.234	76.3708	615.234	77.2671	615.234	76.4596	615.234	76.8642
638.672	84.8028	638.672	84.6422	638.672	84.6426	638.672	84.1146	638.672	84.2529	638.672	83.2303	638.672	83.7386	638.672	82.0601	638.672	83.1644	638.672	80.7295	638.672	82.5161	638.672	79.3957	638.672	81.7306	638.672	78.1992	638.672	80.7687	638.672	77.2113	638.672	79.6583	638.672	76.431	638.672	78.4795	638.672	75.8406	638.672	77.3276	638.672	75.4707	638.672	76.337	638.672	75.4422	638.672	75.7375	638.672	75.9048	638.672	75.6433	638.672	76.7967	638.672	75.761	638.672	77.7452	638.672	75.7831	638.672	78.3259	638.672	75.9249	638.672	78.2857	638.672	76.614	638.672	77.6088
659.18	84.6604	659.18	84.6653	659.18	84.2982	659.18	84.2519	659.18	83.7263	659.18	83.4396	659.18	83.117	659.18	82.3027	659.18	82.54	659.18	80.9501	659.18	81.9212	659.18	79.5172	659.18	81.1528	659.18	78.1603	659.18	80.2105	659.18	77.0143	659.18	79.1865	659.18	76.1078	659.18	78.237	659.18	75.3523	659.18	77.4519	659.18	74.6824	659.18	76.7616	659.18	74.2468	659.18	76.0561	659.18	74.4147	659.18	75.4151	659.18	75.2853	659.18	75.0814	659.18	76.3594	659.18	75.0882	659.18	77.056	659.18	75.3039	659.18	77.0991	659.18	75.8059	659.18	76.5518
682.617	84.9248	682.617	85.0312	682.617	84.5167	682.617	84.6684	682.617	84.0586	682.617	83.7982	682.617	83.7135	682.617	82.5006	682.617	83.4094	682.617	80.9521	682.617	82.9454	682.617	79.3706	682.617	82.1846	682.617	77.918	682.617	81.1277	682.617	76.6628	682.617	79.9056	682.617	75.6492	682.617	78.7413	682.617	74.9331	682.617	77.8428	682.617	74.5416	682.617	77.255	682.617	74.4979	682.617	76.8827	682.617	74.8853	682.617	76.6706	682.617	75.7039	682.617	76.5676	682.617	76.6519	682.617	76.377	682.617	77.2711	682.617	76.0572	682.617	77.2587	682.617	76.0708	682.617	76.6718
706.055	84.9406	706.055	84.9968	706.055	84.5778	706.055	84.6203	706.055	84.1223	706.055	83.7868	706.055	83.7248	706.055	82.5422	706.055	83.3224	706.055	80.9961	706.055	82.7371	706.055	79.3402	706.055	81.8693	706.055	77.8172	706.055	80.7582	706.055	76.5695	706.055	79.5527	706.055	75.5316	706.055	78.4405	706.055	74.5666	706.055	77.5343	706.055	73.6844	706.055	76.8261	706.055	73.1902	706.055	76.3054	706.055	73.5909	706.055	75.9668	706.055	74.8889	706.055	75.567	706.055	76.3364	706.055	74.7665	706.055	77.2132	706.055	73.9649	706.055	77.1479	706.055	74.5151	706.055	76.0747
732.422	84.231	732.422	84.6376	732.422	83.6355	732.422	84.5929	732.422	83.1988	732.422	84.0111	732.422	83.0389	732.422	82.9313	732.422	82.9412	732.422	81.4766	732.422	82.6398	732.422	79.8485	732.422	81.9971	732.422	78.3097	732.422	81.0012	732.422	77.0776	732.422	79.7458	732.422	76.1803	732.422	78.4369	732.422	75.4758	732.422	77.3813	732.422	74.8039	732.422	76.8246	732.422	74.1126	732.422	76.7071	732.422	73.6266	732.422	76.7837	732.422	73.8727	732.422	76.8187	732.422	74.8513	732.422	76.4291	732.422	75.6708	732.422	75.2996	732.422	75.5805	732.422	74.1792	732.422	74.6116
758.789	84.5601	758.789	84.9348	758.789	84.196	758.789	84.9503	758.789	84.1935	758.789	84.456	758.789	84.4322	758.789	83.4527	758.789	84.4862	758.789	82.0143	758.789	84.0812	758.789	80.2832	758.789	83.1777	758.789	78.5244	758.789	81.8928	758.789	77.1253	758.789	80.4429	758.789	76.3427	758.789	79.0644	758.789	76.0227	758.789	77.8782	758.789	75.7894	758.789	76.8978	758.789	75.3941	758.789	76.2843	758.789	74.9493	758.789	76.3438	758.789	75.0102	758.789	76.92	758.789	75.7668	758.789	77.2734	758.789	76.3996	758.789	76.7964	758.789	76.1941	758.789	75.7328	758.789	75.4914
785.156	83.6609	785.156	84.0923	785.156	83.3298	785.156	84.2807	785.156	83.3319	785.156	84.0402	785.156	83.4917	785.156	83.3304	785.156	83.4555	785.156	82.1861	785.156	82.9996	785.156	80.6888	785.156	82.0508	785.156	78.9751	785.156	80.6502	785.156	77.2754	785.156	78.9986	785.156	75.9329	785.156	77.5024	785.156	75.2269	785.156	76.5266	785.156	75.0536	785.156	75.9612	785.156	75.0269	785.156	75.4977	785.156	74.8979	785.156	75.3223	785.156	74.7624	785.156	75.7099	785.156	74.8044	785.156	75.892	785.156	74.6965	785.156	74.9142	785.156	73.8037	785.156	72.9604	785.156	72.4345
811.523	84.7866	811.523	85.1328	811.523	84.5824	811.523	85.2057	811.523	84.728	811.523	84.7962	811.523	84.9708	811.523	83.9314	811.523	84.9665	811.523	82.7447	811.523	84.5292	811.523	81.3575	811.523	83.5927	811.523	79.8351	811.523	82.1624	811.523	78.2329	811.523	80.3199	811.523	76.6752	811.523	78.2931	811.523	75.4219	811.523	76.6094	811.523	74.773	811.523	75.9025	811.523	74.7241	811.523	75.9437	811.523	74.9776	811.523	75.9476	811.523	75.3865	811.523	75.9	811.523	75.9198	811.523	76.1712	811.523	76.2368	811.523	76.1903	811.523	75.9181	811.523	75.5695	811.523	75.3268
840.82	84.8264	840.82	85.1968	840.82	84.8595	840.82	85.4568	840.82	85.2873	840.82	85.2011	840.82	85.6317	840.82	84.335	840.82	85.5514	840.82	82.996	840.82	84.9568	840.82	81.4739	840.82	83.9026	840.82	80.0484	840.82	82.5295	840.82	78.7966	840.82	81.0105	840.82	77.6336	840.82	79.438	840.82	76.5096	840.82	77.7288	840.82	75.549	840.82	75.7828	840.82	75.0615	840.82	74.1127	840.82	75.2213	840.82	74.0698	840.82	75.754	840.82	75.3077	840.82	76.2012	840.82	76.2184	840.82	76.1513	840.82	76.1021	840.82	75.4073	840.82	75.1235	840.82	74.6303
870.117	84.9279	870.117	85.3053	870.117	84.9686	870.117	85.5844	870.117	85.3942	870.117	85.3223	870.117	85.7186	870.117	84.3781	870.117	85.5806	870.117	82.8286	870.117	84.8615	870.117	80.9527	870.117	83.5926	870.117	79.2875	870.117	81.9083	870.117	78.3527	870.117	80.1008	870.117	78.0421	870.117	78.6709	870.117	77.8248	870.117	77.9383	870.117	77.3254	870.117	77.5591	870.117	76.488	870.117	77.0013	870.117	75.7814	870.117	76.2243	870.117	76.0745	870.117	76.1282	870.117	77.0679	870.117	77.0997	870.117	77.4176	870.117	77.4407	870.117	76.3693	870.117	76.1536	870.117	75.0246
902.344	84.8322	902.344	85.0226	902.344	85.2324	902.344	85.3624	902.344	85.8267	902.344	85.2551	902.344	86.0403	902.344	84.4568	902.344	85.672	902.344	82.971	902.344	84.7476	902.344	80.9639	902.344	83.3608	902.344	78.7793	902.344	81.6392	902.344	76.9061	902.344	79.7184	902.344	75.7713	902.344	77.7094	902.344	75.4342	902.344	75.8663	902.344	75.532	902.344	74.8004	902.344	75.6083	902.344	74.5887	902.344	75.4002	902.344	74.5908	902.344	75.0067	902.344	75.1152	902.344	74.7845	902.344	76.3172	902.344	74.4837	902.344	76.923	902.344	73.6877	902.344	76.0095	902.344	74.0879
931.641	84.9733	931.641	84.9905	931.641	85.5379	931.641	85.2851	931.641	86.1453	931.641	85.2198	931.641	86.2584	931.641	84.522	931.641	85.7424	931.641	83.1904	931.641	84.6747	931.641	81.2954	931.641	83.1763	931.641	78.9716	931.641	81.346	931.641	76.67	931.641	79.3319	931.641	75.2958	931.641	77.56	931.641	75.1727	931.641	76.5208	931.641	75.4817	931.641	75.9581	931.641	75.4417	931.641	75.3609	931.641	74.8482	931.641	74.802	931.641	74.4367	931.641	75.1606	931.641	75.0051	931.641	76.6673	931.641	75.2776	931.641	77.4643	931.641	74.2285	931.641	76.3133	931.641	74.0619
966.797	84.5893	966.797	84.1475	966.797	85.4239	966.797	84.1206	966.797	86.0319	966.797	83.8622	966.797	86.0387	966.797	82.9692	966.797	85.3447	966.797	81.4427	966.797	84.0095	966.797	79.5373	966.797	82.2674	966.797	77.65	966.797	80.3964	966.797	76.1273	966.797	78.4621	966.797	75.0657	966.797	76.3754	966.797	74.3322	966.797	74.2208	966.797	73.8671	966.797	72.3304	966.797	73.8727	966.797	71.4044	966.797	74.2086	966.797	72.1922	966.797	74.2457	966.797	73.6604	966.797	73.7426	966.797	75.1589	966.797	72.6276	966.797	76.393	966.797	71.2568	966.797	75.9247	966.797	73.1631
999.023	84.3668	999.023	83.9834	999.023	85.4245	999.023	84.1924	999.023	86.1996	999.023	84.1087	999.023	86.0842	999.023	83.2637	999.023	85.0997	999.023	81.6243	999.023	83.6293	999.023	79.4192	999.023	82.0577	999.023	77.2027	999.023	80.4525	999.023	75.7397	999.023	78.6205	999.023	75.1927	999.023	76.3919	999.023	75.081	999.023	74.0647	999.023	75.0693	999.023	72.952	999.023	74.9436	999.023	73.52	999.023	74.5066	999.023	73.8002	999.023	73.9269	999.023	73.4389	999.023	73.7305	999.023	74.9201	999.023	73.6432	999.023	76.4103	999.023	73.3288	999.023	75.8912	999.023	74.1481
1,034.18	84.2159	1,034.18	82.9564	1,034.18	85.8439	1,034.18	83.0523	1,034.18	86.648	1,034.18	83.3727	1,034.18	86.3906	1,034.18	82.9148	1,034.18	85.2382	1,034.18	81.4941	1,034.18	83.5207	1,034.18	79.1682	1,034.18	81.6246	1,034.18	75.9579	1,034.18	79.7544	1,034.18	72.1109	1,034.18	77.8371	1,034.18	70.4284	1,034.18	75.9129	1,034.18	72.3359	1,034.18	74.4096	1,034.18	73.9477	1,034.18	73.1423	1,034.18	74.3951	1,034.18	71.3749	1,034.18	73.9245	1,034.18	71.0833	1,034.18	73.0766	1,034.18	72.8719	1,034.18	72.7266	1,034.18	74.7139	1,034.18	72.2599	1,034.18	76.8318	1,034.18	71.0207	1,034.18	76.8767	1,034.18	73.7848
1,072.27	84.2659	1,072.27	82.6349	1,072.27	85.8291	1,072.27	82.5489	1,072.27	86.3785	1,072.27	83.2167	1,072.27	85.9088	1,072.27	83.2132	1,072.27	84.6395	1,072.27	82.1736	1,072.27	82.8722	1,072.27	80.0864	1,072.27	80.9851	1,072.27	77.0264	1,072.27	79.1331	1,072.27	73.371	1,072.27	77.2371	1,072.27	70.6347	1,072.27	75.4194	1,072.27	70.3864	1,072.27	73.8997	1,072.27	71.1041	1,072.27	72.7296	1,072.27	71.5143	1,072.27	72.4545	1,072.27	71.7169	1,072.27	72.5555	1,072.27	72.4159	1,072.27	71.2353	1,072.27	73.3087	1,072.27	72.0888	1,072.27	72.8687	1,072.27	75.609	1,072.27	71.1418	1,072.27	76.2837	1,072.27	73.6054
1,110.35	83.821	1,110.35	81.8391	1,110.35	85.4792	1,110.35	81.3425	1,110.35	85.9431	1,110.35	81.8525	1,110.35	85.1931	1,110.35	81.8237	1,110.35	83.5439	1,110.35	80.979	1,110.35	81.5016	1,110.35	79.4859	1,110.35	79.4142	1,110.35	77.4306	1,110.35	77.2258	1,110.35	74.7754	1,110.35	74.8973	1,110.35	71.7579	1,110.35	72.9855	1,110.35	69.9415	1,110.35	72.2592	1,110.35	70.6416	1,110.35	71.8179	1,110.35	71.8098	1,110.35	70.3571	1,110.35	71.9921	1,110.35	69.5616	1,110.35	71.1654	1,110.35	71.0329	1,110.35	69.7503	1,110.35	71.4982	1,110.35	66.6776	1,110.35	73.3613	1,110.35	66.4395	1,110.35	74.8607	1,110.35	72.7168
1,148.44	83.6146	1,148.44	80.7893	1,148.44	85.4653	1,148.44	79.8734	1,148.44	85.8674	1,148.44	80.9675	1,148.44	85.0149	1,148.44	81.2683	1,148.44	83.2854	1,148.44	80.5452	1,148.44	81.3565	1,148.44	79.3139	1,148.44	79.6849	1,148.44	77.8514	1,148.44	77.9101	1,148.44	76.027	1,148.44	75.5427	1,148.44	73.7655	1,148.44	72.5385	1,148.44	71.8567	1,148.44	69.9448	1,148.44	71.2054	1,148.44	69.3848	1,148.44	70.6927	1,148.44	70.0688	1,148.44	69.4526	1,148.44	71.7518	1,148.44	68.3633	1,148.44	72.6834	1,148.44	68.3541	1,148.44	72.7117	1,148.44	67.5381	1,148.44	74.2275	1,148.44	67.6117	1,148.44	75.2108	1,148.44	72.9712
1,189.45	84.0189	1,189.45	79.8793	1,189.45	85.942	1,189.45	77.1885	1,189.45	85.8978	1,189.45	79.1102	1,189.45	84.3473	1,189.45	79.9275	1,189.45	81.8801	1,189.45	79.3595	1,189.45	79.4141	1,189.45	78.2229	1,189.45	77.6191	1,189.45	77.0086	1,189.45	76.1778	1,189.45	75.7072	1,189.45	74.5738	1,189.45	74.2662	1,189.45	72.5935	1,189.45	73.1334	1,189.45	70.2332	1,189.45	72.7351	1,189.45	67.9496	1,189.45	72.3186	1,189.45	66.2828	1,189.45	70.6054	1,189.45	65.8151	1,189.45	67.9675	1,189.45	68.4436	1,189.45	67.5451	1,189.45	69.9146	1,189.45	64.7577	1,189.45	72.1952	1,189.45	65.1188	1,189.45	74.477	1,189.45	72.8289
1,230.47	84.7578	1,230.47	79.7618	1,230.47	86.5802	1,230.47	72.5555	1,230.47	86.1703	1,230.47	77.0653	1,230.47	83.988	1,230.47	79.5655	1,230.47	80.4728	1,230.47	79.8269	1,230.47	76.8418	1,230.47	78.9342	1,230.47	74.8992	1,230.47	77.3406	1,230.47	73.9318	1,230.47	75.2611	1,230.47	72.4771	1,230.47	73.164	1,230.47	70.1412	1,230.47	72.411	1,230.47	68.2615	1,230.47	73.1323	1,230.47	67.8553	1,230.47	73.3578	1,230.47	64.285	1,230.47	71.8419	1,230.47	53.5465	1,230.47	69.3733	1,230.47	68.0443	1,230.47	68.8708	1,230.47	69.3404	1,230.47	65.2684	1,230.47	70.6247	1,230.47	60.6077	1,230.47	73.4809	1,230.47	71.8299
1,274.41	85.6349	1,274.41	81.1283	1,274.41	86.8957	1,274.41	67.9015	1,274.41	85.8512	1,274.41	74.4305	1,274.41	82.76	1,274.41	79.0191	1,274.41	77.8354	1,274.41	79.8297	1,274.41	72.915	1,274.41	79.1634	1,274.41	71.9563	1,274.41	77.6549	1,274.41	72.4746	1,274.41	75.5338	1,274.41	71.6332	1,274.41	73.1947	1,274.41	69.3084	1,274.41	71.7483	1,274.41	68.319	1,274.41	72.1464	1,274.41	69.0538	1,274.41	72.7398	1,274.41	67.5522	1,274.41	71.5182	1,274.41	61.1759	1,274.41	67.7304	1,274.41	61.9035	1,274.41	66.0661	1,274.41	66.8735	1,274.41	63.0053	1,274.41	70.1871	1,274.41	65.9528	1,274.41	73.7518	1,274.41	73.356
1,318.36	86.454	1,318.36	82.9035	1,318.36	87.1515	1,318.36	73.6093	1,318.36	85.5047	1,318.36	71.9191	1,318.36	81.2047	1,318.36	78.0787	1,318.36	72.4623	1,318.36	79.2879	1,318.36	64.0571	1,318.36	78.942	1,318.36	72.7852	1,318.36	77.9532	1,318.36	74.8073	1,318.36	76.298	1,318.36	74.22	1,318.36	73.6075	1,318.36	71.6931	1,318.36	70.7365	1,318.36	67.9823	1,318.36	71.3216	1,318.36	68.9029	1,318.36	72.7705	1,318.36	71.3585	1,318.36	71.3076	1,318.36	69.4505	1,318.36	65.7118	1,318.36	56.89	1,318.36	68.1239	1,318.36	62.9305	1,318.36	66.538	1,318.36	66.6605	1,318.36	68.8601	1,318.36	73.4948	1,318.36	74.7823
1,365.23	87.2619	1,365.23	84.7351	1,365.23	87.1595	1,365.23	78.624	1,365.23	84.5188	1,365.23	72.7708	1,365.23	78.2988	1,365.23	76.8635	1,365.23	65.9961	1,365.23	78.2808	1,365.23	74.1056	1,365.23	78.1116	1,365.23	77.0135	1,365.23	77.2784	1,365.23	77.2404	1,365.23	76.2891	1,365.23	76.1258	1,365.23	75.3204	1,365.23	74.1788	1,365.23	73.9084	1,365.23	71.5579	1,365.23	72.2267	1,365.23	70.0323	1,365.23	72.1623	1,365.23	71.4403	1,365.23	71.4271	1,365.23	70.3341	1,365.23	64.6981	1,365.23	61.2511	1,365.23	66.4659	1,365.23	62.6298	1,365.23	67.7743	1,365.23	63.118	1,365.23	69.6292	1,365.23	71.8621	1,365.23	74.3018
1,415.04	86.9705	1,415.04	85.074	1,415.04	86.1949	1,415.04	80.4862	1,415.04	82.3154	1,415.04	75.8212	1,415.04	74.0131	1,415.04	76.2582	1,415.04	74.7569	1,415.04	77.1005	1,415.04	77.8928	1,415.04	76.6996	1,415.04	78.9163	1,415.04	75.1777	1,415.04	79.0986	1,415.04	73.2632	1,415.04	78.3177	1,415.04	72.2466	1,415.04	76.6634	1,415.04	71.9828	1,415.04	73.5901	1,415.04	71.4447	1,415.04	69.7503	1,415.04	71.2182	1,415.04	70.7996	1,415.04	71.0614	1,415.04	70.4983	1,415.04	66.9267	1,415.04	66.5795	1,415.04	68.0432	1,415.04	64.4415	1,415.04	70.0589	1,415.04	58.8821	1,415.04	69.3859	1,415.04	68.7334	1,415.04	72.572
1,464.84	86.5541	1,464.84	85.0464	1,464.84	85.0439	1,464.84	81.0321	1,464.84	79.8191	1,464.84	76.8367	1,464.84	73.5269	1,464.84	75.907	1,464.84	78.4826	1,464.84	76.1959	1,464.84	80.3436	1,464.84	75.5742	1,464.84	80.3774	1,464.84	73.8833	1,464.84	79.5149	1,464.84	71.0288	1,464.84	77.5292	1,464.84	66.1394	1,464.84	74.593	1,464.84	63.6102	1,464.84	71.4699	1,464.84	67.6722	1,464.84	70.9825	1,464.84	67.4296	1,464.84	72.5413	1,464.84	66.0401	1,464.84	72.0821	1,464.84	65.4144	1,464.84	66.6791	1,464.84	69.4389	1,464.84	64.392	1,464.84	70.9393	1,464.84	63.6403	1,464.84	68.0455	1,464.84	64.1048	1,464.84	69.9381
1,514.65	86.2816	1,514.65	85.1575	1,514.65	84.1763	1,514.65	81.7542	1,514.65	77.5848	1,514.65	78.051	1,514.65	74.8745	1,514.65	75.5101	1,514.65	80.6552	1,514.65	74.0495	1,514.65	81.9765	1,514.65	72.8505	1,514.65	81.0558	1,514.65	72.4122	1,514.65	79.57	1,514.65	72.6187	1,514.65	77.9594	1,514.65	71.1024	1,514.65	75.7763	1,514.65	66.3213	1,514.65	72.2631	1,514.65	65.9124	1,514.65	70.4723	1,514.65	66.6203	1,514.65	74.4463	1,514.65	59.331	1,514.65	74.4866	1,514.65	61.9133	1,514.65	66.7603	1,514.65	70.284	1,514.65	65.5384	1,514.65	72.8636	1,514.65	67.6629	1,514.65	70.0898	1,514.65	64.2175	1,514.65	68.8871
1,570.31	85.948	1,570.31	85.2809	1,570.31	83.6699	1,570.31	83.0151	1,570.31	77.371	1,570.31	79.4922	1,570.31	75.2366	1,570.31	75.2932	1,570.31	80.913	1,570.31	73.4035	1,570.31	82.7697	1,570.31	72.3998	1,570.31	81.7986	1,570.31	72.2808	1,570.31	79.0178	1,570.31	73.2097	1,570.31	76.459	1,570.31	73.2701	1,570.31	74.6643	1,570.31	71.1111	1,570.31	71.9064	1,570.31	70.5606	1,570.31	68.6524	1,570.31	71.8052	1,570.31	73.1003	1,570.31	67.5289	1,570.31	75.1633	1,570.31	50.1488	1,570.31	70.3676	1,570.31	70.175	1,570.31	57.2886	1,570.31	74.6166	1,570.31	67.6377	1,570.31	73.3615	1,570.31	66.6315	1,570.31	70.5819
1,623.05	85.226	1,623.05	85.2716	1,623.05	82.9153	1,623.05	83.7629	1,623.05	78.3091	1,623.05	80.5273	1,623.05	77.6602	1,623.05	77.1765	1,623.05	80.769	1,623.05	74.8853	1,623.05	82.2428	1,623.05	73.3013	1,623.05	81.5902	1,623.05	73.165	1,623.05	78.9742	1,623.05	73.7531	1,623.05	75.4005	1,623.05	73.5992	1,623.05	74.2182	1,623.05	70.478	1,623.05	73.9071	1,623.05	66.3504	1,623.05	69.148	1,623.05	72.2583	1,623.05	69.6059	1,623.05	71.5694	1,623.05	74.5519	1,623.05	62.0275	1,623.05	73.0652	1,623.05	65.6544	1,623.05	63.6497	1,623.05	73.9531	1,623.05	63.3374	1,623.05	74.6004	1,623.05	67.9585	1,623.05	72.3208
1,681.64	84.3159	1,681.64	85.1943	1,681.64	82.103	1,681.64	84.2363	1,681.64	79.4479	1,681.64	81.4228	1,681.64	80.022	1,681.64	78.0273	1,681.64	81.4857	1,681.64	75.6583	1,681.64	81.7924	1,681.64	75.5049	1,681.64	81.0512	1,681.64	74.2655	1,681.64	79.0858	1,681.64	72.301	1,681.64	75.5377	1,681.64	72.1277	1,681.64	72.1909	1,681.64	71.6382	1,681.64	71.2334	1,681.64	66.5032	1,681.64	70.1053	1,681.64	67.6484	1,681.64	69.3009	1,681.64	71.7087	1,681.64	74.4745	1,681.64	66.1965	1,681.64	74.4252	1,681.64	62.9486	1,681.64	68.153	1,681.64	72.2383	1,681.64	59.6675	1,681.64	73.6631	1,681.64	66.6822	1,681.64	71.3854
1,740.23	84.6118	1,740.23	85.5595	1,740.23	82.2131	1,740.23	84.5968	1,740.23	80.275	1,740.23	81.6016	1,740.23	81.2629	1,740.23	78.0773	1,740.23	82.1016	1,740.23	77.0354	1,740.23	81.8409	1,740.23	77.1679	1,740.23	80.2195	1,740.23	75.9025	1,740.23	78.0594	1,740.23	73.1668	1,740.23	75.0985	1,740.23	70.2705	1,740.23	71.4373	1,740.23	69.0743	1,740.23	70.7835	1,740.23	67.6793	1,740.23	70.3874	1,740.23	61.7265	1,740.23	69.8583	1,740.23	69.6393	1,740.23	72.7758	1,740.23	68.1214	1,740.23	71.7105	1,740.23	62.0806	1,740.23	64.5969	1,740.23	71.2247	1,740.23	57.5428	1,740.23	72.9165	1,740.23	65.9087	1,740.23	69.1022
1,801.76	84.733	1,801.76	86.0924	1,801.76	82.8479	1,801.76	84.9787	1,801.76	81.8508	1,801.76	82.0615	1,801.76	82.3017	1,801.76	78.6283	1,801.76	82.7668	1,801.76	76.751	1,801.76	81.7183	1,801.76	76.1248	1,801.76	79.5105	1,801.76	74.7493	1,801.76	76.9043	1,801.76	73.5887	1,801.76	74.7848	1,801.76	73.1845	1,801.76	73.2946	1,801.76	71.9711	1,801.76	71.6102	1,801.76	70.0221	1,801.76	69.1816	1,801.76	67.3011	1,801.76	68.8918	1,801.76	64.1199	1,801.76	69.5909	1,801.76	68.1936	1,801.76	68.8381	1,801.76	65.3452	1,801.76	63.9883	1,801.76	71.3108	1,801.76	62.7268	1,801.76	72.7487	1,801.76	66.1971	1,801.76	69.247
1,866.21	84.409	1,866.21	86.4251	1,866.21	82.52	1,866.21	85.7583	1,866.21	83.4107	1,866.21	82.9469	1,866.21	83.4192	1,866.21	79.2333	1,866.21	83.0014	1,866.21	78.8514	1,866.21	81.6556	1,866.21	78.0514	1,866.21	79.5401	1,866.21	76.738	1,866.21	76.295	1,866.21	75.4905	1,866.21	74.2731	1,866.21	74.4059	1,866.21	72.642	1,866.21	73.0937	1,866.21	71.4641	1,866.21	71.5042	1,866.21	71.8022	1,866.21	71.423	1,866.21	69.7206	1,866.21	65.9194	1,866.21	69.611	1,866.21	68.805	1,866.21	67.4837	1,866.21	67.8043	1,866.21	63.6819	1,866.21	71.6657	1,866.21	64.0789	1,866.21	72.5665	1,866.21	67.5417	1,866.21	69.5568
1,930.66	83.8268	1,930.66	86.288	1,930.66	81.9569	1,930.66	86.4487	1,930.66	84.5031	1,930.66	83.6858	1,930.66	84.8147	1,930.66	81.5415	1,930.66	83.1039	1,930.66	80.1682	1,930.66	81.2886	1,930.66	77.6099	1,930.66	79.8809	1,930.66	75.857	1,930.66	76.9303	1,930.66	74.7097	1,930.66	73.8336	1,930.66	73.7338	1,930.66	73.1197	1,930.66	72.4819	1,930.66	73.5328	1,930.66	67.0989	1,930.66	72.856	1,930.66	68.6563	1,930.66	70.1747	1,930.66	70.1463	1,930.66	68.2394	1,930.66	67.4001	1,930.66	65.941	1,930.66	70.0368	1,930.66	61.793	1,930.66	71.9133	1,930.66	64.3775	1,930.66	72.4269	1,930.66	68.4092	1,930.66	68.271
2,000.98	84.7026	2,000.98	87.0806	2,000.98	82.9024	2,000.98	86.7053	2,000.98	85.3027	2,000.98	84.2237	2,000.98	85.4567	2,000.98	82.354	2,000.98	83.2077	2,000.98	80.0322	2,000.98	80.9046	2,000.98	78.4852	2,000.98	80.1591	2,000.98	76.6303	2,000.98	78.8162	2,000.98	73.3131	2,000.98	75.3427	2,000.98	70.3364	2,000.98	74.2244	2,000.98	70.7964	2,000.98	73.253	2,000.98	70.9171	2,000.98	72.2991	2,000.98	59.2286	2,000.98	70.883	2,000.98	69.5427	2,000.98	67.5283	2,000.98	66.5026	2,000.98	65.8708	2,000.98	71.3047	2,000.98	65.7786	2,000.98	71.416	2,000.98	67.3785	2,000.98	73.2718	2,000.98	68.9268	2,000.98	66.3548
2,071.29	85.6793	2,071.29	88.0889	2,071.29	84.3264	2,071.29	87.1654	2,071.29	86.0493	2,071.29	84.9893	2,071.29	86.1736	2,071.29	82.7787	2,071.29	83.2339	2,071.29	79.8706	2,071.29	80.2558	2,071.29	78.6053	2,071.29	80.6073	2,071.29	76.053	2,071.29	79.8353	2,071.29	73.9334	2,071.29	76.5824	2,071.29	72.8998	2,071.29	75.4043	2,071.29	72.0973	2,071.29	73.7937	2,071.29	73.405	2,071.29	73.715	2,071.29	70.0432	2,071.29	70.8483	2,071.29	65.5181	2,071.29	67.5381	2,071.29	66.0863	2,071.29	64.1719	2,071.29	73.0327	2,071.29	67.4497	2,071.29	71.5196	2,071.29	70.7807	2,071.29	74.4583	2,071.29	69.8809	2,071.29	66.9024
2,144.53	85.6075	2,144.53	87.9122	2,144.53	84.3734	2,144.53	87.4776	2,144.53	86.724	2,144.53	86.2363	2,144.53	86.7055	2,144.53	83.1666	2,144.53	83.1554	2,144.53	81.0216	2,144.53	79.3234	2,144.53	78.4441	2,144.53	80.3255	2,144.53	76.7938	2,144.53	80.2092	2,144.53	76.4774	2,144.53	76.6729	2,144.53	75.0763	2,144.53	73.7909	2,144.53	71.8688	2,144.53	74.2906	2,144.53	71.7159	2,144.53	75.2052	2,144.53	72.1708	2,144.53	72.3572	2,144.53	65.0954	2,144.53	67.8909	2,144.53	68.3271	2,144.53	62.6468	2,144.53	72.1766	2,144.53	67.7055	2,144.53	72.6299	2,144.53	70.7994	2,144.53	73.9108	2,144.53	69.9913	2,144.53	67.7121
2,217.77	84.5059	2,217.77	86.6621	2,217.77	83.6424	2,217.77	87.6333	2,217.77	86.5666	2,217.77	86.4664	2,217.77	86.9689	2,217.77	83.1784	2,217.77	83.0635	2,217.77	80.3617	2,217.77	79.5644	2,217.77	78.3013	2,217.77	79.9303	2,217.77	77.8561	2,217.77	79.7811	2,217.77	76.5514	2,217.77	76.6313	2,217.77	74.0435	2,217.77	72.7003	2,217.77	70.8255	2,217.77	73.5855	2,217.77	65.1848	2,217.77	74.849	2,217.77	69.3016	2,217.77	74.0251	2,217.77	65.9753	2,217.77	67.8119	2,217.77	69.7204	2,217.77	64.5101	2,217.77	69.2618	2,217.77	67.4482	2,217.77	74.3631	2,217.77	70.6619	2,217.77	72.6871	2,217.77	68.4446	2,217.77	68.408
2,296.88	85.1375	2,296.88	86.6776	2,296.88	84.3183	2,296.88	87.2686	2,296.88	85.9418	2,296.88	85.8171	2,296.88	86.3926	2,296.88	83.293	2,296.88	82.7629	2,296.88	80.4121	2,296.88	79.1011	2,296.88	79.8891	2,296.88	80.2244	2,296.88	78.7616	2,296.88	79.7116	2,296.88	74.3982	2,296.88	76.4149	2,296.88	70.2949	2,296.88	73.1273	2,296.88	70.4715	2,296.88	72.6611	2,296.88	70.4421	2,296.88	73.4527	2,296.88	65.8622	2,296.88	74.6012	2,296.88	67.7325	2,296.88	69.8225	2,296.88	67.5633	2,296.88	64.3279	2,296.88	68.9738	2,296.88	65.6537	2,296.88	74.8548	2,296.88	70.9654	2,296.88	71.6285	2,296.88	65.5209	2,296.88	69.7238
2,378.91	85.3753	2,378.91	86.9799	2,378.91	85.0809	2,378.91	86.9766	2,378.91	86.335	2,378.91	85.5988	2,378.91	85.486	2,378.91	83.0048	2,378.91	82.321	2,378.91	80.4308	2,378.91	78.9677	2,378.91	80.107	2,378.91	79.7469	2,378.91	77.1392	2,378.91	79.4157	2,378.91	74.9707	2,378.91	76.4606	2,378.91	72.7185	2,378.91	71.4106	2,378.91	71.0319	2,378.91	69.9305	2,378.91	70.947	2,378.91	69.9886	2,378.91	65.5301	2,378.91	72.6871	2,378.91	67.4423	2,378.91	69.7071	2,378.91	65.8623	2,378.91	60.5066	2,378.91	69.2032	2,378.91	67.044	2,378.91	74.2883	2,378.91	71.392	2,378.91	71.137	2,378.91	66.0656	2,378.91	69.8042
2,460.94	84.33	2,460.94	86.1151	2,460.94	84.4949	2,460.94	86.6329	2,460.94	86.6081	2,460.94	85.5448	2,460.94	85.3951	2,460.94	81.5599	2,460.94	81.6874	2,460.94	81.1539	2,460.94	79.0937	2,460.94	77.6426	2,460.94	78.4996	2,460.94	75.8676	2,460.94	77.3434	2,460.94	73.0882	2,460.94	74.4005	2,460.94	71.4534	2,460.94	69.4271	2,460.94	68.3651	2,460.94	67.6246	2,460.94	68.6207	2,460.94	69.0247	2,460.94	66.732	2,460.94	71.4469	2,460.94	60.6522	2,460.94	69.9733	2,460.94	66.3276	2,460.94	65.5098	2,460.94	68.8053	2,460.94	65.0326	2,460.94	72.8559	2,460.94	70.3176	2,460.94	71.4149	2,460.94	65.4256	2,460.94	69.3734
2,548.83	84.136	2,548.83	84.7406	2,548.83	83.9152	2,548.83	86.313	2,548.83	85.8998	2,548.83	85.0699	2,548.83	85.5747	2,548.83	82.7579	2,548.83	81.1524	2,548.83	80.156	2,548.83	79.494	2,548.83	77.4886	2,548.83	77.5644	2,548.83	75.8103	2,548.83	76.6008	2,548.83	74.7687	2,548.83	74.1737	2,548.83	72.0479	2,548.83	72.0012	2,548.83	69.5913	2,548.83	70.4833	2,548.83	66.2042	2,548.83	64.4356	2,548.83	68.0561	2,548.83	69.5266	2,548.83	63.5869	2,548.83	69.9875	2,548.83	65.322	2,548.83	64.2777	2,548.83	67.3599	2,548.83	64.7923	2,548.83	72.856	2,548.83	69.8298	2,548.83	71.7041	2,548.83	65.9777	2,548.83	67.0762
2,639.65	83.8469	2,639.65	84.3505	2,639.65	84.4316	2,639.65	85.6559	2,639.65	85.1344	2,639.65	84.6122	2,639.65	85.0137	2,639.65	82.4266	2,639.65	82.0974	2,639.65	79.0951	2,639.65	79.5983	2,639.65	78.8635	2,639.65	78.2687	2,639.65	76.7712	2,639.65	76.1133	2,639.65	73.8469	2,639.65	70.7801	2,639.65	71.0974	2,639.65	68.6568	2,639.65	69.3027	2,639.65	68.2075	2,639.65	69.4737	2,639.65	69.2916	2,639.65	65.634	2,639.65	67.0834	2,639.65	66.0467	2,639.65	69.1304	2,639.65	63.8714	2,639.65	63.4006	2,639.65	68.6091	2,639.65	65.0625	2,639.65	71.9668	2,639.65	70.3918	2,639.65	70.93	2,639.65	61.9952	2,639.65	67.8962
2,733.4	83.2711	2,733.4	84.1864	2,733.4	84.4553	2,733.4	85.2215	2,733.4	85.4464	2,733.4	84.0045	2,733.4	83.8202	2,733.4	81.196	2,733.4	82.4187	2,733.4	80.613	2,733.4	80.0898	2,733.4	79.5656	2,733.4	78.706	2,733.4	77.1771	2,733.4	75.9438	2,733.4	74.1964	2,733.4	72.6258	2,733.4	72.0784	2,733.4	67.5537	2,733.4	70.0818	2,733.4	66.6447	2,733.4	67.4944	2,733.4	65.6066	2,733.4	67.6172	2,733.4	68.3284	2,733.4	64.701	2,733.4	68.1588	2,733.4	63.5441	2,733.4	59.9306	2,733.4	68.9878	2,733.4	65.3683	2,733.4	71.0311	2,733.4	69.0108	2,733.4	70.143	2,733.4	60.906	2,733.4	67.1304
2,827.15	83.3778	2,827.15	83.9652	2,827.15	84.6748	2,827.15	84.966	2,827.15	85.257	2,827.15	83.6842	2,827.15	83.9087	2,827.15	80.5754	2,827.15	81.8818	2,827.15	81.1033	2,827.15	80.882	2,827.15	79.4557	2,827.15	78.9514	2,827.15	75.8532	2,827.15	76.3042	2,827.15	73.1837	2,827.15	73.2696	2,827.15	69.2272	2,827.15	67.5327	2,827.15	66.2895	2,827.15	69.334	2,827.15	63.1344	2,827.15	65.4061	2,827.15	62.9008	2,827.15	67.1384	2,827.15	64.8343	2,827.15	68.6329	2,827.15	62.1254	2,827.15	60.786	2,827.15	66.7996	2,827.15	65.974	2,827.15	70.3037	2,827.15	69.0579	2,827.15	69.9556	2,827.15	64.339	2,827.15	66.7408
2,926.76	83.2064	2,926.76	83.8271	2,926.76	84.6069	2,926.76	84.7116	2,926.76	84.925	2,926.76	83.3431	2,926.76	84.2164	2,926.76	81.7472	2,926.76	81.8593	2,926.76	81.155	2,926.76	80.5712	2,926.76	77.9514	2,926.76	79.0925	2,926.76	74.3498	2,926.76	75.9524	2,926.76	68.6374	2,926.76	73.3223	2,926.76	69.335	2,926.76	72.1014	2,926.76	66.9275	2,926.76	68.8914	2,926.76	66.3799	2,926.76	67.8643	2,926.76	61.9348	2,926.76	65.8633	2,926.76	62.2773	2,926.76	67.5341	2,926.76	62.9792	2,926.76	62.937	2,926.76	65.777	2,926.76	66.7439	2,926.76	70.7793	2,926.76	68.4541	2,926.76	69.2248	2,926.76	64.4239	2,926.76	65.4987
3,032.23	83.3379	3,032.23	83.5798	3,032.23	84.4509	3,032.23	83.8913	3,032.23	84.4745	3,032.23	83.1498	3,032.23	84.2356	3,032.23	82.8745	3,032.23	82.5143	3,032.23	80.5662	3,032.23	80.9392	3,032.23	77.8727	3,032.23	79.4156	3,032.23	74.3475	3,032.23	75.703	3,032.23	73.6248	3,032.23	74.0931	3,032.23	70.5703	3,032.23	73.7724	3,032.23	66.3158	3,032.23	68.1847	3,032.23	65.9946	3,032.23	65.2221	3,032.23	64.1957	3,032.23	65.8954	3,032.23	60.7476	3,032.23	66.9703	3,032.23	62.8174	3,032.23	59.1718	3,032.23	64.5991	3,032.23	65.0706	3,032.23	70.4611	3,032.23	68.1171	3,032.23	69.5798	3,032.23	64.0801	3,032.23	63.8228
3,137.7	84.1818	3,137.7	83.374	3,137.7	84.5747	3,137.7	84.1582	3,137.7	84.196	3,137.7	83.1322	3,137.7	84.1221	3,137.7	82.2601	3,137.7	82.9261	3,137.7	80.8662	3,137.7	80.7798	3,137.7	77.752	3,137.7	79.4404	3,137.7	76.655	3,137.7	76.1213	3,137.7	72.0063	3,137.7	74.6295	3,137.7	67.3413	3,137.7	74.2098	3,137.7	68.55	3,137.7	69.4163	3,137.7	64.8379	3,137.7	63.9949	3,137.7	64.4416	3,137.7	63.1595	3,137.7	59.2124	3,137.7	64.19	3,137.7	64.0665	3,137.7	59.7623	3,137.7	66.6309	3,137.7	65.1566	3,137.7	69.6318	3,137.7	68.1016	3,137.7	69.1592	3,137.7	63.6594	3,137.7	62.9157
3,249.02	84.5959	3,249.02	83.2755	3,249.02	84.4649	3,249.02	83.8559	3,249.02	84.1574	3,249.02	83.2128	3,249.02	84.2091	3,249.02	81.534	3,249.02	83.8728	3,249.02	80.339	3,249.02	80.3785	3,249.02	79.5882	3,249.02	78.8867	3,249.02	74.4124	3,249.02	76.9309	3,249.02	70.8188	3,249.02	74.4969	3,249.02	68.1196	3,249.02	73.5485	3,249.02	64.511	3,249.02	69.894	3,249.02	63.1608	3,249.02	65.9896	3,249.02	60.806	3,249.02	64.3667	3,249.02	60.6956	3,249.02	65.1773	3,249.02	61.6161	3,249.02	63.7422	3,249.02	65.8861	3,249.02	65.1445	3,249.02	68.1275	3,249.02	67.6993	3,249.02	69.1379	3,249.02	64.8484	3,249.02	63.2117
3,363.28	84.5125	3,363.28	83.4021	3,363.28	84.2587	3,363.28	83.9362	3,363.28	83.7434	3,363.28	83.1654	3,363.28	84.2196	3,363.28	81.8132	3,363.28	83.8799	3,363.28	81.1151	3,363.28	80.2865	3,363.28	77.1624	3,363.28	78.4391	3,363.28	71.9161	3,363.28	76.3321	3,363.28	67.4653	3,363.28	74.6258	3,363.28	63.6951	3,363.28	71.4104	3,363.28	64.1592	3,363.28	70.1374	3,363.28	62.5851	3,363.28	65.9994	3,363.28	58.2819	3,363.28	63.581	3,363.28	58.3091	3,363.28	63.806	3,363.28	56.6474	3,363.28	63.5104	3,363.28	64.0292	3,363.28	65.2728	3,363.28	67.8466	3,363.28	67.5695	3,363.28	69.2851	3,363.28	64.7876	3,363.28	63.9081
3,483.4	84.9261	3,483.4	83.1532	3,483.4	84.3034	3,483.4	83.8698	3,483.4	82.9567	3,483.4	82.8796	3,483.4	83.2525	3,483.4	82.093	3,483.4	83.8276	3,483.4	81.0571	3,483.4	79.9758	3,483.4	75.6168	3,483.4	78.4364	3,483.4	71.828	3,483.4	75.578	3,483.4	70.2305	3,483.4	74.0897	3,483.4	69.8533	3,483.4	66.7723	3,483.4	66.8586	3,483.4	67.6762	3,483.4	65.3052	3,483.4	66.0676	3,483.4	61.4369	3,483.4	65.5375	3,483.4	59.2932	3,483.4	62.3695	3,483.4	59.4266	3,483.4	63.3056	3,483.4	63.729	3,483.4	64.1485	3,483.4	68.5428	3,483.4	66.1713	3,483.4	69.4089	3,483.4	64.7418	3,483.4	63.6743
3,606.45	84.5714	3,606.45	83.0065	3,606.45	84.153	3,606.45	83.3158	3,606.45	82.8251	3,606.45	82.6881	3,606.45	82.3562	3,606.45	82.6048	3,606.45	83.1877	3,606.45	79.402	3,606.45	79.333	3,606.45	76.436	3,606.45	77.3991	3,606.45	74.562	3,606.45	75.6193	3,606.45	72.4688	3,606.45	72.9843	3,606.45	68.0896	3,606.45	61.8553	3,606.45	66.7933	3,606.45	64.3292	3,606.45	65.8693	3,606.45	63.9679	3,606.45	62.5582	3,606.45	66.7796	3,606.45	58.996	3,606.45	59.5477	3,606.45	60.0989	3,606.45	62.3183	3,606.45	63.1256	3,606.45	64.9086	3,606.45	68.9955	3,606.45	66.3767	3,606.45	69.4917	3,606.45	65.3536	3,606.45	63.1468
3,732.42	83.9688	3,732.42	82.6213	3,732.42	83.4143	3,732.42	82.7339	3,732.42	82.3581	3,732.42	82.4954	3,732.42	82.3088	3,732.42	81.8026	3,732.42	82.6367	3,732.42	78.2611	3,732.42	78.9077	3,732.42	76.9815	3,732.42	75.7939	3,732.42	75.3722	3,732.42	74.8095	3,732.42	69.0044	3,732.42	69.588	3,732.42	67.3566	3,732.42	64.7587	3,732.42	64.8554	3,732.42	62.8437	3,732.42	62.0642	3,732.42	59.1879	3,732.42	62.3106	3,732.42	65.9311	3,732.42	57.2524	3,732.42	61.6766	3,732.42	58.2936	3,732.42	61.531	3,732.42	62.6331	3,732.42	64.1572	3,732.42	68.957	3,732.42	65.1506	3,732.42	67.7864	3,732.42	64.5511	3,732.42	62.9859
3,864.26	84.1769	3,864.26	82.5532	3,864.26	83.3032	3,864.26	82.3146	3,864.26	81.4002	3,864.26	82.4086	3,864.26	81.9969	3,864.26	80.2056	3,864.26	81.5124	3,864.26	79.0063	3,864.26	78.6594	3,864.26	76.8467	3,864.26	73.6388	3,864.26	71.4697	3,864.26	71.9321	3,864.26	69.6702	3,864.26	71.3484	3,864.26	66.003	3,864.26	66.4818	3,864.26	65.6039	3,864.26	60.8713	3,864.26	62.1089	3,864.26	58.2581	3,864.26	56.0469	3,864.26	64.9758	3,864.26	59.2079	3,864.26	60.5118	3,864.26	55.8952	3,864.26	59.7577	3,864.26	63.2837	3,864.26	63.2385	3,864.26	67.8003	3,864.26	64.0771	3,864.26	67.5082	3,864.26	63.6645	3,864.26	63.5845
3,999.02	84.2892	3,999.02	82.1661	3,999.02	82.9561	3,999.02	82.4241	3,999.02	81.2583	3,999.02	81.7818	3,999.02	81.021	3,999.02	80.4192	3,999.02	80.8294	3,999.02	79.1115	3,999.02	79.0486	3,999.02	75.2637	3,999.02	74.6108	3,999.02	73.878	3,999.02	70.8962	3,999.02	69.8233	3,999.02	68.2882	3,999.02	67.7908	3,999.02	63.0388	3,999.02	65.2052	3,999.02	61.5137	3,999.02	64.3022	3,999.02	59.8549	3,999.02	61.8829	3,999.02	61.3665	3,999.02	60.9151	3,999.02	62.6194	3,999.02	55.709	3,999.02	58.9917	3,999.02	62.621	3,999.02	63.0251	3,999.02	67.7627	3,999.02	64.517	3,999.02	67.7319	3,999.02	65.0905	3,999.02	62.4945
4,139.65	83.8358	4,139.65	82.0063	4,139.65	83.04	4,139.65	82.1032	4,139.65	81.1727	4,139.65	81.2669	4,139.65	81.0581	4,139.65	79.9405	4,139.65	79.5203	4,139.65	78.5669	4,139.65	78.277	4,139.65	75.9242	4,139.65	75.9853	4,139.65	73.8517	4,139.65	72.9506	4,139.65	71.8982	4,139.65	66.1564	4,139.65	67.9099	4,139.65	67.4491	4,139.65	65.0767	4,139.65	62.6719	4,139.65	61.814	4,139.65	59.2185	4,139.65	59.6659	4,139.65	63.0305	4,139.65	58.5243	4,139.65	63.9595	4,139.65	54.7275	4,139.65	54.992	4,139.65	61.9672	4,139.65	63.3883	4,139.65	67.3157	4,139.65	63.0839	4,139.65	66.8857	4,139.65	63.7713	4,139.65	58.6028
4,286.13	84.4743	4,286.13	82.5623	4,286.13	82.8329	4,286.13	81.9538	4,286.13	82.2195	4,286.13	80.4173	4,286.13	80.2441	4,286.13	80.1315	4,286.13	78.9517	4,286.13	76.7207	4,286.13	77.4811	4,286.13	75.8804	4,286.13	76.595	4,286.13	73.7938	4,286.13	72.1612	4,286.13	66.8484	4,286.13	64.9405	4,286.13	65.668	4,286.13	69.5301	4,286.13	61.5469	4,286.13	54.8109	4,286.13	60.4543	4,286.13	53.7488	4,286.13	60.4155	4,286.13	62.4517	4,286.13	55.3191	4,286.13	62.4319	4,286.13	52.0305	4,286.13	56.0819	4,286.13	60.5931	4,286.13	64.2594	4,286.13	66.3268	4,286.13	61.5079	4,286.13	66.3267	4,286.13	63.4044	4,286.13	58.804
4,438.48	83.9954	4,438.48	82.5815	4,438.48	83.0496	4,438.48	82.2507	4,438.48	82.0942	4,438.48	80.5181	4,438.48	80.0538	4,438.48	78.9065	4,438.48	78.4376	4,438.48	77.7338	4,438.48	76.9572	4,438.48	74.6483	4,438.48	74.0484	4,438.48	69.1761	4,438.48	71.7804	4,438.48	68.4514	4,438.48	69.5465	4,438.48	61.4149	4,438.48	66.0624	4,438.48	60.5538	4,438.48	54.2075	4,438.48	61.2994	4,438.48	43.2353	4,438.48	57.5569	4,438.48	62.5067	4,438.48	53.1875	4,438.48	60.72	4,438.48	45.2349	4,438.48	55.9586	4,438.48	58.6175	4,438.48	63.9433	4,438.48	65.6976	4,438.48	60.462	4,438.48	65.1998	4,438.48	62.6673	4,438.48	59.4469
4,593.75	84.2919	4,593.75	83.1089	4,593.75	83.5362	4,593.75	81.7424	4,593.75	82.7786	4,593.75	80.6992	4,593.75	80.5803	4,593.75	79.1409	4,593.75	78.4805	4,593.75	77.6698	4,593.75	77.8056	4,593.75	73.2303	4,593.75	73.0958	4,593.75	70.8671	4,593.75	72.569	4,593.75	66.4698	4,593.75	71.8467	4,593.75	67.369	4,593.75	67.9614	4,593.75	62.7142	4,593.75	53.5649	4,593.75	59.8347	4,593.75	55.8561	4,593.75	58.8722	4,593.75	62.4258	4,593.75	54.2889	4,593.75	57.372	4,593.75	51.0304	4,593.75	59.7961	4,593.75	57.9102	4,593.75	64.4292	4,593.75	65.3682	4,593.75	58.4534	4,593.75	65.2737	4,593.75	64.5633	4,593.75	56.7294
4,757.81	84.2967	4,757.81	83.7067	4,757.81	83.7346	4,757.81	82.2836	4,757.81	83.8044	4,757.81	80.3033	4,757.81	80.944	4,757.81	80.0702	4,757.81	79.1447	4,757.81	77.2126	4,757.81	78.012	4,757.81	73.7069	4,757.81	72.5907	4,757.81	71.1694	4,757.81	71.7865	4,757.81	69.755	4,757.81	72.8818	4,757.81	64.3462	4,757.81	65.0139	4,757.81	62.248	4,757.81	63.5421	4,757.81	60.8679	4,757.81	46.3492	4,757.81	59.5628	4,757.81	61.0113	4,757.81	53.8372	4,757.81	60.236	4,757.81	48.5956	4,757.81	60.5187	4,757.81	57.9217	4,757.81	64.1286	4,757.81	65.544	4,757.81	59.6645	4,757.81	64.8556	4,757.81	63.5716	4,757.81	58.9194
4,924.8	84.6047	4,924.8	83.9452	4,924.8	84.3512	4,924.8	82.6156	4,924.8	83.6979	4,924.8	80.3909	4,924.8	81.4087	4,924.8	80.2392	4,924.8	79.5432	4,924.8	76.007	4,924.8	77.9578	4,924.8	73.3991	4,924.8	72.6887	4,924.8	71.53	4,924.8	72.8399	4,924.8	66.438	4,924.8	70.719	4,924.8	64.3987	4,924.8	65.3701	4,924.8	59.8847	4,924.8	60.0446	4,924.8	60.0043	4,924.8	53.1876	4,924.8	57.5555	4,924.8	58.1375	4,924.8	52.693	4,924.8	58.54	4,924.8	43.7727	4,924.8	56.9754	4,924.8	56.8196	4,924.8	63.9199	4,924.8	65.1261	4,924.8	57.5453	4,924.8	63.5132	4,924.8	64.7049	4,924.8	60.7936
5,097.66	84.6215	5,097.66	84.0913	5,097.66	84.6406	5,097.66	82.6399	5,097.66	84.0261	5,097.66	80.5869	5,097.66	81.6955	5,097.66	79.5055	5,097.66	80.3613	5,097.66	77.0559	5,097.66	78.0703	5,097.66	73.6508	5,097.66	72.8564	5,097.66	69.5951	5,097.66	73.4169	5,097.66	66.4889	5,097.66	69.2177	5,097.66	64.4847	5,097.66	66.8621	5,097.66	61.5064	5,097.66	61.8461	5,097.66	58.7941	5,097.66	54.3239	5,097.66	55.7155	5,097.66	55.1938	5,097.66	54.2212	5,097.66	52.0461	5,097.66	48.7021	5,097.66	58.9423	5,097.66	56.2944	5,097.66	62.5214	5,097.66	64.1202	5,097.66	58.1406	5,097.66	64.6822	5,097.66	64.6669	5,097.66	59.7226
5,279.3	84.3492	5,279.3	84.0526	5,279.3	84.4861	5,279.3	82.32	5,279.3	83.9692	5,279.3	80.9135	5,279.3	81.6715	5,279.3	78.7536	5,279.3	80.3284	5,279.3	76.2793	5,279.3	78.2332	5,279.3	72.0077	5,279.3	74.0774	5,279.3	69.0969	5,279.3	71.7272	5,279.3	67.3632	5,279.3	67.9653	5,279.3	60.7466	5,279.3	65.2034	5,279.3	59.5292	5,279.3	63.9968	5,279.3	56.9615	5,279.3	55.1381	5,279.3	55.2135	5,279.3	40.041	5,279.3	52.3592	5,279.3	55.8111	5,279.3	41.7233	5,279.3	59.6611	5,279.3	55.1769	5,279.3	61.2462	5,279.3	63.5768	5,279.3	61.1509	5,279.3	63.862	5,279.3	64.8134	5,279.3	60.762
5,463.87	85.0966	5,463.87	84.3766	5,463.87	84.7294	5,463.87	82.8788	5,463.87	83.7614	5,463.87	80.976	5,463.87	81.8962	5,463.87	78.9007	5,463.87	79.7103	5,463.87	74.6922	5,463.87	78.8049	5,463.87	72.1396	5,463.87	74.9309	5,463.87	68.3604	5,463.87	71.5304	5,463.87	59.7265	5,463.87	63.7435	5,463.87	60.7402	5,463.87	63.132	5,463.87	55.5238	5,463.87	55.1712	5,463.87	55.5968	5,463.87	50.1294	5,463.87	52.7581	5,463.87	58.1554	5,463.87	52.5818	5,463.87	58.915	5,463.87	47.7605	5,463.87	61.0692	5,463.87	53.1187	5,463.87	61.5537	5,463.87	62.819	5,463.87	60.3795	5,463.87	63.0278	5,463.87	62.9483	5,463.87	60.7682
5,657.23	84.6588	5,657.23	84.2071	5,657.23	84.303	5,657.23	83.4407	5,657.23	83.3555	5,657.23	80.9259	5,657.23	81.7511	5,657.23	78.6229	5,657.23	78.7257	5,657.23	75.4412	5,657.23	78.1113	5,657.23	70.567	5,657.23	74.5835	5,657.23	64.0324	5,657.23	68.6385	5,657.23	62.9087	5,657.23	65.3559	5,657.23	61.0733	5,657.23	63.0624	5,657.23	57.6293	5,657.23	63.3826	5,657.23	57.2553	5,657.23	57.5879	5,657.23	53.2275	5,657.23	57.4112	5,657.23	54.6596	5,657.23	54.6001	5,657.23	51.3463	5,657.23	58.9027	5,657.23	50.9297	5,657.23	58.9686	5,657.23	61.5168	5,657.23	59.4978	5,657.23	62.6636	5,657.23	62.928	5,657.23	59.8507
5,856.45	84.72	5,856.45	84.7119	5,856.45	84.2941	5,856.45	83.5817	5,856.45	83.076	5,856.45	80.8837	5,856.45	81.1916	5,856.45	77.8669	5,856.45	77.9775	5,856.45	74.1426	5,856.45	76.8809	5,856.45	68.821	5,856.45	73.7519	5,856.45	65.1223	5,856.45	67.0869	5,856.45	64.6507	5,856.45	67.3714	5,856.45	58.1622	5,856.45	63.2122	5,856.45	57.8238	5,856.45	54.1653	5,856.45	54.6077	5,856.45	57.1635	5,856.45	55.5932	5,856.45	57.2117	5,856.45	53.6773	5,856.45	53.2878	5,856.45	51.1041	5,856.45	57.9759	5,856.45	50.7474	5,856.45	57.8288	5,856.45	61.2951	5,856.45	60.1034	5,856.45	62.8164	5,856.45	61.4706	5,856.45	58.9354
6,061.52	84.9674	6,061.52	84.7531	6,061.52	84.1638	6,061.52	83.8975	6,061.52	82.4445	6,061.52	80.8936	6,061.52	80.6055	6,061.52	77.5077	6,061.52	77.8261	6,061.52	72.8733	6,061.52	75.771	6,061.52	68.9484	6,061.52	72.3038	6,061.52	66.6245	6,061.52	66.2151	6,061.52	63.6555	6,061.52	68.6404	6,061.52	61.1695	6,061.52	61.6092	6,061.52	57.3597	6,061.52	54.1076	6,061.52	55.7338	6,061.52	56.9261	6,061.52	55.4941	6,061.52	58.814	6,061.52	55.8725	6,061.52	52.8792	6,061.52	54.2734	6,061.52	53.0496	6,061.52	51.7632	6,061.52	57.0326	6,061.52	60.1007	6,061.52	58.6829	6,061.52	62.3645	6,061.52	60.9893	6,061.52	58.4984
6,275.39	85.0326	6,275.39	84.806	6,275.39	84.1258	6,275.39	83.6627	6,275.39	82.2181	6,275.39	80.8834	6,275.39	80.1408	6,275.39	77.3243	6,275.39	77.1752	6,275.39	72.7965	6,275.39	75.8652	6,275.39	70.3776	6,275.39	71.7739	6,275.39	68.1389	6,275.39	64.632	6,275.39	65.4624	6,275.39	67.0973	6,275.39	62.6792	6,275.39	55.8343	6,275.39	58.0182	6,275.39	59.9312	6,275.39	57.0157	6,275.39	54.5412	6,275.39	55.0164	6,275.39	55.4225	6,275.39	55.7788	6,275.39	50.1537	6,275.39	54.6456	6,275.39	49.7249	6,275.39	50.451	6,275.39	57.2317	6,275.39	59.5058	6,275.39	58.4311	6,275.39	63.0375	6,275.39	60.5282	6,275.39	58.2878
6,498.05	84.5692	6,498.05	84.5843	6,498.05	83.9609	6,498.05	83.5025	6,498.05	81.9337	6,498.05	80.6863	6,498.05	80.1455	6,498.05	76.9674	6,498.05	76.3742	6,498.05	73.1537	6,498.05	75.6221	6,498.05	71.5759	6,498.05	72.9288	6,498.05	67.6556	6,498.05	65.5267	6,498.05	65.1507	6,498.05	64.3571	6,498.05	61.18	6,498.05	49.0189	6,498.05	56.5764	6,498.05	59.1498	6,498.05	57.5884	6,498.05	48.0907	6,498.05	56.319	6,498.05	51.7062	6,498.05	56.3576	6,498.05	52.8765	6,498.05	56.3624	6,498.05	52.7433	6,498.05	51.1136	6,498.05	57.212	6,498.05	58.6826	6,498.05	58.0437	6,498.05	62.752	6,498.05	60.4912	6,498.05	58.7864
6,726.56	84.1093	6,726.56	84.2263	6,726.56	83.8133	6,726.56	83.069	6,726.56	82.0221	6,726.56	79.7365	6,726.56	80.2217	6,726.56	76.8102	6,726.56	76.6239	6,726.56	73.6504	6,726.56	75.1922	6,726.56	70.84	6,726.56	72.6962	6,726.56	67.1121	6,726.56	62.7842	6,726.56	65.6254	6,726.56	61.6885	6,726.56	63.6321	6,726.56	55.2916	6,726.56	58.5671	6,726.56	60.3109	6,726.56	56.9457	6,726.56	52.6195	6,726.56	54.6479	6,726.56	52.001	6,726.56	55.5697	6,726.56	49.4634	6,726.56	55.5462	6,726.56	54.2416	6,726.56	51.4863	6,726.56	56.9778	6,726.56	56.9452	6,726.56	58.1125	6,726.56	63.4423	6,726.56	60.1064	6,726.56	56.7651
6,963.87	83.8515	6,963.87	83.7056	6,963.87	83.2327	6,963.87	82.4005	6,963.87	82.0419	6,963.87	79.437	6,963.87	79.9583	6,963.87	76.3927	6,963.87	77.8173	6,963.87	74.5923	6,963.87	74.9992	6,963.87	71.9607	6,963.87	72.1673	6,963.87	69.0044	6,963.87	57.8868	6,963.87	66.8297	6,963.87	65.3083	6,963.87	62.6081	6,963.87	56.5452	6,963.87	59.1028	6,963.87	57.1094	6,963.87	58.3493	6,963.87	56.3778	6,963.87	55.5806	6,963.87	45.6981	6,963.87	55.2312	6,963.87	54.3019	6,963.87	55.1078	6,963.87	52.227	6,963.87	49.1596	6,963.87	57.8526	6,963.87	56.3645	6,963.87	58.4002	6,963.87	62.1599	6,963.87	59.6773	6,963.87	56.6517
7,209.96	83.5591	7,209.96	83.1029	7,209.96	83.1203	7,209.96	82.1097	7,209.96	81.9488	7,209.96	78.9867	7,209.96	80.2443	7,209.96	77.1924	7,209.96	76.6493	7,209.96	75.2205	7,209.96	75.1926	7,209.96	72.7751	7,209.96	70.9383	7,209.96	69.2571	7,209.96	63.3001	7,209.96	65.6891	7,209.96	63.6356	7,209.96	62.5506	7,209.96	53.1827	7,209.96	57.7913	7,209.96	54.845	7,209.96	57.1029	7,209.96	52.3505	7,209.96	54.7031	7,209.96	47.0322	7,209.96	55.7706	7,209.96	56.0384	7,209.96	55.3577	7,209.96	55.8154	7,209.96	51.6932	7,209.96	58.024	7,209.96	55.7995	7,209.96	58.1243	7,209.96	61.6038	7,209.96	58.12	7,209.96	56.2199
7,464.84	83.6692	7,464.84	83.146	7,464.84	83.0669	7,464.84	81.9065	7,464.84	81.8533	7,464.84	79.3376	7,464.84	80.2779	7,464.84	77.5039	7,464.84	77.2196	7,464.84	76.2697	7,464.84	75.6343	7,464.84	72.8351	7,464.84	71.6645	7,464.84	69.0986	7,464.84	68.6835	7,464.84	65.2785	7,464.84	65.7381	7,464.84	61.9188	7,464.84	55.7443	7,464.84	57.4672	7,464.84	49.8335	7,464.84	56.3009	7,464.84	46.1428	7,464.84	54.1502	7,464.84	56.3556	7,464.84	54.6763	7,464.84	57.2439	7,464.84	53.8101	7,464.84	57.3389	7,464.84	50.4311	7,464.84	57.8685	7,464.84	54.8247	7,464.84	57.7308	7,464.84	60.4845	7,464.84	57.8143	7,464.84	55.9324
7,728.52	83.8977	7,728.52	83.4464	7,728.52	83.2756	7,728.52	82.1755	7,728.52	81.7588	7,728.52	79.7044	7,728.52	80.1856	7,728.52	78.2142	7,728.52	77.1217	7,728.52	76.366	7,728.52	75.4224	7,728.52	73.4738	7,728.52	72.8008	7,728.52	68.7918	7,728.52	69.6729	7,728.52	64.8511	7,728.52	65.8431	7,728.52	60.6297	7,728.52	55.989	7,728.52	58.2066	7,728.52	49.6985	7,728.52	56.4218	7,728.52	46.4315	7,728.52	54.6865	7,728.52	55.9186	7,728.52	55.1714	7,728.52	54.9297	7,728.52	56.0394	7,728.52	56.3082	7,728.52	52.1786	7,728.52	57.2845	7,728.52	54.5369	7,728.52	56.3727	7,728.52	59.9555	7,728.52	57.6881	7,728.52	55.9358
8,000.98	84.7052	8,000.98	84.0077	8,000.98	83.6742	8,000.98	82.5794	8,000.98	81.7447	8,000.98	79.8793	8,000.98	80.2618	8,000.98	78.5485	8,000.98	77.0357	8,000.98	76.7451	8,000.98	74.6539	8,000.98	73.1439	8,000.98	73.5125	8,000.98	68.9695	8,000.98	68.3791	8,000.98	65.3075	8,000.98	59.0368	8,000.98	60.2582	8,000.98	55.7591	8,000.98	57.8869	8,000.98	57.0565	8,000.98	56.3524	8,000.98	54.1486	8,000.98	54.5412	8,000.98	55.4594	8,000.98	55.8218	8,000.98	55.5723	8,000.98	54.5955	8,000.98	56.815	8,000.98	51.7458	8,000.98	56.1751	8,000.98	55.3046	8,000.98	56.2553	8,000.98	59.2495	8,000.98	57.5426	8,000.98	57.0116
8,282.23	85.6003	8,282.23	84.6933	8,282.23	84.3908	8,282.23	82.5334	8,282.23	81.6736	8,282.23	79.4541	8,282.23	79.6572	8,282.23	77.984	8,282.23	76.8593	8,282.23	76.478	8,282.23	73.9179	8,282.23	73.2798	8,282.23	72.7322	8,282.23	67.339	8,282.23	65.7734	8,282.23	63.1592	8,282.23	30.8965	8,282.23	58.92	8,282.23	51.6149	8,282.23	55.754	8,282.23	60.6959	8,282.23	54.2723	8,282.23	54.6185	8,282.23	53.3636	8,282.23	47.7734	8,282.23	52.6262	8,282.23	53.2991	8,282.23	53.6769	8,282.23	54.9737	8,282.23	53.1125	8,282.23	56.1819	8,282.23	55.3645	8,282.23	56.111	8,282.23	59.5074	8,282.23	57.2593	8,282.23	58.1863
8,575.2	86.0344	8,575.2	84.902	8,575.2	84.9491	8,575.2	82.154	8,575.2	82.0386	8,575.2	79.2079	8,575.2	79.1839	8,575.2	77.6482	8,575.2	77.2512	8,575.2	76.0056	8,575.2	74.1142	8,575.2	71.6405	8,575.2	72.7514	8,575.2	67.5122	8,575.2	64.6285	8,575.2	63.0213	8,575.2	58.3802	8,575.2	56.8087	8,575.2	55.1334	8,575.2	53.4076	8,575.2	61.3241	8,575.2	52.2938	8,575.2	54.139	8,575.2	50.6785	8,575.2	49.6901	8,575.2	51.1163	8,575.2	50.9098	8,575.2	52.5744	8,575.2	54.9994	8,575.2	52.1643	8,575.2	54.7614	8,575.2	55.7928	8,575.2	55.7815	8,575.2	58.9952	8,575.2	57.1987	8,575.2	57.5576
8,876.95	85.9118	8,876.95	84.7361	8,876.95	85.2223	8,876.95	82.105	8,876.95	82.4319	8,876.95	79.3207	8,876.95	79.3097	8,876.95	77.5955	8,876.95	77.4071	8,876.95	75.559	8,876.95	75.6322	8,876.95	71.1997	8,876.95	72.4208	8,876.95	64.1035	8,876.95	66.9223	8,876.95	60.4625	8,876.95	62.319	8,876.95	57.5551	8,876.95	53.5947	8,876.95	52.5012	8,876.95	59.1183	8,876.95	53.0056	8,876.95	51.4245	8,876.95	46.9692	8,876.95	52.251	8,876.95	49.7765	8,876.95	48.3578	8,876.95	51.8768	8,876.95	52.6431	8,876.95	52.9423	8,876.95	53.8667	8,876.95	53.4018	8,876.95	54.9622	8,876.95	57.9849	8,876.95	55.7273	8,876.95	54.9881
9,190.43	85.194	9,190.43	84.344	9,190.43	84.6922	9,190.43	81.9698	9,190.43	82.3582	9,190.43	79.5	9,190.43	79.2089	9,190.43	77.5237	9,190.43	76.5945	9,190.43	74.6436	9,190.43	74.9176	9,190.43	69.4127	9,190.43	71.7969	9,190.43	64.158	9,190.43	70.4917	9,190.43	59.8427	9,190.43	58.9531	9,190.43	56.9664	9,190.43	51.7313	9,190.43	52.966	9,190.43	52.8714	9,190.43	50.1323	9,190.43	53.3789	9,190.43	46.5965	9,190.43	52.9366	9,190.43	49.4762	9,190.43	39.4774	9,190.43	50.8233	9,190.43	52.3742	9,190.43	52.4787	9,190.43	51.6284	9,190.43	50.7888	9,190.43	53.4719	9,190.43	57.4261	9,190.43	53.1066	9,190.43	54.6721
9,512.7	84.5222	9,512.7	83.795	9,512.7	83.9919	9,512.7	81.7273	9,512.7	81.904	9,512.7	79.398	9,512.7	78.9327	9,512.7	77.6851	9,512.7	75.7117	9,512.7	73.981	9,512.7	73.5176	9,512.7	69.3719	9,512.7	70.6376	9,512.7	65.1975	9,512.7	69.6191	9,512.7	61.7511	9,512.7	58.7208	9,512.7	58.8129	9,512.7	48.4685	9,512.7	54.5256	9,512.7	56.8955	9,512.7	51.0203	9,512.7	54.3212	9,512.7	48.8436	9,512.7	49.6379	9,512.7	51.8215	9,512.7	45.7707	9,512.7	52.9063	9,512.7	51.7741	9,512.7	52.5521	9,512.7	53.4675	9,512.7	49.3708	9,512.7	52.6619	9,512.7	57.5492	9,512.7	53.245	9,512.7	54.8428
9,849.61	82.5385	9,849.61	82.1465	9,849.61	81.8671	9,849.61	80.1625	9,849.61	79.8312	9,849.61	77.7343	9,849.61	76.8476	9,849.61	75.6088	9,849.61	73.434	9,849.61	72.2902	9,849.61	70.5341	9,849.61	66.9591	9,849.61	68.3929	9,849.61	64.1521	9,849.61	64.2249	9,849.61	57.3562	9,849.61	59.8211	9,849.61	55.4198	9,849.61	50.2101	9,849.61	52.2688	9,849.61	59.8282	9,849.61	47.7997	9,849.61	52.7404	9,849.61	48.184	9,849.61	43.9869	9,849.61	49.828	9,849.61	43.8011	9,849.61	49.538	9,849.61	46.7664	9,849.61	49.8117	9,849.61	50.2608	9,849.61	45.0999	9,849.61	49.3385	9,849.61	55.2081	9,849.61	51.0638	9,849.61	49.6356
10,195.3	82.0951	10,195.3	80.8919	10,195.3	81.459	10,195.3	78.6329	10,195.3	79.6259	10,195.3	76.3194	10,195.3	76.9974	10,195.3	73.4896	10,195.3	74.1842	10,195.3	70.2512	10,195.3	71.1175	10,195.3	66.674	10,195.3	67.4388	10,195.3	62.6801	10,195.3	63.7784	10,195.3	57.2608	10,195.3	59.8101	10,195.3	55.0185	10,195.3	42.3079	10,195.3	50.757	10,195.3	59.9164	10,195.3	44.5305	10,195.3	51.9557	10,195.3	47.0608	10,195.3	42.8985	10,195.3	48.1214	10,195.3	38.2397	10,195.3	47.2799	10,195.3	44.9458	10,195.3	44.9985	10,195.3	49.027	10,195.3	35.7024	10,195.3	50.4927	10,195.3	52.2252	10,195.3	49.9315	10,195.3	46.7746
10,555.7	83.5465	10,555.7	82.1476	10,555.7	82.7983	10,555.7	79.4967	10,555.7	80.5892	10,555.7	77.6297	10,555.7	77.7209	10,555.7	74.5527	10,555.7	74.7416	10,555.7	71.2311	10,555.7	72.5466	10,555.7	68.7559	10,555.7	69.8095	10,555.7	64.137	10,555.7	65.8625	10,555.7	61.0554	10,555.7	58.6896	10,555.7	57.1804	10,555.7	51.4109	10,555.7	52.0729	10,555.7	60.9856	10,555.7	46.8748	10,555.7	54.4054	10,555.7	48.7582	10,555.7	38.2878	10,555.7	49.1693	10,555.7	31.3551	10,555.7	48.9819	10,555.7	43.1478	10,555.7	45.5002	10,555.7	46.6032	10,555.7	31.35	10,555.7	51.6254	10,555.7	50.5545	10,555.7	51.0736	10,555.7	49.2184
10,927.7	84.6158	10,927.7	82.8624	10,927.7	83.9282	10,927.7	80.0769	10,927.7	81.5161	10,927.7	78.4925	10,927.7	78.2913	10,927.7	75.1181	10,927.7	74.7545	10,927.7	72.035	10,927.7	72.3757	10,927.7	70.1965	10,927.7	71.4663	10,927.7	65.9802	10,927.7	65.4428	10,927.7	59.6593	10,927.7	62.1141	10,927.7	55.4399	10,927.7	54.0824	10,927.7	50.8163	10,927.7	64.027	10,927.7	45.1844	10,927.7	55.8056	10,927.7	49.3217	10,927.7	40.7036	10,927.7	46.2817	10,927.7	34.8672	10,927.7	46.5849	10,927.7	43.5102	10,927.7	44.4137	10,927.7	44.7843	10,927.7	37.4923	10,927.7	51.2142	10,927.7	48.2093	10,927.7	51.1432	10,927.7	49.8938
11,314.5	85.0284	11,314.5	83.344	11,314.5	84.6724	11,314.5	81.0185	11,314.5	82.2326	11,314.5	79.487	11,314.5	79.1511	11,314.5	75.8049	11,314.5	75.925	11,314.5	73.3575	11,314.5	72.6309	11,314.5	71.2784	11,314.5	71.6232	11,314.5	66.036	11,314.5	63.4259	11,314.5	61.083	11,314.5	63.0981	11,314.5	56.0653	11,314.5	57.2237	11,314.5	51.963	11,314.5	67.4549	11,314.5	48.1025	11,314.5	58.0313	11,314.5	50.6523	11,314.5	41.4305	11,314.5	47.0106	11,314.5	38.5649	11,314.5	43.7483	11,314.5	40.8595	11,314.5	44.8271	11,314.5	44.5576	11,314.5	34.8598	11,314.5	50.7722	11,314.5	46.6822	11,314.5	52.0222	11,314.5	49.1514
11,712.9	84.7139	11,712.9	83.8079	11,712.9	84.3156	11,712.9	81.9115	11,712.9	82.1173	11,712.9	80.0886	11,712.9	79.2528	11,712.9	76.9537	11,712.9	76.4897	11,712.9	74.4326	11,712.9	73.6362	11,712.9	72.0109	11,712.9	70.6288	11,712.9	66.8405	11,712.9	65.1771	11,712.9	60.9857	11,712.9	61.529	11,712.9	55.7758	11,712.9	59.4937	11,712.9	51.8709	11,712.9	69.45	11,712.9	47.264	11,712.9	60.0855	11,712.9	51.5799	11,712.9	42.015	11,712.9	47.6828	11,712.9	38.9386	11,712.9	38.7707	11,712.9	41.3354	11,712.9	43.483	11,712.9	46.9416	11,712.9	33.6893	11,712.9	49.3141	11,712.9	47.2178	11,712.9	52.4907	11,712.9	48.2396
12,126	84.6165	12,126	83.6037	12,126	83.7901	12,126	82.0411	12,126	81.7221	12,126	80.0668	12,126	79.0538	12,126	77.3606	12,126	76.5721	12,126	74.4886	12,126	74.4629	12,126	70.8207	12,126	70.1684	12,126	66.5269	12,126	67.7423	12,126	59.9076	12,126	63.0453	12,126	56.2506	12,126	61.6012	12,126	52.6604	12,126	70.7059	12,126	48.5425	12,126	60.042	12,126	50.4891	12,126	36.6919	12,126	47.6934	12,126	48.4622	12,126	36.9873	12,126	38.1653	12,126	39.202	12,126	45.1985	12,126	29.3676	12,126	47.9565	12,126	43.6601	12,126	52.0323	12,126	48.009
12,553.7	84.2572	12,553.7	82.7065	12,553.7	83.5892	12,553.7	81.4072	12,553.7	81.6302	12,553.7	79.7295	12,553.7	79.1381	12,553.7	77.3685	12,553.7	76.5388	12,553.7	74.9384	12,553.7	73.8946	12,553.7	70.9875	12,553.7	70.5684	12,553.7	65.3737	12,553.7	67.1312	12,553.7	58.9935	12,553.7	61.4805	12,553.7	54.7514	12,553.7	63.4485	12,553.7	51.6173	12,553.7	71.5961	12,553.7	49.1004	12,553.7	59.6785	12,553.7	50.9117	12,553.7	46.8078	12,553.7	46.194	12,553.7	45.7042	12,553.7	39.864	12,553.7	42.2224	12,553.7	34.1181	12,553.7	37.6624	12,553.7	25.9514	12,553.7	48.8191	12,553.7	43.4583	12,553.7	50.7624	12,553.7	48.664
12,996.1	83.6807	12,996.1	82.1222	12,996.1	83.394	12,996.1	81.1472	12,996.1	81.5398	12,996.1	79.7643	12,996.1	79.4385	12,996.1	77.5386	12,996.1	77.021	12,996.1	74.5489	12,996.1	74.6882	12,996.1	69.7236	12,996.1	72.5842	12,996.1	63.8902	12,996.1	65.8139	12,996.1	58.3433	12,996.1	59.6914	12,996.1	53.2654	12,996.1	64.7275	12,996.1	50.6343	12,996.1	71.874	12,996.1	49.0398	12,996.1	60.7593	12,996.1	51.0119	12,996.1	44.7676	12,996.1	46.5755	12,996.1	39.5142	12,996.1	43.2327	12,996.1	42.2219	12,996.1	32.1696	12,996.1	33.7961	12,996.1	32.5662	12,996.1	46.3918	12,996.1	43.4295	12,996.1	47.4781	12,996.1	48.4003
13,453.1	83.0651	13,453.1	82.4039	13,453.1	82.8575	13,453.1	81.642	13,453.1	81.6772	13,453.1	80.2887	13,453.1	79.9872	13,453.1	77.9641	13,453.1	77.1883	13,453.1	74.9246	13,453.1	74.1451	13,453.1	69.6948	13,453.1	72.8967	13,453.1	62.7023	13,453.1	66.0805	13,453.1	57.6908	13,453.1	61.3202	13,453.1	52.6914	13,453.1	67.1677	13,453.1	48.2401	13,453.1	72.9794	13,453.1	44.3065	13,453.1	61.1734	13,453.1	48.5409	13,453.1	36.5055	13,453.1	46.7193	13,453.1	36.2887	13,453.1	43.4575	13,453.1	38.3961	13,453.1	40.2994	13,453.1	39.4077	13,453.1	35.3134	13,453.1	42.2009	13,453.1	41.9644	13,453.1	44.6759	13,453.1	47.0882
13,927.7	82.4372	13,927.7	82.2675	13,927.7	82.3748	13,927.7	82.3858	13,927.7	81.9985	13,927.7	81.3162	13,927.7	80.2655	13,927.7	78.7682	13,927.7	77.702	13,927.7	75.237	13,927.7	75.1721	13,927.7	70.2401	13,927.7	70.7907	13,927.7	63.2183	13,927.7	66.7889	13,927.7	56.5979	13,927.7	60.0211	13,927.7	51.549	13,927.7	67.6541	13,927.7	48.9164	13,927.7	74.2975	13,927.7	40.2895	13,927.7	62.7105	13,927.7	40.0715	13,927.7	46.5936	13,927.7	42.9818	13,927.7	42.8486	13,927.7	44.8189	13,927.7	38.5597	13,927.7	41.7534	13,927.7	38.5936	13,927.7	36.1918	13,927.7	35.1149	13,927.7	36.2919	13,927.7	44.5773	13,927.7	44.9755
14,419.9	82.3545	14,419.9	82.3057	14,419.9	82.5934	14,419.9	83.3989	14,419.9	82.4756	14,419.9	82.6683	14,419.9	81.3475	14,419.9	79.9563	14,419.9	78.7726	14,419.9	76.1772	14,419.9	76.5795	14,419.9	70.5964	14,419.9	71.0605	14,419.9	65.0568	14,419.9	67.0843	14,419.9	57.4485	14,419.9	59.8903	14,419.9	52.8334	14,419.9	67.9592	14,419.9	50.0629	14,419.9	75.5648	14,419.9	42.3814	14,419.9	63.4024	14,419.9	40.363	14,419.9	46.3362	14,419.9	41.2642	14,419.9	39.9791	14,419.9	44.6303	14,419.9	31.3695	14,419.9	39.9644	14,419.9	32.4112	14,419.9	28.113	14,419.9	41.8617	14,419.9	39.063	14,419.9	42.5242	14,419.9	44.4852
14,929.7	81.0198	14,929.7	81.4231	14,929.7	81.8173	14,929.7	83.007	14,929.7	81.9627	14,929.7	82.3518	14,929.7	81.0394	14,929.7	79.5614	14,929.7	78.9593	14,929.7	75.5678	14,929.7	75.9692	14,929.7	70.1916	14,929.7	72.3049	14,929.7	63.8969	14,929.7	66.7159	14,929.7	58.2219	14,929.7	60.5464	14,929.7	54.3125	14,929.7	68.165	14,929.7	50.655	14,929.7	75.8508	14,929.7	40.9456	14,929.7	62.4228	14,929.7	40.5138	14,929.7	44.719	14,929.7	38.6335	14,929.7	32.7222	14,929.7	43.7762	14,929.7	38.3908	14,929.7	39.0788	14,929.7	33.5724	14,929.7	25.8345	14,929.7	37.9026	14,929.7	40.1841	14,929.7	36.4891	14,929.7	42.9197
15,454.1	78.2254	15,454.1	79.8244	15,454.1	79.345	15,454.1	81.6942	15,454.1	80.7862	15,454.1	80.5124	15,454.1	80.2262	15,454.1	77.8529	15,454.1	78.0559	15,454.1	73.0356	15,454.1	74.7921	15,454.1	68.313	15,454.1	70.9001	15,454.1	62.9634	15,454.1	65.0396	15,454.1	56.3061	15,454.1	55.2175	15,454.1	50.8221	15,454.1	67.1387	15,454.1	48.1281	15,454.1	74.0982	15,454.1	38.0561	15,454.1	60.2588	15,454.1	38.283	15,454.1	37.7819	15,454.1	37.2262	15,454.1	33.047	15,454.1	41.2583	15,454.1	33.1665	15,454.1	37.3491	15,454.1	35.441	15,454.1	30.8613	15,454.1	28.4223	15,454.1	34.488	15,454.1	34.9242	15,454.1	37.6545
15,999	84.0299	15,999	84.3476	15,999	83.4826	15,999	83.6192	15,999	82.0594	15,999	80.9847	15,999	79.1421	15,999	77.0857	15,999	75.1931	15,999	71.3237	15,999	70.8281	15,999	65.7172	15,999	66.1332	15,999	61.0624	15,999	58.1147	15,999	54.2979	15,999	47.924	15,999	50.048	15,999	64.4333	15,999	45.8671	15,999	72.7157	15,999	35.5808	15,999	59.3376	15,999	35.8415	15,999	43.5876	15,999	37.1299	15,999	36.1647	15,999	38.3901	15,999	31.3955	15,999	32.8167	15,999	31.0628	15,999	31.3783	15,999	32.3405	15,999	38.827	15,999	36.0012	15,999	41.4197
16,564.5	81.6776	16,564.5	81.67	16,564.5	81.4317	16,564.5	81.1125	16,564.5	80.2194	16,564.5	77.6978	16,564.5	77.5602	16,564.5	73.985	16,564.5	73.4437	16,564.5	68.6204	16,564.5	68.9429	16,564.5	63.4765	16,564.5	64.6593	16,564.5	59.3174	16,564.5	58.5103	16,564.5	52.7937	16,564.5	52.2955	16,564.5	44.9154	16,564.5	63.0725	16,564.5	43.5455	16,564.5	71.6288	16,564.5	36.271	16,564.5	56.8525	16,564.5	34.6521	16,564.5	42.3018	16,564.5	31.4328	16,564.5	32.9152	16,564.5	27.5813	16,564.5	29.811	16,564.5	22.8097	16,564.5	36.4635	16,564.5	35.8238	16,564.5	30.7991	16,564.5	30.2006	16,564.5	23.3312	16,564.5	41.0273
17,147.5	78.4532	17,147.5	78.7026	17,147.5	78.5886	17,147.5	78.5515	17,147.5	77.9561	17,147.5	75.5186	17,147.5	75.1487	17,147.5	72.4101	17,147.5	71.2261	17,147.5	66.6318	17,147.5	67.0832	17,147.5	60.5037	17,147.5	62.1369	17,147.5	56.6061	17,147.5	59.1284	17,147.5	49.346	17,147.5	46.3916	17,147.5	42.4165	17,147.5	58.8324	17,147.5	37.9756	17,147.5	68.2679	17,147.5	32.8615	17,147.5	53.5915	17,147.5	25.2025	17,147.5	40.4828	17,147.5	27.4425	17,147.5	33.2788	17,147.5	32.2416	17,147.5	30.3617	17,147.5	33.4654	17,147.5	27.6296	17,147.5	26.6998	17,147.5	20.4805	17,147.5	28.9274	17,147.5	31.3804	17,147.5	39.5322
17,753.9	79.9501	17,753.9	78.8868	17,753.9	79.7615	17,753.9	76.485	17,753.9	77.0797	17,753.9	72.2075	17,753.9	71.611	17,753.9	67.9318	17,753.9	65.5131	17,753.9	59.3979	17,753.9	60.2382	17,753.9	53.4373	17,753.9	53.454	17,753.9	48.5617	17,753.9	48.7277	17,753.9	42.1086	17,753.9	44.1323	17,753.9	33.3647	17,753.9	53.4736	17,753.9	32.5024	17,753.9	64.4728	17,753.9	24.2423	17,753.9	49.8042	17,753.9	24.417	17,753.9	39.2423	17,753.9	27.7994	17,753.9	31.7952	17,753.9	31.2848	17,753.9	25.5069	17,753.9	31.75	17,753.9	28.1147	17,753.9	21.281	17,753.9	21.2064	17,753.9	27.7827	17,753.9	30.2886	17,753.9	37.2676
18,377.9	75.6973	18,377.9	73.6768	18,377.9	77.3065	18,377.9	71.8003	18,377.9	76.1399	18,377.9	68.3438	18,377.9	73.1173	18,377.9	63.6306	18,377.9	69.0788	18,377.9	58.0516	18,377.9	64.9345	18,377.9	51.4201	18,377.9	60.2052	18,377.9	36.0278	18,377.9	56.3122	18,377.9	35.8835	18,377.9	52.515	18,377.9	31.1246	18,377.9	55.2991	18,377.9	24.2498	18,377.9	65.2803	18,377.9	22.9629	18,377.9	48.3695	18,377.9	27.2391	18,377.9	40.2784	18,377.9	24.8231	18,377.9	29.3149	18,377.9	14.0343	18,377.9	23.2797	18,377.9	17.2427	18,377.9	27.0112	18,377.9	15.0041	18,377.9	20.7582	18,377.9	25.659	18,377.9	25.9976	18,377.9	30.4334
19,028.3	75.3631	19,028.3	74.6936	19,028.3	75.8947	19,028.3	71.4835	19,028.3	74.8624	19,028.3	68.2181	19,028.3	71.8941	19,028.3	61.7802	19,028.3	67.3788	19,028.3	57.1495	19,028.3	62.5398	19,028.3	48.21	19,028.3	57.5654	19,028.3	43.5359	19,028.3	52.3547	19,028.3	38.6133	19,028.3	49.1877	19,028.3	32.9711	19,028.3	51.173	19,028.3	28.1028	19,028.3	62.3702	19,028.3	26.6389	19,028.3	47.0958	19,028.3	23.4261	19,028.3	38.6027	19,028.3	21.7132	19,028.3	31.1105	19,028.3	32.1597	19,028.3	17.8601	19,028.3	24.3749	19,028.3	25.4907	19,028.3	27.018	19,028.3	24.8531	19,028.3	9.59643	19,028.3	15.7774	19,028.3	23.9399
19,699.2	62.8621	19,699.2	63.912	19,699.2	57.0244	19,699.2	62.7287	19,699.2	58.1782	19,699.2	58.9554	19,699.2	59.0255	19,699.2	53.175	19,699.2	57.4446	19,699.2	46.3402	19,699.2	53.5277	19,699.2	42.6422	19,699.2	48.3092	19,699.2	38.5711	19,699.2	41.2629	19,699.2	30.4561	19,699.2	36.1238	19,699.2	23.0324	19,699.2	32.6432	19,699.2	19.0021	19,699.2	45.3451	19,699.2	20.5054	19,699.2	33.5184	19,699.2	15.5247	19,699.2	24.3955	19,699.2	11.8411	19,699.2	20.5729	19,699.2	20.5596	19,699.2	15.7541	19,699.2	17.5639	19,699.2	3.92893	19,699.2	17.3203	19,699.2	15.7937	19,699.2	18.6588	19,699.2	9.18883	19,699.2	23.9105
19,998	68.4778	19,998	66.1392	19,998	66.4208	19,998	63.658	19,998	58.3388	19,998	58.8217	19,998	45.5727	19,998	54.1717	19,998	50.4312	19,998	45.2356	19,998	49.9022	19,998	42.5586	19,998	41.9162	19,998	33.5415	19,998	37.3795	19,998	14.2875	19,998	20.7694	19,998	19.4768	19,998	37.8377	19,998	30.2399	19,998	48.2282	19,998	28.4863	19,998	28.2382	19,998	12.744	19,998	8.77864	19,998	23.3532	19,998	32.5894	19,998	17.8057	19,998	24.4547	19,998	11.2998	19,998	20.7206	19,998	21.2597	19,998	30.0224	19,998	15.79	19,998	21.525	19,998	19.5037
