"SPL Horizontal"																																																																							
"On-Axis"		"10°"		"-10°"		"20°"		"-20°"		"30°"		"-30°"		"40°"		"-40°"		"50°"		"-50°"		"60°"		"-60°"		"70°"		"-70°"		"80°"		"-80°"		"90°"		"-90°"		"100°"		"-100°"		"110°"		"-110°"		"120°"		"-120°"		"130°"		"-130°"		"140°"		"-140°"		"150°"		"-150°"		"160°"		"-160°"		"170°"		"-170°"		"180°"	
"Frequency [Hz]"	"Sound Pessure Level [dB]  / [2.83V 1m] "	"Frequency [Hz]"	"Sound Pessure Level [dB]  / [2.83V 1m] "	"Frequency [Hz]"	"Sound Pessure Level [dB]  / [2.83V 1m] "	"Frequency [Hz]"	"Sound Pessure Level [dB]  / [2.83V 1m] "	"Frequency [Hz]"	"Sound Pessure Level [dB]  / [2.83V 1m] "	"Frequency [Hz]"	"Sound Pessure Level [dB]  / [2.83V 1m] "	"Frequency [Hz]"	"Sound Pessure Level [dB]  / [2.83V 1m] "	"Frequency [Hz]"	"Sound Pessure Level [dB]  / [2.83V 1m] "	"Frequency [Hz]"	"Sound Pessure Level [dB]  / [2.83V 1m] "	"Frequency [Hz]"	"Sound Pessure Level [dB]  / [2.83V 1m] "	"Frequency [Hz]"	"Sound Pessure Level [dB]  / [2.83V 1m] "	"Frequency [Hz]"	"Sound Pessure Level [dB]  / [2.83V 1m] "	"Frequency [Hz]"	"Sound Pessure Level [dB]  / [2.83V 1m] "	"Frequency [Hz]"	"Sound Pessure Level [dB]  / [2.83V 1m] "	"Frequency [Hz]"	"Sound Pessure Level [dB]  / [2.83V 1m] "	"Frequency [Hz]"	"Sound Pessure Level [dB]  / [2.83V 1m] "	"Frequency [Hz]"	"Sound Pessure Level [dB]  / [2.83V 1m] "	"Frequency [Hz]"	"Sound Pessure Level [dB]  / [2.83V 1m] "	"Frequency [Hz]"	"Sound Pessure Level [dB]  / [2.83V 1m] "	"Frequency [Hz]"	"Sound Pessure Level [dB]  / [2.83V 1m] "	"Frequency [Hz]"	"Sound Pessure Level [dB]  / [2.83V 1m] "	"Frequency [Hz]"	"Sound Pessure Level [dB]  / [2.83V 1m] "	"Frequency [Hz]"	"Sound Pessure Level [dB]  / [2.83V 1m] "	"Frequency [Hz]"	"Sound Pessure Level [dB]  / [2.83V 1m] "	"Frequency [Hz]"	"Sound Pessure Level [dB]  / [2.83V 1m] "	"Frequency [Hz]"	"Sound Pessure Level [dB]  / [2.83V 1m] "	"Frequency [Hz]"	"Sound Pessure Level [dB]  / [2.83V 1m] "	"Frequency [Hz]"	"Sound Pessure Level [dB]  / [2.83V 1m] "	"Frequency [Hz]"	"Sound Pessure Level [dB]  / [2.83V 1m] "	"Frequency [Hz]"	"Sound Pessure Level [dB]  / [2.83V 1m] "	"Frequency [Hz]"	"Sound Pessure Level [dB]  / [2.83V 1m] "	"Frequency [Hz]"	"Sound Pessure Level [dB]  / [2.83V 1m] "	"Frequency [Hz]"	"Sound Pessure Level [dB]  / [2.83V 1m] "	"Frequency [Hz]"	"Sound Pessure Level [dB]  / [2.83V 1m] "	"Frequency [Hz]"	"Sound Pessure Level [dB]  / [2.83V 1m] "	"Frequency [Hz]"	"Sound Pessure Level [dB]  / [2.83V 1m] "
20.5078	68.1264	20.5078	68.1072	20.5078	68.1171	20.5078	68.0598	20.5078	68.0793	20.5078	67.9849	20.5078	68.0133	20.5078	67.8835	20.5078	67.9198	20.5078	67.7572	20.5078	67.8001	20.5078	67.6081	20.5078	67.6561	20.5078	67.4391	20.5078	67.4905	20.5078	67.2538	20.5078	67.3068	20.5078	67.0572	20.5078	67.1098	20.5078	66.8549	20.5078	66.9053	20.5078	66.6536	20.5078	66.7002	20.5078	66.4606	20.5078	66.5021	20.5078	66.2832	20.5078	66.3186	20.5078	66.1285	20.5078	66.1571	20.5078	66.0025	20.5078	66.024	20.5078	65.9101	20.5078	65.9244	20.5078	65.8547	20.5078	65.8619	20.5078	65.8384
23.4375	68.7558	23.4375	68.7151	23.4375	68.7397	23.4375	68.6176	23.4375	68.6665	23.4375	68.4629	23.4375	68.5359	23.4375	68.2507	23.4375	68.3469	23.4375	67.9807	23.4375	68.0991	23.4375	67.6532	23.4375	67.792	23.4375	67.2693	23.4375	67.4263	23.4375	66.8322	23.4375	67.0041	23.4375	66.3476	23.4375	66.5303	23.4375	65.8253	23.4375	66.0135	23.4375	65.2801	23.4375	65.4674	23.4375	64.7327	23.4375	64.9119	23.4375	64.2089	23.4375	64.3723	23.4375	63.7379	23.4375	63.8779	23.4375	63.3474	23.4375	63.4577	23.4375	63.0602	23.4375	63.1361	23.4375	62.891	23.4375	62.9295	23.4375	62.8469
26.3672	69.0205	26.3672	68.9665	26.3672	68.9987	26.3672	68.8361	26.3672	68.9008	26.3672	68.6274	26.3672	68.7254	26.3672	68.3377	26.3672	68.47	26.3672	67.9633	26.3672	68.1311	26.3672	67.5002	26.3672	67.7046	26.3672	66.9439	26.3672	67.1862	26.3672	66.2908	26.3672	66.572	26.3672	65.5398	26.3672	65.8599	26.3672	64.6943	26.3672	65.0523	26.3672	63.7665	26.3672	64.1588	26.3672	62.7828	26.3672	63.2009	26.3672	61.789	26.3672	62.217	26.3672	60.8527	26.3672	61.2643	26.3672	60.0545	26.3672	60.4139	26.3672	59.4682	26.3672	59.7358	26.3672	59.1385	26.3672	59.2814	26.3672	59.078
29.2969	68.2745	29.2969	68.1992	29.2969	68.2426	29.2969	68.0151	29.2969	68.1026	29.2969	67.7172	29.2969	67.8507	29.2969	67.2977	29.2969	67.4797	29.2969	66.7446	29.2969	66.9789	29.2969	66.0415	29.2969	66.3332	29.2969	65.1658	29.2969	65.5215	29.2969	64.0866	29.2969	64.5156	29.2969	62.7609	29.2969	63.2763	29.2969	61.1273	29.2969	61.7483	29.2969	59.0939	29.2969	59.8506	29.2969	56.5129	29.2969	57.4572	29.2969	53.1215	29.2969	54.353	29.2969	48.38	29.2969	50.1239	29.2969	41.1178	29.2969	43.8878	29.2969	36.9646	29.2969	37.0149	29.2969	41.4334	29.2969	40.5821	29.2969	42.5822
32.2266	68.402	32.2266	68.3432	32.2266	68.3677	32.2266	68.1912	32.2266	68.2399	32.2266	67.9455	32.2266	68.0175	32.2266	67.6061	32.2266	67.6996	32.2266	67.1745	32.2266	67.2865	32.2266	66.6567	32.2266	66.7813	32.2266	66.0665	32.2266	66.1943	32.2266	65.4322	32.2266	65.5483	32.2266	64.8028	32.2266	64.8866	32.2266	64.2515	32.2266	64.279	32.2266	63.8631	32.2266	63.8157	32.2266	63.7009	32.2266	63.5781	32.2266	63.768	32.2266	63.5923	32.2266	63.9995	32.2266	63.8078	32.2266	64.2961	32.2266	64.1239	32.2266	64.5639	32.2266	64.4368	32.2266	64.7355	32.2266	64.6687	32.2266	64.7738
35.1563	71.2922	35.1563	71.2652	35.1563	71.2853	35.1563	71.2056	35.1563	71.2449	35.1563	71.1162	35.1563	71.1733	35.1563	71.0025	35.1563	71.0745	35.1563	70.8721	35.1563	70.9552	35.1563	70.7353	35.1563	70.8244	35.1563	70.6054	35.1563	70.6942	35.1563	70.4973	35.1563	70.5788	35.1563	70.4263	35.1563	70.4937	35.1563	70.4048	35.1563	70.4526	35.1563	70.4388	35.1563	70.4645	35.1563	70.5255	35.1563	70.53	35.1563	70.6527	35.1563	70.6404	35.1563	70.8007	35.1563	70.7782	35.1563	70.9462	35.1563	70.921	35.1563	71.0666	35.1563	71.0455	35.1563	71.1437	35.1563	71.1318	35.1563	71.1665
38.0859	74.3486	38.0859	74.3399	38.0859	74.3506	38.0859	74.3255	38.0859	74.3461	38.0859	74.3068	38.0859	74.3357	38.0859	74.2863	38.0859	74.321	38.0859	74.2671	38.0859	74.3043	38.0859	74.2528	38.0859	74.2889	38.0859	74.2475	38.0859	74.2786	38.0859	74.2555	38.0859	74.2778	38.0859	74.28	38.0859	74.2908	38.0859	74.3234	38.0859	74.3211	38.0859	74.3855	38.0859	74.3703	38.0859	74.4635	38.0859	74.4375	38.0859	74.5516	38.0859	74.5187	38.0859	74.6417	38.0859	74.6067	38.0859	74.724	38.0859	74.6921	38.0859	74.789	38.0859	74.7648	38.0859	74.8287	38.0859	74.8156	38.0859	74.8379
41.0156	79.5421	41.0156	79.546	41.0156	79.5431	41.0156	79.5548	41.0156	79.5489	41.0156	79.5686	41.0156	79.5596	41.0156	79.5876	41.0156	79.5753	41.0156	79.6119	41.0156	79.5962	41.0156	79.642	41.0156	79.6225	41.0156	79.6779	41.0156	79.6547	41.0156	79.7201	41.0156	79.693	41.0156	79.7684	41.0156	79.7377	41.0156	79.8225	41.0156	79.7887	41.0156	79.8813	41.0156	79.8456	41.0156	79.9431	41.0156	79.9068	41.0156	80.005	41.0156	79.9699	41.0156	80.0633	41.0156	80.0316	41.0156	80.1139	41.0156	80.0877	41.0156	80.1523	41.0156	80.1336	41.0156	80.1749	41.0156	80.1652	41.0156	80.1794
43.9453	80.9767	43.9453	80.987	43.9453	80.9713	43.9453	81.0021	43.9453	80.9709	43.9453	81.0217	43.9453	80.9757	43.9453	81.0452	43.9453	80.9854	43.9453	81.0723	43.9453	80.9998	43.9453	81.1023	43.9453	81.0187	43.9453	81.1347	43.9453	81.0419	43.9453	81.1691	43.9453	81.0693	43.9453	81.205	43.9453	81.1005	43.9453	81.2416	43.9453	81.1355	43.9453	81.2784	43.9453	81.1738	43.9453	81.3143	43.9453	81.2147	43.9453	81.3478	43.9453	81.257	43.9453	81.3773	43.9453	81.299	43.9453	81.4006	43.9453	81.3384	43.9453	81.4158	43.9453	81.3725	43.9453	81.421	43.9453	81.3988	43.9453	81.4153
46.875	82.2002	46.875	82.2106	46.875	82.1946	46.875	82.2254	46.875	82.1937	46.875	82.2442	46.875	82.1975	46.875	82.2664	46.875	82.2055	46.875	82.2911	46.875	82.2174	46.875	82.3176	46.875	82.2326	46.875	82.3449	46.875	82.2507	46.875	82.3721	46.875	82.271	46.875	82.3985	46.875	82.2932	46.875	82.4234	46.875	82.3169	46.875	82.4462	46.875	82.3419	46.875	82.4664	46.875	82.3678	46.875	82.4833	46.875	82.3941	46.875	82.4965	46.875	82.4201	46.875	82.5053	46.875	82.4448	46.875	82.5089	46.875	82.4669	46.875	82.5068	46.875	82.4854	46.875	82.4989
49.8047	83.1913	49.8047	83.1967	49.8047	83.1896	49.8047	83.2057	49.8047	83.1918	49.8047	83.2179	49.8047	83.1973	49.8047	83.2328	49.8047	83.2058	49.8047	83.2494	49.8047	83.2167	49.8047	83.267	49.8047	83.2292	49.8047	83.2846	49.8047	83.2425	49.8047	83.3012	49.8047	83.256	49.8047	83.3163	49.8047	83.269	49.8047	83.3291	49.8047	83.2811	49.8047	83.3394	49.8047	83.2923	49.8047	83.3469	49.8047	83.3023	49.8047	83.3519	49.8047	83.3115	49.8047	83.3545	49.8047	83.3198	49.8047	83.355	49.8047	83.3276	49.8047	83.3537	49.8047	83.3347	49.8047	83.3508	49.8047	83.341	49.8047	83.3465
52.7344	84.0206	52.7344	84.0258	52.7344	84.0179	52.7344	84.0333	52.7344	84.0176	52.7344	84.0427	52.7344	84.0195	52.7344	84.0535	52.7344	84.0231	52.7344	84.0648	52.7344	84.0278	52.7344	84.0758	52.7344	84.033	52.7344	84.0856	52.7344	84.0378	52.7344	84.0933	52.7344	84.0417	52.7344	84.0982	52.7344	84.0441	52.7344	84.0998	52.7344	84.0447	52.7344	84.098	52.7344	84.0437	52.7344	84.0929	52.7344	84.0412	52.7344	84.0852	52.7344	84.0381	52.7344	84.0757	52.7344	84.035	52.7344	84.0653	52.7344	84.033	52.7344	84.0551	52.7344	84.0327	52.7344	84.0462	52.7344	84.0347	52.7344	84.0392
55.6641	84.6927	55.6641	84.7	55.6641	84.6867	55.6641	84.7085	55.6641	84.6821	55.6641	84.7178	55.6641	84.6786	55.6641	84.7275	55.6641	84.6758	55.6641	84.7367	55.6641	84.6731	55.6641	84.7445	55.6641	84.6701	55.6641	84.75	55.6641	84.6661	55.6641	84.7522	55.6641	84.6606	55.6641	84.7504	55.6641	84.6533	55.6641	84.744	55.6641	84.6442	55.6641	84.733	55.6641	84.6337	55.6641	84.7176	55.6641	84.6224	55.6641	84.6988	55.6641	84.6115	55.6641	84.6777	55.6641	84.6022	55.6641	84.6561	55.6641	84.5958	55.6641	84.6357	55.6641	84.5937	55.6641	84.6182	55.6641	84.5966	55.6641	84.6048
58.5938	85.2677	58.5938	85.2671	58.5938	85.2689	58.5938	85.2673	58.5938	85.2705	58.5938	85.2682	58.5938	85.2721	58.5938	85.2695	58.5938	85.2732	58.5938	85.2707	58.5938	85.2732	58.5938	85.271	58.5938	85.2712	58.5938	85.2699	58.5938	85.2668	58.5938	85.2664	58.5938	85.2592	58.5938	85.2598	58.5938	85.2483	58.5938	85.2496	58.5938	85.2339	58.5938	85.2357	58.5938	85.2165	58.5938	85.2185	58.5938	85.197	58.5938	85.1989	58.5938	85.1767	58.5938	85.1782	58.5938	85.1572	58.5938	85.1583	58.5938	85.1404	58.5938	85.1411	58.5938	85.1281	58.5938	85.1284	58.5938	85.1216	58.5938	85.1217
61.5234	85.8137	61.5234	85.8085	61.5234	85.8185	61.5234	85.803	61.5234	85.8226	61.5234	85.7973	61.5234	85.8256	61.5234	85.7913	61.5234	85.8268	61.5234	85.7847	61.5234	85.8259	61.5234	85.7771	61.5234	85.8219	61.5234	85.7679	61.5234	85.8145	61.5234	85.7567	61.5234	85.803	61.5234	85.7428	61.5234	85.7871	61.5234	85.7262	61.5234	85.7669	61.5234	85.7068	61.5234	85.7428	61.5234	85.6852	61.5234	85.7158	61.5234	85.6625	61.5234	85.6874	61.5234	85.6402	61.5234	85.6596	61.5234	85.6204	61.5234	85.6344	61.5234	85.6049	61.5234	85.6139	61.5234	85.5956	61.5234	85.6	61.5234	85.5938
64.4531	86.5735	64.4531	86.5658	64.4531	86.5809	64.4531	86.558	64.4531	86.5877	64.4531	86.5502	64.4531	86.5932	64.4531	86.5424	64.4531	86.597	64.4531	86.5341	64.4531	86.5983	64.4531	86.525	64.4531	86.5963	64.4531	86.5145	64.4531	86.5903	64.4531	86.502	64.4531	86.5797	64.4531	86.4869	64.4531	86.5641	64.4531	86.469	64.4531	86.5433	64.4531	86.4483	64.4531	86.5178	64.4531	86.4256	64.4531	86.4884	64.4531	86.402	64.4531	86.4566	64.4531	86.3794	64.4531	86.4246	64.4531	86.3598	64.4531	86.3946	64.4531	86.3455	64.4531	86.3692	64.4531	86.3385	64.4531	86.3505	64.4531	86.3401
67.3828	86.8939	67.3828	86.8803	67.3828	86.9063	67.3828	86.8656	67.3828	86.9168	67.3828	86.8503	67.3828	86.9251	67.3828	86.8344	67.3828	86.9304	67.3828	86.818	67.3828	86.9321	67.3828	86.8008	67.3828	86.9296	67.3828	86.7827	67.3828	86.9222	67.3828	86.7634	67.3828	86.9092	67.3828	86.7426	67.3828	86.8903	67.3828	86.7203	67.3828	86.8655	67.3828	86.6967	67.3828	86.8351	67.3828	86.6726	67.3828	86.8	67.3828	86.6492	67.3828	86.7619	67.3828	86.6284	67.3828	86.723	67.3828	86.612	67.3828	86.6857	67.3828	86.6024	67.3828	86.6528	67.3828	86.601	67.3828	86.6267	67.3828	86.6091
70.3125	87.2493	70.3125	87.2301	70.3125	87.2656	70.3125	87.2086	70.3125	87.2786	70.3125	87.185	70.3125	87.2877	70.3125	87.1598	70.3125	87.2926	70.3125	87.1334	70.3125	87.2926	70.3125	87.106	70.3125	87.2873	70.3125	87.0777	70.3125	87.276	70.3125	87.0489	70.3125	87.2584	70.3125	87.0195	70.3125	87.2341	70.3125	86.9901	70.3125	87.2032	70.3125	86.9612	70.3125	87.1662	70.3125	86.9336	70.3125	87.1241	70.3125	86.9088	70.3125	87.0785	70.3125	86.8885	70.3125	87.0318	70.3125	86.8745	70.3125	86.9866	70.3125	86.8688	70.3125	86.9458	70.3125	86.8728	70.3125	86.912	70.3125	86.8873
73.2422	87.6004	73.2422	87.5765	73.2422	87.6197	73.2422	87.5483	73.2422	87.634	73.2422	87.5162	73.2422	87.643	73.2422	87.4807	73.2422	87.6464	73.2422	87.4424	73.2422	87.6439	73.2422	87.4017	73.2422	87.6349	73.2422	87.3595	73.2422	87.619	73.2422	87.3162	73.2422	87.5958	73.2422	87.2728	73.2422	87.5649	73.2422	87.2302	73.2422	87.5264	73.2422	87.1897	73.2422	87.4805	73.2422	87.1528	73.2422	87.4283	73.2422	87.1215	73.2422	87.3715	73.2422	87.0979	73.2422	87.3124	73.2422	87.0842	73.2422	87.2542	73.2422	87.0821	73.2422	87.2	73.2422	87.093	73.2422	87.1534	73.2422	87.1171
76.1719	87.9382	76.1719	87.9224	76.1719	87.9485	76.1719	87.9011	76.1719	87.9532	76.1719	87.8745	76.1719	87.9523	76.1719	87.8428	76.1719	87.9459	76.1719	87.8065	76.1719	87.934	76.1719	87.7661	76.1719	87.9163	76.1719	87.722	76.1719	87.8928	76.1719	87.6751	76.1719	87.8632	76.1719	87.6263	76.1719	87.8273	76.1719	87.5767	76.1719	87.7851	76.1719	87.5279	76.1719	87.7371	76.1719	87.4818	76.1719	87.684	76.1719	87.4408	76.1719	87.6276	76.1719	87.4073	76.1719	87.5701	76.1719	87.3839	76.1719	87.5146	76.1719	87.3729	76.1719	87.4644	76.1719	87.3756	76.1719	87.4227	76.1719	87.3925
79.1016	88.1114	79.1016	88.1039	79.1016	88.1127	79.1016	88.0903	79.1016	88.1078	79.1016	88.0707	79.1016	88.0971	79.1016	88.0454	79.1016	88.0807	79.1016	88.0146	79.1016	88.0588	79.1016	87.9788	79.1016	88.0318	79.1016	87.9385	79.1016	87.9999	79.1016	87.8942	79.1016	87.9632	79.1016	87.8466	79.1016	87.9221	79.1016	87.7968	79.1016	87.8768	79.1016	87.7459	79.1016	87.828	79.1016	87.6958	79.1016	87.7769	79.1016	87.6486	79.1016	87.7251	79.1016	87.6069	79.1016	87.6748	79.1016	87.5734	79.1016	87.6287	79.1016	87.5506	79.1016	87.5897	79.1016	87.5404	79.1016	87.5607	79.1016	87.5438
82.0313	88.2589	82.0313	88.2523	82.0313	88.2589	82.0313	88.2392	82.0313	88.2523	82.0313	88.2198	82.0313	88.2393	82.0313	88.1946	82.0313	88.2204	82.0313	88.1641	82.0313	88.1958	82.0313	88.1288	82.0313	88.1661	82.0313	88.0894	82.0313	88.1318	82.0313	88.0466	82.0313	88.0933	82.0313	88.0009	82.0313	88.0511	82.0313	87.9534	82.0313	88.0059	82.0313	87.9051	82.0313	87.9583	82.0313	87.8575	82.0313	87.9096	82.0313	87.8125	82.0313	87.8613	82.0313	87.7724	82.0313	87.8155	82.0313	87.7395	82.0313	87.7745	82.0313	87.7161	82.0313	87.7408	82.0313	87.704	82.0313	87.7168	82.0313	87.7042
84.9609	88.3429	84.9609	88.3325	84.9609	88.3455	84.9609	88.3147	84.9609	88.3402	84.9609	88.29	84.9609	88.3273	84.9609	88.2591	84.9609	88.3072	84.9609	88.2229	84.9609	88.2806	84.9609	88.1825	84.9609	88.248	84.9609	88.1388	84.9609	88.2103	84.9609	88.0927	84.9609	88.1683	84.9609	88.0452	84.9609	88.1228	84.9609	87.9974	84.9609	88.0747	84.9609	87.9502	84.9609	88.0249	84.9609	87.9051	84.9609	87.9749	84.9609	87.8635	84.9609	87.9261	84.9609	87.8272	84.9609	87.8805	84.9609	87.7982	84.9609	87.8402	84.9609	87.7782	84.9609	87.8072	84.9609	87.7687	84.9609	87.7834	84.9609	87.7704
87.8906	88.443	87.8906	88.434	87.8906	88.4428	87.8906	88.4161	87.8906	88.4335	87.8906	88.3898	87.8906	88.4153	87.8906	88.356	87.8906	88.3891	87.8906	88.3159	87.8906	88.3555	87.8906	88.2704	87.8906	88.3156	87.8906	88.2209	87.8906	88.2705	87.8906	88.1685	87.8906	88.2212	87.8906	88.1144	87.8906	88.1688	87.8906	88.0598	87.8906	88.1144	87.8906	88.0061	87.8906	88.0592	87.8906	87.9547	87.8906	88.0046	87.8906	87.9072	87.8906	87.9523	87.8906	87.8657	87.8906	87.9042	87.8906	87.8319	87.8906	87.8623	87.8906	87.8079	87.8906	87.8289	87.8906	87.7951	87.8906	87.8058	87.8906	87.7943
90.8203	88.4308	90.8203	88.4213	90.8203	88.4312	90.8203	88.403	90.8203	88.4225	90.8203	88.3766	90.8203	88.4052	90.8203	88.3431	90.8203	88.38	90.8203	88.3037	90.8203	88.3479	90.8203	88.2599	90.8203	88.3101	90.8203	88.2131	90.8203	88.2677	90.8203	88.1646	90.8203	88.222	90.8203	88.1157	90.8203	88.1741	90.8203	88.0676	90.8203	88.125	90.8203	88.0213	90.8203	88.076	90.8203	87.978	90.8203	88.0283	90.8203	87.9389	90.8203	87.9831	90.8203	87.9051	90.8203	87.9419	90.8203	87.878	90.8203	87.9065	90.8203	87.859	90.8203	87.8784	90.8203	87.8491	90.8203	87.8589	90.8203	87.849
93.75	88.7786	93.75	88.7759	93.75	88.7699	93.75	88.7621	93.75	88.7502	93.75	88.7378	93.75	88.7206	93.75	88.704	93.75	88.6823	93.75	88.6623	93.75	88.6372	93.75	88.6144	93.75	88.5873	93.75	88.5621	93.75	88.5347	93.75	88.5074	93.75	88.4814	93.75	88.452	93.75	88.4292	93.75	88.3978	93.75	88.3795	93.75	88.3463	93.75	88.3334	93.75	88.2991	93.75	88.2916	93.75	88.2573	93.75	88.2547	93.75	88.2221	93.75	88.2232	93.75	88.1944	93.75	88.1974	93.75	88.1747	93.75	88.1779	93.75	88.1634	93.75	88.1653	93.75	88.1603
96.6797	88.8193	96.6797	88.8183	96.6797	88.8062	96.6797	88.8035	96.6797	88.779	96.6797	88.7758	96.6797	88.7387	96.6797	88.7366	96.6797	88.6865	96.6797	88.6873	96.6797	88.6243	96.6797	88.6299	96.6797	88.5544	96.6797	88.5663	96.6797	88.4794	96.6797	88.4983	96.6797	88.4021	96.6797	88.4279	96.6797	88.3252	96.6797	88.357	96.6797	88.2513	96.6797	88.2872	96.6797	88.1827	96.6797	88.2205	96.6797	88.1214	96.6797	88.1585	96.6797	88.069	96.6797	88.1028	96.6797	88.0266	96.6797	88.0552	96.6797	87.9953	96.6797	88.0169	96.6797	87.9757	96.6797	87.9891	96.6797	87.9681	96.6797	87.9726
102.539	88.8432	102.539	88.8325	102.539	88.835	102.539	88.8041	102.539	88.8077	102.539	88.7596	102.539	88.7619	102.539	88.7014	102.539	88.699	102.539	88.6323	102.539	88.6211	102.539	88.5555	102.539	88.5312	102.539	88.4741	102.539	88.433	102.539	88.3913	102.539	88.3305	102.539	88.3098	102.539	88.2283	102.539	88.2318	102.539	88.1309	102.539	88.159	102.539	88.0425	102.539	88.0925	102.539	87.9667	102.539	88.0325	102.539	87.906	102.539	87.9794	102.539	87.8617	102.539	87.933	102.539	87.834	102.539	87.8935	102.539	87.822	102.539	87.8614	102.539	87.8239	102.539	87.8376
105.469	88.9391	105.469	88.9135	105.469	88.9424	105.469	88.8666	105.469	88.9231	105.469	88.8001	105.469	88.8817	105.469	88.7167	105.469	88.8196	105.469	88.6196	105.469	88.7388	105.469	88.5127	105.469	88.642	105.469	88.4003	105.469	88.5327	105.469	88.2868	105.469	88.415	105.469	88.1766	105.469	88.2936	105.469	88.0736	105.469	88.1733	105.469	87.9808	105.469	88.0592	105.469	87.9002	105.469	87.9557	105.469	87.8328	105.469	87.8666	105.469	87.7784	105.469	87.7944	105.469	87.7363	105.469	87.7404	105.469	87.7058	105.469	87.7041	105.469	87.6866	105.469	87.6842	105.469	87.679
108.398	89.1954	108.398	89.172	108.398	89.1964	108.398	89.1267	108.398	89.175	108.398	89.0608	108.398	89.132	108.398	88.9761	108.398	89.0688	108.398	88.8752	108.398	88.9872	108.398	88.7615	108.398	88.8898	108.398	88.6386	108.398	88.7797	108.398	88.511	108.398	88.6606	108.398	88.3836	108.398	88.5364	108.398	88.2609	108.398	88.4115	108.398	88.1475	108.398	88.2901	108.398	88.0472	108.398	88.1764	108.398	87.9627	108.398	88.074	108.398	87.8955	108.398	87.9858	108.398	87.8461	108.398	87.914	108.398	87.8144	108.398	87.8594	108.398	87.8	108.398	87.8223	108.398	87.8027
111.328	89.3395	111.328	89.3195	111.328	89.3372	111.328	89.278	111.328	89.3126	111.328	89.2162	111.328	89.2666	111.328	89.1361	111.328	89.2006	111.328	89.0401	111.328	89.1168	111.328	88.9316	111.328	89.018	111.328	88.8142	111.328	88.9079	111.328	88.6921	111.328	88.7903	111.328	88.5699	111.328	88.6696	111.328	88.4522	111.328	88.5503	111.328	88.3434	111.328	88.4366	111.328	88.247	111.328	88.3322	111.328	88.1659	111.328	88.2401	111.328	88.1015	111.328	88.1625	111.328	88.0542	111.328	88.1005	111.328	88.0234	111.328	88.0544	111.328	88.0084	111.328	88.0239	111.328	88.0086
117.188	89.3268	117.188	89.3066	117.188	89.3224	117.188	89.2625	117.188	89.2934	117.188	89.1961	117.188	89.2407	117.188	89.1097	117.188	89.166	117.188	89.0064	117.188	89.0719	117.188	88.89	117.188	88.9619	117.188	88.7649	117.188	88.8405	117.188	88.6361	117.188	88.7127	117.188	88.5089	117.188	88.5839	117.188	88.3885	117.188	88.4598	117.188	88.2797	117.188	88.3455	117.188	88.1862	117.188	88.2449	117.188	88.1103	117.188	88.1606	117.188	88.0526	117.188	88.0938	117.188	88.0122	117.188	88.0436	117.188	87.9873	117.188	88.0084	117.188	87.9756	117.188	87.9862	117.188	87.9754
120.117	89.4637	120.117	89.4419	120.117	89.4602	120.117	89.396	120.117	89.4313	120.117	89.3276	120.117	89.3774	120.117	89.2391	120.117	89.2999	120.117	89.1334	120.117	89.2011	120.117	89.0141	120.117	89.0843	120.117	88.8854	120.117	88.9539	120.117	88.7519	120.117	88.8151	120.117	88.6189	120.117	88.6739	120.117	88.4914	120.117	88.5366	120.117	88.3742	120.117	88.4094	120.117	88.2715	120.117	88.2973	120.117	88.186	120.117	88.2038	120.117	88.1189	120.117	88.1304	120.117	88.0698	120.117	88.0767	120.117	88.037	120.117	88.0408	120.117	88.0186	120.117	88.0203	120.117	88.0132
125.977	89.4166	125.977	89.3802	125.977	89.426	125.977	89.3183	125.977	89.4083	125.977	89.2331	125.977	89.3643	125.977	89.1279	125.977	89.2957	125.977	89.0073	125.977	89.2052	125.977	88.8767	125.977	89.0965	125.977	88.742	125.977	88.9741	125.977	88.6098	125.977	88.8436	125.977	88.4864	125.977	88.7109	125.977	88.3774	125.977	88.5823	125.977	88.2868	125.977	88.464	125.977	88.2165	125.977	88.3611	125.977	88.1664	125.977	88.277	125.977	88.1341	125.977	88.213	125.977	88.116	125.977	88.1677	125.977	88.108	125.977	88.1383	125.977	88.1069	125.977	88.1206	125.977	88.111
128.906	89.4411	128.906	89.4045	128.906	89.4483	128.906	89.3393	128.906	89.4264	128.906	89.2474	128.906	89.3765	128.906	89.1317	128.906	89.3009	128.906	88.9966	128.906	89.2026	128.906	88.8475	128.906	89.0858	128.906	88.6911	128.906	88.9555	128.906	88.535	128.906	88.8174	128.906	88.3874	128.906	88.6778	128.906	88.2559	128.906	88.5431	128.906	88.1469	128.906	88.419	128.906	88.064	128.906	88.3104	128.906	88.0082	128.906	88.22	128.906	87.977	128.906	88.1485	128.906	87.9659	128.906	88.0943	128.906	87.9692	128.906	88.0541	128.906	87.9818	128.906	88.0239	128.906	88.0003
134.766	89.6076	134.766	89.5886	134.766	89.5971	134.766	89.5402	134.766	89.5576	134.766	89.4638	134.766	89.491	134.766	89.3618	134.766	89.3998	134.766	89.2376	134.766	89.2882	134.766	89.096	134.766	89.161	134.766	88.9432	134.766	89.0244	134.766	88.7866	134.766	88.8851	134.766	88.6345	134.766	88.7506	134.766	88.4957	134.766	88.6274	134.766	88.3782	134.766	88.5214	134.766	88.2878	134.766	88.4358	134.766	88.2272	134.766	88.3713	134.766	88.195	134.766	88.3256	134.766	88.1864	134.766	88.294	134.766	88.1944	134.766	88.2709	134.766	88.2113	134.766	88.2511	134.766	88.2313
137.695	89.5149	137.695	89.5082	137.695	89.4905	137.695	89.4711	137.695	89.4353	137.695	89.4053	137.695	89.3509	137.695	89.3136	137.695	89.2402	137.695	89.1997	137.695	89.1075	137.695	89.0683	137.695	88.9587	137.695	88.9253	137.695	88.8012	137.695	88.7778	137.695	88.6439	137.695	88.6334	137.695	88.496	137.695	88.5003	137.695	88.3666	137.695	88.3856	137.695	88.2628	137.695	88.2947	137.695	88.1887	137.695	88.2299	137.695	88.1442	137.695	88.1897	137.695	88.1251	137.695	88.1692	137.695	88.1244	137.695	88.161	137.695	88.1335	137.695	88.1577	137.695	88.1447	137.695	88.1532
143.555	89.2988	143.555	89.2631	143.555	89.3009	143.555	89.1962	143.555	89.2685	143.555	89.1015	143.555	89.2016	143.555	88.9838	143.555	89.1021	143.555	88.8491	143.555	88.9729	143.555	88.7046	143.555	88.8191	143.555	88.5581	143.555	88.6477	143.555	88.418	143.555	88.4677	143.555	88.292	143.555	88.2902	143.555	88.1864	143.555	88.1274	143.555	88.1051	143.555	87.9908	143.555	88.0485	143.555	87.8896	143.555	88.0135	143.555	87.8285	143.555	87.9939	143.555	87.8059	143.555	87.9818	143.555	87.8148	143.555	87.9691	143.555	87.8446	143.555	87.9495	143.555	87.8831	143.555	87.9202
149.414	89.0705	149.414	89.0198	149.414	89.0812	149.414	88.9303	149.414	89.0523	149.414	88.8046	149.414	88.9857	149.414	88.6476	149.414	88.8845	149.414	88.466	149.414	88.7536	149.414	88.2692	149.414	88.5994	149.414	88.069	149.414	88.4301	149.414	87.8789	149.414	88.2556	149.414	87.7127	149.414	88.0872	149.414	87.5828	149.414	87.9362	149.414	87.4972	149.414	87.8124	149.414	87.4578	149.414	87.7224	149.414	87.4594	149.414	87.6675	149.414	87.4909	149.414	87.6436	149.414	87.5381	149.414	87.6414	149.414	87.5868	149.414	87.6491	149.414	87.6257	149.414	87.6547	149.414	87.6486
155.273	89.1336	155.273	89.0886	155.273	89.1297	155.273	88.9956	155.273	89.0774	155.273	88.8567	155.273	88.9786	155.273	88.6759	155.273	88.8365	155.273	88.4597	155.273	88.6563	155.273	88.2174	155.273	88.4454	155.273	87.9614	155.273	88.2139	155.273	87.708	155.273	87.9751	155.273	87.4754	155.273	87.7445	155.273	87.2819	155.273	87.5388	155.273	87.142	155.273	87.3731	155.273	87.0625	155.273	87.2571	155.273	87.0402	155.273	87.1929	155.273	87.0622	155.273	87.1735	155.273	87.1098	155.273	87.1844	155.273	87.1633	155.273	87.2078	155.273	87.206	155.273	87.2265	155.273	87.2278
158.203	89.3675	158.203	89.321	158.203	89.3647	158.203	89.2257	158.203	89.3127	158.203	89.0838	158.203	89.213	158.203	88.8987	158.203	89.0682	158.203	88.6761	158.203	88.8825	158.203	88.4245	158.203	88.6626	158.203	88.1559	158.203	88.4178	158.203	87.886	158.203	88.1607	158.203	87.6334	158.203	87.9073	158.203	87.4175	158.203	87.6752	158.203	87.2546	158.203	87.4816	158.203	87.1535	158.203	87.3391	158.203	87.1127	158.203	87.2524	158.203	87.1201	158.203	87.2161	158.203	87.1568	158.203	87.2165	158.203	87.2022	158.203	87.2349	158.203	87.2389	158.203	87.2529	158.203	87.2565
164.063	89.6006	164.063	89.5708	164.063	89.581	164.063	89.4917	164.063	89.5129	164.063	89.3637	164.063	89.3977	164.063	89.1887	164.063	89.2382	164.063	88.9701	164.063	89.0385	164.063	88.7137	164.063	88.8048	164.063	88.4289	164.063	88.5466	164.063	88.13	164.063	88.2766	164.063	87.836	164.063	88.0109	164.063	87.5697	164.063	87.7682	164.063	87.3541	164.063	87.5667	164.063	87.2069	164.063	87.42	164.063	87.1341	164.063	87.3326	164.063	87.1276	164.063	87.2981	164.063	87.167	164.063	87.3001	164.063	87.2267	164.063	87.317	164.063	87.2826	164.063	87.3281	164.063	87.3184
169.922	89.398	169.922	89.3751	169.922	89.376	169.922	89.31	169.922	89.3071	169.922	89.2061	169.922	89.1901	169.922	89.0675	169.922	89.0251	169.922	88.8988	169.922	88.8144	169.922	88.7061	169.922	88.5627	169.922	88.4968	169.922	88.2787	169.922	88.28	169.922	87.9759	169.922	88.0665	169.922	87.6729	169.922	87.8681	169.922	87.3927	169.922	87.6959	169.922	87.1598	169.922	87.5578	169.922	86.9944	169.922	87.4561	169.922	86.9068	169.922	87.3863	169.922	86.8931	169.922	87.3377	169.922	86.937	169.922	87.2959	169.922	87.0148	169.922	87.2474	169.922	87.1028	169.922	87.1833
175.781	89.1726	175.781	89.0788	175.781	89.2167	175.781	88.9368	175.781	89.2106	175.781	88.7497	175.781	89.1547	175.781	88.5228	175.781	89.0503	175.781	88.2643	175.781	88.8998	175.781	87.9867	175.781	88.7076	175.781	87.7068	175.781	88.4805	175.781	87.4456	175.781	88.2289	175.781	87.2262	175.781	87.9677	175.781	87.069	175.781	87.7161	175.781	86.9861	175.781	87.4957	175.781	86.9769	175.781	87.3266	175.781	87.0269	175.781	87.2219	175.781	87.1117	175.781	87.1827	175.781	87.2038	175.781	87.1967	175.781	87.2788	175.781	87.2416	175.781	87.3205	175.781	87.2914	175.781	87.3229
181.641	88.9435	181.641	88.8931	181.641	88.9382	181.641	88.7861	181.641	88.8793	181.641	88.6229	181.641	88.7701	181.641	88.4056	181.641	88.6151	181.641	88.1391	181.641	88.4211	181.641	87.8328	181.641	88.197	181.641	87.5015	181.641	87.9548	181.641	87.1677	181.641	87.71	181.641	86.8607	181.641	87.4805	181.641	86.6133	181.641	87.2848	181.641	86.4547	181.641	87.1386	181.641	86.3999	181.641	87.0508	181.641	86.4436	181.641	87.0195	181.641	86.5604	181.641	87.032	181.641	86.7142	181.641	87.0673	181.641	86.8685	181.641	87.1006	181.641	86.9949	181.641	87.1093	181.641	87.0765
190.43	89.2785	190.43	89.2314	190.43	89.261	190.43	89.1205	190.43	89.1778	190.43	88.9471	190.43	89.0284	190.43	88.7129	190.43	88.8125	190.43	88.4216	190.43	88.532	190.43	88.0799	190.43	88.1916	190.43	87.6996	190.43	87.8012	190.43	87.3002	190.43	87.3788	190.43	86.91	190.43	86.9523	190.43	86.5646	190.43	86.5595	190.43	86.3006	190.43	86.2432	190.43	86.1439	190.43	86.0389	190.43	86.0981	190.43	85.9607	190.43	86.141	190.43	85.9933	190.43	86.2324	190.43	86.0979	190.43	86.3272	190.43	86.226	190.43	86.3882	190.43	86.334	190.43	86.3923
196.289	89.5922	196.289	89.5444	196.289	89.5754	196.289	89.4327	196.289	89.4936	196.289	89.2575	196.289	89.346	196.289	89.0198	196.289	89.1326	196.289	88.7224	196.289	88.8543	196.289	88.371	196.289	88.5153	196.289	87.9772	196.289	88.1245	196.289	87.5606	196.289	87.6986	196.289	87.1508	196.289	87.2651	196.289	86.7862	196.289	86.8622	196.289	86.507	196.289	86.5344	196.289	86.3425	196.289	86.32	196.289	86.2977	196.289	86.2352	196.289	86.349	196.289	86.2652	196.289	86.4533	196.289	86.369	196.289	86.5623	196.289	86.4957	196.289	86.6363	196.289	86.5999	196.289	86.6509
202.148	89.5947	202.148	89.5247	202.148	89.6032	202.148	89.3945	202.148	89.5483	202.148	89.2055	202.148	89.428	202.148	88.9594	202.148	89.2401	202.148	88.6592	202.148	88.9829	202.148	88.3106	202.148	88.6568	202.148	87.9241	202.148	88.2659	202.148	87.5175	202.148	87.8215	202.148	87.1174	202.148	87.3457	202.148	86.7585	202.148	86.8744	202.148	86.4774	202.148	86.4566	202.148	86.3008	202.148	86.1442	202.148	86.2335	202.148	85.9733	202.148	86.2539	202.148	85.946	202.148	86.3208	202.148	86.0279	202.148	86.3882	202.148	86.1633	202.148	86.4181	202.148	86.2969	202.148	86.3883
210.938	89.1859	210.938	89.0974	210.938	89.2087	210.938	88.942	210.938	89.1664	210.938	88.7182	210.938	89.0585	210.938	88.4251	210.938	88.8841	210.938	88.0635	210.938	88.6425	210.938	87.6382	210.938	88.3338	210.938	87.1618	210.938	87.962	210.938	86.6593	210.938	87.5374	210.938	86.1719	210.938	87.0811	210.938	85.7562	210.938	86.6283	210.938	85.4722	210.938	86.2272	210.938	85.3584	210.938	85.9304	210.938	85.4101	210.938	85.7741	210.938	85.5781	210.938	85.7599	210.938	85.792	210.938	85.8497	210.938	85.9855	210.938	85.9827	210.938	86.112	210.938	86.0978	210.938	86.149
216.797	89.1414	216.797	89.068	216.797	89.1504	216.797	88.9273	216.797	89.0967	216.797	88.7157	216.797	88.9806	216.797	88.4287	216.797	88.8017	216.797	88.0627	216.797	88.5587	216.797	87.6165	216.797	88.2508	216.797	87.095	216.797	87.8792	216.797	86.5147	216.797	87.4501	216.797	85.9103	216.797	86.9784	216.797	85.3404	216.797	86.4917	216.797	84.8824	216.797	86.0322	216.797	84.6082	216.797	85.6506	216.797	84.5465	216.797	85.3911	216.797	84.6619	216.797	85.2696	216.797	84.8742	216.797	85.2622	216.797	85.0975	216.797	85.3143	216.797	85.2689	216.797	85.3631	216.797	85.3574
225.586	89.4517	225.586	89.4433	225.586	89.3924	225.586	89.3657	225.586	89.2664	225.586	89.2166	225.586	89.0743	225.586	88.993	225.586	88.8171	225.586	88.692	225.586	88.497	225.586	88.3123	225.586	88.1193	225.586	87.8569	225.586	87.6942	225.586	87.3374	225.586	87.2406	225.586	86.7808	225.586	86.7882	225.586	86.2346	225.586	86.3783	225.586	85.7668	225.586	86.0573	225.586	85.4498	225.586	85.8628	225.586	85.3284	225.586	85.805	225.586	85.3917	225.586	85.8587	225.586	85.5773	225.586	85.9714	225.586	85.8027	225.586	86.0825	225.586	85.9971	225.586	86.1412	225.586	86.1156
234.375	89.5457	234.375	89.5091	234.375	89.5176	234.375	89.4104	234.375	89.4201	234.375	89.2502	234.375	89.2464	234.375	89.027	234.375	88.9886	234.375	88.7378	234.375	88.6376	234.375	88.3796	234.375	88.1852	234.375	87.9521	234.375	87.6268	234.375	87.4611	234.375	86.9669	234.375	86.9244	234.375	86.2282	234.375	86.377	234.375	85.4642	234.375	85.8729	234.375	84.7686	234.375	85.4757	234.375	84.2636	234.375	85.2336	234.375	84.0463	234.375	85.1511	234.375	84.1202	234.375	85.1808	234.375	84.3893	234.375	85.2454	234.375	84.7216	234.375	85.2691	234.375	85.0109	234.375	85.1983
240.234	89.3505	240.234	89.2431	240.234	89.3958	240.234	89.076	240.234	89.3753	240.234	88.8507	240.234	89.2839	240.234	88.5682	240.234	89.1151	240.234	88.2297	240.234	88.8609	240.234	87.8384	240.234	88.5133	240.234	87.4021	240.234	88.0663	240.234	86.9359	240.234	87.5199	240.234	86.4666	240.234	86.8862	240.234	86.0333	240.234	86.1992	240.234	85.6815	240.234	85.5233	240.234	85.4493	240.234	84.9531	240.234	85.3471	240.234	84.5869	240.234	85.3487	240.234	84.4753	240.234	85.3995	240.234	84.5859	240.234	85.4369	240.234	84.8234	240.234	85.4104	240.234	85.0841	240.234	85.2921
249.023	88.9328	249.023	88.8328	249.023	88.9682	249.023	88.6656	249.023	88.9405	249.023	88.4273	249.023	88.8495	249.023	88.1139	249.023	88.6933	249.023	87.7215	249.023	88.4681	249.023	87.2497	249.023	88.1687	249.023	86.705	249.023	87.7904	249.023	86.1083	249.023	87.332	249.023	85.5022	249.023	86.8017	249.023	84.9565	249.023	86.2257	249.023	84.5573	249.023	85.6553	249.023	84.3731	249.023	85.1676	249.023	84.4125	249.023	84.8441	249.023	84.6127	249.023	84.7297	249.023	84.874	249.023	84.7996	249.023	85.1033	249.023	84.9711	249.023	85.2377	249.023	85.1467	249.023	85.2497
257.813	89.7457	257.813	89.6544	257.813	89.7499	257.813	89.4723	257.813	89.6678	257.813	89.1927	257.813	89.4975	257.813	88.8056	257.813	89.2354	257.813	88.2992	257.813	88.8767	257.813	87.6625	257.813	88.4174	257.813	86.8915	257.813	87.8571	257.813	86.0026	257.813	87.205	257.813	85.0555	257.813	86.4883	257.813	84.1822	257.813	85.7635	257.813	83.5844	257.813	85.1228	257.813	83.4307	257.813	84.6777	257.813	83.7063	257.813	84.5076	257.813	84.2208	257.813	84.6032	257.813	84.763	257.813	84.8681	257.813	85.1956	257.813	85.1754	257.813	85.4549	257.813	85.418	257.813	85.5245
266.602	90.202	266.602	90.1556	266.602	90.1951	266.602	90.0494	266.602	90.137	266.602	89.873	266.602	90.0257	266.602	89.6116	266.602	89.8543	266.602	89.2459	266.602	89.6118	266.602	88.7531	266.602	89.2826	266.602	88.1081	266.602	88.8493	266.602	87.2888	266.602	88.2954	266.602	86.2863	266.602	87.6123	266.602	85.1298	266.602	86.8105	266.602	83.9322	266.602	85.9367	266.602	82.9402	266.602	85.0925	266.602	82.4656	266.602	84.4285	266.602	82.6081	266.602	84.0752	266.602	83.1285	266.602	84.0381	266.602	83.7026	266.602	84.1817	266.602	84.1291	266.602	84.3266	266.602	84.3339
278.32	89.1155	278.32	89.1329	278.32	89.0497	278.32	89.1032	278.32	88.9312	278.32	89.024	278.32	88.7539	278.32	88.8879	278.32	88.5099	278.32	88.6821	278.32	88.1902	278.32	88.3896	278.32	87.7857	278.32	87.9918	278.32	87.2893	278.32	87.4739	278.32	86.7006	278.32	86.8333	278.32	86.0349	278.32	86.0922	278.32	85.3352	278.32	85.3148	278.32	84.6829	278.32	84.617	278.32	84.1898	278.32	84.1416	278.32	83.9514	278.32	83.977	278.32	83.9789	278.32	84.0833	278.32	84.1832	278.32	84.3209	278.32	84.431	278.32	84.5425	278.32	84.609	278.32	84.6512
287.109	89.3239	287.109	89.2561	287.109	89.3323	287.109	89.1307	287.109	89.2777	287.109	88.9473	287.109	89.1547	287.109	88.7019	287.109	88.9549	287.109	88.3864	287.109	88.6664	287.109	87.988	287.109	88.2743	287.109	87.492	287.109	87.7615	287.109	86.8883	287.109	87.1139	287.109	86.1825	287.109	86.3301	287.109	85.4152	287.109	85.4403	287.109	84.6816	287.109	84.5374	287.109	84.1299	287.109	83.7982	287.109	83.8964	287.109	83.4309	287.109	83.9976	287.109	83.5124	287.109	84.306	287.109	83.9024	287.109	84.6438	287.109	84.3691	287.109	84.8714	287.109	84.735	287.109	84.9105
295.898	89.3018	295.898	89.2126	295.898	89.3314	295.898	89.0663	295.898	89.2971	295.898	88.8626	295.898	89.1928	295.898	88.5967	295.898	89.0102	295.898	88.258	295.898	88.7373	295.898	87.8296	295.898	88.3579	295.898	87.2896	295.898	87.8518	295.898	86.6163	295.898	87.197	295.898	85.7992	295.898	86.3764	295.898	84.8599	295.898	85.392	295.898	83.8863	295.898	84.2941	295.898	83.0605	295.898	83.2267	295.898	82.6072	295.898	82.4466	295.898	82.6173	295.898	82.1927	295.898	82.942	295.898	82.4432	295.898	83.3281	295.898	82.9257	295.898	83.5805	295.898	83.3637	295.898	83.5997
307.617	89.5717	307.617	89.4704	307.617	89.63	307.617	89.3218	307.617	89.6446	307.617	89.117	307.617	89.6091	307.617	88.8424	307.617	89.5114	307.617	88.4798	307.617	89.3326	307.617	88.0071	307.617	89.0483	307.617	87.4001	307.617	88.6301	307.617	86.6374	307.617	88.049	307.617	85.711	307.617	87.2813	307.617	84.6495	307.617	86.321	307.617	83.5587	307.617	85.2016	307.617	82.6585	307.617	84.0361	307.617	82.2138	307.617	83.0506	307.617	82.3027	307.617	82.5159	307.617	82.7143	307.617	82.5182	307.617	83.1548	307.617	82.8542	307.617	83.4282	307.617	83.2323	307.617	83.453
319.336	89.0647	319.336	89.0158	319.336	89.0829	319.336	88.9322	319.336	89.0733	319.336	88.8079	319.336	89.0371	319.336	88.6325	319.336	88.9704	319.336	88.3881	319.336	88.8617	319.336	88.0473	319.336	88.6897	319.336	87.5745	319.336	88.4231	319.336	86.9294	319.336	88.0243	319.336	86.0767	319.336	87.4537	319.336	85.0045	319.336	86.679	319.336	83.7655	319.336	85.6911	319.336	82.5451	319.336	84.5359	319.336	81.6901	319.336	83.3662	319.336	81.4869	319.336	82.4645	319.336	81.8193	319.336	82.092	319.336	82.302	319.336	82.2095	319.336	82.6367	319.336	82.5092	319.336	82.7007
331.055	89.4835	331.055	89.4788	331.055	89.4278	331.055	89.413	331.055	89.3148	331.055	89.2855	331.055	89.1492	331.055	89.0934	331.055	88.9366	331.055	88.8287	331.055	88.6801	331.055	88.4755	331.055	88.3767	331.055	88.0091	331.055	88.0146	331.055	87.3974	331.055	87.5741	331.055	86.6066	331.055	87.0321	331.055	85.6122	331.055	86.3718	331.055	84.4244	331.055	85.5976	331.055	83.1379	331.055	84.7528	331.055	81.995	331.055	83.9332	331.055	81.3403	331.055	83.2709	331.055	81.3206	331.055	82.8615	331.055	81.6995	331.055	82.6808	331.055	82.1364	331.055	82.5927	331.055	82.4419
342.773	90.1621	342.773	90.1436	342.773	90.1313	342.773	90.0788	342.773	90.0469	342.773	89.9674	342.773	89.9046	342.773	89.8031	342.773	89.6994	342.773	89.5719	342.773	89.4249	342.773	89.2518	342.773	89.0715	342.773	88.8146	342.773	88.6271	342.773	88.2313	342.773	88.079	342.773	87.4824	342.773	87.421	342.773	86.5742	342.773	86.6665	342.773	85.569	342.773	85.8681	342.773	84.6195	342.773	85.135	342.773	83.9588	342.773	84.6149	342.773	83.7607	342.773	84.41	342.773	83.9685	342.773	84.485	342.773	84.3501	342.773	84.6872	342.773	84.6884	342.773	84.8507	342.773	84.865
354.492	90.1219	354.492	90.0818	354.492	90.1209	354.492	90.0026	354.492	90.0751	354.492	89.884	354.492	89.9795	354.492	89.7198	354.492	89.8254	354.492	89.4948	354.492	89.5974	354.492	89.1828	354.492	89.2715	354.492	88.7474	354.492	88.8148	354.492	88.1469	354.492	88.1888	354.492	87.3445	354.492	87.3575	354.492	86.3286	354.492	86.3036	354.492	85.1534	354.492	85.0666	354.492	84.0061	354.492	83.8146	354.492	83.2293	354.492	82.9042	354.492	83.0995	354.492	82.6933	354.492	83.4973	354.492	83.1215	354.492	84.0429	354.492	83.7737	354.492	84.4363	354.492	84.2995	354.492	84.5346
366.211	89.2815	366.211	89.1751	366.211	89.344	366.211	89.0301	366.211	89.363	366.211	88.855	366.211	89.3426	366.211	88.6554	366.211	89.2855	366.211	88.4265	366.211	89.1864	366.211	88.1458	366.211	89.0256	366.211	87.7722	366.211	88.7665	366.211	87.2522	366.211	88.358	366.211	86.5328	366.211	87.7405	366.211	85.5833	366.211	86.8568	366.211	84.4367	366.211	85.6715	366.211	83.264	366.211	84.2211	366.211	82.4225	366.211	82.7293	366.211	82.2437	366.211	81.7162	366.211	82.6263	366.211	81.6453	366.211	83.1458	366.211	82.2669	366.211	83.4602	366.211	82.9766	366.211	83.4123
377.93	89.511	377.93	89.4883	377.93	89.4729	377.93	89.41	377.93	89.3724	377.93	89.2824	377.93	89.213	377.93	89.108	377.93	89.0024	377.93	88.8807	377.93	88.749	377.93	88.5797	377.93	88.4555	377.93	88.1674	377.93	88.112	377.93	87.5903	377.93	87.6927	377.93	86.7866	377.93	87.1584	377.93	85.7001	377.93	86.4685	377.93	84.3154	377.93	85.6032	377.93	82.7476	377.93	84.6009	377.93	81.4076	377.93	83.6101	377.93	80.9308	377.93	82.8954	377.93	81.4093	377.93	82.6664	377.93	82.2261	377.93	82.8347	377.93	82.866	377.93	83.0883	377.93	83.1482
392.578	89.7897	392.578	89.7143	392.578	89.8186	392.578	89.5898	392.578	89.8086	392.578	89.4185	392.578	89.7676	392.578	89.2045	392.578	89.6978	392.578	88.9465	392.578	89.5889	392.578	88.631	392.578	89.4149	392.578	88.2285	392.578	89.1353	392.578	87.6956	392.578	88.6998	392.578	86.9838	392.578	88.0536	392.578	86.0544	392.578	87.1443	392.578	84.9042	392.578	85.9329	392.578	83.6091	392.578	84.4244	392.578	82.3804	392.578	82.7443	392.578	81.5348	392.578	81.2629	392.578	81.2441	392.578	80.5128	392.578	81.3254	392.578	80.5948	392.578	81.4418	392.578	81.0263	392.578	81.3614
407.227	88.2616	407.227	88.3327	407.227	88.1137	407.227	88.3389	407.227	87.8913	407.227	88.2982	407.227	87.6175	407.227	88.2248	407.227	87.3369	407.227	88.1184	407.227	87.1043	407.227	87.9564	407.227	86.9582	407.227	87.6925	407.227	86.8914	407.227	87.2635	407.227	86.8465	407.227	86.6043	407.227	86.7429	407.227	85.6712	407.227	86.5166	407.227	84.4919	407.227	86.1512	407.227	83.2664	407.227	85.6978	407.227	82.455	407.227	85.2726	407.227	82.4828	407.227	85.0076	407.227	83.1749	407.227	84.9562	407.227	84.0098	407.227	85.0415	407.227	84.6553	407.227	85.1092	407.227	85.0128
421.875	89.5399	421.875	89.3802	421.875	89.6265	421.875	89.1592	421.875	89.631	421.875	88.8915	421.875	89.5459	421.875	88.5907	421.875	89.3627	421.875	88.2614	421.875	89.0689	421.875	87.8872	421.875	88.6426	421.875	87.4232	421.875	88.0466	421.875	86.7994	421.875	87.223	421.875	85.9352	421.875	86.0892	421.875	84.766	421.875	84.5375	421.875	83.3013	421.875	82.4583	421.875	81.7738	421.875	79.911	421.875	80.8227	421.875	77.8808	421.875	81.029	421.875	78.3198	421.875	81.9953	421.875	80.3032	421.875	82.9658	421.875	82.0537	421.875	83.5564	421.875	83.1597	421.875	83.6405
436.523	88.9912	436.523	88.864	436.523	89.05	436.523	88.6703	436.523	89.049	436.523	88.4222	436.523	89.0057	436.523	88.1372	436.523	88.9391	436.523	87.8297	436.523	88.8591	436.523	87.497	436.523	88.7547	436.523	87.1057	436.523	88.5876	436.523	86.5864	436.523	88.2939	436.523	85.8423	436.523	87.7912	436.523	84.7712	436.523	86.9887	436.523	83.311	436.523	85.7999	436.523	81.5703	436.523	84.1792	436.523	80.1315	436.523	82.2531	436.523	79.9467	436.523	80.6458	436.523	80.9066	436.523	80.3612	436.523	82.0033	436.523	81.2392	436.523	82.6677	436.523	82.2196	436.523	82.7424
451.172	88.68	451.172	88.7132	451.172	88.5826	451.172	88.697	451.172	88.4298	451.172	88.6587	451.172	88.2571	451.172	88.6217	451.172	88.1182	451.172	88.5856	451.172	88.0612	451.172	88.5144	451.172	88.0923	451.172	88.3373	451.172	88.156	451.172	87.9616	451.172	88.1477	451.172	87.286	451.172	87.9481	451.172	86.2097	451.172	87.4497	451.172	84.6458	451.172	86.5729	451.172	82.5885	451.172	85.2906	451.172	80.4051	451.172	83.7048	451.172	79.313	451.172	82.2086	451.172	80.0232	451.172	81.4674	451.172	81.2962	451.172	81.6631	451.172	82.172	451.172	82.1847	451.172	82.4443
465.82	88.433	465.82	88.2945	465.82	88.4133	465.82	88.0381	465.82	88.2292	465.82	87.7436	465.82	87.9051	465.82	87.5203	465.82	87.4962	465.82	87.4585	465.82	87.0833	465.82	87.5589	465.82	86.7429	465.82	87.7099	465.82	86.4944	465.82	87.7405	465.82	86.2653	465.82	87.4828	465.82	85.9171	465.82	86.797	465.82	85.3067	465.82	85.5721	465.82	84.3442	465.82	83.7614	465.82	83.0761	465.82	81.6051	465.82	81.8584	465.82	80.2151	465.82	81.402	465.82	80.7694	465.82	81.9791	465.82	82.2135	465.82	82.9437	465.82	83.3332	465.82	83.6487	465.82	83.8118
483.398	89.49	483.398	89.2677	483.398	89.5146	483.398	88.8423	483.398	89.3527	483.398	88.2186	483.398	89.0232	483.398	87.4251	483.398	88.5598	483.398	86.5354	483.398	88.0194	483.398	85.6821	483.398	87.4803	483.398	85.0161	483.398	87.0109	483.398	84.5895	483.398	86.6135	483.398	84.2774	483.398	86.1897	483.398	83.8563	483.398	85.5668	483.398	83.1446	483.398	84.5511	483.398	82.1198	483.398	82.9757	483.398	81.0812	483.398	80.8288	483.398	80.7014	483.398	78.8205	483.398	81.2806	483.398	78.7704	483.398	82.2017	483.398	80.4189	483.398	82.7951	483.398	81.9488	483.398	82.7504
500.977	88.4709	500.977	88.3983	500.977	88.4043	500.977	88.2097	500.977	88.1986	500.977	87.9472	500.977	87.8826	500.977	87.665	500.977	87.5187	500.977	87.4129	500.977	87.1937	500.977	87.2088	500.977	86.981	500.977	87.0132	500.977	86.8831	500.977	86.7291	500.977	86.8073	500.977	86.2259	500.977	86.601	500.977	85.3676	500.977	86.1064	500.977	84.0336	500.977	85.1913	500.977	82.1638	500.977	83.7716	500.977	79.9677	500.977	81.8944	500.977	78.4638	500.977	80.0239	500.977	78.8123	500.977	79.2456	500.977	80.0782	500.977	79.8697	500.977	81.0197	500.977	80.8029	500.977	81.2637
518.555	89.0317	518.555	88.8327	518.555	88.9954	518.555	88.4174	518.555	88.7237	518.555	87.834	518.555	88.2381	518.555	87.1791	518.555	87.5984	518.555	86.6045	518.555	86.9245	518.555	86.2596	518.555	86.3867	518.555	86.1635	518.555	86.1072	518.555	86.1511	518.555	86.0329	518.555	85.973	518.555	85.9517	518.555	85.4085	518.555	85.6282	518.555	84.3027	518.555	84.8901	518.555	82.6021	518.555	83.6598	518.555	80.5862	518.555	82.0526	518.555	79.4176	518.555	80.6648	518.555	80.1162	518.555	80.479	518.555	81.5308	518.555	81.3937	518.555	82.525	518.555	82.3672	518.555	82.803
536.133	89.6124	536.133	89.3911	536.133	89.6169	536.133	88.9518	536.133	89.4066	536.133	88.3012	536.133	88.9834	536.133	87.4695	536.133	88.3585	536.133	86.5346	536.133	87.5714	536.133	85.6416	536.133	86.716	536.133	84.9633	536.133	85.9421	536.133	84.5593	536.133	85.3736	536.133	84.2714	536.133	84.9716	536.133	83.813	536.133	84.5096	536.133	82.9245	536.133	83.6928	536.133	81.4777	536.133	82.2636	536.133	79.7074	536.133	80.1055	536.133	78.718	536.133	77.7985	536.133	79.4744	536.133	77.519	536.133	80.8678	536.133	79.3477	536.133	81.7723	536.133	81.0337	536.133	81.8544
553.711	88.6118	553.711	88.4202	553.711	88.5802	553.711	88.0158	553.711	88.329	553.711	87.4267	553.711	87.8794	553.711	86.7117	553.711	87.2829	553.711	85.9754	553.711	86.6387	553.711	85.3573	553.711	86.0925	553.711	84.9541	553.711	85.7671	553.711	84.7128	553.711	85.6454	553.711	84.43	553.711	85.5471	553.711	83.8554	553.711	85.2359	553.711	82.7749	553.711	84.517	553.711	81.0678	553.711	83.2732	553.711	78.9567	553.711	81.5293	553.711	77.7151	553.711	79.7101	553.711	78.5618	553.711	78.9047	553.711	80.0976	553.711	79.5708	553.711	81.0724	553.711	80.6341	553.711	81.2314
574.219	89.8272	574.219	89.5966	574.219	89.8258	574.219	89.1341	574.219	89.5864	574.219	88.4436	574.219	89.0974	574.219	87.5579	574.219	88.3529	574.219	86.5799	574.219	87.382	574.219	85.715	574.219	86.3009	574.219	85.19	574.219	85.3552	574.219	85.0196	574.219	84.8033	574.219	84.9225	574.219	84.6166	574.219	84.5222	574.219	84.4352	574.219	83.4976	574.219	83.8554	574.219	81.5849	574.219	82.5928	574.219	78.7635	574.219	80.5681	574.219	76.9056	574.219	78.5457	574.219	78.853	574.219	78.8185	574.219	81.4455	574.219	80.9178	574.219	82.9578	574.219	82.6234	574.219	83.3286
594.727	89.2141	594.727	88.9954	594.727	89.2186	594.727	88.5668	594.727	89.0035	594.727	87.935	594.727	88.564	594.727	87.1223	594.727	87.9066	594.727	86.2004	594.727	87.0795	594.727	85.3393	594.727	86.2204	594.727	84.7833	594.727	85.5635	594.727	84.6371	594.727	85.2837	594.727	84.6772	594.727	85.2687	594.727	84.5043	594.727	85.1732	594.727	83.7608	594.727	84.6513	594.727	82.1615	594.727	83.4462	594.727	79.5212	594.727	81.3955	594.727	76.5802	594.727	78.7049	594.727	76.7265	594.727	77.155	594.727	79.071	594.727	78.4053	594.727	80.6226	594.727	80.139	594.727	80.9555
615.234	90.2851	615.234	90.065	615.234	90.2862	615.234	89.6163	615.234	90.0703	615.234	88.923	615.234	89.6338	615.234	87.9727	615.234	88.9713	615.234	86.7928	615.234	88.0925	615.234	85.5298	615.234	87.0614	615.234	84.5208	615.234	86.0491	615.234	84.0981	615.234	85.3074	615.234	84.1315	615.234	84.9424	615.234	84.0936	615.234	84.7157	615.234	83.4831	615.234	84.2007	615.234	81.8766	615.234	82.9833	615.234	78.6971	615.234	80.6361	615.234	73.3159	615.234	76.7359	615.234	73.3503	615.234	73.8295	615.234	78.1956	615.234	77.1357	615.234	80.6441	615.234	80.0726	615.234	81.1928
638.672	90.8563	638.672	90.672	638.672	90.8233	638.672	90.2651	638.672	90.5698	638.672	89.6269	638.672	90.088	638.672	88.7623	638.672	89.379	638.672	87.7314	638.672	88.4856	638.672	86.7075	638.672	87.5452	638.672	85.9694	638.672	86.8065	638.672	85.67	638.672	86.4712	638.672	85.5892	638.672	86.4343	638.672	85.2895	638.672	86.3264	638.672	84.3697	638.672	85.7626	638.672	82.4765	638.672	84.4173	638.672	79.2675	638.672	81.9391	638.672	75.7479	638.672	78.009	638.672	77.2948	638.672	75.1938	638.672	80.4951	638.672	78.2619	638.672	82.2001	638.672	81.155	638.672	82.4111
659.18	91.3571	659.18	91.1276	659.18	91.371	659.18	90.6858	659.18	91.1608	659.18	90.0235	659.18	90.7135	659.18	89.1212	659.18	90.0121	659.18	87.9704	659.18	89.0485	659.18	86.6438	659.18	87.8648	659.18	85.4138	659.18	86.6298	659.18	84.7279	659.18	85.6753	659.18	84.7065	659.18	85.2648	659.18	84.8527	659.18	85.2204	659.18	84.5615	659.18	85.0457	659.18	83.4016	659.18	84.2746	659.18	80.9807	659.18	82.5133	659.18	77.0012	659.18	79.3861	659.18	74.6811	659.18	75.7631	659.18	77.9386	659.18	76.9383	659.18	80.4076	659.18	79.8046	659.18	81.0018
682.617	91.92	682.617	91.7291	682.617	91.8895	682.617	91.3147	682.617	91.6222	682.617	90.6528	682.617	91.0917	682.617	89.7072	682.617	90.2738	682.617	88.4717	682.617	89.178	682.617	87.0709	682.617	87.9258	682.617	85.8938	682.617	86.8483	682.617	85.4331	682.617	86.3515	682.617	85.6141	682.617	86.4067	682.617	85.7884	682.617	86.5053	682.617	85.368	682.617	86.1489	682.617	83.9265	682.617	84.9884	682.617	80.9681	682.617	82.6775	682.617	76.1831	682.617	78.859	682.617	75.8676	682.617	75.8146	682.617	80.111	682.617	78.7995	682.617	82.4035	682.617	81.7164	682.617	82.877
706.055	91.3628	706.055	91.1901	706.055	91.334	706.055	90.8225	706.055	91.0886	706.055	90.2518	706.055	90.6071	706.055	89.456	706.055	89.8697	706.055	88.4205	706.055	88.877	706.055	87.1929	706.055	87.6983	706.055	85.969	706.055	86.5315	706.055	85.0885	706.055	85.6651	706.055	84.6992	706.055	85.2188	706.055	84.4502	706.055	84.9493	706.055	83.7787	706.055	84.4387	706.055	82.1824	706.055	83.2985	706.055	79.1798	706.055	81.1873	706.055	75.4396	706.055	78.0948	706.055	77.1181	706.055	76.7266	706.055	80.7348	706.055	79.3902	706.055	82.6406	706.055	81.8773	706.055	82.9709
732.422	90.2009	732.422	90.0324	732.422	90.2459	732.422	89.7437	732.422	90.1452	732.422	89.306	732.422	89.8612	732.422	88.6554	732.422	89.3354	732.422	87.7163	732.422	88.4937	732.422	86.4497	732.422	87.2835	732.422	84.9459	732.422	85.7712	732.422	83.5877	732.422	84.3107	732.422	82.9532	732.422	83.484	732.422	82.9869	732.422	83.3478	732.422	82.8638	732.422	83.2025	732.422	81.805	732.422	82.3413	732.422	79.1963	732.422	80.2454	732.422	74.9156	732.422	76.609	732.422	74.9782	732.422	74.5481	732.422	78.9816	732.422	77.916	732.422	81.2124	732.422	80.665	732.422	81.7181
758.789	89.8722	758.789	89.7349	758.789	89.865	758.789	89.4473	758.789	89.72	758.789	88.9998	758.789	89.4284	758.789	88.3632	758.789	88.9468	758.789	87.4897	758.789	88.2047	758.789	86.3561	758.789	87.1575	758.789	85.0772	758.789	85.889	758.789	84.0474	758.789	84.7469	758.789	83.7082	758.789	84.239	758.789	83.821	758.789	84.3643	758.789	83.5939	758.789	84.4414	758.789	82.2847	758.789	83.7484	758.789	79.0676	758.789	81.6506	758.789	72.7335	758.789	77.0436	758.789	73.7523	758.789	67.909	758.789	79.0018	758.789	74.8328	758.789	81.1877	758.789	79.5971	758.789	81.3494
785.156	89.0844	785.156	88.9401	785.156	89.1519	785.156	88.7182	785.156	89.1477	785.156	88.4056	785.156	89.0616	785.156	87.9509	785.156	88.8316	785.156	87.2573	785.156	88.3316	785.156	86.1968	785.156	87.3976	785.156	84.662	785.156	85.8773	785.156	82.7531	785.156	83.7628	785.156	81.2066	785.156	81.6554	785.156	80.948	785.156	81.0215	785.156	81.2045	785.156	81.6773	785.156	80.5734	785.156	81.8656	785.156	78.1405	785.156	80.5858	785.156	73.0937	785.156	77.0575	785.156	72.0399	785.156	71.4055	785.156	77.1197	785.156	74.7498	785.156	79.7012	785.156	78.7758	785.156	80.2152
811.523	88.6665	811.523	88.4963	811.523	88.7168	811.523	88.2226	811.523	88.6695	811.523	87.8674	811.523	88.5627	811.523	87.4092	811.523	88.3906	811.523	86.7781	811.523	88.0668	811.523	85.9047	811.523	87.4529	811.523	84.7825	811.523	86.4235	811.523	83.5366	811.523	84.9472	811.523	82.4677	811.523	83.2394	811.523	81.8397	811.523	81.9351	811.523	81.3987	811.523	81.5163	811.523	80.4209	811.523	81.3132	811.523	78.0785	811.523	80.2188	811.523	73.3602	811.523	77.2707	811.523	69.8225	811.523	71.9338	811.523	75.0085	811.523	73.0906	811.523	78.0549	811.523	77.2805	811.523	78.7638
840.82	88.4812	840.82	88.3527	840.82	88.5398	840.82	88.1817	840.82	88.5655	840.82	88.0136	840.82	88.5811	840.82	87.8041	840.82	88.5013	840.82	87.3932	840.82	88.1467	840.82	86.5759	840.82	87.3324	840.82	85.1933	840.82	85.9451	840.82	83.2921	840.82	84.0404	840.82	81.484	840.82	82.095	840.82	80.7159	840.82	81.1401	840.82	80.5261	840.82	81.3895	840.82	79.5696	840.82	81.617	840.82	76.786	840.82	80.7776	840.82	70.3615	840.82	78.2617	840.82	68.1551	840.82	74.3765	840.82	75.4024	840.82	74.6625	840.82	78.374	840.82	77.6916	840.82	78.9979
870.117	89.0365	870.117	88.7829	870.117	88.9751	870.117	88.2779	870.117	88.6533	870.117	87.6993	870.117	88.2136	870.117	87.2146	870.117	87.8217	870.117	86.7677	870.117	87.5395	870.117	86.1066	870.117	87.2324	870.117	85.0622	870.117	86.6489	870.117	83.8193	870.117	85.6056	870.117	83.0068	870.117	84.1962	870.117	82.9726	870.117	83.0249	870.117	83.0343	870.117	82.6819	870.117	82.2451	870.117	82.4765	870.117	79.715	870.117	81.1196	870.117	73.3977	870.117	77.2276	870.117	59.9955	870.117	66.2678	870.117	75.1377	870.117	71.8641	870.117	78.7076	870.117	77.6614	870.117	79.3453
902.344	90.5059	902.344	90.2335	902.344	90.3644	902.344	89.6251	902.344	89.8757	902.344	88.9021	902.344	89.2282	902.344	88.305	902.344	88.6338	902.344	87.8039	902.344	88.139	902.344	87.0452	902.344	87.5395	902.344	85.6569	902.344	86.5061	902.344	83.5563	902.344	84.7539	902.344	81.5	902.344	82.3605	902.344	81.1754	902.344	80.8412	902.344	82.0392	902.344	81.6894	902.344	82.1611	902.344	82.6362	902.344	80.4926	902.344	81.9903	902.344	75.6242	902.344	78.9531	902.344	56.2295	902.344	71.1763	902.344	72.7614	902.344	63.6522	902.344	77.0106	902.344	74.6434	902.344	77.3644
931.641	90.2965	931.641	90.0348	931.641	90.2114	931.641	89.429	931.641	89.802	931.641	88.5508	931.641	89.1294	931.641	87.6043	931.641	88.3225	931.641	86.7975	931.641	87.5619	931.641	86.0309	931.641	86.9354	931.641	84.9415	931.641	86.2546	931.641	83.3121	931.641	85.1344	931.641	81.6224	931.641	83.3546	931.641	81.344	931.641	81.5782	931.641	82.4222	931.641	81.4944	931.641	83.09	931.641	82.41	931.641	82.3472	931.641	82.3746	931.641	79.4462	931.641	80.4458	931.641	72.1897	931.641	75.3263	931.641	62.6172	931.641	54.5802	931.641	73.6294	931.641	71.4376	931.641	75.1057
966.797	90.4178	966.797	90.1708	966.797	90.3647	966.797	89.5868	966.797	90.0526	966.797	88.7037	966.797	89.5222	966.797	87.7226	966.797	88.8471	966.797	86.9227	966.797	88.1397	966.797	86.3143	966.797	87.4313	966.797	85.5485	966.797	86.508	966.797	84.275	966.797	84.9892	966.797	82.474	966.797	82.64	966.797	80.8185	966.797	80.0984	966.797	80.3906	966.797	79.7478	966.797	80.6765	966.797	81.202	966.797	80.1992	966.797	81.8111	966.797	77.9047	966.797	80.4389	966.797	72.1249	966.797	75.955	966.797	64.4111	966.797	69.3701	966.797	73.7137	966.797	74.6157	966.797	76.3561
999.023	89.7515	999.023	89.6779	999.023	89.5753	999.023	89.3424	999.023	89.2046	999.023	88.7649	999.023	88.7358	999.023	88.031	999.023	88.2362	999.023	87.2646	999.023	87.6874	999.023	86.4482	999.023	87.0234	999.023	85.3362	999.023	86.1754	999.023	83.6574	999.023	85.0409	999.023	81.5173	999.023	83.4863	999.023	80.1061	999.023	81.5831	999.023	80.5146	999.023	80.2961	999.023	81.1533	999.023	80.7009	999.023	80.4293	999.023	81.1925	999.023	77.2783	999.023	79.7754	999.023	70.5479	999.023	74.5687	999.023	74.3458	999.023	69.8493	999.023	78.8772	999.023	77.3176	999.023	79.7549
1,034.18	89.7915	1,034.18	89.6197	1,034.18	89.6806	1,034.18	89.163	1,034.18	89.2905	1,034.18	88.4529	1,034.18	88.6372	1,034.18	87.6029	1,034.18	87.7936	1,034.18	86.7906	1,034.18	86.9266	1,034.18	86.1008	1,034.18	86.2119	1,034.18	85.3699	1,034.18	85.6059	1,034.18	84.2655	1,034.18	84.8207	1,034.18	82.5595	1,034.18	83.5641	1,034.18	80.6337	1,034.18	81.728	1,034.18	79.8271	1,034.18	79.8215	1,034.18	80.088	1,034.18	79.3022	1,034.18	79.5525	1,034.18	79.5975	1,034.18	76.7799	1,034.18	78.3294	1,034.18	70.4333	1,034.18	73.4706	1,034.18	72.3204	1,034.18	67.9363	1,034.18	76.9285	1,034.18	75.2183	1,034.18	77.7795
1,072.27	90.0299	1,072.27	89.814	1,072.27	89.944	1,072.27	89.2879	1,072.27	89.5595	1,072.27	88.4547	1,072.27	88.859	1,072.27	87.3624	1,072.27	87.8311	1,072.27	86.1628	1,072.27	86.5707	1,072.27	85.0933	1,072.27	85.3583	1,072.27	84.2153	1,072.27	84.4613	1,072.27	83.1831	1,072.27	83.7332	1,072.27	81.545	1,072.27	82.6967	1,072.27	79.5659	1,072.27	81.0834	1,072.27	79.0309	1,072.27	79.6189	1,072.27	79.8168	1,072.27	79.5757	1,072.27	79.3805	1,072.27	79.5329	1,072.27	75.8365	1,072.27	77.2911	1,072.27	66.6645	1,072.27	70.0244	1,072.27	74.3244	1,072.27	66.2821	1,072.27	78.304	1,072.27	75.6306	1,072.27	78.5057
1,110.35	89.3457	1,110.35	89.1093	1,110.35	89.2553	1,110.35	88.5976	1,110.35	88.873	1,110.35	87.8388	1,110.35	88.2858	1,110.35	86.7956	1,110.35	87.5267	1,110.35	85.5191	1,110.35	86.5981	1,110.35	84.2622	1,110.35	85.5676	1,110.35	83.2368	1,110.35	84.5261	1,110.35	82.274	1,110.35	83.4637	1,110.35	81.0235	1,110.35	82.2043	1,110.35	79.4944	1,110.35	80.4196	1,110.35	78.5567	1,110.35	78.2018	1,110.35	78.7963	1,110.35	77.4915	1,110.35	78.6929	1,110.35	78.4804	1,110.35	76.4959	1,110.35	78.0883	1,110.35	71.2993	1,110.35	74.4206	1,110.35	72.2805	1,110.35	65.8732	1,110.35	76.0834	1,110.35	72.6821	1,110.35	76.3587
1,148.44	89.618	1,148.44	89.4607	1,148.44	89.4937	1,148.44	89.0217	1,148.44	89.1605	1,148.44	88.2921	1,148.44	88.7175	1,148.44	87.2098	1,148.44	88.1502	1,148.44	85.7955	1,148.44	87.3124	1,148.44	84.3798	1,148.44	86.0965	1,148.44	83.408	1,148.44	84.6485	1,148.44	82.6147	1,148.44	83.4123	1,148.44	81.1968	1,148.44	82.5334	1,148.44	78.8836	1,148.44	81.3755	1,148.44	77.0512	1,148.44	79.3306	1,148.44	77.1801	1,148.44	77.3212	1,148.44	77.0277	1,148.44	77.4444	1,148.44	74.4125	1,148.44	77.4358	1,148.44	67.5553	1,148.44	74.7992	1,148.44	72.4148	1,148.44	70.1698	1,148.44	77.0818	1,148.44	74.2679	1,148.44	77.4971
1,189.45	90.2093	1,189.45	90.0015	1,189.45	90.1401	1,189.45	89.4862	1,189.45	89.8114	1,189.45	88.6304	1,189.45	89.2084	1,189.45	87.4527	1,189.45	88.2784	1,189.45	86.1147	1,189.45	87.036	1,189.45	84.8609	1,189.45	85.6993	1,189.45	83.7205	1,189.45	84.5061	1,189.45	82.5048	1,189.45	83.4094	1,189.45	80.9939	1,189.45	82.3377	1,189.45	78.6545	1,189.45	81.2247	1,189.45	75.3107	1,189.45	79.6458	1,189.45	74.9308	1,189.45	77.9764	1,189.45	76.9008	1,189.45	78.3335	1,189.45	76.1227	1,189.45	78.8429	1,189.45	70.2245	1,189.45	76.6452	1,189.45	64.8214	1,189.45	69.695	1,189.45	72.1146	1,189.45	67.6529	1,189.45	72.6122
1,230.47	90.6216	1,230.47	90.493	1,230.47	90.5391	1,230.47	90.074	1,230.47	90.3316	1,230.47	89.3565	1,230.47	89.9474	1,230.47	88.337	1,230.47	89.2268	1,230.47	86.9936	1,230.47	88.114	1,230.47	85.4033	1,230.47	86.7663	1,230.47	83.861	1,230.47	85.3934	1,230.47	82.6388	1,230.47	84.0483	1,230.47	81.4709	1,230.47	82.7215	1,230.47	79.7485	1,230.47	81.3945	1,230.47	77.2607	1,230.47	80.0023	1,230.47	75.6797	1,230.47	78.8256	1,230.47	76.294	1,230.47	78.1298	1,230.47	75.48	1,230.47	76.8792	1,230.47	70.0443	1,230.47	73.2854	1,230.47	56.5766	1,230.47	63.8495	1,230.47	70.4464	1,230.47	67.3505	1,230.47	71.8289
1,274.41	90.9116	1,274.41	90.7673	1,274.41	90.7727	1,274.41	90.2703	1,274.41	90.4419	1,274.41	89.4566	1,274.41	89.8883	1,274.41	88.3872	1,274.41	89.0254	1,274.41	87.1094	1,274.41	87.8822	1,274.41	85.7342	1,274.41	86.6153	1,274.41	84.4276	1,274.41	85.3666	1,274.41	83.2537	1,274.41	84.1377	1,274.41	82.0415	1,274.41	82.7832	1,274.41	80.4089	1,274.41	81.1273	1,274.41	78.187	1,274.41	79.211	1,274.41	76.7437	1,274.41	77.8777	1,274.41	77.6104	1,274.41	78.1895	1,274.41	78.1098	1,274.41	78.6851	1,274.41	75.8466	1,274.41	77.1887	1,274.41	67.4049	1,274.41	72.0049	1,274.41	63.5045	1,274.41	67.5572	1,274.41	69.9813
1,318.36	90.3648	1,318.36	90.2611	1,318.36	90.2486	1,318.36	89.8796	1,318.36	89.9717	1,318.36	89.2051	1,318.36	89.4821	1,318.36	88.1899	1,318.36	88.6832	1,318.36	86.8715	1,318.36	87.5836	1,318.36	85.5662	1,318.36	86.2649	1,318.36	84.4933	1,318.36	84.742	1,318.36	83.2809	1,318.36	83.0898	1,318.36	81.6558	1,318.36	81.6254	1,318.36	80.0385	1,318.36	80.4614	1,318.36	78.6336	1,318.36	79.1559	1,318.36	77.3281	1,318.36	77.5164	1,318.36	76.7861	1,318.36	76.5388	1,318.36	76.0708	1,318.36	76.0543	1,318.36	72.661	1,318.36	73.4031	1,318.36	67.2478	1,318.36	68.2488	1,318.36	72.2173	1,318.36	72.1903	1,318.36	74.3651
1,365.23	89.4844	1,365.23	89.4807	1,365.23	89.3349	1,365.23	89.2707	1,365.23	89.1317	1,365.23	88.7543	1,365.23	88.8549	1,365.23	87.8023	1,365.23	88.292	1,365.23	86.502	1,365.23	87.2612	1,365.23	85.1514	1,365.23	85.7683	1,365.23	83.8223	1,365.23	84.0452	1,365.23	82.3672	1,365.23	82.4448	1,365.23	80.9476	1,365.23	81.1004	1,365.23	79.7477	1,365.23	79.979	1,365.23	78.5226	1,365.23	78.8712	1,365.23	77.3012	1,365.23	76.9414	1,365.23	76.7038	1,365.23	74.3464	1,365.23	75.8062	1,365.23	73.9313	1,365.23	71.5118	1,365.23	73.0378	1,365.23	62.5558	1,365.23	65.5985	1,365.23	72.4201	1,365.23	65.8753	1,365.23	73.3128
1,415.04	89.601	1,415.04	89.3552	1,415.04	89.5063	1,415.04	88.7908	1,415.04	89.178	1,415.04	88.0111	1,415.04	88.6603	1,415.04	87.0233	1,415.04	87.8595	1,415.04	85.7821	1,415.04	86.7079	1,415.04	84.2912	1,415.04	85.2878	1,415.04	82.5454	1,415.04	83.7483	1,415.04	80.7405	1,415.04	82.1019	1,415.04	79.5268	1,415.04	80.3463	1,415.04	78.8194	1,415.04	78.9669	1,415.04	77.5954	1,415.04	78.0936	1,415.04	75.9443	1,415.04	76.5479	1,415.04	75.4301	1,415.04	74.5755	1,415.04	75.3795	1,415.04	75.0923	1,415.04	73.5116	1,415.04	75.3896	1,415.04	68.4058	1,415.04	71.9682	1,415.04	64.6106	1,415.04	64.3165	1,415.04	65.8735
1,464.84	90.3869	1,464.84	90.0324	1,464.84	90.2861	1,464.84	89.2948	1,464.84	89.782	1,464.84	88.294	1,464.84	88.932	1,464.84	87.0506	1,464.84	87.8478	1,464.84	85.6304	1,464.84	86.6536	1,464.84	84.1165	1,464.84	85.3093	1,464.84	82.4178	1,464.84	83.7964	1,464.84	80.6556	1,464.84	82.1833	1,464.84	79.3219	1,464.84	80.4023	1,464.84	78.4216	1,464.84	79.064	1,464.84	77.4257	1,464.84	78.6728	1,464.84	75.7652	1,464.84	77.4709	1,464.84	74.7549	1,464.84	75.6439	1,464.84	75.4882	1,464.84	76.7735	1,464.84	74.0284	1,464.84	76.8747	1,464.84	68.0639	1,464.84	72.8496	1,464.84	68.3142	1,464.84	66.1356	1,464.84	69.5683
1,514.65	91.2383	1,514.65	90.8692	1,514.65	91.1551	1,514.65	90.0968	1,514.65	90.6539	1,514.65	89.0569	1,514.65	89.8002	1,514.65	87.8172	1,514.65	88.7731	1,514.65	86.3984	1,514.65	87.7035	1,514.65	84.9015	1,514.65	86.4398	1,514.65	83.3613	1,514.65	84.9164	1,514.65	81.623	1,514.65	83.2937	1,514.65	79.7035	1,514.65	81.4283	1,514.65	77.9885	1,514.65	79.6414	1,514.65	76.3824	1,514.65	78.9086	1,514.65	74.3332	1,514.65	77.5938	1,514.65	74.0879	1,514.65	75.3489	1,514.65	75.9969	1,514.65	76.1806	1,514.65	75.3123	1,514.65	76.0789	1,514.65	69.1722	1,514.65	72.0129	1,514.65	59.7199	1,514.65	62.058	1,514.65	62.975
1,570.31	91.2252	1,570.31	90.8673	1,570.31	91.1306	1,570.31	90.175	1,570.31	90.552	1,570.31	89.2043	1,570.31	89.6252	1,570.31	87.9478	1,570.31	88.4723	1,570.31	86.4303	1,570.31	87.0418	1,570.31	84.7293	1,570.31	85.3807	1,570.31	83.1111	1,570.31	83.7721	1,570.31	81.7807	1,570.31	82.3453	1,570.31	79.798	1,570.31	80.8113	1,570.31	76.7296	1,570.31	78.7881	1,570.31	75.5792	1,570.31	76.9359	1,570.31	74.6975	1,570.31	76.1094	1,570.31	72.4709	1,570.31	74.8311	1,570.31	74.7521	1,570.31	75.016	1,570.31	74.693	1,570.31	75.9971	1,570.31	69.617	1,570.31	73.2234	1,570.31	68.591	1,570.31	67.9234	1,570.31	70.2532
1,623.05	90.853	1,623.05	90.5406	1,623.05	90.7144	1,623.05	89.791	1,623.05	90.1056	1,623.05	88.6298	1,623.05	89.0847	1,623.05	87.2725	1,623.05	87.8223	1,623.05	85.9548	1,623.05	86.397	1,623.05	84.4304	1,623.05	84.7101	1,623.05	82.7453	1,623.05	82.8272	1,623.05	81.6283	1,623.05	81.1005	1,623.05	80.0596	1,623.05	79.5834	1,623.05	76.861	1,623.05	77.8347	1,623.05	74.91	1,623.05	75.9153	1,623.05	74.0831	1,623.05	74.304	1,623.05	71.8692	1,623.05	71.9246	1,623.05	73.1518	1,623.05	73.2192	1,623.05	74.1645	1,623.05	75.1201	1,623.05	71.3277	1,623.05	72.8185	1,623.05	67.9784	1,623.05	67.5689	1,623.05	68.8399
1,681.64	90.053	1,681.64	89.8289	1,681.64	89.8427	1,681.64	89.0307	1,681.64	89.2352	1,681.64	87.6344	1,681.64	88.2224	1,681.64	85.9468	1,681.64	86.8848	1,681.64	84.2713	1,681.64	85.4607	1,681.64	82.5655	1,681.64	84.0653	1,681.64	80.8978	1,681.64	82.2896	1,681.64	79.4911	1,681.64	79.9793	1,681.64	77.7832	1,681.64	78.0338	1,681.64	75.1132	1,681.64	76.4253	1,681.64	73.0364	1,681.64	74.4362	1,681.64	72.1676	1,681.64	72.7783	1,681.64	70.6076	1,681.64	69.0468	1,681.64	72.341	1,681.64	65.5713	1,681.64	72.2937	1,681.64	69.9884	1,681.64	68.4881	1,681.64	70.0714	1,681.64	69.7167	1,681.64	67.8773	1,681.64	70.079
1,740.23	90.1299	1,740.23	89.6475	1,740.23	90.0327	1,740.23	88.7263	1,740.23	89.4026	1,740.23	87.4161	1,740.23	88.3388	1,740.23	85.6205	1,740.23	86.9692	1,740.23	83.7201	1,740.23	85.4845	1,740.23	82.1534	1,740.23	83.8506	1,740.23	80.3462	1,740.23	81.8652	1,740.23	78.1909	1,740.23	79.7158	1,740.23	76.4414	1,740.23	77.8267	1,740.23	73.8715	1,740.23	75.7619	1,740.23	71.2827	1,740.23	73.5596	1,740.23	71.6439	1,740.23	72.7787	1,740.23	69.5925	1,740.23	71.5906	1,740.23	67.4564	1,740.23	69.6339	1,740.23	70.6084	1,740.23	71.4913	1,740.23	69.7421	1,740.23	71.7506	1,740.23	68.6127	1,740.23	70.5334	1,740.23	70.0828
1,801.76	90.1848	1,801.76	89.8205	1,801.76	90.1035	1,801.76	89.0353	1,801.76	89.5112	1,801.76	87.7198	1,801.76	88.4309	1,801.76	85.8796	1,801.76	86.957	1,801.76	83.848	1,801.76	85.2609	1,801.76	81.7211	1,801.76	83.4595	1,801.76	79.1776	1,801.76	81.2457	1,801.76	77.1281	1,801.76	78.5222	1,801.76	75.971	1,801.76	76.4187	1,801.76	73.048	1,801.76	74.6849	1,801.76	70.2136	1,801.76	72.1101	1,801.76	70.4519	1,801.76	71.7531	1,801.76	68.3998	1,801.76	71.0608	1,801.76	69.962	1,801.76	67.8151	1,801.76	69.5131	1,801.76	69.1554	1,801.76	65.1764	1,801.76	67.8348	1,801.76	70.342	1,801.76	66.3274	1,801.76	71.6372
1,866.21	89.8401	1,866.21	89.5238	1,866.21	89.5956	1,866.21	88.6957	1,866.21	88.849	1,866.21	87.3725	1,866.21	87.6874	1,866.21	85.5668	1,866.21	86.1407	1,866.21	83.5099	1,866.21	84.2296	1,866.21	81.5137	1,866.21	81.9595	1,866.21	79.4816	1,866.21	79.5212	1,866.21	77.2626	1,866.21	77.1988	1,866.21	75.3326	1,866.21	74.9574	1,866.21	72.978	1,866.21	72.7717	1,866.21	69.8318	1,866.21	70.5878	1,866.21	70.7896	1,866.21	69.6764	1,866.21	70.1747	1,866.21	70.0939	1,866.21	67.6993	1,866.21	69.3923	1,866.21	70.6036	1,866.21	70.4073	1,866.21	69.5226	1,866.21	69.4634	1,866.21	67.5096	1,866.21	68.2643	1,866.21	69.6889
1,930.66	88.7731	1,930.66	88.3572	1,930.66	88.5389	1,930.66	87.3428	1,930.66	87.7605	1,930.66	85.9182	1,930.66	86.5273	1,930.66	84.1113	1,930.66	84.8457	1,930.66	81.9731	1,930.66	82.7041	1,930.66	79.7936	1,930.66	80.5006	1,930.66	77.7474	1,930.66	78.4908	1,930.66	76.0365	1,930.66	76.0282	1,930.66	74.664	1,930.66	74.0877	1,930.66	72.7541	1,930.66	73.1653	1,930.66	70.4448	1,930.66	70.2169	1,930.66	68.8234	1,930.66	68.5441	1,930.66	69.0047	1,930.66	69.0902	1,930.66	69.3691	1,930.66	66.1644	1,930.66	67.61	1,930.66	68.0438	1,930.66	65.1906	1,930.66	66.4879	1,930.66	70.0082	1,930.66	63.3288	1,930.66	70.6427
2,000.98	88.8741	2,000.98	88.3947	2,000.98	88.8686	2,000.98	87.4627	2,000.98	88.3846	2,000.98	85.9866	2,000.98	87.3775	2,000.98	83.7929	2,000.98	85.8011	2,000.98	81.186	2,000.98	83.7097	2,000.98	79.0843	2,000.98	81.4695	2,000.98	77.2768	2,000.98	79.6645	2,000.98	74.1899	2,000.98	77.4806	2,000.98	71.5792	2,000.98	74.1693	2,000.98	71.5271	2,000.98	73.1008	2,000.98	68.1348	2,000.98	72.227	2,000.98	68.4752	2,000.98	68.4906	2,000.98	69.6834	2,000.98	70.367	2,000.98	69.128	2,000.98	70.161	2,000.98	70.5239	2,000.98	69.9063	2,000.98	65.338	2,000.98	69.2931	2,000.98	69.217	2,000.98	65.974	2,000.98	71.3291
2,071.29	89.8405	2,071.29	89.4619	2,071.29	89.7408	2,071.29	88.4257	2,071.29	89.1562	2,071.29	86.9558	2,071.29	87.9454	2,071.29	85.1496	2,071.29	86.1365	2,071.29	82.6355	2,071.29	83.7658	2,071.29	79.8526	2,071.29	81.2506	2,071.29	77.685	2,071.29	79.4312	2,071.29	75.6509	2,071.29	77.7182	2,071.29	73.5483	2,071.29	75.4224	2,071.29	71.6599	2,071.29	73.9803	2,071.29	68.524	2,071.29	72.017	2,071.29	66.4004	2,071.29	67.6236	2,071.29	67.8508	2,071.29	68.172	2,071.29	67.9658	2,071.29	68.9591	2,071.29	69.7889	2,071.29	71.2089	2,071.29	67.8549	2,071.29	70.7919	2,071.29	66.2624	2,071.29	67.5235	2,071.29	69.4865
2,144.53	89.8292	2,144.53	89.4486	2,144.53	89.5268	2,144.53	88.5854	2,144.53	88.6409	2,144.53	87.204	2,144.53	87.5172	2,144.53	85.2499	2,144.53	85.9548	2,144.53	82.8599	2,144.53	83.5873	2,144.53	80.286	2,144.53	80.6439	2,144.53	78.2266	2,144.53	78.219	2,144.53	76.5507	2,144.53	76.5494	2,144.53	74.0249	2,144.53	73.5918	2,144.53	73.5306	2,144.53	71.8596	2,144.53	71.9436	2,144.53	71.9941	2,144.53	62.4837	2,144.53	66.2445	2,144.53	66.7564	2,144.53	67.1415	2,144.53	66.8105	2,144.53	68.3644	2,144.53	69.8964	2,144.53	68.5504	2,144.53	66.0417	2,144.53	68.0586	2,144.53	69.9706	2,144.53	64.9218	2,144.53	72.068
2,217.77	89.0045	2,217.77	88.487	2,217.77	88.8612	2,217.77	87.3824	2,217.77	88.0204	2,217.77	85.8268	2,217.77	86.6298	2,217.77	84.3088	2,217.77	84.7173	2,217.77	82.3829	2,217.77	82.904	2,217.77	79.7051	2,217.77	80.9086	2,217.77	77.8381	2,217.77	77.528	2,217.77	76.9135	2,217.77	75.6659	2,217.77	74.6256	2,217.77	74.7677	2,217.77	72.8043	2,217.77	71.1488	2,217.77	72.0812	2,217.77	70.9788	2,217.77	68.4953	2,217.77	68.9743	2,217.77	66.9229	2,217.77	60.3191	2,217.77	65.5682	2,217.77	57.9105	2,217.77	68.4175	2,217.77	66.3392	2,217.77	68.118	2,217.77	68.0091	2,217.77	69.5507	2,217.77	62.8495	2,217.77	70.2157
2,296.88	90.3982	2,296.88	89.8182	2,296.88	90.2413	2,296.88	88.3539	2,296.88	89.5325	2,296.88	86.6745	2,296.88	88.0565	2,296.88	84.619	2,296.88	86.301	2,296.88	82.2138	2,296.88	84.4452	2,296.88	80.0976	2,296.88	82.4063	2,296.88	77.9413	2,296.88	80.1058	2,296.88	76.0185	2,296.88	77.6732	2,296.88	73.5906	2,296.88	76.3295	2,296.88	71.1528	2,296.88	74.1825	2,296.88	71.7764	2,296.88	72.494	2,296.88	66.9851	2,296.88	71.796	2,296.88	66.2555	2,296.88	68.2718	2,296.88	64.8666	2,296.88	68.6746	2,296.88	66.9386	2,296.88	65.3059	2,296.88	66.6394	2,296.88	68.0981	2,296.88	68.5109	2,296.88	63.1568	2,296.88	68.8785
2,378.91	91.0999	2,378.91	90.6228	2,378.91	90.8946	2,378.91	89.8209	2,378.91	89.9935	2,378.91	88.363	2,378.91	88.7744	2,378.91	86.1532	2,378.91	86.8822	2,378.91	83.9494	2,378.91	84.6504	2,378.91	81.8426	2,378.91	82.9549	2,378.91	79.4933	2,378.91	80.9734	2,378.91	77.838	2,378.91	78.8063	2,378.91	76.0163	2,378.91	76.8009	2,378.91	73.6577	2,378.91	73.8537	2,378.91	73.28	2,378.91	73.7201	2,378.91	69.9611	2,378.91	71.7624	2,378.91	67.779	2,378.91	65.6935	2,378.91	62.4625	2,378.91	66.0198	2,378.91	60.8386	2,378.91	63.7018	2,378.91	55.6032	2,378.91	68.8934	2,378.91	70.1331	2,378.91	65.5073	2,378.91	72.9033
2,460.94	90.6617	2,460.94	90.2266	2,460.94	90.4388	2,460.94	89.0788	2,460.94	89.5322	2,460.94	87.5002	2,460.94	87.891	2,460.94	85.5675	2,460.94	85.9759	2,460.94	83.5738	2,460.94	83.8733	2,460.94	81.7431	2,460.94	81.8756	2,460.94	79.8148	2,460.94	79.8871	2,460.94	78.1145	2,460.94	77.4051	2,460.94	76.5889	2,460.94	76.3507	2,460.94	74.3465	2,460.94	74.4289	2,460.94	73.2654	2,460.94	71.4511	2,460.94	70.5054	2,460.94	71.4368	2,460.94	68.0272	2,460.94	68.1718	2,460.94	69.0174	2,460.94	67.5065	2,460.94	69.212	2,460.94	65.603	2,460.94	66.7459	2,460.94	66.49	2,460.94	69.4349	2,460.94	63.1729	2,460.94	71.5132
2,548.83	90.4966	2,548.83	89.8982	2,548.83	90.325	2,548.83	88.6764	2,548.83	89.4681	2,548.83	86.9432	2,548.83	88.0717	2,548.83	85.0514	2,548.83	86.2402	2,548.83	83.2244	2,548.83	84.3088	2,548.83	81.426	2,548.83	82.313	2,548.83	79.3365	2,548.83	80.3538	2,548.83	77.4994	2,548.83	78.4172	2,548.83	75.9925	2,548.83	76.5184	2,548.83	73.9155	2,548.83	74.5992	2,548.83	73.4919	2,548.83	73.385	2,548.83	72.2151	2,548.83	71.8439	2,548.83	69.5349	2,548.83	68.4311	2,548.83	67.1877	2,548.83	69.312	2,548.83	67.1505	2,548.83	66.826	2,548.83	66.0094	2,548.83	68.4362	2,548.83	69.2	2,548.83	64.2178	2,548.83	72.7139
2,639.65	90.6918	2,639.65	90.2586	2,639.65	90.5227	2,639.65	89.2437	2,639.65	89.6784	2,639.65	87.79	2,639.65	88.2938	2,639.65	85.994	2,639.65	86.7049	2,639.65	84.0435	2,639.65	84.9061	2,639.65	82.1832	2,639.65	83.1541	2,639.65	80.1587	2,639.65	81.3571	2,639.65	77.9832	2,639.65	79.117	2,639.65	76.2363	2,639.65	77.5453	2,639.65	74.1375	2,639.65	75.619	2,639.65	72.8478	2,639.65	73.1451	2,639.65	69.6339	2,639.65	73.078	2,639.65	68.0336	2,639.65	69.9254	2,639.65	70.6689	2,639.65	69.8327	2,639.65	70.2387	2,639.65	68.8891	2,639.65	66.9653	2,639.65	67.9567	2,639.65	71.6221	2,639.65	62.0754	2,639.65	72.8774
2,733.4	90.3742	2,733.4	89.9284	2,733.4	90.1832	2,733.4	89.0122	2,733.4	89.3868	2,733.4	87.6416	2,733.4	88.1613	2,733.4	85.713	2,733.4	86.3885	2,733.4	83.7774	2,733.4	84.2194	2,733.4	82.0182	2,733.4	82.494	2,733.4	80.0473	2,733.4	80.6108	2,733.4	78.0589	2,733.4	78.2742	2,733.4	76.7252	2,733.4	76.6135	2,733.4	74.362	2,733.4	74.5709	2,733.4	73.2335	2,733.4	72.8888	2,733.4	72.0054	2,733.4	71.8556	2,733.4	67.3396	2,733.4	67.3738	2,733.4	67.3379	2,733.4	68.6695	2,733.4	67.744	2,733.4	67.8171	2,733.4	66.2392	2,733.4	70.0797	2,733.4	69.3701	2,733.4	63.0777	2,733.4	73.4469
2,827.15	90.3944	2,827.15	89.8485	2,827.15	90.2222	2,827.15	88.6289	2,827.15	89.3294	2,827.15	87.2491	2,827.15	88.0889	2,827.15	85.6826	2,827.15	86.7416	2,827.15	83.6122	2,827.15	84.8234	2,827.15	81.7217	2,827.15	82.703	2,827.15	79.9624	2,827.15	81.3268	2,827.15	77.3673	2,827.15	79.1514	2,827.15	75.6248	2,827.15	76.769	2,827.15	74.4195	2,827.15	75.6571	2,827.15	72.909	2,827.15	72.8362	2,827.15	71.185	2,827.15	72.7358	2,827.15	67.0311	2,827.15	69.7107	2,827.15	69.815	2,827.15	67.2033	2,827.15	68.732	2,827.15	65.9772	2,827.15	67.0119	2,827.15	68.0509	2,827.15	70.3084	2,827.15	59.5362	2,827.15	72.5914
2,926.76	90.1841	2,926.76	89.7645	2,926.76	89.9812	2,926.76	88.7538	2,926.76	89.0974	2,926.76	87.2837	2,926.76	87.7347	2,926.76	85.7266	2,926.76	86.3901	2,926.76	84.0073	2,926.76	84.7324	2,926.76	82.0354	2,926.76	82.6413	2,926.76	80.3755	2,926.76	80.5858	2,926.76	78.4226	2,926.76	78.8521	2,926.76	76.0834	2,926.76	76.9817	2,926.76	74.2644	2,926.76	74.9714	2,926.76	72.2909	2,926.76	73.0646	2,926.76	72.3649	2,926.76	72.4559	2,926.76	66.313	2,926.76	69.5795	2,926.76	67.1805	2,926.76	67.9201	2,926.76	61.3147	2,926.76	67.3702	2,926.76	64.6668	2,926.76	66.2215	2,926.76	67.2403	2,926.76	61.4149	2,926.76	72.1611
3,032.23	89.4735	3,032.23	88.8596	3,032.23	89.3156	3,032.23	87.7601	3,032.23	88.4017	3,032.23	86.5087	3,032.23	87.2011	3,032.23	85.365	3,032.23	86.0006	3,032.23	83.7862	3,032.23	84.7913	3,032.23	81.5382	3,032.23	82.8091	3,032.23	79.6245	3,032.23	80.7296	3,032.23	78.1877	3,032.23	78.8392	3,032.23	76.2289	3,032.23	76.3831	3,032.23	74.6721	3,032.23	75.2392	3,032.23	73.1743	3,032.23	73.3061	3,032.23	71.8466	3,032.23	71.1641	3,032.23	68.3418	3,032.23	70.5719	3,032.23	68.9745	3,032.23	66.8194	3,032.23	69.0931	3,032.23	65.8134	3,032.23	67.0999	3,032.23	65.4926	3,032.23	68.6882	3,032.23	57.2937	3,032.23	70.6687
3,137.7	89.5341	3,137.7	89.083	3,137.7	89.5426	3,137.7	88.2576	3,137.7	88.8909	3,137.7	87.2117	3,137.7	87.8825	3,137.7	85.9845	3,137.7	86.7285	3,137.7	84.2778	3,137.7	85.2969	3,137.7	81.9449	3,137.7	83.4466	3,137.7	79.5607	3,137.7	81.3012	3,137.7	77.5574	3,137.7	79.1306	3,137.7	75.2133	3,137.7	77.2314	3,137.7	73.1971	3,137.7	75.0242	3,137.7	70.4857	3,137.7	73.1713	3,137.7	70.3098	3,137.7	71.8014	3,137.7	67.3776	3,137.7	69.6353	3,137.7	68.7828	3,137.7	68.1593	3,137.7	62.551	3,137.7	69.0661	3,137.7	65.0385	3,137.7	67.7573	3,137.7	65.7586	3,137.7	63.9849	3,137.7	71.0693
3,249.02	89.3598	3,249.02	88.9948	3,249.02	89.2219	3,249.02	88.3191	3,249.02	88.7822	3,249.02	87.0636	3,249.02	87.9029	3,249.02	85.5837	3,249.02	86.3199	3,249.02	83.8741	3,249.02	84.7368	3,249.02	81.5578	3,249.02	82.9039	3,249.02	79.3351	3,249.02	80.3517	3,249.02	77.7588	3,249.02	78.62	3,249.02	75.8354	3,249.02	76.6609	3,249.02	73.4595	3,249.02	74.6011	3,249.02	72.1451	3,249.02	73.6832	3,249.02	70.0748	3,249.02	71.1777	3,249.02	65.5164	3,249.02	68.9782	3,249.02	67.1922	3,249.02	67.808	3,249.02	67.3464	3,249.02	64.6922	3,249.02	65.6801	3,249.02	65.4734	3,249.02	68.1521	3,249.02	59.555	3,249.02	71.2863
3,363.28	89.2976	3,363.28	88.9169	3,363.28	89.1089	3,363.28	88.2353	3,363.28	88.5841	3,363.28	87.1627	3,363.28	87.6856	3,363.28	85.3045	3,363.28	86.4196	3,363.28	83.2614	3,363.28	84.4906	3,363.28	81.2472	3,363.28	82.3714	3,363.28	79.0223	3,363.28	80.5576	3,363.28	76.8456	3,363.28	78.1854	3,363.28	75.1955	3,363.28	75.6453	3,363.28	73.9011	3,363.28	74.1534	3,363.28	71.3125	3,363.28	72.176	3,363.28	71.1998	3,363.28	69.7926	3,363.28	66.4511	3,363.28	68.0219	3,363.28	67.4786	3,363.28	63.648	3,363.28	65.5115	3,363.28	66.443	3,363.28	66.6363	3,363.28	65.9114	3,363.28	66.12	3,363.28	62.7328	3,363.28	70.6414
3,483.4	89.4447	3,483.4	89.1481	3,483.4	89.2739	3,483.4	88.3197	3,483.4	88.5892	3,483.4	87.1979	3,483.4	87.5836	3,483.4	85.4419	3,483.4	86.2077	3,483.4	83.3069	3,483.4	84.221	3,483.4	81.1395	3,483.4	82.1169	3,483.4	78.6054	3,483.4	79.9639	3,483.4	76.2423	3,483.4	77.3459	3,483.4	74.337	3,483.4	75.4634	3,483.4	72.3221	3,483.4	73.0994	3,483.4	70.0063	3,483.4	71.5288	3,483.4	68.9139	3,483.4	70.4515	3,483.4	67.0623	3,483.4	67.9858	3,483.4	65.1951	3,483.4	65.4911	3,483.4	57.6935	3,483.4	67.3985	3,483.4	64.4752	3,483.4	62.6651	3,483.4	64.9863	3,483.4	63.1451	3,483.4	69.614
3,606.45	89.5947	3,606.45	89.0894	3,606.45	89.4678	3,606.45	88.1628	3,606.45	88.6632	3,606.45	86.7533	3,606.45	87.6356	3,606.45	85.0232	3,606.45	86.1646	3,606.45	82.845	3,606.45	84.1666	3,606.45	80.3794	3,606.45	81.836	3,606.45	77.9779	3,606.45	79.2306	3,606.45	76.3414	3,606.45	77.2159	3,606.45	74.1429	3,606.45	75.5338	3,606.45	72.4284	3,606.45	73.5086	3,606.45	71.2191	3,606.45	72.4715	3,606.45	68.8113	3,606.45	70.4632	3,606.45	66.6347	3,606.45	68.9187	3,606.45	65.4022	3,606.45	63.8926	3,606.45	62.9043	3,606.45	63.818	3,606.45	62.9692	3,606.45	61.3642	3,606.45	64.9293	3,606.45	60.2799	3,606.45	69.2652
3,732.42	89.6496	3,732.42	89.1783	3,732.42	89.3813	3,732.42	88.3391	3,732.42	88.6444	3,732.42	87.0411	3,732.42	87.4637	3,732.42	85.1219	3,732.42	86.0055	3,732.42	82.6121	3,732.42	83.9512	3,732.42	80.0554	3,732.42	81.3529	3,732.42	78.2716	3,732.42	78.678	3,732.42	76.4902	3,732.42	76.8084	3,732.42	74.356	3,732.42	74.6243	3,732.42	72.8968	3,732.42	72.9496	3,732.42	71.144	3,732.42	71.3966	3,732.42	69.6901	3,732.42	69.4239	3,732.42	68.5025	3,732.42	68.1116	3,732.42	66.5967	3,732.42	64.6119	3,732.42	65.0908	3,732.42	65.3689	3,732.42	64.7648	3,732.42	58.8926	3,732.42	61.6525	3,732.42	61.4141	3,732.42	68.2998
3,864.26	89.6203	3,864.26	89.2782	3,864.26	89.3459	3,864.26	88.4639	3,864.26	88.6983	3,864.26	87.2081	3,864.26	87.6273	3,864.26	85.2451	3,864.26	86.118	3,864.26	82.672	3,864.26	83.8635	3,864.26	80.4104	3,864.26	81.2518	3,864.26	78.9178	3,864.26	79.2776	3,864.26	76.9089	3,864.26	77.2562	3,864.26	75.3209	3,864.26	75.2522	3,864.26	73.6088	3,864.26	74.1639	3,864.26	71.209	3,864.26	72.0409	3,864.26	69.8997	3,864.26	70.5612	3,864.26	66.8048	3,864.26	68.3657	3,864.26	68.4643	3,864.26	66.5168	3,864.26	63.1077	3,864.26	67.7375	3,864.26	64.6439	3,864.26	57.9405	3,864.26	62.771	3,864.26	62.5545	3,864.26	68.4759
3,999.02	89.601	3,999.02	89.2827	3,999.02	89.4535	3,999.02	88.6683	3,999.02	88.9317	3,999.02	87.3115	3,999.02	88.038	3,999.02	85.2785	3,999.02	86.3718	3,999.02	83.3332	3,999.02	84.2743	3,999.02	81.3469	3,999.02	82.0179	3,999.02	79.309	3,999.02	80.0425	3,999.02	77.4368	3,999.02	78.0946	3,999.02	75.5702	3,999.02	76.3068	3,999.02	74.2781	3,999.02	74.5669	3,999.02	71.7009	3,999.02	72.7678	3,999.02	70.1078	3,999.02	71.2462	3,999.02	66.3295	3,999.02	69.5063	3,999.02	66.6186	3,999.02	65.498	3,999.02	65.3824	3,999.02	67.5823	3,999.02	63.4092	3,999.02	58.7457	3,999.02	63.1152	3,999.02	61.291	3,999.02	68.6214
4,139.65	89.6903	4,139.65	89.4711	4,139.65	89.5643	4,139.65	88.8984	4,139.65	89.1157	4,139.65	87.6674	4,139.65	88.262	4,139.65	85.7266	4,139.65	86.677	4,139.65	84.0049	4,139.65	84.5369	4,139.65	82.1142	4,139.65	82.4285	4,139.65	79.9851	4,139.65	80.446	4,139.65	78.1159	4,139.65	78.5892	4,139.65	75.834	4,139.65	77.0352	4,139.65	74.125	4,139.65	74.9396	4,139.65	72.2765	4,139.65	73.122	4,139.65	69.9247	4,139.65	71.2911	4,139.65	67.7402	4,139.65	70.4264	4,139.65	65.0196	4,139.65	67.2163	4,139.65	65.9982	4,139.65	66.7743	4,139.65	62.2486	4,139.65	60.7104	4,139.65	59.1569	4,139.65	61.0295	4,139.65	68.0291
4,286.13	89.4425	4,286.13	89.336	4,286.13	89.3084	4,286.13	88.9108	4,286.13	89.1126	4,286.13	87.8164	4,286.13	88.5033	4,286.13	85.8449	4,286.13	86.9207	4,286.13	83.7887	4,286.13	84.8656	4,286.13	81.8263	4,286.13	82.9907	4,286.13	79.8978	4,286.13	81.0536	4,286.13	78.1653	4,286.13	79.1536	4,286.13	76.1259	4,286.13	77.3102	4,286.13	74.6369	4,286.13	75.1012	4,286.13	73.2265	4,286.13	73.2309	4,286.13	71.4181	4,286.13	71.8981	4,286.13	69.5891	4,286.13	69.9173	4,286.13	67.2641	4,286.13	67.6991	4,286.13	66.6254	4,286.13	67.4455	4,286.13	65.5393	4,286.13	61.9459	4,286.13	58.3034	4,286.13	62.8858	4,286.13	68.3483
4,438.48	89.4706	4,438.48	89.3913	4,438.48	89.3753	4,438.48	89.1873	4,438.48	89.2326	4,438.48	88.1895	4,438.48	88.5651	4,438.48	86.2651	4,438.48	86.7606	4,438.48	84.167	4,438.48	84.6286	4,438.48	82.3216	4,438.48	82.7118	4,438.48	80.209	4,438.48	80.7381	4,438.48	78.1043	4,438.48	78.7433	4,438.48	75.5958	4,438.48	76.6571	4,438.48	73.2676	4,438.48	74.5333	4,438.48	71.2838	4,438.48	72.7221	4,438.48	69.7331	4,438.48	71.1956	4,438.48	67.2302	4,438.48	69.0181	4,438.48	65.2935	4,438.48	67.3614	4,438.48	63.1192	4,438.48	66.7099	4,438.48	63.6617	4,438.48	61.6248	4,438.48	58.8246	4,438.48	61.6451	4,438.48	67.3742
4,593.75	89.1715	4,593.75	89.3612	4,593.75	89.1367	4,593.75	89.2429	4,593.75	89.281	4,593.75	87.8308	4,593.75	88.5778	4,593.75	85.7038	4,593.75	86.6594	4,593.75	83.604	4,593.75	84.6982	4,593.75	81.6507	4,593.75	82.907	4,593.75	79.3043	4,593.75	80.8324	4,593.75	77.2503	4,593.75	78.5781	4,593.75	75.0057	4,593.75	76.3452	4,593.75	73.4067	4,593.75	74.2383	4,593.75	71.6118	4,593.75	72.3846	4,593.75	70.3499	4,593.75	70.732	4,593.75	68.7533	4,593.75	69.0257	4,593.75	66.7927	4,593.75	67.4271	4,593.75	65.5883	4,593.75	66.4038	4,593.75	62.6761	4,593.75	62.6708	4,593.75	58.3394	4,593.75	58.7573	4,593.75	66.403
4,757.81	88.8013	4,757.81	89.2136	4,757.81	88.8854	4,757.81	89.0448	4,757.81	89.2008	4,757.81	87.6407	4,757.81	88.3846	4,757.81	85.605	4,757.81	86.4944	4,757.81	83.681	4,757.81	84.5809	4,757.81	81.949	4,757.81	82.8546	4,757.81	79.5745	4,757.81	80.7323	4,757.81	77.1685	4,757.81	78.3821	4,757.81	75.1205	4,757.81	76.0196	4,757.81	72.5224	4,757.81	73.9068	4,757.81	70.0769	4,757.81	72.3174	4,757.81	68.6652	4,757.81	70.4038	4,757.81	66.8274	4,757.81	69.0713	4,757.81	65.2115	4,757.81	68.0838	4,757.81	64.4488	4,757.81	65.1327	4,757.81	60.3988	4,757.81	63.585	4,757.81	54.063	4,757.81	57.6012	4,757.81	65.6358
4,924.8	89.0438	4,924.8	89.3922	4,924.8	89.1505	4,924.8	89.1003	4,924.8	89.2526	4,924.8	87.4258	4,924.8	88.1127	4,924.8	85.5032	4,924.8	86.1742	4,924.8	83.8702	4,924.8	84.6198	4,924.8	81.3274	4,924.8	82.7023	4,924.8	78.7939	4,924.8	80.4114	4,924.8	76.3578	4,924.8	77.7781	4,924.8	74.1735	4,924.8	75.3492	4,924.8	72.2306	4,924.8	73.4219	4,924.8	71.1676	4,924.8	71.4577	4,924.8	69.4418	4,924.8	69.4171	4,924.8	67.2612	4,924.8	68.0495	4,924.8	65.9426	4,924.8	67.2261	4,924.8	65.8376	4,924.8	65.2931	4,924.8	59.6529	4,924.8	64.0842	4,924.8	49.9613	4,924.8	56.19	4,924.8	66.361
5,097.66	88.0544	5,097.66	88.4333	5,097.66	88.3168	5,097.66	88.1816	5,097.66	88.5277	5,097.66	86.6961	5,097.66	87.6065	5,097.66	85.2204	5,097.66	86.1948	5,097.66	83.674	5,097.66	85.0028	5,097.66	81.6246	5,097.66	82.9602	5,097.66	79.4221	5,097.66	80.44	5,097.66	77.1294	5,097.66	77.896	5,097.66	75.2985	5,097.66	75.6898	5,097.66	72.9043	5,097.66	73.6587	5,097.66	71.1898	5,097.66	71.7373	5,097.66	68.8616	5,097.66	69.9075	5,097.66	66.3733	5,097.66	67.4035	5,097.66	65.5124	5,097.66	67.3133	5,097.66	64.7374	5,097.66	65.7066	5,097.66	56.7461	5,097.66	65.3257	5,097.66	44.6185	5,097.66	56.7488	5,097.66	66.079
5,279.3	88.6029	5,279.3	88.9297	5,279.3	88.7833	5,279.3	88.5381	5,279.3	88.7534	5,279.3	87.1638	5,279.3	87.6275	5,279.3	85.737	5,279.3	86.1521	5,279.3	83.9192	5,279.3	84.564	5,279.3	81.4484	5,279.3	82.2898	5,279.3	78.7955	5,279.3	79.499	5,279.3	76.0788	5,279.3	77.3285	5,279.3	73.7768	5,279.3	74.4896	5,279.3	71.6037	5,279.3	72.95	5,279.3	70.404	5,279.3	71.1011	5,279.3	68.3939	5,279.3	69.1646	5,279.3	66.8675	5,279.3	67.8543	5,279.3	65.291	5,279.3	65.8584	5,279.3	64.8592	5,279.3	64.1149	5,279.3	58.9119	5,279.3	65.1567	5,279.3	49.539	5,279.3	53.5667	5,279.3	64.9292
5,463.87	88.5048	5,463.87	88.7219	5,463.87	88.6618	5,463.87	88.1632	5,463.87	88.6301	5,463.87	86.754	5,463.87	87.4852	5,463.87	85.3348	5,463.87	86.1916	5,463.87	83.2991	5,463.87	84.7319	5,463.87	80.2711	5,463.87	82.2419	5,463.87	77.7008	5,463.87	79.5364	5,463.87	75.6563	5,463.87	77.0953	5,463.87	74.0648	5,463.87	74.7559	5,463.87	72.2763	5,463.87	73.0927	5,463.87	70.9499	5,463.87	71.3701	5,463.87	68.5607	5,463.87	69.2828	5,463.87	67.2201	5,463.87	67.5677	5,463.87	65.3756	5,463.87	65.5098	5,463.87	64.1869	5,463.87	64.0846	5,463.87	58.4228	5,463.87	64.6001	5,463.87	40.7224	5,463.87	56.915	5,463.87	63.9021
5,657.23	87.8333	5,657.23	88.0366	5,657.23	88.0105	5,657.23	87.4909	5,657.23	87.9445	5,657.23	86.469	5,657.23	87.0056	5,657.23	85.4415	5,657.23	86.0641	5,657.23	83.3584	5,657.23	84.3754	5,657.23	80.8559	5,657.23	81.7081	5,657.23	78.5749	5,657.23	79.0482	5,657.23	76.394	5,657.23	77.058	5,657.23	74.2165	5,657.23	74.8238	5,657.23	71.7828	5,657.23	72.7277	5,657.23	69.7723	5,657.23	70.8823	5,657.23	67.6745	5,657.23	69.2432	5,657.23	66.1054	5,657.23	67.1421	5,657.23	64.6937	5,657.23	65.9893	5,657.23	62.957	5,657.23	63.6753	5,657.23	56.7189	5,657.23	64.4707	5,657.23	43.7245	5,657.23	55.6499	5,657.23	62.6952
5,856.45	88.1609	5,856.45	88.3604	5,856.45	88.241	5,856.45	87.8839	5,856.45	88.1233	5,856.45	87.2004	5,856.45	87.3363	5,856.45	85.966	5,856.45	86.3217	5,856.45	83.5609	5,856.45	84.5369	5,856.45	80.9603	5,856.45	81.7167	5,856.45	78.7009	5,856.45	79.2744	5,856.45	75.9789	5,856.45	77.2638	5,856.45	73.4353	5,856.45	74.6418	5,856.45	71.4043	5,856.45	72.8938	5,856.45	69.7903	5,856.45	70.7195	5,856.45	67.8122	5,856.45	69.399	5,856.45	67.4318	5,856.45	67.6391	5,856.45	66.2228	5,856.45	66.1132	5,856.45	63.9028	5,856.45	63.9705	5,856.45	57.9709	5,856.45	64.6292	5,856.45	51.4236	5,856.45	55.6375	5,856.45	62.9016
6,061.52	88.5115	6,061.52	88.6192	6,061.52	88.6988	6,061.52	88.1342	6,061.52	88.4387	6,061.52	87.5385	6,061.52	87.7824	6,061.52	86.0914	6,061.52	86.9586	6,061.52	83.458	6,061.52	84.8412	6,061.52	80.9953	6,061.52	82.269	6,061.52	78.7422	6,061.52	79.8139	6,061.52	76.1925	6,061.52	77.9409	6,061.52	74.2119	6,061.52	75.5863	6,061.52	72.3994	6,061.52	73.3141	6,061.52	70.279	6,061.52	70.945	6,061.52	67.9739	6,061.52	69.6355	6,061.52	67.2185	6,061.52	67.141	6,061.52	65.8428	6,061.52	66.2712	6,061.52	63.6073	6,061.52	64.1354	6,061.52	57.0687	6,061.52	63.9601	6,061.52	52.4953	6,061.52	57.2809	6,061.52	62.0774
6,275.39	88.5626	6,275.39	88.4753	6,275.39	88.6796	6,275.39	88.1281	6,275.39	88.4891	6,275.39	87.6259	6,275.39	87.9697	6,275.39	86.0683	6,275.39	87.1312	6,275.39	83.5104	6,275.39	84.8916	6,275.39	81.3376	6,275.39	82.605	6,275.39	79.1144	6,275.39	80.3537	6,275.39	76.919	6,275.39	77.9247	6,275.39	74.8677	6,275.39	75.5278	6,275.39	72.5784	6,275.39	73.1405	6,275.39	70.0939	6,275.39	71.2283	6,275.39	67.3455	6,275.39	69.5841	6,275.39	66.8492	6,275.39	67.2157	6,275.39	65.7231	6,275.39	66.8474	6,275.39	63.218	6,275.39	64.5636	6,275.39	56.1187	6,275.39	64.4053	6,275.39	50.2876	6,275.39	56.2178	6,275.39	61.6387
6,498.05	88.9245	6,498.05	88.8479	6,498.05	88.9058	6,498.05	88.6008	6,498.05	88.5961	6,498.05	88.246	6,498.05	88.3065	6,498.05	86.5056	6,498.05	87.3574	6,498.05	84.3184	6,498.05	85.169	6,498.05	82.1183	6,498.05	83.0995	6,498.05	79.8447	6,498.05	81.023	6,498.05	77.1021	6,498.05	78.2191	6,498.05	74.3486	6,498.05	75.763	6,498.05	71.7864	6,498.05	73.3937	6,498.05	70.0118	6,498.05	71.4376	6,498.05	68.6766	6,498.05	69.9049	6,498.05	67.3939	6,498.05	66.4992	6,498.05	65.3969	6,498.05	65.7772	6,498.05	64.2208	6,498.05	65.4308	6,498.05	58.7169	6,498.05	65.5895	6,498.05	53.2785	6,498.05	55.3071	6,498.05	61.8955
6,726.56	89.247	6,726.56	89.1975	6,726.56	89.2071	6,726.56	88.9386	6,726.56	88.7914	6,726.56	88.6819	6,726.56	88.684	6,726.56	86.991	6,726.56	87.5747	6,726.56	84.976	6,726.56	85.53	6,726.56	82.7558	6,726.56	83.624	6,726.56	79.8868	6,726.56	81.1691	6,726.56	76.8032	6,726.56	78.5104	6,726.56	74.4124	6,726.56	76.1727	6,726.56	72.1787	6,726.56	73.4937	6,726.56	70.8076	6,726.56	71.2898	6,726.56	69.1618	6,726.56	69.8548	6,726.56	67.64	6,726.56	66.749	6,726.56	65.9259	6,726.56	66.0133	6,726.56	64.1331	6,726.56	65.2923	6,726.56	59.262	6,726.56	65.5746	6,726.56	56.1686	6,726.56	55.6074	6,726.56	61.7948
6,963.87	89.2272	6,963.87	88.7296	6,963.87	89.1371	6,963.87	88.705	6,963.87	88.7038	6,963.87	88.6453	6,963.87	88.8303	6,963.87	87.0026	6,963.87	87.7605	6,963.87	85.0966	6,963.87	86.0221	6,963.87	82.6323	6,963.87	84.1644	6,963.87	79.6919	6,963.87	81.1099	6,963.87	77.1496	6,963.87	78.0012	6,963.87	75.0032	6,963.87	75.4778	6,963.87	72.9542	6,963.87	73.3953	6,963.87	70.9202	6,963.87	71.367	6,963.87	68.877	6,963.87	69.7412	6,963.87	67.3363	6,963.87	67.777	6,963.87	65.5633	6,963.87	66.6391	6,963.87	64.4838	6,963.87	65.7966	6,963.87	59.3639	6,963.87	65.6162	6,963.87	53.5302	6,963.87	56.6897	6,963.87	61.5787
7,209.96	88.6693	7,209.96	88.1916	7,209.96	88.3275	7,209.96	88.5285	7,209.96	88.3402	7,209.96	88.6024	7,209.96	88.7541	7,209.96	87.1825	7,209.96	87.8061	7,209.96	85.1891	7,209.96	86.2097	7,209.96	82.3924	7,209.96	83.8275	7,209.96	79.5853	7,209.96	80.5595	7,209.96	76.9914	7,209.96	77.6857	7,209.96	74.3726	7,209.96	75.5097	7,209.96	72.0621	7,209.96	73.3659	7,209.96	70.7221	7,209.96	71.5162	7,209.96	68.9387	7,209.96	69.5091	7,209.96	66.6426	7,209.96	67.8027	7,209.96	65.2994	7,209.96	66.3885	7,209.96	64.1881	7,209.96	65.5086	7,209.96	59.92	7,209.96	65.468	7,209.96	54.7141	7,209.96	56.3215	7,209.96	60.6479
7,464.84	88.1834	7,464.84	87.7277	7,464.84	87.8776	7,464.84	88.6864	7,464.84	87.9662	7,464.84	88.5509	7,464.84	88.6287	7,464.84	87.1284	7,464.84	87.4803	7,464.84	85.0254	7,464.84	85.8982	7,464.84	82.0555	7,464.84	83.1071	7,464.84	78.9233	7,464.84	79.9808	7,464.84	76.9176	7,464.84	77.2614	7,464.84	74.4836	7,464.84	74.9624	7,464.84	72.3093	7,464.84	72.782	7,464.84	69.7848	7,464.84	70.203	7,464.84	68.525	7,464.84	68.3082	7,464.84	66.9184	7,464.84	67.5039	7,464.84	65.7283	7,464.84	65.7188	7,464.84	63.2819	7,464.84	65.0354	7,464.84	59.5846	7,464.84	65.2411	7,464.84	49.4942	7,464.84	54.437	7,464.84	59.2453
7,728.52	88.3141	7,728.52	88.1226	7,728.52	88.157	7,728.52	88.9518	7,728.52	88.313	7,728.52	88.7093	7,728.52	88.745	7,728.52	87.2585	7,728.52	87.6115	7,728.52	85.051	7,728.52	86.0416	7,728.52	81.9742	7,728.52	83.209	7,728.52	79.2693	7,728.52	80.1955	7,728.52	76.9461	7,728.52	77.8751	7,728.52	73.8673	7,728.52	75.3904	7,728.52	71.9641	7,728.52	72.8687	7,728.52	69.8177	7,728.52	70.7511	7,728.52	68.2876	7,728.52	67.9071	7,728.52	66.6211	7,728.52	66.8379	7,728.52	66.0327	7,728.52	65.8512	7,728.52	63.2475	7,728.52	65.2294	7,728.52	60.3815	7,728.52	64.5066	7,728.52	52.3641	7,728.52	55.7265	7,728.52	58.2711
8,000.98	89.0803	8,000.98	88.6573	8,000.98	88.9495	8,000.98	89.3767	8,000.98	89.1489	8,000.98	88.9027	8,000.98	89.2973	8,000.98	87.8073	8,000.98	88.477	8,000.98	85.3373	8,000.98	86.7341	8,000.98	82.4731	8,000.98	83.8364	8,000.98	79.9748	8,000.98	81.4352	8,000.98	76.9877	8,000.98	78.518	8,000.98	74.3024	8,000.98	75.7603	8,000.98	71.5869	8,000.98	73.1051	8,000.98	69.7479	8,000.98	70.9902	8,000.98	68.3259	8,000.98	68.1865	8,000.98	65.7719	8,000.98	67.7899	8,000.98	64.8769	8,000.98	65.98	8,000.98	62.3221	8,000.98	65.1732	8,000.98	60.1909	8,000.98	64.9508	8,000.98	51.1539	8,000.98	54.388	8,000.98	57.2998
8,282.23	89.5083	8,282.23	89.2761	8,282.23	89.2483	8,282.23	89.7737	8,282.23	89.7095	8,282.23	89.3201	8,282.23	89.6194	8,282.23	88.2141	8,282.23	89.0132	8,282.23	85.5975	8,282.23	87.0361	8,282.23	82.9975	8,282.23	84.2769	8,282.23	79.868	8,282.23	81.896	8,282.23	77.4524	8,282.23	78.9042	8,282.23	73.8543	8,282.23	75.7648	8,282.23	71.8231	8,282.23	73.0873	8,282.23	69.8783	8,282.23	71.0077	8,282.23	67.6846	8,282.23	67.5469	8,282.23	65.1054	8,282.23	68.498	8,282.23	64.7144	8,282.23	66.1705	8,282.23	62.791	8,282.23	65.0438	8,282.23	60.7409	8,282.23	64.7528	8,282.23	51.9059	8,282.23	55.8065	8,282.23	57.5448
8,575.2	89.3449	8,575.2	89.2408	8,575.2	89.2592	8,575.2	89.4784	8,575.2	89.5612	8,575.2	89.0977	8,575.2	89.4633	8,575.2	87.9854	8,575.2	88.9702	8,575.2	85.3373	8,575.2	86.9718	8,575.2	82.8648	8,575.2	84.7378	8,575.2	79.5217	8,575.2	81.8011	8,575.2	76.7316	8,575.2	78.275	8,575.2	73.9984	8,575.2	75.2975	8,575.2	71.5736	8,575.2	72.8679	8,575.2	68.9579	8,575.2	70.4464	8,575.2	67.6157	8,575.2	68.368	8,575.2	66.3565	8,575.2	68.9835	8,575.2	64.8828	8,575.2	65.2567	8,575.2	61.2014	8,575.2	63.9254	8,575.2	60.02	8,575.2	64.5917	8,575.2	54.8323	8,575.2	55.9233	8,575.2	55.2998
8,876.95	88.4934	8,876.95	88.511	8,876.95	88.6471	8,876.95	88.7176	8,876.95	88.9038	8,876.95	88.8021	8,876.95	88.8533	8,876.95	87.7281	8,876.95	88.5574	8,876.95	85.0719	8,876.95	86.4562	8,876.95	82.7344	8,876.95	84.3411	8,876.95	79.7513	8,876.95	81.1501	8,876.95	75.8919	8,876.95	77.7064	8,876.95	73.9422	8,876.95	75.3664	8,876.95	70.9697	8,876.95	72.583	8,876.95	69.1914	8,876.95	70.528	8,876.95	67.0565	8,876.95	68.0922	8,876.95	66.3061	8,876.95	68.0402	8,876.95	64.205	8,876.95	65.1734	8,876.95	61.0801	8,876.95	62.5093	8,876.95	59.477	8,876.95	63.8171	8,876.95	54.4413	8,876.95	53.764	8,876.95	56.1974
9,190.43	87.3565	9,190.43	87.7753	9,190.43	87.6361	9,190.43	87.9432	9,190.43	88.2357	9,190.43	88.2551	9,190.43	88.3117	9,190.43	86.8211	9,190.43	87.9161	9,190.43	84.5864	9,190.43	85.8978	9,190.43	81.688	9,190.43	83.5107	9,190.43	78.1168	9,190.43	80.0513	9,190.43	75.4477	9,190.43	76.9505	9,190.43	72.7239	9,190.43	74.5329	9,190.43	70.7958	9,190.43	72.0695	9,190.43	68.6043	9,190.43	70.3915	9,190.43	66.3681	9,190.43	67.4928	9,190.43	65.9231	9,190.43	67.2826	9,190.43	63.4177	9,190.43	64.5156	9,190.43	59.8967	9,190.43	61.9321	9,190.43	59.0806	9,190.43	62.7833	9,190.43	55.7979	9,190.43	54.4109	9,190.43	54.9636
9,512.7	85.5825	9,512.7	86.4602	9,512.7	86.0215	9,512.7	86.4286	9,512.7	86.7656	9,512.7	86.7193	9,512.7	86.8402	9,512.7	85.2729	9,512.7	86.2823	9,512.7	83.3322	9,512.7	84.7945	9,512.7	79.9806	9,512.7	81.959	9,512.7	76.5923	9,512.7	78.615	9,512.7	74.7765	9,512.7	75.7584	9,512.7	71.6528	9,512.7	73.428	9,512.7	69.3722	9,512.7	70.9937	9,512.7	66.6652	9,512.7	68.3761	9,512.7	65.8006	9,512.7	65.9743	9,512.7	64.0971	9,512.7	65.6551	9,512.7	60.9635	9,512.7	62.9578	9,512.7	56.7366	9,512.7	60.6206	9,512.7	57.0654	9,512.7	60.7097	9,512.7	53.7825	9,512.7	49.1204	9,512.7	53.0921
9,849.61	85.0036	9,849.61	85.7884	9,849.61	85.6277	9,849.61	85.6875	9,849.61	85.9776	9,849.61	85.934	9,849.61	86.0922	9,849.61	84.9393	9,849.61	85.4834	9,849.61	82.5674	9,849.61	84.169	9,849.61	79.5414	9,849.61	81.2342	9,849.61	76.8098	9,849.61	78.5409	9,849.61	73.646	9,849.61	75.527	9,849.61	71.2008	9,849.61	72.8768	9,849.61	67.8714	9,849.61	69.6294	9,849.61	66.0165	9,849.61	67.0433	9,849.61	64.6039	9,849.61	65.1697	9,849.61	62.2727	9,849.61	64.3483	9,849.61	59.3649	9,849.61	61.3565	9,849.61	53.8465	9,849.61	58.5653	9,849.61	55.9943	9,849.61	59.7928	9,849.61	51.0862	9,849.61	42.5962	9,849.61	53.796
10,195.3	84.4071	10,195.3	85.2158	10,195.3	85.2083	10,195.3	85.2885	10,195.3	85.3584	10,195.3	85.4609	10,195.3	85.7682	10,195.3	84.712	10,195.3	85.2756	10,195.3	82.0541	10,195.3	83.6741	10,195.3	79.4946	10,195.3	80.8237	10,195.3	76.605	10,195.3	78.131	10,195.3	73.0009	10,195.3	74.7983	10,195.3	70.1796	10,195.3	71.879	10,195.3	67.2317	10,195.3	68.9396	10,195.3	65.7789	10,195.3	66.7436	10,195.3	63.5419	10,195.3	64.8376	10,195.3	61.2672	10,195.3	63.7754	10,195.3	58.3274	10,195.3	60.287	10,195.3	53.3099	10,195.3	57.1928	10,195.3	55.2431	10,195.3	59.2997	10,195.3	50.8584	10,195.3	40.2534	10,195.3	52.9469
10,555.7	84.8804	10,555.7	85.8491	10,555.7	85.4136	10,555.7	85.8974	10,555.7	85.7236	10,555.7	86.0114	10,555.7	86.112	10,555.7	85.1449	10,555.7	85.5937	10,555.7	82.5128	10,555.7	83.9347	10,555.7	79.8814	10,555.7	81.4012	10,555.7	76.2748	10,555.7	78.4195	10,555.7	73.2002	10,555.7	74.5734	10,555.7	70.6478	10,555.7	71.9201	10,555.7	67.3614	10,555.7	69.5051	10,555.7	65.3929	10,555.7	66.7081	10,555.7	63.4804	10,555.7	65.1333	10,555.7	60.6384	10,555.7	63.2237	10,555.7	57.7722	10,555.7	60.3771	10,555.7	53.4507	10,555.7	57.5526	10,555.7	55.611	10,555.7	58.6195	10,555.7	51.5691	10,555.7	39.6626	10,555.7	51.6279
10,927.7	86.3574	10,927.7	87.0757	10,927.7	86.954	10,927.7	87.2601	10,927.7	87.1693	10,927.7	87.1266	10,927.7	87.5004	10,927.7	86.4842	10,927.7	87.2829	10,927.7	83.6619	10,927.7	85.444	10,927.7	81.0246	10,927.7	83.0461	10,927.7	77.2019	10,927.7	79.7544	10,927.7	73.9808	10,927.7	76.2316	10,927.7	72.0259	10,927.7	73.8475	10,927.7	68.6394	10,927.7	71.1821	10,927.7	66.6983	10,927.7	68.6146	10,927.7	63.8725	10,927.7	67.4085	10,927.7	61.0552	10,927.7	63.8556	10,927.7	58.1126	10,927.7	62.031	10,927.7	53.4395	10,927.7	58.769	10,927.7	56.1233	10,927.7	59.8046	10,927.7	54.3955	10,927.7	45.7266	10,927.7	49.3573
11,314.5	87.8951	11,314.5	87.9765	11,314.5	88.2896	11,314.5	88.084	11,314.5	88.3954	11,314.5	87.8681	11,314.5	88.4978	11,314.5	87.1628	11,314.5	88.3794	11,314.5	84.574	11,314.5	86.2345	11,314.5	81.4584	11,314.5	83.6812	11,314.5	77.8659	11,314.5	80.093	11,314.5	75.1292	11,314.5	77.2165	11,314.5	72.8419	11,314.5	74.5624	11,314.5	69.4623	11,314.5	71.8679	11,314.5	67.9391	11,314.5	69.3211	11,314.5	65.177	11,314.5	68.3918	11,314.5	62.1824	11,314.5	64.8367	11,314.5	58.2811	11,314.5	62.7174	11,314.5	53.231	11,314.5	60.3104	11,314.5	54.9402	11,314.5	60.6257	11,314.5	55.4544	11,314.5	46.4962	11,314.5	50.2304
11,712.9	88.2736	11,712.9	88.3096	11,712.9	88.3668	11,712.9	88.6999	11,712.9	88.7099	11,712.9	88.599	11,712.9	88.7475	11,712.9	87.3378	11,712.9	88.3896	11,712.9	85.1474	11,712.9	86.5677	11,712.9	81.6865	11,712.9	83.4241	11,712.9	78.9074	11,712.9	80.4481	11,712.9	75.632	11,712.9	77.3187	11,712.9	73.3453	11,712.9	74.4075	11,712.9	69.4942	11,712.9	71.4715	11,712.9	68.2408	11,712.9	68.8816	11,712.9	65.7278	11,712.9	68.3364	11,712.9	62.051	11,712.9	64.1701	11,712.9	58.2325	11,712.9	62.0811	11,712.9	53.7291	11,712.9	60.0719	11,712.9	54.7554	11,712.9	60.4269	11,712.9	57.3648	11,712.9	47.6904	11,712.9	47.852
12,126	88.8671	12,126	88.8811	12,126	88.9005	12,126	89.2609	12,126	89.1263	12,126	89.186	12,126	89.0917	12,126	88.1698	12,126	88.8086	12,126	85.6602	12,126	87.1364	12,126	82.5158	12,126	83.5192	12,126	79.3998	12,126	80.8007	12,126	75.4676	12,126	77.4973	12,126	72.9156	12,126	73.9896	12,126	69.3033	12,126	71.1946	12,126	68.5991	12,126	68.8125	12,126	65.6946	12,126	67.9408	12,126	62.3315	12,126	63.0789	12,126	57.5621	12,126	60.9361	12,126	54.1657	12,126	59.6115	12,126	55.511	12,126	60.0288	12,126	57.7694	12,126	50.1522	12,126	44.2576
12,553.7	89.2986	12,553.7	89.125	12,553.7	89.3201	12,553.7	89.1254	12,553.7	89.3723	12,553.7	89.1494	12,553.7	89.1762	12,553.7	87.9511	12,553.7	88.6912	12,553.7	85.0166	12,553.7	86.8635	12,553.7	82.3856	12,553.7	83.4684	12,553.7	78.696	12,553.7	80.2159	12,553.7	74.9708	12,553.7	76.6542	12,553.7	71.5863	12,553.7	73.5589	12,553.7	68.9912	12,553.7	70.6432	12,553.7	67.6608	12,553.7	68.5457	12,553.7	64.7273	12,553.7	67.771	12,553.7	61.1174	12,553.7	61.8631	12,553.7	56.0064	12,553.7	60.3251	12,553.7	54.0102	12,553.7	58.7619	12,553.7	55.1323	12,553.7	58.7806	12,553.7	57.0745	12,553.7	51.1732	12,553.7	39.3634
12,996.1	89.3852	12,996.1	89.2257	12,996.1	89.3537	12,996.1	89.1676	12,996.1	89.4476	12,996.1	89.0492	12,996.1	89.2247	12,996.1	87.8685	12,996.1	88.431	12,996.1	84.5875	12,996.1	86.5581	12,996.1	81.4638	12,996.1	83.526	12,996.1	77.15	12,996.1	79.3736	12,996.1	74.272	12,996.1	76.422	12,996.1	71.0899	12,996.1	73.5027	12,996.1	68.9007	12,996.1	70.4809	12,996.1	66.9509	12,996.1	68.6625	12,996.1	63.6193	12,996.1	67.2556	12,996.1	60.2876	12,996.1	58.9466	12,996.1	54.7545	12,996.1	59.5796	12,996.1	54.2706	12,996.1	57.4014	12,996.1	52.7526	12,996.1	57.9426	12,996.1	55.4018	12,996.1	50.4735	12,996.1	38.3657
13,453.1	90.0344	13,453.1	89.8068	13,453.1	89.9986	13,453.1	89.5271	13,453.1	89.9644	13,453.1	89.3807	13,453.1	89.4637	13,453.1	88.2353	13,453.1	88.7419	13,453.1	85.0206	13,453.1	86.6094	13,453.1	81.3383	13,453.1	83.3978	13,453.1	77.9155	13,453.1	79.396	13,453.1	75.0042	13,453.1	76.7809	13,453.1	71.1111	13,453.1	73.4819	13,453.1	69.1657	13,453.1	70.5708	13,453.1	67.1012	13,453.1	68.6733	13,453.1	63.9993	13,453.1	66.6735	13,453.1	60.5929	13,453.1	58.2051	13,453.1	54.6424	13,453.1	58.7756	13,453.1	54.8313	13,453.1	56.9651	13,453.1	52.8179	13,453.1	57.4798	13,453.1	54.1446	13,453.1	50.8621	13,453.1	36.5784
13,927.7	90.0491	13,927.7	89.727	13,927.7	90.073	13,927.7	89.3283	13,927.7	90.014	13,927.7	88.9005	13,927.7	89.5715	13,927.7	87.6909	13,927.7	88.6698	13,927.7	84.5461	13,927.7	86.4594	13,927.7	80.8547	13,927.7	83.0152	13,927.7	77.5198	13,927.7	79.5993	13,927.7	74.0018	13,927.7	76.1213	13,927.7	70.0032	13,927.7	72.3743	13,927.7	68.246	13,927.7	69.8713	13,927.7	65.7173	13,927.7	67.6364	13,927.7	62.3416	13,927.7	65.5376	13,927.7	58.6757	13,927.7	57.1903	13,927.7	53.4865	13,927.7	56.9278	13,927.7	52.9955	13,927.7	56.3097	13,927.7	50.329	13,927.7	55.801	13,927.7	49.9001	13,927.7	43.2516	13,927.7	34.8958
14,419.9	89.5042	14,419.9	89.0784	14,419.9	89.8363	14,419.9	88.5887	14,419.9	89.9709	14,419.9	87.4256	14,419.9	89.5849	14,419.9	86.1877	14,419.9	88.7174	14,419.9	82.7612	14,419.9	86.7098	14,419.9	79.2244	14,419.9	82.9936	14,419.9	74.6472	14,419.9	79.4285	14,419.9	71.0994	14,419.9	75.5354	14,419.9	67.6184	14,419.9	72.6484	14,419.9	65.9937	14,419.9	69.9381	14,419.9	63.2609	14,419.9	67.5209	14,419.9	59.6484	14,419.9	65.3905	14,419.9	55.7114	14,419.9	58.9081	14,419.9	47.899	14,419.9	56.3793	14,419.9	49.3252	14,419.9	56.0764	14,419.9	45.3992	14,419.9	51.942	14,419.9	45.7794	14,419.9	34.078	14,419.9	30.6405
14,929.7	89.6085	14,929.7	89.1185	14,929.7	89.8135	14,929.7	88.6167	14,929.7	89.837	14,929.7	87.4074	14,929.7	89.2195	14,929.7	85.9665	14,929.7	88.3278	14,929.7	82.2835	14,929.7	86.0614	14,929.7	78.7987	14,929.7	82.6788	14,929.7	74.0536	14,929.7	78.6011	14,929.7	70.9455	14,929.7	75.1854	14,929.7	67.3468	14,929.7	72.2428	14,929.7	65.6321	14,929.7	68.9865	14,929.7	64.067	14,929.7	66.7412	14,929.7	60.2354	14,929.7	65.1392	14,929.7	55.9967	14,929.7	58.6597	14,929.7	46.4096	14,929.7	55.9198	14,929.7	50.3971	14,929.7	56.2991	14,929.7	39.7619	14,929.7	49.7758	14,929.7	48.9566	14,929.7	42.923	14,929.7	33.2013
15,454.1	89.5889	15,454.1	89.1271	15,454.1	89.6998	15,454.1	88.4618	15,454.1	89.6451	15,454.1	87.3021	15,454.1	89.0713	15,454.1	85.5733	15,454.1	87.9866	15,454.1	81.9901	15,454.1	85.6552	15,454.1	77.5456	15,454.1	82.3705	15,454.1	73.7503	15,454.1	77.7254	15,454.1	70.6423	15,454.1	74.6206	15,454.1	65.9104	15,454.1	71.5757	15,454.1	65.5119	15,454.1	68.0921	15,454.1	62.778	15,454.1	66.1143	15,454.1	59.1145	15,454.1	63.8594	15,454.1	55.1566	15,454.1	57.1675	15,454.1	42.1388	15,454.1	55.5444	15,454.1	46.8224	15,454.1	56.3967	15,454.1	41.8831	15,454.1	48.948	15,454.1	45.6701	15,454.1	44.0761	15,454.1	32.1407
15,999	89.1783	15,999	88.8301	15,999	89.1464	15,999	88.546	15,999	89.1789	15,999	87.4548	15,999	88.4715	15,999	85.6149	15,999	87.1004	15,999	81.8827	15,999	84.5264	15,999	77.0657	15,999	80.8088	15,999	73.6545	15,999	76.7625	15,999	70.0518	15,999	72.9678	15,999	66.2006	15,999	69.8038	15,999	65.5437	15,999	66.3375	15,999	62.0989	15,999	64.7772	15,999	58.2937	15,999	62.0798	15,999	56.6668	15,999	55.1198	15,999	44.9822	15,999	54.1008	15,999	46.4991	15,999	55.4943	15,999	44.7213	15,999	46.1964	15,999	38.8588	15,999	45.5838	15,999	34.2783
16,564.5	88.6708	16,564.5	88.2601	16,564.5	88.6706	16,564.5	88.0236	16,564.5	88.6557	16,564.5	86.7741	16,564.5	87.7819	16,564.5	84.8368	16,564.5	86.1918	16,564.5	81.1389	16,564.5	83.597	16,564.5	76.9707	16,564.5	79.4942	16,564.5	72.0701	16,564.5	75.2723	16,564.5	69.0125	16,564.5	70.8472	16,564.5	66.1097	16,564.5	68.7259	16,564.5	64.4989	16,564.5	65.1643	16,564.5	61.5234	16,564.5	63.6792	16,564.5	58.2204	16,564.5	60.3906	16,564.5	57.4664	16,564.5	51.8942	16,564.5	47.463	16,564.5	51.7703	16,564.5	45.1296	16,564.5	53.5161	16,564.5	45.0484	16,564.5	45.8589	16,564.5	28.9447	16,564.5	48.0972	16,564.5	39.0592
17,147.5	88.6051	17,147.5	87.6074	17,147.5	89.3804	17,147.5	86.8261	17,147.5	89.8975	17,147.5	85.0836	17,147.5	89.5886	17,147.5	82.9445	17,147.5	88.204	17,147.5	78.6586	17,147.5	85.8607	17,147.5	74.3379	17,147.5	82.1267	17,147.5	68.9487	17,147.5	77.5794	17,147.5	65.5847	17,147.5	73.25	17,147.5	63.5815	17,147.5	71.2759	17,147.5	61.2108	17,147.5	67.3201	17,147.5	59.1734	17,147.5	65.5937	17,147.5	55.3362	17,147.5	61.119	17,147.5	54.0266	17,147.5	58.1626	17,147.5	47.2051	17,147.5	50.7454	17,147.5	41.6629	17,147.5	51.9245	17,147.5	46.946	17,147.5	48.8495	17,147.5	45.7042	17,147.5	49.4045	17,147.5	39.1227
17,753.9	91.1266	17,753.9	89.7344	17,753.9	92.7074	17,753.9	88.0376	17,753.9	93.6467	17,753.9	84.6296	17,753.9	94.2174	17,753.9	82.073	17,753.9	93.329	17,753.9	78.9368	17,753.9	91.0498	17,753.9	75.7045	17,753.9	87.5029	17,753.9	71.5035	17,753.9	83.1972	17,753.9	66.8529	17,753.9	78.6611	17,753.9	65.2248	17,753.9	76.5892	17,753.9	63.9883	17,753.9	72.087	17,753.9	61.3626	17,753.9	70.3215	17,753.9	55.0986	17,753.9	66.6622	17,753.9	57.5077	17,753.9	65.627	17,753.9	48.6356	17,753.9	57.4084	17,753.9	52.809	17,753.9	59.0895	17,753.9	58.181	17,753.9	55.0237	17,753.9	57.9085	17,753.9	57.5462	17,753.9	51.7008
18,377.9	94.2136	18,377.9	94.1284	18,377.9	94.7805	18,377.9	94.7731	18,377.9	94.7439	18,377.9	93.4136	18,377.9	95.2179	18,377.9	92.1408	18,377.9	94.225	18,377.9	89.1565	18,377.9	91.6297	18,377.9	86.1374	18,377.9	88.1242	18,377.9	81.198	18,377.9	83.789	18,377.9	76.1471	18,377.9	78.6344	18,377.9	75.4676	18,377.9	76.7404	18,377.9	73.2816	18,377.9	71.9998	18,377.9	69.8782	18,377.9	70.906	18,377.9	65.9651	18,377.9	68.4	18,377.9	68.4023	18,377.9	66.0804	18,377.9	59.2873	18,377.9	61.2367	18,377.9	61.3218	18,377.9	64.0929	18,377.9	64.0838	18,377.9	59.6457	18,377.9	65.2076	18,377.9	64.022	18,377.9	59.3947
19,028.3	95.6612	19,028.3	96.2532	19,028.3	95.4995	19,028.3	97.693	19,028.3	94.6711	19,028.3	96.7693	19,028.3	94.5595	19,028.3	95.3885	19,028.3	93.2746	19,028.3	92.4009	19,028.3	90.2342	19,028.3	89.2002	19,028.3	86.4784	19,028.3	84.7524	19,028.3	81.8987	19,028.3	77.8753	19,028.3	77.7747	19,028.3	78.9463	19,028.3	75.3986	19,028.3	76.6007	19,028.3	69.3819	19,028.3	72.4337	19,028.3	69.5179	19,028.3	69.9459	19,028.3	68.2404	19,028.3	72.4735	19,028.3	64.1434	19,028.3	63.9944	19,028.3	63.1336	19,028.3	63.9288	19,028.3	67	19,028.3	67.1168	19,028.3	63.5807	19,028.3	69.4791	19,028.3	67.2781	19,028.3	63.8406
19,699.2	96.116	19,699.2	97.2583	19,699.2	95.0945	19,699.2	99.2168	19,699.2	93.2771	19,699.2	98.3171	19,699.2	91.1032	19,699.2	96.8151	19,699.2	88.4963	19,699.2	93.828	19,699.2	84.5709	19,699.2	90.4342	19,699.2	80.0125	19,699.2	86.1736	19,699.2	73.5467	19,699.2	78.1351	19,699.2	70.9086	19,699.2	81.3652	19,699.2	68.4594	19,699.2	77.7167	19,699.2	51.3141	19,699.2	72.2418	19,699.2	64.77	19,699.2	71.0158	19,699.2	66.7207	19,699.2	74.0559	19,699.2	64.5336	19,699.2	65.391	19,699.2	64.429	19,699.2	66.139	19,699.2	67.5568	19,699.2	68.6998	19,699.2	64.7239	19,699.2	71.5921	19,699.2	69.9095	19,699.2	66.1897
19,998	96.1076	19,998	97.1432	19,998	95.0933	19,998	99.1784	19,998	93.2918	19,998	98.2267	19,998	89.8155	19,998	96.8341	19,998	85.0996	19,998	93.6017	19,998	80.2162	19,998	90.3651	19,998	75.8131	19,998	85.6925	19,998	69.9241	19,998	77.1131	19,998	60.1105	19,998	81.6419	19,998	68.4476	19,998	76.9908	19,998	68.0584	19,998	70.1903	19,998	66.7549	19,998	70.6758	19,998	65.5717	19,998	72.9325	19,998	63.6194	19,998	62.1211	19,998	63.5274	19,998	66.6412	19,998	68.2674	19,998	71.0329	19,998	67.3581	19,998	71.7665	19,998	69.1346	19,998	66.0916
