"SPL Vertical"																																																																							
"On-Axis"		"10°"		"-10°"		"20°"		"-20°"		"30°"		"-30°"		"40°"		"-40°"		"50°"		"-50°"		"60°"		"-60°"		"70°"		"-70°"		"80°"		"-80°"		"90°"		"-90°"		"100°"		"-100°"		"110°"		"-110°"		"120°"		"-120°"		"130°"		"-130°"		"140°"		"-140°"		"150°"		"-150°"		"160°"		"-160°"		"170°"		"-170°"		"180°"	
"Frequency [Hz]"	"Sound Pessure Level [dB]  / [2.83V 1m] "	"Frequency [Hz]"	"Sound Pessure Level [dB]  / [2.83V 1m] "	"Frequency [Hz]"	"Sound Pessure Level [dB]  / [2.83V 1m] "	"Frequency [Hz]"	"Sound Pessure Level [dB]  / [2.83V 1m] "	"Frequency [Hz]"	"Sound Pessure Level [dB]  / [2.83V 1m] "	"Frequency [Hz]"	"Sound Pessure Level [dB]  / [2.83V 1m] "	"Frequency [Hz]"	"Sound Pessure Level [dB]  / [2.83V 1m] "	"Frequency [Hz]"	"Sound Pessure Level [dB]  / [2.83V 1m] "	"Frequency [Hz]"	"Sound Pessure Level [dB]  / [2.83V 1m] "	"Frequency [Hz]"	"Sound Pessure Level [dB]  / [2.83V 1m] "	"Frequency [Hz]"	"Sound Pessure Level [dB]  / [2.83V 1m] "	"Frequency [Hz]"	"Sound Pessure Level [dB]  / [2.83V 1m] "	"Frequency [Hz]"	"Sound Pessure Level [dB]  / [2.83V 1m] "	"Frequency [Hz]"	"Sound Pessure Level [dB]  / [2.83V 1m] "	"Frequency [Hz]"	"Sound Pessure Level [dB]  / [2.83V 1m] "	"Frequency [Hz]"	"Sound Pessure Level [dB]  / [2.83V 1m] "	"Frequency [Hz]"	"Sound Pessure Level [dB]  / [2.83V 1m] "	"Frequency [Hz]"	"Sound Pessure Level [dB]  / [2.83V 1m] "	"Frequency [Hz]"	"Sound Pessure Level [dB]  / [2.83V 1m] "	"Frequency [Hz]"	"Sound Pessure Level [dB]  / [2.83V 1m] "	"Frequency [Hz]"	"Sound Pessure Level [dB]  / [2.83V 1m] "	"Frequency [Hz]"	"Sound Pessure Level [dB]  / [2.83V 1m] "	"Frequency [Hz]"	"Sound Pessure Level [dB]  / [2.83V 1m] "	"Frequency [Hz]"	"Sound Pessure Level [dB]  / [2.83V 1m] "	"Frequency [Hz]"	"Sound Pessure Level [dB]  / [2.83V 1m] "	"Frequency [Hz]"	"Sound Pessure Level [dB]  / [2.83V 1m] "	"Frequency [Hz]"	"Sound Pessure Level [dB]  / [2.83V 1m] "	"Frequency [Hz]"	"Sound Pessure Level [dB]  / [2.83V 1m] "	"Frequency [Hz]"	"Sound Pessure Level [dB]  / [2.83V 1m] "	"Frequency [Hz]"	"Sound Pessure Level [dB]  / [2.83V 1m] "	"Frequency [Hz]"	"Sound Pessure Level [dB]  / [2.83V 1m] "	"Frequency [Hz]"	"Sound Pessure Level [dB]  / [2.83V 1m] "	"Frequency [Hz]"	"Sound Pessure Level [dB]  / [2.83V 1m] "	"Frequency [Hz]"	"Sound Pessure Level [dB]  / [2.83V 1m] "	"Frequency [Hz]"	"Sound Pessure Level [dB]  / [2.83V 1m] "	"Frequency [Hz]"	"Sound Pessure Level [dB]  / [2.83V 1m] "
20.5078	68.1264	20.5078	67.9137	20.5078	68.3178	20.5078	67.6863	20.5078	68.4805	20.5078	67.4504	20.5078	68.6068	20.5078	67.2112	20.5078	68.6888	20.5078	66.9734	20.5078	68.7193	20.5078	66.7416	20.5078	68.6923	20.5078	66.5198	20.5078	68.6045	20.5078	66.312	20.5078	68.4559	20.5078	66.1223	20.5078	68.2504	20.5078	65.9546	20.5078	67.9963	20.5078	65.8129	20.5078	67.7059	20.5078	65.7012	20.5078	67.394	20.5078	65.6231	20.5078	67.0765	20.5078	65.5822	20.5078	66.7685	20.5078	65.5814	20.5078	66.4826	20.5078	65.623	20.5078	66.2284	20.5078	65.7085	20.5078	66.0124	20.5078	65.8384
23.4375	68.7558	23.4375	68.5204	23.4375	68.9442	23.4375	68.2463	23.4375	69.0755	23.4375	67.9397	23.4375	69.1372	23.4375	67.6059	23.4375	69.1152	23.4375	67.2487	23.4375	68.9945	23.4375	66.8717	23.4375	68.7608	23.4375	66.4781	23.4375	68.403	23.4375	66.0712	23.4375	67.9169	23.4375	65.6549	23.4375	67.309	23.4375	65.2344	23.4375	66.6012	23.4375	64.816	23.4375	65.8328	23.4375	64.4081	23.4375	65.0599	23.4375	64.0208	23.4375	64.3462	23.4375	63.6663	23.4375	63.7483	23.4375	63.3576	23.4375	63.3006	23.4375	63.1086	23.4375	63.0105	23.4375	62.9334	23.4375	62.866	23.4375	62.8469
26.3672	69.0205	26.3672	68.7943	26.3672	69.179	26.3672	68.5091	26.3672	69.2586	26.3672	68.1708	26.3672	69.2444	26.3672	67.7834	26.3672	69.1188	26.3672	67.349	26.3672	68.8612	26.3672	66.8688	26.3672	68.4495	26.3672	66.3428	26.3672	67.8628	26.3672	65.7708	26.3672	67.0841	26.3672	65.1525	26.3672	66.106	26.3672	64.489	26.3672	64.9391	26.3672	63.7834	26.3672	63.6236	26.3672	63.0428	26.3672	62.244	26.3672	62.2799	26.3672	60.9361	26.3672	61.5149	26.3672	59.863	26.3672	60.7757	26.3672	59.1497	26.3672	60.097	26.3672	58.8229	26.3672	59.5175	26.3672	58.8254	26.3672	59.078
29.2969	68.2745	29.2969	68.1178	29.2969	68.3296	29.2969	67.8694	29.2969	68.2681	29.2969	67.5345	29.2969	68.0683	29.2969	67.1144	29.2969	67.7014	29.2969	66.6066	29.2969	67.1302	29.2969	66.0046	29.2969	66.307	29.2969	65.2979	29.2969	65.1711	29.2969	64.4708	29.2969	63.6423	29.2969	63.5008	29.2969	61.6084	29.2969	62.3562	29.2969	58.8946	29.2969	60.9917	29.2969	55.1883	29.2969	59.3399	29.2969	49.8391	29.2969	57.2961	29.2969	42.2386	29.2969	54.6843	29.2969	42.9009	29.2969	51.1791	29.2969	46.3661	29.2969	46.1524	29.2969	47.2157	29.2969	40.1527	29.2969	46.0155	29.2969	42.5822
32.2266	68.402	32.2266	68.2371	32.2266	68.4832	32.2266	67.9932	32.2266	68.4744	32.2266	67.6733	32.2266	68.3693	32.2266	67.2784	32.2266	68.1642	32.2266	66.8085	32.2266	67.8636	32.2266	66.2629	32.2266	67.4878	32.2266	65.6425	32.2266	67.0813	32.2266	64.9525	32.2266	66.7142	32.2266	64.2086	32.2266	66.4642	32.2266	63.4459	32.2266	66.3765	32.2266	62.7326	32.2266	66.4286	32.2266	62.177	32.2266	66.5398	32.2266	61.9089	32.2266	66.6132	32.2266	62.0169	32.2266	66.5725	32.2266	62.4824	32.2266	66.3735	32.2266	63.1886	32.2266	66.0003	32.2266	63.9912	32.2266	65.4589	32.2266	64.7738
35.1563	71.2922	35.1563	71.0949	35.1563	71.4687	35.1563	70.8768	35.1563	71.6255	35.1563	70.639	35.1563	71.7659	35.1563	70.3838	35.1563	71.895	35.1563	70.1154	35.1563	72.0208	35.1563	69.8401	35.1563	72.1521	35.1563	69.5673	35.1563	72.2964	35.1563	69.3109	35.1563	72.4548	35.1563	69.0892	35.1563	72.6184	35.1563	68.9254	35.1563	72.7675	35.1563	68.8452	35.1563	72.8754	35.1563	68.872	35.1563	72.9145	35.1563	69.0214	35.1563	72.8631	35.1563	69.2946	35.1563	72.7085	35.1563	69.677	35.1563	72.4491	35.1563	70.1403	35.1563	72.0932	35.1563	70.6492	35.1563	71.6577	35.1563	71.1665
38.0859	74.3486	38.0859	74.127	38.0859	74.5772	38.0859	73.9134	38.0859	74.812	38.0859	73.7091	38.0859	75.0516	38.0859	73.5158	38.0859	75.294	38.0859	73.3362	38.0859	75.5366	38.0859	73.1741	38.0859	75.7745	38.0859	73.0349	38.0859	76.0007	38.0859	72.9255	38.0859	76.205	38.0859	72.8543	38.0859	76.3739	38.0859	72.8309	38.0859	76.4922	38.0859	72.8649	38.0859	76.5452	38.0859	72.9645	38.0859	76.5209	38.0859	73.1344	38.0859	76.4128	38.0859	73.3745	38.0859	76.2211	38.0859	73.6789	38.0859	75.9528	38.0859	74.0357	38.0859	75.6208	38.0859	74.4286	38.0859	75.2424	38.0859	74.8379
41.0156	79.5421	41.0156	79.2841	41.0156	79.824	41.0156	79.0521	41.0156	80.1269	41.0156	78.8475	41.0156	80.4464	41.0156	78.6714	41.0156	80.7764	41.0156	78.5248	41.0156	81.1079	41.0156	78.4087	41.0156	81.4289	41.0156	78.3243	41.0156	81.7245	41.0156	78.2729	41.0156	81.977	41.0156	78.2566	41.0156	82.1679	41.0156	78.278	41.0156	82.28	41.0156	78.3406	41.0156	82.2997	41.0156	78.4486	41.0156	82.2198	41.0156	78.6061	41.0156	82.0406	41.0156	78.817	41.0156	81.7707	41.0156	79.0834	41.0156	81.4264	41.0156	79.404	41.0156	81.0296	41.0156	79.7731	41.0156	80.6056	41.0156	80.1794
43.9453	80.9767	43.9453	80.7112	43.9453	81.2652	43.9453	80.4722	43.9453	81.5721	43.9453	80.2622	43.9453	81.8913	43.9453	80.0829	43.9453	82.2149	43.9453	79.9356	43.9453	82.5325	43.9453	79.821	43.9453	82.8315	43.9453	79.7396	43.9453	83.0973	43.9453	79.6921	43.9453	83.3135	43.9453	79.6791	43.9453	83.4642	43.9453	79.702	43.9453	83.5353	43.9453	79.7624	43.9453	83.517	43.9453	79.8629	43.9453	83.4055	43.9453	80.0063	43.9453	83.2044	43.9453	80.1956	43.9453	82.9246	43.9453	80.4329	43.9453	82.5835	43.9453	80.7182	43.9453	82.203	43.9453	81.0482	43.9453	81.8063	43.9453	81.4153
46.875	82.2002	46.875	81.9313	46.875	82.4915	46.875	81.6891	46.875	82.7994	46.875	81.4765	46.875	83.1166	46.875	81.296	46.875	83.434	46.875	81.1486	46.875	83.7406	46.875	81.0351	46.875	84.0232	46.875	80.9558	46.875	84.2671	46.875	80.9105	46.875	84.4572	46.875	80.8993	46.875	84.5789	46.875	80.9225	46.875	84.6206	46.875	80.9809	46.875	84.5751	46.875	81.0758	46.875	84.4413	46.875	81.2091	46.875	84.2253	46.875	81.3832	46.875	83.9399	46.875	81.5999	46.875	83.6034	46.875	81.8599	46.875	83.237	46.875	82.1613	46.875	82.8624	46.875	82.4989
49.8047	83.1913	49.8047	82.9172	49.8047	83.4861	49.8047	82.6692	49.8047	83.7952	49.8047	82.4511	49.8047	84.1101	49.8047	82.2658	49.8047	84.4211	49.8047	82.1147	49.8047	84.7164	49.8047	81.9986	49.8047	84.9828	49.8047	81.9177	49.8047	85.2061	49.8047	81.8715	49.8047	85.3719	49.8047	81.8593	49.8047	85.4673	49.8047	81.8808	49.8047	85.4824	49.8047	81.936	49.8047	85.4124	49.8047	82.0253	49.8047	85.2585	49.8047	82.1499	49.8047	85.0288	49.8047	82.3115	49.8047	84.7374	49.8047	82.5119	49.8047	84.4032	49.8047	82.7522	49.8047	84.0471	49.8047	83.0315	49.8047	83.6891	49.8047	83.3465
52.7344	84.0206	52.7344	83.7446	52.7344	84.3157	52.7344	83.4934	52.7344	84.6224	52.7344	83.2716	52.7344	84.9321	52.7344	83.0823	52.7344	85.2342	52.7344	82.9274	52.7344	85.517	52.7344	82.8079	52.7344	85.7671	52.7344	82.7239	52.7344	85.9707	52.7344	82.6747	52.7344	86.1142	52.7344	82.6596	52.7344	86.186	52.7344	82.6775	52.7344	86.1778	52.7344	82.728	52.7344	86.0867	52.7344	82.8108	52.7344	85.9159	52.7344	82.9267	52.7344	85.6752	52.7344	83.0768	52.7344	85.38	52.7344	83.2626	52.7344	85.0496	52.7344	83.4853	52.7344	84.7042	52.7344	83.7449	52.7344	84.3624	52.7344	84.0392
55.6641	84.6927	55.6641	84.4174	55.6641	84.986	55.6641	84.1665	55.6641	85.2896	55.6641	83.9449	55.6641	85.5941	55.6641	83.7559	55.6641	85.8886	55.6641	83.6018	55.6641	86.1609	55.6641	83.4832	55.6641	86.3978	55.6641	83.4	55.6641	86.5855	55.6641	83.3513	55.6641	86.7112	55.6641	83.3357	55.6641	86.7639	55.6641	83.3518	55.6641	86.7368	55.6641	83.3984	55.6641	86.6284	55.6641	83.4748	55.6641	86.4436	55.6641	83.5812	55.6641	86.1939	55.6641	83.7186	55.6641	85.8959	55.6641	83.8884	55.6641	85.5694	55.6641	84.0924	55.6641	85.2345	55.6641	84.3315	55.6641	84.9086	55.6641	84.6048
58.5938	85.2677	58.5938	84.9848	58.5938	85.5679	58.5938	84.7265	58.5938	85.877	58.5938	84.4982	58.5938	86.185	58.5938	84.3038	58.5938	86.4805	58.5938	84.1456	58.5938	86.7508	58.5938	84.0246	58.5938	86.9825	58.5938	83.9405	58.5938	87.1622	58.5938	83.892	58.5938	87.2772	58.5938	83.8774	58.5938	87.3175	58.5938	83.8947	58.5938	87.2773	58.5938	83.9422	58.5938	87.1563	58.5938	84.0189	58.5938	86.9605	58.5938	84.1243	58.5938	86.7026	58.5938	84.2591	58.5938	86.3998	58.5938	84.4248	58.5938	86.0723	58.5938	84.6231	58.5938	85.7398	58.5938	84.8554	58.5938	85.4189	58.5938	85.1217
61.5234	85.8137	61.5234	85.5258	61.5234	86.1175	61.5234	85.2616	61.5234	86.4282	61.5234	85.027	61.5234	86.7354	61.5234	84.8266	61.5234	87.0273	61.5234	84.6632	61.5234	87.2912	61.5234	84.5379	61.5234	87.5139	61.5234	84.4505	61.5234	87.6821	61.5234	84.3999	61.5234	87.7839	61.5234	84.384	61.5234	87.81	61.5234	84.4007	61.5234	87.7556	61.5234	84.4477	61.5234	87.6218	61.5234	84.5234	61.5234	87.4158	61.5234	84.6272	61.5234	87.1513	61.5234	84.7591	61.5234	86.8463	61.5234	84.9203	61.5234	86.521	61.5234	85.1123	61.5234	86.1943	61.5234	85.3367	61.5234	85.8817	61.5234	85.5938
64.4531	86.5735	64.4531	86.2697	64.4531	86.8943	64.4531	85.9912	64.4531	87.2223	64.4531	85.7449	64.4531	87.5463	64.4531	85.5355	64.4531	87.8539	64.4531	85.3661	64.4531	88.1317	64.4531	85.2381	64.4531	88.3656	64.4531	85.1511	64.4531	88.5416	64.4531	85.1037	64.4531	88.6469	64.4531	85.0933	64.4531	88.6713	64.4531	85.1171	64.4531	88.6097	64.4531	85.172	64.4531	88.4629	64.4531	85.2555	64.4531	88.2396	64.4531	85.366	64.4531	87.9552	64.4531	85.5027	64.4531	87.6306	64.4531	85.6665	64.4531	87.2885	64.4531	85.8591	64.4531	86.9498	64.4531	86.0829	64.4531	86.6304	64.4531	86.3401
67.3828	86.8939	67.3828	86.5828	67.3828	87.2209	67.3828	86.2966	67.3828	87.5532	67.3828	86.0428	67.3828	87.8792	67.3828	85.8269	67.3828	88.1858	67.3828	85.6526	67.3828	88.4596	67.3828	85.5214	67.3828	88.6865	67.3828	85.4331	67.3828	88.8526	67.3828	85.386	67.3828	88.9455	67.3828	85.3773	67.3828	88.9563	67.3828	85.4036	67.3828	88.8806	67.3828	85.4613	67.3828	88.7209	67.3828	85.5472	67.3828	88.4872	67.3828	85.6589	67.3828	88.1965	67.3828	85.7954	67.3828	87.8703	67.3828	85.9567	67.3828	87.5314	67.3828	86.1444	67.3828	87.1996	67.3828	86.361	67.3828	86.8895	67.3828	86.6091
70.3125	87.2493	70.3125	86.9308	70.3125	87.5816	70.3125	86.636	70.3125	87.9168	70.3125	86.3731	70.3125	88.2425	70.3125	86.1484	70.3125	88.5458	70.3125	85.9662	70.3125	88.8131	70.3125	85.8286	70.3125	89.0303	70.3125	85.7357	70.3125	89.1841	70.3125	85.6859	70.3125	89.2628	70.3125	85.6761	70.3125	89.2581	70.3125	85.7025	70.3125	89.167	70.3125	85.7611	70.3125	88.9933	70.3125	85.8481	70.3125	88.7485	70.3125	85.9603	70.3125	88.4507	70.3125	86.096	70.3125	88.1223	70.3125	86.2547	70.3125	87.7857	70.3125	86.4378	70.3125	87.4601	70.3125	86.6477	70.3125	87.1585	70.3125	86.8873
73.2422	87.6004	73.2422	87.2775	73.2422	87.935	73.2422	86.9764	73.2422	88.2698	73.2422	86.706	73.2422	88.5926	73.2422	86.4732	73.2422	88.89	73.2422	86.2828	73.2422	89.1485	73.2422	86.1375	73.2422	89.3542	73.2422	86.0378	73.2422	89.4939	73.2422	85.9822	73.2422	89.5564	73.2422	85.9675	73.2422	89.5341	73.2422	85.9899	73.2422	89.4249	73.2422	86.0447	73.2422	89.2339	73.2422	86.1276	73.2422	88.9741	73.2422	86.235	73.2422	88.6652	73.2422	86.3646	73.2422	88.3304	73.2422	86.5156	73.2422	87.993	73.2422	86.6894	73.2422	87.6715	73.2422	86.8886	73.2422	87.3779	73.2422	87.1171
76.1719	87.9382	76.1719	87.6141	76.1719	88.273	76.1719	87.3113	76.1719	88.6068	76.1719	87.0388	76.1719	88.9272	76.1719	86.8036	76.1719	89.2207	76.1719	86.611	76.1719	89.4735	76.1719	86.4635	76.1719	89.672	76.1719	86.3618	76.1719	89.803	76.1719	86.3042	76.1719	89.8556	76.1719	86.2875	76.1719	89.8226	76.1719	86.3077	76.1719	89.7029	76.1719	86.3598	76.1719	89.5024	76.1719	86.4395	76.1719	89.2352	76.1719	86.5429	76.1719	88.9216	76.1719	86.6676	76.1719	88.5855	76.1719	86.8128	76.1719	88.2499	76.1719	86.9798	76.1719	87.9331	76.1719	87.1717	76.1719	87.6459	76.1719	87.3925
79.1016	88.1114	79.1016	87.7837	79.1016	88.4496	79.1016	87.4775	79.1016	88.7862	79.1016	87.2021	79.1016	89.1081	79.1016	86.965	79.1016	89.4018	79.1016	86.7713	79.1016	89.6531	79.1016	86.6239	79.1016	89.8482	79.1016	86.523	79.1016	89.9741	79.1016	86.4669	79.1016	90.0199	79.1016	86.4521	79.1016	89.979	79.1016	86.474	79.1016	89.851	79.1016	86.5277	79.1016	89.6427	79.1016	86.6083	79.1016	89.3694	79.1016	86.7118	79.1016	89.0523	79.1016	86.8355	79.1016	88.7159	79.1016	86.9785	79.1016	88.3832	79.1016	87.142	79.1016	88.0714	79.1016	87.329	79.1016	87.7907	79.1016	87.5438
82.0313	88.2589	82.0313	87.9242	82.0313	88.6037	82.0313	87.6113	82.0313	88.9458	82.0313	87.3302	82.0313	89.2716	82.0313	87.0892	82.0313	89.5671	82.0313	86.8938	82.0313	89.8181	82.0313	86.7471	82.0313	90.0107	82.0313	86.6493	82.0313	90.1321	82.0313	86.5983	82.0313	90.1718	82.0313	86.59	82.0313	90.124	82.0313	86.6194	82.0313	89.9889	82.0313	86.6805	82.0313	89.7746	82.0313	86.7681	82.0313	89.4973	82.0313	86.8773	82.0313	89.1795	82.0313	87.0049	82.0313	88.8458	82.0313	87.1496	82.0313	88.5189	82.0313	87.3122	82.0313	88.2152	82.0313	87.4955	82.0313	87.9431	82.0313	87.7042
84.9609	88.3429	84.9609	87.9973	84.9609	88.6976	84.9609	87.6734	84.9609	89.0476	84.9609	87.3826	84.9609	89.3788	84.9609	87.1338	84.9609	89.6767	84.9609	86.9334	84.9609	89.9268	84.9609	86.7848	84.9609	90.1152	84.9609	86.6882	84.9609	90.2294	84.9609	86.6411	84.9609	90.2594	84.9609	86.6389	84.9609	90.2001	84.9609	86.6755	84.9609	90.0528	84.9609	86.7443	84.9609	89.8271	84.9609	86.839	84.9609	89.5408	84.9609	86.954	84.9609	89.2175	84.9609	87.0852	84.9609	88.883	84.9609	87.2308	84.9609	88.5597	84.9609	87.3912	84.9609	88.2631	84.9609	87.5694	84.9609	88.0001	84.9609	87.7704
87.8906	88.443	87.8906	88.0914	87.8906	88.802	87.8906	87.7605	87.8906	89.1543	87.8906	87.462	87.8906	89.4855	87.8906	87.2058	87.8906	89.781	87.8906	86.9988	87.8906	90.0263	87.8906	86.8448	87.8906	90.2077	87.8906	86.7443	87.8906	90.3127	87.8906	86.6948	87.8906	90.3318	87.8906	86.6914	87.8906	90.2604	87.8906	86.7275	87.8906	90.1005	87.8906	86.7961	87.8906	89.8628	87.8906	86.89	87.8906	89.566	87.8906	87.0034	87.8906	89.2348	87.8906	87.1318	87.8906	88.8957	87.8906	87.2732	87.8906	88.5713	87.8906	87.4281	87.8906	88.2767	87.8906	87.5999	87.8906	88.0181	87.8906	87.7943
90.8203	88.4308	90.8203	88.0739	90.8203	88.7955	90.8203	87.7387	90.8203	89.1534	90.8203	87.4376	90.8203	89.4893	90.8203	87.181	90.8203	89.7886	90.8203	86.9759	90.8203	90.0365	90.8203	86.8263	90.8203	90.2194	90.8203	86.7323	90.8203	90.325	90.8203	86.6908	90.8203	90.3441	90.8203	86.6963	90.8203	90.2726	90.8203	86.7417	90.8203	90.1133	90.8203	86.8194	90.8203	89.8774	90.8203	86.9219	90.8203	89.5842	90.8203	87.0429	90.8203	89.2586	90.8203	87.1777	90.8203	88.9265	90.8203	87.3241	90.8203	88.6098	90.8203	87.4824	90.8203	88.3224	90.8203	87.6555	90.8203	88.0694	90.8203	87.849
93.75	88.7786	93.75	88.3939	93.75	89.1667	93.75	88.0283	93.75	89.5427	93.75	87.6964	93.75	89.891	93.75	87.4109	93.75	90.1967	93.75	87.1817	93.75	90.445	93.75	87.0147	93.75	90.6224	93.75	86.9115	93.75	90.7167	93.75	86.8698	93.75	90.719	93.75	86.8833	93.75	90.626	93.75	86.9438	93.75	90.4422	93.75	87.0417	93.75	90.1815	93.75	87.1671	93.75	89.8672	93.75	87.3113	93.75	89.5279	93.75	87.4672	93.75	89.1921	93.75	87.63	93.75	88.8813	93.75	87.7979	93.75	88.6067	93.75	87.9729	93.75	88.3685	93.75	88.1603
96.6797	88.8193	96.6797	88.4299	96.6797	89.2096	96.6797	88.0569	96.6797	89.5847	96.6797	87.7153	96.6797	89.9289	96.6797	87.4183	96.6797	90.2271	96.6797	87.1758	96.6797	90.4646	96.6797	86.9942	96.6797	90.6274	96.6797	86.8756	96.6797	90.7036	96.6797	86.8176	96.6797	90.6846	96.6797	86.8146	96.6797	90.5678	96.6797	86.8583	96.6797	90.3587	96.6797	86.9395	96.6797	90.0728	96.6797	87.0485	96.6797	89.7349	96.6797	87.177	96.6797	89.3752	96.6797	87.3181	96.6797	89.0232	96.6797	87.4676	96.6797	88.7011	96.6797	87.6243	96.6797	88.4196	96.6797	87.7906	96.6797	88.1791	96.6797	87.9726
102.539	88.8432	102.539	88.4169	102.539	89.2635	102.539	88.0024	102.539	89.6607	102.539	87.6175	102.539	90.0186	102.539	87.2787	102.539	90.3221	102.539	86.9997	102.539	90.5569	102.539	86.7896	102.539	90.7098	102.539	86.6524	102.539	90.7697	102.539	86.5861	102.539	90.729	102.539	86.584	102.539	90.5861	102.539	86.6361	102.539	90.3482	102.539	86.7305	102.539	90.0329	102.539	86.8552	102.539	89.6671	102.539	86.9996	102.539	89.2834	102.539	87.155	102.539	88.9131	102.539	87.3161	102.539	88.5786	102.539	87.4811	102.539	88.2902	102.539	87.6527	102.539	88.0463	102.539	87.8376
105.469	88.9391	105.469	88.4924	105.469	89.3724	105.469	88.0501	105.469	89.7755	105.469	87.6308	105.469	90.1332	105.469	87.2527	105.469	90.4311	105.469	86.9319	105.469	90.6557	105.469	86.6808	105.469	90.7947	105.469	86.5064	105.469	90.8375	105.469	86.4092	105.469	90.7772	105.469	86.3841	105.469	90.613	105.469	86.4211	105.469	90.3526	105.469	86.5079	105.469	90.0144	105.469	86.6314	105.469	89.6262	105.469	86.7794	105.469	89.221	105.469	86.9423	105.469	88.8301	105.469	87.1137	105.469	88.4757	105.469	87.2915	105.469	88.168	105.469	87.4777	105.469	87.9053	105.469	87.679
108.398	89.1954	108.398	88.7559	108.398	89.6185	108.398	88.3167	108.398	90.0096	108.398	87.8953	108.398	90.3542	108.398	87.5089	108.398	90.6386	108.398	87.1737	108.398	90.8499	108.398	86.9026	108.398	90.976	108.398	86.7042	108.398	91.0069	108.398	86.5814	108.398	90.9359	108.398	86.5315	108.398	90.7628	108.398	86.5468	108.398	90.4959	108.398	86.6165	108.398	90.1541	108.398	86.7284	108.398	89.7652	108.398	86.8705	108.398	89.3614	108.398	87.033	108.398	88.9723	108.398	87.2087	108.398	88.6182	108.398	87.3943	108.398	88.3076	108.398	87.5907	108.398	88.0384	108.398	87.8027
111.328	89.3395	111.328	88.9072	111.328	89.7554	111.328	88.4752	111.328	90.1391	111.328	88.0608	111.328	90.4762	111.328	87.6812	111.328	90.7528	111.328	87.3522	111.328	90.9559	111.328	87.0866	111.328	91.0738	111.328	86.8928	111.328	91.0965	111.328	86.7739	111.328	91.0182	111.328	86.7272	111.328	90.8395	111.328	86.7456	111.328	90.5704	111.328	86.8184	111.328	90.2314	111.328	86.9337	111.328	89.8518	111.328	87.0797	111.328	89.4644	111.328	87.2458	111.328	89.0973	111.328	87.4243	111.328	88.7678	111.328	87.6106	111.328	88.4807	111.328	87.8043	111.328	88.2309	111.328	88.0086
117.188	89.3268	117.188	88.8848	117.188	89.7496	117.188	88.4413	117.188	90.137	117.188	88.0144	117.188	90.4739	117.188	87.6228	117.188	90.7462	117.188	87.2835	117.188	90.9407	117.188	87.011	117.188	91.0454	117.188	86.8147	117.188	91.0505	117.188	86.6982	117.188	90.9504	117.188	86.659	117.188	90.7469	117.188	86.6889	117.188	90.4523	117.188	86.776	117.188	90.0908	117.188	86.9064	117.188	89.6964	117.188	87.0662	117.188	89.306	117.188	87.2428	117.188	88.9499	117.188	87.4261	117.188	88.6437	117.188	87.6098	117.188	88.3872	117.188	87.7918	117.188	88.1695	117.188	87.9754
120.117	89.4637	120.117	89.0184	120.117	89.8882	120.117	88.5699	120.117	90.2759	120.117	88.1363	120.117	90.6118	120.117	87.7361	120.117	90.8816	120.117	87.3865	120.117	91.0721	120.117	87.1022	120.117	91.1712	120.117	86.8936	120.117	91.1688	120.117	86.7653	120.117	91.0594	120.117	86.7156	120.117	90.8447	120.117	86.7372	120.117	90.5373	120.117	86.8186	120.117	90.1622	120.117	86.9459	120.117	89.7547	120.117	87.1046	120.117	89.3534	120.117	87.2813	120.117	88.9897	120.117	87.4652	120.117	88.6795	120.117	87.6492	120.117	88.4223	120.117	87.8308	120.117	88.2056	120.117	88.0132
125.977	89.4166	125.977	88.9629	125.977	89.8494	125.977	88.5071	125.977	90.2439	125.977	88.0691	125.977	90.5842	125.977	87.6688	125.977	90.8556	125.977	87.3243	125.977	91.0447	125.977	87.0506	125.977	91.1397	125.977	86.8574	125.977	91.1314	125.977	86.7482	125.977	91.015	125.977	86.7199	125.977	90.7941	125.977	86.7636	125.977	90.4834	125.977	86.8665	125.977	90.1106	125.977	87.0135	125.977	89.713	125.977	87.1892	125.977	89.3298	125.977	87.3794	125.977	88.991	125.977	87.5723	125.977	88.7092	125.977	87.7598	125.977	88.4795	125.977	87.9385	125.977	88.2862	125.977	88.111
128.906	89.4411	128.906	88.9797	128.906	89.8787	128.906	88.5139	128.906	90.275	128.906	88.064	128.906	90.6137	128.906	87.6505	128.906	90.8801	128.906	87.2924	128.906	91.0608	128.906	87.0055	128.906	91.1438	128.906	86.8004	128.906	91.1198	128.906	86.681	128.906	90.9847	128.906	86.6445	128.906	90.7425	128.906	86.6821	128.906	90.4093	128.906	86.7808	128.906	90.0148	128.906	86.9249	128.906	89.5991	128.906	87.0985	128.906	89.2037	128.906	87.2867	128.906	88.8595	128.906	87.4771	128.906	88.5785	128.906	87.6609	128.906	88.354	128.906	87.8345	128.906	88.168	128.906	88.0003
134.766	89.6076	134.766	89.1252	134.766	90.0634	134.766	88.6374	134.766	90.4733	134.766	88.167	134.766	90.8199	134.766	87.7371	134.766	91.0879	134.766	87.3688	134.766	91.2638	134.766	87.0794	134.766	91.3358	134.766	86.8798	134.766	91.2951	134.766	86.7732	134.766	91.1386	134.766	86.7555	134.766	90.8725	134.766	86.8158	134.766	90.5165	134.766	86.9389	134.766	90.1055	134.766	87.1073	134.766	89.6849	134.766	87.3033	134.766	89.2993	134.766	87.5102	134.766	88.9782	134.766	87.714	134.766	88.7285	134.766	87.9044	134.766	88.5366	134.766	88.0763	134.766	88.3788	134.766	88.2313
137.695	89.5149	137.695	89.0201	137.695	89.9803	137.695	88.5179	137.695	90.3967	137.695	88.0322	137.695	90.747	137.695	87.5874	137.695	91.016	137.695	87.2066	137.695	91.1902	137.695	86.9088	137.695	91.2582	137.695	86.7061	137.695	91.2115	137.695	86.6025	137.695	91.0473	137.695	86.5931	137.695	90.7725	137.695	86.6659	137.695	90.4083	137.695	86.804	137.695	89.9909	137.695	86.988	137.695	89.5675	137.695	87.1986	137.695	89.1836	137.695	87.4179	137.695	88.8686	137.695	87.6309	137.695	88.6275	137.695	87.8269	137.695	88.4448	137.695	88.0004	137.695	88.2951	137.695	88.1532
143.555	89.2988	143.555	88.7758	143.555	89.7883	143.555	88.2427	143.555	90.2236	143.555	87.7257	143.555	90.5868	143.555	87.2517	143.555	90.8625	143.555	86.8466	143.555	91.0372	143.555	86.5319	143.555	91.0995	143.555	86.3213	143.555	91.0415	143.555	86.219	143.555	90.8612	143.555	86.2192	143.555	90.5671	143.555	86.3079	143.555	90.1826	143.555	86.4657	143.555	89.7476	143.555	86.6712	143.555	89.3129	143.555	86.903	143.555	88.9258	143.555	87.1418	143.555	88.6148	143.555	87.3716	143.555	88.3816	143.555	87.5806	143.555	88.2067	143.555	87.7631	143.555	88.0618	143.555	87.9202
149.414	89.0705	149.414	88.5107	149.414	89.5877	149.414	87.9338	149.414	90.0409	149.414	87.3691	149.414	90.4122	149.414	86.8481	149.414	90.6864	149.414	86.4018	149.414	90.851	149.414	86.0568	149.414	90.8957	149.414	85.8304	149.414	90.8137	149.414	85.7279	149.414	90.6049	149.414	85.7419	149.414	90.2802	149.414	85.855	149.414	89.8668	149.414	86.0439	149.414	89.4095	149.414	86.2829	149.414	88.9634	149.414	86.5475	149.414	88.5785	149.414	86.8159	149.414	88.2813	149.414	87.0701	149.414	88.0681	149.414	87.2971	149.414	87.9131	149.414	87.4898	149.414	87.7831	149.414	87.6486
155.273	89.1336	155.273	88.5283	155.273	89.6785	155.273	87.8874	155.273	90.1432	155.273	87.2412	155.273	90.512	155.273	86.6256	155.273	90.7716	155.273	86.0793	155.273	90.9109	155.273	85.6392	155.273	90.9206	155.273	85.3335	155.273	90.7946	155.273	85.175	155.273	90.5334	155.273	85.1588	155.273	90.1492	155.273	85.2647	155.273	89.6722	155.273	85.4634	155.273	89.1522	155.273	85.7229	155.273	88.6513	155.273	86.0135	155.273	88.2253	155.273	86.3093	155.273	87.9021	155.273	86.59	155.273	87.6748	155.273	86.8408	155.273	87.5115	155.273	87.0535	155.273	87.3734	155.273	87.2278
158.203	89.3675	158.203	88.7635	158.203	89.9062	158.203	88.1165	158.203	90.3615	158.203	87.4548	158.203	90.7187	158.203	86.8123	158.203	90.9654	158.203	86.2275	158.203	91.091	158.203	85.7399	158.203	91.0864	158.203	85.3829	158.203	90.9456	158.203	85.1765	158.203	90.6692	158.203	85.1223	158.203	90.2696	158.203	85.2038	158.203	89.7773	158.203	85.3918	158.203	89.2431	158.203	85.6526	158.203	88.7303	158.203	85.9531	158.203	88.2954	158.203	86.2645	158.203	87.966	158.203	86.5637	158.203	87.7334	158.203	86.8341	158.203	87.5633	158.203	87.0656	158.203	87.4155	158.203	87.2565
164.063	89.6006	164.063	89.0134	164.063	90.1209	164.063	88.3797	164.063	90.5574	164.063	87.7246	164.063	90.8961	164.063	87.0782	164.063	91.1248	164.063	86.4756	164.063	91.2327	164.063	85.9546	164.063	91.2099	164.063	85.5508	164.063	91.0495	164.063	85.2908	164.063	90.7504	164.063	85.1859	164.063	90.3238	164.063	85.2286	164.063	89.8001	164.063	85.3954	164.063	89.2329	164.063	85.6529	164.063	88.692	164.063	85.9643	164.063	88.2424	164.063	86.2949	164.063	87.9177	164.063	86.6148	164.063	87.7077	164.063	86.9005	164.063	87.5703	164.063	87.1366	164.063	87.4545	164.063	87.3184
169.922	89.398	169.922	88.8176	169.922	89.9176	169.922	88.1978	169.922	90.3585	169.922	87.5643	169.922	90.7055	169.922	86.9468	169.922	90.9457	169.922	86.3785	169.922	91.0678	169.922	85.8935	169.922	91.062	169.922	85.5227	169.922	90.9214	169.922	85.2877	169.922	90.6453	169.922	85.1964	169.922	90.2446	169.922	85.2405	169.922	89.7479	169.922	85.3981	169.922	89.204	169.922	85.6384	169.922	88.6752	169.922	85.9278	169.922	88.2195	169.922	86.2341	169.922	87.8703	169.922	86.5292	169.922	87.6262	169.922	86.7922	169.922	87.4578	169.922	87.0105	169.922	87.3232	169.922	87.1833
175.781	89.1726	175.781	88.5726	175.781	89.7075	175.781	87.9307	175.781	90.1579	175.781	87.2746	175.781	90.5081	175.781	86.637	175.781	90.7447	175.781	86.0544	175.781	90.8564	175.781	85.5645	175.781	90.8347	175.781	85.2012	175.781	90.6749	175.781	84.9879	175.781	90.3809	175.781	84.932	175.781	89.9709	175.781	85.0226	175.781	89.4836	175.781	85.2338	175.781	88.9771	175.781	85.5306	175.781	88.5165	175.781	85.8756	175.781	88.1496	175.781	86.2338	175.781	87.8896	175.781	86.5756	175.781	87.7158	175.781	86.8785	175.781	87.5893	175.781	87.1288	175.781	87.4694	175.781	87.3229
181.641	88.9435	181.641	88.3064	181.641	89.5072	181.641	87.6212	181.641	89.9769	181.641	86.9186	181.641	90.3358	181.641	86.235	181.641	90.5698	181.641	85.6114	181.641	90.6672	181.641	85.0901	181.641	90.6191	181.641	84.7087	181.641	90.4211	181.641	84.4922	181.641	90.0782	181.641	84.4468	181.641	89.6126	181.641	84.5589	181.641	89.0712	181.641	84.7992	181.641	88.5252	181.641	85.1295	181.641	88.0533	181.641	85.5101	181.641	87.7089	181.641	85.9036	181.641	87.4968	181.641	86.2782	181.641	87.3789	181.641	86.6084	181.641	87.3004	181.641	86.877	181.641	87.2113	181.641	87.0765
190.43	89.2785	190.43	88.6041	190.43	89.8585	190.43	87.8577	190.43	90.3256	190.43	87.0676	190.43	90.6645	190.43	86.2695	190.43	90.8622	190.43	85.5068	190.43	90.9071	190.43	84.83	190.43	90.7892	190.43	84.2914	190.43	90.5023	190.43	83.9343	190.43	90.0485	190.43	83.7813	190.43	89.4479	190.43	83.8266	190.43	88.7497	190.43	84.0386	190.43	88.0382	190.43	84.3701	190.43	87.4174	190.43	84.7696	190.43	86.9693	190.43	85.1892	190.43	86.7122	190.43	85.5882	190.43	86.5986	190.43	85.9345	190.43	86.5513	190.43	86.2059	190.43	86.4989	190.43	86.3923
196.289	89.5922	196.289	88.9224	196.289	90.1651	196.289	88.1771	196.289	90.6238	196.289	87.3826	196.289	90.9539	196.289	86.5724	196.289	91.1431	196.289	85.7882	196.289	91.1805	196.289	85.0807	196.289	91.057	196.289	84.5051	196.289	90.7668	196.289	84.1121	196.289	90.3118	196.289	83.9329	196.289	89.7113	196.289	83.9684	196.289	89.0121	196.289	84.1883	196.289	88.2951	196.289	84.5413	196.289	87.6615	196.289	84.9693	196.289	87.1959	196.289	85.4176	196.289	86.9249	196.289	85.8399	196.289	86.8096	196.289	86.2001	196.289	86.7739	196.289	86.4738	196.289	86.7402	196.289	86.6509
202.148	89.5947	202.148	88.9355	202.148	90.1572	202.148	88.2005	202.148	90.6051	202.148	87.4149	202.148	90.9234	202.148	86.6095	202.148	91.0994	202.148	85.822	202.148	91.1225	202.148	85.0978	202.148	90.9841	202.148	84.4886	202.148	90.6805	202.148	84.0456	202.148	90.2167	202.148	83.8069	202.148	89.616	202.148	83.7844	202.148	88.929	202.148	83.9578	202.148	88.2345	202.148	84.2806	202.148	87.6218	202.148	84.6929	202.148	87.1562	202.148	85.1353	202.148	86.8533	202.148	85.5566	202.148	86.682	202.148	85.9183	202.148	86.5866	202.148	86.1973	202.148	86.5062	202.148	86.3883
210.938	89.1859	210.938	88.5138	210.938	89.7556	210.938	87.7641	210.938	90.2017	210.938	86.9659	210.938	90.5068	210.938	86.1522	210.938	90.6558	210.938	85.3604	210.938	90.6359	210.938	84.6328	210.938	90.4358	210.938	84.0158	210.938	90.0484	210.938	83.5565	210.938	89.4783	210.938	83.2942	210.938	88.7565	210.938	83.2486	210.938	87.9594	210.938	83.4105	210.938	87.2138	210.938	83.7411	210.938	86.6576	210.938	84.1826	210.938	86.3583	210.938	84.6717	210.938	86.2711	210.938	85.1511	210.938	86.2892	210.938	85.5756	210.938	86.313	210.938	85.914	210.938	86.2777	210.938	86.149
216.797	89.1414	216.797	88.4469	216.797	89.7304	216.797	87.671	216.797	90.1938	216.797	86.8423	216.797	90.5142	216.797	85.994	216.797	90.6763	216.797	85.1647	216.797	90.6662	216.797	84.3982	216.797	90.4702	216.797	83.7415	216.797	90.0774	216.797	83.2409	216.797	89.4846	216.797	82.9337	216.797	88.7092	216.797	82.8384	216.797	87.8073	216.797	82.947	216.797	86.8892	216.797	83.2246	216.797	86.1065	216.797	83.6174	216.797	85.5872	216.797	84.0638	216.797	85.3566	216.797	84.5046	216.797	85.3314	216.797	84.8896	216.797	85.3866	216.797	85.1811	216.797	85.4168	216.797	85.3574
225.586	89.4517	225.586	88.7343	225.586	90.0548	225.586	87.933	225.586	90.5192	225.586	87.0839	225.586	90.8258	225.586	86.2283	225.586	90.9597	225.586	85.41	225.586	90.9091	225.586	84.673	225.586	90.6648	225.586	84.0593	225.586	90.223	225.586	83.6067	225.586	89.5928	225.586	83.3447	225.586	88.8119	225.586	83.2885	225.586	87.9656	225.586	83.4321	225.586	87.1886	225.586	83.7447	225.586	86.6177	225.586	84.1745	225.586	86.3094	225.586	84.6595	225.586	86.2123	225.586	85.1389	225.586	86.2239	225.586	85.5621	225.586	86.2508	225.586	85.8937	225.586	86.2281	225.586	86.1156
234.375	89.5457	234.375	88.8145	234.375	90.1483	234.375	87.9784	234.375	90.6035	234.375	87.0683	234.375	90.8952	234.375	86.1242	234.375	91.0092	234.375	85.197	234.375	90.9311	234.375	84.3465	234.375	90.6462	234.375	83.6346	234.375	90.1408	234.375	83.1136	234.375	89.4089	234.375	82.8145	234.375	88.4689	234.375	82.7412	234.375	87.3908	234.375	82.8717	234.375	86.3198	234.375	83.1649	234.375	85.4563	234.375	83.5663	234.375	84.9518	234.375	84.0152	234.375	84.8056	234.375	84.451	234.375	84.8905	234.375	84.8192	234.375	85.0546	234.375	85.077	234.375	85.1808	234.375	85.1983
240.234	89.3505	240.234	88.6139	240.234	89.9713	240.234	87.788	240.234	90.4533	240.234	86.9033	240.234	90.7766	240.234	85.9958	240.234	90.9237	240.234	85.108	240.234	90.8785	240.234	84.29	240.234	90.6265	240.234	83.5964	240.234	90.1557	240.234	83.0788	240.234	89.464	240.234	82.7749	240.234	88.5752	240.234	82.6978	240.234	87.5636	240.234	82.8318	240.234	86.5724	240.234	83.136	240.234	85.7826	240.234	83.5528	240.234	85.3143	240.234	84.0184	240.234	85.1498	240.234	84.4707	240.234	85.1747	240.234	84.8567	240.234	85.2645	240.234	85.1373	240.234	85.3242	240.234	85.2921
249.023	88.9328	249.023	88.0971	249.023	89.6384	249.023	87.1717	249.023	90.1831	249.023	86.2057	249.023	90.5435	249.023	85.2554	249.023	90.7024	249.023	84.38	249.023	90.646	249.023	83.6352	249.023	90.3627	249.023	83.0662	249.023	89.8443	249.023	82.7021	249.023	89.0931	249.023	82.5538	249.023	88.1411	249.023	82.6129	249.023	87.0785	249.023	82.8529	249.023	86.0719	249.023	83.2308	249.023	85.3166	249.023	83.6907	249.023	84.9163	249.023	84.1702	249.023	84.8222	249.023	84.6083	249.023	84.9102	249.023	84.9539	249.023	85.0656	249.023	85.172	249.023	85.2006	249.023	85.2497
257.813	89.7457	257.813	88.8404	257.813	90.4636	257.813	87.7721	257.813	90.9774	257.813	86.5762	257.813	91.2747	257.813	85.3053	257.813	91.346	257.813	84.0366	257.813	91.1817	257.813	82.8772	257.813	90.7708	257.813	81.9541	257.813	90.1005	257.813	81.38	257.813	89.1639	257.813	81.2045	257.813	87.9848	257.813	81.3933	257.813	86.6695	257.813	81.8546	257.813	85.4663	257.813	82.4816	257.813	84.7108	257.813	83.1775	257.813	84.5473	257.813	83.8632	257.813	84.783	257.813	84.4777	257.813	85.1306	257.813	84.9767	257.813	85.411	257.813	85.3311	257.813	85.5501	257.813	85.5245
266.602	90.202	266.602	89.3865	266.602	90.8503	266.602	88.4248	266.602	91.3159	266.602	87.3447	266.602	91.5874	266.602	86.1828	266.602	91.6556	266.602	84.9871	266.602	91.5105	266.602	83.8195	266.602	91.1398	266.602	82.7589	266.602	90.5283	266.602	81.8976	266.602	89.6633	266.602	81.3264	266.602	88.5519	266.602	81.1058	266.602	87.2542	266.602	81.2365	266.602	85.9217	266.602	81.652	266.602	84.7909	266.602	82.2423	266.602	84.0685	266.602	82.8879	266.602	83.7916	266.602	83.4843	266.602	83.8401	266.602	83.9525	266.602	84.0434	266.602	84.2421	266.602	84.2461	266.602	84.3339
278.32	89.1155	278.32	88.2658	278.32	89.8006	278.32	87.2745	278.32	90.3022	278.32	86.1702	278.32	90.6043	278.32	84.9897	278.32	90.6939	278.32	83.7828	278.32	90.5588	278.32	82.6182	278.32	90.1872	278.32	81.5862	278.32	89.5675	278.32	80.7913	278.32	88.6979	278.32	80.3279	278.32	87.6108	278.32	80.2442	278.32	86.4208	278.32	80.5186	278.32	85.3595	278.32	81.0677	278.32	84.6899	278.32	81.7776	278.32	84.4835	278.32	82.5364	278.32	84.5675	278.32	83.2534	278.32	84.7256	278.32	83.8657	278.32	84.8263	278.32	84.3366	278.32	84.8103	278.32	84.6512
287.109	89.3239	287.109	88.5103	287.109	89.9609	287.109	87.5464	287.109	90.401	287.109	86.4633	287.109	90.6287	287.109	85.2977	287.109	90.6316	287.109	84.0923	287.109	90.3983	287.109	82.9	287.109	89.9155	287.109	81.7921	287.109	89.1674	287.109	80.8672	287.109	88.1445	287.109	80.2479	287.109	86.874	287.109	80.0466	287.109	85.4854	287.109	80.2991	287.109	84.28	287.109	80.9264	287.109	83.629	287.109	81.7716	287.109	83.6214	287.109	82.6717	287.109	83.9882	287.109	83.5006	287.109	84.429	287.109	84.1765	287.109	84.7741	287.109	84.6532	287.109	84.9462	287.109	84.9105
295.898	89.3018	295.898	88.5006	295.898	89.9201	295.898	87.5412	295.898	90.3366	295.898	86.4548	295.898	90.5354	295.898	85.2815	295.898	90.5023	295.898	84.0708	295.898	90.2218	295.898	82.8806	295.898	89.674	295.898	81.7739	295.898	88.8327	295.898	80.8171	295.898	87.6734	295.898	80.0832	295.898	86.2073	295.898	79.6544	295.898	84.5673	295.898	79.604	295.898	83.1256	295.898	79.9454	295.898	82.3767	295.898	80.593	295.898	82.4015	295.898	81.3905	295.898	82.8032	295.898	82.1797	295.898	83.2298	295.898	82.8464	295.898	83.5329	295.898	83.3276	295.898	83.6637	295.898	83.5997
307.617	89.5717	307.617	88.7689	307.617	90.1947	307.617	87.8128	307.617	90.6152	307.617	86.7334	307.617	90.8142	307.617	85.5651	307.617	90.7754	307.617	84.3515	307.617	90.4816	307.617	83.1507	307.617	89.9097	307.617	82.0393	307.617	89.0275	307.617	81.1064	307.617	87.799	307.617	80.4375	307.617	86.2139	307.617	80.093	307.617	84.3744	307.617	80.0913	307.617	82.6509	307.617	80.4006	307.617	81.6552	307.617	80.9415	307.617	81.6143	307.617	81.6036	307.617	82.1038	307.617	82.2716	307.617	82.6833	307.617	82.8466	307.617	83.1481	307.617	83.2559	307.617	83.4159	307.617	83.453
319.336	89.0647	319.336	88.2121	319.336	89.7497	319.336	87.2305	319.336	90.2364	319.336	86.165	319.336	90.5002	319.336	85.0628	319.336	90.5191	319.336	83.9685	319.336	90.2691	319.336	82.9218	319.336	89.7192	319.336	81.9604	319.336	88.8281	319.336	81.1259	319.336	87.5477	319.336	80.4699	319.336	85.8543	319.336	80.0542	319.336	83.8495	319.336	79.935	319.336	81.9737	319.336	80.1274	319.336	80.9822	319.336	80.5761	319.336	81.0481	319.336	81.1638	319.336	81.5591	319.336	81.7571	319.336	82.0604	319.336	82.2475	319.336	82.4288	319.336	82.5698	319.336	82.6471	319.336	82.7007
331.055	89.4835	331.055	88.3949	331.055	90.3524	331.055	87.1388	331.055	90.9649	331.055	85.7861	331.055	91.2949	331.055	84.4245	331.055	91.3217	331.055	83.1456	331.055	91.0242	331.055	82.0227	331.055	90.3732	331.055	81.0918	331.055	89.3227	331.055	80.3549	331.055	87.8054	331.055	79.8037	331.055	85.756	331.055	79.4446	331.055	83.2514	331.055	79.3042	331.055	80.9827	331.055	79.4079	331.055	80.3518	331.055	79.747	331.055	81.1898	331.055	80.2619	331.055	82.1458	331.055	80.8617	331.055	82.7072	331.055	81.4602	331.055	82.8749	331.055	81.9986	331.055	82.7545	331.055	82.4419
342.773	90.1621	342.773	89.0199	342.773	91.0396	342.773	87.6437	342.773	91.6317	342.773	86.0788	342.773	91.9257	342.773	84.3932	342.773	91.9132	342.773	82.6907	342.773	91.5859	342.773	81.1176	342.773	90.9278	342.773	79.8421	342.773	89.9046	342.773	78.9957	342.773	88.4554	342.773	78.6235	342.773	86.5044	342.773	78.6974	342.773	84.0613	342.773	79.156	342.773	81.6322	342.773	79.9172	342.773	80.7035	342.773	80.8742	342.773	81.6872	342.773	81.9057	342.773	83.106	342.773	82.8978	342.773	84.1812	342.773	83.7613	342.773	84.8004	342.773	84.4332	342.773	85.007	342.773	84.865
354.492	90.1219	354.492	89.0396	354.492	90.9424	354.492	87.7263	354.492	91.4804	354.492	86.2241	354.492	91.7234	354.492	84.5885	354.492	91.6621	354.492	82.8942	354.492	91.2841	354.492	81.2455	354.492	90.5639	354.492	79.7793	354.492	89.4497	354.492	78.6456	354.492	87.848	354.492	77.9657	354.492	85.6164	354.492	77.7989	354.492	82.6214	354.492	78.1356	354.492	79.2546	354.492	78.8996	354.492	78.0577	354.492	79.9546	354.492	79.9478	354.492	81.1344	354.492	82.0568	354.492	82.2842	354.492	83.5131	354.492	83.2858	354.492	84.3449	354.492	84.057	354.492	84.6556	354.492	84.5346
366.211	89.2815	366.211	88.1229	366.211	90.1547	366.211	86.7201	366.211	90.7191	366.211	85.1351	366.211	90.964	366.211	83.4472	366.211	90.8843	366.211	81.7459	366.211	90.4736	366.211	80.1224	366.211	89.7144	366.211	78.6715	366.211	88.5649	366.211	77.5	366.211	86.9467	366.211	76.7304	366.211	84.751	366.211	76.4793	366.211	81.9266	366.211	76.8046	366.211	78.9093	366.211	77.6492	366.211	77.4586	366.211	78.8408	366.211	78.4441	366.211	80.1579	366.211	80.1426	366.211	81.3998	366.211	81.6179	366.211	82.4176	366.211	82.6782	366.211	83.1106	366.211	83.277	366.211	83.4123
377.93	89.511	377.93	88.3172	377.93	90.3747	377.93	86.8224	377.93	90.8951	377.93	85.0818	377.93	91.0673	377.93	83.1895	377.93	90.8882	377.93	81.2849	377.93	90.349	377.93	79.5386	377.93	89.4243	377.93	78.1065	377.93	88.0536	377.93	77.0884	377.93	86.118	377.93	76.5395	377.93	83.4286	377.93	76.5036	377.93	79.8477	377.93	76.9966	377.93	76.3624	377.93	77.9467	377.93	76.3382	377.93	79.179	377.93	78.3647	377.93	80.4726	377.93	80.0485	377.93	81.63	377.93	81.2901	377.93	82.51	377.93	82.2317	377.93	83.0286	377.93	82.8701	377.93	83.1482
392.578	89.7897	392.578	88.7823	392.578	90.4699	392.578	87.4652	392.578	90.8229	392.578	85.882	392.578	90.859	392.578	84.1154	392.578	90.5893	392.578	82.2998	392.578	90.0119	392.578	80.6141	392.578	89.0928	392.578	79.2327	392.578	87.7432	392.578	78.2586	392.578	85.7914	392.578	77.7105	392.578	82.9414	392.578	77.5672	392.578	78.7536	392.578	77.7963	392.578	73.8298	392.578	78.3406	392.578	74.573	392.578	79.0954	392.578	77.6775	392.578	79.9117	392.578	79.5034	392.578	80.6312	392.578	80.4344	392.578	81.1334	392.578	80.9131	392.578	81.3672	392.578	81.1946	392.578	81.3614
407.227	88.2616	407.227	86.9214	407.227	89.2865	407.227	85.2828	407.227	89.992	407.227	83.3928	407.227	90.3749	407.227	81.3543	407.227	90.4238	407.227	79.3558	407.227	90.1116	407.227	77.6658	407.227	89.3875	407.227	76.5265	407.227	88.1592	407.227	76.0226	407.227	86.257	407.227	76.1075	407.227	83.3642	407.227	76.712	407.227	78.9422	407.227	77.7533	407.227	74.0162	407.227	79.0919	407.227	76.629	407.227	80.5422	407.227	80.4253	407.227	81.9254	407.227	82.7327	407.227	83.1109	407.227	84.0857	407.227	84.0285	407.227	84.8092	407.227	84.66	407.227	85.0809	407.227	85.0128
421.875	89.5399	421.875	88.0994	421.875	90.5736	421.875	86.2371	421.875	91.209	421.875	83.9364	421.875	91.447	421.875	81.2047	421.875	91.278	421.875	78.1665	421.875	90.6745	421.875	75.2999	421.875	89.5738	421.875	73.5177	421.875	87.8455	421.875	73.1524	421.875	85.2207	421.875	73.5537	421.875	81.1174	421.875	74.2814	421.875	74.3085	421.875	75.3162	421.875	72.1571	421.875	76.6893	421.875	77.6881	421.875	78.2959	421.875	80.5805	421.875	79.9263	421.875	82.1348	421.875	81.3729	421.875	83.037	421.875	82.4977	421.875	83.5363	421.875	83.2475	421.875	83.7276	421.875	83.6405
436.523	88.9912	436.523	87.5085	436.523	90.0447	436.523	85.5645	436.523	90.6865	436.523	83.0973	436.523	90.9257	436.523	79.9924	436.523	90.7616	436.523	76.0599	436.523	90.1752	436.523	71.1472	436.523	89.1156	436.523	66.8092	436.523	87.4741	436.523	67.5544	436.523	85.0238	436.523	70.0158	436.523	81.2554	436.523	72.0513	436.523	74.7092	436.523	73.922	436.523	64.9883	436.523	75.8538	436.523	74.3695	436.523	77.7923	436.523	78.5256	436.523	79.5499	436.523	80.6349	436.523	80.9625	436.523	81.8191	436.523	81.9492	436.523	82.4472	436.523	82.5166	436.523	82.7168	436.523	82.7424
451.172	88.68	451.172	87.1721	451.172	89.7904	451.172	85.3013	451.172	90.4741	451.172	83.0843	451.172	90.7119	451.172	80.4796	451.172	90.4893	451.172	77.3428	451.172	89.7846	451.172	73.3816	451.172	88.551	451.172	68.067	451.172	86.6806	451.172	60.7787	451.172	83.9265	451.172	57.4845	451.172	79.7444	451.172	60.0997	451.172	73.5536	451.172	62.0924	451.172	73.3748	451.172	65.8642	451.172	77.8998	451.172	70.5457	451.172	80.5766	451.172	74.5232	451.172	82.1382	451.172	77.5675	451.172	82.9926	451.172	79.8039	451.172	83.2741	451.172	81.3849	451.172	83.0705	451.172	82.4443
465.82	88.433	465.82	86.7114	465.82	89.6269	465.82	84.4655	465.82	90.3041	465.82	81.7204	465.82	90.4794	465.82	78.5132	465.82	90.1604	465.82	74.8353	465.82	89.3338	465.82	70.5269	465.82	87.9453	465.82	65.2673	465.82	85.8612	465.82	59.6287	465.82	82.7962	465.82	58.4116	465.82	78.2758	465.82	60.8728	465.82	73.4457	465.82	64.5047	465.82	75.1568	465.82	68.8475	465.82	78.1678	465.82	73.006	465.82	80.0956	465.82	76.5691	465.82	81.5392	465.82	79.4362	465.82	82.711	465.82	81.5916	465.82	83.5504	465.82	83.0422	465.82	83.9524	465.82	83.8118
483.398	89.49	483.398	87.7539	483.398	90.6807	483.398	85.4478	483.398	91.3451	483.398	82.5392	483.398	91.4964	483.398	78.973	483.398	91.1391	483.398	74.6151	483.398	90.262	483.398	69.0781	483.398	88.8162	483.398	61.2156	483.398	86.6675	483.398	54.1482	483.398	83.4978	483.398	59.1763	483.398	78.6588	483.398	60.9664	483.398	72.8444	483.398	61.1419	483.398	75.0898	483.398	64.7536	483.398	78.2384	483.398	70.6586	483.398	79.7183	483.398	75.3962	483.398	80.4426	483.398	78.7958	483.398	81.0099	483.398	81.0679	483.398	81.7138	483.398	82.3513	483.398	82.4294	483.398	82.7504
500.977	88.4709	500.977	86.7268	500.977	89.6671	500.977	84.4285	500.977	90.3293	500.977	81.5768	500.977	90.4742	500.977	78.1617	500.977	90.1088	500.977	74.1434	500.977	89.2146	500.977	69.7475	500.977	87.7277	500.977	67.2561	500.977	85.5005	500.977	68.4563	500.977	82.1822	500.977	69.9684	500.977	76.822	500.977	70.3793	500.977	68.103	500.977	69.4281	500.977	73.3101	500.977	67.2719	500.977	77.8639	500.977	67.8871	500.977	80.011	500.977	72.6781	500.977	81.0147	500.977	76.6447	500.977	81.3357	500.977	79.219	500.977	81.3453	500.977	80.6692	500.977	81.3547	500.977	81.2637
518.555	89.0317	518.555	87.2286	518.555	90.2595	518.555	84.8264	518.555	90.9287	518.555	81.7841	518.555	91.0512	518.555	78.0173	518.555	90.6307	518.555	73.3667	518.555	89.6552	518.555	68.0036	518.555	88.0863	518.555	65.5496	518.555	85.8247	518.555	67.4572	518.555	82.6177	518.555	69.0465	518.555	77.9612	518.555	69.5093	518.555	72.5703	518.555	68.6105	518.555	73.6643	518.555	65.5596	518.555	76.8657	518.555	64.4047	518.555	79.335	518.555	71.6243	518.555	81.2288	518.555	76.7841	518.555	82.3944	518.555	79.9906	518.555	82.9349	518.555	81.8761	518.555	83.0742	518.555	82.803
536.133	89.6124	536.133	87.7613	536.133	90.8266	536.133	85.2651	536.133	91.4252	536.133	82.1306	536.133	91.428	536.133	78.3262	536.133	90.8381	536.133	73.5811	536.133	89.6282	536.133	67.0317	536.133	87.7233	536.133	62.339	536.133	84.9423	536.133	67.3038	536.133	80.7951	536.133	70.4695	536.133	74.0894	536.133	71.9926	536.133	70.843	536.133	72.3447	536.133	75.4954	536.133	71.5379	536.133	77.0729	536.133	70.1408	536.133	77.3107	536.133	71.5605	536.133	78.0724	536.133	75.5868	536.133	79.5146	536.133	78.8818	536.133	80.8987	536.133	80.9336	536.133	81.7781	536.133	81.8544
553.711	88.6118	553.711	86.4181	553.711	90.0104	553.711	83.3002	553.711	90.7037	553.711	79.0733	553.711	90.7495	553.711	73.4361	553.711	90.1741	553.711	65.654	553.711	88.9676	553.711	59.6288	553.711	87.0743	553.711	66.3744	553.711	84.3468	553.711	70.8099	553.711	80.3342	553.711	73.4777	553.711	73.301	553.711	74.9254	553.711	60.4986	553.711	75.2161	553.711	73.1588	553.711	74.019	553.711	76.6841	553.711	70.1638	553.711	78.041	553.711	61.6632	553.711	78.7406	553.711	71.5968	553.711	79.3522	553.711	77.3232	553.711	80.223	553.711	80.1359	553.711	81.0861	553.711	81.2314
574.219	89.8272	574.219	87.9009	574.219	91.0103	574.219	85.1231	574.219	91.5181	574.219	81.3261	574.219	91.3827	574.219	76.2278	574.219	90.5955	574.219	69.2404	574.219	89.1005	574.219	59.9132	574.219	86.7945	574.219	62.5703	574.219	83.499	574.219	68.2077	574.219	78.7128	574.219	72.2272	574.219	70.115	574.219	74.9247	574.219	60.3112	574.219	76.2188	574.219	71.6543	574.219	75.8371	574.219	75.2654	574.219	73.0532	574.219	78.0768	574.219	68.5383	574.219	79.9566	574.219	74.5368	574.219	80.876	574.219	79.7271	574.219	81.8102	574.219	82.3957	574.219	82.9282	574.219	83.3286
594.727	89.2141	594.727	87.0168	594.727	90.5632	594.727	83.7203	594.727	91.1727	594.727	78.7111	594.727	91.0769	594.727	69.7671	594.727	90.2654	594.727	57.9438	594.727	88.6923	594.727	69.0014	594.727	86.278	594.727	70.2138	594.727	82.8954	594.727	68.1825	594.727	78.2325	594.727	66.3016	594.727	71.0656	594.727	69.9733	594.727	55.3653	594.727	73.0274	594.727	62.5822	594.727	73.6606	594.727	68.2245	594.727	71.1976	594.727	74.2382	594.727	59.5746	594.727	77.7187	594.727	69.2405	594.727	79.2374	594.727	76.5805	594.727	80.084	594.727	79.767	594.727	80.8376	594.727	80.9555
615.234	90.2851	615.234	88.2648	615.234	91.4801	615.234	85.232	615.234	91.9444	615.234	80.7971	615.234	91.7257	615.234	74.2279	615.234	90.833	615.234	69.7749	615.234	89.2079	615.234	73.7814	615.234	86.6712	615.234	75.9516	615.234	82.8021	615.234	76.1405	615.234	76.278	615.234	74.7373	615.234	52.5577	615.234	72.6748	615.234	71.6898	615.234	72.6036	615.234	74.7317	615.234	73.673	615.234	74.8042	615.234	72.9344	615.234	76.7154	615.234	68.8447	615.234	78.939	615.234	69.1273	615.234	79.8901	615.234	75.9438	615.234	80.564	615.234	79.6195	615.234	81.285	615.234	81.1928
638.672	90.8563	638.672	88.6462	638.672	92.1697	638.672	85.3663	638.672	92.6645	638.672	80.6272	638.672	92.3815	638.672	73.6515	638.672	91.3309	638.672	68.9641	638.672	89.4468	638.672	73.6017	638.672	86.5131	638.672	76.5021	638.672	82.0085	638.672	77.6314	638.672	74.2793	638.672	77.3764	638.672	67.1016	638.672	76.3882	638.672	75.1185	638.672	76.0619	638.672	77.7019	638.672	76.5447	638.672	78.8218	638.672	76.0899	638.672	80.1282	638.672	72.8174	638.672	81.145	638.672	62.3505	638.672	81.9107	638.672	73.5031	638.672	82.8713	638.672	79.6041	638.672	83.3138	638.672	82.4111
659.18	91.3571	659.18	89.0576	659.18	92.7034	659.18	85.5387	659.18	93.2254	659.18	80.1836	659.18	92.9929	659.18	72.1909	659.18	92.0176	659.18	72.5281	659.18	90.2066	659.18	76.6393	659.18	87.3152	659.18	78.7047	659.18	82.8377	659.18	79.497	659.18	75.3313	659.18	79.1204	659.18	69.8775	659.18	77.8639	659.18	76.1348	659.18	77.0346	659.18	77.4467	659.18	77.5044	659.18	77.624	659.18	77.5679	659.18	80.049	659.18	75.3522	659.18	81.6786	659.18	66.8053	659.18	81.6944	659.18	69.23	659.18	81.6351	659.18	77.8066	659.18	81.8731	659.18	81.0018
682.617	91.92	682.617	89.5495	682.617	93.2249	682.617	85.8016	682.617	93.6102	682.617	79.8654	682.617	93.1694	682.617	69.3436	682.617	91.9446	682.617	70.6898	682.617	89.8509	682.617	75.945	682.617	86.6314	682.617	78.8341	682.617	81.9191	682.617	80.3577	682.617	75.6501	682.617	80.4628	682.617	74.1401	682.617	79.5623	682.617	77.6046	682.617	79.0981	682.617	78.5651	682.617	79.807	682.617	78.8826	682.617	80.0644	682.617	80.8131	682.617	78.3224	682.617	82.0077	682.617	72.1968	682.617	82.5537	682.617	69.0794	682.617	83.6634	682.617	78.9716	682.617	84.166	682.617	82.877
706.055	91.3628	706.055	88.9221	706.055	92.6492	706.055	84.7831	706.055	93.0166	706.055	77.2518	706.055	92.5798	706.055	64.6673	706.055	91.3309	706.055	74.8023	706.055	89.0542	706.055	77.7985	706.055	85.2855	706.055	79.6671	706.055	79.4649	706.055	80.8677	706.055	74.1938	706.055	80.8262	706.055	76.8104	706.055	79.9175	706.055	79.1916	706.055	79.8712	706.055	78.7758	706.055	80.9973	706.055	78.6009	706.055	81.3119	706.055	81.8691	706.055	79.3725	706.055	83.2707	706.055	72.6134	706.055	82.7989	706.055	70.537	706.055	83.0333	706.055	79.641	706.055	83.7529	706.055	82.9709
732.422	90.2009	732.422	87.2755	732.422	91.7873	732.422	82.1433	732.422	92.3678	732.422	72.6811	732.422	92.1077	732.422	75.918	732.422	91.0293	732.422	79.7175	732.422	88.9092	732.422	80.3887	732.422	85.1678	732.422	80.4034	732.422	78.6483	732.422	80.7268	732.422	73.1015	732.422	80.5258	732.422	78.1169	732.422	79.5894	732.422	80.1032	732.422	79.5744	732.422	78.3521	732.422	81.0326	732.422	74.5237	732.422	81.8741	732.422	78.9303	732.422	80.7507	732.422	81.1937	732.422	76.0124	732.422	81.4436	732.422	49.9902	732.422	82.4264	732.422	77.0091	732.422	83.0649	732.422	81.7181
758.789	89.8722	758.789	86.8225	758.789	91.5467	758.789	81.6483	758.789	92.1889	758.789	75.429	758.789	91.9628	758.789	79.1057	758.789	90.8292	758.789	81.7747	758.789	88.4158	758.789	82.1641	758.789	83.7678	758.789	81.8477	758.789	73.4158	758.789	81.6989	758.789	73.0393	758.789	80.9377	758.789	79.4068	758.789	78.8562	758.789	80.5498	758.789	77.5595	758.789	77.2852	758.789	79.7204	758.789	71.5112	758.789	81.344	758.789	79.3543	758.789	80.497	758.789	81.3977	758.789	75.5464	758.789	81.1759	758.789	58.7626	758.789	81.9832	758.789	77.0965	758.789	82.5792	758.789	81.3494
785.156	89.0844	785.156	85.895	785.156	90.9136	785.156	80.8299	785.156	91.677	785.156	77.2294	785.156	91.5008	785.156	80.9504	785.156	90.3294	785.156	83.0961	785.156	87.7741	785.156	83.1647	785.156	82.6385	785.156	82.604	785.156	67.5357	785.156	82.7836	785.156	77.2319	785.156	82.8712	785.156	82.0991	785.156	81.6926	785.156	82.4276	785.156	79.3403	785.156	78.7239	785.156	78.0474	785.156	73.3266	785.156	78.7106	785.156	78.6183	785.156	78.1714	785.156	79.7553	785.156	74.0538	785.156	79.5145	785.156	66.7178	785.156	80.9371	785.156	76.0924	785.156	81.5574	785.156	80.2152
811.523	88.6665	811.523	85.24	811.523	90.557	811.523	80.4499	811.523	91.2619	811.523	79.4441	811.523	91.079	811.523	82.4138	811.523	90.0789	811.523	83.9461	811.523	87.8744	811.523	83.8481	811.523	83.4478	811.523	83.0972	811.523	74.9201	811.523	83.01	811.523	77.4307	811.523	83.2487	811.523	81.3562	811.523	82.7708	811.523	81.2557	811.523	81.5565	811.523	76.8445	811.523	80.4561	811.523	73.3316	811.523	79.7291	811.523	79.3112	811.523	77.9579	811.523	80.086	811.523	73.0482	811.523	78.0872	811.523	70.1916	811.523	77.6357	811.523	76.3982	811.523	78.7635	811.523	78.7638
840.82	88.4812	840.82	85.6048	840.82	90.1547	840.82	82.3892	840.82	90.8544	840.82	82.4631	840.82	90.8407	840.82	84.574	840.82	90.0605	840.82	85.5154	840.82	88.0684	840.82	84.8208	840.82	84.1331	840.82	83.3794	840.82	78.7998	840.82	83.2866	840.82	80.6774	840.82	84.0372	840.82	83.2841	840.82	83.8982	840.82	82.9622	840.82	82.8296	840.82	80.6153	840.82	81.8904	840.82	81.8591	840.82	81.4662	840.82	83.7834	840.82	80.0349	840.82	82.7167	840.82	75.4672	840.82	80.4218	840.82	69.3956	840.82	79.9406	840.82	76.2612	840.82	79.7476	840.82	78.9979
870.117	89.0365	870.117	86.6775	870.117	90.5532	870.117	84.8094	870.117	91.1708	870.117	85.3885	870.117	91.0267	870.117	86.8943	870.117	90.0009	870.117	87.4584	870.117	87.6573	870.117	86.4086	870.117	83.7164	870.117	83.853	870.117	81.6813	870.117	82.0025	870.117	83.7324	870.117	82.5615	870.117	84.0942	870.117	82.9803	870.117	82.5398	870.117	82.9861	870.117	83.2744	870.117	83.6068	870.117	85.6742	870.117	84.2527	870.117	85.9331	870.117	83.5273	870.117	84.1281	870.117	80.1968	870.117	81.9799	870.117	73.5686	870.117	80.0226	870.117	76.7228	870.117	79.0556	870.117	79.3453
902.344	90.5059	902.344	89.0178	902.344	91.0811	902.344	87.1134	902.344	91.0271	902.344	86.3429	902.344	90.5816	902.344	87.1815	902.344	89.3008	902.344	88.2962	902.344	86.4016	902.344	88.5396	902.344	82.5865	902.344	87.3783	902.344	83.5894	902.344	84.8677	902.344	85.3166	902.344	81.9487	902.344	83.9587	902.344	79.9349	902.344	80.9697	902.344	79.1486	902.344	84.7353	902.344	80.4032	902.344	87.3794	902.344	82.3743	902.344	86.36	902.344	83.1011	902.344	82.4681	902.344	81.838	902.344	80.3998	902.344	78.5868	902.344	79.4179	902.344	76.8477	902.344	77.2884	902.344	77.3644
931.641	90.2965	931.641	89.151	931.641	90.8008	931.641	87.539	931.641	90.992	931.641	86.499	931.641	90.8605	931.641	86.5448	931.641	89.9085	931.641	87.1623	931.641	87.7058	931.641	87.5979	931.641	85.243	931.641	86.9902	931.641	85.8522	931.641	84.9427	931.641	86.9534	931.641	82.1577	931.641	85.2547	931.641	81.0069	931.641	80.5619	931.641	81.3939	931.641	83.8796	931.641	81.4378	931.641	86.6786	931.641	81.0595	931.641	86.1929	931.641	80.5411	931.641	84.749	931.641	79.4717	931.641	83.1704	931.641	77.3959	931.641	79.5938	931.641	75.5468	931.641	75.2648	931.641	75.1057
966.797	90.4178	966.797	88.8849	966.797	91.3849	966.797	86.8188	966.797	92.0248	966.797	85.3028	966.797	92.0808	966.797	84.7705	966.797	91.0043	966.797	84.866	966.797	88.5522	966.797	85.9375	966.797	86.7739	966.797	86.6439	966.797	88.4884	966.797	85.6924	966.797	89.6258	966.797	82.8003	966.797	87.7389	966.797	79.4925	966.797	79.8143	966.797	79.9688	966.797	76.3407	966.797	81.2435	966.797	81.4784	966.797	81.1201	966.797	79.931	966.797	80.3058	966.797	81.0355	966.797	80.0124	966.797	81.4822	966.797	79.9847	966.797	78.444	966.797	78.9301	966.797	74.697	966.797	76.3561
999.023	89.7515	999.023	88.4434	999.023	90.95	999.023	87.3225	999.023	92.0096	999.023	87.0328	999.023	92.4485	999.023	86.8347	999.023	91.6609	999.023	85.9715	999.023	89.2586	999.023	85.806	999.023	86.1659	999.023	86.7465	999.023	86.7724	999.023	86.6757	999.023	88.512	999.023	84.462	999.023	87.6973	999.023	79.0229	999.023	82.6907	999.023	73.3341	999.023	72.4539	999.023	79.2021	999.023	78.2015	999.023	81.4708	999.023	79.0182	999.023	81.2336	999.023	80.6054	999.023	80.1223	999.023	81.5969	999.023	80.0679	999.023	80.0449	999.023	80.5324	999.023	78.47	999.023	79.7549
1,034.18	89.7915	1,034.18	88.505	1,034.18	90.9384	1,034.18	87.3687	1,034.18	91.9021	1,034.18	87.2215	1,034.18	92.2402	1,034.18	87.5775	1,034.18	91.5207	1,034.18	87.2177	1,034.18	89.8397	1,034.18	85.5029	1,034.18	88.4912	1,034.18	82.5815	1,034.18	88.4214	1,034.18	81.3533	1,034.18	87.5373	1,034.18	82.9915	1,034.18	83.1781	1,034.18	84.1095	1,034.18	76.3447	1,034.18	83.9594	1,034.18	82.6105	1,034.18	82.6554	1,034.18	82.4266	1,034.18	80.4451	1,034.18	79.919	1,034.18	78.3612	1,034.18	82.8202	1,034.18	78.1612	1,034.18	82.7233	1,034.18	78.9757	1,034.18	78.2245	1,034.18	79.1364	1,034.18	74.6212	1,034.18	77.7795
1,072.27	90.0299	1,072.27	89.1153	1,072.27	91.0163	1,072.27	88.2404	1,072.27	91.9315	1,072.27	87.7261	1,072.27	92.1426	1,072.27	87.405	1,072.27	91.224	1,072.27	86.74	1,072.27	89.5071	1,072.27	85.5302	1,072.27	88.5166	1,072.27	83.5678	1,072.27	88.6792	1,072.27	80.4197	1,072.27	87.8285	1,072.27	76.0621	1,072.27	83.6538	1,072.27	75.0201	1,072.27	66.0993	1,072.27	78.7004	1,072.27	78.7318	1,072.27	81.2062	1,072.27	81.0964	1,072.27	81.6535	1,072.27	77.4504	1,072.27	79.9808	1,072.27	77.0634	1,072.27	77.3304	1,072.27	79.9738	1,072.27	77.8545	1,072.27	78.4978	1,072.27	79.2873	1,072.27	76.3519	1,072.27	78.5057
1,110.35	89.3457	1,110.35	88.1644	1,110.35	90.991	1,110.35	87.7561	1,110.35	92.2732	1,110.35	87.8472	1,110.35	92.6421	1,110.35	87.7243	1,110.35	91.9753	1,110.35	86.7146	1,110.35	90.4999	1,110.35	84.9727	1,110.35	89.0343	1,110.35	83.6273	1,110.35	88.1907	1,110.35	82.7735	1,110.35	86.7568	1,110.35	81.0865	1,110.35	82.4936	1,110.35	77.3034	1,110.35	74.9939	1,110.35	71.4532	1,110.35	79.1012	1,110.35	75.7252	1,110.35	78.4006	1,110.35	78.6724	1,110.35	75.4758	1,110.35	78.2111	1,110.35	79.9129	1,110.35	75.8321	1,110.35	81.1258	1,110.35	74.9935	1,110.35	79.2125	1,110.35	76.0228	1,110.35	76.837	1,110.35	76.3587
1,148.44	89.618	1,148.44	88.8204	1,148.44	90.8814	1,148.44	88.5808	1,148.44	91.7795	1,148.44	88.4212	1,148.44	91.7698	1,148.44	87.9349	1,148.44	90.9326	1,148.44	86.8089	1,148.44	90.0024	1,148.44	85.1771	1,148.44	89.6429	1,148.44	83.5428	1,148.44	89.0647	1,148.44	81.8562	1,148.44	86.5807	1,148.44	79.6002	1,148.44	79.326	1,148.44	76.7822	1,148.44	68.1181	1,148.44	75.5828	1,148.44	77.0225	1,148.44	77.5645	1,148.44	75.7505	1,148.44	78.6017	1,148.44	71.0916	1,148.44	77.571	1,148.44	72.4482	1,148.44	76.701	1,148.44	76.2521	1,148.44	77.9415	1,148.44	77.2663	1,148.44	78.4347	1,148.44	77.0596	1,148.44	77.4971
1,189.45	90.2093	1,189.45	88.7759	1,189.45	91.7466	1,189.45	87.9562	1,189.45	92.5576	1,189.45	87.6388	1,189.45	92.1322	1,189.45	87.4221	1,189.45	90.5931	1,189.45	86.6544	1,189.45	89.2211	1,189.45	84.6524	1,189.45	89.0663	1,189.45	81.2774	1,189.45	88.5909	1,189.45	78.4059	1,189.45	86.0596	1,189.45	78.2515	1,189.45	79.2145	1,189.45	77.5985	1,189.45	60.0279	1,189.45	73.8246	1,189.45	73.5644	1,189.45	74.5206	1,189.45	73.6841	1,189.45	78.7497	1,189.45	77.3418	1,189.45	79.4751	1,189.45	78.4191	1,189.45	77.5983	1,189.45	78.3143	1,189.45	76.094	1,189.45	78.9701	1,189.45	75.3709	1,189.45	76.5171	1,189.45	72.6122
1,230.47	90.6216	1,230.47	89.0914	1,230.47	91.8945	1,230.47	87.7434	1,230.47	92.246	1,230.47	86.8788	1,230.47	91.2918	1,230.47	86.4107	1,230.47	89.6311	1,230.47	85.6666	1,230.47	88.9604	1,230.47	84.1568	1,230.47	89.1675	1,230.47	82.0095	1,230.47	88.417	1,230.47	80.1096	1,230.47	85.5037	1,230.47	79.3072	1,230.47	78.0349	1,230.47	78.5995	1,230.47	62.2037	1,230.47	76.3838	1,230.47	72.9201	1,230.47	74.0645	1,230.47	73.2231	1,230.47	76.2533	1,230.47	69.7251	1,230.47	78.3902	1,230.47	68.9307	1,230.47	78.6641	1,230.47	77.7158	1,230.47	77.7001	1,230.47	78.9519	1,230.47	75.5707	1,230.47	75.5157	1,230.47	71.8289
1,274.41	90.9116	1,274.41	89.2199	1,274.41	92.2913	1,274.41	87.8458	1,274.41	92.632	1,274.41	86.8712	1,274.41	91.6649	1,274.41	86.1421	1,274.41	89.9108	1,274.41	85.2599	1,274.41	88.9296	1,274.41	83.9308	1,274.41	88.6395	1,274.41	82.2906	1,274.41	87.0764	1,274.41	80.6322	1,274.41	81.768	1,274.41	79.1636	1,274.41	69.3564	1,274.41	78.0365	1,274.41	79.942	1,274.41	77.2914	1,274.41	76.7852	1,274.41	76.3053	1,274.41	75.7925	1,274.41	74.7525	1,274.41	80.229	1,274.41	75.0009	1,274.41	77.7101	1,274.41	77.4293	1,274.41	74.8553	1,274.41	78.2192	1,274.41	75.7611	1,274.41	75.7572	1,274.41	73.3612	1,274.41	69.9813
1,318.36	90.3648	1,318.36	88.2056	1,318.36	92.0959	1,318.36	86.3203	1,318.36	92.5355	1,318.36	85.2427	1,318.36	91.233	1,318.36	85.0279	1,318.36	88.6642	1,318.36	84.6922	1,318.36	86.8803	1,318.36	83.4323	1,318.36	86.4908	1,318.36	81.4786	1,318.36	84.9635	1,318.36	80.0847	1,318.36	79.7327	1,318.36	79.6651	1,318.36	62.2047	1,318.36	78.7188	1,318.36	69.2869	1,318.36	76.5448	1,318.36	57.1483	1,318.36	76.5522	1,318.36	69.6802	1,318.36	78.0822	1,318.36	60.3744	1,318.36	77.3666	1,318.36	60.8745	1,318.36	74.787	1,318.36	73.3887	1,318.36	75.4372	1,318.36	78.9397	1,318.36	76.0383	1,318.36	77.7593	1,318.36	74.3651
1,365.23	89.4844	1,365.23	87.1998	1,365.23	91.4729	1,365.23	85.9009	1,365.23	92.0381	1,365.23	85.1778	1,365.23	91.0254	1,365.23	84.4149	1,365.23	88.9842	1,365.23	83.6847	1,365.23	86.836	1,365.23	83.271	1,365.23	84.8605	1,365.23	82.2565	1,365.23	82.369	1,365.23	79.6929	1,365.23	78.1719	1,365.23	77.3196	1,365.23	74.6505	1,365.23	78.0551	1,365.23	74.8985	1,365.23	78.735	1,365.23	67.1158	1,365.23	78.6353	1,365.23	73.3131	1,365.23	78.7916	1,365.23	76.3274	1,365.23	77.9819	1,365.23	75.433	1,365.23	75.4365	1,365.23	74.534	1,365.23	74.3055	1,365.23	75.2432	1,365.23	74.4091	1,365.23	74.6288	1,365.23	73.3128
1,415.04	89.601	1,415.04	86.9206	1,415.04	91.2399	1,415.04	84.8207	1,415.04	91.2034	1,415.04	84.2122	1,415.04	89.5227	1,415.04	83.8039	1,415.04	86.9249	1,415.04	82.6912	1,415.04	84.6922	1,415.04	81.1584	1,415.04	83.212	1,415.04	80.5847	1,415.04	81.4663	1,415.04	80.5419	1,415.04	77.3556	1,415.04	79.401	1,415.04	65.6643	1,415.04	76.3442	1,415.04	72.4323	1,415.04	72.4617	1,415.04	69.7407	1,415.04	75.047	1,415.04	48.8056	1,415.04	77.5234	1,415.04	58.4297	1,415.04	76.8212	1,415.04	50.1751	1,415.04	74.4729	1,415.04	63.8627	1,415.04	74.0065	1,415.04	73.2433	1,415.04	71.2204	1,415.04	73.7965	1,415.04	65.8735
1,464.84	90.3869	1,464.84	87.7837	1,464.84	91.1832	1,464.84	84.8307	1,464.84	90.1051	1,464.84	83.3854	1,464.84	87.7439	1,464.84	82.2839	1,464.84	85.5714	1,464.84	81.4051	1,464.84	84.4917	1,464.84	81.3072	1,464.84	83.9622	1,464.84	81.3006	1,464.84	82.9219	1,464.84	79.9404	1,464.84	79.8888	1,464.84	78.3546	1,464.84	73.1853	1,464.84	78.2184	1,464.84	70.9358	1,464.84	77.3696	1,464.84	67.3294	1,464.84	76.3369	1,464.84	68.7578	1,464.84	77.3544	1,464.84	76.1908	1,464.84	76.6598	1,464.84	74.5365	1,464.84	73.2079	1,464.84	69.7862	1,464.84	70.5973	1,464.84	72.8051	1,464.84	67.2161	1,464.84	74.4539	1,464.84	69.5683
1,514.65	91.2383	1,514.65	88.5078	1,514.65	91.7608	1,514.65	84.5173	1,514.65	90.1265	1,514.65	82.6952	1,514.65	86.7625	1,514.65	82.2379	1,514.65	84.017	1,514.65	81.825	1,514.65	83.6535	1,514.65	81.3426	1,514.65	83.7811	1,514.65	81.6507	1,514.65	83.2736	1,514.65	80.6635	1,514.65	80.6348	1,514.65	78.2169	1,514.65	79.102	1,514.65	77.4786	1,514.65	79.7855	1,514.65	76.289	1,514.65	74.0353	1,514.65	75.2033	1,514.65	59.9701	1,514.65	78.3449	1,514.65	63.1409	1,514.65	79.3762	1,514.65	55.1955	1,514.65	76.7115	1,514.65	64.9468	1,514.65	70.8984	1,514.65	72.2855	1,514.65	66.1558	1,514.65	72.2978	1,514.65	62.975
1,570.31	91.2252	1,570.31	88.0857	1,570.31	91.9166	1,570.31	83.6964	1,570.31	90.0643	1,570.31	81.0772	1,570.31	85.9524	1,570.31	81.2543	1,570.31	81.3047	1,570.31	81.9683	1,570.31	80.3772	1,570.31	81.3039	1,570.31	81.9093	1,570.31	80.1342	1,570.31	82.4368	1,570.31	79.6216	1,570.31	80.0428	1,570.31	78.129	1,570.31	74.2064	1,570.31	74.8378	1,570.31	69.0496	1,570.31	71.5878	1,570.31	61.77	1,570.31	70.6823	1,570.31	65.4535	1,570.31	74.0744	1,570.31	72.7968	1,570.31	76.5045	1,570.31	72.3585	1,570.31	75.5932	1,570.31	68.8478	1,570.31	71.8647	1,570.31	71.8437	1,570.31	63.6471	1,570.31	74.2272	1,570.31	70.2532
1,623.05	90.853	1,623.05	87.4994	1,623.05	91.6814	1,623.05	82.2905	1,623.05	89.8665	1,623.05	77.7919	1,623.05	85.5295	1,623.05	79.5008	1,623.05	80.4603	1,623.05	83.4395	1,623.05	78.9967	1,623.05	83.9827	1,623.05	81.28	1,623.05	80.5164	1,623.05	83.3282	1,623.05	78.3178	1,623.05	82.9572	1,623.05	78.6286	1,623.05	79.8459	1,623.05	76.2852	1,623.05	76.313	1,623.05	70.4397	1,623.05	73.4781	1,623.05	72.8302	1,623.05	67.1173	1,623.05	74.7534	1,623.05	69.6615	1,623.05	75.9253	1,623.05	66.9971	1,623.05	76.1566	1,623.05	54.5883	1,623.05	73.4192	1,623.05	65.6176	1,623.05	64.6415	1,623.05	71.5379	1,623.05	68.8399
1,681.64	90.053	1,681.64	86.717	1,681.64	90.7703	1,681.64	82.0627	1,681.64	88.7583	1,681.64	79.2222	1,681.64	84.5017	1,681.64	79.7791	1,681.64	79.9979	1,681.64	82.2695	1,681.64	78.9978	1,681.64	83.612	1,681.64	81.401	1,681.64	82.7122	1,681.64	82.7667	1,681.64	80.1374	1,681.64	81.5416	1,681.64	77.1642	1,681.64	77.2943	1,681.64	77.9892	1,681.64	71.8269	1,681.64	79.9207	1,681.64	70.4644	1,681.64	78.0396	1,681.64	67.7835	1,681.64	67.5923	1,681.64	61.0667	1,681.64	72.4925	1,681.64	62.4662	1,681.64	76.2525	1,681.64	54.2985	1,681.64	71.9298	1,681.64	70.3805	1,681.64	52.1598	1,681.64	73.3832	1,681.64	70.079
1,740.23	90.1299	1,740.23	86.4465	1,740.23	90.4814	1,740.23	80.5588	1,740.23	87.4916	1,740.23	78.818	1,740.23	81.8171	1,740.23	80.1118	1,740.23	76.677	1,740.23	81.0302	1,740.23	77.4884	1,740.23	81.8179	1,740.23	81.7233	1,740.23	80.6759	1,740.23	83.6966	1,740.23	76.5153	1,740.23	83.5647	1,740.23	74.7533	1,740.23	81.1787	1,740.23	74.7879	1,740.23	76.0081	1,740.23	68.2277	1,740.23	65.3891	1,740.23	72.5887	1,740.23	64.9945	1,740.23	75.6499	1,740.23	59.1045	1,740.23	72.3363	1,740.23	67.526	1,740.23	73.0104	1,740.23	63.9326	1,740.23	72.6166	1,740.23	58.9214	1,740.23	64.127	1,740.23	68.5555	1,740.23	70.0828
1,801.76	90.1848	1,801.76	86.1258	1,801.76	90.3204	1,801.76	77.6675	1,801.76	86.9036	1,801.76	76.33	1,801.76	79.9223	1,801.76	80.0713	1,801.76	72.9419	1,801.76	82.1585	1,801.76	77.2677	1,801.76	81.9845	1,801.76	82.7424	1,801.76	80.9009	1,801.76	84.6911	1,801.76	78.8287	1,801.76	83.3325	1,801.76	76.3828	1,801.76	77.2012	1,801.76	77.9297	1,801.76	72.6147	1,801.76	78.0639	1,801.76	73.1262	1,801.76	72.2625	1,801.76	68.9247	1,801.76	70.9229	1,801.76	61.221	1,801.76	73.5926	1,801.76	66.3536	1,801.76	72.6256	1,801.76	64.4118	1,801.76	72.7225	1,801.76	61.1589	1,801.76	61.4785	1,801.76	73.4746	1,801.76	71.6372
1,866.21	89.8401	1,866.21	85.9787	1,866.21	89.8018	1,866.21	75.9561	1,866.21	86.1841	1,866.21	72.5263	1,866.21	78.2552	1,866.21	79.8843	1,866.21	69.7469	1,866.21	82.5556	1,866.21	77.747	1,866.21	82.1804	1,866.21	83.2632	1,866.21	81.1404	1,866.21	85.0147	1,866.21	79.9111	1,866.21	84.1639	1,866.21	75.0707	1,866.21	79.7657	1,866.21	67.5646	1,866.21	76.1886	1,866.21	75.5487	1,866.21	72.5834	1,866.21	76.919	1,866.21	65.9686	1,866.21	74.6762	1,866.21	62.0774	1,866.21	71.3271	1,866.21	63.9518	1,866.21	71.5423	1,866.21	64.622	1,866.21	69.7753	1,866.21	62.4591	1,866.21	54.0853	1,866.21	70.3316	1,866.21	69.6889
1,930.66	88.7731	1,930.66	85.4064	1,930.66	88.5256	1,930.66	76.3924	1,930.66	84.6388	1,930.66	71.6416	1,930.66	75.4628	1,930.66	79.3468	1,930.66	70.2974	1,930.66	81.985	1,930.66	78.6609	1,930.66	82.1387	1,930.66	82.9415	1,930.66	80.4969	1,930.66	84.1185	1,930.66	78.5663	1,930.66	81.9696	1,930.66	78.5303	1,930.66	75.0239	1,930.66	78.7204	1,930.66	70.7448	1,930.66	76.3256	1,930.66	69.5596	1,930.66	70.6933	1,930.66	60.8614	1,930.66	73.1769	1,930.66	68.0283	1,930.66	73.2862	1,930.66	62.1303	1,930.66	70.1372	1,930.66	60.79	1,930.66	69.6216	1,930.66	60.6702	1,930.66	62.5209	1,930.66	71.0206	1,930.66	70.6427
2,000.98	88.8741	2,000.98	84.7516	2,000.98	88.666	2,000.98	71.985	2,000.98	84.3069	2,000.98	73.593	2,000.98	74.0088	2,000.98	79.7103	2,000.98	70.4774	2,000.98	82.3897	2,000.98	80.0005	2,000.98	82.3693	2,000.98	83.9606	2,000.98	80.1528	2,000.98	84.6836	2,000.98	78.2408	2,000.98	83.0188	2,000.98	76.0651	2,000.98	79.012	2,000.98	75.2754	2,000.98	72.9202	2,000.98	77.4553	2,000.98	71.7637	2,000.98	76.1535	2,000.98	66.7904	2,000.98	71.5863	2,000.98	64.0538	2,000.98	72.9529	2,000.98	65.7561	2,000.98	71.4851	2,000.98	62.2649	2,000.98	66.231	2,000.98	65.6803	2,000.98	65.9737	2,000.98	71.3229	2,000.98	71.3291
2,071.29	89.8405	2,071.29	85.9787	2,071.29	89.0342	2,071.29	73.7188	2,071.29	84.1123	2,071.29	77.1663	2,071.29	71.76	2,071.29	80.6673	2,071.29	75.0763	2,071.29	82.3445	2,071.29	81.857	2,071.29	82.3773	2,071.29	84.6597	2,071.29	80.8149	2,071.29	84.4658	2,071.29	80.0898	2,071.29	80.6413	2,071.29	80.1555	2,071.29	74.0715	2,071.29	78.4172	2,071.29	69.9335	2,071.29	74.4302	2,071.29	71.1859	2,071.29	72.0036	2,071.29	65.6054	2,071.29	72.5983	2,071.29	63.9005	2,071.29	73.3081	2,071.29	49.6124	2,071.29	72.245	2,071.29	66.4182	2,071.29	67.4517	2,071.29	61.1453	2,071.29	62.178	2,071.29	69.2825	2,071.29	69.4865
2,144.53	89.8292	2,144.53	86.6286	2,144.53	88.7904	2,144.53	77.9161	2,144.53	83.9171	2,144.53	78.8601	2,144.53	69.7607	2,144.53	82.09	2,144.53	76.451	2,144.53	83.569	2,144.53	82.3837	2,144.53	82.9682	2,144.53	84.1068	2,144.53	81.3197	2,144.53	83.2778	2,144.53	79.8232	2,144.53	80.8552	2,144.53	75.772	2,144.53	78.5211	2,144.53	74.5528	2,144.53	73.2308	2,144.53	77.5561	2,144.53	69.0933	2,144.53	76.8297	2,144.53	59.5385	2,144.53	74.1335	2,144.53	63.2637	2,144.53	73.5335	2,144.53	54.917	2,144.53	73.4345	2,144.53	65.816	2,144.53	69.3639	2,144.53	58.0714	2,144.53	67.1746	2,144.53	70.9418	2,144.53	72.068
2,217.77	89.0045	2,217.77	86.7797	2,217.77	88.2754	2,217.77	80.6689	2,217.77	84.4805	2,217.77	81.3494	2,217.77	71.0745	2,217.77	83.4727	2,217.77	78.8599	2,217.77	83.7684	2,217.77	83.4304	2,217.77	83.7164	2,217.77	84.2393	2,217.77	82.1572	2,217.77	84.0102	2,217.77	79.4578	2,217.77	81.7605	2,217.77	78.6956	2,217.77	72.576	2,217.77	77.4971	2,217.77	64.9775	2,217.77	70.9185	2,217.77	66.9471	2,217.77	71.9857	2,217.77	65.9496	2,217.77	74.7282	2,217.77	59.4599	2,217.77	70.7586	2,217.77	52.6527	2,217.77	70.9638	2,217.77	65.3084	2,217.77	69.9598	2,217.77	61.8733	2,217.77	63.6618	2,217.77	68.1973	2,217.77	70.2157
2,296.88	90.3982	2,296.88	87.984	2,296.88	88.9101	2,296.88	82.159	2,296.88	83.8649	2,296.88	82.5474	2,296.88	73.6731	2,296.88	84.6772	2,296.88	80.0069	2,296.88	85.2779	2,296.88	83.9738	2,296.88	83.8738	2,296.88	83.4532	2,296.88	80.4394	2,296.88	82.2343	2,296.88	77.2052	2,296.88	82.3077	2,296.88	73.1102	2,296.88	77.5861	2,296.88	72.4731	2,296.88	69.599	2,296.88	74.5919	2,296.88	54.968	2,296.88	72.4066	2,296.88	61.7483	2,296.88	73.2191	2,296.88	41.7456	2,296.88	73.8054	2,296.88	61.9324	2,296.88	72.7902	2,296.88	61.5951	2,296.88	73.0601	2,296.88	52.173	2,296.88	69.0975	2,296.88	65.8714	2,296.88	68.8785
2,378.91	91.0999	2,378.91	88.9311	2,378.91	89.6334	2,378.91	84.6054	2,378.91	84.8327	2,378.91	84.2355	2,378.91	77.3951	2,378.91	84.737	2,378.91	82.2096	2,378.91	84.5756	2,378.91	85.0294	2,378.91	83.5229	2,378.91	83.7379	2,378.91	80.5889	2,378.91	81.5318	2,378.91	76.9781	2,378.91	81.2006	2,378.91	76.2077	2,378.91	75.2212	2,378.91	73.7703	2,378.91	68.4814	2,378.91	70.3293	2,378.91	67.6138	2,378.91	70.1572	2,378.91	66.3495	2,378.91	69.2863	2,378.91	62.5896	2,378.91	73.4234	2,378.91	62.8035	2,378.91	72.6341	2,378.91	62.8061	2,378.91	71.4806	2,378.91	58.1241	2,378.91	72.3562	2,378.91	70.7223	2,378.91	72.9033
2,460.94	90.6617	2,460.94	89.2848	2,460.94	89.3596	2,460.94	86.0809	2,460.94	85.9106	2,460.94	85.18	2,460.94	81.6615	2,460.94	85.1692	2,460.94	84.0496	2,460.94	84.4799	2,460.94	85.4644	2,460.94	81.9757	2,460.94	83.1502	2,460.94	78.9217	2,460.94	81.5951	2,460.94	77.6004	2,460.94	82.7836	2,460.94	76.1497	2,460.94	76.532	2,460.94	74.344	2,460.94	71.5585	2,460.94	72.588	2,460.94	67.3263	2,460.94	70.8126	2,460.94	63.421	2,460.94	70.0821	2,460.94	60.7943	2,460.94	72.5093	2,460.94	61.4007	2,460.94	73.9091	2,460.94	64.7314	2,460.94	72.5172	2,460.94	60.3209	2,460.94	71.3652	2,460.94	68.3593	2,460.94	71.5132
2,548.83	90.4966	2,548.83	89.3303	2,548.83	89.0503	2,548.83	86.7038	2,548.83	86.1779	2,548.83	86.0596	2,548.83	84.2209	2,548.83	85.9251	2,548.83	84.9239	2,548.83	84.6148	2,548.83	85.1022	2,548.83	81.7429	2,548.83	82.901	2,548.83	79.4114	2,548.83	82.3726	2,548.83	77.6205	2,548.83	81.2296	2,548.83	74.0979	2,548.83	70.7274	2,548.83	72.7141	2,548.83	69.9898	2,548.83	73.4641	2,548.83	64.5497	2,548.83	72.5105	2,548.83	68.6092	2,548.83	71.1297	2,548.83	66.9495	2,548.83	71.3123	2,548.83	67.3023	2,548.83	73.2082	2,548.83	67.0692	2,548.83	72.4853	2,548.83	60.4083	2,548.83	73.2781	2,548.83	69.0873	2,548.83	72.7139
2,639.65	90.6918	2,639.65	89.6466	2,639.65	88.7929	2,639.65	86.9493	2,639.65	85.6405	2,639.65	86.2193	2,639.65	84.8613	2,639.65	86.2249	2,639.65	84.9573	2,639.65	84.9618	2,639.65	84.0963	2,639.65	82.9904	2,639.65	81.9814	2,639.65	81.5019	2,639.65	81.6901	2,639.65	79.9122	2,639.65	81.8485	2,639.65	78.3248	2,639.65	74.8516	2,639.65	75.9278	2,639.65	72.8651	2,639.65	73.8046	2,639.65	68.4868	2,639.65	73.5085	2,639.65	64.2357	2,639.65	71.507	2,639.65	65.4986	2,639.65	73.0061	2,639.65	65.7594	2,639.65	73.7091	2,639.65	68.1773	2,639.65	72.8522	2,639.65	62.1934	2,639.65	72.6991	2,639.65	67.7084	2,639.65	72.8774
2,733.4	90.3742	2,733.4	89.8681	2,733.4	88.7608	2,733.4	87.6051	2,733.4	87.2414	2,733.4	86.6522	2,733.4	86.1885	2,733.4	85.9547	2,733.4	85.9461	2,733.4	85.7002	2,733.4	84.6784	2,733.4	84.0711	2,733.4	82.1428	2,733.4	81.2511	2,733.4	82.3387	2,733.4	77.3962	2,733.4	80.166	2,733.4	72.8826	2,733.4	74.295	2,733.4	72.8637	2,733.4	65.1211	2,733.4	73.052	2,733.4	66.4256	2,733.4	71.7494	2,733.4	62.6866	2,733.4	71.318	2,733.4	64.7058	2,733.4	71.877	2,733.4	67.2856	2,733.4	73.4327	2,733.4	67.2414	2,733.4	73.0353	2,733.4	62.3058	2,733.4	73.4974	2,733.4	68.3426	2,733.4	73.4469
2,827.15	90.3944	2,827.15	89.6275	2,827.15	88.876	2,827.15	87.6628	2,827.15	88.4111	2,827.15	86.5669	2,827.15	87.5295	2,827.15	86.2316	2,827.15	85.5721	2,827.15	86.1222	2,827.15	84.8151	2,827.15	83.2408	2,827.15	82.9046	2,827.15	79.6715	2,827.15	82.5926	2,827.15	78.1657	2,827.15	81.1721	2,827.15	77.2573	2,827.15	74.7691	2,827.15	74.3879	2,827.15	66.5674	2,827.15	70.0956	2,827.15	64.637	2,827.15	70.861	2,827.15	63.8245	2,827.15	68.8248	2,827.15	63.5128	2,827.15	71.9964	2,827.15	62.6382	2,827.15	72.4703	2,827.15	67.4375	2,827.15	72.1153	2,827.15	63.3916	2,827.15	71.6243	2,827.15	66.8714	2,827.15	72.5914
2,926.76	90.1841	2,926.76	89.563	2,926.76	88.7226	2,926.76	88.0423	2,926.76	88.701	2,926.76	86.8248	2,926.76	88.7734	2,926.76	87.008	2,926.76	85.8334	2,926.76	85.5464	2,926.76	84.1167	2,926.76	82.2166	2,926.76	83.2839	2,926.76	78.8595	2,926.76	81.0414	2,926.76	73.899	2,926.76	80.7219	2,926.76	71.5056	2,926.76	76.0948	2,926.76	70.1912	2,926.76	70.1268	2,926.76	72.2153	2,926.76	67.3216	2,926.76	69.811	2,926.76	67.6093	2,926.76	68.2642	2,926.76	65.555	2,926.76	69.8028	2,926.76	64.7461	2,926.76	72.8133	2,926.76	68.2817	2,926.76	71.7052	2,926.76	63.1086	2,926.76	72.6596	2,926.76	67.6273	2,926.76	72.1611
3,032.23	89.4735	3,032.23	89.3194	3,032.23	88.3573	3,032.23	87.7052	3,032.23	88.8733	3,032.23	86.9422	3,032.23	89.3447	3,032.23	87.0184	3,032.23	86.5711	3,032.23	84.121	3,032.23	84.2356	3,032.23	80.8637	3,032.23	83.5209	3,032.23	78.4303	3,032.23	80.0237	3,032.23	75.4515	3,032.23	78.9468	3,032.23	75.1082	3,032.23	74.3634	3,032.23	74.5189	3,032.23	68.599	3,032.23	70.1013	3,032.23	63.66	3,032.23	70.4048	3,032.23	65.8035	3,032.23	65.5471	3,032.23	64.3003	3,032.23	69.3655	3,032.23	66.3886	3,032.23	71.1246	3,032.23	67.5779	3,032.23	71.1513	3,032.23	61.9335	3,032.23	70.9473	3,032.23	63.2977	3,032.23	70.6687
3,137.7	89.5341	3,137.7	89.6976	3,137.7	88.4386	3,137.7	88.2164	3,137.7	89.1365	3,137.7	87.8321	3,137.7	89.0659	3,137.7	86.4925	3,137.7	86.3856	3,137.7	83.7463	3,137.7	83.7712	3,137.7	81.2417	3,137.7	82.926	3,137.7	77.897	3,137.7	80.7795	3,137.7	77.1118	3,137.7	79.7101	3,137.7	76.7676	3,137.7	74.5435	3,137.7	72.0026	3,137.7	64.746	3,137.7	71.529	3,137.7	70.0109	3,137.7	70.8512	3,137.7	66.5006	3,137.7	66.7029	3,137.7	60.056	3,137.7	68.3882	3,137.7	63.0787	3,137.7	72.8025	3,137.7	68.3251	3,137.7	70.919	3,137.7	59.929	3,137.7	72.0986	3,137.7	65.092	3,137.7	71.0693
3,249.02	89.3598	3,249.02	89.6953	3,249.02	87.9758	3,249.02	88.7575	3,249.02	89.2722	3,249.02	88.2934	3,249.02	89.5736	3,249.02	86.1802	3,249.02	86.8138	3,249.02	83.5187	3,249.02	83.973	3,249.02	81.6159	3,249.02	82.4306	3,249.02	79.6736	3,249.02	80.3595	3,249.02	76.4852	3,249.02	81.3362	3,249.02	71.3298	3,249.02	77.6381	3,249.02	73.8367	3,249.02	62.7257	3,249.02	73.9414	3,249.02	66.0603	3,249.02	70.7333	3,249.02	63.999	3,249.02	70.2197	3,249.02	64.2357	3,249.02	66.8526	3,249.02	59.2883	3,249.02	71.5476	3,249.02	65.9289	3,249.02	71.0772	3,249.02	62.3506	3,249.02	71.5175	3,249.02	64.1203	3,249.02	71.2863
3,363.28	89.2976	3,363.28	89.4802	3,363.28	87.9132	3,363.28	88.8568	3,363.28	88.9267	3,363.28	87.8111	3,363.28	89.3412	3,363.28	85.971	3,363.28	86.5303	3,363.28	84.0659	3,363.28	82.9532	3,363.28	81.5904	3,363.28	82.2623	3,363.28	80.0426	3,363.28	79.3147	3,363.28	77.7572	3,363.28	78.0007	3,363.28	77.7266	3,363.28	77.1113	3,363.28	76.3282	3,363.28	69.2187	3,363.28	70.7683	3,363.28	63.2102	3,363.28	72.0735	3,363.28	63.2841	3,363.28	69.2415	3,363.28	65.1033	3,363.28	67.3909	3,363.28	59.4744	3,363.28	71.566	3,363.28	64.3402	3,363.28	71.5014	3,363.28	62.3244	3,363.28	70.5634	3,363.28	62.7187	3,363.28	70.6414
3,483.4	89.4447	3,483.4	89.772	3,483.4	88.2145	3,483.4	89.1057	3,483.4	88.7306	3,483.4	87.7713	3,483.4	88.9624	3,483.4	86.0262	3,483.4	86.6885	3,483.4	84.1597	3,483.4	83.4044	3,483.4	82.2697	3,483.4	81.5654	3,483.4	80.0767	3,483.4	78.9926	3,483.4	76.3972	3,483.4	76.7892	3,483.4	75.6583	3,483.4	73.1948	3,483.4	71.9369	3,483.4	65.7125	3,483.4	71.3042	3,483.4	65.3301	3,483.4	70.6246	3,483.4	62.4076	3,483.4	68.9233	3,483.4	63.8938	3,483.4	67.3995	3,483.4	60.8404	3,483.4	70.2524	3,483.4	64.2569	3,483.4	69.8992	3,483.4	62.3246	3,483.4	70.9836	3,483.4	63.2189	3,483.4	69.614
3,606.45	89.5947	3,606.45	90.0583	3,606.45	88.5686	3,606.45	89.1009	3,606.45	88.9271	3,606.45	87.6844	3,606.45	88.9301	3,606.45	85.9524	3,606.45	86.537	3,606.45	83.9995	3,606.45	83.1547	3,606.45	82.3935	3,606.45	82.0267	3,606.45	79.8783	3,606.45	80.4792	3,606.45	76.4394	3,606.45	77.8818	3,606.45	72.8475	3,606.45	72.7735	3,606.45	72.5686	3,606.45	68.3516	3,606.45	72.3035	3,606.45	63.568	3,606.45	70.0139	3,606.45	63.3652	3,606.45	69.7353	3,606.45	63.1186	3,606.45	66.5333	3,606.45	57.6359	3,606.45	70.4543	3,606.45	62.6412	3,606.45	70.6944	3,606.45	63.9337	3,606.45	70.7944	3,606.45	61.6688	3,606.45	69.2652
3,732.42	89.6496	3,732.42	89.8352	3,732.42	88.5583	3,732.42	89.1421	3,732.42	88.567	3,732.42	87.2546	3,732.42	88.7777	3,732.42	85.5449	3,732.42	86.4452	3,732.42	84.222	3,732.42	83.3428	3,732.42	81.8458	3,732.42	81.1364	3,732.42	79.5038	3,732.42	79.0207	3,732.42	76.831	3,732.42	77.8761	3,732.42	75.4569	3,732.42	71.1481	3,732.42	73.6206	3,732.42	68.9993	3,732.42	71.3997	3,732.42	65.4879	3,732.42	70.3881	3,732.42	63.8381	3,732.42	68.4065	3,732.42	60.1236	3,732.42	67.2158	3,732.42	60.5287	3,732.42	70.0094	3,732.42	62.0442	3,732.42	69.9762	3,732.42	64.7364	3,732.42	69.7608	3,732.42	60.2652	3,732.42	68.2998
3,864.26	89.6203	3,864.26	89.7917	3,864.26	89.0774	3,864.26	88.9197	3,864.26	88.2195	3,864.26	86.8385	3,864.26	88.3121	3,864.26	85.5841	3,864.26	86.3734	3,864.26	84.2597	3,864.26	82.6506	3,864.26	81.3161	3,864.26	80.9175	3,864.26	78.8654	3,864.26	78.3381	3,864.26	75.9287	3,864.26	78.8212	3,864.26	74.9523	3,864.26	73.1477	3,864.26	72.3019	3,864.26	69.3107	3,864.26	70.4379	3,864.26	59.1968	3,864.26	70.0357	3,864.26	61.3649	3,864.26	68.2972	3,864.26	60.5575	3,864.26	67.21	3,864.26	58.3587	3,864.26	69.4821	3,864.26	59.5982	3,864.26	69.0526	3,864.26	63.8265	3,864.26	70.3587	3,864.26	60.322	3,864.26	68.4759
3,999.02	89.601	3,999.02	90.0057	3,999.02	89.2512	3,999.02	88.8729	3,999.02	88.1134	3,999.02	86.6899	3,999.02	87.4819	3,999.02	85.6133	3,999.02	86.0292	3,999.02	82.8696	3,999.02	82.6597	3,999.02	80.7743	3,999.02	81.4744	3,999.02	78.446	3,999.02	79.6673	3,999.02	75.5458	3,999.02	76.0519	3,999.02	72.1181	3,999.02	71.2081	3,999.02	71.8129	3,999.02	68.9589	3,999.02	70.5029	3,999.02	56.7485	3,999.02	69.6541	3,999.02	63.2732	3,999.02	66.8808	3,999.02	61.1423	3,999.02	67.0287	3,999.02	60.071	3,999.02	69.1686	3,999.02	58.087	3,999.02	69.9605	3,999.02	63.7722	3,999.02	69.8348	3,999.02	60.8282	3,999.02	68.6214
4,139.65	89.6903	4,139.65	89.9195	4,139.65	89.6209	4,139.65	88.6593	4,139.65	88.3028	4,139.65	87.4754	4,139.65	87.336	4,139.65	85.0851	4,139.65	85.4713	4,139.65	81.9378	4,139.65	81.7037	4,139.65	80.6096	4,139.65	80.7637	4,139.65	79.0576	4,139.65	79.9084	4,139.65	76.7851	4,139.65	77.0184	4,139.65	73.6845	4,139.65	67.5548	4,139.65	73.4344	4,139.65	64.4104	4,139.65	70.0144	4,139.65	60.6338	4,139.65	70.2384	4,139.65	61.0071	4,139.65	68.3752	4,139.65	60.6008	4,139.65	66.3628	4,139.65	55.443	4,139.65	67.6197	4,139.65	58.6407	4,139.65	69.4531	4,139.65	64.1516	4,139.65	68.4686	4,139.65	57.0328	4,139.65	68.0291
4,286.13	89.4425	4,286.13	89.6246	4,286.13	89.6677	4,286.13	88.308	4,286.13	88.1473	4,286.13	87.0311	4,286.13	87.1065	4,286.13	84.2927	4,286.13	85.2644	4,286.13	82.1625	4,286.13	81.5029	4,286.13	81.0307	4,286.13	81.3743	4,286.13	79.9853	4,286.13	79.8885	4,286.13	77.247	4,286.13	78.2709	4,286.13	75.0244	4,286.13	72.6296	4,286.13	72.628	4,286.13	63.5495	4,286.13	68.9941	4,286.13	62.7738	4,286.13	70.2314	4,286.13	60.4765	4,286.13	67.4548	4,286.13	58.7733	4,286.13	67.318	4,286.13	56.5906	4,286.13	67.2843	4,286.13	58.9913	4,286.13	68.0881	4,286.13	63.1956	4,286.13	68.9812	4,286.13	53.6089	4,286.13	68.3483
4,438.48	89.4706	4,438.48	89.6656	4,438.48	89.6033	4,438.48	88.5409	4,438.48	87.9526	4,438.48	87.1935	4,438.48	85.7141	4,438.48	84.5295	4,438.48	84.5387	4,438.48	82.9876	4,438.48	79.9196	4,438.48	81.7871	4,438.48	79.9651	4,438.48	79.1879	4,438.48	78.4399	4,438.48	76.1717	4,438.48	73.7164	4,438.48	75.0542	4,438.48	73.5429	4,438.48	71.8306	4,438.48	56.4515	4,438.48	69.3526	4,438.48	51.7953	4,438.48	68.8395	4,438.48	58.5885	4,438.48	68.0914	4,438.48	55.2646	4,438.48	66.8208	4,438.48	58.8083	4,438.48	67.4478	4,438.48	56.337	4,438.48	68.7151	4,438.48	62.3643	4,438.48	69.793	4,438.48	49.8945	4,438.48	67.3742
4,593.75	89.1715	4,593.75	89.0644	4,593.75	89.517	4,593.75	88.1971	4,593.75	88.0176	4,593.75	86.6791	4,593.75	85.6416	4,593.75	84.4576	4,593.75	84.5431	4,593.75	82.575	4,593.75	80.5739	4,593.75	80.072	4,593.75	79.9694	4,593.75	78.0015	4,593.75	81.0833	4,593.75	76.5532	4,593.75	76.5455	4,593.75	74.0812	4,593.75	74.3454	4,593.75	70.9613	4,593.75	40.6075	4,593.75	69.4919	4,593.75	58.1012	4,593.75	68.4899	4,593.75	58.55	4,593.75	66.909	4,593.75	54.3721	4,593.75	66.5413	4,593.75	59.1004	4,593.75	65.7759	4,593.75	53.7451	4,593.75	67.8454	4,593.75	61.6052	4,593.75	69.1444	4,593.75	50.9168	4,593.75	66.403
4,757.81	88.8013	4,757.81	88.8599	4,757.81	89.3004	4,757.81	87.9249	4,757.81	88.2592	4,757.81	86.3037	4,757.81	85.2498	4,757.81	84.5795	4,757.81	84.4156	4,757.81	82.2485	4,757.81	81.2086	4,757.81	80.2034	4,757.81	80.5814	4,757.81	78.3394	4,757.81	81.5912	4,757.81	76.3165	4,757.81	78.1187	4,757.81	73.8111	4,757.81	75.2088	4,757.81	71.0678	4,757.81	55.5027	4,757.81	70.164	4,757.81	54.4754	4,757.81	67.7597	4,757.81	56.4547	4,757.81	67.6308	4,757.81	40.1923	4,757.81	67.9289	4,757.81	59.4289	4,757.81	64.1841	4,757.81	55.7402	4,757.81	67.6077	4,757.81	60.1201	4,757.81	69.0721	4,757.81	42.1089	4,757.81	65.6358
4,924.8	89.0438	4,924.8	88.0398	4,924.8	89.0786	4,924.8	87.4304	4,924.8	88.2281	4,924.8	85.8879	4,924.8	85.4087	4,924.8	84.1064	4,924.8	84.4411	4,924.8	82.1717	4,924.8	81.6201	4,924.8	80.2684	4,924.8	80.04	4,924.8	77.7724	4,924.8	81.0247	4,924.8	76.2377	4,924.8	78.9191	4,924.8	73.2932	4,924.8	76.1874	4,924.8	71.4126	4,924.8	63.3323	4,924.8	68.156	4,924.8	47.0997	4,924.8	67.6172	4,924.8	52.1846	4,924.8	65.8032	4,924.8	57.8816	4,924.8	67.3379	4,924.8	57.1832	4,924.8	65.9637	4,924.8	49.527	4,924.8	67.5222	4,924.8	61.5062	4,924.8	68.4568	4,924.8	46.928	4,924.8	66.361
5,097.66	88.0544	5,097.66	87.4428	5,097.66	88.3563	5,097.66	86.9011	5,097.66	87.2626	5,097.66	85.4483	5,097.66	84.7728	5,097.66	84.1101	5,097.66	83.7012	5,097.66	81.9227	5,097.66	81.3603	5,097.66	80.195	5,097.66	79.1222	5,097.66	78.0058	5,097.66	79.7359	5,097.66	76.1343	5,097.66	77.2716	5,097.66	72.7574	5,097.66	74.0539	5,097.66	71.5906	5,097.66	66.2464	5,097.66	67.9297	5,097.66	52.9873	5,097.66	66.6003	5,097.66	58.4289	5,097.66	64.7228	5,097.66	54.7578	5,097.66	66.861	5,097.66	58.0249	5,097.66	64.4288	5,097.66	51.2081	5,097.66	67.6369	5,097.66	60.3178	5,097.66	68.3929	5,097.66	49.634	5,097.66	66.079
5,279.3	88.6029	5,279.3	87.7969	5,279.3	88.8304	5,279.3	86.9623	5,279.3	87.331	5,279.3	85.5311	5,279.3	84.978	5,279.3	84.046	5,279.3	84.0166	5,279.3	81.9814	5,279.3	82.035	5,279.3	79.6306	5,279.3	77.8427	5,279.3	77.5124	5,279.3	79.8232	5,279.3	74.6152	5,279.3	77.0444	5,279.3	72.9686	5,279.3	68.8643	5,279.3	70.4894	5,279.3	63.4079	5,279.3	66.4692	5,279.3	20.3534	5,279.3	66.4667	5,279.3	56.8394	5,279.3	63.7915	5,279.3	57.0146	5,279.3	65.4552	5,279.3	54.3603	5,279.3	63.6246	5,279.3	51.2272	5,279.3	65.8139	5,279.3	58.7937	5,279.3	66.5385	5,279.3	49.495	5,279.3	64.9292
5,463.87	88.5048	5,463.87	87.5673	5,463.87	88.2386	5,463.87	86.4592	5,463.87	86.8139	5,463.87	85.2242	5,463.87	84.5381	5,463.87	83.5865	5,463.87	83.6546	5,463.87	81.9059	5,463.87	82.6138	5,463.87	79.2136	5,463.87	76.7089	5,463.87	76.8146	5,463.87	80.4446	5,463.87	73.7613	5,463.87	76.6873	5,463.87	72.1618	5,463.87	68.917	5,463.87	70.2195	5,463.87	57.6525	5,463.87	67.5353	5,463.87	56.3314	5,463.87	66.6227	5,463.87	60.0429	5,463.87	62.9598	5,463.87	53.9937	5,463.87	64.0458	5,463.87	52.5689	5,463.87	62.4088	5,463.87	55.4557	5,463.87	65.5765	5,463.87	56.3131	5,463.87	66.4048	5,463.87	54.6219	5,463.87	63.9021
5,657.23	87.8333	5,657.23	87.2657	5,657.23	88.0281	5,657.23	85.8571	5,657.23	86.298	5,657.23	84.8116	5,657.23	84.3216	5,657.23	82.9116	5,657.23	83.2627	5,657.23	81.5061	5,657.23	82.2312	5,657.23	78.9227	5,657.23	75.7584	5,657.23	76.3323	5,657.23	78.9249	5,657.23	73.8958	5,657.23	75.7629	5,657.23	72.4055	5,657.23	65.1983	5,657.23	69.2853	5,657.23	58.991	5,657.23	66.6912	5,657.23	59.9611	5,657.23	65.725	5,657.23	59.7958	5,657.23	64.5596	5,657.23	49.7002	5,657.23	63.1315	5,657.23	54.6085	5,657.23	60.9879	5,657.23	55.2905	5,657.23	64.6594	5,657.23	55.5963	5,657.23	65.3452	5,657.23	55.3102	5,657.23	62.6952
5,856.45	88.1609	5,856.45	87.2509	5,856.45	87.7196	5,856.45	85.6788	5,856.45	85.9476	5,856.45	84.4727	5,856.45	84.107	5,856.45	82.3246	5,856.45	82.8874	5,856.45	81.3403	5,856.45	82.1347	5,856.45	79.1351	5,856.45	76.6661	5,856.45	76.5993	5,856.45	78.0966	5,856.45	73.7549	5,856.45	76.5696	5,856.45	70.533	5,856.45	64.9032	5,856.45	68.2253	5,856.45	55.9659	5,856.45	67.2709	5,856.45	54.214	5,856.45	65.4844	5,856.45	53.9772	5,856.45	62.916	5,856.45	54.42	5,856.45	63.9778	5,856.45	52.8961	5,856.45	60.5664	5,856.45	53.9112	5,856.45	63.5663	5,856.45	55.614	5,856.45	64.7498	5,856.45	55.5184	5,856.45	62.9016
6,061.52	88.5115	6,061.52	87.2237	6,061.52	87.6974	6,061.52	86.1548	6,061.52	85.4156	6,061.52	83.9305	6,061.52	83.3062	6,061.52	82.2245	6,061.52	82.3223	6,061.52	81.018	6,061.52	81.3042	6,061.52	79.3412	6,061.52	76.2549	6,061.52	75.6164	6,061.52	77.5186	6,061.52	72.3615	6,061.52	75.3452	6,061.52	70.5562	6,061.52	66.4669	6,061.52	67.663	6,061.52	61.0444	6,061.52	66.5259	6,061.52	56.3683	6,061.52	64.6069	6,061.52	55.8617	6,061.52	61.3625	6,061.52	53.6657	6,061.52	62.0059	6,061.52	52.4081	6,061.52	60.0459	6,061.52	53.3813	6,061.52	63.0093	6,061.52	54.0614	6,061.52	64.0273	6,061.52	56.1495	6,061.52	62.0774
6,275.39	88.5626	6,275.39	87.5467	6,275.39	87.7746	6,275.39	86.1763	6,275.39	85.4715	6,275.39	83.5628	6,275.39	83.0926	6,275.39	82.2986	6,275.39	82.1517	6,275.39	80.4346	6,275.39	80.5072	6,275.39	78.6397	6,275.39	76.9541	6,275.39	75.3464	6,275.39	77.1192	6,275.39	73.6875	6,275.39	75.0485	6,275.39	70.1268	6,275.39	63.534	6,275.39	68.0695	6,275.39	60.7223	6,275.39	65.6362	6,275.39	54.3525	6,275.39	64.399	6,275.39	55.0928	6,275.39	63.5282	6,275.39	55.0117	6,275.39	60.1936	6,275.39	50.1716	6,275.39	58.4013	6,275.39	54.7954	6,275.39	63.4912	6,275.39	54.1889	6,275.39	64.2052	6,275.39	54.7575	6,275.39	61.6387
6,498.05	88.9245	6,498.05	88.0268	6,498.05	88.2535	6,498.05	86.1021	6,498.05	86.2943	6,498.05	84.0537	6,498.05	84.1648	6,498.05	82.2355	6,498.05	82.6224	6,498.05	80.7001	6,498.05	81.2457	6,498.05	77.725	6,498.05	78.1516	6,498.05	75.936	6,498.05	75.867	6,498.05	73.0431	6,498.05	72.0135	6,498.05	69.1855	6,498.05	63.1503	6,498.05	67.7798	6,498.05	60.8264	6,498.05	65.436	6,498.05	54.7535	6,498.05	63.1554	6,498.05	56.6188	6,498.05	62.0712	6,498.05	51.5795	6,498.05	61.8459	6,498.05	51.4493	6,498.05	58.3695	6,498.05	51.6096	6,498.05	63.3929	6,498.05	52.5694	6,498.05	63.5047	6,498.05	55.1473	6,498.05	61.8955
6,726.56	89.247	6,726.56	88.1219	6,726.56	88.3669	6,726.56	86.0678	6,726.56	86.6226	6,726.56	84.4938	6,726.56	85.1995	6,726.56	82.6925	6,726.56	82.658	6,726.56	80.816	6,726.56	81.3363	6,726.56	77.8269	6,726.56	78.5805	6,726.56	75.7402	6,726.56	77.0384	6,726.56	73.1646	6,726.56	74.7909	6,726.56	70.5356	6,726.56	70.955	6,726.56	67.4939	6,726.56	57.611	6,726.56	65.6249	6,726.56	53.5984	6,726.56	63.4352	6,726.56	52.429	6,726.56	62.6738	6,726.56	52.6846	6,726.56	62.3933	6,726.56	54.595	6,726.56	58.0503	6,726.56	46.4376	6,726.56	63.111	6,726.56	54.068	6,726.56	63.7367	6,726.56	56.0398	6,726.56	61.7948
6,963.87	89.2272	6,963.87	88.0669	6,963.87	88.2803	6,963.87	86.0378	6,963.87	86.8269	6,963.87	84.5447	6,963.87	85.4895	6,963.87	83.0738	6,963.87	82.1083	6,963.87	80.2246	6,963.87	81.3249	6,963.87	78.5661	6,963.87	78.6326	6,963.87	75.689	6,963.87	77.1154	6,963.87	74.3969	6,963.87	77.2658	6,963.87	71.1193	6,963.87	71.9418	6,963.87	68.5239	6,963.87	56.9695	6,963.87	65.7763	6,963.87	46.0737	6,963.87	64.2156	6,963.87	52.9431	6,963.87	63.3467	6,963.87	54.9322	6,963.87	61.4916	6,963.87	52.1736	6,963.87	58.7312	6,963.87	52.8313	6,963.87	62.8059	6,963.87	54.0745	6,963.87	63.743	6,963.87	56.0045	6,963.87	61.5787
7,209.96	88.6693	7,209.96	87.6126	7,209.96	87.861	7,209.96	85.4759	7,209.96	86.2909	7,209.96	84.5531	7,209.96	85.0775	7,209.96	82.3462	7,209.96	81.3481	7,209.96	80.26	7,209.96	81.4927	7,209.96	78.6865	7,209.96	78.5157	7,209.96	75.4544	7,209.96	75.8531	7,209.96	73.1446	7,209.96	79.1156	7,209.96	69.4327	7,209.96	72.363	7,209.96	67.9512	7,209.96	59.5309	7,209.96	63.1849	7,209.96	47.7674	7,209.96	63.4782	7,209.96	51.5794	7,209.96	62.6767	7,209.96	51.6193	7,209.96	59.9583	7,209.96	53.5913	7,209.96	59.8507	7,209.96	49.9838	7,209.96	61.9179	7,209.96	47.8192	7,209.96	62.466	7,209.96	54.3433	7,209.96	60.6479
7,464.84	88.1834	7,464.84	87.4645	7,464.84	87.4992	7,464.84	85.5275	7,464.84	86.1957	7,464.84	84.825	7,464.84	84.6923	7,464.84	82.3594	7,464.84	81.8403	7,464.84	80.8709	7,464.84	81.2691	7,464.84	78.072	7,464.84	78.1745	7,464.84	75.036	7,464.84	72.5601	7,464.84	71.7404	7,464.84	77.0991	7,464.84	69.7119	7,464.84	70.6762	7,464.84	65.3894	7,464.84	57.735	7,464.84	63.6886	7,464.84	58.7553	7,464.84	63.3578	7,464.84	54.9535	7,464.84	61.2112	7,464.84	49.7853	7,464.84	58.617	7,464.84	49.7801	7,464.84	59.8832	7,464.84	53.2267	7,464.84	61.388	7,464.84	49.1449	7,464.84	62.8076	7,464.84	55.5359	7,464.84	59.2453
7,728.52	88.3141	7,728.52	87.5916	7,728.52	87.696	7,728.52	86.0622	7,728.52	86.6219	7,728.52	84.7973	7,728.52	84.8793	7,728.52	82.7482	7,728.52	81.9064	7,728.52	80.4364	7,728.52	80.414	7,728.52	78.2102	7,728.52	78.222	7,728.52	74.8575	7,728.52	70.7155	7,728.52	71.9536	7,728.52	76.0554	7,728.52	68.8438	7,728.52	68.7228	7,728.52	66.3976	7,728.52	53.087	7,728.52	62.8669	7,728.52	59.2763	7,728.52	63.5387	7,728.52	51.2696	7,728.52	60.8135	7,728.52	48.3084	7,728.52	60.3827	7,728.52	51.5751	7,728.52	58.825	7,728.52	50.4864	7,728.52	61.9049	7,728.52	37.4504	7,728.52	61.9281	7,728.52	54.6008	7,728.52	58.2711
8,000.98	89.0803	8,000.98	88.2047	8,000.98	88.0974	8,000.98	86.7119	8,000.98	86.9138	8,000.98	84.8539	8,000.98	84.994	8,000.98	82.7019	8,000.98	82.5199	8,000.98	80.6715	8,000.98	80.2164	8,000.98	77.8386	8,000.98	78.2931	8,000.98	75.1675	8,000.98	69.3524	8,000.98	71.2333	8,000.98	75.3703	8,000.98	68.8262	8,000.98	69.1075	8,000.98	65.5705	8,000.98	62.2363	8,000.98	63.5823	8,000.98	59.0658	8,000.98	60.9894	8,000.98	55.0069	8,000.98	58.6554	8,000.98	51.8881	8,000.98	58.5962	8,000.98	48.632	8,000.98	59.8839	8,000.98	51.7428	8,000.98	60.1394	8,000.98	47.4415	8,000.98	61.6918	8,000.98	51.1262	8,000.98	57.2998
8,282.23	89.5083	8,282.23	88.808	8,282.23	88.5666	8,282.23	87.0204	8,282.23	87.0369	8,282.23	84.9747	8,282.23	85.1889	8,282.23	82.5415	8,282.23	83.1426	8,282.23	81.0339	8,282.23	80.31	8,282.23	77.6391	8,282.23	78.0033	8,282.23	75.1157	8,282.23	69.9442	8,282.23	70.6292	8,282.23	71.0565	8,282.23	68.4163	8,282.23	66.9485	8,282.23	64.7502	8,282.23	64.1348	8,282.23	62.8706	8,282.23	59.5564	8,282.23	62.7456	8,282.23	55.4326	8,282.23	58.7862	8,282.23	38.9475	8,282.23	59.5765	8,282.23	51.094	8,282.23	59.9367	8,282.23	53.245	8,282.23	61.0829	8,282.23	40.8197	8,282.23	62.3517	8,282.23	51.806	8,282.23	57.5448
8,575.2	89.3449	8,575.2	88.4028	8,575.2	88.7702	8,575.2	86.9643	8,575.2	87.1957	8,575.2	84.4305	8,575.2	84.9871	8,575.2	82.7515	8,575.2	83.5621	8,575.2	80.5058	8,575.2	79.847	8,575.2	77.8478	8,575.2	77.8744	8,575.2	75.2608	8,575.2	70.1231	8,575.2	71.973	8,575.2	68.7646	8,575.2	68.9435	8,575.2	66.5675	8,575.2	65.0299	8,575.2	63.7147	8,575.2	62.3813	8,575.2	54.6454	8,575.2	61.8517	8,575.2	49.5117	8,575.2	58.8404	8,575.2	51.8044	8,575.2	59.9391	8,575.2	56.6029	8,575.2	60.18	8,575.2	51.4272	8,575.2	60.5436	8,575.2	43.2336	8,575.2	62.8438	8,575.2	56.1437	8,575.2	55.2998
8,876.95	88.4934	8,876.95	87.6627	8,876.95	88.2041	8,876.95	86.4817	8,876.95	86.8568	8,876.95	84.3781	8,876.95	84.9442	8,876.95	81.967	8,876.95	82.8285	8,876.95	80.3518	8,876.95	80.0316	8,876.95	77.9193	8,876.95	77.531	8,876.95	75.8232	8,876.95	71.7732	8,876.95	71.7291	8,876.95	70.9729	8,876.95	68.1469	8,876.95	65.6802	8,876.95	64.7027	8,876.95	61.933	8,876.95	61.6292	8,876.95	54.1448	8,876.95	61.0105	8,876.95	34.1215	8,876.95	59.6929	8,876.95	53.9685	8,876.95	56.9934	8,876.95	56.1414	8,876.95	59.2904	8,876.95	51.3307	8,876.95	60.0332	8,876.95	39.8445	8,876.95	62.2602	8,876.95	56.1128	8,876.95	56.1974
9,190.43	87.3565	9,190.43	86.9546	9,190.43	87.3886	9,190.43	85.8315	9,190.43	85.9881	9,190.43	84.2312	9,190.43	84.2527	9,190.43	81.3308	9,190.43	81.506	9,190.43	79.4843	9,190.43	79.7344	9,190.43	77.5865	9,190.43	77.3739	9,190.43	74.0426	9,190.43	71.8315	9,190.43	69.9056	9,190.43	71.0706	9,190.43	66.0563	9,190.43	65.628	9,190.43	62.4855	9,190.43	54.0415	9,190.43	60.5056	9,190.43	54.5375	9,190.43	59.1657	9,190.43	47.8851	9,190.43	56.8166	9,190.43	50.8381	9,190.43	55.4629	9,190.43	53.0461	9,190.43	59.111	9,190.43	46.9333	9,190.43	58.8182	9,190.43	36.289	9,190.43	60.7119	9,190.43	54.2013	9,190.43	54.9636
9,512.7	85.5825	9,512.7	85.5553	9,512.7	85.9113	9,512.7	84.6997	9,512.7	84.565	9,512.7	82.6756	9,512.7	82.7511	9,512.7	80.4827	9,512.7	79.481	9,512.7	78.5007	9,512.7	77.8175	9,512.7	75.2811	9,512.7	75.9014	9,512.7	71.5794	9,512.7	69.5439	9,512.7	67.7883	9,512.7	67.923	9,512.7	64.3677	9,512.7	61.9759	9,512.7	60.3832	9,512.7	49.9545	9,512.7	59.1702	9,512.7	48.5892	9,512.7	55.9247	9,512.7	47.5902	9,512.7	54.0393	9,512.7	47.5465	9,512.7	55.3115	9,512.7	50.2167	9,512.7	57.0373	9,512.7	42.3795	9,512.7	56.4009	9,512.7	32.0177	9,512.7	58.7444	9,512.7	51.6831	9,512.7	53.0921
9,849.61	85.0036	9,849.61	85.1095	9,849.61	85.2858	9,849.61	84.1482	9,849.61	84.1552	9,849.61	81.6037	9,849.61	81.9496	9,849.61	79.4001	9,849.61	78.5662	9,849.61	77.9083	9,849.61	76.7811	9,849.61	73.4857	9,849.61	74.4058	9,849.61	70.0811	9,849.61	67.9097	9,849.61	65.7331	9,849.61	69.7164	9,849.61	63.2405	9,849.61	60.1594	9,849.61	59.0344	9,849.61	52.9575	9,849.61	57.8007	9,849.61	39.9728	9,849.61	52.9522	9,849.61	52.3853	9,849.61	53.1271	9,849.61	50.2856	9,849.61	53.3236	9,849.61	49.191	9,849.61	55.7239	9,849.61	37.5623	9,849.61	55.8709	9,849.61	40.2646	9,849.61	58.4653	9,849.61	51.7017	9,849.61	53.796
10,195.3	84.4071	10,195.3	84.8867	10,195.3	84.7529	10,195.3	83.6252	10,195.3	83.6431	10,195.3	80.7349	10,195.3	81.02	10,195.3	78.3699	10,195.3	78.2996	10,195.3	76.79	10,195.3	76.2914	10,195.3	72.6005	10,195.3	72.2058	10,195.3	69.0647	10,195.3	66.8869	10,195.3	66.1386	10,195.3	69.7819	10,195.3	62.7725	10,195.3	61.0456	10,195.3	59.3716	10,195.3	56.897	10,195.3	56.8758	10,195.3	51.5089	10,195.3	52.2394	10,195.3	49.4661	10,195.3	53.6433	10,195.3	44.8338	10,195.3	53.2741	10,195.3	45.569	10,195.3	55.2245	10,195.3	38.7258	10,195.3	55.5995	10,195.3	44.7077	10,195.3	58.4268	10,195.3	52.7613	10,195.3	52.9469
10,555.7	84.8804	10,555.7	85.3227	10,555.7	85.3185	10,555.7	83.9164	10,555.7	84.1247	10,555.7	80.8829	10,555.7	81.472	10,555.7	78.583	10,555.7	78.3435	10,555.7	76.2519	10,555.7	76.0606	10,555.7	72.5411	10,555.7	71.0474	10,555.7	70.4362	10,555.7	68.8455	10,555.7	66.5858	10,555.7	67.1632	10,555.7	63.5799	10,555.7	61.5713	10,555.7	59.0012	10,555.7	51.8862	10,555.7	56.7072	10,555.7	52.1041	10,555.7	53.6359	10,555.7	46.1336	10,555.7	53.1965	10,555.7	42.6299	10,555.7	53.4222	10,555.7	39.193	10,555.7	54.09	10,555.7	38.6685	10,555.7	55.7963	10,555.7	44.5185	10,555.7	58.3985	10,555.7	53.4108	10,555.7	51.6279
10,927.7	86.3574	10,927.7	86.4284	10,927.7	86.7872	10,927.7	85.2102	10,927.7	85.8449	10,927.7	82.4989	10,927.7	83.5243	10,927.7	79.482	10,927.7	80.187	10,927.7	76.3524	10,927.7	76.3017	10,927.7	74.1162	10,927.7	72.5797	10,927.7	71.494	10,927.7	71.3212	10,927.7	67.1084	10,927.7	62.0487	10,927.7	63.7626	10,927.7	54.9521	10,927.7	58.9723	10,927.7	46.0899	10,927.7	55.9078	10,927.7	49.2192	10,927.7	53.4385	10,927.7	50.5198	10,927.7	54.0585	10,927.7	50.152	10,927.7	53.1407	10,927.7	41.9892	10,927.7	53.5913	10,927.7	38.9961	10,927.7	54.7697	10,927.7	45.5429	10,927.7	58.4646	10,927.7	54.1446	10,927.7	49.3573
11,314.5	87.8951	11,314.5	87.2685	11,314.5	87.8824	11,314.5	86.7127	11,314.5	86.8574	11,314.5	84.1662	11,314.5	84.9857	11,314.5	80.5461	11,314.5	81.7103	11,314.5	78.0224	11,314.5	77.6184	11,314.5	74.7205	11,314.5	74.8462	11,314.5	72.1034	11,314.5	71.8402	11,314.5	66.8401	11,314.5	67.1882	11,314.5	63.7043	11,314.5	61.1205	11,314.5	59.5882	11,314.5	53.0509	11,314.5	55.9349	11,314.5	50.6204	11,314.5	52.0339	11,314.5	52.2663	11,314.5	56.0117	11,314.5	49.1595	11,314.5	51.6677	11,314.5	41.5451	11,314.5	53.679	11,314.5	30.545	11,314.5	55.3383	11,314.5	43.6206	11,314.5	57.9267	11,314.5	54.0656	11,314.5	50.2304
11,712.9	88.2736	11,712.9	87.8717	11,712.9	87.9209	11,712.9	87.4807	11,712.9	87.1161	11,712.9	84.952	11,712.9	85.196	11,712.9	80.989	11,712.9	82.4161	11,712.9	79.0114	11,712.9	78.1666	11,712.9	75.706	11,712.9	74.8475	11,712.9	71.9201	11,712.9	70.8663	11,712.9	67.466	11,712.9	69.0026	11,712.9	63.8564	11,712.9	59.8523	11,712.9	59.7329	11,712.9	53.952	11,712.9	55.7216	11,712.9	38.0355	11,712.9	50.4094	11,712.9	54.4845	11,712.9	54.1691	11,712.9	49.398	11,712.9	51.0808	11,712.9	46.199	11,712.9	54.0368	11,712.9	35.7802	11,712.9	56.3215	11,712.9	44.8337	11,712.9	58.2904	11,712.9	54.7972	11,712.9	47.852
12,126	88.8671	12,126	88.4823	12,126	88.4849	12,126	87.8625	12,126	87.9573	12,126	85.5293	12,126	85.6178	12,126	81.2237	12,126	82.7333	12,126	79.4709	12,126	78.8158	12,126	75.795	12,126	74.1378	12,126	71.1683	12,126	71.5645	12,126	67.4523	12,126	65.3816	12,126	63.7513	12,126	59.0221	12,126	58.7386	12,126	56.6444	12,126	56.8088	12,126	53.5036	12,126	52.1787	12,126	56.7983	12,126	56.177	12,126	52.1726	12,126	48.6808	12,126	46.0965	12,126	50.9394	12,126	38.1206	12,126	56.3933	12,126	50.3326	12,126	58.109	12,126	56.3094	12,126	44.2576
12,553.7	89.2986	12,553.7	88.566	12,553.7	88.8622	12,553.7	87.7215	12,553.7	87.9484	12,553.7	85.4412	12,553.7	85.7087	12,553.7	81.0117	12,553.7	81.7803	12,553.7	78.7459	12,553.7	78.8072	12,553.7	74.5897	12,553.7	72.7698	12,553.7	69.5207	12,553.7	71.8408	12,553.7	66.786	12,553.7	61.9955	12,553.7	61.845	12,553.7	59.4135	12,553.7	59.0895	12,553.7	57.6465	12,553.7	54.665	12,553.7	53.1858	12,553.7	53.9164	12,553.7	55.6834	12,553.7	52.7243	12,553.7	52.1626	12,553.7	44.383	12,553.7	48.0136	12,553.7	42.8504	12,553.7	40.316	12,553.7	53.3536	12,553.7	52.1382	12,553.7	57.5232	12,553.7	57.1202	12,553.7	39.3634
12,996.1	89.3852	12,996.1	88.6142	12,996.1	89.3212	12,996.1	87.5731	12,996.1	88.0117	12,996.1	85.2878	12,996.1	85.7981	12,996.1	80.9972	12,996.1	80.8447	12,996.1	77.668	12,996.1	78.288	12,996.1	73.9254	12,996.1	73.9883	12,996.1	69.8769	12,996.1	71.3013	12,996.1	66.1551	12,996.1	62.6075	12,996.1	62.5385	12,996.1	60.3013	12,996.1	59.143	12,996.1	51.9824	12,996.1	53.6139	12,996.1	53.8314	12,996.1	49.4486	12,996.1	53.8051	12,996.1	47.1822	12,996.1	50.2337	12,996.1	44.8287	12,996.1	48.7601	12,996.1	42.2043	12,996.1	43.3809	12,996.1	51.8858	12,996.1	51.1618	12,996.1	57.7874	12,996.1	55.7472	12,996.1	38.3657
13,453.1	90.0344	13,453.1	89.4551	13,453.1	90.0215	13,453.1	87.9786	13,453.1	88.4428	13,453.1	85.0497	13,453.1	85.6481	13,453.1	81.126	13,453.1	81.2867	13,453.1	77.3343	13,453.1	78.0923	13,453.1	73.8541	13,453.1	75.613	13,453.1	70.5038	13,453.1	70.0477	13,453.1	65.81	13,453.1	62.5944	13,453.1	63.3913	13,453.1	59.5077	13,453.1	58.1897	13,453.1	43.361	13,453.1	55.1816	13,453.1	51.7364	13,453.1	45.4413	13,453.1	49.8948	13,453.1	42.0405	13,453.1	49.9538	13,453.1	47.2851	13,453.1	51.2215	13,453.1	47.0841	13,453.1	42.6548	13,453.1	51.2244	13,453.1	47.7485	13,453.1	58.6284	13,453.1	54.2729	13,453.1	36.5784
13,927.7	90.0491	13,927.7	89.466	13,927.7	89.638	13,927.7	87.8083	13,927.7	88.3033	13,927.7	84.4764	13,927.7	85.5864	13,927.7	79.9301	13,927.7	81.7478	13,927.7	76.8543	13,927.7	77.2034	13,927.7	72.8994	13,927.7	75.6009	13,927.7	69.4088	13,927.7	68.0053	13,927.7	65.2195	13,927.7	61.2485	13,927.7	62.4144	13,927.7	55.286	13,927.7	56.4883	13,927.7	40.4275	13,927.7	54.4686	13,927.7	47.2178	13,927.7	48.0813	13,927.7	44.6701	13,927.7	39.2453	13,927.7	49.4306	13,927.7	46.5478	13,927.7	52.51	13,927.7	49.9289	13,927.7	40.2699	13,927.7	50.054	13,927.7	41.5618	13,927.7	56.7261	13,927.7	48.9734	13,927.7	34.8958
14,419.9	89.5042	14,419.9	88.8094	14,419.9	89.0055	14,419.9	87.6887	14,419.9	87.9775	14,419.9	84.2293	14,419.9	85.2191	14,419.9	79.4364	14,419.9	81.432	14,419.9	76.9384	14,419.9	77.2296	14,419.9	72.7148	14,419.9	74.3771	14,419.9	68.1084	14,419.9	68.2648	14,419.9	65.0989	14,419.9	60.7637	14,419.9	59.8455	14,419.9	56.3465	14,419.9	53.8072	14,419.9	49.8939	14,419.9	53.6464	14,419.9	47.4291	14,419.9	49.9391	14,419.9	40.1614	14,419.9	43.4775	14,419.9	48.4053	14,419.9	47.7601	14,419.9	51.2695	14,419.9	50.2856	14,419.9	43.7196	14,419.9	48.2956	14,419.9	34.6377	14,419.9	54.2991	14,419.9	42.4098	14,419.9	30.6405
14,929.7	89.6085	14,929.7	88.7707	14,929.7	89.1892	14,929.7	87.5108	14,929.7	87.6627	14,929.7	84.1216	14,929.7	84.6266	14,929.7	79.5009	14,929.7	80.2198	14,929.7	76.3762	14,929.7	77.1356	14,929.7	73.0305	14,929.7	73.2065	14,929.7	67.8128	14,929.7	68.5709	14,929.7	64.734	14,929.7	63.1113	14,929.7	60.2871	14,929.7	54.2561	14,929.7	55.2576	14,929.7	43.31	14,929.7	53.9366	14,929.7	40.4109	14,929.7	44.2662	14,929.7	38.6843	14,929.7	48.8454	14,929.7	45.4408	14,929.7	44.2062	14,929.7	46.6898	14,929.7	49.7181	14,929.7	41.8446	14,929.7	47.7655	14,929.7	41.1656	14,929.7	50.7288	14,929.7	47.698	14,929.7	33.2013
15,454.1	89.5889	15,454.1	88.716	15,454.1	89.2495	15,454.1	87.1864	15,454.1	87.6428	15,454.1	83.4427	15,454.1	83.8503	15,454.1	78.8849	15,454.1	79.2153	15,454.1	75.386	15,454.1	76.3803	15,454.1	71.9817	15,454.1	72.2513	15,454.1	68.0404	15,454.1	66.6308	15,454.1	63.6208	15,454.1	61.1966	15,454.1	59.2912	15,454.1	47.3582	15,454.1	53.5231	15,454.1	44.2379	15,454.1	54.0338	15,454.1	41.586	15,454.1	49.7801	15,454.1	40.834	15,454.1	46.0228	15,454.1	44.0656	15,454.1	43.1872	15,454.1	44.113	15,454.1	45.8696	15,454.1	38.128	15,454.1	49.7844	15,454.1	44.5757	15,454.1	49.0134	15,454.1	49.6794	15,454.1	32.1407
15,999	89.1783	15,999	88.3148	15,999	88.7788	15,999	86.941	15,999	87.211	15,999	83.4733	15,999	83.4286	15,999	78.5174	15,999	78.6528	15,999	75.3571	15,999	75.1276	15,999	71.4654	15,999	70.946	15,999	68.1179	15,999	66.0738	15,999	63.81	15,999	60.0878	15,999	59.7874	15,999	51.7272	15,999	53.0391	15,999	46.0745	15,999	51.8126	15,999	43.3813	15,999	41.1659	15,999	44.9341	15,999	49.168	15,999	38.1829	15,999	45.1657	15,999	22.8298	15,999	43.0965	15,999	40.4055	15,999	50.1792	15,999	42.4121	15,999	49.3175	15,999	48.4998	15,999	34.2783
16,564.5	88.6708	16,564.5	87.9512	16,564.5	88.1399	16,564.5	86.7348	16,564.5	86.6227	16,564.5	83.3512	16,564.5	83.0727	16,564.5	77.8476	16,564.5	78.3798	16,564.5	74.6726	16,564.5	73.4599	16,564.5	70.8738	16,564.5	69.7899	16,564.5	67.1723	16,564.5	65.9154	16,564.5	63.7057	16,564.5	62.1151	16,564.5	57.9288	16,564.5	45.8059	16,564.5	52.4232	16,564.5	40.7743	16,564.5	50.761	16,564.5	40.5381	16,564.5	29.6003	16,564.5	37.3382	16,564.5	47.5484	16,564.5	33.424	16,564.5	47.3525	16,564.5	38.2203	16,564.5	43.3934	16,564.5	36.5139	16,564.5	50.333	16,564.5	14.6971	16,564.5	48.4976	16,564.5	42.1077	16,564.5	39.0592
17,147.5	88.6051	17,147.5	87.9933	17,147.5	88.0183	17,147.5	86.6001	17,147.5	86.3427	17,147.5	83.0898	17,147.5	83.0247	17,147.5	77.3395	17,147.5	78.0751	17,147.5	74.1675	17,147.5	73.6579	17,147.5	70.237	17,147.5	69.3701	17,147.5	66.5712	17,147.5	66.5988	17,147.5	63.1869	17,147.5	62.933	17,147.5	58.2809	17,147.5	48.5593	17,147.5	51.2327	17,147.5	43.9927	17,147.5	51.3529	17,147.5	35.9748	17,147.5	39.3183	17,147.5	21.2203	17,147.5	47.2877	17,147.5	41.296	17,147.5	48.606	17,147.5	38.5136	17,147.5	47.6131	17,147.5	38.1554	17,147.5	49.8812	17,147.5	34.9327	17,147.5	50.2665	17,147.5	38.1938	17,147.5	39.1227
17,753.9	91.1266	17,753.9	90.6954	17,753.9	90.7801	17,753.9	88.7116	17,753.9	88.6456	17,753.9	85.2498	17,753.9	84.937	17,753.9	79.5571	17,753.9	79.2364	17,753.9	75.7377	17,753.9	75.1148	17,753.9	71.5815	17,753.9	71.8514	17,753.9	68.9763	17,753.9	67.9687	17,753.9	64.9937	17,753.9	64.5041	17,753.9	59.0553	17,753.9	45.6406	17,753.9	52.9706	17,753.9	53.2629	17,753.9	55.5407	17,753.9	43.8821	17,753.9	47.7831	17,753.9	44.499	17,753.9	49.5477	17,753.9	45.5149	17,753.9	52.6845	17,753.9	43.7172	17,753.9	52.8414	17,753.9	24.2964	17,753.9	55.6642	17,753.9	48.4713	17,753.9	55.8635	17,753.9	48.5064	17,753.9	51.7008
18,377.9	94.2136	18,377.9	94.1082	18,377.9	93.7176	18,377.9	92.1939	18,377.9	91.486	18,377.9	88.7488	18,377.9	87.7294	18,377.9	83.0819	18,377.9	82.202	18,377.9	78.9331	18,377.9	77.4867	18,377.9	74.7182	18,377.9	74.69	18,377.9	71.8563	18,377.9	71.4058	18,377.9	67.2213	18,377.9	63.9648	18,377.9	61.613	18,377.9	55.1187	18,377.9	57.8611	18,377.9	56.8725	18,377.9	57.5298	18,377.9	40.9906	18,377.9	38.7489	18,377.9	50.2937	18,377.9	52.0057	18,377.9	53.5719	18,377.9	56.9286	18,377.9	39.4063	18,377.9	55.1161	18,377.9	40.7453	18,377.9	60.5919	18,377.9	50.2219	18,377.9	58.1631	18,377.9	54.7071	18,377.9	59.3947
19,028.3	95.6612	19,028.3	95.5774	19,028.3	95.1929	19,028.3	93.5437	19,028.3	93.1918	19,028.3	89.6942	19,028.3	90.573	19,028.3	83.7417	19,028.3	86.5272	19,028.3	78.9299	19,028.3	81.7185	19,028.3	74.7713	19,028.3	76.0252	19,028.3	71.9704	19,028.3	74.1496	19,028.3	67.7752	19,028.3	68.9007	19,028.3	61.17	19,028.3	60.2888	19,028.3	56.5624	19,028.3	60.8488	19,028.3	57.5596	19,028.3	51.8606	19,028.3	53.4532	19,028.3	53.5233	19,028.3	55.2098	19,028.3	58.9834	19,028.3	56.2848	19,028.3	51.7761	19,028.3	51.398	19,028.3	41.8327	19,028.3	60.1925	19,028.3	52.3006	19,028.3	61.1091	19,028.3	59.5586	19,028.3	63.8406
19,699.2	96.116	19,699.2	95.3115	19,699.2	96.3159	19,699.2	92.2551	19,699.2	94.5909	19,699.2	87.419	19,699.2	91.797	19,699.2	81.3374	19,699.2	87.8089	19,699.2	77.2071	19,699.2	82.6014	19,699.2	71.9093	19,699.2	76.4517	19,699.2	70.9787	19,699.2	73.7157	19,699.2	64.6845	19,699.2	67.8777	19,699.2	55.1963	19,699.2	63.5879	19,699.2	54.1117	19,699.2	62.2123	19,699.2	53.8353	19,699.2	57.0503	19,699.2	51.9308	19,699.2	56.3959	19,699.2	47.4989	19,699.2	59.9125	19,699.2	53.283	19,699.2	51.9644	19,699.2	51.1632	19,699.2	52.0042	19,699.2	55.2811	19,699.2	54.4278	19,699.2	62.1798	19,699.2	63.1676	19,699.2	66.1897
19,998	96.1076	19,998	95.1725	19,998	96.6776	19,998	91.582	19,998	95.0044	19,998	86.3675	19,998	92.0067	19,998	80.1218	19,998	88.2843	19,998	75.7202	19,998	81.985	19,998	72.319	19,998	75.4175	19,998	70.2689	19,998	73.544	19,998	61.1467	19,998	72.3074	19,998	51.7333	19,998	61.6239	19,998	54.9281	19,998	63.4091	19,998	61.1184	19,998	57.5838	19,998	49.5647	19,998	65.8873	19,998	51.074	19,998	52.4333	19,998	53.8825	19,998	55.702	19,998	53.9119	19,998	56.8919	19,998	55.5147	19,998	56.5466	19,998	66.3137	19,998	64.3164	19,998	66.0916
