"SPL Horizontal"																																																																							
"On-Axis"		"10°"		"-10°"		"20°"		"-20°"		"30°"		"-30°"		"40°"		"-40°"		"50°"		"-50°"		"60°"		"-60°"		"70°"		"-70°"		"80°"		"-80°"		"90°"		"-90°"		"100°"		"-100°"		"110°"		"-110°"		"120°"		"-120°"		"130°"		"-130°"		"140°"		"-140°"		"150°"		"-150°"		"160°"		"-160°"		"170°"		"-170°"		"180°"	
"Frequency [Hz]"	"Sound Pessure Level [dB]  / [2.83V 1m] "	"Frequency [Hz]"	"Sound Pessure Level [dB]  / [2.83V 1m] "	"Frequency [Hz]"	"Sound Pessure Level [dB]  / [2.83V 1m] "	"Frequency [Hz]"	"Sound Pessure Level [dB]  / [2.83V 1m] "	"Frequency [Hz]"	"Sound Pessure Level [dB]  / [2.83V 1m] "	"Frequency [Hz]"	"Sound Pessure Level [dB]  / [2.83V 1m] "	"Frequency [Hz]"	"Sound Pessure Level [dB]  / [2.83V 1m] "	"Frequency [Hz]"	"Sound Pessure Level [dB]  / [2.83V 1m] "	"Frequency [Hz]"	"Sound Pessure Level [dB]  / [2.83V 1m] "	"Frequency [Hz]"	"Sound Pessure Level [dB]  / [2.83V 1m] "	"Frequency [Hz]"	"Sound Pessure Level [dB]  / [2.83V 1m] "	"Frequency [Hz]"	"Sound Pessure Level [dB]  / [2.83V 1m] "	"Frequency [Hz]"	"Sound Pessure Level [dB]  / [2.83V 1m] "	"Frequency [Hz]"	"Sound Pessure Level [dB]  / [2.83V 1m] "	"Frequency [Hz]"	"Sound Pessure Level [dB]  / [2.83V 1m] "	"Frequency [Hz]"	"Sound Pessure Level [dB]  / [2.83V 1m] "	"Frequency [Hz]"	"Sound Pessure Level [dB]  / [2.83V 1m] "	"Frequency [Hz]"	"Sound Pessure Level [dB]  / [2.83V 1m] "	"Frequency [Hz]"	"Sound Pessure Level [dB]  / [2.83V 1m] "	"Frequency [Hz]"	"Sound Pessure Level [dB]  / [2.83V 1m] "	"Frequency [Hz]"	"Sound Pessure Level [dB]  / [2.83V 1m] "	"Frequency [Hz]"	"Sound Pessure Level [dB]  / [2.83V 1m] "	"Frequency [Hz]"	"Sound Pessure Level [dB]  / [2.83V 1m] "	"Frequency [Hz]"	"Sound Pessure Level [dB]  / [2.83V 1m] "	"Frequency [Hz]"	"Sound Pessure Level [dB]  / [2.83V 1m] "	"Frequency [Hz]"	"Sound Pessure Level [dB]  / [2.83V 1m] "	"Frequency [Hz]"	"Sound Pessure Level [dB]  / [2.83V 1m] "	"Frequency [Hz]"	"Sound Pessure Level [dB]  / [2.83V 1m] "	"Frequency [Hz]"	"Sound Pessure Level [dB]  / [2.83V 1m] "	"Frequency [Hz]"	"Sound Pessure Level [dB]  / [2.83V 1m] "	"Frequency [Hz]"	"Sound Pessure Level [dB]  / [2.83V 1m] "	"Frequency [Hz]"	"Sound Pessure Level [dB]  / [2.83V 1m] "	"Frequency [Hz]"	"Sound Pessure Level [dB]  / [2.83V 1m] "	"Frequency [Hz]"	"Sound Pessure Level [dB]  / [2.83V 1m] "	"Frequency [Hz]"	"Sound Pessure Level [dB]  / [2.83V 1m] "	"Frequency [Hz]"	"Sound Pessure Level [dB]  / [2.83V 1m] "
20.5078	52.4889	20.5078	52.4628	20.5078	52.5131	20.5078	52.4357	20.5078	52.5348	20.5078	52.408	20.5078	52.5536	20.5078	52.3805	20.5078	52.5693	20.5078	52.3533	20.5078	52.5819	20.5078	52.3269	20.5078	52.5918	20.5078	52.3015	20.5078	52.5994	20.5078	52.2777	20.5078	52.6051	20.5078	52.2563	20.5078	52.609	20.5078	52.2385	20.5078	52.6107	20.5078	52.226	20.5078	52.609	20.5078	52.2204	20.5078	52.602	20.5078	52.2233	20.5078	52.5873	20.5078	52.2359	20.5078	52.5631	20.5078	52.259	20.5078	52.5285	20.5078	52.2923	20.5078	52.4849	20.5078	52.3347	20.5078	52.4352	20.5078	52.3836
21.9727	55.1226	21.9727	55.1271	21.9727	55.1132	21.9727	55.1264	21.9727	55.0992	21.9727	55.1199	21.9727	55.0807	21.9727	55.1068	21.9727	55.0582	21.9727	55.0865	21.9727	55.032	21.9727	55.0584	21.9727	55.0026	21.9727	55.0227	21.9727	54.9707	21.9727	54.9797	21.9727	54.9369	21.9727	54.931	21.9727	54.902	21.9727	54.8785	21.9727	54.8666	21.9727	54.8249	21.9727	54.8311	21.9727	54.7729	21.9727	54.7957	21.9727	54.7257	21.9727	54.7608	21.9727	54.6858	21.9727	54.7269	21.9727	54.6555	21.9727	54.6953	21.9727	54.6362	21.9727	54.6675	21.9727	54.6285	21.9727	54.6457	21.9727	54.6321
23.4375	56.6347	23.4375	56.6386	23.4375	56.6258	23.4375	56.6369	23.4375	56.6124	23.4375	56.6293	23.4375	56.5953	23.4375	56.6153	23.4375	56.575	23.4375	56.595	23.4375	56.5521	23.4375	56.5684	23.4375	56.5273	23.4375	56.536	23.4375	56.5011	23.4375	56.4987	23.4375	56.4741	23.4375	56.4579	23.4375	56.4467	23.4375	56.4151	23.4375	56.4192	23.4375	56.3721	23.4375	56.3916	23.4375	56.3309	23.4375	56.3638	23.4375	56.2933	23.4375	56.3358	23.4375	56.2614	23.4375	56.3079	23.4375	56.2371	23.4375	56.2807	23.4375	56.222	23.4375	56.2558	23.4375	56.2169	23.4375	56.2354	23.4375	56.2218
24.9023	58.3049	24.9023	58.2948	24.9023	58.3095	24.9023	58.2792	24.9023	58.3087	24.9023	58.2583	24.9023	58.3026	24.9023	58.2325	24.9023	58.2915	24.9023	58.2022	24.9023	58.2756	24.9023	58.1681	24.9023	58.2555	24.9023	58.1311	24.9023	58.2318	24.9023	58.0921	24.9023	58.2049	24.9023	58.0524	24.9023	58.1756	24.9023	58.0135	24.9023	58.1444	24.9023	57.9768	24.9023	58.1118	24.9023	57.9438	24.9023	58.0781	24.9023	57.9161	24.9023	58.0437	24.9023	57.895	24.9023	58.0092	24.9023	57.8818	24.9023	57.9754	24.9023	57.8774	24.9023	57.9439	24.9023	57.882	24.9023	57.9166	24.9023	57.8954
26.3672	59.0084	26.3672	58.9976	26.3672	59.0145	26.3672	58.9825	26.3672	59.0159	26.3672	58.9633	26.3672	59.0124	26.3672	58.9405	26.3672	59.0042	26.3672	58.9147	26.3672	58.9916	26.3672	58.8863	26.3672	58.9749	26.3672	58.856	26.3672	58.9544	26.3672	58.8244	26.3672	58.9307	26.3672	58.7924	26.3672	58.9041	26.3672	58.7607	26.3672	58.8752	26.3672	58.7304	26.3672	58.8444	26.3672	58.7025	26.3672	58.8122	26.3672	58.6781	26.3672	58.7794	26.3672	58.6585	26.3672	58.7469	26.3672	58.6448	26.3672	58.716	26.3672	58.6381	26.3672	58.6881	26.3672	58.6393	26.3672	58.6651	26.3672	58.6484
27.832	60.7607	27.832	60.7484	27.832	60.7692	27.832	60.7327	27.832	60.7737	27.832	60.7137	27.832	60.774	27.832	60.6921	27.832	60.7701	27.832	60.668	27.832	60.762	27.832	60.6421	27.832	60.75	27.832	60.6147	27.832	60.7342	27.832	60.5864	27.832	60.715	27.832	60.558	27.832	60.6929	27.832	60.5302	27.832	60.6684	27.832	60.5041	27.832	60.6418	27.832	60.4808	27.832	60.6136	27.832	60.4615	27.832	60.5843	27.832	60.4471	27.832	60.5545	27.832	60.4388	27.832	60.5253	27.832	60.4373	27.832	60.498	27.832	60.4428	27.832	60.4742	27.832	60.4554
29.2969	61.684	29.2969	61.6608	29.2969	61.7016	29.2969	61.6328	29.2969	61.7131	29.2969	61.601	29.2969	61.7182	29.2969	61.5664	29.2969	61.717	29.2969	61.5302	29.2969	61.7094	29.2969	61.4936	29.2969	61.6957	29.2969	61.4573	29.2969	61.6764	29.2969	61.4223	29.2969	61.6518	29.2969	61.3891	29.2969	61.6223	29.2969	61.3584	29.2969	61.5887	29.2969	61.3308	29.2969	61.5515	29.2969	61.3069	29.2969	61.5115	29.2969	61.2877	29.2969	61.4698	29.2969	61.2741	29.2969	61.4277	29.2969	61.2669	29.2969	61.3871	29.2969	61.2673	29.2969	61.3497	29.2969	61.2758	29.2969	61.3177	29.2969	61.2927
30.7617	63.1446	30.7617	63.1365	30.7617	63.1467	30.7617	63.1225	30.7617	63.1427	30.7617	63.1027	30.7617	63.1329	30.7617	63.0776	30.7617	63.1176	30.7617	63.0477	30.7617	63.0971	30.7617	63.0136	30.7617	63.072	30.7617	62.9764	30.7617	63.043	30.7617	62.937	30.7617	63.0108	30.7617	62.8968	30.7617	62.9761	30.7617	62.857	30.7617	62.9399	30.7617	62.819	30.7617	62.9029	30.7617	62.7842	30.7617	62.8659	30.7617	62.7537	30.7617	62.8298	30.7617	62.7289	30.7617	62.7956	30.7617	62.7106	30.7617	62.7644	30.7617	62.6999	30.7617	62.7377	30.7617	62.6973	30.7617	62.7168	30.7617	62.7031
32.2266	64.0629	32.2266	64.0496	32.2266	64.0702	32.2266	64.0308	32.2266	64.0713	32.2266	64.0068	32.2266	64.0663	32.2266	63.9781	32.2266	64.0551	32.2266	63.9454	32.2266	64.0379	32.2266	63.9095	32.2266	64.0151	32.2266	63.871	32.2266	63.9871	32.2266	63.8311	32.2266	63.9546	32.2266	63.7908	32.2266	63.9184	32.2266	63.7512	32.2266	63.8793	32.2266	63.7137	32.2266	63.8385	32.2266	63.6796	32.2266	63.797	32.2266	63.6502	32.2266	63.7562	32.2266	63.6268	32.2266	63.7173	32.2266	63.6104	32.2266	63.6819	32.2266	63.6019	32.2266	63.6514	32.2266	63.6019	32.2266	63.6272	32.2266	63.6104
33.6914	64.9557	33.6914	64.9459	33.6914	64.9597	33.6914	64.9304	33.6914	64.9577	33.6914	64.9096	33.6914	64.9499	33.6914	64.8839	33.6914	64.9362	33.6914	64.8538	33.6914	64.9171	33.6914	64.8199	33.6914	64.8928	33.6914	64.7831	33.6914	64.864	33.6914	64.7442	33.6914	64.8313	33.6914	64.7044	33.6914	64.7955	33.6914	64.6647	33.6914	64.7574	33.6914	64.6265	33.6914	64.7181	33.6914	64.5912	33.6914	64.6785	33.6914	64.5602	33.6914	64.64	33.6914	64.5347	33.6914	64.6036	33.6914	64.516	33.6914	64.5709	33.6914	64.5049	33.6914	64.5432	33.6914	64.5022	33.6914	64.5219	33.6914	64.5079
35.1563	65.8992	35.1563	65.889	35.1563	65.9042	35.1563	65.874	35.1563	65.904	35.1563	65.8545	35.1563	65.8985	35.1563	65.831	35.1563	65.8877	35.1563	65.8038	35.1563	65.8719	35.1563	65.7738	35.1563	65.8514	35.1563	65.7414	35.1563	65.8267	35.1563	65.7075	35.1563	65.7984	35.1563	65.673	35.1563	65.7671	35.1563	65.639	35.1563	65.7336	35.1563	65.6064	35.1563	65.6989	35.1563	65.5765	35.1563	65.6639	35.1563	65.5503	35.1563	65.6297	35.1563	65.5291	35.1563	65.5973	35.1563	65.5138	35.1563	65.568	35.1563	65.5053	35.1563	65.543	35.1563	65.5041	35.1563	65.5234	35.1563	65.5102
36.6211	66.6074	36.6211	66.5992	36.6211	66.6099	36.6211	66.5857	36.6211	66.6067	36.6211	66.567	36.6211	66.5979	36.6211	66.5436	36.6211	66.5836	36.6211	66.516	36.6211	66.564	36.6211	66.4847	36.6211	66.5397	36.6211	66.4504	36.6211	66.5112	36.6211	66.414	36.6211	66.4792	36.6211	66.3764	36.6211	66.4446	36.6211	66.3387	36.6211	66.4083	36.6211	66.3022	36.6211	66.3712	36.6211	66.2681	36.6211	66.3344	36.6211	66.2378	36.6211	66.2989	36.6211	66.2126	36.6211	66.2659	36.6211	66.1936	36.6211	66.2365	36.6211	66.1819	36.6211	66.212	36.6211	66.1779	36.6211	66.1935	36.6211	66.1819
38.0859	67.4128	38.0859	67.4041	38.0859	67.4162	38.0859	67.3903	38.0859	67.4141	38.0859	67.3716	38.0859	67.4067	38.0859	67.3485	38.0859	67.3939	38.0859	67.3215	38.0859	67.3762	38.0859	67.2912	38.0859	67.354	38.0859	67.2584	38.0859	67.3277	38.0859	67.2238	38.0859	67.298	38.0859	67.1884	38.0859	67.2657	38.0859	67.1532	38.0859	67.2315	38.0859	67.1193	38.0859	67.1963	38.0859	67.0879	38.0859	67.161	38.0859	67.0602	38.0859	67.1267	38.0859	67.0373	38.0859	67.0946	38.0859	67.0203	38.0859	67.0659	38.0859	67.01	38.0859	67.0417	38.0859	67.007	38.0859	67.0233	38.0859	67.0115
39.5508	68.1086	39.5508	68.0953	39.5508	68.1165	39.5508	68.0771	39.5508	68.1189	39.5508	68.0543	39.5508	68.1157	39.5508	68.0276	39.5508	68.1071	39.5508	67.9977	39.5508	68.0932	39.5508	67.9654	39.5508	68.0743	39.5508	67.9316	39.5508	68.051	39.5508	67.8972	39.5508	68.0238	39.5508	67.8634	39.5508	67.9932	39.5508	67.831	39.5508	67.9602	39.5508	67.8011	39.5508	67.9255	39.5508	67.7746	39.5508	67.8902	39.5508	67.7525	39.5508	67.8555	39.5508	67.7356	39.5508	67.8224	39.5508	67.7245	39.5508	67.7923	39.5508	67.7198	39.5508	67.7663	39.5508	67.7218	39.5508	67.7454	39.5508	67.7304
41.0156	68.8922	41.0156	68.8847	41.0156	68.8941	41.0156	68.8716	41.0156	68.8901	41.0156	68.8533	41.0156	68.8806	41.0156	68.8304	41.0156	68.8658	41.0156	68.8035	41.0156	68.846	41.0156	68.7733	41.0156	68.822	41.0156	68.7408	41.0156	68.7944	41.0156	68.7069	41.0156	68.7641	41.0156	68.6728	41.0156	68.7318	41.0156	68.6394	41.0156	68.6987	41.0156	68.6079	41.0156	68.6656	41.0156	68.5792	41.0156	68.6335	41.0156	68.5544	41.0156	68.6034	41.0156	68.5342	41.0156	68.5761	41.0156	68.5194	41.0156	68.5524	41.0156	68.5103	41.0156	68.5332	41.0156	68.5071	41.0156	68.5189	41.0156	68.5101
42.4805	69.5743	42.4805	69.5658	42.4805	69.5769	42.4805	69.5517	42.4805	69.5738	42.4805	69.5324	42.4805	69.5648	42.4805	69.5081	42.4805	69.5501	42.4805	69.4794	42.4805	69.53	42.4805	69.447	42.4805	69.505	42.4805	69.4117	42.4805	69.4755	42.4805	69.3745	42.4805	69.4424	42.4805	69.3364	42.4805	69.4066	42.4805	69.2987	42.4805	69.369	42.4805	69.2625	42.4805	69.3308	42.4805	69.2292	42.4805	69.2932	42.4805	69.1999	42.4805	69.2575	42.4805	69.1759	42.4805	69.225	42.4805	69.158	42.4805	69.1966	42.4805	69.1469	42.4805	69.1735	42.4805	69.1429	42.4805	69.1565	42.4805	69.1461
43.9453	70.2108	43.9453	70.2011	43.9453	70.2149	43.9453	70.186	43.9453	70.2134	43.9453	70.1658	43.9453	70.2066	43.9453	70.1408	43.9453	70.1944	43.9453	70.1118	43.9453	70.1775	43.9453	70.0795	43.9453	70.1561	43.9453	70.0449	43.9453	70.131	43.9453	70.0091	43.9453	70.1028	43.9453	69.9733	43.9453	70.0723	43.9453	69.9389	43.9453	70.0404	43.9453	69.9072	43.9453	70.008	43.9453	69.8794	43.9453	69.9759	43.9453	69.8566	43.9453	69.9451	43.9453	69.8397	43.9453	69.9162	43.9453	69.8291	43.9453	69.8901	43.9453	69.825	43.9453	69.8675	43.9453	69.8272	43.9453	69.849	43.9453	69.8354
45.4102	70.8523	45.4102	70.8446	45.4102	70.8533	45.4102	70.8303	45.4102	70.8476	45.4102	70.8099	45.4102	70.8356	45.4102	70.7837	45.4102	70.8176	45.4102	70.7525	45.4102	70.7942	45.4102	70.7171	45.4102	70.7659	45.4102	70.6788	45.4102	70.7338	45.4102	70.6385	45.4102	70.6987	45.4102	70.5978	45.4102	70.6616	45.4102	70.5579	45.4102	70.6236	45.4102	70.5203	45.4102	70.5858	45.4102	70.4862	45.4102	70.5492	45.4102	70.4568	45.4102	70.5148	45.4102	70.4332	45.4102	70.4836	45.4102	70.416	45.4102	70.4564	45.4102	70.4058	45.4102	70.434	45.4102	70.4027	45.4102	70.4172	45.4102	70.4066
46.875	71.4525	46.875	71.4475	46.875	71.4508	46.875	71.4358	46.875	71.4424	46.875	71.4178	46.875	71.4273	46.875	71.3941	46.875	71.4062	46.875	71.3654	46.875	71.3794	46.875	71.3325	46.875	71.3479	46.875	71.2963	46.875	71.3125	46.875	71.258	46.875	71.2743	46.875	71.2188	46.875	71.2344	46.875	71.1798	46.875	71.1941	46.875	71.1423	46.875	71.1548	46.875	71.1072	46.875	71.1177	46.875	71.0758	46.875	71.0841	46.875	71.0488	46.875	71.055	46.875	71.0271	46.875	71.0314	46.875	71.0112	46.875	71.0139	46.875	71.0018	46.875	71.003	46.875	70.999
48.3398	72.0911	48.3398	72.0854	48.3398	72.089	48.3398	72.0721	48.3398	72.0791	48.3398	72.0515	48.3398	72.0614	48.3398	72.0243	48.3398	72.0364	48.3398	71.9913	48.3398	72.0047	48.3398	71.9533	48.3398	71.967	48.3398	71.9114	48.3398	71.9244	48.3398	71.8669	48.3398	71.8782	48.3398	71.821	48.3398	71.8298	48.3398	71.7751	48.3398	71.7807	48.3398	71.7305	48.3398	71.7326	48.3398	71.6886	48.3398	71.6872	48.3398	71.6505	48.3398	71.6462	48.3398	71.6171	48.3398	71.6111	48.3398	71.5896	48.3398	71.5831	48.3398	71.5686	48.3398	71.5632	48.3398	71.5549	48.3398	71.5518	48.3398	71.5492
51.2695	73.2706	51.2695	73.2635	51.2695	73.2706	51.2695	73.2497	51.2695	73.2636	51.2695	73.2295	51.2695	73.2496	51.2695	73.2036	51.2695	73.2289	51.2695	73.1727	51.2695	73.2021	51.2695	73.1376	51.2695	73.1699	51.2695	73.0995	51.2695	73.1331	51.2695	73.0594	51.2695	73.0929	51.2695	73.0185	51.2695	73.0506	51.2695	72.978	51.2695	73.0076	51.2695	72.9393	51.2695	72.9654	51.2695	72.9035	51.2695	72.9254	51.2695	72.8715	51.2695	72.8892	51.2695	72.8444	51.2695	72.8578	51.2695	72.8229	51.2695	72.8323	51.2695	72.8074	51.2695	72.8133	51.2695	72.7985	51.2695	72.8013	51.2695	72.7964
52.7344	73.8781	52.7344	73.8721	52.7344	73.8767	52.7344	73.8591	52.7344	73.868	52.7344	73.8394	52.7344	73.8521	52.7344	73.8137	52.7344	73.8295	52.7344	73.7828	52.7344	73.8006	52.7344	73.7476	52.7344	73.7663	52.7344	73.7092	52.7344	73.7277	52.7344	73.6687	52.7344	73.6859	52.7344	73.6276	52.7344	73.6424	52.7344	73.5869	52.7344	73.5987	52.7344	73.548	52.7344	73.5563	52.7344	73.512	52.7344	73.5167	52.7344	73.4797	52.7344	73.4814	52.7344	73.4521	52.7344	73.4515	52.7344	73.4297	52.7344	73.4279	52.7344	73.413	52.7344	73.411	52.7344	73.4025	52.7344	73.4013	52.7344	73.3985
54.1992	74.4633	54.1992	74.4548	54.1992	74.4641	54.1992	74.4387	54.1992	74.457	54.1992	74.4157	54.1992	74.4422	54.1992	74.3862	54.1992	74.42	54.1992	74.3513	54.1992	74.3909	54.1992	74.312	54.1992	74.3557	54.1992	74.2693	54.1992	74.3154	54.1992	74.2247	54.1992	74.2713	54.1992	74.1796	54.1992	74.2246	54.1992	74.1354	54.1992	74.1771	54.1992	74.0934	54.1992	74.1304	54.1992	74.0549	54.1992	74.0861	54.1992	74.021	54.1992	74.0459	54.1992	73.9924	54.1992	74.0112	54.1992	73.9699	54.1992	73.9829	54.1992	73.9539	54.1992	73.962	54.1992	73.9448	54.1992	73.9487	54.1992	73.943
55.6641	74.9575	55.6641	74.9474	55.6641	74.9606	55.6641	74.9306	55.6641	74.9567	55.6641	74.9076	55.6641	74.9458	55.6641	74.879	55.6641	74.9284	55.6641	74.8458	55.6641	74.9049	55.6641	74.809	55.6641	74.8761	55.6641	74.7697	55.6641	74.8429	55.6641	74.7295	55.6641	74.8063	55.6641	74.6895	55.6641	74.7674	55.6641	74.6512	55.6641	74.7277	55.6641	74.616	55.6641	74.6884	55.6641	74.5848	55.6641	74.6509	55.6641	74.5586	55.6641	74.6163	55.6641	74.538	55.6641	74.5857	55.6641	74.5233	55.6641	74.5598	55.6641	74.5146	55.6641	74.5393	55.6641	74.5119	55.6641	74.5243	55.6641	74.5152
58.5938	76.0394	58.5938	76.031	58.5938	76.0404	58.5938	76.0156	58.5938	76.034	58.5938	75.9937	58.5938	76.0204	58.5938	75.966	58.5938	76.0001	58.5938	75.9337	58.5938	75.9738	58.5938	75.8979	58.5938	75.9426	58.5938	75.8599	58.5938	75.9075	58.5938	75.8211	58.5938	75.87	58.5938	75.7831	58.5938	75.8315	58.5938	75.7472	58.5938	75.7935	58.5938	75.7146	58.5938	75.7573	58.5938	75.6863	58.5938	75.7242	58.5938	75.6628	58.5938	75.695	58.5938	75.6444	58.5938	75.6705	58.5938	75.6312	58.5938	75.6508	58.5938	75.623	58.5938	75.636	58.5938	75.6195	58.5938	75.6259	58.5938	75.6205
60.0586	76.5548	60.0586	76.5461	60.0586	76.5554	60.0586	76.5296	60.0586	76.5479	60.0586	76.5059	60.0586	76.5326	60.0586	76.4759	60.0586	76.5099	60.0586	76.4406	60.0586	76.4807	60.0586	76.4014	60.0586	76.446	60.0586	76.3598	60.0586	76.4073	60.0586	76.3174	60.0586	76.3659	60.0586	76.2757	60.0586	76.3235	60.0586	76.2364	60.0586	76.2817	60.0586	76.2007	60.0586	76.2421	60.0586	76.1698	60.0586	76.206	60.0586	76.1441	60.0586	76.1745	60.0586	76.1242	60.0586	76.1482	60.0586	76.1097	60.0586	76.1274	60.0586	76.1005	60.0586	76.112	60.0586	76.0963	60.0586	76.1019	60.0586	76.0967
62.9883	77.6293	62.9883	77.6216	62.9883	77.6279	62.9883	77.6053	62.9883	77.6175	62.9883	77.5809	62.9883	77.5983	62.9883	77.5493	62.9883	77.571	62.9883	77.5115	62.9883	77.5362	62.9883	77.469	62.9883	77.4953	62.9883	77.4232	62.9883	77.4495	62.9883	77.3757	62.9883	77.4007	62.9883	77.3282	62.9883	77.3506	62.9883	77.2823	62.9883	77.3011	62.9883	77.2394	62.9883	77.2541	62.9883	77.2007	62.9883	77.2112	62.9883	77.1672	62.9883	77.1737	62.9883	77.1392	62.9883	77.1426	62.9883	77.1173	62.9883	77.1185	62.9883	77.1015	62.9883	77.1016	62.9883	77.0919	62.9883	77.0917	62.9883	77.0885
64.4531	78.1052	64.4531	78.096	64.4531	78.1058	64.4531	78.0783	64.4531	78.0977	64.4531	78.053	64.4531	78.081	64.4531	78.0209	64.4531	78.0565	64.4531	77.9832	64.4531	78.0249	64.4531	77.9414	64.4531	77.9876	64.4531	77.8971	64.4531	77.9459	64.4531	77.852	64.4531	77.9016	64.4531	77.8079	64.4531	77.8564	64.4531	77.7665	64.4531	77.8122	64.4531	77.7291	64.4531	77.7708	64.4531	77.6969	64.4531	77.7334	64.4531	77.6705	64.4531	77.7012	64.4531	77.6502	64.4531	77.6747	64.4531	77.6357	64.4531	77.6539	64.4531	77.6266	64.4531	77.6387	64.4531	77.6227	64.4531	77.6286	64.4531	77.6234
67.3828	79.1395	67.3828	79.1284	67.3828	79.1409	67.3828	79.1082	67.3828	79.1325	67.3828	79.0794	67.3828	79.1145	67.3828	79.0432	67.3828	79.0877	67.3828	79.0009	67.3828	79.0527	67.3828	78.954	67.3828	79.011	67.3828	78.9042	67.3828	78.9641	67.3828	78.8536	67.3828	78.9138	67.3828	78.8039	67.3828	78.8622	67.3828	78.7571	67.3828	78.8114	67.3828	78.7147	67.3828	78.7634	67.3828	78.6779	67.3828	78.7199	67.3828	78.6476	67.3828	78.6822	67.3828	78.6239	67.3828	78.6511	67.3828	78.6069	67.3828	78.6267	67.3828	78.5962	67.3828	78.609	67.3828	78.5911	67.3828	78.5975	67.3828	78.5916
68.8477	79.5997	68.8477	79.5882	68.8477	79.6016	68.8477	79.5674	68.8477	79.5938	68.8477	79.5383	68.8477	79.5765	68.8477	79.5019	68.8477	79.5502	68.8477	79.4595	68.8477	79.5157	68.8477	79.4129	68.8477	79.4745	68.8477	79.3637	68.8477	79.428	68.8477	79.314	68.8477	79.378	68.8477	79.2656	68.8477	79.3266	68.8477	79.2203	68.8477	79.2758	68.8477	79.1796	68.8477	79.2278	68.8477	79.1446	68.8477	79.1843	68.8477	79.1157	68.8477	79.1468	68.8477	79.0932	68.8477	79.116	68.8477	79.0768	68.8477	79.0923	68.8477	79.0661	68.8477	79.0755	68.8477	79.0606	68.8477	79.065	68.8477	79.0602
71.7773	80.5295	71.7773	80.5152	71.7773	80.5333	71.7773	80.491	71.7773	80.5266	71.7773	80.4576	71.7773	80.5097	71.7773	80.4161	71.7773	80.4832	71.7773	80.368	71.7773	80.4479	71.7773	80.3149	71.7773	80.4053	71.7773	80.2589	71.7773	80.3568	71.7773	80.2022	71.7773	80.3044	71.7773	80.1469	71.7773	80.25	71.7773	80.0952	71.7773	80.1957	71.7773	80.049	71.7773	80.1436	71.7773	80.0097	71.7773	80.0954	71.7773	79.9782	71.7773	80.0526	71.7773	79.9549	71.7773	80.0161	71.7773	79.9396	71.7773	79.9863	71.7773	79.9316	71.7773	79.9631	71.7773	79.9304	71.7773	79.9462	71.7773	79.9354
74.707	81.3616	74.707	81.345	74.707	81.369	74.707	81.3196	74.707	81.3671	74.707	81.2862	74.707	81.3563	74.707	81.246	74.707	81.3372	74.707	81.2007	74.707	81.311	74.707	81.1522	74.707	81.2787	74.707	81.1024	74.707	81.2419	74.707	81.0537	74.707	81.2022	74.707	81.0082	74.707	81.161	74.707	80.9678	74.707	81.1201	74.707	80.9339	74.707	81.0805	74.707	80.9074	74.707	81.0435	74.707	80.8889	74.707	81.0097	74.707	80.8779	74.707	80.9794	74.707	80.874	74.707	80.9529	74.707	80.8761	74.707	80.93	74.707	80.8834	74.707	80.9108	74.707	80.8951
77.6367	82.0672	77.6367	82.0528	77.6367	82.0712	77.6367	82.0284	77.6367	82.065	77.6367	81.9946	77.6367	82.0493	77.6367	81.953	77.6367	82.0251	77.6367	81.9054	77.6367	81.994	77.6367	81.8541	77.6367	81.958	77.6367	81.8017	77.6367	81.9191	77.6367	81.7512	77.6367	81.8795	77.6367	81.7053	77.6367	81.8413	77.6367	81.6667	77.6367	81.8063	77.6367	81.6372	77.6367	81.7756	77.6367	81.6179	77.6367	81.7499	77.6367	81.6088	77.6367	81.7289	77.6367	81.6088	77.6367	81.7119	77.6367	81.616	77.6367	81.6975	77.6367	81.6279	77.6367	81.6843	77.6367	81.6422	77.6367	81.671	77.6367	81.6569
79.1016	82.4497	79.1016	82.4429	79.1016	82.4447	79.1016	82.4245	79.1016	82.4283	79.1016	82.3952	79.1016	82.4014	79.1016	82.3562	79.1016	82.3652	79.1016	82.3092	79.1016	82.3218	79.1016	82.2566	79.1016	82.2733	79.1016	82.2008	79.1016	82.2223	79.1016	82.1447	79.1016	82.1713	79.1016	82.0912	79.1016	82.123	79.1016	82.043	79.1016	82.0796	79.1016	82.0025	79.1016	82.0426	79.1016	81.9709	79.1016	82.0128	79.1016	81.9489	79.1016	81.9901	79.1016	81.9359	79.1016	81.9737	79.1016	81.9306	79.1016	81.962	79.1016	81.9308	79.1016	81.9534	79.1016	81.9345	79.1016	81.9463	79.1016	81.94
82.0313	83.2127	82.0313	83.2105	82.0313	83.2003	82.0313	83.1939	82.0313	83.1734	82.0313	83.1638	82.0313	83.1326	82.0313	83.1214	82.0313	83.0794	82.0313	83.0686	82.0313	83.0156	82.0313	83.0075	82.0313	82.9437	82.0313	82.9407	82.0313	82.8666	82.0313	82.871	82.0313	82.7878	82.0313	82.8013	82.0313	82.7109	82.0313	82.7345	82.0313	82.6395	82.0313	82.6731	82.0313	82.5767	82.0313	82.6187	82.0313	82.525	82.0313	82.5725	82.0313	82.4856	82.0313	82.5345	82.0313	82.4587	82.0313	82.5041	82.0313	82.4433	82.0313	82.4802	82.0313	82.4377	82.0313	82.4618	82.0313	82.44	82.0313	82.4484
84.9609	83.7729	84.9609	83.7653	84.9609	83.7657	84.9609	83.7432	84.9609	83.7434	84.9609	83.7074	84.9609	83.7064	84.9609	83.6592	84.9609	83.6553	84.9609	83.6	84.9609	83.5914	84.9609	83.5315	84.9609	83.5163	84.9609	83.456	84.9609	83.4323	84.9609	83.3759	84.9609	83.3424	84.9609	83.2937	84.9609	83.2498	84.9609	83.2121	84.9609	83.1583	84.9609	83.1338	84.9609	83.0716	84.9609	83.0609	84.9609	82.9934	84.9609	82.9952	84.9609	82.9268	84.9609	82.9381	84.9609	82.8738	84.9609	82.8903	84.9609	82.8357	84.9609	82.8524	84.9609	82.8126	84.9609	82.8249	84.9609	82.8039	84.9609	82.8083
87.8906	84.0103	87.8906	83.9944	87.8906	84.0154	87.8906	83.9683	87.8906	84.0093	87.8906	83.933	87.8906	83.9919	87.8906	83.8895	87.8906	83.9632	87.8906	83.8389	87.8906	83.9238	87.8906	83.7826	87.8906	83.8745	87.8906	83.7221	87.8906	83.8167	87.8906	83.6591	87.8906	83.752	87.8906	83.5952	87.8906	83.6826	87.8906	83.5322	87.8906	83.6109	87.8906	83.4721	87.8906	83.5396	87.8906	83.4164	87.8906	83.4714	87.8906	83.3667	87.8906	83.4091	87.8906	83.3244	87.8906	83.3551	87.8906	83.2905	87.8906	83.3111	87.8906	83.2661	87.8906	83.2784	87.8906	83.252	87.8906	83.2577	87.8906	83.249
90.8203	83.5705	90.8203	83.5415	90.8203	83.5991	90.8203	83.5129	90.8203	83.6264	90.8203	83.4864	90.8203	83.6525	90.8203	83.464	90.8203	83.6778	90.8203	83.4479	90.8203	83.7027	90.8203	83.4402	90.8203	83.7282	90.8203	83.4429	90.8203	83.7552	90.8203	83.4575	90.8203	83.7841	90.8203	83.4846	90.8203	83.8154	90.8203	83.524	90.8203	83.8487	90.8203	83.5743	90.8203	83.8831	90.8203	83.6333	90.8203	83.9169	90.8203	83.6977	90.8203	83.9479	90.8203	83.7639	90.8203	83.9733	90.8203	83.8276	90.8203	83.9902	90.8203	83.885	90.8203	83.996	90.8203	83.9325	90.8203	83.9888	90.8203	83.9676
95.2148	84.5325	95.2148	84.5224	95.2148	84.5238	95.2148	84.4937	95.2148	84.4965	95.2148	84.4473	95.2148	84.4518	95.2148	84.3849	95.2148	84.3914	95.2148	84.3087	95.2148	84.3176	95.2148	84.2217	95.2148	84.2335	95.2148	84.1278	95.2148	84.1428	95.2148	84.0311	95.2148	84.0496	95.2148	83.9365	95.2148	83.9584	95.2148	83.8484	95.2148	83.8734	95.2148	83.7711	95.2148	83.7982	95.2148	83.7076	95.2148	83.7356	95.2148	83.6592	95.2148	83.6867	95.2148	83.6259	95.2148	83.6509	95.2148	83.6056	95.2148	83.6264	95.2148	83.5957	95.2148	83.6106	95.2148	83.5929	95.2148	83.6007	95.2148	83.595
98.1445	84.1586	98.1445	84.1521	98.1445	84.1517	98.1445	84.1326	98.1445	84.1314	98.1445	84.1013	98.1445	84.0984	98.1445	84.0598	98.1445	84.054	98.1445	84.0101	98.1445	84.0001	98.1445	83.955	98.1445	83.9391	98.1445	83.8972	98.1445	83.8739	98.1445	83.8398	98.1445	83.8077	98.1445	83.7855	98.1445	83.744	98.1445	83.7367	98.1445	83.686	98.1445	83.6952	98.1445	83.6366	98.1445	83.6616	98.1445	83.5977	98.1445	83.6356	98.1445	83.5704	98.1445	83.616	98.1445	83.5545	98.1445	83.6009	98.1445	83.5486	98.1445	83.5886	98.1445	83.5504	98.1445	83.5774	98.1445	83.5572	98.1445	83.5668
101.074	83.9457	101.074	83.9224	101.074	83.9538	101.074	83.8844	101.074	83.9465	101.074	83.8335	101.074	83.9245	101.074	83.7718	101.074	83.8893	101.074	83.7023	101.074	83.8428	101.074	83.6285	101.074	83.788	101.074	83.5543	101.074	83.7278	101.074	83.4837	101.074	83.6656	101.074	83.4208	101.074	83.6048	101.074	83.3688	101.074	83.5486	101.074	83.3298	101.074	83.4992	101.074	83.3048	101.074	83.4582	101.074	83.293	101.074	83.4258	101.074	83.2924	101.074	83.4012	101.074	83.3	101.074	83.3827	101.074	83.3124	101.074	83.3679	101.074	83.3268	101.074	83.3546	101.074	83.3411
105.469	83.6749	105.469	83.6694	105.469	83.6643	105.469	83.6482	105.469	83.6382	105.469	83.6121	105.469	83.5981	105.469	83.5632	105.469	83.5461	105.469	83.5039	105.469	83.4852	105.469	83.4376	105.469	83.419	105.469	83.3682	105.469	83.3517	105.469	83.3	105.469	83.2876	105.469	83.2373	105.469	83.2308	105.469	83.1841	105.469	83.1847	105.469	83.1436	105.469	83.1515	105.469	83.1175	105.469	83.1317	105.469	83.1055	105.469	83.1243	105.469	83.1056	105.469	83.1262	105.469	83.114	105.469	83.1334	105.469	83.1263	105.469	83.1412	105.469	83.1377	105.469	83.1459	105.469	83.1449
108.398	83.4798	108.398	83.4789	108.398	83.4639	108.398	83.4615	108.398	83.4315	108.398	83.4287	108.398	83.3838	108.398	83.3823	108.398	83.3228	108.398	83.3248	108.398	83.2513	108.398	83.2593	108.398	83.1731	108.398	83.1892	108.398	83.0925	108.398	83.1185	108.398	83.0144	108.398	83.0513	108.398	82.9437	108.398	82.9913	108.398	82.8847	108.398	82.9413	108.398	82.8405	108.398	82.9033	108.398	82.8124	108.398	82.8774	108.398	82.7998	108.398	82.8624	108.398	82.8	108.398	82.8552	108.398	82.8089	108.398	82.8521	108.398	82.8218	108.398	82.8493	108.398	82.8343	108.398	82.8438
112.793	83.1723	112.793	83.1691	112.793	83.157	112.793	83.1484	112.793	83.1226	112.793	83.1121	112.793	83.0698	112.793	83.063	112.793	83	112.793	83.0043	112.793	82.916	112.793	82.9395	112.793	82.8213	112.793	82.8725	112.793	82.7208	112.793	82.8073	112.793	82.6202	112.793	82.747	112.793	82.5257	112.793	82.6942	112.793	82.4436	112.793	82.6502	112.793	82.379	112.793	82.6148	112.793	82.3359	112.793	82.5861	112.793	82.3156	112.793	82.5614	112.793	82.3167	112.793	82.5372	112.793	82.3356	112.793	82.5106	112.793	82.3669	112.793	82.4794	112.793	82.4047	112.793	82.4435
117.188	82.7511	117.188	82.7056	117.188	82.7769	117.188	82.6424	117.188	82.7817	117.188	82.5644	117.188	82.7658	117.188	82.4758	117.188	82.7299	117.188	82.3813	117.188	82.6761	117.188	82.2863	117.188	82.6075	117.188	82.1964	117.188	82.5278	117.188	82.1171	117.188	82.4417	117.188	82.0528	117.188	82.3544	117.188	82.0062	117.188	82.2712	117.188	81.9781	117.188	82.1969	117.188	81.9671	117.188	82.1354	117.188	81.9696	117.188	82.0887	117.188	81.9808	117.188	82.0572	117.188	81.9953	117.188	82.0388	117.188	82.0089	117.188	82.0302	117.188	82.0187	117.188	82.0268	117.188	82.0241
120.117	82.569	120.117	82.5007	120.117	82.6156	120.117	82.4119	120.117	82.6402	120.117	82.3053	120.117	82.6435	120.117	82.1845	120.117	82.627	120.117	82.0549	120.117	82.593	120.117	81.9229	120.117	82.5448	120.117	81.7963	120.117	82.4858	120.117	81.6832	120.117	82.4203	120.117	81.5916	120.117	82.3522	120.117	81.5278	120.117	82.2853	120.117	81.4958	120.117	82.2223	120.117	81.496	120.117	82.1648	120.117	81.525	120.117	82.113	120.117	81.5768	120.117	82.0653	120.117	81.6433	120.117	82.019	120.117	81.7165	120.117	81.9708	120.117	81.7894	120.117	81.9176	120.117	81.8572
124.512	81.9642	124.512	81.9591	124.512	81.9492	124.512	81.9333	124.512	81.9157	124.512	81.887	124.512	81.8662	124.512	81.8216	124.512	81.8038	124.512	81.7399	124.512	81.7327	124.512	81.6459	124.512	81.6574	124.512	81.5451	124.512	81.5832	124.512	81.4444	124.512	81.5155	124.512	81.3515	124.512	81.4589	124.512	81.2741	124.512	81.4171	124.512	81.2187	124.512	81.3918	124.512	81.1893	124.512	81.3821	124.512	81.1865	124.512	81.3844	124.512	81.2069	124.512	81.3931	124.512	81.2439	124.512	81.4016	124.512	81.289	124.512	81.4033	124.512	81.3334	124.512	81.3934	124.512	81.3697
128.906	81.5556	128.906	81.5523	128.906	81.5366	128.906	81.5271	128.906	81.4961	128.906	81.4811	128.906	81.4353	128.906	81.4162	128.906	81.3566	128.906	81.3351	128.906	81.2633	128.906	81.2414	128.906	81.1598	128.906	81.1395	128.906	81.0512	128.906	81.0348	128.906	80.9437	128.906	80.9329	128.906	80.8438	128.906	80.8401	128.906	80.7576	128.906	80.7616	128.906	80.6902	128.906	80.7017	128.906	80.6444	128.906	80.6619	128.906	80.6202	128.906	80.641	128.906	80.6141	128.906	80.6351	128.906	80.6202	128.906	80.638	128.906	80.6312	128.906	80.6432	128.906	80.6409	128.906	80.6451
133.301	81.1314	133.301	81.1369	133.301	81.1024	133.301	81.12	133.301	81.0498	133.301	81.0821	133.301	80.9743	133.301	81.0253	133.301	80.8778	133.301	80.9521	133.301	80.7631	133.301	80.8657	133.301	80.6345	133.301	80.7694	133.301	80.4973	133.301	80.667	133.301	80.3579	133.301	80.5623	133.301	80.2233	133.301	80.459	133.301	80.1004	133.301	80.36	133.301	79.9953	133.301	80.2676	133.301	79.9127	133.301	80.1832	133.301	79.855	133.301	80.1073	133.301	79.8223	133.301	80.0396	133.301	79.8124	133.301	79.9797	133.301	79.8217	133.301	79.9271	133.301	79.8462	133.301	79.8822
139.16	80.3941	139.16	80.3599	139.16	80.4134	139.16	80.3123	139.16	80.417	139.16	80.254	139.16	80.4052	139.16	80.1888	139.16	80.3794	139.16	80.1212	139.16	80.3417	139.16	80.0564	139.16	80.2953	139.16	79.9996	139.16	80.2441	139.16	79.9561	139.16	80.193	139.16	79.9296	139.16	80.1468	139.16	79.9225	139.16	80.1104	139.16	79.9347	139.16	80.0874	139.16	79.9636	139.16	80.0796	139.16	80.0046	139.16	80.0863	139.16	80.0511	139.16	80.1041	139.16	80.0964	139.16	80.1276	139.16	80.1341	139.16	80.1504	139.16	80.1596	139.16	80.1663	139.16	80.1702
143.555	80.2272	143.555	80.1989	143.555	80.233	143.555	80.1494	143.555	80.2168	143.555	80.0813	143.555	80.1802	143.555	79.9986	143.555	80.1263	143.555	79.9071	143.555	80.0593	143.555	79.8136	143.555	79.9846	143.555	79.7261	143.555	79.9084	143.555	79.6526	143.555	79.8374	143.555	79.6003	143.555	79.7781	143.555	79.5743	143.555	79.7359	143.555	79.5766	143.555	79.7145	143.555	79.6049	143.555	79.7147	143.555	79.6534	143.555	79.7344	143.555	79.7131	143.555	79.7679	143.555	79.7739	143.555	79.8075	143.555	79.8258	143.555	79.844	143.555	79.8613	143.555	79.869	143.555	79.8758
147.949	80.166	147.949	80.1391	147.949	80.1669	147.949	80.0872	147.949	80.1422	147.949	80.0128	147.949	80.0938	147.949	79.92	147.949	80.025	147.949	79.8142	147.949	79.9405	147.949	79.7027	147.949	79.8465	147.949	79.5937	147.949	79.7502	147.949	79.4962	147.949	79.6592	147.949	79.4189	147.949	79.5813	147.949	79.3685	147.949	79.5228	147.949	79.3489	147.949	79.4879	147.949	79.3593	147.949	79.4776	147.949	79.3947	147.949	79.4891	147.949	79.4463	147.949	79.5165	147.949	79.5031	147.949	79.5511	147.949	79.5543	147.949	79.5835	147.949	79.5911	147.949	79.6047	147.949	79.6083
153.809	80.2958	153.809	80.2681	153.809	80.2957	153.809	80.2135	153.809	80.2677	153.809	80.1346	153.809	80.2131	153.809	80.0349	153.809	80.1348	153.809	79.9196	153.809	80.0372	153.809	79.7953	153.809	79.9263	153.809	79.6701	153.809	79.8099	153.809	79.5529	153.809	79.6971	153.809	79.4533	153.809	79.5972	153.809	79.3794	153.809	79.5187	153.809	79.3368	153.809	79.4673	153.809	79.3268	153.809	79.4448	153.809	79.346	153.809	79.4482	153.809	79.3864	153.809	79.4703	153.809	79.4371	153.809	79.5011	153.809	79.4867	153.809	79.5297	153.809	79.5253	153.809	79.5469	153.809	79.5461
159.668	80.6841	159.668	80.6556	159.668	80.6816	159.668	80.5976	159.668	80.648	159.668	80.5124	159.668	80.5843	159.668	80.404	159.668	80.4928	159.668	80.2772	159.668	80.3775	159.668	80.1385	159.668	80.2438	159.668	79.9955	159.668	80.099	159.668	79.8565	159.668	79.952	159.668	79.7304	159.668	79.8126	159.668	79.6253	159.668	79.6911	159.668	79.5471	159.668	79.5956	159.668	79.4986	159.668	79.5314	159.668	79.4786	159.668	79.4987	159.668	79.4816	159.668	79.4926	159.668	79.499	159.668	79.5043	159.668	79.5209	159.668	79.5231	159.668	79.5383	159.668	79.539	159.668	79.545
165.527	80.7918	165.527	80.7721	165.527	80.7816	165.527	80.7233	165.527	80.742	165.527	80.6478	165.527	80.6748	165.527	80.5499	165.527	80.5835	165.527	80.4351	165.527	80.4729	165.527	80.3109	165.527	80.3493	165.527	80.1859	165.527	80.2203	165.527	80.0693	165.527	80.0947	165.527	79.9701	165.527	79.9816	165.527	79.8951	165.527	79.8896	165.527	79.8483	165.527	79.8252	165.527	79.8294	165.527	79.7913	165.527	79.8342	165.527	79.7864	165.527	79.8552	165.527	79.8047	165.527	79.8828	165.527	79.8372	165.527	79.9077	165.527	79.8734	165.527	79.922	165.527	79.9036	165.527	79.9209
171.387	80.8028	171.387	80.7755	171.387	80.8009	171.387	80.7206	171.387	80.7694	171.387	80.6411	171.387	80.7095	171.387	80.5415	171.387	80.6237	171.387	80.4275	171.387	80.5165	171.387	80.3069	171.387	80.3942	171.387	80.1884	171.387	80.2648	171.387	80.0819	171.387	80.1378	171.387	79.9968	171.387	80.0236	171.387	79.9406	171.387	79.932	171.387	79.9167	171.387	79.8707	171.387	79.9234	171.387	79.8438	171.387	79.9537	171.387	79.8505	171.387	79.9969	171.387	79.8847	171.387	80.0406	171.387	79.9363	171.387	80.0733	171.387	79.9931	171.387	80.0865	171.387	80.043	171.387	80.076
177.246	80.9223	177.246	80.8852	177.246	80.9264	177.246	80.8167	177.246	80.8977	177.246	80.7198	177.246	80.8378	177.246	80.5995	177.246	80.7503	177.246	80.4624	177.246	80.6408	177.246	80.3174	177.246	80.517	177.246	80.1752	177.246	80.3886	177.246	80.0478	177.246	80.2667	177.246	79.9471	177.246	80.1625	177.246	79.8829	177.246	80.0857	177.246	79.8605	177.246	80.0425	177.246	79.8788	177.246	80.0339	177.246	79.9304	177.246	80.0551	177.246	80.0027	177.246	80.0968	177.246	80.0809	177.246	80.1466	177.246	80.1506	177.246	80.1915	177.246	80.2007	177.246	80.2201	177.246	80.2243
183.105	80.8465	183.105	80.8148	183.105	80.8412	183.105	80.7476	183.105	80.7993	183.105	80.6479	183.105	80.7231	183.105	80.521	183.105	80.6168	183.105	80.374	183.105	80.4867	183.105	80.2166	183.105	80.3418	183.105	80.0606	183.105	80.1932	183.105	79.9194	183.105	80.054	183.105	79.8066	183.105	79.9376	183.105	79.7336	183.105	79.8558	183.105	79.7069	183.105	79.8161	183.105	79.7259	183.105	79.8192	183.105	79.7827	183.105	79.8588	183.105	79.8632	183.105	79.9222	183.105	79.9506	183.105	79.9933	183.105	80.0284	183.105	80.056	183.105	80.0833	183.105	80.0969	183.105	80.1071
188.965	80.8495	188.965	80.8231	188.965	80.8349	188.965	80.7569	188.965	80.7794	188.965	80.6539	188.965	80.6848	188.965	80.519	188.965	80.555	188.965	80.3592	188.965	80.3961	188.965	80.1838	188.965	80.2172	188.965	80.0052	188.965	80.0307	188.965	79.8376	188.965	79.8519	188.965	79.6962	188.965	79.6978	188.965	79.5948	188.965	79.5845	188.965	79.5426	188.965	79.5233	188.965	79.5415	188.965	79.5174	188.965	79.5847	188.965	79.5602	188.965	79.6579	188.965	79.6365	188.965	79.7425	188.965	79.7261	188.965	79.819	188.965	79.8083	188.965	79.8712	188.965	79.866	188.965	79.8882
196.289	80.8925	196.289	80.8535	196.289	80.8889	196.289	80.7743	196.289	80.8419	196.289	80.6589	196.289	80.7524	196.289	80.5131	196.289	80.6231	196.289	80.3447	196.289	80.4594	196.289	80.1639	196.289	80.2696	196.289	79.9832	196.289	80.0656	196.289	79.8167	196.289	79.8629	196.289	79.6789	196.289	79.6795	196.289	79.5817	196.289	79.5337	196.289	79.5321	196.289	79.4399	196.289	79.5292	196.289	79.405	196.289	79.5643	196.289	79.4249	196.289	79.6226	196.289	79.4865	196.289	79.6864	196.289	79.5699	196.289	79.7387	196.289	79.6544	196.289	79.7664	196.289	79.7223	196.289	79.7614
203.613	80.5881	203.613	80.5348	203.613	80.5939	203.613	80.4357	203.613	80.5524	203.613	80.2945	203.613	80.4649	203.613	80.117	203.613	80.3346	203.613	79.912	203.613	80.1664	203.613	79.6919	203.613	79.968	203.613	79.4723	203.613	79.7508	203.613	79.2715	203.613	79.5303	203.613	79.1088	203.613	79.326	203.613	79.0004	203.613	79.1592	203.613	78.9555	203.613	79.0487	203.613	78.9727	203.613	79.0048	203.613	79.0394	203.613	79.025	203.613	79.1353	203.613	79.094	203.613	79.2369	203.613	79.188	203.613	79.3223	203.613	79.2813	203.613	79.375	203.613	79.352	203.613	79.3855
210.938	80.33	210.938	80.2862	210.938	80.323	210.938	80.1916	210.938	80.2669	210.938	80.048	210.938	80.1647	210.938	79.8596	210.938	80.0212	210.938	79.6338	210.938	79.8426	210.938	79.3819	210.938	79.6375	210.938	79.1199	210.938	79.4168	210.938	78.8686	210.938	79.1948	210.938	78.652	210.938	78.9883	210.938	78.4938	210.938	78.8158	210.938	78.4106	210.938	78.6936	210.938	78.4064	210.938	78.632	210.938	78.4699	210.938	78.6306	210.938	78.5771	210.938	78.6777	210.938	78.6982	210.938	78.7523	210.938	78.8056	210.938	78.8295	210.938	78.8784	210.938	78.8864	210.938	78.9056
218.262	80.2241	218.262	80.1889	218.262	80.2094	218.262	80.1043	218.262	80.1454	218.262	79.9721	218.262	80.0338	218.262	79.7953	218.262	79.8782	218.262	79.5795	218.262	79.6841	218.262	79.3333	218.262	79.4601	218.262	79.0695	218.262	79.2181	218.262	78.8062	218.262	78.974	218.262	78.5654	218.262	78.7467	218.262	78.3706	218.262	78.5563	218.262	78.2414	218.262	78.4198	218.262	78.1872	218.262	78.3467	218.262	78.203	218.262	78.3347	218.262	78.2703	218.262	78.3704	218.262	78.3626	218.262	78.4319	218.262	78.4529	218.262	78.4952	218.262	78.5195	218.262	78.5393	218.262	78.5494
225.586	80.2557	225.586	80.2315	225.586	80.2252	225.586	80.1535	225.586	80.1404	225.586	80.0237	225.586	80.0029	225.586	79.8458	225.586	79.8166	225.586	79.626	225.586	79.588	225.586	79.3738	225.586	79.3279	225.586	79.103	225.586	79.0524	225.586	78.8326	225.586	78.7832	225.586	78.5861	225.586	78.5466	225.586	78.3886	225.586	78.3688	225.586	78.2616	225.586	78.2696	225.586	78.2163	225.586	78.2545	225.586	78.2488	225.586	78.3118	225.586	78.3398	225.586	78.4156	225.586	78.4601	225.586	78.5337	225.586	78.5784	225.586	78.636	225.586	78.6681	225.586	78.6994	225.586	78.711
232.91	80.6577	232.91	80.6264	232.91	80.6326	232.91	80.5405	232.91	80.55	232.91	80.4027	232.91	80.4095	232.91	80.2172	232.91	80.2121	232.91	79.9906	232.91	79.961	232.91	79.7329	232.91	79.663	232.91	79.4585	232.91	79.3308	232.91	79.187	232.91	78.985	232.91	78.9413	232.91	78.6553	232.91	78.7447	232.91	78.3788	232.91	78.6153	232.91	78.1917	232.91	78.5603	232.91	78.1173	232.91	78.5732	232.91	78.1546	232.91	78.6347	232.91	78.2772	232.91	78.7169	232.91	78.4428	232.91	78.7903	232.91	78.6081	232.91	78.8288	232.91	78.7385	232.91	78.814
241.699	81.3932	241.699	81.3332	241.699	81.3958	241.699	81.2179	241.699	81.34	241.699	81.0503	241.699	81.2255	241.699	80.8347	241.699	81.0531	241.699	80.5777	241.699	80.8255	241.699	80.2897	241.699	80.5481	241.699	79.9857	241.699	80.2305	241.699	79.6867	241.699	79.8889	241.699	79.4185	241.699	79.5471	241.699	79.2082	241.699	79.2371	241.699	79.077	241.699	78.9945	241.699	79.0322	241.699	78.8491	241.699	79.0634	241.699	78.813	241.699	79.1442	241.699	78.8732	241.699	79.241	241.699	78.9958	241.699	79.3208	241.699	79.1382	241.699	79.3584	241.699	79.2616	241.699	79.3392
250.488	82.4329	250.488	82.3801	250.488	82.4261	250.488	82.2691	250.488	82.3585	250.488	82.1019	250.488	82.2298	250.488	81.8815	250.488	82.0409	250.488	81.6129	250.488	81.7946	250.488	81.3045	250.488	81.4971	250.488	80.9706	250.488	81.1595	250.488	80.6327	250.488	80.7996	250.488	80.3195	250.488	80.4434	250.488	80.0628	250.488	80.1239	250.488	79.8895	250.488	79.8761	250.488	79.8121	250.488	79.7272	250.488	79.8226	250.488	79.6855	250.488	79.8948	250.488	79.7357	250.488	79.993	250.488	79.8436	250.488	80.0817	250.488	79.9679	250.488	80.1331	250.488	80.0721	250.488	80.1309
259.277	83.4235	259.277	83.3688	259.277	83.423	259.277	83.2601	259.277	83.3658	259.277	83.0986	259.277	83.2505	259.277	82.8858	259.277	83.0763	259.277	82.6249	259.277	82.8441	259.277	82.3223	259.277	82.5579	259.277	81.9905	259.277	82.2264	259.277	81.6499	259.277	81.866	259.277	81.3295	259.277	81.5024	259.277	81.0638	259.277	81.1709	259.277	80.884	259.277	80.9112	259.277	80.8064	259.277	80.756	259.277	80.8247	259.277	80.7171	259.277	80.9112	259.277	80.7783	259.277	81.0268	259.277	80.9004	259.277	81.1325	259.277	81.0369	259.277	81.1978	259.277	81.147	259.277	81.2042
268.066	83.8465	268.066	83.7676	268.066	83.8666	268.066	83.6331	268.066	83.8252	268.066	83.4466	268.066	83.7194	268.066	83.2126	268.066	83.5473	268.066	82.9374	268.066	83.3086	268.066	82.6312	268.066	83.0064	268.066	82.3091	268.066	82.6496	268.066	81.9925	268.066	82.2559	268.066	81.7087	268.066	81.8549	268.066	81.4875	268.066	81.4886	268.066	81.3533	268.066	81.2052	268.066	81.316	268.066	81.0444	268.066	81.3644	268.066	81.0203	268.066	81.4685	268.066	81.1131	268.066	81.5885	268.066	81.2771	268.066	81.6859	268.066	81.4588	268.066	81.7312	268.066	81.6124	268.066	81.7076
276.855	84.3542	276.855	84.3073	276.855	84.3414	276.855	84.1948	276.855	84.2747	276.855	84.012	276.855	84.1581	276.855	83.7566	276.855	83.9936	276.855	83.4307	276.855	83.7815	276.855	83.0427	276.855	83.522	276.855	82.611	276.855	83.2182	276.855	82.1669	276.855	82.8802	276.855	81.7555	276.855	82.5284	276.855	81.4285	276.855	82.1955	276.855	81.2291	276.855	81.9219	276.855	81.173	276.855	81.7431	276.855	81.2414	276.855	81.6733	276.855	81.3905	276.855	81.6964	276.855	81.5697	276.855	81.7733	276.855	81.7351	276.855	81.8585	276.855	81.8563	276.855	81.9145	276.855	81.9171
287.109	84.7595	287.109	84.7428	287.109	84.7058	287.109	84.6529	287.109	84.586	287.109	84.4887	287.109	84.406	287.109	84.2503	287.109	84.1731	287.109	83.9399	287.109	83.8946	287.109	83.5636	287.109	83.5778	287.109	83.1348	287.109	83.2295	287.109	82.6787	287.109	82.8591	287.109	82.2363	287.109	82.4829	287.109	81.8621	287.109	82.1292	287.109	81.6111	287.109	81.8389	287.109	81.5149	287.109	81.6544	287.109	81.5629	287.109	81.5998	287.109	81.7071	287.109	81.6637	287.109	81.8842	287.109	81.8023	287.109	82.0385	287.109	81.9594	287.109	82.1327	287.109	82.0858	287.109	82.1488
297.363	84.7807	297.363	84.7127	297.363	84.7741	297.363	84.5777	297.363	84.6857	297.363	84.3818	297.363	84.5105	297.363	84.1295	297.363	84.2466	297.363	83.8232	297.363	83.8968	297.363	83.4653	297.363	83.4698	297.363	83.0615	297.363	82.9811	297.363	82.6259	297.363	82.4553	297.363	82.1871	297.363	81.9285	297.363	81.7905	297.363	81.4498	297.363	81.4924	297.363	81.0791	297.363	81.3392	297.363	80.8722	297.363	81.3414	297.363	80.8552	297.363	81.4629	297.363	81.0047	297.363	81.6371	297.363	81.254	297.363	81.7943	297.363	81.5221	297.363	81.8809	297.363	81.7403	297.363	81.8655
307.617	84.7006	307.617	84.6147	307.617	84.7377	307.617	84.4811	307.617	84.7218	307.617	84.2989	307.617	84.6462	307.617	84.0668	307.617	84.503	307.617	83.7851	307.617	84.285	307.617	83.4583	307.617	83.989	307.617	83.0978	307.617	83.6189	307.617	82.725	307.617	83.1894	307.617	82.372	307.617	82.7297	307.617	82.0788	307.617	82.2842	307.617	81.8837	307.617	81.9091	307.617	81.8087	307.617	81.6593	307.617	81.848	307.617	81.5686	307.617	81.968	307.617	81.6309	307.617	82.1186	307.617	81.8	307.617	82.2485	307.617	82.0076	307.617	82.3166	307.617	82.1886	307.617	82.2981
319.336	84.5706	319.336	84.5203	319.336	84.5661	319.336	84.4132	319.336	84.5063	319.336	84.2454	319.336	84.3893	319.336	84.0109	319.336	84.2115	319.336	83.7042	319.336	83.9689	319.336	83.324	319.336	83.6582	319.336	82.8783	319.336	83.2811	319.336	82.3923	319.336	82.85	319.336	81.9137	319.336	82.395	319.336	81.511	319.336	81.9674	319.336	81.2554	319.336	81.6333	319.336	81.1879	319.336	81.4502	319.336	81.2945	319.336	81.4378	319.336	81.5138	319.336	81.5654	319.336	81.7682	319.336	81.7676	319.336	81.9912	319.336	81.9728	319.336	82.1376	319.336	82.1234	319.336	82.1832
329.59	84.698	329.59	84.6488	329.59	84.6867	329.59	84.5375	329.59	84.6161	329.59	84.3615	329.59	84.4861	329.59	84.1173	329.59	84.2953	329.59	83.8013	329.59	84.0398	329.59	83.4118	329.59	83.7141	329.59	82.9533	329.59	83.3136	329.59	82.4445	329.59	82.8401	329.59	81.9257	329.59	82.3129	329.59	81.4638	329.59	81.7789	329.59	81.1396	329.59	81.3172	329.59	81.0131	329.59	81.018	329.59	81.084	329.59	80.9365	329.59	81.2881	329.59	81.0535	329.59	81.5335	329.59	81.2885	329.59	81.7405	329.59	81.5461	329.59	81.858	329.59	81.7522	329.59	81.8625
341.309	84.235	341.309	84.1883	341.309	84.2122	341.309	84.0709	341.309	84.1228	341.309	83.8823	341.309	83.9715	341.309	83.6225	341.309	83.7635	341.309	83.2912	341.309	83.5039	341.309	82.89	341.309	83.1965	341.309	82.4275	341.309	82.8442	341.309	81.9271	341.309	82.4534	341.309	81.4354	341.309	82.0413	341.309	81.0245	341.309	81.6443	341.309	80.7751	341.309	81.321	341.309	80.7401	341.309	81.1363	341.309	80.9078	341.309	81.1266	341.309	81.2049	341.309	81.2731	341.309	81.5332	341.309	81.5084	341.309	81.809	341.309	81.7521	341.309	81.979	341.309	81.9377	341.309	82.021
353.027	84.097	353.027	84.0204	353.027	84.101	353.027	83.8753	353.027	84.0271	353.027	83.663	353.027	83.8691	353.027	83.3814	353.027	83.6208	353.027	83.0252	353.027	83.2777	353.027	82.5868	353.027	82.8382	353.027	82.0632	353.027	82.3066	353.027	81.4664	353.027	81.6985	353.027	80.8402	353.027	81.0501	353.027	80.2739	353.027	80.4305	353.027	79.8919	353.027	79.9458	353.027	79.7932	353.027	79.7085	353.027	79.9768	353.027	79.7679	353.027	80.3365	353.027	80.0654	353.027	80.734	353.027	80.4718	353.027	81.0609	353.027	80.8607	353.027	81.2534	353.027	81.1464	353.027	81.2832
366.211	84.0251	366.211	83.9159	366.211	84.0658	366.211	83.7411	366.211	84.0355	366.211	83.5039	366.211	83.9316	366.211	83.2059	366.211	83.749	366.211	82.8442	366.211	83.4788	366.211	82.4098	366.211	83.108	366.211	81.8901	366.211	82.6218	366.211	81.2773	366.211	82.0086	366.211	80.5863	366.211	81.2714	366.211	79.8784	366.211	80.4467	366.211	79.2764	366.211	79.6332	366.211	78.931	366.211	79.0053	366.211	78.9232	366.211	78.747	366.211	79.1907	366.211	78.9002	366.211	79.5796	366.211	79.3112	366.211	79.9424	366.211	79.7615	366.211	80.1807	366.211	80.0949	366.211	80.2392
379.395	83.6121	379.395	83.5715	379.395	83.6104	379.395	83.4811	379.395	83.5698	379.395	83.3297	379.395	83.4887	379.395	83.1044	379.395	83.3611	379.395	82.7932	379.395	83.1767	379.395	82.3877	379.395	82.9214	379.395	81.8867	379.395	82.5798	379.395	81.3017	379.395	82.1405	379.395	80.6649	379.395	81.6044	379.395	80.0398	379.395	80.9958	379.395	79.5236	379.395	80.3729	379.395	79.2216	379.395	79.8291	379.395	79.1856	379.395	79.4692	379.395	79.3679	379.395	79.3551	379.395	79.649	379.395	79.4608	379.395	79.9048	379.395	79.6859	379.395	80.0508	379.395	79.9129	379.395	80.051
392.578	82.2481	392.578	82.2272	392.578	82.2185	392.578	82.1557	392.578	82.1388	392.578	82.0323	392.578	82.0095	392.578	81.8524	392.578	81.8308	392.578	81.6072	392.578	81.6014	392.578	81.2842	392.578	81.3179	392.578	80.872	392.578	80.9752	392.578	80.3683	392.578	80.5701	392.578	79.7938	392.578	80.1103	392.578	79.2071	392.578	79.6267	392.578	78.7115	392.578	79.1845	392.578	78.4288	392.578	78.8755	392.578	78.4285	392.578	78.7766	392.578	78.6698	392.578	78.8939	392.578	79.0283	392.578	79.1498	392.578	79.3731	392.578	79.4296	392.578	79.6135	392.578	79.6346	392.578	79.7037
405.762	81.3805	405.762	81.3153	405.762	81.3596	405.762	81.1707	405.762	81.2505	405.762	80.9547	405.762	81.0557	405.762	80.6733	405.762	80.7814	405.762	80.3259	405.762	80.4348	405.762	79.9041	405.762	80.0218	405.762	79.3963	405.762	79.5465	405.762	78.8016	405.762	79.0149	405.762	78.1537	405.762	78.4449	405.762	77.5466	405.762	77.883	405.762	77.1328	405.762	77.4191	405.762	77.0492	405.762	77.1737	405.762	77.3035	405.762	77.2296	405.762	77.7619	405.762	77.5552	405.762	78.2539	405.762	78.0164	405.762	78.6537	405.762	78.4631	405.762	78.8922	405.762	78.7891	405.762	78.9389
420.41	81.4799	420.41	81.3889	420.41	81.5068	420.41	81.2343	420.41	81.4678	420.41	81.0156	420.41	81.3588	420.41	80.7306	420.41	81.1721	420.41	80.3745	420.41	80.8955	420.41	79.9368	420.41	80.5117	420.41	79.4008	420.41	79.9989	420.41	78.7478	420.41	79.3338	420.41	77.9726	420.41	78.5026	420.41	77.1174	420.41	77.5265	420.41	76.3186	420.41	76.5106	420.41	75.812	420.41	75.6938	420.41	75.7879	420.41	75.3771	420.41	76.186	420.41	75.6453	420.41	76.7494	420.41	76.2535	420.41	77.242	420.41	76.8866	420.41	77.5345	420.41	77.3531	420.41	77.5755
435.059	81.1854	435.059	81.1421	435.059	81.1675	435.059	81.0376	435.059	81.0898	435.059	80.8703	435.059	80.9553	435.059	80.634	435.059	80.7653	435.059	80.3165	435.059	80.5154	435.059	79.902	435.059	80.1931	435.059	79.3774	435.059	79.7787	435.059	78.7422	435.059	79.2531	435.059	78.0227	435.059	78.6111	435.059	77.2912	435.059	77.8808	435.059	76.6804	435.059	77.1474	435.059	76.3554	435.059	76.5637	435.059	76.4112	435.059	76.3049	435.059	76.781	435.059	76.4452	435.059	77.2814	435.059	76.879	435.059	77.7294	435.059	77.3988	435.059	78.0018	435.059	77.821	435.059	78.0361
451.172	81.7841	451.172	81.7124	451.172	81.7879	451.172	81.5731	451.172	81.723	451.172	81.3666	451.172	81.5882	451.172	81.0898	451.172	81.3797	451.172	80.7322	451.172	81.0892	451.172	80.2732	451.172	80.7026	451.172	79.6836	451.172	80.1995	451.172	78.9359	451.172	79.5556	451.172	78.0286	451.172	78.7528	451.172	77.0342	451.172	77.8026	451.172	76.1603	451.172	76.7965	451.172	75.7244	451.172	75.9657	451.172	75.8935	451.172	75.6296	451.172	76.4755	451.172	75.9067	451.172	77.1386	451.172	76.5542	451.172	77.6622	451.172	77.2326	451.172	77.953	451.172	77.7343	451.172	77.9798
465.82	82.044	465.82	81.9548	465.82	82.054	465.82	81.7892	465.82	81.9869	465.82	81.5552	465.82	81.8493	465.82	81.2625	465.82	81.6494	465.82	80.9155	465.82	81.3916	465.82	80.5056	465.82	81.0697	465.82	80.0066	465.82	80.6601	465.82	79.3799	465.82	80.1226	465.82	78.5921	465.82	79.4112	465.82	77.6471	465.82	78.5	465.82	76.6419	465.82	77.4272	465.82	75.8302	465.82	76.3631	465.82	75.5531	465.82	75.6391	465.82	75.9036	465.82	75.5512	465.82	76.5798	465.82	76.0266	465.82	77.2082	465.82	76.7079	465.82	77.5728	465.82	77.2863	465.82	77.5973
483.398	82.1969	483.398	82.1527	483.398	82.1971	483.398	82.0678	483.398	82.145	483.398	81.9383	483.398	82.0304	483.398	81.7517	483.398	81.8436	483.398	81.4875	483.398	81.5763	483.398	81.1166	483.398	81.2212	483.398	80.6028	483.398	80.7688	483.398	79.9079	483.398	80.2046	483.398	79.0108	483.398	79.5132	483.398	77.9526	483.398	78.6965	483.398	76.9139	483.398	77.8142	483.398	76.2464	483.398	77.0366	483.398	76.2368	483.398	76.6301	483.398	76.7618	483.398	76.7534	483.398	77.4499	483.398	77.2602	483.398	78.0293	483.398	77.8457	483.398	78.3826	483.398	78.2827	483.398	78.4701
499.512	82.8344	499.512	82.7823	499.512	82.8103	499.512	82.6632	499.512	82.7128	499.512	82.4937	499.512	82.5542	499.512	82.2861	499.512	82.3482	499.512	82.0346	499.512	82.0998	499.512	81.7085	499.512	81.7977	499.512	81.2566	499.512	81.4111	499.512	80.6219	499.512	80.894	499.512	79.7649	499.512	80.1959	499.512	78.7021	499.512	79.2845	499.512	77.5805	499.512	78.1965	499.512	76.7556	499.512	77.1311	499.512	76.6344	499.512	76.4988	499.512	77.2038	499.512	76.6271	499.512	78.0284	499.512	77.3309	499.512	78.7222	499.512	78.1566	499.512	79.1066	499.512	78.799	499.512	79.1305
517.09	83.3528	517.09	83.2979	517.09	83.3297	517.09	83.1566	517.09	83.2448	517.09	82.9316	517.09	83.118	517.09	82.636	517.09	82.9672	517.09	82.285	517.09	82.7995	517.09	81.8811	517.09	82.6015	517.09	81.4005	517.09	82.3329	517.09	80.7925	517.09	81.9321	517.09	79.9991	517.09	81.3322	517.09	78.9959	517.09	80.4839	517.09	77.8701	517.09	79.3931	517.09	76.9239	517.09	78.1949	517.09	76.6103	517.09	77.2459	517.09	77.0545	517.09	76.9917	517.09	77.861	517.09	77.4573	517.09	78.5945	517.09	78.1983	517.09	79.0348	517.09	78.8108	517.09	79.1086
536.133	83.0576	536.133	83.0138	536.133	83.0058	536.133	82.8905	536.133	82.8481	536.133	82.7028	536.133	82.5837	536.133	82.4564	536.133	82.2221	536.133	82.1413	536.133	81.782	536.133	81.7285	536.133	81.2862	536.133	81.1723	536.133	80.7498	536.133	80.4155	536.133	80.1646	536.133	79.4075	536.133	79.4969	536.133	78.1518	536.133	78.7209	536.133	76.8299	536.133	77.8944	536.133	75.9641	536.133	77.246	536.133	76.1294	536.133	77.123	536.133	77.1426	536.133	77.6468	536.133	78.3452	536.133	78.5267	536.133	79.3278	536.133	79.3756	536.133	79.9447	536.133	79.9534	536.133	80.1543
555.176	83.3571	555.176	83.2321	555.176	83.3924	555.176	83.029	555.176	83.3391	555.176	82.7733	555.176	83.207	555.176	82.4989	555.176	83.0067	555.176	82.2273	555.176	82.7409	555.176	81.9411	555.176	82.3936	555.176	81.5698	555.176	81.9238	555.176	81.0029	555.176	81.2645	555.176	80.1175	555.176	80.3246	555.176	78.8096	555.176	78.9926	555.176	77.0651	555.176	77.1584	555.176	75.2077	555.176	74.8595	555.176	74.279	555.176	72.9087	555.176	74.9908	555.176	73.11	555.176	76.3743	555.176	74.9438	555.176	77.5106	555.176	76.6633	555.176	78.142	555.176	77.7602	555.176	78.234
574.219	82.6661	574.219	82.6241	574.219	82.6398	574.219	82.5192	574.219	82.5451	574.219	82.358	574.219	82.3917	574.219	82.1441	574.219	82.2007	574.219	81.8723	574.219	81.9988	574.219	81.5191	574.219	81.7983	574.219	81.0352	574.219	81.5721	574.219	80.3416	574.219	81.2425	574.219	79.3356	574.219	80.6952	574.219	77.9055	574.219	79.8101	574.219	75.9902	574.219	78.4994	574.219	73.8593	574.219	76.7959	574.219	72.7894	574.219	75.0973	574.219	73.8506	574.219	74.3648	574.219	75.65	574.219	75.0405	574.219	77.0173	574.219	76.2596	574.219	77.7163	574.219	77.2601	574.219	77.7758
594.727	82.2798	594.727	82.1639	594.727	82.2736	594.727	81.9326	594.727	82.1585	594.727	81.6183	594.727	81.964	594.727	81.2781	594.727	81.7317	594.727	80.9744	594.727	81.504	594.727	80.7354	594.727	81.2995	594.727	80.5192	594.727	81.0894	594.727	80.2131	594.727	80.7945	594.727	79.6664	594.727	80.3039	594.727	78.7256	594.727	79.4957	594.727	77.2702	594.727	78.2519	594.727	75.3227	594.727	76.5049	594.727	73.4539	594.727	74.4526	594.727	73.0835	594.727	73.1224	594.727	74.3558	594.727	73.6987	594.727	75.8186	594.727	75.2179	594.727	76.7343	594.727	76.4239	594.727	76.9446
615.234	82.764	615.234	82.6809	615.234	82.7386	615.234	82.4963	615.234	82.6044	615.234	82.2259	615.234	82.369	615.234	81.8941	615.234	82.0497	615.234	81.5293	615.234	81.677	615.234	81.1495	615.234	81.2908	615.234	80.7366	615.234	80.9189	615.234	80.217	615.234	80.538	615.234	79.4678	615.234	80.0509	615.234	78.3503	615.234	79.3111	615.234	76.763	615.234	78.1877	615.234	74.7704	615.234	76.6605	615.234	72.9917	615.234	75.014	615.234	72.71	615.234	74.0425	615.234	73.9101	615.234	74.3422	615.234	75.2898	615.234	75.3122	615.234	76.1898	615.234	76.1404	615.234	76.4694
637.207	83.2422	637.207	83.1517	637.207	83.218	637.207	82.9703	637.207	83.0765	637.207	82.7365	637.207	82.8394	637.207	82.4935	637.207	82.5505	637.207	82.2731	637.207	82.2631	637.207	82.0721	637.207	82.0138	637.207	81.8355	637.207	81.7934	637.207	81.4583	637.207	81.5338	637.207	80.8011	637.207	81.1222	637.207	79.7034	637.207	80.4267	637.207	78.0064	637.207	79.3237	637.207	75.6822	637.207	77.7534	637.207	73.4541	637.207	75.9255	637.207	73.2938	637.207	74.7407	637.207	74.9334	637.207	75.1309	637.207	76.4897	637.207	76.333	637.207	77.4062	637.207	77.2923	637.207	77.6662
659.18	83.5742	659.18	83.5063	659.18	83.4823	659.18	83.2777	659.18	83.2512	659.18	82.9212	659.18	82.9103	659.18	82.5062	659.18	82.4968	659.18	82.1222	659.18	82.0658	659.18	81.832	659.18	81.6876	659.18	81.6101	659.18	81.4049	659.18	81.3232	659.18	81.17	659.18	80.7811	659.18	80.8334	659.18	79.8017	659.18	80.2002	659.18	78.242	659.18	79.0964	659.18	76.0572	659.18	77.4351	659.18	73.7082	659.18	75.426	659.18	73.0311	659.18	74.1141	659.18	74.6452	659.18	74.6813	659.18	76.4857	659.18	76.1834	659.18	77.6008	659.18	77.3811	659.18	77.8847
682.617	83.6026	682.617	83.4718	682.617	83.57	682.617	83.2083	682.617	83.3521	682.617	82.8495	682.617	82.9533	682.617	82.4491	682.617	82.4232	682.617	82.0818	682.617	81.8631	682.617	81.8194	682.617	81.3905	682.617	81.6728	682.617	81.0632	682.617	81.5449	682.617	80.8221	682.617	81.2455	682.617	80.5147	682.617	80.5481	682.617	79.9585	682.617	79.2338	682.617	78.9845	682.617	77.1488	682.617	77.4825	682.617	74.5497	682.617	75.5861	682.617	73.2035	682.617	74.1911	682.617	74.4495	682.617	74.5416	682.617	76.1914	682.617	75.9268	682.617	77.2625	682.617	77.0706	682.617	77.5437
707.52	83.4443	707.52	83.2573	707.52	83.4475	707.52	82.9184	707.52	83.2481	707.52	82.4816	707.52	82.8372	707.52	82.0315	707.52	82.2253	707.52	81.6779	707.52	81.4702	707.52	81.5061	707.52	80.7161	707.52	81.4979	707.52	80.1737	707.52	81.5047	707.52	79.9433	707.52	81.3043	707.52	79.835	707.52	80.6637	707.52	79.4726	707.52	79.3537	707.52	78.506	707.52	77.1341	707.52	76.7094	707.52	73.8752	707.52	74.2236	707.52	71.056	707.52	72.6143	707.52	72.4467	707.52	73.7208	707.52	75.0657	707.52	75.6144	707.52	76.6621	707.52	76.8465	707.52	77.2111
732.422	83.3181	732.422	83.0643	732.422	83.3582	732.422	82.5965	732.422	83.2036	732.422	81.9366	732.422	82.8783	732.422	81.1363	732.422	82.3959	732.422	80.3109	732.422	81.7623	732.422	79.6737	732.422	81.0124	732.422	79.4302	732.422	80.2576	732.422	79.5209	732.422	79.6487	732.422	79.6105	732.422	79.1941	732.422	79.3437	732.422	78.6408	732.422	78.4573	732.422	77.5822	732.422	76.7369	732.422	75.539	732.422	74.0727	732.422	71.8654	732.422	71.3496	732.422	67.145	732.422	71.6626	732.422	69.8041	732.422	73.967	732.422	73.7477	732.422	75.6431	732.422	75.718	732.422	76.2538
757.324	82.9847	757.324	82.7751	757.324	83.0145	757.324	82.378	757.324	82.8658	757.324	81.7935	757.324	82.5359	757.324	81.0517	757.324	82.0349	757.324	80.2353	757.324	81.4069	757.324	79.4972	757.324	80.7326	757.324	79.0237	757.324	80.1071	757.324	78.8747	757.324	79.5987	757.324	78.8456	757.324	79.1929	757.324	78.5856	757.324	78.7398	757.324	77.7966	757.324	77.9636	757.324	76.3092	757.324	76.532	757.324	74.2041	757.324	74.1138	757.324	72.34	757.324	70.6371	757.324	72.2553	757.324	68.4373	757.324	73.3867	757.324	70.5438	757.324	74.2004	757.324	72.925	757.324	74.115
785.156	83.5533	785.156	83.4398	785.156	83.4759	785.156	83.126	785.156	83.2212	785.156	82.6089	785.156	82.8047	785.156	81.9044	785.156	82.2413	785.156	81.0776	785.156	81.5581	785.156	80.2711	785.156	80.8273	785.156	79.6707	785.156	80.1971	785.156	79.3518	785.156	79.8291	785.156	79.1442	785.156	79.7	785.156	78.7082	785.156	79.5248	785.156	77.6967	785.156	78.9346	785.156	75.8313	785.156	77.6021	785.156	73.0118	785.156	75.1944	785.156	70.2309	785.156	71.364	785.156	70.5076	785.156	67.6383	785.156	72.571	785.156	69.6747	785.156	73.8796	785.156	72.5918	785.156	73.9406
811.523	83.6206	811.523	83.4819	811.523	83.5727	811.523	83.1769	811.523	83.3275	811.523	82.7095	811.523	82.9001	811.523	82.0616	811.523	82.322	811.523	81.2293	811.523	81.6191	811.523	80.2998	811.523	80.815	811.523	79.5031	811.523	79.984	811.523	79.0588	811.523	79.2919	811.523	78.8718	811.523	78.8769	811.523	78.5705	811.523	78.6256	811.523	77.7921	811.523	78.1901	811.523	76.3006	811.523	77.2	811.523	74.1154	811.523	75.378	811.523	72.1922	811.523	72.7434	811.523	72.3347	811.523	70.7344	811.523	73.6378	811.523	71.6008	811.523	74.452	811.523	73.3693	811.523	74.3793
840.82	83.6765	840.82	83.5659	840.82	83.6246	840.82	83.2589	840.82	83.4241	840.82	82.7332	840.82	83.0536	840.82	82.005	840.82	82.4734	840.82	81.1443	840.82	81.6695	840.82	80.2833	840.82	80.7078	840.82	79.6008	840.82	79.7743	840.82	79.2113	840.82	79.1239	840.82	78.9964	840.82	78.8412	840.82	78.6184	840.82	78.6642	840.82	77.7007	840.82	78.1616	840.82	75.9377	840.82	76.9455	840.82	73.2402	840.82	74.7287	840.82	70.7399	840.82	71.6793	840.82	71.3118	840.82	70.3099	840.82	73.4237	840.82	72.2987	840.82	74.8163	840.82	74.2767	840.82	75.1185
870.117	83.4603	870.117	83.272	870.117	83.4747	870.117	82.9362	870.117	83.2927	870.117	82.4554	870.117	82.9053	870.117	81.7992	870.117	82.3077	870.117	80.9535	870.117	81.5085	870.117	80.0055	870.117	80.5783	870.117	79.1837	870.117	79.6994	870.117	78.7274	870.117	79.11	870.117	78.6132	870.117	78.8918	870.117	78.4987	870.117	78.8228	870.117	77.942	870.117	78.497	870.117	76.5434	870.117	77.4911	870.117	74.0077	870.117	75.4262	870.117	70.9494	870.117	72.1675	870.117	70.9218	870.117	69.4347	870.117	73.1362	870.117	70.7049	870.117	74.3972	870.117	73.0068	870.117	74.3154
900.879	83.7374	900.879	83.589	900.879	83.7106	900.879	83.254	900.879	83.498	900.879	82.7053	900.879	83.0908	900.879	81.9275	900.879	82.4961	900.879	80.9317	900.879	81.7182	900.879	79.7758	900.879	80.7429	900.879	78.6559	900.879	79.5997	900.879	77.9444	900.879	78.5075	900.879	77.7716	900.879	77.8325	900.879	77.6684	900.879	77.5876	900.879	77.0413	900.879	77.2847	900.879	75.5336	900.879	76.4493	900.879	73.01	900.879	74.8413	900.879	70.1755	900.879	72.5496	900.879	70.2949	900.879	71.1155	900.879	72.8829	900.879	72.5947	900.879	74.8054	900.879	74.5936	900.879	75.4014
933.105	83.7068	933.105	83.5216	933.105	83.7107	933.105	83.1899	933.105	83.5094	933.105	82.731	933.105	83.0878	933.105	82.1072	933.105	82.4402	933.105	81.2484	933.105	81.5934	933.105	80.1839	933.105	80.6382	933.105	79.2086	933.105	79.7455	933.105	78.7702	933.105	79.1268	933.105	78.8697	933.105	78.8921	933.105	78.9272	933.105	78.868	933.105	78.3221	933.105	78.6059	933.105	76.5776	933.105	77.5634	933.105	73.2092	933.105	75.1702	933.105	68.3022	933.105	70.8107	933.105	68.6083	933.105	67.2187	933.105	72.3183	933.105	70.8726	933.105	74.3099	933.105	73.7397	933.105	74.762
965.332	83.6528	965.332	83.5492	965.332	83.62	965.332	83.2968	965.332	83.4373	965.332	82.8629	965.332	83.0781	965.332	82.212	965.332	82.5175	965.332	81.3143	965.332	81.7282	965.332	80.1629	965.332	80.6662	965.332	78.8749	965.332	79.334	965.332	77.852	965.332	78.017	965.332	77.4999	965.332	77.3498	965.332	77.5169	965.332	77.4034	965.332	77.1909	965.332	77.3504	965.332	75.99	965.332	76.4636	965.332	73.5044	965.332	74.2896	965.332	69.742	965.332	70.5487	965.332	68.9996	965.332	68.2659	965.332	72.3627	965.332	71.5284	965.332	74.5766	965.332	74.1968	965.332	75.1581
1,000.49	83.7108	1,000.49	83.607	1,000.49	83.6398	1,000.49	83.3361	1,000.49	83.3858	1,000.49	82.8895	1,000.49	82.9501	1,000.49	82.2186	1,000.49	82.3349	1,000.49	81.2383	1,000.49	81.5051	1,000.49	79.9137	1,000.49	80.3818	1,000.49	78.4685	1,000.49	78.9788	1,000.49	77.5841	1,000.49	77.6859	1,000.49	77.7466	1,000.49	77.2233	1,000.49	78.3025	1,000.49	77.5788	1,000.49	78.3209	1,000.49	77.839	1,000.49	77.2379	1,000.49	77.2049	1,000.49	74.6212	1,000.49	75.0953	1,000.49	70.1131	1,000.49	70.758	1,000.49	67.6667	1,000.49	65.5966	1,000.49	71.2844	1,000.49	69.7262	1,000.49	73.7214	1,000.49	73.1633	1,000.49	74.3241
1,035.64	83.0354	1,035.64	82.8976	1,035.64	83.0178	1,035.64	82.6473	1,035.64	82.808	1,035.64	82.2766	1,035.64	82.399	1,035.64	81.7121	1,035.64	81.7905	1,035.64	80.8721	1,035.64	80.9573	1,035.64	79.7219	1,035.64	79.8463	1,035.64	78.313	1,035.64	78.422	1,035.64	76.9454	1,035.64	76.828	1,035.64	76.2957	1,035.64	75.6875	1,035.64	76.515	1,035.64	75.6474	1,035.64	76.6563	1,035.64	76.036	1,035.64	75.8283	1,035.64	75.7059	1,035.64	73.5116	1,035.64	73.9543	1,035.64	69.5813	1,035.64	70.1193	1,035.64	68.0061	1,035.64	65.0362	1,035.64	71.2127	1,035.64	68.4446	1,035.64	73.3524	1,035.64	72.2138	1,035.64	73.6923
1,072.27	82.986	1,072.27	82.8845	1,072.27	82.8946	1,072.27	82.5914	1,072.27	82.6175	1,072.27	82.1492	1,072.27	82.1747	1,072.27	81.5826	1,072.27	81.613	1,072.27	80.7963	1,072.27	80.9172	1,072.27	79.6432	1,072.27	79.9373	1,072.27	78.1685	1,072.27	78.5293	1,072.27	76.8849	1,072.27	76.8499	1,072.27	76.5633	1,072.27	75.6222	1,072.27	77.0202	1,072.27	75.5234	1,072.27	77.1862	1,072.27	75.9025	1,072.27	76.2126	1,072.27	75.6261	1,072.27	73.487	1,072.27	73.8868	1,072.27	68.4775	1,072.27	69.5715	1,072.27	66.5496	1,072.27	60.6459	1,072.27	71.0316	1,072.27	67.4808	1,072.27	73.5608	1,072.27	72.3078	1,072.27	73.9824
1,108.89	82.5196	1,108.89	82.4015	1,108.89	82.4483	1,108.89	82.1216	1,108.89	82.1995	1,108.89	81.7254	1,108.89	81.8048	1,108.89	81.2461	1,108.89	81.2703	1,108.89	80.6389	1,108.89	80.5758	1,108.89	79.7222	1,108.89	79.6763	1,108.89	78.2773	1,108.89	78.4528	1,108.89	76.3947	1,108.89	76.7569	1,108.89	75.0812	1,108.89	74.8117	1,108.89	75.3576	1,108.89	73.8278	1,108.89	75.9727	1,108.89	74.3799	1,108.89	75.4414	1,108.89	74.8587	1,108.89	73.0234	1,108.89	73.9577	1,108.89	68.2364	1,108.89	70.6156	1,108.89	66.1173	1,108.89	62.319	1,108.89	70.2061	1,108.89	66.1636	1,108.89	72.5353	1,108.89	71.4143	1,108.89	72.9867
1,148.44	82.6421	1,148.44	82.446	1,148.44	82.6379	1,148.44	82.0895	1,148.44	82.4261	1,148.44	81.6502	1,148.44	82.0156	1,148.44	81.1693	1,148.44	81.459	1,148.44	80.5844	1,148.44	80.812	1,148.44	79.7469	1,148.44	80.0151	1,148.44	78.495	1,148.44	78.8983	1,148.44	76.8815	1,148.44	77.3367	1,148.44	75.6494	1,148.44	75.56	1,148.44	75.6357	1,148.44	74.6452	1,148.44	75.9318	1,148.44	75.2012	1,148.44	75.271	1,148.44	75.7071	1,148.44	72.9046	1,148.44	74.774	1,148.44	67.5998	1,148.44	71.3657	1,148.44	64.0136	1,148.44	62.2176	1,148.44	70.0237	1,148.44	62.5576	1,148.44	72.372	1,148.44	69.7426	1,148.44	72.1705
1,189.45	82.8823	1,189.45	82.6527	1,189.45	82.9106	1,189.45	82.2726	1,189.45	82.6712	1,189.45	81.7434	1,189.45	82.17	1,189.45	81.0969	1,189.45	81.5021	1,189.45	80.4152	1,189.45	80.7602	1,189.45	79.6242	1,189.45	79.9318	1,189.45	78.3918	1,189.45	78.8828	1,189.45	76.5174	1,189.45	77.4338	1,189.45	74.7883	1,189.45	75.5975	1,189.45	74.8528	1,189.45	74.1833	1,189.45	75.8057	1,189.45	74.4	1,189.45	75.7508	1,189.45	75.2803	1,189.45	73.7795	1,189.45	75.0553	1,189.45	68.7879	1,189.45	72.5654	1,189.45	62.6951	1,189.45	65.4392	1,189.45	68.8801	1,189.45	58.7815	1,189.45	71.858	1,189.45	69.2316	1,189.45	71.99
1,230.47	82.8741	1,230.47	82.7451	1,230.47	82.7326	1,230.47	82.3188	1,230.47	82.3965	1,230.47	81.6918	1,230.47	81.881	1,230.47	81.0241	1,230.47	81.1891	1,230.47	80.369	1,230.47	80.3975	1,230.47	79.5884	1,230.47	79.5649	1,230.47	78.5161	1,230.47	78.6405	1,230.47	77.1219	1,230.47	77.4443	1,230.47	75.7181	1,230.47	75.7943	1,230.47	75.2195	1,230.47	74.3581	1,230.47	75.7034	1,230.47	74.6055	1,230.47	75.7022	1,230.47	75.3804	1,230.47	74.0003	1,230.47	74.9011	1,230.47	69.348	1,230.47	72.3469	1,230.47	60.4022	1,230.47	66.1847	1,230.47	66.9689	1,230.47	59.6032	1,230.47	70.7962	1,230.47	68.3446	1,230.47	71.1948
1,274.41	82.5154	1,274.41	82.4584	1,274.41	82.2718	1,274.41	82.1022	1,274.41	81.7683	1,274.41	81.4933	1,274.41	81.0793	1,274.41	80.7357	1,274.41	80.2968	1,274.41	79.9603	1,274.41	79.4962	1,274.41	79.1675	1,274.41	78.6696	1,274.41	78.1384	1,274.41	77.6998	1,274.41	76.6348	1,274.41	76.3936	1,274.41	74.7674	1,274.41	74.5987	1,274.41	73.7491	1,274.41	72.8503	1,274.41	74.6429	1,274.41	72.8767	1,274.41	75.3023	1,274.41	74.1167	1,274.41	73.9414	1,274.41	74.3777	1,274.41	69.5661	1,274.41	72.5816	1,274.41	61.9567	1,274.41	67.3932	1,274.41	66.8655	1,274.41	58.6706	1,274.41	70.3567	1,274.41	67.0432	1,274.41	70.4155
1,319.82	81.7346	1,319.82	81.6924	1,319.82	81.4599	1,319.82	81.3689	1,319.82	80.8782	1,319.82	80.7646	1,319.82	80.0715	1,319.82	79.9936	1,319.82	79.0961	1,319.82	79.248	1,319.82	78.0917	1,319.82	78.4725	1,319.82	77.3149	1,319.82	77.4963	1,319.82	76.7241	1,319.82	76.1822	1,319.82	75.8433	1,319.82	74.4964	1,319.82	74.3093	1,319.82	73.554	1,319.82	72.5573	1,319.82	74.2433	1,319.82	72.3248	1,319.82	74.7413	1,319.82	73.5407	1,319.82	73.7108	1,319.82	73.863	1,319.82	70.1139	1,319.82	71.9816	1,319.82	62.364	1,319.82	66.3588	1,319.82	65.8704	1,319.82	53.8338	1,319.82	69.8007	1,319.82	66.0064	1,319.82	69.7848
1,366.7	81.097	1,366.7	81.0593	1,366.7	80.8824	1,366.7	80.6702	1,366.7	80.4441	1,366.7	79.9702	1,366.7	79.726	1,366.7	79.1144	1,366.7	78.7337	1,366.7	78.1895	1,366.7	77.5931	1,366.7	77.2351	1,366.7	76.5029	1,366.7	76.206	1,366.7	75.5461	1,366.7	74.8982	1,366.7	74.4958	1,366.7	73.5051	1,366.7	72.9895	1,366.7	73.1786	1,366.7	71.1654	1,366.7	73.9719	1,366.7	71.2331	1,366.7	74.4457	1,366.7	73.0606	1,366.7	73.4729	1,366.7	73.7058	1,366.7	69.9245	1,366.7	72.2658	1,366.7	61.968	1,366.7	67.7329	1,366.7	64.6128	1,366.7	52.9772	1,366.7	68.741	1,366.7	64.2186	1,366.7	68.7002
1,413.57	80.5625	1,413.57	80.3197	1,413.57	80.5189	1,413.57	79.8387	1,413.57	80.0686	1,413.57	79.0172	1,413.57	79.3516	1,413.57	78.0146	1,413.57	78.5095	1,413.57	77.1071	1,413.57	77.4433	1,413.57	76.2584	1,413.57	76.2094	1,413.57	75.2304	1,413.57	75.2686	1,413.57	73.8712	1,413.57	74.6097	1,413.57	72.1041	1,413.57	73.2767	1,413.57	70.6791	1,413.57	70.7703	1,413.57	71.5006	1,413.57	69.0348	1,413.57	72.6215	1,413.57	70.7613	1,413.57	71.7878	1,413.57	72.5069	1,413.57	67.8367	1,413.57	71.65	1,413.57	58.2577	1,413.57	67.0646	1,413.57	62.6557	1,413.57	55.979	1,413.57	67.2914	1,413.57	63.6534	1,413.57	67.7462
1,463.38	80.5991	1,463.38	80.1042	1,463.38	80.6303	1,463.38	79.4226	1,463.38	80.2516	1,463.38	78.6608	1,463.38	79.7211	1,463.38	77.7551	1,463.38	79.0041	1,463.38	76.7293	1,463.38	77.9584	1,463.38	75.7465	1,463.38	76.7424	1,463.38	75.084	1,463.38	75.7719	1,463.38	74.2711	1,463.38	75.1543	1,463.38	72.1092	1,463.38	74.2758	1,463.38	69.2364	1,463.38	72.3461	1,463.38	70.0629	1,463.38	70.0768	1,463.38	71.8947	1,463.38	71.0259	1,463.38	71.7069	1,463.38	72.931	1,463.38	68.54	1,463.38	72.7603	1,463.38	59.8863	1,463.38	69.5105	1,463.38	60.2321	1,463.38	62.0111	1,463.38	66.8757	1,463.38	64.8546	1,463.38	68.0748
1,516.11	81.2052	1,516.11	80.7657	1,516.11	81.1915	1,516.11	80.1285	1,516.11	80.8574	1,516.11	79.3932	1,516.11	80.4251	1,516.11	78.3573	1,516.11	79.7259	1,516.11	77.0734	1,516.11	78.583	1,516.11	75.9474	1,516.11	77.296	1,516.11	75.2786	1,516.11	76.3643	1,516.11	74.4337	1,516.11	75.8411	1,516.11	72.2489	1,516.11	74.957	1,516.11	69.0018	1,516.11	72.9448	1,516.11	68.7988	1,516.11	70.9119	1,516.11	70.8782	1,516.11	71.4841	1,516.11	71.5807	1,516.11	72.7715	1,516.11	69.4592	1,516.11	72.2278	1,516.11	62.1506	1,516.11	68.4279	1,516.11	60.1843	1,516.11	59.5677	1,516.11	67.477	1,516.11	66.1864	1,516.11	69.2492
1,568.85	81.5411	1,568.85	81.2793	1,568.85	81.4672	1,568.85	80.7079	1,568.85	81.1778	1,568.85	79.9602	1,568.85	80.6167	1,568.85	78.9102	1,568.85	79.7616	1,568.85	77.517	1,568.85	78.8374	1,568.85	76.3412	1,568.85	77.8728	1,568.85	75.7002	1,568.85	76.8655	1,568.85	74.8708	1,568.85	76.1032	1,568.85	73.2752	1,568.85	75.1768	1,568.85	70.7392	1,568.85	73.3025	1,568.85	69.6238	1,568.85	71.1423	1,568.85	71.9137	1,568.85	71.5335	1,568.85	72.8291	1,568.85	73.2136	1,568.85	71.1828	1,568.85	72.9257	1,568.85	65.757	1,568.85	69.7197	1,568.85	56.5715	1,568.85	61.1139	1,568.85	66.4458	1,568.85	64.649	1,568.85	68.6287
1,624.51	81.0488	1,624.51	80.8462	1,624.51	80.8731	1,624.51	80.2648	1,624.51	80.5246	1,624.51	79.4894	1,624.51	79.9501	1,624.51	78.4571	1,624.51	79.0865	1,624.51	77.1158	1,624.51	78.2069	1,624.51	75.7271	1,624.51	77.2782	1,624.51	74.5865	1,624.51	76.1897	1,624.51	73.9042	1,624.51	75.2308	1,624.51	73.2328	1,624.51	74.0657	1,624.51	71.1384	1,624.51	72.3391	1,624.51	68.6092	1,624.51	70.4415	1,624.51	71.1238	1,624.51	70.2829	1,624.51	73.0106	1,624.51	72.0211	1,624.51	71.7759	1,624.51	72.1354	1,624.51	66.8268	1,624.51	69.5345	1,624.51	58.5293	1,624.51	61.3102	1,624.51	64.685	1,624.51	61.1073	1,624.51	66.2918
1,681.64	80.4186	1,681.64	80.0859	1,681.64	80.5429	1,681.64	79.5035	1,681.64	80.3727	1,681.64	78.5307	1,681.64	79.8757	1,681.64	77.5218	1,681.64	78.9323	1,681.64	76.3505	1,681.64	77.8634	1,681.64	74.6254	1,681.64	76.8064	1,681.64	73.4406	1,681.64	75.3894	1,681.64	73.123	1,681.64	74.3753	1,681.64	72.4113	1,681.64	73.8085	1,681.64	70.8674	1,681.64	72.3855	1,681.64	68.305	1,681.64	70.1837	1,681.64	69.2955	1,681.64	68.7553	1,681.64	71.5026	1,681.64	70.4529	1,681.64	70.5875	1,681.64	71.2823	1,681.64	66.0526	1,681.64	69.3398	1,681.64	61.2561	1,681.64	63.8187	1,681.64	65.3723	1,681.64	59.8202	1,681.64	64.841
1,741.7	80.1072	1,741.7	79.6336	1,741.7	80.4816	1,741.7	79.0049	1,741.7	80.4513	1,741.7	78.0266	1,741.7	79.9419	1,741.7	76.9639	1,741.7	79.1132	1,741.7	75.8246	1,741.7	77.9996	1,741.7	74.3779	1,741.7	76.7781	1,741.7	73.3273	1,741.7	75.3981	1,741.7	72.9548	1,741.7	74.1313	1,741.7	72.0421	1,741.7	73.7777	1,741.7	70.0619	1,741.7	73.029	1,741.7	67.8588	1,741.7	71.1883	1,741.7	68.3857	1,741.7	69.3322	1,741.7	70.4282	1,741.7	69.8777	1,741.7	70.4236	1,741.7	71.6373	1,741.7	65.4073	1,741.7	70.5471	1,741.7	57.515	1,741.7	65.0089	1,741.7	63.6467	1,741.7	61.9218	1,741.7	63.5062
1,803.22	81.0403	1,803.22	80.7167	1,803.22	80.937	1,803.22	79.7889	1,803.22	80.6472	1,803.22	78.6346	1,803.22	80.0977	1,803.22	77.7224	1,803.22	79.3308	1,803.22	76.8589	1,803.22	78.3865	1,803.22	75.3476	1,803.22	77.3036	1,803.22	73.5976	1,803.22	76.0012	1,803.22	72.3639	1,803.22	74.7336	1,803.22	72.0462	1,803.22	74.1641	1,803.22	71.4491	1,803.22	73.8269	1,803.22	68.5693	1,803.22	72.1932	1,803.22	67.8433	1,803.22	70.4423	1,803.22	70.3228	1,803.22	71.0074	1,803.22	70.6919	1,803.22	71.7285	1,803.22	67.309	1,803.22	70.7461	1,803.22	57.0121	1,803.22	65.2356	1,803.22	60.8829	1,803.22	60.2295	1,803.22	63.151
1,866.21	81.5496	1,866.21	81.4152	1,866.21	81.2827	1,866.21	80.85	1,866.21	80.7052	1,866.21	79.8146	1,866.21	80.2033	1,866.21	78.4736	1,866.21	79.4201	1,866.21	77.242	1,866.21	78.0913	1,866.21	76.0633	1,866.21	77.1431	1,866.21	74.8061	1,866.21	75.9249	1,866.21	73.4449	1,866.21	73.7233	1,866.21	71.7596	1,866.21	73.169	1,866.21	71.0128	1,866.21	73.4736	1,866.21	69.5638	1,866.21	71.8943	1,866.21	68.0891	1,866.21	69.9032	1,866.21	69.9637	1,866.21	70.6616	1,866.21	70.6026	1,866.21	71.8581	1,866.21	68.7357	1,866.21	70.7294	1,866.21	62.5394	1,866.21	67.2776	1,866.21	66.2383	1,866.21	64.5462	1,866.21	66.716
1,932.13	81.3554	1,932.13	80.8946	1,932.13	81.2492	1,932.13	80.1338	1,932.13	80.76	1,932.13	79.3151	1,932.13	79.9343	1,932.13	78.1428	1,932.13	78.9073	1,932.13	76.9654	1,932.13	77.8015	1,932.13	75.8766	1,932.13	76.1638	1,932.13	74.4211	1,932.13	74.4503	1,932.13	73.5515	1,932.13	73.2577	1,932.13	72.5055	1,932.13	72.3416	1,932.13	71.0553	1,932.13	71.6516	1,932.13	69.7361	1,932.13	70.4765	1,932.13	68.6082	1,932.13	68.323	1,932.13	70.6027	1,932.13	68.1181	1,932.13	70.7973	1,932.13	70.7195	1,932.13	68.7205	1,932.13	69.6646	1,932.13	63.4582	1,932.13	64.4702	1,932.13	64.8133	1,932.13	61.5137	1,932.13	65.0098
1,999.51	81.4858	1,999.51	81.093	1,999.51	81.3488	1,999.51	80.2948	1,999.51	81.0277	1,999.51	79.1171	1,999.51	80.4492	1,999.51	78.2466	1,999.51	79.3108	1,999.51	77.225	1,999.51	78.3885	1,999.51	75.3342	1,999.51	77.4521	1,999.51	73.6513	1,999.51	75.8381	1,999.51	73.0053	1,999.51	74.17	1,999.51	72.5973	1,999.51	72.8609	1,999.51	71.5523	1,999.51	72.1239	1,999.51	70.6789	1,999.51	71.6236	1,999.51	68.7801	1,999.51	69.7637	1,999.51	70.7412	1,999.51	68.3024	1,999.51	72.2818	1,999.51	70.7133	1,999.51	69.3791	1,999.51	71.3572	1,999.51	63.3821	1,999.51	66.8996	1,999.51	62.2983	1,999.51	64.1126	1,999.51	65.0398
2,069.82	82.5144	2,069.82	82.0338	2,069.82	82.4873	2,069.82	81.3152	2,069.82	82.3237	2,069.82	80.3355	2,069.82	81.6488	2,069.82	79.2571	2,069.82	80.5476	2,069.82	78.2443	2,069.82	79.7602	2,069.82	76.6242	2,069.82	78.3492	2,069.82	75.1659	2,069.82	76.8006	2,069.82	74.5165	2,069.82	75.5393	2,069.82	73.7489	2,069.82	73.3706	2,069.82	73.2773	2,069.82	72.4387	2,069.82	72.166	2,069.82	72.4257	2,069.82	68.9571	2,069.82	70.6394	2,069.82	69.4239	2,069.82	69.9221	2,069.82	71.8571	2,069.82	71.5441	2,069.82	70.0936	2,069.82	71.3485	2,069.82	64.0844	2,069.82	68.3531	2,069.82	66.0631	2,069.82	65.2265	2,069.82	67.3467
2,143.07	82.3385	2,143.07	82.2965	2,143.07	82.2794	2,143.07	81.6447	2,143.07	81.9556	2,143.07	80.7255	2,143.07	81.308	2,143.07	79.933	2,143.07	80.4133	2,143.07	78.7618	2,143.07	78.9968	2,143.07	77.061	2,143.07	77.6758	2,143.07	76.1492	2,143.07	76.6548	2,143.07	75.1391	2,143.07	75.3412	2,143.07	73.1329	2,143.07	72.9497	2,143.07	73.2825	2,143.07	71.7337	2,143.07	73.3476	2,143.07	71.8608	2,143.07	71.0091	2,143.07	69.4875	2,143.07	71.3749	2,143.07	68.2564	2,143.07	72.441	2,143.07	72.7041	2,143.07	70.5873	2,143.07	72.1721	2,143.07	67.1646	2,143.07	68.8149	2,143.07	66.9309	2,143.07	68.5623	2,143.07	67.9918
2,219.24	81.8802	2,219.24	81.6176	2,219.24	81.4644	2,219.24	80.8264	2,219.24	81.341	2,219.24	79.8814	2,219.24	80.7088	2,219.24	78.9721	2,219.24	78.8186	2,219.24	77.6108	2,219.24	77.603	2,219.24	76.2988	2,219.24	76.9623	2,219.24	75.659	2,219.24	76.4482	2,219.24	74.3086	2,219.24	75.0862	2,219.24	72.5907	2,219.24	73.1679	2,219.24	70.7615	2,219.24	72.3696	2,219.24	68.9834	2,219.24	70.5204	2,219.24	67.4792	2,219.24	68.2305	2,219.24	69.537	2,219.24	67.3635	2,219.24	72.6812	2,219.24	70.2242	2,219.24	70.1936	2,219.24	72.4155	2,219.24	65.8168	2,219.24	68.4971	2,219.24	64.6754	2,219.24	66.3642	2,219.24	67.3925
2,296.88	82.211	2,296.88	81.9254	2,296.88	82.3228	2,296.88	80.9758	2,296.88	82.1691	2,296.88	80.1201	2,296.88	81.4573	2,296.88	79.1071	2,296.88	80.7849	2,296.88	77.5021	2,296.88	79.258	2,296.88	76.8514	2,296.88	77.765	2,296.88	76.0516	2,296.88	77.0289	2,296.88	74.1304	2,296.88	75.1023	2,296.88	73.4598	2,296.88	73.3214	2,296.88	72.3112	2,296.88	72.5792	2,296.88	70.3551	2,296.88	71.4779	2,296.88	68.6247	2,296.88	71.5658	2,296.88	67.6005	2,296.88	69.0763	2,296.88	69.8192	2,296.88	70.0191	2,296.88	68.4011	2,296.88	71.8355	2,296.88	66.0191	2,296.88	70.4248	2,296.88	67.9214	2,296.88	65.6633	2,296.88	67.6791
2,378.91	83.7304	2,378.91	83.1821	2,378.91	83.1217	2,378.91	82.216	2,378.91	82.5704	2,378.91	81.6072	2,378.91	82.296	2,378.91	80.6341	2,378.91	81.3243	2,378.91	79.3618	2,378.91	80.0197	2,378.91	78.3604	2,378.91	79.4094	2,378.91	76.7447	2,378.91	78.3495	2,378.91	75.1638	2,378.91	75.9352	2,378.91	74.1057	2,378.91	74.6196	2,378.91	72.7798	2,378.91	73.8213	2,378.91	72.5251	2,378.91	72.5439	2,378.91	72.1945	2,378.91	72.4217	2,378.91	69.9269	2,378.91	70.1518	2,378.91	70.8136	2,378.91	70.5134	2,378.91	72.9756	2,378.91	72.4942	2,378.91	70.473	2,378.91	70.9779	2,378.91	68.6127	2,378.91	69.3007	2,378.91	70.018
2,462.4	82.6216	2,462.4	82.2797	2,462.4	82.5442	2,462.4	81.9644	2,462.4	82.0742	2,462.4	81.3829	2,462.4	81.7827	2,462.4	80.6759	2,462.4	81.0148	2,462.4	79.551	2,462.4	79.8541	2,462.4	78.3623	2,462.4	78.3441	2,462.4	77.1983	2,462.4	76.9942	2,462.4	75.026	2,462.4	75.3136	2,462.4	73.7759	2,462.4	73.1253	2,462.4	73.2267	2,462.4	72.4101	2,462.4	71.6605	2,462.4	71.008	2,462.4	70.8545	2,462.4	70.552	2,462.4	70.9912	2,462.4	68.3779	2,462.4	72.33	2,462.4	69.2679	2,462.4	71.1669	2,462.4	71.2658	2,462.4	66.7249	2,462.4	69.4332	2,462.4	70.6776	2,462.4	62.8334	2,462.4	70.0024
2,548.83	82.0746	2,548.83	81.9595	2,548.83	81.7881	2,548.83	81.2571	2,548.83	81.688	2,548.83	80.7218	2,548.83	81.1286	2,548.83	79.7131	2,548.83	80.4976	2,548.83	78.8182	2,548.83	79.5278	2,548.83	77.8467	2,548.83	78.4382	2,548.83	76.6391	2,548.83	77.2497	2,548.83	74.7852	2,548.83	75.6076	2,548.83	73.2314	2,548.83	73.6651	2,548.83	72.688	2,548.83	72.4516	2,548.83	72.6786	2,548.83	71.6361	2,548.83	72.1258	2,548.83	70.5555	2,548.83	69.1328	2,548.83	69.8679	2,548.83	71.0696	2,548.83	68.969	2,548.83	71.1721	2,548.83	71.8384	2,548.83	67.9695	2,548.83	69.3899	2,548.83	68.4433	2,548.83	67.9358	2,548.83	66.3434
2,639.65	82.554	2,639.65	82.1761	2,639.65	82.6556	2,639.65	81.6826	2,639.65	82.0558	2,639.65	80.8438	2,639.65	81.3943	2,639.65	80.1308	2,639.65	80.9052	2,639.65	79.16	2,639.65	80.192	2,639.65	77.7316	2,639.65	78.9565	2,639.65	76.6386	2,639.65	77.5313	2,639.65	75.1894	2,639.65	76.5356	2,639.65	73.4639	2,639.65	74.9053	2,639.65	72.1837	2,639.65	73.3654	2,639.65	70.6586	2,639.65	72.3365	2,639.65	71.1044	2,639.65	71.3877	2,639.65	70.5386	2,639.65	70.5533	2,639.65	71.4737	2,639.65	69.6598	2,639.65	71.4071	2,639.65	72.4106	2,639.65	66.0253	2,639.65	69.9769	2,639.65	67.6873	2,639.65	65.7552	2,639.65	68.9526
2,731.93	82.6924	2,731.93	82.5666	2,731.93	82.5132	2,731.93	81.9061	2,731.93	82.4515	2,731.93	81.3854	2,731.93	81.8491	2,731.93	80.6918	2,731.93	81.0984	2,731.93	79.713	2,731.93	80.4935	2,731.93	78.5594	2,731.93	79.4795	2,731.93	77.4719	2,731.93	77.8719	2,731.93	76.1151	2,731.93	76.4517	2,731.93	74.2663	2,731.93	75.2052	2,731.93	72.6471	2,731.93	73.4282	2,731.93	71.7728	2,731.93	71.8323	2,731.93	71.3793	2,731.93	70.4198	2,731.93	69.1726	2,731.93	71.0271	2,731.93	70.5306	2,731.93	70.4411	2,731.93	72.1553	2,731.93	72.6019	2,731.93	68.844	2,731.93	71.0053	2,731.93	69.1968	2,731.93	67.0573	2,731.93	69.6321
2,828.61	82.3539	2,828.61	82.1717	2,828.61	82.3761	2,828.61	81.8231	2,828.61	82.0378	2,828.61	81.2123	2,828.61	81.6838	2,828.61	80.7518	2,828.61	81.1179	2,828.61	79.9831	2,828.61	80.5953	2,828.61	78.561	2,828.61	79.8234	2,828.61	77.1807	2,828.61	77.7784	2,828.61	75.7113	2,828.61	76.6436	2,828.61	73.719	2,828.61	75.2536	2,828.61	72.6072	2,828.61	72.8058	2,828.61	69.734	2,828.61	71.8348	2,828.61	71.2478	2,828.61	69.7834	2,828.61	71.8384	2,828.61	69.8248	2,828.61	71.4932	2,828.61	69.2373	2,828.61	72.3709	2,828.61	71.2847	2,828.61	66.9067	2,828.61	70.9087	2,828.61	68.7234	2,828.61	66.9942	2,828.61	70.6857
2,928.22	82.0652	2,928.22	82.1543	2,928.22	82.0484	2,928.22	81.9291	2,928.22	81.9551	2,928.22	81.6457	2,928.22	81.7249	2,928.22	81.1055	2,928.22	81.2353	2,928.22	80.5143	2,928.22	80.4025	2,928.22	79.3265	2,928.22	79.6558	2,928.22	77.5879	2,928.22	78.0583	2,928.22	76.1087	2,928.22	76.6268	2,928.22	73.3369	2,928.22	75.3495	2,928.22	72.4333	2,928.22	72.6798	2,928.22	71.9107	2,928.22	72.0481	2,928.22	69.9676	2,928.22	70.8007	2,928.22	69.1726	2,928.22	70.341	2,928.22	70.153	2,928.22	68.8706	2,928.22	71.909	2,928.22	70.726	2,928.22	67.7519	2,928.22	70.6732	2,928.22	69.8753	2,928.22	66.8766	2,928.22	70.5271
3,030.76	81.4657	3,030.76	81.446	3,030.76	81.3682	3,030.76	81.6327	3,030.76	81.4675	3,030.76	81.7995	3,030.76	81.4902	3,030.76	81.0341	3,030.76	81.2459	3,030.76	80.3807	3,030.76	80.5032	3,030.76	79.114	3,030.76	79.5022	3,030.76	77.0144	3,030.76	78.1338	3,030.76	75.7667	3,030.76	76.735	3,030.76	73.2782	3,030.76	75.6214	3,030.76	72.0174	3,030.76	72.6901	3,030.76	71.5241	3,030.76	71.8774	3,030.76	68.2132	3,030.76	70.9469	3,030.76	70.3394	3,030.76	69.7241	3,030.76	70.5353	3,030.76	68.5876	3,030.76	71.0405	3,030.76	69.7085	3,030.76	68.2282	3,030.76	69.8907	3,030.76	69.1797	3,030.76	65.5334	3,030.76	68.319
3,137.7	81.2496	3,137.7	81.4194	3,137.7	81.2585	3,137.7	81.5088	3,137.7	81.3654	3,137.7	81.6243	3,137.7	81.4264	3,137.7	81.1883	3,137.7	81.5452	3,137.7	80.0298	3,137.7	80.934	3,137.7	79.2375	3,137.7	79.9334	3,137.7	77.4683	3,137.7	78.561	3,137.7	75.7919	3,137.7	76.6599	3,137.7	74.1218	3,137.7	75.6787	3,137.7	72.0633	3,137.7	73.5223	3,137.7	71.7181	3,137.7	71.9298	3,137.7	70.3195	3,137.7	70.0641	3,137.7	68.4925	3,137.7	69.1835	3,137.7	67.7655	3,137.7	69.7033	3,137.7	71.1315	3,137.7	68.8561	3,137.7	67.5595	3,137.7	70.0395	3,137.7	64.9607	3,137.7	66.8127	3,137.7	67.0754
3,249.02	80.6716	3,249.02	80.7066	3,249.02	80.4505	3,249.02	80.8501	3,249.02	80.5555	3,249.02	81.5939	3,249.02	80.9812	3,249.02	81.3995	3,249.02	81.4016	3,249.02	80.4137	3,249.02	80.9322	3,249.02	79.456	3,249.02	79.7073	3,249.02	77.7281	3,249.02	78.7307	3,249.02	76.1018	3,249.02	76.9638	3,249.02	74.2584	3,249.02	75.5475	3,249.02	71.9451	3,249.02	73.7545	3,249.02	71.8667	3,249.02	71.4662	3,249.02	69.6169	3,249.02	70.9427	3,249.02	70.4058	3,249.02	68.4805	3,249.02	69.3628	3,249.02	69.9939	3,249.02	70.9634	3,249.02	68.6145	3,249.02	66.8616	3,249.02	70.2494	3,249.02	66.9349	3,249.02	64.8095	3,249.02	68.5861
3,363.28	80.1196	3,363.28	80.7052	3,363.28	79.9325	3,363.28	81.1166	3,363.28	80.9271	3,363.28	81.4639	3,363.28	81.2759	3,363.28	81.7253	3,363.28	81.6996	3,363.28	80.5581	3,363.28	81.1863	3,363.28	78.9271	3,363.28	80.0304	3,363.28	78.0775	3,363.28	78.8952	3,363.28	76.0207	3,363.28	77.1906	3,363.28	74.5726	3,363.28	75.3314	3,363.28	71.7954	3,363.28	73.3613	3,363.28	70.7639	3,363.28	70.463	3,363.28	69.6099	3,363.28	70.4985	3,363.28	70.5474	3,363.28	69.4635	3,363.28	70.0306	3,363.28	70.3266	3,363.28	70.8444	3,363.28	68.893	3,363.28	66.9443	3,363.28	70.0836	3,363.28	68.2582	3,363.28	63.5486	3,363.28	68.9699
3,481.93	79.7433	3,481.93	80.4106	3,481.93	80.2023	3,481.93	81.4367	3,481.93	80.5276	3,481.93	80.8723	3,481.93	81.1437	3,481.93	81.3277	3,481.93	81.6659	3,481.93	80.3506	3,481.93	81.7928	3,481.93	79.0539	3,481.93	80.3827	3,481.93	77.7433	3,481.93	78.1467	3,481.93	75.622	3,481.93	76.6123	3,481.93	74.6834	3,481.93	75.2318	3,481.93	72.3524	3,481.93	73.798	3,481.93	70.6143	3,481.93	71.7579	3,481.93	67.9152	3,481.93	70.2607	3,481.93	69.2172	3,481.93	66.5536	3,481.93	70.2285	3,481.93	69.3058	3,481.93	70.2507	3,481.93	68.7494	3,481.93	68.9366	3,481.93	71.2271	3,481.93	67.8935	3,481.93	65.8282	3,481.93	68.5463
3,604.98	78.9377	3,604.98	80.0597	3,604.98	78.9547	3,604.98	81.5991	3,604.98	80.3215	3,604.98	82.7108	3,604.98	81.5604	3,604.98	81.7598	3,604.98	81.8218	3,604.98	81.1298	3,604.98	81.2624	3,604.98	79.9922	3,604.98	80.0541	3,604.98	77.6147	3,604.98	78.7473	3,604.98	75.2586	3,604.98	76.6386	3,604.98	74.1196	3,604.98	74.7339	3,604.98	71.7536	3,604.98	73.2058	3,604.98	70.0736	3,604.98	70.0165	3,604.98	69.0751	3,604.98	70	3,604.98	69.0722	3,604.98	69.1615	3,604.98	70.1308	3,604.98	68.6954	3,604.98	70.103	3,604.98	69.7906	3,604.98	68.5928	3,604.98	71.3682	3,604.98	65.986	3,604.98	66.5297	3,604.98	68.0379
3,732.42	78.854	3,732.42	79.7694	3,732.42	78.5827	3,732.42	81.3614	3,732.42	80.4627	3,732.42	82.7341	3,732.42	81.6779	3,732.42	82.3863	3,732.42	82.25	3,732.42	81.2697	3,732.42	81.5627	3,732.42	79.4637	3,732.42	80.4198	3,732.42	77.7871	3,732.42	78.5779	3,732.42	75.5879	3,732.42	77.107	3,732.42	74.0089	3,732.42	74.525	3,732.42	71.6282	3,732.42	72.2624	3,732.42	70.3382	3,732.42	70.6254	3,732.42	70.0269	3,732.42	70.4589	3,732.42	68.4194	3,732.42	69.1812	3,732.42	69.3646	3,732.42	68.867	3,732.42	70.8148	3,732.42	69.5229	3,732.42	68.3937	3,732.42	70.4006	3,732.42	66.1285	3,732.42	65.5674	3,732.42	68.0643
3,864.26	79.0178	3,864.26	79.6778	3,864.26	79.601	3,864.26	81.5102	3,864.26	80.188	3,864.26	81.731	3,864.26	81.831	3,864.26	81.9075	3,864.26	82.4401	3,864.26	81.0886	3,864.26	82.2132	3,864.26	79.6481	3,864.26	80.8033	3,864.26	77.7956	3,864.26	78.8152	3,864.26	76.3477	3,864.26	76.9024	3,864.26	74.737	3,864.26	75.2413	3,864.26	72.7562	3,864.26	73.8403	3,864.26	70.3129	3,864.26	72.3344	3,864.26	69.7855	3,864.26	69.6264	3,864.26	68.5159	3,864.26	67.2897	3,864.26	69.8555	3,864.26	69.7879	3,864.26	69.9555	3,864.26	69.7693	3,864.26	69.1171	3,864.26	70.2183	3,864.26	65.8902	3,864.26	65.9197	3,864.26	68.9882
4,000.49	79.0862	4,000.49	80.4837	4,000.49	79.5968	4,000.49	81.9307	4,000.49	80.8465	4,000.49	82.4384	4,000.49	82.0002	4,000.49	81.9	4,000.49	82.8167	4,000.49	81.6281	4,000.49	82.2024	4,000.49	79.9582	4,000.49	80.5417	4,000.49	77.5193	4,000.49	79.4078	4,000.49	75.9091	4,000.49	77.3643	4,000.49	73.825	4,000.49	74.5013	4,000.49	71.9632	4,000.49	73.0108	4,000.49	70.3218	4,000.49	70.5113	4,000.49	69.7051	4,000.49	70.1921	4,000.49	68.2726	4,000.49	69.4842	4,000.49	70.3913	4,000.49	67.9278	4,000.49	70.1771	4,000.49	70.2792	4,000.49	68.7555	4,000.49	71.2903	4,000.49	66.4712	4,000.49	67.839	4,000.49	67.3721
4,141.11	79.4882	4,141.11	81.7533	4,141.11	79.043	4,141.11	82.2646	4,141.11	81.5253	4,141.11	83.714	4,141.11	82.33	4,141.11	83.6332	4,141.11	82.4341	4,141.11	82.1664	4,141.11	81.1026	4,141.11	79.9017	4,141.11	80.8809	4,141.11	78.9091	4,141.11	79.1185	4,141.11	75.3141	4,141.11	77.3486	4,141.11	73.4397	4,141.11	74.6123	4,141.11	71.7528	4,141.11	73.6323	4,141.11	68.1078	4,141.11	72.2923	4,141.11	69.2832	4,141.11	70.7807	4,141.11	69.3242	4,141.11	69.692	4,141.11	69.9322	4,141.11	68.4726	4,141.11	70.7254	4,141.11	70.5243	4,141.11	70.3096	4,141.11	70.8766	4,141.11	61.5486	4,141.11	68.9162	4,141.11	68.4682
4,287.6	80.2625	4,287.6	79.648	4,287.6	81.2392	4,287.6	82.5455	4,287.6	81.0005	4,287.6	82.8186	4,287.6	82.8536	4,287.6	82.4996	4,287.6	82.4177	4,287.6	80.9034	4,287.6	82.8837	4,287.6	79.6572	4,287.6	81.3006	4,287.6	77.597	4,287.6	79.3471	4,287.6	76.4638	4,287.6	77.8578	4,287.6	74.4876	4,287.6	75.7134	4,287.6	73.0073	4,287.6	73.8516	4,287.6	71.4895	4,287.6	71.5925	4,287.6	70.7614	4,287.6	69.9426	4,287.6	67.4142	4,287.6	69.8011	4,287.6	69.5956	4,287.6	69.4099	4,287.6	70.877	4,287.6	70.793	4,287.6	70.6885	4,287.6	70.8391	4,287.6	66.7833	4,287.6	66.999	4,287.6	67.7356
4,438.48	80.5442	4,438.48	82.1525	4,438.48	80.8656	4,438.48	82.4777	4,438.48	82.8261	4,438.48	82.935	4,438.48	83.4335	4,438.48	82.3802	4,438.48	83.947	4,438.48	82.4437	4,438.48	83.5285	4,438.48	81.0355	4,438.48	81.5282	4,438.48	78.9528	4,438.48	79.9645	4,438.48	77.877	4,438.48	78.0225	4,438.48	75.3553	4,438.48	76.0374	4,438.48	72.8995	4,438.48	74.2322	4,438.48	71.2408	4,438.48	72.3964	4,438.48	70.2035	4,438.48	69.9679	4,438.48	68.9155	4,438.48	70.0132	4,438.48	69.2334	4,438.48	68.7911	4,438.48	70.8562	4,438.48	70.973	4,438.48	70.9333	4,438.48	70.6026	4,438.48	65.5434	4,438.48	68.6197	4,438.48	68.9198
4,595.21	80.6469	4,595.21	81.2192	4,595.21	81.0321	4,595.21	82.479	4,595.21	81.8156	4,595.21	84.0203	4,595.21	82.9351	4,595.21	83.3612	4,595.21	83.4217	4,595.21	82.1957	4,595.21	82.462	4,595.21	80.9082	4,595.21	82.3824	4,595.21	79.9157	4,595.21	80.8992	4,595.21	76.341	4,595.21	78.8392	4,595.21	73.3857	4,595.21	76.0146	4,595.21	72.4683	4,595.21	73.835	4,595.21	69.7472	4,595.21	71.9911	4,595.21	69.0702	4,595.21	69.7757	4,595.21	67.6054	4,595.21	69.3264	4,595.21	70.5187	4,595.21	67.8025	4,595.21	70.0913	4,595.21	71.7273	4,595.21	71.2995	4,595.21	71.0789	4,595.21	65.7539	4,595.21	70.197	4,595.21	65.8984
4,756.35	80.9771	4,756.35	81.1508	4,756.35	81.6846	4,756.35	83.4253	4,756.35	81.6579	4,756.35	82.962	4,756.35	83.349	4,756.35	83.1744	4,756.35	83.6038	4,756.35	82.2815	4,756.35	83.6594	4,756.35	80.6082	4,756.35	82.1594	4,756.35	78.9244	4,756.35	80.2769	4,756.35	77.8153	4,756.35	78.9708	4,756.35	75.4075	4,756.35	76.7375	4,756.35	74.2505	4,756.35	74.9972	4,756.35	71.257	4,756.35	73.2205	4,756.35	69.8869	4,756.35	71.0231	4,756.35	68.2914	4,756.35	70.3396	4,756.35	70.6473	4,756.35	69.5648	4,756.35	71.8884	4,756.35	71.2208	4,756.35	70.8507	4,756.35	71.2323	4,756.35	65.4123	4,756.35	70.5482	4,756.35	68.6954
4,924.8	82.3372	4,924.8	83.2827	4,924.8	81.5381	4,924.8	81.6467	4,924.8	83.122	4,924.8	82.4439	4,924.8	83.0703	4,924.8	82.1625	4,924.8	84.1049	4,924.8	81.9305	4,924.8	83.4184	4,924.8	80.6548	4,924.8	82.2079	4,924.8	78.4944	4,924.8	80.7232	4,924.8	76.511	4,924.8	78.9622	4,924.8	75.3787	4,924.8	77.0317	4,924.8	73.1278	4,924.8	74.7828	4,924.8	69.8589	4,924.8	71.9932	4,924.8	68.9412	4,924.8	69.4905	4,924.8	68.781	4,924.8	68.7585	4,924.8	68.9832	4,924.8	67.1049	4,924.8	70.6934	4,924.8	71.1276	4,924.8	71.1173	4,924.8	70.8428	4,924.8	63.7924	4,924.8	70.2787	4,924.8	66.6122
5,097.66	83.0814	5,097.66	81.5586	5,097.66	83.4731	5,097.66	83.0774	5,097.66	81.8023	5,097.66	83.3565	5,097.66	82.749	5,097.66	83.1654	5,097.66	82.5192	5,097.66	82.5064	5,097.66	82.7542	5,097.66	81.648	5,097.66	82.566	5,097.66	80.0185	5,097.66	80.6916	5,097.66	77.5803	5,097.66	79.2022	5,097.66	75.0619	5,097.66	75.7461	5,097.66	72.4133	5,097.66	74.046	5,097.66	71.2185	5,097.66	72.6686	5,097.66	69.4648	5,097.66	69.6661	5,097.66	67.4095	5,097.66	69.3412	5,097.66	68.7962	5,097.66	67.7528	5,097.66	70.3491	5,097.66	70.7499	5,097.66	71.8318	5,097.66	71.2837	5,097.66	65.3402	5,097.66	70.0053	5,097.66	66.2696
5,277.83	83.8376	5,277.83	83.1939	5,277.83	83.276	5,277.83	81.7651	5,277.83	82.6053	5,277.83	82.1653	5,277.83	82.3943	5,277.83	82.5752	5,277.83	82.7737	5,277.83	82.6173	5,277.83	83.1082	5,277.83	81.3998	5,277.83	82.563	5,277.83	79.034	5,277.83	81.3476	5,277.83	77.33	5,277.83	78.8894	5,277.83	73.796	5,277.83	76.0461	5,277.83	72.2744	5,277.83	73.5379	5,277.83	70.6333	5,277.83	72.482	5,277.83	67.6446	5,277.83	71.2069	5,277.83	68.2621	5,277.83	70.0246	5,277.83	68.9091	5,277.83	67.2153	5,277.83	68.4605	5,277.83	69.8659	5,277.83	69.9118	5,277.83	69.8848	5,277.83	64.457	5,277.83	70.353	5,277.83	66.9549
5,463.87	83.8775	5,463.87	82.6309	5,463.87	84.0574	5,463.87	81.2711	5,463.87	82.5644	5,463.87	81.5214	5,463.87	81.7842	5,463.87	81.8062	5,463.87	82.1507	5,463.87	81.8205	5,463.87	82.7472	5,463.87	80.2972	5,463.87	81.7462	5,463.87	78.6285	5,463.87	80.3324	5,463.87	76.4627	5,463.87	78.3046	5,463.87	73.5372	5,463.87	75.8014	5,463.87	71.7103	5,463.87	73.7989	5,463.87	70.9189	5,463.87	71.1382	5,463.87	67.1557	5,463.87	69.3316	5,463.87	68.3967	5,463.87	69.5957	5,463.87	68.856	5,463.87	68.3744	5,463.87	68.5199	5,463.87	69.5625	5,463.87	70.9582	5,463.87	70.3465	5,463.87	64.4393	5,463.87	69.7624	5,463.87	64.6978
5,657.23	84.6913	5,657.23	83.3997	5,657.23	84.0561	5,657.23	82.3263	5,657.23	82.2632	5,657.23	81.7726	5,657.23	81.3455	5,657.23	82.3268	5,657.23	81.7927	5,657.23	82.0456	5,657.23	82.1395	5,657.23	80.8582	5,657.23	81.6559	5,657.23	79.0547	5,657.23	80.0173	5,657.23	76.1892	5,657.23	77.7627	5,657.23	73.6813	5,657.23	75.8804	5,657.23	70.7156	5,657.23	73.6971	5,657.23	68.2657	5,657.23	71.3623	5,657.23	67.3869	5,657.23	68.1755	5,657.23	63.9281	5,657.23	66.7765	5,657.23	66.6583	5,657.23	67.463	5,657.23	69.7071	5,657.23	68.2227	5,657.23	70.3438	5,657.23	69.7519	5,657.23	64.0137	5,657.23	69.0821	5,657.23	64.6264
5,856.45	85.1152	5,856.45	84.1175	5,856.45	84.8883	5,856.45	82.0471	5,856.45	83.0031	5,856.45	81.5824	5,856.45	81.7328	5,856.45	81.7879	5,856.45	82.1622	5,856.45	81.6856	5,856.45	82.5438	5,856.45	80.1183	5,856.45	81.6314	5,856.45	77.4026	5,856.45	79.9771	5,856.45	74.7693	5,856.45	77.9093	5,856.45	73.5059	5,856.45	75.8763	5,856.45	70.4764	5,856.45	73.2408	5,856.45	69.2983	5,856.45	71.4502	5,856.45	65.2801	5,856.45	69.7566	5,856.45	65.9904	5,856.45	67.9736	5,856.45	66.894	5,856.45	66.3401	5,856.45	68.5633	5,856.45	67.7484	5,856.45	69.6611	5,856.45	68.8913	5,856.45	63.001	5,856.45	68.5257	5,856.45	61.4243
6,062.99	85.4873	6,062.99	84.079	6,062.99	85.3448	6,062.99	82.8818	6,062.99	83.9584	6,062.99	82.0797	6,062.99	82.5949	6,062.99	82.2147	6,062.99	82.6827	6,062.99	81.6708	6,062.99	82.933	6,062.99	79.6643	6,062.99	82.2015	6,062.99	77.1391	6,062.99	80.1546	6,062.99	75.8211	6,062.99	78.0557	6,062.99	73.2904	6,062.99	75.6167	6,062.99	70.3751	6,062.99	73.2945	6,062.99	68.5511	6,062.99	70.4427	6,062.99	67.8279	6,062.99	67.5335	6,062.99	67.3477	6,062.99	66.0809	6,062.99	65.1617	6,062.99	66.853	6,062.99	67.9301	6,062.99	68.3024	6,062.99	69.3037	6,062.99	69.1439	6,062.99	62.3348	6,062.99	68.5597	6,062.99	60.73
6,276.86	85.7309	6,276.86	84.6731	6,276.86	85.5864	6,276.86	83.0002	6,276.86	84.1294	6,276.86	82.3547	6,276.86	83.2376	6,276.86	82.5742	6,276.86	83.0532	6,276.86	82.1993	6,276.86	83.0477	6,276.86	80.4657	6,276.86	82.1676	6,276.86	78.008	6,276.86	80.1692	6,276.86	74.9485	6,276.86	77.9405	6,276.86	73.1214	6,276.86	75.353	6,276.86	70.7477	6,276.86	72.5073	6,276.86	67.9543	6,276.86	71.3727	6,276.86	64.7837	6,276.86	68.002	6,276.86	66.1871	6,276.86	65.9975	6,276.86	64.2483	6,276.86	65.29	6,276.86	68.0244	6,276.86	67.8812	6,276.86	68.8699	6,276.86	69.0868	6,276.86	61.4853	6,276.86	68.9571	6,276.86	62.6454
6,498.05	86.1423	6,498.05	85.1432	6,498.05	85.9195	6,498.05	83.9481	6,498.05	84.8648	6,498.05	83.2669	6,498.05	83.7817	6,498.05	83.1038	6,498.05	83.5045	6,498.05	82.0311	6,498.05	83.4566	6,498.05	79.7746	6,498.05	82.0113	6,498.05	76.9697	6,498.05	79.7041	6,498.05	75.1033	6,498.05	77.4877	6,498.05	72.3016	6,498.05	74.7929	6,498.05	67.2308	6,498.05	72.0528	6,498.05	66.9735	6,498.05	69.4819	6,498.05	63.7833	6,498.05	66.4572	6,498.05	64.7925	6,498.05	64.8954	6,498.05	64.5453	6,498.05	65.2154	6,498.05	65.9899	6,498.05	66.0242	6,498.05	68.105	6,498.05	68.7172	6,498.05	61.7828	6,498.05	67.8144	6,498.05	60.0483
6,726.56	86.3227	6,726.56	85.5665	6,726.56	86.38	6,726.56	84.3631	6,726.56	85.4255	6,726.56	83.3005	6,726.56	84.4426	6,726.56	82.5875	6,726.56	83.8896	6,726.56	81.4891	6,726.56	83.3199	6,726.56	79.37	6,726.56	82.152	6,726.56	76.7193	6,726.56	80.0801	6,726.56	73.7618	6,726.56	77.4004	6,726.56	70.5657	6,726.56	74.0162	6,726.56	67.7438	6,726.56	71.3058	6,726.56	66.6599	6,726.56	69.2552	6,726.56	63.1143	6,726.56	67.1124	6,726.56	63.6601	6,726.56	64.9456	6,726.56	63.1534	6,726.56	64.1719	6,726.56	66.2405	6,726.56	65.8737	6,726.56	67.3348	6,726.56	68.2415	6,726.56	60.4967	6,726.56	67.5693	6,726.56	58.8191
6,963.87	85.8788	6,963.87	85.3693	6,963.87	85.6677	6,963.87	84.1294	6,963.87	85.0781	6,963.87	83.3466	6,963.87	84.0049	6,963.87	82.5331	6,963.87	83.3352	6,963.87	81.053	6,963.87	82.8521	6,963.87	78.7704	6,963.87	81.1326	6,963.87	76.5109	6,963.87	78.8673	6,963.87	74.1944	6,963.87	76.1048	6,963.87	70.5711	6,963.87	73.5258	6,963.87	67.9008	6,963.87	70.5443	6,963.87	66.7212	6,963.87	67.7396	6,963.87	64.3865	6,963.87	65.5373	6,963.87	62.6968	6,963.87	63.5871	6,963.87	61.8136	6,963.87	63.4299	6,963.87	64.7469	6,963.87	63.1979	6,963.87	67.0339	6,963.87	66.8124	6,963.87	62.308	6,963.87	65.9145	6,963.87	58.283
7,209.96	85.6894	7,209.96	85.1476	7,209.96	85.716	7,209.96	83.9222	7,209.96	84.8622	7,209.96	82.7433	7,209.96	83.8358	7,209.96	81.8823	7,209.96	82.7338	7,209.96	80.5908	7,209.96	81.8094	7,209.96	78.5688	7,209.96	80.4834	7,209.96	76.1513	7,209.96	78.8033	7,209.96	73.2169	7,209.96	75.4025	7,209.96	70.6681	7,209.96	72.8785	7,209.96	68.0079	7,209.96	70.2024	7,209.96	65.1734	7,209.96	67.3614	7,209.96	61.5266	7,209.96	65.4328	7,209.96	61.4291	7,209.96	62.7169	7,209.96	60.893	7,209.96	61.4608	7,209.96	64.5443	7,209.96	62.1109	7,209.96	65.5056	7,209.96	65.5352	7,209.96	60.7071	7,209.96	64.3179	7,209.96	55.8114
7,464.84	85.1929	7,464.84	84.7502	7,464.84	85.269	7,464.84	83.9826	7,464.84	84.6239	7,464.84	82.8181	7,464.84	83.3232	7,464.84	81.6799	7,464.84	82.1144	7,464.84	80.0045	7,464.84	81.5313	7,464.84	78.4507	7,464.84	79.743	7,464.84	75.444	7,464.84	77.4727	7,464.84	72.4495	7,464.84	74.7981	7,464.84	70.2843	7,464.84	72.0405	7,464.84	67.4122	7,464.84	69.3133	7,464.84	64.8559	7,464.84	66.9315	7,464.84	61.9548	7,464.84	64.1215	7,464.84	60.2913	7,464.84	62.3001	7,464.84	59.6683	7,464.84	62.4546	7,464.84	64.0251	7,464.84	58.4978	7,464.84	65.0301	7,464.84	64.9575	7,464.84	59.9263	7,464.84	64.4984	7,464.84	52.1006
7,727.05	85.3744	7,727.05	85.1311	7,727.05	85.4449	7,727.05	84.2439	7,727.05	84.9655	7,727.05	82.2489	7,727.05	83.6881	7,727.05	81.2189	7,727.05	81.8652	7,727.05	80.3872	7,727.05	80.8203	7,727.05	78.2806	7,727.05	79.6325	7,727.05	75.4898	7,727.05	77.3869	7,727.05	72.8797	7,727.05	74.4738	7,727.05	69.286	7,727.05	71.4747	7,727.05	66.94	7,727.05	68.4441	7,727.05	64.591	7,727.05	65.5104	7,727.05	61.9065	7,727.05	63.759	7,727.05	60.3831	7,727.05	60.3714	7,727.05	60.1369	7,727.05	60.8654	7,727.05	64.2931	7,727.05	59.9352	7,727.05	63.9026	7,727.05	63.8543	7,727.05	58.2634	7,727.05	63.4601	7,727.05	43.0529
7,999.51	85.5172	7,999.51	85.5939	7,999.51	85.5264	7,999.51	84.5612	7,999.51	85.2004	7,999.51	82.872	7,999.51	83.4876	7,999.51	81.5675	7,999.51	82.0675	7,999.51	80.3437	7,999.51	81.2252	7,999.51	78.2683	7,999.51	79.7868	7,999.51	75.173	7,999.51	77.3551	7,999.51	72.0774	7,999.51	74.165	7,999.51	69.2903	7,999.51	70.9561	7,999.51	66.6927	7,999.51	67.9015	7,999.51	63.5204	7,999.51	64.6952	7,999.51	61.6718	7,999.51	62.1132	7,999.51	60.2533	7,999.51	59.2763	7,999.51	59.7152	7,999.51	59.6546	7,999.51	63.8767	7,999.51	55.5423	7,999.51	62.6882	7,999.51	62.885	7,999.51	57.7788	7,999.51	62.8729	7,999.51	49.6256
8,282.23	85.9826	8,282.23	86.0063	8,282.23	85.9706	8,282.23	84.7634	8,282.23	85.8468	8,282.23	82.6823	8,282.23	84.3699	8,282.23	81.7867	8,282.23	82.8081	8,282.23	80.7357	8,282.23	81.8638	8,282.23	78.2179	8,282.23	79.9377	8,282.23	74.6659	8,282.23	77.4205	8,282.23	71.8624	8,282.23	73.9921	8,282.23	68.7836	8,282.23	70.6946	8,282.23	66.0835	8,282.23	68.2689	8,282.23	63.7697	8,282.23	64.5802	8,282.23	62.6493	8,282.23	62.2579	8,282.23	59.8846	8,282.23	60.2473	8,282.23	58.434	8,282.23	59.298	8,282.23	63.763	8,282.23	58.9646	8,282.23	62.5563	8,282.23	63.0894	8,282.23	56.7193	8,282.23	62.5078	8,282.23	47.4528
8,573.73	86.2908	8,573.73	86.3288	8,573.73	86.361	8,573.73	85.2418	8,573.73	86.1207	8,573.73	83.3413	8,573.73	84.7579	8,573.73	82.2811	8,573.73	83.1612	8,573.73	80.7987	8,573.73	81.9475	8,573.73	78.1636	8,573.73	80.1651	8,573.73	74.7049	8,573.73	77.2776	8,573.73	71.7432	8,573.73	73.6928	8,573.73	68.5546	8,573.73	70.402	8,573.73	65.6218	8,573.73	67.9574	8,573.73	63.2393	8,573.73	64.4034	8,573.73	61.6541	8,573.73	62.1627	8,573.73	58.0799	8,573.73	58.9217	8,573.73	55.5111	8,573.73	58.128	8,573.73	62.1763	8,573.73	56.0479	8,573.73	62.3861	8,573.73	62.8043	8,573.73	54.335	8,573.73	60.8059	8,573.73	48.6412
8,876.95	86.2561	8,876.95	86.3032	8,876.95	86.3402	8,876.95	85.1639	8,876.95	85.95	8,876.95	83.2892	8,876.95	84.5527	8,876.95	81.9776	8,876.95	82.9434	8,876.95	80.067	8,876.95	81.6933	8,876.95	77.3958	8,876.95	79.467	8,876.95	73.9922	8,876.95	76.3659	8,876.95	70.7764	8,876.95	72.273	8,876.95	67.2044	8,876.95	69.2136	8,876.95	64.2583	8,876.95	67.127	8,876.95	60.9775	8,876.95	63.2393	8,876.95	60.0291	8,876.95	61.1524	8,876.95	56.2949	8,876.95	59.0487	8,876.95	53.1936	8,876.95	56.7713	8,876.95	60.5804	8,876.95	55.5834	8,876.95	61.701	8,876.95	61.2284	8,876.95	53.3621	8,876.95	60.6315	8,876.95	46.828
9,188.96	86.2443	9,188.96	86.1651	9,188.96	86.3437	9,188.96	84.8543	9,188.96	85.8501	9,188.96	82.9619	9,188.96	84.3113	9,188.96	81.4604	9,188.96	82.5944	9,188.96	79.5631	9,188.96	81.2174	9,188.96	76.5006	9,188.96	78.5662	9,188.96	72.9499	9,188.96	75.3153	9,188.96	70.0538	9,188.96	71.4575	9,188.96	66.6279	9,188.96	68.2958	9,188.96	63.4565	9,188.96	65.7389	9,188.96	61.2898	9,188.96	62.4499	9,188.96	58.5927	9,188.96	59.9103	9,188.96	55.5267	9,188.96	58.0272	9,188.96	52.9798	9,188.96	54.8851	9,188.96	58.2991	9,188.96	53.9496	9,188.96	60.8384	9,188.96	60.0399	9,188.96	53.893	9,188.96	58.889	9,188.96	48.4435
9,514.16	86.2927	9,514.16	86.0207	9,514.16	86.4157	9,514.16	84.7474	9,514.16	85.713	9,514.16	82.6779	9,514.16	84.1288	9,514.16	81.3569	9,514.16	82.3921	9,514.16	79.0748	9,514.16	80.8449	9,514.16	75.8195	9,514.16	78.0387	9,514.16	72.2341	9,514.16	74.7716	9,514.16	69.4132	9,514.16	70.9772	9,514.16	66.5145	9,514.16	68.1705	9,514.16	63.0443	9,514.16	65.3138	9,514.16	60.9929	9,514.16	62.2597	9,514.16	57.2666	9,514.16	60.0861	9,514.16	54.5849	9,514.16	58.0842	9,514.16	54.766	9,514.16	52.0098	9,514.16	57.1688	9,514.16	54.8017	9,514.16	58.8078	9,514.16	59.5998	9,514.16	52.6986	9,514.16	57.7872	9,514.16	48.2556
9,849.61	86.4137	9,849.61	86.0452	9,849.61	86.4257	9,849.61	84.8915	9,849.61	85.7533	9,849.61	82.7594	9,849.61	84.1351	9,849.61	81.1804	9,849.61	82.2312	9,849.61	78.8169	9,849.61	80.3302	9,849.61	75.7669	9,849.61	77.4382	9,849.61	71.9225	9,849.61	74.4334	9,849.61	69.1082	9,849.61	70.6978	9,849.61	65.961	9,849.61	67.3878	9,849.61	63.1262	9,849.61	64.6629	9,849.61	60.5279	9,849.61	61.9327	9,849.61	58.1263	9,849.61	59.7063	9,849.61	55.1274	9,849.61	57.2052	9,849.61	54.5264	9,849.61	50.3323	9,849.61	57.9262	9,849.61	56.5549	9,849.61	58.538	9,849.61	58.8	9,849.61	47.899	9,849.61	56.0437	9,849.61	45.212
10,196.8	86.789	10,196.8	86.3492	10,196.8	86.6584	10,196.8	85.1731	10,196.8	86.0139	10,196.8	83.0483	10,196.8	84.3156	10,196.8	81.0993	10,196.8	82.1317	10,196.8	78.6242	10,196.8	79.9481	10,196.8	75.6411	10,196.8	77.2171	10,196.8	72.1898	10,196.8	74.3367	10,196.8	68.4023	10,196.8	70.1737	10,196.8	65.7592	10,196.8	66.9301	10,196.8	63.289	10,196.8	63.6379	10,196.8	60.3468	10,196.8	61.7325	10,196.8	58.2102	10,196.8	59.4612	10,196.8	56.3398	10,196.8	57.2002	10,196.8	53.7967	10,196.8	50.1277	10,196.8	57.9725	10,196.8	56.1689	10,196.8	58.6529	10,196.8	57.9343	10,196.8	44.4235	10,196.8	55.0935	10,196.8	43.3209
10,555.7	87.2503	10,555.7	86.736	10,555.7	87.0764	10,555.7	85.4809	10,555.7	86.4035	10,555.7	83.1937	10,555.7	84.7045	10,555.7	80.9599	10,555.7	82.2551	10,555.7	78.3964	10,555.7	80.0148	10,555.7	75.0848	10,555.7	77.4737	10,555.7	71.583	10,555.7	74.4111	10,555.7	67.7495	10,555.7	70.3946	10,555.7	65.1675	10,555.7	67.0537	10,555.7	62.8568	10,555.7	64.0095	10,555.7	60.5155	10,555.7	61.6573	10,555.7	59.2716	10,555.7	58.4776	10,555.7	54.8299	10,555.7	57.2506	10,555.7	52.2329	10,555.7	53.0464	10,555.7	57.7816	10,555.7	54.9133	10,555.7	58.439	10,555.7	56.8508	10,555.7	45.2286	10,555.7	55.0633	10,555.7	43.4914
10,927.7	87.5881	10,927.7	86.9305	10,927.7	87.4614	10,927.7	85.7197	10,927.7	86.7214	10,927.7	83.1086	10,927.7	84.9158	10,927.7	80.5977	10,927.7	82.3095	10,927.7	77.9389	10,927.7	80.027	10,927.7	74.6469	10,927.7	77.3494	10,927.7	70.7013	10,927.7	74.1729	10,927.7	67.6564	10,927.7	70.7231	10,927.7	65.0847	10,927.7	66.8368	10,927.7	62.3303	10,927.7	64.1273	10,927.7	59.8541	10,927.7	61.51	10,927.7	60.8218	10,927.7	59.3725	10,927.7	55.3475	10,927.7	56.4045	10,927.7	52.2024	10,927.7	54.1897	10,927.7	56.6872	10,927.7	52.0858	10,927.7	58.2845	10,927.7	55.5051	10,927.7	37.0915	10,927.7	55.8424	10,927.7	43.1128
11,313	87.6649	11,313	86.8802	11,313	87.5633	11,313	85.7694	11,313	86.7414	11,313	82.7976	11,313	84.8029	11,313	80.2642	11,313	82.1258	11,313	77.7081	11,313	79.8589	11,313	74.2549	11,313	77.2777	11,313	70.1267	11,313	74.2127	11,313	67.5125	11,313	71.788	11,313	64.6187	11,313	66.9672	11,313	63.3147	11,313	64.5609	11,313	59.5852	11,313	62.6558	11,313	60.725	11,313	60.4795	11,313	55.5056	11,313	57.3984	11,313	51.6247	11,313	56.2193	11,313	56.9372	11,313	50.0634	11,313	59.42	11,313	54.8255	11,313	23.1944	11,313	58.0247	11,313	46.7667
11,712.9	87.4129	11,712.9	86.4677	11,712.9	87.2789	11,712.9	85.3538	11,712.9	86.4638	11,712.9	81.9551	11,712.9	84.4045	11,712.9	79.6712	11,712.9	81.6482	11,712.9	77.195	11,712.9	79.5147	11,712.9	73.055	11,712.9	77.2005	11,712.9	70.3755	11,712.9	74.6023	11,712.9	67.9272	11,712.9	72.7895	11,712.9	63.9367	11,712.9	68.0359	11,712.9	63.9382	11,712.9	65.4271	11,712.9	59.6749	11,712.9	64.1656	11,712.9	61.5171	11,712.9	59.9551	11,712.9	54.9561	11,712.9	59.1293	11,712.9	49.6044	11,712.9	56.6461	11,712.9	57.2011	11,712.9	52.6647	11,712.9	59.5964	11,712.9	55.2994	11,712.9	35.4165	11,712.9	59.722	11,712.9	49.7445
12,126	87.1809	12,126	86.1735	12,126	87.0415	12,126	84.8363	12,126	86.2366	12,126	81.1378	12,126	84.1683	12,126	78.6038	12,126	81.4219	12,126	75.7152	12,126	79.1866	12,126	72.0498	12,126	77.1707	12,126	71.5872	12,126	74.8974	12,126	69.3658	12,126	73.2351	12,126	64.03	12,126	69.5958	12,126	64.0154	12,126	65.8676	12,126	59.6162	12,126	64.7703	12,126	60.8475	12,126	56.972	12,126	53.6109	12,126	59.655	12,126	52.1444	12,126	55.0157	12,126	56.3735	12,126	54.1177	12,126	59.1356	12,126	55.5868	12,126	45.3555	12,126	59.5035	12,126	51.5294
12,553.7	87.107	12,553.7	86.1615	12,553.7	87.0011	12,553.7	84.5665	12,553.7	86.2699	12,553.7	80.7682	12,553.7	84.2766	12,553.7	77.5496	12,553.7	81.7313	12,553.7	74.5211	12,553.7	79.5177	12,553.7	72.7039	12,553.7	77.2897	12,553.7	71.8226	12,553.7	74.6811	12,553.7	69.6231	12,553.7	73.3448	12,553.7	64.4431	12,553.7	69.9638	12,553.7	64.2483	12,553.7	65.9353	12,553.7	59.5085	12,553.7	64.7652	12,553.7	60.6576	12,553.7	58.6372	12,553.7	52.3398	12,553.7	59.7684	12,553.7	52.0336	12,553.7	52.1509	12,553.7	52.9068	12,553.7	54.5708	12,553.7	57.2151	12,553.7	57.505	12,553.7	49.217	12,553.7	59.0521	12,553.7	50.9678
12,996.1	86.8536	12,996.1	86.0057	12,996.1	86.7153	12,996.1	84.3128	12,996.1	85.9819	12,996.1	80.19	12,996.1	83.8464	12,996.1	76.6074	12,996.1	81.4901	12,996.1	74.3932	12,996.1	78.9981	12,996.1	72.6396	12,996.1	76.5099	12,996.1	71.0056	12,996.1	73.7825	12,996.1	68.3671	12,996.1	72.617	12,996.1	62.559	12,996.1	68.8051	12,996.1	64.3173	12,996.1	64.0471	12,996.1	59.7212	12,996.1	64.1121	12,996.1	58.5663	12,996.1	59.2138	12,996.1	53.2151	12,996.1	59.1198	12,996.1	53.2766	12,996.1	51.5846	12,996.1	51.7873	12,996.1	52.2741	12,996.1	55.1172	12,996.1	57.4897	12,996.1	49.8378	12,996.1	59.8706	12,996.1	50.4448
13,454.6	86.1441	13,454.6	85.3369	13,454.6	86.0907	13,454.6	83.4265	13,454.6	85.3488	13,454.6	79.3401	13,454.6	83.0701	13,454.6	75.9865	13,454.6	80.8475	13,454.6	73.96	13,454.6	77.6388	13,454.6	70.8731	13,454.6	75.1554	13,454.6	70.6157	13,454.6	72.6959	13,454.6	66.8366	13,454.6	70.8582	13,454.6	62.8593	13,454.6	67.5125	13,454.6	61.2043	13,454.6	62.808	13,454.6	58.6438	13,454.6	62.2096	13,454.6	57.3569	13,454.6	59.793	13,454.6	51.9101	13,454.6	57.0958	13,454.6	52.0152	13,454.6	49.0403	13,454.6	42.8052	13,454.6	45.9393	13,454.6	52.9639	13,454.6	55.5975	13,454.6	50.0145	13,454.6	58.7341	13,454.6	51.3834
13,929.2	85.5011	13,929.2	84.6284	13,929.2	85.5718	13,929.2	82.5683	13,929.2	84.7773	13,929.2	78.4863	13,929.2	82.3981	13,929.2	75.1141	13,929.2	80.113	13,929.2	72.3134	13,929.2	76.2464	13,929.2	70.7188	13,929.2	73.7768	13,929.2	70.4981	13,929.2	70.5557	13,929.2	67.8947	13,929.2	66.4865	13,929.2	63.0572	13,929.2	65.5204	13,929.2	59.3813	13,929.2	60.8234	13,929.2	58.8503	13,929.2	59.1079	13,929.2	53.1884	13,929.2	57.4232	13,929.2	53.2038	13,929.2	54.693	13,929.2	53.0668	13,929.2	44.9475	13,929.2	43.0601	13,929.2	31.7124	13,929.2	50.7266	13,929.2	52.3148	13,929.2	48.1816	13,929.2	56.1463	13,929.2	52.4029
14,419.9	85.1271	14,419.9	84.2036	14,419.9	85.2511	14,419.9	82.0689	14,419.9	84.0833	14,419.9	78.0397	14,419.9	81.4858	14,419.9	74.2862	14,419.9	78.7763	14,419.9	70.9468	14,419.9	74.7591	14,419.9	70.1938	14,419.9	71.7005	14,419.9	69.5528	14,419.9	66.6685	14,419.9	67.504	14,419.9	62.0355	14,419.9	62.5118	14,419.9	62.5494	14,419.9	57.4814	14,419.9	58.1939	14,419.9	59.116	14,419.9	55.6762	14,419.9	45.1633	14,419.9	56.2326	14,419.9	53.8683	14,419.9	52.5576	14,419.9	51.0321	14,419.9	46.1437	14,419.9	46.351	14,419.9	42.6335	14,419.9	50.2476	14,419.9	45.5672	14,419.9	46.9291	14,419.9	54.9803	14,419.9	52.636
14,928.2	84.7346	14,928.2	83.4224	14,928.2	84.8083	14,928.2	81.0685	14,928.2	83.4481	14,928.2	76.3982	14,928.2	81.1863	14,928.2	73.4153	14,928.2	77.9957	14,928.2	70.64	14,928.2	73.759	14,928.2	70.3999	14,928.2	70.3416	14,928.2	69.3604	14,928.2	66.5196	14,928.2	67.7847	14,928.2	61.7287	14,928.2	64.0032	14,928.2	61.499	14,928.2	55.7157	14,928.2	58.1295	14,928.2	59.1675	14,928.2	53.6798	14,928.2	49.4604	14,928.2	53.2865	14,928.2	54.6769	14,928.2	52.0965	14,928.2	51.1116	14,928.2	47.0334	14,928.2	47.8747	14,928.2	48.4418	14,928.2	52.1118	14,928.2	46.0825	14,928.2	48.6978	14,928.2	54.4436	14,928.2	52.5165
15,455.6	84.6841	15,455.6	83.1379	15,455.6	84.8374	15,455.6	81.0849	15,455.6	83.5712	15,455.6	77.0725	15,455.6	81.4331	15,455.6	74.744	15,455.6	77.7412	15,455.6	71.7672	15,455.6	73.2833	15,455.6	70.9428	15,455.6	68.5833	15,455.6	69.5093	15,455.6	64.6074	15,455.6	68.241	15,455.6	56.0569	15,455.6	64.6185	15,455.6	59.6325	15,455.6	57.3307	15,455.6	55.5161	15,455.6	58.7323	15,455.6	50.5257	15,455.6	51.5971	15,455.6	50.9563	15,455.6	53.9474	15,455.6	54.0963	15,455.6	51.0376	15,455.6	47.7694	15,455.6	44.6559	15,455.6	48.6517	15,455.6	50.4474	15,455.6	45.3329	15,455.6	47.5878	15,455.6	53.4068	15,455.6	53.6628
16,000.5	84.5879	16,000.5	82.9642	16,000.5	84.6199	16,000.5	80.9838	16,000.5	82.9198	16,000.5	77.0486	16,000.5	80.1412	16,000.5	73.822	16,000.5	75.3148	16,000.5	70.8836	16,000.5	69.2816	16,000.5	70.7006	16,000.5	62.0642	16,000.5	68.4123	16,000.5	51.4917	16,000.5	67.7879	16,000.5	61.5263	16,000.5	63.4765	16,000.5	57.578	16,000.5	57.4844	16,000.5	54.3625	16,000.5	57.2843	16,000.5	48.6437	16,000.5	50.8177	16,000.5	52.7529	16,000.5	54.978	16,000.5	54.6935	16,000.5	51.8757	16,000.5	52.1654	16,000.5	43.8752	16,000.5	49.7375	16,000.5	49.1675	16,000.5	41.4913	16,000.5	45.2524	16,000.5	54.6246	16,000.5	53.9807
16,564.5	84.4206	16,564.5	82.8788	16,564.5	83.9945	16,564.5	80.8189	16,564.5	81.9676	16,564.5	76.8107	16,564.5	77.8077	16,564.5	74.3865	16,564.5	72.5185	16,564.5	72.3369	16,564.5	64.3658	16,564.5	70.9665	16,564.5	56.3066	16,564.5	69.2726	16,564.5	64.4574	16,564.5	68.0953	16,564.5	65.3836	16,564.5	63.6873	16,564.5	62.7832	16,564.5	57.85	16,564.5	59.5018	16,564.5	56.4325	16,564.5	53.2015	16,564.5	51.8101	16,564.5	54.8853	16,564.5	55.2501	16,564.5	53.9264	16,564.5	53.9723	16,564.5	52.5126	16,564.5	44.9089	16,564.5	50.4808	16,564.5	48.5449	16,564.5	47.3608	16,564.5	39.8261	16,564.5	54.2626	16,564.5	52.3991
17,148.9	84.668	17,148.9	83.6619	17,148.9	83.8676	17,148.9	81.3298	17,148.9	81.9348	17,148.9	77.3058	17,148.9	77.4333	17,148.9	74.7465	17,148.9	72.4404	17,148.9	71.2513	17,148.9	64.9161	17,148.9	68.6161	17,148.9	61.1249	17,148.9	67.5202	17,148.9	64.1062	17,148.9	66.6181	17,148.9	62.8448	17,148.9	61.193	17,148.9	60.9946	17,148.9	55.3313	17,148.9	57.6372	17,148.9	56.2036	17,148.9	51.4662	17,148.9	49.4202	17,148.9	53.8582	17,148.9	53.5892	17,148.9	49.2014	17,148.9	50.7688	17,148.9	50.2577	17,148.9	40.137	17,148.9	42.7909	17,148.9	39.0667	17,148.9	45.67	17,148.9	33.6941	17,148.9	51.4413	17,148.9	48.0776
17,752.4	85.2278	17,752.4	84.3236	17,752.4	84.2577	17,752.4	81.4513	17,752.4	82.1376	17,752.4	76.4413	17,752.4	76.895	17,752.4	73.0113	17,752.4	71.0402	17,752.4	69.1057	17,752.4	62.0151	17,752.4	68.8373	17,752.4	66.1406	17,752.4	68.4811	17,752.4	69.0085	17,752.4	68.1298	17,752.4	66.7978	17,752.4	63.5893	17,752.4	64.7097	17,752.4	57.5997	17,752.4	62.0285	17,752.4	58.6162	17,752.4	55.3547	17,752.4	54.0448	17,752.4	57.165	17,752.4	56.0524	17,752.4	47.6379	17,752.4	51.5489	17,752.4	51.9376	17,752.4	47.811	17,752.4	50.8716	17,752.4	18.9027	17,752.4	49.1183	17,752.4	39.567	17,752.4	51.717	17,752.4	43.3691
18,379.4	84.1146	18,379.4	83.2189	18,379.4	83.3971	18,379.4	79.8499	18,379.4	80.8336	18,379.4	74.631	18,379.4	75.4674	18,379.4	71.1855	18,379.4	69.2698	18,379.4	69.1272	18,379.4	64.6708	18,379.4	70.3807	18,379.4	68.1499	18,379.4	69.3547	18,379.4	68.8755	18,379.4	68.5378	18,379.4	65.9825	18,379.4	64.485	18,379.4	64.482	18,379.4	58.8323	18,379.4	61.3586	18,379.4	58.9807	18,379.4	55.1627	18,379.4	56.9579	18,379.4	56.0644	18,379.4	56.1082	18,379.4	43.4663	18,379.4	50.8673	18,379.4	52.1178	18,379.4	47.873	18,379.4	51.1737	18,379.4	39.0914	18,379.4	47.2693	18,379.4	42.1773	18,379.4	50.0623	18,379.4	33.1465
19,026.9	83.0132	19,026.9	81.9721	19,026.9	82.5555	19,026.9	78.1653	19,026.9	79.4639	19,026.9	72.3541	19,026.9	74.497	19,026.9	68.7689	19,026.9	67.3145	19,026.9	69.5616	19,026.9	67.956	19,026.9	70.171	19,026.9	68.0539	19,026.9	68.7992	19,026.9	67.889	19,026.9	67.4966	19,026.9	65.5587	19,026.9	64.4378	19,026.9	64.3444	19,026.9	58.1678	19,026.9	62.3982	19,026.9	57.6509	19,026.9	54.3095	19,026.9	57.2899	19,026.9	55.4293	19,026.9	55.0937	19,026.9	42.57	19,026.9	49.9026	19,026.9	52.3162	19,026.9	47.8845	19,026.9	52.1477	19,026.9	45.8776	19,026.9	48.1812	19,026.9	44.6981	19,026.9	46.6086	19,026.9	45.6281
19,697.8	82.7278	19,697.8	81.2779	19,697.8	82.2856	19,697.8	77.5203	19,697.8	79.0044	19,697.8	71.2248	19,697.8	74.5174	19,697.8	68.3754	19,697.8	69.0741	19,697.8	69.9039	19,697.8	70.3855	19,697.8	69.4189	19,697.8	68.2325	19,697.8	67.8935	19,697.8	68.1143	19,697.8	66.3796	19,697.8	65.5149	19,697.8	63.2648	19,697.8	65.0536	19,697.8	58.2822	19,697.8	63.4911	19,697.8	54.6038	19,697.8	53.858	19,697.8	56.5017	19,697.8	53.868	19,697.8	53.6989	19,697.8	47.2053	19,697.8	47.7894	19,697.8	51.042	19,697.8	46.2762	19,697.8	53.2149	19,697.8	46.2074	19,697.8	48.877	19,697.8	45.5056	19,697.8	44.3512	19,697.8	46.0948
19,999.5	82.4482	19,999.5	80.9379	19,999.5	82.2602	19,999.5	77.2512	19,999.5	79.1658	19,999.5	70.9178	19,999.5	74.944	19,999.5	68.2873	19,999.5	69.7689	19,999.5	69.6836	19,999.5	69.6121	19,999.5	68.8564	19,999.5	67.7036	19,999.5	67.2662	19,999.5	67.8562	19,999.5	64.5769	19,999.5	65.1321	19,999.5	62.8378	19,999.5	64.7094	19,999.5	57.7302	19,999.5	62.6677	19,999.5	54.2993	19,999.5	54.5854	19,999.5	54.8639	19,999.5	54.0561	19,999.5	56.4629	19,999.5	49.0412	19,999.5	51.3599	19,999.5	53.3867	19,999.5	46.7394	19,999.5	55.1019	19,999.5	45.1802	19,999.5	50.2692	19,999.5	45.5383	19,999.5	41.9092	19,999.5	40.6024
