"SPL Vertical"																																																																							
"On-Axis"		"10°"		"-10°"		"20°"		"-20°"		"30°"		"-30°"		"40°"		"-40°"		"50°"		"-50°"		"60°"		"-60°"		"70°"		"-70°"		"80°"		"-80°"		"90°"		"-90°"		"100°"		"-100°"		"110°"		"-110°"		"120°"		"-120°"		"130°"		"-130°"		"140°"		"-140°"		"150°"		"-150°"		"160°"		"-160°"		"170°"		"-170°"		"180°"	
"Frequency [Hz]"	"Sound Pessure Level [dB]  / [2.83V 1m] "	"Frequency [Hz]"	"Sound Pessure Level [dB]  / [2.83V 1m] "	"Frequency [Hz]"	"Sound Pessure Level [dB]  / [2.83V 1m] "	"Frequency [Hz]"	"Sound Pessure Level [dB]  / [2.83V 1m] "	"Frequency [Hz]"	"Sound Pessure Level [dB]  / [2.83V 1m] "	"Frequency [Hz]"	"Sound Pessure Level [dB]  / [2.83V 1m] "	"Frequency [Hz]"	"Sound Pessure Level [dB]  / [2.83V 1m] "	"Frequency [Hz]"	"Sound Pessure Level [dB]  / [2.83V 1m] "	"Frequency [Hz]"	"Sound Pessure Level [dB]  / [2.83V 1m] "	"Frequency [Hz]"	"Sound Pessure Level [dB]  / [2.83V 1m] "	"Frequency [Hz]"	"Sound Pessure Level [dB]  / [2.83V 1m] "	"Frequency [Hz]"	"Sound Pessure Level [dB]  / [2.83V 1m] "	"Frequency [Hz]"	"Sound Pessure Level [dB]  / [2.83V 1m] "	"Frequency [Hz]"	"Sound Pessure Level [dB]  / [2.83V 1m] "	"Frequency [Hz]"	"Sound Pessure Level [dB]  / [2.83V 1m] "	"Frequency [Hz]"	"Sound Pessure Level [dB]  / [2.83V 1m] "	"Frequency [Hz]"	"Sound Pessure Level [dB]  / [2.83V 1m] "	"Frequency [Hz]"	"Sound Pessure Level [dB]  / [2.83V 1m] "	"Frequency [Hz]"	"Sound Pessure Level [dB]  / [2.83V 1m] "	"Frequency [Hz]"	"Sound Pessure Level [dB]  / [2.83V 1m] "	"Frequency [Hz]"	"Sound Pessure Level [dB]  / [2.83V 1m] "	"Frequency [Hz]"	"Sound Pessure Level [dB]  / [2.83V 1m] "	"Frequency [Hz]"	"Sound Pessure Level [dB]  / [2.83V 1m] "	"Frequency [Hz]"	"Sound Pessure Level [dB]  / [2.83V 1m] "	"Frequency [Hz]"	"Sound Pessure Level [dB]  / [2.83V 1m] "	"Frequency [Hz]"	"Sound Pessure Level [dB]  / [2.83V 1m] "	"Frequency [Hz]"	"Sound Pessure Level [dB]  / [2.83V 1m] "	"Frequency [Hz]"	"Sound Pessure Level [dB]  / [2.83V 1m] "	"Frequency [Hz]"	"Sound Pessure Level [dB]  / [2.83V 1m] "	"Frequency [Hz]"	"Sound Pessure Level [dB]  / [2.83V 1m] "	"Frequency [Hz]"	"Sound Pessure Level [dB]  / [2.83V 1m] "	"Frequency [Hz]"	"Sound Pessure Level [dB]  / [2.83V 1m] "	"Frequency [Hz]"	"Sound Pessure Level [dB]  / [2.83V 1m] "	"Frequency [Hz]"	"Sound Pessure Level [dB]  / [2.83V 1m] "	"Frequency [Hz]"	"Sound Pessure Level [dB]  / [2.83V 1m] "	"Frequency [Hz]"	"Sound Pessure Level [dB]  / [2.83V 1m] "
20.5078	52.4889	20.5078	52.3753	20.5078	52.6193	20.5078	52.2819	20.5078	52.7609	20.5078	52.2098	20.5078	52.9059	20.5078	52.1579	20.5078	53.0454	20.5078	52.1237	20.5078	53.17	20.5078	52.1035	20.5078	53.2711	20.5078	52.0938	20.5078	53.3414	20.5078	52.091	20.5078	53.376	20.5078	52.0925	20.5078	53.3726	20.5078	52.0964	20.5078	53.3317	20.5078	52.1021	20.5078	53.2566	20.5078	52.1104	20.5078	53.1532	20.5078	52.1232	20.5078	53.029	20.5078	52.144	20.5078	52.8926	20.5078	52.177	20.5078	52.7525	20.5078	52.2262	20.5078	52.6167	20.5078	52.2946	20.5078	52.492	20.5078	52.3836
21.9727	55.1226	21.9727	55.0075	21.9727	55.2469	21.9727	54.9056	21.9727	55.3745	21.9727	54.8187	21.9727	55.4981	21.9727	54.7468	21.9727	55.6096	21.9727	54.6883	21.9727	55.7009	21.9727	54.6407	21.9727	55.7649	21.9727	54.6011	21.9727	55.796	21.9727	54.5672	21.9727	55.7908	21.9727	54.5372	21.9727	55.7485	21.9727	54.5104	21.9727	55.6711	21.9727	54.4872	21.9727	55.5633	21.9727	54.469	21.9727	55.432	21.9727	54.4583	21.9727	55.2858	21.9727	54.4583	21.9727	55.1341	21.9727	54.4724	21.9727	54.986	21.9727	54.5043	21.9727	54.8494	21.9727	54.5569	21.9727	54.7301	21.9727	54.6321
23.4375	56.6347	23.4375	56.5273	23.4375	56.7502	23.4375	56.4313	23.4375	56.8689	23.4375	56.3483	23.4375	56.9849	23.4375	56.2783	23.4375	57.0912	23.4375	56.2201	23.4375	57.181	23.4375	56.1718	23.4375	57.2479	23.4375	56.1312	23.4375	57.2866	23.4375	56.0965	23.4375	57.2936	23.4375	56.0663	23.4375	57.2672	23.4375	56.0403	23.4375	57.2083	23.4375	56.019	23.4375	57.1197	23.4375	56.0042	23.4375	57.0065	23.4375	55.9985	23.4375	56.8755	23.4375	56.0053	23.4375	56.7345	23.4375	56.0283	23.4375	56.5915	23.4375	56.0709	23.4375	56.4542	23.4375	56.1352	23.4375	56.3292	23.4375	56.2218
24.9023	58.3049	24.9023	58.1816	24.9023	58.4328	24.9023	58.0669	24.9023	58.5603	24.9023	57.9634	24.9023	58.6815	24.9023	57.8725	24.9023	58.7902	24.9023	57.7945	24.9023	58.8801	24.9023	57.7291	24.9023	58.9457	24.9023	57.6753	24.9023	58.9827	24.9023	57.6324	24.9023	58.988	24.9023	57.5997	24.9023	58.9608	24.9023	57.577	24.9023	58.9018	24.9023	57.5648	24.9023	58.8141	24.9023	57.564	24.9023	58.7023	24.9023	57.5763	24.9023	58.5727	24.9023	57.6036	24.9023	58.4321	24.9023	57.648	24.9023	58.2877	24.9023	57.7112	24.9023	58.1465	24.9023	57.7938	24.9023	58.0141	24.9023	57.8954
26.3672	59.0084	26.3672	58.8886	26.3672	59.1332	26.3672	58.7777	26.3672	59.2583	26.3672	58.6781	26.3672	59.3779	26.3672	58.5911	26.3672	59.4862	26.3672	58.5171	26.3672	59.577	26.3672	58.4556	26.3672	59.6451	26.3672	58.4057	26.3672	59.6858	26.3672	58.3663	26.3672	59.6962	26.3672	58.3368	26.3672	59.6749	26.3672	58.317	26.3672	59.6224	26.3672	58.3073	26.3672	59.5413	26.3672	58.3089	26.3672	59.436	26.3672	58.3233	26.3672	59.3121	26.3672	58.3526	26.3672	59.1763	26.3672	58.3988	26.3672	59.0357	26.3672	58.4633	26.3672	58.8971	26.3672	58.5467	26.3672	58.7664	26.3672	58.6484
27.832	60.7607	27.832	60.6494	27.832	60.8756	27.832	60.545	27.832	60.9898	27.832	60.4501	27.832	61.0984	27.832	60.3663	27.832	61.1963	27.832	60.2942	27.832	61.2784	27.832	60.234	27.832	61.3399	27.832	60.1854	27.832	61.3773	27.832	60.1481	27.832	61.3879	27.832	60.1217	27.832	61.3706	27.832	60.106	27.832	61.3259	27.832	60.1013	27.832	61.256	27.832	60.1084	27.832	61.1645	27.832	60.1281	27.832	61.056	27.832	60.162	27.832	60.9362	27.832	60.2111	27.832	60.8108	27.832	60.2766	27.832	60.6855	27.832	60.3583	27.832	60.5656	27.832	60.4554
29.2969	61.684	29.2969	61.5686	29.2969	61.8009	29.2969	61.4583	29.2969	61.915	29.2969	61.3562	29.2969	62.0215	29.2969	61.2642	29.2969	62.1155	29.2969	61.1834	29.2969	62.1922	29.2969	61.1144	29.2969	62.2474	29.2969	61.0572	29.2969	62.2777	29.2969	61.0117	29.2969	62.2809	29.2969	60.9777	29.2969	62.2564	29.2969	60.9551	29.2969	62.2047	29.2969	60.9445	29.2969	62.1282	29.2969	60.9467	29.2969	62.0304	29.2969	60.9629	29.2969	61.9162	29.2969	60.9946	29.2969	61.7909	29.2969	61.0431	29.2969	61.6605	29.2969	61.1091	29.2969	61.5306	29.2969	61.1928	29.2969	61.4065	29.2969	61.2927
30.7617	63.1446	30.7617	63.0482	30.7617	63.2401	30.7617	62.9538	30.7617	63.3311	30.7617	62.864	30.7617	63.4137	30.7617	62.7806	30.7617	63.4842	30.7617	62.7049	30.7617	63.5387	30.7617	62.6378	30.7617	63.574	30.7617	62.5799	30.7617	63.5877	30.7617	62.5316	30.7617	63.5782	30.7617	62.4933	30.7617	63.5454	30.7617	62.4654	30.7617	63.4905	30.7617	62.4486	30.7617	63.4159	30.7617	62.4436	30.7617	63.3252	30.7617	62.4513	30.7617	63.223	30.7617	62.4727	30.7617	63.1141	30.7617	62.5084	30.7617	63.0034	30.7617	62.5589	30.7617	62.8955	30.7617	62.624	30.7617	62.7943	30.7617	62.7031
32.2266	64.0629	32.2266	63.9667	32.2266	64.1575	32.2266	63.8721	32.2266	64.2472	32.2266	63.7813	32.2266	64.3285	32.2266	63.6964	32.2266	64.3975	32.2266	63.6189	32.2266	64.4509	32.2266	63.5498	32.2266	64.4856	32.2266	63.4897	32.2266	64.4993	32.2266	63.4393	32.2266	64.4904	32.2266	63.399	32.2266	64.4587	32.2266	63.3693	32.2266	64.4052	32.2266	63.3509	32.2266	64.3321	32.2266	63.3447	32.2266	64.2425	32.2266	63.3517	32.2266	64.1407	32.2266	63.3729	32.2266	64.0313	32.2266	63.4093	32.2266	63.9191	32.2266	63.4612	32.2266	63.8088	32.2266	63.5286	32.2266	63.7048	32.2266	63.6104
33.6914	64.9557	33.6914	64.8704	33.6914	65.0393	33.6914	64.7858	33.6914	65.1181	33.6914	64.704	33.6914	65.189	33.6914	64.6268	33.6914	65.2486	33.6914	64.5553	33.6914	65.2939	33.6914	64.4906	33.6914	65.322	33.6914	64.4333	33.6914	65.331	33.6914	64.384	33.6914	65.3195	33.6914	64.3434	33.6914	65.2875	33.6914	64.3123	33.6914	65.2359	33.6914	64.2913	33.6914	65.1667	33.6914	64.2816	33.6914	65.0832	33.6914	64.2842	33.6914	64.9892	33.6914	64.3003	33.6914	64.8889	33.6914	64.3305	33.6914	64.7866	33.6914	64.3755	33.6914	64.6866	33.6914	64.4349	33.6914	64.5927	33.6914	64.5079
35.1563	65.8992	35.1563	65.8163	35.1563	65.9804	35.1563	65.7343	35.1563	66.0571	35.1563	65.6552	35.1563	66.1264	35.1563	65.5807	35.1563	66.1852	35.1563	65.5123	35.1563	66.2305	35.1563	65.4509	35.1563	66.2599	35.1563	65.3973	35.1563	66.2714	35.1563	65.3524	35.1563	66.2639	35.1563	65.3167	35.1563	66.2371	35.1563	65.2909	35.1563	66.1918	35.1563	65.2755	35.1563	66.1299	35.1563	65.2714	35.1563	66.0539	35.1563	65.279	35.1563	65.9673	35.1563	65.2992	35.1563	65.8739	35.1563	65.3324	35.1563	65.7776	35.1563	65.3789	35.1563	65.6826	35.1563	65.4385	35.1563	65.5924	35.1563	65.5102
36.6211	66.6074	36.6211	66.5309	36.6211	66.6814	36.6211	66.4543	36.6211	66.7505	36.6211	66.3797	36.6211	66.8117	36.6211	66.3086	36.6211	66.8624	36.6211	66.2424	36.6211	66.8999	36.6211	66.1823	36.6211	66.9219	36.6211	66.129	36.6211	66.9268	36.6211	66.0834	36.6211	66.9136	36.6211	66.046	36.6211	66.8823	36.6211	66.0176	36.6211	66.834	36.6211	65.9986	36.6211	66.7704	36.6211	65.9896	36.6211	66.6945	36.6211	65.9915	36.6211	66.6094	36.6211	66.0047	36.6211	66.5192	36.6211	66.0301	36.6211	66.4277	36.6211	66.0681	36.6211	66.3387	36.6211	66.1189	36.6211	66.2559	36.6211	66.1819
38.0859	67.4128	38.0859	67.3371	38.0859	67.486	38.0859	67.2612	38.0859	67.554	38.0859	67.1871	38.0859	67.6143	38.0859	67.1166	38.0859	67.664	38.0859	67.051	38.0859	67.7008	38.0859	66.9916	38.0859	67.7225	38.0859	66.9391	38.0859	67.7277	38.0859	66.8946	38.0859	67.7156	38.0859	66.8586	38.0859	67.6862	38.0859	66.8317	38.0859	67.6405	38.0859	66.8147	38.0859	67.5804	38.0859	66.808	38.0859	67.5082	38.0859	66.8123	38.0859	67.4272	38.0859	66.8281	38.0859	67.3408	38.0859	66.8559	38.0859	67.2526	38.0859	66.8959	38.0859	67.1663	38.0859	66.948	38.0859	67.085	38.0859	67.0115
39.5508	68.1086	39.5508	68.0378	39.5508	68.1765	39.5508	67.9663	39.5508	68.2392	39.5508	67.8962	39.5508	68.2943	39.5508	67.8291	39.5508	68.3392	39.5508	67.7666	39.5508	68.3719	39.5508	67.7099	39.5508	68.3905	39.5508	67.6601	39.5508	68.3938	39.5508	67.6181	39.5508	68.3811	39.5508	67.5845	39.5508	68.3525	39.5508	67.5599	39.5508	68.3092	39.5508	67.5447	39.5508	68.2528	39.5508	67.5395	39.5508	68.1858	39.5508	67.5445	39.5508	68.111	39.5508	67.56	39.5508	68.0316	39.5508	67.5864	39.5508	67.9509	39.5508	67.6238	39.5508	67.8719	39.5508	67.672	39.5508	67.7976	39.5508	67.7304
41.0156	68.8922	41.0156	68.8201	41.0156	68.9609	41.0156	68.7467	41.0156	69.0236	41.0156	68.6743	41.0156	69.078	41.0156	68.6049	41.0156	69.1216	41.0156	68.5402	41.0156	69.1526	41.0156	68.4817	41.0156	69.1693	41.0156	68.4307	41.0156	69.1706	41.0156	68.3882	41.0156	69.1562	41.0156	68.3548	41.0156	69.1263	41.0156	68.3312	41.0156	69.0822	41.0156	68.3175	41.0156	69.0256	41.0156	68.314	41.0156	68.9589	41.0156	68.3207	41.0156	68.8849	41.0156	68.3379	41.0156	68.8067	41.0156	68.3655	41.0156	68.7273	41.0156	68.4037	41.0156	68.6497	41.0156	68.4521	41.0156	68.5765	41.0156	68.5101
42.4805	69.5743	42.4805	69.5057	42.4805	69.6384	42.4805	69.4347	42.4805	69.6959	42.4805	69.3635	42.4805	69.7445	42.4805	69.2939	42.4805	69.7823	42.4805	69.2276	42.4805	69.8076	42.4805	69.1662	42.4805	69.819	42.4805	69.1111	42.4805	69.8156	42.4805	69.0634	42.4805	69.7973	42.4805	69.0243	42.4805	69.7645	42.4805	68.9944	42.4805	69.7183	42.4805	68.9746	42.4805	69.6605	42.4805	68.9653	42.4805	69.5933	42.4805	68.967	42.4805	69.5194	42.4805	68.9801	42.4805	69.4416	42.4805	69.0049	42.4805	69.3626	42.4805	69.0411	42.4805	69.2853	42.4805	69.0886	42.4805	69.2124	42.4805	69.1461
43.9453	70.2108	43.9453	70.148	43.9453	70.2691	43.9453	70.0829	43.9453	70.3211	43.9453	70.0173	43.9453	70.3646	43.9453	69.9532	43.9453	70.3981	43.9453	69.8923	43.9453	70.4199	43.9453	69.8364	43.9453	70.429	43.9453	69.7868	43.9453	70.4248	43.9453	69.7447	43.9453	70.4071	43.9453	69.7112	43.9453	70.3767	43.9453	69.687	43.9453	70.3346	43.9453	69.6724	43.9453	70.2826	43.9453	69.6675	43.9453	70.2229	43.9453	69.6725	43.9453	70.1577	43.9453	69.687	43.9453	70.0897	43.9453	69.711	43.9453	70.0213	43.9453	69.744	43.9453	69.9548	43.9453	69.7857	43.9453	69.8922	43.9453	69.8354
45.4102	70.8523	45.4102	70.7909	45.4102	70.9082	45.4102	70.7261	45.4102	70.9568	45.4102	70.6599	45.4102	70.9962	45.4102	70.5942	45.4102	71.0247	45.4102	70.5308	45.4102	71.041	45.4102	70.4715	45.4102	71.044	45.4102	70.4176	45.4102	71.0333	45.4102	70.3706	45.4102	71.0091	45.4102	70.3314	45.4102	70.9722	45.4102	70.3011	45.4102	70.924	45.4102	70.28	45.4102	70.8663	45.4102	70.2686	45.4102	70.8017	45.4102	70.267	45.4102	70.7325	45.4102	70.2754	45.4102	70.6615	45.4102	70.2937	45.4102	70.5911	45.4102	70.3218	45.4102	70.5239	45.4102	70.3596	45.4102	70.4618	45.4102	70.4066
46.875	71.4525	46.875	71.3904	46.875	71.5089	46.875	71.3245	46.875	71.5574	46.875	71.2569	46.875	71.5962	46.875	71.1897	46.875	71.6237	46.875	71.1249	46.875	71.6387	46.875	71.0642	46.875	71.6402	46.875	71.0093	46.875	71.628	46.875	70.9615	46.875	71.6023	46.875	70.922	46.875	71.564	46.875	70.8916	46.875	71.5146	46.875	70.8707	46.875	71.4561	46.875	70.8597	46.875	71.391	46.875	70.8587	46.875	71.3217	46.875	70.8676	46.875	71.251	46.875	70.8864	46.875	71.1812	46.875	70.9147	46.875	71.1147	46.875	70.9525	46.875	71.0535	46.875	70.999
48.3398	72.0911	48.3398	72.0339	48.3398	72.1415	48.3398	71.9717	48.3398	72.1832	48.3398	71.9063	48.3398	72.2148	48.3398	71.8396	48.3398	72.2347	48.3398	71.7734	48.3398	72.2419	48.3398	71.7094	48.3398	72.2357	48.3398	71.6493	48.3398	72.2159	48.3398	71.5945	48.3398	72.1831	48.3398	71.5465	48.3398	72.1381	48.3398	71.5064	48.3398	72.0826	48.3398	71.4752	48.3398	72.0187	48.3398	71.4536	48.3398	71.9489	48.3398	71.4423	48.3398	71.8757	48.3398	71.4417	48.3398	71.8019	48.3398	71.452	48.3398	71.7301	48.3398	71.4736	48.3398	71.6627	48.3398	71.5061	48.3398	71.6018	48.3398	71.5492
51.2695	73.2706	51.2695	73.2175	51.2695	73.3173	51.2695	73.1599	51.2695	73.3562	51.2695	73.0993	51.2695	73.3856	51.2695	73.0377	51.2695	73.4045	51.2695	72.9767	51.2695	73.4118	51.2695	72.918	51.2695	73.4072	51.2695	72.8632	51.2695	73.3905	51.2695	72.8136	51.2695	73.3621	51.2695	72.7705	51.2695	73.3231	51.2695	72.7352	51.2695	73.2748	51.2695	72.7085	51.2695	73.2191	51.2695	72.6912	51.2695	73.1579	51.2695	72.6836	51.2695	73.0934	51.2695	72.6863	51.2695	73.0279	51.2695	72.6991	51.2695	72.9635	51.2695	72.7221	51.2695	72.9023	51.2695	72.7547	51.2695	72.8461	51.2695	72.7964
52.7344	73.8781	52.7344	73.8265	52.7344	73.9229	52.7344	73.7697	52.7344	73.9593	52.7344	73.7096	52.7344	73.986	52.7344	73.648	52.7344	74.0019	52.7344	73.5867	52.7344	74.0064	52.7344	73.5274	52.7344	73.9991	52.7344	73.4719	52.7344	73.9801	52.7344	73.4218	52.7344	73.9501	52.7344	73.3783	52.7344	73.9102	52.7344	73.3426	52.7344	73.8617	52.7344	73.3157	52.7344	73.8066	52.7344	73.2982	52.7344	73.7467	52.7344	73.2904	52.7344	73.6842	52.7344	73.2927	52.7344	73.6209	52.7344	73.3049	52.7344	73.559	52.7344	73.327	52.7344	73.5002	52.7344	73.3584	52.7344	73.4462	52.7344	73.3985
54.1992	74.4633	54.1992	74.4139	54.1992	74.5053	54.1992	74.3587	54.1992	74.5384	54.1992	74.2992	54.1992	74.5615	54.1992	74.2374	54.1992	74.5735	54.1992	74.175	54.1992	74.574	54.1992	74.1139	54.1992	74.5627	54.1992	74.0556	54.1992	74.5399	54.1992	74.0021	54.1992	74.5063	54.1992	73.9547	54.1992	74.4631	54.1992	73.9147	54.1992	74.4119	54.1992	73.8833	54.1992	74.3544	54.1992	73.8613	54.1992	74.2926	54.1992	73.8493	54.1992	74.2286	54.1992	73.8476	54.1992	74.1644	54.1992	73.8564	54.1992	74.1019	54.1992	73.8755	54.1992	74.0431	54.1992	73.9046	54.1992	73.9896	54.1992	73.943
55.6641	74.9575	55.6641	74.9079	55.6641	75.0003	55.6641	74.8533	55.6641	75.0349	55.6641	74.7955	55.6641	75.0599	55.6641	74.7363	55.6641	75.0746	55.6641	74.6776	55.6641	75.0782	55.6641	74.6213	55.6641	75.0707	55.6641	74.5692	55.6641	75.0522	55.6641	74.5227	55.6641	75.0234	55.6641	74.4832	55.6641	74.9856	55.6641	74.4516	55.6641	74.9401	55.6641	74.4287	55.6641	74.8887	55.6641	74.4148	55.6641	74.8332	55.6641	74.41	55.6641	74.7756	55.6641	74.4143	55.6641	74.7177	55.6641	74.4273	55.6641	74.6612	55.6641	74.4488	55.6641	74.6077	55.6641	74.4783	55.6641	74.5587	55.6641	74.5152
58.5938	76.0394	58.5938	75.9905	58.5938	76.081	58.5938	75.9363	58.5938	76.1138	58.5938	75.8786	58.5938	76.1365	58.5938	75.8197	58.5938	76.1484	58.5938	75.7617	58.5938	76.149	58.5938	75.7068	58.5938	76.1384	58.5938	75.6569	58.5938	76.1172	58.5938	75.6135	58.5938	76.0864	58.5938	75.5779	58.5938	76.0474	58.5938	75.5508	58.5938	76.0021	58.5938	75.5327	58.5938	75.9522	58.5938	75.5232	58.5938	75.8999	58.5938	75.5222	58.5938	75.8469	58.5938	75.5288	58.5938	75.7949	58.5938	75.5425	58.5938	75.7453	58.5938	75.5627	58.5938	75.6992	58.5938	75.5888	58.5938	75.6574	58.5938	75.6205
60.0586	76.5548	60.0586	76.5054	60.0586	76.596	60.0586	76.4497	60.0586	76.6276	60.0586	76.3898	60.0586	76.6483	60.0586	76.328	60.0586	76.6575	60.0586	76.2667	60.0586	76.6549	60.0586	76.208	60.0586	76.6408	60.0586	76.1541	60.0586	76.6158	60.0586	76.1068	60.0586	76.5813	60.0586	76.0675	60.0586	76.5388	60.0586	76.0371	60.0586	76.4901	60.0586	76.0159	60.0586	76.4373	60.0586	76.0041	60.0586	76.3825	60.0586	76.0012	60.0586	76.3275	60.0586	76.0066	60.0586	76.2739	60.0586	76.0194	60.0586	76.2232	60.0586	76.0391	60.0586	76.1763	60.0586	76.065	60.0586	76.134	60.0586	76.0967
62.9883	77.6293	62.9883	77.5826	62.9883	77.6668	62.9883	77.5286	62.9883	77.6941	62.9883	77.4689	62.9883	77.7102	62.9883	77.4057	62.9883	77.7145	62.9883	77.3412	62.9883	77.707	62.9883	77.2775	62.9883	77.688	62.9883	77.217	62.9883	77.6584	62.9883	77.1616	62.9883	77.6193	62.9883	77.113	62.9883	77.5722	62.9883	77.0726	62.9883	77.5191	62.9883	77.0413	62.9883	77.4617	62.9883	77.0197	62.9883	77.4021	62.9883	77.0081	62.9883	77.342	62.9883	77.0061	62.9883	77.2832	62.9883	77.0137	62.9883	77.2272	62.9883	77.0303	62.9883	77.1753	62.9883	77.0555	62.9883	77.1288	62.9883	77.0885
64.4531	78.1052	64.4531	78.0572	64.4531	78.1445	64.4531	78.0021	64.4531	78.1736	64.4531	77.942	64.4531	78.1915	64.4531	77.8791	64.4531	78.1977	64.4531	77.8159	64.4531	78.1921	64.4531	77.7546	64.4531	78.1751	64.4531	77.6976	64.4531	78.1476	64.4531	77.6469	64.4531	78.111	64.4531	77.6041	64.4531	78.0669	64.4531	77.5704	64.4531	78.0172	64.4531	77.5464	64.4531	77.964	64.4531	77.5323	64.4531	77.9092	64.4531	77.5278	64.4531	77.8544	64.4531	77.5322	64.4531	77.8012	64.4531	77.5447	64.4531	77.7507	64.4531	77.5646	64.4531	77.7038	64.4531	77.591	64.4531	77.6611	64.4531	77.6234
67.3828	79.1395	67.3828	79.0886	67.3828	79.1804	67.3828	79.0296	67.3828	79.2099	67.3828	78.9647	67.3828	79.227	67.3828	78.8962	67.3828	79.2313	67.3828	78.8268	67.3828	79.2229	67.3828	78.7591	67.3828	79.2023	67.3828	78.6954	67.3828	79.1706	67.3828	78.6382	67.3828	79.1293	67.3828	78.5893	67.3828	79.0801	67.3828	78.55	67.3828	79.0252	67.3828	78.5212	67.3828	78.9665	67.3828	78.5031	67.3828	78.906	67.3828	78.4956	67.3828	78.8456	67.3828	78.4981	67.3828	78.7868	67.3828	78.5097	67.3828	78.7309	67.3828	78.5296	67.3828	78.6792	67.3828	78.5571	67.3828	78.6325	67.3828	78.5916
68.8477	79.5997	68.8477	79.5494	68.8477	79.6398	68.8477	79.4907	68.8477	79.6683	68.8477	79.4256	68.8477	79.6844	68.8477	79.3566	68.8477	79.688	68.8477	79.2865	68.8477	79.679	68.8477	79.2177	68.8477	79.6585	68.8477	79.153	68.8477	79.6274	68.8477	79.0947	68.8477	79.5874	68.8477	79.0448	68.8477	79.5403	68.8477	79.0049	68.8477	79.4879	68.8477	78.9758	68.8477	79.432	68.8477	78.9581	68.8477	79.3744	68.8477	78.9515	68.8477	79.3164	68.8477	78.9556	68.8477	79.2593	68.8477	78.9695	68.8477	79.2041	68.8477	78.9922	68.8477	79.1519	68.8477	79.0227	68.8477	79.1036	68.8477	79.0602
71.7773	80.5295	71.7773	80.479	71.7773	80.5687	71.7773	80.4189	71.7773	80.5955	71.7773	80.3514	71.7773	80.609	71.7773	80.279	71.7773	80.609	71.7773	80.2045	71.7773	80.596	71.7773	80.1306	71.7773	80.5707	71.7773	80.0603	71.7773	80.5345	71.7773	79.9962	71.7773	80.489	71.7773	79.9405	71.7773	80.4363	71.7773	79.8951	71.7773	80.3784	71.7773	79.8613	71.7773	80.3177	71.7773	79.8396	71.7773	80.2559	71.7773	79.8302	71.7773	80.1947	71.7773	79.8324	71.7773	80.1355	71.7773	79.8452	71.7773	80.0793	71.7773	79.8675	71.7773	80.0268	71.7773	79.898	71.7773	79.9786	71.7773	79.9354
74.707	81.3616	74.707	81.3115	74.707	81.4022	74.707	81.2535	74.707	81.4319	74.707	81.1899	74.707	81.45	74.707	81.1232	74.707	81.4562	74.707	81.0561	74.707	81.4508	74.707	80.9912	74.707	81.4346	74.707	80.9312	74.707	81.4088	74.707	80.8785	74.707	81.3748	74.707	80.8347	74.707	81.3344	74.707	80.8013	74.707	81.289	74.707	80.779	74.707	81.2404	74.707	80.7678	74.707	81.1897	74.707	80.7675	74.707	81.138	74.707	80.7772	74.707	81.0863	74.707	80.796	74.707	81.0353	74.707	80.8226	74.707	80.9858	74.707	80.8561	74.707	80.9387	74.707	80.8951
77.6367	82.0672	77.6367	82.0156	77.6367	82.1084	77.6367	81.9556	77.6367	82.1374	77.6367	81.89	77.6367	82.1531	77.6367	81.8218	77.6367	82.1553	77.6367	81.7542	77.6367	82.1445	77.6367	81.6903	77.6367	82.1217	77.6367	81.6333	77.6367	82.089	77.6367	81.5855	77.6367	82.0486	77.6367	81.5491	77.6367	82.0033	77.6367	81.5252	77.6367	81.9558	77.6367	81.5139	77.6367	81.9086	77.6367	81.5146	77.6367	81.8636	77.6367	81.5256	77.6367	81.822	77.6367	81.5447	77.6367	81.7842	77.6367	81.5695	77.6367	81.7496	77.6367	81.5975	77.6367	81.7176	77.6367	81.627	77.6367	81.687	77.6367	81.6569
79.1016	82.4497	79.1016	82.3963	79.1016	82.4906	79.1016	82.3326	79.1016	82.5173	79.1016	82.2616	79.1016	82.5289	79.1016	82.1866	79.1016	82.5254	79.1016	82.1113	79.1016	82.5074	79.1016	82.0393	79.1016	82.4764	79.1016	81.9741	79.1016	82.4345	79.1016	81.9186	79.1016	82.3845	79.1016	81.8751	79.1016	82.3292	79.1016	81.8449	79.1016	82.2717	79.1016	81.8282	79.1016	82.2149	79.1016	81.8239	79.1016	82.1612	79.1016	81.8303	79.1016	82.1122	79.1016	81.8449	79.1016	82.0687	79.1016	81.8652	79.1016	82.0307	79.1016	81.8886	79.1016	81.9974	79.1016	81.9138	79.1016	81.9676	79.1016	81.94
82.0313	83.2127	82.0313	83.1612	82.0313	83.2488	82.0313	83.0958	82.0313	83.2685	82.0313	83.0188	82.0313	83.2714	82.0313	82.9333	82.0313	83.2581	82.0313	82.8428	82.0313	83.2295	82.0313	82.751	82.0313	83.1872	82.0313	82.6619	82.0313	83.1332	82.0313	82.5797	82.0313	83.0701	82.0313	82.5076	82.0313	83.0006	82.0313	82.4486	82.0313	82.9274	82.0313	82.4042	82.0313	82.8532	82.0313	82.375	82.0313	82.7804	82.0313	82.3604	82.0313	82.711	82.0313	82.359	82.0313	82.6463	82.0313	82.3688	82.0313	82.5874	82.0313	82.3879	82.0313	82.5347	82.0313	82.4147	82.0313	82.4884	82.0313	82.4484
84.9609	83.7729	84.9609	83.7259	84.9609	83.8052	84.9609	83.6652	84.9609	83.8219	84.9609	83.5923	84.9609	83.8228	84.9609	83.5088	84.9609	83.808	84.9609	83.417	84.9609	83.7781	84.9609	83.3194	84.9609	83.7341	84.9609	83.2188	84.9609	83.6773	84.9609	83.1186	84.9609	83.6097	84.9609	83.0222	84.9609	83.5333	84.9609	82.9335	84.9609	83.4503	84.9609	82.8562	84.9609	83.3632	84.9609	82.7937	84.9609	83.274	84.9609	82.7487	84.9609	83.185	84.9609	82.723	84.9609	83.0979	84.9609	82.7172	84.9609	83.0147	84.9609	82.7307	84.9609	82.9373	84.9609	82.7618	84.9609	82.8677	84.9609	82.8083
87.8906	84.0103	87.8906	83.9592	87.8906	84.0505	87.8906	83.8991	87.8906	84.0785	87.8906	83.8319	87.8906	84.093	87.8906	83.7597	87.8906	84.0936	87.8906	83.6844	87.8906	84.08	87.8906	83.6079	87.8906	84.0529	87.8906	83.5321	87.8906	84.0131	87.8906	83.4585	87.8906	83.9621	87.8906	83.389	87.8906	83.9014	87.8906	83.3252	87.8906	83.833	87.8906	83.2692	87.8906	83.7589	87.8906	83.2231	87.8906	83.6809	87.8906	83.189	87.8906	83.6011	87.8906	83.1691	87.8906	83.5213	87.8906	83.1649	87.8906	83.4438	87.8906	83.1772	87.8906	83.3708	87.8906	83.2057	87.8906	83.305	87.8906	83.249
90.8203	83.5705	90.8203	83.4879	90.8203	83.65	90.8203	83.4067	90.8203	83.7228	90.8203	83.3325	90.8203	83.7866	90.8203	83.2709	90.8203	83.8402	90.8203	83.2276	90.8203	83.8837	90.8203	83.207	90.8203	83.9178	90.8203	83.2121	90.8203	83.944	90.8203	83.2436	90.8203	83.9637	90.8203	83.2995	90.8203	83.9785	90.8203	83.3756	90.8203	83.9897	90.8203	83.4657	90.8203	83.9981	90.8203	83.5626	90.8203	84.0042	90.8203	83.659	90.8203	84.0081	90.8203	83.7481	90.8203	84.0095	90.8203	83.8252	90.8203	84.0077	90.8203	83.8875	90.8203	84.0015	90.8203	83.9346	90.8203	83.989	90.8203	83.9676
95.2148	84.5325	95.2148	84.4757	95.2148	84.5705	95.2148	84.401	95.2148	84.589	95.2148	84.3104	95.2148	84.5883	95.2148	84.2064	95.2148	84.5693	95.2148	84.0921	95.2148	84.5337	95.2148	83.9714	95.2148	84.4836	95.2148	83.849	95.2148	84.4219	95.2148	83.7298	95.2148	84.3519	95.2148	83.6196	95.2148	84.2768	95.2148	83.5239	95.2148	84.1996	95.2148	83.4482	95.2148	84.1226	95.2148	83.397	95.2148	84.0471	95.2148	83.3729	95.2148	83.9731	95.2148	83.3765	95.2148	83.8998	95.2148	83.4055	95.2148	83.8259	95.2148	83.4556	95.2148	83.7501	95.2148	83.5209	95.2148	83.6726	95.2148	83.595
98.1445	84.1586	98.1445	84.0818	98.1445	84.2206	98.1445	83.9932	98.1445	84.2654	98.1445	83.8968	98.1445	84.292	98.1445	83.7968	98.1445	84.3	98.1445	83.6981	98.1445	84.2903	98.1445	83.605	98.1445	84.2647	98.1445	83.5218	98.1445	84.2256	98.1445	83.4516	98.1445	84.1759	98.1445	83.3969	98.1445	84.1188	98.1445	83.3592	98.1445	84.0573	98.1445	83.3388	98.1445	83.994	98.1445	83.3352	98.1445	83.9306	98.1445	83.3471	98.1445	83.8681	98.1445	83.3729	98.1445	83.8067	98.1445	83.4103	98.1445	83.7461	98.1445	83.4568	98.1445	83.6859	98.1445	83.5097	98.1445	83.6259	98.1445	83.5668
101.074	83.9457	101.074	83.8601	101.074	84.0149	101.074	83.7611	101.074	84.0655	101.074	83.6529	101.074	84.0963	101.074	83.5402	101.074	84.1074	101.074	83.4282	101.074	84.0997	101.074	83.3224	101.074	84.0752	101.074	83.2279	101.074	84.0364	101.074	83.1491	101.074	83.9865	101.074	83.0894	101.074	83.9286	101.074	83.0509	101.074	83.8659	101.074	83.0343	101.074	83.8008	101.074	83.0386	101.074	83.7352	101.074	83.0616	101.074	83.6699	101.074	83.1003	101.074	83.6049	101.074	83.1511	101.074	83.54	101.074	83.2103	101.074	83.4745	101.074	83.2745	101.074	83.4081	101.074	83.3411
105.469	83.6749	105.469	83.576	105.469	83.7572	105.469	83.4644	105.469	83.82	105.469	83.3453	105.469	83.8617	105.469	83.2241	105.469	83.8817	105.469	83.107	105.469	83.8808	105.469	83	105.469	83.8608	105.469	82.9085	105.469	83.8245	105.469	82.8371	105.469	83.7754	105.469	82.7888	105.469	83.7173	105.469	82.7647	105.469	83.654	105.469	82.7645	105.469	83.5885	105.469	82.7858	105.469	83.5234	105.469	82.8251	105.469	83.4597	105.469	82.8781	105.469	83.3976	105.469	82.9404	105.469	83.3363	105.469	83.0077	105.469	83.2744	105.469	83.0767	105.469	83.2108	105.469	83.1449
108.398	83.4798	108.398	83.3708	108.398	83.5701	108.398	83.2471	108.398	83.6386	108.398	83.114	108.398	83.6836	108.398	82.9776	108.398	83.7047	108.398	82.8446	108.398	83.7028	108.398	82.7217	108.398	83.6796	108.398	82.6153	108.398	83.6381	108.398	82.5308	108.398	83.5817	108.398	82.4719	108.398	83.5144	108.398	82.4404	108.398	83.4402	108.398	82.4361	108.398	83.3627	108.398	82.4566	108.398	83.2847	108.398	82.4976	108.398	83.2081	108.398	82.5543	108.398	83.1336	108.398	82.6214	108.398	83.0609	108.398	82.6942	108.398	82.9892	108.398	82.7691	108.398	82.9171	108.398	82.8438
112.793	83.1723	112.793	83.0452	112.793	83.2793	112.793	82.9021	112.793	83.3629	112.793	82.7485	112.793	83.4213	112.793	82.5907	112.793	83.4537	112.793	82.4358	112.793	83.4607	112.793	82.2909	112.793	83.4438	112.793	82.1634	112.793	83.4055	112.793	82.0595	112.793	83.3491	112.793	81.9843	112.793	83.2784	112.793	81.9409	112.793	83.1972	112.793	81.9301	112.793	83.1093	112.793	81.95	112.793	83.0177	112.793	81.997	112.793	82.9243	112.793	82.0657	112.793	82.8304	112.793	82.1501	112.793	82.7358	112.793	82.2442	112.793	82.6401	112.793	82.3432	112.793	82.5427	112.793	82.4435
117.188	82.7511	117.188	82.6131	117.188	82.8688	117.188	82.4594	117.188	82.9625	117.188	82.2957	117.188	83.03	117.188	82.1289	117.188	83.0701	117.188	81.9661	117.188	83.083	117.188	81.8149	117.188	83.07	117.188	81.6828	117.188	83.0334	117.188	81.5763	117.188	82.9765	117.188	81.5005	117.188	82.903	117.188	81.4589	117.188	82.8174	117.188	81.4522	117.188	82.7238	117.188	81.4785	117.188	82.626	117.188	81.5338	117.188	82.5268	117.188	81.6121	117.188	82.4277	117.188	81.7065	117.188	82.3289	117.188	81.8102	117.188	82.2295	117.188	81.9174	117.188	82.1282	117.188	82.0241
120.117	82.569	120.117	82.409	120.117	82.7076	120.117	82.2329	120.117	82.8208	120.117	82.0473	120.117	82.9061	120.117	81.86	120.117	82.9623	120.117	81.6794	120.117	82.9894	120.117	81.5145	120.117	82.9886	120.117	81.3736	120.117	82.9619	120.117	81.2644	120.117	82.912	120.117	81.1922	120.117	82.8424	120.117	81.16	120.117	82.7567	120.117	81.1675	120.117	82.6587	120.117	81.2113	120.117	82.5522	120.117	81.2855	120.117	82.4404	120.117	81.3826	120.117	82.3258	120.117	81.4945	120.117	82.2101	120.117	81.6141	120.117	82.0938	120.117	81.7361	120.117	81.9764	120.117	81.8572
124.512	81.9642	124.512	81.7836	124.512	82.1213	124.512	81.5853	124.512	82.2512	124.512	81.3761	124.512	82.3514	124.512	81.1647	124.512	82.4213	124.512	80.9605	124.512	82.4615	124.512	80.7737	124.512	82.4738	124.512	80.6143	124.512	82.461	124.512	80.4916	124.512	82.4265	124.512	80.4126	124.512	82.3739	124.512	80.382	124.512	82.3064	124.512	80.4004	124.512	82.2268	124.512	80.4652	124.512	82.1366	124.512	80.5701	124.512	82.0366	124.512	80.7063	124.512	81.9265	124.512	80.8637	124.512	81.8054	124.512	81.0323	124.512	81.6723	124.512	81.2033	124.512	81.5268	124.512	81.3697
128.906	81.5556	128.906	81.3469	128.906	81.7373	128.906	81.1174	128.906	81.8877	128.906	80.8746	128.906	82.0037	128.906	80.6275	128.906	82.0837	128.906	80.3866	128.906	82.1273	128.906	80.1631	128.906	82.1354	128.906	79.9683	128.906	82.1101	128.906	79.8127	128.906	82.0543	128.906	79.7048	128.906	81.9719	128.906	79.6501	128.906	81.8675	128.906	79.6501	128.906	81.7457	128.906	79.7023	128.906	81.611	128.906	79.8005	128.906	81.4671	128.906	79.9358	128.906	81.3162	128.906	80.0979	128.906	81.159	128.906	80.2761	128.906	80.9951	128.906	80.4609	128.906	80.8238	128.906	80.6451
133.301	81.1314	133.301	80.8941	133.301	81.342	133.301	80.636	133.301	81.5214	133.301	80.3637	133.301	81.6664	133.301	80.0854	133.301	81.7746	133.301	79.8101	133.301	81.8448	133.301	79.5478	133.301	81.8765	133.301	79.309	133.301	81.87	133.301	79.105	133.301	81.826	133.301	78.9461	133.301	81.7457	133.301	78.8414	133.301	81.6306	133.301	78.797	133.301	81.4831	133.301	78.8148	133.301	81.306	133.301	78.8925	133.301	81.103	133.301	79.0233	133.301	80.879	133.301	79.1979	133.301	80.6392	133.301	79.4057	133.301	80.3894	133.301	79.6367	133.301	80.1351	133.301	79.8822
139.16	80.3941	139.16	80.0982	139.16	80.6705	139.16	79.7923	139.16	80.9197	139.16	79.488	139.16	81.1361	139.16	79.1981	139.16	81.3163	139.16	78.9361	139.16	81.4584	139.16	78.7151	139.16	81.5622	139.16	78.5465	139.16	81.6281	139.16	78.439	139.16	81.6572	139.16	78.3975	139.16	81.6509	139.16	78.4227	139.16	81.6103	139.16	78.5112	139.16	81.536	139.16	78.6564	139.16	81.4288	139.16	78.8492	139.16	81.2892	139.16	79.0796	139.16	81.1181	139.16	79.3369	139.16	80.9171	139.16	79.6109	139.16	80.6892	139.16	79.8917	139.16	80.4384	139.16	80.1702
143.555	80.2272	143.555	79.9043	143.555	80.5232	143.555	79.5635	143.555	80.7854	143.555	79.2162	143.555	81.0088	143.555	78.8753	143.555	81.1907	143.555	78.5558	143.555	81.3299	143.555	78.2733	143.555	81.4269	143.555	78.0439	143.555	81.4832	143.555	77.8819	143.555	81.5012	143.555	77.7989	143.555	81.4832	143.555	77.8011	143.555	81.4315	143.555	77.8888	143.555	81.3476	143.555	78.0555	143.555	81.2321	143.555	78.2888	143.555	81.0849	143.555	78.5727	143.555	80.9057	143.555	78.8893	143.555	80.6942	143.555	79.2216	143.555	80.4505	143.555	79.5545	143.555	80.1766	143.555	79.8758
147.949	80.166	147.949	79.8206	147.949	80.4822	147.949	79.4552	147.949	80.7618	147.949	79.0808	147.949	80.9996	147.949	78.7105	147.949	81.1923	147.949	78.3587	147.949	81.3382	147.949	78.0413	147.949	81.4374	147.949	77.7747	147.949	81.4912	147.949	77.5748	147.949	81.5017	147.949	77.4554	147.949	81.4715	147.949	77.426	147.949	81.403	147.949	77.4904	147.949	81.2985	147.949	77.6449	147.949	81.159	147.949	77.8787	147.949	80.9852	147.949	78.1755	147.949	80.777	147.949	78.5159	147.949	80.534	147.949	78.8797	147.949	80.2567	147.949	79.2489	147.949	79.9467	147.949	79.6083
153.809	80.2958	153.809	79.9596	153.809	80.6042	153.809	79.604	153.809	80.8776	153.809	79.2388	153.809	81.1106	153.809	78.8746	153.809	81.2995	153.809	78.523	153.809	81.4425	153.809	78.1967	153.809	81.5393	153.809	77.9096	153.809	81.5909	153.809	77.6766	153.809	81.5992	153.809	77.5131	153.809	81.5663	153.809	77.4331	153.809	81.4942	153.809	77.447	153.809	81.3839	153.809	77.5582	153.809	81.2358	153.809	77.7617	153.809	81.0494	153.809	78.0442	153.809	80.8239	153.809	78.386	153.809	80.5588	153.809	78.7645	153.809	80.255	153.809	79.1576	153.809	79.9154	153.809	79.5461
159.668	80.6841	159.668	80.3763	159.668	80.969	159.668	80.0536	159.668	81.2236	159.668	79.724	159.668	81.4412	159.668	79.3953	159.668	81.6164	159.668	79.0752	159.668	81.7454	159.668	78.7715	159.668	81.8259	159.668	78.4927	159.668	81.8573	159.668	78.249	159.668	81.8404	159.668	78.0524	159.668	81.7774	159.668	77.9166	159.668	81.671	159.668	77.8552	159.668	81.5244	159.668	77.8793	159.668	81.3402	159.668	77.9943	159.668	81.1205	159.668	78.1965	159.668	80.8665	159.668	78.4735	159.668	80.579	159.668	78.8056	159.668	80.2597	159.668	79.1701	159.668	79.9125	159.668	79.545
165.527	80.7918	165.527	80.5127	165.527	81.0562	165.527	80.2263	165.527	81.2986	165.527	79.9398	165.527	81.5122	165.527	79.6596	165.527	81.6912	165.527	79.3918	165.527	81.8312	165.527	79.1423	165.527	81.9291	165.527	78.9174	165.527	81.983	165.527	78.7246	165.527	81.9922	165.527	78.5724	165.527	81.9568	165.527	78.4707	165.527	81.8777	165.527	78.4291	165.527	81.7562	165.527	78.4561	165.527	81.5941	165.527	78.5564	165.527	81.3933	165.527	78.7291	165.527	81.1561	165.527	78.9671	165.527	80.8851	165.527	79.2569	165.527	80.5843	165.527	79.581	165.527	80.2598	165.527	79.9209
171.387	80.8028	171.387	80.5693	171.387	81.0277	171.387	80.333	171.387	81.2378	171.387	80.099	171.387	81.4267	171.387	79.8715	171.387	81.5891	171.387	79.6536	171.387	81.7204	171.387	79.4487	171.387	81.8174	171.387	79.2608	171.387	81.8779	171.387	79.095	171.387	81.9004	171.387	78.9583	171.387	81.884	171.387	78.8597	171.387	81.8281	171.387	78.809	171.387	81.7323	171.387	78.8156	171.387	81.5968	171.387	78.8867	171.387	81.4222	171.387	79.0245	171.387	81.21	171.387	79.2251	171.387	80.9631	171.387	79.4779	171.387	80.6863	171.387	79.7674	171.387	80.387	171.387	80.076
177.246	80.9223	177.246	80.7369	177.246	81.1032	177.246	80.5504	177.246	81.2753	177.246	80.3647	177.246	81.4331	177.246	80.1808	177.246	81.5714	177.246	79.9996	177.246	81.685	177.246	79.8229	177.246	81.7701	177.246	79.6539	177.246	81.8236	177.246	79.4979	177.246	81.8437	177.246	79.3626	177.246	81.8293	177.246	79.2575	177.246	81.7801	177.246	79.1929	177.246	81.6959	177.246	79.1784	177.246	81.5766	177.246	79.2217	177.246	81.4226	177.246	79.326	177.246	81.2346	177.246	79.4889	177.246	81.0149	177.246	79.7023	177.246	80.7678	177.246	79.9528	177.246	80.5007	177.246	80.2243
183.105	80.8465	183.105	80.7106	183.105	80.9793	183.105	80.5713	183.105	81.1079	183.105	80.4269	183.105	81.2294	183.105	80.2758	183.105	81.3399	183.105	80.1171	183.105	81.4344	183.105	79.952	183.105	81.5083	183.105	79.7844	183.105	81.5575	183.105	79.621	183.105	81.5783	183.105	79.4717	183.105	81.5684	183.105	79.3478	183.105	81.5261	183.105	79.2614	183.105	81.4508	183.105	79.2235	183.105	81.3422	183.105	79.2419	183.105	81.2011	183.105	79.3201	183.105	81.0285	183.105	79.4557	183.105	80.827	183.105	79.6409	183.105	80.601	183.105	79.8631	183.105	80.3576	183.105	80.1071
188.965	80.8495	188.965	80.7708	188.965	80.9242	188.965	80.6845	188.965	80.9965	188.965	80.5862	188.965	81.066	188.965	80.4713	188.965	81.1304	188.965	80.3365	188.965	81.1862	188.965	80.1811	188.965	81.2295	188.965	80.0077	188.965	81.2561	188.965	79.8231	188.965	81.2626	188.965	79.6379	188.965	81.2457	188.965	79.4663	188.965	81.2032	188.965	79.3246	188.965	81.1331	188.965	79.2287	188.965	81.034	188.965	79.1913	188.965	80.9051	188.965	79.22	188.965	80.7466	188.965	79.3145	188.965	80.5599	188.965	79.4673	188.965	80.3491	188.965	79.6643	188.965	80.1215	188.965	79.8882
196.289	80.8925	196.289	80.8832	196.289	80.8991	196.289	80.8653	196.289	80.9076	196.289	80.8318	196.289	80.9197	196.289	80.7766	196.289	80.9349	196.289	80.6949	196.289	80.9503	196.289	80.5846	196.289	80.9615	196.289	80.4466	196.289	80.9635	196.289	80.2854	196.289	80.9518	196.289	80.109	196.289	80.9224	196.289	79.9288	196.289	80.8725	196.289	79.7583	196.289	80.8004	196.289	79.6123	196.289	80.7051	196.289	79.5048	196.289	80.5866	196.289	79.4474	196.289	80.4459	196.289	79.4472	196.289	80.2858	196.289	79.5047	196.289	80.1116	196.289	79.6136	196.289	79.9325	196.289	79.7614
203.613	80.5881	203.613	80.6346	203.613	80.533	203.613	80.6648	203.613	80.4767	203.613	80.6713	203.613	80.4247	203.613	80.6481	203.613	80.3801	203.613	80.5915	203.613	80.3438	203.613	80.5002	203.613	80.3142	203.613	80.3763	203.613	80.2877	203.613	80.2247	203.613	80.26	203.613	80.0534	203.613	80.2262	203.613	79.873	203.613	80.1819	203.613	79.6957	203.613	80.1237	203.613	79.5342	203.613	80.0498	203.613	79.401	203.613	79.9595	203.613	79.3065	203.613	79.8542	203.613	79.2581	203.613	79.7371	203.613	79.2581	203.613	79.614	203.613	79.3033	203.613	79.4931	203.613	79.3855
210.938	80.33	210.938	80.4392	210.938	80.2084	210.938	80.5254	210.938	80.0847	210.938	80.5789	210.938	79.9676	210.938	80.5923	210.938	79.8629	210.938	80.5609	210.938	79.773	210.938	80.4835	210.938	79.6972	210.938	80.3623	210.938	79.6328	210.938	80.2029	210.938	79.5759	210.938	80.0145	210.938	79.5224	210.938	79.8088	210.938	79.4687	210.938	79.5987	210.938	79.4113	210.938	79.3977	210.938	79.3476	210.938	79.2182	210.938	79.2762	210.938	79.071	210.938	79.1973	210.938	78.9641	210.938	79.1136	210.938	78.9017	210.938	79.0311	210.938	78.8838	210.938	78.9582	210.938	78.9056
218.262	80.2241	218.262	80.4305	218.262	79.9946	218.262	80.6002	218.262	79.7575	218.262	80.723	218.262	79.5279	218.262	80.7923	218.262	79.3185	218.262	80.8049	218.262	79.137	218.262	80.7616	218.262	78.9858	218.262	80.6659	218.262	78.8621	218.262	80.5244	218.262	78.7604	218.262	80.3458	218.262	78.6745	218.262	80.1399	218.262	78.6	218.262	79.9166	218.262	78.5345	218.262	79.6849	218.262	78.4784	218.262	79.4529	218.262	78.434	218.262	79.2279	218.262	78.4052	218.262	79.0176	218.262	78.3968	218.262	78.8299	218.262	78.4146	218.262	78.672	218.262	78.4641	218.262	78.5494
225.586	80.2557	225.586	80.5473	225.586	79.9222	225.586	80.7837	225.586	79.5648	225.586	80.9566	225.586	79.205	225.586	81.0622	225.586	78.8651	225.586	81.1003	225.586	78.565	225.586	81.0741	225.586	78.3184	225.586	80.9895	225.586	78.1316	225.586	80.855	225.586	78.0031	225.586	80.6811	225.586	77.9265	225.586	80.4794	225.586	77.8933	225.586	80.2613	225.586	77.8961	225.586	80.036	225.586	77.9295	225.586	79.8092	225.586	77.9911	225.586	79.5835	225.586	78.0806	225.586	79.3595	225.586	78.1986	225.586	79.1376	225.586	78.3449	225.586	78.9199	225.586	78.5172	225.586	78.711
232.91	80.6577	232.91	80.9911	232.91	80.2649	232.91	81.2563	232.91	79.827	232.91	81.4489	232.91	79.363	232.91	81.5684	232.91	78.8965	232.91	81.6171	232.91	78.4527	232.91	81.5994	232.91	78.056	232.91	81.5216	232.91	77.7263	232.91	81.391	232.91	77.4769	232.91	81.2163	232.91	77.314	232.91	81.0066	232.91	77.2381	232.91	80.7712	232.91	77.2449	232.91	80.5182	232.91	77.3275	232.91	80.2536	232.91	77.4767	232.91	79.981	232.91	77.6819	232.91	79.7011	232.91	77.931	232.91	79.4133	232.91	78.211	232.91	79.1171	232.91	78.5091	232.91	78.814
241.699	81.3932	241.699	81.7087	241.699	81.0074	241.699	81.9495	241.699	80.5611	241.699	82.1152	241.699	80.0697	241.699	82.2085	241.699	79.554	241.699	82.2347	241.699	79.039	241.699	82.2001	241.699	78.5526	241.699	82.1122	241.699	78.122	241.699	81.9788	241.699	77.7714	241.699	81.8078	241.699	77.5197	241.699	81.6073	241.699	77.3789	241.699	81.3844	241.699	77.3534	241.699	81.1442	241.699	77.4397	241.699	80.8894	241.699	77.6264	241.699	80.6199	241.699	77.8957	241.699	80.3331	241.699	78.2247	241.699	80.0253	241.699	78.5894	241.699	79.6939	241.699	78.967	241.699	79.3392
250.488	82.4329	250.488	82.6869	250.488	82.1006	250.488	82.861	250.488	81.6963	250.488	82.9575	250.488	81.232	250.488	82.9819	250.488	80.7254	250.488	82.9422	250.488	80.1999	250.488	82.8484	250.488	79.6827	250.488	82.7119	250.488	79.2029	250.488	82.5446	250.488	78.7887	250.488	82.3577	250.488	78.4659	250.488	82.1601	250.488	78.256	250.488	81.9569	250.488	78.1738	250.488	81.7489	250.488	78.2239	250.488	81.5329	250.488	78.3966	250.488	81.3031	250.488	78.6692	250.488	81.0531	250.488	79.0096	250.488	80.7767	250.488	79.3845	250.488	80.4696	250.488	79.7652	250.488	80.1309
259.277	83.4235	259.277	83.6229	259.277	83.1475	259.277	83.7462	259.277	82.799	259.277	83.7971	259.277	82.3871	259.277	83.7821	259.277	81.9269	259.277	83.7094	259.277	81.4394	259.277	83.5882	259.277	80.9508	259.277	83.4286	259.277	80.4908	259.277	83.2412	259.277	80.09	259.277	83.0378	259.277	79.7758	259.277	82.8299	259.277	79.57	259.277	82.6274	259.277	79.4859	259.277	82.436	259.277	79.5264	259.277	82.2557	259.277	79.6814	259.277	82.0805	259.277	79.9288	259.277	81.8997	259.277	80.2369	259.277	81.7004	259.277	80.571	259.277	81.471	259.277	80.9006	259.277	81.2042
268.066	83.8465	268.066	83.9685	268.066	83.647	268.066	84.0171	268.066	83.371	268.066	84	268.066	83.0245	268.066	83.9279	268.066	82.6197	268.066	83.8132	268.066	82.1752	268.066	83.6689	268.066	81.7157	268.066	83.5072	268.066	81.2699	268.066	83.3388	268.066	80.8684	268.066	83.172	268.066	80.5396	268.066	83.0127	268.066	80.3077	268.066	82.8637	268.066	80.1898	268.066	82.7246	268.066	80.1936	268.066	82.5917	268.066	80.3139	268.066	82.4578	268.066	80.5308	268.066	82.3131	268.066	80.8129	268.066	82.1463	268.066	81.1234	268.066	81.9468	268.066	81.4294	268.066	81.7076
276.855	84.3542	276.855	84.442	276.855	84.1843	276.855	84.4449	276.855	83.9391	276.855	84.3643	276.855	83.628	276.855	84.2069	276.855	83.2639	276.855	83.9852	276.855	82.8621	276.855	83.7181	276.855	82.4419	276.855	83.4298	276.855	82.0257	276.855	83.1478	276.855	81.6391	276.855	82.8978	276.855	81.3086	276.855	82.6981	276.855	81.0579	276.855	82.555	276.855	80.9042	276.855	82.4618	276.855	80.8548	276.855	82.4022	276.855	80.9058	276.855	82.3548	276.855	81.0426	276.855	82.2981	276.855	81.2415	276.855	82.2134	276.855	81.4729	276.855	82.0879	276.855	81.7066	276.855	81.9171
287.109	84.7595	287.109	84.8397	287.109	84.5924	287.109	84.8324	287.109	84.3434	287.109	84.7405	287.109	84.0232	287.109	84.5695	287.109	83.6474	287.109	84.3272	287.109	83.2364	287.109	84.0252	287.109	82.813	287.109	83.6801	287.109	82.4013	287.109	83.3151	287.109	82.0256	287.109	82.9595	287.109	81.71	287.109	82.6449	287.109	81.4769	287.109	82.3982	287.109	81.3438	287.109	82.2351	287.109	81.3177	287.109	82.1543	287.109	81.3898	287.109	82.1388	287.109	81.5353	287.109	82.1607	287.109	81.7183	287.109	82.188	287.109	81.9005	287.109	82.1913	287.109	82.0504	287.109	82.1488
297.363	84.7807	297.363	84.8582	297.363	84.6171	297.363	84.8475	297.363	84.3739	297.363	84.7503	297.363	84.0627	297.363	84.5719	297.363	83.6994	297.363	84.3208	297.363	83.3032	297.363	84.0097	297.363	82.8944	297.363	83.6562	297.363	82.4928	297.363	83.2836	297.363	82.1158	297.363	82.9197	297.363	81.78	297.363	82.593	297.363	81.5028	297.363	82.3275	297.363	81.3028	297.363	82.137	297.363	81.1965	297.363	82.0219	297.363	81.1904	297.363	81.9695	297.363	81.2747	297.363	81.9564	297.363	81.4217	297.363	81.9533	297.363	81.5928	297.363	81.9305	297.363	81.7497	297.363	81.8655
307.617	84.7006	307.617	84.7155	307.617	84.6126	307.617	84.6623	307.617	84.4491	307.617	84.5465	307.617	84.2124	307.617	84.3731	307.617	83.9107	307.617	84.146	307.617	83.559	307.617	83.8708	307.617	83.1783	307.617	83.558	307.617	82.7935	307.617	83.2266	307.617	82.4308	307.617	82.9048	307.617	82.1151	307.617	82.6258	307.617	81.8676	307.617	82.4186	307.617	81.7037	307.617	82.2985	307.617	81.6312	307.617	82.261	307.617	81.6469	307.617	82.283	307.617	81.7363	307.617	82.3297	307.617	81.8755	307.617	82.3645	307.617	82.035	307.617	82.3588	307.617	82.1846	307.617	82.2981
319.336	84.5706	319.336	84.5816	319.336	84.4793	319.336	84.5166	319.336	84.3083	319.336	84.383	319.336	84.0637	319.336	84.1894	319.336	83.7578	319.336	83.9433	319.336	83.4078	319.336	83.6512	319.336	83.0345	319.336	83.3212	319.336	82.6605	319.336	82.9677	319.336	82.3082	319.336	82.6158	319.336	81.9996	319.336	82.3006	319.336	81.7571	319.336	82.059	319.336	81.6019	319.336	81.9162	319.336	81.5477	319.336	81.8755	319.336	81.5924	319.336	81.9168	319.336	81.7127	319.336	82.0052	319.336	81.8699	319.336	82.1011	319.336	82.0214	319.336	82.1689	319.336	82.1326	319.336	82.1832
329.59	84.698	329.59	84.6606	329.59	84.6497	329.59	84.5453	329.59	84.5133	329.59	84.3632	329.59	84.2926	329.59	84.127	329.59	83.9977	329.59	83.8479	329.59	83.6448	329.59	83.5343	329.59	83.255	329.59	83.1928	329.59	82.8519	329.59	82.8314	329.59	82.4594	329.59	82.4644	329.59	82.0999	329.59	82.1166	329.59	81.7956	329.59	81.8218	329.59	81.5693	329.59	81.6142	329.59	81.4415	329.59	81.5149	329.59	81.4209	329.59	81.5205	329.59	81.4933	329.59	81.602	329.59	81.6203	329.59	81.7153	329.59	81.751	329.59	81.8143	329.59	81.8405	329.59	81.8625
341.309	84.235	341.309	84.1252	341.309	84.2601	341.309	83.9403	341.309	84.1971	341.309	83.6946	341.309	84.0487	341.309	83.4052	341.309	83.8234	341.309	83.0885	341.309	83.5352	341.309	82.758	341.309	83.2016	341.309	82.4241	341.309	82.8433	341.309	82.0971	341.309	82.4833	341.309	81.7931	341.309	82.1472	341.309	81.5359	341.309	81.8635	341.309	81.3542	341.309	81.6607	341.309	81.2724	341.309	81.5604	341.309	81.2988	341.309	81.5667	341.309	81.4191	341.309	81.6596	341.309	81.5976	341.309	81.7979	341.309	81.7868	341.309	81.9316	341.309	81.9396	341.309	82.0157	341.309	82.021
353.027	84.097	353.027	83.9519	353.027	84.1384	353.027	83.7088	353.027	84.0764	353.027	83.3791	353.027	83.9176	353.027	82.9796	353.027	83.6742	353.027	82.532	353.027	83.3625	353.027	82.0613	353.027	83.0009	353.027	81.5938	353.027	82.6071	353.027	81.155	353.027	82.1976	353.027	80.769	353.027	81.791	353.027	80.4592	353.027	81.4147	353.027	80.2501	353.027	81.1087	353.027	80.1648	353.027	80.9183	353.027	80.2149	353.027	80.8706	353.027	80.3874	353.027	80.9501	353.027	80.6403	353.027	81.0984	353.027	80.9123	353.027	81.2406	353.027	81.1419	353.027	81.3141	353.027	81.2832
366.211	84.0251	366.211	83.8541	366.211	84.098	366.211	83.594	366.211	84.0694	366.211	83.2566	366.211	83.9436	366.211	82.8544	366.211	83.7321	366.211	82.3975	366.211	83.4527	366.211	81.8943	366.211	83.1254	366.211	81.3538	366.211	82.7689	366.211	80.7917	366.211	82.3965	366.211	80.2374	366.211	82.0161	366.211	79.7369	366.211	81.6342	366.211	79.3468	366.211	81.2636	366.211	79.1168	366.211	80.93	366.211	79.0706	366.211	80.6683	366.211	79.1948	366.211	80.5046	366.211	79.4419	366.211	80.4324	366.211	79.743	366.211	80.4057	366.211	80.0269	366.211	80.3591	366.211	80.2392
379.395	83.6121	379.395	83.4659	379.395	83.6755	379.395	83.245	379.395	83.6535	379.395	82.9596	379.395	83.551	379.395	82.6175	379.395	83.3805	379.395	82.2221	379.395	83.1601	379.395	81.7734	379.395	82.9089	379.395	81.2727	379.395	82.6418	379.395	80.7282	379.395	82.3655	379.395	80.1604	379.395	82.079	379.395	79.605	379.395	81.7807	379.395	79.1141	379.395	81.4783	379.395	78.7522	379.395	81.1933	379.395	78.5831	379.395	80.9534	379.395	78.6404	379.395	80.7733	379.395	78.9001	379.395	80.6381	379.395	79.2832	379.395	80.5043	379.395	79.6926	379.395	80.3205	379.395	80.051
392.578	82.2481	392.578	82.0006	392.578	82.429	392.578	81.7073	392.578	82.5291	392.578	81.3925	392.578	82.5414	392.578	81.0779	392.578	82.4675	392.578	80.7742	392.578	82.3177	392.578	80.4749	392.578	82.1098	392.578	80.1604	392.578	81.8645	392.578	79.8111	392.578	81.6005	392.578	79.4236	392.578	81.3317	392.578	79.02	392.578	81.0695	392.578	78.6477	392.578	80.8282	392.578	78.3676	392.578	80.6268	392.578	78.2369	392.578	80.4801	392.578	78.291	392.578	80.3839	392.578	78.5269	392.578	80.3058	392.578	78.8958	392.578	80.1947	392.578	79.3161	392.578	80.0018	392.578	79.7037
405.762	81.3805	405.762	81.2175	405.762	81.465	405.762	80.9757	405.762	81.4779	405.762	80.6647	405.762	81.4289	405.762	80.3056	405.762	81.3285	405.762	79.9278	405.762	81.1852	405.762	79.5602	405.762	81.0055	405.762	79.2209	405.762	80.7925	405.762	78.9127	405.762	80.5485	405.762	78.6274	405.762	80.2782	405.762	78.3571	405.762	79.9946	405.762	78.105	405.762	79.7232	405.762	77.894	405.762	79.499	405.762	77.7694	405.762	79.3522	405.762	77.7847	405.762	79.2867	405.762	77.9654	405.762	79.2701	405.762	78.2762	405.762	79.243	405.762	78.6309	405.762	79.1448	405.762	78.9389
420.41	81.4799	420.41	81.4078	420.41	81.4744	420.41	81.2658	420.41	81.3873	420.41	81.0615	420.41	81.2215	420.41	80.8013	420.41	80.9908	420.41	80.4902	420.41	80.7178	420.41	80.1334	420.41	80.426	420.41	79.7374	420.41	80.1282	420.41	79.311	420.41	79.8181	420.41	78.867	420.41	79.4754	420.41	78.4241	420.41	79.0853	420.41	78.0076	420.41	78.6622	420.41	77.6455	420.41	78.2613	420.41	77.3656	420.41	77.9582	420.41	77.1946	420.41	77.7972	420.41	77.153	420.41	77.752	420.41	77.2367	420.41	77.7439	420.41	77.4015	420.41	77.6964	420.41	77.5755
435.059	81.1854	435.059	81.1959	435.059	81.0842	435.059	81.1201	435.059	80.8984	435.059	80.9732	435.059	80.6426	435.059	80.7774	435.059	80.3395	435.059	80.5532	435.059	80.018	435.059	80.3103	435.059	79.7081	435.059	80.0444	435.059	79.4327	435.059	79.7465	435.059	79.1975	435.059	79.4155	435.059	78.9892	435.059	79.0663	435.059	78.785	435.059	78.7271	435.059	78.5698	435.059	78.4272	435.059	78.3514	435.059	78.1888	435.059	78.1611	435.059	78.0275	435.059	78.0372	435.059	77.9513	435.059	77.9957	435.059	77.9519	435.059	78.0131	435.059	77.9959	435.059	78.0401	435.059	78.0361
451.172	81.7841	451.172	81.8148	451.172	81.635	451.172	81.7277	451.172	81.3744	451.172	81.5319	451.172	81.0166	451.172	81.245	451.172	80.5846	451.172	80.889	451.172	80.1109	451.172	80.4826	451.172	79.6345	451.172	80.0362	451.172	79.1929	451.172	79.5526	451.172	78.8096	451.172	79.0374	451.172	78.4874	451.172	78.5126	451.172	78.2156	451.172	78.0254	451.172	77.9872	451.172	77.6417	451.172	77.8134	451.172	77.4214	451.172	77.7194	451.172	77.3852	451.172	77.7218	451.172	77.4993	451.172	77.804	451.172	77.689	451.172	77.9147	451.172	77.8705	451.172	77.9897	451.172	77.9798
465.82	82.044	465.82	82.1331	465.82	81.8269	465.82	82.1016	465.82	81.487	465.82	81.967	465.82	81.0426	465.82	81.7521	465.82	80.5236	465.82	81.4783	465.82	79.9678	465.82	81.1595	465.82	79.4133	465.82	80.7985	465.82	78.8894	465.82	80.3901	465.82	78.4085	465.82	79.9283	465.82	77.9687	465.82	79.4183	465.82	77.5703	465.82	78.885	465.82	77.2351	465.82	78.3763	465.82	77.01	465.82	77.9529	465.82	76.9395	465.82	77.6673	465.82	77.0233	465.82	77.5372	465.82	77.2045	465.82	77.5305	465.82	77.4004	465.82	77.5762	465.82	77.5422	465.82	77.5973
483.398	82.1969	483.398	82.2421	483.398	82.0206	483.398	82.17	483.398	81.713	483.398	82.0065	483.398	81.2885	483.398	81.7836	483.398	80.775	483.398	81.5286	483.398	80.2125	483.398	81.253	483.398	79.6476	483.398	80.9475	483.398	79.1221	483.398	80.59	483.398	78.6564	483.398	80.1639	483.398	78.2425	483.398	79.6752	483.398	77.8588	483.398	79.1609	483.398	77.5072	483.398	78.6846	483.398	77.2445	483.398	78.322	483.398	77.1674	483.398	78.1352	483.398	77.3315	483.398	78.1375	483.398	77.6781	483.398	78.2697	483.398	78.0641	483.398	78.4189	483.398	78.3526	483.398	78.4701
499.512	82.8344	499.512	82.9036	499.512	82.6019	499.512	82.8097	499.512	82.2265	499.512	82.5774	499.512	81.7417	499.512	82.2528	499.512	81.1892	499.512	81.8887	499.512	80.6157	499.512	81.5218	499.512	80.0648	499.512	81.1589	499.512	79.5631	499.512	80.7855	499.512	79.1059	499.512	80.3902	499.512	78.6625	499.512	79.9846	499.512	78.209	499.512	79.6049	499.512	77.7705	499.512	79.2961	499.512	77.4445	499.512	79.0943	499.512	77.3619	499.512	79.015	499.512	77.5805	499.512	79.0451	499.512	78.0158	499.512	79.132	499.512	78.5033	499.512	79.1899	499.512	78.9	499.512	79.1305
517.09	83.3528	517.09	83.3574	517.09	83.1893	517.09	83.2142	517.09	82.8745	517.09	82.9543	517.09	82.4322	517.09	82.6251	517.09	81.9023	517.09	82.2741	517.09	81.3393	517.09	81.9268	517.09	80.8038	517.09	81.5743	517.09	80.3434	517.09	81.1848	517.09	79.9669	517.09	80.7313	517.09	79.636	517.09	80.2156	517.09	79.288	517.09	79.6756	517.09	78.8842	517.09	79.1786	517.09	78.4618	517.09	78.8044	517.09	78.1521	517.09	78.6219	517.09	78.1063	517.09	78.6515	517.09	78.3423	517.09	78.8299	517.09	78.7042	517.09	79.0268	517.09	78.9977	517.09	79.1086
536.133	83.0576	536.133	82.9211	536.133	82.9744	536.133	82.5763	536.133	82.6842	536.133	82.0683	536.133	82.2218	536.133	81.4838	536.133	81.6454	536.133	80.942	536.133	81.0389	536.133	80.5465	536.133	80.5006	536.133	80.3175	536.133	80.1083	536.133	80.1777	536.133	79.8712	536.133	80.0152	536.133	79.7144	536.133	79.7573	536.133	79.525	536.133	79.4088	536.133	79.2286	536.133	79.0554	536.133	78.862	536.133	78.8335	536.133	78.6091	536.133	78.8582	536.133	78.6953	536.133	79.1404	536.133	79.134	536.133	79.5657	536.133	79.6782	536.133	79.957	536.133	80.0618	536.133	80.1543
555.176	83.3571	555.176	83.1643	555.176	83.3262	555.176	82.7637	555.176	83.0733	555.176	82.1903	555.176	82.6188	555.176	81.5007	555.176	82.0064	555.176	80.7699	555.176	81.3086	555.176	80.0774	555.176	80.6255	555.176	79.4826	555.176	80.059	555.176	79.0049	555.176	79.6594	555.176	78.6255	555.176	79.3849	555.176	78.3057	555.176	79.1272	555.176	78.0068	555.176	78.7849	555.176	77.7097	555.176	78.3306	555.176	77.443	555.176	77.8512	555.176	77.3004	555.176	77.5391	555.176	77.3875	555.176	77.5581	555.176	77.6934	555.176	77.8466	555.176	78.0461	555.176	78.1473	555.176	78.234
574.219	82.6661	574.219	82.5104	574.219	82.6461	574.219	82.1767	574.219	82.4574	574.219	81.6782	574.219	82.1112	574.219	81.0576	574.219	81.6328	574.219	80.3908	574.219	81.076	574.219	79.7702	574.219	80.5256	574.219	79.2605	574.219	80.0689	574.219	78.8529	574.219	79.7371	574.219	78.4691	574.219	79.4675	574.219	78.0255	574.219	79.1419	574.219	77.4998	574.219	78.6789	574.219	76.9581	574.219	78.1146	574.219	76.5336	574.219	77.6196	574.219	76.3682	574.219	77.3915	574.219	76.5355	574.219	77.4672	574.219	76.9642	574.219	77.6888	574.219	77.4487	574.219	77.8428	574.219	77.7758
594.727	82.2798	594.727	82.2524	594.727	82.1103	594.727	82.0382	594.727	81.7492	594.727	81.6599	594.727	81.2245	594.727	81.1546	594.727	80.5926	594.727	80.577	594.727	79.9433	594.727	79.9952	594.727	79.396	594.727	79.4735	594.727	79.0635	594.727	79.0439	594.727	78.968	594.727	78.6827	594.727	78.988	594.727	78.3164	594.727	78.9169	594.727	77.8628	594.727	78.5807	594.727	77.2861	594.727	77.9355	594.727	76.6462	594.727	77.1537	594.727	76.1178	594.727	76.6239	594.727	75.921	594.727	76.6068	594.727	76.1305	594.727	76.8829	594.727	76.5671	594.727	77.0606	594.727	76.9446
615.234	82.764	615.234	82.7527	615.234	82.5535	615.234	82.5269	615.234	82.128	615.234	82.1126	615.234	81.5051	615.234	81.5555	615.234	80.7175	615.234	80.9236	615.234	79.8322	615.234	80.3109	615.234	78.9813	615.234	79.8237	615.234	78.3592	615.234	79.5236	615.234	78.1093	615.234	79.3608	615.234	78.1623	615.234	79.1927	615.234	78.2632	615.234	78.8816	615.234	78.1562	615.234	78.3766	615.234	77.7086	615.234	77.737	615.234	76.9713	615.234	77.1039	615.234	76.2368	615.234	76.638	615.234	75.9132	615.234	76.4341	615.234	76.0655	615.234	76.4397	615.234	76.3444	615.234	76.4694
637.207	83.2422	637.207	83.142	637.207	83.0823	637.207	82.7964	637.207	82.6752	637.207	82.2569	637.207	82.0517	637.207	81.6103	637.207	81.2549	637.207	80.9567	637.207	80.3419	637.207	80.3735	637.207	79.4045	637.207	79.8977	637.207	78.5988	637.207	79.5294	637.207	78.1149	637.207	79.2252	637.207	78.0216	637.207	78.892	637.207	78.151	637.207	78.4304	637.207	78.2261	637.207	77.8249	637.207	78.0585	637.207	77.2091	637.207	77.6444	637.207	76.8264	637.207	77.1909	637.207	76.8398	637.207	77.0116	637.207	77.1579	637.207	77.2064	637.207	77.5135	637.207	77.5254	637.207	77.6662
659.18	83.5742	659.18	83.4903	659.18	83.4023	659.18	83.156	659.18	82.9857	659.18	82.6003	659.18	82.3476	659.18	81.8804	659.18	81.524	659.18	81.075	659.18	80.5787	659.18	80.2643	659.18	79.6332	659.18	79.5082	659.18	78.8853	659.18	78.8482	659.18	78.5218	659.18	78.3239	659.18	78.5228	659.18	77.9514	659.18	78.6295	659.18	77.6701	659.18	78.5524	659.18	77.3642	659.18	78.1524	659.18	76.978	659.18	77.5301	659.18	76.6272	659.18	77.0525	659.18	76.5749	659.18	77.0839	659.18	76.9479	659.18	77.506	659.18	77.5072	659.18	77.8732	659.18	77.8847
682.617	83.6026	682.617	83.4343	682.617	83.4825	682.617	82.9879	682.617	83.0867	682.617	82.3072	682.617	82.4455	682.617	81.4833	682.617	81.6019	682.617	80.6552	682.617	80.6121	682.617	79.9675	682.617	79.5717	682.617	79.4922	682.617	78.6653	682.617	79.193	682.617	78.1415	682.617	78.974	682.617	78.0877	682.617	78.7352	682.617	78.2668	682.617	78.3896	682.617	78.3277	682.617	77.8828	682.617	78.0616	682.617	77.2554	682.617	77.4863	682.617	76.7094	682.617	76.8781	682.617	76.5352	682.617	76.6691	682.617	76.8165	682.617	76.9795	682.617	77.2784	682.617	77.4103	682.617	77.5437
707.52	83.4443	707.52	83.1665	707.52	83.4636	707.52	82.6617	707.52	83.2119	707.52	81.9811	707.52	82.696	707.52	81.1968	707.52	81.9397	707.52	80.4043	707.52	80.9807	707.52	79.7212	707.52	79.8858	707.52	79.2481	707.52	78.8095	707.52	78.9766	707.52	78.051	707.52	78.7663	707.52	77.8865	707.52	78.4613	707.52	78.1832	707.52	77.9988	707.52	78.4581	707.52	77.3893	707.52	78.3085	707.52	76.6541	707.52	77.6339	707.52	75.9061	707.52	76.7649	707.52	75.5149	707.52	76.415	707.52	75.8449	707.52	76.7956	707.52	76.623	707.52	77.2457	707.52	77.2111
732.422	83.3181	732.422	83.2476	732.422	83.1777	732.422	82.9621	732.422	82.8401	732.422	82.4793	732.422	82.3146	732.422	81.8436	732.422	81.596	732.422	81.1218	732.422	80.6705	732.422	80.3951	732.422	79.5616	732.422	79.752	732.422	78.436	732.422	79.2671	732.422	77.6735	732.422	78.9428	732.422	77.5752	732.422	78.6715	732.422	77.8867	732.422	78.2903	732.422	78.045	732.422	77.6639	732.422	77.6558	732.422	76.7216	732.422	76.6081	732.422	75.5225	732.422	75.2666	732.422	74.4886	732.422	74.7586	732.422	74.4488	732.422	75.5152	732.422	75.3995	732.422	76.2948	732.422	76.2538
757.324	82.9847	757.324	83.1643	757.324	82.6107	757.324	83.1215	757.324	82.0819	757.324	82.8322	757.324	81.4428	757.324	82.278	757.324	80.7103	757.324	81.4701	757.324	79.84	757.324	80.4961	757.324	78.7511	757.324	79.5633	757.324	77.4705	757.324	78.9383	757.324	76.4028	757.324	78.7065	757.324	76.2484	757.324	78.6534	757.324	76.9153	757.324	78.4878	757.324	77.5143	757.324	78.0538	757.324	77.4559	757.324	77.346	757.324	76.573	757.324	76.4468	757.324	75.0039	757.324	75.5054	757.324	73.4453	757.324	74.7594	757.324	73.0409	757.324	74.3712	757.324	73.608	757.324	74.115
785.156	83.5533	785.156	83.8444	785.156	83.106	785.156	83.9076	785.156	82.5588	785.156	83.6828	785.156	81.9268	785.156	83.1482	785.156	81.1723	785.156	82.3456	785.156	80.2235	785.156	81.393	785.156	79.0197	785.156	80.4521	785.156	77.5647	785.156	79.6302	785.156	76.0159	785.156	78.9029	785.156	74.8543	785.156	78.1936	785.156	74.7076	785.156	77.5378	785.156	75.3825	785.156	77.0552	785.156	75.9883	785.156	76.6779	785.156	75.9077	785.156	76.1219	785.156	74.9347	785.156	75.2537	785.156	73.4069	785.156	74.4158	785.156	72.6654	785.156	74.0967	785.156	73.301	785.156	73.9406
811.523	83.6206	811.523	83.9922	811.523	83.025	811.523	84.0532	811.523	82.299	811.523	83.7523	811.523	81.5138	811.523	83.0937	811.523	80.691	811.523	82.1424	811.523	79.789	811.523	81.0261	811.523	78.7139	811.523	79.9637	811.523	77.3745	811.523	79.2318	811.523	75.8373	811.523	78.896	811.523	74.6091	811.523	78.6478	811.523	74.4658	811.523	78.1228	811.523	75.2198	811.523	77.2437	811.523	75.9213	811.523	76.2708	811.523	75.9873	811.523	75.5278	811.523	75.2941	811.523	75.0576	811.523	74.2325	811.523	74.7492	811.523	73.7267	811.523	74.5624	811.523	74.0134	811.523	74.3793
840.82	83.6765	840.82	84.0189	840.82	83.0729	840.82	84.0454	840.82	82.2997	840.82	83.7063	840.82	81.4931	840.82	82.9682	840.82	80.7559	840.82	81.8527	840.82	80.0548	840.82	80.4497	840.82	79.2346	840.82	78.9021	840.82	78.1489	840.82	77.4911	840.82	76.7901	840.82	76.7644	840.82	75.4172	840.82	76.9591	840.82	74.6071	840.82	77.3918	840.82	74.7457	840.82	77.3756	840.82	75.4124	840.82	76.81	840.82	75.8949	840.82	75.9702	840.82	75.7718	840.82	75.2379	840.82	75.1177	840.82	74.932	840.82	74.6482	840.82	75.0402	840.82	74.8497	840.82	75.1185
870.117	83.4603	870.117	83.8152	870.117	82.8356	870.117	83.8351	870.117	82.0611	870.117	83.4961	870.117	81.2638	870.117	82.7926	870.117	80.4862	870.117	81.7373	870.117	79.6632	870.117	80.3833	870.117	78.6988	870.117	78.868	870.117	77.5551	870.117	77.445	870.117	76.3276	870.117	76.36	870.117	75.3529	870.117	75.6417	870.117	75.0854	870.117	75.2279	870.117	75.454	870.117	75.1471	870.117	75.8147	870.117	75.2838	870.117	75.632	870.117	75.2934	870.117	74.7644	870.117	74.9728	870.117	73.671	870.117	74.5525	870.117	73.3709	870.117	74.3932	870.117	73.8977	870.117	74.3154
900.879	83.7374	900.879	84.0865	900.879	83.0497	900.879	84.0415	900.879	82.1432	900.879	83.5766	900.879	81.1849	900.879	82.678	900.879	80.3028	900.879	81.3822	900.879	79.4947	900.879	79.8317	900.879	78.6314	900.879	78.2549	900.879	77.5471	900.879	76.8805	900.879	76.1522	900.879	75.9732	900.879	74.6049	900.879	75.8241	900.879	73.5977	900.879	76.2416	900.879	73.9862	900.879	76.5378	900.879	75.3145	900.879	76.2949	900.879	76.4032	900.879	75.6068	900.879	76.5984	900.879	74.918	900.879	75.9147	900.879	74.7448	900.879	75.1985	900.879	75.1071	900.879	75.2458	900.879	75.4014
933.105	83.7068	933.105	83.9647	933.105	83.0212	933.105	83.7432	933.105	82.062	933.105	83.0926	933.105	81.0359	933.105	82.1332	933.105	80.1002	933.105	81.0009	933.105	79.2818	933.105	79.7851	933.105	78.4878	933.105	78.5238	933.105	77.5928	933.105	77.2543	933.105	76.5306	933.105	76.0181	933.105	75.3809	933.105	74.8105	933.105	74.4853	933.105	73.7659	933.105	74.3649	933.105	73.4076	933.105	75.0265	933.105	73.9068	933.105	75.6823	933.105	74.5828	933.105	75.584	933.105	74.8046	933.105	74.698	933.105	74.6277	933.105	74.0991	933.105	74.6196	933.105	74.472	933.105	74.762
965.332	83.6528	965.332	83.9445	965.332	82.953	965.332	83.7813	965.332	81.9973	965.332	83.1716	965.332	81.0235	965.332	82.1555	965.332	80.1859	965.332	80.8318	965.332	79.4143	965.332	79.4148	965.332	78.5286	965.332	78.211	965.332	77.4373	965.332	77.3661	965.332	76.1905	965.332	76.6861	965.332	74.9322	965.332	75.9805	965.332	73.924	965.332	75.3984	965.332	73.6635	965.332	75.165	965.332	74.3651	965.332	75.1296	965.332	75.2232	965.332	74.9007	965.332	75.3416	965.332	74.3707	965.332	74.7215	965.332	74.0709	965.332	74.4919	965.332	74.5493	965.332	75.035	965.332	75.1581
1,000.49	83.7108	1,000.49	83.9803	1,000.49	82.9242	1,000.49	83.719	1,000.49	81.8055	1,000.49	83.0327	1,000.49	80.6286	1,000.49	82.034	1,000.49	79.5962	1,000.49	80.787	1,000.49	78.7413	1,000.49	79.3411	1,000.49	77.9414	1,000.49	77.7376	1,000.49	77.0377	1,000.49	75.9853	1,000.49	75.9617	1,000.49	74.2696	1,000.49	74.7949	1,000.49	73.2517	1,000.49	73.7051	1,000.49	73.3072	1,000.49	73.0056	1,000.49	73.7784	1,000.49	73.3209	1,000.49	74.1234	1,000.49	74.2571	1,000.49	74.3132	1,000.49	74.3363	1,000.49	74.3993	1,000.49	73.0682	1,000.49	74.3977	1,000.49	72.344	1,000.49	74.4216	1,000.49	73.4956	1,000.49	74.3241
1,035.64	83.0354	1,035.64	83.4825	1,035.64	82.3024	1,035.64	83.6015	1,035.64	81.3629	1,035.64	83.3565	1,035.64	80.3401	1,035.64	82.718	1,035.64	79.3353	1,035.64	81.6825	1,035.64	78.3793	1,035.64	80.2873	1,035.64	77.4759	1,035.64	78.6411	1,035.64	76.6304	1,035.64	77.0103	1,035.64	75.8161	1,035.64	75.8228	1,035.64	74.9676	1,035.64	75.2435	1,035.64	74.079	1,035.64	74.951	1,035.64	73.4528	1,035.64	74.7704	1,035.64	73.6431	1,035.64	74.8231	1,035.64	74.3565	1,035.64	74.9911	1,035.64	74.4656	1,035.64	74.8859	1,035.64	73.392	1,035.64	74.4192	1,035.64	72.2222	1,035.64	74.0235	1,035.64	72.7997	1,035.64	73.6923
1,072.27	82.986	1,072.27	83.5414	1,072.27	82.0877	1,072.27	83.6832	1,072.27	80.9872	1,072.27	83.4085	1,072.27	79.7973	1,072.27	82.7651	1,072.27	78.5796	1,072.27	81.8292	1,072.27	77.4423	1,072.27	80.6573	1,072.27	76.4529	1,072.27	79.4001	1,072.27	75.53	1,072.27	78.5413	1,072.27	74.6972	1,072.27	78.2342	1,072.27	74.2096	1,072.27	77.537	1,072.27	73.8918	1,072.27	75.7355	1,072.27	73.3187	1,072.27	73.6293	1,072.27	72.9779	1,072.27	73.3085	1,072.27	73.5	1,072.27	74.2664	1,072.27	73.8449	1,072.27	74.6461	1,072.27	73.1227	1,072.27	74.2921	1,072.27	72.3522	1,072.27	74.112	1,072.27	73.0983	1,072.27	73.9824
1,108.89	82.5196	1,108.89	83.0602	1,108.89	81.7263	1,108.89	83.2842	1,108.89	80.7079	1,108.89	83.1089	1,108.89	79.5345	1,108.89	82.5244	1,108.89	78.4027	1,108.89	81.6488	1,108.89	77.5003	1,108.89	80.5892	1,108.89	76.7265	1,108.89	79.316	1,108.89	75.7284	1,108.89	77.9716	1,108.89	74.2853	1,108.89	77.0834	1,108.89	72.7631	1,108.89	76.6155	1,108.89	71.9019	1,108.89	75.8174	1,108.89	71.8373	1,108.89	74.563	1,108.89	72.7244	1,108.89	73.7514	1,108.89	74.0645	1,108.89	74.0577	1,108.89	74.3669	1,108.89	74.5609	1,108.89	73.1806	1,108.89	74.264	1,108.89	72.1647	1,108.89	73.4624	1,108.89	72.5491	1,108.89	72.9867
1,148.44	82.6421	1,148.44	83.0779	1,148.44	81.8325	1,148.44	83.1341	1,148.44	80.7054	1,148.44	82.8006	1,148.44	79.381	1,148.44	82.1055	1,148.44	78.0346	1,148.44	81.1652	1,148.44	76.8963	1,148.44	80.0328	1,148.44	76.0152	1,148.44	78.6619	1,148.44	75.0046	1,148.44	77.1362	1,148.44	73.4836	1,148.44	75.6015	1,148.44	72.0377	1,148.44	74.2437	1,148.44	71.8647	1,148.44	73.5762	1,148.44	72.1951	1,148.44	73.7251	1,148.44	72.2154	1,148.44	73.8861	1,148.44	72.7784	1,148.44	73.7016	1,148.44	73.4702	1,148.44	73.5258	1,148.44	72.9428	1,148.44	73.0285	1,148.44	72.1592	1,148.44	72.2896	1,148.44	72.2449	1,148.44	72.1705
1,189.45	82.8823	1,189.45	83.1256	1,189.45	82.0614	1,189.45	82.888	1,189.45	80.7592	1,189.45	82.3437	1,189.45	79.1384	1,189.45	81.5377	1,189.45	77.4995	1,189.45	80.4494	1,189.45	76.4124	1,189.45	79.0754	1,189.45	76.0286	1,189.45	77.3677	1,189.45	75.6221	1,189.45	75.4942	1,189.45	74.4225	1,189.45	73.9404	1,189.45	72.3631	1,189.45	72.7445	1,189.45	70.5002	1,189.45	72.1376	1,189.45	69.8141	1,189.45	72.5991	1,189.45	70.3382	1,189.45	73.1574	1,189.45	71.9766	1,189.45	72.8573	1,189.45	72.8644	1,189.45	72.0767	1,189.45	72.0181	1,189.45	71.8351	1,189.45	71.0481	1,189.45	72.0098	1,189.45	71.5162	1,189.45	71.99
1,230.47	82.8741	1,230.47	83.1187	1,230.47	81.9638	1,230.47	82.7241	1,230.47	80.6052	1,230.47	81.8969	1,230.47	79.0809	1,230.47	80.8353	1,230.47	77.5058	1,230.47	79.6885	1,230.47	75.9876	1,230.47	78.3461	1,230.47	74.9035	1,230.47	76.1786	1,230.47	74.2723	1,230.47	73.1404	1,230.47	73.3711	1,230.47	71.1092	1,230.47	71.9404	1,230.47	70.2234	1,230.47	70.8732	1,230.47	69.4808	1,230.47	70.592	1,230.47	70.888	1,230.47	71.1842	1,230.47	73.0551	1,230.47	72.9934	1,230.47	73.6743	1,230.47	73.5156	1,230.47	72.9036	1,230.47	71.2377	1,230.47	71.9666	1,230.47	69.171	1,230.47	71.4466	1,230.47	70.5096	1,230.47	71.1948
1,274.41	82.5154	1,274.41	82.8249	1,274.41	81.5001	1,274.41	82.4692	1,274.41	79.9867	1,274.41	81.6367	1,274.41	78.2366	1,274.41	80.4288	1,274.41	76.4916	1,274.41	78.874	1,274.41	75.1063	1,274.41	77.2293	1,274.41	74.1829	1,274.41	75.5994	1,274.41	73.455	1,274.41	73.7492	1,274.41	72.5689	1,274.41	72.4781	1,274.41	71.1858	1,274.41	71.8615	1,274.41	69.8059	1,274.41	69.8656	1,274.41	69.7299	1,274.41	67.8139	1,274.41	69.738	1,274.41	70.8531	1,274.41	69.4442	1,274.41	72.4628	1,274.41	70.8528	1,274.41	71.246	1,274.41	71.0935	1,274.41	69.6508	1,274.41	69.4048	1,274.41	69.9496	1,274.41	69.5695	1,274.41	70.4155
1,319.82	81.7346	1,319.82	82.3991	1,319.82	80.5669	1,319.82	82.141	1,319.82	79.299	1,319.82	81.0058	1,319.82	77.8425	1,319.82	79.56	1,319.82	76.0402	1,319.82	78.1185	1,319.82	74.1928	1,319.82	76.2285	1,319.82	72.8755	1,319.82	73.6401	1,319.82	72.1762	1,319.82	70.8725	1,319.82	71.3578	1,319.82	69.4273	1,319.82	69.8918	1,319.82	70.2311	1,319.82	68.8667	1,319.82	70.8471	1,319.82	68.9167	1,319.82	70.0589	1,319.82	68.6112	1,319.82	69.0223	1,319.82	70.1121	1,319.82	69.6363	1,319.82	71.7853	1,319.82	70.4992	1,319.82	70.9802	1,319.82	70.4932	1,319.82	69.2287	1,319.82	70.0109	1,319.82	69.1854	1,319.82	69.7848
1,366.7	81.097	1,366.7	81.8704	1,366.7	80.1029	1,366.7	81.9617	1,366.7	78.8123	1,366.7	80.9762	1,366.7	77.0515	1,366.7	79.1748	1,366.7	75.1678	1,366.7	77.3337	1,366.7	73.6073	1,366.7	75.6902	1,366.7	72.1963	1,366.7	73.733	1,366.7	70.8619	1,366.7	71.3044	1,366.7	69.8514	1,366.7	68.2588	1,366.7	68.9487	1,366.7	66.9614	1,366.7	67.0875	1,366.7	68.0906	1,366.7	65.465	1,366.7	68.4388	1,366.7	67.5144	1,366.7	68.4308	1,366.7	68.4903	1,366.7	69.5799	1,366.7	68.6401	1,366.7	70.8391	1,366.7	69.1343	1,366.7	71.0392	1,366.7	68.9208	1,366.7	69.7026	1,366.7	68.6853	1,366.7	68.7002
1,413.57	80.5625	1,413.57	81.4305	1,413.57	79.2341	1,413.57	81.4692	1,413.57	77.9006	1,413.57	80.7464	1,413.57	76.1588	1,413.57	79.409	1,413.57	73.939	1,413.57	77.7766	1,413.57	72.5477	1,413.57	76.3379	1,413.57	71.7002	1,413.57	74.9334	1,413.57	70.7812	1,413.57	72.945	1,413.57	70.8799	1,413.57	69.7606	1,413.57	70.6555	1,413.57	67.5339	1,413.57	68.8519	1,413.57	68.7754	1,413.57	67.3836	1,413.57	68.7811	1,413.57	64.9485	1,413.57	67.5234	1,413.57	62.9817	1,413.57	68.7402	1,413.57	68.6707	1,413.57	69.526	1,413.57	69.0811	1,413.57	69.0653	1,413.57	66.3548	1,413.57	68.6206	1,413.57	66.2425	1,413.57	67.7462
1,463.38	80.5991	1,463.38	81.0222	1,463.38	79.5513	1,463.38	81.2892	1,463.38	77.4069	1,463.38	81.1576	1,463.38	74.5275	1,463.38	79.9923	1,463.38	72.799	1,463.38	77.8125	1,463.38	72.9454	1,463.38	75.9964	1,463.38	72.7914	1,463.38	75.2512	1,463.38	71.7003	1,463.38	73.8057	1,463.38	70.7504	1,463.38	70.3051	1,463.38	70.3494	1,463.38	67.9049	1,463.38	69.6487	1,463.38	69.1127	1,463.38	68.6781	1,463.38	69.1721	1,463.38	66.2662	1,463.38	68.0237	1,463.38	64.742	1,463.38	68.7778	1,463.38	67.576	1,463.38	69.602	1,463.38	66.5704	1,463.38	68.9886	1,463.38	65.221	1,463.38	68.3203	1,463.38	67.0446	1,463.38	68.0748
1,516.11	81.2052	1,516.11	81.8485	1,516.11	79.7568	1,516.11	81.786	1,516.11	77.4911	1,516.11	81.3712	1,516.11	74.5349	1,516.11	80.406	1,516.11	72.8541	1,516.11	78.5004	1,516.11	73.0734	1,516.11	76.4537	1,516.11	73.3856	1,516.11	75.3349	1,516.11	72.4237	1,516.11	73.7318	1,516.11	70.2587	1,516.11	70.0672	1,516.11	68.4474	1,516.11	65.3281	1,516.11	68.8924	1,516.11	68.4167	1,516.11	70.5898	1,516.11	71.9883	1,516.11	69.6709	1,516.11	71.2206	1,516.11	65.1995	1,516.11	69.7656	1,516.11	66.8574	1,516.11	70.3243	1,516.11	67.8477	1,516.11	69.7762	1,516.11	66.9096	1,516.11	69.0221	1,516.11	67.5814	1,516.11	69.2492
1,568.85	81.5411	1,568.85	82.3354	1,568.85	79.857	1,568.85	82.0229	1,568.85	77.8158	1,568.85	81.1398	1,568.85	75.4631	1,568.85	80.1122	1,568.85	73.1572	1,568.85	78.2879	1,568.85	71.3033	1,568.85	75.4592	1,568.85	70.1924	1,568.85	73.7	1,568.85	69.8552	1,568.85	72.6189	1,568.85	69.605	1,568.85	69.2574	1,568.85	68.9626	1,568.85	61.8556	1,568.85	67.5168	1,568.85	60.2708	1,568.85	67.9804	1,568.85	68.6253	1,568.85	68.1329	1,568.85	68.6118	1,568.85	64.6213	1,568.85	66.7291	1,568.85	63.4586	1,568.85	68.9152	1,568.85	65.7596	1,568.85	69.736	1,568.85	67.4669	1,568.85	68.573	1,568.85	68.1628	1,568.85	68.6287
1,624.51	81.0488	1,624.51	82.0007	1,624.51	79.6961	1,624.51	81.9903	1,624.51	77.4797	1,624.51	80.7108	1,624.51	74.3626	1,624.51	78.9911	1,624.51	72.0683	1,624.51	77.5422	1,624.51	69.8934	1,624.51	75.2986	1,624.51	67.8502	1,624.51	72.8755	1,624.51	67.4157	1,624.51	71.5706	1,624.51	68.2085	1,624.51	69.9546	1,624.51	68.4724	1,624.51	68.6161	1,624.51	64.9185	1,624.51	65.2258	1,624.51	63.6951	1,624.51	64.485	1,624.51	67.2989	1,624.51	68.1247	1,624.51	64.6042	1,624.51	65.8329	1,624.51	61.5243	1,624.51	67.6808	1,624.51	65.7681	1,624.51	70.5582	1,624.51	68.9043	1,624.51	69.0524	1,624.51	67.6671	1,624.51	66.2918
1,681.64	80.4186	1,681.64	81.0553	1,681.64	79.0945	1,681.64	81.6656	1,681.64	76.1426	1,681.64	80.8651	1,681.64	72.5978	1,681.64	78.2092	1,681.64	70.0757	1,681.64	76.6294	1,681.64	69.1936	1,681.64	75.3528	1,681.64	69.1113	1,681.64	71.6516	1,681.64	69.1008	1,681.64	69.5107	1,681.64	69.199	1,681.64	66.2268	1,681.64	69.0493	1,681.64	64.0748	1,681.64	67.3793	1,681.64	64.1729	1,681.64	66.2438	1,681.64	59.7409	1,681.64	67.2996	1,681.64	62.8799	1,681.64	63.9386	1,681.64	66.363	1,681.64	61.8624	1,681.64	68.7211	1,681.64	64.556	1,681.64	69.4055	1,681.64	66.5772	1,681.64	67.6803	1,681.64	66.0151	1,681.64	64.841
1,741.7	80.1072	1,741.7	80.9581	1,741.7	78.1533	1,741.7	80.9022	1,741.7	75.1752	1,741.7	80.2876	1,741.7	70.2756	1,741.7	78.2477	1,741.7	66.5975	1,741.7	75.1094	1,741.7	68.7028	1,741.7	72.5002	1,741.7	70.0725	1,741.7	69.4959	1,741.7	70.4124	1,741.7	68.1067	1,741.7	69.8516	1,741.7	66.729	1,741.7	69.4028	1,741.7	67.9857	1,741.7	68.5247	1,741.7	68.9241	1,741.7	65.5073	1,741.7	65.7009	1,741.7	65.9313	1,741.7	64.7741	1,741.7	64.2553	1,741.7	64.5306	1,741.7	63.1187	1,741.7	66.6923	1,741.7	62.5509	1,741.7	68.2285	1,741.7	66.0855	1,741.7	64.9299	1,741.7	67.8789	1,741.7	63.5062
1,803.22	81.0403	1,803.22	81.8313	1,803.22	78.4675	1,803.22	80.8566	1,803.22	73.7779	1,803.22	78.9996	1,803.22	67.326	1,803.22	77.0545	1,803.22	67.2224	1,803.22	73.9997	1,803.22	68.9656	1,803.22	70.1364	1,803.22	68.5673	1,803.22	63.649	1,803.22	69.4391	1,803.22	63.1146	1,803.22	70.4666	1,803.22	65.4297	1,803.22	69.7658	1,803.22	67.4298	1,803.22	68.8249	1,803.22	70.6253	1,803.22	65.0642	1,803.22	68.3303	1,803.22	62.2465	1,803.22	64.9513	1,803.22	64.4622	1,803.22	64.9533	1,803.22	64.2283	1,803.22	65.4022	1,803.22	63.6937	1,803.22	65.2102	1,803.22	66.5735	1,803.22	63.099	1,803.22	66.6614	1,803.22	63.151
1,866.21	81.5496	1,866.21	82.3755	1,866.21	79.0103	1,866.21	81.3862	1,866.21	73.8369	1,866.21	78.328	1,866.21	66.4609	1,866.21	74.9865	1,866.21	65.6668	1,866.21	71.9584	1,866.21	68.9148	1,866.21	66.6276	1,866.21	69.4983	1,866.21	63.3098	1,866.21	68.6935	1,866.21	64.401	1,866.21	70.4442	1,866.21	67.4501	1,866.21	70.5403	1,866.21	69.6604	1,866.21	67.6369	1,866.21	71.7917	1,866.21	66.6162	1,866.21	69.5252	1,866.21	65.1558	1,866.21	59.9144	1,866.21	64.358	1,866.21	59.2602	1,866.21	57.8894	1,866.21	64.4573	1,866.21	62.5262	1,866.21	60.3251	1,866.21	65.3555	1,866.21	63.6053	1,866.21	65.5653	1,866.21	66.716
1,932.13	81.3554	1,932.13	82.0762	1,932.13	79.0878	1,932.13	81.5354	1,932.13	73.1578	1,932.13	79.0698	1,932.13	61.879	1,932.13	74.6818	1,932.13	67.5345	1,932.13	71.2812	1,932.13	70.4047	1,932.13	67.0962	1,932.13	71.2076	1,932.13	64.0354	1,932.13	70.1736	1,932.13	69.9179	1,932.13	70.0098	1,932.13	70.539	1,932.13	71.0683	1,932.13	68.0413	1,932.13	69.0279	1,932.13	69.7773	1,932.13	67.0638	1,932.13	68.9202	1,932.13	65.7561	1,932.13	65.5662	1,932.13	64.428	1,932.13	64.5841	1,932.13	64.9044	1,932.13	61.4463	1,932.13	56.4989	1,932.13	56.9712	1,932.13	67.0629	1,932.13	63.6116	1,932.13	66.5763	1,932.13	65.0098
1,999.51	81.4858	1,999.51	82.1643	1,999.51	78.4425	1,999.51	81.1335	1,999.51	72.0645	1,999.51	79.1305	1,999.51	61.8703	1,999.51	75.1848	1,999.51	69.7626	1,999.51	68.7036	1,999.51	72.3526	1,999.51	63.224	1,999.51	73.1109	1,999.51	66.7807	1,999.51	72.8916	1,999.51	71.1249	1,999.51	71.6324	1,999.51	73.0719	1,999.51	72.0116	1,999.51	69.3157	1,999.51	71.1735	1,999.51	64.295	1,999.51	70.3689	1,999.51	64.7316	1,999.51	68.521	1,999.51	67.1327	1,999.51	63.7191	1,999.51	67.7742	1,999.51	66.6087	1,999.51	61.1838	1,999.51	61.6332	1,999.51	58.1577	1,999.51	67.7841	1,999.51	63.1304	1,999.51	69.0927	1,999.51	65.0398
2,069.82	82.5144	2,069.82	82.9833	2,069.82	78.337	2,069.82	81.2663	2,069.82	70.7949	2,069.82	79.573	2,069.82	55.0063	2,069.82	74.3166	2,069.82	71.5592	2,069.82	60.9629	2,069.82	73.4278	2,069.82	65.3341	2,069.82	73.5544	2,069.82	68.9697	2,069.82	74.201	2,069.82	68.7787	2,069.82	72.0255	2,069.82	69.642	2,069.82	71.8989	2,069.82	71.2781	2,069.82	73.0603	2,069.82	66.3267	2,069.82	71.1523	2,069.82	64.5814	2,069.82	69.7099	2,069.82	69.207	2,069.82	67.0311	2,069.82	67.5846	2,069.82	63.7329	2,069.82	62.3755	2,069.82	61.9247	2,069.82	58.0759	2,069.82	67.7294	2,069.82	64.09	2,069.82	69.0096	2,069.82	67.3467
2,143.07	82.3385	2,143.07	82.9898	2,143.07	79.083	2,143.07	82.5183	2,143.07	70.784	2,143.07	79.8098	2,143.07	64.39	2,143.07	72.8814	2,143.07	72.6039	2,143.07	54.4515	2,143.07	73.9289	2,143.07	66.8198	2,143.07	73.9852	2,143.07	69.2201	2,143.07	74.8561	2,143.07	70.333	2,143.07	72.8971	2,143.07	68.8344	2,143.07	70.0342	2,143.07	71.4051	2,143.07	73.2972	2,143.07	71.8734	2,143.07	72.4545	2,143.07	66.1918	2,143.07	68.1638	2,143.07	67.993	2,143.07	61.8025	2,143.07	66.6864	2,143.07	63.4141	2,143.07	60.9905	2,143.07	54.498	2,143.07	60.3569	2,143.07	66.4827	2,143.07	63.4549	2,143.07	67.4021	2,143.07	67.9918
2,219.24	81.8802	2,219.24	83.3816	2,219.24	78.0739	2,219.24	82.7238	2,219.24	68.2271	2,219.24	78.6384	2,219.24	69.6816	2,219.24	70.674	2,219.24	74.2497	2,219.24	57.1518	2,219.24	75.0143	2,219.24	70.3941	2,219.24	74.4163	2,219.24	71.9168	2,219.24	72.4431	2,219.24	73.1608	2,219.24	72.502	2,219.24	74.202	2,219.24	72.3301	2,219.24	71.6235	2,219.24	70.4385	2,219.24	73.6257	2,219.24	73.2204	2,219.24	72.598	2,219.24	71.6997	2,219.24	67.6901	2,219.24	63.5848	2,219.24	64.7678	2,219.24	62.0466	2,219.24	62.9494	2,219.24	46.9511	2,219.24	58.9353	2,219.24	64.7133	2,219.24	63.8938	2,219.24	64.9776	2,219.24	67.3925
2,296.88	82.211	2,296.88	82.6573	2,296.88	78.0068	2,296.88	81.3725	2,296.88	66.5514	2,296.88	77.6405	2,296.88	72.2898	2,296.88	65.7833	2,296.88	76.4961	2,296.88	67.6209	2,296.88	77.1865	2,296.88	71.8805	2,296.88	74.8318	2,296.88	73.287	2,296.88	71.6997	2,296.88	74.0253	2,296.88	72.401	2,296.88	74.0588	2,296.88	72.2147	2,296.88	72.6617	2,296.88	68.792	2,296.88	71.7034	2,296.88	68.9358	2,296.88	72.5907	2,296.88	70.9369	2,296.88	70.5314	2,296.88	67.4001	2,296.88	66.9384	2,296.88	63.8514	2,296.88	59.8765	2,296.88	58.2628	2,296.88	59.5919	2,296.88	67.4997	2,296.88	63.3038	2,296.88	62.2207	2,296.88	67.6791
2,378.91	83.7304	2,378.91	84.0903	2,378.91	78.8226	2,378.91	81.7051	2,378.91	63.4799	2,378.91	76.9115	2,378.91	75.3947	2,378.91	67.462	2,378.91	77.8663	2,378.91	68.179	2,378.91	77.4393	2,378.91	70.799	2,378.91	76.1244	2,378.91	74.0732	2,378.91	73.8892	2,378.91	73.6091	2,378.91	73.3053	2,378.91	72.7578	2,378.91	70.6764	2,378.91	73.6434	2,378.91	67.1328	2,378.91	66.9215	2,378.91	68.0932	2,378.91	70.7192	2,378.91	70.7118	2,378.91	69.5768	2,378.91	68.6755	2,378.91	69.3158	2,378.91	60.0867	2,378.91	65.7359	2,378.91	61.7282	2,378.91	63.1289	2,378.91	67.7725	2,378.91	62.7496	2,378.91	65.7599	2,378.91	70.018
2,462.4	82.6216	2,462.4	83.4158	2,462.4	79.2537	2,462.4	82.2287	2,462.4	65.8823	2,462.4	76.0042	2,462.4	75.0027	2,462.4	69.5478	2,462.4	78.2842	2,462.4	72.943	2,462.4	78.1337	2,462.4	73.5972	2,462.4	76.5986	2,462.4	75.7855	2,462.4	72.6311	2,462.4	73.3221	2,462.4	70.2195	2,462.4	72.1919	2,462.4	71.7129	2,462.4	72.3805	2,462.4	69.1587	2,462.4	70.9852	2,462.4	69.7203	2,462.4	70.3102	2,462.4	67.6617	2,462.4	70.2861	2,462.4	68.5313	2,462.4	69.485	2,462.4	64.5473	2,462.4	67.4385	2,462.4	54.7666	2,462.4	58.1503	2,462.4	62.8227	2,462.4	64.1637	2,462.4	69.307	2,462.4	70.0024
2,548.83	82.0746	2,548.83	83.3273	2,548.83	78.9053	2,548.83	81.7533	2,548.83	70.6056	2,548.83	75.4417	2,548.83	74.3111	2,548.83	73.4936	2,548.83	78.455	2,548.83	72.8977	2,548.83	78.3574	2,548.83	75.9636	2,548.83	76.2625	2,548.83	75.1621	2,548.83	73.8517	2,548.83	76.2704	2,548.83	71.7758	2,548.83	74.0189	2,548.83	73.2642	2,548.83	72.96	2,548.83	71.0059	2,548.83	72.5196	2,548.83	62.1328	2,548.83	69.0385	2,548.83	66.9146	2,548.83	70.6461	2,548.83	68.6898	2,548.83	70.1171	2,548.83	61.7712	2,548.83	68.207	2,548.83	55.694	2,548.83	62.6275	2,548.83	66.4731	2,548.83	59.3943	2,548.83	69.1552	2,548.83	66.3434
2,639.65	82.554	2,639.65	83.5668	2,639.65	78.5155	2,639.65	80.5996	2,639.65	71.6305	2,639.65	76.1845	2,639.65	76.5659	2,639.65	73.4747	2,639.65	79.1465	2,639.65	76.1004	2,639.65	78.784	2,639.65	77.3123	2,639.65	77.4597	2,639.65	76.4708	2,639.65	74.4231	2,639.65	74.1668	2,639.65	72.4183	2,639.65	74.3924	2,639.65	72.6265	2,639.65	73.985	2,639.65	68.8531	2,639.65	73.6349	2,639.65	70.5728	2,639.65	71.0305	2,639.65	68.6206	2,639.65	69.8572	2,639.65	70.3927	2,639.65	71.1102	2,639.65	53.4605	2,639.65	67.9529	2,639.65	53.9997	2,639.65	63.7034	2,639.65	67.1196	2,639.65	64.9338	2,639.65	67.9197	2,639.65	68.9526
2,731.93	82.6924	2,731.93	83.4351	2,731.93	78.8959	2,731.93	80.814	2,731.93	72.1378	2,731.93	76.5548	2,731.93	76.4819	2,731.93	74.8506	2,731.93	79.5844	2,731.93	77.7588	2,731.93	79.2432	2,731.93	78	2,731.93	77.2888	2,731.93	77.6048	2,731.93	74.1175	2,731.93	76.9561	2,731.93	68.2616	2,731.93	75.9405	2,731.93	66.4235	2,731.93	73.9308	2,731.93	64.1902	2,731.93	72.6528	2,731.93	70.413	2,731.93	70.793	2,731.93	71.4942	2,731.93	69.6926	2,731.93	68.5961	2,731.93	70.7464	2,731.93	59.5799	2,731.93	68.6481	2,731.93	53.4284	2,731.93	65.3509	2,731.93	65.6735	2,731.93	62.9523	2,731.93	69.2211	2,731.93	69.6321
2,828.61	82.3539	2,828.61	82.9824	2,828.61	78.5916	2,828.61	80.5204	2,828.61	73.3475	2,828.61	77.1536	2,828.61	77.4857	2,828.61	76.4207	2,828.61	80.1357	2,828.61	78.3727	2,828.61	79.0635	2,828.61	78.9342	2,828.61	76.5377	2,828.61	78.3361	2,828.61	74.7942	2,828.61	76.8849	2,828.61	71.1739	2,828.61	75.1142	2,828.61	69.0796	2,828.61	72.4906	2,828.61	69.8715	2,828.61	71.9441	2,828.61	70.8791	2,828.61	71.1538	2,828.61	72.1384	2,828.61	70.0999	2,828.61	68.4756	2,828.61	71.1024	2,828.61	53.3011	2,828.61	69.1955	2,828.61	59.1602	2,828.61	64.5274	2,828.61	68.354	2,828.61	65.3228	2,828.61	69.5022	2,828.61	70.6857
2,928.22	82.0652	2,928.22	82.4718	2,928.22	78.7466	2,928.22	80.4166	2,928.22	73.8654	2,928.22	78.0811	2,928.22	77.5685	2,928.22	77.8797	2,928.22	80.1601	2,928.22	78.7924	2,928.22	79.7561	2,928.22	79.9488	2,928.22	77.831	2,928.22	79.1947	2,928.22	76.0365	2,928.22	75.9788	2,928.22	70.3132	2,928.22	75.0962	2,928.22	66.5482	2,928.22	74.6262	2,928.22	72.5692	2,928.22	73.105	2,928.22	73.2149	2,928.22	70.9771	2,928.22	71.488	2,928.22	70.4803	2,928.22	69.6302	2,928.22	70.5303	2,928.22	64.467	2,928.22	68.826	2,928.22	59.3327	2,928.22	66.4114	2,928.22	65.2006	2,928.22	61.741	2,928.22	69.4856	2,928.22	70.5271
3,030.76	81.4657	3,030.76	81.6982	3,030.76	78.5092	3,030.76	80.0971	3,030.76	74.2104	3,030.76	78.6277	3,030.76	77.8416	3,030.76	78.6478	3,030.76	80.3606	3,030.76	80.0362	3,030.76	79.9446	3,030.76	80.829	3,030.76	77.742	3,030.76	78.6171	3,030.76	76.1309	3,030.76	76.5117	3,030.76	70.1443	3,030.76	76.5101	3,030.76	66.4285	3,030.76	72.8924	3,030.76	72.0711	3,030.76	71.3722	3,030.76	73.9506	3,030.76	69.2904	3,030.76	72.5852	3,030.76	70.2741	3,030.76	69.141	3,030.76	70.2571	3,030.76	62.0825	3,030.76	69.0654	3,030.76	58.5711	3,030.76	64.6506	3,030.76	64.9609	3,030.76	63.2586	3,030.76	69.8793	3,030.76	68.319
3,137.7	81.2496	3,137.7	81.4691	3,137.7	78.8018	3,137.7	80.1634	3,137.7	75.317	3,137.7	78.5585	3,137.7	77.8197	3,137.7	79.3361	3,137.7	80.9173	3,137.7	80.6679	3,137.7	81.107	3,137.7	80.2178	3,137.7	78.978	3,137.7	78.4795	3,137.7	75.7797	3,137.7	76.8653	3,137.7	69.7046	3,137.7	72.5295	3,137.7	69.5771	3,137.7	72.3406	3,137.7	73.1583	3,137.7	71.0284	3,137.7	72.7118	3,137.7	69.8608	3,137.7	72.0276	3,137.7	68.5	3,137.7	67.6195	3,137.7	69.992	3,137.7	63.6398	3,137.7	67.5392	3,137.7	62.2419	3,137.7	65.3318	3,137.7	66.6791	3,137.7	65.6495	3,137.7	70.0814	3,137.7	67.0754
3,249.02	80.6716	3,249.02	81.0514	3,249.02	78.6072	3,249.02	80.311	3,249.02	75.6583	3,249.02	79.4187	3,249.02	77.9377	3,249.02	79.4091	3,249.02	80.9019	3,249.02	80.8519	3,249.02	81.5395	3,249.02	80.6433	3,249.02	80.3274	3,249.02	79.0191	3,249.02	75.8402	3,249.02	73.9382	3,249.02	70.6193	3,249.02	74.3232	3,249.02	71.1929	3,249.02	73.1528	3,249.02	74.0904	3,249.02	71.0091	3,249.02	73.2888	3,249.02	69.1369	3,249.02	71.3705	3,249.02	68.6244	3,249.02	65.0448	3,249.02	69.0832	3,249.02	60.6206	3,249.02	67.6724	3,249.02	61.9509	3,249.02	63.1361	3,249.02	67.181	3,249.02	65.468	3,249.02	69.8553	3,249.02	68.5861
3,363.28	80.1196	3,363.28	80.9443	3,363.28	78.812	3,363.28	80.5178	3,363.28	76.3161	3,363.28	79.3675	3,363.28	77.7039	3,363.28	80.1385	3,363.28	80.966	3,363.28	81.4406	3,363.28	81.9728	3,363.28	80.258	3,363.28	80.6376	3,363.28	77.1105	3,363.28	78.425	3,363.28	76.123	3,363.28	75.5013	3,363.28	75.6431	3,363.28	72.9059	3,363.28	71.9085	3,363.28	74.5576	3,363.28	72.1065	3,363.28	72.051	3,363.28	70.0456	3,363.28	70.3701	3,363.28	68.8015	3,363.28	64.7948	3,363.28	69.5723	3,363.28	62.6606	3,363.28	68.16	3,363.28	65.3207	3,363.28	62.2293	3,363.28	66.6275	3,363.28	64.7836	3,363.28	68.8506	3,363.28	68.9699
3,481.93	79.7433	3,481.93	80.6529	3,481.93	78.7631	3,481.93	81.0909	3,481.93	77.5271	3,481.93	79.3794	3,481.93	77.7531	3,481.93	80.7975	3,481.93	80.8984	3,481.93	81.5419	3,481.93	82.6687	3,481.93	80.2171	3,481.93	80.512	3,481.93	78.5656	3,481.93	78.5838	3,481.93	77.2947	3,481.93	76.8291	3,481.93	73.9118	3,481.93	73.2163	3,481.93	74.6779	3,481.93	74.86	3,481.93	71.773	3,481.93	73.5886	3,481.93	71.3867	3,481.93	71.473	3,481.93	68.579	3,481.93	65.3724	3,481.93	70.2744	3,481.93	62.8316	3,481.93	68.6929	3,481.93	64.7196	3,481.93	65.5423	3,481.93	66.0625	3,481.93	64.0159	3,481.93	68.3913	3,481.93	68.5463
3,604.98	78.9377	3,604.98	81.0109	3,604.98	77.8452	3,604.98	80.6688	3,604.98	77.7202	3,604.98	79.6705	3,604.98	77.8146	3,604.98	81.3007	3,604.98	81.2418	3,604.98	81.419	3,604.98	82.7212	3,604.98	80.4538	3,604.98	82.3596	3,604.98	80.3126	3,604.98	79.7698	3,604.98	76.6624	3,604.98	77.0873	3,604.98	77.283	3,604.98	74.4704	3,604.98	73.8696	3,604.98	72.2252	3,604.98	72.0439	3,604.98	72.7756	3,604.98	70.0225	3,604.98	73.7585	3,604.98	68.8935	3,604.98	67.1037	3,604.98	69.9588	3,604.98	65.3432	3,604.98	68.6518	3,604.98	64.5615	3,604.98	64.5886	3,604.98	64.3323	3,604.98	63.5969	3,604.98	69.45	3,604.98	68.0379
3,732.42	78.854	3,732.42	80.5932	3,732.42	77.9778	3,732.42	80.3995	3,732.42	78.2467	3,732.42	79.9317	3,732.42	78.0513	3,732.42	81.8294	3,732.42	80.6488	3,732.42	81.0579	3,732.42	82.2731	3,732.42	82.2335	3,732.42	83.0469	3,732.42	79.6007	3,732.42	80.2987	3,732.42	78.5346	3,732.42	76.2891	3,732.42	74.4978	3,732.42	71.7596	3,732.42	73.046	3,732.42	65.04	3,732.42	70.5972	3,732.42	69.9847	3,732.42	70.4683	3,732.42	73.1423	3,732.42	67.6652	3,732.42	69.1519	3,732.42	68.8803	3,732.42	65.361	3,732.42	67.6711	3,732.42	67.3397	3,732.42	63.2001	3,732.42	63.9638	3,732.42	64.2185	3,732.42	69.9623	3,732.42	68.0643
3,864.26	79.0178	3,864.26	80.9744	3,864.26	78.5575	3,864.26	80.336	3,864.26	79.0639	3,864.26	80.8529	3,864.26	78.1474	3,864.26	81.2483	3,864.26	79.0972	3,864.26	81.758	3,864.26	81.9453	3,864.26	81.9716	3,864.26	82.2749	3,864.26	80.0497	3,864.26	80.0148	3,864.26	75.853	3,864.26	76.6781	3,864.26	72.441	3,864.26	69.7589	3,864.26	72.6041	3,864.26	65.7383	3,864.26	70.2161	3,864.26	67.6962	3,864.26	68.8415	3,864.26	71.8115	3,864.26	67.4827	3,864.26	65.5162	3,864.26	66.8542	3,864.26	66.3178	3,864.26	67.2939	3,864.26	63.964	3,864.26	61.3079	3,864.26	62.4421	3,864.26	65.273	3,864.26	68.5891	3,864.26	68.9882
4,000.49	79.0862	4,000.49	81.2008	4,000.49	78.1799	4,000.49	80.3217	4,000.49	79.8709	4,000.49	81.1646	4,000.49	77.5715	4,000.49	80.7414	4,000.49	79.0009	4,000.49	82.3727	4,000.49	82.1593	4,000.49	81.128	4,000.49	81.7363	4,000.49	77.3081	4,000.49	78.8989	4,000.49	75.0291	4,000.49	75.9204	4,000.49	75.5542	4,000.49	69.5767	4,000.49	72.4671	4,000.49	68.4907	4,000.49	71.2699	4,000.49	67.9375	4,000.49	68.615	4,000.49	69.4565	4,000.49	67.6515	4,000.49	64.3774	4,000.49	67.1226	4,000.49	67.4568	4,000.49	66.5422	4,000.49	66.1424	4,000.49	63.4561	4,000.49	65.1993	4,000.49	61.4561	4,000.49	68.3144	4,000.49	67.3721
4,141.11	79.4882	4,141.11	80.8286	4,141.11	77.9617	4,141.11	81.1922	4,141.11	80.804	4,141.11	81.3314	4,141.11	79.7674	4,141.11	81.408	4,141.11	79.2774	4,141.11	82.3353	4,141.11	82.2841	4,141.11	79.7374	4,141.11	81.5635	4,141.11	78.111	4,141.11	78.7374	4,141.11	76.9872	4,141.11	73.378	4,141.11	72.668	4,141.11	60.5986	4,141.11	74.5511	4,141.11	65.3397	4,141.11	71.8535	4,141.11	69.8593	4,141.11	70.7914	4,141.11	68.2907	4,141.11	67.6268	4,141.11	66.2948	4,141.11	67.4255	4,141.11	65.0527	4,141.11	66.8982	4,141.11	65.1771	4,141.11	61.6325	4,141.11	65.9832	4,141.11	60.7612	4,141.11	67.6492	4,141.11	68.4682
4,287.6	80.2625	4,287.6	80.9288	4,287.6	78.6786	4,287.6	81.6559	4,287.6	81.7513	4,287.6	81.4035	4,287.6	81.8993	4,287.6	82.1465	4,287.6	79.3574	4,287.6	81.893	4,287.6	82.2116	4,287.6	78.957	4,287.6	83.2794	4,287.6	79.1415	4,287.6	78.4227	4,287.6	77.0704	4,287.6	71.5333	4,287.6	77.1617	4,287.6	68.8803	4,287.6	73.8644	4,287.6	60.3116	4,287.6	72.5737	4,287.6	67.4945	4,287.6	70.158	4,287.6	69.3335	4,287.6	69.357	4,287.6	66.5879	4,287.6	68.2656	4,287.6	64.1785	4,287.6	68.1705	4,287.6	65.602	4,287.6	61.0788	4,287.6	63.093	4,287.6	62.3167	4,287.6	68.9492	4,287.6	67.7356
4,438.48	80.5442	4,438.48	81.6196	4,438.48	79.346	4,438.48	82.2079	4,438.48	81.4835	4,438.48	81.0969	4,438.48	80.5759	4,438.48	82.8565	4,438.48	77.4058	4,438.48	80.1105	4,438.48	81.9164	4,438.48	81.1341	4,438.48	83.042	4,438.48	78.9742	4,438.48	78.3732	4,438.48	78.6475	4,438.48	67.6202	4,438.48	73.5119	4,438.48	70.9026	4,438.48	75.7067	4,438.48	62.5438	4,438.48	71.2211	4,438.48	65.9796	4,438.48	71.4922	4,438.48	68.0643	4,438.48	70.0791	4,438.48	65.4658	4,438.48	68.3374	4,438.48	61.0372	4,438.48	67.3131	4,438.48	65.8894	4,438.48	62.4399	4,438.48	60.7105	4,438.48	65.3654	4,438.48	68.4336	4,438.48	68.9198
4,595.21	80.6469	4,595.21	81.9255	4,595.21	80.5105	4,595.21	81.8107	4,595.21	81.5301	4,595.21	82.2593	4,595.21	81.6631	4,595.21	83.0055	4,595.21	78.6349	4,595.21	81.1785	4,595.21	80.5971	4,595.21	80.6404	4,595.21	81.8365	4,595.21	80.13	4,595.21	75.2213	4,595.21	77.8262	4,595.21	70.9367	4,595.21	76.8728	4,595.21	73.3976	4,595.21	74.649	4,595.21	64.2076	4,595.21	73.5472	4,595.21	55.5359	4,595.21	70.7333	4,595.21	63.5709	4,595.21	70.4467	4,595.21	63.1324	4,595.21	69.1692	4,595.21	65.2602	4,595.21	67.92	4,595.21	63.7712	4,595.21	60.7246	4,595.21	62.5136	4,595.21	55.3996	4,595.21	68.2419	4,595.21	65.8984
4,756.35	80.9771	4,756.35	83.0494	4,756.35	80.8462	4,756.35	81.6848	4,756.35	83.7463	4,756.35	82.3574	4,756.35	82.7439	4,756.35	82.2097	4,756.35	79.6086	4,756.35	81.6401	4,756.35	80.1674	4,756.35	81.6273	4,756.35	80.3772	4,756.35	80.5428	4,756.35	74.7543	4,756.35	79.0953	4,756.35	75.877	4,756.35	75.5311	4,756.35	74.6856	4,756.35	76.0334	4,756.35	68.8182	4,756.35	72.9602	4,756.35	61.5144	4,756.35	70.1809	4,756.35	62.0219	4,756.35	69.6172	4,756.35	64.9972	4,756.35	69.1923	4,756.35	65.3885	4,756.35	70.1553	4,756.35	65.7562	4,756.35	64.2629	4,756.35	60.8012	4,756.35	64.6702	4,756.35	69.4007	4,756.35	68.6954
4,924.8	82.3372	4,924.8	82.8032	4,924.8	80.5245	4,924.8	81.436	4,924.8	83.2544	4,924.8	83.0934	4,924.8	82.9413	4,924.8	82.2717	4,924.8	79.7164	4,924.8	82.7321	4,924.8	80.0393	4,924.8	81.2933	4,924.8	79.8112	4,924.8	81.1757	4,924.8	78.0282	4,924.8	78.2876	4,924.8	77.2702	4,924.8	76.5437	4,924.8	74.3722	4,924.8	73.9475	4,924.8	66.4076	4,924.8	72.2539	4,924.8	65.1889	4,924.8	69.3375	4,924.8	64.1467	4,924.8	68.0243	4,924.8	64.3571	4,924.8	69.0392	4,924.8	66.5556	4,924.8	68.2671	4,924.8	65.1282	4,924.8	62.7276	4,924.8	58.5344	4,924.8	61.404	4,924.8	68.7736	4,924.8	66.6122
5,097.66	83.0814	5,097.66	83.0174	5,097.66	81.2123	5,097.66	82.1183	5,097.66	82.5452	5,097.66	82.3886	5,097.66	82.4212	5,097.66	82.5845	5,097.66	78.8276	5,097.66	82.2412	5,097.66	79.5004	5,097.66	81.8304	5,097.66	80.0675	5,097.66	80.3933	5,097.66	81.2349	5,097.66	77.8985	5,097.66	77.387	5,097.66	74.3332	5,097.66	72.1356	5,097.66	74.3874	5,097.66	67.082	5,097.66	72.1043	5,097.66	66.8037	5,097.66	70.1116	5,097.66	64.496	5,097.66	68.2609	5,097.66	67.3142	5,097.66	69.0396	5,097.66	64.1243	5,097.66	68.3247	5,097.66	64.8836	5,097.66	63.7816	5,097.66	59.0434	5,097.66	55.2966	5,097.66	68.5166	5,097.66	66.2696
5,277.83	83.8376	5,277.83	83.315	5,277.83	82.3172	5,277.83	82.1288	5,277.83	83.5785	5,277.83	82.9007	5,277.83	82.7422	5,277.83	83.0217	5,277.83	79.0212	5,277.83	82.9596	5,277.83	79.3448	5,277.83	82.1063	5,277.83	79.3934	5,277.83	79.121	5,277.83	81.0915	5,277.83	77.6925	5,277.83	76.7605	5,277.83	76.0963	5,277.83	68.1416	5,277.83	74.8876	5,277.83	67.8644	5,277.83	72.6273	5,277.83	59.0381	5,277.83	70.5774	5,277.83	60.7417	5,277.83	69.6576	5,277.83	62.7956	5,277.83	69.0672	5,277.83	65.8751	5,277.83	68.0984	5,277.83	64.1361	5,277.83	63.5377	5,277.83	59.9243	5,277.83	58.4779	5,277.83	68.2896	5,277.83	66.9549
5,463.87	83.8775	5,463.87	83.4004	5,463.87	82.0933	5,463.87	82.522	5,463.87	83.7371	5,463.87	82.5544	5,463.87	83.1107	5,463.87	82.8576	5,463.87	78.6645	5,463.87	83.3102	5,463.87	79.0399	5,463.87	81.6053	5,463.87	80.1509	5,463.87	79.8738	5,463.87	79.809	5,463.87	78.2825	5,463.87	74.2808	5,463.87	76.0911	5,463.87	69.2022	5,463.87	74.7708	5,463.87	65.7666	5,463.87	72.4898	5,463.87	63.2154	5,463.87	70.203	5,463.87	63.5226	5,463.87	69.0817	5,463.87	62.2598	5,463.87	68.6	5,463.87	66.6202	5,463.87	68.16	5,463.87	65.4337	5,463.87	64.5852	5,463.87	57.5025	5,463.87	54.1315	5,463.87	67.3228	5,463.87	64.6978
5,657.23	84.6913	5,657.23	84.0286	5,657.23	82.9042	5,657.23	83.3264	5,657.23	83.0457	5,657.23	82.8139	5,657.23	82.7484	5,657.23	83.5031	5,657.23	77.7732	5,657.23	83.3122	5,657.23	77.782	5,657.23	81.6694	5,657.23	80.9083	5,657.23	80.577	5,657.23	79.8232	5,657.23	78.2146	5,657.23	72.7193	5,657.23	75.7115	5,657.23	69.1651	5,657.23	73.4869	5,657.23	63.0106	5,657.23	71.172	5,657.23	61.0947	5,657.23	69.4258	5,657.23	61.9039	5,657.23	67.8115	5,657.23	53.0604	5,657.23	68.334	5,657.23	63.1106	5,657.23	66.9809	5,657.23	65.2287	5,657.23	64.7469	5,657.23	59.8875	5,657.23	54.7115	5,657.23	63.5643	5,657.23	64.6264
5,856.45	85.1152	5,856.45	84.7651	5,856.45	83.4701	5,856.45	83.6561	5,856.45	83.1517	5,856.45	83.2306	5,856.45	82.582	5,856.45	83.7724	5,856.45	79.2344	5,856.45	82.6862	5,856.45	78.0284	5,856.45	82.6278	5,856.45	80.6455	5,856.45	80.303	5,856.45	79.045	5,856.45	76.2966	5,856.45	71.9572	5,856.45	75.2964	5,856.45	69.3593	5,856.45	73.1653	5,856.45	65.4185	5,856.45	70.3216	5,856.45	65.0947	5,856.45	68.2024	5,856.45	68.0222	5,856.45	68.264	5,856.45	62.9021	5,856.45	67.5773	5,856.45	64.5633	5,856.45	66.1512	5,856.45	63.071	5,856.45	63.3029	5,856.45	48.5501	5,856.45	41.5554	5,856.45	64.786	5,856.45	61.4243
6,062.99	85.4873	6,062.99	85.2231	6,062.99	83.8559	6,062.99	84.273	6,062.99	83.0636	6,062.99	83.9376	6,062.99	83.3307	6,062.99	83.6743	6,062.99	80.2126	6,062.99	82.6225	6,062.99	76.8619	6,062.99	82.5281	6,062.99	80.9353	6,062.99	79.6864	6,062.99	78.2672	6,062.99	77.1561	6,062.99	74.0995	6,062.99	74.9605	6,062.99	71.1553	6,062.99	73.5925	6,062.99	66.8542	6,062.99	71.5308	6,062.99	65.7475	6,062.99	68.6518	6,062.99	68.1584	6,062.99	67.5704	6,062.99	62.2635	6,062.99	67.3307	6,062.99	63.2889	6,062.99	67.3448	6,062.99	61.419	6,062.99	65.1542	6,062.99	50.368	6,062.99	47.2243	6,062.99	63.8252	6,062.99	60.73
6,276.86	85.7309	6,276.86	85.8202	6,276.86	84.7061	6,276.86	84.5694	6,276.86	83.1176	6,276.86	84.5607	6,276.86	83.0762	6,276.86	82.7858	6,276.86	81.5827	6,276.86	83.016	6,276.86	78.1478	6,276.86	81.2169	6,276.86	80.4035	6,276.86	80.225	6,276.86	79.75	6,276.86	77.4485	6,276.86	75.1892	6,276.86	73.5155	6,276.86	71.0697	6,276.86	71.0917	6,276.86	70.3694	6,276.86	69.3773	6,276.86	62.3517	6,276.86	66.483	6,276.86	64.6693	6,276.86	66.5137	6,276.86	60.1112	6,276.86	64.5199	6,276.86	62.8828	6,276.86	66.0742	6,276.86	63.1512	6,276.86	63.35	6,276.86	50.6487	6,276.86	45.975	6,276.86	61.7493	6,276.86	62.6454
6,498.05	86.1423	6,498.05	86.3124	6,498.05	84.887	6,498.05	84.8484	6,498.05	82.9557	6,498.05	84.7135	6,498.05	82.5398	6,498.05	82.6902	6,498.05	82.1149	6,498.05	82.6877	6,498.05	78.3781	6,498.05	80.6976	6,498.05	78.7038	6,498.05	79.6386	6,498.05	79.6571	6,498.05	75.3538	6,498.05	74.3101	6,498.05	72.4927	6,498.05	68.3113	6,498.05	70.9288	6,498.05	69.7029	6,498.05	68.736	6,498.05	58.6867	6,498.05	65.453	6,498.05	59.8223	6,498.05	64.7666	6,498.05	63.0774	6,498.05	63.8097	6,498.05	59.7627	6,498.05	64.6855	6,498.05	62.8427	6,498.05	63.4118	6,498.05	52.8977	6,498.05	50.0967	6,498.05	60.743	6,498.05	60.0483
6,726.56	86.3227	6,726.56	86.2455	6,726.56	85.186	6,726.56	85.1981	6,726.56	83.2033	6,726.56	84.6727	6,726.56	82.2516	6,726.56	83.126	6,726.56	81.1279	6,726.56	82.2571	6,726.56	78.6438	6,726.56	81.0269	6,726.56	77.585	6,726.56	77.4753	6,726.56	78.1016	6,726.56	75.7719	6,726.56	72.6002	6,726.56	71.8043	6,726.56	62.9858	6,726.56	70.9418	6,726.56	68.8958	6,726.56	69.027	6,726.56	30.6792	6,726.56	65.8164	6,726.56	58.3045	6,726.56	64.2941	6,726.56	59.36	6,726.56	64.6329	6,726.56	54.4554	6,726.56	64.3954	6,726.56	60.3687	6,726.56	64.3452	6,726.56	40.601	6,726.56	47.8867	6,726.56	60.2416	6,726.56	58.8191
6,963.87	85.8788	6,963.87	85.7212	6,963.87	85.0884	6,963.87	85.2437	6,963.87	83.3823	6,963.87	84.6561	6,963.87	81.7206	6,963.87	83.2732	6,963.87	79.6518	6,963.87	81.9723	6,963.87	78.3746	6,963.87	80.7806	6,963.87	75.9245	6,963.87	77.0521	6,963.87	77.1368	6,963.87	75.6724	6,963.87	62.6252	6,963.87	71.3163	6,963.87	59.0183	6,963.87	69.7563	6,963.87	69.6273	6,963.87	67.3627	6,963.87	57.0506	6,963.87	65.1244	6,963.87	54.4069	6,963.87	64.4418	6,963.87	61.0537	6,963.87	64.4287	6,963.87	43.4361	6,963.87	64.3519	6,963.87	59.1747	6,963.87	63.577	6,963.87	40.486	6,963.87	51.7018	6,963.87	59.0507	6,963.87	58.283
7,209.96	85.6894	7,209.96	85.4441	7,209.96	84.8813	7,209.96	85.0871	7,209.96	83.2168	7,209.96	84.5144	7,209.96	82.1926	7,209.96	83.6784	7,209.96	79.6448	7,209.96	81.9859	7,209.96	77.8779	7,209.96	80.2857	7,209.96	76.2416	7,209.96	77.5058	7,209.96	74.0015	7,209.96	74.0938	7,209.96	65.5815	7,209.96	72.1938	7,209.96	65.1766	7,209.96	70.2259	7,209.96	66.0737	7,209.96	67.1045	7,209.96	56.1966	7,209.96	63.707	7,209.96	57.7368	7,209.96	65.1405	7,209.96	59.6643	7,209.96	65.1605	7,209.96	51.8123	7,209.96	64.5941	7,209.96	59.1099	7,209.96	65.2803	7,209.96	47.7845	7,209.96	45.6525	7,209.96	56.3547	7,209.96	55.8114
7,464.84	85.1929	7,464.84	85.5771	7,464.84	84.5888	7,464.84	84.8194	7,464.84	83.3274	7,464.84	84.5846	7,464.84	82.2312	7,464.84	83.5315	7,464.84	79.7997	7,464.84	81.7528	7,464.84	76.9532	7,464.84	80.4077	7,464.84	74.5192	7,464.84	77.5716	7,464.84	69.0993	7,464.84	74.8545	7,464.84	71.4492	7,464.84	72.7178	7,464.84	64.8862	7,464.84	69.0707	7,464.84	65.1001	7,464.84	68.0856	7,464.84	63.1339	7,464.84	63.9922	7,464.84	54.96	7,464.84	64.2372	7,464.84	56.2913	7,464.84	63.716	7,464.84	51.3717	7,464.84	65.3452	7,464.84	61.0894	7,464.84	64.6618	7,464.84	36.266	7,464.84	55.7681	7,464.84	56.4667	7,464.84	52.1006
7,727.05	85.3744	7,727.05	85.5451	7,727.05	84.2372	7,727.05	85.0924	7,727.05	83.0786	7,727.05	84.7133	7,727.05	82.178	7,727.05	83.1562	7,727.05	80.0849	7,727.05	82.051	7,727.05	76.7158	7,727.05	80.3803	7,727.05	74.4685	7,727.05	77.9182	7,727.05	69.3984	7,727.05	74.3126	7,727.05	74.2955	7,727.05	71.116	7,727.05	61.7935	7,727.05	67.4924	7,727.05	61.553	7,727.05	66.7708	7,727.05	65.6658	7,727.05	62.8167	7,727.05	57.486	7,727.05	62.9662	7,727.05	60.8802	7,727.05	63.6101	7,727.05	55.9832	7,727.05	64.3317	7,727.05	55.7512	7,727.05	64.0251	7,727.05	44.7475	7,727.05	56.115	7,727.05	53.3134	7,727.05	43.0529
7,999.51	85.5172	7,999.51	85.7496	7,999.51	84.6609	7,999.51	85.5062	7,999.51	83.3423	7,999.51	84.7712	7,999.51	82.7435	7,999.51	83.0976	7,999.51	80.3492	7,999.51	82.4971	7,999.51	77.6435	7,999.51	79.938	7,999.51	70.8894	7,999.51	77.7871	7,999.51	74.7916	7,999.51	73.1002	7,999.51	73.8606	7,999.51	70.6793	7,999.51	66.5174	7,999.51	68.9038	7,999.51	59.6168	7,999.51	65.5301	7,999.51	63.5337	7,999.51	63.5988	7,999.51	53.3363	7,999.51	62.989	7,999.51	60.8886	7,999.51	63.0445	7,999.51	53.0018	7,999.51	64.6036	7,999.51	54.6591	7,999.51	63.7592	7,999.51	48.3669	7,999.51	58.413	7,999.51	52.7555	7,999.51	49.6256
8,282.23	85.9826	8,282.23	86.456	8,282.23	84.8645	8,282.23	85.9394	8,282.23	83.4081	8,282.23	84.5231	8,282.23	82.0366	8,282.23	83.1538	8,282.23	80.4183	8,282.23	81.6919	8,282.23	76.4685	8,282.23	80.3399	8,282.23	70.1362	8,282.23	76.8934	8,282.23	75.7468	8,282.23	73.9824	8,282.23	71.2987	8,282.23	70.006	8,282.23	63.0954	8,282.23	67.6375	8,282.23	57.9641	8,282.23	64.9231	8,282.23	57.3352	8,282.23	60.8447	8,282.23	49.0129	8,282.23	62.3708	8,282.23	58.3392	8,282.23	61.5462	8,282.23	29.4939	8,282.23	63.6337	8,282.23	57.5444	8,282.23	63.1783	8,282.23	52.5479	8,282.23	56.6485	8,282.23	54.9593	8,282.23	47.4528
8,573.73	86.2908	8,573.73	86.5842	8,573.73	85.2589	8,573.73	85.9201	8,573.73	83.4509	8,573.73	84.4949	8,573.73	82.0154	8,573.73	82.6791	8,573.73	79.4527	8,573.73	81.2493	8,573.73	75.78	8,573.73	79.9337	8,573.73	72.7685	8,573.73	76.274	8,573.73	74.7672	8,573.73	71.938	8,573.73	65.6771	8,573.73	67.5435	8,573.73	61.9524	8,573.73	64.707	8,573.73	59.5164	8,573.73	63.9207	8,573.73	54.8525	8,573.73	58.8772	8,573.73	52.0479	8,573.73	60.0189	8,573.73	59.2653	8,573.73	58.7169	8,573.73	36.0002	8,573.73	61.3034	8,573.73	56.6047	8,573.73	61.6515	8,573.73	38.5562	8,573.73	55.734	8,573.73	51.4939	8,573.73	48.6412
8,876.95	86.2561	8,876.95	86.4451	8,876.95	85.1519	8,876.95	85.882	8,876.95	83.2902	8,876.95	84.7153	8,876.95	81.7336	8,876.95	82.6993	8,876.95	79.119	8,876.95	81.4296	8,876.95	75.9356	8,876.95	79.5018	8,876.95	71.5288	8,876.95	75.1128	8,876.95	72.229	8,876.95	71.1404	8,876.95	58.611	8,876.95	66.8077	8,876.95	61.8297	8,876.95	64.1366	8,876.95	63.5137	8,876.95	64.1219	8,876.95	48.3914	8,876.95	59.8857	8,876.95	47.458	8,876.95	58.9073	8,876.95	56.2113	8,876.95	59.3974	8,876.95	41.5381	8,876.95	61.0571	8,876.95	56.2578	8,876.95	61.8202	8,876.95	50.3276	8,876.95	56.5172	8,876.95	49.8857	8,876.95	46.828
9,188.96	86.2443	9,188.96	86.3453	9,188.96	85.1184	9,188.96	85.9892	9,188.96	83.4625	9,188.96	84.7065	9,188.96	82.0678	9,188.96	83.0421	9,188.96	79.5132	9,188.96	81.3785	9,188.96	75.5129	9,188.96	78.9738	9,188.96	70.3118	9,188.96	74.7514	9,188.96	65.484	9,188.96	70.6069	9,188.96	65.189	9,188.96	66.7776	9,188.96	62.9188	9,188.96	62.9649	9,188.96	61.9059	9,188.96	62.9237	9,188.96	54.2537	9,188.96	60.3841	9,188.96	46.4018	9,188.96	57.4106	9,188.96	48.3312	9,188.96	60.5358	9,188.96	43.442	9,188.96	60.0269	9,188.96	53.7454	9,188.96	62.0357	9,188.96	45.6936	9,188.96	57.6284	9,188.96	47.6612	9,188.96	48.4435
9,514.16	86.2927	9,514.16	86.6529	9,514.16	85.3912	9,514.16	86.3868	9,514.16	83.6722	9,514.16	84.6771	9,514.16	81.9016	9,514.16	83.6159	9,514.16	78.8507	9,514.16	81.311	9,514.16	73.924	9,514.16	78.1937	9,514.16	68.6415	9,514.16	73.8763	9,514.16	65.9481	9,514.16	69.7738	9,514.16	67.457	9,514.16	66.6343	9,514.16	62.322	9,514.16	63.0474	9,514.16	62.0919	9,514.16	60.5549	9,514.16	58.4612	9,514.16	58.6172	9,514.16	52.6137	9,514.16	56.4609	9,514.16	57.2886	9,514.16	59.8575	9,514.16	31.1815	9,514.16	59.0572	9,514.16	47.253	9,514.16	61.3356	9,514.16	49.8676	9,514.16	55.1905	9,514.16	44.2937	9,514.16	48.2556
9,849.61	86.4137	9,849.61	87.1801	9,849.61	85.4268	9,849.61	86.6052	9,849.61	83.6743	9,849.61	84.6744	9,849.61	81.6718	9,849.61	83.5952	9,849.61	78.3615	9,849.61	81.4358	9,849.61	73.2918	9,849.61	77.4174	9,849.61	67.6565	9,849.61	72.9968	9,849.61	68.3829	9,849.61	67.9172	9,849.61	64.3502	9,849.61	64.8506	9,849.61	59.3349	9,849.61	62.5845	9,849.61	60.1095	9,849.61	60.4172	9,849.61	57.368	9,849.61	57.5483	9,849.61	39.4485	9,849.61	56.9906	9,849.61	55.4008	9,849.61	58.8328	9,849.61	39.9118	9,849.61	58.2229	9,849.61	45.3141	9,849.61	59.5576	9,849.61	49.9391	9,849.61	55.4328	9,849.61	41.1183	9,849.61	45.212
10,196.8	86.789	10,196.8	87.7619	10,196.8	85.6047	10,196.8	86.912	10,196.8	83.6783	10,196.8	84.7332	10,196.8	81.3576	10,196.8	82.9268	10,196.8	78.0553	10,196.8	81.3024	10,196.8	72.8396	10,196.8	76.957	10,196.8	69.328	10,196.8	72.6544	10,196.8	65.3348	10,196.8	68.9626	10,196.8	64.5193	10,196.8	65.409	10,196.8	55.091	10,196.8	62.1266	10,196.8	58.0349	10,196.8	60.6692	10,196.8	55.7745	10,196.8	58.4415	10,196.8	42.3499	10,196.8	56.1532	10,196.8	54.7188	10,196.8	58.9827	10,196.8	45.6944	10,196.8	57.6992	10,196.8	49.8896	10,196.8	58.6483	10,196.8	44.1262	10,196.8	57.5746	10,196.8	45.7738	10,196.8	43.3209
10,555.7	87.2503	10,555.7	87.9826	10,555.7	85.9989	10,555.7	87.1119	10,555.7	83.9455	10,555.7	84.8009	10,555.7	80.9652	10,555.7	82.3992	10,555.7	77.2201	10,555.7	80.6267	10,555.7	72.7817	10,555.7	76.9846	10,555.7	67.7492	10,555.7	72.448	10,555.7	63.7224	10,555.7	68.7055	10,555.7	64.6492	10,555.7	64.656	10,555.7	57.3699	10,555.7	59.8719	10,555.7	55.8281	10,555.7	59.8269	10,555.7	54.1368	10,555.7	58.262	10,555.7	45.5151	10,555.7	56.7171	10,555.7	49.5681	10,555.7	58.3496	10,555.7	48.0861	10,555.7	55.1459	10,555.7	48.5015	10,555.7	58.6996	10,555.7	36.6193	10,555.7	57.5965	10,555.7	46.0516	10,555.7	43.4914
10,927.7	87.5881	10,927.7	87.8616	10,927.7	86.4125	10,927.7	87.1379	10,927.7	84.0563	10,927.7	85.0901	10,927.7	80.7218	10,927.7	82.213	10,927.7	76.6806	10,927.7	80.0722	10,927.7	70.9493	10,927.7	76.8666	10,927.7	65.769	10,927.7	73.0013	10,927.7	64.2625	10,927.7	68.1848	10,927.7	62.9872	10,927.7	64.3329	10,927.7	52.1795	10,927.7	61.1166	10,927.7	51.6802	10,927.7	60.934	10,927.7	55.7919	10,927.7	58.3861	10,927.7	51.0603	10,927.7	57.0809	10,927.7	48.8903	10,927.7	57.3785	10,927.7	47.9064	10,927.7	55.4587	10,927.7	47.9145	10,927.7	57.9653	10,927.7	34.0112	10,927.7	57.675	10,927.7	46.1469	10,927.7	43.1128
11,313	87.6649	11,313	87.8328	11,313	86.6342	11,313	87.3379	11,313	84.0942	11,313	85.5951	11,313	80.5308	11,313	82.3443	11,313	75.8723	11,313	80.1079	11,313	69.3162	11,313	76.5719	11,313	65.0839	11,313	72.3472	11,313	62.9072	11,313	67.7202	11,313	60.0698	11,313	63.0538	11,313	52.4332	11,313	60.984	11,313	51.9928	11,313	60.753	11,313	49.085	11,313	58.7954	11,313	51.8152	11,313	56.9092	11,313	51.4678	11,313	56.7678	11,313	46.1116	11,313	56.0306	11,313	51.4106	11,313	57.4464	11,313	35.7925	11,313	57.8018	11,313	44.7725	11,313	46.7667
11,712.9	87.4129	11,712.9	87.9218	11,712.9	86.2876	11,712.9	87.5736	11,712.9	83.6618	11,712.9	85.823	11,712.9	80.1025	11,712.9	82.3091	11,712.9	75.1299	11,712.9	79.8024	11,712.9	68.7736	11,712.9	76.5882	11,712.9	66.4931	11,712.9	71.0878	11,712.9	57.128	11,712.9	66.6695	11,712.9	60.5995	11,712.9	63.1316	11,712.9	54.9198	11,712.9	60.4779	11,712.9	51.6003	11,712.9	59.1819	11,712.9	46.9961	11,712.9	57.8087	11,712.9	51.3741	11,712.9	58.8658	11,712.9	50.054	11,712.9	56.0364	11,712.9	47.4043	11,712.9	56.2062	11,712.9	50.8577	11,712.9	58.3692	11,712.9	47.0733	11,712.9	57.4335	11,712.9	47.6573	11,712.9	49.7445
12,126	87.1809	12,126	87.9608	12,126	85.6442	12,126	87.404	12,126	82.8237	12,126	85.5968	12,126	79.5129	12,126	81.9893	12,126	73.9127	12,126	79.3798	12,126	68.2064	12,126	76.2901	12,126	66.499	12,126	70.6498	12,126	53.2055	12,126	66.7388	12,126	62.3199	12,126	64.1382	12,126	54.8899	12,126	62.0582	12,126	47.0743	12,126	59.1353	12,126	50.2503	12,126	56.8707	12,126	51.5556	12,126	60.5901	12,126	41.3688	12,126	56.4589	12,126	51.5563	12,126	57.7393	12,126	42.4258	12,126	58.918	12,126	47.0834	12,126	57.4073	12,126	46.7847	12,126	51.5294
12,553.7	87.107	12,553.7	87.6171	12,553.7	85.4301	12,553.7	87.008	12,553.7	82.5254	12,553.7	85.3288	12,553.7	78.8245	12,553.7	81.5716	12,553.7	73.578	12,553.7	79.3585	12,553.7	66.9947	12,553.7	75.5882	12,553.7	66.7173	12,553.7	69.5963	12,553.7	63.3115	12,553.7	68.8567	12,553.7	64.1928	12,553.7	65.254	12,553.7	54.0259	12,553.7	61.9726	12,553.7	23.8787	12,553.7	59.7769	12,553.7	52.4528	12,553.7	56.403	12,553.7	53.1248	12,553.7	60.3851	12,553.7	44.0212	12,553.7	56.25	12,553.7	46.8243	12,553.7	57.7259	12,553.7	43.2245	12,553.7	58.5631	12,553.7	45.2092	12,553.7	56.5506	12,553.7	47.4059	12,553.7	50.9678
12,996.1	86.8536	12,996.1	86.9173	12,996.1	85.1216	12,996.1	86.4353	12,996.1	82.3781	12,996.1	84.6895	12,996.1	77.7364	12,996.1	81.2579	12,996.1	72.9495	12,996.1	78.9062	12,996.1	67.0825	12,996.1	74.8516	12,996.1	69.1388	12,996.1	70.7798	12,996.1	63.5856	12,996.1	68.9928	12,996.1	66.2282	12,996.1	66.0306	12,996.1	58.6372	12,996.1	61.8868	12,996.1	33.2467	12,996.1	60.9247	12,996.1	54.55	12,996.1	56.6633	12,996.1	56.033	12,996.1	59.2913	12,996.1	40.9668	12,996.1	57.8023	12,996.1	49.6191	12,996.1	57.0229	12,996.1	51.7179	12,996.1	58.5648	12,996.1	44.5139	12,996.1	55.2803	12,996.1	50.1994	12,996.1	50.4448
13,454.6	86.1441	13,454.6	86.3818	13,454.6	84.5275	13,454.6	85.7774	13,454.6	82	13,454.6	83.7664	13,454.6	77.3101	13,454.6	80.5414	13,454.6	73.4511	13,454.6	77.7401	13,454.6	69.1075	13,454.6	74.4343	13,454.6	68.6923	13,454.6	70.8193	13,454.6	64.1872	13,454.6	68.3211	13,454.6	62.5246	13,454.6	64.3982	13,454.6	55.9898	13,454.6	60.4757	13,454.6	35.2861	13,454.6	57.2142	13,454.6	54.7478	13,454.6	54.0106	13,454.6	54.216	13,454.6	57.2914	13,454.6	45.1697	13,454.6	55.2006	13,454.6	45.3727	13,454.6	53.5772	13,454.6	50.7946	13,454.6	57.6691	13,454.6	44.0956	13,454.6	52.0174	13,454.6	49.3199	13,454.6	51.3834
13,929.2	85.5011	13,929.2	86.312	13,929.2	83.6551	13,929.2	85.4061	13,929.2	81.157	13,929.2	83.0936	13,929.2	76.9886	13,929.2	79.8237	13,929.2	72.7103	13,929.2	76.2675	13,929.2	67.5292	13,929.2	72.9864	13,929.2	65.9111	13,929.2	69.1398	13,929.2	59.3906	13,929.2	64.7571	13,929.2	57.6541	13,929.2	59.9377	13,929.2	50.1657	13,929.2	56.7769	13,929.2	45.2366	13,929.2	54.2015	13,929.2	54.1332	13,929.2	50.2649	13,929.2	38.2512	13,929.2	53.5517	13,929.2	49.622	13,929.2	51.3698	13,929.2	48.2849	13,929.2	50.5548	13,929.2	52.1532	13,929.2	55.8034	13,929.2	45.9065	13,929.2	38.4401	13,929.2	44.1205	13,929.2	52.4029
14,419.9	85.1271	14,419.9	85.9435	14,419.9	82.8185	14,419.9	85.0918	14,419.9	79.7448	14,419.9	82.4228	14,419.9	75.8804	14,419.9	78.9813	14,419.9	70.205	14,419.9	74.9928	14,419.9	60.1765	14,419.9	70.0394	14,419.9	62.7274	14,419.9	65.6502	14,419.9	54.9622	14,419.9	60.0244	14,419.9	57.1681	14,419.9	52.3071	14,419.9	46.1768	14,419.9	49.2682	14,419.9	48.824	14,419.9	45.8637	14,419.9	53.1771	14,419.9	44.4529	14,419.9	47.4215	14,419.9	48.8703	14,419.9	50.1837	14,419.9	45.5256	14,419.9	39.6938	14,419.9	42.4964	14,419.9	54.7477	14,419.9	49.1772	14,419.9	43.8357	14,419.9	44.2202	14,419.9	43.5433	14,419.9	52.636
14,928.2	84.7346	14,928.2	85.5297	14,928.2	82.1721	14,928.2	84.4617	14,928.2	78.3394	14,928.2	82.0378	14,928.2	73.227	14,928.2	78.7072	14,928.2	65.0645	14,928.2	74.3159	14,928.2	64.2075	14,928.2	67.9664	14,928.2	62.104	14,928.2	60.0966	14,928.2	62.7941	14,928.2	55.8704	14,928.2	55.3778	14,928.2	52.8454	14,928.2	47.2327	14,928.2	49.2612	14,928.2	51.7284	14,928.2	43.8915	14,928.2	47.3062	14,928.2	45.33	14,928.2	49.571	14,928.2	37.7786	14,928.2	43.9146	14,928.2	45.1372	14,928.2	44.8947	14,928.2	40.9336	14,928.2	53.3309	14,928.2	48.5559	14,928.2	24.2082	14,928.2	45.7277	14,928.2	41.8437	14,928.2	52.5165
15,455.6	84.6841	15,455.6	85.7796	15,455.6	81.9331	15,455.6	84.4835	15,455.6	77.8616	15,455.6	82.0499	15,455.6	71.3087	15,455.6	77.9968	15,455.6	64.2799	15,455.6	73.3837	15,455.6	66.3417	15,455.6	65.0448	15,455.6	64.7582	15,455.6	45.3823	15,455.6	64.4659	15,455.6	49.3423	15,455.6	57.8961	15,455.6	49.467	15,455.6	50.3922	15,455.6	48.4709	15,455.6	50.114	15,455.6	44.6546	15,455.6	46.7013	15,455.6	45.2492	15,455.6	49.1729	15,455.6	39.0478	15,455.6	42.5939	15,455.6	46.9081	15,455.6	50.3165	15,455.6	41.5594	15,455.6	50.6894	15,455.6	48.9302	15,455.6	35.9308	15,455.6	49.8068	15,455.6	44.2927	15,455.6	53.6628
16,000.5	84.5879	16,000.5	85.8294	16,000.5	81.7032	16,000.5	84.2017	16,000.5	77.7458	16,000.5	81.9395	16,000.5	70.1664	16,000.5	77.0851	16,000.5	66.4138	16,000.5	73.2532	16,000.5	68.9409	16,000.5	61.5565	16,000.5	66.7829	16,000.5	51.4112	16,000.5	63.5056	16,000.5	38.7925	16,000.5	60.5607	16,000.5	41.5436	16,000.5	53.5975	16,000.5	45.8126	16,000.5	53.873	16,000.5	49.645	16,000.5	52.7666	16,000.5	40.7448	16,000.5	50.1145	16,000.5	40.3571	16,000.5	47.1698	16,000.5	41.0987	16,000.5	51.1088	16,000.5	43.4223	16,000.5	51.6903	16,000.5	45.1329	16,000.5	41.9569	16,000.5	54.2112	16,000.5	45.3212	16,000.5	53.9807
16,564.5	84.4206	16,564.5	85.5466	16,564.5	80.9365	16,564.5	83.5321	16,564.5	76.7185	16,564.5	81.2742	16,564.5	70.8655	16,564.5	75.1206	16,564.5	69.6752	16,564.5	71.6204	16,564.5	69.3202	16,564.5	56.2906	16,564.5	66.6483	16,564.5	56.3721	16,564.5	66.2861	16,564.5	55.1876	16,564.5	60.0369	16,564.5	53.3426	16,564.5	52.2187	16,564.5	48.6692	16,564.5	57.3765	16,564.5	50.5904	16,564.5	54.9012	16,564.5	47.9708	16,564.5	50.0804	16,564.5	44.1715	16,564.5	49.4447	16,564.5	46.6228	16,564.5	50.039	16,564.5	49.1882	16,564.5	51.3934	16,564.5	48.1895	16,564.5	43.4945	16,564.5	54.8561	16,564.5	46.0106	16,564.5	52.3991
17,148.9	84.668	17,148.9	85.4949	17,148.9	81.5735	17,148.9	83.8141	17,148.9	77.2376	17,148.9	80.9718	17,148.9	71.4097	17,148.9	74.8296	17,148.9	69.5716	17,148.9	69.3719	17,148.9	67.7396	17,148.9	56.2772	17,148.9	63.0612	17,148.9	58.6021	17,148.9	64.41	17,148.9	58.7333	17,148.9	52.4759	17,148.9	55.5883	17,148.9	37.6491	17,148.9	47.0644	17,148.9	58.5652	17,148.9	50.3357	17,148.9	55.3841	17,148.9	47.525	17,148.9	46.7756	17,148.9	44.1764	17,148.9	50.1897	17,148.9	49.1886	17,148.9	48.4158	17,148.9	49.2347	17,148.9	50.3443	17,148.9	46.5299	17,148.9	40.2274	17,148.9	52.7483	17,148.9	44.1487	17,148.9	48.0776
17,752.4	85.2278	17,752.4	85.8442	17,752.4	82.0808	17,752.4	83.9298	17,752.4	77.3064	17,752.4	79.9954	17,752.4	70.3741	17,752.4	73.3472	17,752.4	69.2806	17,752.4	61.7003	17,752.4	65.2683	17,752.4	58.8132	17,752.4	66.5963	17,752.4	63.2288	17,752.4	64.148	17,752.4	62.8975	17,752.4	54.9015	17,752.4	59.0587	17,752.4	45.5498	17,752.4	49.1447	17,752.4	59.8645	17,752.4	51.1523	17,752.4	57.6716	17,752.4	49.3414	17,752.4	45.7985	17,752.4	47.0302	17,752.4	49.0922	17,752.4	51.8812	17,752.4	46.2632	17,752.4	53.1806	17,752.4	51.764	17,752.4	47.9505	17,752.4	42.2671	17,752.4	53.0629	17,752.4	44.6187	17,752.4	43.3691
18,379.4	84.1146	18,379.4	85.0535	18,379.4	80.9161	18,379.4	83.2292	18,379.4	75.9825	18,379.4	78.1377	18,379.4	69.9263	18,379.4	71.2996	18,379.4	69.1353	18,379.4	62.5209	18,379.4	67.7576	18,379.4	63.3869	18,379.4	65.737	18,379.4	64.4432	18,379.4	63.9645	18,379.4	61.8188	18,379.4	57.25	18,379.4	56.8456	18,379.4	26.7501	18,379.4	48.4162	18,379.4	58.8428	18,379.4	51.5685	18,379.4	58.4195	18,379.4	50.8767	18,379.4	42.1594	18,379.4	40.7517	18,379.4	35.6353	18,379.4	51.3595	18,379.4	40.692	18,379.4	52.5912	18,379.4	51.8564	18,379.4	48.8025	18,379.4	41.5759	18,379.4	50.2379	18,379.4	38.8096	18,379.4	33.1465
19,026.9	83.0132	19,026.9	84.0702	19,026.9	79.6151	19,026.9	82.4657	19,026.9	74.3812	19,026.9	77.5845	19,026.9	69.4798	19,026.9	69.4289	19,026.9	67.5674	19,026.9	64.8916	19,026.9	66.4	19,026.9	65.7235	19,026.9	65.4549	19,026.9	63.9331	19,026.9	64.5404	19,026.9	60.1984	19,026.9	56.1362	19,026.9	56.5258	19,026.9	43.7027	19,026.9	48.5893	19,026.9	59.0128	19,026.9	50.5427	19,026.9	56.7146	19,026.9	51.4264	19,026.9	44.9644	19,026.9	43.3618	19,026.9	41.2119	19,026.9	52.272	19,026.9	32.3818	19,026.9	50.8488	19,026.9	51.3448	19,026.9	47.2953	19,026.9	41.6054	19,026.9	48.147	19,026.9	40.0679	19,026.9	45.6281
19,697.8	82.7278	19,697.8	83.6613	19,697.8	78.7454	19,697.8	81.4936	19,697.8	73.7426	19,697.8	77.0888	19,697.8	68.9658	19,697.8	68.0744	19,697.8	67.0147	19,697.8	63.5349	19,697.8	65.8962	19,697.8	65.5242	19,697.8	61.6941	19,697.8	62.2272	19,697.8	62.7333	19,697.8	60.025	19,697.8	49.9313	19,697.8	55.5436	19,697.8	44.0102	19,697.8	48.0849	19,697.8	57.7106	19,697.8	47.4006	19,697.8	55.733	19,697.8	48.8319	19,697.8	45.9057	19,697.8	44.6214	19,697.8	40.1248	19,697.8	50.5267	19,697.8	41.8392	19,697.8	49.5053	19,697.8	47.9941	19,697.8	44.3425	19,697.8	42.8942	19,697.8	50.7081	19,697.8	39.1597	19,697.8	46.0948
19,999.5	82.4482	19,999.5	83.5936	19,999.5	78.6386	19,999.5	81.0709	19,999.5	74.1663	19,999.5	76.7487	19,999.5	68.7939	19,999.5	66.9986	19,999.5	68.3787	19,999.5	62.117	19,999.5	64.4393	19,999.5	64.0002	19,999.5	60.666	19,999.5	61.4986	19,999.5	58.8183	19,999.5	58.8964	19,999.5	51.3973	19,999.5	53.4214	19,999.5	49.6433	19,999.5	49.5452	19,999.5	56.1627	19,999.5	39.7441	19,999.5	53.8456	19,999.5	47.9496	19,999.5	46.1747	19,999.5	48.3512	19,999.5	49.8305	19,999.5	48.4799	19,999.5	42.1101	19,999.5	35.5482	19,999.5	48.541	19,999.5	47.2623	19,999.5	32.8129	19,999.5	51.6279	19,999.5	39.1646	19,999.5	40.6024
