"SPL Horizontal"																																																																							
"On-Axis"		"10°"		"-10°"		"20°"		"-20°"		"30°"		"-30°"		"40°"		"-40°"		"50°"		"-50°"		"60°"		"-60°"		"70°"		"-70°"		"80°"		"-80°"		"90°"		"-90°"		"100°"		"-100°"		"110°"		"-110°"		"120°"		"-120°"		"130°"		"-130°"		"140°"		"-140°"		"150°"		"-150°"		"160°"		"-160°"		"170°"		"-170°"		"180°"	
"Frequency [Hz]"	"Sound Pessure Level [dB]    /  [	0.065	V at 	1	m]"	"Frequency [Hz]"	"Sound Pessure Level [dB]    /  [	0.065	V at 	1	m]"	"Frequency [Hz]"	"Sound Pessure Level [dB]    /  [	0.065	V at 	1	m]"	"Frequency [Hz]"	"Sound Pessure Level [dB]    /  [	0.065	V at 	1	m]"	"Frequency [Hz]"	"Sound Pessure Level [dB]    /  [	0.065	V at 	1	m]"	"Frequency [Hz]"	"Sound Pessure Level [dB]    /  [	0.065	V at 	1	m]"	"Frequency [Hz]"	"Sound Pessure Level [dB]    /  [	0.065	V at 	1	m]"	"Frequency [Hz]"	"Sound Pessure Level [dB]    /  [	0.065	V at 	1	m]"	"Frequency [Hz]"	"Sound Pessure Level [dB]    /  [	0.065	V at 	1	m]"	"Frequency [Hz]"	"Sound Pessure Level [dB]    /  [	0.065	V at 	1	m]"	"Frequency [Hz]"	"Sound Pessure Level [dB]    /  [	0.065	V at 	1	m]"	"Frequency [Hz]"	"Sound Pessure Level [dB]    /  [	0.065	V at 	1	m]"	"Frequency [Hz]"	"Sound Pessure Level [dB]    /  [	0.065	V at 	1	m]"	"Frequency [Hz]"	"Sound Pessure Level [dB]    /  [	0.065	V at 	1	m]"	"Frequency [Hz]"	"Sound Pessure Level [dB]    /  [	0.065	V at 	1	m]"	"Frequency [Hz]"	"Sound Pessure Level [dB]    /  [	0.065	V at 	1	m]"	"Frequency [Hz]"	"Sound Pessure Level [dB]    /  [	0.065	V at 	1	m]"	"Frequency [Hz]"	"Sound Pessure Level [dB]    /  [	0.065	V at 	1	m]"	"Frequency [Hz]"	"Sound Pessure Level [dB]    /  [	0.065	V at 	1	m]"	"Frequency [Hz]"	"Sound Pessure Level [dB]    /  [	0.065	V at 	1	m]"	"Frequency [Hz]"	"Sound Pessure Level [dB]    /  [	0.065	V at 	1	m]"	"Frequency [Hz]"	"Sound Pessure Level [dB]    /  [	0.065	V at 	1	m]"	"Frequency [Hz]"	"Sound Pessure Level [dB]    /  [	0.065	V at 	1	m]"	"Frequency [Hz]"	"Sound Pessure Level [dB]    /  [	0.065	V at 	1	m]"	"Frequency [Hz]"	"Sound Pessure Level [dB]    /  [	0.065	V at 	1	m]"	"Frequency [Hz]"	"Sound Pessure Level [dB]    /  [	0.065	V at 	1	m]"	"Frequency [Hz]"	"Sound Pessure Level [dB]    /  [	0.065	V at 	1	m]"	"Frequency [Hz]"	"Sound Pessure Level [dB]    /  [	0.065	V at 	1	m]"	"Frequency [Hz]"	"Sound Pessure Level [dB]    /  [	0.065	V at 	1	m]"	"Frequency [Hz]"	"Sound Pessure Level [dB]    /  [	0.065	V at 	1	m]"	"Frequency [Hz]"	"Sound Pessure Level [dB]    /  [	0.065	V at 	1	m]"	"Frequency [Hz]"	"Sound Pessure Level [dB]    /  [	0.065	V at 	1	m]"	"Frequency [Hz]"	"Sound Pessure Level [dB]    /  [	0.065	V at 	1	m]"	"Frequency [Hz]"	"Sound Pessure Level [dB]    /  [	0.065	V at 	1	m]"	"Frequency [Hz]"	"Sound Pessure Level [dB]    /  [	0.065	V at 	1	m]"	"Frequency [Hz]"	"Sound Pessure Level [dB]    /  [	0.065	V at 	1	m]"
20.5078	41.8259	20.5078	41.6357	20.5078	41.8806	20.5078	41.299	20.5078	41.8039	20.5078	40.7969	20.5078	41.5929	20.5078	40.1009	20.5078	41.2379	20.5078	39.1684	20.5078	40.7217	20.5078	37.9311	20.5078	40.0186	20.5078	36.2702	20.5078	39.0954	20.5078	33.958	20.5078	37.9198	20.5078	30.5192	20.5078	36.5015	20.5078	25.2816	20.5078	35.0318	20.5078	25.0072	20.5078	34.1509	20.5078	30.9253	20.5078	34.6602	20.5078	34.9991	20.5078	36.2772	20.5078	37.7355	20.5078	38.0944	20.5078	39.6074	20.5078	39.6346	20.5078	40.8318	20.5078	40.7649	20.5078	41.5155	20.5078	41.4605	20.5078	41.7152
21.9727	36.4846	21.9727	36.1312	21.9727	36.4943	21.9727	35.3866	21.9727	36.1638	21.9727	34.1462	21.9727	35.4544	21.9727	32.2242	21.9727	34.2813	21.9727	29.4177	21.9727	32.53	21.9727	26.8747	21.9727	30.3086	21.9727	29.2844	21.9727	29.3376	21.9727	33.7519	21.9727	31.9994	21.9727	37.4385	21.9727	35.7916	21.9727	40.3708	21.9727	39.0809	21.9727	42.7646	21.9727	41.7746	21.9727	44.7483	21.9727	43.9834	21.9727	46.3869	21.9727	45.7923	21.9727	47.7093	21.9727	47.2514	21.9727	48.7254	21.9727	48.387	21.9727	49.4365	21.9727	49.2112	21.9727	49.8412	21.9727	49.7282	21.9727	49.9384
23.4375	43.0691	23.4375	42.8245	23.4375	43.1191	23.4375	42.3682	23.4375	42.9808	23.4375	41.6717	23.4375	42.6514	23.4375	40.6985	23.4375	42.1232	23.4375	39.4262	23.4375	41.3957	23.4375	37.94	23.4375	40.5107	23.4375	36.7346	23.4375	39.6395	23.4375	36.9214	23.4375	39.2077	23.4375	38.8051	23.4375	39.7464	23.4375	41.2982	23.4375	41.2562	23.4375	43.6573	23.4375	43.1947	23.4375	45.6879	23.4375	45.1136	23.4375	47.3722	23.4375	46.8184	23.4375	48.7238	23.4375	48.2463	23.4375	49.7542	23.4375	49.3795	23.4375	50.4692	23.4375	50.2119	23.4375	50.8709	23.4375	50.7401	23.4375	50.9606
24.9023	40.7401	24.9023	40.5762	24.9023	40.6298	24.9023	40.1497	24.9023	40.2437	24.9023	39.506	24.9023	39.5981	24.9023	38.7985	24.9023	38.778	24.9023	38.4173	24.9023	38.0696	24.9023	38.928	24.9023	38.0808	24.9023	40.4757	24.9023	39.298	24.9023	42.579	24.9023	41.3835	24.9023	44.7559	24.9023	43.6968	24.9023	46.7863	24.9023	45.8939	24.9023	48.6022	24.9023	47.866	24.9023	50.1884	24.9023	49.5899	24.9023	51.5413	24.9023	51.0638	24.9023	52.6567	24.9023	52.2873	24.9023	53.5275	24.9023	53.2571	24.9023	54.1454	24.9023	53.9679	24.9023	54.5023	24.9023	54.4144	24.9023	54.5928
26.3672	45.9806	26.3672	45.9303	26.3672	45.9578	26.3672	45.8163	26.3672	45.881	26.3672	45.6816	26.3672	45.8003	26.3672	45.6104	26.3672	45.801	26.3672	45.7279	26.3672	45.995	26.3672	46.1645	26.3672	46.4854	26.3672	46.9826	26.3672	47.3106	26.3672	48.1304	26.3672	48.4187	26.3672	49.4797	26.3672	49.7017	26.3672	50.8987	26.3672	51.0486	26.3672	52.2886	26.3672	52.3729	26.3672	53.5842	26.3672	53.6147	26.3672	54.7412	26.3672	54.7324	26.3672	55.7274	26.3672	55.6944	26.3672	56.5173	26.3672	56.4755	26.3672	57.0913	26.3672	57.0544	26.3672	57.4357	26.3672	57.4144	26.3672	57.5436
27.832	48.3419	27.832	48.2458	27.832	48.3457	27.832	48.0688	27.832	48.2678	27.832	47.8511	27.832	48.1428	27.832	47.6732	27.832	48.0367	27.832	47.6641	27.832	48.0517	27.832	47.9736	27.832	48.3111	27.832	48.6935	27.832	48.9088	27.832	49.7881	27.832	49.8501	27.832	51.1214	27.832	51.047	27.832	52.5433	27.832	52.3729	27.832	53.9407	27.832	53.7157	27.832	55.2407	27.832	54.9945	27.832	56.3967	27.832	56.1547	27.832	57.3763	27.832	57.1584	27.832	58.1551	27.832	57.977	27.832	58.7146	27.832	58.5886	27.832	59.0417	27.832	58.9765	27.832	59.1293
29.2969	50.5459	29.2969	50.5048	29.2969	50.5446	29.2969	50.4343	29.2969	50.5125	29.2969	50.3755	29.2969	50.4861	29.2969	50.4006	29.2969	50.5283	29.2969	50.6063	29.2969	50.7233	29.2969	51.0829	29.2969	51.1539	29.2969	51.8661	29.2969	51.8638	29.2969	52.9124	29.2969	52.8305	29.2969	54.1248	29.2969	53.977	29.2969	55.3996	29.2969	55.2085	29.2969	56.6539	29.2969	56.442	29.2969	57.8292	29.2969	57.615	29.2969	58.8842	29.2969	58.6823	29.2969	59.7874	29.2969	59.6097	29.2969	60.5128	29.2969	60.3694	29.2969	61.0391	29.2969	60.9384	29.2969	61.3506	29.2969	61.2986	29.2969	61.4378
30.7617	52.8179	30.7617	52.8241	30.7617	52.8117	30.7617	52.8427	30.7617	52.8162	30.7617	52.9086	30.7617	52.8646	30.7617	53.0768	30.7617	53.0104	30.7617	53.4103	30.7617	53.3169	30.7617	53.9585	30.7617	53.8357	30.7617	54.7325	30.7617	54.5816	30.7617	55.6975	30.7617	55.5234	30.7617	56.7879	30.7617	56.5972	30.7617	57.9318	30.7617	57.7313	30.7617	59.0661	30.7617	58.8631	30.7617	60.1409	30.7617	59.9429	30.7617	61.1165	30.7617	60.9317	30.7617	61.9598	30.7617	61.7971	30.7617	62.6425	30.7617	62.5107	30.7617	63.141	30.7617	63.048	30.7617	63.4373	30.7617	63.3892	30.7617	63.5209
32.2266	55.3909	32.2266	55.3914	32.2266	55.4069	32.2266	55.4168	32.2266	55.45	32.2266	55.4939	32.2266	55.5482	32.2266	55.6649	32.2266	55.7438	32.2266	55.9792	32.2266	56.0833	32.2266	56.4772	32.2266	56.6022	32.2266	57.1722	32.2266	57.3086	32.2266	58.0424	32.2266	58.1774	32.2266	59.0382	32.2266	59.1593	32.2266	60.0992	32.2266	60.197	32.2266	61.1675	32.2266	61.2368	32.2266	62.1934	32.2266	62.2337	32.2266	63.1352	32.2266	63.1499	32.2266	63.9575	32.2266	63.9533	32.2266	64.6298	32.2266	64.6152	32.2266	65.1267	32.2266	65.1108	32.2266	65.4298	32.2266	65.4198	32.2266	65.5283
33.6914	57.838	33.6914	57.8449	33.6914	57.8695	33.6914	57.8985	33.6914	57.9456	33.6914	58.021	33.6914	58.0864	33.6914	58.2449	33.6914	58.3216	33.6914	58.6045	33.6914	58.6835	33.6914	59.1245	33.6914	59.1962	33.6914	59.8083	33.6914	59.8646	33.6914	60.6343	33.6914	60.6704	33.6914	61.5619	33.6914	61.5767	33.6914	62.5427	33.6914	62.5375	33.6914	63.5289	33.6914	63.5066	33.6914	64.4777	33.6914	64.4418	33.6914	65.3514	33.6914	65.3065	33.6914	66.1164	33.6914	66.0681	33.6914	66.743	33.6914	66.6979	33.6914	67.2064	33.6914	67.1714	33.6914	67.4877	33.6914	67.4685	33.6914	67.576
35.1563	60.5018	35.1563	60.531	35.1563	60.5181	35.1563	60.6113	35.1563	60.585	35.1563	60.7584	35.1563	60.7181	35.1563	60.9949	35.1563	60.9396	35.1563	61.3449	35.1563	61.2739	35.1563	61.8256	35.1563	61.7387	35.1563	62.4402	35.1563	62.3383	35.1563	63.1747	35.1563	63.0595	35.1563	63.9998	35.1563	63.8739	35.1563	64.8777	35.1563	64.7444	35.1563	65.7681	35.1563	65.6311	35.1563	66.6324	35.1563	66.4962	35.1563	67.4345	35.1563	67.3046	35.1563	68.1412	35.1563	68.0243	35.1563	68.7224	35.1563	68.6258	35.1563	69.1521	35.1563	69.0829	35.1563	69.4106	35.1563	69.3744	35.1563	69.4856
36.6211	62.9959	36.6211	63.0323	36.6211	63.0084	36.6211	63.1209	36.6211	63.0751	36.6211	63.2723	36.6211	63.2081	36.6211	63.5028	36.6211	63.4249	36.6211	63.8298	36.6211	63.7428	36.6211	64.2664	36.6211	64.1742	36.6211	64.816	36.6211	64.7213	36.6211	65.4696	36.6211	65.3737	36.6211	66.2061	36.6211	66.1096	36.6211	66.9961	36.6211	66.8995	36.6211	67.8062	36.6211	67.7103	36.6211	68.6018	36.6211	68.5083	36.6211	69.3486	36.6211	69.2602	36.6211	70.0135	36.6211	69.9341	36.6211	70.5656	36.6211	70.4998	36.6211	70.9775	36.6211	70.9302	36.6211	71.2282	36.6211	71.2034	36.6211	71.3048
38.0859	65.2324	38.0859	65.2614	38.0859	65.2565	38.0859	65.3465	38.0859	65.3366	38.0859	65.4962	38.0859	65.4808	38.0859	65.7224	38.0859	65.7006	38.0859	66.0376	38.0859	66.0082	38.0859	66.4512	38.0859	66.4124	38.0859	66.965	38.0859	66.9155	38.0859	67.5716	38.0859	67.5105	38.0859	68.2538	38.0859	68.1813	38.0859	68.9869	38.0859	68.9047	38.0859	69.7419	38.0859	69.6526	38.0859	70.4872	38.0859	70.3946	38.0859	71.1906	38.0859	71.0995	38.0859	71.8198	38.0859	71.7359	38.0859	72.3439	38.0859	72.2735	38.0859	72.7359	38.0859	72.6849	38.0859	72.9743	38.0859	72.9475	38.0859	73.0461
39.5508	67.4672	39.5508	67.4962	39.5508	67.4889	39.5508	67.5781	39.5508	67.5632	39.5508	67.7197	39.5508	67.6965	39.5508	67.9305	39.5508	67.8979	39.5508	68.2207	39.5508	68.1773	39.5508	68.5982	39.5508	68.5423	39.5508	69.0654	39.5508	68.9959	39.5508	69.6168	39.5508	69.5336	39.5508	70.2389	39.5508	70.1432	39.5508	70.911	39.5508	70.8056	39.5508	71.6073	39.5508	71.4961	39.5508	72.2988	39.5508	72.1868	39.5508	72.9548	39.5508	72.8475	39.5508	73.5442	39.5508	73.4476	39.5508	74.0366	39.5508	73.957	39.5508	74.4053	39.5508	74.3484	39.5508	74.6291	39.5508	74.5994	39.5508	74.6951
41.0156	69.7373	41.0156	69.768	41.0156	69.7527	41.0156	69.8467	41.0156	69.8157	41.0156	69.9785	41.0156	69.9313	41.0156	70.1709	41.0156	70.1069	41.0156	70.4322	41.0156	70.3506	41.0156	70.7688	41.0156	70.6696	41.0156	71.1837	41.0156	71.0676	41.0156	71.6736	41.0156	71.5426	41.0156	72.2287	41.0156	72.0862	41.0156	72.8326	41.0156	72.683	41.0156	73.4635	41.0156	73.312	41.0156	74.0954	41.0156	73.9479	41.0156	74.6996	41.0156	74.562	41.0156	75.2458	41.0156	75.1245	41.0156	75.704	41.0156	75.6057	41.0156	76.0476	41.0156	75.978	41.0156	76.2551	41.0156	76.2191	41.0156	76.3135
42.4805	71.2299	42.4805	71.2592	42.4805	71.2469	42.4805	71.3362	42.4805	71.3118	42.4805	71.4652	42.4805	71.4294	42.4805	71.6529	42.4805	71.6062	42.4805	71.9064	42.4805	71.8496	42.4805	72.2318	42.4805	72.1657	42.4805	72.6317	42.4805	72.5574	42.4805	73.1037	42.4805	73.0222	42.4805	73.639	42.4805	73.5514	42.4805	74.2225	42.4805	74.1302	42.4805	74.8335	42.4805	74.7383	42.4805	75.447	42.4805	75.3514	42.4805	76.0347	42.4805	75.9425	42.4805	76.5669	42.4805	76.4828	42.4805	77.0144	42.4805	76.9441	42.4805	77.3508	42.4805	77.2999	42.4805	77.5556	42.4805	77.5289	42.4805	77.6161
43.9453	73.1972	43.9453	73.2235	43.9453	73.2151	43.9453	73.2951	43.9453	73.2786	43.9453	73.4155	43.9453	73.3912	43.9453	73.5898	43.9453	73.5581	43.9453	73.8237	43.9453	73.7851	43.9453	74.122	43.9453	74.0768	43.9453	74.487	43.9453	74.4354	43.9453	74.9169	43.9453	74.8591	43.9453	75.4047	43.9453	75.341	43.9453	75.938	43.9453	75.8688	43.9453	76.4989	43.9453	76.4254	43.9453	77.0654	43.9453	76.9895	43.9453	77.6116	43.9453	77.5363	43.9453	78.1093	43.9453	78.039	43.9453	78.53	43.9453	78.4701	43.9453	78.8479	43.9453	78.8039	43.9453	79.0423	43.9453	79.019	43.9453	79.1005
45.4102	74.8733	45.4102	74.8939	45.4102	74.8966	45.4102	74.9596	45.4102	74.9642	45.4102	75.0735	45.4102	75.0786	45.4102	75.2396	45.4102	75.2433	45.4102	75.4624	45.4102	75.4623	45.4102	75.7455	45.4102	75.7393	45.4102	76.0903	45.4102	76.0757	45.4102	76.4948	45.4102	76.47	45.4102	76.9527	45.4102	76.9168	45.4102	77.4529	45.4102	77.4058	45.4102	77.9796	45.4102	77.9226	45.4102	78.5128	45.4102	78.4481	45.4102	79.0282	45.4102	78.9599	45.4102	79.4993	45.4102	79.4327	45.4102	79.8986	45.4102	79.8402	45.4102	80.2007	45.4102	80.1572	45.4102	80.3855	45.4102	80.3622	45.4102	80.4404
46.875	76.4028	46.875	76.4314	46.875	76.4174	46.875	76.504	46.875	76.476	46.875	76.6227	46.875	76.5805	46.875	76.7903	46.875	76.7338	46.875	77.01	46.875	76.9394	46.875	77.2841	46.875	77.1999	46.875	77.6132	46.875	77.5165	46.875	77.9952	46.875	77.8876	46.875	78.4244	46.875	78.3083	46.875	78.8912	46.875	78.7695	46.875	79.3816	46.875	79.2578	46.875	79.8778	46.875	79.7558	46.875	80.3577	46.875	80.2424	46.875	80.7967	46.875	80.6937	46.875	81.1689	46.875	81.0843	46.875	81.4501	46.875	81.3897	46.875	81.6206	46.875	81.5891	46.875	81.6681
48.3398	77.9129	48.3398	77.9411	48.3398	77.9237	48.3398	78.0088	48.3398	77.9742	48.3398	78.1173	48.3398	78.0663	48.3398	78.269	48.3398	78.2024	48.3398	78.4663	48.3398	78.3854	48.3398	78.7113	48.3398	78.6177	48.3398	79.0049	48.3398	78.9004	48.3398	79.3457	48.3398	79.2326	48.3398	79.7297	48.3398	79.6103	48.3398	80.1491	48.3398	80.0261	48.3398	80.5924	48.3398	80.4687	48.3398	81.0437	48.3398	80.9229	48.3398	81.483	48.3398	81.3694	48.3398	81.8871	48.3398	81.7861	48.3398	82.2315	48.3398	82.1486	48.3398	82.4925	48.3398	82.4334	48.3398	82.651	48.3398	82.6202	48.3398	82.6947
51.2695	80.2664	51.2695	80.2914	51.2695	80.2757	51.2695	80.3508	51.2695	80.3195	51.2695	80.4457	51.2695	80.3991	51.2695	80.5776	51.2695	80.5162	51.2695	80.7483	51.2695	80.6727	51.2695	80.9594	51.2695	80.8705	51.2695	81.2118	51.2695	81.1107	51.2695	81.5046	51.2695	81.393	51.2695	81.8349	51.2695	81.7148	51.2695	82.1966	51.2695	82.0707	51.2695	82.5801	51.2695	82.4519	51.2695	82.9721	51.2695	82.8457	51.2695	83.3551	51.2695	83.2356	51.2695	83.7088	51.2695	83.6022	51.2695	84.011	51.2695	83.9236	51.2695	84.2404	51.2695	84.1781	51.2695	84.379	51.2695	84.3466	51.2695	84.4155
52.7344	81.2149	52.7344	81.2383	52.7344	81.2241	52.7344	81.2944	52.7344	81.2662	52.7344	81.384	52.7344	81.3421	52.7344	81.5083	52.7344	81.4531	52.7344	81.6686	52.7344	81.6007	52.7344	81.8662	52.7344	81.7865	52.7344	82.1017	52.7344	82.0112	52.7344	82.3744	52.7344	82.2745	52.7344	82.6816	52.7344	82.5743	52.7344	83.0183	52.7344	82.9058	52.7344	83.3759	52.7344	83.2611	52.7344	83.7421	52.7344	83.6289	52.7344	84.1012	52.7344	83.994	52.7344	84.4339	52.7344	84.338	52.7344	84.7192	52.7344	84.6404	52.7344	84.9365	52.7344	84.8802	52.7344	85.0684	52.7344	85.039	52.7344	85.1036
54.1992	82.0135	54.1992	82.0361	54.1992	82.0217	54.1992	82.0896	54.1992	82.061	54.1992	82.1746	54.1992	82.1321	54.1992	82.2919	54.1992	82.2361	54.1992	82.4424	54.1992	82.3741	54.1992	82.6271	54.1992	82.5472	54.1992	82.8465	54.1992	82.7561	54.1992	83.0998	54.1992	83.0005	54.1992	83.385	54.1992	83.2785	54.1992	83.6975	54.1992	83.586	54.1992	84.0297	54.1992	83.916	54.1992	84.3706	54.1992	84.2583	54.1992	84.7056	54.1992	84.5991	54.1992	85.0167	54.1992	84.9213	54.1992	85.284	54.1992	85.2055	54.1992	85.4878	54.1992	85.4317	54.1992	85.6113	54.1992	85.582	54.1992	85.6437
55.6641	82.6764	55.6641	82.6975	55.6641	82.6845	55.6641	82.748	55.6641	82.7221	55.6641	82.8282	55.6641	82.7897	55.6641	82.9387	55.6641	82.888	55.6641	83.0802	55.6641	83.018	55.6641	83.2534	55.6641	83.1805	55.6641	83.4585	55.6641	83.3759	55.6641	83.6949	55.6641	83.6039	55.6641	83.9608	55.6641	83.8629	55.6641	84.2519	55.6641	84.1492	55.6641	84.5616	55.6641	84.4566	55.6641	84.88	55.6641	84.7761	55.6641	85.1934	55.6641	85.0948	55.6641	85.4852	55.6641	85.3968	55.6641	85.7366	55.6641	85.6638	55.6641	85.9286	55.6641	85.8766	55.6641	86.0453	55.6641	86.0182	55.6641	86.0761
58.5938	83.6627	58.5938	83.6817	58.5938	83.6699	58.5938	83.727	58.5938	83.7036	58.5938	83.7987	58.5938	83.764	58.5938	83.8971	58.5938	83.8515	58.5938	84.0223	58.5938	83.9665	58.5938	84.1746	58.5938	84.1094	58.5938	84.3538	58.5938	84.2804	58.5938	84.5595	58.5938	84.4789	58.5938	84.7899	58.5938	84.7037	58.5938	85.0419	58.5938	84.9518	58.5938	85.31	58.5938	85.2182	58.5938	85.5862	58.5938	85.4955	58.5938	85.859	58.5938	85.7729	58.5938	86.1141	58.5938	86.0368	58.5938	86.3347	58.5938	86.2709	58.5938	86.5039	58.5938	86.4582	58.5938	86.607	58.5938	86.5831	58.5938	86.6343
60.0586	84.0605	60.0586	84.0781	60.0586	84.0679	60.0586	84.1205	60.0586	84.1002	60.0586	84.1878	60.0586	84.1578	60.0586	84.2799	60.0586	84.2408	60.0586	84.397	60.0586	84.3494	60.0586	84.5391	60.0586	84.4839	60.0586	84.706	60.0586	84.6442	60.0586	84.897	60.0586	84.8297	60.0586	85.1108	60.0586	85.0392	60.0586	85.3445	60.0586	85.27	60.0586	85.5935	60.0586	85.5177	60.0586	85.8504	60.0586	85.7755	60.0586	86.1049	60.0586	86.0336	60.0586	86.3437	60.0586	86.2793	60.0586	86.5511	60.0586	86.4977	60.0586	86.7108	60.0586	86.6724	60.0586	86.8088	60.0586	86.7887	60.0586	86.8357
62.9883	84.5981	62.9883	84.6139	62.9883	84.6046	62.9883	84.6519	62.9883	84.6335	62.9883	84.7119	62.9883	84.6847	62.9883	84.7938	62.9883	84.7583	62.9883	84.8973	62.9883	84.8541	62.9883	85.0223	62.9883	84.9722	62.9883	85.1684	62.9883	85.1121	62.9883	85.3347	62.9883	85.2734	62.9883	85.52	62.9883	85.4547	62.9883	85.7221	62.9883	85.6541	62.9883	85.937	62.9883	85.8678	62.9883	86.1589	62.9883	86.0903	62.9883	86.3789	62.9883	86.3136	62.9883	86.5858	62.9883	86.5268	62.9883	86.7658	62.9883	86.7169	62.9883	86.9047	62.9883	86.8695	62.9883	86.99	62.9883	86.9715	62.9883	87.013
64.4531	84.8035	64.4531	84.8186	64.4531	84.8097	64.4531	84.8546	64.4531	84.837	64.4531	84.9115	64.4531	84.8855	64.4531	84.989	64.4531	84.9551	64.4531	85.0867	64.4531	85.0455	64.4531	85.2043	64.4531	85.1566	64.4531	85.3413	64.4531	85.288	64.4531	85.4969	64.4531	85.439	64.4531	85.6699	64.4531	85.6084	64.4531	85.8581	64.4531	85.7943	64.4531	86.0581	64.4531	85.9934	64.4531	86.2644	64.4531	86.2006	64.4531	86.4692	64.4531	86.4085	64.4531	86.6618	64.4531	86.6072	64.4531	86.8298	64.4531	86.7844	64.4531	86.9596	64.4531	86.9269	64.4531	87.0393	64.4531	87.0221	64.4531	87.0609
67.3828	85.1174	67.3828	85.1307	67.3828	85.1232	67.3828	85.1629	67.3828	85.1481	67.3828	85.2137	67.3828	85.1919	67.3828	85.2827	67.3828	85.2543	67.3828	85.3694	67.3828	85.3351	67.3828	85.4732	67.3828	85.4337	67.3828	85.5934	67.3828	85.5496	67.3828	85.7293	67.3828	85.682	67.3828	85.8797	67.3828	85.8297	67.3828	86.0427	67.3828	85.991	67.3828	86.2155	67.3828	86.1632	67.3828	86.3937	67.3828	86.3419	67.3828	86.5706	67.3828	86.5212	67.3828	86.7374	67.3828	86.6926	67.3828	86.8832	67.3828	86.8457	67.3828	86.9961	67.3828	86.969	67.3828	87.0657	67.3828	87.0514	67.3828	87.0848
68.8477	85.2433	68.8477	85.2557	68.8477	85.249	68.8477	85.286	68.8477	85.2728	68.8477	85.3338	68.8477	85.3144	68.8477	85.3987	68.8477	85.3736	68.8477	85.4802	68.8477	85.45	68.8477	85.5776	68.8477	85.5429	68.8477	85.6902	68.8477	85.6516	68.8477	85.8171	68.8477	85.7755	68.8477	85.9571	68.8477	85.9134	68.8477	86.1087	68.8477	86.0636	68.8477	86.2692	68.8477	86.2237	68.8477	86.4345	68.8477	86.3898	68.8477	86.5987	68.8477	86.5563	68.8477	86.7537	68.8477	86.7154	68.8477	86.8894	68.8477	86.8576	68.8477	86.9949	68.8477	86.9719	68.8477	87.0602	68.8477	87.0482	68.8477	87.0787
71.7773	85.4795	71.7773	85.4901	71.7773	85.4849	71.7773	85.5166	71.7773	85.5063	71.7773	85.5586	71.7773	85.5435	71.7773	85.6155	71.7773	85.596	71.7773	85.6867	71.7773	85.6632	71.7773	85.7714	71.7773	85.7446	71.7773	85.8688	71.7773	85.8392	71.7773	85.978	71.7773	85.9463	71.7773	86.098	71.7773	86.0647	71.7773	86.2273	71.7773	86.1929	71.7773	86.3637	71.7773	86.329	71.7773	86.504	71.7773	86.4697	71.7773	86.6433	71.7773	86.6107	71.7773	86.775	71.7773	86.7454	71.7773	86.8905	71.7773	86.8659	71.7773	86.9807	71.7773	86.9629	71.7773	87.0369	71.7773	87.0275	71.7773	87.0531
74.707	85.6598	74.707	85.668	74.707	85.6658	74.707	85.6905	74.707	85.6861	74.707	85.7266	74.707	85.7202	74.707	85.7761	74.707	85.7678	74.707	85.8381	74.707	85.8281	74.707	85.9118	74.707	85.9002	74.707	85.9963	74.707	85.9834	74.707	86.0908	74.707	86.0764	74.707	86.1941	74.707	86.1783	74.707	86.3049	74.707	86.2875	74.707	86.4213	74.707	86.4025	74.707	86.5404	74.707	86.5205	74.707	86.6584	74.707	86.6382	74.707	86.7696	74.707	86.7504	74.707	86.8673	74.707	86.8506	74.707	86.9436	74.707	86.9312	74.707	86.9914	74.707	86.9848	74.707	87.0056
77.6367	85.8106	77.6367	85.8201	77.6367	85.8137	77.6367	85.8422	77.6367	85.8295	77.6367	85.8764	77.6367	85.8577	77.6367	85.9219	77.6367	85.8978	77.6367	85.9781	77.6367	85.9492	77.6367	86.0441	77.6367	86.0109	77.6367	86.1187	77.6367	86.082	77.6367	86.2009	77.6367	86.1616	77.6367	86.2897	77.6367	86.2483	77.6367	86.3836	77.6367	86.341	77.6367	86.4811	77.6367	86.4382	77.6367	86.5799	77.6367	86.5378	77.6367	86.6768	77.6367	86.637	77.6367	86.7674	77.6367	86.7316	77.6367	86.8462	77.6367	86.8165	77.6367	86.9069	77.6367	86.8855	77.6367	86.9436	77.6367	86.9324	77.6367	86.9525
79.1016	85.8632	79.1016	85.8733	79.1016	85.8652	79.1016	85.8951	79.1016	85.8792	79.1016	85.9283	79.1016	85.905	79.1016	85.9722	79.1016	85.942	79.1016	86.0259	79.1016	85.9896	79.1016	86.0885	79.1016	86.0469	79.1016	86.159	79.1016	86.113	79.1016	86.2362	79.1016	86.1868	79.1016	86.319	79.1016	86.2672	79.1016	86.4061	79.1016	86.3531	79.1016	86.4959	79.1016	86.4429	79.1016	86.5865	79.1016	86.5349	79.1016	86.6749	79.1016	86.6265	79.1016	86.7572	79.1016	86.7141	79.1016	86.8283	79.1016	86.7928	79.1016	86.8826	79.1016	86.8572	79.1016	86.9149	79.1016	86.9016	79.1016	86.9215
82.0313	85.9504	82.0313	85.9609	82.0313	85.9505	82.0313	85.9818	82.0313	85.9612	82.0313	86.0125	82.0313	85.9824	82.0313	86.0524	82.0313	86.0134	82.0313	86.1006	82.0313	86.0537	82.0313	86.156	82.0313	86.1025	82.0313	86.2176	82.0313	86.1587	82.0313	86.2841	82.0313	86.2213	82.0313	86.3544	82.0313	86.2894	82.0313	86.4272	82.0313	86.3617	82.0313	86.5012	82.0313	86.437	82.0313	86.5748	82.0313	86.5139	82.0313	86.6458	82.0313	86.5902	82.0313	86.7113	82.0313	86.6631	82.0313	86.7674	82.0313	86.7288	82.0313	86.8098	82.0313	86.7827	82.0313	86.8343	82.0313	86.8204	82.0313	86.8381
84.9609	86.0484	84.9609	86.059	84.9609	86.047	84.9609	86.0785	84.9609	86.0549	84.9609	86.1066	84.9609	86.0719	84.9609	86.1423	84.9609	86.0976	84.9609	86.1849	84.9609	86.1313	84.9609	86.2332	84.9609	86.1723	84.9609	86.2862	84.9609	86.2196	84.9609	86.3426	84.9609	86.2721	84.9609	86.4013	84.9609	86.3287	84.9609	86.461	84.9609	86.3884	84.9609	86.5206	84.9609	86.4501	84.9609	86.5789	84.9609	86.5124	84.9609	86.6341	84.9609	86.5739	84.9609	86.6842	84.9609	86.6324	84.9609	86.7264	84.9609	86.6852	84.9609	86.7577	84.9609	86.7288	84.9609	86.7748	84.9609	86.76	84.9609	86.7757
87.8906	86.0879	87.8906	86.0984	87.8906	86.0853	87.8906	86.1167	87.8906	86.0907	87.8906	86.1421	87.8906	86.104	87.8906	86.174	87.8906	86.1247	87.8906	86.2114	87.8906	86.1523	87.8906	86.2533	87.8906	86.186	87.8906	86.2985	87.8906	86.2249	87.8906	86.3456	87.8906	86.268	87.8906	86.3935	87.8906	86.3141	87.8906	86.4411	87.8906	86.3621	87.8906	86.4872	87.8906	86.4111	87.8906	86.531	87.8906	86.4599	87.8906	86.5715	87.8906	86.5075	87.8906	86.6072	87.8906	86.5524	87.8906	86.6366	87.8906	86.593	87.8906	86.6574	87.8906	86.6271	87.8906	86.6676	87.8906	86.6521	87.8906	86.6659
90.8203	86.1244	90.8203	86.1332	90.8203	86.1222	90.8203	86.1483	90.8203	86.1267	90.8203	86.1693	90.8203	86.1376	90.8203	86.1957	90.8203	86.1547	90.8203	86.2266	90.8203	86.1773	90.8203	86.261	90.8203	86.2047	90.8203	86.2977	90.8203	86.236	90.8203	86.3357	90.8203	86.2702	90.8203	86.3737	90.8203	86.3062	90.8203	86.4107	90.8203	86.3431	90.8203	86.4457	90.8203	86.3799	90.8203	86.478	90.8203	86.4159	90.8203	86.5069	90.8203	86.4505	90.8203	86.5316	90.8203	86.4829	90.8203	86.551	90.8203	86.5122	90.8203	86.5641	90.8203	86.537	90.8203	86.5696	90.8203	86.5556	90.8203	86.5668
95.2148	86.1502	95.2148	86.1575	95.2148	86.148	95.2148	86.1696	95.2148	86.1508	95.2148	86.1861	95.2148	86.1585	95.2148	86.2065	95.2148	86.1708	95.2148	86.23	95.2148	86.1872	95.2148	86.2559	95.2148	86.2071	95.2148	86.283	95.2148	86.2296	95.2148	86.3102	95.2148	86.2538	95.2148	86.3364	95.2148	86.2786	95.2148	86.3605	95.2148	86.3032	95.2148	86.3819	95.2148	86.3267	95.2148	86.3999	95.2148	86.3487	95.2148	86.4145	95.2148	86.3688	95.2148	86.4255	95.2148	86.3869	95.2148	86.4332	95.2148	86.4029	95.2148	86.4373	95.2148	86.4165	95.2148	86.4377	95.2148	86.4271	95.2148	86.4343
98.1445	86.1732	98.1445	86.1789	98.1445	86.1713	98.1445	86.1882	98.1445	86.1732	98.1445	86.2008	98.1445	86.1789	98.1445	86.2161	98.1445	86.1881	98.1445	86.2336	98.1445	86.2004	98.1445	86.2524	98.1445	86.2153	98.1445	86.2716	98.1445	86.2318	98.1445	86.2901	98.1445	86.2491	98.1445	86.3068	98.1445	86.2661	98.1445	86.3209	98.1445	86.2819	98.1445	86.3317	98.1445	86.2957	98.1445	86.3391	98.1445	86.3072	98.1445	86.3431	98.1445	86.3162	98.1445	86.3445	98.1445	86.3231	98.1445	86.3441	98.1445	86.3283	98.1445	86.3426	98.1445	86.3323	98.1445	86.3406	98.1445	86.3355	98.1445	86.3382
101.074	86.1653	101.074	86.172	101.074	86.1614	101.074	86.1812	101.074	86.1603	101.074	86.1926	101.074	86.1622	101.074	86.2057	101.074	86.1669	101.074	86.2201	101.074	86.1741	101.074	86.2349	101.074	86.1833	101.074	86.2493	101.074	86.1939	101.074	86.2622	101.074	86.2049	101.074	86.2727	101.074	86.2154	101.074	86.28	101.074	86.2245	101.074	86.2834	101.074	86.2316	101.074	86.2828	101.074	86.2362	101.074	86.2786	101.074	86.2385	101.074	86.2718	101.074	86.2391	101.074	86.2636	101.074	86.2388	101.074	86.2553	101.074	86.2388	101.074	86.2482	101.074	86.2399	101.074	86.243
105.469	86.1553	105.469	86.1579	105.469	86.1537	105.469	86.1613	105.469	86.1533	105.469	86.1653	105.469	86.1539	105.469	86.1696	105.469	86.1556	105.469	86.1738	105.469	86.1581	105.469	86.1774	105.469	86.161	105.469	86.1798	105.469	86.1637	105.469	86.1804	105.469	86.1654	105.469	86.1786	105.469	86.1652	105.469	86.1737	105.469	86.1623	105.469	86.1655	105.469	86.1563	105.469	86.154	105.469	86.1469	105.469	86.1398	105.469	86.1347	105.469	86.124	105.469	86.1207	105.469	86.1086	105.469	86.1066	105.469	86.0955	105.469	86.0945	105.469	86.0867	105.469	86.0863	105.469	86.0835
108.398	86.1211	108.398	86.1214	108.398	86.1216	108.398	86.1223	108.398	86.1227	108.398	86.124	108.398	86.1243	108.398	86.1263	108.398	86.1264	108.398	86.129	108.398	86.1288	108.398	86.132	108.398	86.1308	108.398	86.1345	108.398	86.1321	108.398	86.136	108.398	86.1317	108.398	86.1355	108.398	86.1289	108.398	86.1321	108.398	86.123	108.398	86.125	108.398	86.1136	108.398	86.1139	108.398	86.1008	108.398	86.099	108.398	86.0854	108.398	86.0817	108.398	86.0687	108.398	86.0638	108.398	86.0527	108.398	86.0478	108.398	86.0398	108.398	86.0362	108.398	86.032	108.398	86.0307
112.793	86.1896	112.793	86.1944	112.793	86.1836	112.793	86.1977	112.793	86.1763	112.793	86.1996	112.793	86.1679	112.793	86.1999	112.793	86.1584	112.793	86.1985	112.793	86.1478	112.793	86.1948	112.793	86.1361	112.793	86.1881	112.793	86.1227	112.793	86.1777	112.793	86.1075	112.793	86.1626	112.793	86.0896	112.793	86.142	112.793	86.0688	112.793	86.1157	112.793	86.0448	112.793	86.0841	112.793	86.018	112.793	86.0488	112.793	85.9895	112.793	86.0119	112.793	85.9613	112.793	85.9765	112.793	85.9364	112.793	85.9457	112.793	85.9177	112.793	85.9227	112.793	85.9082	112.793	85.9098
117.188	86.1089	117.188	86.1099	117.188	86.1048	117.188	86.1078	117.188	86.0979	117.188	86.1027	117.188	86.0883	117.188	86.0945	117.188	86.0762	117.188	86.0833	117.188	86.062	117.188	86.069	117.188	86.0457	117.188	86.0513	117.188	86.0273	117.188	86.03	117.188	86.0064	117.188	86.0046	117.188	85.9825	117.188	85.9748	117.188	85.9552	117.188	85.9407	117.188	85.9242	117.188	85.903	117.188	85.8897	117.188	85.863	117.188	85.8528	117.188	85.8232	117.188	85.8156	117.188	85.7865	117.188	85.7811	117.188	85.7565	117.188	85.7531	117.188	85.7365	117.188	85.7348	117.188	85.729
120.117	86.0979	120.117	86.0963	120.117	86.0955	120.117	86.0907	120.117	86.0891	120.117	86.0812	120.117	86.0791	120.117	86.068	120.117	86.0658	120.117	86.0512	120.117	86.0493	120.117	86.0311	120.117	86.0299	120.117	86.0075	120.117	86.0075	120.117	85.9802	120.117	85.982	120.117	85.9489	120.117	85.9528	120.117	85.9133	120.117	85.9196	120.117	85.8734	120.117	85.8821	120.117	85.83	120.117	85.8409	120.117	85.7847	120.117	85.7971	120.117	85.74	120.117	85.753	120.117	85.6998	120.117	85.7119	120.117	85.668	120.117	85.6775	120.117	85.6485	120.117	85.6537	120.117	85.6435
124.512	86.1085	124.512	86.1063	124.512	86.1055	124.512	86.0989	124.512	86.0973	124.512	86.0863	124.512	86.0845	124.512	86.0688	124.512	86.0675	124.512	86.0467	124.512	86.0466	124.512	86.0203	124.512	86.0221	124.512	85.9897	124.512	85.994	124.512	85.9549	124.512	85.9621	124.512	85.9156	124.512	85.9259	124.512	85.8716	124.512	85.8848	124.512	85.8232	124.512	85.8387	124.512	85.7709	124.512	85.7881	124.512	85.7165	124.512	85.7343	124.512	85.663	124.512	85.6801	124.512	85.6146	124.512	85.6295	124.512	85.5762	124.512	85.5872	124.512	85.5522	124.512	85.5581	124.512	85.5459
128.906	86.0258	128.906	86.0261	128.906	86.0193	128.906	86.0201	128.906	86.0068	128.906	86.0077	128.906	85.9891	128.906	85.9894	128.906	85.9668	128.906	85.9657	128.906	85.9407	128.906	85.9369	128.906	85.9112	128.906	85.9034	128.906	85.8788	128.906	85.8653	128.906	85.8434	128.906	85.8227	128.906	85.8046	128.906	85.7755	128.906	85.762	128.906	85.7239	128.906	85.7152	128.906	85.6687	128.906	85.6645	128.906	85.6118	128.906	85.6113	128.906	85.556	128.906	85.5581	128.906	85.5054	128.906	85.5087	128.906	85.4649	128.906	85.468	128.906	85.4389	128.906	85.4408	128.906	85.4305
133.301	85.981	133.301	85.9841	133.301	85.9702	133.301	85.9794	133.301	85.9521	133.301	85.967	133.301	85.9274	133.301	85.9475	133.301	85.8971	133.301	85.9214	133.301	85.862	133.301	85.8894	133.301	85.8232	133.301	85.8518	133.301	85.7813	133.301	85.8089	133.301	85.7368	133.301	85.7607	133.301	85.6896	133.301	85.7073	133.301	85.6396	133.301	85.6488	133.301	85.5869	133.301	85.5863	133.301	85.5319	133.301	85.5215	133.301	85.4759	133.301	85.4577	133.301	85.4216	133.301	85.3993	133.301	85.3727	133.301	85.3513	133.301	85.3339	133.301	85.3185	133.301	85.3099	133.301	85.3043
139.16	85.9077	139.16	85.9109	139.16	85.895	139.16	85.9045	139.16	85.8731	139.16	85.8891	139.16	85.8428	139.16	85.8654	139.16	85.8052	139.16	85.8341	139.16	85.7615	139.16	85.7963	139.16	85.713	139.16	85.7526	139.16	85.6607	139.16	85.7033	139.16	85.6053	139.16	85.6485	139.16	85.5474	139.16	85.5883	139.16	85.4872	139.16	85.5227	139.16	85.425	139.16	85.4526	139.16	85.3617	139.16	85.3798	139.16	85.2988	139.16	85.3077	139.16	85.2393	139.16	85.2407	139.16	85.1873	139.16	85.1844	139.16	85.1478	139.16	85.1441	139.16	85.1255	139.16	85.1239
143.555	85.8327	143.555	85.8319	143.555	85.822	143.555	85.8197	143.555	85.8003	143.555	85.797	143.555	85.7682	143.555	85.7646	143.555	85.7272	143.555	85.7238	143.555	85.6786	143.555	85.676	143.555	85.624	143.555	85.6223	143.555	85.5647	143.555	85.5636	143.555	85.5019	143.555	85.5004	143.555	85.4362	143.555	85.4329	143.555	85.3684	143.555	85.3616	143.555	85.2988	143.555	85.2872	143.555	85.2285	143.555	85.2116	143.555	85.1592	143.555	85.138	143.555	85.0937	143.555	85.0708	143.555	85.0362	143.555	85.0154	143.555	84.9917	143.555	84.9771	143.555	84.965	143.555	84.9597
147.949	85.7837	147.949	85.7797	147.949	85.7743	147.949	85.7625	147.949	85.7519	147.949	85.7328	147.949	85.7177	147.949	85.6918	147.949	85.6729	147.949	85.641	147.949	85.6193	147.949	85.582	147.949	85.5587	147.949	85.5165	147.949	85.4927	147.949	85.4456	147.949	85.4225	147.949	85.3706	147.949	85.349	147.949	85.292	147.949	85.2731	147.949	85.2107	147.949	85.1952	147.949	85.1281	147.949	85.1164	147.949	85.0463	147.949	85.0386	147.949	84.9688	147.949	84.9645	147.949	84.9003	147.949	84.8986	147.949	84.8461	147.949	84.8458	147.949	84.8113	147.949	84.8114	147.949	84.7993
153.809	85.6983	153.809	85.6962	153.809	85.685	153.809	85.6791	153.809	85.6569	153.809	85.6478	153.809	85.6151	153.809	85.6037	153.809	85.5614	153.809	85.5485	153.809	85.498	153.809	85.4842	153.809	85.4271	153.809	85.4126	153.809	85.3511	153.809	85.3353	153.809	85.2718	153.809	85.2534	153.809	85.1907	153.809	85.1681	153.809	85.1086	153.809	85.0803	153.809	85.0263	153.809	84.9916	153.809	84.9448	153.809	84.9042	153.809	84.8657	153.809	84.8215	153.809	84.7918	153.809	84.7481	153.809	84.727	153.809	84.6895	153.809	84.6762	153.809	84.6507	153.809	84.6443	153.809	84.6352
159.668	85.7227	159.668	85.7197	159.668	85.7084	159.668	85.6996	159.668	85.6772	159.668	85.6635	159.668	85.6303	159.668	85.6131	159.668	85.5695	159.668	85.5506	159.668	85.4971	159.668	85.4782	159.668	85.4158	159.668	85.3983	159.668	85.3282	159.668	85.3129	159.668	85.2368	159.668	85.2236	159.668	85.1434	159.668	85.1318	159.668	85.0499	159.668	85.0386	159.668	84.9575	159.668	84.9452	159.668	84.868	159.668	84.8537	159.668	84.7834	159.668	84.767	159.668	84.7067	159.668	84.6896	159.668	84.6418	159.668	84.6263	159.668	84.5933	159.668	84.5824	159.668	84.5655	159.668	84.5616
165.527	85.7343	165.527	85.7269	165.527	85.7227	165.527	85.7008	165.527	85.6925	165.527	85.6574	165.527	85.6451	165.527	85.5986	165.527	85.5824	165.527	85.527	165.527	85.5071	165.527	85.4456	165.527	85.4221	165.527	85.3573	165.527	85.3305	165.527	85.2649	165.527	85.2351	165.527	85.1706	165.527	85.1385	165.527	85.0761	165.527	85.0424	165.527	84.9828	165.527	84.9485	165.527	84.8917	165.527	84.8584	165.527	84.8046	165.527	84.7738	165.527	84.7241	165.527	84.6975	165.527	84.6537	165.527	84.6326	165.527	84.5978	165.527	84.5833	165.527	84.5606	165.527	84.5532	165.527	84.5454
171.387	85.6546	171.387	85.6449	171.387	85.6433	171.387	85.6147	171.387	85.6116	171.387	85.5655	171.387	85.5608	171.387	85.4994	171.387	85.493	171.387	85.4192	171.387	85.4109	171.387	85.328	171.387	85.3176	171.387	85.2295	171.387	85.2164	171.387	85.1266	171.387	85.1102	171.387	85.0221	171.387	85.002	171.387	84.9184	171.387	84.8942	171.387	84.817	171.387	84.7889	171.387	84.7195	171.387	84.6882	171.387	84.6274	171.387	84.5945	171.387	84.5429	171.387	84.5109	171.387	84.4692	171.387	84.4411	171.387	84.4102	171.387	84.3892	171.387	84.37	171.387	84.3588	171.387	84.3522
177.246	85.5454	177.246	85.5365	177.246	85.532	177.246	85.5053	177.246	85.4973	177.246	85.4532	177.246	85.4431	177.246	85.3822	177.246	85.3721	177.246	85.2955	177.246	85.2879	177.246	85.1965	177.246	85.1941	177.246	85.0894	177.246	85.0944	177.246	84.9782	177.246	84.9921	177.246	84.8665	177.246	84.8897	177.246	84.7577	177.246	84.7892	177.246	84.6541	177.246	84.6918	177.246	84.5581	177.246	84.5985	177.246	84.4712	177.246	84.5108	177.246	84.3956	177.246	84.4308	177.246	84.3335	177.246	84.3616	177.246	84.2876	177.246	84.3068	177.246	84.2605	177.246	84.2702	177.246	84.2544
183.105	85.4073	183.105	85.4059	183.105	85.3832	183.105	85.3792	183.105	85.3349	183.105	85.3283	183.105	85.2643	183.105	85.2554	183.105	85.1749	183.105	85.1636	183.105	85.0707	183.105	85.0568	183.105	84.9565	183.105	84.9394	183.105	84.8369	183.105	84.8157	183.105	84.7168	183.105	84.6903	183.105	84.5998	183.105	84.5671	183.105	84.4891	183.105	84.4498	183.105	84.3865	183.105	84.3411	183.105	84.2933	183.105	84.2438	183.105	84.2101	183.105	84.1598	183.105	84.138	183.105	84.0914	183.105	84.0785	183.105	84.0404	183.105	84.0335	183.105	84.0086	183.105	84.0057	183.105	83.997
188.965	85.3795	188.965	85.378	188.965	85.3534	188.965	85.3496	188.965	85.3003	188.965	85.2958	188.965	85.222	188.965	85.2194	188.965	85.1213	188.965	85.1235	188.965	85.0024	188.965	85.0121	188.965	84.87	188.965	84.8895	188.965	84.7299	188.965	84.7597	188.965	84.5876	188.965	84.6271	188.965	84.4488	188.965	84.4955	188.965	84.3181	188.965	84.3684	188.965	84.1993	188.965	84.249	188.965	84.095	188.965	84.1403	188.965	84.0068	188.965	84.0446	188.965	83.9353	188.965	83.9642	188.965	83.8812	188.965	83.9011	188.965	83.8455	188.965	83.8568	188.965	83.829	188.965	83.8327
196.289	85.4132	196.289	85.4008	196.289	85.3956	196.289	85.3596	196.289	85.3485	196.289	85.2918	196.289	85.2735	196.289	85.2009	196.289	85.1738	196.289	85.0911	196.289	85.0536	196.289	84.9676	196.289	84.9182	196.289	84.8356	196.289	84.7735	196.289	84.7002	196.289	84.6257	196.289	84.5662	196.289	84.4806	196.289	84.4373	196.289	84.3436	196.289	84.3166	196.289	84.2189	196.289	84.2065	196.289	84.1095	196.289	84.1085	196.289	84.0174	196.289	84.024	196.289	83.9439	196.289	83.954	196.289	83.8893	196.289	83.8995	196.289	83.8539	196.289	83.8612	196.289	83.8377	196.289	83.8403
203.613	85.2908	203.613	85.2733	203.613	85.2741	203.613	85.2224	203.613	85.2238	203.613	85.1404	203.613	85.1423	203.613	85.031	203.613	85.0333	203.613	84.8994	203.613	84.9016	203.613	84.7517	203.613	84.7534	203.613	84.5951	203.613	84.5955	203.613	84.4365	203.613	84.4349	203.613	84.2829	203.613	84.2788	203.613	84.1403	203.613	84.1332	203.613	84.013	203.613	84.0033	203.613	83.9041	203.613	83.8925	203.613	83.8147	203.613	83.8024	203.613	83.7445	203.613	83.733	203.613	83.6923	203.613	83.6829	203.613	83.6564	203.613	83.6497	203.613	83.6349	203.613	83.6315	203.613	83.6268
210.938	85.2566	210.938	85.2381	210.938	85.2396	210.938	85.1846	210.938	85.1881	210.938	85.0979	210.938	85.1044	210.938	84.9814	210.938	84.9924	210.938	84.8397	210.938	84.8568	210.938	84.6788	210.938	84.7035	210.938	84.5056	210.938	84.5388	210.938	84.3278	210.938	84.3693	210.938	84.1534	210.938	84.2018	210.938	83.9901	210.938	84.0425	210.938	83.8443	210.938	83.897	210.938	83.7208	210.938	83.77	210.938	83.6223	210.938	83.6646	210.938	83.5488	210.938	83.5821	210.938	83.4984	210.938	83.5219	210.938	83.4673	210.938	83.4817	210.938	83.4518	210.938	83.4585	210.938	83.449
218.262	85.1896	218.262	85.1749	218.262	85.1665	218.262	85.1228	218.262	85.1066	218.262	85.0354	218.262	85.0122	218.262	84.9161	218.262	84.8873	218.262	84.7697	218.262	84.7374	218.262	84.6024	218.262	84.569	218.262	84.4214	218.262	84.3898	218.262	84.2347	218.262	84.2082	218.262	84.0508	218.262	84.0322	218.262	83.8776	218.262	83.8688	218.262	83.7223	218.262	83.7237	218.262	83.5899	218.262	83.6007	218.262	83.4834	218.262	83.5012	218.262	83.4035	218.262	83.4247	218.262	83.3483	218.262	83.3691	218.262	83.3148	218.262	83.3312	218.262	83.2989	218.262	83.308	218.262	83.2973
225.586	85.1528	225.586	85.1468	225.586	85.118	225.586	85.1006	225.586	85.0438	225.586	85.0164	225.586	84.9333	225.586	84.898	225.586	84.7911	225.586	84.7509	225.586	84.624	225.586	84.5819	225.586	84.44	225.586	84.3988	225.586	84.2483	225.586	84.2102	225.586	84.0589	225.586	84.0249	225.586	83.8813	225.586	83.8514	225.586	83.7241	225.586	83.6968	225.586	83.5935	225.586	83.5668	225.586	83.4923	225.586	83.4643	225.586	83.4197	225.586	83.3901	225.586	83.3716	225.586	83.3421	225.586	83.3418	225.586	83.3159	225.586	83.3238	225.586	83.3058	225.586	83.3126	225.586	83.3062
232.91	85.2305	232.91	85.2195	232.91	85.1954	232.91	85.1634	232.91	85.1147	232.91	85.0652	232.91	84.9909	232.91	84.9291	232.91	84.828	232.91	84.7614	232.91	84.6325	232.91	84.5696	232.91	84.4126	232.91	84.363	232.91	84.1785	232.91	84.1518	232.91	83.942	232.91	83.9469	232.91	83.7163	232.91	83.7584	232.91	83.5141	232.91	83.5946	232.91	83.3469	232.91	83.4611	232.91	83.2224	232.91	83.3593	232.91	83.1432	232.91	83.2869	232.91	83.1054	232.91	83.2383	232.91	83.0997	232.91	83.2061	232.91	83.1139	232.91	83.1821	232.91	83.1365	232.91	83.1599
241.699	85.1121	241.699	85.0883	241.699	85.0904	241.699	85.0204	241.699	85.0235	241.699	84.9113	241.699	84.9134	241.699	84.7654	241.699	84.7638	241.699	84.5888	241.699	84.5802	241.699	84.3891	241.699	84.3699	241.699	84.1752	241.699	84.1416	241.699	83.9571	241.699	83.906	241.699	83.7453	241.699	83.6743	241.699	83.5502	241.699	83.4586	241.699	83.3802	241.699	83.2702	241.699	83.241	241.699	83.1182	241.699	83.1345	241.699	83.0076	241.699	83.0581	241.699	82.9384	241.699	83.0062	241.699	82.9051	241.699	82.9711	241.699	82.8982	241.699	82.9456	241.699	82.9076	241.699	82.9247
250.488	85.031	250.488	85.0029	250.488	85.0052	250.488	84.9225	250.488	84.9258	250.488	84.7929	250.488	84.7947	250.488	84.6191	250.488	84.6161	250.488	84.408	250.488	84.3968	250.488	84.1687	250.488	84.1462	250.488	83.9128	250.488	83.8767	250.488	83.6538	250.488	83.6029	250.488	83.4065	250.488	83.341	250.488	83.1851	250.488	83.1067	250.488	83.0012	250.488	82.913	250.488	82.8613	250.488	82.7679	250.488	82.765	250.488	82.6723	250.488	82.7057	250.488	82.6207	250.488	82.673	250.488	82.6026	250.488	82.6555	250.488	82.6054	250.488	82.6437	250.488	82.6178	250.488	82.6317
259.277	85.2769	259.277	85.2428	259.277	85.2585	259.277	85.1573	259.277	85.1879	259.277	85.0225	259.277	85.0667	259.277	84.8426	259.277	84.8977	259.277	84.6231	259.277	84.6855	259.277	84.372	259.277	84.4366	259.277	84.0993	259.277	84.1605	259.277	83.8174	259.277	83.8694	259.277	83.541	259.277	83.5788	259.277	83.286	259.277	83.3062	259.277	83.0679	259.277	83.0693	259.277	82.8988	259.277	82.8826	259.277	82.7841	259.277	82.7541	259.277	82.7204	259.277	82.6822	259.277	82.6956	259.277	82.6566	259.277	82.6926	259.277	82.6607	259.277	82.6946	259.277	82.6766	259.277	82.6901
268.066	85.1469	268.066	85.1043	268.066	85.1348	268.066	85.0097	268.066	85.0668	268.066	84.8667	268.066	84.9433	268.066	84.6809	268.066	84.7659	268.066	84.4593	268.066	84.5388	268.066	84.2109	268.066	84.2691	268.066	83.9464	268.066	83.9675	268.066	83.6779	268.066	83.6487	268.066	83.4186	268.066	83.3318	268.066	83.1815	268.066	83.0381	268.066	82.9785	268.066	82.7887	268.066	82.8179	268.066	82.5999	268.066	82.7034	268.066	82.4791	268.066	82.632	268.066	82.4227	268.066	82.5933	268.066	82.4179	268.066	82.5724	268.066	82.4458	268.066	82.5534	268.066	82.4869	268.066	82.5255
276.855	85.0815	276.855	85.0576	276.855	85.0494	276.855	84.9729	276.855	84.9682	276.855	84.8251	276.855	84.845	276.855	84.616	276.855	84.6864	276.855	84.3515	276.855	84.4978	276.855	84.0424	276.855	84.2833	276.855	83.7052	276.855	84.0468	276.855	83.3613	276.855	83.7935	276.855	83.0358	276.855	83.5319	276.855	82.7541	276.855	83.2739	276.855	82.5364	276.855	83.035	276.855	82.3923	276.855	82.8313	276.855	82.3184	276.855	82.6749	276.855	82.3	276.855	82.5694	276.855	82.3174	276.855	82.5072	276.855	82.352	276.855	82.4727	276.855	82.39	276.855	82.4488	276.855	82.423
287.109	85.3955	287.109	85.392	287.109	85.3309	287.109	85.3216	287.109	85.1998	287.109	85.1876	287.109	85.0071	287.109	84.9947	287.109	84.7613	287.109	84.7493	287.109	84.4745	287.109	84.4597	287.109	84.1613	287.109	84.1376	287.109	83.8368	287.109	83.7988	287.109	83.515	287.109	83.4633	287.109	83.209	287.109	83.1549	287.109	82.9316	287.109	82.8972	287.109	82.6963	287.109	82.7079	287.109	82.5166	287.109	82.593	287.109	82.4027	287.109	82.5432	287.109	82.3563	287.109	82.5363	287.109	82.3675	287.109	82.5448	287.109	82.4152	287.109	82.5444	287.109	82.4738	287.109	82.5211
297.363	85.3789	297.363	85.3464	297.363	85.3399	297.363	85.2472	297.363	85.226	297.363	85.0867	297.363	85.0363	297.363	84.8707	297.363	84.7735	297.363	84.6062	297.363	84.4458	297.363	84.3014	297.363	84.0675	297.363	83.9671	297.363	83.6592	297.363	83.6175	297.363	83.2467	297.363	83.2706	297.363	82.8586	297.363	82.9482	297.363	82.5228	297.363	82.6738	297.363	82.2627	297.363	82.4678	297.363	82.0927	297.363	82.3415	297.363	82.015	297.363	82.2908	297.363	82.0184	297.363	82.2947	297.363	82.0798	297.363	82.3204	297.363	82.1693	297.363	82.3348	297.363	82.2559	297.363	82.3151
307.617	85.3433	307.617	85.2857	307.617	85.3416	307.617	85.1708	307.617	85.2782	307.617	85.001	307.617	85.1511	307.617	84.7793	307.617	84.9586	307.617	84.5109	307.617	84.7016	307.617	84.204	307.617	84.3853	307.617	83.8713	307.617	84.0215	307.617	83.5312	307.617	83.6302	307.617	83.2068	307.617	83.2396	307.617	82.9238	307.617	82.8837	307.617	82.7047	307.617	82.5955	307.617	82.5625	307.617	82.3993	307.617	82.4956	307.617	82.3029	307.617	82.4885	307.617	82.2947	307.617	82.5164	307.617	82.3479	307.617	82.5518	307.617	82.4287	307.617	82.5704	307.617	82.5057	307.617	82.5563
319.336	85.2541	319.336	85.2224	319.336	85.2191	319.336	85.1226	319.336	85.1198	319.336	84.9549	319.336	84.9597	319.336	84.7208	319.336	84.7429	319.336	84.4248	319.336	84.4751	319.336	84.0745	319.336	84.1638	319.336	83.6833	319.336	83.8197	319.336	83.2718	319.336	83.4589	319.336	82.8692	319.336	83.1039	319.336	82.512	319.336	82.7827	319.336	82.2373	319.336	82.5243	319.336	82.0712	319.336	82.35	319.336	82.0175	319.336	82.2651	319.336	82.0552	319.336	82.2558	319.336	82.1464	319.336	82.2938	319.336	82.2505	319.336	82.3457	319.336	82.3351	319.336	82.3814	319.336	82.3806
329.59	85.4358	329.59	85.4069	329.59	85.3918	329.59	85.3043	329.59	85.2766	329.59	85.1289	329.59	85.0932	329.59	84.8832	329.59	84.8451	329.59	84.5717	329.59	84.5369	329.59	84.2019	329.59	84.175	329.59	83.785	329.59	83.7691	329.59	83.339	329.59	83.335	329.59	82.8912	329.59	82.8978	329.59	82.4792	329.59	82.493	329.59	82.147	329.59	82.1626	329.59	81.9335	329.59	81.9436	329.59	81.854	329.59	81.8513	329.59	81.8896	329.59	81.8707	329.59	81.993	329.59	81.9617	329.59	82.1079	329.59	82.0753	329.59	82.1889	329.59	82.1682	329.59	82.2106
341.309	85.2992	341.309	85.2648	341.309	85.2604	341.309	85.1567	341.309	85.1512	341.309	84.9762	341.309	84.9766	341.309	84.727	341.309	84.7429	341.309	84.4148	341.309	84.4575	341.309	84.0482	341.309	84.1283	341.309	83.6401	341.309	83.7637	341.309	83.209	341.309	83.3747	341.309	82.7816	341.309	82.9773	341.309	82.3916	341.309	82.5968	341.309	82.0766	341.309	82.268	341.309	81.8688	341.309	82.029	341.309	81.7828	341.309	81.9064	341.309	81.8076	341.309	81.8987	341.309	81.9077	341.309	81.973	341.309	82.0337	341.309	82.077	341.309	82.1371	341.309	82.159	341.309	82.1831
353.027	85.2114	353.027	85.1753	353.027	85.1603	353.027	85.0549	353.027	85.0206	353.027	84.8543	353.027	84.7932	353.027	84.5789	353.027	84.4824	353.027	84.2356	353.027	84.0973	353.027	83.8338	353.027	83.6533	353.027	83.3872	353.027	83.1731	353.027	82.917	353.027	82.6877	353.027	82.4544	353.027	82.2339	353.027	82.0419	353.027	81.8506	353.027	81.7269	353.027	81.5725	353.027	81.5463	353.027	81.4221	353.027	81.5083	353.027	81.4022	353.027	81.585	353.027	81.4914	353.027	81.7239	353.027	81.6464	353.027	81.8675	353.027	81.813	353.027	81.9687	353.027	81.941	353.027	81.9967
366.211	85.4079	366.211	85.3447	366.211	85.3859	366.211	85.1991	366.211	85.2771	366.211	84.9747	366.211	85.0807	366.211	84.6759	366.211	84.797	366.211	84.3087	366.211	84.4276	366.211	83.8806	366.211	83.9762	366.211	83.4017	366.211	83.4502	366.211	82.8872	366.211	82.8643	366.211	82.3602	366.211	82.2456	366.211	81.8567	366.211	81.6402	366.211	81.426	366.211	81.1149	366.211	81.1215	366.211	80.7463	366.211	80.978	366.211	80.5896	366.211	80.9896	366.211	80.6429	366.211	81.1066	366.211	80.84	366.211	81.2552	366.211	81.0823	366.211	81.3634	366.211	81.2804	366.211	81.3791
379.395	85.7752	379.395	85.7137	379.395	85.7584	379.395	85.5722	379.395	85.6633	379.395	85.3482	379.395	85.4886	379.395	85.039	379.395	85.2327	379.395	84.644	379.395	84.8943	379.395	84.1683	379.395	84.4752	379.395	83.6274	379.395	83.9832	379.395	83.0523	379.395	83.4377	379.395	82.4917	379.395	82.8739	379.395	82.0081	379.395	82.345	379.395	81.6626	379.395	81.9134	379.395	81.4912	379.395	81.6309	379.395	81.4864	379.395	81.514	379.395	81.5989	379.395	81.537	379.395	81.7588	379.395	81.6471	379.395	81.9007	379.395	81.7875	379.395	81.981	379.395	81.9109	379.395	81.9827
392.578	85.5949	392.578	85.5651	392.578	85.5455	392.578	85.4528	392.578	85.42	392.578	85.2557	392.578	85.2213	392.578	84.9724	392.578	84.9506	392.578	84.6029	392.578	84.6086	392.578	84.1495	392.578	84.1959	392.578	83.6192	392.578	83.7161	392.578	83.0293	392.578	83.1802	392.578	82.4156	392.578	82.613	392.578	81.8391	392.578	82.0618	392.578	81.3828	392.578	81.5973	392.578	81.1262	392.578	81.2987	392.578	81.1024	392.578	81.2149	392.578	81.2728	392.578	81.3293	392.578	81.5452	392.578	81.5632	392.578	81.8177	392.578	81.8167	392.578	82.0103	392.578	82.0056	392.578	82.077
405.762	85.2917	405.762	85.2282	405.762	85.2615	405.762	85.0748	405.762	85.1365	405.762	84.8371	405.762	84.9185	405.762	84.5214	405.762	84.612	405.762	84.134	405.762	84.2237	405.762	83.681	405.762	83.7628	405.762	83.1706	405.762	83.242	405.762	82.6187	405.762	82.6811	405.762	82.056	405.762	82.1124	405.762	81.5348	405.762	81.5853	405.762	81.1251	405.762	81.1657	405.762	80.8925	405.762	80.9203	405.762	80.8637	405.762	80.8835	405.762	81.0074	405.762	81.0304	405.762	81.2487	405.762	81.2811	405.762	81.5016	405.762	81.5368	405.762	81.6926	405.762	81.7159	405.762	81.7714
420.41	85.7598	420.41	85.7039	420.41	85.7166	420.41	85.547	420.41	85.5753	420.41	85.2866	420.41	85.337	420.41	84.9197	420.41	85.003	420.41	84.4445	420.41	84.5747	420.41	83.8621	420.41	84.0533	420.41	83.1803	420.41	83.4412	420.41	82.4211	420.41	82.7461	420.41	81.634	420.41	81.9919	420.41	80.9115	420.41	81.2342	420.41	80.3872	420.41	80.5746	420.41	80.1788	420.41	80.1467	420.41	80.298	420.41	80.0479	420.41	80.6313	420.41	80.2589	420.41	81.022	420.41	80.6497	420.41	81.347	420.41	81.0638	420.41	81.534	420.41	81.3847	420.41	81.5489
435.059	85.4928	435.059	85.4465	435.059	85.4584	435.059	85.3203	435.059	85.3401	435.059	85.1112	435.059	85.1334	435.059	84.8125	435.059	84.8338	435.059	84.4145	435.059	84.4381	435.059	83.9075	435.059	83.9473	435.059	83.2877	435.059	83.3679	435.059	82.5649	435.059	82.7169	435.059	81.7753	435.059	82.0274	435.059	80.9967	435.059	81.3566	435.059	80.358	435.059	80.7895	435.059	80.0097	435.059	80.4232	435.059	80.0316	435.059	80.3236	435.059	80.3556	435.059	80.4787	435.059	80.8087	435.059	80.7964	435.059	81.2216	435.059	81.1512	435.059	81.486	435.059	81.4302	435.059	81.5552
451.172	85.9352	451.172	85.9016	451.172	85.8607	451.172	85.7556	451.172	85.6841	451.172	85.4955	451.172	85.4117	451.172	85.1209	451.172	85.0476	451.172	84.6308	451.172	84.5918	451.172	84.0211	451.172	84.0403	451.172	83.2863	451.172	83.3892	451.172	82.4281	451.172	82.642	451.172	81.4766	451.172	81.8236	451.172	80.5261	451.172	81.0006	451.172	79.7656	451.172	80.2982	451.172	79.4259	451.172	79.8806	451.172	79.595	451.172	79.8585	451.172	80.1142	451.172	80.1859	451.172	80.7265	451.172	80.6866	451.172	81.2417	451.172	81.173	451.172	81.5635	451.172	81.518	451.172	81.6564
465.82	85.8832	465.82	85.8078	465.82	85.8636	465.82	85.6423	465.82	85.7429	465.82	85.3885	465.82	85.5151	465.82	85.045	465.82	85.1754	465.82	84.6073	465.82	84.7203	465.82	84.0689	465.82	84.1473	465.82	83.4217	465.82	83.4551	465.82	82.6595	465.82	82.648	465.82	81.7848	465.82	81.7467	465.82	80.8285	465.82	80.8094	465.82	79.8857	465.82	79.9574	465.82	79.1475	465.82	79.3703	465.82	78.8454	465.82	79.1965	465.82	79.0575	465.82	79.4243	465.82	79.6015	465.82	79.8817	465.82	80.1945	465.82	80.3597	465.82	80.6281	465.82	80.6988	465.82	80.8022
483.398	85.8578	483.398	85.8237	483.398	85.8077	483.398	85.7044	483.398	85.6715	483.398	85.4951	483.398	85.4451	483.398	85.186	483.398	85.1224	483.398	84.7621	483.398	84.6946	483.398	84.2037	483.398	84.1503	483.398	83.4894	483.398	83.4767	483.398	82.6038	483.398	82.6659	483.398	81.5551	483.398	81.7297	483.398	80.4151	483.398	80.7288	483.398	79.383	483.398	79.814	483.398	78.7911	483.398	79.2292	483.398	78.8705	483.398	79.172	483.398	79.4665	483.398	79.5882	483.398	80.2122	483.398	80.2151	483.398	80.8389	483.398	80.8003	483.398	81.2289	483.398	81.1988	483.398	81.3487
499.512	85.6522	499.512	85.6166	499.512	85.6025	499.512	85.4946	499.512	85.4663	499.512	85.283	499.512	85.2403	499.512	84.9753	499.512	84.919	499.512	84.5591	499.512	84.4942	499.512	84.0158	499.512	83.9556	499.512	83.322	499.512	83.2907	499.512	82.4572	499.512	82.4881	499.512	81.422	499.512	81.5471	499.512	80.2767	499.512	80.5046	499.512	79.2038	499.512	79.4872	499.512	78.5342	499.512	78.7579	499.512	78.5475	499.512	78.613	499.512	79.1484	499.512	79.0767	499.512	79.9661	499.512	79.8439	499.512	80.6871	499.512	80.5802	499.512	81.149	499.512	81.0895	499.512	81.2875
517.09	86.1068	517.09	86.0185	517.09	86.1013	517.09	85.8364	517.09	86.001	517.09	85.5594	517.09	85.8032	517.09	85.1835	517.09	85.5017	517.09	84.6993	517.09	85.0841	517.09	84.0886	517.09	84.5304	517.09	83.3223	517.09	83.8129	517.09	82.362	517.09	82.8996	517.09	81.1737	517.09	81.7665	517.09	79.7726	517.09	80.4336	517.09	78.3369	517.09	79.0551	517.09	77.3583	517.09	78.0451	517.09	77.3897	517.09	77.9175	517.09	78.2858	517.09	78.643	517.09	79.4151	517.09	79.6643	517.09	80.364	517.09	80.5363	517.09	80.9814	517.09	81.0731	517.09	81.2226
536.133	85.2726	536.133	85.2671	536.133	85.2157	536.133	85.1943	536.133	85.0972	536.133	85.0437	536.133	84.9131	536.133	84.798	536.133	84.6528	536.133	84.4317	536.133	84.2964	536.133	83.9101	536.133	83.813	536.133	83.1878	536.133	83.1622	536.133	82.2088	536.133	82.2975	536.133	80.9104	536.133	81.1747	536.133	79.2485	536.133	79.7772	536.133	77.3124	536.133	78.2031	536.133	75.6846	536.133	76.8746	536.133	75.5493	536.133	76.5697	536.133	76.9315	536.133	77.4725	536.133	78.6031	536.133	78.8169	536.133	79.9007	536.133	79.9679	536.133	80.6794	536.133	80.6944	536.133	80.938
555.176	85.8618	555.176	85.8062	555.176	85.858	555.176	85.6977	555.176	85.7875	555.176	85.5397	555.176	85.6423	555.176	85.3283	555.176	85.4117	555.176	85.0474	555.176	85.079	555.176	84.6635	555.176	84.6154	555.176	84.1219	555.176	83.975	555.176	83.3431	555.176	83.0911	555.176	82.2171	555.176	81.8735	555.176	80.5976	555.176	80.2068	555.176	78.3076	555.176	77.9648	555.176	75.3076	555.176	75.1809	555.176	72.87	555.176	73.0171	555.176	73.9005	555.176	73.8761	555.176	76.4454	555.176	76.2817	555.176	78.3711	555.176	78.2315	555.176	79.4614	555.176	79.3902	555.176	79.7906
574.219	86.1625	574.219	86.1395	574.219	86.1379	574.219	86.0666	574.219	86.0715	574.219	85.9437	574.219	85.9697	574.219	85.7678	574.219	85.8331	574.219	85.5263	574.219	85.6493	574.219	85.1914	574.219	85.3889	574.219	84.7177	574.219	85.0033	574.219	84.0409	574.219	84.4245	574.219	83.0755	574.219	83.5641	574.219	81.7077	574.219	82.3107	574.219	79.7865	574.219	80.5328	574.219	77.1655	574.219	78.1301	574.219	74.1843	574.219	75.3797	574.219	73.267	574.219	73.9877	574.219	75.3094	574.219	75.246	574.219	77.3884	574.219	77.1133	574.219	78.5728	574.219	78.382	574.219	78.8788
594.727	86.046	594.727	86.0276	594.727	86.0137	594.727	85.9681	594.727	85.9322	594.727	85.8846	594.727	85.8134	594.727	85.7931	594.727	85.6713	594.727	85.6952	594.727	85.5105	594.727	85.5675	594.727	85.3145	594.727	85.3567	594.727	85.0404	594.727	84.9853	594.727	84.6209	594.727	84.3615	594.727	83.9697	594.727	83.3839	594.727	82.9846	594.727	81.9391	594.727	81.5507	594.727	79.8998	594.727	79.558	594.727	77.1915	594.727	77.0299	594.727	74.3176	594.727	74.7229	594.727	73.5065	594.727	74.4859	594.727	75.1429	594.727	75.9133	594.727	76.7398	594.727	77.1096	594.727	77.4211
615.234	86.1459	615.234	86.0749	615.234	86.1207	615.234	85.9204	615.234	86.0003	615.234	85.7069	615.234	85.7988	615.234	85.4642	615.234	85.5406	615.234	85.2152	615.234	85.2508	615.234	84.9598	615.234	84.9396	615.234	84.6628	615.234	84.5865	615.234	84.255	615.234	84.1368	615.234	83.6445	615.234	83.5099	615.234	82.7297	615.234	82.612	615.234	81.411	615.234	81.3445	615.234	79.6208	615.234	79.6264	615.234	77.4487	615.234	77.5178	615.234	75.5371	615.234	75.6463	615.234	75.1283	615.234	75.2957	615.234	76.1007	615.234	76.2966	615.234	77.1398	615.234	77.2689	615.234	77.5815
637.207	86.2049	637.207	86.1693	637.207	86.1531	637.207	86.0502	637.207	86.0226	637.207	85.8649	637.207	85.8313	637.207	85.6397	637.207	85.6012	637.207	85.4002	637.207	85.3498	637.207	85.1544	637.207	85.0817	637.207	84.8743	637.207	84.7783	637.207	84.4878	637.207	84.3909	637.207	83.8888	637.207	83.8398	637.207	82.9547	637.207	83.0245	637.207	81.5633	637.207	81.8393	637.207	79.632	637.207	80.205	637.207	77.2943	637.207	78.1643	637.207	75.4423	637.207	76.1958	637.207	75.4367	637.207	75.4539	637.207	76.5971	637.207	76.2133	637.207	77.5318	637.207	77.2531	637.207	77.7647
659.18	85.8232	659.18	85.7766	659.18	85.7591	659.18	85.6275	659.18	85.5916	659.18	85.3974	659.18	85.3442	659.18	85.1181	659.18	85.0528	659.18	84.8237	659.18	84.7532	659.18	84.5369	659.18	84.4614	659.18	84.2526	659.18	84.1558	659.18	83.9233	659.18	83.775	659.18	83.4571	659.18	83.227	659.18	82.7269	659.18	82.4002	659.18	81.5834	659.18	81.1702	659.18	79.8754	659.18	79.4142	659.18	77.5322	659.18	77.1059	659.18	74.9764	659.18	74.7501	659.18	73.884	659.18	73.9353	659.18	74.8656	659.18	74.9607	659.18	76.0624	659.18	76.1055	659.18	76.5227
682.617	85.8159	682.617	85.7244	682.617	85.7594	682.617	85.5005	682.617	85.5567	682.617	85.1786	682.617	85.2294	682.617	84.8144	682.617	84.8244	682.617	84.4734	682.617	84.4104	682.617	84.1962	682.617	84.0547	682.617	83.9638	682.617	83.779	682.617	83.697	682.617	83.5252	682.617	83.2861	682.617	83.1688	682.617	82.6157	682.617	82.5598	682.617	81.5703	682.617	81.5534	682.617	80.034	682.617	80.0214	682.617	77.9359	682.617	77.8913	682.617	75.5063	682.617	75.3901	682.617	73.9345	682.617	73.7367	682.617	74.3327	682.617	74.1559	682.617	75.3729	682.617	75.2826	682.617	75.7858
707.52	86.2068	707.52	86.1159	707.52	86.1563	707.52	85.8899	707.52	85.9723	707.52	85.5496	707.52	85.6754	707.52	85.1315	707.52	85.2964	707.52	84.6892	707.52	84.8749	707.52	84.2859	707.52	84.4521	707.52	83.9594	707.52	84.0565	707.52	83.6733	707.52	83.6797	707.52	83.3051	707.52	83.2547	707.52	82.6862	707.52	82.6536	707.52	81.6431	707.52	81.7091	707.52	80.0097	707.52	80.247	707.52	77.6552	707.52	78.144	707.52	74.7743	707.52	75.568	707.52	72.9473	707.52	73.7094	707.52	73.6981	707.52	73.9682	707.52	75.009	707.52	75.0403	707.52	75.5088
732.422	86.2985	732.422	86.1852	732.422	86.2253	732.422	85.8947	732.422	85.9718	732.422	85.451	732.422	85.5624	732.422	84.8963	732.422	85.0418	732.422	84.294	732.422	84.4737	732.422	83.722	732.422	83.9302	732.422	83.2476	732.422	83.4664	732.422	82.8867	732.422	83.0876	732.422	82.5756	732.422	82.7335	732.422	82.1755	732.422	82.2911	732.422	81.5077	732.422	81.6154	732.422	80.3944	732.422	80.5469	732.422	78.7126	732.422	78.9423	732.422	76.5283	732.422	76.7885	732.422	74.4601	732.422	74.5895	732.422	73.6578	732.422	73.6061	732.422	73.9928	732.422	73.9365	732.422	74.2496
757.324	86.4526	757.324	86.3669	757.324	86.3765	757.324	86.1186	757.324	86.1325	757.324	85.7101	757.324	85.7134	757.324	85.1649	757.324	85.1325	757.324	84.5401	757.324	84.4501	757.324	83.9193	757.324	83.7789	757.324	83.3793	757.324	83.2334	757.324	82.9453	757.324	82.8394	757.324	82.566	757.324	82.5032	757.324	82.1228	757.324	82.08	757.324	81.466	757.324	81.4485	757.324	80.4632	757.324	80.5289	757.324	79.0621	757.324	79.2888	757.324	77.4212	757.324	77.82	757.324	76.1061	757.324	76.5123	757.324	75.7477	757.324	75.9417	757.324	76.0438	757.324	76.0705	757.324	76.2339
785.156	86.815	785.156	86.7372	785.156	86.7334	785.156	86.5066	785.156	86.5	785.156	86.1357	785.156	86.1334	785.156	85.6371	785.156	85.6484	785.156	85.0293	785.156	85.0464	785.156	84.355	785.156	84.3294	785.156	83.683	785.156	83.5373	785.156	83.067	785.156	82.771	785.156	82.4909	785.156	82.1323	785.156	81.8707	785.156	81.592	785.156	81.107	785.156	80.9596	785.156	80.1198	785.156	80.0193	785.156	78.8654	785.156	78.6955	785.156	77.4177	785.156	77.2014	785.156	76.1498	785.156	76.0894	785.156	75.6212	785.156	75.7706	785.156	75.7795	785.156	75.9257	785.156	75.9933
811.523	86.1385	811.523	86.0676	811.523	86.0487	811.523	85.8382	811.523	85.7948	811.523	85.4516	811.523	85.3796	811.523	84.9145	811.523	84.8209	811.523	84.2484	811.523	84.1569	811.523	83.4972	811.523	83.4384	811.523	82.7268	811.523	82.7114	811.523	82.0092	811.523	82.0036	811.523	81.3839	811.523	81.3263	811.523	80.8082	811.523	80.6704	811.523	80.159	811.523	79.9835	811.523	79.3205	811.523	79.1761	811.523	78.3233	811.523	78.2146	811.523	77.4618	811.523	77.2858	811.523	77.153	811.523	76.8291	811.523	77.4163	811.523	77.0608	811.523	77.8013	811.523	77.5854	811.523	77.8987
840.82	86.2086	840.82	86.159	840.82	86.0707	840.82	85.9188	840.82	85.7627	840.82	85.5025	840.82	85.3121	840.82	84.9463	840.82	84.7529	840.82	84.3099	840.82	84.1257	840.82	83.6645	840.82	83.4837	840.82	83.0555	840.82	82.8801	840.82	82.4655	840.82	82.3147	840.82	81.8183	840.82	81.6911	840.82	81.0119	840.82	80.8596	840.82	79.9337	840.82	79.7074	840.82	78.4825	840.82	78.2221	840.82	76.7133	840.82	76.5762	840.82	75.2514	840.82	75.3592	840.82	75.2111	840.82	75.4161	840.82	76.3347	840.82	76.4851	840.82	77.408	840.82	77.4881	840.82	77.8379
870.117	85.8629	870.117	85.7272	870.117	85.8225	870.117	85.4275	870.117	85.5978	870.117	84.9797	870.117	85.1906	870.117	84.4151	870.117	84.6178	870.117	83.7911	870.117	83.9174	870.117	83.1759	870.117	83.1535	870.117	82.6015	870.117	82.4069	870.117	82.0326	870.117	81.7378	870.117	81.3941	870.117	81.131	870.117	80.6091	870.117	80.4699	870.117	79.5877	870.117	79.5687	870.117	78.2068	870.117	78.2574	870.117	76.4426	870.117	76.5521	870.117	74.8803	870.117	75.0465	870.117	74.8328	870.117	74.8831	870.117	76.0268	870.117	75.9109	870.117	77.0509	870.117	76.9343	870.117	77.3648
900.879	86.2082	900.879	86.094	900.879	86.0875	900.879	85.7585	900.879	85.7455	900.879	85.237	900.879	85.2214	900.879	84.5716	900.879	84.5715	900.879	83.8023	900.879	83.8539	900.879	82.9794	900.879	83.1095	900.879	82.1863	900.879	82.3525	900.879	81.5084	900.879	81.5796	900.879	80.9105	900.879	80.7762	900.879	80.1634	900.879	79.8886	900.879	78.9497	900.879	78.775	900.879	77.0154	900.879	77.1925	900.879	74.3773	900.879	74.9131	900.879	72.1806	900.879	72.4722	900.879	72.8285	900.879	72.6089	900.879	75.0884	900.879	75.0147	900.879	76.8182	900.879	76.8491	900.879	77.4492
933.105	85.9691	933.105	85.85	933.105	85.8853	933.105	85.5316	933.105	85.5925	933.105	85.0179	933.105	85.093	933.105	84.335	933.105	84.4118	933.105	83.5644	933.105	83.6123	933.105	82.8477	933.105	82.8079	933.105	82.3072	933.105	82.1439	933.105	81.9203	933.105	81.6969	933.105	81.516	933.105	81.3555	933.105	80.883	933.105	80.8478	933.105	79.8109	933.105	79.8666	933.105	78.0136	933.105	78.1145	933.105	75.0152	933.105	75.2455	933.105	70.3817	933.105	71.0036	933.105	68.639	933.105	68.6399	933.105	72.3663	933.105	71.8479	933.105	74.6972	933.105	74.4092	933.105	75.313
965.332	86.1289	965.332	85.976	965.332	86.0397	965.332	85.6017	965.332	85.6963	965.332	85.0231	965.332	85.1055	965.332	84.2492	965.332	84.297	965.332	83.297	965.332	83.323	965.332	82.2377	965.332	82.2658	965.332	81.2475	965.332	81.2568	965.332	80.5412	965.332	80.4682	965.332	80.138	965.332	79.9953	965.332	79.7844	965.332	79.6875	965.332	79.1643	965.332	79.1815	965.332	78.0235	965.332	78.0817	965.332	76.1062	965.332	76.0261	965.332	73.1393	965.332	72.7842	965.332	69.9455	965.332	69.7656	965.332	70.5498	965.332	70.9154	965.332	72.8587	965.332	73.0745	965.332	73.7924
1,000.49	86.5252	1,000.49	86.3911	1,000.49	86.3991	1,000.49	86.0007	1,000.49	86.0276	1,000.49	85.3714	1,000.49	85.4382	1,000.49	84.5298	1,000.49	84.6581	1,000.49	83.5252	1,000.49	83.7171	1,000.49	82.4536	1,000.49	82.6836	1,000.49	81.4672	1,000.49	81.7033	1,000.49	80.7339	1,000.49	80.9411	1,000.49	80.3234	1,000.49	80.4195	1,000.49	80.0709	1,000.49	79.9626	1,000.49	79.5999	1,000.49	79.3104	1,000.49	78.5025	1,000.49	78.2097	1,000.49	76.4609	1,000.49	76.4324	1,000.49	73.4005	1,000.49	73.8662	1,000.49	70.7227	1,000.49	71.3276	1,000.49	71.5381	1,000.49	71.4787	1,000.49	73.4319	1,000.49	73.2627	1,000.49	74.0972
1,035.64	86.5836	1,035.64	86.438	1,035.64	86.5022	1,035.64	86.0691	1,035.64	86.1741	1,035.64	85.4752	1,035.64	85.5754	1,035.64	84.6538	1,035.64	84.7149	1,035.64	83.6036	1,035.64	83.6637	1,035.64	82.3623	1,035.64	82.5405	1,035.64	81.087	1,035.64	81.4608	1,035.64	80.0771	1,035.64	80.5119	1,035.64	79.5437	1,035.64	79.7728	1,035.64	79.3091	1,035.64	79.2595	1,035.64	78.935	1,035.64	78.7768	1,035.64	77.9966	1,035.64	77.9134	1,035.64	76.1165	1,035.64	76.1879	1,035.64	72.9721	1,035.64	73.2131	1,035.64	69.7007	1,035.64	70.0842	1,035.64	71.0419	1,035.64	71.3014	1,035.64	73.6586	1,035.64	73.7764	1,035.64	74.6251
1,072.27	86.1023	1,072.27	85.981	1,072.27	85.9971	1,072.27	85.6459	1,072.27	85.6546	1,072.27	85.0985	1,072.27	85.0862	1,072.27	84.3337	1,072.27	84.3213	1,072.27	83.3594	1,072.27	83.3843	1,072.27	82.2365	1,072.27	82.2997	1,072.27	81.1321	1,072.27	81.1528	1,072.27	80.2728	1,072.27	80.1174	1,072.27	79.7188	1,072.27	79.337	1,072.27	79.2719	1,072.27	78.7414	1,072.27	78.6434	1,072.27	78.033	1,072.27	77.4823	1,072.27	76.8018	1,072.27	75.2766	1,072.27	74.5958	1,072.27	71.444	1,072.27	71.0855	1,072.27	67.9255	1,072.27	67.9967	1,072.27	70.501	1,072.27	69.8532	1,072.27	73.0109	1,072.27	72.4928	1,072.27	73.6086
1,108.89	85.635	1,108.89	85.5478	1,108.89	85.5106	1,108.89	85.2468	1,108.89	85.1779	1,108.89	84.7376	1,108.89	84.6165	1,108.89	84.0144	1,108.89	83.7924	1,108.89	83.0588	1,108.89	82.711	1,108.89	81.8762	1,108.89	81.4553	1,108.89	80.5434	1,108.89	80.1767	1,108.89	79.2579	1,108.89	79.0791	1,108.89	78.3403	1,108.89	78.3742	1,108.89	77.963	1,108.89	78.0681	1,108.89	77.792	1,108.89	77.7993	1,108.89	77.2052	1,108.89	77.0381	1,108.89	75.6346	1,108.89	75.2452	1,108.89	72.5879	1,108.89	71.7613	1,108.89	68.4845	1,108.89	66.5955	1,108.89	68.7613	1,108.89	67.5774	1,108.89	71.4423	1,108.89	71.0742	1,108.89	72.3039
1,148.44	85.9598	1,148.44	85.8634	1,148.44	85.8176	1,148.44	85.5258	1,148.44	85.4422	1,148.44	84.9547	1,148.44	84.8545	1,148.44	84.1803	1,148.44	84.0853	1,148.44	83.2402	1,148.44	83.1357	1,148.44	82.1486	1,148.44	81.9858	1,148.44	80.939	1,148.44	80.7282	1,148.44	79.8089	1,148.44	79.6581	1,148.44	79.0841	1,148.44	79.0102	1,148.44	78.7455	1,148.44	78.6566	1,148.44	78.2806	1,148.44	78.2589	1,148.44	77.1302	1,148.44	77.3547	1,148.44	74.7947	1,148.44	75.2892	1,148.44	70.3931	1,148.44	71.0236	1,148.44	63.5668	1,148.44	63.2216	1,148.44	68.2265	1,148.44	67.3319	1,148.44	72.259	1,148.44	71.8926	1,148.44	73.2843
1,189.45	85.6596	1,189.45	85.5266	1,189.45	85.5827	1,189.45	85.1968	1,189.45	85.2753	1,189.45	84.6662	1,189.45	84.7186	1,189.45	83.9115	1,189.45	83.8955	1,189.45	82.8848	1,189.45	82.7932	1,189.45	81.5213	1,189.45	81.4276	1,189.45	79.8523	1,189.45	79.9149	1,189.45	78.3012	1,189.45	78.5743	1,189.45	77.6885	1,189.45	77.8565	1,189.45	78.0358	1,189.45	77.8798	1,189.45	78.4255	1,189.45	78.2023	1,189.45	78.1849	1,189.45	78.1722	1,189.45	76.8448	1,189.45	77.1612	1,189.45	73.6038	1,189.45	74.4278	1,189.45	66.0888	1,189.45	68.2783	1,189.45	61.5128	1,189.45	55.5918	1,189.45	69.1144	1,189.45	67.5611	1,189.45	70.3947
1,230.47	85.5681	1,230.47	85.4174	1,230.47	85.5192	1,230.47	85.1221	1,230.47	85.251	1,230.47	84.7288	1,230.47	84.7784	1,230.47	84.2112	1,230.47	84.1311	1,230.47	83.4643	1,230.47	83.3098	1,230.47	82.3601	1,230.47	82.2391	1,230.47	80.8246	1,230.47	80.8031	1,230.47	78.9776	1,230.47	79.0325	1,230.47	77.3975	1,230.47	77.4707	1,230.47	77.002	1,230.47	77.1265	1,230.47	77.6544	1,230.47	77.8785	1,230.47	78.1908	1,230.47	78.5062	1,230.47	77.815	1,230.47	78.1791	1,230.47	76.1191	1,230.47	76.4442	1,230.47	72.5924	1,230.47	72.8607	1,230.47	65.7562	1,230.47	66.4094	1,230.47	44.7562	1,230.47	52.8125	1,230.47	53.6258
1,274.41	85.9628	1,274.41	85.8306	1,274.41	85.854	1,274.41	85.4709	1,274.41	85.5116	1,274.41	84.9103	1,274.41	84.9659	1,274.41	84.1989	1,274.41	84.2516	1,274.41	83.3969	1,274.41	83.3932	1,274.41	82.5076	1,274.41	82.4166	1,274.41	81.4505	1,274.41	81.3351	1,274.41	80.0702	1,274.41	80.0626	1,274.41	78.1676	1,274.41	78.4614	1,274.41	76.0587	1,274.41	76.8046	1,274.41	75.6326	1,274.41	76.1569	1,274.41	76.8364	1,274.41	76.7817	1,274.41	77.4233	1,274.41	77.3923	1,274.41	76.7927	1,274.41	76.9713	1,274.41	75.0651	1,274.41	75.1115	1,274.41	72.698	1,274.41	72.2403	1,274.41	70.976	1,274.41	70.4579	1,274.41	70.4372
1,319.82	86.1405	1,319.82	86.0118	1,319.82	86.0203	1,319.82	85.5799	1,319.82	85.6604	1,319.82	84.8661	1,319.82	85.0039	1,319.82	84.0188	1,319.82	84.0424	1,319.82	83.1856	1,319.82	82.9188	1,319.82	82.3294	1,319.82	81.861	1,319.82	81.2941	1,319.82	80.9087	1,319.82	80.0425	1,319.82	79.8224	1,319.82	78.6693	1,319.82	78.4503	1,319.82	77.2386	1,319.82	77.1868	1,319.82	75.9996	1,319.82	76.6814	1,319.82	75.511	1,319.82	76.5749	1,319.82	75.4604	1,319.82	75.8631	1,319.82	74.7472	1,319.82	74.0565	1,319.82	72.9727	1,319.82	71.8404	1,319.82	72.0623	1,319.82	71.2032	1,319.82	73.0081	1,319.82	72.2145	1,319.82	73.174
1,366.7	86.2636	1,366.7	86.1114	1,366.7	86.0443	1,366.7	85.5838	1,366.7	85.5457	1,366.7	84.7255	1,366.7	84.8596	1,366.7	83.595	1,366.7	83.9375	1,366.7	82.3252	1,366.7	82.6899	1,366.7	81.121	1,366.7	81.2962	1,366.7	80.0338	1,366.7	80.164	1,366.7	78.9509	1,366.7	79.2412	1,366.7	77.9576	1,366.7	78.0724	1,366.7	77.1437	1,366.7	76.7827	1,366.7	76.0918	1,366.7	75.9287	1,366.7	74.6284	1,366.7	75.3461	1,366.7	73.5316	1,366.7	74.5231	1,366.7	72.4431	1,366.7	73.2089	1,366.7	70.2675	1,366.7	71.6601	1,366.7	70.0969	1,366.7	71.2088	1,366.7	72.3087	1,366.7	72.2613	1,366.7	73.07
1,413.57	86.618	1,413.57	86.4292	1,413.57	86.4366	1,413.57	85.8564	1,413.57	85.9325	1,413.57	84.8639	1,413.57	85.1584	1,413.57	83.4692	1,413.57	84.1273	1,413.57	81.9526	1,413.57	82.849	1,413.57	80.6762	1,413.57	81.4241	1,413.57	79.5731	1,413.57	80.1173	1,413.57	78.5386	1,413.57	79.0802	1,413.57	77.8175	1,413.57	78.0775	1,413.57	77.0711	1,413.57	76.9818	1,413.57	75.7713	1,413.57	76.0636	1,413.57	74.6234	1,413.57	75.8085	1,413.57	74.062	1,413.57	76.0423	1,413.57	72.6217	1,413.57	75.4135	1,413.57	70.2768	1,413.57	73.407	1,413.57	70.6624	1,413.57	72.2053	1,413.57	72.7409	1,413.57	73.1157	1,413.57	73.657
1,463.38	86.7216	1,463.38	86.4629	1,463.38	86.5415	1,463.38	85.8192	1,463.38	85.9453	1,463.38	84.8598	1,463.38	84.9645	1,463.38	83.5365	1,463.38	83.6904	1,463.38	81.8182	1,463.38	82.2668	1,463.38	80.0073	1,463.38	80.5403	1,463.38	78.6232	1,463.38	78.3685	1,463.38	77.7507	1,463.38	76.6883	1,463.38	77.3999	1,463.38	76.2945	1,463.38	77.5743	1,463.38	76.0516	1,463.38	77.3151	1,463.38	75.7735	1,463.38	75.9228	1,463.38	75.7122	1,463.38	73.6447	1,463.38	74.9246	1,463.38	69.8037	1,463.38	72.871	1,463.38	65.8048	1,463.38	71.3002	1,463.38	71.2957	1,463.38	73.5131	1,463.38	75.2608	1,463.38	76.0908	1,463.38	76.7385
1,516.11	86.8529	1,516.11	86.6448	1,516.11	86.5948	1,516.11	86.0817	1,516.11	85.988	1,516.11	85.337	1,516.11	85.1352	1,516.11	84.3119	1,516.11	83.9928	1,516.11	82.8011	1,516.11	82.5071	1,516.11	80.9429	1,516.11	80.6754	1,516.11	79.2769	1,516.11	78.6614	1,516.11	77.9417	1,516.11	76.9162	1,516.11	76.821	1,516.11	75.7676	1,516.11	76.6881	1,516.11	75.124	1,516.11	77.0345	1,516.11	74.9525	1,516.11	76.3521	1,516.11	74.8285	1,516.11	74.2808	1,516.11	73.6128	1,516.11	70.5257	1,516.11	69.9439	1,516.11	62.3907	1,516.11	64.4554	1,516.11	67.6461	1,516.11	69.9067	1,516.11	73.9021	1,516.11	74.164	1,516.11	75.512
1,568.85	86.6631	1,568.85	86.5613	1,568.85	86.4259	1,568.85	86.0385	1,568.85	85.949	1,568.85	85.2316	1,568.85	85.1322	1,568.85	84.2558	1,568.85	83.8768	1,568.85	82.9126	1,568.85	82.2987	1,568.85	80.9527	1,568.85	80.5591	1,568.85	78.6499	1,568.85	78.6192	1,568.85	76.7489	1,568.85	76.3273	1,568.85	75.3454	1,568.85	73.9314	1,568.85	74.985	1,568.85	72.3725	1,568.85	75.9853	1,568.85	72.5773	1,568.85	76.2299	1,568.85	73.9468	1,568.85	75.2125	1,568.85	74.6514	1,568.85	73.2117	1,568.85	73.3013	1,568.85	68.9691	1,568.85	68.9025	1,568.85	66.9649	1,568.85	67.9578	1,568.85	71.8715	1,568.85	72.2898	1,568.85	73.5673
1,624.51	85.7672	1,624.51	85.7393	1,624.51	85.5199	1,624.51	85.3217	1,624.51	85.114	1,624.51	84.5856	1,624.51	84.4422	1,624.51	83.7311	1,624.51	83.3588	1,624.51	82.761	1,624.51	82.006	1,624.51	81.3061	1,624.51	80.5061	1,624.51	79.1621	1,624.51	78.4742	1,624.51	76.6867	1,624.51	75.4314	1,624.51	74.6025	1,624.51	71.9728	1,624.51	74.5249	1,624.51	70.0749	1,624.51	75.5082	1,624.51	70.731	1,624.51	75.5211	1,624.51	71.8962	1,624.51	73.87	1,624.51	71.5107	1,624.51	69.1862	1,624.51	67.5704	1,624.51	62.7739	1,624.51	62.1381	1,624.51	70.0085	1,624.51	70.5001	1,624.51	74.1923	1,624.51	74.188	1,624.51	75.3375
1,681.64	85.3321	1,681.64	85.2376	1,681.64	85.2262	1,681.64	84.7191	1,681.64	84.9789	1,681.64	83.6789	1,681.64	84.439	1,681.64	82.5118	1,681.64	83.3724	1,681.64	81.6562	1,681.64	82.0915	1,681.64	80.7878	1,681.64	81.3047	1,681.64	79.524	1,681.64	80.443	1,681.64	77.8994	1,681.64	78.3199	1,681.64	75.2742	1,681.64	75.3966	1,681.64	71.8424	1,681.64	72.9465	1,681.64	72.0115	1,681.64	71.005	1,681.64	73.5316	1,681.64	72.865	1,681.64	73.7549	1,681.64	74.3231	1,681.64	71.3167	1,681.64	72.7987	1,681.64	62.9175	1,681.64	66.9537	1,681.64	67.1903	1,681.64	64.839	1,681.64	72.4012	1,681.64	71.9272	1,681.64	73.6272
1,741.7	86.8325	1,741.7	86.6153	1,741.7	86.5961	1,741.7	85.8872	1,741.7	85.908	1,741.7	84.6873	1,741.7	84.9336	1,741.7	83.3886	1,741.7	83.8416	1,741.7	82.2168	1,741.7	82.7703	1,741.7	81.0656	1,741.7	81.9784	1,741.7	79.9245	1,741.7	81.1316	1,741.7	78.4551	1,741.7	79.4681	1,741.7	75.9537	1,741.7	77.1068	1,741.7	72.6961	1,741.7	74.7986	1,741.7	72.3485	1,741.7	73.4731	1,741.7	74.8677	1,741.7	74.3547	1,741.7	76.285	1,741.7	75.1894	1,741.7	75.5687	1,741.7	74.2567	1,741.7	71.1511	1,741.7	69.861	1,741.7	58.324	1,741.7	58.0285	1,741.7	68.89	1,741.7	68.0468	1,741.7	70.6195
1,803.22	86.1547	1,803.22	85.9644	1,803.22	85.9039	1,803.22	85.2551	1,803.22	85.1084	1,803.22	84.0187	1,803.22	83.8856	1,803.22	82.4958	1,803.22	82.5979	1,803.22	80.9161	1,803.22	81.3588	1,803.22	79.6448	1,803.22	80.3098	1,803.22	78.7719	1,803.22	79.454	1,803.22	77.5718	1,803.22	78.0308	1,803.22	74.792	1,803.22	76.2159	1,803.22	69.7541	1,803.22	74.1514	1,803.22	67.2917	1,803.22	70.614	1,803.22	70.9907	1,803.22	70.8226	1,803.22	74.4908	1,803.22	73.7074	1,803.22	75.3117	1,803.22	74.4093	1,803.22	71.8532	1,803.22	71.9499	1,803.22	57.949	1,803.22	64.845	1,803.22	64.6314	1,803.22	62.8168	1,803.22	66.668
1,866.21	85.782	1,866.21	85.5596	1,866.21	85.5647	1,866.21	85.1154	1,866.21	84.6515	1,866.21	84.2933	1,866.21	83.2757	1,866.21	82.784	1,866.21	82.0907	1,866.21	80.4501	1,866.21	81.0605	1,866.21	78.2285	1,866.21	79.5139	1,866.21	77.3587	1,866.21	78.1645	1,866.21	77.0205	1,866.21	77.3913	1,866.21	76.047	1,866.21	76.6059	1,866.21	73.3211	1,866.21	75.6395	1,866.21	68.1276	1,866.21	72.242	1,866.21	68.3353	1,866.21	66.4577	1,866.21	72.1524	1,866.21	70.348	1,866.21	73.2168	1,866.21	73.1389	1,866.21	70.9198	1,866.21	72.3716	1,866.21	63.1498	1,866.21	66.426	1,866.21	57.342	1,866.21	55.1087	1,866.21	63.2511
1,932.13	85.3482	1,932.13	85.0972	1,932.13	85.2068	1,932.13	84.6386	1,932.13	84.4327	1,932.13	83.6899	1,932.13	83.1594	1,932.13	82.3857	1,932.13	81.8889	1,932.13	81.211	1,932.13	80.9731	1,932.13	79.9721	1,932.13	79.641	1,932.13	78.2044	1,932.13	77.5826	1,932.13	76.3159	1,932.13	76.3283	1,932.13	75.1427	1,932.13	75.8414	1,932.13	73.7497	1,932.13	74.2565	1,932.13	70.5857	1,932.13	71.7194	1,932.13	70.0951	1,932.13	68.7715	1,932.13	73.5608	1,932.13	69.0736	1,932.13	74.0485	1,932.13	72.1454	1,932.13	72.1024	1,932.13	70.8473	1,932.13	67.3581	1,932.13	64.7034	1,932.13	50.0773	1,932.13	58.6588	1,932.13	60.917
1,999.51	85.5635	1,999.51	85.3374	1,999.51	85.3292	1,999.51	84.8394	1,999.51	84.6259	1,999.51	84.1281	1,999.51	83.6235	1,999.51	83.0107	1,999.51	82.4441	1,999.51	81.4452	1,999.51	81.0156	1,999.51	79.7429	1,999.51	79.3875	1,999.51	77.8605	1,999.51	77.3593	1,999.51	76.2212	1,999.51	75.5696	1,999.51	75.5682	1,999.51	75.5731	1,999.51	75.2414	1,999.51	74.6441	1,999.51	73.3057	1,999.51	71.5619	1,999.51	68.3279	1,999.51	70.5868	1,999.51	72.5313	1,999.51	72.3127	1,999.51	74.0968	1,999.51	73.7964	1,999.51	72.727	1,999.51	72.7434	1,999.51	69.8496	1,999.51	68.4069	1,999.51	58.0586	1,999.51	55.8953	1,999.51	61.4037
2,069.82	85.1732	2,069.82	85.1285	2,069.82	84.7	2,069.82	84.5367	2,069.82	83.9437	2,069.82	83.8362	2,069.82	82.9442	2,069.82	82.728	2,069.82	81.7293	2,069.82	81.0119	2,069.82	79.7984	2,069.82	79.1721	2,069.82	77.3159	2,069.82	76.799	2,069.82	74.957	2,069.82	74.1546	2,069.82	71.2954	2,069.82	74.0187	2,069.82	68.7457	2,069.82	75.5344	2,069.82	70.4309	2,069.82	74.9157	2,069.82	69.8134	2,069.82	68.8017	2,069.82	65.7741	2,069.82	67.7	2,069.82	69.4247	2,069.82	71.7359	2,069.82	72.4076	2,069.82	72.8567	2,069.82	72.844	2,069.82	72.4053	2,069.82	72.0351	2,069.82	69.1721	2,069.82	68.3473	2,069.82	66.7114
2,143.07	84.707	2,143.07	84.5926	2,143.07	84.4246	2,143.07	83.5618	2,143.07	83.8721	2,143.07	82.2026	2,143.07	82.6054	2,143.07	80.8274	2,143.07	80.8796	2,143.07	79.182	2,143.07	79.1227	2,143.07	77.7263	2,143.07	77.404	2,143.07	75.7814	2,143.07	75.8669	2,143.07	72.3952	2,143.07	74.0175	2,143.07	70.325	2,143.07	70.6346	2,143.07	71.9436	2,143.07	68.2657	2,143.07	72.3718	2,143.07	70.7228	2,143.07	70.2526	2,143.07	68.7862	2,143.07	66.8135	2,143.07	65.383	2,143.07	66.863	2,143.07	66.477	2,143.07	64.3398	2,143.07	65.7793	2,143.07	65.5907	2,143.07	61.8843	2,143.07	67.9459	2,143.07	67.0654	2,143.07	68.251
2,219.24	84.7353	2,219.24	84.5016	2,219.24	84.6716	2,219.24	83.6393	2,219.24	84.109	2,219.24	82.0796	2,219.24	83.1166	2,219.24	80.6699	2,219.24	81.6205	2,219.24	79.8099	2,219.24	79.6774	2,219.24	78.6971	2,219.24	78.1431	2,219.24	76.8631	2,219.24	76.7021	2,219.24	74.7249	2,219.24	75.7487	2,219.24	72.4734	2,219.24	75.2358	2,219.24	70.7174	2,219.24	72.4141	2,219.24	69.7641	2,219.24	69.0807	2,219.24	69.8564	2,219.24	66.6737	2,219.24	69.9581	2,219.24	68.6848	2,219.24	71.1094	2,219.24	71.9955	2,219.24	69.97	2,219.24	70.8426	2,219.24	61.2937	2,219.24	63.3534	2,219.24	62.4723	2,219.24	61.5264	2,219.24	67.2568
2,296.88	84.3225	2,296.88	83.9848	2,296.88	84.0662	2,296.88	83.1213	2,296.88	83.2695	2,296.88	81.8888	2,296.88	82.1158	2,296.88	80.5465	2,296.88	80.5692	2,296.88	79.3147	2,296.88	79.1635	2,296.88	78.0594	2,296.88	78.0156	2,296.88	76.4022	2,296.88	75.9685	2,296.88	74.3142	2,296.88	74.0037	2,296.88	71.8459	2,296.88	73.933	2,296.88	70.538	2,296.88	73.885	2,296.88	69.5668	2,296.88	72.2191	2,296.88	67.2774	2,296.88	68.2584	2,296.88	68.7388	2,296.88	60.4015	2,296.88	71.6227	2,296.88	70.7585	2,296.88	72.7689	2,296.88	71.9564	2,296.88	71.2928	2,296.88	69.3971	2,296.88	65.2079	2,296.88	63.8895	2,296.88	56.1112
2,378.91	84.7229	2,378.91	84.2321	2,378.91	84.2656	2,378.91	83.3562	2,378.91	83.0839	2,378.91	82.3164	2,378.91	82.1308	2,378.91	80.5058	2,378.91	81.0093	2,378.91	78.6088	2,378.91	79.208	2,378.91	77.6568	2,378.91	77.7193	2,378.91	75.8465	2,378.91	76.1542	2,378.91	73.4207	2,378.91	74.2063	2,378.91	71.9524	2,378.91	72.8528	2,378.91	71.3717	2,378.91	71.7059	2,378.91	70.9981	2,378.91	70.8102	2,378.91	66.0692	2,378.91	70.5408	2,378.91	66.6922	2,378.91	67.4548	2,378.91	71.576	2,378.91	68.4617	2,378.91	71.5684	2,378.91	71.4535	2,378.91	70.2339	2,378.91	70.4756	2,378.91	66.6652	2,378.91	68.6745	2,378.91	65.5886
2,462.4	84.9037	2,462.4	84.5974	2,462.4	84.7043	2,462.4	83.8306	2,462.4	83.9695	2,462.4	82.5713	2,462.4	82.7627	2,462.4	80.8593	2,462.4	80.9418	2,462.4	78.6283	2,462.4	78.8857	2,462.4	77.297	2,462.4	77.3424	2,462.4	76.9822	2,462.4	76.5847	2,462.4	75.3495	2,462.4	75.1374	2,462.4	71.4969	2,462.4	71.6822	2,462.4	69.7195	2,462.4	69.5213	2,462.4	72.9955	2,462.4	72.745	2,462.4	72.8487	2,462.4	72.3855	2,462.4	65.6708	2,462.4	64.7889	2,462.4	65.4378	2,462.4	64.6051	2,462.4	73.1058	2,462.4	72.8835	2,462.4	73.9147	2,462.4	74.1029	2,462.4	73.149	2,462.4	72.4017	2,462.4	72.1249
2,548.83	83.7644	2,548.83	83.5642	2,548.83	83.585	2,548.83	82.8514	2,548.83	83.1289	2,548.83	81.8393	2,548.83	82.1409	2,548.83	80.4678	2,548.83	80.843	2,548.83	78.6948	2,548.83	78.915	2,548.83	76.0222	2,548.83	76.0057	2,548.83	74.7353	2,548.83	74.2302	2,548.83	75.3908	2,548.83	74.6577	2,548.83	74.0137	2,548.83	73.7557	2,548.83	67.9825	2,548.83	68.2319	2,548.83	69.855	2,548.83	66.5956	2,548.83	74.1798	2,548.83	72.9568	2,548.83	73.1556	2,548.83	72.6559	2,548.83	65.0753	2,548.83	65.9206	2,548.83	67.4593	2,548.83	65.5273	2,548.83	74.2184	2,548.83	73.5001	2,548.83	77.3071	2,548.83	76.104	2,548.83	77.6285
2,639.65	84.9346	2,639.65	84.6542	2,639.65	84.7489	2,639.65	83.8061	2,639.65	83.9051	2,639.65	82.3973	2,639.65	82.6766	2,639.65	80.9058	2,639.65	81.4135	2,639.65	79.36	2,639.65	79.8396	2,639.65	77.3854	2,639.65	77.7085	2,639.65	75.0653	2,639.65	75.3561	2,639.65	73.8951	2,639.65	74.2384	2,639.65	73.8288	2,639.65	74.309	2,639.65	72.0649	2,639.65	73.0336	2,639.65	66.328	2,639.65	68.9617	2,639.65	68.7607	2,639.65	68.2609	2,639.65	72.006	2,639.65	71.9507	2,639.65	72.1656	2,639.65	72.632	2,639.65	68.3571	2,639.65	70.2121	2,639.65	64.6626	2,639.65	63.538	2,639.65	73.0008	2,639.65	71.8328	2,639.65	74.5686
2,731.93	85.1673	2,731.93	85.0135	2,731.93	84.8479	2,731.93	84.1936	2,731.93	84.1563	2,731.93	82.9508	2,731.93	82.9424	2,731.93	81.4322	2,731.93	81.4504	2,731.93	79.6808	2,731.93	79.7565	2,731.93	77.627	2,731.93	77.6376	2,731.93	75.2221	2,731.93	75.2905	2,731.93	74.0229	2,731.93	73.7772	2,731.93	73.2644	2,731.93	73.1576	2,731.93	71.9317	2,731.93	71.9334	2,731.93	70.7774	2,731.93	69.7436	2,731.93	68.2224	2,731.93	68.7673	2,731.93	67.5347	2,731.93	68.2063	2,731.93	69.2398	2,731.93	69.4648	2,731.93	70.0785	2,731.93	70.8509	2,731.93	65.1037	2,731.93	66.7009	2,731.93	59.0973	2,731.93	51.4209	2,731.93	64.846
2,828.61	84.8404	2,828.61	84.5558	2,828.61	84.5679	2,828.61	83.7127	2,828.61	83.7086	2,828.61	82.4259	2,828.61	82.6121	2,828.61	80.8989	2,828.61	81.1453	2,828.61	78.8638	2,828.61	79.5449	2,828.61	77.0295	2,828.61	77.6224	2,828.61	75.0372	2,828.61	75.2012	2,828.61	72.4924	2,828.61	72.5628	2,828.61	71.6668	2,828.61	71.6039	2,828.61	70.222	2,828.61	71.2868	2,828.61	67.5782	2,828.61	68.7961	2,828.61	67.8074	2,828.61	67.3113	2,828.61	67.6203	2,828.61	69.1199	2,828.61	68.5382	2,828.61	69.9244	2,828.61	68.9538	2,828.61	69.5447	2,828.61	63.1478	2,828.61	63.6795	2,828.61	60.9457	2,828.61	62.4773	2,828.61	63.0057
2,928.22	85.1736	2,928.22	85.0237	2,928.22	84.8752	2,928.22	84.1639	2,928.22	84.151	2,928.22	82.9627	2,928.22	82.9534	2,928.22	81.5911	2,928.22	81.726	2,928.22	79.9523	2,928.22	80.203	2,928.22	77.7945	2,928.22	78.3672	2,928.22	75.7735	2,928.22	76.2635	2,928.22	74.1231	2,928.22	74.4077	2,928.22	73.0163	2,928.22	72.798	2,928.22	71.2694	2,928.22	70.3556	2,928.22	69.945	2,928.22	69.8266	2,928.22	70.1188	2,928.22	69.948	2,928.22	65.7908	2,928.22	63.7237	2,928.22	66.4728	2,928.22	65.958	2,928.22	71.1892	2,928.22	71.7631	2,928.22	69.345	2,928.22	71.2737	2,928.22	65.2616	2,928.22	63.773	2,928.22	63.5285
3,030.76	84.9112	3,030.76	84.5462	3,030.76	84.6805	3,030.76	83.8383	3,030.76	83.7424	3,030.76	82.5747	3,030.76	82.4458	3,030.76	81.1769	3,030.76	81.1647	3,030.76	79.8467	3,030.76	79.8557	3,030.76	77.9984	3,030.76	78.58	3,030.76	75.7055	3,030.76	76.5355	3,030.76	72.8982	3,030.76	74.0427	3,030.76	72.7274	3,030.76	73.0415	3,030.76	72.9149	3,030.76	72.3364	3,030.76	68.1505	3,030.76	67.8803	3,030.76	70.1705	3,030.76	68.9129	3,030.76	71.981	3,030.76	71.5347	3,030.76	65.8103	3,030.76	66.0759	3,030.76	63.4725	3,030.76	62.4482	3,030.76	68.5309	3,030.76	69.4323	3,030.76	70.9948	3,030.76	71.6066	3,030.76	73.1772
3,137.7	84.8318	3,137.7	84.4113	3,137.7	84.6673	3,137.7	83.7358	3,137.7	83.8428	3,137.7	82.634	3,137.7	82.7199	3,137.7	81.2704	3,137.7	81.5281	3,137.7	79.721	3,137.7	80.0619	3,137.7	78.1054	3,137.7	78.2753	3,137.7	76.2695	3,137.7	76.6418	3,137.7	73.929	3,137.7	74.9164	3,137.7	71.05	3,137.7	73.147	3,137.7	71.226	3,137.7	72.4092	3,137.7	71.3444	3,137.7	71.2448	3,137.7	66.3961	3,137.7	68.0358	3,137.7	66.777	3,137.7	67.0569	3,137.7	68.8308	3,137.7	67.8225	3,137.7	67.1836	3,137.7	67.6526	3,137.7	60.8757	3,137.7	60.6159	3,137.7	67.84	3,137.7	63.3246	3,137.7	71.124
3,249.02	85.0821	3,249.02	84.6914	3,249.02	84.7263	3,249.02	83.8343	3,249.02	84.0548	3,249.02	82.8639	3,249.02	83.0325	3,249.02	81.324	3,249.02	81.7562	3,249.02	80.1563	3,249.02	80.2835	3,249.02	78.7879	3,249.02	78.6927	3,249.02	76.5724	3,249.02	77.1324	3,249.02	74.4797	3,249.02	74.9201	3,249.02	72.0428	3,249.02	72.9336	3,249.02	71.3019	3,249.02	71.7643	3,249.02	70.1382	3,249.02	70.5337	3,249.02	69.1556	3,249.02	68.7649	3,249.02	68.1956	3,249.02	68.5397	3,249.02	65.6973	3,249.02	67.0702	3,249.02	67.9146	3,249.02	67.3241	3,249.02	65.4687	3,249.02	66.5441	3,249.02	61.9293	3,249.02	61.7667	3,249.02	64.5437
3,363.28	84.7965	3,363.28	84.6984	3,363.28	84.4941	3,363.28	83.8393	3,363.28	84.1004	3,363.28	82.838	3,363.28	83.1357	3,363.28	81.7431	3,363.28	82.054	3,363.28	80.3878	3,363.28	80.549	3,363.28	79.0566	3,363.28	78.9932	3,363.28	77.5979	3,363.28	77.3093	3,363.28	75.3412	3,363.28	75.3739	3,363.28	73.575	3,363.28	73.648	3,363.28	71.9952	3,363.28	72.5764	3,363.28	70.4168	3,363.28	71.2033	3,363.28	70.0601	3,363.28	68.9877	3,363.28	67.9651	3,363.28	67.8439	3,363.28	64.2886	3,363.28	65.5873	3,363.28	67.1535	3,363.28	65.9885	3,363.28	65.7085	3,363.28	65.8368	3,363.28	64.9927	3,363.28	65.4981	3,363.28	67.2314
3,481.93	84.817	3,481.93	84.571	3,481.93	84.7868	3,481.93	84.1684	3,481.93	84.3696	3,481.93	83.1972	3,481.93	83.4302	3,481.93	82.3776	3,481.93	82.5022	3,481.93	80.8482	3,481.93	80.9761	3,481.93	78.9724	3,481.93	79.3546	3,481.93	77.4678	3,481.93	77.6933	3,481.93	75.3756	3,481.93	75.6186	3,481.93	73.8055	3,481.93	73.2069	3,481.93	72.4678	3,481.93	72.026	3,481.93	70.6435	3,481.93	70.4966	3,481.93	68.6695	3,481.93	69.1274	3,481.93	70.8117	3,481.93	68.9547	3,481.93	67.8842	3,481.93	66.0903	3,481.93	67.4811	3,481.93	65.6483	3,481.93	61.5856	3,481.93	65.1834	3,481.93	60.6628	3,481.93	63.7627	3,481.93	67.4712
3,604.98	85.1121	3,604.98	84.6456	3,604.98	85.1082	3,604.98	84.5739	3,604.98	84.3674	3,604.98	83.7624	3,604.98	83.9256	3,604.98	82.6022	3,604.98	82.9578	3,604.98	81.3954	3,604.98	81.8389	3,604.98	79.5539	3,604.98	80.1549	3,604.98	76.7283	3,604.98	78.2924	3,604.98	75.4773	3,604.98	76.4697	3,604.98	73.7924	3,604.98	74.1611	3,604.98	73.0024	3,604.98	71.925	3,604.98	70.7325	3,604.98	71.1004	3,604.98	68.4997	3,604.98	69.4508	3,604.98	69.6205	3,604.98	70.8264	3,604.98	67.3091	3,604.98	69.1151	3,604.98	66.9396	3,604.98	66.4318	3,604.98	65.5271	3,604.98	66.9242	3,604.98	63.4106	3,604.98	60.6246	3,604.98	66.7399
3,732.42	85.0075	3,732.42	84.8857	3,732.42	84.669	3,732.42	84.3754	3,732.42	84.6102	3,732.42	84.1564	3,732.42	84.0984	3,732.42	82.8363	3,732.42	83.0779	3,732.42	81.6776	3,732.42	81.5741	3,732.42	80.0326	3,732.42	79.5384	3,732.42	77.3663	3,732.42	77.8653	3,732.42	75.7031	3,732.42	76.1056	3,732.42	73.0274	3,732.42	74.1631	3,732.42	70.7128	3,732.42	72.2047	3,732.42	70.7693	3,732.42	71.3212	3,732.42	68.0945	3,732.42	68.3866	3,732.42	68.3961	3,732.42	67.3827	3,732.42	67.3948	3,732.42	68.1029	3,732.42	65.3581	3,732.42	65.2951	3,732.42	65.6552	3,732.42	65.9421	3,732.42	63.8321	3,732.42	62.1218	3,732.42	67.6117
3,864.26	85.8365	3,864.26	85.8066	3,864.26	85.4255	3,864.26	85.1227	3,864.26	85.5212	3,864.26	84.7515	3,864.26	84.7533	3,864.26	83.9478	3,864.26	83.7397	3,864.26	82.4267	3,864.26	82.1746	3,864.26	80.5538	3,864.26	80.4186	3,864.26	78.5783	3,864.26	78.3071	3,864.26	76.3135	3,864.26	76.3227	3,864.26	74.0522	3,864.26	74.2909	3,864.26	70.864	3,864.26	71.8612	3,864.26	70.6708	3,864.26	71.1635	3,864.26	70.3098	3,864.26	70.3148	3,864.26	67.0622	3,864.26	68.3764	3,864.26	66.5719	3,864.26	67.2377	3,864.26	66.0405	3,864.26	66.2422	3,864.26	67.0862	3,864.26	65.8671	3,864.26	63.6241	3,864.26	64.0547	3,864.26	67.9543
4,000.49	85.1978	4,000.49	85.1249	4,000.49	85.5278	4,000.49	84.959	4,000.49	85.0146	4,000.49	83.8613	4,000.49	84.2761	4,000.49	83.1297	4,000.49	83.3126	4,000.49	81.3517	4,000.49	81.8247	4,000.49	79.236	4,000.49	79.9884	4,000.49	77.7739	4,000.49	77.8534	4,000.49	75.8766	4,000.49	75.4605	4,000.49	73.6491	4,000.49	73.6918	4,000.49	71.9412	4,000.49	71.8142	4,000.49	70.0489	4,000.49	69.8351	4,000.49	69.1438	4,000.49	68.8503	4,000.49	69.1512	4,000.49	68.1194	4,000.49	67.5152	4,000.49	67.812	4,000.49	66.196	4,000.49	65.9604	4,000.49	66.2877	4,000.49	66.0577	4,000.49	57.6907	4,000.49	60.8157	4,000.49	65.6174
4,141.11	85.5247	4,141.11	85.3727	4,141.11	85.7212	4,141.11	85.3706	4,141.11	85.2199	4,141.11	84.6776	4,141.11	84.625	4,141.11	83.1038	4,141.11	83.5323	4,141.11	82.0568	4,141.11	82.2639	4,141.11	80.4022	4,141.11	79.8829	4,141.11	77.5468	4,141.11	77.7433	4,141.11	75.9582	4,141.11	75.6506	4,141.11	73.5841	4,141.11	73.4552	4,141.11	72.2822	4,141.11	71.0859	4,141.11	70.4057	4,141.11	69.6128	4,141.11	69.4625	4,141.11	68.9682	4,141.11	67.7818	4,141.11	67.7764	4,141.11	68.346	4,141.11	67.7612	4,141.11	64.5068	4,141.11	65.7746	4,141.11	65.4165	4,141.11	66.8073	4,141.11	59.6814	4,141.11	61.5736	4,141.11	63.6893
4,287.6	85.6508	4,287.6	85.9523	4,287.6	85.1565	4,287.6	85.3543	4,287.6	85.6207	4,287.6	85.4496	4,287.6	84.8289	4,287.6	84.1324	4,287.6	83.4929	4,287.6	82.521	4,287.6	81.4188	4,287.6	80.3723	4,287.6	79.8755	4,287.6	78.0684	4,287.6	77.5236	4,287.6	74.4936	4,287.6	75.1144	4,287.6	71.9478	4,287.6	73.0916	4,287.6	70.9648	4,287.6	71.6994	4,287.6	69.2163	4,287.6	70.5789	4,287.6	68.0895	4,287.6	68.0529	4,287.6	68.0337	4,287.6	66.676	4,287.6	68.8276	4,287.6	67.9564	4,287.6	66.5529	4,287.6	64.3918	4,287.6	67.2277	4,287.6	66.8036	4,287.6	63.6389	4,287.6	52.8521	4,287.6	63.7525
4,438.48	85.5342	4,438.48	85.2045	4,438.48	85.7839	4,438.48	85.3991	4,438.48	85.33	4,438.48	84.4945	4,438.48	84.8637	4,438.48	83.9251	4,438.48	83.726	4,438.48	82.0306	4,438.48	82.469	4,438.48	79.9976	4,438.48	80.2467	4,438.48	77.9599	4,438.48	77.757	4,438.48	76.0835	4,438.48	75.8471	4,438.48	73.685	4,438.48	73.0677	4,438.48	71.5415	4,438.48	70.9485	4,438.48	70.471	4,438.48	69.3625	4,438.48	69.6739	4,438.48	68.1696	4,438.48	66.3238	4,438.48	65.075	4,438.48	68.2307	4,438.48	67.2061	4,438.48	65.208	4,438.48	64.835	4,438.48	67.7142	4,438.48	67.0696	4,438.48	63.0936	4,438.48	63.8776	4,438.48	67.8964
4,595.21	85.5379	4,595.21	85.6409	4,595.21	85.9297	4,595.21	85.7733	4,595.21	85.3945	4,595.21	84.9798	4,595.21	84.8428	4,595.21	83.3403	4,595.21	84.1513	4,595.21	82.8589	4,595.21	82.9402	4,595.21	80.5824	4,595.21	80.1696	4,595.21	77.2774	4,595.21	77.5594	4,595.21	76.7269	4,595.21	75.3445	4,595.21	74.342	4,595.21	73.4554	4,595.21	72.2504	4,595.21	71.114	4,595.21	70.0336	4,595.21	70.515	4,595.21	69.5971	4,595.21	68.2022	4,595.21	64.0031	4,595.21	67.4237	4,595.21	66.0244	4,595.21	67.417	4,595.21	66.1081	4,595.21	65.2297	4,595.21	67.133	4,595.21	67.8918	4,595.21	59.126	4,595.21	62.8053	4,595.21	62.6987
4,756.35	85.5842	4,756.35	86.1078	4,756.35	85.0851	4,756.35	85.5987	4,756.35	85.6391	4,756.35	85.5564	4,756.35	85.0094	4,756.35	84.6321	4,756.35	83.8668	4,756.35	82.4205	4,756.35	81.3044	4,756.35	80.2412	4,756.35	80.0856	4,756.35	78.429	4,756.35	78.2447	4,756.35	74.2598	4,756.35	75.7925	4,756.35	72.4955	4,756.35	72.6191	4,756.35	70.6634	4,756.35	70.8653	4,756.35	68.5863	4,756.35	69.7672	4,756.35	66.7141	4,756.35	67.0963	4,756.35	68.3319	4,756.35	64.6639	4,756.35	67.6223	4,756.35	68.3694	4,756.35	65.6929	4,756.35	64.417	4,756.35	66.5884	4,756.35	64.9925	4,756.35	63.6109	4,756.35	60.8576	4,756.35	64.8505
4,924.8	85.2302	4,924.8	84.8354	4,924.8	85.4994	4,924.8	85.3566	4,924.8	84.6805	4,924.8	84.0726	4,924.8	84.6643	4,924.8	83.2942	4,924.8	83.24	4,924.8	81.4406	4,924.8	82.2428	4,924.8	79.7229	4,924.8	79.7876	4,924.8	77.6083	4,924.8	76.795	4,924.8	75.9512	4,924.8	75.2563	4,924.8	73.5674	4,924.8	73.3354	4,924.8	70.7164	4,924.8	70.7505	4,924.8	69.7367	4,924.8	70.3516	4,924.8	68.6299	4,924.8	68.774	4,924.8	65.3049	4,924.8	66.731	4,924.8	66.6068	4,924.8	63.2062	4,924.8	64.5179	4,924.8	65.1922	4,924.8	65.6602	4,924.8	66.5045	4,924.8	60.0142	4,924.8	63.7174	4,924.8	66.3502
5,097.66	85.4537	5,097.66	85.9232	5,097.66	85.2277	5,097.66	85.0463	5,097.66	85.7431	5,097.66	84.7765	5,097.66	84.6491	5,097.66	83.433	5,097.66	83.8238	5,097.66	82.739	5,097.66	82.1729	5,097.66	80.5881	5,097.66	79.5585	5,097.66	77.9242	5,097.66	77.2738	5,097.66	76.7402	5,097.66	75.2732	5,097.66	74.7568	5,097.66	73.3266	5,097.66	71.3231	5,097.66	70.9878	5,097.66	70.2664	5,097.66	68.8595	5,097.66	67.6315	5,097.66	66.6884	5,097.66	66.5064	5,097.66	64.8396	5,097.66	66.2416	5,097.66	66.7733	5,097.66	66.3908	5,097.66	65.4577	5,097.66	66.1963	5,097.66	65.3274	5,097.66	60.1658	5,097.66	62.1646	5,097.66	62.2218
5,277.83	85.396	5,277.83	85.0617	5,277.83	85.4948	5,277.83	85.2729	5,277.83	84.8143	5,277.83	84.658	5,277.83	84.2774	5,277.83	83.7991	5,277.83	82.8609	5,277.83	82.2935	5,277.83	81.01	5,277.83	79.9967	5,277.83	79.6543	5,277.83	78.0254	5,277.83	77.8392	5,277.83	75.1861	5,277.83	75.0532	5,277.83	72.7038	5,277.83	72.8771	5,277.83	70.5307	5,277.83	71.0832	5,277.83	69.1235	5,277.83	69.2963	5,277.83	67.4466	5,277.83	67.3357	5,277.83	66.207	5,277.83	66.0582	5,277.83	64.3481	5,277.83	63.713	5,277.83	66.4587	5,277.83	65.1822	5,277.83	64.1886	5,277.83	63.4598	5,277.83	60.7536	5,277.83	62.866	5,277.83	62.9258
5,463.87	84.6652	5,463.87	84.7167	5,463.87	84.8817	5,463.87	84.7081	5,463.87	84.4609	5,463.87	83.9896	5,463.87	83.9315	5,463.87	83.1316	5,463.87	82.9716	5,463.87	81.8141	5,463.87	81.9636	5,463.87	79.6443	5,463.87	79.4424	5,463.87	77.1592	5,463.87	76.8944	5,463.87	75.1266	5,463.87	75.12	5,463.87	72.9911	5,463.87	72.6281	5,463.87	69.8145	5,463.87	70.7472	5,463.87	69.0905	5,463.87	68.6483	5,463.87	67.1627	5,463.87	66.4563	5,463.87	64.7375	5,463.87	64.4932	5,463.87	66.0311	5,463.87	65.474	5,463.87	64.814	5,463.87	65.4223	5,463.87	64.8323	5,463.87	62.6144	5,463.87	61.4455	5,463.87	63.0549	5,463.87	62.9409
5,657.23	84.8775	5,657.23	85.1148	5,657.23	84.7388	5,657.23	84.524	5,657.23	84.7019	5,657.23	84.1741	5,657.23	83.8537	5,657.23	83.1913	5,657.23	82.8588	5,657.23	82.1756	5,657.23	81.464	5,657.23	80.2469	5,657.23	79.7024	5,657.23	77.6462	5,657.23	77.0882	5,657.23	74.8349	5,657.23	74.5143	5,657.23	73.7296	5,657.23	72.5979	5,657.23	71.3567	5,657.23	70.0417	5,657.23	69.8362	5,657.23	67.766	5,657.23	68.3441	5,657.23	66.9335	5,657.23	66.0741	5,657.23	65.1196	5,657.23	65.6932	5,657.23	64.6457	5,657.23	65.7686	5,657.23	66.0352	5,657.23	64.3003	5,657.23	63.7964	5,657.23	61.2782	5,657.23	61.661	5,657.23	61.2929
5,856.45	84.8608	5,856.45	84.6897	5,856.45	85.1065	5,856.45	85.0523	5,856.45	84.5196	5,856.45	84.4239	5,856.45	84.1309	5,856.45	83.6665	5,856.45	82.9673	5,856.45	82.5529	5,856.45	81.727	5,856.45	80.3186	5,856.45	79.9691	5,856.45	78.0476	5,856.45	76.9686	5,856.45	75.6756	5,856.45	74.9408	5,856.45	72.6517	5,856.45	71.2853	5,856.45	69.09	5,856.45	69.0422	5,856.45	67.4622	5,856.45	67	5,856.45	66.6397	5,856.45	65.152	5,856.45	65.4427	5,856.45	64.2983	5,856.45	64.0145	5,856.45	63.854	5,856.45	64.4677	5,856.45	65.4068	5,856.45	64.5532	5,856.45	61.0733	5,856.45	62.7609	5,856.45	62.4909	5,856.45	61.5793
6,062.99	85.0162	6,062.99	85.2609	6,062.99	84.828	6,062.99	84.7616	6,062.99	84.7382	6,062.99	84.269	6,062.99	84.1549	6,062.99	83.468	6,062.99	83.2323	6,062.99	82.5313	6,062.99	81.8836	6,062.99	80.2679	6,062.99	79.779	6,062.99	77.3858	6,062.99	77.1231	6,062.99	75.1404	6,062.99	74.6011	6,062.99	72.4892	6,062.99	71.7448	6,062.99	69.9693	6,062.99	69.8791	6,062.99	68.5613	6,062.99	67.0174	6,062.99	67.7289	6,062.99	66.2694	6,062.99	64.4716	6,062.99	63.7984	6,062.99	62.5515	6,062.99	64.1313	6,062.99	65.0667	6,062.99	65.1137	6,062.99	65.1676	6,062.99	60.8032	6,062.99	63.1997	6,062.99	61.52	6,062.99	62.2678
6,276.86	85.4585	6,276.86	85.2803	6,276.86	85.543	6,276.86	85.231	6,276.86	84.9355	6,276.86	84.5527	6,276.86	84.406	6,276.86	83.6525	6,276.86	83.5303	6,276.86	82.2521	6,276.86	82.1596	6,276.86	79.6394	6,276.86	79.9944	6,276.86	77.1584	6,276.86	76.882	6,276.86	74.7588	6,276.86	74.6125	6,276.86	71.8578	6,276.86	71.52	6,276.86	69.1531	6,276.86	68.8329	6,276.86	67.6427	6,276.86	67.0064	6,276.86	65.6009	6,276.86	65.9097	6,276.86	64.6357	6,276.86	65.0273	6,276.86	63.727	6,276.86	63.1225	6,276.86	64.5014	6,276.86	63.7522	6,276.86	63.0573	6,276.86	62.5372	6,276.86	62.9846	6,276.86	62.2391	6,276.86	58.9591
6,498.05	85.8877	6,498.05	85.8605	6,498.05	85.6424	6,498.05	85.3727	6,498.05	85.3631	6,498.05	84.7245	6,498.05	84.7034	6,498.05	83.6834	6,498.05	83.6627	6,498.05	82.5262	6,498.05	82.2205	6,498.05	80.2744	6,498.05	80.0024	6,498.05	77.1724	6,498.05	77.1153	6,498.05	74.6031	6,498.05	74.8353	6,498.05	72.5093	6,498.05	72.2967	6,498.05	69.8969	6,498.05	70.6509	6,498.05	66.2906	6,498.05	67.597	6,498.05	65.6703	6,498.05	66.4256	6,498.05	64.5658	6,498.05	63.3333	6,498.05	63.4855	6,498.05	62.1897	6,498.05	63.2322	6,498.05	63.1158	6,498.05	61.5029	6,498.05	59.4462	6,498.05	63.0466	6,498.05	61.0124	6,498.05	58.3439
6,726.56	86.0064	6,726.56	85.6132	6,726.56	86.096	6,726.56	85.5999	6,726.56	85.1691	6,726.56	84.7519	6,726.56	84.7558	6,726.56	83.8497	6,726.56	83.5869	6,726.56	82.3504	6,726.56	82.0992	6,726.56	79.8869	6,726.56	79.7472	6,726.56	76.9245	6,726.56	76.8577	6,726.56	74.4114	6,726.56	74.7884	6,726.56	72.7731	6,726.56	71.8528	6,726.56	69.3963	6,726.56	70.0862	6,726.56	67.6495	6,726.56	68.4267	6,726.56	64.1105	6,726.56	66.0338	6,726.56	63.8761	6,726.56	64.3122	6,726.56	62.7861	6,726.56	62.9121	6,726.56	64.3264	6,726.56	62.3919	6,726.56	59.6956	6,726.56	61.255	6,726.56	61.2454	6,726.56	61.8334	6,726.56	58.6186
6,963.87	86.0341	6,963.87	85.7786	6,963.87	85.7444	6,963.87	85.4001	6,963.87	85.2757	6,963.87	84.5716	6,963.87	84.4077	6,963.87	83.574	6,963.87	83.2134	6,963.87	82.2496	6,963.87	81.7058	6,963.87	79.7537	6,963.87	79.703	6,963.87	77.2017	6,963.87	76.5602	6,963.87	74.5914	6,963.87	74.4867	6,963.87	71.3586	6,963.87	71.074	6,963.87	69.0145	6,963.87	69.5548	6,963.87	67.3028	6,963.87	66.2903	6,963.87	65.7389	6,963.87	65.0652	6,963.87	63.1693	6,963.87	63.4346	6,963.87	62.6366	6,963.87	62.139	6,963.87	62.9177	6,963.87	61.9665	6,963.87	59.0581	6,963.87	62.6633	6,963.87	59.9374	6,963.87	60.5688	6,963.87	57.806
7,209.96	85.7312	7,209.96	85.6263	7,209.96	85.5868	7,209.96	85.3296	7,209.96	84.8996	7,209.96	84.565	7,209.96	84.2659	7,209.96	83.7807	7,209.96	83.1867	7,209.96	82.4121	7,209.96	81.508	7,209.96	79.9568	7,209.96	79.4116	7,209.96	77.14	7,209.96	76.1996	7,209.96	74.6574	7,209.96	73.6521	7,209.96	72.6963	7,209.96	70.7092	7,209.96	68.0055	7,209.96	69.5857	7,209.96	66.1822	7,209.96	66.5952	7,209.96	63.0926	7,209.96	64.8886	7,209.96	62.9266	7,209.96	62.6276	7,209.96	61.6754	7,209.96	62.5458	7,209.96	63.7925	7,209.96	61.4305	7,209.96	59.5576	7,209.96	59.7191	7,209.96	60.224	7,209.96	60.4852	7,209.96	56.8768
7,464.84	85.6926	7,464.84	85.4224	7,464.84	85.466	7,464.84	85.2531	7,464.84	84.7429	7,464.84	84.29	7,464.84	84.1557	7,464.84	83.3417	7,464.84	82.9556	7,464.84	82.1214	7,464.84	81.5185	7,464.84	79.5507	7,464.84	79.1908	7,464.84	76.8255	7,464.84	76.1915	7,464.84	74.3943	7,464.84	74.2212	7,464.84	71.147	7,464.84	70.4812	7,464.84	68.9417	7,464.84	67.6316	7,464.84	67.6328	7,464.84	64.8518	7,464.84	64.6858	7,464.84	64.2281	7,464.84	62.6157	7,464.84	63.5674	7,464.84	61.7923	7,464.84	61.1845	7,464.84	63.9736	7,464.84	60.3824	7,464.84	60.6479	7,464.84	59.098	7,464.84	59.6709	7,464.84	59.121	7,464.84	58.3322
7,727.05	85.6609	7,727.05	85.4125	7,727.05	85.4638	7,727.05	85.2503	7,727.05	84.5479	7,727.05	84.1175	7,727.05	84.0052	7,727.05	83.2439	7,727.05	82.7609	7,727.05	81.9301	7,727.05	81.2388	7,727.05	79.6978	7,727.05	79.015	7,727.05	77.0821	7,727.05	76.0772	7,727.05	74.0894	7,727.05	73.6225	7,727.05	70.9384	7,727.05	69.9949	7,727.05	68.5997	7,727.05	67.8061	7,727.05	66.6286	7,727.05	66.6786	7,727.05	61.185	7,727.05	63.1822	7,727.05	63.5816	7,727.05	62.3037	7,727.05	62.325	7,727.05	62.2135	7,727.05	63.4823	7,727.05	60.9791	7,727.05	60.1608	7,727.05	58.9977	7,727.05	57.3083	7,727.05	57.6125	7,727.05	54.7267
7,999.51	85.5232	7,999.51	85.4085	7,999.51	85.2058	7,999.51	84.8918	7,999.51	84.6479	7,999.51	83.7357	7,999.51	83.6817	7,999.51	82.9328	7,999.51	82.4158	7,999.51	81.5679	7,999.51	81.0377	7,999.51	79.2034	7,999.51	78.9787	7,999.51	76.7438	7,999.51	76.3192	7,999.51	74.115	7,999.51	73.7894	7,999.51	71.464	7,999.51	70.1221	7,999.51	68.9716	7,999.51	67.8459	7,999.51	67.7819	7,999.51	66.2214	7,999.51	63.3814	7,999.51	63.7198	7,999.51	62.2995	7,999.51	62.5605	7,999.51	61.9057	7,999.51	60.8329	7,999.51	62.3865	7,999.51	61.4135	7,999.51	60.0559	7,999.51	60.0679	7,999.51	57.4533	7,999.51	57.1428	7,999.51	52.7095
8,282.23	85.3746	8,282.23	85.209	8,282.23	85.1647	8,282.23	84.858	8,282.23	84.527	8,282.23	83.7152	8,282.23	83.7236	8,282.23	82.8659	8,282.23	82.4389	8,282.23	81.5219	8,282.23	80.9825	8,282.23	79.2769	8,282.23	78.9312	8,282.23	76.3557	8,282.23	75.9773	8,282.23	74.0482	8,282.23	73.2834	8,282.23	70.8194	8,282.23	70.5122	8,282.23	67.5465	8,282.23	68.3562	8,282.23	66.2007	8,282.23	65.4145	8,282.23	63.1655	8,282.23	63.6977	8,282.23	61.8511	8,282.23	62.125	8,282.23	61.8649	8,282.23	60.5786	8,282.23	61.9577	8,282.23	60.3621	8,282.23	59.3236	8,282.23	60.1084	8,282.23	58.3552	8,282.23	56.5203	8,282.23	53.5713
8,573.73	85.3141	8,573.73	85.1317	8,573.73	85.2156	8,573.73	84.8973	8,573.73	84.5261	8,573.73	83.5349	8,573.73	83.5956	8,573.73	82.7483	8,573.73	82.2893	8,573.73	81.514	8,573.73	80.7054	8,573.73	78.7796	8,573.73	78.5726	8,573.73	75.748	8,573.73	75.2936	8,573.73	73.1175	8,573.73	72.6605	8,573.73	70.217	8,573.73	69.926	8,573.73	67.1628	8,573.73	67.3818	8,573.73	65.7357	8,573.73	63.8559	8,573.73	63.0561	8,573.73	62.9174	8,573.73	60.2877	8,573.73	60.2664	8,573.73	60.1038	8,573.73	58.6131	8,573.73	59.7939	8,573.73	59.9379	8,573.73	59.5179	8,573.73	58.0008	8,573.73	58.8207	8,573.73	59.211	8,573.73	50.5406
8,876.95	85.0635	8,876.95	84.9698	8,876.95	84.8376	8,876.95	84.6716	8,876.95	84.2223	8,876.95	83.4258	8,876.95	83.3273	8,876.95	82.623	8,876.95	81.9237	8,876.95	81.1896	8,876.95	80.5546	8,876.95	78.7429	8,876.95	78.3217	8,876.95	75.3679	8,876.95	74.9465	8,876.95	72.8166	8,876.95	72.482	8,876.95	70.1777	8,876.95	69.7541	8,876.95	67.0452	8,876.95	66.6294	8,876.95	64.7552	8,876.95	64.6791	8,876.95	62.5415	8,876.95	62.5224	8,876.95	61.1154	8,876.95	61.9778	8,876.95	58.88	8,876.95	58.5972	8,876.95	58.7433	8,876.95	56.3552	8,876.95	58.2275	8,876.95	58.2583	8,876.95	59.2172	8,876.95	56.8359	8,876.95	52.2363
9,188.96	84.8365	9,188.96	84.7645	9,188.96	84.5909	9,188.96	84.3898	9,188.96	83.9317	9,188.96	83.1388	9,188.96	83.0266	9,188.96	82.2766	9,188.96	81.4561	9,188.96	81.0179	9,188.96	80.2302	9,188.96	78.7901	9,188.96	78.2488	9,188.96	75.4627	9,188.96	75.3978	9,188.96	72.7036	9,188.96	72.8032	9,188.96	69.7199	9,188.96	69.6609	9,188.96	67.2425	9,188.96	66.4495	9,188.96	65.3253	9,188.96	63.9886	9,188.96	61.8923	9,188.96	60.5124	9,188.96	60.9255	9,188.96	61.6147	9,188.96	59.0064	9,188.96	59.9048	9,188.96	58.0594	9,188.96	57.6104	9,188.96	55.7411	9,188.96	56.9391	9,188.96	55.2478	9,188.96	58.6995	9,188.96	50.9455
9,514.16	84.3425	9,514.16	84.2576	9,514.16	84.4451	9,514.16	84.1043	9,514.16	83.7607	9,514.16	82.7991	9,514.16	82.5048	9,514.16	81.7541	9,514.16	81.3335	9,514.16	80.5257	9,514.16	80.446	9,514.16	78.4542	9,514.16	78.3669	9,514.16	75.6504	9,514.16	75.517	9,514.16	72.3437	9,514.16	72.3618	9,514.16	69.2097	9,514.16	68.7872	9,514.16	67.2802	9,514.16	66.8216	9,514.16	64.9572	9,514.16	64.6407	9,514.16	62.0371	9,514.16	61.9316	9,514.16	61.3014	9,514.16	61.2038	9,514.16	58.3539	9,514.16	56.3829	9,514.16	60.3941	9,514.16	59.4104	9,514.16	57.8221	9,514.16	57.3585	9,514.16	54.0739	9,514.16	58.1294	9,514.16	54.6507
9,849.61	84.2416	9,849.61	84.036	9,849.61	84.4062	9,849.61	83.8775	9,849.61	83.8238	9,849.61	82.293	9,849.61	82.7426	9,849.61	81.8422	9,849.61	81.8378	9,849.61	80.6505	9,849.61	80.5384	9,849.61	78.0236	9,849.61	78.0469	9,849.61	74.6735	9,849.61	74.7736	9,849.61	72.7256	9,849.61	71.7972	9,849.61	69.0079	9,849.61	69.4086	9,849.61	66.5015	9,849.61	66.5832	9,849.61	64.012	9,849.61	64.1622	9,849.61	62.7164	9,849.61	61.5092	9,849.61	61.8754	9,849.61	60.1593	9,849.61	57.4103	9,849.61	54.7401	9,849.61	58.5524	9,849.61	55.3684	9,849.61	57.5605	9,849.61	58.0609	9,849.61	53.4579	9,849.61	57.3037	9,849.61	49.6164
10,196.8	84.4372	10,196.8	84.3793	10,196.8	84.1097	10,196.8	83.9007	10,196.8	83.7532	10,196.8	82.4	10,196.8	82.8478	10,196.8	81.7303	10,196.8	81.5171	10,196.8	80.413	10,196.8	79.9366	10,196.8	78.057	10,196.8	78.0823	10,196.8	73.9225	10,196.8	74.9441	10,196.8	72.5574	10,196.8	72.5201	10,196.8	69.2251	10,196.8	69.7903	10,196.8	66.6613	10,196.8	66.5886	10,196.8	62.943	10,196.8	63.8374	10,196.8	61.9788	10,196.8	62.7133	10,196.8	61.0658	10,196.8	57.8223	10,196.8	57.1067	10,196.8	56.0588	10,196.8	54.2688	10,196.8	54.2914	10,196.8	57.5422	10,196.8	56.0597	10,196.8	54.3998	10,196.8	59.1485	10,196.8	33.9721
10,555.7	84.2615	10,555.7	84.3467	10,555.7	84.0645	10,555.7	83.7926	10,555.7	83.3613	10,555.7	82.3851	10,555.7	82.3716	10,555.7	81.3594	10,555.7	80.8421	10,555.7	80.0805	10,555.7	79.7502	10,555.7	77.7779	10,555.7	77.8	10,555.7	73.9427	10,555.7	74.7421	10,555.7	71.02	10,555.7	71.9801	10,555.7	68.0487	10,555.7	68.2288	10,555.7	66.2481	10,555.7	65.1452	10,555.7	62.6946	10,555.7	63.0043	10,555.7	62.5944	10,555.7	60.5508	10,555.7	57.6388	10,555.7	61.2105	10,555.7	57.5531	10,555.7	55.1953	10,555.7	57.2432	10,555.7	56.7887	10,555.7	54.6245	10,555.7	55.191	10,555.7	52.3409	10,555.7	56.0269	10,555.7	46.4455
10,927.7	83.9875	10,927.7	83.7877	10,927.7	83.9998	10,927.7	83.4943	10,927.7	82.9422	10,927.7	82.1726	10,927.7	81.9156	10,927.7	81.3824	10,927.7	80.7082	10,927.7	80.2064	10,927.7	79.788	10,927.7	77.7383	10,927.7	77.2756	10,927.7	74.1594	10,927.7	74.4079	10,927.7	71.5232	10,927.7	70.9168	10,927.7	66.3927	10,927.7	67.506	10,927.7	65.3602	10,927.7	64.4476	10,927.7	61.6921	10,927.7	62.7144	10,927.7	60.3505	10,927.7	60.5918	10,927.7	59.0893	10,927.7	59.6325	10,927.7	56.5736	10,927.7	52.7893	10,927.7	53.9736	10,927.7	55.0251	10,927.7	54.0578	10,927.7	54.5674	10,927.7	50.0936	10,927.7	54.5539	10,927.7	49.0313
11,313	83.9652	11,313	83.5484	11,313	83.9666	11,313	83.2849	11,313	83.1224	11,313	81.8879	11,313	82.0204	11,313	81.0975	11,313	80.8	11,313	79.7637	11,313	79.655	11,313	77.5098	11,313	77.1437	11,313	73.9752	11,313	74.0299	11,313	72.3483	11,313	70.9893	11,313	67.5574	11,313	68.3094	11,313	65.3412	11,313	64.9393	11,313	62.2513	11,313	63.3551	11,313	62.63	11,313	60.8158	11,313	59.7564	11,313	55.6784	11,313	56.8312	11,313	54.3892	11,313	49.699	11,313	52.657	11,313	56.339	11,313	53.7787	11,313	44.9764	11,313	58.9124	11,313	45.859
11,712.9	84.1193	11,712.9	83.9601	11,712.9	83.7942	11,712.9	83.4442	11,712.9	83.4375	11,712.9	81.9719	11,712.9	82.3204	11,712.9	81.1836	11,712.9	80.8266	11,712.9	79.798	11,712.9	79.5615	11,712.9	77.4396	11,712.9	77.2791	11,712.9	72.9764	11,712.9	73.8042	11,712.9	70.6469	11,712.9	70.692	11,712.9	66.9886	11,712.9	67.1468	11,712.9	63.752	11,712.9	63.7682	11,712.9	60.646	11,712.9	62.025	11,712.9	63.0934	11,712.9	58.8155	11,712.9	58.4123	11,712.9	58.2339	11,712.9	55.4177	11,712.9	53.1289	11,712.9	53.6431	11,712.9	55.3789	11,712.9	56.9521	11,712.9	53.1003	11,712.9	45.8735	11,712.9	58.7097	11,712.9	40.1006
12,126	84.3874	12,126	84.19	12,126	83.9978	12,126	83.7219	12,126	83.5509	12,126	82.4427	12,126	82.6351	12,126	81.4651	12,126	80.9266	12,126	80.0147	12,126	79.8172	12,126	77.4148	12,126	77.6042	12,126	73.2509	12,126	74.3863	12,126	69.9487	12,126	70.778	12,126	66.1614	12,126	66.6174	12,126	64.3456	12,126	62.631	12,126	59.3723	12,126	61.4814	12,126	61.2705	12,126	59.2732	12,126	57.9842	12,126	58.9778	12,126	55.3989	12,126	54.3723	12,126	53.4013	12,126	54.9838	12,126	56.6836	12,126	53.8017	12,126	48.9168	12,126	55.2478	12,126	39.4809
12,553.7	84.5796	12,553.7	84.1339	12,553.7	84.4813	12,553.7	83.9933	12,553.7	83.7849	12,553.7	82.2589	12,553.7	82.6142	12,553.7	81.1955	12,553.7	81.1091	12,553.7	79.6879	12,553.7	80.1912	12,553.7	77.4946	12,553.7	77.3482	12,553.7	73.4584	12,553.7	74.2909	12,553.7	71.2557	12,553.7	70.2249	12,553.7	65.9638	12,553.7	67.7756	12,553.7	63.5684	12,553.7	62.9863	12,553.7	60.5393	12,553.7	61.9402	12,553.7	61.4768	12,553.7	60.9249	12,553.7	58.132	12,553.7	57.3075	12,553.7	54.288	12,553.7	54.2937	12,553.7	50.6552	12,553.7	52.3785	12,553.7	55.47	12,553.7	51.1155	12,553.7	50.4423	12,553.7	57.3005	12,553.7	46.2057
12,996.1	84.6818	12,996.1	84.2402	12,996.1	84.6108	12,996.1	83.9238	12,996.1	83.95	12,996.1	82.0752	12,996.1	82.7166	12,996.1	81.3078	12,996.1	81.3978	12,996.1	79.5254	12,996.1	80.0024	12,996.1	77.0707	12,996.1	77.0508	12,996.1	72.2769	12,996.1	73.7918	12,996.1	70.7365	12,996.1	69.9743	12,996.1	66.8148	12,996.1	67.6889	12,996.1	62.9305	12,996.1	63.9632	12,996.1	60.332	12,996.1	61.5763	12,996.1	60.9631	12,996.1	59.2383	12,996.1	56.9151	12,996.1	55.9832	12,996.1	52.6706	12,996.1	51.4886	12,996.1	48.8768	12,996.1	51.0998	12,996.1	54.0185	12,996.1	49.5712	12,996.1	50.0196	12,996.1	59.392	12,996.1	43.3295
13,454.6	84.7095	13,454.6	84.333	13,454.6	84.5111	13,454.6	83.8077	13,454.6	83.9891	13,454.6	82.1615	13,454.6	82.7718	13,454.6	81.2832	13,454.6	81.2691	13,454.6	79.2857	13,454.6	79.5292	13,454.6	76.5706	13,454.6	77.0021	13,454.6	71.9637	13,454.6	74.0504	13,454.6	69.0337	13,454.6	69.8168	13,454.6	65.7805	13,454.6	66.0447	13,454.6	62.0912	13,454.6	62.8319	13,454.6	58.7572	13,454.6	61.082	13,454.6	60.9727	13,454.6	57.1613	13,454.6	54.9993	13,454.6	57.4462	13,454.6	51.4872	13,454.6	54.2048	13,454.6	47.6843	13,454.6	48.1319	13,454.6	55.658	13,454.6	45.6475	13,454.6	50.3962	13,454.6	55.535	13,454.6	41.4479
13,929.2	84.7035	13,929.2	84.3179	13,929.2	84.4879	13,929.2	83.84	13,929.2	83.9651	13,929.2	82.05	13,929.2	82.7042	13,929.2	80.8469	13,929.2	81.119	13,929.2	78.5857	13,929.2	79.5765	13,929.2	75.9154	13,929.2	76.7913	13,929.2	72.2719	13,929.2	73.5738	13,929.2	68.8123	13,929.2	69.4712	13,929.2	64.9723	13,929.2	66.1112	13,929.2	60.9874	13,929.2	61.6594	13,929.2	58.8823	13,929.2	60.4461	13,929.2	59.7211	13,929.2	57.1266	13,929.2	53.1788	13,929.2	54.7164	13,929.2	52.2247	13,929.2	51.845	13,929.2	46.5975	13,929.2	49.2829	13,929.2	54.8028	13,929.2	44.8131	13,929.2	47.8481	13,929.2	56.8557	13,929.2	47.1569
14,419.9	84.6599	14,419.9	84.1914	14,419.9	84.4656	14,419.9	83.7485	14,419.9	83.7092	14,419.9	81.7244	14,419.9	82.396	14,419.9	80.3829	14,419.9	80.8606	14,419.9	77.844	14,419.9	79.0208	14,419.9	75.5212	14,419.9	75.8911	14,419.9	71.1472	14,419.9	72.6215	14,419.9	68.7159	14,419.9	68.1934	14,419.9	64.6915	14,419.9	66.4092	14,419.9	59.7162	14,419.9	62.7246	14,419.9	58.3512	14,419.9	60.4436	14,419.9	59.1571	14,419.9	56.9711	14,419.9	52.26	14,419.9	53.0342	14,419.9	50.7242	14,419.9	49.0809	14,419.9	47.6309	14,419.9	44.9335	14,419.9	52.7891	14,419.9	44.0336	14,419.9	50.0705	14,419.9	56.491	14,419.9	45.9988
14,928.2	84.7139	14,928.2	84.2164	14,928.2	84.6187	14,928.2	83.6345	14,928.2	83.7279	14,928.2	81.6744	14,928.2	82.3665	14,928.2	80.4263	14,928.2	80.4001	14,928.2	77.7475	14,928.2	78.1933	14,928.2	74.6681	14,928.2	75.0415	14,928.2	70.1563	14,928.2	72.2916	14,928.2	66.1157	14,928.2	67.772	14,928.2	63.576	14,928.2	64.4994	14,928.2	58.5914	14,928.2	61.4344	14,928.2	57.6219	14,928.2	59.0897	14,928.2	58.9649	14,928.2	54.2607	14,928.2	52.1519	14,928.2	55.0203	14,928.2	50.2121	14,928.2	48.7797	14,928.2	48.6536	14,928.2	41.9957	14,928.2	50.6547	14,928.2	40.4177	14,928.2	49.3031	14,928.2	54.469	14,928.2	45.1187
15,455.6	84.8831	15,455.6	84.4073	15,455.6	84.6509	15,455.6	83.7123	15,455.6	83.6101	15,455.6	81.5986	15,455.6	82.0808	15,455.6	79.99	15,455.6	80.0538	15,455.6	77.1754	15,455.6	78.0576	15,455.6	73.9663	15,455.6	75.0871	15,455.6	70.4828	15,455.6	72.0083	15,455.6	65.868	15,455.6	67.0684	15,455.6	63.1528	15,455.6	64.0276	15,455.6	58.0705	15,455.6	61.0883	15,455.6	57.6504	15,455.6	59.1771	15,455.6	57.6597	15,455.6	56.6808	15,455.6	50.5608	15,455.6	52.8271	15,455.6	48.9971	15,455.6	50.9182	15,455.6	48.9483	15,455.6	36.7411	15,455.6	48.2037	15,455.6	23.2871	15,455.6	49.3122	15,455.6	55.8747	15,455.6	46.978
16,000.5	84.8492	16,000.5	84.2305	16,000.5	84.5829	16,000.5	83.3848	16,000.5	83.4679	16,000.5	81.3307	16,000.5	81.8608	16,000.5	79.5586	16,000.5	79.7975	16,000.5	76.6102	16,000.5	78.0001	16,000.5	73.7216	16,000.5	74.5654	16,000.5	70.0969	16,000.5	71.4952	16,000.5	66.6544	16,000.5	67.1531	16,000.5	63.979	16,000.5	65.1366	16,000.5	58.3852	16,000.5	62.072	16,000.5	57.8369	16,000.5	59.6755	16,000.5	55.9287	16,000.5	56.2628	16,000.5	50.0302	16,000.5	53.3305	16,000.5	49.3069	16,000.5	52.3146	16,000.5	50.3193	16,000.5	45.8237	16,000.5	46.7433	16,000.5	40.6435	16,000.5	47.1308	16,000.5	56.2453	16,000.5	45.1323
16,564.5	84.5001	16,564.5	83.9578	16,564.5	84.2538	16,564.5	83.1354	16,564.5	83.1983	16,564.5	80.9418	16,564.5	81.7034	16,564.5	79.3941	16,564.5	79.6824	16,564.5	76.6539	16,564.5	77.8563	16,564.5	73.242	16,564.5	74.5541	16,564.5	70.1517	16,564.5	72.196	16,564.5	66.1502	16,564.5	68.2311	16,564.5	64.1364	16,564.5	64.8875	16,564.5	57.919	16,564.5	61.7748	16,564.5	58.4086	16,564.5	59.1353	16,564.5	55.6123	16,564.5	55.094	16,564.5	46.2976	16,564.5	53.4941	16,564.5	47.4122	16,564.5	47.1606	16,564.5	48.2601	16,564.5	47.9129	16,564.5	46.5837	16,564.5	43.259	16,564.5	44.927	16,564.5	55.1238	16,564.5	45.8189
17,148.9	83.8732	17,148.9	83.3498	17,148.9	83.7051	17,148.9	82.6333	17,148.9	82.7873	17,148.9	80.5945	17,148.9	81.2891	17,148.9	78.9754	17,148.9	79.455	17,148.9	76.005	17,148.9	77.8384	17,148.9	72.7898	17,148.9	74.5715	17,148.9	70.0023	17,148.9	71.9684	17,148.9	66.1561	17,148.9	68.3695	17,148.9	63.7827	17,148.9	65.3265	17,148.9	58.3687	17,148.9	61.0238	17,148.9	58.7854	17,148.9	58.9311	17,148.9	54.0889	17,148.9	53.5858	17,148.9	43.6725	17,148.9	52.5007	17,148.9	45.1381	17,148.9	46.9944	17,148.9	47.5003	17,148.9	44.8818	17,148.9	45.1224	17,148.9	47.1722	17,148.9	44.2738	17,148.9	54.7164	17,148.9	45.2257
17,752.4	83.2721	17,752.4	82.8141	17,752.4	83.0728	17,752.4	82.2564	17,752.4	82.3572	17,752.4	80.1496	17,752.4	80.9945	17,752.4	78.655	17,752.4	79.2809	17,752.4	75.7001	17,752.4	77.72	17,752.4	72.5202	17,752.4	74.5058	17,752.4	70.022	17,752.4	72.0358	17,752.4	66.8823	17,752.4	67.9422	17,752.4	63.6884	17,752.4	64.3834	17,752.4	59.0671	17,752.4	61.5302	17,752.4	58.2639	17,752.4	57.8249	17,752.4	52.3184	17,752.4	52.8876	17,752.4	45.8113	17,752.4	53.8839	17,752.4	42.9769	17,752.4	45.8692	17,752.4	47.5269	17,752.4	46.7026	17,752.4	42.1799	17,752.4	43.9251	17,752.4	44.5577	17,752.4	54.3762	17,752.4	43.7832
18,379.4	82.7453	18,379.4	82.2507	18,379.4	82.552	18,379.4	81.8761	18,379.4	82.0171	18,379.4	79.9358	18,379.4	80.8667	18,379.4	78.5969	18,379.4	79.1251	18,379.4	75.9554	18,379.4	77.5848	18,379.4	72.6956	18,379.4	74.6074	18,379.4	70.7226	18,379.4	72.4616	18,379.4	66.8169	18,379.4	68.2809	18,379.4	62.212	18,379.4	63.9908	18,379.4	60.3176	18,379.4	60.859	18,379.4	57.4267	18,379.4	58.9271	18,379.4	50.2337	18,379.4	52.9228	18,379.4	46.52	18,379.4	52.8419	18,379.4	43.5131	18,379.4	35.9758	18,379.4	50.0979	18,379.4	45.4102	18,379.4	43.3257	18,379.4	45.2198	18,379.4	44.5992	18,379.4	54.337	18,379.4	45.3092
19,026.9	81.7665	19,026.9	81.5281	19,026.9	81.7632	19,026.9	81.6017	19,026.9	81.6364	19,026.9	79.7228	19,026.9	80.5399	19,026.9	78.5207	19,026.9	78.9844	19,026.9	75.7249	19,026.9	77.499	19,026.9	72.7688	19,026.9	74.7034	19,026.9	71.194	19,026.9	72.3049	19,026.9	66.941	19,026.9	67.4237	19,026.9	61.0823	19,026.9	63.7778	19,026.9	60.6994	19,026.9	61.5468	19,026.9	57.4664	19,026.9	58.3915	19,026.9	48.2888	19,026.9	54.9237	19,026.9	45.5699	19,026.9	54.1181	19,026.9	43.9946	19,026.9	40.4003	19,026.9	50.1464	19,026.9	49.6874	19,026.9	42.151	19,026.9	44.0857	19,026.9	42.3419	19,026.9	54.5918	19,026.9	45.9851
19,697.8	81.2668	19,697.8	80.9369	19,697.8	81.3576	19,697.8	80.8666	19,697.8	81.1	19,697.8	78.9242	19,697.8	80.0045	19,697.8	77.4845	19,697.8	78.1805	19,697.8	74.7938	19,697.8	76.6188	19,697.8	72.425	19,697.8	73.9937	19,697.8	70.3665	19,697.8	71.7676	19,697.8	66.6448	19,697.8	66.6134	19,697.8	60.033	19,697.8	62.4143	19,697.8	59.1	19,697.8	60.3512	19,697.8	56.8625	19,697.8	58.2587	19,697.8	41.8278	19,697.8	54.5838	19,697.8	45.6739	19,697.8	52.2142	19,697.8	46.353	19,697.8	38.2502	19,697.8	50.6577	19,697.8	49.1514	19,697.8	41.8111	19,697.8	41.6757	19,697.8	44.8881	19,697.8	52.2335	19,697.8	46.9174
19,999.5	81.0223	19,999.5	80.8658	19,999.5	81.1072	19,999.5	80.4708	19,999.5	80.8723	19,999.5	78.4555	19,999.5	79.7305	19,999.5	77.2361	19,999.5	77.6762	19,999.5	74.5402	19,999.5	76.5376	19,999.5	72.1308	19,999.5	73.3748	19,999.5	69.9122	19,999.5	71.0935	19,999.5	66.3303	19,999.5	65.5656	19,999.5	59.6897	19,999.5	62.6491	19,999.5	60.9665	19,999.5	60.5763	19,999.5	56.2495	19,999.5	60.0087	19,999.5	39.0343	19,999.5	55.0791	19,999.5	47.4885	19,999.5	50.8998	19,999.5	29.205	19,999.5	41.0668	19,999.5	49.1715	19,999.5	53.1172	19,999.5	47.9177	19,999.5	42.1889	19,999.5	48.9051	19,999.5	53.7958	19,999.5	46.1258
