"SPL Vertical"																																																																							
"On-Axis"		"10°"		"-10°"		"20°"		"-20°"		"30°"		"-30°"		"40°"		"-40°"		"50°"		"-50°"		"60°"		"-60°"		"70°"		"-70°"		"80°"		"-80°"		"90°"		"-90°"		"100°"		"-100°"		"110°"		"-110°"		"120°"		"-120°"		"130°"		"-130°"		"140°"		"-140°"		"150°"		"-150°"		"160°"		"-160°"		"170°"		"-170°"		"180°"	
"Frequency [Hz]"	"Sound Pessure Level [dB]    /  [	0.065	V at 	1	m]"	"Frequency [Hz]"	"Sound Pessure Level [dB]    /  [	0.065	V at 	1	m]"	"Frequency [Hz]"	"Sound Pessure Level [dB]    /  [	0.065	V at 	1	m]"	"Frequency [Hz]"	"Sound Pessure Level [dB]    /  [	0.065	V at 	1	m]"	"Frequency [Hz]"	"Sound Pessure Level [dB]    /  [	0.065	V at 	1	m]"	"Frequency [Hz]"	"Sound Pessure Level [dB]    /  [	0.065	V at 	1	m]"	"Frequency [Hz]"	"Sound Pessure Level [dB]    /  [	0.065	V at 	1	m]"	"Frequency [Hz]"	"Sound Pessure Level [dB]    /  [	0.065	V at 	1	m]"	"Frequency [Hz]"	"Sound Pessure Level [dB]    /  [	0.065	V at 	1	m]"	"Frequency [Hz]"	"Sound Pessure Level [dB]    /  [	0.065	V at 	1	m]"	"Frequency [Hz]"	"Sound Pessure Level [dB]    /  [	0.065	V at 	1	m]"	"Frequency [Hz]"	"Sound Pessure Level [dB]    /  [	0.065	V at 	1	m]"	"Frequency [Hz]"	"Sound Pessure Level [dB]    /  [	0.065	V at 	1	m]"	"Frequency [Hz]"	"Sound Pessure Level [dB]    /  [	0.065	V at 	1	m]"	"Frequency [Hz]"	"Sound Pessure Level [dB]    /  [	0.065	V at 	1	m]"	"Frequency [Hz]"	"Sound Pessure Level [dB]    /  [	0.065	V at 	1	m]"	"Frequency [Hz]"	"Sound Pessure Level [dB]    /  [	0.065	V at 	1	m]"	"Frequency [Hz]"	"Sound Pessure Level [dB]    /  [	0.065	V at 	1	m]"	"Frequency [Hz]"	"Sound Pessure Level [dB]    /  [	0.065	V at 	1	m]"	"Frequency [Hz]"	"Sound Pessure Level [dB]    /  [	0.065	V at 	1	m]"	"Frequency [Hz]"	"Sound Pessure Level [dB]    /  [	0.065	V at 	1	m]"	"Frequency [Hz]"	"Sound Pessure Level [dB]    /  [	0.065	V at 	1	m]"	"Frequency [Hz]"	"Sound Pessure Level [dB]    /  [	0.065	V at 	1	m]"	"Frequency [Hz]"	"Sound Pessure Level [dB]    /  [	0.065	V at 	1	m]"	"Frequency [Hz]"	"Sound Pessure Level [dB]    /  [	0.065	V at 	1	m]"	"Frequency [Hz]"	"Sound Pessure Level [dB]    /  [	0.065	V at 	1	m]"	"Frequency [Hz]"	"Sound Pessure Level [dB]    /  [	0.065	V at 	1	m]"	"Frequency [Hz]"	"Sound Pessure Level [dB]    /  [	0.065	V at 	1	m]"	"Frequency [Hz]"	"Sound Pessure Level [dB]    /  [	0.065	V at 	1	m]"	"Frequency [Hz]"	"Sound Pessure Level [dB]    /  [	0.065	V at 	1	m]"	"Frequency [Hz]"	"Sound Pessure Level [dB]    /  [	0.065	V at 	1	m]"	"Frequency [Hz]"	"Sound Pessure Level [dB]    /  [	0.065	V at 	1	m]"	"Frequency [Hz]"	"Sound Pessure Level [dB]    /  [	0.065	V at 	1	m]"	"Frequency [Hz]"	"Sound Pessure Level [dB]    /  [	0.065	V at 	1	m]"	"Frequency [Hz]"	"Sound Pessure Level [dB]    /  [	0.065	V at 	1	m]"	"Frequency [Hz]"	"Sound Pessure Level [dB]    /  [	0.065	V at 	1	m]"
20.5078	41.8259	20.5078	41.2528	20.5078	42.2304	20.5078	40.4835	20.5078	42.4822	20.5078	39.4715	20.5078	42.5897	20.5078	38.1381	20.5078	42.5551	20.5078	36.3489	20.5078	42.3736	20.5078	33.8694	20.5078	42.0311	20.5078	30.3504	20.5078	41.5007	20.5078	26.617	20.5078	40.7396	20.5078	28.7043	20.5078	39.687	20.5078	33.1027	20.5078	38.271	20.5078	36.3788	20.5078	36.4592	20.5078	38.7178	20.5078	34.5081	20.5078	40.3859	20.5078	33.5801	20.5078	41.526	20.5078	34.8215	20.5078	42.2093	20.5078	37.068	20.5078	42.4671	20.5078	39.114	20.5078	42.3065	20.5078	40.6639	20.5078	41.7152
21.9727	36.4846	21.9727	34.7364	21.9727	37.6621	21.9727	32.0896	21.9727	38.4308	21.9727	27.9942	21.9727	38.8683	21.9727	25.0784	21.9727	39.0017	21.9727	30.2637	21.9727	38.8196	21.9727	35.1524	21.9727	38.2745	21.9727	38.7009	21.9727	37.2851	21.9727	41.4363	21.9727	35.7741	21.9727	43.6415	21.9727	33.9689	21.9727	45.4596	21.9727	33.4943	21.9727	46.9648	21.9727	35.9692	21.9727	48.1938	21.9727	39.3755	21.9727	49.1615	21.9727	42.3529	21.9727	49.8697	21.9727	44.752	21.9727	50.3128	21.9727	46.6465	21.9727	50.4805	21.9727	48.1107	21.9727	50.3605	21.9727	49.1964	21.9727	49.9384
23.4375	43.0691	23.4375	42.0679	23.4375	43.8267	23.4375	40.8134	23.4375	44.3594	23.4375	39.3668	23.4375	44.6783	23.4375	38.0521	23.4375	44.7838	23.4375	37.6904	23.4375	44.6639	23.4375	38.8903	23.4375	44.2936	23.4375	41.0179	23.4375	43.6335	23.4375	43.2541	23.4375	42.6338	23.4375	45.2765	23.4375	41.2689	23.4375	47.0188	23.4375	39.7062	23.4375	48.4827	23.4375	38.8086	23.4375	49.6782	23.4375	39.8818	23.4375	50.6087	23.4375	42.3553	23.4375	51.2698	23.4375	44.9035	23.4375	51.6511	23.4375	47.0582	23.4375	51.7383	23.4375	48.7648	23.4375	51.5145	23.4375	50.0536	23.4375	50.9606
24.9023	40.7401	24.9023	39.6587	24.9023	41.5984	24.9023	38.6291	24.9023	42.1595	24.9023	38.319	24.9023	42.404	24.9023	39.3545	24.9023	42.314	24.9023	41.3836	24.9023	41.8551	24.9023	43.6601	24.9023	40.9743	24.9023	45.8081	24.9023	39.6379	24.9023	47.7279	24.9023	38.065	24.9023	49.4131	24.9023	37.4822	24.9023	50.8768	24.9023	39.3843	24.9023	52.1294	24.9023	42.5053	24.9023	53.174	24.9023	45.4543	24.9023	54.0067	24.9023	47.9363	24.9023	54.6179	24.9023	49.9731	24.9023	54.9951	24.9023	51.6207	24.9023	55.1251	24.9023	52.9222	24.9023	54.995	24.9023	53.9065	24.9023	54.5928
26.3672	45.9806	26.3672	45.6697	26.3672	46.3346	26.3672	45.5499	26.3672	46.6347	26.3672	45.786	26.3672	46.829	26.3672	46.4681	26.3672	46.8973	26.3672	47.5427	26.3672	46.8473	26.3672	48.8591	26.3672	46.722	26.3672	50.266	26.3672	46.6182	26.3672	51.6584	26.3672	46.6997	26.3672	52.9751	26.3672	47.1571	26.3672	54.1809	26.3672	48.0879	26.3672	55.2529	26.3672	49.4078	26.3672	56.1725	26.3672	50.9218	26.3672	56.9216	26.3672	52.4483	26.3672	57.4826	26.3672	53.8688	26.3672	57.8384	26.3672	55.1166	26.3672	57.974	26.3672	56.1563	26.3672	57.8781	26.3672	56.9685	26.3672	57.5436
27.832	48.3419	27.832	47.9701	27.832	48.7194	27.832	47.7371	27.832	49.0211	27.832	47.812	27.832	49.2025	27.832	48.3242	27.832	49.243	27.832	49.2693	27.832	49.1402	27.832	50.5145	27.832	48.9162	27.832	51.896	27.832	48.6364	27.832	53.2891	27.832	48.4419	27.832	54.6176	27.832	48.5586	27.832	55.8384	27.832	49.2027	27.832	56.9242	27.832	50.3943	27.832	57.8542	27.832	51.9292	27.832	58.6091	27.832	53.5557	27.832	59.1696	27.832	55.0983	27.832	59.5171	27.832	56.4621	27.832	59.6345	27.832	57.6008	27.832	59.5084	27.832	58.4929	27.832	59.1293
29.2969	50.5459	29.2969	50.3937	29.2969	50.7701	29.2969	50.4264	29.2969	50.9784	29.2969	50.7503	29.2969	51.1139	29.2969	51.4121	29.2969	51.1467	29.2969	52.3712	29.2969	51.0726	29.2969	53.5281	29.2969	50.9212	29.2969	54.7763	29.2969	50.7756	29.2969	56.0324	29.2969	50.7905	29.2969	57.2396	29.2969	51.1638	29.2969	58.3602	29.2969	52.0172	29.2969	59.3666	29.2969	53.2855	29.2969	60.2354	29.2969	54.7729	29.2969	60.945	29.2969	56.2891	29.2969	61.4739	29.2969	57.7088	29.2969	61.8023	29.2969	58.9627	29.2969	61.9132	29.2969	60.0142	29.2969	61.7941	29.2969	60.8429	29.2969	61.4378
30.7617	52.8179	30.7617	52.861	30.7617	52.8736	30.7617	53.0826	30.7617	52.956	30.7617	53.5439	30.7617	53.0135	30.7617	54.2595	30.7617	53.0194	30.7617	55.1913	30.7617	52.9744	30.7617	56.2684	30.7617	52.915	30.7617	57.4161	30.7617	52.9242	30.7617	58.5718	30.7617	53.1298	30.7617	59.6887	30.7617	53.6619	30.7617	60.732	30.7617	54.5715	30.7617	61.6736	30.7617	55.7873	30.7617	62.4889	30.7617	57.1661	30.7617	63.1538	30.7617	58.5699	30.7617	63.6455	30.7617	59.8998	30.7617	63.9428	30.7617	61.0929	30.7617	64.0281	30.7617	62.1098	30.7617	63.8893	30.7617	62.9247	30.7617	63.5209
32.2266	55.3909	32.2266	55.4767	32.2266	55.4013	32.2266	55.721	32.2266	55.4494	32.2266	56.1699	32.2266	55.4924	32.2266	56.8348	32.2266	55.5088	32.2266	57.6876	32.2266	55.5033	32.2266	58.6739	32.2266	55.5119	32.2266	59.7326	32.2266	55.6063	32.2266	60.8088	32.2266	55.8846	32.2266	61.8587	32.2266	56.4347	32.2266	62.8472	32.2266	57.284	32.2266	63.7456	32.2266	58.3788	32.2266	64.5275	32.2266	59.6156	32.2266	65.1681	32.2266	60.8878	32.2266	65.6433	32.2266	62.1105	32.2266	65.9316	32.2266	63.2229	32.2266	66.0151	32.2266	64.1821	32.2266	65.8821	32.2266	64.9575	32.2266	65.5283
33.6914	57.838	33.6914	57.9987	33.6914	57.7793	33.6914	58.3031	33.6914	57.7799	33.6914	58.7788	33.6914	57.8069	33.6914	59.4282	33.6914	57.8437	33.6914	60.2283	33.6914	57.895	33.6914	61.1386	33.6914	57.99	33.6914	62.1128	33.6914	58.1822	33.6914	63.1069	33.6914	58.5392	33.6914	64.0832	33.6914	59.1174	33.6914	65.0094	33.6914	59.9313	33.6914	65.8569	33.6914	60.9417	33.6914	66.5993	33.6914	62.0728	33.6914	67.2109	33.6914	63.2406	33.6914	67.6673	33.6914	64.3718	33.6914	67.9464	33.6914	65.4087	33.6914	68.0306	33.6914	66.3081	33.6914	67.9084	33.6914	67.038	33.6914	67.576
35.1563	60.5018	35.1563	60.6917	35.1563	60.4033	35.1563	61.0008	35.1563	60.3671	35.1563	61.4471	35.1563	60.3699	35.1563	62.0329	35.1563	60.4009	35.1563	62.7434	35.1563	60.4653	35.1563	63.5509	35.1563	60.5872	35.1563	64.4211	35.1563	60.808	35.1563	65.3187	35.1563	61.177	35.1563	66.2103	35.1563	61.7328	35.1563	67.0653	35.1563	62.4832	35.1563	67.8551	35.1563	63.3977	35.1563	68.5522	35.1563	64.4179	35.1563	69.1301	35.1563	65.4762	35.1563	69.5634	35.1563	66.5094	35.1563	69.8298	35.1563	67.4647	35.1563	69.9115	35.1563	68.2996	35.1563	69.7978	35.1563	68.9812	35.1563	69.4856
36.6211	62.9959	36.6211	63.1819	36.6211	62.8909	36.6211	63.4695	36.6211	62.8459	36.6211	63.8732	36.6211	62.8453	36.6211	64.3968	36.6211	62.882	36.6211	65.0314	36.6211	62.9612	36.6211	65.7568	36.6211	63.1013	36.6211	66.5459	36.6211	63.3323	36.6211	67.3683	36.6211	63.6892	36.6211	68.1937	36.6211	64.1999	36.6211	68.9926	36.6211	64.8721	36.6211	69.7367	36.6211	65.6867	36.6211	70.3981	36.6211	66.6013	36.6211	70.9497	36.6211	67.5617	36.6211	71.3658	36.6211	68.5117	36.6211	71.6236	36.6211	69.4003	36.6211	71.7052	36.6211	70.1838	36.6211	71.5997	36.6211	70.8272	36.6211	71.3048
38.0859	65.2324	38.0859	65.423	38.0859	65.1181	38.0859	65.705	38.0859	65.0645	38.0859	66.0891	38.0859	65.0597	38.0859	66.5775	38.0859	65.0988	38.0859	67.1634	38.0859	65.1864	38.0859	67.8312	38.0859	65.3371	38.0859	68.5591	38.0859	65.5742	38.0859	69.3218	38.0859	65.924	38.0859	70.0925	38.0859	66.4071	38.0859	70.8438	38.0859	67.0293	38.0859	71.5482	38.0859	67.7765	38.0859	72.1781	38.0859	68.6161	38.0859	72.706	38.0859	69.5036	38.0859	73.1057	38.0859	70.3899	38.0859	73.354	38.0859	71.2269	38.0859	73.4326	38.0859	71.9713	38.0859	73.3306	38.0859	72.5869	38.0859	73.0461
39.5508	67.4672	39.5508	67.6373	39.5508	67.3668	39.5508	67.8892	39.5508	67.3237	39.5508	68.2318	39.5508	67.3286	39.5508	68.6682	39.5508	67.3776	39.5508	69.1941	39.5508	67.4739	39.5508	69.7976	39.5508	67.6285	39.5508	70.4613	39.5508	67.859	39.5508	71.1631	39.5508	68.1855	39.5508	71.8789	39.5508	68.625	39.5508	72.5826	39.5508	69.1839	39.5508	73.2474	39.5508	69.8533	39.5508	73.8457	39.5508	70.6088	39.5508	74.3501	39.5508	71.4138	39.5508	74.7342	39.5508	72.225	39.5508	74.9747	39.5508	72.9976	39.5508	75.0538	39.5508	73.6897	39.5508	74.961	39.5508	74.265	39.5508	74.6951
41.0156	69.7373	41.0156	69.8824	41.0156	69.6539	41.0156	70.0989	41.0156	69.6224	41.0156	70.3946	41.0156	69.6352	41.0156	70.773	41.0156	69.6888	41.0156	71.2326	41.0156	69.7847	41.0156	71.7654	41.0156	69.9307	41.0156	72.3582	41.0156	70.1403	41.0156	72.993	41.0156	70.4305	41.0156	73.6481	41.0156	70.8167	41.0156	74.2992	41.0156	71.3074	41.0156	74.9203	41.0156	71.8983	41.0156	75.4841	41.0156	72.5713	41.0156	75.9628	41.0156	73.2958	41.0156	76.3299	41.0156	74.0332	41.0156	76.5623	41.0156	74.7416	41.0156	76.6421	41.0156	75.3805	41.0156	76.5594	41.0156	75.914	41.0156	76.3135
42.4805	71.2299	42.4805	71.3763	42.4805	71.1432	42.4805	71.5909	42.4805	71.1083	42.4805	71.8804	42.4805	71.1197	42.4805	72.2483	42.4805	71.1756	42.4805	72.6931	42.4805	71.2794	42.4805	73.2077	42.4805	71.439	42.4805	73.7799	42.4805	71.6663	42.4805	74.3928	42.4805	71.9742	42.4805	75.0259	42.4805	72.3724	42.4805	75.6558	42.4805	72.8637	42.4805	76.2573	42.4805	73.4407	42.4805	76.8036	42.4805	74.0856	42.4805	77.2677	42.4805	74.7715	42.4805	77.6238	42.4805	75.4656	42.4805	77.8493	42.4805	76.1316	42.4805	77.9276	42.4805	76.7333	42.4805	77.8497	42.4805	77.2374	42.4805	77.6161
43.9453	73.1972	43.9453	73.3355	43.9453	73.113	43.9453	73.5344	43.9453	73.0767	43.9453	73.7996	43.9453	73.0839	43.9453	74.1341	43.9453	73.1331	43.9453	74.5374	43.9453	73.2268	43.9453	75.0047	43.9453	73.3709	43.9453	75.5265	43.9453	73.575	43.9453	76.0887	43.9453	73.8497	43.9453	76.6737	43.9453	74.2042	43.9453	77.2601	43.9453	74.643	43.9453	77.824	43.9453	75.1627	43.9453	78.3395	43.9453	75.7507	43.9453	78.7797	43.9453	76.3851	43.9453	79.1187	43.9453	77.036	43.9453	79.3334	43.9453	77.6684	43.9453	79.4066	43.9453	78.2454	43.9453	79.3288	43.9453	78.7324	43.9453	79.1005
45.4102	74.8733	45.4102	75.0044	45.4102	74.7942	45.4102	75.1928	45.4102	74.7621	45.4102	75.443	45.4102	74.7733	45.4102	75.7574	45.4102	74.8266	45.4102	76.1353	45.4102	74.9234	45.4102	76.5722	45.4102	75.0685	45.4102	77.0598	45.4102	75.2688	45.4102	77.5858	45.4102	75.5326	45.4102	78.1342	45.4102	75.8671	45.4102	78.6858	45.4102	76.2762	45.4102	79.2181	45.4102	76.7577	45.4102	79.7067	45.4102	77.302	45.4102	80.1258	45.4102	77.8905	45.4102	80.4498	45.4102	78.4971	45.4102	80.6563	45.4102	79.0894	45.4102	80.7281	45.4102	79.6324	45.4102	80.656	45.4102	80.0923	45.4102	80.4404
46.875	76.4028	46.875	76.5308	46.875	76.3238	46.875	76.7115	46.875	76.2905	46.875	76.9481	46.875	76.3009	46.875	77.2421	46.875	76.3547	46.875	77.5934	46.875	76.4536	46.875	77.9985	46.875	76.6015	46.875	78.4508	46.875	76.8038	46.875	78.9403	46.875	77.0665	46.875	79.453	46.875	77.3941	46.875	79.9715	46.875	77.7882	46.875	80.4748	46.875	78.2455	46.875	80.9394	46.875	78.7565	46.875	81.3403	46.875	79.3049	46.875	81.6525	46.875	79.8678	46.875	81.854	46.875	80.4166	46.875	81.928	46.875	80.9197	46.875	81.8657	46.875	81.346	46.875	81.6681
48.3398	77.9129	48.3398	78.0243	48.3398	77.8453	48.3398	78.1828	48.3398	77.8186	48.3398	78.3917	48.3398	77.8307	48.3398	78.6528	48.3398	77.881	48.3398	78.9664	48.3398	77.9709	48.3398	79.3306	48.3398	78.1031	48.3398	79.74	48.3398	78.2818	48.3398	80.1861	48.3398	78.5118	48.3398	80.6568	48.3398	78.7972	48.3398	81.1359	48.3398	79.1404	48.3398	81.6036	48.3398	79.5407	48.3398	82.0373	48.3398	79.9927	48.3398	82.4122	48.3398	80.4845	48.3398	82.7038	48.3398	80.9973	48.3398	82.8901	48.3398	81.5052	48.3398	82.9546	48.3398	81.9779	48.3398	82.8889	48.3398	82.3838	48.3398	82.6947
51.2695	80.2664	51.2695	80.354	51.2695	80.2168	51.2695	80.4823	51.2695	80.2028	51.2695	80.6539	51.2695	80.2225	51.2695	80.8708	51.2695	80.2751	51.2695	81.1339	51.2695	80.3609	51.2695	81.4421	51.2695	80.4815	51.2695	81.792	51.2695	80.6397	51.2695	82.1773	51.2695	80.8389	51.2695	82.5879	51.2695	81.0825	51.2695	83.0103	51.2695	81.373	51.2695	83.4268	51.2695	81.7101	51.2695	83.8163	51.2695	82.0902	51.2695	84.1555	51.2695	82.5048	51.2695	84.4206	51.2695	82.9394	51.2695	84.5903	51.2695	83.374	51.2695	84.6491	51.2695	83.7833	51.2695	84.5898	51.2695	84.1394	51.2695	84.4155
52.7344	81.2149	52.7344	81.2948	52.7344	81.1708	52.7344	81.4127	52.7344	81.1603	52.7344	81.5708	52.7344	81.182	52.7344	81.771	52.7344	81.2349	52.7344	82.0141	52.7344	81.3193	52.7344	82.2992	52.7344	81.4361	52.7344	82.6237	52.7344	81.5874	52.7344	82.9821	52.7344	81.7759	52.7344	83.3656	52.7344	82.0044	52.7344	83.7616	52.7344	82.2749	52.7344	84.1538	52.7344	82.5875	52.7344	84.5223	52.7344	82.9393	52.7344	84.8446	52.7344	83.3231	52.7344	85.0978	52.7344	83.7263	52.7344	85.2612	52.7344	84.1306	52.7344	85.3196	52.7344	84.5124	52.7344	85.266	52.7344	84.8453	52.7344	85.1036
54.1992	82.0135	54.1992	82.0858	54.1992	81.9747	54.1992	82.1936	54.1992	81.9676	54.1992	82.3388	54.1992	81.9909	54.1992	82.523	54.1992	82.0435	54.1992	82.7469	54.1992	82.1255	54.1992	83.0102	54.1992	82.2373	54.1992	83.3105	54.1992	82.3806	54.1992	83.6431	54.1992	82.5574	54.1992	84.0003	54.1992	82.7699	54.1992	84.3707	54.1992	83.02	54.1992	84.739	54.1992	83.3081	54.1992	85.0865	54.1992	83.632	54.1992	85.3916	54.1992	83.9859	54.1992	85.6323	54.1992	84.3587	54.1992	85.7884	54.1992	84.734	54.1992	85.8452	54.1992	85.09	54.1992	85.7959	54.1992	85.4015	54.1992	85.6437
55.6641	82.6764	55.6641	82.7421	55.6641	82.6422	55.6641	82.841	55.6641	82.6379	55.6641	82.9749	55.6641	82.6622	55.6641	83.145	55.6641	82.7143	55.6641	83.352	55.6641	82.7939	55.6641	83.5958	55.6641	82.9013	55.6641	83.8744	55.6641	83.0375	55.6641	84.1838	55.6641	83.2042	55.6641	84.5171	55.6641	83.4032	55.6641	84.864	55.6641	83.6361	55.6641	85.2104	55.6641	83.9034	55.6641	85.5385	55.6641	84.2033	55.6641	85.8279	55.6641	84.5311	55.6641	86.0572	55.6641	84.8771	55.6641	86.207	55.6641	85.2262	55.6641	86.2627	55.6641	85.5583	55.6641	86.2181	55.6641	85.8495	55.6641	86.0761
58.5938	83.6627	58.5938	83.7153	58.5938	83.6379	58.5938	83.7973	58.5938	83.6399	58.5938	83.9097	58.5938	83.6673	58.5938	84.0536	58.5938	83.7192	58.5938	84.2298	58.5938	83.7951	58.5938	84.438	58.5938	83.8946	58.5938	84.6771	58.5938	84.0181	58.5938	84.9441	58.5938	84.1664	58.5938	85.2336	58.5938	84.3406	58.5938	85.537	58.5938	84.5417	58.5938	85.8425	58.5938	84.7705	58.5938	86.1342	58.5938	85.0259	58.5938	86.3936	58.5938	85.3048	58.5938	86.6011	58.5938	85.5999	58.5938	86.7384	58.5938	85.8992	58.5938	86.7922	58.5938	86.1855	58.5938	86.7564	58.5938	86.4377	58.5938	86.6343
60.0586	84.0605	60.0586	84.106	60.0586	84.0413	60.0586	84.1788	60.0586	84.0471	60.0586	84.2801	60.0586	84.0769	60.0586	84.4108	60.0586	84.1296	60.0586	84.5717	60.0586	84.2046	60.0586	84.7627	60.0586	84.3014	60.0586	84.9828	60.0586	84.42	60.0586	85.2296	60.0586	84.5608	60.0586	85.4984	60.0586	84.7246	60.0586	85.7814	60.0586	84.9123	60.0586	86.0677	60.0586	85.1241	60.0586	86.3426	60.0586	85.3596	60.0586	86.5886	60.0586	85.616	60.0586	86.7868	60.0586	85.8869	60.0586	86.9199	60.0586	86.1617	60.0586	86.9748	60.0586	86.4245	60.0586	86.9458	60.0586	86.656	60.0586	86.8357
62.9883	84.5981	62.9883	84.632	62.9883	84.5876	62.9883	84.6903	62.9883	84.5996	62.9883	84.7739	62.9883	84.6328	62.9883	84.8834	62.9883	84.6862	62.9883	85.0193	62.9883	84.7586	62.9883	85.1817	62.9883	84.8492	62.9883	85.3699	62.9883	84.9572	62.9883	85.5819	62.9883	85.0827	62.9883	85.8141	62.9883	85.2257	62.9883	86.0602	62.9883	85.3869	62.9883	86.311	62.9883	85.5669	62.9883	86.5537	62.9883	85.7654	62.9883	86.7727	62.9883	85.981	62.9883	86.9511	62.9883	86.209	62.9883	87.0728	62.9883	86.441	62.9883	87.1259	62.9883	86.6638	62.9883	87.105	62.9883	86.8605	62.9883	87.013
64.4531	84.8035	64.4531	84.8327	64.4531	84.7965	64.4531	84.885	64.4531	84.8107	64.4531	84.9609	64.4531	84.8449	64.4531	85.0613	64.4531	84.8981	64.4531	85.1864	64.4531	84.969	64.4531	85.3362	64.4531	85.0566	64.4531	85.5103	64.4531	85.1601	64.4531	85.7069	64.4531	85.2791	64.4531	85.9228	64.4531	85.4137	64.4531	86.1525	64.4531	85.5642	64.4531	86.3872	64.4531	85.7312	64.4531	86.6154	64.4531	85.9145	64.4531	86.8223	64.4531	86.1129	64.4531	86.9917	64.4531	86.3224	64.4531	87.1085	64.4531	86.5355	64.4531	87.161	64.4531	86.7403	64.4531	87.1443	64.4531	86.9211	64.4531	87.0609
67.3828	85.1174	67.3828	85.1378	67.3828	85.1169	67.3828	85.1787	67.3828	85.1352	67.3828	85.2408	67.3828	85.1714	67.3828	85.3243	67.3828	85.2241	67.3828	85.4297	67.3828	85.292	67.3828	85.5569	67.3828	85.3739	67.3828	85.7054	67.3828	85.4687	67.3828	85.8741	67.3828	85.5758	67.3828	86.0604	67.3828	85.6947	67.3828	86.2597	67.3828	85.8257	67.3828	86.465	67.3828	85.969	67.3828	86.666	67.3828	86.1246	67.3828	86.8501	67.3828	86.2916	67.3828	87.0026	67.3828	86.4674	67.3828	87.1098	67.3828	86.6459	67.3828	87.1612	67.3828	86.8174	67.3828	87.152	67.3828	86.9687	67.3828	87.0848
68.8477	85.2433	68.8477	85.2595	68.8477	85.2459	68.8477	85.295	68.8477	85.2663	68.8477	85.3505	68.8477	85.3033	68.8477	85.4262	68.8477	85.3558	68.8477	85.5225	68.8477	85.4223	68.8477	85.6392	68.8477	85.5014	68.8477	85.7761	68.8477	85.5922	68.8477	85.9321	68.8477	85.6936	68.8477	86.1048	68.8477	85.8055	68.8477	86.2903	68.8477	85.9276	68.8477	86.4821	68.8477	86.0602	68.8477	86.6707	68.8477	86.2034	68.8477	86.8443	68.8477	86.3565	68.8477	86.9891	68.8477	86.5171	68.8477	87.0921	68.8477	86.68	68.8477	87.1433	68.8477	86.8363	68.8477	87.138	68.8477	86.9738	68.8477	87.0787
71.7773	85.4795	71.7773	85.4885	71.7773	85.487	71.7773	85.5147	71.7773	85.5102	71.7773	85.5584	71.7773	85.5478	71.7773	85.6199	71.7773	85.5985	71.7773	85.6994	71.7773	85.6609	71.7773	85.7967	71.7773	85.7334	71.7773	85.9115	71.7773	85.815	71.7773	86.043	71.7773	85.9046	71.7773	86.1895	71.7773	86.0017	71.7773	86.3477	71.7773	86.1063	71.7773	86.5123	71.7773	86.2184	71.7773	86.6756	71.7773	86.338	71.7773	86.8273	71.7773	86.4648	71.7773	86.9554	71.7773	86.5969	71.7773	87.0485	71.7773	86.7302	71.7773	87.0975	71.7773	86.8576	71.7773	87.0984	71.7773	86.9692	71.7773	87.0531
74.707	85.6598	74.707	85.6627	74.707	85.6717	74.707	85.6808	74.707	85.6974	74.707	85.7146	74.707	85.7358	74.707	85.7641	74.707	85.7855	74.707	85.8294	74.707	85.845	74.707	85.9102	74.707	85.9125	74.707	86.0063	74.707	85.9868	74.707	86.117	74.707	86.0666	74.707	86.2409	74.707	86.1512	74.707	86.3754	74.707	86.2403	74.707	86.5164	74.707	86.3339	74.707	86.6573	74.707	86.4322	74.707	86.7894	74.707	86.5351	74.707	86.9025	74.707	86.6415	74.707	86.9864	74.707	86.7485	74.707	87.0331	74.707	86.8506	74.707	87.039	74.707	86.9397	74.707	87.0056
77.6367	85.8106	77.6367	85.8074	77.6367	85.8266	77.6367	85.8177	77.6367	85.8547	77.6367	85.8419	77.6367	85.8936	77.6367	85.8799	77.6367	85.942	77.6367	85.9316	77.6367	85.9982	77.6367	85.9971	77.6367	86.0608	77.6367	86.0758	77.6367	86.1283	77.6367	86.1674	77.6367	86.1995	77.6367	86.2707	77.6367	86.2736	77.6367	86.3839	77.6367	86.3499	77.6367	86.5035	77.6367	86.4284	77.6367	86.6244	77.6367	86.509	77.6367	86.7393	77.6367	86.5916	77.6367	86.8393	77.6367	86.6755	77.6367	86.9158	77.6367	86.7587	77.6367	86.9616	77.6367	86.8372	77.6367	86.9734	77.6367	86.9045	77.6367	86.9525
79.1016	85.8632	79.1016	85.8576	79.1016	85.881	79.1016	85.8647	79.1016	85.91	79.1016	85.8849	79.1016	85.9492	79.1016	85.9181	79.1016	85.997	79.1016	85.9642	79.1016	86.052	79.1016	86.0232	79.1016	86.1127	79.1016	86.0946	79.1016	86.1776	79.1016	86.1781	79.1016	86.2455	79.1016	86.2727	79.1016	86.3157	79.1016	86.3768	79.1016	86.3873	79.1016	86.4873	79.1016	86.46	79.1016	86.5996	79.1016	86.5337	79.1016	86.7071	79.1016	86.6082	79.1016	86.8018	79.1016	86.6829	79.1016	86.8754	79.1016	86.7561	79.1016	86.9213	79.1016	86.8243	79.1016	86.9363	79.1016	86.8818	79.1016	86.9215
82.0313	85.9504	82.0313	85.9398	82.0313	85.9716	82.0313	85.9405	82.0313	86.0026	82.0313	85.9526	82.0313	86.0423	82.0313	85.9762	82.0313	86.0891	82.0313	86.0112	82.0313	86.1416	82.0313	86.0573	82.0313	86.1984	82.0313	86.1142	82.0313	86.2579	82.0313	86.1815	82.0313	86.3191	82.0313	86.2586	82.0313	86.3809	82.0313	86.3441	82.0313	86.4426	82.0313	86.4361	82.0313	86.5035	82.0313	86.5308	82.0313	86.5632	82.0313	86.623	82.0313	86.6214	82.0313	86.7062	82.0313	86.6775	82.0313	86.7736	82.0313	86.7304	82.0313	86.8194	82.0313	86.7777	82.0313	86.8407	82.0313	86.8153	82.0313	86.8381
84.9609	86.0484	84.9609	86.0313	84.9609	86.0748	84.9609	86.0242	84.9609	86.1097	84.9609	86.0273	84.9609	86.1517	84.9609	86.0407	84.9609	86.1994	84.9609	86.0642	84.9609	86.2513	84.9609	86.0975	84.9609	86.3058	84.9609	86.1403	84.9609	86.3615	84.9609	86.1921	84.9609	86.4171	84.9609	86.2527	84.9609	86.4716	84.9609	86.3212	84.9609	86.524	84.9609	86.3961	84.9609	86.5734	84.9609	86.4749	84.9609	86.619	84.9609	86.5536	84.9609	86.6604	84.9609	86.6269	84.9609	86.6973	84.9609	86.6894	84.9609	86.729	84.9609	86.7363	84.9609	86.7543	84.9609	86.765	84.9609	86.771	84.9609	86.7757
87.8906	86.0879	87.8906	86.0658	87.8906	86.1182	87.8906	86.0526	87.8906	86.1559	87.8906	86.0486	87.8906	86.1996	87.8906	86.0537	87.8906	86.2477	87.8906	86.0676	87.8906	86.2986	87.8906	86.0899	87.8906	86.3505	87.8906	86.1204	87.8906	86.4019	87.8906	86.1586	87.8906	86.4512	87.8906	86.2045	87.8906	86.4974	87.8906	86.2574	87.8906	86.5394	87.8906	86.3166	87.8906	86.5763	87.8906	86.3804	87.8906	86.6077	87.8906	86.446	87.8906	86.6331	87.8906	86.5094	87.8906	86.6527	87.8906	86.5661	87.8906	86.6665	87.8906	86.6123	87.8906	86.6742	87.8906	86.6457	87.8906	86.6747	87.8906	86.6659
90.8203	86.1244	90.8203	86.0994	90.8203	86.1564	90.8203	86.0819	90.8203	86.1942	90.8203	86.0723	90.8203	86.2367	90.8203	86.0704	90.8203	86.2823	90.8203	86.0761	90.8203	86.3293	90.8203	86.0889	90.8203	86.3762	90.8203	86.1084	90.8203	86.4216	90.8203	86.1345	90.8203	86.4639	90.8203	86.1669	90.8203	86.5023	90.8203	86.2056	90.8203	86.5355	90.8203	86.2503	90.8203	86.5628	90.8203	86.3001	90.8203	86.5835	90.8203	86.3532	90.8203	86.5973	90.8203	86.4069	90.8203	86.6042	90.8203	86.4577	90.8203	86.6045	90.8203	86.5025	90.8203	86.5986	90.8203	86.5391	90.8203	86.5863	90.8203	86.5668
95.2148	86.1502	95.2148	86.1199	95.2148	86.1857	95.2148	86.0955	95.2148	86.2251	95.2148	86.0776	95.2148	86.2671	95.2148	86.0662	95.2148	86.3101	95.2148	86.0611	95.2148	86.3526	95.2148	86.0619	95.2148	86.3933	95.2148	86.0684	95.2148	86.4309	95.2148	86.0803	95.2148	86.4646	95.2148	86.0975	95.2148	86.4934	95.2148	86.1203	95.2148	86.5163	95.2148	86.1488	95.2148	86.5326	95.2148	86.1832	95.2148	86.5412	95.2148	86.2227	95.2148	86.5416	95.2148	86.2659	95.2148	86.5338	95.2148	86.3108	95.2148	86.5182	95.2148	86.355	95.2148	86.4958	95.2148	86.3966	95.2148	86.4676	95.2148	86.4343
98.1445	86.1732	98.1445	86.1398	98.1445	86.2103	98.1445	86.111	98.1445	86.25	98.1445	86.0874	98.1445	86.2908	98.1445	86.069	98.1445	86.3314	98.1445	86.0557	98.1445	86.3704	98.1445	86.0473	98.1445	86.4067	98.1445	86.0435	98.1445	86.4394	98.1445	86.0441	98.1445	86.4675	98.1445	86.0492	98.1445	86.4904	98.1445	86.0594	98.1445	86.5071	98.1445	86.0753	98.1445	86.5163	98.1445	86.0975	98.1445	86.5169	98.1445	86.1264	98.1445	86.5078	98.1445	86.1615	98.1445	86.4888	98.1445	86.2019	98.1445	86.4605	98.1445	86.246	98.1445	86.4245	98.1445	86.292	98.1445	86.383	98.1445	86.3382
101.074	86.1653	101.074	86.1298	101.074	86.2035	101.074	86.098	101.074	86.2433	101.074	86.0703	101.074	86.2833	101.074	86.047	101.074	86.3224	101.074	86.0279	101.074	86.3592	101.074	86.0129	101.074	86.3928	101.074	86.0015	101.074	86.4225	101.074	85.9937	101.074	86.4475	101.074	85.9896	101.074	86.467	101.074	85.99	101.074	86.4799	101.074	85.9959	101.074	86.4847	101.074	86.0085	101.074	86.4798	101.074	86.0289	101.074	86.4638	101.074	86.0577	101.074	86.4361	101.074	86.0948	101.074	86.3976	101.074	86.1391	101.074	86.3505	101.074	86.1892	101.074	86.2978	101.074	86.243
105.469	86.1553	105.469	86.117	105.469	86.1944	105.469	86.0805	105.469	86.2329	105.469	86.0465	105.469	86.2696	105.469	86.0154	105.469	86.3031	105.469	85.9872	105.469	86.3326	105.469	85.9617	105.469	86.3573	105.469	85.9388	105.469	86.377	105.469	85.9183	105.469	86.3916	105.469	85.9005	105.469	86.4006	105.469	85.8863	105.469	86.4034	105.469	85.8772	105.469	86.3983	105.469	85.8752	105.469	86.3837	105.469	85.8823	105.469	86.3577	105.469	85.9003	105.469	86.3194	105.469	85.9302	105.469	86.2697	105.469	85.9718	105.469	86.211	105.469	86.0237	105.469	86.1474	105.469	86.0835
108.398	86.1211	108.398	86.079	108.398	86.1641	108.398	86.0389	108.398	86.2065	108.398	86.0015	108.398	86.2469	108.398	85.9673	108.398	86.2836	108.398	85.9361	108.398	86.3157	108.398	85.9078	108.398	86.3422	108.398	85.8819	108.398	86.3629	108.398	85.8583	108.398	86.3775	108.398	85.8374	108.398	86.3858	108.398	85.8201	108.398	86.387	108.398	85.8082	108.398	86.3798	108.398	85.8039	108.398	86.3623	108.398	85.8099	108.398	86.3329	108.398	85.8284	108.398	86.2906	108.398	85.8606	108.398	86.2361	108.398	85.9064	108.398	86.1717	108.398	85.9642	108.398	86.1016	108.398	86.0307
112.793	86.1896	112.793	86.1412	112.793	86.2364	112.793	86.0925	112.793	86.2799	112.793	86.0447	112.793	86.3186	112.793	85.9985	112.793	86.3512	112.793	85.954	112.793	86.3767	112.793	85.9111	112.793	86.3949	112.793	85.8699	112.793	86.4057	112.793	85.8301	112.793	86.4094	112.793	85.7924	112.793	86.4061	112.793	85.7578	112.793	86.3949	112.793	85.7286	112.793	86.3745	112.793	85.7078	112.793	86.3427	112.793	85.6988	112.793	86.2975	112.793	85.7052	112.793	86.2378	112.793	85.7296	112.793	86.1647	112.793	85.7729	112.793	86.0818	112.793	85.8341	112.793	85.9945	112.793	85.9098
117.188	86.1089	117.188	86.0568	117.188	86.1579	117.188	86.003	117.188	86.2021	117.188	85.9487	117.188	86.2402	117.188	85.8947	117.188	86.2709	117.188	85.8414	117.188	86.2937	117.188	85.7891	117.188	86.3083	117.188	85.7377	117.188	86.3152	117.188	85.6873	117.188	86.3147	117.188	85.6387	117.188	86.307	117.188	85.5932	117.188	86.2913	117.188	85.5534	117.188	86.2659	117.188	85.5229	117.188	86.2282	117.188	85.506	117.188	86.1755	117.188	85.5071	117.188	86.1066	117.188	85.5298	117.188	86.0223	117.188	85.5755	117.188	85.9267	117.188	85.6432	117.188	85.8262	117.188	85.729
120.117	86.0979	120.117	86.0461	120.117	86.1459	120.117	85.9921	120.117	86.1884	120.117	85.9369	120.117	86.224	120.117	85.8813	120.117	86.2514	120.117	85.8257	120.117	86.2698	120.117	85.77	120.117	86.2791	120.117	85.7141	120.117	86.2798	120.117	85.6583	120.117	86.2724	120.117	85.603	120.117	86.2575	120.117	85.5499	120.117	86.2348	120.117	85.5019	120.117	86.2028	120.117	85.4629	120.117	86.1594	120.117	85.4379	120.117	86.1021	120.117	85.432	120.117	86.0294	120.117	85.4491	120.117	85.9423	120.117	85.4914	120.117	85.8443	120.117	85.5576	120.117	85.7419	120.117	85.6435
124.512	86.1085	124.512	86.0521	124.512	86.1601	124.512	85.9925	124.512	86.2049	124.512	85.9311	124.512	86.2412	124.512	85.8687	124.512	86.2677	124.512	85.8058	124.512	86.2837	124.512	85.7424	124.512	86.2891	124.512	85.6784	124.512	86.2846	124.512	85.6139	124.512	86.2712	124.512	85.5495	124.512	86.2495	124.512	85.4868	124.512	86.2191	124.512	85.4289	124.512	86.1788	124.512	85.3802	124.512	86.1259	124.512	85.3464	124.512	86.0581	124.512	85.3332	124.512	85.974	124.512	85.3457	124.512	85.8749	124.512	85.3864	124.512	85.7653	124.512	85.4547	124.512	85.6526	124.512	85.5459
128.906	86.0258	128.906	85.9644	128.906	86.0814	128.906	85.8989	128.906	86.1292	128.906	85.8312	128.906	86.1672	128.906	85.7622	128.906	86.1943	128.906	85.6927	128.906	86.2098	128.906	85.6229	128.906	86.2141	128.906	85.5529	128.906	86.2082	128.906	85.4828	128.906	86.1933	128.906	85.4136	128.906	86.1705	128.906	85.3468	128.906	86.1395	128.906	85.286	128.906	86.0986	128.906	85.2356	128.906	86.0448	128.906	85.2017	128.906	85.9751	128.906	85.1905	128.906	85.8877	128.906	85.2071	128.906	85.7835	128.906	85.2541	128.906	85.6671	128.906	85.3303	128.906	85.5462	128.906	85.4305
133.301	85.981	133.301	85.9165	133.301	86.0383	133.301	85.8466	133.301	86.0862	133.301	85.7733	133.301	86.1229	133.301	85.6978	133.301	86.1473	133.301	85.6209	133.301	86.1591	133.301	85.5432	133.301	86.1589	133.301	85.4647	133.301	86.1481	133.301	85.3858	133.301	86.1285	133.301	85.3075	133.301	86.1013	133.301	85.2318	133.301	86.0663	133.301	85.1624	133.301	86.0216	133.301	85.1045	133.301	85.9639	133.301	85.0645	133.301	85.8895	133.301	85.0495	133.301	85.7962	133.301	85.0653	133.301	85.6847	133.301	85.1146	133.301	85.5596	133.301	85.1963	133.301	85.4292	133.301	85.3043
139.16	85.9077	139.16	85.8382	139.16	85.968	139.16	85.7617	139.16	86.0169	139.16	85.6804	139.16	86.0528	139.16	85.5959	139.16	86.0745	139.16	85.5092	139.16	86.0823	139.16	85.421	139.16	86.0771	139.16	85.3317	139.16	86.061	139.16	85.242	139.16	86.0361	139.16	85.1528	139.16	86.0039	139.16	85.0666	139.16	85.9641	139.16	84.9871	139.16	85.9143	139.16	84.9203	139.16	85.8505	139.16	84.8731	139.16	85.7684	139.16	84.8533	139.16	85.6653	139.16	84.8675	139.16	85.5421	139.16	84.919	139.16	85.4041	139.16	85.0066	139.16	85.2606	139.16	85.1239
143.555	85.8327	143.555	85.7589	143.555	85.8955	143.555	85.6766	143.555	85.945	143.555	85.5882	143.555	85.9792	143.555	85.4956	143.555	85.9974	143.555	85.4003	143.555	85.9998	143.555	85.3032	143.555	85.9881	143.555	85.2049	143.555	85.9648	143.555	85.1061	143.555	85.9327	143.555	85.0082	143.555	85.8941	143.555	84.9137	143.555	85.8487	143.555	84.8267	143.555	85.7944	143.555	84.7532	143.555	85.7263	143.555	84.7009	143.555	85.6397	143.555	84.6779	143.555	85.5312	143.555	84.6912	143.555	85.4014	143.555	84.7443	143.555	85.2557	143.555	84.8361	143.555	85.1041	143.555	84.9597
147.949	85.7837	147.949	85.7052	147.949	85.8489	147.949	85.6164	147.949	85.8983	147.949	85.5199	147.949	85.9301	147.949	85.418	147.949	85.9435	147.949	85.3126	147.949	85.9389	147.949	85.2049	147.949	85.9186	147.949	85.096	147.949	85.8857	147.949	84.9867	147.949	85.8437	147.949	84.8787	147.949	85.7954	147.949	84.7746	147.949	85.7413	147.949	84.679	147.949	85.6791	147.949	84.598	147.949	85.6041	147.949	84.5396	147.949	85.5109	147.949	84.5124	147.949	85.396	147.949	84.5237	147.949	85.2596	147.949	84.5771	147.949	85.1073	147.949	84.6713	147.949	84.9494	147.949	84.7993
153.809	85.6983	153.809	85.6175	153.809	85.7643	153.809	85.5245	153.809	85.8129	153.809	85.4222	153.809	85.8425	153.809	85.3131	153.809	85.8526	153.809	85.1992	153.809	85.844	153.809	85.0821	153.809	85.8191	153.809	84.9631	153.809	85.7813	153.809	84.8436	153.809	85.7345	153.809	84.7256	153.809	85.6817	153.809	84.6124	153.809	85.6234	153.809	84.5087	153.809	85.5572	153.809	84.4214	153.809	85.4783	153.809	84.359	153.809	85.3809	153.809	84.3302	153.809	85.261	153.809	84.3426	153.809	85.1185	153.809	84.3998	153.809	84.9591	153.809	84.4999	153.809	84.7933	153.809	84.6352
159.668	85.7227	159.668	85.6388	159.668	85.7896	159.668	85.5412	159.668	85.837	159.668	85.4329	159.668	85.8628	159.668	85.317	159.668	85.8668	159.668	85.1957	159.668	85.8502	159.668	85.071	159.668	85.8159	159.668	84.9442	159.668	85.7682	159.668	84.817	159.668	85.7117	159.668	84.6913	159.668	85.6498	159.668	84.5704	159.668	85.5835	159.668	84.4593	159.668	85.5106	159.668	84.3651	159.668	85.4258	159.668	84.2965	159.668	85.3233	159.668	84.2627	159.668	85.1988	159.668	84.2713	159.668	85.0525	159.668	84.3262	159.668	84.8897	159.668	84.4256	159.668	84.7213	159.668	84.5616
165.527	85.7343	165.527	85.6488	165.527	85.8007	165.527	85.5476	165.527	85.8453	165.527	85.4342	165.527	85.8662	165.527	85.312	165.527	85.8635	165.527	85.1837	165.527	85.8392	165.527	85.0518	165.527	85.7973	165.527	84.9181	165.527	85.7433	165.527	84.7846	165.527	85.6831	165.527	84.6537	165.527	85.621	165.527	84.529	165.527	85.558	165.527	84.4159	165.527	85.4907	165.527	84.3214	165.527	85.4125	165.527	84.2544	165.527	85.3155	165.527	84.2238	165.527	85.1944	165.527	84.2371	165.527	85.0485	165.527	84.2976	165.527	84.8834	165.527	84.4032	165.527	84.7107	165.527	84.5454
171.387	85.6546	171.387	85.5657	171.387	85.7227	171.387	85.4599	171.387	85.7671	171.387	85.3409	171.387	85.7856	171.387	85.2125	171.387	85.778	171.387	85.0777	171.387	85.7463	171.387	84.9389	171.387	85.6945	171.387	84.7981	171.387	85.6287	171.387	84.6574	171.387	85.5556	171.387	84.5192	171.387	85.4805	171.387	84.3871	171.387	85.4054	171.387	84.2663	171.387	85.3277	171.387	84.1641	171.387	85.2408	171.387	84.0894	171.387	85.1369	171.387	84.0513	171.387	85.01	171.387	84.0575	171.387	84.8596	171.387	84.1119	171.387	84.6913	171.387	84.2128	171.387	84.5171	171.387	84.3522
177.246	85.5454	177.246	85.4507	177.246	85.6186	177.246	85.3387	177.246	85.6669	177.246	85.2136	177.246	85.6881	177.246	85.0794	177.246	85.6819	177.246	84.9396	177.246	85.6503	177.246	84.797	177.246	85.5979	177.246	84.6538	177.246	85.5309	177.246	84.5122	177.246	85.4567	177.246	84.3747	177.246	85.3809	177.246	84.2448	177.246	85.306	177.246	84.1278	177.246	85.2293	177.246	84.0306	177.246	85.1442	177.246	83.9619	177.246	85.0421	177.246	83.9303	177.246	84.9169	177.246	83.9432	177.246	84.7672	177.246	84.004	177.246	84.5985	177.246	84.1105	177.246	84.4225	177.246	84.2544
183.105	85.4073	183.105	85.3067	183.105	85.4834	183.105	85.186	183.105	85.5315	183.105	85.0496	183.105	85.5499	183.105	84.9021	183.105	85.5384	183.105	84.7475	183.105	85.4997	183.105	84.5892	183.105	85.4387	183.105	84.4301	183.105	85.3624	183.105	84.2731	183.105	85.2789	183.105	84.1214	183.105	85.1944	183.105	83.9794	183.105	85.1114	183.105	83.8528	183.105	85.0271	183.105	83.7495	183.105	84.9344	183.105	83.6783	183.105	84.8244	183.105	83.6479	183.105	84.6907	183.105	83.665	183.105	84.5326	183.105	83.732	183.105	84.3559	183.105	83.8457	183.105	84.1723	183.105	83.997
188.965	85.3795	188.965	85.282	188.965	85.4491	188.965	85.1608	188.965	85.4877	188.965	85.0205	188.965	85.4936	188.965	84.8661	188.965	85.4677	188.965	84.7017	188.965	85.4132	188.965	84.5314	188.965	85.3363	188.965	84.3585	188.965	85.2451	188.965	84.1866	188.965	85.1486	188.965	84.0196	188.965	85.0539	188.965	83.8624	188.965	84.964	188.965	83.7218	188.965	84.8757	188.965	83.606	188.965	84.781	188.965	83.5247	188.965	84.6701	188.965	83.487	188.965	84.5357	188.965	83.4996	188.965	84.3762	188.965	83.5649	188.965	84.1974	188.965	83.6792	188.965	84.0109	188.965	83.8327
196.289	85.4132	196.289	85.3148	196.289	85.4818	196.289	85.1915	196.289	85.5172	196.289	85.0485	196.289	85.5176	196.289	84.891	196.289	85.4837	196.289	84.7239	196.289	85.4194	196.289	84.5516	196.289	85.3315	196.289	84.3777	196.289	85.2295	196.289	84.206	196.289	85.1235	196.289	84.0404	196.289	85.0214	196.289	83.8861	196.289	84.9262	196.289	83.7492	196.289	84.8348	196.289	83.6377	196.289	84.7389	196.289	83.56	196.289	84.6291	196.289	83.5239	196.289	84.4985	196.289	83.5351	196.289	84.3463	196.289	83.5948	196.289	84.178	196.289	83.6995	196.289	84.0047	196.289	83.8403
203.613	85.2908	203.613	85.185	203.613	85.3631	203.613	85.0511	203.613	85.3976	203.613	84.8954	203.613	85.392	203.613	84.724	203.613	85.3468	203.613	84.5425	203.613	85.2661	203.613	84.3561	203.613	85.158	203.613	84.1692	203.613	85.0339	203.613	83.9864	203.613	84.9071	203.613	83.8121	203.613	84.7885	203.613	83.6519	203.613	84.6836	203.613	83.5124	203.613	84.59	203.613	83.4013	203.613	84.4979	203.613	83.3266	203.613	84.3953	203.613	83.2952	203.613	84.2726	203.613	83.3115	203.613	84.1268	203.613	83.376	203.613	83.9627	203.613	83.4841	203.613	83.7912	203.613	83.6268
210.938	85.2566	210.938	85.1437	210.938	85.3345	210.938	85.0015	210.938	85.3728	210.938	84.8364	210.938	85.3688	210.938	84.6547	210.938	85.3225	210.938	84.462	210.938	85.2373	210.938	84.2638	210.938	85.1206	210.938	84.0647	210.938	84.9835	210.938	83.8692	210.938	84.8391	210.938	83.6825	210.938	84.6995	210.938	83.5106	210.938	84.5718	210.938	83.3607	210.938	84.4559	210.938	83.2413	210.938	84.3446	210.938	83.1606	210.938	84.2273	210.938	83.1255	210.938	84.0951	210.938	83.1397	210.938	83.9449	210.938	83.2026	210.938	83.7803	210.938	83.3089	210.938	83.6107	210.938	83.449
218.262	85.1896	218.262	85.0752	218.262	85.2672	218.262	84.93	218.262	85.3032	218.262	84.7604	218.262	85.2952	218.262	84.573	218.262	85.2432	218.262	84.374	218.262	85.1515	218.262	84.1686	218.262	85.028	218.262	83.962	218.262	84.8845	218.262	83.7589	218.262	84.7348	218.262	83.5646	218.262	84.591	218.262	83.3855	218.262	84.4597	218.262	83.2291	218.262	84.3399	218.262	83.1039	218.262	84.2236	218.262	83.0184	218.262	84.1001	218.262	82.9795	218.262	83.9612	218.262	82.9907	218.262	83.8044	218.262	83.0515	218.262	83.6344	218.262	83.1568	218.262	83.461	218.262	83.2973
225.586	85.1528	225.586	85.0346	225.586	85.2305	225.586	84.8827	225.586	85.2626	225.586	84.7045	225.586	85.2467	225.586	84.5078	225.586	85.1839	225.586	84.2996	225.586	85.0796	225.586	84.0863	225.586	84.944	225.586	83.8733	225.586	84.7917	225.586	83.6659	225.586	84.6391	225.586	83.4696	225.586	84.5002	225.586	83.2909	225.586	84.382	225.586	83.1379	225.586	84.2819	225.586	83.0194	225.586	84.1886	225.586	82.9443	225.586	84.0876	225.586	82.9193	225.586	83.9672	225.586	82.9475	225.586	83.8226	225.586	83.0268	225.586	83.657	225.586	83.1503	225.586	83.4802	225.586	83.3062
232.91	85.2305	232.91	85.1038	232.91	85.312	232.91	84.9391	232.91	85.3426	232.91	84.7444	232.91	85.3193	232.91	84.528	232.91	85.2425	232.91	84.2977	232.91	85.1174	232.91	84.0608	232.91	84.9544	232.91	83.8242	232.91	84.7695	232.91	83.5944	232.91	84.5817	232.91	83.3782	232.91	84.4086	232.91	83.1835	232.91	84.2607	232.91	83.0189	232.91	84.1375	232.91	82.8933	232.91	84.0285	232.91	82.8147	232.91	83.9188	232.91	82.7884	232.91	83.7956	232.91	82.8157	232.91	83.6532	232.91	82.8927	232.91	83.4937	232.91	83.0113	232.91	83.3252	232.91	83.1599
241.699	85.1121	241.699	84.9796	241.699	85.2004	241.699	84.8103	241.699	85.2384	241.699	84.6127	241.699	85.2226	241.699	84.3948	241.699	85.1531	241.699	84.1642	241.699	85.0345	241.699	83.9277	241.699	84.8764	241.699	83.6911	241.699	84.6936	241.699	83.4599	241.699	84.5039	241.699	83.2402	241.699	84.3237	241.699	83.0389	241.699	84.1633	241.699	82.8647	241.699	84.0227	241.699	82.7269	241.699	83.8931	241.699	82.6342	241.699	83.7609	241.699	82.5928	241.699	83.6151	241.699	82.6052	241.699	83.4516	241.699	82.6693	241.699	83.2746	241.699	82.779	241.699	83.0945	241.699	82.9247
250.488	85.031	250.488	84.8777	250.488	85.131	250.488	84.6802	250.488	85.1712	250.488	84.4486	250.488	85.1477	250.488	84.1936	250.488	85.0615	250.488	83.9255	250.488	84.9188	250.488	83.6541	250.488	84.7321	250.488	83.3874	250.488	84.5201	250.488	83.1328	250.488	84.3046	250.488	82.8969	250.488	84.1054	250.488	82.6864	250.488	83.9337	250.488	82.5084	250.488	83.7881	250.488	82.3709	250.488	83.6564	250.488	82.2813	250.488	83.5222	250.488	82.2457	250.488	83.3721	250.488	82.2669	250.488	83.2011	250.488	82.3434	250.488	83.0129	250.488	82.4686	250.488	82.8183	250.488	82.6317
259.277	85.2769	259.277	85.1248	259.277	85.3741	259.277	84.9265	259.277	85.4096	259.277	84.6921	259.277	85.3794	259.277	84.4315	259.277	85.2834	259.277	84.1547	259.277	85.1269	259.277	83.8706	259.277	84.922	259.277	83.5871	259.277	84.6873	259.277	83.3117	259.277	84.4467	259.277	83.052	259.277	84.2229	259.277	82.8165	259.277	84.0308	259.277	82.6145	259.277	83.8712	259.277	82.4564	259.277	83.7316	259.277	82.3513	259.277	83.5933	259.277	82.306	259.277	83.4408	259.277	82.3225	259.277	83.2676	259.277	82.3981	259.277	83.0769	259.277	82.5246	259.277	82.8795	259.277	82.6901
268.066	85.1469	268.066	84.9783	268.066	85.2581	268.066	84.7621	268.066	85.3041	268.066	84.5094	268.066	85.28	268.066	84.232	268.066	85.1849	268.066	83.9416	268.066	85.0229	268.066	83.6492	268.066	84.8057	268.066	83.3645	268.066	84.5522	268.066	83.0965	268.066	84.2878	268.066	82.8528	268.066	84.0388	268.066	82.6407	268.066	83.8237	268.066	82.4665	268.066	83.6461	268.066	82.3357	268.066	83.4947	268.066	82.2523	268.066	83.3504	268.066	82.2179	268.066	83.1979	268.066	82.2319	268.066	83.0318	268.066	82.2915	268.066	82.8569	268.066	82.3917	268.066	82.6842	268.066	82.5255
276.855	85.0815	276.855	84.9111	276.855	85.1899	276.855	84.6864	276.855	85.2316	276.855	84.4177	276.855	85.2053	276.855	84.1169	276.855	85.113	276.855	83.7975	276.855	84.961	276.855	83.4732	276.855	84.7597	276.855	83.1577	276.855	84.5236	276.855	82.8637	276.855	84.2704	276.855	82.6029	276.855	84.0196	276.855	82.3853	276.855	83.7879	276.855	82.2183	276.855	83.5846	276.855	82.1059	276.855	83.409	276.855	82.0485	276.855	83.2505	276.855	82.0427	276.855	83.0951	276.855	82.0831	276.855	82.9324	276.855	82.1637	276.855	82.7609	276.855	82.279	276.855	82.5873	276.855	82.423
287.109	85.3955	287.109	85.2427	287.109	85.4757	287.109	85.026	287.109	85.4778	287.109	84.7562	287.109	85.4002	287.109	84.4459	287.109	85.2467	287.109	84.1088	287.109	85.0277	287.109	83.7591	287.109	84.7614	287.109	83.4112	287.109	84.4731	287.109	83.079	287.109	84.1915	287.109	82.7758	287.109	83.9413	287.109	82.5142	287.109	83.7359	287.109	82.305	287.109	83.5731	287.109	82.1569	287.109	83.4386	287.109	82.075	287.109	83.3139	287.109	82.0602	287.109	83.1834	287.109	82.1081	287.109	83.0379	287.109	82.2098	287.109	82.8754	287.109	82.3525	287.109	82.6999	287.109	82.5211
297.363	85.3789	297.363	85.2194	297.363	85.4664	297.363	84.9965	297.363	85.4752	297.363	84.7203	297.363	85.4015	297.363	84.4016	297.363	85.2466	297.363	84.0521	297.363	85.0192	297.363	83.6844	297.363	84.7372	297.363	83.3128	297.363	84.4282	297.363	82.9524	297.363	84.1249	297.363	82.62	297.363	83.8562	297.363	82.3319	297.363	83.6359	297.363	82.1032	297.363	83.459	297.363	81.9446	297.363	83.3069	297.363	81.8608	297.363	83.1598	297.363	81.8498	297.363	83.0054	297.363	81.9032	297.363	82.8406	297.363	82.0084	297.363	82.6675	297.363	82.1504	297.363	82.4903	297.363	82.3151
307.617	85.3433	307.617	85.1602	307.617	85.4578	307.617	84.9193	307.617	85.4946	307.617	84.6327	307.617	85.4477	307.617	84.3127	307.617	85.3156	307.617	83.972	307.617	85.1035	307.617	83.6235	307.617	84.825	307.617	83.2812	307.617	84.5039	307.617	82.9601	307.617	84.1718	307.617	82.6765	307.617	83.8619	307.617	82.446	307.617	83.5985	307.617	82.2809	307.617	83.3887	307.617	82.1865	307.617	83.2236	307.617	82.1597	307.617	83.0875	307.617	82.1889	307.617	82.9679	307.617	82.2583	307.617	82.8583	307.617	82.3511	307.617	82.7557	307.617	82.4534	307.617	82.6565	307.617	82.5563
319.336	85.2541	319.336	85.0884	319.336	85.3416	319.336	84.8553	319.336	85.3432	319.336	84.5675	319.336	85.2552	319.336	84.239	319.336	85.0803	319.336	83.8839	319.336	84.8288	319.336	83.5165	319.336	84.5217	319.336	83.1511	319.336	84.1905	319.336	82.8028	319.336	83.8736	319.336	82.488	319.336	83.6063	319.336	82.2237	319.336	83.407	319.336	82.0257	319.336	83.2695	319.336	81.9043	319.336	83.1676	319.336	81.8614	319.336	83.0711	319.336	81.889	319.336	82.9598	319.336	81.9718	319.336	82.8288	319.336	82.0914	319.336	82.6837	319.336	82.2315	319.336	82.5325	319.336	82.3806
329.59	85.4358	329.59	85.2431	329.59	85.5439	329.59	84.9778	329.59	85.558	329.59	84.6541	329.59	85.4723	329.59	84.2874	329.59	85.2864	329.59	83.8939	329.59	85.0077	329.59	83.4898	329.59	84.6544	329.59	83.0916	329.59	84.2572	329.59	82.7158	329.59	83.8572	329.59	82.3793	329.59	83.4975	329.59	82.0992	329.59	83.2083	329.59	81.8904	329.59	82.997	329.59	81.7626	329.59	82.8487	329.59	81.7162	329.59	82.7385	329.59	81.7423	329.59	82.6441	329.59	81.824	329.59	82.5509	329.59	81.9414	329.59	82.4501	329.59	82.0754	329.59	82.337	329.59	82.2106
341.309	85.2992	341.309	85.089	341.309	85.4295	341.309	84.8117	341.309	85.4697	341.309	84.4824	341.309	85.4129	341.309	84.1172	341.309	85.2572	341.309	83.7333	341.309	85.0078	341.309	83.3477	341.309	84.6805	341.309	82.9764	341.309	84.3033	341.309	82.6345	341.309	83.9153	341.309	82.3354	341.309	83.5586	341.309	82.0908	341.309	83.264	341.309	81.91	341.309	83.0397	341.309	81.7984	341.309	82.8715	341.309	81.7562	341.309	82.7367	341.309	81.7766	341.309	82.6178	341.309	81.8468	341.309	82.5068	341.309	81.9493	341.309	82.4003	341.309	82.066	341.309	82.2941	341.309	82.1831
353.027	85.2114	353.027	84.9789	353.027	85.3468	353.027	84.6617	353.027	85.3761	353.027	84.2755	353.027	85.295	353.027	83.8401	353.027	85.1043	353.027	83.3781	353.027	84.8128	353.027	82.915	353.027	84.4401	353.027	82.4776	353.027	84.0196	353.027	82.0917	353.027	83.5963	353.027	81.7785	353.027	83.2189	353.027	81.5518	353.027	82.923	353.027	81.415	353.027	82.7181	353.027	81.3617	353.027	82.5861	353.027	81.3793	353.027	82.4957	353.027	81.4524	353.027	82.4184	353.027	81.5657	353.027	82.3363	353.027	81.704	353.027	82.2407	353.027	81.8523	353.027	82.1277	353.027	81.9967
366.211	85.4079	366.211	85.1922	366.211	85.5243	366.211	84.8857	366.211	85.5349	366.211	84.4995	366.211	85.4358	366.211	84.0473	366.211	85.2271	366.211	83.5466	366.211	84.9157	366.211	83.0196	366.211	84.5194	366.211	82.4939	366.211	84.0689	366.211	82.0025	366.211	83.6063	366.211	81.581	366.211	83.1747	366.211	81.2608	366.211	82.8024	366.211	81.0594	366.211	82.4921	366.211	80.973	366.211	82.2281	366.211	80.9782	366.211	81.9958	366.211	81.0411	366.211	81.7957	366.211	81.1301	366.211	81.638	366.211	81.2228	366.211	81.5259	366.211	81.3067	366.211	81.4465	366.211	81.3791
379.395	85.7752	379.395	85.5541	379.395	85.8944	379.395	85.2416	379.395	85.9028	379.395	84.8502	379.395	85.7949	379.395	84.3946	379.395	85.5702	379.395	83.8921	379.395	85.2366	379.395	83.3642	379.395	84.8147	379.395	82.8376	379.395	84.3402	379.395	82.3441	379.395	83.8623	379.395	81.9178	379.395	83.4328	379.395	81.5892	379.395	83.0878	379.395	81.3767	379.395	82.8348	379.395	81.2818	379.395	82.6554	379.395	81.2892	379.395	82.5222	379.395	81.3742	379.395	82.4139	379.395	81.5094	379.395	82.3168	379.395	81.6694	379.395	82.2198	379.395	81.8326	379.395	82.1114	379.395	81.9827
392.578	85.5949	392.578	85.3538	392.578	85.7409	392.578	85.0297	392.578	85.7801	392.578	84.6353	392.578	85.7022	392.578	84.1844	392.578	85.5001	392.578	83.693	392.578	85.1747	392.578	83.1803	392.578	84.7409	392.578	82.6712	392.578	84.2348	392.578	82.1972	392.578	83.715	392.578	81.7955	392.578	83.2508	392.578	81.5018	392.578	82.8943	392.578	81.3388	392.578	82.6535	392.578	81.3055	392.578	82.4958	392.578	81.377	392.578	82.3805	392.578	81.5154	392.578	82.288	392.578	81.682	392.578	82.2193	392.578	81.845	392.578	82.174	392.578	81.9809	392.578	82.1352	392.578	82.077
405.762	85.2917	405.762	85.0634	405.762	85.4155	405.762	84.7385	405.762	85.4305	405.762	84.3296	405.762	85.3347	405.762	83.8547	405.762	85.1283	405.762	83.3376	405.762	84.8151	405.762	82.8075	405.762	84.4058	405.762	82.2983	405.762	83.9235	405.762	81.8454	405.762	83.4079	405.762	81.4825	405.762	82.9146	405.762	81.2346	405.762	82.502	405.762	81.1108	405.762	82.208	405.762	81.1006	405.762	82.0321	405.762	81.1764	405.762	81.9417	405.762	81.3032	405.762	81.8971	405.762	81.4474	405.762	81.8711	405.762	81.583	405.762	81.8491	405.762	81.6934	405.762	81.82	405.762	81.7714
420.41	85.7598	420.41	85.5055	420.41	85.8958	420.41	85.1404	420.41	85.9068	420.41	84.6728	420.41	85.7882	420.41	84.1128	420.41	85.5402	420.41	83.4746	420.41	85.1703	420.41	82.7817	420.41	84.6973	420.41	82.0738	420.41	84.1532	420.41	81.4133	420.41	83.5803	420.41	80.8824	420.41	83.0209	420.41	80.558	420.41	82.5054	420.41	80.4702	420.41	82.0502	420.41	80.5791	420.41	81.6723	420.41	80.7993	420.41	81.404	420.41	81.0461	420.41	81.2796	420.41	81.2642	420.41	81.2961	420.41	81.4274	420.41	81.3955	420.41	81.5248	420.41	81.4987	420.41	81.5489
435.059	85.4928	435.059	85.2745	435.059	85.6004	435.059	84.9519	435.059	85.5932	435.059	84.5335	435.059	85.4697	435.059	84.0311	435.059	85.2314	435.059	83.4593	435.059	84.8862	435.059	82.8385	435.059	84.4527	435.059	82.1976	435.059	83.9638	435.059	81.5803	435.059	83.4659	435.059	81.0484	435.059	83.0071	435.059	80.6741	435.059	82.6173	435.059	80.5118	435.059	82.295	435.059	80.5633	435.059	82.0185	435.059	80.7685	435.059	81.776	435.059	81.0364	435.059	81.5852	435.059	81.2848	435.059	81.4785	435.059	81.4624	435.059	81.4646	435.059	81.55	435.059	81.5094	435.059	81.5552
451.172	85.9352	451.172	85.6521	451.172	86.0767	451.172	85.2361	451.172	86.0699	451.172	84.6985	451.172	85.9112	451.172	84.0535	451.172	85.6015	451.172	83.3196	451.172	85.1502	451.172	82.5228	451.172	84.5805	451.172	81.7027	451.172	83.9357	451.172	80.9202	451.172	83.2801	451.172	80.2619	451.172	82.6854	451.172	79.8277	451.172	82.2015	451.172	79.6902	451.172	81.8326	451.172	79.8462	451.172	81.5514	451.172	80.2111	451.172	81.3444	451.172	80.6641	451.172	81.237	451.172	81.0958	451.172	81.2609	451.172	81.4293	451.172	81.396	451.172	81.6205	451.172	81.5599	451.172	81.6564
465.82	85.8832	465.82	85.6473	465.82	85.9934	465.82	85.2896	465.82	85.9756	465.82	84.8161	465.82	85.8284	465.82	84.2354	465.82	85.5527	465.82	83.5599	465.82	85.1534	465.82	82.8083	465.82	84.6441	465.82	82.0092	465.82	84.0523	465.82	81.2072	465.82	83.4216	465.82	80.4692	465.82	82.8063	465.82	79.8818	465.82	82.2549	465.82	79.5292	465.82	81.7905	465.82	79.4502	465.82	81.4077	465.82	79.6093	465.82	81.0966	465.82	79.9126	465.82	80.8682	465.82	80.253	465.82	80.7485	465.82	80.5437	465.82	80.7371	465.82	80.7317	465.82	80.7819	465.82	80.8022
483.398	85.8578	483.398	85.6211	483.398	85.9624	483.398	85.2552	483.398	85.9322	483.398	84.7645	483.398	85.7657	483.398	84.1559	483.398	85.4641	483.398	83.4405	483.398	85.0355	483.398	82.6379	483.398	84.5018	483.398	81.7823	483.398	83.903	483.398	80.9322	483.398	83.2946	483.398	80.1766	483.398	82.7309	483.398	79.6261	483.398	82.2387	483.398	79.3705	483.398	81.8102	483.398	79.4254	483.398	81.4323	483.398	79.72	483.398	81.1314	483.398	80.1421	483.398	80.9754	483.398	80.5859	483.398	81.0026	483.398	80.97	483.398	81.154	483.398	81.2362	483.398	81.305	483.398	81.3487
499.512	85.6522	499.512	85.4414	499.512	85.7364	499.512	85.1056	499.512	85.6915	499.512	84.6459	499.512	85.515	499.512	84.0634	499.512	85.207	499.512	83.3621	499.512	84.7738	499.512	82.5539	499.512	84.2345	499.512	81.6692	499.512	83.6263	499.512	80.7725	499.512	83.0041	499.512	79.9748	499.512	82.4274	499.512	79.4183	499.512	81.9337	499.512	79.2082	499.512	81.5214	499.512	79.3365	499.512	81.1712	499.512	79.6914	499.512	80.8957	499.512	80.1404	499.512	80.7584	499.512	80.5838	499.512	80.8105	499.512	80.9551	499.512	81.0032	499.512	81.2026	499.512	81.203	499.512	81.2875
517.09	86.1068	517.09	85.8945	517.09	86.1816	517.09	85.5464	517.09	86.1174	517.09	85.0636	517.09	85.9147	517.09	84.4462	517.09	85.5781	517.09	83.694	517.09	85.1196	517.09	82.8103	517.09	84.5614	517.09	81.811	517.09	83.936	517.09	80.7454	517.09	83.279	517.09	79.7273	517.09	82.6136	517.09	78.9513	517.09	81.9381	517.09	78.6193	517.09	81.2384	517.09	78.7758	517.09	80.544	517.09	79.263	517.09	79.9989	517.09	79.8681	517.09	79.8247	517.09	80.4413	517.09	80.0891	517.09	80.8968	517.09	80.5794	517.09	81.1746	517.09	81.0117	517.09	81.2226
536.133	85.2726	536.133	85.0778	536.133	85.3361	536.133	84.7517	536.133	85.2691	536.133	84.2925	536.133	85.0767	536.133	83.6962	536.133	84.7724	536.133	82.958	536.133	84.3807	536.133	82.079	536.133	83.9367	536.133	81.0801	536.133	83.4779	536.133	80.0282	536.133	83.0277	536.133	79.0699	536.133	82.5741	536.133	78.4299	536.133	82.0594	536.133	78.2914	536.133	81.3989	536.133	78.6287	536.133	80.542	536.133	79.237	536.133	79.5897	536.133	79.9049	536.133	78.9215	536.133	80.4945	536.133	78.9802	536.133	80.9154	536.133	79.6588	536.133	81.0882	536.133	80.43	536.133	80.938
555.176	85.8618	555.176	85.692	555.176	85.8898	555.176	85.3868	555.176	85.766	555.176	84.9429	555.176	85.4841	555.176	84.3436	555.176	85.0519	555.176	83.5587	555.176	84.5017	555.176	82.5458	555.176	83.8998	555.176	81.2569	555.176	83.3401	555.176	79.6649	555.176	82.9037	555.176	77.8536	555.176	82.5888	555.176	76.2507	555.176	82.2719	555.176	75.7096	555.176	81.7488	555.176	76.4791	555.176	80.8172	555.176	77.7582	555.176	79.384	555.176	78.9078	555.176	77.7249	555.176	79.7287	555.176	76.8737	555.176	80.1802	555.176	77.5646	555.176	80.224	555.176	78.836	555.176	79.7906
574.219	86.1625	574.219	86.0477	574.219	86.1653	574.219	85.8382	574.219	86.0333	574.219	85.5373	574.219	85.7477	574.219	85.1309	574.219	85.3053	574.219	84.5871	574.219	84.7298	574.219	83.8578	574.219	84.0862	574.219	82.8803	574.219	83.4866	574.219	81.5807	574.219	83.0575	574.219	79.8954	574.219	82.8486	574.219	77.8671	574.219	82.7557	574.219	75.9654	574.219	82.5567	574.219	75.3352	574.219	82.0169	574.219	76.2867	574.219	80.972	574.219	77.6735	574.219	79.4358	574.219	78.7484	574.219	77.8784	574.219	79.3257	574.219	77.3267	574.219	79.3709	574.219	77.9877	574.219	78.8788
594.727	86.046	594.727	85.8959	594.727	86.0895	594.727	85.673	594.727	85.99	594.727	85.3967	594.727	85.7197	594.727	85.0627	594.727	85.2686	594.727	84.6421	594.727	84.6587	594.727	84.0862	594.727	83.9667	594.727	83.3341	594.727	83.3432	594.727	82.3186	594.727	82.9714	594.727	80.9759	594.727	82.9217	594.727	79.281	594.727	83.0415	594.727	77.3666	594.727	83.049	594.727	75.7944	594.727	82.6872	594.727	75.447	594.727	81.7834	594.727	76.2507	594.727	80.2743	594.727	77.2632	594.727	78.3539	594.727	77.8942	594.727	76.8383	594.727	77.9442	594.727	76.7062	594.727	77.4211
615.234	86.1459	615.234	85.9064	615.234	86.2532	615.234	85.5945	615.234	86.1764	615.234	85.2594	615.234	85.8808	615.234	84.9204	615.234	85.352	615.234	84.5568	615.234	84.6021	615.234	84.1131	615.234	83.6925	615.234	83.5122	615.234	82.7821	615.234	82.6708	615.234	82.1467	615.234	81.5141	615.234	82.0173	615.234	80.0077	615.234	82.3004	615.234	78.2473	615.234	82.627	615.234	76.6559	615.234	82.6419	615.234	75.9821	615.234	82.1255	615.234	76.404	615.234	80.9972	615.234	77.2116	615.234	79.3903	615.234	77.788	615.234	77.8776	615.234	77.8965	615.234	77.3003	615.234	77.5815
637.207	86.2049	637.207	85.8692	637.207	86.4207	637.207	85.4761	637.207	86.4633	637.207	85.083	637.207	86.2901	637.207	84.7176	637.207	85.8665	637.207	84.359	637.207	85.1693	637.207	83.9395	637.207	84.2101	637.207	83.3636	637.207	83.0946	637.207	82.5284	637.207	82.1068	637.207	81.3425	637.207	81.6478	637.207	79.7585	637.207	81.8198	637.207	77.8768	637.207	82.236	637.207	76.1905	637.207	82.4353	637.207	75.5645	637.207	82.1528	637.207	76.1022	637.207	81.3055	637.207	76.9762	637.207	79.9954	637.207	77.6085	637.207	78.6293	637.207	77.8354	637.207	77.8441	637.207	77.7647
659.18	85.8232	659.18	85.4404	659.18	86.0818	659.18	84.9977	659.18	86.1634	659.18	84.5586	659.18	86.0276	659.18	84.161	659.18	85.6453	659.18	83.7931	659.18	85.0029	659.18	83.3927	659.18	84.1191	659.18	82.8696	659.18	83.0874	659.18	82.131	659.18	82.1369	659.18	81.095	659.18	81.5971	659.18	79.7023	659.18	81.5999	659.18	77.9616	659.18	81.8603	659.18	76.0941	659.18	81.9423	659.18	74.756	659.18	81.5395	659.18	74.6387	659.18	80.5214	659.18	75.3922	659.18	78.973	659.18	76.1773	659.18	77.3804	659.18	76.5572	659.18	76.5446	659.18	76.5227
682.617	85.8159	682.617	85.3833	682.617	86.0997	682.617	84.8763	682.617	86.1839	682.617	84.383	682.617	86.0338	682.617	83.9705	682.617	85.6225	682.617	83.6438	682.617	84.9292	682.617	83.337	682.617	83.956	682.617	82.9432	682.617	82.7798	682.617	82.3515	682.617	81.6613	682.617	81.4688	682.617	81.0726	682.617	80.2412	682.617	81.2726	682.617	78.7025	682.617	81.8772	682.617	77.0685	682.617	82.2921	682.617	75.7935	682.617	82.1345	682.617	75.283	682.617	81.2253	682.617	75.424	682.617	79.5639	682.617	75.7516	682.617	77.5203	682.617	75.8848	682.617	76.0738	682.617	75.7858
707.52	86.2068	707.52	85.6408	707.52	86.587	707.52	84.9784	707.52	86.7299	707.52	84.3458	707.52	86.6053	707.52	83.8637	707.52	86.1883	707.52	83.5716	707.52	85.4515	707.52	83.3859	707.52	84.3703	707.52	83.137	707.52	82.9603	707.52	82.6333	707.52	81.4037	707.52	81.6946	707.52	80.2815	707.52	80.1677	707.52	80.2929	707.52	77.9934	707.52	81.1352	707.52	75.5374	707.52	81.8901	707.52	74.1675	707.52	82.0132	707.52	74.6166	707.52	81.305	707.52	75.4877	707.52	79.7478	707.52	75.9001	707.52	77.6333	707.52	75.7963	707.52	75.9173	707.52	75.5088
732.422	86.2985	732.422	85.662	732.422	86.6937	732.422	84.8645	732.422	86.8186	732.422	84.0525	732.422	86.6728	732.422	83.4167	732.422	86.2605	732.422	83.0908	732.422	85.5718	732.422	83.0313	732.422	84.5762	732.422	83.0338	732.422	83.2501	732.422	82.8628	732.422	81.6869	732.422	82.3346	732.422	80.3492	732.422	81.3235	732.422	80.0444	732.422	79.7507	732.422	80.7852	732.422	77.6126	732.422	81.6592	732.422	75.1452	732.422	82.0218	732.422	73.1863	732.422	81.6275	732.422	72.6925	732.422	80.3903	732.422	73.1142	732.422	78.3619	732.422	73.5568	732.422	75.9798	732.422	74.2496
757.324	86.4526	757.324	85.8159	757.324	86.8311	757.324	84.9616	757.324	86.945	757.324	83.9933	757.324	86.803	757.324	83.1046	757.324	86.4124	757.324	82.5301	757.324	85.7643	757.324	82.3624	757.324	84.8256	757.324	82.4364	757.324	83.5512	757.324	82.4722	757.324	81.9464	757.324	82.2424	757.324	80.2648	757.324	81.6014	757.324	79.3061	757.324	80.4596	757.324	79.7592	757.324	78.7944	757.324	80.9257	757.324	76.7683	757.324	81.817	757.324	74.9839	757.324	81.9965	757.324	74.2692	757.324	81.3392	757.324	74.5226	757.324	79.8952	757.324	75.1522	757.324	77.9761	757.324	76.2339
785.156	86.815	785.156	86.2308	785.156	87.1468	785.156	85.4334	785.156	87.2144	785.156	84.4996	785.156	87.0245	785.156	83.5642	785.156	86.5925	785.156	82.8229	785.156	85.929	785.156	82.4383	785.156	85.0265	785.156	82.3707	785.156	83.8508	785.156	82.3721	785.156	82.3525	785.156	82.163	785.156	80.5636	785.156	81.552	785.156	78.9177	785.156	80.4599	785.156	78.4585	785.156	78.9324	785.156	79.3795	785.156	77.163	785.156	80.5106	785.156	75.4791	785.156	81.0529	785.156	74.2836	785.156	80.7573	785.156	73.9504	785.156	79.6197	785.156	74.5781	785.156	77.8633	785.156	75.9933
811.523	86.1385	811.523	85.7316	811.523	86.3544	811.523	85.1292	811.523	86.3752	811.523	84.3359	811.523	86.1905	811.523	83.4043	811.523	85.7923	811.523	82.4779	811.523	85.1758	811.523	81.7686	811.523	84.3317	811.523	81.404	811.523	83.2492	811.523	81.2901	811.523	81.9533	811.523	81.2012	811.523	80.5742	811.523	80.9514	811.523	79.3793	811.523	80.4579	811.523	78.6689	811.523	79.7281	811.523	78.5993	811.523	78.8381	811.523	79.0457	811.523	77.9342	811.523	79.5821	811.523	77.2435	811.523	79.7698	811.523	76.998	811.523	79.4393	811.523	77.2586	811.523	78.7178	811.523	77.8987
840.82	86.2086	840.82	85.9296	840.82	86.3096	840.82	85.4374	840.82	86.2678	840.82	84.7203	840.82	86.1029	840.82	83.8251	840.82	85.8083	840.82	82.8883	840.82	85.3462	840.82	82.0982	840.82	84.6523	840.82	81.5435	840.82	83.6561	840.82	81.1084	840.82	82.3291	840.82	80.5888	840.82	80.7847	840.82	79.8758	840.82	79.4011	840.82	79.045	840.82	78.6882	840.82	78.3136	840.82	78.7505	840.82	77.8308	840.82	79.2122	840.82	77.5267	840.82	79.6185	840.82	77.2959	840.82	79.6347	840.82	77.2074	840.82	79.1835	840.82	77.3897	840.82	78.4844	840.82	77.8379
870.117	85.8629	870.117	85.6748	870.117	85.8608	870.117	85.2317	870.117	85.7332	870.117	84.5039	870.117	85.5157	870.117	83.5357	870.117	85.2066	870.117	82.4846	870.117	84.7738	870.117	81.6114	870.117	84.1613	870.117	81.1114	870.117	83.2952	870.117	80.8887	870.117	82.1262	870.117	80.6149	870.117	80.7301	870.117	79.9718	870.117	79.3918	870.117	78.8135	870.117	78.449	870.117	77.3378	870.117	77.9798	870.117	76.2581	870.117	77.898	870.117	76.1501	870.117	78.0867	870.117	76.5528	870.117	78.2525	870.117	76.892	870.117	78.126	870.117	77.1077	870.117	77.7488	870.117	77.3648
900.879	86.2082	900.879	86.1267	900.879	85.9958	900.879	85.6546	900.879	85.6154	900.879	84.7557	900.879	85.1801	900.879	83.4875	900.879	84.742	900.879	82.0417	900.879	84.2691	900.879	80.7356	900.879	83.6607	900.879	79.8398	900.879	82.7949	900.879	79.3442	900.879	81.6086	900.879	79.0171	900.879	80.2101	900.879	78.6599	900.879	78.9402	900.879	78.2191	900.879	78.1518	900.879	77.7364	900.879	77.8296	900.879	77.2568	900.879	77.7141	900.879	76.8321	900.879	77.6096	900.879	76.6185	900.879	77.4411	900.879	76.7908	900.879	77.3294	900.879	77.1992	900.879	77.4052	900.879	77.4492
933.105	85.9691	933.105	85.8945	933.105	85.7301	933.105	85.4508	933.105	85.2655	933.105	84.6159	933.105	84.6945	933.105	83.417	933.105	84.1337	933.105	81.9615	933.105	83.6301	933.105	80.4699	933.105	83.116	933.105	79.2406	933.105	82.4436	933.105	78.4445	933.105	81.4956	933.105	77.9178	933.105	80.3132	933.105	77.3019	933.105	79.1583	933.105	76.3906	933.105	78.3216	933.105	75.426	933.105	77.7422	933.105	75.048	933.105	77.1077	933.105	75.38	933.105	76.2844	933.105	75.7974	933.105	75.4078	933.105	75.9013	933.105	74.8319	933.105	75.7063	933.105	74.8803	933.105	75.313
965.332	86.1289	965.332	85.9198	965.332	85.9566	965.332	85.29	965.332	85.5172	965.332	84.2747	965.332	84.9696	965.332	82.9871	965.332	84.4338	965.332	81.6327	965.332	83.9036	965.332	80.4915	965.332	83.246	965.332	79.7691	965.332	82.2861	965.332	79.3576	965.332	80.922	965.332	78.8332	965.332	79.2823	965.332	77.7283	965.332	77.9179	965.332	75.8275	965.332	77.4954	965.332	73.8299	965.332	77.8133	965.332	73.7664	965.332	78.0807	965.332	75.1328	965.332	77.7105	965.332	75.9336	965.332	76.4017	965.332	75.7258	965.332	74.4477	965.332	74.8375	965.332	73.3136	965.332	73.7924
1,000.49	86.5252	1,000.49	86.3905	1,000.49	86.2045	1,000.49	85.7447	1,000.49	85.5426	1,000.49	84.5926	1,000.49	84.7053	1,000.49	83.0154	1,000.49	83.8728	1,000.49	81.1993	1,000.49	83.1616	1,000.49	79.4477	1,000.49	82.5555	1,000.49	78.1374	1,000.49	81.9208	1,000.49	77.5575	1,000.49	81.103	1,000.49	77.61	1,000.49	80.0269	1,000.49	77.7471	1,000.49	78.7383	1,000.49	77.3541	1,000.49	77.4256	1,000.49	76.0551	1,000.49	76.4874	1,000.49	74.0026	1,000.49	76.278	1,000.49	72.7584	1,000.49	76.3517	1,000.49	73.5876	1,000.49	75.8936	1,000.49	74.5854	1,000.49	74.7793	1,000.49	74.6627	1,000.49	73.8988	1,000.49	74.0972
1,035.64	86.5836	1,035.64	86.4479	1,035.64	86.2423	1,035.64	85.8009	1,035.64	85.5263	1,035.64	84.655	1,035.64	84.6283	1,035.64	83.0628	1,035.64	83.7887	1,035.64	81.115	1,035.64	83.1347	1,035.64	78.9557	1,035.64	82.5458	1,035.64	76.9014	1,035.64	81.745	1,035.64	75.651	1,035.64	80.5497	1,035.64	75.7071	1,035.64	79.122	1,035.64	76.3197	1,035.64	78.0075	1,035.64	76.5079	1,035.64	77.47	1,035.64	75.9333	1,035.64	77.0537	1,035.64	74.8191	1,035.64	76.4758	1,035.64	73.9323	1,035.64	75.9288	1,035.64	73.9921	1,035.64	75.3167	1,035.64	74.5801	1,035.64	74.5148	1,035.64	74.889	1,035.64	74.212	1,035.64	74.6251
1,072.27	86.1023	1,072.27	85.8626	1,072.27	85.8142	1,072.27	85.0906	1,072.27	85.0732	1,072.27	83.8349	1,072.27	84.0704	1,072.27	82.2376	1,072.27	83.0855	1,072.27	80.58	1,072.27	82.3317	1,072.27	79.2409	1,072.27	81.7876	1,072.27	78.5006	1,072.27	81.2052	1,072.27	78.2122	1,072.27	80.3168	1,072.27	77.785	1,072.27	79.0509	1,072.27	76.6849	1,072.27	77.6482	1,072.27	74.7815	1,072.27	76.6063	1,072.27	72.5765	1,072.27	76.2476	1,072.27	71.5072	1,072.27	76.3182	1,072.27	72.3059	1,072.27	76.1577	1,072.27	73.626	1,072.27	75.1277	1,072.27	74.443	1,072.27	73.3529	1,072.27	74.4483	1,072.27	72.6307	1,072.27	73.6086
1,108.89	85.635	1,108.89	85.4008	1,108.89	85.3844	1,108.89	84.69	1,108.89	84.7332	1,108.89	83.5706	1,108.89	83.8762	1,108.89	82.1679	1,108.89	83.0405	1,108.89	80.6689	1,108.89	82.3606	1,108.89	79.3577	1,108.89	81.8104	1,108.89	78.5884	1,108.89	81.2138	1,108.89	78.3228	1,108.89	80.3802	1,108.89	77.9559	1,108.89	79.2607	1,108.89	76.9914	1,108.89	77.9706	1,108.89	75.4372	1,108.89	76.7301	1,108.89	73.7583	1,108.89	75.9841	1,108.89	72.5033	1,108.89	76.1975	1,108.89	71.907	1,108.89	76.5797	1,108.89	72.0785	1,108.89	75.8057	1,108.89	72.7579	1,108.89	73.5068	1,108.89	73.0525	1,108.89	71.5869	1,108.89	72.3039
1,148.44	85.9598	1,148.44	85.5903	1,148.44	85.9289	1,148.44	84.9286	1,148.44	85.4658	1,148.44	84.0957	1,148.44	84.6483	1,148.44	83.1691	1,148.44	83.6337	1,148.44	82.156	1,148.44	82.6103	1,148.44	81.0529	1,148.44	81.7211	1,148.44	79.9555	1,148.44	80.9186	1,148.44	79.0085	1,148.44	80.0113	1,148.44	78.1654	1,148.44	78.9887	1,148.44	77.1422	1,148.44	78.0909	1,148.44	75.6722	1,148.44	77.3173	1,148.44	73.7187	1,148.44	76.4969	1,148.44	71.6721	1,148.44	76.2471	1,148.44	70.6514	1,148.44	76.5945	1,148.44	71.4394	1,148.44	75.8905	1,148.44	72.8993	1,148.44	73.5647	1,148.44	73.7237	1,148.44	72.2074	1,148.44	73.2843
1,189.45	85.6596	1,189.45	85.4283	1,189.45	85.4614	1,189.45	84.8463	1,189.45	84.8714	1,189.45	84.0396	1,189.45	84.0347	1,189.45	83.091	1,189.45	83.1159	1,189.45	82.0345	1,189.45	82.247	1,189.45	81.0002	1,189.45	81.5282	1,189.45	80.218	1,189.45	80.9278	1,189.45	79.6384	1,189.45	80.2502	1,189.45	78.9127	1,189.45	79.3565	1,189.45	77.8521	1,189.45	78.2324	1,189.45	76.5081	1,189.45	76.7664	1,189.45	74.9254	1,189.45	75.2974	1,189.45	73.1359	1,189.45	75.7392	1,189.45	71.6709	1,189.45	76.9478	1,189.45	71.4109	1,189.45	76.0493	1,189.45	71.8198	1,189.45	72.002	1,189.45	71.8077	1,189.45	67.8796	1,189.45	70.3947
1,230.47	85.5681	1,230.47	85.4694	1,230.47	85.3369	1,230.47	85.2251	1,230.47	84.7012	1,230.47	84.8626	1,230.47	83.815	1,230.47	84.1485	1,230.47	82.8999	1,230.47	82.7835	1,230.47	82.034	1,230.47	80.7863	1,230.47	81.0884	1,230.47	78.9263	1,230.47	79.8309	1,230.47	78.079	1,230.47	78.4717	1,230.47	77.6408	1,230.47	78.0509	1,230.47	76.8708	1,230.47	78.4369	1,230.47	76.0085	1,230.47	77.9827	1,230.47	75.3366	1,230.47	75.9855	1,230.47	74.1289	1,230.47	75.6555	1,230.47	71.3956	1,230.47	77.6148	1,230.47	69.1337	1,230.47	77.5071	1,230.47	69.4834	1,230.47	74.4366	1,230.47	66.9771	1,230.47	67.3087	1,230.47	53.6258
1,274.41	85.9628	1,274.41	85.71	1,274.41	85.9585	1,274.41	85.4092	1,274.41	85.6014	1,274.41	85.126	1,274.41	84.9805	1,274.41	84.6426	1,274.41	84.1837	1,274.41	83.5801	1,274.41	83.2019	1,274.41	81.6552	1,274.41	82.0311	1,274.41	79.1784	1,274.41	80.6135	1,274.41	77.7308	1,274.41	79.015	1,274.41	77.6224	1,274.41	78.1775	1,274.41	76.9016	1,274.41	78.6364	1,274.41	75.2903	1,274.41	78.7673	1,274.41	74.9634	1,274.41	76.7825	1,274.41	76.1487	1,274.41	72.0012	1,274.41	75.7947	1,274.41	74.2337	1,274.41	72.2324	1,274.41	77.7462	1,274.41	65.2508	1,274.41	78.0294	1,274.41	63.8326	1,274.41	75.6363	1,274.41	70.4372
1,319.82	86.1405	1,319.82	86.2022	1,319.82	86.0091	1,319.82	86.0797	1,319.82	85.7706	1,319.82	85.6426	1,319.82	85.291	1,319.82	84.8271	1,319.82	84.4809	1,319.82	83.5822	1,319.82	83.4389	1,319.82	81.8588	1,319.82	82.4188	1,319.82	79.7322	1,319.82	81.2903	1,319.82	77.8428	1,319.82	79.4652	1,319.82	77.3385	1,319.82	77.5293	1,319.82	77.3054	1,319.82	77.908	1,319.82	76.1714	1,319.82	79.2797	1,319.82	74.6269	1,319.82	79.2368	1,319.82	75.9472	1,319.82	76.9193	1,319.82	78.0552	1,319.82	73.7715	1,319.82	77.9296	1,319.82	74.2465	1,319.82	75.6572	1,319.82	75.0616	1,319.82	73.2822	1,319.82	74.3857	1,319.82	73.174
1,366.7	86.2636	1,366.7	86.4058	1,366.7	85.9299	1,366.7	86.2706	1,366.7	85.5107	1,366.7	85.7436	1,366.7	85.044	1,366.7	84.6642	1,366.7	84.4217	1,366.7	82.8114	1,366.7	83.598	1,366.7	80.0953	1,366.7	82.6621	1,366.7	77.3211	1,366.7	81.3891	1,366.7	76.0012	1,366.7	79.2097	1,366.7	75.5328	1,366.7	76.4683	1,366.7	74.9012	1,366.7	75.7815	1,366.7	73.7796	1,366.7	77.1385	1,366.7	71.5044	1,366.7	78.0316	1,366.7	70.9917	1,366.7	78.0155	1,366.7	75.0589	1,366.7	76.863	1,366.7	77.3658	1,366.7	75.3592	1,366.7	77.1091	1,366.7	74.2436	1,366.7	75.0708	1,366.7	72.9797	1,366.7	73.07
1,413.57	86.618	1,413.57	86.772	1,413.57	85.7095	1,413.57	85.9482	1,413.57	85.115	1,413.57	84.8458	1,413.57	85.2411	1,413.57	84.1662	1,413.57	85.2218	1,413.57	83.5154	1,413.57	84.4408	1,413.57	82.0048	1,413.57	83.0874	1,413.57	79.5356	1,413.57	81.3939	1,413.57	77.2281	1,413.57	78.9653	1,413.57	76.974	1,413.57	75.5881	1,413.57	77.92	1,413.57	73.7672	1,413.57	77.7172	1,413.57	76.254	1,413.57	75.6114	1,413.57	78.6259	1,413.57	73.6353	1,413.57	78.6141	1,413.57	75.4944	1,413.57	75.4599	1,413.57	76.4087	1,413.57	72.6455	1,413.57	75.0767	1,413.57	74.0354	1,413.57	73.3897	1,413.57	74.4776	1,413.57	73.657
1,463.38	86.7216	1,463.38	86.9422	1,463.38	86.1991	1,463.38	86.4625	1,463.38	85.9509	1,463.38	85.4049	1,463.38	85.5153	1,463.38	84.0337	1,463.38	84.2549	1,463.38	82.9415	1,463.38	82.3359	1,463.38	82.4026	1,463.38	81.0146	1,463.38	81.8666	1,463.38	80.8874	1,463.38	80.5233	1,463.38	80.548	1,463.38	79.0381	1,463.38	78.8307	1,463.38	79.738	1,463.38	76.4447	1,463.38	80.235	1,463.38	75.5709	1,463.38	78.0415	1,463.38	75.9291	1,463.38	72.0553	1,463.38	77.0098	1,463.38	73.0524	1,463.38	76.3975	1,463.38	76.8189	1,463.38	73.6677	1,463.38	77.9044	1,463.38	72.2076	1,463.38	77.7699	1,463.38	74.4475	1,463.38	76.7385
1,516.11	86.8529	1,516.11	86.7964	1,516.11	86.8888	1,516.11	86.4058	1,516.11	86.7589	1,516.11	85.4392	1,516.11	85.7464	1,516.11	83.9051	1,516.11	83.9016	1,516.11	82.4992	1,516.11	82.3932	1,516.11	81.9362	1,516.11	81.9819	1,516.11	81.7698	1,516.11	81.9623	1,516.11	81.0452	1,516.11	81.4542	1,516.11	79.7367	1,516.11	79.946	1,516.11	79.4089	1,516.11	78.005	1,516.11	79.6923	1,516.11	77.6734	1,516.11	78.361	1,516.11	77.2376	1,516.11	74.0026	1,516.11	75.1435	1,516.11	69.5952	1,516.11	74.5476	1,516.11	75.1925	1,516.11	75.4674	1,516.11	77.3678	1,516.11	75.4643	1,516.11	77.1867	1,516.11	74.2738	1,516.11	75.512
1,568.85	86.6631	1,568.85	86.7001	1,568.85	86.7884	1,568.85	86.6961	1,568.85	86.6846	1,568.85	86.0313	1,568.85	85.915	1,568.85	84.436	1,568.85	84.6423	1,568.85	82.4891	1,568.85	83.5386	1,568.85	81.2371	1,568.85	82.7671	1,568.85	80.5879	1,568.85	81.9526	1,568.85	79.3977	1,568.85	80.7602	1,568.85	77.447	1,568.85	79.345	1,568.85	77	1,568.85	78.4928	1,568.85	78.6244	1,568.85	78.6513	1,568.85	79.4192	1,568.85	78.6293	1,568.85	77.4441	1,568.85	77.4158	1,568.85	72.6676	1,568.85	75.3995	1,568.85	76.2347	1,568.85	74.417	1,568.85	77.8343	1,568.85	74.6023	1,568.85	76.0366	1,568.85	73.4404	1,568.85	73.5673
1,624.51	85.7672	1,624.51	86.2323	1,624.51	85.7912	1,624.51	86.4206	1,624.51	86.3621	1,624.51	85.678	1,624.51	86.5453	1,624.51	84.0229	1,624.51	85.8341	1,624.51	82.3356	1,624.51	84.5595	1,624.51	81.4909	1,624.51	82.9947	1,624.51	80.9396	1,624.51	81.42	1,624.51	79.4584	1,624.51	80.1954	1,624.51	76.3452	1,624.51	79.0901	1,624.51	71.8008	1,624.51	77.5015	1,624.51	73.8101	1,624.51	75.7116	1,624.51	78.5058	1,624.51	76.0184	1,624.51	79.5017	1,624.51	76.9125	1,624.51	76.5427	1,624.51	76.4658	1,624.51	75.1388	1,624.51	74.3017	1,624.51	76.635	1,624.51	73.0634	1,624.51	76.1099	1,624.51	74.6842	1,624.51	75.3375
1,681.64	85.3321	1,681.64	85.7353	1,681.64	85.9058	1,681.64	86.2802	1,681.64	86.4488	1,681.64	85.7353	1,681.64	86.2593	1,681.64	84.0388	1,681.64	85.8914	1,681.64	81.75	1,681.64	85.4683	1,681.64	79.9174	1,681.64	84.0252	1,681.64	80.3027	1,681.64	81.4621	1,681.64	80.0338	1,681.64	79.2298	1,681.64	77.216	1,681.64	78.7371	1,681.64	72.561	1,681.64	79.2306	1,681.64	69.2805	1,681.64	78.6523	1,681.64	72.0226	1,681.64	76.3526	1,681.64	74.5323	1,681.64	75.1619	1,681.64	75.4016	1,681.64	75.2225	1,681.64	76.6002	1,681.64	74.3144	1,681.64	77.3144	1,681.64	69.5281	1,681.64	76.0289	1,681.64	68.7041	1,681.64	73.6272
1,741.7	86.8325	1,741.7	86.3784	1,741.7	86.5627	1,741.7	85.5923	1,741.7	86.4196	1,741.7	85.3282	1,741.7	86.7568	1,741.7	85.287	1,741.7	86.7332	1,741.7	84.4114	1,741.7	85.8743	1,741.7	81.1825	1,741.7	83.8521	1,741.7	75.1751	1,741.7	80.5867	1,741.7	73.3038	1,741.7	76.757	1,741.7	72.5163	1,741.7	73.702	1,741.7	71.8482	1,741.7	74.4536	1,741.7	71.0411	1,741.7	76.6003	1,741.7	61.9893	1,741.7	75.5512	1,741.7	69.8776	1,741.7	74.6504	1,741.7	75.0395	1,741.7	78.3645	1,741.7	78.4574	1,741.7	78.7278	1,741.7	79.276	1,741.7	73.2921	1,741.7	76.5924	1,741.7	57.1358	1,741.7	70.6195
1,803.22	86.1547	1,803.22	86.9227	1,803.22	86.2021	1,803.22	86.2763	1,803.22	87.3199	1,803.22	84.4461	1,803.22	86.9763	1,803.22	83.6726	1,803.22	85.2775	1,803.22	83.6881	1,803.22	84.2997	1,803.22	82.2238	1,803.22	83.7896	1,803.22	79.2475	1,803.22	82.4179	1,803.22	76.4828	1,803.22	80.2531	1,803.22	75.6039	1,803.22	77.9885	1,803.22	78.4872	1,803.22	76.8749	1,803.22	80.2954	1,803.22	78.2532	1,803.22	76.9765	1,803.22	78.0676	1,803.22	68.0288	1,803.22	73.3676	1,803.22	69.5886	1,803.22	77.3555	1,803.22	75.0833	1,803.22	80.1835	1,803.22	78.3245	1,803.22	77.1165	1,803.22	77.0466	1,803.22	67.026	1,803.22	66.668
1,866.21	85.782	1,866.21	86.1235	1,866.21	86.0634	1,866.21	86.0022	1,866.21	86.5731	1,866.21	84.9371	1,866.21	86.3117	1,866.21	83.5746	1,866.21	85.6119	1,866.21	82.5686	1,866.21	84.6766	1,866.21	80.9735	1,866.21	83.2634	1,866.21	78.6795	1,866.21	81.3855	1,866.21	78.1304	1,866.21	78.9955	1,866.21	78.2165	1,866.21	76.0488	1,866.21	78.4852	1,866.21	73.114	1,866.21	80.7113	1,866.21	76.4635	1,866.21	79.3204	1,866.21	78.8327	1,866.21	70.93	1,866.21	75.4838	1,866.21	59.3757	1,866.21	74.5216	1,866.21	71.1384	1,866.21	79.1143	1,866.21	76.3559	1,866.21	78.2103	1,866.21	75.7484	1,866.21	73.2418	1,866.21	63.2511
1,932.13	85.3482	1,932.13	85.0975	1,932.13	86.1085	1,932.13	85.0243	1,932.13	86.3765	1,932.13	84.4968	1,932.13	86.1183	1,932.13	83.043	1,932.13	85.8808	1,932.13	81.0802	1,932.13	84.4641	1,932.13	80.254	1,932.13	81.6572	1,932.13	80.4092	1,932.13	78.5538	1,932.13	80.2724	1,932.13	74.979	1,932.13	79.3935	1,932.13	71.4747	1,932.13	76.8777	1,932.13	70.3741	1,932.13	78.2799	1,932.13	74.7501	1,932.13	79.4993	1,932.13	78.4996	1,932.13	75.6557	1,932.13	76.6427	1,932.13	67.9147	1,932.13	73.9452	1,932.13	67.5925	1,932.13	77.2477	1,932.13	75.1613	1,932.13	77.3933	1,932.13	73.4051	1,932.13	74.5065	1,932.13	60.917
1,999.51	85.5635	1,999.51	84.3836	1,999.51	86.2739	1,999.51	83.9977	1,999.51	85.9542	1,999.51	83.7667	1,999.51	86.0757	1,999.51	82.1868	1,999.51	86.1769	1,999.51	79.2665	1,999.51	83.8379	1,999.51	78.5973	1,999.51	78.7709	1,999.51	80.2634	1,999.51	74.9409	1,999.51	81.7368	1,999.51	75.8649	1,999.51	82.1682	1,999.51	75.2794	1,999.51	79.8448	1,999.51	69.4869	1,999.51	76.1946	1,999.51	64.6738	1,999.51	76.8825	1,999.51	75.3972	1,999.51	73.8374	1,999.51	76.3422	1,999.51	68.3469	1,999.51	73.2922	1,999.51	64.9448	1,999.51	75.3891	1,999.51	74.1564	1,999.51	76.0903	1,999.51	71.5931	1,999.51	72.5926	1,999.51	61.4037
2,069.82	85.1732	2,069.82	83.9983	2,069.82	85.736	2,069.82	83.6266	2,069.82	85.947	2,069.82	83.6973	2,069.82	86.7004	2,069.82	82.4596	2,069.82	85.8754	2,069.82	79.2892	2,069.82	81.6125	2,069.82	77.3125	2,069.82	77.695	2,069.82	78.3981	2,069.82	79.117	2,069.82	78.7513	2,069.82	80.0711	2,069.82	79.1675	2,069.82	79.6677	2,069.82	77.5341	2,069.82	77.8768	2,069.82	70.4144	2,069.82	72.7279	2,069.82	64.3302	2,069.82	67.6168	2,069.82	68.0492	2,069.82	69.5737	2,069.82	70.5404	2,069.82	70.1921	2,069.82	63.8109	2,069.82	73.4215	2,069.82	72.5631	2,069.82	75.2031	2,069.82	64.6625	2,069.82	73.4262	2,069.82	66.7114
2,143.07	84.707	2,143.07	83.3042	2,143.07	85.9287	2,143.07	82.7599	2,143.07	86.2787	2,143.07	82.435	2,143.07	85.8629	2,143.07	81.1141	2,143.07	83.9805	2,143.07	79.0145	2,143.07	81.0056	2,143.07	76.783	2,143.07	79.289	2,143.07	74.2862	2,143.07	77.5585	2,143.07	69.5668	2,143.07	75.2848	2,143.07	64.8255	2,143.07	72.2196	2,143.07	62.648	2,143.07	71.5376	2,143.07	66.2463	2,143.07	72.5785	2,143.07	68.3829	2,143.07	74.2758	2,143.07	73.6827	2,143.07	72.7537	2,143.07	73.2334	2,143.07	66.4995	2,143.07	57.3183	2,143.07	69.1979	2,143.07	63.2546	2,143.07	73.2655	2,143.07	64.343	2,143.07	71.7224	2,143.07	68.251
2,219.24	84.7353	2,219.24	82.683	2,219.24	86.2467	2,219.24	81.7341	2,219.24	86.2186	2,219.24	81.1253	2,219.24	85.1341	2,219.24	80.1851	2,219.24	83.2463	2,219.24	80.0931	2,219.24	80.8678	2,219.24	78.8727	2,219.24	78.0409	2,219.24	73.1867	2,219.24	73.0816	2,219.24	66.2821	2,219.24	69.5883	2,219.24	68.7332	2,219.24	68.2992	2,219.24	71.3169	2,219.24	63.1283	2,219.24	70.4388	2,219.24	66.9848	2,219.24	65.0693	2,219.24	72.1208	2,219.24	71.0828	2,219.24	69.9726	2,219.24	74.1857	2,219.24	66.0083	2,219.24	70.1579	2,219.24	69.6504	2,219.24	69.4205	2,219.24	66.7818	2,219.24	68.4558	2,219.24	67.769	2,219.24	67.2568
2,296.88	84.3225	2,296.88	82.3036	2,296.88	85.6474	2,296.88	81.0431	2,296.88	86.1399	2,296.88	80.6393	2,296.88	85.1962	2,296.88	79.3812	2,296.88	82.151	2,296.88	78.3808	2,296.88	78.8606	2,296.88	78.988	2,296.88	76.8262	2,296.88	77.1013	2,296.88	73.377	2,296.88	70.8984	2,296.88	71.4833	2,296.88	62.7034	2,296.88	69.9004	2,296.88	70.143	2,296.88	71.0926	2,296.88	73.7302	2,296.88	66.3693	2,296.88	72.4177	2,296.88	67.7089	2,296.88	68.3007	2,296.88	74.1618	2,296.88	69.7634	2,296.88	66.3042	2,296.88	69.3912	2,296.88	71.5746	2,296.88	72.4576	2,296.88	74.347	2,296.88	70.6245	2,296.88	71.4263	2,296.88	56.1112
2,378.91	84.7229	2,378.91	81.0637	2,378.91	86.3161	2,378.91	78.6801	2,378.91	85.6415	2,378.91	79.4154	2,378.91	83.8064	2,378.91	80.2917	2,378.91	81.3612	2,378.91	78.4655	2,378.91	77.6241	2,378.91	76.053	2,378.91	71.2946	2,378.91	75.8528	2,378.91	73.7188	2,378.91	72.3331	2,378.91	76.7197	2,378.91	63.1604	2,378.91	74.2188	2,378.91	66.2533	2,378.91	70.9047	2,378.91	74.0751	2,378.91	71.6596	2,378.91	72.5081	2,378.91	58.5834	2,378.91	70.4108	2,378.91	69.8361	2,378.91	68.5	2,378.91	70.8386	2,378.91	60.6353	2,378.91	55.1262	2,378.91	66.906	2,378.91	71.106	2,378.91	64.3695	2,378.91	72.799	2,378.91	65.5886
2,462.4	84.9037	2,462.4	80.6269	2,462.4	86.7308	2,462.4	76.538	2,462.4	85.8978	2,462.4	78.9396	2,462.4	82.9094	2,462.4	80.3261	2,462.4	79.1137	2,462.4	78.0432	2,462.4	74.8223	2,462.4	75.5164	2,462.4	71.7142	2,462.4	76.5494	2,462.4	71.6657	2,462.4	75.7517	2,462.4	72.6084	2,462.4	69.6668	2,462.4	72.7741	2,462.4	68.8706	2,462.4	68.624	2,462.4	74.1648	2,462.4	70.9567	2,462.4	73.1409	2,462.4	57.8665	2,462.4	64.5394	2,462.4	72.4598	2,462.4	56.0764	2,462.4	72.7171	2,462.4	66.0704	2,462.4	69.7181	2,462.4	74.3332	2,462.4	75.4251	2,462.4	73.6577	2,462.4	77.1861	2,462.4	72.1249
2,548.83	83.7644	2,548.83	80.3884	2,548.83	85.8281	2,548.83	76.8293	2,548.83	85.9678	2,548.83	78.0264	2,548.83	83.4862	2,548.83	80.0571	2,548.83	78.1271	2,548.83	78.9972	2,548.83	70.9214	2,548.83	75.7829	2,548.83	68.3177	2,548.83	73.3656	2,548.83	68.5046	2,548.83	74.7208	2,548.83	68.3887	2,548.83	74.4541	2,548.83	72.3961	2,548.83	63.5862	2,548.83	68.7828	2,548.83	70.6602	2,548.83	65.813	2,548.83	74.4586	2,548.83	71.5795	2,548.83	73.3857	2,548.83	60.9044	2,548.83	72.1621	2,548.83	75.3243	2,548.83	71.1595	2,548.83	73.8041	2,548.83	74.0137	2,548.83	75.5256	2,548.83	75.3079	2,548.83	78.7333	2,548.83	77.6285
2,639.65	84.9346	2,639.65	80.1422	2,639.65	86.4449	2,639.65	74.8036	2,639.65	85.4929	2,639.65	77.7663	2,639.65	82.1632	2,639.65	78.6217	2,639.65	75.3419	2,639.65	78.3406	2,639.65	62.7106	2,639.65	77.6989	2,639.65	68.5738	2,639.65	75.7068	2,639.65	72.9942	2,639.65	73.4396	2,639.65	74.3733	2,639.65	73.7799	2,639.65	73.0637	2,639.65	72.0053	2,639.65	72.3501	2,639.65	65.0835	2,639.65	64.7421	2,639.65	69.3614	2,639.65	69.7245	2,639.65	72.4978	2,639.65	71.0618	2,639.65	74.9548	2,639.65	65.3953	2,639.65	73.6868	2,639.65	71.7165	2,639.65	68.7412	2,639.65	66.0508	2,639.65	71.1274	2,639.65	70.405	2,639.65	74.5686
2,731.93	85.1673	2,731.93	79.7431	2,731.93	86.9065	2,731.93	71.0998	2,731.93	85.7056	2,731.93	77.6323	2,731.93	81.0135	2,731.93	78.5615	2,731.93	70.3237	2,731.93	78.4397	2,731.93	65.8215	2,731.93	77.8909	2,731.93	72.7793	2,731.93	75.5362	2,731.93	74.1891	2,731.93	73.0282	2,731.93	74.1426	2,731.93	72.0387	2,731.93	73.1366	2,731.93	70.2792	2,731.93	70.0616	2,731.93	69.4162	2,731.93	69.8481	2,731.93	68.5892	2,731.93	65.9688	2,731.93	67.3787	2,731.93	71.038	2,731.93	71.8696	2,731.93	65.3996	2,731.93	70.8761	2,731.93	65.7782	2,731.93	63.1586	2,731.93	63.2546	2,731.93	58.2528	2,731.93	68.5742	2,731.93	64.846
2,828.61	84.8404	2,828.61	77.9745	2,828.61	86.5492	2,828.61	67.7454	2,828.61	85.2096	2,828.61	77.611	2,828.61	79.9725	2,828.61	78.9763	2,828.61	63.5137	2,828.61	78.8038	2,828.61	71.5061	2,828.61	77.2605	2,828.61	74.8436	2,828.61	75.5928	2,828.61	75.019	2,828.61	74.0652	2,828.61	73.5908	2,828.61	73.5663	2,828.61	71.7309	2,828.61	72.5499	2,828.61	68.7208	2,828.61	69.9126	2,828.61	68.5211	2,828.61	69.7921	2,828.61	70.1223	2,828.61	67.9243	2,828.61	69.8274	2,828.61	70.1949	2,828.61	65.772	2,828.61	69.4043	2,828.61	63.2937	2,828.61	57.6312	2,828.61	62.6974	2,828.61	55.5184	2,828.61	67.294	2,828.61	63.0057
2,928.22	85.1736	2,928.22	78.032	2,928.22	87.0062	2,928.22	69.6369	2,928.22	85.218	2,928.22	77.4755	2,928.22	79.3151	2,928.22	78.7968	2,928.22	58.5993	2,928.22	79.1204	2,928.22	73.4973	2,928.22	78.1161	2,928.22	76.7117	2,928.22	76.7317	2,928.22	76.4055	2,928.22	76.298	2,928.22	73.0165	2,928.22	73.8847	2,928.22	70.1459	2,928.22	69.8914	2,928.22	69.3194	2,928.22	70.4385	2,928.22	68.8957	2,928.22	71.142	2,928.22	70.3794	2,928.22	66.0572	2,928.22	65.5083	2,928.22	67.8027	2,928.22	65.6299	2,928.22	71.746	2,928.22	58.3034	2,928.22	68.7967	2,928.22	66.5056	2,928.22	65.9896	2,928.22	68.6679	2,928.22	63.5285
3,030.76	84.9112	3,030.76	78.4553	3,030.76	86.7448	3,030.76	73.8405	3,030.76	84.9846	3,030.76	78.094	3,030.76	77.4128	3,030.76	79.3781	3,030.76	69.4474	3,030.76	79.9352	3,030.76	75.3356	3,030.76	79.2078	3,030.76	76.2508	3,030.76	78.282	3,030.76	77.3948	3,030.76	75.3137	3,030.76	72.1242	3,030.76	72.8181	3,030.76	63.737	3,030.76	71.1109	3,030.76	70.8476	3,030.76	67.9767	3,030.76	70.0146	3,030.76	71.828	3,030.76	71.5883	3,030.76	72.3154	3,030.76	69.0991	3,030.76	65.2474	3,030.76	60.4941	3,030.76	61.0483	3,030.76	67.2	3,030.76	68.5717	3,030.76	68.9784	3,030.76	71.9712	3,030.76	73.9256	3,030.76	73.1772
3,137.7	84.8318	3,137.7	79.1642	3,137.7	86.1988	3,137.7	77.4419	3,137.7	84.2621	3,137.7	79.1825	3,137.7	76.52	3,137.7	80.4177	3,137.7	71.7881	3,137.7	79.7691	3,137.7	78.3019	3,137.7	79.5794	3,137.7	77.9072	3,137.7	77.4694	3,137.7	77.0762	3,137.7	71.9305	3,137.7	72.1564	3,137.7	72.9669	3,137.7	64.8929	3,137.7	72.5025	3,137.7	70.9405	3,137.7	70.0291	3,137.7	70.5699	3,137.7	68.3916	3,137.7	71.5348	3,137.7	69.8349	3,137.7	71.8508	3,137.7	69.902	3,137.7	63.5336	3,137.7	65.9332	3,137.7	60.9911	3,137.7	43.5351	3,137.7	58.2202	3,137.7	64.718	3,137.7	70.3908	3,137.7	71.124
3,249.02	85.0821	3,249.02	80.6551	3,249.02	86.257	3,249.02	79.044	3,249.02	83.6644	3,249.02	80.052	3,249.02	75.9756	3,249.02	80.3159	3,249.02	72.9224	3,249.02	80.0599	3,249.02	79.3302	3,249.02	78.8968	3,249.02	79.0891	3,249.02	74.7901	3,249.02	74.9612	3,249.02	75.2358	3,249.02	68.8207	3,249.02	73.5701	3,249.02	68.9079	3,249.02	70.2163	3,249.02	72.6998	3,249.02	69.5707	3,249.02	69.8998	3,249.02	69.637	3,249.02	71.6098	3,249.02	67.6431	3,249.02	70.7595	3,249.02	68.2114	3,249.02	64.7091	3,249.02	66.3905	3,249.02	45.36	3,249.02	61.7958	3,249.02	62.6485	3,249.02	63.025	3,249.02	68.9604	3,249.02	64.5437
3,363.28	84.7965	3,363.28	81.4607	3,363.28	86.0522	3,363.28	80.5577	3,363.28	83.619	3,363.28	80.2766	3,363.28	75.6491	3,363.28	80.5834	3,363.28	74.9839	3,363.28	80.7407	3,363.28	79.6188	3,363.28	77.9063	3,363.28	80.2227	3,363.28	77.2645	3,363.28	76.2823	3,363.28	74.4461	3,363.28	68.2135	3,363.28	68.012	3,363.28	70.2795	3,363.28	70.8953	3,363.28	73.5587	3,363.28	69.6929	3,363.28	70.8741	3,363.28	69.2303	3,363.28	69.8842	3,363.28	69.7738	3,363.28	71.2219	3,363.28	66.6069	3,363.28	63.3213	3,363.28	64.0139	3,363.28	53.2534	3,363.28	60.9676	3,363.28	66.2377	3,363.28	64.6693	3,363.28	68.6502	3,363.28	67.2314
3,481.93	84.817	3,481.93	82.6918	3,481.93	85.6867	3,481.93	81.4675	3,481.93	83.3706	3,481.93	79.7237	3,481.93	76.4201	3,481.93	81.3591	3,481.93	76.2216	3,481.93	79.9304	3,481.93	80.0087	3,481.93	78.3983	3,481.93	80.0367	3,481.93	75.8793	3,481.93	77.6919	3,481.93	71.675	3,481.93	75.8982	3,481.93	72.3256	3,481.93	72.6664	3,481.93	70.2514	3,481.93	73.918	3,481.93	68.7691	3,481.93	67.9398	3,481.93	68.318	3,481.93	67.1114	3,481.93	69.893	3,481.93	69.0724	3,481.93	67.1153	3,481.93	63.435	3,481.93	65.0289	3,481.93	56.8089	3,481.93	56.9911	3,481.93	66.2353	3,481.93	66.0146	3,481.93	68.6335	3,481.93	67.4712
3,604.98	85.1121	3,604.98	83.8559	3,604.98	85.3283	3,604.98	81.3531	3,604.98	82.6722	3,604.98	81.0742	3,604.98	77.3764	3,604.98	81.5975	3,604.98	76.9339	3,604.98	79.9423	3,604.98	79.9864	3,604.98	78.2638	3,604.98	79.723	3,604.98	74.3437	3,604.98	77.586	3,604.98	75.7449	3,604.98	76.9788	3,604.98	72.7491	3,604.98	73.3984	3,604.98	70.7523	3,604.98	72.4209	3,604.98	70.9579	3,604.98	67.5845	3,604.98	67.7358	3,604.98	62.7691	3,604.98	69.299	3,604.98	67.4414	3,604.98	68.566	3,604.98	66.1587	3,604.98	65.72	3,604.98	47.3893	3,604.98	57.5434	3,604.98	65.0863	3,604.98	63.6414	3,604.98	66.8216	3,604.98	66.7399
3,732.42	85.0075	3,732.42	84.1022	3,732.42	85.0707	3,732.42	80.9927	3,732.42	82.5262	3,732.42	81.6092	3,732.42	77.0358	3,732.42	81.4542	3,732.42	77.3973	3,732.42	79.9441	3,732.42	79.3174	3,732.42	77.3537	3,732.42	80.3913	3,732.42	76.8981	3,732.42	78.9835	3,732.42	74.1891	3,732.42	77.0861	3,732.42	70.1352	3,732.42	72.6539	3,732.42	71.3095	3,732.42	67.2286	3,732.42	69.7083	3,732.42	66.173	3,732.42	68.4406	3,732.42	64.7763	3,732.42	68.8957	3,732.42	65.6742	3,732.42	68.3084	3,732.42	66.2732	3,732.42	65.0808	3,732.42	47.5805	3,732.42	59.6301	3,732.42	62.6749	3,732.42	62.5248	3,732.42	68.3235	3,732.42	67.6117
3,864.26	85.8365	3,864.26	84.2761	3,864.26	84.7476	3,864.26	81.508	3,864.26	82.3606	3,864.26	82.3248	3,864.26	78.0465	3,864.26	81.2126	3,864.26	76.8317	3,864.26	79.867	3,864.26	78.4356	3,864.26	78.6618	3,864.26	79.9448	3,864.26	76.5029	3,864.26	78.7269	3,864.26	73.0037	3,864.26	76.5514	3,864.26	72.4801	3,864.26	71.6224	3,864.26	69.5798	3,864.26	59.1404	3,864.26	69.0436	3,864.26	64.9075	3,864.26	68.3128	3,864.26	65.923	3,864.26	67.7429	3,864.26	68.1329	3,864.26	68.4578	3,864.26	66.1651	3,864.26	65.6194	3,864.26	58.3549	3,864.26	59.6443	3,864.26	62.5969	3,864.26	61.4204	3,864.26	68.1892	3,864.26	67.9543
4,000.49	85.1978	4,000.49	83.59	4,000.49	83.9489	4,000.49	82.0146	4,000.49	82.5228	4,000.49	82.3397	4,000.49	79.212	4,000.49	81.1975	4,000.49	76.0257	4,000.49	80.1487	4,000.49	78.8283	4,000.49	78.2548	4,000.49	79.8496	4,000.49	75.0196	4,000.49	77.7239	4,000.49	74.2132	4,000.49	76.2318	4,000.49	71.773	4,000.49	72.7624	4,000.49	69.3759	4,000.49	65.2267	4,000.49	68.2845	4,000.49	61.2306	4,000.49	67.0948	4,000.49	64.7575	4,000.49	65.7131	4,000.49	66.6293	4,000.49	66.7053	4,000.49	64.7855	4,000.49	65.6245	4,000.49	62.6142	4,000.49	60.944	4,000.49	61.549	4,000.49	59.3519	4,000.49	66.2803	4,000.49	65.6174
4,141.11	85.5247	4,141.11	83.8709	4,141.11	83.9213	4,141.11	82.6201	4,141.11	81.8958	4,141.11	82.1884	4,141.11	79.8796	4,141.11	80.9451	4,141.11	76.763	4,141.11	80.4059	4,141.11	78.2733	4,141.11	77.3616	4,141.11	78.2515	4,141.11	75.8584	4,141.11	75.6054	4,141.11	71.4216	4,141.11	75.0071	4,141.11	68.4861	4,141.11	72.9016	4,141.11	69.8857	4,141.11	68.7301	4,141.11	67.3485	4,141.11	60.166	4,141.11	66.677	4,141.11	60.555	4,141.11	66.3129	4,141.11	62.396	4,141.11	64.6143	4,141.11	65.1718	4,141.11	64.5563	4,141.11	61.2037	4,141.11	57.8465	4,141.11	61.1892	4,141.11	60.6913	4,141.11	65.4978	4,141.11	63.6893
4,287.6	85.6508	4,287.6	83.6105	4,287.6	83.6845	4,287.6	82.8968	4,287.6	81.375	4,287.6	81.6916	4,287.6	81.1245	4,287.6	81.7296	4,287.6	78.0199	4,287.6	79.2754	4,287.6	76.8327	4,287.6	77.3998	4,287.6	76.8726	4,287.6	72.658	4,287.6	75.8843	4,287.6	73.3501	4,287.6	73.9683	4,287.6	71.6618	4,287.6	72.1725	4,287.6	67.6256	4,287.6	69.4174	4,287.6	67.5484	4,287.6	66.4923	4,287.6	66.0672	4,287.6	62.4593	4,287.6	66.4671	4,287.6	58.1078	4,287.6	65.2239	4,287.6	63.6033	4,287.6	62.9249	4,287.6	61.7864	4,287.6	61.4871	4,287.6	61.3806	4,287.6	61.535	4,287.6	64.7813	4,287.6	63.7525
4,438.48	85.5342	4,438.48	83.7864	4,438.48	84.1168	4,438.48	83.1645	4,438.48	80.9205	4,438.48	82.4505	4,438.48	81.9572	4,438.48	81.1298	4,438.48	77.6756	4,438.48	79.4217	4,438.48	74.7551	4,438.48	75.9386	4,438.48	77.7082	4,438.48	73.8507	4,438.48	77.6054	4,438.48	72.4549	4,438.48	74.5061	4,438.48	67.6294	4,438.48	69.6945	4,438.48	69.8514	4,438.48	69.9131	4,438.48	66.4839	4,438.48	70.7753	4,438.48	65.4843	4,438.48	68.8982	4,438.48	65.5552	4,438.48	62.188	4,438.48	65.3051	4,438.48	60.5214	4,438.48	60.1732	4,438.48	58.6455	4,438.48	60.5038	4,438.48	61.1573	4,438.48	61.8733	4,438.48	65.6299	4,438.48	67.8964
4,595.21	85.5379	4,595.21	83.9863	4,595.21	84.231	4,595.21	82.9762	4,595.21	80.6424	4,595.21	82.1238	4,595.21	80.739	4,595.21	81.3969	4,595.21	78.3556	4,595.21	77.5748	4,595.21	74.6199	4,595.21	76.7774	4,595.21	78.1815	4,595.21	73.9131	4,595.21	79.6575	4,595.21	71.0176	4,595.21	74.665	4,595.21	71.05	4,595.21	67.111	4,595.21	65.9607	4,595.21	67.4502	4,595.21	68.5063	4,595.21	70.6938	4,595.21	64.9443	4,595.21	70.7063	4,595.21	64.6521	4,595.21	60.0676	4,595.21	64.7894	4,595.21	63.3357	4,595.21	63.0034	4,595.21	56.2131	4,595.21	53.468	4,595.21	62.2456	4,595.21	53.7949	4,595.21	65.1226	4,595.21	62.6987
4,756.35	85.5842	4,756.35	83.9065	4,756.35	84.5485	4,756.35	82.9075	4,756.35	80.1187	4,756.35	83.0265	4,756.35	81.4522	4,756.35	80.4642	4,756.35	79.9341	4,756.35	78.3091	4,756.35	74.1549	4,756.35	75.6311	4,756.35	78.787	4,756.35	72.9433	4,756.35	79.5798	4,756.35	72.117	4,756.35	74.1394	4,756.35	66.137	4,756.35	64.7222	4,756.35	68.7243	4,756.35	60.4624	4,756.35	66.1809	4,756.35	68.9747	4,756.35	65.6541	4,756.35	67.4984	4,756.35	65.2488	4,756.35	64.3414	4,756.35	64.2759	4,756.35	59.2503	4,756.35	63.7561	4,756.35	55.6381	4,756.35	56.2329	4,756.35	58.4945	4,756.35	59.088	4,756.35	65.9195	4,756.35	64.8505
4,924.8	85.2302	4,924.8	83.8489	4,924.8	84.5544	4,924.8	83.4038	4,924.8	80.7166	4,924.8	82.5259	4,924.8	82.2456	4,924.8	79.2546	4,924.8	80.6296	4,924.8	78.0102	4,924.8	71.322	4,924.8	74.5558	4,924.8	77.7791	4,924.8	73.6821	4,924.8	78.0096	4,924.8	67.9847	4,924.8	73.85	4,924.8	70.9039	4,924.8	69.1919	4,924.8	66.3009	4,924.8	58.4254	4,924.8	67.1564	4,924.8	61.0449	4,924.8	66.5364	4,924.8	65.6563	4,924.8	65.5194	4,924.8	59.9698	4,924.8	65.2191	4,924.8	62.9704	4,924.8	61.7117	4,924.8	57.9559	4,924.8	57.4446	4,924.8	61.0587	4,924.8	53.7025	4,924.8	64.7953	4,924.8	66.3502
5,097.66	85.4537	5,097.66	84.1288	5,097.66	85.0042	5,097.66	83.9691	5,097.66	80.1687	5,097.66	82.082	5,097.66	81.4113	5,097.66	79.776	5,097.66	80.4028	5,097.66	77.9525	5,097.66	70.5808	5,097.66	74.3669	5,097.66	76.8968	5,097.66	73.0813	5,097.66	73.8019	5,097.66	73.1273	5,097.66	66.1687	5,097.66	69.7617	5,097.66	69.2469	5,097.66	66.9192	5,097.66	62.5131	5,097.66	66.0674	5,097.66	56.081	5,097.66	65.501	5,097.66	65.7504	5,097.66	65.424	5,097.66	53.0716	5,097.66	63.688	5,097.66	61.1417	5,097.66	64.3388	5,097.66	57.3755	5,097.66	56.4148	5,097.66	64.0381	5,097.66	43.8875	5,097.66	63.8059	5,097.66	62.2218
5,277.83	85.396	5,277.83	84.3926	5,277.83	85.4468	5,277.83	84.0146	5,277.83	80.944	5,277.83	81.7253	5,277.83	81.3465	5,277.83	79.8503	5,277.83	80.7312	5,277.83	77.2371	5,277.83	71.3674	5,277.83	75.0167	5,277.83	75.4935	5,277.83	73.5877	5,277.83	74.8818	5,277.83	69.4864	5,277.83	72.283	5,277.83	70.1901	5,277.83	70.3557	5,277.83	67.5489	5,277.83	66.5054	5,277.83	66.1598	5,277.83	63.5046	5,277.83	66.0389	5,277.83	66.349	5,277.83	65.2587	5,277.83	53.3538	5,277.83	65.3039	5,277.83	60.9301	5,277.83	62.4072	5,277.83	64.0224	5,277.83	57.6065	5,277.83	63.1812	5,277.83	54.0511	5,277.83	65.2907	5,277.83	62.9258
5,463.87	84.6652	5,463.87	84.7027	5,463.87	85.4055	5,463.87	83.714	5,463.87	82.0987	5,463.87	82.0529	5,463.87	81.1758	5,463.87	80.1115	5,463.87	82.4863	5,463.87	77.7727	5,463.87	76.0018	5,463.87	75.2498	5,463.87	70.0285	5,463.87	72.7852	5,463.87	78.1193	5,463.87	71.9998	5,463.87	73.9774	5,463.87	68.3752	5,463.87	70.488	5,463.87	67.1323	5,463.87	68.6307	5,463.87	65.8081	5,463.87	63.9774	5,463.87	66.3478	5,463.87	67.3127	5,463.87	65.8652	5,463.87	62.9782	5,463.87	65.4058	5,463.87	44.5796	5,463.87	64.3929	5,463.87	61.2062	5,463.87	57.8049	5,463.87	62.1441	5,463.87	46.3052	5,463.87	62.4526	5,463.87	62.9409
5,657.23	84.8775	5,657.23	85.0467	5,657.23	85.1871	5,657.23	83.9039	5,657.23	82.2164	5,657.23	82.5144	5,657.23	81.0295	5,657.23	80.0737	5,657.23	82.3884	5,657.23	77.6301	5,657.23	77.8121	5,657.23	75.3509	5,657.23	72.45	5,657.23	72.622	5,657.23	77.389	5,657.23	72.0843	5,657.23	76.483	5,657.23	70.8501	5,657.23	73.2338	5,657.23	67.2998	5,657.23	68.3273	5,657.23	67.1891	5,657.23	60.7763	5,657.23	66.7204	5,657.23	68.3214	5,657.23	65.9935	5,657.23	63.4969	5,657.23	65.1058	5,657.23	61.0846	5,657.23	65.0581	5,657.23	52.4066	5,657.23	58.1267	5,657.23	56.1359	5,657.23	50.5254	5,657.23	63.3745	5,657.23	61.2929
5,856.45	84.8608	5,856.45	85.4165	5,856.45	85.2306	5,856.45	84.2993	5,856.45	82.6768	5,856.45	82.6656	5,856.45	80.3669	5,856.45	80.1115	5,856.45	81.9647	5,856.45	78.1894	5,856.45	78.8913	5,856.45	75.8112	5,856.45	74.6501	5,856.45	75.045	5,856.45	78.5221	5,856.45	72.7866	5,856.45	77.8395	5,856.45	69.8952	5,856.45	72.5345	5,856.45	69.0141	5,856.45	66.5865	5,856.45	66.7722	5,856.45	63.3553	5,856.45	67.2719	5,856.45	63.9367	5,856.45	65.9519	5,856.45	60.8261	5,856.45	64.8067	5,856.45	58.7356	5,856.45	65.5225	5,856.45	57.7706	5,856.45	59.797	5,856.45	54.8619	5,856.45	46.5796	5,856.45	65.0193	5,856.45	61.5793
6,062.99	85.0162	6,062.99	85.5292	6,062.99	84.85	6,062.99	84.3279	6,062.99	83.0415	6,062.99	82.6777	6,062.99	80.3156	6,062.99	80.3395	6,062.99	81.6964	6,062.99	78.9053	6,062.99	78.2437	6,062.99	77.2741	6,062.99	74.0165	6,062.99	74.6162	6,062.99	78.7671	6,062.99	74.2906	6,062.99	76.3997	6,062.99	70.3705	6,062.99	71.267	6,062.99	69.3036	6,062.99	66.3752	6,062.99	67.2332	6,062.99	63.2142	6,062.99	67.3171	6,062.99	60.0614	6,062.99	65.9299	6,062.99	55.1643	6,062.99	65.7172	6,062.99	56.0668	6,062.99	65.925	6,062.99	58.2979	6,062.99	60.3794	6,062.99	55.4692	6,062.99	46.6654	6,062.99	62.4407	6,062.99	62.2678
6,276.86	85.4585	6,276.86	85.5601	6,276.86	84.7663	6,276.86	84.4748	6,276.86	83.0244	6,276.86	82.1504	6,276.86	80.4002	6,276.86	81.065	6,276.86	81.3647	6,276.86	79.2088	6,276.86	78.9913	6,276.86	77.9181	6,276.86	75.1642	6,276.86	74.8242	6,276.86	78.0766	6,276.86	72.4381	6,276.86	75.6801	6,276.86	69.3635	6,276.86	69.4582	6,276.86	68.4945	6,276.86	56.9408	6,276.86	65.9455	6,276.86	57.2343	6,276.86	67.428	6,276.86	58.4655	6,276.86	64.5455	6,276.86	59.5995	6,276.86	65.8066	6,276.86	59.1547	6,276.86	65.3352	6,276.86	52.3524	6,276.86	60.8289	6,276.86	52.6404	6,276.86	53.168	6,276.86	61.1679	6,276.86	58.9591
6,498.05	85.8877	6,498.05	85.7011	6,498.05	84.9135	6,498.05	84.2255	6,498.05	83.6773	6,498.05	82.2374	6,498.05	80.88	6,498.05	81.0585	6,498.05	80.6175	6,498.05	79.9028	6,498.05	78.6176	6,498.05	77.4708	6,498.05	73.7614	6,498.05	74.0922	6,498.05	77.1089	6,498.05	72.8849	6,498.05	74.8421	6,498.05	68.9275	6,498.05	65.904	6,498.05	67.9021	6,498.05	67.2596	6,498.05	65.4093	6,498.05	61.6486	6,498.05	66.9033	6,498.05	58.0952	6,498.05	62.7801	6,498.05	62.9284	6,498.05	65.7958	6,498.05	53.141	6,498.05	64.4358	6,498.05	43.1723	6,498.05	60.5357	6,498.05	55.2135	6,498.05	51.4972	6,498.05	61.3415	6,498.05	58.3439
6,726.56	86.0064	6,726.56	85.5867	6,726.56	84.9851	6,726.56	84.454	6,726.56	83.8587	6,726.56	82.6794	6,726.56	81.54	6,726.56	81.3082	6,726.56	80.0862	6,726.56	79.9667	6,726.56	77.6039	6,726.56	77.1612	6,726.56	70.7204	6,726.56	74.7319	6,726.56	74.5811	6,726.56	72.179	6,726.56	74.4749	6,726.56	69.9765	6,726.56	71.4008	6,726.56	67.3494	6,726.56	69.685	6,726.56	65.3743	6,726.56	61.6796	6,726.56	66.5632	6,726.56	56.5234	6,726.56	63.9865	6,726.56	66.0404	6,726.56	65.1901	6,726.56	56.005	6,726.56	65.8092	6,726.56	51.4692	6,726.56	62.0233	6,726.56	51.7563	6,726.56	50.8514	6,726.56	59.6896	6,726.56	58.6186
6,963.87	86.0341	6,963.87	85.397	6,963.87	85.3154	6,963.87	84.5851	6,963.87	84.4716	6,963.87	82.4015	6,963.87	81.8289	6,963.87	81.4118	6,963.87	79.9433	6,963.87	79.973	6,963.87	78.3574	6,963.87	77.7218	6,963.87	69.3956	6,963.87	75.2526	6,963.87	71.5463	6,963.87	70.9593	6,963.87	75.9099	6,963.87	69.1277	6,963.87	69.1633	6,963.87	66.3801	6,963.87	67.9063	6,963.87	65.3633	6,963.87	57.7314	6,963.87	65.6103	6,963.87	54.0198	6,963.87	63.8037	6,963.87	65.9491	6,963.87	66.0118	6,963.87	56.5783	6,963.87	63.9637	6,963.87	57.4729	6,963.87	62.5259	6,963.87	52.2839	6,963.87	56.9244	6,963.87	59.9831	6,963.87	57.806
7,209.96	85.7312	7,209.96	85.3888	7,209.96	85.2674	7,209.96	84.6332	7,209.96	84.528	7,209.96	81.9173	7,209.96	82.4128	7,209.96	81.6349	7,209.96	80.7869	7,209.96	80.3111	7,209.96	78.9983	7,209.96	77.8409	7,209.96	66.7447	7,209.96	74.609	7,209.96	72.3444	7,209.96	71.2782	7,209.96	77.0865	7,209.96	68.2299	7,209.96	70.044	7,209.96	65.2505	7,209.96	66.6233	7,209.96	65.1226	7,209.96	59.4277	7,209.96	63.6805	7,209.96	56.5246	7,209.96	63.0868	7,209.96	58.0869	7,209.96	64.8521	7,209.96	41.4107	7,209.96	64.0113	7,209.96	51.8971	7,209.96	61.0117	7,209.96	46.8562	7,209.96	54.1885	7,209.96	62.1423	7,209.96	56.8768
7,464.84	85.6926	7,464.84	85.3607	7,464.84	85.2737	7,464.84	83.8425	7,464.84	84.3347	7,464.84	82.2094	7,464.84	82.8112	7,464.84	81.8984	7,464.84	80.7981	7,464.84	80.1028	7,464.84	78.1039	7,464.84	76.56	7,464.84	68.3133	7,464.84	74.4624	7,464.84	73.0231	7,464.84	69.1419	7,464.84	76.3936	7,464.84	68.269	7,464.84	69.4314	7,464.84	63.8107	7,464.84	66.8284	7,464.84	64.6324	7,464.84	60.039	7,464.84	63.1171	7,464.84	59.3813	7,464.84	62.2428	7,464.84	62.836	7,464.84	63.8324	7,464.84	57.0379	7,464.84	63.303	7,464.84	53.6161	7,464.84	60.2243	7,464.84	55.6831	7,464.84	43.4468	7,464.84	59.69	7,464.84	58.3322
7,727.05	85.6609	7,727.05	85.1702	7,727.05	85.332	7,727.05	83.5255	7,727.05	84.7271	7,727.05	83.1131	7,727.05	82.5642	7,727.05	81.9373	7,727.05	79.7684	7,727.05	79.5953	7,727.05	77.3809	7,727.05	76.7706	7,727.05	69.6287	7,727.05	73.7654	7,727.05	72.8877	7,727.05	69.4503	7,727.05	76.0956	7,727.05	68.8589	7,727.05	69.3004	7,727.05	64.5144	7,727.05	65.3583	7,727.05	64.8902	7,727.05	57.7449	7,727.05	64.1006	7,727.05	55.6756	7,727.05	64.2355	7,727.05	63.6606	7,727.05	63.8664	7,727.05	61.318	7,727.05	63.9646	7,727.05	57.0812	7,727.05	60.5254	7,727.05	52.489	7,727.05	31.3371	7,727.05	55.5665	7,727.05	54.7267
7,999.51	85.5232	7,999.51	84.6737	7,999.51	85.376	7,999.51	83.8757	7,999.51	84.5145	7,999.51	83.2626	7,999.51	82.1924	7,999.51	81.477	7,999.51	79.5139	7,999.51	80.3343	7,999.51	75.755	7,999.51	76.273	7,999.51	70.4185	7,999.51	74.5584	7,999.51	73.8129	7,999.51	70.6216	7,999.51	74.824	7,999.51	68.4384	7,999.51	69.1062	7,999.51	64.6884	7,999.51	66.7159	7,999.51	63.9921	7,999.51	52.4297	7,999.51	63.8466	7,999.51	57.4456	7,999.51	63.8587	7,999.51	59.7998	7,999.51	64.3082	7,999.51	61.0078	7,999.51	64.1287	7,999.51	55.7361	7,999.51	59.9883	7,999.51	47.0441	7,999.51	49.0819	7,999.51	59.2137	7,999.51	52.7095
8,282.23	85.3746	8,282.23	84.559	8,282.23	85.4676	8,282.23	84.1499	8,282.23	84.6615	8,282.23	82.4947	8,282.23	82.4693	8,282.23	82.1284	8,282.23	80.2561	8,282.23	80.0557	8,282.23	75.4758	8,282.23	76.1629	8,282.23	74.2246	8,282.23	73.5825	8,282.23	69.7764	8,282.23	70.2158	8,282.23	70.7987	8,282.23	65.7691	8,282.23	70.7104	8,282.23	63.6582	8,282.23	61.1099	8,282.23	63.4502	8,282.23	55.438	8,282.23	62.3191	8,282.23	59.516	8,282.23	62.3404	8,282.23	62.1414	8,282.23	63.1638	8,282.23	57.9332	8,282.23	63.2668	8,282.23	58.8552	8,282.23	60.5468	8,282.23	46.4089	8,282.23	44.3531	8,282.23	55.5402	8,282.23	53.5713
8,573.73	85.3141	8,573.73	84.9435	8,573.73	85.3188	8,573.73	84.1143	8,573.73	84.619	8,573.73	83.1234	8,573.73	82.6185	8,573.73	82.8371	8,573.73	80.2937	8,573.73	79.3558	8,573.73	77.2666	8,573.73	76.4988	8,573.73	76.5895	8,573.73	72.6752	8,573.73	57.5093	8,573.73	70.8421	8,573.73	67.0742	8,573.73	67.1918	8,573.73	71.3812	8,573.73	64.884	8,573.73	59.3119	8,573.73	63.9426	8,573.73	55.8031	8,573.73	63.5774	8,573.73	52.3818	8,573.73	62.8138	8,573.73	57.3883	8,573.73	63.5867	8,573.73	59.0508	8,573.73	64.3959	8,573.73	53.8822	8,573.73	59.0121	8,573.73	49.1491	8,573.73	40.0885	8,573.73	54.9751	8,573.73	50.5406
8,876.95	85.0635	8,876.95	84.4818	8,876.95	85.3958	8,876.95	84.1942	8,876.95	84.9134	8,876.95	84.1926	8,876.95	83.422	8,876.95	82.1003	8,876.95	80.2846	8,876.95	80.044	8,876.95	77.6681	8,876.95	76.6522	8,876.95	76.8965	8,876.95	74.0823	8,876.95	66.4551	8,876.95	70.6817	8,876.95	70.86	8,876.95	68.3362	8,876.95	72.3652	8,876.95	64.6304	8,876.95	62.4282	8,876.95	63.4452	8,876.95	49.5543	8,876.95	62.3982	8,876.95	48.3746	8,876.95	62.7861	8,876.95	56.3823	8,876.95	63.7541	8,876.95	60.3103	8,876.95	64.5845	8,876.95	55.1335	8,876.95	60.5604	8,876.95	45.6722	8,876.95	46.1149	8,876.95	54.7294	8,876.95	52.2363
9,188.96	84.8365	9,188.96	84.2104	9,188.96	85.356	9,188.96	84.6569	9,188.96	84.7381	9,188.96	83.7728	9,188.96	83.2008	9,188.96	81.7004	9,188.96	80.9558	9,188.96	80.3714	9,188.96	78.1877	9,188.96	76.2356	9,188.96	77.2134	9,188.96	73.6953	9,188.96	69.6563	9,188.96	69.2389	9,188.96	70.8536	9,188.96	66.5766	9,188.96	70.7857	9,188.96	63.0493	9,188.96	57.8109	9,188.96	63.149	9,188.96	53.9501	9,188.96	61.0033	9,188.96	47.9712	9,188.96	60.8995	9,188.96	55.9691	9,188.96	62.7747	9,188.96	55.5813	9,188.96	63.3922	9,188.96	54.7021	9,188.96	60.3965	9,188.96	45.8057	9,188.96	44.6139	9,188.96	56.9108	9,188.96	50.9455
9,514.16	84.3425	9,514.16	84.5145	9,514.16	85.451	9,514.16	84.758	9,514.16	84.8565	9,514.16	83.3112	9,514.16	82.9914	9,514.16	82.6311	9,514.16	81.1892	9,514.16	79.7371	9,514.16	78.8714	9,514.16	76.658	9,514.16	78.0743	9,514.16	72.1083	9,514.16	70.8844	9,514.16	69.271	9,514.16	70.1983	9,514.16	65.4215	9,514.16	69.7135	9,514.16	63.4083	9,514.16	57.0843	9,514.16	62.8939	9,514.16	53.8634	9,514.16	60.982	9,514.16	46.3779	9,514.16	61.8139	9,514.16	57.2142	9,514.16	62.4499	9,514.16	55.2862	9,514.16	63.0015	9,514.16	56.3191	9,514.16	59.2859	9,514.16	40.5807	9,514.16	48.4912	9,514.16	54.8126	9,514.16	54.6507
9,849.61	84.2416	9,849.61	84.7277	9,849.61	85.3129	9,849.61	84.288	9,849.61	85.0706	9,849.61	83.7601	9,849.61	82.8389	9,849.61	82.2809	9,849.61	81.4095	9,849.61	79.5813	9,849.61	80.0844	9,849.61	76.9812	9,849.61	78.6263	9,849.61	72.5228	9,849.61	68.8103	9,849.61	69.4098	9,849.61	67.6175	9,849.61	65.9903	9,849.61	69.4032	9,849.61	62.6184	9,849.61	60.9963	9,849.61	61.3559	9,849.61	52.5992	9,849.61	59.7989	9,849.61	48.1188	9,849.61	61.7488	9,849.61	57.1316	9,849.61	63.1695	9,849.61	56.7795	9,849.61	63.1269	9,849.61	58.8018	9,849.61	59.321	9,849.61	46.4605	9,849.61	47.3465	9,849.61	55.248	9,849.61	49.6164
10,196.8	84.4372	10,196.8	84.4639	10,196.8	85.2163	10,196.8	84.4904	10,196.8	85.5114	10,196.8	83.5066	10,196.8	83.4285	10,196.8	81.7111	10,196.8	81.7048	10,196.8	80.0565	10,196.8	79.6875	10,196.8	75.5375	10,196.8	78.2976	10,196.8	71.9678	10,196.8	63.9053	10,196.8	67.2971	10,196.8	68.0261	10,196.8	65.3368	10,196.8	67.838	10,196.8	60.0757	10,196.8	58.6202	10,196.8	61.7149	10,196.8	49.681	10,196.8	56.4612	10,196.8	47.6868	10,196.8	60.5943	10,196.8	55.3345	10,196.8	62.0167	10,196.8	51.1946	10,196.8	61.5211	10,196.8	57.0535	10,196.8	58.1621	10,196.8	48.6874	10,196.8	53.0027	10,196.8	52.4384	10,196.8	33.9721
10,555.7	84.2615	10,555.7	84.2039	10,555.7	85.0337	10,555.7	84.5956	10,555.7	85.284	10,555.7	82.9566	10,555.7	83.321	10,555.7	82.1063	10,555.7	80.6687	10,555.7	79.2296	10,555.7	78.3463	10,555.7	75.7364	10,555.7	78.2558	10,555.7	71.2215	10,555.7	68.225	10,555.7	68.1645	10,555.7	67.7172	10,555.7	64.3616	10,555.7	64.7808	10,555.7	62.6786	10,555.7	50.3391	10,555.7	61.5389	10,555.7	51.6434	10,555.7	57.8475	10,555.7	52.8633	10,555.7	61.0061	10,555.7	54.5148	10,555.7	61.8318	10,555.7	49.7413	10,555.7	59.8687	10,555.7	57.6477	10,555.7	59.3404	10,555.7	48.1824	10,555.7	52.2934	10,555.7	52.8573	10,555.7	46.4455
10,927.7	83.9875	10,927.7	84.2365	10,927.7	84.7353	10,927.7	84.0794	10,927.7	84.7237	10,927.7	83.2656	10,927.7	83.3948	10,927.7	81.7466	10,927.7	80.582	10,927.7	78.7557	10,927.7	79.7301	10,927.7	75.965	10,927.7	77.6053	10,927.7	70.7745	10,927.7	70.0875	10,927.7	67.7127	10,927.7	66.3177	10,927.7	64.4502	10,927.7	61.8346	10,927.7	61.9065	10,927.7	56.8013	10,927.7	59.8232	10,927.7	44.9427	10,927.7	56.8359	10,927.7	56.2951	10,927.7	60.4859	10,927.7	42.7318	10,927.7	61.0785	10,927.7	51.5747	10,927.7	60.7065	10,927.7	55.8036	10,927.7	59.434	10,927.7	47.3523	10,927.7	51.0344	10,927.7	56.0219	10,927.7	49.0313
11,313	83.9652	11,313	84.1443	11,313	84.6215	11,313	83.8311	11,313	84.4842	11,313	83.3646	11,313	83.2083	11,313	81.3624	11,313	80.5859	11,313	78.7307	11,313	79.7676	11,313	74.7006	11,313	75.1783	11,313	71.1667	11,313	70.7903	11,313	67.4058	11,313	63.9835	11,313	63.7961	11,313	59.2502	11,313	60.5521	11,313	59.2775	11,313	59.6472	11,313	48.6659	11,313	56.6756	11,313	57.5622	11,313	59.0038	11,313	51.7554	11,313	60.052	11,313	52.0421	11,313	59.6782	11,313	48.5682	11,313	57.8183	11,313	49.0745	11,313	54.6995	11,313	53.0431	11,313	45.859
11,712.9	84.1193	11,712.9	84.0826	11,712.9	84.6312	11,712.9	83.8986	11,712.9	84.6211	11,712.9	83.0564	11,712.9	83.1875	11,712.9	81.786	11,712.9	80.4565	11,712.9	77.8663	11,712.9	77.7646	11,712.9	75.3448	11,712.9	73.7957	11,712.9	70.2314	11,712.9	71.5829	11,712.9	66.2954	11,712.9	65.3059	11,712.9	63.252	11,712.9	59.4479	11,712.9	60.1931	11,712.9	61.0775	11,712.9	58.6865	11,712.9	53.9373	11,712.9	56.45	11,712.9	50.0194	11,712.9	58.6445	11,712.9	56.8748	11,712.9	60.2359	11,712.9	55.0646	11,712.9	59.9018	11,712.9	45.7874	11,712.9	56.1359	11,712.9	37.1579	11,712.9	53.627	11,712.9	50.6069	11,712.9	40.1006
12,126	84.3874	12,126	84.332	12,126	84.9232	12,126	83.9445	12,126	84.7549	12,126	83.2628	12,126	82.8646	12,126	81.0175	12,126	80.4268	12,126	78.0121	12,126	78.6899	12,126	74.2591	12,126	74.9772	12,126	69.7703	12,126	68.7094	12,126	65.2235	12,126	65.0975	12,126	62.0813	12,126	50.8952	12,126	59.3023	12,126	58.0811	12,126	56.7185	12,126	50.2482	12,126	54.1639	12,126	44.9235	12,126	58.7579	12,126	53.0494	12,126	59.0852	12,126	50.1649	12,126	56.6635	12,126	46.2954	12,126	56.2191	12,126	39.0871	12,126	52.9512	12,126	49.3197	12,126	39.4809
12,553.7	84.5796	12,553.7	84.4779	12,553.7	85.1	12,553.7	84.5054	12,553.7	84.7722	12,553.7	83.2913	12,553.7	82.7711	12,553.7	80.829	12,553.7	80.1926	12,553.7	77.9989	12,553.7	78.3124	12,553.7	73.9244	12,553.7	72.0869	12,553.7	68.443	12,553.7	68.7777	12,553.7	64.6093	12,553.7	62.6324	12,553.7	60.5176	12,553.7	57.624	12,553.7	58.5619	12,553.7	60.9136	12,553.7	55.484	12,553.7	48.9014	12,553.7	55.051	12,553.7	48.7943	12,553.7	57.1222	12,553.7	52.2954	12,553.7	58.0606	12,553.7	53.8443	12,553.7	56.6124	12,553.7	50.3332	12,553.7	54.8453	12,553.7	43.3467	12,553.7	52.6404	12,553.7	51.7587	12,553.7	46.2057
12,996.1	84.6818	12,996.1	84.3753	12,996.1	85.1304	12,996.1	84.4367	12,996.1	84.7791	12,996.1	82.9148	12,996.1	83.1638	12,996.1	80.6577	12,996.1	79.9464	12,996.1	77.5625	12,996.1	75.6858	12,996.1	73.8278	12,996.1	65.9572	12,996.1	66.6201	12,996.1	70.4238	12,996.1	63.8543	12,996.1	63.3719	12,996.1	60.1939	12,996.1	58.4866	12,996.1	58.2937	12,996.1	58.0879	12,996.1	52.7794	12,996.1	56.3799	12,996.1	54.2107	12,996.1	52.3922	12,996.1	57.2652	12,996.1	54.0635	12,996.1	56.8618	12,996.1	50.6493	12,996.1	54.9321	12,996.1	49.1884	12,996.1	54.4059	12,996.1	44.0014	12,996.1	53.721	12,996.1	54.2544	12,996.1	43.3295
13,454.6	84.7095	13,454.6	84.4847	13,454.6	85.2755	13,454.6	84.3177	13,454.6	84.7327	13,454.6	82.6531	13,454.6	83.0404	13,454.6	80.3424	13,454.6	79.7519	13,454.6	77.7301	13,454.6	75.4877	13,454.6	72.4559	13,454.6	65.5367	13,454.6	67.3488	13,454.6	69.3385	13,454.6	62.6432	13,454.6	58.8379	13,454.6	60.9908	13,454.6	57.4683	13,454.6	57.1924	13,454.6	56.9557	13,454.6	52.0815	13,454.6	57.6776	13,454.6	54.2552	13,454.6	52.0313	13,454.6	55.8709	13,454.6	53.9677	13,454.6	56.5691	13,454.6	53.3444	13,454.6	55.8199	13,454.6	46.1201	13,454.6	55.5061	13,454.6	45.5257	13,454.6	54.4864	13,454.6	52.0602	13,454.6	41.4479
13,929.2	84.7035	13,929.2	84.872	13,929.2	85.457	13,929.2	84.5028	13,929.2	85.0819	13,929.2	82.1875	13,929.2	82.9693	13,929.2	80.497	13,929.2	79.1623	13,929.2	76.8167	13,929.2	73.2458	13,929.2	71.8349	13,929.2	66.2526	13,929.2	66.9885	13,929.2	69.5569	13,929.2	63.5404	13,929.2	48.6076	13,929.2	60.0227	13,929.2	48.6872	13,929.2	57.3623	13,929.2	59.8276	13,929.2	52.0491	13,929.2	57.634	13,929.2	52.1774	13,929.2	53.7307	13,929.2	55.908	13,929.2	56.0062	13,929.2	56.6447	13,929.2	51.5081	13,929.2	54.3173	13,929.2	42.7395	13,929.2	54.0217	13,929.2	48.903	13,929.2	54.4197	13,929.2	51.807	13,929.2	47.1569
14,419.9	84.6599	14,419.9	85.1466	14,419.9	85.4296	14,419.9	84.5583	14,419.9	84.9729	14,419.9	82.3943	14,419.9	82.8655	14,419.9	80.1013	14,419.9	79.9171	14,419.9	76.0016	14,419.9	72.315	14,419.9	71.0842	14,419.9	70.1212	14,419.9	66.8832	14,419.9	67.2625	14,419.9	61.5676	14,419.9	51.9657	14,419.9	58.6821	14,419.9	51.0155	14,419.9	55.9217	14,419.9	59.6897	14,419.9	50.6598	14,419.9	57.0304	14,419.9	52.0764	14,419.9	52.0015	14,419.9	54.1249	14,419.9	56.5369	14,419.9	54.3857	14,419.9	53.0973	14,419.9	52.9024	14,419.9	42.7223	14,419.9	53.7156	14,419.9	40.7096	14,419.9	53.2245	14,419.9	50.649	14,419.9	45.9988
14,928.2	84.7139	14,928.2	85.5419	14,928.2	85.2864	14,928.2	84.4715	14,928.2	84.6046	14,928.2	82.5975	14,928.2	82.3232	14,928.2	79.9515	14,928.2	79.2536	14,928.2	74.6828	14,928.2	73.8579	14,928.2	71.3597	14,928.2	72.3169	14,928.2	65.5272	14,928.2	64.6854	14,928.2	60.3169	14,928.2	54.9888	14,928.2	57.972	14,928.2	46.0497	14,928.2	53.7931	14,928.2	56.394	14,928.2	48.2876	14,928.2	57.9592	14,928.2	50.5971	14,928.2	51.8013	14,928.2	52.669	14,928.2	56.5099	14,928.2	53.2422	14,928.2	53.7968	14,928.2	52.2762	14,928.2	49.4017	14,928.2	52.625	14,928.2	42.9932	14,928.2	49.9263	14,928.2	50.0612	14,928.2	45.1187
15,455.6	84.8831	15,455.6	85.7584	15,455.6	85.1993	15,455.6	84.3888	15,455.6	84.5189	15,455.6	82.9529	15,455.6	82.4546	15,455.6	79.4979	15,455.6	78.8478	15,455.6	74.6156	15,455.6	74.2113	15,455.6	71.3626	15,455.6	70.9355	15,455.6	63.5589	15,455.6	64.1734	15,455.6	59.3595	15,455.6	57.4486	15,455.6	58.5662	15,455.6	43.9157	15,455.6	54.0509	15,455.6	55.7064	15,455.6	48.9124	15,455.6	59.201	15,455.6	51.038	15,455.6	49.3788	15,455.6	52.8553	15,455.6	55.9691	15,455.6	53.8008	15,455.6	52.3159	15,455.6	50.8074	15,455.6	41.3591	15,455.6	52.4067	15,455.6	42.4649	15,455.6	47.8131	15,455.6	52.2192	15,455.6	46.978
16,000.5	84.8492	16,000.5	85.5252	16,000.5	85.1772	16,000.5	84.0615	16,000.5	84.6653	16,000.5	82.8033	16,000.5	82.3519	16,000.5	79.1926	16,000.5	78.7122	16,000.5	74.886	16,000.5	74.4363	16,000.5	71.29	16,000.5	69.6385	16,000.5	64.1422	16,000.5	63.0636	16,000.5	59.4188	16,000.5	54.0824	16,000.5	58.9482	16,000.5	45.4326	16,000.5	54.9416	16,000.5	56.7956	16,000.5	47.9283	16,000.5	58.9348	16,000.5	51.5029	16,000.5	44.027	16,000.5	52.5154	16,000.5	53.6785	16,000.5	54.2709	16,000.5	48.4222	16,000.5	52.4652	16,000.5	47.038	16,000.5	52.8029	16,000.5	43.0835	16,000.5	50.8851	16,000.5	51.6741	16,000.5	45.1323
16,564.5	84.5001	16,564.5	84.8892	16,564.5	84.9236	16,564.5	83.6273	16,564.5	84.6136	16,564.5	82.1926	16,564.5	81.9503	16,564.5	78.8047	16,564.5	78.1335	16,564.5	74.9411	16,564.5	74.2699	16,564.5	70.2528	16,564.5	71.5274	16,564.5	65.1966	16,564.5	60.9016	16,564.5	60.8786	16,564.5	58.5608	16,564.5	59.2402	16,564.5	49.4039	16,564.5	54.6288	16,564.5	57.5393	16,564.5	49.4674	16,564.5	57.8121	16,564.5	51.1136	16,564.5	33.7667	16,564.5	51.7696	16,564.5	46.9898	16,564.5	54.2915	16,564.5	41.3844	16,564.5	51.3221	16,564.5	43.9602	16,564.5	53.9167	16,564.5	43.4707	16,564.5	49.4503	16,564.5	48.5373	16,564.5	45.8189
17,148.9	83.8732	17,148.9	84.0639	17,148.9	84.1528	17,148.9	83.0102	17,148.9	84.0859	17,148.9	81.1891	17,148.9	81.7167	17,148.9	78.1727	17,148.9	78.1689	17,148.9	74.0906	17,148.9	74.3273	17,148.9	69.0561	17,148.9	68.5052	17,148.9	65.3832	17,148.9	58.9225	17,148.9	60.982	17,148.9	58.1884	17,148.9	57.5683	17,148.9	47.1945	17,148.9	53.3934	17,148.9	55.4687	17,148.9	48.5261	17,148.9	58.1371	17,148.9	50.4428	17,148.9	33.4456	17,148.9	51.9308	17,148.9	40.8793	17,148.9	52.8609	17,148.9	45.3291	17,148.9	49.4941	17,148.9	40.3211	17,148.9	53.9084	17,148.9	30.6781	17,148.9	47.7526	17,148.9	50.6414	17,148.9	45.2257
17,752.4	83.2721	17,752.4	83.5853	17,752.4	83.0809	17,752.4	82.9504	17,752.4	83.0884	17,752.4	80.5264	17,752.4	81.2913	17,752.4	77.7276	17,752.4	77.4495	17,752.4	73.0851	17,752.4	72.226	17,752.4	68.8377	17,752.4	69.3521	17,752.4	65.3408	17,752.4	58.6718	17,752.4	59.0749	17,752.4	60.7691	17,752.4	55.4448	17,752.4	42.6917	17,752.4	51.951	17,752.4	54.5657	17,752.4	45.4809	17,752.4	59.0333	17,752.4	50.1144	17,752.4	46.0465	17,752.4	50.7636	17,752.4	50.3136	17,752.4	51.5371	17,752.4	46.5124	17,752.4	49.1268	17,752.4	39.3798	17,752.4	53.9587	17,752.4	44.328	17,752.4	47.0508	17,752.4	50.893	17,752.4	43.7832
18,379.4	82.7453	18,379.4	83.048	18,379.4	82.2279	18,379.4	82.5128	18,379.4	82.0751	18,379.4	79.98	18,379.4	80.5816	18,379.4	77.1872	18,379.4	76.9641	18,379.4	72.7141	18,379.4	73.6137	18,379.4	69.2569	18,379.4	69.9521	18,379.4	64.1271	18,379.4	60.0482	18,379.4	58.0084	18,379.4	61.4225	18,379.4	54.7311	18,379.4	54.6083	18,379.4	50.8228	18,379.4	53.531	18,379.4	42.4631	18,379.4	58.6356	18,379.4	49.9731	18,379.4	48.1477	18,379.4	50.381	18,379.4	51.542	18,379.4	51.2644	18,379.4	49.8689	18,379.4	49.3904	18,379.4	43.0548	18,379.4	53.2582	18,379.4	48.1374	18,379.4	44.4972	18,379.4	51.0999	18,379.4	45.3092
19,026.9	81.7665	19,026.9	82.1551	19,026.9	81.2674	19,026.9	81.779	19,026.9	81.4824	19,026.9	79.6842	19,026.9	79.9789	19,026.9	77.0427	19,026.9	76.8096	19,026.9	73.7216	19,026.9	72.709	19,026.9	70.2878	19,026.9	66.5198	19,026.9	63.9373	19,026.9	63.3442	19,026.9	59.2109	19,026.9	60.2281	19,026.9	56.5597	19,026.9	56.8667	19,026.9	51.6597	19,026.9	54.9399	19,026.9	46.2165	19,026.9	59.2476	19,026.9	49.7354	19,026.9	48.5818	19,026.9	51.0027	19,026.9	54.1205	19,026.9	51.242	19,026.9	52.9693	19,026.9	48.656	19,026.9	46.3224	19,026.9	52.5965	19,026.9	46.4782	19,026.9	44.3226	19,026.9	51.8644	19,026.9	45.9851
19,697.8	81.2668	19,697.8	81.7954	19,697.8	80.5807	19,697.8	80.9289	19,697.8	80.489	19,697.8	79.2536	19,697.8	79.1249	19,697.8	76.0865	19,697.8	76.3954	19,697.8	73.4885	19,697.8	72.7789	19,697.8	69.5547	19,697.8	66.8273	19,697.8	63.4623	19,697.8	59.8709	19,697.8	58.5129	19,697.8	56.5898	19,697.8	55.6063	19,697.8	54.8424	19,697.8	49.8257	19,697.8	55.0642	19,697.8	46.6874	19,697.8	58.1977	19,697.8	48.1922	19,697.8	49.1673	19,697.8	48.0258	19,697.8	54.9292	19,697.8	49.7428	19,697.8	54.4151	19,697.8	47.13	19,697.8	50.2276	19,697.8	53.1303	19,697.8	48.838	19,697.8	41.8497	19,697.8	51.7866	19,697.8	46.9174
19,999.5	81.0223	19,999.5	81.6172	19,999.5	80.5254	19,999.5	80.5098	19,999.5	80.1325	19,999.5	78.881	19,999.5	78.9915	19,999.5	75.5976	19,999.5	76.2513	19,999.5	73.0371	19,999.5	72.5315	19,999.5	69.0951	19,999.5	67.8119	19,999.5	63.3287	19,999.5	58.9627	19,999.5	56.9431	19,999.5	60.8991	19,999.5	54.7001	19,999.5	54.3957	19,999.5	49.2732	19,999.5	56.2562	19,999.5	45.4664	19,999.5	56.1094	19,999.5	49.5225	19,999.5	44.8627	19,999.5	52.891	19,999.5	52.0366	19,999.5	53.9868	19,999.5	55.8745	19,999.5	47.5151	19,999.5	47.0318	19,999.5	54.0389	19,999.5	50.4286	19,999.5	49.7523	19,999.5	51.1272	19,999.5	46.1258
