"SPL Horizontal"																																																																							
"On-Axis"		"10°"		"-10°"		"20°"		"-20°"		"30°"		"-30°"		"40°"		"-40°"		"50°"		"-50°"		"60°"		"-60°"		"70°"		"-70°"		"80°"		"-80°"		"90°"		"-90°"		"100°"		"-100°"		"110°"		"-110°"		"120°"		"-120°"		"130°"		"-130°"		"140°"		"-140°"		"150°"		"-150°"		"160°"		"-160°"		"170°"		"-170°"		"180°"	
"Frequency [Hz]"	"Sound Pessure Level [dB]  / [2.83V 1m] "	"Frequency [Hz]"	"Sound Pessure Level [dB]  / [2.83V 1m] "	"Frequency [Hz]"	"Sound Pessure Level [dB]  / [2.83V 1m] "	"Frequency [Hz]"	"Sound Pessure Level [dB]  / [2.83V 1m] "	"Frequency [Hz]"	"Sound Pessure Level [dB]  / [2.83V 1m] "	"Frequency [Hz]"	"Sound Pessure Level [dB]  / [2.83V 1m] "	"Frequency [Hz]"	"Sound Pessure Level [dB]  / [2.83V 1m] "	"Frequency [Hz]"	"Sound Pessure Level [dB]  / [2.83V 1m] "	"Frequency [Hz]"	"Sound Pessure Level [dB]  / [2.83V 1m] "	"Frequency [Hz]"	"Sound Pessure Level [dB]  / [2.83V 1m] "	"Frequency [Hz]"	"Sound Pessure Level [dB]  / [2.83V 1m] "	"Frequency [Hz]"	"Sound Pessure Level [dB]  / [2.83V 1m] "	"Frequency [Hz]"	"Sound Pessure Level [dB]  / [2.83V 1m] "	"Frequency [Hz]"	"Sound Pessure Level [dB]  / [2.83V 1m] "	"Frequency [Hz]"	"Sound Pessure Level [dB]  / [2.83V 1m] "	"Frequency [Hz]"	"Sound Pessure Level [dB]  / [2.83V 1m] "	"Frequency [Hz]"	"Sound Pessure Level [dB]  / [2.83V 1m] "	"Frequency [Hz]"	"Sound Pessure Level [dB]  / [2.83V 1m] "	"Frequency [Hz]"	"Sound Pessure Level [dB]  / [2.83V 1m] "	"Frequency [Hz]"	"Sound Pessure Level [dB]  / [2.83V 1m] "	"Frequency [Hz]"	"Sound Pessure Level [dB]  / [2.83V 1m] "	"Frequency [Hz]"	"Sound Pessure Level [dB]  / [2.83V 1m] "	"Frequency [Hz]"	"Sound Pessure Level [dB]  / [2.83V 1m] "	"Frequency [Hz]"	"Sound Pessure Level [dB]  / [2.83V 1m] "	"Frequency [Hz]"	"Sound Pessure Level [dB]  / [2.83V 1m] "	"Frequency [Hz]"	"Sound Pessure Level [dB]  / [2.83V 1m] "	"Frequency [Hz]"	"Sound Pessure Level [dB]  / [2.83V 1m] "	"Frequency [Hz]"	"Sound Pessure Level [dB]  / [2.83V 1m] "	"Frequency [Hz]"	"Sound Pessure Level [dB]  / [2.83V 1m] "	"Frequency [Hz]"	"Sound Pessure Level [dB]  / [2.83V 1m] "	"Frequency [Hz]"	"Sound Pessure Level [dB]  / [2.83V 1m] "	"Frequency [Hz]"	"Sound Pessure Level [dB]  / [2.83V 1m] "	"Frequency [Hz]"	"Sound Pessure Level [dB]  / [2.83V 1m] "	"Frequency [Hz]"	"Sound Pessure Level [dB]  / [2.83V 1m] "	"Frequency [Hz]"	"Sound Pessure Level [dB]  / [2.83V 1m] "	"Frequency [Hz]"	"Sound Pessure Level [dB]  / [2.83V 1m] "
20.5078	50.2286	20.5078	50.0549	20.5078	50.1363	20.5078	49.6103	20.5078	49.7727	20.5078	48.8848	20.5078	49.1243	20.5078	47.8846	20.5078	48.1821	20.5078	46.7025	20.5078	46.991	20.5078	45.7053	20.5078	45.8062	20.5078	45.6633	20.5078	45.3421	20.5078	46.9948	20.5078	46.3286	20.5078	49.0771	20.5078	48.3607	20.5078	51.2143	20.5078	50.5902	20.5078	53.1285	20.5078	52.6187	20.5078	54.7591	20.5078	54.3522	20.5078	56.109	20.5078	55.7899	20.5078	57.1925	20.5078	56.949	20.5078	58.0211	20.5078	57.8446	20.5078	58.6019	20.5078	58.487	20.5078	58.9384	20.5078	58.8817	20.5078	59.0317
21.9727	52.1991	21.9727	52.0517	21.9727	52.0908	21.9727	51.6459	21.9727	51.7211	21.9727	50.9763	21.9727	51.078	21.9727	50.0535	21.9727	50.1564	21.9727	48.967	21.9727	49.0074	21.9727	48.0357	21.9727	47.8837	21.9727	47.9175	21.9727	47.4512	21.9727	49.0432	21.9727	48.3768	21.9727	50.955	21.9727	50.3109	21.9727	53.001	21.9727	52.4673	21.9727	54.8718	21.9727	54.4492	21.9727	56.4818	21.9727	56.1515	21.9727	57.8219	21.9727	57.5666	21.9727	58.9009	21.9727	58.708	21.9727	59.7282	21.9727	59.5894	21.9727	60.31	21.9727	60.2199	21.9727	60.6495	21.9727	60.6052	21.9727	60.748
23.4375	53.4593	23.4375	53.3209	23.4375	53.3603	23.4375	52.9467	23.4375	53.0215	23.4375	52.3443	23.4375	52.4428	23.4375	51.5518	23.4375	51.6453	23.4375	50.7007	23.4375	50.7254	23.4375	50.1194	23.4375	49.9693	23.4375	50.3008	23.4375	49.9064	23.4375	51.4376	23.4375	50.8907	23.4375	53.1553	23.4375	52.6081	23.4375	54.991	23.4375	54.5179	23.4375	56.6996	23.4375	56.313	23.4375	58.1943	23.4375	57.8862	23.4375	59.4536	23.4375	59.2128	23.4375	60.4763	23.4375	60.2932	23.4375	61.265	23.4375	61.1329	23.4375	61.8219	23.4375	61.7361	23.4375	62.1478	23.4375	62.1055	23.4375	62.2425
24.9023	55.4811	24.9023	55.3821	24.9023	55.3915	24.9023	55.1006	24.9023	55.1147	24.9023	54.6561	24.9023	54.6637	24.9023	54.1004	24.9023	54.0798	24.9023	53.5541	24.9023	53.4702	24.9023	53.2434	24.9023	53.056	24.9023	53.4496	24.9023	53.1484	24.9023	54.2956	24.9023	53.9288	24.9023	55.6134	24.9023	55.25	24.9023	57.1171	24.9023	56.7975	24.9023	58.5954	24.9023	58.3306	24.9023	59.9391	24.9023	59.7264	24.9023	61.1004	24.9023	60.9336	24.9023	62.0597	24.9023	61.9329	24.9023	62.8086	24.9023	62.7171	24.9023	63.3425	24.9023	63.2831	24.9023	63.6583	24.9023	63.6291	24.9023	63.7542
26.3672	57.5315	26.3672	57.4445	26.3672	57.4615	26.3672	57.2064	26.3672	57.2375	26.3672	56.8361	26.3672	56.8745	26.3672	56.379	26.3672	56.4112	26.3672	55.9298	26.3672	55.9336	26.3672	55.6535	26.3672	55.6	26.3672	55.7574	26.3672	55.6262	26.3672	56.3674	26.3672	56.1682	26.3672	57.4147	26.3672	57.1832	26.3672	58.6972	26.3672	58.4686	26.3672	60.0221	26.3672	59.8165	26.3672	61.2661	26.3672	61.0909	26.3672	62.3636	26.3672	62.2202	26.3672	63.2821	26.3672	63.1695	26.3672	64.0049	26.3672	63.9218	26.3672	64.5229	26.3672	64.468	26.3672	64.8303	26.3672	64.803	26.3672	64.9241
27.832	59.101	27.832	59.0289	27.832	59.0412	27.832	58.832	27.832	58.8534	27.832	58.5318	27.832	58.5549	27.832	58.1748	27.832	58.1866	27.832	57.8471	27.832	57.8281	27.832	57.6832	27.832	57.6107	27.832	57.8366	27.832	57.6973	27.832	58.3962	27.832	58.1993	27.832	59.3162	27.832	59.0903	27.832	60.4503	27.832	60.2255	27.832	61.6441	27.832	61.4394	27.832	62.7859	27.832	62.6098	27.832	63.8082	27.832	63.6632	27.832	64.6731	27.832	64.559	27.832	65.359	27.832	65.2748	27.832	65.8529	27.832	65.7974	27.832	66.1468	27.832	66.1192	27.832	66.2361
29.2969	60.734	29.2969	60.674	29.2969	60.6834	29.2969	60.5109	29.2969	60.5265	29.2969	60.2662	29.2969	60.2805	29.2969	59.9829	29.2969	59.9836	29.2969	59.735	29.2969	59.7046	29.2969	59.6304	29.2969	59.5497	29.2969	59.787	29.2969	59.6446	29.2969	60.2758	29.2969	60.0785	29.2969	61.072	29.2969	60.8432	29.2969	62.0697	29.2969	61.8368	29.2969	63.1429	29.2969	62.9259	29.2969	64.1894	29.2969	63.9994	29.2969	65.1408	29.2969	64.9821	29.2969	65.9544	29.2969	65.8283	29.2969	66.6042	29.2969	66.5105	29.2969	67.074	29.2969	67.012	29.2969	67.3536	29.2969	67.3227	29.2969	67.4371
30.7617	62.3609	30.7617	62.3189	30.7617	62.3147	30.7617	62.1958	30.7617	62.1848	30.7617	62.0117	30.7617	61.9886	30.7617	61.8045	30.7617	61.7614	30.7617	61.6353	30.7617	61.5624	30.7617	61.5873	30.7617	61.4762	30.7617	61.7482	30.7617	61.5973	30.7617	62.1735	30.7617	61.9918	30.7617	62.853	30.7617	62.658	30.7617	63.715	30.7617	63.5249	30.7617	64.6622	30.7617	64.4899	30.7617	65.6056	30.7617	65.4578	30.7617	66.4788	30.7617	66.3576	30.7617	67.2361	30.7617	67.1414	30.7617	67.8477	30.7617	67.7782	30.7617	68.2939	30.7617	68.2484	30.7617	68.5619	30.7617	68.5394	30.7617	68.6446
32.2266	63.9403	32.2266	63.9075	32.2266	63.9052	32.2266	63.8132	32.2266	63.8068	32.2266	63.6758	32.2266	63.6612	32.2266	63.5283	32.2266	63.4995	32.2266	63.4209	32.2266	63.3709	32.2266	63.4185	32.2266	63.3411	32.2266	63.5872	32.2266	63.4804	32.2266	63.9691	32.2266	63.838	32.2266	64.5607	32.2266	64.4165	32.2266	65.3123	32.2266	65.1679	32.2266	66.149	32.2266	66.0152	32.2266	66.9959	32.2266	66.8792	32.2266	67.7915	32.2266	67.6947	32.2266	68.4901	32.2266	68.414	32.2266	69.0597	32.2266	69.0037	32.2266	69.4782	32.2266	69.4415	32.2266	69.7313	32.2266	69.7131	32.2266	69.8105
33.6914	65.5418	33.6914	65.5138	33.6914	65.5153	33.6914	65.4364	33.6914	65.4381	33.6914	65.3253	33.6914	65.3247	33.6914	65.2079	33.6914	65.2011	33.6914	65.1251	33.6914	65.1073	33.6914	65.1287	33.6914	65.0953	33.6914	65.2722	33.6914	65.2205	33.6914	65.5931	33.6914	65.5239	33.6914	66.0958	33.6914	66.0137	33.6914	66.7472	33.6914	66.6593	33.6914	67.4888	33.6914	67.4022	33.6914	68.2554	33.6914	68.1756	33.6914	68.9886	33.6914	68.9192	33.6914	69.642	33.6914	69.585	33.6914	70.1806	33.6914	70.1372	33.6914	70.5797	33.6914	70.5506	33.6914	70.8227	33.6914	70.808	33.6914	70.8998
35.1563	66.854	35.1563	66.8304	35.1563	66.8356	35.1563	66.7699	35.1563	66.7788	35.1563	66.6867	35.1563	66.6966	35.1563	66.6052	35.1563	66.6119	35.1563	66.5605	35.1563	66.5588	35.1563	66.5954	35.1563	66.5798	35.1563	66.7528	35.1563	66.7193	35.1563	67.0621	35.1563	67.0098	35.1563	67.5271	35.1563	67.4589	35.1563	68.1217	35.1563	68.0436	35.1563	68.7985	35.1563	68.7173	35.1563	69.5019	35.1563	69.4238	35.1563	70.1795	35.1563	70.1093	35.1563	70.7873	35.1563	70.7282	35.1563	71.2912	35.1563	71.2454	35.1563	71.6659	35.1563	71.6348	35.1563	71.8943	35.1563	71.8786	35.1563	71.9663
36.6211	68.1955	36.6211	68.1794	36.6211	68.1794	36.6211	68.1356	36.6211	68.1345	36.6211	68.0763	36.6211	68.0719	36.6211	68.0226	36.6211	68.0116	36.6211	68.0035	36.6211	67.9823	36.6211	68.054	36.6211	68.0191	36.6211	68.209	36.6211	68.1583	36.6211	68.4927	36.6211	68.4267	36.6211	68.9101	36.6211	68.832	36.6211	69.4422	36.6211	69.3575	36.6211	70.0513	36.6211	69.9659	36.6211	70.6903	36.6211	70.6095	36.6211	71.3118	36.6211	71.2398	36.6211	71.8742	36.6211	71.814	36.6211	72.3437	36.6211	72.2972	36.6211	72.6946	36.6211	72.663	36.6211	72.909	36.6211	72.8931	36.6211	72.9763
38.0859	69.3551	38.0859	69.3451	38.0859	69.3423	38.0859	69.3164	38.0859	69.3096	38.0859	69.2802	38.0859	69.2672	38.0859	69.2545	38.0859	69.2323	38.0859	69.2642	38.0859	69.2295	38.0859	69.3383	38.0859	69.2884	38.0859	69.5047	38.0859	69.4384	38.0859	69.7827	38.0859	69.7014	38.0859	70.1758	38.0859	70.0835	38.0859	70.6689	38.0859	70.5711	38.0859	71.2303	38.0859	71.1334	38.0859	71.82	38.0859	71.7293	38.0859	72.3957	38.0859	72.3156	38.0859	72.9192	38.0859	72.8525	38.0859	73.358	38.0859	73.3067	38.0859	73.6869	38.0859	73.6521	38.0859	73.8879	38.0859	73.8703	38.0859	73.9502
39.5508	70.6145	39.5508	70.6049	39.5508	70.6081	39.5508	70.5825	39.5508	70.5881	39.5508	70.557	39.5508	70.5635	39.5508	70.5439	39.5508	70.549	39.5508	70.5643	39.5508	70.5653	39.5508	70.6426	39.5508	70.6366	39.5508	70.8022	39.5508	70.787	39.5508	71.0599	39.5508	71.0342	39.5508	71.4194	39.5508	71.3839	39.5508	71.869	39.5508	71.8259	39.5508	72.3826	39.5508	72.3351	39.5508	72.9252	39.5508	72.8769	39.5508	73.4586	39.5508	73.4132	39.5508	73.947	39.5508	73.9073	39.5508	74.3589	39.5508	74.3273	39.5508	74.6696	39.5508	74.6476	39.5508	74.8609	39.5508	74.8496	39.5508	74.9221
41.0156	71.7911	41.0156	71.7824	41.0156	71.7854	41.0156	71.7621	41.0156	71.7675	41.0156	71.7384	41.0156	71.745	41.0156	71.7246	41.0156	71.7307	41.0156	71.7389	41.0156	71.7421	41.0156	71.8023	41.0156	71.8005	41.0156	71.936	41.0156	71.9269	41.0156	72.1559	41.0156	72.1384	41.0156	72.4677	41.0156	72.4418	41.0156	72.8638	41.0156	72.8308	41.0156	73.3232	41.0156	73.2856	41.0156	73.8154	41.0156	73.7761	41.0156	74.3053	41.0156	74.2675	41.0156	74.7584	41.0156	74.7248	41.0156	75.1437	41.0156	75.1166	41.0156	75.436	41.0156	75.4171	41.0156	75.6169	41.0156	75.6072	41.0156	75.6752
42.4805	72.674	42.4805	72.6731	42.4805	72.6704	42.4805	72.6701	42.4805	72.6639	42.4805	72.6725	42.4805	72.6614	42.4805	72.6919	42.4805	72.6737	42.4805	72.7436	42.4805	72.716	42.4805	72.8445	42.4805	72.8052	42.4805	73.0107	42.4805	72.9584	42.4805	73.2533	42.4805	73.188	42.4805	73.5746	42.4805	73.4982	42.4805	73.9664	42.4805	73.8824	42.4805	74.4095	42.4805	74.3227	42.4805	74.8774	42.4805	74.793	42.4805	75.3395	42.4805	75.2623	42.4805	75.7649	42.4805	75.6989	42.4805	76.1257	42.4805	76.0738	42.4805	76.3983	42.4805	76.3627	42.4805	76.5654	42.4805	76.5473	42.4805	76.6162
43.9453	73.837	43.9453	73.8383	43.9453	73.8353	43.9453	73.8415	43.9453	73.835	43.9453	73.8528	43.9453	73.8416	43.9453	73.882	43.9453	73.8646	43.9453	73.9418	43.9453	73.9167	43.9453	74.0463	43.9453	74.0122	43.9453	74.2086	43.9453	74.165	43.9453	74.4379	43.9453	74.3854	43.9453	74.7363	43.9453	74.6768	43.9453	75.0971	43.9453	75.0335	43.9453	75.5043	43.9453	75.4402	43.9453	75.935	43.9453	75.874	43.9453	76.3621	43.9453	76.3072	43.9453	76.7572	43.9453	76.711	43.9453	77.0942	43.9453	77.0583	43.9453	77.3503	43.9453	77.3259	43.9453	77.5086	43.9453	77.4962	43.9453	77.5584
45.4102	75.0404	45.4102	75.0426	45.4102	75.0404	45.4102	75.0489	45.4102	75.0441	45.4102	75.0643	45.4102	75.0563	45.4102	75.0969	45.4102	75.0847	45.4102	75.157	45.4102	75.1398	45.4102	75.2564	45.4102	75.2334	45.4102	75.4061	45.4102	75.377	45.4102	75.6141	45.4102	75.5794	45.4102	75.883	45.4102	75.8437	45.4102	76.2081	45.4102	76.1658	45.4102	76.5764	45.4102	76.5334	45.4102	76.9685	45.4102	76.9268	45.4102	77.3601	45.4102	77.3219	45.4102	77.725	45.4102	77.6921	45.4102	78.0382	45.4102	78.0122	45.4102	78.2777	45.4102	78.2597	45.4102	78.4266	45.4102	78.4174	45.4102	78.4743
46.875	75.8702	46.875	75.875	46.875	75.8699	46.875	75.8859	46.875	75.8752	46.875	75.9072	46.875	75.8903	46.875	75.946	46.875	75.922	46.875	76.0112	46.875	75.9791	46.875	76.1128	46.875	76.072	46.875	76.2602	46.875	76.2105	46.875	76.4604	46.875	76.4024	46.875	76.7153	46.875	76.6507	46.875	77.0209	46.875	76.952	46.875	77.3656	46.875	77.2956	46.875	77.7319	46.875	77.6641	46.875	78.0976	46.875	78.0353	46.875	78.4384	46.875	78.3847	46.875	78.7308	46.875	78.6882	46.875	78.9538	46.875	78.9243	46.875	79.0913	46.875	79.0763	46.875	79.1332
48.3398	76.6382	48.3398	76.6478	48.3398	76.6377	48.3398	76.6678	48.3398	76.6474	48.3398	76.7016	48.3398	76.671	48.3398	76.7549	48.3398	76.7141	48.3398	76.8349	48.3398	76.7841	48.3398	76.9494	48.3398	76.8893	48.3398	77.1057	48.3398	77.0374	48.3398	77.3089	48.3398	77.2339	48.3398	77.5598	48.3398	77.4806	48.3398	77.8544	48.3398	77.7735	48.3398	78.1822	48.3398	78.1028	48.3398	78.5277	48.3398	78.4528	48.3398	78.871	48.3398	78.8036	48.3398	79.1903	48.3398	79.1331	48.3398	79.4639	48.3398	79.419	48.3398	79.6725	48.3398	79.6417	48.3398	79.801	48.3398	79.7852	48.3398	79.8395
51.2695	78.3058	51.2695	78.3125	51.2695	78.3116	51.2695	78.3326	51.2695	78.3307	51.2695	78.3684	51.2695	78.3653	51.2695	78.4234	51.2695	78.419	51.2695	78.5023	51.2695	78.4962	51.2695	78.6102	51.2695	78.6021	51.2695	78.7516	51.2695	78.7414	51.2695	78.9299	51.2695	78.9176	51.2695	79.1457	51.2695	79.1314	51.2695	79.3962	51.2695	79.3802	51.2695	79.6739	51.2695	79.6568	51.2695	79.967	51.2695	79.9497	51.2695	80.26	51.2695	80.2434	51.2695	80.5348	51.2695	80.5199	51.2695	80.7727	51.2695	80.7605	51.2695	80.9563	51.2695	80.9476	51.2695	81.0716	51.2695	81.0671	51.2695	81.1095
52.7344	79.0101	52.7344	79.0181	52.7344	79.0161	52.7344	79.0407	52.7344	79.0364	52.7344	79.0796	52.7344	79.073	52.7344	79.1378	52.7344	79.1286	52.7344	79.2188	52.7344	79.2068	52.7344	79.3267	52.7344	79.3117	52.7344	79.4652	52.7344	79.4469	52.7344	79.6367	52.7344	79.6153	52.7344	79.8416	52.7344	79.8174	52.7344	80.0771	52.7344	80.0508	52.7344	80.3369	52.7344	80.3093	52.7344	80.6103	52.7344	80.5827	52.7344	80.8834	52.7344	80.8572	52.7344	81.1395	52.7344	81.1162	52.7344	81.3613	52.7344	81.3423	52.7344	81.5324	52.7344	81.5189	52.7344	81.6395	52.7344	81.6325	52.7344	81.6738
54.1992	79.7184	54.1992	79.7281	54.1992	79.7242	54.1992	79.7538	54.1992	79.7461	54.1992	79.7967	54.1992	79.7853	54.1992	79.859	54.1992	79.8438	54.1992	79.9432	54.1992	79.9243	54.1992	80.052	54.1992	80.0296	54.1992	80.1882	54.1992	80.1625	54.1992	80.3532	54.1992	80.3245	54.1992	80.547	54.1992	80.516	54.1992	80.7671	54.1992	80.7346	54.1992	81.0078	54.1992	80.9747	54.1992	81.26	54.1992	81.2274	54.1992	81.5112	54.1992	81.4807	54.1992	81.7466	54.1992	81.7198	54.1992	81.9505	54.1992	81.9287	54.1992	82.1077	54.1992	82.0924	54.1992	82.2059	54.1992	82.198	54.1992	82.2369
55.6641	80.2743	55.6641	80.2856	55.6641	80.2788	55.6641	80.3129	55.6641	80.2996	55.6641	80.3572	55.6641	80.3376	55.6641	80.4198	55.6641	80.3945	55.6641	80.5027	55.6641	80.4722	55.6641	80.608	55.6641	80.5731	55.6641	80.7377	55.6641	80.6991	55.6641	80.8929	55.6641	80.8516	55.6641	81.0736	55.6641	81.0306	55.6641	81.2777	55.6641	81.2341	55.6641	81.5003	55.6641	81.4572	55.6641	81.7332	55.6641	81.6921	55.6641	81.9655	55.6641	81.9278	55.6641	82.1835	55.6641	82.1508	55.6641	82.3725	55.6641	82.3464	55.6641	82.5184	55.6641	82.5002	55.6641	82.6093	55.6641	82.5999	55.6641	82.6373
58.5938	81.3001	58.5938	81.3102	58.5938	81.3088	58.5938	81.3395	58.5938	81.3366	58.5938	81.3881	58.5938	81.3837	58.5938	81.4565	58.5938	81.4504	58.5938	81.5453	58.5938	81.5374	58.5938	81.655	58.5938	81.6452	58.5938	81.7861	58.5938	81.7743	58.5938	81.9382	58.5938	81.9244	58.5938	82.1105	58.5938	82.0949	58.5938	82.3003	58.5938	82.2832	58.5938	82.5033	58.5938	82.4853	58.5938	82.7129	58.5938	82.6947	58.5938	82.9198	58.5938	82.9024	58.5938	83.1131	58.5938	83.0974	58.5938	83.2805	58.5938	83.2676	58.5938	83.4099	58.5938	83.4007	58.5938	83.4911	58.5938	83.4863	58.5938	83.5173
60.0586	81.7191	60.0586	81.7308	60.0586	81.7268	60.0586	81.762	60.0586	81.7541	60.0586	81.8126	60.0586	81.801	60.0586	81.8824	60.0586	81.8675	60.0586	81.9715	60.0586	81.9535	60.0586	82.0796	60.0586	82.0591	60.0586	82.2065	60.0586	82.1839	60.0586	82.3515	60.0586	82.3275	60.0586	82.5134	60.0586	82.4886	60.0586	82.6898	60.0586	82.6649	60.0586	82.8769	60.0586	82.8525	60.0586	83.0688	60.0586	83.0459	60.0586	83.2578	60.0586	83.237	60.0586	83.4341	60.0586	83.4162	60.0586	83.5867	60.0586	83.5725	60.0586	83.7047	60.0586	83.6948	60.0586	83.7787	60.0586	83.7736	60.0586	83.8024
62.9883	82.5571	62.9883	82.5695	62.9883	82.5655	62.9883	82.6024	62.9883	82.5948	62.9883	82.6553	62.9883	82.6443	62.9883	82.7272	62.9883	82.7135	62.9883	82.8171	62.9883	82.8013	62.9883	82.9237	62.9883	82.9065	62.9883	83.0456	62.9883	83.0277	62.9883	83.1813	62.9883	83.1635	62.9883	83.3291	62.9883	83.3119	62.9883	83.4866	62.9883	83.4705	62.9883	83.6507	62.9883	83.636	62.9883	83.8168	62.9883	83.8039	62.9883	83.979	62.9883	83.9679	62.9883	84.1296	62.9883	84.1205	62.9883	84.2599	62.9883	84.2528	62.9883	84.3608	62.9883	84.356	62.9883	84.4245	62.9883	84.4221	62.9883	84.4456
64.4531	82.9137	64.4531	82.9256	64.4531	82.9234	64.4531	82.9585	64.4531	82.9543	64.4531	83.0118	64.4531	83.0059	64.4531	83.0841	64.4531	83.0771	64.4531	83.1739	64.4531	83.1663	64.4531	83.2794	64.4531	83.2719	64.4531	83.3989	64.4531	83.3919	64.4531	83.5304	64.4531	83.5244	64.4531	83.6719	64.4531	83.6672	64.4531	83.821	64.4531	83.8178	64.4531	83.9749	64.4531	83.973	64.4531	84.1296	64.4531	84.1288	64.4531	84.2798	64.4531	84.2798	64.4531	84.419	64.4531	84.4193	64.4531	84.5393	64.4531	84.5398	64.4531	84.6328	64.4531	84.6333	64.4531	84.6923	64.4531	84.6926	64.4531	84.7128
67.3828	83.4329	67.3828	83.4441	67.3828	83.4441	67.3828	83.4773	67.3828	83.4774	67.3828	83.5312	67.3828	83.5317	67.3828	83.604	67.3828	83.6052	67.3828	83.6934	67.3828	83.6958	67.3828	83.7967	67.3828	83.8007	67.3828	83.9114	67.3828	83.9172	67.3828	84.0349	67.3828	84.0425	67.3828	84.1645	67.3828	84.1739	67.3828	84.298	67.3828	84.3088	67.3828	84.4327	67.3828	84.4444	67.3828	84.5656	67.3828	84.5775	67.3828	84.6929	67.3828	84.7041	67.3828	84.8097	67.3828	84.8196	67.3828	84.9102	67.3828	84.9182	67.3828	84.9884	67.3828	84.9939	67.3828	85.0385	67.3828	85.0413	67.3828	85.0566
68.8477	83.5769	68.8477	83.5878	68.8477	83.5888	68.8477	83.621	68.8477	83.6231	68.8477	83.6751	68.8477	83.6787	68.8477	83.748	68.8477	83.7533	68.8477	83.8371	68.8477	83.8445	68.8477	83.9395	68.8477	83.9492	68.8477	84.0521	68.8477	84.0642	68.8477	84.172	68.8477	84.1864	68.8477	84.2965	68.8477	84.313	68.8477	84.4231	68.8477	84.441	68.8477	84.5494	68.8477	84.568	68.8477	84.6726	68.8477	84.6909	68.8477	84.7896	68.8477	84.8066	68.8477	84.8962	68.8477	84.9111	68.8477	84.9878	68.8477	84.9996	68.8477	85.0589	68.8477	85.0671	68.8477	85.1048	68.8477	85.109	68.8477	85.1219
71.7773	84.0975	71.7773	84.107	71.7773	84.1109	71.7773	84.1389	71.7773	84.1467	71.7773	84.1916	71.7773	84.2034	71.7773	84.2626	71.7773	84.2784	71.7773	84.3488	71.7773	84.3686	71.7773	84.4467	71.7773	84.4703	71.7773	84.5527	71.7773	84.5799	71.7773	84.6634	71.7773	84.6937	71.7773	84.7757	71.7773	84.8085	71.7773	84.8871	71.7773	84.9212	71.7773	84.9953	71.7773	85.0296	71.7773	85.0984	71.7773	85.1315	71.7773	85.1942	71.7773	85.2247	71.7773	85.2804	71.7773	85.3068	71.7773	85.3537	71.7773	85.3748	71.7773	85.4108	71.7773	85.4255	71.7773	85.4484	71.7773	85.4559	71.7773	85.4637
74.707	84.6158	74.707	84.6238	74.707	84.6308	74.707	84.654	74.707	84.668	74.707	84.7049	74.707	84.7257	74.707	84.7735	74.707	84.8012	74.707	84.8564	74.707	84.8906	74.707	84.9496	74.707	84.99	74.707	85.0491	74.707	85.0951	74.707	85.1509	74.707	85.2016	74.707	85.2519	74.707	85.306	74.707	85.3492	74.707	85.4052	74.707	85.4409	74.707	85.4969	74.707	85.5256	74.707	85.5796	74.707	85.6023	74.707	85.6519	74.707	85.67	74.707	85.7129	74.707	85.7271	74.707	85.7613	74.707	85.7718	74.707	85.7956	74.707	85.8023	74.707	85.8145	74.707	85.8168
77.6367	84.7439	77.6367	84.7531	77.6367	84.7579	77.6367	84.7848	77.6367	84.7946	77.6367	84.8371	77.6367	84.8518	77.6367	84.9069	77.6367	84.9265	77.6367	84.9903	77.6367	85.0146	77.6367	85.0827	77.6367	85.1117	77.6367	85.1797	77.6367	85.2129	77.6367	85.2768	77.6367	85.3136	77.6367	85.3704	77.6367	85.4098	77.6367	85.4575	77.6367	85.4983	77.6367	85.5361	77.6367	85.5769	77.6367	85.6053	77.6367	85.6444	77.6367	85.6648	77.6367	85.7006	77.6367	85.7147	77.6367	85.7455	77.6367	85.7551	77.6367	85.7794	77.6367	85.7857	77.6367	85.8026	77.6367	85.8062	77.6367	85.8148	77.6367	85.816
79.1016	84.7146	79.1016	84.725	79.1016	84.7274	79.1016	84.7578	79.1016	84.7628	79.1016	84.8111	79.1016	84.8188	79.1016	84.8815	79.1016	84.8922	79.1016	84.9651	79.1016	84.9788	79.1016	85.0571	79.1016	85.0739	79.1016	85.1528	79.1016	85.1726	79.1016	85.2476	79.1016	85.2701	79.1016	85.3374	79.1016	85.3623	79.1016	85.4194	79.1016	85.4458	79.1016	85.4915	79.1016	85.5185	79.1016	85.553	79.1016	85.5793	79.1016	85.6038	79.1016	85.6282	79.1016	85.6446	79.1016	85.6659	79.1016	85.6764	79.1016	85.6934	79.1016	85.6997	79.1016	85.7115	79.1016	85.7149	79.1016	85.721	79.1016	85.722
82.0313	85.0083	82.0313	85.0202	82.0313	85.0195	82.0313	85.0546	82.0313	85.0533	82.0313	85.1091	82.0313	85.1076	82.0313	85.1803	82.0313	85.1791	82.0313	85.2637	82.0313	85.2633	82.0313	85.3545	82.0313	85.3554	82.0313	85.4473	82.0313	85.4499	82.0313	85.5374	82.0313	85.5419	82.0313	85.6203	82.0313	85.6268	82.0313	85.6929	82.0313	85.7013	82.0313	85.7533	82.0313	85.7631	82.0313	85.801	82.0313	85.8115	82.0313	85.8366	82.0313	85.8471	82.0313	85.8619	82.0313	85.8716	82.0313	85.8791	82.0313	85.887	82.0313	85.8901	82.0313	85.8958	82.0313	85.8967	82.0313	85.8997	82.0313	85.8998
84.9609	85.224	84.9609	85.2364	84.9609	85.2349	84.9609	85.2711	84.9609	85.2683	84.9609	85.3259	84.9609	85.3221	84.9609	85.397	84.9609	85.3929	84.9609	85.4798	84.9609	85.4759	84.9609	85.5691	84.9609	85.566	84.9609	85.6592	84.9609	85.6576	84.9609	85.745	84.9609	85.7451	84.9609	85.8219	84.9609	85.8239	84.9609	85.8863	84.9609	85.8903	84.9609	85.9364	84.9609	85.9421	84.9609	85.9718	84.9609	85.9787	84.9609	85.9939	84.9609	86.0013	84.9609	86.0053	84.9609	86.0124	84.9609	86.0093	84.9609	86.0154	84.9609	86.0095	84.9609	86.014	84.9609	86.0088	84.9609	86.0112	84.9609	86.0092
87.8906	85.1589	87.8906	85.1718	87.8906	85.1687	87.8906	85.2066	87.8906	85.2007	87.8906	85.2608	87.8906	85.2526	87.8906	85.3307	87.8906	85.3208	87.8906	85.4115	87.8906	85.4008	87.8906	85.4977	87.8906	85.4869	87.8906	85.5835	87.8906	85.5733	87.8906	85.6633	87.8906	85.6545	87.8906	85.7323	87.8906	85.7253	87.8906	85.7868	87.8906	85.7819	87.8906	85.825	87.8906	85.8223	87.8906	85.8468	87.8906	85.8459	87.8906	85.854	87.8906	85.8546	87.8906	85.8502	87.8906	85.8518	87.8906	85.8401	87.8906	85.842	87.8906	85.8286	87.8906	85.8302	87.8906	85.82	87.8906	85.8209	87.8906	85.8171
90.8203	85.3049	90.8203	85.3183	90.8203	85.3138	90.8203	85.3529	90.8203	85.3443	90.8203	85.4063	90.8203	85.3943	90.8203	85.4748	90.8203	85.46	90.8203	85.5532	90.8203	85.5368	90.8203	85.6361	90.8203	85.6191	90.8203	85.7172	90.8203	85.7008	90.8203	85.7909	90.8203	85.776	90.8203	85.8522	90.8203	85.8397	90.8203	85.8973	90.8203	85.8877	90.8203	85.9244	90.8203	85.9179	90.8203	85.9337	90.8203	85.9301	90.8203	85.9275	90.8203	85.9265	90.8203	85.9105	90.8203	85.9112	90.8203	85.8882	90.8203	85.8898	90.8203	85.8668	90.8203	85.8685	90.8203	85.8517	90.8203	85.8528	90.8203	85.8467
95.2148	85.337	95.2148	85.3482	95.2148	85.3473	95.2148	85.3801	95.2148	85.3783	95.2148	85.4302	95.2148	85.4278	95.2148	85.4948	95.2148	85.4921	95.2148	85.5689	95.2148	85.5665	95.2148	85.6467	95.2148	85.6451	95.2148	85.7219	95.2148	85.7216	95.2148	85.7886	95.2148	85.7901	95.2148	85.8414	95.2148	85.8449	95.2148	85.8765	95.2148	85.8821	95.2148	85.8916	95.2148	85.8992	95.2148	85.8874	95.2148	85.8965	95.2148	85.8666	95.2148	85.8766	95.2148	85.8347	95.2148	85.8446	95.2148	85.7987	95.2148	85.8074	95.2148	85.7663	95.2148	85.7729	95.2148	85.7445	95.2148	85.748	95.2148	85.7378
98.1445	85.3133	98.1445	85.3258	98.1445	85.3211	98.1445	85.358	98.1445	85.3488	98.1445	85.4074	98.1445	85.3941	98.1445	85.4702	98.1445	85.4534	98.1445	85.5415	98.1445	85.522	98.1445	85.6154	98.1445	85.5942	98.1445	85.6857	98.1445	85.6638	98.1445	85.7462	98.1445	85.7245	98.1445	85.7913	98.1445	85.771	98.1445	85.8172	98.1445	85.799	98.1445	85.8216	98.1445	85.8063	98.1445	85.8053	98.1445	85.7931	98.1445	85.7714	98.1445	85.7625	98.1445	85.7262	98.1445	85.7202	98.1445	85.6775	98.1445	85.6739	98.1445	85.6343	98.1445	85.6325	98.1445	85.6046	98.1445	85.6038	98.1445	85.5938
101.074	85.2555	101.074	85.2627	101.074	85.2684	101.074	85.2891	101.074	85.3005	101.074	85.3328	101.074	85.3496	101.074	85.3899	101.074	85.4121	101.074	85.4558	101.074	85.4831	101.074	85.5247	101.074	85.5568	101.074	85.5903	101.074	85.6269	101.074	85.6464	101.074	85.687	101.074	85.6873	101.074	85.7314	101.074	85.7091	101.074	85.7557	101.074	85.7095	101.074	85.7575	101.074	85.6893	101.074	85.737	101.074	85.652	101.074	85.6974	101.074	85.6041	101.074	85.6448	101.074	85.5541	101.074	85.5876	101.074	85.5114	101.074	85.5353	101.074	85.4844	101.074	85.4969	101.074	85.4791
105.469	85.2722	105.469	85.2795	105.469	85.2836	105.469	85.3046	105.469	85.3129	105.469	85.3456	105.469	85.3582	105.469	85.3988	105.469	85.4162	105.469	85.4598	105.469	85.4823	105.469	85.523	105.469	85.5509	105.469	85.582	105.469	85.6157	105.469	85.6309	105.469	85.6704	105.469	85.6638	105.469	85.7089	105.469	85.6768	105.469	85.7268	105.469	85.6678	105.469	85.7213	105.469	85.6376	105.469	85.6927	105.469	85.5902	105.469	85.6442	105.469	85.5326	105.469	85.5823	105.469	85.4742	105.469	85.5159	105.469	85.4252	105.469	85.4554	105.469	85.3949	105.469	85.4109	105.469	85.3896
108.398	85.2671	108.398	85.2753	108.398	85.2769	108.398	85.3008	108.398	85.304	108.398	85.3417	108.398	85.3466	108.398	85.3947	108.398	85.4014	108.398	85.4552	108.398	85.464	108.398	85.5177	108.398	85.5288	108.398	85.5759	108.398	85.5897	108.398	85.6235	108.398	85.6404	108.398	85.6548	108.398	85.6749	108.398	85.6653	108.398	85.6886	108.398	85.6528	108.398	85.6791	108.398	85.6181	108.398	85.6464	108.398	85.5653	108.398	85.5942	108.398	85.5015	108.398	85.529	108.398	85.4365	108.398	85.4603	108.398	85.3812	108.398	85.3988	108.398	85.3454	108.398	85.3548	108.398	85.336
112.793	85.2532	112.793	85.2597	112.793	85.2627	112.793	85.2818	112.793	85.2878	112.793	85.3174	112.793	85.3267	112.793	85.3636	112.793	85.3763	112.793	85.4159	112.793	85.4323	112.793	85.4689	112.793	85.4894	112.793	85.5166	112.793	85.5415	112.793	85.5526	112.793	85.582	112.793	85.5711	112.793	85.605	112.793	85.5678	112.793	85.6058	112.793	85.5406	112.793	85.5817	112.793	85.4904	112.793	85.5331	112.793	85.4217	112.793	85.464	112.793	85.3426	112.793	85.3817	112.793	85.264	112.793	85.2969	112.793	85.198	112.793	85.2219	112.793	85.1558	112.793	85.1684	112.793	85.1452
117.188	85.2202	117.188	85.2265	117.188	85.2293	117.188	85.2477	117.188	85.2537	117.188	85.2818	117.188	85.2916	117.188	85.3258	117.188	85.3404	117.188	85.3755	117.188	85.396	117.188	85.4257	117.188	85.4531	117.188	85.4704	117.188	85.5055	117.188	85.5034	117.188	85.5465	117.188	85.519	117.188	85.5698	117.188	85.5129	117.188	85.5703	117.188	85.483	117.188	85.5452	117.188	85.4304	117.188	85.4945	117.188	85.3596	117.188	85.4221	117.188	85.2788	117.188	85.3358	117.188	85.1992	117.188	85.2465	117.188	85.133	117.188	85.167	117.188	85.0917	117.188	85.1095	117.188	85.0831
120.117	85.1303	120.117	85.138	120.117	85.1374	120.117	85.1599	120.117	85.1589	120.117	85.1943	120.117	85.1933	120.117	85.2386	120.117	85.238	120.117	85.2887	120.117	85.2892	120.117	85.3395	120.117	85.342	120.117	85.3851	120.117	85.3906	120.117	85.419	120.117	85.4285	120.117	85.4355	120.117	85.4497	120.117	85.4301	120.117	85.4493	120.117	85.4006	120.117	85.4244	120.117	85.3477	120.117	85.3753	120.117	85.2762	120.117	85.3058	120.117	85.1942	120.117	85.2232	120.117	85.1127	120.117	85.1383	120.117	85.0442	120.117	85.0633	120.117	85.0001	120.117	85.0103	120.117	84.988
124.512	85.0971	124.512	85.0994	124.512	85.1084	124.512	85.1149	124.512	85.1327	124.512	85.1423	124.512	85.1687	124.512	85.1794	124.512	85.2141	124.512	85.2225	124.512	85.2654	124.512	85.2669	124.512	85.3176	124.512	85.3069	124.512	85.365	124.512	85.3362	124.512	85.4012	124.512	85.349	124.512	85.4199	124.512	85.3405	124.512	85.4162	124.512	85.3084	124.512	85.3869	124.512	85.2536	124.512	85.3322	124.512	85.1806	124.512	85.2559	124.512	85.0978	124.512	85.1657	124.512	85.0165	124.512	85.0727	124.512	84.9495	124.512	84.9898	124.512	84.9083	124.512	84.9294	124.512	84.9009
128.906	84.9545	128.906	84.9593	128.906	84.9614	128.906	84.9752	128.906	84.9799	128.906	85.0011	128.906	85.0091	128.906	85.0347	128.906	85.0471	128.906	85.0729	128.906	85.0909	128.906	85.1113	128.906	85.136	128.906	85.1444	128.906	85.1769	128.906	85.1665	128.906	85.2071	128.906	85.1716	128.906	85.2204	128.906	85.1554	128.906	85.2114	128.906	85.1154	128.906	85.177	128.906	85.0525	128.906	85.1172	128.906	84.9716	128.906	85.0358	128.906	84.8812	128.906	84.9408	128.906	84.7932	128.906	84.8434	128.906	84.7206	128.906	84.7572	128.906	84.6756	128.906	84.6948	128.906	84.6662
133.301	84.8145	133.301	84.8263	133.301	84.8135	133.301	84.8484	133.301	84.8235	133.301	84.8794	133.301	84.8442	133.301	84.9172	133.301	84.8741	133.301	84.9586	133.301	84.9106	133.301	84.9993	133.301	84.9497	133.301	85.0338	133.301	84.986	133.301	85.0561	133.301	85.013	133.301	85.0603	133.301	85.0244	133.301	85.0418	133.301	85.0146	133.301	84.998	133.301	84.9802	133.301	84.9298	133.301	84.9211	133.301	84.8422	133.301	84.8411	133.301	84.744	133.301	84.7482	133.301	84.6473	133.301	84.654	133.301	84.5657	133.301	84.5722	133.301	84.5118	133.301	84.5157	133.301	84.4943
139.16	84.6175	139.16	84.6295	139.16	84.6144	139.16	84.6498	139.16	84.62	139.16	84.6777	139.16	84.6342	139.16	84.7116	139.16	84.656	139.16	84.7488	139.16	84.6833	139.16	84.7854	139.16	84.7129	139.16	84.8162	139.16	84.74	139.16	84.8351	139.16	84.7588	139.16	84.836	139.16	84.7633	139.16	84.8141	139.16	84.748	139.16	84.7669	139.16	84.7096	139.16	84.6951	139.16	84.6481	139.16	84.6036	139.16	84.5671	139.16	84.5012	139.16	84.4747	139.16	84.4001	139.16	84.3824	139.16	84.314	139.16	84.3035	139.16	84.2556	139.16	84.2507	139.16	84.2335
143.555	84.4692	143.555	84.4762	143.555	84.4686	143.555	84.4896	143.555	84.4745	143.555	84.5091	143.555	84.4867	143.555	84.5338	143.555	84.5045	143.555	84.5615	143.555	84.5264	143.555	84.589	143.555	84.5492	143.555	84.6114	143.555	84.5688	143.555	84.6229	143.555	84.5796	143.555	84.6174	143.555	84.5757	143.555	84.5901	143.555	84.5519	143.555	84.5381	143.555	84.5052	143.555	84.4622	143.555	84.4355	143.555	84.367	143.555	84.3469	143.555	84.2615	143.555	84.2476	143.555	84.1581	143.555	84.1494	143.555	84.0705	143.555	84.0657	143.555	84.0116	143.555	84.0096	143.555	83.9903
147.949	84.3243	147.949	84.3307	147.949	84.3213	147.949	84.3402	147.949	84.3217	147.949	84.3528	147.949	84.3258	147.949	84.368	147.949	84.3334	147.949	84.3844	147.949	84.3436	147.949	84.3991	147.949	84.3541	147.949	84.4078	147.949	84.3611	147.949	84.4053	147.949	84.3596	147.949	84.386	147.949	84.3439	147.949	84.3454	147.949	84.309	147.949	84.2809	147.949	84.2518	147.949	84.1936	147.949	84.1723	147.949	84.0885	147.949	84.0748	147.949	83.975	147.949	83.9676	147.949	83.8655	147.949	83.8626	147.949	83.7741	147.949	83.7736	147.949	83.7134	147.949	83.7137	147.949	83.6923
153.809	84.1765	153.809	84.1832	153.809	84.1713	153.809	84.1916	153.809	84.1677	153.809	84.2018	153.809	84.1658	153.809	84.2135	153.809	84.1653	153.809	84.2253	153.809	84.1654	153.809	84.2342	153.809	84.1638	153.809	84.2359	153.809	84.1572	153.809	84.2249	153.809	84.1408	153.809	84.1955	153.809	84.1095	153.809	84.143	153.809	84.0587	153.809	84.0651	153.809	83.986	153.809	83.9632	153.809	83.8921	153.809	83.8427	153.809	83.782	153.809	83.7138	153.809	83.6648	153.809	83.5898	153.809	83.553	153.809	83.4853	153.809	83.4609	153.809	83.4139	153.809	83.4018	153.809	83.3849
159.668	84.0698	159.668	84.0704	159.668	84.0693	159.668	84.0718	159.668	84.0689	159.668	84.0746	159.668	84.0689	159.668	84.0791	159.668	84.0694	159.668	84.0848	159.668	84.0699	159.668	84.0894	159.668	84.0684	159.668	84.0888	159.668	84.0615	159.668	84.0776	159.668	84.0445	159.668	84.0497	159.668	84.012	159.668	84.0001	159.668	83.9595	159.668	83.9262	159.668	83.8846	159.668	83.8288	159.668	83.7885	159.668	83.7134	159.668	83.6763	159.668	83.5896	159.668	83.5576	159.668	83.4704	159.668	83.445	159.668	83.3702	159.668	83.3526	159.668	83.3021	159.668	83.293	159.668	83.2752
165.527	84.0286	165.527	84.0263	165.527	84.0286	165.527	84.0224	165.527	84.0265	165.527	84.0177	165.527	84.0229	165.527	84.0132	165.527	84.0186	165.527	84.009	165.527	84.0136	165.527	84.0035	165.527	84.0066	165.527	83.9935	165.527	83.9947	165.527	83.974	165.527	83.9735	165.527	83.9396	165.527	83.9377	165.527	83.8854	165.527	83.8829	165.527	83.8087	165.527	83.8064	165.527	83.7106	165.527	83.7091	165.527	83.5964	165.527	83.5959	165.527	83.4757	165.527	83.4761	165.527	83.3611	165.527	83.362	165.527	83.2664	165.527	83.2674	165.527	83.204	165.527	83.2046	165.527	83.1824
171.387	83.8108	171.387	83.8023	171.387	83.8159	171.387	83.7911	171.387	83.8177	171.387	83.7789	171.387	83.8172	171.387	83.7672	171.387	83.8154	171.387	83.757	171.387	83.8129	171.387	83.7475	171.387	83.8088	171.387	83.7361	171.387	83.8005	171.387	83.7181	171.387	83.7837	171.387	83.6881	171.387	83.7533	171.387	83.6411	171.387	83.7045	171.387	83.5743	171.387	83.6346	171.387	83.4883	171.387	83.5444	171.387	83.3879	171.387	83.4385	171.387	83.2822	171.387	83.3257	171.387	83.1829	171.387	83.2176	171.387	83.1025	171.387	83.1267	171.387	83.0519	171.387	83.0644	171.387	83.0384
177.246	83.6461	177.246	83.6412	177.246	83.6446	177.246	83.6297	177.246	83.6377	177.246	83.6131	177.246	83.6278	177.246	83.5931	177.246	83.6173	177.246	83.5713	177.246	83.6077	177.246	83.548	177.246	83.5987	177.246	83.5216	177.246	83.5879	177.246	83.4887	177.246	83.5702	177.246	83.445	177.246	83.5397	177.246	83.3861	177.246	83.4907	177.246	83.3097	177.246	83.4197	177.246	83.2169	177.246	83.3268	177.246	83.1128	177.246	83.2167	177.246	83.0063	177.246	83.0982	177.246	82.9091	177.246	82.9835	177.246	82.8331	177.246	82.8854	177.246	82.7886	177.246	82.8156	177.246	82.7822
183.105	83.3628	183.105	83.3701	183.105	83.3433	183.105	83.365	183.105	83.3133	183.105	83.3492	183.105	83.2763	183.105	83.3251	183.105	83.2366	183.105	83.2949	183.105	83.1982	183.105	83.2601	183.105	83.1637	183.105	83.2201	183.105	83.1328	183.105	83.1729	183.105	83.1026	183.105	83.1151	183.105	83.0679	183.105	83.0435	183.105	83.0228	183.105	82.9569	183.105	82.9625	183.105	82.8568	183.105	82.8854	183.105	82.7489	183.105	82.7941	183.105	82.6421	183.105	82.6952	183.105	82.5471	183.105	82.5986	183.105	82.4746	183.105	82.5152	183.105	82.4329	183.105	82.4552	183.105	82.4264
188.965	83.3096	188.965	83.3199	188.965	83.2801	188.965	83.3118	188.965	83.2327	188.965	83.2875	188.965	83.1701	188.965	83.2502	188.965	83.0964	188.965	83.2026	188.965	83.0163	188.965	83.1467	188.965	82.9339	188.965	83.0827	188.965	82.8513	188.965	83.0091	188.965	82.7689	188.965	82.9233	188.965	82.6849	188.965	82.8228	188.965	82.5964	188.965	82.707	188.965	82.5014	188.965	82.5781	188.965	82.4001	188.965	82.4422	188.965	82.2959	188.965	82.3086	188.965	82.1953	188.965	82.188	188.965	82.1068	188.965	82.0909	188.965	82.0392	188.965	82.0249	188.965	82	188.965	81.9944
196.289	83.1774	196.289	83.17	196.289	83.1673	196.289	83.1469	196.289	83.1394	196.289	83.111	196.289	83.095	196.289	83.0657	196.289	83.0366	196.289	83.0137	196.289	82.967	196.289	82.9566	196.289	82.8887	196.289	82.8937	196.289	82.8028	196.289	82.8227	196.289	82.7092	196.289	82.7403	196.289	82.6067	196.289	82.6433	196.289	82.4939	196.289	82.5306	196.289	82.3712	196.289	82.4038	196.289	82.2415	196.289	82.2683	196.289	82.1111	196.289	82.1323	196.289	81.9895	196.289	82.0061	196.289	81.8873	196.289	81.8999	196.289	81.8144	196.289	81.8226	196.289	81.7777	196.289	81.7806
203.613	82.9754	203.613	82.9544	203.613	82.973	203.613	82.9117	203.613	82.9473	203.613	82.8511	203.613	82.9008	203.613	82.7777	203.613	82.8371	203.613	82.6967	203.613	82.76	203.613	82.6118	203.613	82.673	203.613	82.5249	203.613	82.5779	203.613	82.4352	203.613	82.4751	203.613	82.3399	203.613	82.3636	203.613	82.2363	203.613	82.2426	203.613	82.123	203.613	82.1126	203.613	82.0014	203.613	81.9768	203.613	81.8766	203.613	81.8417	203.613	81.7562	203.613	81.7161	203.613	81.6488	203.613	81.61	203.613	81.5627	203.613	81.5318	203.613	81.5042	203.613	81.4871	203.613	81.4781
210.938	82.9131	210.938	82.8959	210.938	82.9027	210.938	82.8514	210.938	82.8658	210.938	82.7819	210.938	82.8055	210.938	82.6909	210.938	82.7257	210.938	82.5825	210.938	82.6308	210.938	82.4606	210.938	82.524	210.938	82.3284	210.938	82.4074	210.938	82.1877	210.938	82.2814	210.938	82.0399	210.938	82.1454	210.938	81.8865	210.938	81.9995	210.938	81.7306	210.938	81.8453	210.938	81.5774	210.938	81.6877	210.938	81.4344	210.938	81.5341	210.938	81.3098	210.938	81.394	210.938	81.2109	210.938	81.276	210.938	81.1421	210.938	81.1861	210.938	81.1053	210.938	81.1274	210.938	81.1005
218.262	82.7033	218.262	82.6907	218.262	82.6901	218.262	82.6532	218.262	82.6522	218.262	82.5933	218.262	82.5921	218.262	82.514	218.262	82.5137	218.262	82.4188	218.262	82.421	218.262	82.3098	218.262	82.3172	218.262	82.1881	218.262	82.2036	218.262	82.0533	218.262	82.08	218.262	81.9052	218.262	81.9448	218.262	81.7446	218.262	81.7968	218.262	81.575	218.262	81.637	218.262	81.4033	218.262	81.4699	218.262	81.2389	218.262	81.3035	218.262	81.0925	218.262	81.1487	218.262	80.9732	218.262	81.0165	218.262	80.8872	218.262	80.9157	218.262	80.8374	218.262	80.8514	218.262	80.8253
225.586	82.5034	225.586	82.5075	225.586	82.4686	225.586	82.4809	225.586	82.4053	225.586	82.4262	225.586	82.3186	225.586	82.3473	225.586	82.215	225.586	82.2485	225.586	82.102	225.586	82.1336	225.586	81.9865	225.586	82.0052	225.586	81.8734	225.586	81.8646	225.586	81.7647	225.586	81.713	225.586	81.6599	225.586	81.5532	225.586	81.5569	225.586	81.3909	225.586	81.4537	225.586	81.235	225.586	81.3499	225.586	81.0968	225.586	81.2477	225.586	80.9867	225.586	81.1504	225.586	80.9115	225.586	81.0625	225.586	80.8724	225.586	80.9874	225.586	80.8658	225.586	80.9278	225.586	80.886
232.91	82.5506	232.91	82.558	232.91	82.5044	232.91	82.5288	232.91	82.4197	232.91	82.4673	232.91	82.2997	232.91	82.3791	232.91	82.1496	232.91	82.2698	232.91	81.9759	232.91	82.1435	232.91	81.7854	232.91	82.0023	232.91	81.5846	232.91	81.8462	232.91	81.3794	232.91	81.6747	232.91	81.1757	232.91	81.489	232.91	80.9808	232.91	81.2945	232.91	80.8035	232.91	81.1019	232.91	80.6535	232.91	80.9245	232.91	80.5395	232.91	80.7748	232.91	80.4657	232.91	80.6591	232.91	80.4304	232.91	80.5756	232.91	80.4261	232.91	80.5168	232.91	80.4432	232.91	80.4742
241.699	82.4139	241.699	82.3895	241.699	82.3999	241.699	82.3296	241.699	82.3469	241.699	82.2395	241.699	82.2568	241.699	82.1255	241.699	82.1335	241.699	81.9942	241.699	81.9822	241.699	81.8509	241.699	81.808	241.699	81.6981	241.699	81.6149	241.699	81.5355	241.699	81.4057	241.699	81.3606	241.699	81.1829	241.699	81.1709	241.699	80.9504	241.699	80.9673	241.699	80.716	241.699	80.7567	241.699	80.4925	241.699	80.5518	241.699	80.2959	241.699	80.3682	241.699	80.1411	241.699	80.2183	241.699	80.0367	241.699	80.1071	241.699	79.9815	241.699	80.0316	241.699	79.9677	241.699	79.9859
250.488	82.2066	250.488	82.1881	250.488	82.1796	250.488	82.1258	250.488	82.1084	250.488	82.0243	250.488	81.9974	250.488	81.8904	250.488	81.854	250.488	81.7321	250.488	81.6867	250.488	81.5572	250.488	81.5045	250.488	81.3724	250.488	81.3142	250.488	81.1819	250.488	81.1197	250.488	80.9874	250.488	80.922	250.488	80.7894	250.488	80.721	250.488	80.5893	250.488	80.5191	250.488	80.3923	250.488	80.323	250.488	80.2079	250.488	80.1441	250.488	80.0485	250.488	79.9951	250.488	79.9245	250.488	79.8846	250.488	79.8398	250.488	79.8141	250.488	79.791	250.488	79.7788	250.488	79.7719
259.277	82.3678	259.277	82.3471	259.277	82.3474	259.277	82.2875	259.277	82.2854	259.277	82.1926	259.277	82.1835	259.277	82.0674	259.277	82.0447	259.277	81.9169	259.277	81.873	259.277	81.7455	259.277	81.673	259.277	81.5564	259.277	81.449	259.277	81.3515	259.277	81.2055	259.277	81.132	259.277	80.9473	259.277	80.9002	259.277	80.6813	259.277	80.6602	259.277	80.4178	259.277	80.4196	259.277	80.1707	259.277	80.1898	259.277	79.9554	259.277	79.9841	259.277	79.7845	259.277	79.8149	259.277	79.6641	259.277	79.6897	259.277	79.5922	259.277	79.6087	259.277	79.5619	259.277	79.5675
268.066	81.9218	268.066	81.891	268.066	81.9075	268.066	81.8188	268.066	81.8483	268.066	81.7122	268.066	81.7477	268.066	81.58	268.066	81.6128	268.066	81.4321	268.066	81.4527	268.066	81.2767	268.066	81.2766	268.066	81.1197	268.066	81.0924	268.066	80.9639	268.066	80.905	268.066	80.8094	268.066	80.7165	268.066	80.6557	268.066	80.5285	268.066	80.5037	268.066	80.3449	268.066	80.3568	268.066	80.1744	268.066	80.2211	268.066	80.029	268.066	80.1031	268.066	79.92	268.066	80.0076	268.066	79.8527	268.066	79.9352	268.066	79.8242	268.066	79.8828	268.066	79.8252	268.066	79.8464
276.855	81.8154	276.855	81.7831	276.855	81.7997	276.855	81.7009	276.855	81.7397	276.855	81.5697	276.855	81.6396	276.855	81.3938	276.855	81.5034	276.855	81.1796	276.855	81.3348	276.855	80.9355	276.855	81.1377	276.855	80.6696	276.855	80.9166	276.855	80.3898	276.855	80.6766	276.855	80.1052	276.855	80.423	276.855	79.8282	276.855	80.1613	276.855	79.5748	276.855	79.898	276.855	79.3622	276.855	79.6431	276.855	79.2016	276.855	79.4108	276.855	79.0932	276.855	79.2174	276.855	79.0259	276.855	79.0756	276.855	78.9845	276.855	78.9888	276.855	78.9579	276.855	78.9495	276.855	78.9437
287.109	81.9002	287.109	81.9307	287.109	81.8126	287.109	81.9052	287.109	81.6721	287.109	81.8282	287.109	81.4887	287.109	81.7063	287.109	81.2768	287.109	81.5461	287.109	81.0513	287.109	81.3532	287.109	80.8233	287.109	81.1312	287.109	80.598	287.109	80.8818	287.109	80.3748	287.109	80.6049	287.109	80.1527	287.109	80.3025	287.109	79.9341	287.109	79.9833	287.109	79.7268	287.109	79.6672	287.109	79.5424	287.109	79.3854	287.109	79.3908	287.109	79.1706	287.109	79.2759	287.109	79.0417	287.109	79.1936	287.109	78.9936	287.109	79.1335	287.109	79.0021	287.109	79.084	287.109	79.0386
297.363	81.6485	297.363	81.6524	297.363	81.5805	297.363	81.6024	297.363	81.443	297.363	81.511	297.363	81.2365	297.363	81.391	297.363	80.9684	297.363	81.2526	297.363	80.6534	297.363	81.1016	297.363	80.312	297.363	80.9384	297.363	79.9666	297.363	80.7587	297.363	79.638	297.363	80.5566	297.363	79.3424	297.363	80.3282	297.363	79.0919	297.363	80.0759	297.363	78.8974	297.363	79.8123	297.363	78.7687	297.363	79.5605	297.363	78.7114	297.363	79.3477	297.363	78.7204	297.363	79.193	297.363	78.7774	297.363	79.0963	297.363	78.8557	297.363	79.0378	297.363	78.9307	297.363	78.9898
307.617	81.7967	307.617	81.7435	307.617	81.8003	307.617	81.646	307.617	81.7506	307.617	81.5105	307.617	81.6445	307.617	81.3456	307.617	81.4803	307.617	81.1616	307.617	81.2582	307.617	80.969	307.617	80.9801	307.617	80.7764	307.617	80.6503	307.617	80.5898	307.617	80.2752	307.617	80.4115	307.617	79.865	307.617	80.2409	307.617	79.4371	307.617	80.0749	307.617	79.0207	307.617	79.9091	307.617	78.6584	307.617	79.7404	307.617	78.3987	307.617	79.5681	307.617	78.2775	307.617	79.3938	307.617	78.2991	307.617	79.2167	307.617	78.4316	307.617	79.0316	307.617	78.6245	307.617	78.8328
319.336	81.2957	319.336	81.2371	319.336	81.2967	319.336	81.1243	319.336	81.2411	319.336	80.9645	319.336	81.1338	319.336	80.7686	319.336	80.9823	319.336	80.5487	319.336	80.7952	319.336	80.3163	319.336	80.5803	319.336	80.08	319.336	80.343	319.336	79.8447	319.336	80.0867	319.336	79.6135	319.336	79.8144	319.336	79.3923	319.336	79.5324	319.336	79.1933	319.336	79.254	319.336	79.0337	319.336	79.0011	319.336	78.9271	319.336	78.8013	319.336	78.8737	319.336	78.6778	319.336	78.8571	319.336	78.6371	319.336	78.8515	319.336	78.6635	319.336	78.833	319.336	78.7254	319.336	78.7893
329.59	81.4545	329.59	81.4149	329.59	81.431	329.59	81.3152	329.59	81.345	329.59	81.1612	329.59	81.2003	329.59	80.9613	329.59	81.0033	329.59	80.7243	329.59	80.7607	329.59	80.4579	329.59	80.4793	329.59	80.1673	329.59	80.1644	329.59	79.8551	329.59	79.8204	329.59	79.5239	329.59	79.454	329.59	79.1807	329.59	79.0781	329.59	78.8425	329.59	78.7154	329.59	78.538	329.59	78.3979	329.59	78.3003	329.59	78.1588	329.59	78.1513	329.59	78.0184	329.59	78.0869	329.59	77.9723	329.59	78.0774	329.59	77.9918	329.59	78.0826	329.59	78.0365	329.59	78.072
341.309	81.2878	341.309	81.2263	341.309	81.2818	341.309	81.1007	341.309	81.2125	341.309	80.921	341.309	81.0897	341.309	80.7022	341.309	80.9263	341.309	80.461	341.309	80.7342	341.309	80.2113	341.309	80.5209	341.309	79.9601	341.309	80.2872	341.309	79.707	341.309	80.0284	341.309	79.4469	341.309	79.7384	341.309	79.1765	341.309	79.4168	341.309	78.9019	341.309	79.0758	341.309	78.642	341.309	78.7441	341.309	78.4248	341.309	78.4619	341.309	78.2743	341.309	78.2648	341.309	78.1961	341.309	78.164	341.309	78.1726	341.309	78.1396	341.309	78.1726	341.309	78.1529	341.309	78.169
353.027	80.8541	353.027	80.8115	353.027	80.8159	353.027	80.6946	353.027	80.6963	353.027	80.5149	353.027	80.501	353.027	80.288	353.027	80.2424	353.027	80.031	353.027	79.9377	353.027	79.7599	353.027	79.606	353.027	79.4853	353.027	79.2633	353.027	79.2106	353.027	78.9191	353.027	78.9334	353.027	78.5774	353.027	78.6518	353.027	78.242	353.027	78.3724	353.027	77.9256	353.027	78.1163	353.027	77.6555	353.027	77.914	353.027	77.4683	353.027	77.7897	353.027	77.3917	353.027	77.743	353.027	77.4225	353.027	77.7444	353.027	77.5223	353.027	77.7485	353.027	77.6355	353.027	77.7169
366.211	80.9535	366.211	80.8632	366.211	80.9671	366.211	80.7024	366.211	80.9044	366.211	80.4834	366.211	80.7705	366.211	80.2246	366.211	80.5745	366.211	79.948	366.211	80.3263	366.211	79.6728	366.211	80.0319	366.211	79.4087	366.211	79.689	366.211	79.1509	366.211	79.2867	366.211	78.8833	366.211	78.8113	366.211	78.5875	366.211	78.259	366.211	78.256	366.211	77.6532	366.211	77.9018	366.211	77.0564	366.211	77.5583	366.211	76.5648	366.211	77.2655	366.211	76.2685	366.211	77.0467	366.211	76.1943	366.211	76.8919	366.211	76.2871	366.211	76.7638	366.211	76.4546	366.211	76.6229
379.395	81.0684	379.395	80.9934	379.395	81.0799	379.395	80.8575	379.395	81.0324	379.395	80.6701	379.395	80.9353	379.395	80.4474	379.395	80.8003	379.395	80.2076	379.395	80.6383	379.395	79.9654	379.395	80.4557	379.395	79.7235	379.395	80.25	379.395	79.4681	379.395	80.0074	379.395	79.1715	379.395	79.7027	379.395	78.8044	379.395	79.3052	379.395	78.3528	379.395	78.7902	379.395	77.8329	379.395	78.1566	379.395	77.2966	379.395	77.4448	379.395	76.8155	379.395	76.7492	379.395	76.4442	379.395	76.1973	379.395	76.1868	379.395	75.883	379.395	76.0055	379.395	75.8017	379.395	75.8696
392.578	79.8466	392.578	79.7709	392.578	79.8368	392.578	79.6149	392.578	79.7582	392.578	79.4066	392.578	79.6469	392.578	79.1932	392.578	79.5506	392.578	79.0292	392.578	79.5134	392.578	78.9538	392.578	79.5553	392.578	78.9679	392.578	79.6568	392.578	79.0281	392.578	79.7621	392.578	79.0625	392.578	79.7974	392.578	78.9968	392.578	79.6932	392.578	78.7752	392.578	79.4009	392.578	78.3734	392.578	78.9034	392.578	77.8084	392.578	78.2246	392.578	77.1453	392.578	77.4381	392.578	76.4903	392.578	76.6641	392.578	75.9576	392.578	76.0372	392.578	75.6236	392.578	75.648	392.578	75.5158
405.762	80.7858	405.762	80.6509	405.762	80.6498	405.762	80.2404	405.762	80.249	405.762	79.556	405.762	79.6004	405.762	78.628	405.762	78.7586	405.762	77.5735	405.762	77.8689	405.762	76.6853	405.762	77.2202	405.762	76.3963	405.762	77.1461	405.762	76.8753	405.762	77.7005	405.762	77.788	405.762	78.5779	405.762	78.7009	405.762	79.4306	405.762	79.3764	405.762	80.0577	405.762	79.7409	405.762	80.3837	405.762	79.805	405.762	80.4051	405.762	79.626	405.762	80.1643	405.762	79.2967	405.762	79.7436	405.762	78.9387	405.762	79.2612	405.762	78.6856	405.762	78.8551	405.762	78.6453
420.41	83.4276	420.41	83.3768	420.41	83.3268	420.41	83.1697	420.41	83.0671	420.41	82.7889	420.41	82.6308	420.41	82.2057	420.41	81.9911	420.41	81.3844	420.41	81.1169	420.41	80.2966	420.41	79.9849	420.41	78.96	420.41	78.6185	420.41	77.5422	420.41	77.1949	420.41	76.5163	420.41	76.2076	420.41	76.4738	420.41	76.2539	420.41	77.3528	420.41	77.2296	420.41	78.5298	420.41	78.4784	420.41	79.5735	420.41	79.568	420.41	80.3506	420.41	80.3701	420.41	80.8675	420.41	80.8957	420.41	81.1768	420.41	81.2016	420.41	81.3365	420.41	81.3506	420.41	81.3895
435.059	82.7475	435.059	82.6846	435.059	82.7133	435.059	82.5231	435.059	82.5755	435.059	82.2525	435.059	82.32	435.059	81.8538	435.059	81.9275	435.059	81.3024	435.059	81.3766	435.059	80.5766	435.059	80.6508	435.059	79.6766	435.059	79.7529	435.059	78.6607	435.059	78.7341	435.059	77.6964	435.059	77.7402	435.059	77.0659	435.059	77.0357	435.059	76.9957	435.059	76.8784	435.059	77.4221	435.059	77.2678	435.059	78.0707	435.059	77.942	435.059	78.7062	435.059	78.6319	435.059	79.2163	435.059	79.1912	435.059	79.5723	435.059	79.5751	435.059	79.7807	435.059	79.7889	435.059	79.8528
451.172	82.4244	451.172	82.3967	451.172	82.3579	451.172	82.269	451.172	82.1958	451.172	82.0294	451.172	81.9289	451.172	81.6596	451.172	81.5397	451.172	81.1378	451.172	81.0053	451.172	80.4437	451.172	80.305	451.172	79.5724	451.172	79.4359	451.172	78.5633	451.172	78.4427	451.172	77.5473	451.172	77.4622	451.172	76.7826	451.172	76.744	451.172	76.5508	451.172	76.5395	451.172	76.8934	451.172	76.8711	451.172	77.5638	451.172	77.5125	451.172	78.2815	451.172	78.2105	451.172	78.8855	451.172	78.8142	451.172	79.3169	451.172	79.2617	451.172	79.566	451.172	79.5365	451.172	79.6378
465.82	82.2936	465.82	82.2181	465.82	82.2858	465.82	82.0595	465.82	82.189	465.82	81.8117	465.82	81.9923	465.82	81.4607	465.82	81.6791	465.82	80.9858	465.82	81.2268	465.82	80.3632	465.82	80.609	465.82	79.5765	465.82	79.8032	465.82	78.6394	465.82	78.81	465.82	77.6364	465.82	77.6944	465.82	76.7681	465.82	76.6483	465.82	76.3146	465.82	75.9971	465.82	76.4225	465.82	75.9823	465.82	76.9424	465.82	76.4901	465.82	77.5937	465.82	77.1972	465.82	78.1735	465.82	77.8601	465.82	78.59	465.82	78.3725	465.82	78.8169	465.82	78.705	465.82	78.8537
483.398	81.9929	483.398	81.9396	483.398	81.9661	483.398	81.8049	483.398	81.8562	483.398	81.5796	483.398	81.656	483.398	81.2453	483.398	81.3531	483.398	80.7747	483.398	80.9277	483.398	80.1372	483.398	80.3549	483.398	79.3116	483.398	79.6144	483.398	78.3122	483.398	78.7114	483.398	77.2376	483.398	77.7136	483.398	76.3271	483.398	76.7953	483.398	75.9087	483.398	76.2236	483.398	76.1183	483.398	76.1851	483.398	76.7363	483.398	76.5977	483.398	77.4415	483.398	77.2075	483.398	78.0374	483.398	77.8022	483.398	78.4526	483.398	78.2736	483.398	78.677	483.398	78.5824	483.398	78.7181
499.512	81.74	499.512	81.6836	499.512	81.7183	499.512	81.5531	499.512	81.6127	499.512	81.3478	499.512	81.415	499.512	81.0556	499.512	81.1125	499.512	80.6485	499.512	80.6851	499.512	80.0846	499.512	80.1053	499.512	79.3237	499.512	79.3414	499.512	78.3564	499.512	78.3722	499.512	77.2565	499.512	77.2286	499.512	76.2523	499.512	76.0784	499.512	75.714	499.512	75.3028	499.512	75.8666	499.512	75.2867	499.512	76.5201	499.512	75.9451	499.512	77.3068	499.512	76.8369	499.512	77.9825	499.512	77.6351	499.512	78.4523	499.512	78.2214	499.512	78.7015	499.512	78.5851	499.512	78.7427
517.09	81.9986	517.09	81.9122	517.09	82.0077	517.09	81.742	517.09	81.9419	517.09	81.4788	517.09	81.7966	517.09	81.1104	517.09	81.5569	517.09	80.6194	517.09	81.1959	517.09	79.9815	517.09	80.6752	517.09	79.1689	517.09	79.9505	517.09	78.1681	517.09	78.9855	517.09	77.0257	517.09	77.7864	517.09	75.9298	517.09	76.4767	517.09	75.251	517.09	75.4046	517.09	75.2963	517.09	75.0528	517.09	75.9333	517.09	75.5205	517.09	76.7631	517.09	76.3857	517.09	77.5014	517.09	77.2328	517.09	78.0364	517.09	77.8761	517.09	78.3438	517.09	78.2713	517.09	78.4234
536.133	81.2415	536.133	81.2306	536.133	81.173	536.133	81.1382	536.133	81.0296	536.133	80.9602	536.133	80.8159	536.133	80.682	536.133	80.5291	536.133	80.2718	536.133	80.1512	536.133	79.6786	536.133	79.6483	536.133	78.8402	536.133	78.979	536.133	77.7058	536.133	78.1169	536.133	76.2964	536.133	77.0894	536.133	74.8554	536.133	76.0481	536.133	74.0215	536.133	75.3318	536.133	74.3621	536.133	75.3083	536.133	75.5075	536.133	75.9636	536.133	76.7579	536.133	76.912	536.133	77.7778	536.133	77.8072	536.133	78.4914	536.133	78.4857	536.133	78.9058	536.133	78.8984	536.133	79.0386
555.176	81.6976	555.176	81.6289	555.176	81.693	555.176	81.492	555.176	81.6122	555.176	81.2897	555.176	81.4513	555.176	81.0129	555.176	81.1962	555.176	80.6295	555.176	80.8128	555.176	80.0808	555.176	80.2421	555.176	79.2881	555.176	79.4042	555.176	78.1705	555.176	78.2124	555.176	76.6892	555.176	76.6112	555.176	74.9798	555.176	74.7043	555.176	73.6411	555.176	73.096	555.176	73.5882	555.176	72.8959	555.176	74.7001	555.176	74.0907	555.176	76.0475	555.176	75.5945	555.176	77.1382	555.176	76.8344	555.176	77.8775	555.176	77.6998	555.176	78.2885	555.176	78.2095	555.176	78.3984
574.219	81.7556	574.219	81.7183	574.219	81.7466	574.219	81.6339	574.219	81.6909	574.219	81.4975	574.219	81.5832	574.219	81.2911	574.219	81.4067	574.219	80.9744	574.219	81.1273	574.219	80.481	574.219	80.6923	574.219	79.725	574.219	80.0341	574.219	78.6127	574.219	79.0806	574.219	77.07	574.219	77.7788	574.219	75.1434	574.219	76.1646	574.219	73.3425	574.219	74.5526	574.219	72.898	574.219	73.713	574.219	74.0808	574.219	74.1507	574.219	75.6621	574.219	75.276	574.219	76.9154	574.219	76.3892	574.219	77.7072	574.219	77.2426	574.219	78.0779	574.219	77.8089	574.219	78.0943
594.727	81.5033	594.727	81.5118	594.727	81.4695	594.727	81.4926	594.727	81.4163	594.727	81.4434	594.727	81.3475	594.727	81.349	594.727	81.2515	594.727	81.1673	594.727	81.0876	594.727	80.8229	594.727	80.7825	594.727	80.2167	594.727	80.2388	594.727	79.2462	594.727	79.3509	594.727	77.8426	594.727	78.0364	594.727	76.0685	594.727	76.3299	594.727	74.3759	594.727	74.6591	594.727	73.7392	594.727	74.0486	594.727	74.4891	594.727	74.8775	594.727	75.7624	594.727	76.1961	594.727	76.8995	594.727	77.2998	594.727	77.724	594.727	78.0252	594.727	78.2348	594.727	78.3953	594.727	78.4569
615.234	81.3153	615.234	81.2586	615.234	81.336	615.234	81.1857	615.234	81.3144	615.234	81.1152	615.234	81.2544	615.234	81.0377	615.234	81.1525	615.234	80.8942	615.234	80.9769	615.234	80.5766	615.234	80.6534	615.234	79.947	615.234	80.0698	615.234	78.8615	615.234	79.0944	615.234	77.2122	615.234	77.6124	615.234	75.1075	615.234	75.6494	615.234	73.4826	615.234	73.8205	615.234	73.8911	615.234	73.6282	615.234	75.6251	615.234	75.1209	615.234	77.2468	615.234	76.8145	615.234	78.3849	615.234	78.085	615.234	79.0866	615.234	78.9042	615.234	79.4489	615.234	79.363	615.234	79.535
637.207	80.9116	637.207	80.9528	637.207	80.8947	637.207	81.0238	637.207	80.9246	637.207	81.1385	637.207	81.0277	637.207	81.2749	637.207	81.1842	637.207	81.3441	637.207	81.2966	637.207	81.1947	637.207	81.2094	637.207	80.6378	637.207	80.7457	637.207	79.4521	637.207	79.7204	637.207	77.3579	637.207	77.9242	637.207	74.062	637.207	75.1624	637.207	70.7759	637.207	72.0492	637.207	72.6261	637.207	72.2716	637.207	76.0685	637.207	75.2538	637.207	78.3733	637.207	77.6856	637.207	79.7285	637.207	79.2415	637.207	80.456	637.207	80.1579	637.207	80.7801	637.207	80.6421	637.207	80.8306
659.18	80.737	659.18	80.7708	659.18	80.6943	659.18	80.8364	659.18	80.6756	659.18	81.0128	659.18	80.7659	659.18	81.3327	659.18	81.0238	659.18	81.7041	659.18	81.3846	659.18	81.9225	659.18	81.6489	659.18	81.7409	659.18	81.5555	659.18	80.8944	659.18	80.8233	659.18	79.0292	659.18	79.0918	659.18	75.425	659.18	75.6601	659.18	67.7251	659.18	68.2701	659.18	67.155	659.18	66.3602	659.18	75.0562	659.18	74.7497	659.18	78.7454	659.18	78.5519	659.18	80.7566	659.18	80.5989	659.18	81.8589	659.18	81.7308	659.18	82.3893	659.18	82.3139	659.18	82.5194
682.617	80.3863	682.617	80.2356	682.617	80.245	682.617	79.9372	682.617	79.8917	682.617	79.8667	682.617	79.6512	682.617	80.4116	682.617	79.9743	682.617	81.4824	682.617	80.9339	682.617	82.5816	682.617	82.0711	682.617	83.272	682.617	82.8884	682.617	83.2794	682.617	83.0711	682.617	82.3636	682.617	82.3761	682.617	80.1268	682.617	80.4407	682.617	75.4772	682.617	76.3301	682.617	62.5672	682.617	65.0129	682.617	72.5098	682.617	70.7147	682.617	78.7206	682.617	78.0942	682.617	81.687	682.617	81.3921	682.617	83.2703	682.617	83.1279	682.617	84.0512	682.617	83.993	682.617	84.2708
707.52	83.387	707.52	83.1012	707.52	83.1801	707.52	82.3531	707.52	82.4833	707.52	81.2807	707.52	81.3868	707.52	80.365	707.52	80.2821	707.52	80.4348	707.52	80.0118	707.52	81.5635	707.52	80.9371	707.52	82.8449	707.52	82.243	707.52	83.5871	707.52	83.1274	707.52	83.4701	707.52	83.2089	707.52	82.2272	707.52	82.2141	707.52	79.3194	707.52	79.6574	707.52	72.9857	707.52	74.0599	707.52	67.4795	707.52	65.4326	707.52	77.0189	707.52	76.0067	707.52	81.2313	707.52	80.7149	707.52	83.3973	707.52	83.1139	707.52	84.4529	707.52	84.3239	707.52	84.7332
732.422	85.0233	732.422	84.7128	732.422	84.8823	732.422	83.9395	732.422	84.2917	732.422	82.7229	732.422	83.2625	732.422	81.2843	732.422	81.9263	732.422	80.3966	732.422	80.8196	732.422	80.9315	732.422	80.8478	732.422	82.3104	732.422	81.9555	732.422	83.4312	732.422	83.1039	732.422	83.76	732.422	83.6025	732.422	83.0349	732.422	83.132	732.422	80.9036	732.422	81.3674	732.422	76.4374	732.422	77.5577	732.422	67.3432	732.422	69.5921	732.422	73.8154	732.422	72.5753	732.422	79.3431	732.422	78.8142	732.422	82.0448	732.422	81.8248	732.422	83.3595	732.422	83.2827	732.422	83.7405
757.324	85.7072	757.324	85.4667	757.324	85.5368	757.324	84.7776	757.324	84.9388	757.324	83.5796	757.324	83.8518	757.324	81.9203	757.324	82.2632	757.324	80.4049	757.324	80.5877	757.324	80.4522	757.324	80.1947	757.324	82.0152	757.324	81.5738	757.324	83.552	757.324	83.1966	757.324	84.3059	757.324	84.101	757.324	84.0355	757.324	83.9946	757.324	82.4974	757.324	82.6489	757.324	79.0939	757.324	79.5327	757.324	71.89	757.324	72.8246	757.324	70.5288	757.324	67.9642	757.324	77.9151	757.324	76.9586	757.324	81.2718	757.324	80.7996	757.324	82.8142	757.324	82.6057	757.324	83.2095
785.156	87.0381	785.156	86.8262	785.156	86.8832	785.156	86.2176	785.156	86.3257	785.156	85.1051	785.156	85.28	785.156	83.3178	785.156	83.6315	785.156	80.812	785.156	81.3755	785.156	78.8411	785.156	79.4108	785.156	80.1014	785.156	80.0159	785.156	82.5977	785.156	82.2468	785.156	84.2041	785.156	83.9219	785.156	84.5935	785.156	84.479	785.156	83.6555	785.156	83.7593	785.156	81.0268	785.156	81.4401	785.156	75.7655	785.156	76.7212	785.156	72.6526	785.156	72.5893	785.156	78.6967	785.156	78.2006	785.156	82.201	785.156	81.9482	785.156	83.8655	785.156	83.7632	785.156	84.3345
811.523	87.03	811.523	86.8864	811.523	86.9438	811.523	86.4739	811.523	86.577	811.523	85.6561	811.523	85.7936	811.523	84.184	811.523	84.3616	811.523	81.6567	811.523	81.9092	811.523	77.7492	811.523	78.0292	811.523	76.2222	811.523	75.592	811.523	80.2214	811.523	79.3884	811.523	83.2741	811.523	82.7121	811.523	84.6784	811.523	84.3751	811.523	84.671	811.523	84.6125	811.523	83.2648	811.523	83.4296	811.523	80.258	811.523	80.5938	811.523	76.2744	811.523	76.4365	811.523	77.207	811.523	76.7962	811.523	80.6847	811.523	80.4149	811.523	82.6876	811.523	82.5688	811.523	83.272
840.82	85.9318	840.82	85.9398	840.82	85.8716	840.82	85.841	840.82	85.7597	840.82	85.5356	840.82	85.5089	840.82	84.8542	840.82	84.924	840.82	83.5135	840.82	83.6975	840.82	81.0274	840.82	81.3445	840.82	76.5568	840.82	76.9661	840.82	72.8623	840.82	72.0698	840.82	78.0783	840.82	77.4535	840.82	81.7996	840.82	81.5614	840.82	83.4327	840.82	83.3672	840.82	83.4586	840.82	83.4921	840.82	81.9309	840.82	82.0809	840.82	78.6985	840.82	79.0903	840.82	74.8161	840.82	75.3654	840.82	75.4876	840.82	75.3094	840.82	77.7491	840.82	77.4904	840.82	78.4413
870.117	84.6105	870.117	84.6175	870.117	84.609	870.117	84.6158	870.117	84.6	870.117	84.5527	870.117	84.5463	870.117	84.3235	870.117	84.3632	870.117	83.753	870.117	83.8869	870.117	82.5787	870.117	82.8608	870.117	80.4527	870.117	80.9362	870.117	77.1851	870.117	77.785	870.117	75.1059	870.117	74.8847	870.117	77.5682	870.117	76.8818	870.117	80.0583	870.117	79.7351	870.117	81.0419	870.117	81.0475	870.117	80.5719	870.117	80.8256	870.117	78.6346	870.117	79.0375	870.117	74.9021	870.117	75.2923	870.117	68.2096	870.117	68.3802	870.117	56.2749	870.117	57.6955	870.117	59.5395
900.879	85.3226	900.879	85.1729	900.879	85.2323	900.879	84.8225	900.879	84.9211	900.879	84.3537	900.879	84.4499	900.879	83.8384	900.879	83.8793	900.879	83.2667	900.879	83.2216	900.879	82.52	900.879	82.4088	900.879	81.4351	900.879	81.3063	900.879	79.9521	900.879	79.8137	900.879	78.3811	900.879	78.1469	900.879	77.5319	900.879	77.1796	900.879	77.6625	900.879	77.4282	900.879	77.8811	900.879	77.8757	900.879	77.4337	900.879	77.5614	900.879	76.1057	900.879	76.2187	900.879	74.1779	900.879	74.1035	900.879	72.6467	900.879	72.2661	900.879	72.2412	900.879	71.8572	900.879	72.1463
933.105	85.5187	933.105	85.4172	933.105	85.4216	933.105	85.1017	933.105	85.1203	933.105	84.5544	933.105	84.592	933.105	83.7805	933.105	83.8194	933.105	82.8246	933.105	82.8242	933.105	81.7726	933.105	81.7003	933.105	80.756	933.105	80.6182	933.105	79.928	933.105	79.7571	933.105	79.34	933.105	79.1683	933.105	78.8146	933.105	78.7017	933.105	78.0239	933.105	78.0727	933.105	76.6575	933.105	76.9629	933.105	74.5677	933.105	75.1042	933.105	72.3498	933.105	72.6781	933.105	72.2007	933.105	71.6648	933.105	73.9861	933.105	73.3013	933.105	75.4114	933.105	75.0489	933.105	75.7864
965.332	85.3801	965.332	85.1862	965.332	85.3348	965.332	84.7776	965.332	85.04	965.332	84.1671	965.332	84.4942	965.332	83.3267	965.332	83.6791	965.332	82.1985	965.332	82.5509	965.332	80.7754	965.332	81.0902	965.332	79.2722	965.332	79.4575	965.332	78.2631	965.332	78.2067	965.332	78.1672	965.332	77.9143	965.332	78.5151	965.332	78.2123	965.332	78.5525	965.332	78.2534	965.332	77.8012	965.332	77.5199	965.332	75.9844	965.332	75.8264	965.332	73.2733	965.332	73.4455	965.332	71.9615	965.332	72.0329	965.332	73.6661	965.332	73.1473	965.332	75.2922	965.332	74.8429	965.332	75.675
1,000.49	85.5909	1,000.49	85.464	1,000.49	85.5269	1,000.49	85.1405	1,000.49	85.2656	1,000.49	84.5948	1,000.49	84.7817	1,000.49	83.7759	1,000.49	84.0229	1,000.49	82.6093	1,000.49	82.9268	1,000.49	81.0366	1,000.49	81.4791	1,000.49	79.1979	1,000.49	79.8141	1,000.49	77.808	1,000.49	78.3652	1,000.49	77.673	1,000.49	77.7361	1,000.49	78.1221	1,000.49	77.8653	1,000.49	78.0111	1,000.49	77.9159	1,000.49	76.7713	1,000.49	77.0965	1,000.49	74.1075	1,000.49	74.7994	1,000.49	70.4869	1,000.49	70.7115	1,000.49	70.6783	1,000.49	69.3911	1,000.49	73.9154	1,000.49	73.2056	1,000.49	75.9588	1,000.49	75.7029	1,000.49	76.5402
1,035.64	85.232	1,035.64	85.1101	1,035.64	85.1693	1,035.64	84.8096	1,035.64	84.9279	1,035.64	84.34	1,035.64	84.5022	1,035.64	83.6688	1,035.64	83.8508	1,035.64	82.6906	1,035.64	82.889	1,035.64	81.2652	1,035.64	81.5128	1,035.64	79.3487	1,035.64	79.6909	1,035.64	77.3557	1,035.64	77.7476	1,035.64	76.4964	1,035.64	76.6871	1,035.64	77.0329	1,035.64	76.9329	1,035.64	77.5057	1,035.64	77.2984	1,035.64	76.9207	1,035.64	76.7891	1,035.64	74.9084	1,035.64	74.9796	1,035.64	71.7633	1,035.64	71.809	1,035.64	70.7751	1,035.64	69.9656	1,035.64	73.3126	1,035.64	72.7297	1,035.64	75.4106	1,035.64	75.2354	1,035.64	76.0944
1,072.27	85.2342	1,072.27	85.1104	1,072.27	85.144	1,072.27	84.8003	1,072.27	84.8456	1,072.27	84.3282	1,072.27	84.3762	1,072.27	83.6811	1,072.27	83.7539	1,072.27	82.7951	1,072.27	82.9165	1,072.27	81.5603	1,072.27	81.7146	1,072.27	79.9089	1,072.27	80.0129	1,072.27	78.1452	1,072.27	78.0383	1,072.27	77.2665	1,072.27	76.9072	1,072.27	77.5581	1,072.27	77.2201	1,072.27	77.7635	1,072.27	77.5572	1,072.27	76.8977	1,072.27	76.75	1,072.27	74.4712	1,072.27	74.2406	1,072.27	70.6886	1,072.27	70.0005	1,072.27	70.6614	1,072.27	69.7027	1,072.27	74.1314	1,072.27	73.5861	1,072.27	76.2188	1,072.27	75.9504	1,072.27	76.771
1,108.89	84.9343	1,108.89	84.8124	1,108.89	84.8427	1,108.89	84.5121	1,108.89	84.5616	1,108.89	84.0849	1,108.89	84.1315	1,108.89	83.5166	1,108.89	83.5359	1,108.89	82.7078	1,108.89	82.6715	1,108.89	81.5207	1,108.89	81.3812	1,108.89	79.8396	1,108.89	79.5418	1,108.89	77.7513	1,108.89	77.2891	1,108.89	76.0895	1,108.89	75.5586	1,108.89	76.0137	1,108.89	75.5537	1,108.89	76.6235	1,108.89	76.3253	1,108.89	76.4467	1,108.89	76.2921	1,108.89	74.8023	1,108.89	74.5323	1,108.89	71.6025	1,108.89	70.246	1,108.89	70.639	1,108.89	67.8045	1,108.89	73.9125	1,108.89	72.6009	1,108.89	76.0915	1,108.89	75.5147	1,108.89	76.567
1,148.44	84.474	1,148.44	84.3504	1,148.44	84.373	1,148.44	84.0436	1,148.44	84.0555	1,148.44	83.5739	1,148.44	83.5901	1,148.44	82.9223	1,148.44	83.0232	1,148.44	82.0705	1,148.44	82.2924	1,148.44	80.9747	1,148.44	81.2349	1,148.44	79.502	1,148.44	79.6761	1,148.44	77.6088	1,148.44	77.6252	1,148.44	75.9284	1,148.44	75.7851	1,148.44	75.5479	1,148.44	75.37	1,148.44	75.7531	1,148.44	75.7051	1,148.44	75.0634	1,148.44	75.2048	1,148.44	72.859	1,148.44	72.9302	1,148.44	70.0718	1,148.44	67.9707	1,148.44	71.0907	1,148.44	65.954	1,148.44	73.9484	1,148.44	71.3026	1,148.44	75.5003	1,148.44	74.3299	1,148.44	75.5982
1,189.45	84.2244	1,189.45	84.0587	1,189.45	84.1435	1,189.45	83.6705	1,189.45	83.782	1,189.45	83.0826	1,189.45	83.1557	1,189.45	82.344	1,189.45	82.3533	1,189.45	81.4547	1,189.45	81.4472	1,189.45	80.2805	1,189.45	80.3973	1,189.45	78.6671	1,189.45	79.0749	1,189.45	76.7595	1,189.45	77.411	1,189.45	75.3545	1,189.45	75.7221	1,189.45	75.1564	1,189.45	74.8424	1,189.45	75.2715	1,189.45	74.7787	1,189.45	74.3886	1,189.45	74.3932	1,189.45	71.7752	1,189.45	72.8917	1,189.45	68.208	1,189.45	69.8006	1,189.45	69.2683	1,189.45	66.2432	1,189.45	72.6249	1,189.45	69.7201	1,189.45	74.7307	1,189.45	73.6835	1,189.45	75.2095
1,230.47	84.0939	1,230.47	83.8568	1,230.47	83.943	1,230.47	83.3494	1,230.47	83.4509	1,230.47	82.7413	1,230.47	82.7919	1,230.47	82.0687	1,230.47	82.1058	1,230.47	81.2095	1,230.47	81.3486	1,230.47	80.0345	1,230.47	80.3432	1,230.47	78.5167	1,230.47	78.9352	1,230.47	76.8447	1,230.47	77.1504	1,230.47	75.5871	1,230.47	75.6211	1,230.47	75.1417	1,230.47	75.3452	1,230.47	74.8408	1,230.47	75.6012	1,230.47	73.6867	1,230.47	74.9581	1,230.47	70.7826	1,230.47	72.6781	1,230.47	65.8853	1,230.47	68.4953	1,230.47	68.6615	1,230.47	67.4143	1,230.47	73.126	1,230.47	71.5471	1,230.47	74.9926	1,230.47	74.1362	1,230.47	75.1882
1,274.41	84.207	1,274.41	84.0203	1,274.41	84.0191	1,274.41	83.5124	1,274.41	83.5094	1,274.41	82.8179	1,274.41	82.8184	1,274.41	82.075	1,274.41	82.0703	1,274.41	81.2732	1,274.41	81.2295	1,274.41	80.1713	1,274.41	80.0867	1,274.41	78.4542	1,274.41	78.3994	1,274.41	76.1643	1,274.41	76.1863	1,274.41	74.5268	1,274.41	74.5043	1,274.41	74.7316	1,274.41	74.7126	1,274.41	75.1313	1,274.41	75.3098	1,274.41	74.1386	1,274.41	74.6322	1,274.41	70.8157	1,274.41	72.0562	1,274.41	65.5439	1,274.41	67.642	1,274.41	69.6856	1,274.41	68.2339	1,274.41	74.1053	1,274.41	72.8406	1,274.41	76.1562	1,274.41	75.5566	1,274.41	76.5825
1,319.82	84.0961	1,319.82	83.9111	1,319.82	83.8182	1,319.82	83.283	1,319.82	83.1833	1,319.82	82.42	1,319.82	82.3802	1,319.82	81.6609	1,319.82	81.6099	1,319.82	81.119	1,319.82	80.9496	1,319.82	80.4302	1,319.82	80.2394	1,319.82	78.9969	1,319.82	79.0546	1,319.82	76.3869	1,319.82	76.8118	1,319.82	73.6422	1,319.82	73.7214	1,319.82	74.4121	1,319.82	73.6328	1,319.82	76.0138	1,319.82	75.4025	1,319.82	75.4545	1,319.82	75.2338	1,319.82	71.4865	1,319.82	72.3205	1,319.82	57.5982	1,319.82	63.6086	1,319.82	68.7622	1,319.82	64.1127	1,319.82	74.3797	1,319.82	73.1012	1,319.82	76.8202	1,319.82	76.5371	1,319.82	77.5628
1,366.7	83.9853	1,366.7	83.6972	1,366.7	83.6669	1,366.7	82.8145	1,366.7	82.8272	1,366.7	81.5661	1,366.7	81.5834	1,366.7	80.3614	1,366.7	80.196	1,366.7	79.5452	1,366.7	79.1812	1,366.7	79.1076	1,366.7	78.776	1,366.7	78.4677	1,366.7	78.3184	1,366.7	76.8398	1,366.7	76.8524	1,366.7	74.169	1,366.7	73.8566	1,366.7	73.2333	1,366.7	71.6959	1,366.7	74.7269	1,366.7	73.5041	1,366.7	75.0713	1,366.7	74.5086	1,366.7	72.9116	1,366.7	72.9402	1,366.7	65.305	1,366.7	66.9195	1,366.7	63.2204	1,366.7	58.2629	1,366.7	73.0751	1,366.7	71.6642	1,366.7	76.4463	1,366.7	75.8829	1,366.7	77.2576
1,413.57	83.4292	1,413.57	83.2097	1,413.57	83.183	1,413.57	82.525	1,413.57	82.5252	1,413.57	81.4037	1,413.57	81.5279	1,413.57	79.9579	1,413.57	80.1773	1,413.57	78.5063	1,413.57	78.472	1,413.57	77.4403	1,413.57	76.9208	1,413.57	76.8354	1,413.57	76.2203	1,413.57	76.1694	1,413.57	75.4867	1,413.57	74.5715	1,413.57	73.2544	1,413.57	72.6311	1,413.57	70.3775	1,413.57	73.3383	1,413.57	71.487	1,413.57	74.1175	1,413.57	72.9276	1,413.57	72.355	1,413.57	71.9227	1,413.57	65.9642	1,413.57	67.0141	1,413.57	57.4405	1,413.57	49.0716	1,413.57	70.4401	1,413.57	69.2138	1,413.57	74.164	1,413.57	73.6922	1,413.57	75.0254
1,463.38	83.8941	1,463.38	83.7347	1,463.38	83.6934	1,463.38	83.1628	1,463.38	83.1475	1,463.38	82.1909	1,463.38	82.2901	1,463.38	81.022	1,463.38	81.2036	1,463.38	79.8732	1,463.38	79.9713	1,463.38	78.7894	1,463.38	78.7363	1,463.38	77.7184	1,463.38	77.6581	1,463.38	76.3093	1,463.38	76.3807	1,463.38	74.2245	1,463.38	74.2928	1,463.38	73.4019	1,463.38	72.7906	1,463.38	74.9774	1,463.38	74.2693	1,463.38	75.8059	1,463.38	75.6044	1,463.38	74.4897	1,463.38	74.8499	1,463.38	69.524	1,463.38	70.9692	1,463.38	39.9652	1,463.38	57.9435	1,463.38	68.5119	1,463.38	65.6349	1,463.38	72.864	1,463.38	71.7207	1,463.38	73.6038
1,516.11	84.7702	1,516.11	84.5509	1,516.11	84.58	1,516.11	83.9094	1,516.11	83.9534	1,516.11	82.7768	1,516.11	82.8208	1,516.11	81.1653	1,516.11	81.1865	1,516.11	79.5197	1,516.11	79.5131	1,516.11	78.6045	1,516.11	78.5154	1,516.11	78.1579	1,516.11	78.0059	1,516.11	76.969	1,516.11	77.0677	1,516.11	73.9401	1,516.11	74.8208	1,516.11	70.9266	1,516.11	71.8903	1,516.11	74.1825	1,516.11	73.7687	1,516.11	76.6351	1,516.11	76.5488	1,516.11	76.4079	1,516.11	76.8047	1,516.11	72.819	1,516.11	73.7184	1,516.11	58.239	1,516.11	62.1936	1,516.11	69.8504	1,516.11	67.462	1,516.11	74.8724	1,516.11	73.7353	1,516.11	75.5999
1,568.85	84.9526	1,568.85	84.8362	1,568.85	84.756	1,568.85	84.3759	1,568.85	84.25	1,568.85	83.4992	1,568.85	83.3398	1,568.85	82.0443	1,568.85	81.8751	1,568.85	80.1045	1,568.85	79.9636	1,568.85	78.6509	1,568.85	78.3452	1,568.85	78.2505	1,568.85	77.6449	1,568.85	77.5769	1,568.85	76.8754	1,568.85	75.3221	1,568.85	74.657	1,568.85	71.7319	1,568.85	70.7487	1,568.85	72.97	1,568.85	71.5837	1,568.85	75.9955	1,568.85	75.1488	1,568.85	76.4639	1,568.85	76.2228	1,568.85	73.5469	1,568.85	74.0517	1,568.85	64.367	1,568.85	64.8321	1,568.85	70.1439	1,568.85	66.6541	1,568.85	75.198	1,568.85	74.0233	1,568.85	76.0927
1,624.51	84.0995	1,624.51	84.0252	1,624.51	83.9827	1,624.51	83.6707	1,624.51	83.6015	1,624.51	82.9148	1,624.51	82.7866	1,624.51	81.6413	1,624.51	81.4828	1,624.51	79.8367	1,624.51	79.7976	1,624.51	78.1118	1,624.51	78.1331	1,624.51	77.5012	1,624.51	77.3653	1,624.51	77.244	1,624.51	77.1273	1,624.51	75.496	1,624.51	75.566	1,624.51	71.7161	1,624.51	71.5455	1,624.51	71.6957	1,624.51	70.264	1,624.51	74.4835	1,624.51	73.5728	1,624.51	74.753	1,624.51	74.487	1,624.51	71.2842	1,624.51	72.6048	1,624.51	63.1541	1,624.51	65.8177	1,624.51	70.9318	1,624.51	65.1436	1,624.51	74.9354	1,624.51	73.3137	1,624.51	75.6428
1,681.64	83.8727	1,681.64	83.6245	1,681.64	83.7749	1,681.64	83.0925	1,681.64	83.4173	1,681.64	82.3225	1,681.64	82.8563	1,681.64	81.2338	1,681.64	81.8982	1,681.64	79.557	1,681.64	80.4138	1,681.64	77.3019	1,681.64	78.5466	1,681.64	75.9593	1,681.64	77.1751	1,681.64	76.0141	1,681.64	77.1148	1,681.64	74.6994	1,681.64	76.2087	1,681.64	70.2151	1,681.64	72.447	1,681.64	69.6199	1,681.64	69.1203	1,681.64	73.9356	1,681.64	73.2267	1,681.64	74.5231	1,681.64	74.911	1,681.64	70.7788	1,681.64	73.2441	1,681.64	54.3074	1,681.64	65.4829	1,681.64	71.2323	1,681.64	65.8375	1,681.64	75.4633	1,681.64	73.5672	1,681.64	75.8859
1,741.7	84.5863	1,741.7	84.3658	1,741.7	84.4806	1,741.7	83.8009	1,741.7	84.0654	1,741.7	82.961	1,741.7	83.4003	1,741.7	81.9783	1,741.7	82.512	1,741.7	80.6204	1,741.7	81.2761	1,741.7	78.5011	1,741.7	79.4898	1,741.7	76.3666	1,741.7	77.6589	1,741.7	76.0292	1,741.7	77.2116	1,741.7	75.6062	1,741.7	77.0256	1,741.7	72.3793	1,741.7	74.5943	1,741.7	66.3036	1,741.7	69.4159	1,741.7	71.7739	1,741.7	72.8871	1,741.7	74.3394	1,741.7	75.4088	1,741.7	72.5163	1,741.7	74.2427	1,741.7	62.4787	1,741.7	68.1561	1,741.7	67.1533	1,741.7	62.2259	1,741.7	74.0333	1,741.7	73.1478	1,741.7	75.4592
1,803.22	85.1932	1,803.22	84.9698	1,803.22	84.9674	1,803.22	84.3323	1,803.22	84.3629	1,803.22	83.4214	1,803.22	83.5588	1,803.22	82.5015	1,803.22	82.5977	1,803.22	81.4086	1,803.22	81.4029	1,803.22	79.6046	1,803.22	79.685	1,803.22	77.3057	1,803.22	77.4253	1,803.22	76.2763	1,803.22	76.4641	1,803.22	76.4962	1,803.22	76.8456	1,803.22	75.0517	1,803.22	75.3897	1,803.22	70.5079	1,803.22	70.6497	1,803.22	70.6985	1,803.22	71.2188	1,803.22	74.1083	1,803.22	74.8523	1,803.22	73.625	1,803.22	74.4009	1,803.22	67.1761	1,803.22	68.7849	1,803.22	63.9058	1,803.22	61.2652	1,803.22	73.1146	1,803.22	72.1785	1,803.22	74.7629
1,866.21	85.3635	1,866.21	85.1433	1,866.21	85.1492	1,866.21	84.4579	1,866.21	84.5234	1,866.21	83.3971	1,866.21	83.5927	1,866.21	82.2661	1,866.21	82.5161	1,866.21	81.0845	1,866.21	81.329	1,866.21	79.4817	1,866.21	79.7916	1,866.21	77.3516	1,866.21	77.6023	1,866.21	75.8868	1,866.21	75.6635	1,866.21	76.1005	1,866.21	75.546	1,866.21	75.2142	1,866.21	74.8586	1,866.21	71.6998	1,866.21	71.6675	1,866.21	71.2971	1,866.21	69.7052	1,866.21	74.3604	1,866.21	73.264	1,866.21	73.9012	1,866.21	74.0102	1,866.21	67.8324	1,866.21	69.9607	1,866.21	62.1174	1,866.21	52.7251	1,866.21	71.9352	1,866.21	70.2904	1,866.21	73.612
1,932.13	85.9809	1,932.13	85.7173	1,932.13	85.794	1,932.13	84.9085	1,932.13	85.2271	1,932.13	83.7471	1,932.13	84.2367	1,932.13	82.4979	1,932.13	83.0123	1,932.13	81.2369	1,932.13	81.7934	1,932.13	79.8391	1,932.13	80.4047	1,932.13	77.835	1,932.13	78.4996	1,932.13	75.4877	1,932.13	76.4109	1,932.13	74.9963	1,932.13	75.5931	1,932.13	74.7827	1,932.13	75.1588	1,932.13	71.9674	1,932.13	72.6495	1,932.13	69.0297	1,932.13	70.3183	1,932.13	72.8794	1,932.13	73.1053	1,932.13	73.8308	1,932.13	74.2212	1,932.13	69.0863	1,932.13	71.6014	1,932.13	61.9938	1,932.13	62.3573	1,932.13	71.2575	1,932.13	69.6323	1,932.13	72.8105
1,999.51	86.5935	1,999.51	86.2991	1,999.51	86.425	1,999.51	85.6067	1,999.51	85.679	1,999.51	84.5429	1,999.51	84.5091	1,999.51	83.2857	1,999.51	83.2102	1,999.51	82.0009	1,999.51	81.9863	1,999.51	80.6482	1,999.51	80.7608	1,999.51	79.0564	1,999.51	79.0606	1,999.51	76.9355	1,999.51	76.9987	1,999.51	75.3592	1,999.51	75.4175	1,999.51	75.2648	1,999.51	74.5967	1,999.51	73.8454	1,999.51	73.3119	1,999.51	70.5583	1,999.51	70.312	1,999.51	71.9701	1,999.51	72.2292	1,999.51	73.3023	1,999.51	74.0215	1,999.51	70.2015	1,999.51	71.2541	1,999.51	60.2444	1,999.51	62.7074	1,999.51	70.6539	1,999.51	70.0378	1,999.51	73.1747
2,069.82	86.5638	2,069.82	86.2802	2,069.82	86.2935	2,069.82	85.5704	2,069.82	85.4552	2,069.82	84.5048	2,069.82	84.2376	2,069.82	83.0872	2,069.82	82.9057	2,069.82	81.6115	2,069.82	81.5261	2,069.82	80.3372	2,069.82	80.2786	2,069.82	79.1701	2,069.82	79.1598	2,069.82	77.5142	2,069.82	77.1618	2,069.82	75.4923	2,069.82	74.4749	2,069.82	75.0195	2,069.82	73.488	2,069.82	74.6479	2,069.82	72.595	2,069.82	72.4503	2,069.82	69.5329	2,069.82	72.4276	2,069.82	69.9243	2,069.82	74.04	2,069.82	72.5334	2,069.82	71.37	2,069.82	70.6858	2,069.82	63.4454	2,069.82	62.7356	2,069.82	70.9034	2,069.82	70.1525	2,069.82	73.1591
2,143.07	86.6912	2,143.07	86.2649	2,143.07	86.4239	2,143.07	85.4031	2,143.07	85.5881	2,143.07	84.3038	2,143.07	84.5895	2,143.07	82.71	2,143.07	83.3827	2,143.07	80.8879	2,143.07	81.8206	2,143.07	79.6895	2,143.07	80.5435	2,143.07	78.3734	2,143.07	79.4747	2,143.07	76.8103	2,143.07	77.844	2,143.07	75.3695	2,143.07	76.5185	2,143.07	73.8639	2,143.07	75.2956	2,143.07	73.6426	2,143.07	73.274	2,143.07	71.5063	2,143.07	70.8526	2,143.07	71.4655	2,143.07	68.5364	2,143.07	73.3967	2,143.07	71.4635	2,143.07	70.462	2,143.07	71.4425	2,143.07	64.1586	2,143.07	61.7092	2,143.07	69.4616	2,143.07	68.5402	2,143.07	71.8468
2,219.24	87.2269	2,219.24	86.9914	2,219.24	86.9496	2,219.24	86.178	2,219.24	86.3008	2,219.24	84.8021	2,219.24	85.3381	2,219.24	83.2337	2,219.24	83.7444	2,219.24	81.7403	2,219.24	82.0025	2,219.24	80.3474	2,219.24	80.6662	2,219.24	78.3688	2,219.24	79.0561	2,219.24	76.1526	2,219.24	77.4007	2,219.24	75.0669	2,219.24	76.5465	2,219.24	73.6182	2,219.24	75.8365	2,219.24	71.8323	2,219.24	74.36	2,219.24	71.2072	2,219.24	71.3829	2,219.24	70.3703	2,219.24	69.9909	2,219.24	71.8379	2,219.24	72.5475	2,219.24	71.127	2,219.24	72.511	2,219.24	63.2158	2,219.24	66.7514	2,219.24	70.6238	2,219.24	68.1857	2,219.24	73.7585
2,296.88	86.7433	2,296.88	86.5715	2,296.88	86.5474	2,296.88	85.9726	2,296.88	86.0042	2,296.88	84.8269	2,296.88	84.9342	2,296.88	83.222	2,296.88	83.2624	2,296.88	81.4404	2,296.88	81.4294	2,296.88	80.2319	2,296.88	80.0501	2,296.88	78.9878	2,296.88	78.4908	2,296.88	77.1576	2,296.88	76.0738	2,296.88	75.7398	2,296.88	75.0796	2,296.88	73.8561	2,296.88	74.781	2,296.88	72.6343	2,296.88	73.5727	2,296.88	70.4152	2,296.88	71.1081	2,296.88	68.8195	2,296.88	68.8055	2,296.88	72.3398	2,296.88	70.1955	2,296.88	71.6534	2,296.88	71.0452	2,296.88	66.9197	2,296.88	66.962	2,296.88	69.9312	2,296.88	66.1219	2,296.88	72.0714
2,378.91	86.7874	2,378.91	86.5771	2,378.91	86.489	2,378.91	85.8449	2,378.91	86.0385	2,378.91	84.5772	2,378.91	85.2241	2,378.91	83.1379	2,378.91	83.7667	2,378.91	81.8271	2,378.91	82.1469	2,378.91	80.527	2,378.91	80.5957	2,378.91	78.6881	2,378.91	78.6102	2,378.91	76.2576	2,378.91	76.3904	2,378.91	75.9234	2,378.91	75.4352	2,378.91	74.9128	2,378.91	74.8898	2,378.91	71.5688	2,378.91	73.5378	2,378.91	70.659	2,378.91	72.8862	2,378.91	67.4653	2,378.91	70.5776	2,378.91	72.4125	2,378.91	69.8413	2,378.91	71.687	2,378.91	71.3717	2,378.91	64.0769	2,378.91	66.8892	2,378.91	68.8133	2,378.91	65.8375	2,378.91	68.6682
2,462.4	87.2809	2,462.4	86.9767	2,462.4	87.052	2,462.4	86.2031	2,462.4	86.3144	2,462.4	85.0761	2,462.4	85.2683	2,462.4	84.0091	2,462.4	84.2767	2,462.4	82.892	2,462.4	83.0531	2,462.4	81.4222	2,462.4	81.6692	2,462.4	79.9415	2,462.4	80.3013	2,462.4	77.8388	2,462.4	77.8787	2,462.4	75.5953	2,462.4	76.3276	2,462.4	74.8021	2,462.4	76.0006	2,462.4	72.7899	2,462.4	73.8985	2,462.4	71.9354	2,462.4	73.2641	2,462.4	69.5149	2,462.4	71.5021	2,462.4	69.5293	2,462.4	71.0751	2,462.4	71.2788	2,462.4	72.1795	2,462.4	63.89	2,462.4	69.0015	2,462.4	68.659	2,462.4	67.9759	2,462.4	72.9603
2,548.83	86.4672	2,548.83	86.164	2,548.83	86.2338	2,548.83	85.3721	2,548.83	85.3302	2,548.83	84.4195	2,548.83	84.3545	2,548.83	83.4949	2,548.83	83.2162	2,548.83	82.1535	2,548.83	81.7892	2,548.83	81.2157	2,548.83	80.4255	2,548.83	80.1402	2,548.83	79.4078	2,548.83	78.1804	2,548.83	77.565	2,548.83	76.8721	2,548.83	74.3041	2,548.83	75.0369	2,548.83	74.3141	2,548.83	73.0622	2,548.83	71.9352	2,548.83	72.022	2,548.83	72.0905	2,548.83	70.246	2,548.83	72.0761	2,548.83	70.0429	2,548.83	69.8734	2,548.83	72.0927	2,548.83	71.121	2,548.83	69.2119	2,548.83	66.5095	2,548.83	71.0897	2,548.83	66.881	2,548.83	71.9118
2,639.65	87.0525	2,639.65	86.7211	2,639.65	86.7837	2,639.65	85.8893	2,639.65	86.0686	2,639.65	84.7591	2,639.65	85.1293	2,639.65	83.727	2,639.65	83.839	2,639.65	82.3991	2,639.65	82.7162	2,639.65	80.7898	2,639.65	81.4437	2,639.65	79.6717	2,639.65	80.1674	2,639.65	77.9273	2,639.65	78.8133	2,639.65	75.7369	2,639.65	76.1238	2,639.65	75.4045	2,639.65	74.6655	2,639.65	72.483	2,639.65	72.7982	2,639.65	72.1593	2,639.65	69.7015	2,639.65	71.6133	2,639.65	72.5311	2,639.65	69.6109	2,639.65	70.8195	2,639.65	69.6956	2,639.65	72.1231	2,639.65	64.3627	2,639.65	65.6292	2,639.65	67.073	2,639.65	69.9712	2,639.65	71.47
2,731.93	87.049	2,731.93	86.9247	2,731.93	86.8309	2,731.93	86.3584	2,731.93	86.1732	2,731.93	85.4794	2,731.93	85.364	2,731.93	84.4858	2,731.93	84.2654	2,731.93	83.1745	2,731.93	83.3967	2,731.93	81.7576	2,731.93	81.9454	2,731.93	80.2172	2,731.93	79.9186	2,731.93	78.8575	2,731.93	78.6855	2,731.93	76.7002	2,731.93	76.4747	2,731.93	75.8519	2,731.93	74.7847	2,731.93	75.1432	2,731.93	73.9654	2,731.93	72.3634	2,731.93	70.7254	2,731.93	71.6973	2,731.93	71.4707	2,731.93	70.5506	2,731.93	71.2343	2,731.93	70.7909	2,731.93	71.9932	2,731.93	64.2721	2,731.93	67.558	2,731.93	71.1083	2,731.93	66.896	2,731.93	74.5449
2,828.61	86.0878	2,828.61	86.1535	2,828.61	85.8274	2,828.61	85.6547	2,828.61	85.5167	2,828.61	84.9976	2,828.61	84.6901	2,828.61	83.8742	2,828.61	84.1303	2,828.61	82.7966	2,828.61	83.6868	2,828.61	81.4198	2,828.61	82.6217	2,828.61	80.0871	2,828.61	80.2804	2,828.61	78.1118	2,828.61	78.3412	2,828.61	74.9968	2,828.61	77.3803	2,828.61	75.8971	2,828.61	75.057	2,828.61	74.4715	2,828.61	74.4541	2,828.61	73.7689	2,828.61	70.9556	2,828.61	72.3972	2,828.61	71.1249	2,828.61	70.4981	2,828.61	70.004	2,828.61	72.0151	2,828.61	71.8842	2,828.61	63.2221	2,828.61	68.092	2,828.61	70.032	2,828.61	67.4537	2,828.61	72.0109
2,928.22	85.5531	2,928.22	85.455	2,928.22	85.6912	2,928.22	85.4272	2,928.22	85.0874	2,928.22	85.0187	2,928.22	84.4951	2,928.22	83.9543	2,928.22	84.2124	2,928.22	83.0874	2,928.22	83.5991	2,928.22	82.1286	2,928.22	82.7217	2,928.22	80.3305	2,928.22	80.5343	2,928.22	78.4728	2,928.22	78.4541	2,928.22	75.2793	2,928.22	77.1636	2,928.22	75.2366	2,928.22	75.5273	2,928.22	75.5048	2,928.22	75.4859	2,928.22	71.3402	2,928.22	72.9845	2,928.22	72.0328	2,928.22	67.3164	2,928.22	70.5339	2,928.22	66.5283	2,928.22	71.9448	2,928.22	71.001	2,928.22	65.5395	2,928.22	69.6607	2,928.22	66.9119	2,928.22	65.6648	2,928.22	75.0762
3,030.76	82.9081	3,030.76	82.6407	3,030.76	83.2107	3,030.76	82.9865	3,030.76	82.8701	3,030.76	82.9132	3,030.76	82.8305	3,030.76	82.3588	3,030.76	82.6855	3,030.76	81.4031	3,030.76	81.4637	3,030.76	80.4725	3,030.76	80.599	3,030.76	79.0289	3,030.76	79.6244	3,030.76	76.9927	3,030.76	77.9751	3,030.76	75.2562	3,030.76	76.0555	3,030.76	72.8838	3,030.76	73.6175	3,030.76	73.1068	3,030.76	72.9215	3,030.76	68.9214	3,030.76	71.8815	3,030.76	70.6875	3,030.76	72.6546	3,030.76	70.3446	3,030.76	69.5531	3,030.76	72.5161	3,030.76	70.6468	3,030.76	67.4503	3,030.76	68.3821	3,030.76	67.6995	3,030.76	61.9587	3,030.76	72.4643
3,137.7	80.9593	3,137.7	81.227	3,137.7	81.0278	3,137.7	81.8861	3,137.7	81.5021	3,137.7	82.1945	3,137.7	82.3214	3,137.7	81.9994	3,137.7	82.1606	3,137.7	80.9105	3,137.7	80.8691	3,137.7	79.8538	3,137.7	79.3605	3,137.7	78.2057	3,137.7	78.679	3,137.7	76.02	3,137.7	77.0175	3,137.7	74.6628	3,137.7	75.5759	3,137.7	69.7958	3,137.7	72.8641	3,137.7	71.2781	3,137.7	70.9424	3,137.7	66.7932	3,137.7	69.8137	3,137.7	65.7787	3,137.7	68.5672	3,137.7	67.74	3,137.7	68.9196	3,137.7	69.4994	3,137.7	69.5241	3,137.7	67.7397	3,137.7	67.9488	3,137.7	65.4479	3,137.7	56.7328	3,137.7	71.217
3,249.02	81.2926	3,249.02	81.829	3,249.02	81.4737	3,249.02	82.52	3,249.02	82.4083	3,249.02	82.7173	3,249.02	83.0697	3,249.02	82.591	3,249.02	82.9046	3,249.02	81.6182	3,249.02	81.7968	3,249.02	79.8449	3,249.02	79.9177	3,249.02	78.1686	3,249.02	78.4897	3,249.02	75.8792	3,249.02	76.404	3,249.02	74.605	3,249.02	74.8113	3,249.02	71.3935	3,249.02	73.091	3,249.02	70.728	3,249.02	70.8222	3,249.02	72.3266	3,249.02	69.0301	3,249.02	67.627	3,249.02	69.7101	3,249.02	67.5948	3,249.02	69.3692	3,249.02	71.5235	3,249.02	70.2306	3,249.02	69.9603	3,249.02	67.9551	3,249.02	69.0543	3,249.02	60.6686	3,249.02	70.4652
3,363.28	81.6183	3,363.28	82.1572	3,363.28	82.3615	3,363.28	82.9711	3,363.28	83.1218	3,363.28	83.2399	3,363.28	83.8753	3,363.28	83.1298	3,363.28	83.3807	3,363.28	81.8936	3,363.28	82.1492	3,363.28	80.287	3,363.28	80.5365	3,363.28	78.2053	3,363.28	78.4363	3,363.28	76.3332	3,363.28	76.5048	3,363.28	74.6973	3,363.28	74.1955	3,363.28	71.2395	3,363.28	72.4778	3,363.28	71.242	3,363.28	72.0211	3,363.28	72.3641	3,363.28	71.2215	3,363.28	69.4057	3,363.28	67.2737	3,363.28	66.9763	3,363.28	69.2515	3,363.28	69.3261	3,363.28	70.2371	3,363.28	66.6281	3,363.28	68.2887	3,363.28	66.5418	3,363.28	58.863	3,363.28	68.6221
3,481.93	81.8779	3,481.93	82.3866	3,481.93	82.4204	3,481.93	83.4711	3,481.93	83.3222	3,481.93	83.9296	3,481.93	84.1607	3,481.93	83.5932	3,481.93	83.8594	3,481.93	82.3089	3,481.93	82.5492	3,481.93	80.4371	3,481.93	80.5312	3,481.93	77.9169	3,481.93	78.7791	3,481.93	75.6628	3,481.93	76.5139	3,481.93	75.3784	3,481.93	73.4134	3,481.93	72.5077	3,481.93	71.8394	3,481.93	69.0636	3,481.93	69.573	3,481.93	72.4629	3,481.93	69.9707	3,481.93	69.8204	3,481.93	68.2332	3,481.93	68.8846	3,481.93	68.9767	3,481.93	70.6909	3,481.93	70.9756	3,481.93	66.963	3,481.93	69.6547	3,481.93	62.2574	3,481.93	59.6324	3,481.93	68.8772
3,604.98	82.0922	3,604.98	82.3133	3,604.98	82.3579	3,604.98	83.4255	3,604.98	83.5243	3,604.98	84.0461	3,604.98	84.4052	3,604.98	83.8845	3,604.98	83.9059	3,604.98	82.502	3,604.98	83.0957	3,604.98	80.3589	3,604.98	81.234	3,604.98	78.0493	3,604.98	79.0827	3,604.98	75.2814	3,604.98	77.2407	3,604.98	74.7029	3,604.98	74.3773	3,604.98	73.2852	3,604.98	71.7728	3,604.98	67.7874	3,604.98	68.0753	3,604.98	69.4058	3,604.98	71.327	3,604.98	70.313	3,604.98	70.8604	3,604.98	69.3095	3,604.98	68.1096	3,604.98	69.6355	3,604.98	70.4615	3,604.98	67.5009	3,604.98	71.0373	3,604.98	54.3222	3,604.98	36.4801	3,604.98	67.9632
3,732.42	82.0373	3,732.42	82.5001	3,732.42	81.9593	3,732.42	83.2357	3,732.42	83.7886	3,732.42	84.0653	3,732.42	84.3735	3,732.42	83.1828	3,732.42	83.8361	3,732.42	82.2655	3,732.42	82.7115	3,732.42	80.3029	3,732.42	81.0128	3,732.42	77.4856	3,732.42	78.7603	3,732.42	75.035	3,732.42	76.7329	3,732.42	72.678	3,732.42	74.3524	3,732.42	73.3946	3,732.42	71.7805	3,732.42	69.3178	3,732.42	70.2291	3,732.42	69.0446	3,732.42	68.5432	3,732.42	69.0983	3,732.42	68.5959	3,732.42	67.828	3,732.42	68.2985	3,732.42	68.5527	3,732.42	69.703	3,732.42	67.2367	3,732.42	71.8784	3,732.42	56.8528	3,732.42	50.9162	3,732.42	68.4139
3,864.26	82.6961	3,864.26	83.2535	3,864.26	82.7373	3,864.26	83.6953	3,864.26	84.1555	3,864.26	84.6468	3,864.26	84.4788	3,864.26	83.8078	3,864.26	84.527	3,864.26	82.8296	3,864.26	83.347	3,864.26	81.1162	3,864.26	81.5523	3,864.26	78.5026	3,864.26	79.0971	3,864.26	75.9516	3,864.26	76.5736	3,864.26	71.8071	3,864.26	75.497	3,864.26	71.9284	3,864.26	73.9157	3,864.26	68.6673	3,864.26	71.4087	3,864.26	65.2042	3,864.26	70.4996	3,864.26	67.2327	3,864.26	67.6287	3,864.26	66.8461	3,864.26	65.7233	3,864.26	65.6416	3,864.26	67.0043	3,864.26	66.3323	3,864.26	70.7591	3,864.26	49.2477	3,864.26	48.9516	3,864.26	67.5884
4,000.49	82.5024	4,000.49	83.0883	4,000.49	82.9809	4,000.49	83.5719	4,000.49	84.0796	4,000.49	84.1288	4,000.49	83.9761	4,000.49	83.0414	4,000.49	83.8682	4,000.49	81.9454	4,000.49	82.4352	4,000.49	80.6999	4,000.49	81.0584	4,000.49	78.9365	4,000.49	78.2611	4,000.49	76.9376	4,000.49	75.8855	4,000.49	73.5651	4,000.49	74.9766	4,000.49	72.438	4,000.49	72.9874	4,000.49	71.0038	4,000.49	71.2309	4,000.49	68.1012	4,000.49	69.8493	4,000.49	65.9214	4,000.49	68.754	4,000.49	65.7321	4,000.49	63.9077	4,000.49	67.8715	4,000.49	64.7636	4,000.49	67.9106	4,000.49	69.4019	4,000.49	54.3435	4,000.49	56.1272	4,000.49	66.6123
4,141.11	83.6644	4,141.11	84.1408	4,141.11	84.3174	4,141.11	84.5068	4,141.11	84.8309	4,141.11	84.5928	4,141.11	84.7916	4,141.11	84.2098	4,141.11	84.1758	4,141.11	82.288	4,141.11	82.4798	4,141.11	80.7489	4,141.11	81.4458	4,141.11	79.6915	4,141.11	79.3636	4,141.11	77.1254	4,141.11	76.2869	4,141.11	74.3963	4,141.11	73.29	4,141.11	71.5434	4,141.11	72.3674	4,141.11	69.0551	4,141.11	71.8044	4,141.11	63.1975	4,141.11	68.3645	4,141.11	64.2777	4,141.11	67.5469	4,141.11	63.9839	4,141.11	65.3392	4,141.11	67.5629	4,141.11	66.4623	4,141.11	70.2923	4,141.11	70.4771	4,141.11	52.2927	4,141.11	63.7386	4,141.11	67.4577
4,287.6	84.1363	4,287.6	84.1213	4,287.6	84.8388	4,287.6	84.3658	4,287.6	84.296	4,287.6	83.4864	4,287.6	84.1884	4,287.6	83.6897	4,287.6	83.8053	4,287.6	81.1269	4,287.6	82.0478	4,287.6	79.3355	4,287.6	80.2062	4,287.6	78.9491	4,287.6	78.645	4,287.6	76.3311	4,287.6	76.9366	4,287.6	74.5435	4,287.6	73.8047	4,287.6	73.0491	4,287.6	72.6841	4,287.6	71.469	4,287.6	69.4549	4,287.6	67.5221	4,287.6	63.9143	4,287.6	68.8727	4,287.6	67.3382	4,287.6	64.9977	4,287.6	65.856	4,287.6	63.5793	4,287.6	62.095	4,287.6	67.1713	4,287.6	67.4396	4,287.6	60.4405	4,287.6	65.6259	4,287.6	65.2073
4,438.48	84.9559	4,438.48	84.5585	4,438.48	84.7501	4,438.48	84.8667	4,438.48	83.7687	4,438.48	82.9443	4,438.48	83.6365	4,438.48	82.2133	4,438.48	82.8445	4,438.48	81.1269	4,438.48	82.2614	4,438.48	79.6243	4,438.48	79.9961	4,438.48	77.6949	4,438.48	78.2038	4,438.48	76.8865	4,438.48	76.5994	4,438.48	74.5986	4,438.48	74.5548	4,438.48	73.5099	4,438.48	71.0479	4,438.48	71.644	4,438.48	70.6375	4,438.48	69.4994	4,438.48	70.0159	4,438.48	69.3028	4,438.48	71.0567	4,438.48	64.8272	4,438.48	67.1501	4,438.48	66.2444	4,438.48	62.8875	4,438.48	66.2764	4,438.48	65.8006	4,438.48	61.02	4,438.48	60.9498	4,438.48	68.6056
4,595.21	85.3766	4,595.21	84.894	4,595.21	83.9823	4,595.21	84.4412	4,595.21	84.5297	4,595.21	84.6825	4,595.21	83.9295	4,595.21	81.7583	4,595.21	82.6085	4,595.21	81.9604	4,595.21	81.3225	4,595.21	80.009	4,595.21	79.4221	4,595.21	76.686	4,595.21	78.3379	4,595.21	75.9342	4,595.21	75.9834	4,595.21	72.8375	4,595.21	74.341	4,595.21	71.5455	4,595.21	71.9008	4,595.21	70.3043	4,595.21	72.3159	4,595.21	68.5504	4,595.21	68.331	4,595.21	65.2114	4,595.21	67.4545	4,595.21	66.6104	4,595.21	69.8273	4,595.21	65.6378	4,595.21	66.6685	4,595.21	67.2369	4,595.21	65.1788	4,595.21	55.2244	4,595.21	59.4713	4,595.21	69.2646
4,756.35	85.2908	4,756.35	84.7065	4,756.35	84.4727	4,756.35	83.5617	4,756.35	84.977	4,756.35	84.5583	4,756.35	83.6843	4,756.35	82.8673	4,756.35	82.0704	4,756.35	81.4627	4,756.35	79.8821	4,756.35	79.686	4,756.35	79.7717	4,756.35	77.3342	4,756.35	77.9709	4,756.35	74.5406	4,756.35	75.9976	4,756.35	72.9276	4,756.35	74.5662	4,756.35	69.6567	4,756.35	71.2883	4,756.35	70.1479	4,756.35	69.2717	4,756.35	68.3519	4,756.35	66.0208	4,756.35	67.5229	4,756.35	65.9741	4,756.35	67.9974	4,756.35	66.4891	4,756.35	67.8307	4,756.35	67.7703	4,756.35	68.4787	4,756.35	65.2136	4,756.35	55.9777	4,756.35	54.2194	4,756.35	66.2534
4,924.8	84.0572	4,924.8	83.2243	4,924.8	84.4295	4,924.8	82.5201	4,924.8	83.1102	4,924.8	81.9497	4,924.8	82.1885	4,924.8	82.1643	4,924.8	81.8017	4,924.8	80.0742	4,924.8	81.8181	4,924.8	79.7578	4,924.8	80.0009	4,924.8	78.4757	4,924.8	78.1519	4,924.8	75.4684	4,924.8	75.8619	4,924.8	72.4459	4,924.8	72.7593	4,924.8	69.0343	4,924.8	69.7237	4,924.8	69.4759	4,924.8	68.6145	4,924.8	67.191	4,924.8	66.5695	4,924.8	69.1482	4,924.8	66.8617	4,924.8	65.5365	4,924.8	63.0615	4,924.8	66.5745	4,924.8	66.7285	4,924.8	67.9573	4,924.8	66.4155	4,924.8	61.7288	4,924.8	62.3055	4,924.8	62.0593
5,097.66	83.5658	5,097.66	83.37	5,097.66	84.3642	5,097.66	82.9602	5,097.66	82.1991	5,097.66	80.6133	5,097.66	81.9979	5,097.66	81.1592	5,097.66	82.5078	5,097.66	80.9089	5,097.66	82.3701	5,097.66	79.5671	5,097.66	80.097	5,097.66	78.0504	5,097.66	78.1968	5,097.66	76.5483	5,097.66	76.0311	5,097.66	72.2875	5,097.66	73.7469	5,097.66	68.1759	5,097.66	68.8026	5,097.66	65.1815	5,097.66	66.9	5,097.66	63.3944	5,097.66	66.8559	5,097.66	68.8556	5,097.66	66.4219	5,097.66	66.4797	5,097.66	64.892	5,097.66	53.3591	5,097.66	66.1946	5,097.66	63.4446	5,097.66	66.6895	5,097.66	61.7902	5,097.66	63.9794	5,097.66	63.2233
5,277.83	83.5796	5,277.83	83.6229	5,277.83	82.083	5,277.83	81.9463	5,277.83	82.264	5,277.83	81.9545	5,277.83	81.7391	5,277.83	81.3117	5,277.83	82.1177	5,277.83	82.0794	5,277.83	80.5588	5,277.83	79.1748	5,277.83	79.8707	5,277.83	76.7978	5,277.83	78.4748	5,277.83	75.9444	5,277.83	75.4732	5,277.83	72.7594	5,277.83	73.6267	5,277.83	69.923	5,277.83	71.0631	5,277.83	67.7267	5,277.83	70.1354	5,277.83	66.9722	5,277.83	68.843	5,277.83	59.5038	5,277.83	65.0622	5,277.83	63.4015	5,277.83	65.2478	5,277.83	65.2943	5,277.83	67.3817	5,277.83	66.514	5,277.83	65.8002	5,277.83	58.8347	5,277.83	65.0594	5,277.83	64.3409
5,463.87	83.112	5,463.87	82.354	5,463.87	81.1921	5,463.87	81.1546	5,463.87	81.0633	5,463.87	82.645	5,463.87	80.9698	5,463.87	82.6939	5,463.87	80.8202	5,463.87	81.9733	5,463.87	80.532	5,463.87	80.1048	5,463.87	79.6492	5,463.87	77.9368	5,463.87	77.5153	5,463.87	75.8359	5,463.87	75.4115	5,463.87	73.6389	5,463.87	71.4222	5,463.87	71.6082	5,463.87	70.1373	5,463.87	71.7903	5,463.87	68.4352	5,463.87	68.5564	5,463.87	64.5759	5,463.87	62.0277	5,463.87	65.1227	5,463.87	61.1996	5,463.87	57.7688	5,463.87	66.8171	5,463.87	67.042	5,463.87	67.1456	5,463.87	65.2948	5,463.87	60.6336	5,463.87	60.4007	5,463.87	62.9618
5,657.23	82.8684	5,657.23	81.5359	5,657.23	83.0553	5,657.23	81.2577	5,657.23	80.1222	5,657.23	81.9579	5,657.23	81.2349	5,657.23	83.2079	5,657.23	81.6929	5,657.23	81.5867	5,657.23	82.403	5,657.23	80.6202	5,657.23	79.9307	5,657.23	77.7791	5,657.23	76.6766	5,657.23	73.4452	5,657.23	74.7624	5,657.23	72.0069	5,657.23	72.706	5,657.23	68.1435	5,657.23	69.5855	5,657.23	68.2249	5,657.23	66.4753	5,657.23	64.721	5,657.23	63.6001	5,657.23	65.063	5,657.23	65.5136	5,657.23	61.8285	5,657.23	60.0661	5,657.23	67.2912	5,657.23	63.8632	5,657.23	65.3727	5,657.23	64.2425	5,657.23	57.9476	5,657.23	59.666	5,657.23	63.7954
5,856.45	83.7124	5,856.45	82.8301	5,856.45	83.6239	5,856.45	81.6887	5,856.45	81.6295	5,856.45	81.0638	5,856.45	81.3092	5,856.45	81.8954	5,856.45	82.4013	5,856.45	80.8527	5,856.45	82.1131	5,856.45	79.4809	5,856.45	78.9744	5,856.45	77.1307	5,856.45	76.2183	5,856.45	72.7606	5,856.45	73.2926	5,856.45	69.5699	5,856.45	71.8038	5,856.45	68.4134	5,856.45	70.264	5,856.45	64.7818	5,856.45	68.7695	5,856.45	65.553	5,856.45	66.4522	5,856.45	64.6286	5,856.45	63.8531	5,856.45	59.2674	5,856.45	60.9692	5,856.45	64.3573	5,856.45	63.3496	5,856.45	63.4591	5,856.45	63.5252	5,856.45	61.3604	5,856.45	63.1451	5,856.45	62.3187
6,062.99	84.3609	6,062.99	83.8842	6,062.99	82.5788	6,062.99	81.5243	6,062.99	82.2828	6,062.99	81.5968	6,062.99	80.9051	6,062.99	81.0802	6,062.99	81.6658	6,062.99	80.9223	6,062.99	80.4119	6,062.99	78.3066	6,062.99	78.6907	6,062.99	75.6205	6,062.99	76.2772	6,062.99	73.3851	6,062.99	74.0147	6,062.99	69.4093	6,062.99	71.7915	6,062.99	69.8404	6,062.99	68.824	6,062.99	67.4222	6,062.99	66.3959	6,062.99	65.2173	6,062.99	65.6848	6,062.99	67.1885	6,062.99	62.4296	6,062.99	61.2911	6,062.99	62.3931	6,062.99	62.17	6,062.99	63.0079	6,062.99	63.6526	6,062.99	64.7549	6,062.99	61.3217	6,062.99	65.2017	6,062.99	57.46
6,276.86	84.6086	6,276.86	83.6261	6,276.86	83.8243	6,276.86	82.1752	6,276.86	81.4482	6,276.86	81.7424	6,276.86	80.8143	6,276.86	81.3168	6,276.86	80.325	6,276.86	80.713	6,276.86	79.5536	6,276.86	78.5027	6,276.86	78.5194	6,276.86	75.4735	6,276.86	75.9906	6,276.86	72.8238	6,276.86	74.4732	6,276.86	72.338	6,276.86	70.2236	6,276.86	68.8234	6,276.86	67.3547	6,276.86	63.7663	6,276.86	65.5052	6,276.86	64.9078	6,276.86	63.7193	6,276.86	62.861	6,276.86	63.4107	6,276.86	54.1308	6,276.86	61.0076	6,276.86	65.7843	6,276.86	63.1619	6,276.86	62.9428	6,276.86	62.5588	6,276.86	60.2193	6,276.86	65.7966	6,276.86	60.5601
6,498.05	84.0688	6,498.05	83.1827	6,498.05	84.3531	6,498.05	82.8838	6,498.05	82.2991	6,498.05	81.0168	6,498.05	81.5412	6,498.05	80.9313	6,498.05	80.8063	6,498.05	79.8122	6,498.05	80.5037	6,498.05	78.3344	6,498.05	78.5837	6,498.05	75.9555	6,498.05	76.339	6,498.05	72.6183	6,498.05	73.9548	6,498.05	72.6676	6,498.05	69.8047	6,498.05	68.5993	6,498.05	70.9592	6,498.05	64.4267	6,498.05	66.206	6,498.05	66.8244	6,498.05	65.9663	6,498.05	57.0753	6,498.05	62.8329	6,498.05	57.5862	6,498.05	55.754	6,498.05	64.6274	6,498.05	58.9632	6,498.05	61.6497	6,498.05	61.1952	6,498.05	56.4015	6,498.05	63.9705	6,498.05	62.9681
6,726.56	83.913	6,726.56	84.2842	6,726.56	83.2359	6,726.56	82.3682	6,726.56	83.228	6,726.56	80.5791	6,726.56	81.6252	6,726.56	79.722	6,726.56	80.9518	6,726.56	79.3342	6,726.56	79.9056	6,726.56	78.007	6,726.56	78.8444	6,726.56	75.8078	6,726.56	76.3053	6,726.56	74.6576	6,726.56	74.081	6,726.56	71.3624	6,726.56	71.7922	6,726.56	68.1369	6,726.56	68.4083	6,726.56	66.7997	6,726.56	66.0845	6,726.56	64.4337	6,726.56	62.7895	6,726.56	64.0792	6,726.56	60.1268	6,726.56	61.2649	6,726.56	60.1645	6,726.56	62.0121	6,726.56	60.6184	6,726.56	63.3127	6,726.56	63.0887	6,726.56	58.289	6,726.56	59.787	6,726.56	60.1289
6,963.87	83.9808	6,963.87	83.8365	6,963.87	83.665	6,963.87	82.5805	6,963.87	82.8424	6,963.87	80.7018	6,963.87	81.3533	6,963.87	79.3864	6,963.87	79.4855	6,963.87	79.1397	6,963.87	79.0716	6,963.87	77.8488	6,963.87	78.6195	6,963.87	75.054	6,963.87	76.354	6,963.87	73.93	6,963.87	74.5515	6,963.87	70.2988	6,963.87	71.0907	6,963.87	67.4861	6,963.87	69.0616	6,963.87	63.2274	6,963.87	68.0325	6,963.87	62.3837	6,963.87	66.1632	6,963.87	60.7578	6,963.87	60.0925	6,963.87	59.2381	6,963.87	60.2631	6,963.87	62.5109	6,963.87	59.583	6,963.87	60.5856	6,963.87	62.2708	6,963.87	55.8111	6,963.87	63.1557	6,963.87	58.3782
7,209.96	83.0415	7,209.96	83.2607	7,209.96	84.0984	7,209.96	83.5362	7,209.96	83.2227	7,209.96	81.2684	7,209.96	81.6059	7,209.96	79.7782	7,209.96	79.7129	7,209.96	78.9938	7,209.96	79.863	7,209.96	77.349	7,209.96	78.9461	7,209.96	75.1381	7,209.96	75.9992	7,209.96	72.7264	7,209.96	73.8808	7,209.96	69.6702	7,209.96	70.0956	7,209.96	66.9963	7,209.96	68.498	7,209.96	61.5831	7,209.96	65.2727	7,209.96	59.8553	7,209.96	60.5178	7,209.96	53.8994	7,209.96	63.9532	7,209.96	60.6257	7,209.96	60.3712	7,209.96	61.4666	7,209.96	60.42	7,209.96	58.7516	7,209.96	59.5325	7,209.96	52.0754	7,209.96	61.7228	7,209.96	55.9947
7,464.84	82.8409	7,464.84	83.5289	7,464.84	82.9351	7,464.84	83.2839	7,464.84	83.3121	7,464.84	81.4146	7,464.84	81.1443	7,464.84	80.0389	7,464.84	79.8061	7,464.84	78.8805	7,464.84	79.6786	7,464.84	77.9198	7,464.84	78.1838	7,464.84	75.3012	7,464.84	75.5854	7,464.84	71.612	7,464.84	73.3908	7,464.84	68.7105	7,464.84	70.2478	7,464.84	66.0453	7,464.84	67.5779	7,464.84	64.6004	7,464.84	61.9707	7,464.84	59.8433	7,464.84	61.881	7,464.84	59.3569	7,464.84	58.5907	7,464.84	58.1159	7,464.84	61.4911	7,464.84	59.0906	7,464.84	54.2735	7,464.84	58.8691	7,464.84	59.2469	7,464.84	57.7784	7,464.84	61.3012	7,464.84	54.4065
7,727.05	82.9861	7,727.05	83.9003	7,727.05	83.5685	7,727.05	82.675	7,727.05	82.8159	7,727.05	80.8488	7,727.05	80.2661	7,727.05	79.4712	7,727.05	79.3737	7,727.05	79.5316	7,727.05	78.9031	7,727.05	77.9681	7,727.05	77.5288	7,727.05	74.9532	7,727.05	74.6759	7,727.05	70.9524	7,727.05	72.3192	7,727.05	68.4357	7,727.05	68.7912	7,727.05	66.1709	7,727.05	66.8623	7,727.05	63.2248	7,727.05	65.041	7,727.05	61.6199	7,727.05	60.675	7,727.05	54.6205	7,727.05	56.9971	7,727.05	58.2991	7,727.05	58.1658	7,727.05	57.0851	7,727.05	56.1847	7,727.05	59.4098	7,727.05	59.0795	7,727.05	56.5165	7,727.05	53.1218	7,727.05	56.0006
7,999.51	83.1252	7,999.51	83.4617	7,999.51	83.7868	7,999.51	83.0484	7,999.51	82.784	7,999.51	81.1361	7,999.51	80.827	7,999.51	80.0584	7,999.51	79.5859	7,999.51	79.866	7,999.51	79.363	7,999.51	77.7356	7,999.51	77.9139	7,999.51	74.8	7,999.51	74.2365	7,999.51	70.9187	7,999.51	72.2485	7,999.51	68.6813	7,999.51	67.921	7,999.51	64.6138	7,999.51	66.2201	7,999.51	65.2872	7,999.51	64.2006	7,999.51	62.417	7,999.51	58.4391	7,999.51	58.0811	7,999.51	59.1151	7,999.51	57.6139	7,999.51	58.4739	7,999.51	54.7246	7,999.51	52.2484	7,999.51	56.7135	7,999.51	59.2201	7,999.51	53.0109	7,999.51	60.0627	7,999.51	54.724
8,282.23	83.171	8,282.23	83.5099	8,282.23	82.9749	8,282.23	82.7993	8,282.23	82.6925	8,282.23	80.5483	8,282.23	81.0462	8,282.23	79.9309	8,282.23	79.7004	8,282.23	79.2658	8,282.23	78.9022	8,282.23	77.6471	8,282.23	77.1858	8,282.23	73.8701	8,282.23	74.3568	8,282.23	70.863	8,282.23	72.5329	8,282.23	69.2563	8,282.23	68.5165	8,282.23	65.3342	8,282.23	63.585	8,282.23	62.5632	8,282.23	63.0266	8,282.23	61.8735	8,282.23	60.744	8,282.23	57.9112	8,282.23	59.1809	8,282.23	58.3903	8,282.23	60.1955	8,282.23	51.7343	8,282.23	46.0725	8,282.23	56.9796	8,282.23	57.4112	8,282.23	51.0455	8,282.23	59.7026	8,282.23	51.2703
8,573.73	83.2156	8,573.73	83.5034	8,573.73	83.5793	8,573.73	82.6239	8,573.73	82.2811	8,573.73	80.905	8,573.73	80.6798	8,573.73	79.7625	8,573.73	79.2723	8,573.73	78.6987	8,573.73	78.9571	8,573.73	76.6059	8,573.73	77.266	8,573.73	74.3111	8,573.73	73.8319	8,573.73	72.8684	8,573.73	71.5004	8,573.73	70.0527	8,573.73	68.2945	8,573.73	64.8404	8,573.73	67.4363	8,573.73	63.1224	8,573.73	64.1565	8,573.73	60.6964	8,573.73	57.9305	8,573.73	55.202	8,573.73	56.0688	8,573.73	58.4056	8,573.73	57.0748	8,573.73	54.9335	8,573.73	56.6511	8,573.73	56.2366	8,573.73	55.4808	8,573.73	53.2705	8,573.73	60.144	8,573.73	47.7707
8,876.95	83.5904	8,876.95	83.3464	8,876.95	83.4226	8,876.95	82.5569	8,876.95	82.4542	8,876.95	81.1635	8,876.95	80.552	8,876.95	79.7448	8,876.95	79.1502	8,876.95	79.5423	8,876.95	78.7156	8,876.95	77.6713	8,876.95	76.8172	8,876.95	75.0855	8,876.95	74.4417	8,876.95	71.4915	8,876.95	71.91	8,876.95	67.9024	8,876.95	67.8991	8,876.95	65.0309	8,876.95	65.1418	8,876.95	63.9894	8,876.95	62.2579	8,876.95	58.5172	8,876.95	59.3604	8,876.95	56.5593	8,876.95	57.3383	8,876.95	59.2817	8,876.95	57.4513	8,876.95	55.3658	8,876.95	54.5825	8,876.95	56.0654	8,876.95	54.1533	8,876.95	54.2766	8,876.95	56.9009	8,876.95	54.8063
9,188.96	83.7961	9,188.96	83.3861	9,188.96	83.4002	9,188.96	82.7966	9,188.96	82.434	9,188.96	80.8566	9,188.96	81.2829	9,188.96	79.1509	9,188.96	78.9796	9,188.96	79.0386	9,188.96	78.0936	9,188.96	77.3886	9,188.96	76.7095	9,188.96	74.6104	9,188.96	74.4131	9,188.96	71.8255	9,188.96	71.5073	9,188.96	68.3514	9,188.96	67.5154	9,188.96	65.1696	9,188.96	63.8409	9,188.96	60.1012	9,188.96	62.3334	9,188.96	57.6186	9,188.96	59.0575	9,188.96	53.7917	9,188.96	58.8754	9,188.96	57.4818	9,188.96	55.5864	9,188.96	50.7626	9,188.96	55.7146	9,188.96	57.9446	9,188.96	53.7084	9,188.96	53.3073	9,188.96	58.2657	9,188.96	51.6102
9,514.16	83.5757	9,514.16	83.3125	9,514.16	83.024	9,514.16	83.1788	9,514.16	82.3307	9,514.16	81.2168	9,514.16	81.241	9,514.16	79.513	9,514.16	78.8571	9,514.16	78.9267	9,514.16	78.3306	9,514.16	77.2684	9,514.16	76.6901	9,514.16	74.454	9,514.16	73.5364	9,514.16	70.738	9,514.16	70.5834	9,514.16	67.7232	9,514.16	66.0574	9,514.16	63.6245	9,514.16	64.9358	9,514.16	61.2727	9,514.16	61.357	9,514.16	58.7254	9,514.16	56.4108	9,514.16	57.1177	9,514.16	55.921	9,514.16	56.035	9,514.16	54.9225	9,514.16	53.2453	9,514.16	48.3499	9,514.16	53.745	9,514.16	53.2115	9,514.16	51.9109	9,514.16	58.5834	9,514.16	49.2362
9,849.61	83.4254	9,849.61	82.6768	9,849.61	83.0354	9,849.61	82.6201	9,849.61	82.2492	9,849.61	81.1184	9,849.61	80.7588	9,849.61	79.5622	9,849.61	79.0021	9,849.61	79.734	9,849.61	78.5468	9,849.61	78.139	9,849.61	76.5442	9,849.61	74.314	9,849.61	73.0431	9,849.61	70.6972	9,849.61	69.9451	9,849.61	67.5923	9,849.61	66.4546	9,849.61	63.6734	9,849.61	63.7851	9,849.61	63.7485	9,849.61	61.8339	9,849.61	58.754	9,849.61	58.81	9,849.61	60.9181	9,849.61	56.833	9,849.61	55.1861	9,849.61	47.7101	9,849.61	47.5413	9,849.61	53.1611	9,849.61	51.0722	9,849.61	55.6861	9,849.61	51.0945	9,849.61	57.1533	9,849.61	47.0818
10,196.8	83.0069	10,196.8	82.296	10,196.8	82.4957	10,196.8	82.4903	10,196.8	82.4668	10,196.8	80.4405	10,196.8	81.3256	10,196.8	79.078	10,196.8	78.9051	10,196.8	78.5801	10,196.8	78.0964	10,196.8	76.2909	10,196.8	76.4808	10,196.8	73.9365	10,196.8	72.7131	10,196.8	70.2963	10,196.8	69.5226	10,196.8	67.2135	10,196.8	66	10,196.8	61.9456	10,196.8	62.5132	10,196.8	60.5408	10,196.8	60.8198	10,196.8	58.6721	10,196.8	57.5903	10,196.8	62.2014	10,196.8	58.8856	10,196.8	52.8976	10,196.8	38.8018	10,196.8	33.5125	10,196.8	48.4756	10,196.8	52.4999	10,196.8	49.3201	10,196.8	53.4349	10,196.8	54.2462	10,196.8	47.0258
10,555.7	83.1319	10,555.7	82.1448	10,555.7	82.6035	10,555.7	81.9729	10,555.7	82.044	10,555.7	79.9717	10,555.7	80.6634	10,555.7	79.0357	10,555.7	79.1433	10,555.7	78.4187	10,555.7	78.3035	10,555.7	76.0131	10,555.7	75.8951	10,555.7	71.4202	10,555.7	72.4339	10,555.7	68.768	10,555.7	68.6083	10,555.7	65.8181	10,555.7	64.9397	10,555.7	61.2433	10,555.7	61.5724	10,555.7	60.5296	10,555.7	59.2475	10,555.7	53.6224	10,555.7	58.8456	10,555.7	57.2227	10,555.7	56.8829	10,555.7	54.8894	10,555.7	50.0984	10,555.7	47.9797	10,555.7	55.4117	10,555.7	46.3814	10,555.7	51.7447	10,555.7	54.7805	10,555.7	55.5606	10,555.7	49.6443
10,927.7	83.4553	10,927.7	82.4194	10,927.7	82.8593	10,927.7	82.1946	10,927.7	82.6366	10,927.7	80.1352	10,927.7	81.1714	10,927.7	78.4656	10,927.7	79.1038	10,927.7	76.1716	10,927.7	77.5742	10,927.7	74.1453	10,927.7	75.7276	10,927.7	70.2941	10,927.7	72.7111	10,927.7	66.5413	10,927.7	68.8824	10,927.7	61.5915	10,927.7	65.0881	10,927.7	58.8445	10,927.7	62.893	10,927.7	58.3108	10,927.7	59.5839	10,927.7	53.2149	10,927.7	58.9024	10,927.7	57.6309	10,927.7	53.3958	10,927.7	51.4414	10,927.7	50.235	10,927.7	49.4968	10,927.7	50.8997	10,927.7	43.8661	10,927.7	43.5639	10,927.7	48.5897	10,927.7	49.8898	10,927.7	48.8816
11,313	83.7397	11,313	82.9162	11,313	83.5736	11,313	82.501	11,313	82.7528	11,313	80.7807	11,313	81.1145	11,313	78.1998	11,313	79.4589	11,313	76.5941	11,313	77.3862	11,313	73.8951	11,313	75.2785	11,313	69.1196	11,313	71.8931	11,313	65.978	11,313	67.8742	11,313	62.1375	11,313	65.0116	11,313	56.8067	11,313	59.4141	11,313	58.5867	11,313	58.6847	11,313	55.4537	11,313	57.5455	11,313	53.7014	11,313	54.628	11,313	47.8694	11,313	48.0429	11,313	53.5815	11,313	51.8841	11,313	47.4511	11,313	51.3996	11,313	43.6388	11,313	52.1737	11,313	50.9086
11,712.9	84.2168	11,712.9	83.6606	11,712.9	84.1289	11,712.9	83.1693	11,712.9	83.3827	11,712.9	80.9146	11,712.9	81.9385	11,712.9	78.9587	11,712.9	79.3146	11,712.9	76.3556	11,712.9	76.9204	11,712.9	73.2542	11,712.9	74.7353	11,712.9	68.7966	11,712.9	71.095	11,712.9	65.9087	11,712.9	66.0457	11,712.9	61.5001	11,712.9	63.6552	11,712.9	59.9492	11,712.9	58.1385	11,712.9	55.0274	11,712.9	56.1079	11,712.9	55.7144	11,712.9	55.1056	11,712.9	52.0085	11,712.9	51.0845	11,712.9	50.1479	11,712.9	48.4098	11,712.9	51.2	11,712.9	51.5391	11,712.9	44.5387	11,712.9	52.7806	11,712.9	43.5806	11,712.9	45.5615	11,712.9	49.7717
12,126	84.9514	12,126	84.1728	12,126	84.7336	12,126	83.5028	12,126	83.8709	12,126	81.4933	12,126	82.2133	12,126	78.6132	12,126	79.5122	12,126	76.5659	12,126	76.9211	12,126	73.3067	12,126	74.0576	12,126	68.538	12,126	69.6999	12,126	65.5496	12,126	66.1246	12,126	61.0369	12,126	62.7529	12,126	59.5864	12,126	59.1114	12,126	55.3873	12,126	58.0539	12,126	55.7039	12,126	54.6174	12,126	50.1696	12,126	50.4052	12,126	46.3835	12,126	52.3642	12,126	48.8088	12,126	51.5674	12,126	44.2572	12,126	50.7034	12,126	49.9548	12,126	51.3066	12,126	41.9968
12,553.7	85.2347	12,553.7	84.8178	12,553.7	85.0892	12,553.7	84.1205	12,553.7	84.0317	12,553.7	81.8929	12,553.7	82.284	12,553.7	79.0612	12,553.7	79.1797	12,553.7	76.5253	12,553.7	76.8068	12,553.7	73.0543	12,553.7	73.2316	12,553.7	68.448	12,553.7	69.8555	12,553.7	67.3105	12,553.7	65.388	12,553.7	62.7615	12,553.7	62.6399	12,553.7	59.7244	12,553.7	59.8313	12,553.7	55.4769	12,553.7	57.2793	12,553.7	57.2812	12,553.7	53.7758	12,553.7	52.7666	12,553.7	52.352	12,553.7	51.5053	12,553.7	48.1071	12,553.7	43.0749	12,553.7	45.5386	12,553.7	44.431	12,553.7	50.1429	12,553.7	50.0179	12,553.7	49.7425	12,553.7	35.2771
12,996.1	85.4336	12,996.1	84.8852	12,996.1	85.1452	12,996.1	84.1499	12,996.1	84.276	12,996.1	82.1302	12,996.1	82.2631	12,996.1	78.7298	12,996.1	78.7192	12,996.1	76.5402	12,996.1	75.9494	12,996.1	72.9586	12,996.1	71.9366	12,996.1	70.1558	12,996.1	70.0391	12,996.1	68.2038	12,996.1	67.6768	12,996.1	64.4292	12,996.1	64.3476	12,996.1	61.7559	12,996.1	61.3616	12,996.1	58.7222	12,996.1	58.7656	12,996.1	57.667	12,996.1	54.4975	12,996.1	54.5193	12,996.1	53.3556	12,996.1	51.8543	12,996.1	51.4018	12,996.1	52.8809	12,996.1	49.9472	12,996.1	48.3708	12,996.1	52.6709	12,996.1	52.6979	12,996.1	50.0078	12,996.1	43.8194
13,454.6	85.5814	13,454.6	84.9702	13,454.6	85.5031	13,454.6	84.3202	13,454.6	84.4741	13,454.6	81.9175	13,454.6	82.4764	13,454.6	78.8857	13,454.6	78.6284	13,454.6	75.8172	13,454.6	75.7649	13,454.6	73.3749	13,454.6	72.2057	13,454.6	70.7907	13,454.6	71.0243	13,454.6	68.5799	13,454.6	67.7758	13,454.6	65.4775	13,454.6	64.5887	13,454.6	61.4447	13,454.6	62.7165	13,454.6	59.8321	13,454.6	58.9962	13,454.6	58.47	13,454.6	57.8579	13,454.6	55.7792	13,454.6	52.9813	13,454.6	54.0223	13,454.6	50.8828	13,454.6	46.6226	13,454.6	50.1388	13,454.6	52.2494	13,454.6	52.9084	13,454.6	50.0319	13,454.6	43.9364	13,454.6	51.6663
13,929.2	85.5743	13,929.2	84.7948	13,929.2	85.4785	13,929.2	84.2636	13,929.2	84.5543	13,929.2	81.6747	13,929.2	82.264	13,929.2	78.1741	13,929.2	78.6029	13,929.2	74.7627	13,929.2	75.2269	13,929.2	73.7455	13,929.2	73.2509	13,929.2	70.8692	13,929.2	71.3674	13,929.2	69.4218	13,929.2	68.5368	13,929.2	65.2	13,929.2	64.6138	13,929.2	61.9501	13,929.2	62.523	13,929.2	60.3061	13,929.2	58.5145	13,929.2	60.6204	13,929.2	55.0682	13,929.2	56.914	13,929.2	53.0432	13,929.2	50.7931	13,929.2	52.9522	13,929.2	48.4358	13,929.2	50.666	13,929.2	52.6557	13,929.2	52.042	13,929.2	50.1824	13,929.2	48.0587	13,929.2	51.1728
14,419.9	85.6432	14,419.9	84.846	14,419.9	85.5415	14,419.9	84.3493	14,419.9	84.7671	14,419.9	81.6263	14,419.9	82.3159	14,419.9	78.084	14,419.9	78.5192	14,419.9	75.0175	14,419.9	75.2016	14,419.9	74.5746	14,419.9	73.9121	14,419.9	71.4112	14,419.9	72.6766	14,419.9	69.8323	14,419.9	70.0896	14,419.9	66.5543	14,419.9	66.7298	14,419.9	62.0542	14,419.9	63.5829	14,419.9	60.1136	14,419.9	59.9611	14,419.9	59.6357	14,419.9	57.2539	14,419.9	55.9045	14,419.9	53.8379	14,419.9	51.7789	14,419.9	52.4646	14,419.9	47.2271	14,419.9	41.5586	14,419.9	52.9345	14,419.9	53.1927	14,419.9	53.5369	14,419.9	46.7044	14,419.9	53.3161
14,928.2	85.9889	14,928.2	85.1307	14,928.2	85.9395	14,928.2	84.7838	14,928.2	85.1231	14,928.2	81.7238	14,928.2	82.7109	14,928.2	78.1315	14,928.2	78.3561	14,928.2	75.5133	14,928.2	75.4712	14,928.2	75.0928	14,928.2	74.2253	14,928.2	73.0277	14,928.2	73.8594	14,928.2	71.4736	14,928.2	70.7106	14,928.2	67.1393	14,928.2	67.7699	14,928.2	61.6623	14,928.2	64.9401	14,928.2	60.7973	14,928.2	59.9316	14,928.2	58.9275	14,928.2	55.0874	14,928.2	56.5861	14,928.2	53.7745	14,928.2	53.6674	14,928.2	51.5883	14,928.2	49.8739	14,928.2	42.7402	14,928.2	52.9343	14,928.2	47.655	14,928.2	51.7413	14,928.2	50.6039	14,928.2	55.2272
15,455.6	86.3097	15,455.6	85.7661	15,455.6	86.2675	15,455.6	85.4781	15,455.6	85.3312	15,455.6	82.3843	15,455.6	82.8047	15,455.6	78.6251	15,455.6	78.5541	15,455.6	75.4797	15,455.6	76.3389	15,455.6	76.3871	15,455.6	74.9858	15,455.6	73.8459	15,455.6	74.7775	15,455.6	71.8116	15,455.6	71.8365	15,455.6	66.9137	15,455.6	67.118	15,455.6	64.2593	15,455.6	65.342	15,455.6	61.7935	15,455.6	60.1352	15,455.6	59.7994	15,455.6	59.3289	15,455.6	54.7984	15,455.6	55.1915	15,455.6	54.1129	15,455.6	55.2015	15,455.6	54.9948	15,455.6	47.6752	15,455.6	55.4778	15,455.6	51.8376	15,455.6	48.7889	15,455.6	46.1437	15,455.6	54.682
16,000.5	86.2662	16,000.5	85.9928	16,000.5	86.2362	16,000.5	85.8018	16,000.5	85.4206	16,000.5	82.7273	16,000.5	82.6056	16,000.5	79.3921	16,000.5	78.5554	16,000.5	76.8988	16,000.5	76.4292	16,000.5	78.2506	16,000.5	76.149	16,000.5	74.8121	16,000.5	75.5052	16,000.5	72.1183	16,000.5	73.1727	16,000.5	68.7012	16,000.5	69.3173	16,000.5	64.1584	16,000.5	66.3766	16,000.5	59.4451	16,000.5	60.3539	16,000.5	59.662	16,000.5	60.2713	16,000.5	53.4782	16,000.5	57.3074	16,000.5	52.9521	16,000.5	51.8445	16,000.5	52.99	16,000.5	18.6748	16,000.5	55.135	16,000.5	51.7337	16,000.5	50.8388	16,000.5	28.073	16,000.5	55.0298
16,564.5	86.0639	16,564.5	85.7867	16,564.5	86.1705	16,564.5	85.8026	16,564.5	85.2267	16,564.5	82.2179	16,564.5	82.4097	16,564.5	79.7729	16,564.5	79.0099	16,564.5	77.6477	16,564.5	77.9595	16,564.5	79.5573	16,564.5	77.9036	16,564.5	76.3103	16,564.5	75.9192	16,564.5	74.1571	16,564.5	73.4413	16,564.5	69.4504	16,564.5	70.8173	16,564.5	65.1741	16,564.5	66.3295	16,564.5	63.3948	16,564.5	62.4289	16,564.5	60.7358	16,564.5	58.3767	16,564.5	58.5277	16,564.5	55.4452	16,564.5	53.322	16,564.5	54.4451	16,564.5	56.0226	16,564.5	32.8068	16,564.5	57.6737	16,564.5	52.3899	16,564.5	48.4362	16,564.5	50.4805	16,564.5	51.9203
17,148.9	85.9454	17,148.9	85.5903	17,148.9	85.9753	17,148.9	85.4774	17,148.9	85.3324	17,148.9	82.0865	17,148.9	82.4463	17,148.9	80.268	17,148.9	80.1978	17,148.9	79.0024	17,148.9	80.1124	17,148.9	79.8767	17,148.9	78.9833	17,148.9	77.1709	17,148.9	78.0555	17,148.9	74.5838	17,148.9	74.6916	17,148.9	70.0681	17,148.9	71.2645	17,148.9	67.4425	17,148.9	66.936	17,148.9	63.4425	17,148.9	64.2874	17,148.9	61.6	17,148.9	59.5028	17,148.9	56.3984	17,148.9	56.6962	17,148.9	52.982	17,148.9	54.8753	17,148.9	57.8183	17,148.9	51.0405	17,148.9	56.8664	17,148.9	42.2656	17,148.9	50.7744	17,148.9	50.9859	17,148.9	54.4465
17,752.4	85.151	17,752.4	85.0313	17,752.4	85.1321	17,752.4	84.7234	17,752.4	84.5985	17,752.4	81.6584	17,752.4	82.0413	17,752.4	80.3797	17,752.4	80.9989	17,752.4	79.5268	17,752.4	81.2317	17,752.4	79.3025	17,752.4	79.2852	17,752.4	77.1078	17,752.4	78.2894	17,752.4	74.1811	17,752.4	74.4527	17,752.4	69.8407	17,752.4	70.952	17,752.4	65.3001	17,752.4	67.4425	17,752.4	61.0828	17,752.4	63.7678	17,752.4	60.6948	17,752.4	58.0935	17,752.4	57.2125	17,752.4	56.4284	17,752.4	52.5333	17,752.4	56.003	17,752.4	58.0956	17,752.4	49.8735	17,752.4	57.5399	17,752.4	44.4113	17,752.4	48.3061	17,752.4	50.1368	17,752.4	50.8028
18,379.4	81.952	18,379.4	81.8578	18,379.4	82.0151	18,379.4	81.6387	18,379.4	81.5969	18,379.4	79.6134	18,379.4	79.8171	18,379.4	79.2189	18,379.4	79.7824	18,379.4	78.0943	18,379.4	80.3187	18,379.4	77.2873	18,379.4	77.7578	18,379.4	74.5409	18,379.4	76.1658	18,379.4	72.4549	18,379.4	72.0661	18,379.4	67.5166	18,379.4	68.616	18,379.4	63.3609	18,379.4	64.574	18,379.4	61.0869	18,379.4	61.9028	18,379.4	58.499	18,379.4	54.1766	18,379.4	53.0738	18,379.4	53.9666	18,379.4	47.4304	18,379.4	52.5057	18,379.4	54.4701	18,379.4	48.335	18,379.4	56.0276	18,379.4	47.9077	18,379.4	47.0909	18,379.4	51.7598	18,379.4	50.062
19,026.9	75.9355	19,026.9	76.0311	19,026.9	76.0302	19,026.9	76.2773	19,026.9	75.9845	19,026.9	75.5845	19,026.9	75.7041	19,026.9	75.854	19,026.9	76.3216	19,026.9	74.6011	19,026.9	76.4362	19,026.9	73.0946	19,026.9	73.2785	19,026.9	70.4376	19,026.9	72.0718	19,026.9	68.0173	19,026.9	67.8651	19,026.9	63.4928	19,026.9	64.5268	19,026.9	59.4035	19,026.9	60.5014	19,026.9	55.965	19,026.9	57.1531	19,026.9	52.8167	19,026.9	50.9428	19,026.9	50.1504	19,026.9	51.1411	19,026.9	40.5372	19,026.9	47.5122	19,026.9	49.6678	19,026.9	46.2975	19,026.9	49.1358	19,026.9	43.0394	19,026.9	45.6699	19,026.9	43.0779	19,026.9	31.4381
19,697.8	68.775	19,697.8	68.7186	19,697.8	68.6298	19,697.8	70.6642	19,697.8	69.4039	19,697.8	71.7916	19,697.8	71.2878	19,697.8	71.9384	19,697.8	71.6929	19,697.8	70.2859	19,697.8	71.409	19,697.8	68.2359	19,697.8	67.3009	19,697.8	65.754	19,697.8	66.5468	19,697.8	63.3201	19,697.8	61.312	19,697.8	56.9435	19,697.8	57.6135	19,697.8	52.0501	19,697.8	54.6761	19,697.8	48.9469	19,697.8	50.7144	19,697.8	46.9427	19,697.8	42.7839	19,697.8	42.7977	19,697.8	44.2814	19,697.8	36.9144	19,697.8	39.8944	19,697.8	40.6378	19,697.8	43.5237	19,697.8	44.2878	19,697.8	36.9761	19,697.8	40.0291	19,697.8	38.0965	19,697.8	34.762
19,999.5	66.4449	19,999.5	66.1149	19,999.5	66.0514	19,999.5	68.7842	19,999.5	67.3652	19,999.5	70.2706	19,999.5	69.3659	19,999.5	70.2128	19,999.5	69.5994	19,999.5	68.5093	19,999.5	68.8596	19,999.5	65.9788	19,999.5	64.5131	19,999.5	62.9271	19,999.5	64.2828	19,999.5	59.2661	19,999.5	57.6645	19,999.5	54.0304	19,999.5	54.0152	19,999.5	50.5694	19,999.5	47.7494	19,999.5	48.4159	19,999.5	46.0855	19,999.5	44.7953	19,999.5	41.1209	19,999.5	40.7324	19,999.5	42.4801	19,999.5	38.8241	19,999.5	40.0637	19,999.5	36.513	19,999.5	32.0939	19,999.5	34.4421	19,999.5	22.5035	19,999.5	43.1988	19,999.5	38.9674	19,999.5	41.6634
