"SPL Vertical"																																																																							
"On-Axis"		"10°"		"-10°"		"20°"		"-20°"		"30°"		"-30°"		"40°"		"-40°"		"50°"		"-50°"		"60°"		"-60°"		"70°"		"-70°"		"80°"		"-80°"		"90°"		"-90°"		"100°"		"-100°"		"110°"		"-110°"		"120°"		"-120°"		"130°"		"-130°"		"140°"		"-140°"		"150°"		"-150°"		"160°"		"-160°"		"170°"		"-170°"		"180°"	
"Frequency [Hz]"	"Sound Pessure Level [dB]  / [2.83V 1m] "	"Frequency [Hz]"	"Sound Pessure Level [dB]  / [2.83V 1m] "	"Frequency [Hz]"	"Sound Pessure Level [dB]  / [2.83V 1m] "	"Frequency [Hz]"	"Sound Pessure Level [dB]  / [2.83V 1m] "	"Frequency [Hz]"	"Sound Pessure Level [dB]  / [2.83V 1m] "	"Frequency [Hz]"	"Sound Pessure Level [dB]  / [2.83V 1m] "	"Frequency [Hz]"	"Sound Pessure Level [dB]  / [2.83V 1m] "	"Frequency [Hz]"	"Sound Pessure Level [dB]  / [2.83V 1m] "	"Frequency [Hz]"	"Sound Pessure Level [dB]  / [2.83V 1m] "	"Frequency [Hz]"	"Sound Pessure Level [dB]  / [2.83V 1m] "	"Frequency [Hz]"	"Sound Pessure Level [dB]  / [2.83V 1m] "	"Frequency [Hz]"	"Sound Pessure Level [dB]  / [2.83V 1m] "	"Frequency [Hz]"	"Sound Pessure Level [dB]  / [2.83V 1m] "	"Frequency [Hz]"	"Sound Pessure Level [dB]  / [2.83V 1m] "	"Frequency [Hz]"	"Sound Pessure Level [dB]  / [2.83V 1m] "	"Frequency [Hz]"	"Sound Pessure Level [dB]  / [2.83V 1m] "	"Frequency [Hz]"	"Sound Pessure Level [dB]  / [2.83V 1m] "	"Frequency [Hz]"	"Sound Pessure Level [dB]  / [2.83V 1m] "	"Frequency [Hz]"	"Sound Pessure Level [dB]  / [2.83V 1m] "	"Frequency [Hz]"	"Sound Pessure Level [dB]  / [2.83V 1m] "	"Frequency [Hz]"	"Sound Pessure Level [dB]  / [2.83V 1m] "	"Frequency [Hz]"	"Sound Pessure Level [dB]  / [2.83V 1m] "	"Frequency [Hz]"	"Sound Pessure Level [dB]  / [2.83V 1m] "	"Frequency [Hz]"	"Sound Pessure Level [dB]  / [2.83V 1m] "	"Frequency [Hz]"	"Sound Pessure Level [dB]  / [2.83V 1m] "	"Frequency [Hz]"	"Sound Pessure Level [dB]  / [2.83V 1m] "	"Frequency [Hz]"	"Sound Pessure Level [dB]  / [2.83V 1m] "	"Frequency [Hz]"	"Sound Pessure Level [dB]  / [2.83V 1m] "	"Frequency [Hz]"	"Sound Pessure Level [dB]  / [2.83V 1m] "	"Frequency [Hz]"	"Sound Pessure Level [dB]  / [2.83V 1m] "	"Frequency [Hz]"	"Sound Pessure Level [dB]  / [2.83V 1m] "	"Frequency [Hz]"	"Sound Pessure Level [dB]  / [2.83V 1m] "	"Frequency [Hz]"	"Sound Pessure Level [dB]  / [2.83V 1m] "	"Frequency [Hz]"	"Sound Pessure Level [dB]  / [2.83V 1m] "	"Frequency [Hz]"	"Sound Pessure Level [dB]  / [2.83V 1m] "	"Frequency [Hz]"	"Sound Pessure Level [dB]  / [2.83V 1m] "
20.5078	50.2286	20.5078	50.6341	20.5078	49.5536	20.5078	50.7667	20.5078	48.6113	20.5078	50.6123	20.5078	47.4339	20.5078	50.142	20.5078	46.1768	20.5078	49.3154	20.5078	45.3056	20.5078	48.105	20.5078	45.5397	20.5078	46.6195	20.5078	46.9898	20.5078	45.5111	20.5078	48.9817	20.5078	46.0938	20.5078	50.9732	20.5078	48.3203	20.5078	52.7673	20.5078	50.8683	20.5078	54.3242	20.5078	53.1101	20.5078	55.6489	20.5078	54.9415	20.5078	56.7529	20.5078	56.3881	20.5078	57.6436	20.5078	57.4903	20.5078	58.3226	20.5078	58.282	20.5078	58.7861	20.5078	58.7891	20.5078	59.0262	20.5078	59.0317
21.9727	52.1991	21.9727	52.5848	21.9727	51.557	21.9727	52.709	21.9727	50.6645	21.9727	52.5581	21.9727	49.5585	21.9727	52.1073	21.9727	48.3893	21.9727	51.3241	21.9727	47.5734	21.9727	50.1964	21.9727	47.7428	21.9727	48.8468	21.9727	49.0423	21.9727	47.8632	21.9727	50.9098	21.9727	48.3494	21.9727	52.8268	21.9727	50.3422	21.9727	54.5783	21.9727	52.7335	21.9727	56.1091	21.9727	54.896	21.9727	57.4162	21.9727	56.6879	21.9727	58.5071	21.9727	58.1146	21.9727	59.3872	21.9727	59.2072	21.9727	60.0573	21.9727	59.9953	21.9727	60.5133	21.9727	60.5026	21.9727	60.7471	21.9727	60.748
23.4375	53.4593	23.4375	53.8253	23.4375	52.8627	23.4375	53.9481	23.4375	52.0594	23.4375	53.8134	23.4375	51.1192	23.4375	53.4026	23.4375	50.2308	23.4375	52.7014	23.4375	49.7777	23.4375	51.7361	23.4375	50.1765	23.4375	50.6907	23.4375	51.4191	23.4375	50.1249	23.4375	53.0875	23.4375	50.7876	23.4375	54.8113	23.4375	52.5768	23.4375	56.4148	23.4375	54.7048	23.4375	57.8387	23.4375	56.6801	23.4375	59.0687	23.4375	58.3532	23.4375	60.1038	23.4375	59.7052	23.4375	60.9436	23.4375	60.751	23.4375	61.585	23.4375	61.5107	23.4375	62.0218	23.4375	62.0025	23.4375	62.2446	23.4375	62.2425
24.9023	55.4811	24.9023	55.7748	24.9023	55.0127	24.9023	55.8733	24.9023	54.4075	24.9023	55.7626	24.9023	53.7445	24.9023	55.4347	24.9023	53.179	24.9023	54.898	24.9023	52.9533	24.9023	54.2126	24.9023	53.2929	24.9023	53.5638	24.9023	54.2137	24.9023	53.3337	24.9023	55.5078	24.9023	53.9204	24.9023	56.9316	24.9023	55.2818	24.9023	58.3242	24.9023	56.9859	24.9023	59.6053	24.9023	58.6665	24.9023	60.7387	24.9023	60.1521	24.9023	61.7081	24.9023	61.3855	24.9023	62.5035	24.9023	62.3556	24.9023	63.1159	24.9023	63.0671	24.9023	63.5358	24.9023	63.5296	24.9023	63.7524	24.9023	63.7542
26.3672	57.5315	26.3672	57.7855	26.3672	57.1341	26.3672	57.8762	26.3672	56.6287	26.3672	57.7916	26.3672	56.0811	26.3672	57.5281	26.3672	55.6084	26.3672	57.0995	26.3672	55.3828	26.3672	56.5619	26.3672	55.5759	26.3672	56.059	26.3672	56.2433	26.3672	55.8578	26.3672	57.277	26.3672	56.2472	26.3672	58.4953	26.3672	57.2712	26.3672	59.7453	26.3672	58.6718	26.3672	60.932	26.3672	60.1448	26.3672	62.0039	26.3672	61.5017	26.3672	62.9329	26.3672	62.6568	26.3672	63.7019	26.3672	63.5793	26.3672	64.2975	26.3672	64.262	26.3672	64.7076	26.3672	64.7078	26.3672	64.9204	26.3672	64.9241
27.832	59.101	27.832	59.3214	27.832	58.7636	27.832	59.4034	27.832	58.3462	27.832	59.3357	27.832	57.9127	27.832	59.1183	27.832	57.5645	27.832	58.7705	27.832	57.4363	27.832	58.3515	27.832	57.6515	27.832	57.9911	27.832	58.2491	27.832	57.9015	27.832	59.1551	27.832	58.2923	27.832	60.2356	27.832	59.1961	27.832	61.3656	27.832	60.4299	27.832	62.4577	27.832	61.7547	27.832	63.4583	27.832	63.0012	27.832	64.3348	27.832	64.08	27.832	65.0658	27.832	64.9516	27.832	65.6351	27.832	65.6017	27.832	66.0283	27.832	66.0284	27.832	66.2326	27.832	66.2361
29.2969	60.734	29.2969	60.9222	29.2969	60.4492	29.2969	60.9936	29.2969	60.1026	29.2969	60.9389	29.2969	59.7502	29.2969	60.7607	29.2969	59.4754	29.2969	60.4813	29.2969	59.3835	29.2969	60.158	29.2969	59.5701	29.2969	59.9028	29.2969	60.0732	29.2969	59.8814	29.2969	60.8487	29.2969	60.2491	29.2969	61.7982	29.2969	61.0348	29.2969	62.8171	29.2969	62.1106	29.2969	63.8234	29.2969	63.2898	29.2969	64.7608	29.2969	64.4227	29.2969	65.5924	29.2969	65.4192	29.2969	66.2926	29.2969	66.233	29.2969	66.8422	29.2969	66.8437	29.2969	67.2252	29.2969	67.2446	29.2969	67.4274	29.2969	67.4371
30.7617	62.3609	30.7617	62.5229	30.7617	62.1242	30.7617	62.5916	30.7617	61.8443	30.7617	62.5594	30.7617	61.5697	30.7617	62.4307	30.7617	61.3679	30.7617	62.2285	30.7617	61.3192	30.7617	62.0045	30.7617	61.4953	30.7617	61.8499	30.7617	61.9282	30.7617	61.8888	30.7617	62.5922	30.7617	62.2327	30.7617	63.4183	30.7617	62.9075	30.7617	64.3238	30.7617	63.8295	30.7617	65.2363	30.7617	64.8598	30.7617	66.101	30.7617	65.8715	30.7617	66.8785	30.7617	66.7777	30.7617	67.5403	30.7617	67.5275	30.7617	68.0643	30.7617	68.0945	30.7617	68.4325	30.7617	68.4675	30.7617	68.63	30.7617	68.6446
32.2266	63.9403	32.2266	64.0858	32.2266	63.7387	32.2266	64.1582	32.2266	63.5098	32.2266	64.1508	32.2266	63.2954	32.2266	64.0686	32.2266	63.1508	32.2266	63.9332	32.2266	63.1385	32.2266	63.7888	32.2266	63.3126	32.2266	63.7081	32.2266	63.6982	32.2266	63.7845	32.2266	64.2791	32.2266	64.1002	32.2266	65.0051	32.2266	64.6797	32.2266	65.8115	32.2266	65.4691	32.2266	66.6362	32.2266	66.3659	32.2266	67.4283	32.2266	67.2646	32.2266	68.1486	32.2266	68.0844	32.2266	68.767	32.2266	68.7723	32.2266	69.2598	32.2266	69.2977	32.2266	69.6078	32.2266	69.6454	32.2266	69.7954	32.2266	69.8105
33.6914	65.5418	33.6914	65.6617	33.6914	65.3771	33.6914	65.7226	33.6914	65.1909	33.6914	65.7197	33.6914	65.0168	33.6914	65.6586	33.6914	64.8984	33.6914	65.5586	33.6914	64.8845	33.6914	65.4576	33.6914	65.0195	33.6914	65.4146	33.6914	65.3288	33.6914	65.5028	33.6914	65.8084	33.6914	65.787	33.6914	66.426	33.6914	66.2905	33.6914	67.1321	33.6914	66.9776	33.6914	67.8732	33.6914	67.769	33.6914	68.6009	33.6914	68.5755	33.6914	69.275	33.6914	69.3215	33.6914	69.8633	33.6914	69.9534	33.6914	70.3392	33.6914	70.4374	33.6914	70.6814	33.6914	70.7552	33.6914	70.8726	33.6914	70.8998
35.1563	66.854	35.1563	66.9577	35.1563	66.7167	35.1563	67.0157	35.1563	66.5664	35.1563	67.0241	35.1563	66.4321	35.1563	66.9891	35.1563	66.3502	35.1563	66.9289	35.1563	66.3607	35.1563	66.8773	35.1563	66.4991	35.1563	66.8835	35.1563	66.7865	35.1563	67.0061	35.1563	67.2215	35.1563	67.2944	35.1563	67.78	35.1563	67.765	35.1563	68.422	35.1563	68.3899	35.1563	69.1023	35.1563	69.1057	35.1563	69.7771	35.1563	69.8377	35.1563	70.4083	35.1563	70.5191	35.1563	70.9639	35.1563	71.0995	35.1563	71.4173	35.1563	71.5452	35.1563	71.7464	35.1563	71.8369	35.1563	71.9337	35.1563	71.9663
36.6211	68.1955	36.6211	68.2876	36.6211	68.0785	36.6211	68.3439	36.6211	67.9543	36.6211	68.3614	36.6211	67.8476	36.6211	68.3453	36.6211	67.7887	36.6211	68.312	36.6211	67.8102	36.6211	68.2899	36.6211	67.9412	36.6211	68.3203	36.6211	68.1999	36.6211	68.4508	36.6211	68.5873	36.6211	68.7217	36.6211	69.0858	36.6211	69.148	36.6211	69.6641	36.6211	69.7089	36.6211	70.2836	36.6211	70.3537	36.6211	70.9052	36.6211	71.0184	36.6211	71.4928	36.6211	71.6423	36.6211	72.0148	36.6211	72.1774	36.6211	72.4444	36.6211	72.5899	36.6211	72.7589	36.6211	72.8593	36.6211	72.9405	36.6211	72.9763
38.0859	69.3551	38.0859	69.4403	38.0859	69.2534	38.0859	69.4995	38.0859	69.1511	38.0859	69.5303	38.0859	69.0696	38.0859	69.5377	38.0859	69.0347	38.0859	69.5362	38.0859	69.0738	38.0859	69.5505	38.0859	69.2109	38.0859	69.6146	38.0859	69.4609	38.0859	69.7667	38.0859	69.8244	38.0859	70.0381	38.0859	70.2874	38.0859	70.4401	38.0859	70.8235	38.0859	70.956	38.0859	71.3994	38.0859	71.5444	38.0859	71.9802	38.0859	72.1515	38.0859	72.5323	38.0859	72.7236	38.0859	73.0257	38.0859	73.2164	38.0859	73.4341	38.0859	73.597	38.0859	73.7353	38.0859	73.845	38.0859	73.9115	38.0859	73.9502
39.5508	70.6145	39.5508	70.691	39.5508	70.5275	39.5508	70.7486	39.5508	70.4436	39.5508	70.7852	39.5508	70.3809	39.5508	70.8053	39.5508	70.3612	39.5508	70.8214	39.5508	70.4072	39.5508	70.8545	39.5508	70.5388	39.5508	70.9329	39.5508	70.7686	39.5508	71.0879	39.5508	71.0983	39.5508	71.3451	39.5508	71.5173	39.5508	71.7144	39.5508	72.0043	39.5508	72.1829	39.5508	72.531	39.5508	72.7167	39.5508	73.0665	39.5508	73.2696	39.5508	73.5796	39.5508	73.7936	39.5508	74.0415	39.5508	74.2472	39.5508	74.4265	39.5508	74.5987	39.5508	74.7125	39.5508	74.8271	39.5508	74.8819	39.5508	74.9221
41.0156	71.7911	41.0156	71.8687	41.0156	71.7035	41.0156	71.9294	41.0156	71.6177	41.0156	71.9709	41.0156	71.5495	41.0156	71.9973	41.0156	71.5178	41.0156	72.0188	41.0156	71.5429	41.0156	72.0532	41.0156	71.6433	41.0156	72.1243	41.0156	71.8321	41.0156	72.259	41.0156	72.1135	41.0156	72.4805	41.0156	72.4809	41.0156	72.7998	41.0156	72.9172	41.0156	73.209	41.0156	73.3979	41.0156	73.6811	41.0156	73.894	41.0156	74.1764	41.0156	74.3758	41.0156	74.6509	41.0156	74.8143	41.0156	75.0647	41.0156	75.1837	41.0156	75.386	41.0156	75.4613	41.0156	75.5933	41.0156	75.6293	41.0156	75.6752
42.4805	72.674	42.4805	72.7375	42.4805	72.6103	42.4805	72.7944	42.4805	72.5566	42.4805	72.8431	42.4805	72.5264	42.4805	72.887	42.4805	72.5353	42.4805	72.9354	42.4805	72.5991	42.4805	73.0036	42.4805	72.7318	42.4805	73.1115	42.4805	72.9422	42.4805	73.2803	42.4805	73.2319	42.4805	73.5274	42.4805	73.594	42.4805	73.8591	42.4805	74.0137	42.4805	74.2662	42.4805	74.4698	42.4805	74.7242	42.4805	74.9376	42.4805	75.1978	42.4805	75.3908	42.4805	75.6484	42.4805	75.8035	42.4805	76.0399	42.4805	76.1514	42.4805	76.3436	42.4805	76.4135	42.4805	76.5392	42.4805	76.5724	42.4805	76.6162
43.9453	73.837	43.9453	73.8942	43.9453	73.7829	43.9453	73.9493	43.9453	73.7403	43.9453	74.001	43.9453	73.7207	43.9453	74.0526	43.9453	73.7371	43.9453	74.112	43.9453	73.8027	43.9453	74.1921	43.9453	73.9293	43.9453	74.3094	43.9453	74.1247	43.9453	74.4811	43.9453	74.3909	43.9453	74.7208	43.9453	74.7228	43.9453	75.0334	43.9453	75.1081	43.9453	75.4107	43.9453	75.5289	43.9453	75.8318	43.9453	75.9631	43.9453	76.2661	43.9453	76.3867	43.9453	76.679	43.9453	76.7751	43.9453	77.0378	43.9453	77.1052	43.9453	77.3154	43.9453	77.3562	43.9453	77.4924	43.9453	77.5112	43.9453	77.5584
45.4102	75.0404	45.4102	75.1007	45.4102	74.9851	45.4102	75.1615	45.4102	74.9422	45.4102	75.2214	45.4102	74.9214	45.4102	75.2829	45.4102	74.9335	45.4102	75.3523	45.4102	74.9902	45.4102	75.4399	45.4102	75.1014	45.4102	75.559	45.4102	75.2745	45.4102	75.7236	45.4102	75.5118	45.4102	75.9451	45.4102	75.8099	45.4102	76.2278	45.4102	76.1591	45.4102	76.5659	45.4102	76.5442	45.4102	76.9422	45.4102	76.9454	45.4102	77.3306	45.4102	77.3409	45.4102	77.7005	45.4102	77.7073	45.4102	78.0218	45.4102	78.0222	45.4102	78.2689	45.4102	78.2653	45.4102	78.4232	45.4102	78.4199	45.4102	78.4743
46.875	75.8702	46.875	75.9237	46.875	75.8236	46.875	75.9804	46.875	75.7899	46.875	76.0393	46.875	75.7772	46.875	76.103	46.875	75.7949	46.875	76.177	46.875	75.8527	46.875	76.2702	46.875	75.9596	46.875	76.3938	46.875	76.1219	46.875	76.5593	46.875	76.3422	46.875	76.7759	46.875	76.6182	46.875	77.0466	46.875	76.9419	46.875	77.3655	46.875	77.3001	46.875	77.7175	46.875	77.6753	46.875	78.0791	46.875	78.0471	46.875	78.4227	46.875	78.3937	46.875	78.7206	46.875	78.6936	46.875	78.9488	46.875	78.9269	46.875	79.0897	46.875	79.0772	46.875	79.1332
48.3398	76.6382	48.3398	76.6945	48.3398	76.5932	48.3398	76.7587	48.3398	76.5647	48.3398	76.8299	48.3398	76.5598	48.3398	76.9097	48.3398	76.5864	48.3398	77.0023	48.3398	76.6524	48.3398	77.1146	48.3398	76.7651	48.3398	77.255	48.3398	76.9296	48.3398	77.4321	48.3398	77.1474	48.3398	77.6523	48.3398	77.416	48.3398	77.9171	48.3398	77.7279	48.3398	78.221	48.3398	78.0712	48.3398	78.5505	48.3398	78.4299	48.3398	78.8855	48.3398	78.7853	48.3398	79.2015	48.3398	79.1172	48.3398	79.4739	48.3398	79.4055	48.3398	79.6808	48.3398	79.6315	48.3398	79.8058	48.3398	79.7798	48.3398	79.8395
51.2695	78.3058	51.2695	78.357	51.2695	78.2687	51.2695	78.42	51.2695	78.2493	51.2695	78.4937	51.2695	78.2524	51.2695	78.5788	51.2695	78.283	51.2695	78.6777	51.2695	78.3467	51.2695	78.7942	51.2695	78.448	51.2695	78.9333	51.2695	78.5905	51.2695	79.0999	51.2695	78.7755	51.2695	79.2978	51.2695	79.0016	51.2695	79.5277	51.2695	79.2638	51.2695	79.7852	51.2695	79.5536	51.2695	80.0606	51.2695	79.8587	51.2695	80.3384	51.2695	80.1643	51.2695	80.5996	51.2695	80.4532	51.2695	80.8237	51.2695	80.7077	51.2695	80.9921	51.2695	80.9108	51.2695	81.0902	51.2695	81.0481	51.2695	81.1095
52.7344	79.0101	52.7344	79.0611	52.7344	78.9743	52.7344	79.1253	52.7344	78.9567	52.7344	79.2019	52.7344	78.9609	52.7344	79.2912	52.7344	78.9913	52.7344	79.3949	52.7344	79.0522	52.7344	79.5159	52.7344	79.1475	52.7344	79.6578	52.7344	79.2802	52.7344	79.8241	52.7344	79.4516	52.7344	80.0173	52.7344	79.6608	52.7344	80.2372	52.7344	79.9038	52.7344	80.4799	52.7344	80.1734	52.7344	80.7362	52.7344	80.4591	52.7344	80.9924	52.7344	80.7474	52.7344	81.2312	52.7344	81.0226	52.7344	81.4339	52.7344	81.268	52.7344	81.5833	52.7344	81.4671	52.7344	81.6658	52.7344	81.6059	52.7344	81.6738
54.1992	79.7184	54.1992	79.7699	54.1992	79.6835	54.1992	79.8362	54.1992	79.6676	54.1992	79.9165	54.1992	79.6738	54.1992	80.0105	54.1992	79.7053	54.1992	80.1193	54.1992	79.7656	54.1992	80.2444	54.1992	79.8577	54.1992	80.3879	54.1992	79.984	54.1992	80.5522	54.1992	80.1453	54.1992	80.7384	54.1992	80.3409	54.1992	80.9459	54.1992	80.5672	54.1992	81.1709	54.1992	80.818	54.1992	81.4056	54.1992	81.0841	54.1992	81.6381	54.1992	81.3534	54.1992	81.8532	54.1992	81.6117	54.1992	82.0345	54.1992	81.8434	54.1992	82.1662	54.1992	82.0332	54.1992	82.236	54.1992	82.1677	54.1992	82.2369
55.6641	80.2743	55.6641	80.3258	55.6641	80.2396	55.6641	80.3924	55.6641	80.2237	55.6641	80.4733	55.6641	80.2289	55.6641	80.5681	55.6641	80.2581	55.6641	80.6771	55.6641	80.3139	55.6641	80.8013	55.6641	80.3989	55.6641	80.942	55.6641	80.5151	55.6641	81.1005	55.6641	80.6636	55.6641	81.2775	55.6641	80.8435	55.6641	81.4722	55.6641	81.0524	55.6641	81.681	55.6641	81.2848	55.6641	81.8969	55.6641	81.5327	55.6641	82.1095	55.6641	81.7853	55.6641	82.305	55.6641	82.0294	55.6641	82.4682	55.6641	82.2503	55.6641	82.5849	55.6641	82.4334	55.6641	82.6434	55.6641	82.5656	55.6641	82.6373
58.5938	81.3001	58.5938	81.3496	58.5938	81.2703	58.5938	81.4178	58.5938	81.2612	58.5938	81.5038	58.5938	81.274	58.5938	81.6069	58.5938	81.3099	58.5938	81.7263	58.5938	81.3701	58.5938	81.8613	58.5938	81.4559	58.5938	82.0112	58.5938	81.5681	58.5938	82.1751	58.5938	81.7071	58.5938	82.3516	58.5938	81.872	58.5938	82.5383	58.5938	82.0609	58.5938	82.7311	58.5938	82.2696	58.5938	82.924	58.5938	82.492	58.5938	83.1083	58.5938	82.7191	58.5938	83.2731	58.5938	82.9403	58.5938	83.4066	58.5938	83.1428	58.5938	83.4971	58.5938	83.3139	58.5938	83.5357	58.5938	83.4417	58.5938	83.5173
60.0586	81.7191	60.0586	81.7689	60.0586	81.6893	60.0586	81.838	60.0586	81.6804	60.0586	81.9255	60.0586	81.6929	60.0586	82.0302	60.0586	81.7276	60.0586	82.1508	60.0586	81.7852	60.0586	82.2861	60.0586	81.8662	60.0586	82.4345	60.0586	81.9713	60.0586	82.5942	60.0586	82.1004	60.0586	82.7634	60.0586	82.2532	60.0586	82.9392	60.0586	82.4277	60.0586	83.1178	60.0586	82.6208	60.0586	83.2938	60.0586	82.8269	60.0586	83.4597	60.0586	83.0385	60.0586	83.6061	60.0586	83.2457	60.0586	83.7225	60.0586	83.4372	60.0586	83.7988	60.0586	83.6008	60.0586	83.8269	60.0586	83.7254	60.0586	83.8024
62.9883	82.5571	62.9883	82.6056	62.9883	82.5298	62.9883	82.6747	62.9883	82.5237	62.9883	82.7636	62.9883	82.5388	62.9883	82.8707	62.9883	82.5747	62.9883	82.994	62.9883	82.6311	62.9883	83.131	62.9883	82.7076	62.9883	83.2788	62.9883	82.8042	62.9883	83.4345	62.9883	82.9204	62.9883	83.5949	62.9883	83.0557	62.9883	83.7565	62.9883	83.2087	62.9883	83.9155	62.9883	83.3772	62.9883	84.0672	62.9883	83.5573	62.9883	84.2058	62.9883	83.7431	62.9883	84.324	62.9883	83.9268	62.9883	84.4139	62.9883	84.0989	62.9883	84.4677	62.9883	84.249	62.9883	84.4794	62.9883	84.3672	62.9883	84.4456
64.4531	82.9137	64.4531	82.9621	64.4531	82.8871	64.4531	83.0318	64.4531	82.8821	64.4531	83.1219	64.4531	82.8981	64.4531	83.2307	64.4531	82.9343	64.4531	83.3558	64.4531	82.9901	64.4531	83.494	64.4531	83.0646	64.4531	83.6422	64.4531	83.1574	64.4531	83.7964	64.4531	83.2678	64.4531	83.9531	64.4531	83.3951	64.4531	84.1084	64.4531	83.5384	64.4531	84.2584	64.4531	83.6957	64.4531	84.3988	64.4531	83.8638	64.4531	84.5244	64.4531	84.0377	64.4531	84.629	64.4531	84.2105	64.4531	84.7059	64.4531	84.3737	64.4531	84.7485	64.4531	84.5177	64.4531	84.7516	64.4531	84.6333	64.4531	84.7128
67.3828	83.4329	67.3828	83.4809	67.3828	83.4076	67.3828	83.5513	67.3828	83.4043	67.3828	83.6432	67.3828	83.4219	67.3828	83.7543	67.3828	83.4587	67.3828	83.8817	67.3828	83.5132	67.3828	84.0213	67.3828	83.5839	67.3828	84.1687	67.3828	83.6695	67.3828	84.3192	67.3828	83.769	67.3828	84.468	67.3828	83.8817	67.3828	84.6108	67.3828	84.0067	67.3828	84.7436	67.3828	84.1427	67.3828	84.8624	67.3828	84.2877	67.3828	84.9635	67.3828	84.4384	67.3828	85.0425	67.3828	84.5897	67.3828	85.095	67.3828	84.7348	67.3828	85.1167	67.3828	84.8662	67.3828	85.1042	67.3828	84.9758	67.3828	85.0566
68.8477	83.5769	68.8477	83.6239	68.8477	83.5529	68.8477	83.6939	68.8477	83.5511	68.8477	83.7857	68.8477	83.5699	68.8477	83.8971	68.8477	83.6076	68.8477	84.0248	68.8477	83.6621	68.8477	84.1645	68.8477	83.7315	68.8477	84.3112	68.8477	83.8143	68.8477	84.4598	68.8477	83.9093	68.8477	84.6052	68.8477	84.0154	68.8477	84.7427	68.8477	84.1322	68.8477	84.8681	68.8477	84.2585	68.8477	84.978	68.8477	84.3928	68.8477	85.0687	68.8477	84.5325	68.8477	85.137	68.8477	84.6735	68.8477	85.1791	68.8477	84.8099	68.8477	85.1918	68.8477	84.9348	68.8477	85.1729	68.8477	85.041	68.8477	85.1219
71.7773	84.0975	71.7773	84.1442	71.7773	84.074	71.7773	84.214	71.7773	84.0724	71.7773	84.306	71.7773	84.0908	71.7773	84.4175	71.7773	84.1269	71.7773	84.5447	71.7773	84.178	71.7773	84.6829	71.7773	84.2417	71.7773	84.8264	71.7773	84.3159	71.7773	84.9693	71.7773	84.3991	71.7773	85.1059	71.7773	84.4903	71.7773	85.231	71.7773	84.589	71.7773	85.3404	71.7773	84.6949	71.7773	85.4307	71.7773	84.8074	71.7773	85.4994	71.7773	84.9254	71.7773	85.5445	71.7773	85.0463	71.7773	85.5643	71.7773	85.1662	71.7773	85.5574	71.7773	85.2797	71.7773	85.5235	71.7773	85.3809	71.7773	85.4637
74.707	84.6158	74.707	84.6626	74.707	84.592	74.707	84.7325	74.707	84.5897	74.707	84.8245	74.707	84.6066	74.707	84.9358	74.707	84.64	74.707	85.0625	74.707	84.6867	74.707	85.1992	74.707	84.744	74.707	85.3397	74.707	84.8094	74.707	85.4776	74.707	84.8812	74.707	85.6065	74.707	84.9583	74.707	85.7208	74.707	85.0405	74.707	85.8161	74.707	85.1279	74.707	85.889	74.707	85.2211	74.707	85.9378	74.707	85.3198	74.707	85.9616	74.707	85.4232	74.707	85.9604	74.707	85.529	74.707	85.9347	74.707	85.6331	74.707	85.886	74.707	85.7309	74.707	85.8168
77.6367	84.7439	77.6367	84.7937	77.6367	84.7175	77.6367	84.8671	77.6367	84.713	77.6367	84.9628	77.6367	84.7277	77.6367	85.0778	77.6367	84.7585	77.6367	85.2076	77.6367	84.802	77.6367	85.3465	77.6367	84.8549	77.6367	85.4875	77.6367	84.9143	77.6367	85.6235	77.6367	84.9781	77.6367	85.7475	77.6367	85.0451	77.6367	85.8534	77.6367	85.115	77.6367	85.9363	77.6367	85.1884	77.6367	85.9934	77.6367	85.2663	77.6367	86.0233	77.6367	85.3496	77.6367	86.0264	77.6367	85.4388	77.6367	86.0043	77.6367	85.5331	77.6367	85.9596	77.6367	85.63	77.6367	85.8955	77.6367	85.7259	77.6367	85.816
79.1016	84.7146	79.1016	84.7653	79.1016	84.6874	79.1016	84.8397	79.1016	84.6823	79.1016	84.9364	79.1016	84.6964	79.1016	85.0524	79.1016	84.7266	79.1016	85.1829	79.1016	84.7692	79.1016	85.3219	79.1016	84.8206	79.1016	85.4623	79.1016	84.8778	79.1016	85.5966	79.1016	84.9385	79.1016	85.7177	79.1016	85.0012	79.1016	85.8191	79.1016	85.0656	79.1016	85.8961	79.1016	85.1324	79.1016	85.9455	79.1016	85.2027	79.1016	85.9666	79.1016	85.2779	79.1016	85.9601	79.1016	85.3592	79.1016	85.9286	79.1016	85.4464	79.1016	85.8755	79.1016	85.5382	79.1016	85.805	79.1016	85.6315	79.1016	85.722
82.0313	85.0083	82.0313	85.0601	82.0313	84.9801	82.0313	85.1357	82.0313	84.9739	82.0313	85.2338	82.0313	84.9869	82.0313	85.3509	82.0313	85.0154	82.0313	85.4821	82.0313	85.0555	82.0313	85.621	82.0313	85.1033	82.0313	85.7601	82.0313	85.1554	82.0313	85.8916	82.0313	85.2091	82.0313	86.0077	82.0313	85.263	82.0313	86.1016	82.0313	85.3167	82.0313	86.1683	82.0313	85.3709	82.0313	86.2049	82.0313	85.4275	82.0313	86.2108	82.0313	85.4886	82.0313	86.188	82.0313	85.5566	82.0313	86.14	82.0313	85.6328	82.0313	86.0721	82.0313	85.7169	82.0313	85.9901	82.0313	85.8071	82.0313	85.8998
84.9609	85.224	84.9609	85.2765	84.9609	85.1954	84.9609	85.3528	84.9609	85.1887	84.9609	85.4515	84.9609	85.2011	84.9609	85.569	84.9609	85.2286	84.9609	85.7003	84.9609	85.2672	84.9609	85.8386	84.9609	85.3124	84.9609	85.9762	84.9609	85.3606	84.9609	86.1046	84.9609	85.4088	84.9609	86.216	84.9609	85.4553	84.9609	86.303	84.9609	85.4996	84.9609	86.3605	84.9609	85.5425	84.9609	86.3855	84.9609	85.5864	84.9609	86.378	84.9609	85.6342	84.9609	86.3405	84.9609	85.6892	84.9609	86.2781	84.9609	85.7539	84.9609	86.1971	84.9609	85.8297	84.9609	86.1051	84.9609	85.9157	84.9609	86.0092
87.8906	85.1589	87.8906	85.2108	87.8906	85.1302	87.8906	85.2861	87.8906	85.123	87.8906	85.3831	87.8906	85.1343	87.8906	85.4985	87.8906	85.16	87.8906	85.6269	87.8906	85.1958	87.8906	85.7617	87.8906	85.2371	87.8906	85.8949	87.8906	85.28	87.8906	86.018	87.8906	85.3213	87.8906	86.1225	87.8906	85.359	87.8906	86.2012	87.8906	85.3924	87.8906	86.2485	87.8906	85.4228	87.8906	86.2615	87.8906	85.4526	87.8906	86.2403	87.8906	85.4856	87.8906	86.1885	87.8906	85.526	87.8906	86.1119	87.8906	85.5779	87.8906	86.0187	87.8906	85.6438	87.8906	85.9176	87.8906	85.7242	87.8906	85.8171
90.8203	85.3049	90.8203	85.3584	90.8203	85.2743	90.8203	85.4347	90.8203	85.2649	90.8203	85.5323	90.8203	85.2735	90.8203	85.6475	90.8203	85.2962	90.8203	85.775	90.8203	85.3282	90.8203	85.9078	90.8203	85.3649	90.8203	86.0378	90.8203	85.4022	90.8203	86.1563	90.8203	85.4364	90.8203	86.2546	90.8203	85.4655	90.8203	86.3252	90.8203	85.489	90.8203	86.3623	90.8203	85.5079	90.8203	86.3633	90.8203	85.5253	90.8203	86.3285	90.8203	85.5456	90.8203	86.2621	90.8203	85.574	90.8203	86.1711	90.8203	85.6157	90.8203	86.0649	90.8203	85.6745	90.8203	85.9535	90.8203	85.7521	90.8203	85.8467
95.2148	85.337	95.2148	85.3931	95.2148	85.3035	95.2148	85.4715	95.2148	85.291	95.2148	85.5703	95.2148	85.2964	95.2148	85.6858	95.2148	85.3158	95.2148	85.8123	95.2148	85.3442	95.2148	85.9428	95.2148	85.3766	95.2148	86.069	95.2148	85.4084	95.2148	86.1817	95.2148	85.4356	95.2148	86.2722	95.2148	85.4558	95.2148	86.3326	95.2148	85.4681	95.2148	86.3571	95.2148	85.4738	95.2148	86.3429	95.2148	85.4763	95.2148	86.291	95.2148	85.4807	95.2148	86.2064	95.2148	85.4934	95.2148	86.0974	95.2148	85.5213	95.2148	85.9752	95.2148	85.57	95.2148	85.8516	95.2148	85.6423	95.2148	85.7378
98.1445	85.3133	98.1445	85.3699	98.1445	85.2782	98.1445	85.4481	98.1445	85.2634	98.1445	85.5457	98.1445	85.2658	98.1445	85.659	98.1445	85.2813	98.1445	85.7827	98.1445	85.305	98.1445	85.9095	98.1445	85.3319	98.1445	86.0312	98.1445	85.357	98.1445	86.1387	98.1445	85.3764	98.1445	86.2229	98.1445	85.3874	98.1445	86.2758	98.1445	85.3893	98.1445	86.2912	98.1445	85.3834	98.1445	86.2663	98.1445	85.3735	98.1445	86.2022	98.1445	85.3653	98.1445	86.1044	98.1445	85.3664	98.1445	85.9821	98.1445	85.3845	98.1445	85.8475	98.1445	85.4265	98.1445	85.714	98.1445	85.4963	98.1445	85.5938
101.074	85.2555	101.074	85.3151	101.074	85.2171	101.074	85.3955	101.074	85.1986	101.074	85.4948	101.074	85.1971	101.074	85.6092	101.074	85.2086	101.074	85.7334	101.074	85.2282	101.074	85.8603	101.074	85.2509	101.074	85.9817	101.074	85.2716	101.074	86.0884	101.074	85.2863	101.074	86.1712	101.074	85.2923	101.074	86.2217	101.074	85.2888	101.074	86.2335	101.074	85.2774	101.074	86.2035	101.074	85.262	101.074	86.1326	101.074	85.2488	101.074	86.0264	101.074	85.2458	101.074	85.8945	101.074	85.2616	101.074	85.75	101.074	85.3036	101.074	85.6071	101.074	85.3761	101.074	85.4791
105.469	85.2722	105.469	85.3388	105.469	85.2255	105.469	85.4245	105.469	85.1979	105.469	85.5273	105.469	85.1868	105.469	85.6433	105.469	85.1888	105.469	85.7673	105.469	85.1992	105.469	85.8923	105.469	85.213	105.469	86.0104	105.469	85.2255	105.469	86.1124	105.469	85.2324	105.469	86.189	105.469	85.2309	105.469	86.2317	105.469	85.2202	105.469	86.2341	105.469	85.2016	105.469	86.1929	105.469	85.1793	105.469	86.1091	105.469	85.1598	105.469	85.9886	105.469	85.1516	105.469	85.8419	105.469	85.164	105.469	85.6831	105.469	85.2052	105.469	85.5275	105.469	85.2803	105.469	85.3896
108.398	85.2671	108.398	85.3366	108.398	85.2176	108.398	85.4253	108.398	85.1871	108.398	85.5308	108.398	85.1734	108.398	85.6493	108.398	85.1728	108.398	85.7755	108.398	85.1806	108.398	85.9022	108.398	85.1917	108.398	86.0213	108.398	85.201	108.398	86.1234	108.398	85.2043	108.398	86.199	108.398	85.1986	108.398	86.2394	108.398	85.1831	108.398	86.2377	108.398	85.1594	108.398	86.1907	108.398	85.1317	108.398	86.0995	108.398	85.1072	108.398	85.9701	108.398	85.0948	108.398	85.8138	108.398	85.1045	108.398	85.6452	108.398	85.145	108.398	85.4808	108.398	85.2221	108.398	85.336
112.793	85.2532	112.793	85.3216	112.793	85.2029	112.793	85.4072	112.793	85.1703	112.793	85.5074	112.793	85.1534	112.793	85.6186	112.793	85.1488	112.793	85.7355	112.793	85.1517	112.793	85.8515	112.793	85.1568	112.793	85.9586	112.793	85.1589	112.793	86.0478	112.793	85.1532	112.793	86.1097	112.793	85.1366	112.793	86.1358	112.793	85.1081	112.793	86.1192	112.793	85.0692	112.793	86.057	112.793	85.0247	112.793	85.9505	112.793	84.982	112.793	85.8068	112.793	84.9514	112.793	85.6378	112.793	84.944	112.793	85.4597	112.793	84.9701	112.793	85.2901	112.793	85.0367	112.793	85.1452
117.188	85.2202	117.188	85.2877	117.188	85.1692	117.188	85.3707	117.188	85.1345	117.188	85.4672	117.188	85.1145	117.188	85.5739	117.188	85.1062	117.188	85.6863	117.188	85.1053	117.188	85.7983	117.188	85.1071	117.188	85.9025	117.188	85.1064	117.188	85.9902	117.188	85.0987	117.188	86.0519	117.188	85.0807	117.188	86.0786	117.188	85.0514	117.188	86.063	117.188	85.0119	117.188	86.0015	117.188	84.9668	117.188	85.8952	117.188	84.9235	117.188	85.7507	117.188	84.8919	117.188	85.5804	117.188	84.8833	117.188	85.4004	117.188	84.9084	117.188	85.2291	117.188	84.9744	117.188	85.0831
120.117	85.1303	120.117	85.1999	120.117	85.0772	120.117	85.2849	120.117	85.0404	120.117	85.3828	120.117	85.0184	120.117	85.4905	120.117	85.0085	120.117	85.6035	120.117	85.0064	120.117	85.716	120.117	85.0072	120.117	85.8206	120.117	85.0057	120.117	85.9087	120.117	84.9973	120.117	85.9709	120.117	84.9787	120.117	85.998	120.117	84.9486	120.117	85.9828	120.117	84.9085	120.117	85.9213	120.117	84.8627	120.117	85.8144	120.117	84.8191	120.117	85.6684	120.117	84.7877	120.117	85.4957	120.117	84.7801	120.117	85.3127	120.117	84.8071	120.117	85.1377	120.117	84.8758	120.117	84.988
124.512	85.0971	124.512	85.1699	124.512	85.0402	124.512	85.2573	124.512	84.9994	124.512	85.3568	124.512	84.9735	124.512	85.4652	124.512	84.9599	124.512	85.578	124.512	84.9545	124.512	85.6896	124.512	84.9523	124.512	85.7926	124.512	84.9479	124.512	85.8786	124.512	84.9366	124.512	85.9378	124.512	84.9148	124.512	85.9611	124.512	84.8812	124.512	85.941	124.512	84.8371	124.512	85.8734	124.512	84.7871	124.512	85.7594	124.512	84.7392	124.512	85.6059	124.512	84.7039	124.512	85.4254	124.512	84.6932	124.512	85.2353	124.512	84.7183	124.512	85.0546	124.512	84.7869	124.512	84.9009
128.906	84.9545	128.906	85.0267	128.906	84.8963	128.906	85.1115	128.906	84.8528	128.906	85.2065	128.906	84.8231	128.906	85.3086	128.906	84.805	128.906	85.4138	128.906	84.7948	128.906	85.517	128.906	84.7876	128.906	85.6115	128.906	84.7783	128.906	85.6889	128.906	84.762	128.906	85.7401	128.906	84.735	128.906	85.7558	128.906	84.6958	128.906	85.7285	128.906	84.6458	128.906	85.6544	128.906	84.5895	128.906	85.5344	128.906	84.5347	128.906	85.3757	128.906	84.4923	128.906	85.1913	128.906	84.4746	128.906	84.9989	128.906	84.4931	128.906	84.818	128.906	84.5562	128.906	84.6662
133.301	84.8145	133.301	84.8858	133.301	84.7567	133.301	84.9691	133.301	84.7132	133.301	85.062	133.301	84.6834	133.301	85.1616	133.301	84.6652	133.301	85.2644	133.301	84.6549	133.301	85.3653	133.301	84.6475	133.301	85.458	133.301	84.6377	133.301	85.5343	133.301	84.6204	133.301	85.5846	133.301	84.5919	133.301	85.5996	133.301	84.5504	133.301	85.5714	133.301	84.4972	133.301	85.4957	133.301	84.437	133.301	85.3735	133.301	84.3779	133.301	85.212	133.301	84.3311	133.301	85.0246	133.301	84.3092	133.301	84.8295	133.301	84.3242	133.301	84.6467	133.301	84.3851	133.301	84.4943
139.16	84.6175	139.16	84.6888	139.16	84.5585	139.16	84.77	139.16	84.5128	139.16	84.8589	139.16	84.4806	139.16	84.9527	139.16	84.4601	139.16	85.0482	139.16	84.4479	139.16	85.1412	139.16	84.439	139.16	85.226	139.16	84.4277	139.16	85.2948	139.16	84.4088	139.16	85.3388	139.16	84.3779	139.16	85.3485	139.16	84.3331	139.16	85.316	139.16	84.2757	139.16	85.2368	139.16	84.2104	139.16	85.1118	139.16	84.1454	139.16	84.9482	139.16	84.0922	139.16	84.7596	139.16	84.0639	139.16	84.5645	139.16	84.073	139.16	84.3831	139.16	84.1285	139.16	84.2335
143.555	84.4692	143.555	84.5446	143.555	84.4041	143.555	84.6278	143.555	84.3515	143.555	84.7162	143.555	84.3118	143.555	84.807	143.555	84.2842	143.555	84.8975	143.555	84.2655	143.555	84.9837	143.555	84.251	143.555	85.0605	143.555	84.2351	143.555	85.1207	143.555	84.212	143.555	85.1555	143.555	84.1772	143.555	85.1557	143.555	84.1285	143.555	85.1136	143.555	84.0667	143.555	85.0249	143.555	83.9965	143.555	84.8907	143.555	83.9261	143.555	84.7187	143.555	83.8671	143.555	84.5233	143.555	83.833	143.555	84.3234	143.555	83.8367	143.555	84.1396	143.555	83.8879	143.555	83.9903
147.949	84.3243	147.949	84.4013	147.949	84.2546	147.949	84.4827	147.949	84.1945	147.949	84.566	147.949	84.1452	147.949	84.6489	147.949	84.1065	147.949	84.7289	147.949	84.0759	147.949	84.8031	147.949	84.0492	147.949	84.8668	147.949	84.0212	147.949	84.9135	147.949	83.9862	147.949	84.9349	147.949	83.9401	147.949	84.9221	147.949	83.8805	147.949	84.8675	147.949	83.8086	147.949	84.767	147.949	83.7289	147.949	84.6218	147.949	83.6501	147.949	84.4401	147.949	83.5838	147.949	84.2364	147.949	83.5436	147.949	84.0304	147.949	83.5426	147.949	83.8429	147.949	83.5909	147.949	83.6923
153.809	84.1765	153.809	84.255	153.809	84.1036	153.809	84.3362	153.809	84.039	153.809	84.4172	153.809	83.9841	153.809	84.4958	153.809	83.9384	153.809	84.5697	153.809	83.8993	153.809	84.6359	153.809	83.8626	153.809	84.6904	153.809	83.8228	153.809	84.7269	153.809	83.7744	153.809	84.7374	153.809	83.7133	153.809	84.7129	153.809	83.6379	153.809	84.6459	153.809	83.5499	153.809	84.532	153.809	83.4549	153.809	84.3729	153.809	83.3624	153.809	84.1769	153.809	83.2849	153.809	83.9594	153.809	83.2368	153.809	83.7408	153.809	83.2317	153.809	83.5429	153.809	83.2798	153.809	83.3849
159.668	84.0698	159.668	84.1577	159.668	83.9859	159.668	84.246	159.668	83.9098	159.668	84.3315	159.668	83.8443	159.668	84.4119	159.668	83.7899	159.668	84.4855	159.668	83.7451	159.668	84.5503	159.668	83.7058	159.668	84.6026	159.668	83.6664	159.668	84.6367	159.668	83.6209	159.668	84.6449	159.668	83.5645	159.668	84.6182	159.668	83.4948	159.668	84.549	159.668	83.4128	159.668	84.4328	159.668	83.3236	159.668	84.2713	159.668	83.2365	159.668	84.0731	159.668	83.1639	159.668	83.8536	159.668	83.1198	159.668	83.6334	159.668	83.118	159.668	83.4343	159.668	83.1684	159.668	83.2752
165.527	84.0286	165.527	84.1208	165.527	83.9387	165.527	84.2112	165.527	83.8553	165.527	84.2968	165.527	83.7818	165.527	84.3756	165.527	83.7195	165.527	84.4462	165.527	83.6677	165.527	84.5069	165.527	83.6226	165.527	84.5546	165.527	83.5789	165.527	84.5838	165.527	83.5307	165.527	84.5869	165.527	83.4728	165.527	84.5551	165.527	83.4026	165.527	84.4806	165.527	83.3207	165.527	84.3592	165.527	83.232	165.527	84.1924	165.527	83.1454	165.527	83.9893	165.527	83.073	165.527	83.7656	165.527	83.0288	165.527	83.5425	165.527	83.0264	165.527	83.3419	165.527	83.0761	165.527	83.1824
171.387	83.8108	171.387	83.9024	171.387	83.7204	171.387	83.9912	171.387	83.6357	171.387	84.0741	171.387	83.5607	171.387	84.1498	171.387	83.4976	171.387	84.2175	171.387	83.4459	171.387	84.2763	171.387	83.4024	171.387	84.3238	171.387	83.362	171.387	84.355	171.387	83.3188	171.387	84.3623	171.387	83.2675	171.387	84.3367	171.387	83.2053	171.387	84.2701	171.387	83.1327	171.387	84.1577	171.387	83.0541	171.387	84.0009	171.387	82.978	171.387	83.8083	171.387	82.9157	171.387	83.5956	171.387	82.88	171.387	83.383	171.387	82.8832	171.387	83.1915	171.387	82.9347	171.387	83.0384
177.246	83.6461	177.246	83.7397	177.246	83.5514	177.246	83.8276	177.246	83.4604	177.246	83.9069	177.246	83.378	177.246	83.9767	177.246	83.3069	177.246	84.0367	177.246	83.2472	177.246	84.0869	177.246	83.1963	177.246	84.1254	177.246	83.1489	177.246	84.1479	177.246	83.0992	177.246	84.1471	177.246	83.0418	177.246	84.114	177.246	82.9739	177.246	84.0404	177.246	82.896	177.246	83.9213	177.246	82.8127	177.246	83.7582	177.246	82.7325	177.246	83.5601	177.246	82.6669	177.246	83.3431	177.246	82.6286	177.246	83.1277	177.246	82.6297	177.246	82.935	177.246	82.6795	177.246	82.7822
183.105	83.3628	183.105	83.4597	183.105	83.2603	183.105	83.5458	183.105	83.1584	183.105	83.6179	183.105	83.0633	183.105	83.6755	183.105	82.9795	183.105	83.7195	183.105	82.9085	183.105	83.7516	183.105	82.8486	183.105	83.7717	183.105	82.7953	183.105	83.7772	183.105	82.7427	183.105	83.7623	183.105	82.6852	183.105	83.7186	183.105	82.6194	183.105	83.638	183.105	82.545	183.105	83.5158	183.105	82.466	183.105	83.3534	183.105	82.39	183.105	83.1598	183.105	82.3276	183.105	82.9511	183.105	82.2904	183.105	82.7471	183.105	82.2895	183.105	82.5671	183.105	82.3334	183.105	82.4264
188.965	83.3096	188.965	83.4181	188.965	83.1886	188.965	83.5085	188.965	83.0626	188.965	83.5772	188.965	82.9389	188.965	83.6233	188.965	82.8235	188.965	83.6479	188.965	82.7194	188.965	83.653	188.965	82.6266	188.965	83.6397	188.965	82.542	188.965	83.6067	188.965	82.4604	188.965	83.5499	188.965	82.3771	188.965	83.4629	188.965	82.2885	188.965	83.3396	188.965	82.1947	188.965	83.1772	188.965	82.0993	188.965	82.9792	188.965	82.0094	188.965	82.7569	188.965	81.935	188.965	82.5278	188.965	81.8869	188.965	82.3129	188.965	81.8755	188.965	82.1307	188.965	81.9096	188.965	81.9944
196.289	83.1774	196.289	83.2871	196.289	83.0557	196.289	83.3795	196.289	82.9287	196.289	83.4511	196.289	82.8032	196.289	83.5015	196.289	82.6841	196.289	83.5317	196.289	82.5738	196.289	83.5437	196.289	82.4715	196.289	83.5382	196.289	82.3735	196.289	83.5134	196.289	82.2753	196.289	83.4641	196.289	82.173	196.289	83.3824	196.289	82.0649	196.289	83.2605	196.289	81.9531	196.289	83.0938	196.289	81.8434	196.289	82.8847	196.289	81.745	196.289	82.6444	196.289	81.6686	196.289	82.3919	196.289	81.6252	196.289	82.1504	196.289	81.6248	196.289	81.9415	196.289	81.675	196.289	81.7806
203.613	82.9754	203.613	83.1078	203.613	82.8267	203.613	83.2167	203.613	82.6706	203.613	83.2981	203.613	82.5167	203.613	83.351	203.613	82.3731	203.613	83.3768	203.613	82.2446	203.613	83.378	203.613	82.1317	203.613	83.3566	203.613	82.0306	203.613	83.3123	203.613	81.9348	203.613	83.2418	203.613	81.8379	203.613	83.1392	203.613	81.7357	203.613	82.9987	203.613	81.6284	203.613	82.8172	203.613	81.5213	203.613	82.5978	203.613	81.4239	203.613	82.3515	203.613	81.3487	203.613	82.0962	203.613	81.3079	203.613	81.8532	203.613	81.3118	203.613	81.6425	203.613	81.3675	203.613	81.4781
210.938	82.9131	210.938	83.0199	210.938	82.7838	210.938	83.0986	210.938	82.6391	210.938	83.1467	210.938	82.487	210.938	83.1644	210.938	82.3347	210.938	83.1538	210.938	82.1871	210.938	83.1184	210.938	82.0461	210.938	83.0606	210.938	81.9106	210.938	82.9808	210.938	81.7779	210.938	82.8763	210.938	81.6454	210.938	82.7421	210.938	81.5122	210.938	82.5733	210.938	81.3806	210.938	82.3686	210.938	81.2561	210.938	82.1336	210.938	81.1468	210.938	81.8821	210.938	81.0614	210.938	81.6343	210.938	81.0079	210.938	81.4116	210.938	80.9931	210.938	81.2307	210.938	81.0223	210.938	81.1005
218.262	82.7033	218.262	82.8317	218.262	82.554	218.262	82.9327	218.262	82.3922	218.262	83.0029	218.262	82.2265	218.262	83.0417	218.262	82.0644	218.262	83.0509	218.262	81.91	218.262	83.0333	218.262	81.7638	218.262	82.9906	218.262	81.6227	218.262	82.9224	218.262	81.4821	218.262	82.8252	218.262	81.3384	218.262	82.693	218.262	81.191	218.262	82.5197	218.262	81.0438	218.262	82.3029	218.262	80.9054	218.262	82.0472	218.262	80.7871	218.262	81.7663	218.262	80.7004	218.262	81.4817	218.262	80.655	218.262	81.2177	218.262	80.6578	218.262	80.9948	218.262	80.7134	218.262	80.8253
225.586	82.5034	225.586	82.6413	225.586	82.3393	225.586	82.7457	225.586	82.1599	225.586	82.8133	225.586	81.9776	225.586	82.8448	225.586	81.8038	225.586	82.8444	225.586	81.6464	225.586	82.8172	225.586	81.5079	225.586	82.7678	225.586	81.3853	225.586	82.6982	225.586	81.2724	225.586	82.6065	225.586	81.1625	225.586	82.4878	225.586	81.0522	225.586	82.3366	225.586	80.9429	225.586	82.1501	225.586	80.8417	225.586	81.9321	225.586	80.7588	225.586	81.6941	225.586	80.7046	225.586	81.4537	225.586	80.6873	225.586	81.2299	225.586	80.7109	225.586	81.0379	225.586	80.777	225.586	80.886
232.91	82.5506	232.91	82.704	232.91	82.3609	232.91	82.8155	232.91	82.1442	232.91	82.8831	232.91	81.912	232.91	82.9083	232.91	81.6769	232.91	82.8947	232.91	81.4498	232.91	82.8464	232.91	81.2383	232.91	82.7666	232.91	81.0454	232.91	82.6561	232.91	80.8705	232.91	82.5131	232.91	80.7115	232.91	82.3344	232.91	80.5679	232.91	82.1182	232.91	80.4426	232.91	81.8672	232.91	80.3417	232.91	81.5918	232.91	80.2728	232.91	81.3097	232.91	80.2413	232.91	81.0426	232.91	80.2482	232.91	80.8094	232.91	80.2909	232.91	80.6201	232.91	80.3661	232.91	80.4742
241.699	82.4139	241.699	82.548	241.699	82.2471	241.699	82.6448	241.699	82.0553	241.699	82.7035	241.699	81.8483	241.699	82.7266	241.699	81.6357	241.699	82.7186	241.699	81.4249	241.699	82.6837	241.699	81.2196	241.699	82.6237	241.699	81.019	241.699	82.536	241.699	80.8195	241.699	82.4133	241.699	80.6177	241.699	82.2458	241.699	80.4135	241.699	82.0253	241.699	80.2132	241.699	81.7504	241.699	80.0298	241.699	81.4306	241.699	79.8802	241.699	81.0868	241.699	79.7804	241.699	80.7475	241.699	79.7406	241.699	80.4404	241.699	79.7631	241.699	80.1842	241.699	79.8456	241.699	79.9859
250.488	82.2066	250.488	82.3386	250.488	82.033	250.488	82.4242	250.488	81.8269	250.488	82.4636	250.488	81.6009	250.488	82.4614	250.488	81.3692	250.488	82.4252	250.488	81.1441	250.488	82.3635	250.488	80.9337	250.488	82.2823	250.488	80.7402	250.488	82.1826	250.488	80.5597	250.488	82.0583	250.488	80.386	250.488	81.8981	250.488	80.2145	250.488	81.6903	250.488	80.0455	250.488	81.4292	250.488	79.8866	250.488	81.1217	250.488	79.7508	250.488	80.7891	250.488	79.6523	250.488	80.4628	250.488	79.6019	250.488	80.1738	250.488	79.6045	250.488	79.9417	250.488	79.6608	250.488	79.7719
259.277	82.3678	259.277	82.4971	259.277	82.1993	259.277	82.5833	259.277	81.9989	259.277	82.6262	259.277	81.7765	259.277	82.6293	259.277	81.5424	259.277	82.5985	259.277	81.3061	259.277	82.54	259.277	81.0745	259.277	82.4571	259.277	80.8508	259.277	82.3483	259.277	80.6351	259.277	82.2058	259.277	80.4254	259.277	82.0176	259.277	80.2209	259.277	81.7719	259.277	80.0239	259.277	81.4634	259.277	79.8414	259.277	81.1002	259.277	79.6835	259.277	80.7072	259.277	79.561	259.277	80.3233	259.277	79.4821	259.277	79.9898	259.277	79.4525	259.277	79.7353	259.277	79.4777	259.277	79.5675
268.066	81.9218	268.066	82.0509	268.066	81.754	268.066	82.1358	268.066	81.5571	268.066	82.1764	268.066	81.3434	268.066	82.1773	268.066	81.1263	268.066	82.1469	268.066	80.9171	268.066	82.0954	268.066	80.7231	268.066	82.0303	268.066	80.5464	268.066	81.9532	268.066	80.3844	268.066	81.8584	268.066	80.2327	268.066	81.7336	268.066	80.0881	268.066	81.5655	268.066	79.9521	268.066	81.3467	268.066	79.8313	268.066	81.0811	268.066	79.7354	268.066	80.7867	268.066	79.6738	268.066	80.4919	268.066	79.6523	268.066	80.2257	268.066	79.6729	268.066	80.0083	268.066	79.7365	268.066	79.8464
276.855	81.8154	276.855	81.9435	276.855	81.6459	276.855	82.0212	276.855	81.4462	276.855	82.0442	276.855	81.2273	276.855	82.0137	276.855	80.9978	276.855	81.936	276.855	80.7625	276.855	81.8215	276.855	80.5231	276.855	81.681	276.855	80.2797	276.855	81.522	276.855	80.0334	276.855	81.3447	276.855	79.788	276.855	81.1413	276.855	79.5513	276.855	80.8995	276.855	79.3346	276.855	80.6104	276.855	79.15	276.855	80.2775	276.855	79.0074	276.855	79.9223	276.855	78.9109	276.855	79.5812	276.855	78.8584	276.855	79.2923	276.855	78.8455	276.855	79.0793	276.855	78.8712	276.855	78.9437
287.109	81.9002	287.109	82.0801	287.109	81.6652	287.109	82.1957	287.109	81.392	287.109	82.2455	287.109	81.1033	287.109	82.2337	287.109	80.8236	287.109	82.1684	287.109	80.5717	287.109	82.0585	287.109	80.3551	287.109	81.9114	287.109	80.1678	287.109	81.7309	287.109	79.9943	287.109	81.5166	287.109	79.8186	287.109	81.2653	287.109	79.632	287.109	80.9744	287.109	79.4388	287.109	80.6465	287.109	79.2548	287.109	80.2942	287.109	79.1009	287.109	79.9415	287.109	78.9939	287.109	79.6197	287.109	78.9392	287.109	79.3564	287.109	78.9318	287.109	79.1643	287.109	78.9647	287.109	79.0386
297.363	81.6485	297.363	81.8204	297.363	81.409	297.363	81.9212	297.363	81.1132	297.363	81.9541	297.363	80.7791	297.363	81.9288	297.363	80.4301	297.363	81.8596	297.363	80.0912	297.363	81.7623	297.363	79.7838	297.363	81.6502	297.363	79.5208	297.363	81.528	297.363	79.305	297.363	81.3885	297.363	79.1315	297.363	81.2143	297.363	78.9931	297.363	80.9856	297.363	78.8855	297.363	80.692	297.363	78.8091	297.363	80.3426	297.363	78.7668	297.363	79.9698	297.363	78.7595	297.363	79.6198	297.363	78.7833	297.363	79.3335	297.363	78.8307	297.363	79.1272	297.363	78.8974	297.363	78.9898
307.617	81.7967	307.617	81.9348	307.617	81.5977	307.617	82.0105	307.617	81.3446	307.617	82.0266	307.617	81.0488	307.617	81.9894	307.617	80.7248	307.617	81.908	307.617	80.3873	307.617	81.7926	307.617	80.048	307.617	81.6538	307.617	79.7138	307.617	81.5001	307.617	79.3881	307.617	81.3353	307.617	79.076	307.617	81.1548	307.617	78.7899	307.617	80.9447	307.617	78.5508	307.617	80.6881	307.617	78.3839	307.617	80.376	307.617	78.3064	307.617	80.0196	307.617	78.3175	307.617	79.6525	307.617	78.3976	307.617	79.3175	307.617	78.5195	307.617	79.0439	307.617	78.6642	307.617	78.8328
319.336	81.2957	319.336	81.439	319.336	81.094	319.336	81.5196	319.336	80.8454	319.336	81.5409	319.336	80.5678	319.336	81.5127	319.336	80.2816	319.336	81.4484	319.336	80.0057	319.336	81.3603	319.336	79.7506	319.336	81.2557	319.336	79.5153	319.336	81.1341	319.336	79.2887	319.336	80.9888	319.336	79.0577	319.336	80.8106	319.336	78.8178	319.336	80.5929	319.336	78.5823	319.336	80.336	319.336	78.3822	319.336	80.0497	319.336	78.2551	319.336	79.7526	319.336	78.2262	319.336	79.4674	319.336	78.2935	319.336	79.2116	319.336	78.4301	319.336	78.9887	319.336	78.6025	319.336	78.7893
329.59	81.4545	329.59	81.5823	329.59	81.2508	329.59	81.6329	329.59	80.9806	329.59	81.6136	329.59	80.6601	329.59	81.5392	329.59	80.3105	329.59	81.4296	329.59	79.9543	329.59	81.3038	329.59	79.6102	329.59	81.173	329.59	79.2881	329.59	81.0355	329.59	78.9867	329.59	80.8754	329.59	78.6979	329.59	80.6688	329.59	78.4155	329.59	80.394	329.59	78.1455	329.59	80.0434	329.59	77.9106	329.59	79.6328	329.59	77.7437	329.59	79.2031	329.59	77.6712	329.59	78.8076	329.59	77.6947	329.59	78.4877	329.59	77.7895	329.59	78.2506	329.59	77.9215	329.59	78.072
341.309	81.2878	341.309	81.3984	341.309	81.1061	341.309	81.4327	341.309	80.8674	341.309	81.3957	341.309	80.5923	341.309	81.3019	341.309	80.3032	341.309	81.1728	341.309	80.0195	341.309	81.0319	341.309	79.7518	341.309	80.8975	341.309	79.4999	341.309	80.7749	341.309	79.2547	341.309	80.652	341.309	79.0045	341.309	80.5024	341.309	78.7435	341.309	80.2959	341.309	78.4796	341.309	80.0129	341.309	78.2361	341.309	79.6574	341.309	78.0458	341.309	79.2626	341.309	77.9359	341.309	78.882	341.309	77.9125	341.309	78.5655	341.309	77.9585	341.309	78.3327	341.309	78.0482	341.309	78.169
353.027	80.8541	353.027	80.9622	353.027	80.6604	353.027	80.9835	353.027	80.3931	353.027	80.9277	353.027	80.0745	353.027	80.8136	353.027	79.7348	353.027	80.6672	353.027	79.4051	353.027	80.5157	353.027	79.1078	353.027	80.3789	353.027	78.8483	353.027	80.2603	353.027	78.6137	353.027	80.1435	353.027	78.3832	353.027	79.9968	353.027	78.1417	353.027	79.7861	353.027	77.8929	353.027	79.4912	353.027	77.6625	353.027	79.12	353.027	77.49	353.027	78.7145	353.027	77.4079	353.027	78.3391	353.027	77.4201	353.027	78.0476	353.027	77.4987	353.027	77.851	353.027	77.6045	353.027	77.7169
366.211	80.9535	366.211	81.0588	366.211	80.7662	366.211	81.0778	366.211	80.5097	366.211	81.0151	366.211	80.2041	366.211	80.8857	366.211	79.8759	366.211	80.7135	366.211	79.5529	366.211	80.5277	366.211	79.2553	366.211	80.353	366.211	78.9862	366.211	80.1972	366.211	78.7286	366.211	80.0439	366.211	78.4533	366.211	79.8544	366.211	78.1352	366.211	79.5824	366.211	77.7691	366.211	79.1941	366.211	77.3792	366.211	78.6886	366.211	77.0165	366.211	78.1104	366.211	76.7382	366.211	77.5461	366.211	76.5767	366.211	77.0895	366.211	76.5225	366.211	76.7884	366.211	76.5431	366.211	76.6229
379.395	81.0684	379.395	81.2073	379.395	80.8454	379.395	81.254	379.395	80.5577	379.395	81.2133	379.395	80.2321	379.395	81.1041	379.395	79.8972	379.395	80.9559	379.395	79.5759	379.395	80.8015	379.395	79.2779	379.395	80.6659	379.395	78.9948	379.395	80.5533	379.395	78.7027	379.395	80.4407	379.395	78.3718	379.395	80.2803	379.395	77.9791	379.395	80.0129	379.395	77.521	379.395	79.587	379.395	77.0222	379.395	78.9811	379.395	76.5361	379.395	78.2257	379.395	76.131	379.395	77.4168	379.395	75.8596	379.395	76.6943	379.395	75.7341	379.395	76.1717	379.395	75.7379	379.395	75.8696
392.578	79.8466	392.578	79.9608	392.578	79.6345	392.578	79.9589	392.578	79.3693	392.578	79.8534	392.578	79.1146	392.578	79.6907	392.578	78.9347	392.578	79.5464	392.578	78.8681	392.578	79.5036	392.578	78.9057	392.578	79.6109	392.578	78.9922	392.578	79.8458	392.578	79.0503	392.578	80.1196	392.578	79.0074	392.578	80.3179	392.578	78.8117	392.578	80.3395	392.578	78.4393	392.578	80.1147	392.578	77.8983	392.578	79.6117	392.578	77.2346	392.578	78.8446	392.578	76.5352	392.578	77.8889	392.578	75.9166	392.578	76.8923	392.578	75.4916	392.578	76.0493	392.578	75.3399	392.578	75.5158
405.762	80.7858	405.762	81.0346	405.762	80.249	405.762	80.9906	405.762	79.4417	405.762	80.653	405.762	78.4234	405.762	80.0316	405.762	77.3577	405.762	79.1755	405.762	76.5713	405.762	78.2428	405.762	76.428	405.762	77.5833	405.762	76.9525	405.762	77.6115	405.762	77.7944	405.762	78.3456	405.762	78.6038	405.762	79.3578	405.762	79.2014	405.762	80.243	405.762	79.531	405.762	80.8049	405.762	79.599	405.762	80.9895	405.762	79.4462	405.762	80.8189	405.762	79.1424	405.762	80.3658	405.762	78.7879	405.762	79.748	405.762	78.5098	405.762	79.1206	405.762	78.436	405.762	78.6453
420.41	83.4276	420.41	83.5783	420.41	83.094	420.41	83.5532	420.41	82.5622	420.41	83.3501	420.41	81.8128	420.41	82.9573	420.41	80.8303	420.41	82.356	420.41	79.6234	420.41	81.5278	420.41	78.2723	420.41	80.4787	420.41	77.0171	420.41	79.298	420.41	76.293	420.41	78.2647	420.41	76.4244	420.41	77.8469	420.41	77.2176	420.41	78.2677	420.41	78.2265	420.41	79.1735	420.41	79.16	420.41	80.09	420.41	79.9116	420.41	80.78	420.41	80.4688	420.41	81.1998	420.41	80.8568	420.41	81.3948	420.41	81.1148	420.41	81.4373	420.41	81.2829	420.41	81.3895
435.059	82.7475	435.059	82.8686	435.059	82.4969	435.059	82.8652	435.059	82.1094	435.059	82.7384	435.059	81.5779	435.059	82.4852	435.059	80.9019	435.059	82.0976	435.059	80.0985	435.059	81.5668	435.059	79.2176	435.059	80.8929	435.059	78.3566	435.059	80.1103	435.059	77.6581	435.059	79.3257	435.059	77.2632	435.059	78.7375	435.059	77.2296	435.059	78.5447	435.059	77.494	435.059	78.7583	435.059	77.9269	435.059	79.1772	435.059	78.4064	435.059	79.5774	435.059	78.8513	435.059	79.8403	435.059	79.2206	435.059	79.9492	435.059	79.5034	435.059	79.9396	435.059	79.7089	435.059	79.8528
451.172	82.4244	451.172	82.498	451.172	82.2141	451.172	82.4433	451.172	81.8581	451.172	82.2675	451.172	81.3483	451.172	81.9742	451.172	80.6824	451.172	81.5597	451.172	79.8753	451.172	81.0134	451.172	78.9757	451.172	80.3253	451.172	78.0834	451.172	79.5108	451.172	77.3486	451.172	78.6531	451.172	76.9241	451.172	77.9435	451.172	76.8771	451.172	77.6276	451.172	77.1477	451.172	77.7974	451.172	77.6027	451.172	78.2818	451.172	78.1143	451.172	78.8244	451.172	78.595	451.172	79.2606	451.172	78.9982	451.172	79.5338	451.172	79.3069	451.172	79.6504	451.172	79.52	451.172	79.6378
465.82	82.2936	465.82	82.3547	465.82	82.1099	465.82	82.3012	465.82	81.7953	465.82	82.142	465.82	81.3405	465.82	81.8856	465.82	80.7383	465.82	81.5369	465.82	79.9938	465.82	81.0939	465.82	79.1413	465.82	80.5481	465.82	78.2623	465.82	79.8958	465.82	77.4902	465.82	79.1628	465.82	76.9715	465.82	78.4381	465.82	76.788	465.82	77.8822	465.82	76.9088	465.82	77.648	465.82	77.2289	465.82	77.7459	465.82	77.6359	465.82	78.0361	465.82	78.044	465.82	78.3588	465.82	78.3958	465.82	78.621	465.82	78.6569	465.82	78.7889	465.82	78.8107	465.82	78.8537
483.398	81.9929	483.398	82.0317	483.398	81.8293	483.398	81.9543	483.398	81.5335	483.398	81.7729	483.398	81.097	483.398	81.5013	483.398	80.5112	483.398	81.1495	483.398	79.7773	483.398	80.7166	483.398	78.9234	483.398	80.1907	483.398	78.0272	483.398	79.5618	483.398	77.2272	483.398	78.8471	483.398	76.6898	483.398	78.1226	483.398	76.5188	483.398	77.5308	483.398	76.6888	483.398	77.221	483.398	77.0811	483.398	77.2376	483.398	77.5648	483.398	77.4923	483.398	78.0371	483.398	77.8522	483.398	78.4249	483.398	78.2158	483.398	78.6801	483.398	78.5194	483.398	78.7781	483.398	78.7181
499.512	81.74	499.512	81.7906	499.512	81.5629	499.512	81.7193	499.512	81.2563	499.512	81.5356	499.512	80.816	499.512	81.2506	499.512	80.2368	499.512	80.8704	499.512	79.5211	499.512	80.3893	499.512	78.6945	499.512	79.7932	499.512	77.8237	499.512	79.0808	499.512	77.0258	499.512	78.3039	499.512	76.4504	499.512	77.6091	499.512	76.2174	499.512	77.2078	499.512	76.3468	499.512	77.211	499.512	76.7504	499.512	77.5063	499.512	77.2887	499.512	77.885	499.512	77.8313	499.512	78.2146	499.512	78.2832	499.512	78.4638	499.512	78.5903	499.512	78.6414	499.512	78.7376	499.512	78.7427
517.09	81.9986	517.09	81.9956	517.09	81.8681	517.09	81.8773	517.09	81.5946	517.09	81.6708	517.09	81.1727	517.09	81.4056	517.09	80.5987	517.09	81.1005	517.09	79.8743	517.09	80.7498	517.09	79.0198	517.09	80.3208	517.09	78.0951	517.09	79.7684	517.09	77.2158	517.09	79.0683	517.09	76.5399	517.09	78.2701	517.09	76.1992	517.09	77.5465	517.09	76.2191	517.09	77.1491	517.09	76.5145	517.09	77.1913	517.09	76.9572	517.09	77.519	517.09	77.4327	517.09	77.8965	517.09	77.8563	517.09	78.1893	517.09	78.1746	517.09	78.3643	517.09	78.3635	517.09	78.4234
536.133	81.2415	536.133	81.1662	536.133	81.1646	536.133	80.9529	536.133	80.9307	536.133	80.6317	536.133	80.5379	536.133	80.2467	536.133	79.9846	536.133	79.8441	536.133	79.2755	536.133	79.4501	536.133	78.4415	536.133	79.0537	536.133	77.5677	536.133	78.6136	536.133	76.808	536.133	78.096	536.133	76.3406	536.133	77.5305	536.133	76.26	536.133	77.0516	536.133	76.5176	536.133	76.8559	536.133	76.987	536.133	77.036	536.133	77.5482	536.133	77.4821	536.133	78.1071	536.133	78.0048	536.133	78.5858	536.133	78.4739	536.133	78.9212	536.133	78.8292	536.133	79.0747	536.133	79.0386
555.176	81.6976	555.176	81.6203	555.176	81.6093	555.176	81.3975	555.176	81.3411	555.176	81.0604	555.176	80.8782	555.176	80.6485	555.176	80.205	555.176	80.194	555.176	79.3144	555.176	79.7	555.176	78.2334	555.176	79.128	555.176	77.0687	555.176	78.4157	555.176	76.0513	555.176	77.5328	555.176	75.4825	555.176	76.5798	555.176	75.5009	555.176	75.8746	555.176	75.9502	555.176	75.7781	555.176	76.5704	555.176	76.249	555.176	77.1854	555.176	76.9088	555.176	77.7128	555.176	77.486	555.176	78.1137	555.176	77.9139	555.176	78.3648	555.176	78.2131	555.176	78.4565	555.176	78.3984
574.219	81.7556	574.219	81.6405	574.219	81.7369	574.219	81.412	574.219	81.5656	574.219	81.1	574.219	81.2147	574.219	80.7425	574.219	80.6453	574.219	80.3682	574.219	79.8149	574.219	79.9719	574.219	78.7006	574.219	79.5001	574.219	77.3503	574.219	78.8633	574.219	75.9812	574.219	77.9834	574.219	75.0507	574.219	76.8895	574.219	74.9646	574.219	75.8685	574.219	75.5698	574.219	75.4523	574.219	76.3938	574.219	75.8287	574.219	77.1296	574.219	76.5507	574.219	77.6756	574.219	77.1852	574.219	78.0233	574.219	77.6175	574.219	78.1901	574.219	77.9007	574.219	78.202	574.219	78.0943
594.727	81.5033	594.727	81.3701	594.727	81.5277	594.727	81.1491	594.727	81.4233	594.727	80.8745	594.727	81.1586	594.727	80.5885	594.727	80.6869	594.727	80.3179	594.727	79.9546	594.727	80.0474	594.727	78.9166	594.727	79.7094	594.727	77.5724	594.727	79.1994	594.727	76.0558	594.727	78.41	594.727	74.8027	594.727	77.293	594.727	74.4762	594.727	76.0141	594.727	75.1754	594.727	75.1789	594.727	76.2774	594.727	75.4307	594.727	77.2695	594.727	76.4077	594.727	77.9726	594.727	77.3508	594.727	78.3788	594.727	77.963	594.727	78.5442	594.727	78.288	594.727	78.547	594.727	78.4569
615.234	81.3153	615.234	81.0786	615.234	81.4481	615.234	80.7609	615.234	81.467	615.234	80.4234	615.234	81.3388	615.234	80.1507	615.234	80.9933	615.234	79.9966	615.234	80.34	615.234	79.9249	615.234	79.3001	615.234	79.8039	615.234	77.8529	615.234	79.4601	615.234	76.155	615.234	78.7481	615.234	74.7868	615.234	77.6333	615.234	74.6083	615.234	76.371	615.234	75.5707	615.234	75.7076	615.234	76.8386	615.234	76.2159	615.234	77.9195	615.234	77.3394	615.234	78.6992	615.234	78.349	615.234	79.198	615.234	79.0119	615.234	79.4683	615.234	79.3722	615.234	79.5666	615.234	79.535
637.207	80.9116	637.207	80.676	637.207	81.1135	637.207	80.4079	637.207	81.2882	637.207	80.1592	637.207	81.3908	637.207	80.0242	637.207	81.307	637.207	80.0659	637.207	80.885	637.207	80.2214	637.207	79.9715	637.207	80.2846	637.207	78.4296	637.207	79.9833	637.207	76.2059	637.207	79.0485	637.207	73.7903	637.207	77.2673	637.207	73.2262	637.207	74.8516	637.207	75.1376	637.207	73.8696	637.207	77.3275	637.207	75.7944	637.207	78.9422	637.207	78.0185	637.207	79.977	637.207	79.4743	637.207	80.5618	637.207	80.2683	637.207	80.8286	637.207	80.6542	637.207	80.8918	637.207	80.8306
659.18	80.737	659.18	80.5684	659.18	80.9226	659.18	80.3261	659.18	81.2196	659.18	80.0228	659.18	81.5975	659.18	79.8021	659.18	81.8776	659.18	79.8593	659.18	81.8287	659.18	80.2275	659.18	81.2394	659.18	80.6646	659.18	79.9004	659.18	80.8018	659.18	77.5233	659.18	80.2785	659.18	73.6849	659.18	78.6983	659.18	69.8643	659.18	75.4741	659.18	73.0343	659.18	70.7557	659.18	77.0798	659.18	72.9576	659.18	79.6697	659.18	77.4704	659.18	81.2438	659.18	80.0846	659.18	82.1327	659.18	81.4767	659.18	82.5481	659.18	82.18	659.18	82.6435	659.18	82.5194
682.617	80.3863	682.617	80.6432	682.617	79.844	682.617	80.3959	682.617	79.5667	682.617	79.6524	682.617	80.0901	682.617	78.6908	682.617	81.1572	682.617	78.3008	682.617	82.0832	682.617	79.2208	682.617	82.4327	682.617	80.849	682.617	81.985	682.617	82.186	682.617	80.5174	682.617	82.713	682.617	77.5503	682.617	82.1001	682.617	71.6203	682.617	79.8177	682.617	66.3254	682.617	74.2869	682.617	75.0251	682.617	65.167	682.617	79.4391	682.617	76.3254	682.617	81.8709	682.617	80.8188	682.617	83.2464	682.617	82.9312	682.617	83.971	682.617	83.9061	682.617	84.2761	682.617	84.2708
707.52	83.387	707.52	83.7991	707.52	82.3579	707.52	83.6192	707.52	80.7896	707.52	82.8454	707.52	79.2701	707.52	81.4329	707.52	79.0808	707.52	79.4399	707.52	80.2364	707.52	77.758	707.52	81.3779	707.52	78.3878	707.52	81.7857	707.52	80.5033	707.52	81.2337	707.52	82.0934	707.52	79.4907	707.52	82.5063	707.52	75.908	707.52	81.4163	707.52	68.4354	707.52	78.057	707.52	70.4718	707.52	68.7813	707.52	77.4947	707.52	71.0379	707.52	81.1459	707.52	78.9887	707.52	83.2258	707.52	82.346	707.52	84.3623	707.52	84.0035	707.52	84.8309	707.52	84.7332
732.422	85.0233	732.422	85.2154	732.422	84.2864	732.422	84.9272	732.422	82.9505	732.422	84.1796	732.422	81.1366	732.422	82.9288	732.422	79.5842	732.422	81.1028	732.422	79.5102	732.422	78.9127	732.422	80.5338	732.422	77.8611	732.422	81.3558	732.422	79.3249	732.422	81.3812	732.422	81.3161	732.422	80.3492	732.422	82.3541	732.422	77.8229	732.422	81.9722	732.422	72.4034	732.422	79.6149	732.422	64.5915	732.422	73.2918	732.422	74.6198	732.422	62.2477	732.422	79.4659	732.422	76.5712	732.422	82.0196	732.422	80.8636	732.422	83.361	732.422	82.8588	732.422	83.887	732.422	83.7405
757.324	85.7072	757.324	85.83	757.324	85.1191	757.324	85.5537	757.324	83.9539	757.324	84.8579	757.324	82.1484	757.324	83.6172	757.324	80.0463	757.324	81.6115	757.324	79.0743	757.324	78.685	757.324	80.011	757.324	76.1248	757.324	81.2546	757.324	77.5901	757.324	81.7337	757.324	80.4397	757.324	81.1273	757.324	82.1293	757.324	79.0892	757.324	82.318	757.324	74.5553	757.324	80.6867	757.324	64.3858	757.324	76.0418	757.324	73.36	757.324	55.6732	757.324	78.9575	757.324	74.132	757.324	81.6826	757.324	79.7478	757.324	83.0079	757.324	82.1582	757.324	83.4552	757.324	83.2095
785.156	87.0381	785.156	87.0213	785.156	86.6308	785.156	86.6709	785.156	85.6582	785.156	86.0107	785.156	83.9474	785.156	84.9781	785.156	81.393	785.156	83.3956	785.156	78.6126	785.156	80.9268	785.156	78.112	785.156	77.2187	785.156	79.763	785.156	75.0141	785.156	80.9809	785.156	78.5959	785.156	81.0043	785.156	81.6971	785.156	79.5547	785.156	82.905	785.156	75.7816	785.156	82.189	785.156	64.1345	785.156	78.9992	785.156	70.9484	785.156	71.4867	785.156	78.6005	785.156	74.2955	785.156	82.0649	785.156	80.3305	785.156	83.8347	785.156	83.1194	785.156	84.5327	785.156	84.3345
811.523	87.03	811.523	86.8412	811.523	86.9546	811.523	86.4931	811.523	86.4331	811.523	85.9969	811.523	85.2231	811.523	85.2581	811.523	83.0308	811.523	84.0701	811.523	79.6757	811.523	82.0645	811.523	76.9237	811.523	78.4404	811.523	78.6479	811.523	71.0234	811.523	81.093	811.523	73.7165	811.523	82.2035	811.523	80.4864	811.523	81.8839	811.523	83.5376	811.523	79.8806	811.523	84.3176	811.523	75.0392	811.523	83.0437	811.523	65.8083	811.523	79.3874	811.523	75.2949	811.523	74.9217	811.523	80.1924	811.523	78.3469	811.523	82.5075	811.523	81.7775	811.523	83.4447	811.523	83.272
840.82	85.9318	840.82	85.6107	840.82	86.1891	840.82	85.2742	840.82	86.2491	840.82	84.9428	840.82	85.8819	840.82	84.6198	840.82	84.8008	840.82	84.2331	840.82	82.6677	840.82	83.5688	840.82	79.1192	840.82	82.1955	840.82	75.5159	840.82	79.1814	840.82	77.5428	840.82	71.2708	840.82	80.6046	840.82	71.8179	840.82	82.0253	840.82	80.2782	840.82	81.8461	840.82	83.3431	840.82	79.9328	840.82	83.8382	840.82	75.5288	840.82	82.2813	840.82	67.6425	840.82	78.7102	840.82	72.5854	840.82	74.8085	840.82	77.1107	840.82	76.2712	840.82	78.7634	840.82	78.4413
870.117	84.6105	870.117	84.4188	870.117	84.5971	870.117	83.9671	870.117	84.5031	870.117	83.3006	870.117	84.3666	870.117	82.5777	870.117	83.9914	870.117	82.0533	870.117	83.0281	870.117	81.8526	870.117	81.1418	870.117	81.6944	870.117	78.3084	870.117	80.9251	870.117	76.4251	870.117	78.5443	870.117	78.0728	870.117	72.7108	870.117	80.1614	870.117	72.803	870.117	80.97	870.117	79.2957	870.117	80.296	870.117	81.8551	870.117	77.9936	870.117	81.9425	870.117	73.59	870.117	79.9721	870.117	65.4972	870.117	75.6396	870.117	60.8105	870.117	67.1207	870.117	64.4678	870.117	59.5395
900.879	85.3226	900.879	85.2699	900.879	85.0341	900.879	84.7962	900.879	84.5028	900.879	83.8569	900.879	83.8479	900.879	82.5237	900.879	83.1276	900.879	81.0885	900.879	82.22	900.879	80.0567	900.879	80.8606	900.879	79.7533	900.879	78.8735	900.879	79.7933	900.879	76.7889	900.879	79.3501	900.879	76.5624	900.879	77.746	900.879	78.1658	900.879	75.3692	900.879	79.4575	900.879	75.9323	900.879	79.6919	900.879	78.5657	900.879	78.8749	900.879	79.8357	900.879	77.2923	900.879	79.3384	900.879	75.5941	900.879	77.157	900.879	74.416	900.879	73.7947	900.879	73.2988	900.879	72.1463
933.105	85.5187	933.105	85.3893	933.105	85.2282	933.105	84.8327	933.105	84.5656	933.105	83.8838	933.105	83.6519	933.105	82.653	933.105	82.6668	933.105	81.3231	933.105	81.7059	933.105	80.0736	933.105	80.6497	933.105	79.055	933.105	79.2875	933.105	78.4047	933.105	77.6713	933.105	77.9544	933.105	76.5587	933.105	77.0601	933.105	76.7566	933.105	75.3391	933.105	77.4841	933.105	74.4735	933.105	77.7261	933.105	76.1344	933.105	77.3678	933.105	77.5298	933.105	76.9604	933.105	77.4385	933.105	77.0233	933.105	76.2228	933.105	77.195	933.105	75.2454	933.105	76.8007	933.105	75.7864
965.332	85.3801	965.332	85.1831	965.332	85.1613	965.332	84.5667	965.332	84.6027	965.332	83.648	965.332	83.779	965.332	82.6166	965.332	82.7336	965.332	81.5717	965.332	81.5109	965.332	80.4276	965.332	80.1777	965.332	79.0757	965.332	78.8101	965.332	77.6888	965.332	77.5446	965.332	76.807	965.332	76.654	965.332	76.555	965.332	76.3091	965.332	76.1962	965.332	76.2398	965.332	75.2619	965.332	76.0985	965.332	74.3846	965.332	75.986	965.332	74.5922	965.332	76.2517	965.332	75.3073	965.332	76.7222	965.332	75.6095	965.332	76.8118	965.332	75.5238	965.332	76.3089	965.332	75.675
1,000.49	85.5909	1,000.49	85.1615	1,000.49	85.4897	1,000.49	84.3178	1,000.49	84.8511	1,000.49	83.2351	1,000.49	83.7968	1,000.49	82.0767	1,000.49	82.5456	1,000.49	80.947	1,000.49	81.2952	1,000.49	79.8752	1,000.49	80.0922	1,000.49	78.7816	1,000.49	78.8416	1,000.49	77.5145	1,000.49	77.4936	1,000.49	76.0987	1,000.49	76.3261	1,000.49	75.1239	1,000.49	75.8632	1,000.49	75.1666	1,000.49	75.9279	1,000.49	75.479	1,000.49	75.7635	1,000.49	75.1914	1,000.49	75.3399	1,000.49	74.4203	1,000.49	75.5108	1,000.49	74.0767	1,000.49	76.3966	1,000.49	74.6623	1,000.49	77.0844	1,000.49	75.6458	1,000.49	77.1027	1,000.49	76.5402
1,035.64	85.232	1,035.64	84.8792	1,035.64	85.0812	1,035.64	84.0959	1,035.64	84.4678	1,035.64	83.0903	1,035.64	83.4775	1,035.64	82.1529	1,035.64	82.2052	1,035.64	81.4548	1,035.64	80.8114	1,035.64	80.8429	1,035.64	79.5205	1,035.64	80.0624	1,035.64	78.4565	1,035.64	79.2076	1,035.64	77.634	1,035.64	78.6414	1,035.64	77.1623	1,035.64	78.1313	1,035.64	77.0429	1,035.64	76.8163	1,035.64	76.7987	1,035.64	74.1613	1,035.64	75.889	1,035.64	71.3582	1,035.64	74.4772	1,035.64	71.5579	1,035.64	73.9566	1,035.64	72.9816	1,035.64	74.9454	1,035.64	74.0937	1,035.64	76.0389	1,035.64	75.1743	1,035.64	76.4483	1,035.64	76.0944
1,072.27	85.2342	1,072.27	84.6444	1,072.27	85.241	1,072.27	83.649	1,072.27	84.6507	1,072.27	82.5993	1,072.27	83.5911	1,072.27	81.83	1,072.27	82.2905	1,072.27	81.3194	1,072.27	80.9549	1,072.27	80.7379	1,072.27	79.6684	1,072.27	79.7825	1,072.27	78.4821	1,072.27	78.5088	1,072.27	77.5008	1,072.27	77.6163	1,072.27	76.7312	1,072.27	77.5202	1,072.27	76.0396	1,072.27	77.3142	1,072.27	75.3796	1,072.27	76.2557	1,072.27	74.7961	1,072.27	74.5388	1,072.27	74.4241	1,072.27	73.058	1,072.27	74.7441	1,072.27	72.546	1,072.27	75.9207	1,072.27	73.3008	1,072.27	77.1307	1,072.27	75.0862	1,072.27	77.5196	1,072.27	76.771
1,108.89	84.9343	1,108.89	84.3649	1,108.89	85.1152	1,108.89	83.6359	1,108.89	84.7667	1,108.89	82.9874	1,108.89	83.8675	1,108.89	82.4118	1,108.89	82.563	1,108.89	81.6227	1,108.89	81.1154	1,108.89	80.3865	1,108.89	79.6667	1,108.89	78.6516	1,108.89	78.0885	1,108.89	76.6406	1,108.89	76.3286	1,108.89	75.3504	1,108.89	75.017	1,108.89	75.7239	1,108.89	74.9542	1,108.89	76.5427	1,108.89	75.4265	1,108.89	76.5474	1,108.89	75.3867	1,108.89	75.5707	1,108.89	74.7663	1,108.89	74.1137	1,108.89	74.5803	1,108.89	73.055	1,108.89	75.6304	1,108.89	73.4612	1,108.89	76.838	1,108.89	75.0904	1,108.89	77.2098	1,108.89	76.567
1,148.44	84.474	1,148.44	83.9305	1,148.44	84.7012	1,148.44	83.3446	1,148.44	84.3718	1,148.44	82.8148	1,148.44	83.4274	1,148.44	82.1824	1,148.44	82.0643	1,148.44	81.2331	1,148.44	80.6573	1,148.44	79.9329	1,148.44	79.4089	1,148.44	78.4021	1,148.44	78.1839	1,148.44	76.7075	1,148.44	76.8869	1,148.44	75.1305	1,148.44	75.7141	1,148.44	74.7629	1,148.44	75.0529	1,148.44	75.2595	1,148.44	75.0116	1,148.44	74.8452	1,148.44	74.9314	1,148.44	73.4007	1,148.44	74.3323	1,148.44	72.364	1,148.44	74.0611	1,148.44	72.3539	1,148.44	75.1799	1,148.44	72.839	1,148.44	76.4835	1,148.44	73.9966	1,148.44	76.6606	1,148.44	75.5982
1,189.45	84.2244	1,189.45	83.8548	1,189.45	84.3736	1,189.45	83.3577	1,189.45	84.1519	1,189.45	82.8108	1,189.45	83.3788	1,189.45	82.1849	1,189.45	82.0606	1,189.45	81.306	1,189.45	80.5615	1,189.45	80.0086	1,189.45	79.2906	1,189.45	78.2899	1,189.45	78.0688	1,189.45	76.3155	1,189.45	76.4359	1,189.45	74.5477	1,189.45	74.4551	1,189.45	73.7461	1,189.45	73.2195	1,189.45	73.8823	1,189.45	73.5846	1,189.45	74.4116	1,189.45	74.2747	1,189.45	74.9767	1,189.45	74.2662	1,189.45	75.0693	1,189.45	73.91	1,189.45	74.5694	1,189.45	74.2309	1,189.45	74.3209	1,189.45	75.0126	1,189.45	74.7523	1,189.45	75.3624	1,189.45	75.2095
1,230.47	84.0939	1,230.47	83.7863	1,230.47	84.1441	1,230.47	83.3265	1,230.47	83.857	1,230.47	82.7406	1,230.47	83.1187	1,230.47	81.9342	1,230.47	81.8088	1,230.47	80.9175	1,230.47	80.0506	1,230.47	79.849	1,230.47	78.4447	1,230.47	78.6598	1,230.47	77.4551	1,230.47	76.9371	1,230.47	76.5201	1,230.47	75.1749	1,230.47	74.8027	1,230.47	75.1456	1,230.47	72.1481	1,230.47	75.014	1,230.47	71.0412	1,230.47	72.785	1,230.47	72.5822	1,230.47	70.3948	1,230.47	73.3416	1,230.47	71.9917	1,230.47	73.1131	1,230.47	74.1463	1,230.47	73.5253	1,230.47	75.2113	1,230.47	74.6803	1,230.47	75.3306	1,230.47	75.1947	1,230.47	75.1882
1,274.41	84.207	1,274.41	84.0932	1,274.41	83.9077	1,274.41	83.5957	1,274.41	83.2864	1,274.41	82.838	1,274.41	82.3566	1,274.41	81.9739	1,274.41	80.988	1,274.41	81.2089	1,274.41	79.2736	1,274.41	80.596	1,274.41	77.8388	1,274.41	79.7211	1,274.41	77.1374	1,274.41	77.8163	1,274.41	76.665	1,274.41	74.8971	1,274.41	75.5765	1,274.41	74.9433	1,274.41	72.9975	1,274.41	76.5814	1,274.41	69.5934	1,274.41	75.5747	1,274.41	71.0653	1,274.41	71.5885	1,274.41	73.3395	1,274.41	71.9267	1,274.41	73.8103	1,274.41	74.8988	1,274.41	73.7975	1,274.41	76.2712	1,274.41	74.5672	1,274.41	76.9121	1,274.41	75.6258	1,274.41	76.5825
1,319.82	84.0961	1,319.82	84.0684	1,319.82	83.6042	1,319.82	83.7972	1,319.82	82.6167	1,319.82	83.3078	1,319.82	81.4906	1,319.82	82.3995	1,319.82	80.3003	1,319.82	81.1951	1,319.82	78.7479	1,319.82	80.2234	1,319.82	76.8912	1,319.82	79.5824	1,319.82	75.6461	1,319.82	78.1566	1,319.82	75.5959	1,319.82	73.9931	1,319.82	75.2954	1,319.82	69.0669	1,319.82	73.0024	1,319.82	74.058	1,319.82	68.7552	1,319.82	75.3791	1,319.82	69.8794	1,319.82	72.2029	1,319.82	72.2206	1,319.82	68.2701	1,319.82	72.5125	1,319.82	74.5341	1,319.82	73.3545	1,319.82	76.9943	1,319.82	75.4153	1,319.82	77.4711	1,319.82	76.9859	1,319.82	77.5628
1,366.7	83.9853	1,366.7	84.3357	1,366.7	83.2663	1,366.7	84.2112	1,366.7	81.9874	1,366.7	83.3177	1,366.7	80.4319	1,366.7	81.6309	1,366.7	78.9886	1,366.7	79.6347	1,366.7	76.8923	1,366.7	78.62	1,366.7	74.0572	1,366.7	79.2122	1,366.7	73.78	1,366.7	79.446	1,366.7	74.9682	1,366.7	77.2431	1,366.7	74.8802	1,366.7	72.0302	1,366.7	72.8158	1,366.7	72.7017	1,366.7	67.8095	1,366.7	74.3472	1,366.7	67.9192	1,366.7	71.2294	1,366.7	71.7805	1,366.7	61.0434	1,366.7	72.5323	1,366.7	73.3101	1,366.7	72.6188	1,366.7	76.9042	1,366.7	74.4589	1,366.7	77.4329	1,366.7	76.4115	1,366.7	77.2576
1,413.57	83.4292	1,413.57	84.1039	1,413.57	82.3937	1,413.57	84.0569	1,413.57	81.2226	1,413.57	83.2872	1,413.57	79.5838	1,413.57	81.8335	1,413.57	77.6628	1,413.57	79.6838	1,413.57	76.0533	1,413.57	77.36	1,413.57	74.1709	1,413.57	76.4903	1,413.57	71.955	1,413.57	76.3012	1,413.57	72.4597	1,413.57	73.8984	1,413.57	73.8731	1,413.57	69.3178	1,413.57	72.421	1,413.57	72.19	1,413.57	65.5289	1,413.57	75.3671	1,413.57	65.8927	1,413.57	75.1919	1,413.57	71.0219	1,413.57	68.9056	1,413.57	71.1313	1,413.57	66.5411	1,413.57	70.6426	1,413.57	74.891	1,413.57	72.2093	1,413.57	75.9449	1,413.57	73.9635	1,413.57	75.0254
1,463.38	83.8941	1,463.38	84.5079	1,463.38	82.4173	1,463.38	84.5733	1,463.38	80.3249	1,463.38	84.1724	1,463.38	78.3345	1,463.38	83.109	1,463.38	76.9845	1,463.38	81.3434	1,463.38	76.1904	1,463.38	78.7295	1,463.38	74.5266	1,463.38	75.5078	1,463.38	70.8409	1,463.38	73.9479	1,463.38	69.6687	1,463.38	72.7225	1,463.38	72.6324	1,463.38	67.8853	1,463.38	73.1916	1,463.38	65.0628	1,463.38	70.2155	1,463.38	72.3566	1,463.38	64.1167	1,463.38	73.8391	1,463.38	65.4835	1,463.38	69.6756	1,463.38	65.5672	1,463.38	64.9211	1,463.38	65.5578	1,463.38	73.0282	1,463.38	68.4151	1,463.38	74.9097	1,463.38	71.2008	1,463.38	73.6038
1,516.11	84.7702	1,516.11	85.4127	1,516.11	83.2291	1,516.11	85.3639	1,516.11	80.4612	1,516.11	84.426	1,516.11	76.8195	1,516.11	82.6672	1,516.11	74.2628	1,516.11	80.5474	1,516.11	73.5638	1,516.11	78.1295	1,516.11	72.0102	1,516.11	75.1738	1,516.11	69.2018	1,516.11	72.4605	1,516.11	68.0316	1,516.11	71.1284	1,516.11	70.5949	1,516.11	68.616	1,516.11	71.9487	1,516.11	62.1448	1,516.11	69.3962	1,516.11	70.392	1,516.11	65.5245	1,516.11	72.5076	1,516.11	65.7035	1,516.11	67.4069	1,516.11	63.8794	1,516.11	67.9114	1,516.11	63.5384	1,516.11	74.3988	1,516.11	67.9231	1,516.11	76.4416	1,516.11	72.3479	1,516.11	75.5999
1,568.85	84.9526	1,568.85	85.6875	1,568.85	83.4844	1,568.85	85.5766	1,568.85	81.0189	1,568.85	84.4173	1,568.85	77.2606	1,568.85	82.4114	1,568.85	72.0596	1,568.85	79.7137	1,568.85	68.9158	1,568.85	76.3068	1,568.85	67.992	1,568.85	73.7857	1,568.85	63.6126	1,568.85	72.9489	1,568.85	64.1793	1,568.85	71.3541	1,568.85	68.8345	1,568.85	67.0794	1,568.85	69.461	1,568.85	63.3712	1,568.85	64.3	1,568.85	70.1389	1,568.85	65.0022	1,568.85	72.1389	1,568.85	69.5971	1,568.85	66.854	1,568.85	70.8491	1,568.85	67.3408	1,568.85	70.4823	1,568.85	74.6023	1,568.85	69.9384	1,568.85	76.7225	1,568.85	73.0605	1,568.85	76.0927
1,624.51	84.0995	1,624.51	84.613	1,624.51	82.9127	1,624.51	84.2651	1,624.51	81.3062	1,624.51	83.1275	1,624.51	78.8564	1,624.51	81.0608	1,624.51	74.0985	1,624.51	77.4616	1,624.51	66.1329	1,624.51	71.4695	1,624.51	67.3394	1,624.51	63.052	1,624.51	66.1859	1,624.51	61.8278	1,624.51	62.0734	1,624.51	66.4862	1,624.51	68.6137	1,624.51	66.0998	1,624.51	69.6579	1,624.51	54.2036	1,624.51	63.0854	1,624.51	64.2506	1,624.51	58.0776	1,624.51	68.7713	1,624.51	66.6879	1,624.51	63.5751	1,624.51	69.2577	1,624.51	64.7332	1,624.51	70.771	1,624.51	73.6617	1,624.51	71.6641	1,624.51	76.0392	1,624.51	73.6016	1,624.51	75.6428
1,681.64	83.8727	1,681.64	84.0498	1,681.64	82.7471	1,681.64	83.1514	1,681.64	80.8263	1,681.64	80.9906	1,681.64	78.79	1,681.64	78.0479	1,681.64	75.7439	1,681.64	74.9455	1,681.64	67.6677	1,681.64	71.5538	1,681.64	61.9075	1,681.64	69.0194	1,681.64	65.9227	1,681.64	63.6712	1,681.64	57.5768	1,681.64	67.4467	1,681.64	64.8985	1,681.64	71.6968	1,681.64	69.6153	1,681.64	68.5049	1,681.64	65.9176	1,681.64	58.6149	1,681.64	54.716	1,681.64	68.8373	1,681.64	63.837	1,681.64	66.9932	1,681.64	67.624	1,681.64	62.8164	1,681.64	71.87	1,681.64	71.5186	1,681.64	73.8935	1,681.64	75.452	1,681.64	75.0425	1,681.64	75.8859
1,741.7	84.5863	1,741.7	84.5632	1,741.7	83.2412	1,741.7	82.9799	1,741.7	80.679	1,741.7	79.7677	1,741.7	77.8915	1,741.7	75.1128	1,741.7	75.6135	1,741.7	69.1357	1,741.7	70.9244	1,741.7	66.8285	1,741.7	56.9418	1,741.7	69.8438	1,741.7	63.3447	1,741.7	69.7965	1,741.7	62.2172	1,741.7	66.9747	1,741.7	61.4692	1,741.7	68.7474	1,741.7	68.5217	1,741.7	68.4666	1,741.7	66.0225	1,741.7	44.039	1,741.7	59.9745	1,741.7	67.4504	1,741.7	56.9961	1,741.7	67.25	1,741.7	66.0665	1,741.7	61.3731	1,741.7	70.9377	1,741.7	64.6538	1,741.7	72.7651	1,741.7	73.1092	1,741.7	74.3969	1,741.7	75.4592
1,803.22	85.1932	1,803.22	85.0783	1,803.22	84.0095	1,803.22	83.3146	1,803.22	81.4544	1,803.22	79.4248	1,803.22	77.8047	1,803.22	73.6987	1,803.22	74.8359	1,803.22	68.3605	1,803.22	71.8806	1,803.22	68.1103	1,803.22	64.0912	1,803.22	70.4479	1,803.22	58.7666	1,803.22	71.1332	1,803.22	64.4047	1,803.22	69.4436	1,803.22	61.1698	1,803.22	70.8592	1,803.22	65.025	1,803.22	71.6993	1,803.22	64.5796	1,803.22	63.4494	1,803.22	59.4476	1,803.22	65.7439	1,803.22	49.1278	1,803.22	68.8521	1,803.22	63.7893	1,803.22	64.3565	1,803.22	68.161	1,803.22	52.9771	1,803.22	70.315	1,803.22	71.0893	1,803.22	73.2742	1,803.22	74.7629
1,866.21	85.3635	1,866.21	85.1633	1,866.21	84.3349	1,866.21	83.3534	1,866.21	82.3034	1,866.21	80.1561	1,866.21	78.8276	1,866.21	75.5688	1,866.21	74.876	1,866.21	71.6464	1,866.21	72.3888	1,866.21	72.2701	1,866.21	65.7091	1,866.21	72.1215	1,866.21	60.7611	1,866.21	72.1355	1,866.21	66.9278	1,866.21	71.411	1,866.21	63.4076	1,866.21	70.7531	1,866.21	63.2054	1,866.21	71.9922	1,866.21	65.8854	1,866.21	67.0491	1,866.21	62.122	1,866.21	62.0524	1,866.21	49.2438	1,866.21	68.3675	1,866.21	62.9	1,866.21	66.0002	1,866.21	64.8253	1,866.21	55.2794	1,866.21	67.7923	1,866.21	69.4155	1,866.21	71.9655	1,866.21	73.612
1,932.13	85.9809	1,932.13	85.5584	1,932.13	84.7875	1,932.13	83.6765	1,932.13	82.4921	1,932.13	80.4081	1,932.13	79.0529	1,932.13	74.94	1,932.13	74.6021	1,932.13	72.6281	1,932.13	72.8585	1,932.13	72.9841	1,932.13	69.6145	1,932.13	73.0279	1,932.13	61.0706	1,932.13	73.9159	1,932.13	66.9089	1,932.13	73.3521	1,932.13	65.6049	1,932.13	70.7093	1,932.13	65.4316	1,932.13	71.6479	1,932.13	67.8677	1,932.13	69.6442	1,932.13	64.394	1,932.13	62.5084	1,932.13	50.129	1,932.13	69.778	1,932.13	58.4665	1,932.13	66.0126	1,932.13	60.9126	1,932.13	64.0971	1,932.13	64.0235	1,932.13	69.3334	1,932.13	68.7254	1,932.13	72.8105
1,999.51	86.5935	1,999.51	86.1961	1,999.51	85.2823	1,999.51	83.8718	1,999.51	82.4068	1,999.51	79.4793	1,999.51	78.4723	1,999.51	74.3439	1,999.51	73.7084	1,999.51	72.7025	1,999.51	72.3278	1,999.51	73.261	1,999.51	70.6757	1,999.51	74.2444	1,999.51	67.3979	1,999.51	74.6112	1,999.51	69.7793	1,999.51	73.8135	1,999.51	69.1282	1,999.51	72.1525	1,999.51	68.5254	1,999.51	70.9081	1,999.51	68.7139	1,999.51	71.3712	1,999.51	66.4409	1,999.51	63.4682	1,999.51	60.9602	1,999.51	67.0104	1,999.51	63.3014	1,999.51	62.3443	1,999.51	58.2094	1,999.51	68.0244	1,999.51	55.3001	1,999.51	70.303	1,999.51	68.5403	1,999.51	73.1747
2,069.82	86.5638	2,069.82	86.5181	2,069.82	85.1106	2,069.82	84.1622	2,069.82	82.3687	2,069.82	78.8763	2,069.82	78.4182	2,069.82	72.0752	2,069.82	73.4633	2,069.82	70.0929	2,069.82	72.0647	2,069.82	73.8592	2,069.82	69.8374	2,069.82	75.3286	2,069.82	68.7993	2,069.82	74.3698	2,069.82	71.6409	2,069.82	72.6442	2,069.82	71.1729	2,069.82	72.2876	2,069.82	70.409	2,069.82	69.8655	2,069.82	70.77	2,069.82	68.5876	2,069.82	69.9171	2,069.82	68.1571	2,069.82	62.9313	2,069.82	65.7754	2,069.82	63.533	2,069.82	63.9916	2,069.82	57.3417	2,069.82	66.6175	2,069.82	51.0358	2,069.82	71.5314	2,069.82	66.689	2,069.82	73.1591
2,143.07	86.6912	2,143.07	86.3731	2,143.07	84.5716	2,143.07	83.5998	2,143.07	81.7473	2,143.07	78.9329	2,143.07	76.9265	2,143.07	70.9582	2,143.07	70.6626	2,143.07	71.4542	2,143.07	72.9693	2,143.07	75.0461	2,143.07	72.2355	2,143.07	73.9619	2,143.07	66.3739	2,143.07	71.2659	2,143.07	71.4854	2,143.07	70.2419	2,143.07	70.5716	2,143.07	71.2944	2,143.07	71.231	2,143.07	72.921	2,143.07	72.0913	2,143.07	68.7373	2,143.07	70.6029	2,143.07	68.7045	2,143.07	66.6328	2,143.07	63.109	2,143.07	64.1852	2,143.07	64.6074	2,143.07	54.0506	2,143.07	63.5178	2,143.07	61.8276	2,143.07	71.1775	2,143.07	67.8041	2,143.07	71.8468
2,219.24	87.2269	2,219.24	86.254	2,219.24	85.0175	2,219.24	83.9036	2,219.24	80.0654	2,219.24	78.2451	2,219.24	75.8331	2,219.24	69.5327	2,219.24	72.0213	2,219.24	73.202	2,219.24	73.6452	2,219.24	75.8886	2,219.24	74.2149	2,219.24	74.6769	2,219.24	67.2708	2,219.24	72.8901	2,219.24	72.0518	2,219.24	72.9642	2,219.24	70.9612	2,219.24	69.9304	2,219.24	69.4052	2,219.24	74.2564	2,219.24	72.2721	2,219.24	72.0134	2,219.24	72.2572	2,219.24	70.7036	2,219.24	67.8675	2,219.24	64.4013	2,219.24	64.0572	2,219.24	60.611	2,219.24	57.4623	2,219.24	57	2,219.24	62.0092	2,219.24	71.5662	2,219.24	67.8402	2,219.24	73.7585
2,296.88	86.7433	2,296.88	86.2748	2,296.88	84.8894	2,296.88	83.798	2,296.88	79.6853	2,296.88	76.7642	2,296.88	71.2734	2,296.88	66.8861	2,296.88	71.678	2,296.88	73.4517	2,296.88	74.5051	2,296.88	76.2158	2,296.88	76.2035	2,296.88	76.8074	2,296.88	72.5016	2,296.88	76.2303	2,296.88	69.9362	2,296.88	75.2572	2,296.88	71.594	2,296.88	71.2446	2,296.88	69.9365	2,296.88	72.0264	2,296.88	71.9739	2,296.88	73.8365	2,296.88	73.7548	2,296.88	70.1221	2,296.88	72.276	2,296.88	69.5473	2,296.88	68.939	2,296.88	47.2479	2,296.88	57.8762	2,296.88	51.9524	2,296.88	64.9515	2,296.88	67.6947	2,296.88	67.8855	2,296.88	72.0714
2,378.91	86.7874	2,378.91	86.2314	2,378.91	84.682	2,378.91	82.8605	2,378.91	78.1133	2,378.91	75.2574	2,378.91	66.0597	2,378.91	65.4432	2,378.91	72.2107	2,378.91	74.5569	2,378.91	76.2497	2,378.91	73.9993	2,378.91	77.6477	2,378.91	76.2458	2,378.91	75.6194	2,378.91	75.9811	2,378.91	72.85	2,378.91	73.3084	2,378.91	72.6486	2,378.91	73.3652	2,378.91	73.2061	2,378.91	67.8584	2,378.91	69.8255	2,378.91	73.0749	2,378.91	69.5073	2,378.91	69.0288	2,378.91	71.9591	2,378.91	70.6036	2,378.91	68.8945	2,378.91	57.0431	2,378.91	54.8031	2,378.91	56.5289	2,378.91	57.7801	2,378.91	63.9391	2,378.91	64.246	2,378.91	68.6682
2,462.4	87.2809	2,462.4	86.822	2,462.4	85.0325	2,462.4	82.7554	2,462.4	78.3283	2,462.4	74.6918	2,462.4	42.1992	2,462.4	67.7768	2,462.4	73.302	2,462.4	75.544	2,462.4	76.8911	2,462.4	78.8875	2,462.4	76.6786	2,462.4	78.8787	2,462.4	73.8884	2,462.4	75.676	2,462.4	73.4777	2,462.4	71.734	2,462.4	73.1465	2,462.4	73.2269	2,462.4	73.2158	2,462.4	69.5902	2,462.4	73.431	2,462.4	73.229	2,462.4	72.2523	2,462.4	69.7961	2,462.4	71.7461	2,462.4	70.8038	2,462.4	69.5979	2,462.4	59.1498	2,462.4	59.1623	2,462.4	61.5339	2,462.4	64.1725	2,462.4	69.227	2,462.4	65.5839	2,462.4	72.9603
2,548.83	86.4672	2,548.83	86.0482	2,548.83	84.2255	2,548.83	82.5616	2,548.83	78.4924	2,548.83	74.791	2,548.83	60.0287	2,548.83	68.3787	2,548.83	75.6982	2,548.83	78.7588	2,548.83	78.1494	2,548.83	80.0927	2,548.83	78.062	2,548.83	78.1736	2,548.83	75.9217	2,548.83	77.9425	2,548.83	73.9662	2,548.83	75.8236	2,548.83	74.3123	2,548.83	71.7757	2,548.83	69.2434	2,548.83	71.2413	2,548.83	70.182	2,548.83	71.6555	2,548.83	73.5805	2,548.83	71.7296	2,548.83	72.2321	2,548.83	69.6735	2,548.83	71.19	2,548.83	64.9927	2,548.83	60.7289	2,548.83	63.0262	2,548.83	64.7666	2,548.83	65.8776	2,548.83	63.104	2,548.83	71.9118
2,639.65	87.0525	2,639.65	86.3089	2,639.65	83.6903	2,639.65	82.8146	2,639.65	75.9976	2,639.65	72.5332	2,639.65	64.1223	2,639.65	74.1109	2,639.65	77.2941	2,639.65	79.3245	2,639.65	79.9133	2,639.65	79.2759	2,639.65	79.2546	2,639.65	78.1348	2,639.65	77.4657	2,639.65	74.8808	2,639.65	76.6709	2,639.65	70.7166	2,639.65	75.9828	2,639.65	71.9609	2,639.65	72.8809	2,639.65	71.9169	2,639.65	68.2682	2,639.65	71.4944	2,639.65	72.9525	2,639.65	72.9018	2,639.65	73.32	2,639.65	70.5838	2,639.65	72.0923	2,639.65	65.462	2,639.65	64.3465	2,639.65	59.1917	2,639.65	65.7969	2,639.65	69.1251	2,639.65	63.6495	2,639.65	71.47
2,731.93	87.049	2,731.93	86.9559	2,731.93	84.0763	2,731.93	83.9381	2,731.93	74.8911	2,731.93	70.6272	2,731.93	70.7438	2,731.93	74.592	2,731.93	78.888	2,731.93	79.6956	2,731.93	81.2051	2,731.93	79.4125	2,731.93	80.8312	2,731.93	78.1847	2,731.93	78.0282	2,731.93	77.6569	2,731.93	75.2612	2,731.93	76.4319	2,731.93	72.573	2,731.93	73.3764	2,731.93	68.49	2,731.93	73.8079	2,731.93	72.1435	2,731.93	72.9103	2,731.93	73.6037	2,731.93	73.7925	2,731.93	72.5265	2,731.93	71.5558	2,731.93	70.1911	2,731.93	68.2956	2,731.93	66.948	2,731.93	61.4905	2,731.93	67.8759	2,731.93	70.2296	2,731.93	68.9799	2,731.93	74.5449
2,828.61	86.0878	2,828.61	86.9879	2,828.61	82.9521	2,828.61	83.6337	2,828.61	72.8073	2,828.61	74.9911	2,828.61	76.5856	2,828.61	73.9834	2,828.61	81.1317	2,828.61	79.5699	2,828.61	81.6596	2,828.61	80.9653	2,828.61	81.2304	2,828.61	80.3235	2,828.61	80.0752	2,828.61	77.8716	2,828.61	77.2957	2,828.61	75.6115	2,828.61	73.8098	2,828.61	74.6115	2,828.61	74.0333	2,828.61	72.2761	2,828.61	76.7093	2,828.61	71.1742	2,828.61	75.8709	2,828.61	73.2669	2,828.61	75.0114	2,828.61	71.4125	2,828.61	68.4892	2,828.61	66.1182	2,828.61	63.9476	2,828.61	61.3502	2,828.61	66.9657	2,828.61	68.9275	2,828.61	67.3212	2,828.61	72.0109
2,928.22	85.5531	2,928.22	87.3233	2,928.22	80.3944	2,928.22	84.7457	2,928.22	70.6957	2,928.22	76.9154	2,928.22	80.2968	2,928.22	69.8232	2,928.22	83.2189	2,928.22	79.5434	2,928.22	83.0053	2,928.22	81.0656	2,928.22	81.8304	2,928.22	80.6432	2,928.22	80.1114	2,928.22	79.749	2,928.22	75.7269	2,928.22	75.3856	2,928.22	68.6196	2,928.22	69.7919	2,928.22	76.6115	2,928.22	72.3494	2,928.22	79.9392	2,928.22	70.5558	2,928.22	74.9209	2,928.22	73.557	2,928.22	75.8639	2,928.22	72.3324	2,928.22	70.148	2,928.22	68.0427	2,928.22	69.3274	2,928.22	62.7649	2,928.22	66.5088	2,928.22	71.922	2,928.22	71.2898	2,928.22	75.0762
3,030.76	82.9081	3,030.76	85.5403	3,030.76	76.5849	3,030.76	84.3275	3,030.76	77.8006	3,030.76	78.8747	3,030.76	82.2425	3,030.76	65.0588	3,030.76	83.2185	3,030.76	77.8995	3,030.76	82.4125	3,030.76	80.6191	3,030.76	80.2657	3,030.76	80.3328	3,030.76	77.5313	3,030.76	76.0021	3,030.76	68.8036	3,030.76	72.9226	3,030.76	67.9658	3,030.76	72.1898	3,030.76	74.6665	3,030.76	73.5711	3,030.76	78.431	3,030.76	72.8405	3,030.76	72.3454	3,030.76	71.17	3,030.76	73.4606	3,030.76	71.2568	3,030.76	71.2862	3,030.76	60.9547	3,030.76	69.5577	3,030.76	61.9043	3,030.76	68.0918	3,030.76	69.4912	3,030.76	69.7701	3,030.76	72.4643
3,137.7	80.9593	3,137.7	83.4415	3,137.7	79.1493	3,137.7	82.5606	3,137.7	79.9738	3,137.7	77.5602	3,137.7	81.8056	3,137.7	73.3456	3,137.7	81.8535	3,137.7	78.81	3,137.7	80.7243	3,137.7	81.2708	3,137.7	78.4154	3,137.7	79.2602	3,137.7	75.0975	3,137.7	76.6599	3,137.7	68.5653	3,137.7	75.4609	3,137.7	71.7308	3,137.7	71.8941	3,137.7	75.0472	3,137.7	71.2297	3,137.7	73.4801	3,137.7	71.2507	3,137.7	71.8624	3,137.7	71.2903	3,137.7	71.5797	3,137.7	70.5379	3,137.7	70.563	3,137.7	63.5351	3,137.7	66.1891	3,137.7	51.914	3,137.7	67.4855	3,137.7	70.5928	3,137.7	68.9866	3,137.7	71.217
3,249.02	81.2926	3,249.02	82.5952	3,249.02	81.1147	3,249.02	81.0162	3,249.02	80.4431	3,249.02	77.1628	3,249.02	81.7526	3,249.02	75.6557	3,249.02	82.0255	3,249.02	81.2818	3,249.02	80.2045	3,249.02	81.8137	3,249.02	78.652	3,249.02	80.1332	3,249.02	75.0594	3,249.02	79.0954	3,249.02	71.2991	3,249.02	75.6551	3,249.02	73.3075	3,249.02	71.1944	3,249.02	76.3594	3,249.02	70.6702	3,249.02	75.0953	3,249.02	70.1955	3,249.02	73.4453	3,249.02	72.1615	3,249.02	72.3559	3,249.02	71.4626	3,249.02	69.6008	3,249.02	64.7955	3,249.02	67.2708	3,249.02	56.2052	3,249.02	68.3199	3,249.02	67.2768	3,249.02	68.9366	3,249.02	70.4652
3,363.28	81.6183	3,363.28	81.3059	3,363.28	81.8182	3,363.28	80.3958	3,363.28	80.5439	3,363.28	78.5077	3,363.28	81.2925	3,363.28	77.1147	3,363.28	82.071	3,363.28	81.5162	3,363.28	81.1752	3,363.28	81.987	3,363.28	80.02	3,363.28	81.6233	3,363.28	78.0617	3,363.28	78.8541	3,363.28	76.035	3,363.28	73.1515	3,363.28	75.0645	3,363.28	72.3682	3,363.28	76.5679	3,363.28	70.1031	3,363.28	75.6037	3,363.28	70.4675	3,363.28	73.1576	3,363.28	69.6896	3,363.28	70.8601	3,363.28	72.0052	3,363.28	69.5863	3,363.28	65.6586	3,363.28	67.4221	3,363.28	54.7309	3,363.28	68.0007	3,363.28	67.2652	3,363.28	68.6044	3,363.28	68.6221
3,481.93	81.8779	3,481.93	79.7486	3,481.93	81.677	3,481.93	80.8037	3,481.93	80.5384	3,481.93	78.6145	3,481.93	81.7623	3,481.93	78.8593	3,481.93	81.8106	3,481.93	82.5146	3,481.93	81.6958	3,481.93	82.0785	3,481.93	80.6083	3,481.93	81.7841	3,481.93	78.0841	3,481.93	76.6667	3,481.93	78.1466	3,481.93	71.6537	3,481.93	76.1243	3,481.93	71.1638	3,481.93	76.9071	3,481.93	70.5808	3,481.93	75.504	3,481.93	72.5637	3,481.93	73.043	3,481.93	69.582	3,481.93	70.6009	3,481.93	72.0481	3,481.93	71.2657	3,481.93	62.6786	3,481.93	68.2871	3,481.93	58.1936	3,481.93	66.3135	3,481.93	66.224	3,481.93	69.4748	3,481.93	68.8772
3,604.98	82.0922	3,604.98	80.2298	3,604.98	81.4472	3,604.98	81.0922	3,604.98	79.9466	3,604.98	79.8901	3,604.98	81.712	3,604.98	79.3136	3,604.98	81.9971	3,604.98	81.3339	3,604.98	81.8871	3,604.98	83.2131	3,604.98	81.5258	3,604.98	79.4925	3,604.98	78.9974	3,604.98	76.1889	3,604.98	77.5658	3,604.98	74.1134	3,604.98	73.6009	3,604.98	70.0049	3,604.98	73.045	3,604.98	67.0467	3,604.98	74.1824	3,604.98	72.4339	3,604.98	72.8534	3,604.98	69.3158	3,604.98	69.1859	3,604.98	71.884	3,604.98	70.8481	3,604.98	61.1758	3,604.98	68.1297	3,604.98	57.3898	3,604.98	67.3228	3,604.98	66.4088	3,604.98	69.8166	3,604.98	67.9632
3,732.42	82.0373	3,732.42	80.5455	3,732.42	81.7186	3,732.42	80.8703	3,732.42	79.784	3,732.42	80.9838	3,732.42	80.8373	3,732.42	79.3091	3,732.42	81.8536	3,732.42	81.8349	3,732.42	82.1062	3,732.42	82.6583	3,732.42	81.3035	3,732.42	78.9259	3,732.42	79.307	3,732.42	78.0152	3,732.42	75.4687	3,732.42	71.5482	3,732.42	67.707	3,732.42	68.6478	3,732.42	64.5893	3,732.42	69.5527	3,732.42	69.4972	3,732.42	69.7746	3,732.42	66.407	3,732.42	69.3709	3,732.42	66.5377	3,732.42	71.0784	3,732.42	67.2611	3,732.42	61.4343	3,732.42	65.9906	3,732.42	53.2801	3,732.42	65.1123	3,732.42	65.6213	3,732.42	68.55	3,732.42	68.4139
3,864.26	82.6961	3,864.26	81.037	3,864.26	82.0875	3,864.26	80.7246	3,864.26	80.2212	3,864.26	81.8957	3,864.26	80.9355	3,864.26	79.6119	3,864.26	82.0225	3,864.26	81.3549	3,864.26	81.6056	3,864.26	81.1148	3,864.26	80.7122	3,864.26	81.128	3,864.26	78.7528	3,864.26	77.7224	3,864.26	74.6785	3,864.26	73.2944	3,864.26	69.0107	3,864.26	70.619	3,864.26	57.6136	3,864.26	70.5584	3,864.26	62.5138	3,864.26	70.7025	3,864.26	64.9299	3,864.26	70.4361	3,864.26	64.7354	3,864.26	70.7327	3,864.26	62.1173	3,864.26	59.1039	3,864.26	64.6539	3,864.26	59.8123	3,864.26	64.4837	3,864.26	64.1503	3,864.26	68.1776	3,864.26	67.5884
4,000.49	82.5024	4,000.49	81.6846	4,000.49	81.5201	4,000.49	81.2155	4,000.49	81.0123	4,000.49	81.9306	4,000.49	81.298	4,000.49	77.9042	4,000.49	82.4973	4,000.49	80.4631	4,000.49	80.8065	4,000.49	80.8992	4,000.49	78.7132	4,000.49	81.0499	4,000.49	76.1762	4,000.49	75.4495	4,000.49	74.0601	4,000.49	70.4658	4,000.49	72.7102	4,000.49	69.6272	4,000.49	66.7236	4,000.49	68.6882	4,000.49	71.7741	4,000.49	70.2187	4,000.49	71.3973	4,000.49	71.3314	4,000.49	59.9799	4,000.49	70.1958	4,000.49	66.8918	4,000.49	57.0525	4,000.49	65.9879	4,000.49	63.718	4,000.49	65.2097	4,000.49	63.9103	4,000.49	69.1214	4,000.49	66.6123
4,141.11	83.6644	4,141.11	82.6418	4,141.11	81.0567	4,141.11	80.518	4,141.11	80.6171	4,141.11	81.4209	4,141.11	82.1839	4,141.11	79.468	4,141.11	82.6252	4,141.11	80.0277	4,141.11	80.1623	4,141.11	82.2881	4,141.11	78.0515	4,141.11	80.224	4,141.11	75.1712	4,141.11	74.2749	4,141.11	74.1614	4,141.11	73.6881	4,141.11	67.7791	4,141.11	67.5554	4,141.11	67.4883	4,141.11	68.3406	4,141.11	75.4051	4,141.11	69.5873	4,141.11	72.3901	4,141.11	71.2458	4,141.11	56.4084	4,141.11	69.8078	4,141.11	68.8671	4,141.11	43.899	4,141.11	68.2633	4,141.11	61.5014	4,141.11	64.3376	4,141.11	67.7698	4,141.11	69.4198	4,141.11	67.4577
4,287.6	84.1363	4,287.6	83.5683	4,287.6	80.7672	4,287.6	80.5066	4,287.6	80.5875	4,287.6	82.1513	4,287.6	82.928	4,287.6	79.3246	4,287.6	81.9399	4,287.6	77.0871	4,287.6	79.6015	4,287.6	81.8849	4,287.6	77.8108	4,287.6	77.8139	4,287.6	77.8646	4,287.6	79.8759	4,287.6	72.4967	4,287.6	75.3716	4,287.6	59.0787	4,287.6	70.5614	4,287.6	72.2137	4,287.6	70.1455	4,287.6	75.7809	4,287.6	70.3131	4,287.6	69.1022	4,287.6	72.1177	4,287.6	67.2238	4,287.6	71.4585	4,287.6	68.3869	4,287.6	52.743	4,287.6	68.0946	4,287.6	58.5883	4,287.6	67.2624	4,287.6	67.0184	4,287.6	68.9364	4,287.6	65.2073
4,438.48	84.9559	4,438.48	84.2516	4,438.48	79.6014	4,438.48	79.5418	4,438.48	79.6806	4,438.48	82.8025	4,438.48	83.3525	4,438.48	79.6525	4,438.48	82.4857	4,438.48	77.783	4,438.48	81.7068	4,438.48	79.9195	4,438.48	78.7662	4,438.48	82.2158	4,438.48	78.7439	4,438.48	78.1144	4,438.48	65.8118	4,438.48	67.8049	4,438.48	73.0176	4,438.48	70.5436	4,438.48	73.3114	4,438.48	69.999	4,438.48	72.4322	4,438.48	69.579	4,438.48	64.4297	4,438.48	72.5918	4,438.48	70.3223	4,438.48	69.4494	4,438.48	65.9328	4,438.48	52.1092	4,438.48	63.8915	4,438.48	65.7132	4,438.48	68.1482	4,438.48	62.3333	4,438.48	69.0975	4,438.48	68.6056
4,595.21	85.3766	4,595.21	83.8188	4,595.21	80.1181	4,595.21	79.3175	4,595.21	80.0211	4,595.21	82.501	4,595.21	82.184	4,595.21	80.5999	4,595.21	82.5296	4,595.21	75.4833	4,595.21	81.9063	4,595.21	80.0986	4,595.21	80.355	4,595.21	81.6432	4,595.21	75.8914	4,595.21	72.4628	4,595.21	67.9198	4,595.21	75.0807	4,595.21	74.3584	4,595.21	71.3223	4,595.21	71.4701	4,595.21	64.1993	4,595.21	66.4758	4,595.21	69.7657	4,595.21	70.1343	4,595.21	72.3088	4,595.21	68.0771	4,595.21	66.3675	4,595.21	56.9087	4,595.21	54.9672	4,595.21	60.6211	4,595.21	65.1096	4,595.21	66.4449	4,595.21	62.6272	4,595.21	69.6085	4,595.21	69.2646
4,756.35	85.2908	4,756.35	84.0509	4,756.35	81.1802	4,756.35	80.4318	4,756.35	81.5362	4,756.35	82.6219	4,756.35	82.3596	4,756.35	80.6848	4,756.35	81.0386	4,756.35	72.9815	4,756.35	80.2183	4,756.35	80.9118	4,756.35	80.7893	4,756.35	77.438	4,756.35	72.5146	4,756.35	78.6613	4,756.35	75.1486	4,756.35	74.5101	4,756.35	73.4968	4,756.35	66.282	4,756.35	60.0971	4,756.35	68.8294	4,756.35	57.2693	4,756.35	71.1008	4,756.35	68.4452	4,756.35	70.7772	4,756.35	64.1868	4,756.35	61.9731	4,756.35	55.6009	4,756.35	51.0921	4,756.35	62.9374	4,756.35	67.104	4,756.35	66.0228	4,756.35	62.5183	4,756.35	68.7763	4,756.35	66.2534
4,924.8	84.0572	4,924.8	84.55	4,924.8	82.5777	4,924.8	80.7922	4,924.8	82.5626	4,924.8	83.2134	4,924.8	82.0113	4,924.8	81.1672	4,924.8	80.3079	4,924.8	73.7008	4,924.8	80.1637	4,924.8	79.1137	4,924.8	78.5645	4,924.8	80.7714	4,924.8	71.1676	4,924.8	77.7491	4,924.8	77.2151	4,924.8	71.2959	4,924.8	69.7694	4,924.8	71.4872	4,924.8	67.4048	4,924.8	67.661	4,924.8	63.6006	4,924.8	68.3834	4,924.8	63.1252	4,924.8	70.5672	4,924.8	66.1078	4,924.8	62.9185	4,924.8	57.004	4,924.8	45.4334	4,924.8	63.2379	4,924.8	66.3843	4,924.8	64.6742	4,924.8	60.865	4,924.8	69.1528	4,924.8	62.0593
5,097.66	83.5658	5,097.66	85.349	5,097.66	82.8037	5,097.66	81.3292	5,097.66	83.4286	5,097.66	82.6535	5,097.66	80.7646	5,097.66	81.7785	5,097.66	80.1618	5,097.66	69.9284	5,097.66	79.2467	5,097.66	76.7977	5,097.66	76.4903	5,097.66	79.5592	5,097.66	76.7907	5,097.66	71.5068	5,097.66	77.0356	5,097.66	73.4479	5,097.66	70.2134	5,097.66	67.49	5,097.66	69.818	5,097.66	64.8504	5,097.66	66.0681	5,097.66	68.0158	5,097.66	59.6581	5,097.66	71.1445	5,097.66	69.5453	5,097.66	62.2795	5,097.66	63.115	5,097.66	55.5648	5,097.66	52.8582	5,097.66	63.8207	5,097.66	60.5848	5,097.66	60.3843	5,097.66	68.3378	5,097.66	63.2233
5,277.83	83.5796	5,277.83	85.5309	5,277.83	82.4529	5,277.83	82.1673	5,277.83	83.9452	5,277.83	82.7564	5,277.83	81.0937	5,277.83	81.1456	5,277.83	80.9126	5,277.83	70.8624	5,277.83	78.3267	5,277.83	76.7463	5,277.83	75.9221	5,277.83	77.0712	5,277.83	79.0753	5,277.83	77.6793	5,277.83	76.2614	5,277.83	73.6787	5,277.83	72.1173	5,277.83	66.4172	5,277.83	69.991	5,277.83	64.6484	5,277.83	64.7545	5,277.83	68.1035	5,277.83	61.6312	5,277.83	70.3644	5,277.83	65.3578	5,277.83	59.6145	5,277.83	65.8987	5,277.83	51.494	5,277.83	59.3526	5,277.83	61.9859	5,277.83	64.7446	5,277.83	62.68	5,277.83	66.4557	5,277.83	64.3409
5,463.87	83.112	5,463.87	85.1485	5,463.87	83.3903	5,463.87	82.7947	5,463.87	83.345	5,463.87	82.687	5,463.87	82.8696	5,463.87	81.5551	5,463.87	81.1739	5,463.87	70.5903	5,463.87	78.4727	5,463.87	76.1991	5,463.87	76.3988	5,463.87	79.2089	5,463.87	78.4846	5,463.87	76.9265	5,463.87	75.508	5,463.87	71.6814	5,463.87	73.1637	5,463.87	69.5623	5,463.87	71.1487	5,463.87	67.6233	5,463.87	63.4214	5,463.87	64.7725	5,463.87	48.9363	5,463.87	70.6736	5,463.87	55.4417	5,463.87	61.2669	5,463.87	57.0069	5,463.87	50.1521	5,463.87	61.1485	5,463.87	63.9005	5,463.87	65.3687	5,463.87	62.0454	5,463.87	66.8625	5,463.87	62.9618
5,657.23	82.8684	5,657.23	85.3161	5,657.23	82.8799	5,657.23	83.3895	5,657.23	83.5817	5,657.23	82.4084	5,657.23	83.6004	5,657.23	81.5814	5,657.23	80.7533	5,657.23	75.5383	5,657.23	79.1284	5,657.23	75.5871	5,657.23	76.2286	5,657.23	78.6254	5,657.23	76.7178	5,657.23	74.3412	5,657.23	72.1119	5,657.23	73.7782	5,657.23	71.4678	5,657.23	66.721	5,657.23	70.9879	5,657.23	63.77	5,657.23	60.9603	5,657.23	65.9204	5,657.23	40.4557	5,657.23	70.4378	5,657.23	60.4571	5,657.23	59.0167	5,657.23	60.1813	5,657.23	54.7746	5,657.23	60.2382	5,657.23	63.5689	5,657.23	63.4535	5,657.23	59.5416	5,657.23	65.1442	5,657.23	63.7954
5,856.45	83.7124	5,856.45	85.2504	5,856.45	82.1451	5,856.45	83.531	5,856.45	83.9397	5,856.45	80.8081	5,856.45	82.8639	5,856.45	82.332	5,856.45	79.9015	5,856.45	76.3023	5,856.45	79.7299	5,856.45	74.6717	5,856.45	78.0533	5,856.45	78.6421	5,856.45	76.2179	5,856.45	77.1545	5,856.45	69.2503	5,856.45	74.8863	5,856.45	68.7441	5,856.45	67.9422	5,856.45	63.3171	5,856.45	66.0888	5,856.45	59.6751	5,856.45	66.1874	5,856.45	43.7164	5,856.45	69.9193	5,856.45	54.2931	5,856.45	53.8628	5,856.45	61.2589	5,856.45	50.7029	5,856.45	58.3665	5,856.45	62.832	5,856.45	64.3652	5,856.45	55.271	5,856.45	66.6676	5,856.45	62.3187
6,062.99	84.3609	6,062.99	84.7328	6,062.99	82.4325	6,062.99	82.8368	6,062.99	83.5192	6,062.99	81.6583	6,062.99	82.5422	6,062.99	82.4225	6,062.99	79.8805	6,062.99	77.9714	6,062.99	78.9092	6,062.99	74.6024	6,062.99	79.2691	6,062.99	78.5186	6,062.99	75.4389	6,062.99	74.0408	6,062.99	72.9063	6,062.99	71.1164	6,062.99	68.6121	6,062.99	68.043	6,062.99	66.9493	6,062.99	65.6259	6,062.99	63.3653	6,062.99	65.0118	6,062.99	58.9472	6,062.99	67.7676	6,062.99	54.7346	6,062.99	57.4398	6,062.99	52.7686	6,062.99	58.5289	6,062.99	49.4602	6,062.99	62.5692	6,062.99	64.3934	6,062.99	54.2378	6,062.99	66.3728	6,062.99	57.46
6,276.86	84.6086	6,276.86	83.9516	6,276.86	82.9393	6,276.86	82.6156	6,276.86	82.7119	6,276.86	81.8998	6,276.86	81.8631	6,276.86	82.6845	6,276.86	80.812	6,276.86	78.4936	6,276.86	79.1205	6,276.86	70.7851	6,276.86	77.9674	6,276.86	77.6437	6,276.86	71.5438	6,276.86	75.6079	6,276.86	73.9735	6,276.86	73.1433	6,276.86	69.2856	6,276.86	64.6957	6,276.86	64.5397	6,276.86	65.4052	6,276.86	63.2886	6,276.86	65.606	6,276.86	60.9789	6,276.86	66.8292	6,276.86	54.6311	6,276.86	58.7263	6,276.86	48.832	6,276.86	60.0598	6,276.86	47.4076	6,276.86	61.8962	6,276.86	61.8755	6,276.86	57.6868	6,276.86	63.3631	6,276.86	60.5601
6,498.05	84.0688	6,498.05	83.4911	6,498.05	83.3921	6,498.05	82.6431	6,498.05	82.5854	6,498.05	82.1183	6,498.05	82.1203	6,498.05	82.2182	6,498.05	80.8614	6,498.05	79.3125	6,498.05	79.6175	6,498.05	71.069	6,498.05	77.1567	6,498.05	76.6398	6,498.05	71.9595	6,498.05	75.2436	6,498.05	73.5746	6,498.05	70.2385	6,498.05	67.5233	6,498.05	66.2925	6,498.05	68.7396	6,498.05	67.3063	6,498.05	66.1521	6,498.05	63.8448	6,498.05	60.7752	6,498.05	63.7908	6,498.05	57.9334	6,498.05	58.1983	6,498.05	55.9977	6,498.05	61.1949	6,498.05	55.7923	6,498.05	63.3196	6,498.05	58.9366	6,498.05	57.5792	6,498.05	59.7856	6,498.05	62.9681
6,726.56	83.913	6,726.56	83.2653	6,726.56	83.5442	6,726.56	83.1346	6,726.56	82.2085	6,726.56	82.3607	6,726.56	81.9616	6,726.56	82.5089	6,726.56	81.609	6,726.56	79.954	6,726.56	79.1219	6,726.56	68.2707	6,726.56	76.8998	6,726.56	75.1723	6,726.56	75.5403	6,726.56	75.3522	6,726.56	73.0589	6,726.56	68.6825	6,726.56	68.1239	6,726.56	65.5592	6,726.56	68.4122	6,726.56	66.4125	6,726.56	63.8234	6,726.56	61.6298	6,726.56	59.8622	6,726.56	64.5488	6,726.56	60.2088	6,726.56	59.7126	6,726.56	60.3109	6,726.56	58.9986	6,726.56	54.9944	6,726.56	61.8772	6,726.56	55.3857	6,726.56	54.2932	6,726.56	59.8633	6,726.56	60.1289
6,963.87	83.9808	6,963.87	83.0369	6,963.87	83.5272	6,963.87	82.8513	6,963.87	81.9636	6,963.87	82.3483	6,963.87	81.6593	6,963.87	81.9649	6,963.87	81.645	6,963.87	80.6034	6,963.87	78.6468	6,963.87	69.6318	6,963.87	77.4999	6,963.87	74.9664	6,963.87	76.0064	6,963.87	76.0262	6,963.87	69.0825	6,963.87	66.8781	6,963.87	67.2182	6,963.87	67.9358	6,963.87	66.445	6,963.87	65.5049	6,963.87	62.3079	6,963.87	61.1097	6,963.87	57.758	6,963.87	64.3888	6,963.87	56.1861	6,963.87	59.8195	6,963.87	55.5905	6,963.87	56.9429	6,963.87	62.3544	6,963.87	62.5197	6,963.87	50.3482	6,963.87	53.1035	6,963.87	58.7428	6,963.87	58.3782
7,209.96	83.0415	7,209.96	83.1648	7,209.96	83.6488	7,209.96	83.1145	7,209.96	81.7937	7,209.96	81.8631	7,209.96	80.58	7,209.96	81.6637	7,209.96	81.124	7,209.96	80.9913	7,209.96	77.9829	7,209.96	71.3951	7,209.96	78.1981	7,209.96	74.4812	7,209.96	74.3904	7,209.96	75.2785	7,209.96	64.6379	7,209.96	63.8015	7,209.96	68.6892	7,209.96	67.1334	7,209.96	67.2954	7,209.96	64.3424	7,209.96	60.9478	7,209.96	60.9469	7,209.96	56.7173	7,209.96	64.0217	7,209.96	50.4952	7,209.96	59.3408	7,209.96	58.0599	7,209.96	55.6433	7,209.96	57.3494	7,209.96	61.53	7,209.96	58.0009	7,209.96	55.0492	7,209.96	60.7053	7,209.96	55.9947
7,464.84	82.8409	7,464.84	83.3214	7,464.84	83.5116	7,464.84	82.4835	7,464.84	82.7408	7,464.84	81.6269	7,464.84	80.2753	7,464.84	81.8705	7,464.84	80.1399	7,464.84	81.3448	7,464.84	79.217	7,464.84	71.8844	7,464.84	77.0156	7,464.84	74.4594	7,464.84	66.9518	7,464.84	75.3915	7,464.84	63.1404	7,464.84	65.0515	7,464.84	65.2804	7,464.84	67.0295	7,464.84	64.4518	7,464.84	64.0461	7,464.84	64.4839	7,464.84	61.1002	7,464.84	60.2879	7,464.84	62.3688	7,464.84	50.155	7,464.84	61.3301	7,464.84	57.4546	7,464.84	51.0732	7,464.84	54.6668	7,464.84	59.4409	7,464.84	53.5519	7,464.84	47.4404	7,464.84	58.0423	7,464.84	54.4065
7,727.05	82.9861	7,727.05	83.0639	7,727.05	82.3531	7,727.05	82.079	7,727.05	82.6327	7,727.05	81.466	7,727.05	79.9177	7,727.05	81.4047	7,727.05	78.5063	7,727.05	80.5841	7,727.05	79.504	7,727.05	73.3577	7,727.05	76.0732	7,727.05	74.1044	7,727.05	66.3088	7,727.05	74.7653	7,727.05	69.8349	7,727.05	63.4402	7,727.05	67.0526	7,727.05	67.2375	7,727.05	60.0182	7,727.05	64.6123	7,727.05	63.365	7,727.05	57.8878	7,727.05	63.5278	7,727.05	58.2271	7,727.05	57.4998	7,727.05	61.029	7,727.05	56.0236	7,727.05	54.3639	7,727.05	50.5345	7,727.05	60.6898	7,727.05	51.2154	7,727.05	52.7433	7,727.05	57.0848	7,727.05	56.0006
7,999.51	83.1252	7,999.51	82.4321	7,999.51	82.2413	7,999.51	81.8806	7,999.51	81.2851	7,999.51	81.2851	7,999.51	79.5009	7,999.51	81.2704	7,999.51	78.5119	7,999.51	80.1195	7,999.51	79.2088	7,999.51	74.34	7,999.51	74.1635	7,999.51	73.6758	7,999.51	72.8389	7,999.51	74.4313	7,999.51	73.3544	7,999.51	66.3735	7,999.51	68.1922	7,999.51	67.3337	7,999.51	57.5857	7,999.51	62.3243	7,999.51	62.5951	7,999.51	56.6136	7,999.51	63.1953	7,999.51	59.9803	7,999.51	61.5471	7,999.51	61.5273	7,999.51	59.5093	7,999.51	52.666	7,999.51	57.5892	7,999.51	57.2207	7,999.51	40.6036	7,999.51	54.1529	7,999.51	60.4299	7,999.51	54.724
8,282.23	83.171	8,282.23	82.7963	8,282.23	83.0369	8,282.23	81.4484	8,282.23	81.7537	8,282.23	81.1731	8,282.23	79.8376	8,282.23	80.1629	8,282.23	78.7409	8,282.23	79.1916	8,282.23	78.668	8,282.23	75.1625	8,282.23	72.2665	8,282.23	73.1149	8,282.23	75.81	8,282.23	73.3711	8,282.23	71.2642	8,282.23	66.4621	8,282.23	65.7289	8,282.23	67.0569	8,282.23	59.8187	8,282.23	61.6929	8,282.23	61.0363	8,282.23	55.5671	8,282.23	57.868	8,282.23	58.7412	8,282.23	60.1871	8,282.23	60.5905	8,282.23	58.4985	8,282.23	52.0601	8,282.23	55.9379	8,282.23	56.021	8,282.23	54.0734	8,282.23	54.636	8,282.23	55.0839	8,282.23	51.2703
8,573.73	83.2156	8,573.73	82.376	8,573.73	83.008	8,573.73	81.5382	8,573.73	81.9035	8,573.73	80.5728	8,573.73	80.4409	8,573.73	79.2381	8,573.73	77.6417	8,573.73	78.1227	8,573.73	77.5336	8,573.73	75.8798	8,573.73	74.3762	8,573.73	72.5781	8,573.73	75.4494	8,573.73	73.3208	8,573.73	70.3507	8,573.73	66.9659	8,573.73	68.6684	8,573.73	67.4726	8,573.73	61.5648	8,573.73	60.295	8,573.73	62.5798	8,573.73	53.0051	8,573.73	50.2854	8,573.73	57.2527	8,573.73	51.6486	8,573.73	60.5385	8,573.73	57.6548	8,573.73	50.6399	8,573.73	48.6075	8,573.73	54.0588	8,573.73	51.0165	8,573.73	56.6228	8,573.73	54.5513	8,573.73	47.7707
8,876.95	83.5904	8,876.95	82.6106	8,876.95	82.8448	8,876.95	81.8445	8,876.95	81.3461	8,876.95	80.2232	8,876.95	79.9572	8,876.95	77.8564	8,876.95	78.0398	8,876.95	76.7931	8,876.95	76.5537	8,876.95	76.1835	8,876.95	76.4806	8,876.95	71.3899	8,876.95	74.5416	8,876.95	71.6126	8,876.95	64.8622	8,876.95	67.5291	8,876.95	65.906	8,876.95	66.8142	8,876.95	59.3602	8,876.95	60.4475	8,876.95	62.4643	8,876.95	48.9546	8,876.95	46.4994	8,876.95	57.536	8,876.95	43.5425	8,876.95	60.6429	8,876.95	56.3683	8,876.95	49.7475	8,876.95	58.1499	8,876.95	52.1878	8,876.95	48.6239	8,876.95	55.0416	8,876.95	54.9512	8,876.95	54.8063
9,188.96	83.7961	9,188.96	82.9323	9,188.96	83.4511	9,188.96	82.1751	9,188.96	81.2043	9,188.96	80.3759	9,188.96	79.8143	9,188.96	77.2625	9,188.96	79.0959	9,188.96	76.4299	9,188.96	75.8609	9,188.96	75.899	9,188.96	76.4314	9,188.96	70.6069	9,188.96	73.1883	9,188.96	70.4477	9,188.96	65.2046	9,188.96	65.2523	9,188.96	55.9454	9,188.96	64.6444	9,188.96	57.6953	9,188.96	57.9263	9,188.96	56.491	9,188.96	51.9827	9,188.96	50.83	9,188.96	56.6717	9,188.96	43.7721	9,188.96	57.9287	9,188.96	52.9013	9,188.96	49.4752	9,188.96	57.9433	9,188.96	59.5405	9,188.96	47.2224	9,188.96	50.9657	9,188.96	55.9773	9,188.96	51.6102
9,514.16	83.5757	9,514.16	82.8221	9,514.16	83.6172	9,514.16	82.2199	9,514.16	81.5309	9,514.16	80.2182	9,514.16	80.5682	9,514.16	77.6964	9,514.16	78.9012	9,514.16	76.1025	9,514.16	76.3505	9,514.16	75.4534	9,514.16	76.6575	9,514.16	68.4445	9,514.16	69.7923	9,514.16	67.6896	9,514.16	69.0952	9,514.16	66.3531	9,514.16	64.9278	9,514.16	63.8393	9,514.16	59.5872	9,514.16	53.6935	9,514.16	55.3183	9,514.16	51.5487	9,514.16	56.3369	9,514.16	55.9299	9,514.16	45.2003	9,514.16	55.2608	9,514.16	57.9427	9,514.16	43.43	9,514.16	52.4482	9,514.16	58.9133	9,514.16	48.5219	9,514.16	54.9595	9,514.16	50.3851	9,514.16	49.2362
9,849.61	83.4254	9,849.61	83.1942	9,849.61	83.3931	9,849.61	81.9146	9,849.61	82.0772	9,849.61	80.3387	9,849.61	79.8932	9,849.61	78.108	9,849.61	77.5324	9,849.61	75.2167	9,849.61	78.0597	9,849.61	74.2822	9,849.61	74.9289	9,849.61	66.7579	9,849.61	67.8277	9,849.61	64.5234	9,849.61	70.0495	9,849.61	66.3686	9,849.61	66.2891	9,849.61	61.3532	9,849.61	62.8805	9,849.61	54.2259	9,849.61	59.0375	9,849.61	46.6655	9,849.61	56.7018	9,849.61	56.429	9,849.61	49.7906	9,849.61	48.4794	9,849.61	58.7492	9,849.61	49.6617	9,849.61	51.9754	9,849.61	59.887	9,849.61	45.8913	9,849.61	50.1723	9,849.61	51.2645	9,849.61	47.0818
10,196.8	83.0069	10,196.8	83.1766	10,196.8	83.2677	10,196.8	81.2578	10,196.8	82.5478	10,196.8	80.7523	10,196.8	79.8748	10,196.8	78.4143	10,196.8	78.6918	10,196.8	74.6909	10,196.8	77.4595	10,196.8	74.1655	10,196.8	74.3808	10,196.8	65.7514	10,196.8	69.9057	10,196.8	63.7087	10,196.8	66.9959	10,196.8	66.6763	10,196.8	62.8003	10,196.8	61.8983	10,196.8	60.8429	10,196.8	48.9213	10,196.8	61.1328	10,196.8	52.0715	10,196.8	57.7014	10,196.8	57.4777	10,196.8	53.2247	10,196.8	44.37	10,196.8	53.0384	10,196.8	47.8539	10,196.8	51.9215	10,196.8	60.4127	10,196.8	50.8713	10,196.8	47.331	10,196.8	52.5927	10,196.8	47.0258
10,555.7	83.1319	10,555.7	83.4766	10,555.7	83.0293	10,555.7	81.3831	10,555.7	82.9006	10,555.7	80.8173	10,555.7	81.185	10,555.7	78.9322	10,555.7	77.8001	10,555.7	75.4574	10,555.7	77.1902	10,555.7	73.6332	10,555.7	75.9422	10,555.7	62.1424	10,555.7	71.5207	10,555.7	57.4301	10,555.7	68.3693	10,555.7	66.5538	10,555.7	60.3733	10,555.7	60.7902	10,555.7	53.2489	10,555.7	39.7748	10,555.7	59.6145	10,555.7	54.4656	10,555.7	58.7495	10,555.7	56.9691	10,555.7	55.783	10,555.7	44.0078	10,555.7	56.8859	10,555.7	53.6155	10,555.7	50.5844	10,555.7	59.0094	10,555.7	46.4088	10,555.7	50.2438	10,555.7	46.8251	10,555.7	49.6443
10,927.7	83.4553	10,927.7	83.7294	10,927.7	82.8479	10,927.7	81.8371	10,927.7	82.6532	10,927.7	80.7306	10,927.7	80.6571	10,927.7	78.6738	10,927.7	77.809	10,927.7	75.6038	10,927.7	78.177	10,927.7	72.7403	10,927.7	74.0309	10,927.7	57.9893	10,927.7	69.4332	10,927.7	51.009	10,927.7	64.2574	10,927.7	63.8458	10,927.7	58.196	10,927.7	57.682	10,927.7	53.4151	10,927.7	45.4982	10,927.7	57.6234	10,927.7	50.9521	10,927.7	59.9588	10,927.7	53.625	10,927.7	53.8913	10,927.7	45.3863	10,927.7	52.1179	10,927.7	49.4515	10,927.7	46.2006	10,927.7	54.0883	10,927.7	45.2228	10,927.7	45.7315	10,927.7	35.2431	10,927.7	48.8816
11,313	83.7397	11,313	83.753	11,313	83.424	11,313	82.2623	11,313	82.9585	11,313	80.8344	11,313	80.9214	11,313	78.3232	11,313	78.3167	11,313	75.0077	11,313	77.7316	11,313	71.052	11,313	72.4879	11,313	54.4903	11,313	68.6295	11,313	52.66	11,313	62.5685	11,313	61.2414	11,313	62.6463	11,313	53.3664	11,313	54.8143	11,313	37.0877	11,313	57.1627	11,313	52.2539	11,313	57.4404	11,313	52.7592	11,313	46.0798	11,313	49.7487	11,313	51.6006	11,313	47.4832	11,313	46.6692	11,313	51.4303	11,313	38.9647	11,313	47.9475	11,313	49.0974	11,313	50.9086
11,712.9	84.2168	11,712.9	84.2694	11,712.9	84.0953	11,712.9	82.53	11,712.9	83.4204	11,712.9	81.07	11,712.9	81.4671	11,712.9	78.2266	11,712.9	78.4915	11,712.9	74.1271	11,712.9	76.986	11,712.9	69.4798	11,712.9	70.824	11,712.9	56.0072	11,712.9	70.2428	11,712.9	44.5375	11,712.9	62.1836	11,712.9	58.1016	11,712.9	61.6035	11,712.9	54.2238	11,712.9	50.7839	11,712.9	30.5539	11,712.9	55.1081	11,712.9	44.9902	11,712.9	58.0763	11,712.9	51.2775	11,712.9	48.1761	11,712.9	51.2082	11,712.9	43.7565	11,712.9	44.6302	11,712.9	51.6751	11,712.9	48.5553	11,712.9	42.8055	11,712.9	46.6524	11,712.9	48.217	11,712.9	49.7717
12,126	84.9514	12,126	84.6376	12,126	84.9239	12,126	82.6049	12,126	83.5393	12,126	80.9351	12,126	81.2563	12,126	77.8898	12,126	78.8158	12,126	73.6288	12,126	74.6713	12,126	67.5304	12,126	72.353	12,126	53.6317	12,126	68.7866	12,126	45.691	12,126	60.3441	12,126	55.7517	12,126	57.1989	12,126	47.7022	12,126	44.9397	12,126	26.2218	12,126	55.866	12,126	39.3504	12,126	55.5708	12,126	49.8049	12,126	45.1281	12,126	48.9443	12,126	51.4017	12,126	39.444	12,126	50.4869	12,126	49.4259	12,126	48.2153	12,126	45.3604	12,126	48.1741	12,126	41.9968
12,553.7	85.2347	12,553.7	85.0334	12,553.7	85.1723	12,553.7	83.051	12,553.7	84.0524	12,553.7	80.9057	12,553.7	81.3012	12,553.7	77.3894	12,553.7	77.7882	12,553.7	72.8534	12,553.7	73.9908	12,553.7	65.4883	12,553.7	73.4713	12,553.7	50.9628	12,553.7	62.4112	12,553.7	50.7502	12,553.7	64.3992	12,553.7	53.9898	12,553.7	58.8383	12,553.7	44.502	12,553.7	52.7462	12,553.7	35.7413	12,553.7	56.375	12,553.7	43.1428	12,553.7	60.4943	12,553.7	48.547	12,553.7	55.3729	12,553.7	48.7251	12,553.7	44.6837	12,553.7	41.659	12,553.7	39.9275	12,553.7	51.7237	12,553.7	49.5323	12,553.7	47.9374	12,553.7	47.9963	12,553.7	35.2771
12,996.1	85.4336	12,996.1	85.1182	12,996.1	85.5934	12,996.1	83.2053	12,996.1	84.1006	12,996.1	80.7018	12,996.1	81.5747	12,996.1	77.1469	12,996.1	77.2778	12,996.1	72.1512	12,996.1	74.9244	12,996.1	62.5556	12,996.1	70.529	12,996.1	58.8118	12,996.1	64.8846	12,996.1	55.4646	12,996.1	63.6759	12,996.1	48.2703	12,996.1	53.4397	12,996.1	38.8971	12,996.1	53.8497	12,996.1	39.8796	12,996.1	60.1686	12,996.1	44.2727	12,996.1	62.1576	12,996.1	52.2089	12,996.1	54.0071	12,996.1	48.0072	12,996.1	44.7585	12,996.1	42.8466	12,996.1	43.9795	12,996.1	50.3947	12,996.1	50.2631	12,996.1	49.2996	12,996.1	40.9164	12,996.1	43.8194
13,454.6	85.5814	13,454.6	84.9491	13,454.6	85.7049	13,454.6	83.2147	13,454.6	84.3861	13,454.6	80.4086	13,454.6	81.981	13,454.6	76.627	13,454.6	77.7118	13,454.6	71.4819	13,454.6	74.5725	13,454.6	59.6553	13,454.6	67.6648	13,454.6	62.4088	13,454.6	64.4212	13,454.6	55.5914	13,454.6	62.1163	13,454.6	51.6491	13,454.6	57.2099	13,454.6	35.7014	13,454.6	42.3811	13,454.6	23.6923	13,454.6	60.2414	13,454.6	44.6704	13,454.6	63.975	13,454.6	52.8845	13,454.6	51.8194	13,454.6	49.5313	13,454.6	43.7809	13,454.6	42.9245	13,454.6	49.2636	13,454.6	50.0566	13,454.6	50.6774	13,454.6	48.6105	13,454.6	35.7539	13,454.6	51.6663
13,929.2	85.5743	13,929.2	85.0651	13,929.2	85.7226	13,929.2	83.1348	13,929.2	84.4257	13,929.2	80.1461	13,929.2	82.0502	13,929.2	76.0539	13,929.2	77.1528	13,929.2	70.9713	13,929.2	74.0299	13,929.2	62.3814	13,929.2	67.4077	13,929.2	65.6529	13,929.2	65.7815	13,929.2	60.6159	13,929.2	58.8859	13,929.2	46.7952	13,929.2	59.0334	13,929.2	33.0663	13,929.2	49.0927	13,929.2	39.9613	13,929.2	59.748	13,929.2	46.2074	13,929.2	65.2246	13,929.2	54.349	13,929.2	55.5604	13,929.2	51.359	13,929.2	48.557	13,929.2	45.9572	13,929.2	44.8199	13,929.2	49.0668	13,929.2	49.1727	13,929.2	48.142	13,929.2	43.5417	13,929.2	51.1728
14,419.9	85.6432	14,419.9	85.3097	14,419.9	85.4215	14,419.9	83.5439	14,419.9	84.2594	14,419.9	80.1066	14,419.9	82.0605	14,419.9	75.2438	14,419.9	77.0274	14,419.9	70.2311	14,419.9	71.5831	14,419.9	65.2087	14,419.9	69.7162	14,419.9	67.7626	14,419.9	65.2837	14,419.9	62.3009	14,419.9	59.0537	14,419.9	43.7825	14,419.9	57.3266	14,419.9	26.0172	14,419.9	53.669	14,419.9	46.249	14,419.9	60.9767	14,419.9	52.1492	14,419.9	66.3149	14,419.9	57.1371	14,419.9	59.2094	14,419.9	47.3116	14,419.9	48.5219	14,419.9	49.983	14,419.9	53.0871	14,419.9	53.897	14,419.9	55.4011	14,419.9	51.2636	14,419.9	37.4333	14,419.9	53.3161
14,928.2	85.9889	14,928.2	85.6971	14,928.2	85.5189	14,928.2	84.0577	14,928.2	84.4217	14,928.2	80.212	14,928.2	82.2385	14,928.2	74.2894	14,928.2	76.3521	14,928.2	69.7479	14,928.2	71.0442	14,928.2	68.0493	14,928.2	70.4942	14,928.2	69.9535	14,928.2	63.1545	14,928.2	63.991	14,928.2	64.2919	14,928.2	39.957	14,928.2	60.4588	14,928.2	35.4426	14,928.2	55.58	14,928.2	47.5919	14,928.2	61.5179	14,928.2	52.9468	14,928.2	67.079	14,928.2	57.23	14,928.2	59.4308	14,928.2	43.6009	14,928.2	44.3727	14,928.2	52.8981	14,928.2	53.6766	14,928.2	54.7194	14,928.2	50.6206	14,928.2	49.1014	14,928.2	37.3647	14,928.2	55.2272
15,455.6	86.3097	15,455.6	85.6813	15,455.6	85.5516	15,455.6	84.1288	15,455.6	84.3831	15,455.6	80.3797	15,455.6	81.3239	15,455.6	73.6427	15,455.6	76.4205	15,455.6	70.505	15,455.6	71.6377	15,455.6	71.0478	15,455.6	69.4264	15,455.6	71.1084	15,455.6	68.0374	15,455.6	65.2178	15,455.6	64.3969	15,455.6	42.076	15,455.6	62.3936	15,455.6	36.036	15,455.6	55.8027	15,455.6	48.0606	15,455.6	61.4468	15,455.6	49.1745	15,455.6	68.0529	15,455.6	56.6173	15,455.6	59.2816	15,455.6	49.2529	15,455.6	49.3585	15,455.6	53.6998	15,455.6	54.7003	15,455.6	53.4476	15,455.6	54.929	15,455.6	49.8403	15,455.6	43.589	15,455.6	54.682
16,000.5	86.2662	16,000.5	85.7932	16,000.5	85.8877	16,000.5	83.8473	16,000.5	85.1596	16,000.5	80.429	16,000.5	80.9843	16,000.5	73.3219	16,000.5	75.5592	16,000.5	71.3042	16,000.5	73.4177	16,000.5	73.5669	16,000.5	71.0045	16,000.5	72.4554	16,000.5	69.704	16,000.5	66.3961	16,000.5	61.7451	16,000.5	44.296	16,000.5	60.0724	16,000.5	34.8643	16,000.5	56.2037	16,000.5	48.2742	16,000.5	65.2302	16,000.5	49.448	16,000.5	69.9334	16,000.5	55.738	16,000.5	62.1481	16,000.5	51.4562	16,000.5	51.2428	16,000.5	55.4406	16,000.5	55.1518	16,000.5	55.2205	16,000.5	47.0639	16,000.5	42.3397	16,000.5	34.6864	16,000.5	55.0298
16,564.5	86.0639	16,564.5	85.6809	16,564.5	86.0711	16,564.5	83.8598	16,564.5	85.9155	16,564.5	80.5423	16,564.5	81.844	16,564.5	74.7834	16,564.5	77.8548	16,564.5	71.9851	16,564.5	74.3998	16,564.5	75.5768	16,564.5	72.4722	16,564.5	72.2528	16,564.5	69.1634	16,564.5	65.922	16,564.5	66.7939	16,564.5	49.3421	16,564.5	62.4296	16,564.5	36.7657	16,564.5	61.7957	16,564.5	40.3647	16,564.5	66.4727	16,564.5	46.2016	16,564.5	70.3732	16,564.5	52.7069	16,564.5	62.4019	16,564.5	52.9986	16,564.5	52.8081	16,564.5	54.8731	16,564.5	53.8413	16,564.5	55.3764	16,564.5	50.3548	16,564.5	42.8804	16,564.5	37.1833	16,564.5	51.9203
17,148.9	85.9454	17,148.9	85.6481	17,148.9	86.0364	17,148.9	84.069	17,148.9	86.1711	17,148.9	80.5078	17,148.9	81.399	17,148.9	77.1261	17,148.9	76.7681	17,148.9	74.5428	17,148.9	74.8384	17,148.9	76.5772	17,148.9	73.2961	17,148.9	72.5895	17,148.9	71.0692	17,148.9	66.3153	17,148.9	67.6109	17,148.9	51.7521	17,148.9	62.7131	17,148.9	49.4843	17,148.9	61.6228	17,148.9	34.0635	17,148.9	66.0693	17,148.9	31.1531	17,148.9	70.9386	17,148.9	35.59	17,148.9	62.6387	17,148.9	50.4756	17,148.9	55.0879	17,148.9	57.0202	17,148.9	51.3905	17,148.9	52.6609	17,148.9	53.0233	17,148.9	48.1487	17,148.9	47.4063	17,148.9	54.4465
17,752.4	85.151	17,752.4	84.7992	17,752.4	85.247	17,752.4	83.3361	17,752.4	85.815	17,752.4	80.8158	17,752.4	82.3174	17,752.4	78.0944	17,752.4	78.5028	17,752.4	77.4137	17,752.4	75.0775	17,752.4	76.1046	17,752.4	74.3281	17,752.4	72.112	17,752.4	70.7171	17,752.4	67.4513	17,752.4	66.0252	17,752.4	41.0993	17,752.4	57.3831	17,752.4	51.6427	17,752.4	63.3263	17,752.4	43.2277	17,752.4	67.2433	17,752.4	53.8503	17,752.4	71.2331	17,752.4	54.3511	17,752.4	62.169	17,752.4	44.7829	17,752.4	54.2271	17,752.4	56.0121	17,752.4	59.6862	17,752.4	50.7002	17,752.4	47.076	17,752.4	49.8261	17,752.4	46.8521	17,752.4	50.8028
18,379.4	81.952	18,379.4	82.2638	18,379.4	82.3717	18,379.4	80.833	18,379.4	81.9221	18,379.4	79.8503	18,379.4	80.1901	18,379.4	77.7401	18,379.4	76.779	18,379.4	76.5223	18,379.4	75.4988	18,379.4	73.5472	18,379.4	72.9331	18,379.4	68.9415	18,379.4	66.5091	18,379.4	64.0598	18,379.4	63.1887	18,379.4	50.8783	18,379.4	53.7757	18,379.4	51.7631	18,379.4	60.7733	18,379.4	44.2675	18,379.4	64.5531	18,379.4	51.1062	18,379.4	69.742	18,379.4	53.4264	18,379.4	62.2057	18,379.4	45.0679	18,379.4	56.6112	18,379.4	45.7518	18,379.4	49.2026	18,379.4	33.1727	18,379.4	45.6677	18,379.4	50.3167	18,379.4	46.1981	18,379.4	50.062
19,026.9	75.9355	19,026.9	77.0472	19,026.9	76.6812	19,026.9	76.6971	19,026.9	76.9552	19,026.9	76.6229	19,026.9	75.8603	19,026.9	74.7051	19,026.9	73.2689	19,026.9	72.1158	19,026.9	71.197	19,026.9	67.5609	19,026.9	67.5116	19,026.9	60.8235	19,026.9	62.7491	19,026.9	57.5588	19,026.9	58.5838	19,026.9	50.2775	19,026.9	51.1352	19,026.9	47.251	19,026.9	55.1228	19,026.9	44.7251	19,026.9	60.6197	19,026.9	48.0642	19,026.9	65.0058	19,026.9	50.8732	19,026.9	56.6188	19,026.9	44.573	19,026.9	43.9346	19,026.9	39.559	19,026.9	43.7608	19,026.9	25.2935	19,026.9	33.4505	19,026.9	46.6261	19,026.9	34.3184	19,026.9	31.4381
19,697.8	68.775	19,697.8	70.2095	19,697.8	69.7753	19,697.8	71.3806	19,697.8	71.7547	19,697.8	72.687	19,697.8	72.0301	19,697.8	70.8792	19,697.8	69.8033	19,697.8	67.0455	19,697.8	65.9528	19,697.8	60.8857	19,697.8	60.1786	19,697.8	50.5613	19,697.8	54.3497	19,697.8	46.475	19,697.8	49.2093	19,697.8	45.5126	19,697.8	46.3376	19,697.8	40.2762	19,697.8	49.5606	19,697.8	39.4116	19,697.8	54.9216	19,697.8	43.2079	19,697.8	57.8429	19,697.8	45.863	19,697.8	48.45	19,697.8	41.7971	19,697.8	38.6446	19,697.8	33.1507	19,697.8	40.0892	19,697.8	29.4462	19,697.8	33.1094	19,697.8	36.539	19,697.8	35.6197	19,697.8	34.762
19,999.5	66.4449	19,999.5	67.696	19,999.5	67.3786	19,999.5	69.1654	19,999.5	69.997	19,999.5	71.3279	19,999.5	70.4151	19,999.5	69.1532	19,999.5	68.6394	19,999.5	65.0517	19,999.5	63.9268	19,999.5	58.592	19,999.5	57.6864	19,999.5	47.0733	19,999.5	46.9004	19,999.5	38.6688	19,999.5	38.5189	19,999.5	45.5285	19,999.5	44.1256	19,999.5	39.3769	19,999.5	41.0358	19,999.5	37.8539	19,999.5	52.0919	19,999.5	41.0369	19,999.5	54.7577	19,999.5	39.9484	19,999.5	45.5924	19,999.5	36.3186	19,999.5	33.021	19,999.5	32.1532	19,999.5	35.0997	19,999.5	42.1406	19,999.5	41.8033	19,999.5	26.6104	19,999.5	33.6172	19,999.5	41.6634
