"SPL Horizontal"																																																																							
"On-Axis"		"10°"		"-10°"		"20°"		"-20°"		"30°"		"-30°"		"40°"		"-40°"		"50°"		"-50°"		"60°"		"-60°"		"70°"		"-70°"		"80°"		"-80°"		"90°"		"-90°"		"100°"		"-100°"		"110°"		"-110°"		"120°"		"-120°"		"130°"		"-130°"		"140°"		"-140°"		"150°"		"-150°"		"160°"		"-160°"		"170°"		"-170°"		"180°"	
"Frequency [Hz]"	"Sound Pessure Level [dB]  / [2.83V 1m] "	"Frequency [Hz]"	"Sound Pessure Level [dB]  / [2.83V 1m] "	"Frequency [Hz]"	"Sound Pessure Level [dB]  / [2.83V 1m] "	"Frequency [Hz]"	"Sound Pessure Level [dB]  / [2.83V 1m] "	"Frequency [Hz]"	"Sound Pessure Level [dB]  / [2.83V 1m] "	"Frequency [Hz]"	"Sound Pessure Level [dB]  / [2.83V 1m] "	"Frequency [Hz]"	"Sound Pessure Level [dB]  / [2.83V 1m] "	"Frequency [Hz]"	"Sound Pessure Level [dB]  / [2.83V 1m] "	"Frequency [Hz]"	"Sound Pessure Level [dB]  / [2.83V 1m] "	"Frequency [Hz]"	"Sound Pessure Level [dB]  / [2.83V 1m] "	"Frequency [Hz]"	"Sound Pessure Level [dB]  / [2.83V 1m] "	"Frequency [Hz]"	"Sound Pessure Level [dB]  / [2.83V 1m] "	"Frequency [Hz]"	"Sound Pessure Level [dB]  / [2.83V 1m] "	"Frequency [Hz]"	"Sound Pessure Level [dB]  / [2.83V 1m] "	"Frequency [Hz]"	"Sound Pessure Level [dB]  / [2.83V 1m] "	"Frequency [Hz]"	"Sound Pessure Level [dB]  / [2.83V 1m] "	"Frequency [Hz]"	"Sound Pessure Level [dB]  / [2.83V 1m] "	"Frequency [Hz]"	"Sound Pessure Level [dB]  / [2.83V 1m] "	"Frequency [Hz]"	"Sound Pessure Level [dB]  / [2.83V 1m] "	"Frequency [Hz]"	"Sound Pessure Level [dB]  / [2.83V 1m] "	"Frequency [Hz]"	"Sound Pessure Level [dB]  / [2.83V 1m] "	"Frequency [Hz]"	"Sound Pessure Level [dB]  / [2.83V 1m] "	"Frequency [Hz]"	"Sound Pessure Level [dB]  / [2.83V 1m] "	"Frequency [Hz]"	"Sound Pessure Level [dB]  / [2.83V 1m] "	"Frequency [Hz]"	"Sound Pessure Level [dB]  / [2.83V 1m] "	"Frequency [Hz]"	"Sound Pessure Level [dB]  / [2.83V 1m] "	"Frequency [Hz]"	"Sound Pessure Level [dB]  / [2.83V 1m] "	"Frequency [Hz]"	"Sound Pessure Level [dB]  / [2.83V 1m] "	"Frequency [Hz]"	"Sound Pessure Level [dB]  / [2.83V 1m] "	"Frequency [Hz]"	"Sound Pessure Level [dB]  / [2.83V 1m] "	"Frequency [Hz]"	"Sound Pessure Level [dB]  / [2.83V 1m] "	"Frequency [Hz]"	"Sound Pessure Level [dB]  / [2.83V 1m] "	"Frequency [Hz]"	"Sound Pessure Level [dB]  / [2.83V 1m] "	"Frequency [Hz]"	"Sound Pessure Level [dB]  / [2.83V 1m] "	"Frequency [Hz]"	"Sound Pessure Level [dB]  / [2.83V 1m] "	"Frequency [Hz]"	"Sound Pessure Level [dB]  / [2.83V 1m] "
20.5078	61.0261	20.5078	60.9155	20.5078	61.1393	20.5078	60.8115	20.5078	61.2516	20.5078	60.7184	20.5078	61.3603	20.5078	60.6401	20.5078	61.4634	20.5078	60.58	20.5078	61.5592	20.5078	60.5404	20.5078	61.646	20.5078	60.523	20.5078	61.7215	20.5078	60.5283	20.5078	61.7833	20.5078	60.5566	20.5078	61.8289	20.5078	60.6073	20.5078	61.856	20.5078	60.6792	20.5078	61.8635	20.5078	60.7698	20.5078	61.8516	20.5078	60.8757	20.5078	61.8215	20.5078	60.9922	20.5078	61.7751	20.5078	61.1137	20.5078	61.7144	20.5078	61.2348	20.5078	61.6408	20.5078	61.3507	20.5078	61.5552	20.5078	61.4582
21.9727	60.6141	21.9727	60.5931	21.9727	60.6335	21.9727	60.57	21.9727	60.6518	21.9727	60.5447	21.9727	60.6695	21.9727	60.5172	21.9727	60.6867	21.9727	60.488	21.9727	60.7031	21.9727	60.4576	21.9727	60.718	21.9727	60.4273	21.9727	60.73	21.9727	60.3983	21.9727	60.7373	21.9727	60.3721	21.9727	60.7382	21.9727	60.35	21.9727	60.7311	21.9727	60.3337	21.9727	60.715	21.9727	60.3243	21.9727	60.6898	21.9727	60.3229	21.9727	60.6563	21.9727	60.3298	21.9727	60.6162	21.9727	60.3454	21.9727	60.5719	21.9727	60.3692	21.9727	60.5258	21.9727	60.4004	21.9727	60.4804	21.9727	60.438
23.4375	62.2218	23.4375	62.1923	23.4375	62.249	23.4375	62.1608	23.4375	62.2739	23.4375	62.1279	23.4375	62.2963	23.4375	62.0942	23.4375	62.3161	23.4375	62.0607	23.4375	62.3333	23.4375	62.0284	23.4375	62.3474	23.4375	61.9986	23.4375	62.3579	23.4375	61.9727	23.4375	62.3638	23.4375	61.9523	23.4375	62.3642	23.4375	61.9389	23.4375	62.3584	23.4375	61.9338	23.4375	62.3459	23.4375	61.9377	23.4375	62.3265	23.4375	61.9508	23.4375	62.301	23.4375	61.9725	23.4375	62.27	23.4375	62.0014	23.4375	62.2347	23.4375	62.036	23.4375	62.1963	23.4375	62.0744	23.4375	62.156	23.4375	62.1149
24.9023	62.9741	24.9023	62.9471	24.9023	62.9979	24.9023	62.9175	24.9023	63.018	24.9023	62.886	24.9023	63.034	24.9023	62.8533	24.9023	63.0456	24.9023	62.8201	24.9023	63.0524	24.9023	62.7873	24.9023	63.0541	24.9023	62.7556	24.9023	63.0503	24.9023	62.7262	24.9023	63.0406	24.9023	62.7	24.9023	63.0251	24.9023	62.6783	24.9023	63.0038	24.9023	62.6623	24.9023	62.9773	24.9023	62.6531	24.9023	62.9466	24.9023	62.6513	24.9023	62.9129	24.9023	62.6569	24.9023	62.8774	24.9023	62.6696	24.9023	62.8415	24.9023	62.6886	24.9023	62.8062	24.9023	62.7127	24.9023	62.7724	24.9023	62.741
26.3672	63.7376	26.3672	63.7222	26.3672	63.7458	26.3672	63.6996	26.3672	63.7469	26.3672	63.6697	26.3672	63.7407	26.3672	63.6326	26.3672	63.7271	26.3672	63.5886	26.3672	63.7059	26.3672	63.5381	26.3672	63.6768	26.3672	63.4818	26.3672	63.6398	26.3672	63.4209	26.3672	63.5951	26.3672	63.357	26.3672	63.5434	26.3672	63.2921	26.3672	63.4855	26.3672	63.2288	26.3672	63.4231	26.3672	63.1697	26.3672	63.358	26.3672	63.1177	26.3672	63.2922	26.3672	63.0755	26.3672	63.2282	26.3672	63.0456	26.3672	63.1686	26.3672	63.03	26.3672	63.1163	26.3672	63.0296	26.3672	63.0742	26.3672	63.0446
27.832	64.7147	27.832	64.6945	27.832	64.7275	27.832	64.6673	27.832	64.7329	27.832	64.6334	27.832	64.7304	27.832	64.593	27.832	64.7199	27.832	64.5466	27.832	64.7011	27.832	64.4946	27.832	64.6739	27.832	64.4379	27.832	64.6382	27.832	64.3777	27.832	64.5944	27.832	64.3155	27.832	64.543	27.832	64.2535	27.832	64.4851	27.832	64.1938	27.832	64.4222	27.832	64.1389	27.832	64.3562	27.832	64.0914	27.832	64.2892	27.832	64.0535	27.832	64.2238	27.832	64.0274	27.832	64.1628	27.832	64.0149	27.832	64.1091	27.832	64.0171	27.832	64.0654	27.832	64.0342
29.2969	65.4624	29.2969	65.4486	29.2969	65.4678	29.2969	65.4265	29.2969	65.465	29.2969	65.3962	29.2969	65.4539	29.2969	65.3578	29.2969	65.4349	29.2969	65.3118	29.2969	65.408	29.2969	65.2588	29.2969	65.3734	29.2969	65.1999	29.2969	65.3315	29.2969	65.1364	29.2969	65.2827	29.2969	65.0702	29.2969	65.2277	29.2969	65.0037	29.2969	65.1678	29.2969	64.9393	29.2969	65.1044	29.2969	64.8797	29.2969	65.0393	29.2969	64.8275	29.2969	64.9746	29.2969	64.7849	29.2969	64.9128	29.2969	64.754	29.2969	64.8564	29.2969	64.7366	29.2969	64.8081	29.2969	64.7334	29.2969	64.7702	29.2969	64.7448
30.7617	66.2746	30.7617	66.2639	30.7617	66.277	30.7617	66.2452	30.7617	66.2711	30.7617	66.2185	30.7617	66.2567	30.7617	66.1842	30.7617	66.2338	30.7617	66.1425	30.7617	66.2026	30.7617	66.0939	30.7617	66.1633	30.7617	66.0391	30.7617	66.1163	30.7617	65.9793	30.7617	66.0625	30.7617	65.916	30.7617	66.0032	30.7617	65.8514	30.7617	65.9401	30.7617	65.7879	30.7617	65.8752	30.7617	65.728	30.7617	65.8107	30.7617	65.6741	30.7617	65.749	30.7617	65.6285	30.7617	65.6926	30.7617	65.593	30.7617	65.6436	30.7617	65.5693	30.7617	65.6042	30.7617	65.5583	30.7617	65.5762	30.7617	65.5606
32.2266	67.1635	32.2266	67.1489	32.2266	67.1704	32.2266	67.1268	32.2266	67.1699	32.2266	67.0974	32.2266	67.162	32.2266	67.0613	32.2266	67.1469	32.2266	67.0191	32.2266	67.1249	32.2266	66.9718	32.2266	67.0965	32.2266	66.9208	32.2266	67.0623	32.2266	66.8675	32.2266	67.023	32.2266	66.8137	32.2266	66.9795	32.2266	66.7614	32.2266	66.9331	32.2266	66.7125	32.2266	66.8847	32.2266	66.6692	32.2266	66.8356	32.2266	66.6332	32.2266	66.7871	32.2266	66.6063	32.2266	66.7405	32.2266	66.5894	32.2266	66.6972	32.2266	66.5832	32.2266	66.6587	32.2266	66.5878	32.2266	66.6266	32.2266	66.6026
33.6914	67.6364	33.6914	67.6336	33.6914	67.6308	33.6914	67.6225	33.6914	67.6172	33.6914	67.6032	33.6914	67.5961	33.6914	67.576	33.6914	67.5683	33.6914	67.5417	33.6914	67.5346	33.6914	67.5013	33.6914	67.4963	33.6914	67.456	33.6914	67.4547	33.6914	67.4074	33.6914	67.4112	33.6914	67.3575	33.6914	67.3675	33.6914	67.3084	33.6914	67.3248	33.6914	67.2622	33.6914	67.2844	33.6914	67.2208	33.6914	67.2473	33.6914	67.1858	33.6914	67.214	33.6914	67.1579	33.6914	67.1852	33.6914	67.1378	33.6914	67.1612	33.6914	67.1252	33.6914	67.1423	33.6914	67.1199	33.6914	67.1289	33.6914	67.1213
35.1562	68.2965	35.1562	68.2929	35.1562	68.2887	35.1562	68.2775	35.1562	68.2698	35.1562	68.2501	35.1562	68.2406	35.1562	68.2111	35.1562	68.2017	35.1562	68.1608	35.1562	68.1543	35.1562	68.1004	35.1562	68.0993	35.1562	68.0317	35.1562	68.0382	35.1562	67.9567	35.1562	67.9726	35.1562	67.8783	35.1562	67.9042	35.1562	67.7996	35.1562	67.8349	35.1562	67.7234	35.1562	67.7667	35.1562	67.653	35.1562	67.7013	35.1562	67.5908	35.1562	67.6405	35.1562	67.5391	35.1562	67.586	35.1562	67.4995	35.1562	67.5393	35.1562	67.4731	35.1562	67.502	35.1562	67.4604	35.1562	67.4756	35.1562	67.4615
36.6211	69.2065	36.6211	69.2081	36.6211	69.1947	36.6211	69.1995	36.6211	69.1731	36.6211	69.1809	36.6211	69.1421	36.6211	69.1527	36.6211	69.1024	36.6211	69.1155	36.6211	69.0551	36.6211	69.0703	36.6211	69.0014	36.6211	69.0185	36.6211	68.9431	36.6211	68.9616	36.6211	68.882	36.6211	68.9016	36.6211	68.8204	36.6211	68.8405	36.6211	68.7605	36.6211	68.7804	36.6211	68.7043	36.6211	68.7234	36.6211	68.6537	36.6211	68.6713	36.6211	68.6102	36.6211	68.6257	36.6211	68.5749	36.6211	68.5876	36.6211	68.5485	36.6211	68.5579	36.6211	68.5314	36.6211	68.5372	36.6211	68.5238	36.6211	68.5258
38.0859	69.582	38.0859	69.5754	38.0859	69.5798	38.0859	69.5602	38.0859	69.569	38.0859	69.5368	38.0859	69.5495	38.0859	69.5057	38.0859	69.5219	38.0859	69.4676	38.0859	69.4864	38.0859	69.4234	38.0859	69.4439	38.0859	69.3741	38.0859	69.3952	38.0859	69.3212	38.0859	69.3417	38.0859	69.2659	38.0859	69.2851	38.0859	69.2101	38.0859	69.2274	38.0859	69.1554	38.0859	69.1707	38.0859	69.1038	38.0859	69.1171	38.0859	69.0571	38.0859	69.0684	38.0859	69.0169	38.0859	69.0262	38.0859	68.9846	38.0859	68.9919	38.0859	68.9613	38.0859	68.9663	38.0859	68.9476	38.0859	68.9501	38.0859	68.9438
39.5508	70.4558	39.5508	70.4546	39.5508	70.4476	39.5508	70.4441	39.5508	70.4301	39.5508	70.4245	39.5508	70.4035	39.5508	70.3963	39.5508	70.3684	39.5508	70.3601	39.5508	70.3255	39.5508	70.3167	39.5508	70.2757	39.5508	70.2671	39.5508	70.2204	39.5508	70.2126	39.5508	70.1614	39.5508	70.1548	39.5508	70.1007	39.5508	70.0956	39.5508	70.0406	39.5508	70.0369	39.5508	69.9832	39.5508	69.9809	39.5508	69.9308	39.5508	69.9295	39.5508	69.8851	39.5508	69.8844	39.5508	69.8473	39.5508	69.847	39.5508	69.8185	39.5508	69.8183	39.5508	69.799	39.5508	69.7989	39.5508	69.7892	39.5508	69.7891
41.0156	70.9327	41.0156	70.9179	41.0156	70.937	41.0156	70.8929	41.0156	70.9308	41.0156	70.8586	41.0156	70.9141	41.0156	70.8157	41.0156	70.8874	41.0156	70.7653	41.0156	70.8514	41.0156	70.709	41.0156	70.807	41.0156	70.6483	41.0156	70.7555	41.0156	70.585	41.0156	70.6985	41.0156	70.5211	41.0156	70.6376	41.0156	70.4588	41.0156	70.5749	41.0156	70.4004	41.0156	70.5124	41.0156	70.3478	41.0156	70.4522	41.0156	70.3029	41.0156	70.3961	41.0156	70.267	41.0156	70.346	41.0156	70.2411	41.0156	70.303	41.0156	70.2258	41.0156	70.2684	41.0156	70.2211	41.0156	70.2428	41.0156	70.2269
42.4805	71.4355	42.4805	71.4166	42.4805	71.4464	42.4805	71.3902	42.4805	71.449	42.4805	71.3569	42.4805	71.4433	42.4805	71.3175	42.4805	71.4293	42.4805	71.273	42.4805	71.4072	42.4805	71.2249	42.4805	71.3777	42.4805	71.1745	42.4805	71.3416	42.4805	71.1234	42.4805	71.3	42.4805	71.0733	42.4805	71.2544	42.4805	71.0258	42.4805	71.2063	42.4805	70.9827	42.4805	71.1572	42.4805	70.9456	42.4805	71.1088	42.4805	70.9158	42.4805	71.0624	42.4805	70.8943	42.4805	71.0192	42.4805	70.8817	42.4805	70.9802	42.4805	70.8782	42.4805	70.9463	42.4805	70.8835	42.4805	70.9184	42.4805	70.8971
43.9453	71.9435	43.9453	71.9254	43.9453	71.9548	43.9453	71.9011	43.9453	71.9592	43.9453	71.8711	43.9453	71.9567	43.9453	71.8365	43.9453	71.9476	43.9453	71.7984	43.9453	71.9323	43.9453	71.7585	43.9453	71.9114	43.9453	71.7182	43.9453	71.886	43.9453	71.6794	43.9453	71.8572	43.9453	71.6437	43.9453	71.8263	43.9453	71.6126	43.9453	71.7945	43.9453	71.5875	43.9453	71.7632	43.9453	71.5694	43.9453	71.7333	43.9453	71.5588	43.9453	71.7053	43.9453	71.5555	43.9453	71.6797	43.9453	71.5588	43.9453	71.6562	43.9453	71.5677	43.9453	71.6347	43.9453	71.5807	43.9453	71.6148	43.9453	71.5967
45.4102	72.6432	45.4102	72.6326	45.4102	72.6475	45.4102	72.6157	45.4102	72.6455	45.4102	72.5929	45.4102	72.6376	45.4102	72.5648	45.4102	72.6244	45.4102	72.5326	45.4102	72.6066	45.4102	72.4974	45.4102	72.5849	45.4102	72.4607	45.4102	72.5601	45.4102	72.4239	45.4102	72.5332	45.4102	72.3886	45.4102	72.5048	45.4102	72.3561	45.4102	72.4757	45.4102	72.3275	45.4102	72.4467	45.4102	72.3041	45.4102	72.4185	45.4102	72.2866	45.4102	72.3916	45.4102	72.2755	45.4102	72.3666	45.4102	72.2709	45.4102	72.3437	45.4102	72.2723	45.4102	72.3232	45.4102	72.2791	45.4102	72.3053	45.4102	72.2904
46.875	73.405	46.875	73.4152	46.875	73.382	46.875	73.4122	46.875	73.3474	46.875	73.3962	46.875	73.3027	46.875	73.3677	46.875	73.2502	46.875	73.3276	46.875	73.1924	46.875	73.2774	46.875	73.1317	46.875	73.2186	46.875	73.0702	46.875	73.1531	46.875	73.0096	46.875	73.0831	46.875	72.9509	46.875	73.0111	46.875	72.8949	46.875	72.9396	46.875	72.8423	46.875	72.8713	46.875	72.7938	46.875	72.8087	46.875	72.7503	46.875	72.7542	46.875	72.7127	46.875	72.7096	46.875	72.6822	46.875	72.6762	46.875	72.66	46.875	72.6548	46.875	72.6474	46.875	72.6453
48.3398	74.5636	48.3398	74.5991	48.3398	74.5086	48.3398	74.6148	48.3398	74.4346	48.3398	74.6111	48.3398	74.3428	48.3398	74.5882	48.3398	74.2353	48.3398	74.5468	48.3398	74.115	48.3398	74.4877	48.3398	73.9858	48.3398	74.4121	48.3398	73.8521	48.3398	74.3216	48.3398	73.7191	48.3398	74.2183	48.3398	73.5919	48.3398	74.1051	48.3398	73.4755	48.3398	73.9852	48.3398	73.3744	48.3398	73.8625	48.3398	73.2921	48.3398	73.7408	48.3398	73.2313	48.3398	73.624	48.3398	73.1933	48.3398	73.5153	48.3398	73.1787	48.3398	73.4179	48.3398	73.1868	48.3398	73.3341	48.3398	73.2166	48.3398	73.2663
51.2695	74.6265	51.2695	74.5868	51.2695	74.6613	51.2695	74.5437	51.2695	74.6899	51.2695	74.4989	51.2695	74.7113	51.2695	74.4538	51.2695	74.7247	51.2695	74.4102	51.2695	74.7293	51.2695	74.3693	51.2695	74.7249	51.2695	74.3322	51.2695	74.7113	51.2695	74.2995	51.2695	74.6889	51.2695	74.2717	51.2695	74.6586	51.2695	74.249	51.2695	74.6216	51.2695	74.2314	51.2695	74.5792	51.2695	74.2189	51.2695	74.5331	51.2695	74.2118	51.2695	74.4849	51.2695	74.2105	51.2695	74.4364	51.2695	74.2154	51.2695	74.3893	51.2695	74.2271	51.2695	74.3452	51.2695	74.2462	51.2695	74.3059	51.2695	74.2725
52.7344	75.4188	52.7344	75.3938	52.7344	75.439	52.7344	75.3649	52.7344	75.454	52.7344	75.3331	52.7344	75.4638	52.7344	75.3	52.7344	75.4685	52.7344	75.2674	52.7344	75.4685	52.7344	75.237	52.7344	75.4642	52.7344	75.2106	52.7344	75.4561	52.7344	75.1894	52.7344	75.4447	52.7344	75.1742	52.7344	75.4305	52.7344	75.1655	52.7344	75.414	52.7344	75.1629	52.7344	75.3956	52.7344	75.1659	52.7344	75.376	52.7344	75.1736	52.7344	75.3557	52.7344	75.185	52.7344	75.335	52.7344	75.1993	52.7344	75.3142	52.7344	75.2157	52.7344	75.2934	52.7344	75.2338	52.7344	75.2729	52.7344	75.253
54.1992	75.9309	54.1992	75.9204	54.1992	75.9324	54.1992	75.901	54.1992	75.9253	54.1992	75.8733	54.1992	75.9103	54.1992	75.8385	54.1992	75.8886	54.1992	75.798	54.1992	75.8616	54.1992	75.7536	54.1992	75.8307	54.1992	75.7073	54.1992	75.7974	54.1992	75.6615	54.1992	75.763	54.1992	75.6183	54.1992	75.7285	54.1992	75.5798	54.1992	75.6947	54.1992	75.5475	54.1992	75.6623	54.1992	75.5225	54.1992	75.6317	54.1992	75.505	54.1992	75.6035	54.1992	75.4947	54.1992	75.578	54.1992	75.4907	54.1992	75.5555	54.1992	75.492	54.1992	75.5362	54.1992	75.4978	54.1992	75.5201	54.1992	75.5073
55.6641	76.1962	55.6641	76.1921	55.6641	76.1875	55.6641	76.1755	55.6641	76.1662	55.6641	76.1473	55.6641	76.1332	55.6641	76.1086	55.6641	76.0896	55.6641	76.061	55.6641	76.0373	55.6641	76.0067	55.6641	75.9787	55.6641	75.9478	55.6641	75.9163	55.6641	75.8868	55.6641	75.8526	55.6641	75.8262	55.6641	75.7903	55.6641	75.7683	55.6641	75.7314	55.6641	75.715	55.6641	75.6777	55.6641	75.6674	55.6641	75.6306	55.6641	75.6265	55.6641	75.5911	55.6641	75.5923	55.6641	75.5599	55.6641	75.5645	55.6641	75.5372	55.6641	75.543	55.6641	75.5231	55.6641	75.5278	55.6641	75.5172	55.6641	75.519
58.5938	77.5424	58.5938	77.5311	58.5938	77.5407	58.5938	77.5072	58.5938	77.526	58.5938	77.4717	58.5938	77.4988	58.5938	77.4258	58.5938	77.46	58.5938	77.371	58.5938	77.4109	58.5938	77.3093	58.5938	77.3533	58.5938	77.2426	58.5938	77.2894	58.5938	77.1731	58.5938	77.2215	58.5938	77.1033	58.5938	77.1522	58.5938	77.0355	58.5938	77.0839	58.5938	76.9721	58.5938	77.0191	58.5938	76.9153	58.5938	76.9598	58.5938	76.8668	58.5938	76.9074	58.5938	76.8278	58.5938	76.863	58.5938	76.7989	58.5938	76.8271	58.5938	76.7801	58.5938	76.7999	58.5938	76.7713	58.5938	76.7815	58.5938	76.7719
60.0586	77.9163	60.0586	77.9047	60.0586	77.9164	60.0586	77.8821	60.0586	77.9049	60.0586	77.8493	60.0586	77.8822	60.0586	77.8075	60.0586	77.8488	60.0586	77.7581	60.0586	77.8061	60.0586	77.7029	60.0586	77.7555	60.0586	77.6436	60.0586	77.6991	60.0586	77.5823	60.0586	77.6388	60.0586	77.5213	60.0586	77.5772	60.0586	77.4628	60.0586	77.5166	60.0586	77.4088	60.0586	77.4593	60.0586	77.3611	60.0586	77.4071	60.0586	77.3212	60.0586	77.3615	60.0586	77.2898	60.0586	77.3234	60.0586	77.2671	60.0586	77.2931	60.0586	77.2527	60.0586	77.2705	60.0586	77.2462	60.0586	77.2553	60.0586	77.2472
62.9883	78.6489	62.9883	78.6462	62.9883	78.6396	62.9883	78.6319	62.9883	78.6184	62.9883	78.6067	62.9883	78.586	62.9883	78.5718	62.9883	78.5434	62.9883	78.5288	62.9883	78.4923	62.9883	78.4793	62.9883	78.4348	62.9883	78.4254	62.9883	78.3733	62.9883	78.3688	62.9883	78.3105	62.9883	78.3115	62.9883	78.2491	62.9883	78.2553	62.9883	78.1917	62.9883	78.2019	62.9883	78.1404	62.9883	78.1528	62.9883	78.0965	62.9883	78.1092	62.9883	78.0608	62.9883	78.0723	62.9883	78.0334	62.9883	78.0426	62.9883	78.0138	62.9883	78.0203	62.9883	78.0016	62.9883	78.0054	62.9883	77.9962	62.9883	77.9974
64.4531	79.0869	64.4531	79.0797	64.4531	79.0816	64.4531	79.0603	64.4531	79.0637	64.4531	79.0298	64.4531	79.0336	64.4531	78.9897	64.4531	78.9923	64.4531	78.9416	64.4531	78.9414	64.4531	78.8875	64.4531	78.8828	64.4531	78.8297	64.4531	78.8189	64.4531	78.7703	64.4531	78.7524	64.4531	78.7113	64.4531	78.6861	64.4531	78.6545	64.4531	78.6225	64.4531	78.6012	64.4531	78.5641	64.4531	78.5524	64.4531	78.5127	64.4531	78.509	64.4531	78.4697	64.4531	78.4715	64.4531	78.4356	64.4531	78.4404	64.4531	78.4108	64.4531	78.4161	64.4531	78.395	64.4531	78.399	64.4531	78.3881	64.4531	78.3896
67.3828	79.9309	67.3828	79.9155	67.3828	79.9326	67.3828	79.8871	67.3828	79.9206	67.3828	79.8468	67.3828	79.8954	67.3828	79.7963	67.3828	79.8578	67.3828	79.7377	67.3828	79.8096	67.3828	79.6734	67.3828	79.7524	67.3828	79.6062	67.3828	79.6888	67.3828	79.5387	67.3828	79.6212	67.3828	79.4735	67.3828	79.5524	67.3828	79.4128	67.3828	79.4851	67.3828	79.3581	67.3828	79.4215	67.3828	79.3107	67.3828	79.3639	67.3828	79.2711	67.3828	79.3137	67.3828	79.2395	67.3828	79.2719	67.3828	79.2159	67.3828	79.2388	67.3828	79.2001	67.3828	79.2146	67.3828	79.1919	67.3828	79.1989	67.3828	79.1915
68.8477	80.3236	68.8477	80.3076	68.8477	80.3258	68.8477	80.2783	68.8477	80.3142	68.8477	80.2368	68.8477	80.2895	68.8477	80.1848	68.8477	80.2528	68.8477	80.1244	68.8477	80.2057	68.8477	80.0582	68.8477	80.1501	68.8477	79.9889	68.8477	80.0883	68.8477	79.9195	68.8477	80.0228	68.8477	79.8527	68.8477	79.9561	68.8477	79.7908	68.8477	79.8908	68.8477	79.7358	68.8477	79.829	68.8477	79.6889	68.8477	79.7728	68.8477	79.6509	68.8477	79.7233	68.8477	79.6221	68.8477	79.6814	68.8477	79.6021	68.8477	79.6474	68.8477	79.5906	68.8477	79.6211	68.8477	79.587	68.8477	79.6024	68.8477	79.5911
71.7773	81.1277	71.7773	81.1145	71.7773	81.1271	71.7773	81.0877	71.7773	81.1132	71.7773	81.0483	71.7773	81.087	71.7773	80.9976	71.7773	81.0498	71.7773	80.9378	71.7773	81.0034	71.7773	80.8715	71.7773	80.95	71.7773	80.8016	71.7773	80.8919	71.7773	80.7314	71.7773	80.8316	71.7773	80.6639	71.7773	80.7714	71.7773	80.6022	71.7773	80.7137	71.7773	80.5486	71.7773	80.6602	71.7773	80.5049	71.7773	80.6122	71.7773	80.4718	71.7773	80.5704	71.7773	80.4494	71.7773	80.5348	71.7773	80.437	71.7773	80.5052	71.7773	80.4334	71.7773	80.4808	71.7773	80.437	71.7773	80.4613	71.7773	80.4466
74.707	81.8658	74.707	81.8529	74.707	81.8633	74.707	81.8252	74.707	81.8457	74.707	81.7835	74.707	81.8139	74.707	81.7299	74.707	81.7695	74.707	81.6664	74.707	81.7146	74.707	81.5959	74.707	81.6518	74.707	81.5215	74.707	81.5838	74.707	81.4464	74.707	81.5138	74.707	81.3736	74.707	81.4447	74.707	81.3062	74.707	81.3794	74.707	81.2465	74.707	81.3202	74.707	81.1964	74.707	81.2686	74.707	81.1569	74.707	81.2253	74.707	81.1286	74.707	81.1898	74.707	81.1108	74.707	81.1614	74.707	81.1027	74.707	81.1389	74.707	81.1027	74.707	81.1217	74.707	81.1094
77.6367	82.5709	77.6367	82.5489	77.6367	82.5774	77.6367	82.5122	77.6367	82.5686	77.6367	82.4621	77.6367	82.545	77.6367	82.4004	77.6367	82.5078	77.6367	82.3299	77.6367	82.459	77.6367	82.2533	77.6367	82.4006	77.6367	82.174	77.6367	82.3354	77.6367	82.0956	77.6367	82.2661	77.6367	82.0212	77.6367	82.1956	77.6367	81.954	77.6367	82.1267	77.6367	81.8963	77.6367	82.0618	77.6367	81.8495	77.6367	82.0028	77.6367	81.8144	77.6367	81.9508	77.6367	81.7909	77.6367	81.9061	77.6367	81.7782	77.6367	81.8686	77.6367	81.7754	77.6367	81.8375	77.6367	81.7809	77.6367	81.8126	77.6367	81.7936
79.1016	82.9401	79.1016	82.9179	79.1016	82.9471	79.1016	82.8811	79.1016	82.9389	79.1016	82.8309	79.1016	82.916	79.1016	82.769	79.1016	82.8795	79.1016	82.6975	79.1016	82.831	79.1016	82.6194	79.1016	82.7725	79.1016	82.5375	79.1016	82.7065	79.1016	82.4555	79.1016	82.6355	79.1016	82.3767	79.1016	82.5623	79.1016	82.3044	79.1016	82.4895	79.1016	82.2411	79.1016	82.4195	79.1016	82.189	79.1016	82.3543	79.1016	82.1489	79.1016	82.2955	79.1016	82.121	79.1016	82.2441	79.1016	82.1047	79.1016	82.2004	79.1016	82.0991	79.1016	82.1644	79.1016	82.1031	79.1016	82.1362	79.1016	82.1156
82.0312	83.5136	82.0312	83.499	82.0312	83.5161	82.0312	83.4721	82.0312	83.507	82.0312	83.4332	82.0312	83.4874	82.0312	83.3832	82.0312	83.4586	82.0312	83.3236	82.0312	83.4222	82.0312	83.2567	82.0312	83.3798	82.0312	83.185	82.0312	83.3326	82.0312	83.1118	82.0312	83.2819	82.0312	83.0403	82.0312	83.2285	82.0312	82.9736	82.0312	83.1732	82.0312	82.9146	82.0312	83.1168	82.0312	82.865	82.0312	83.0602	82.0312	82.8262	82.0312	83.0046	82.0312	82.7986	82.0312	82.9516	82.0312	82.7824	82.0312	82.903	82.0312	82.7774	82.0312	82.8605	82.0312	82.7833	82.0312	82.8256	82.0312	82.7995
84.9609	83.6118	84.9609	83.6333	84.9609	83.5873	84.9609	83.6518	84.9609	83.5606	84.9609	83.6676	84.9609	83.5331	84.9609	83.6815	84.9609	83.5068	84.9609	83.6944	84.9609	83.4845	84.9609	83.7076	84.9609	83.4695	84.9609	83.7225	84.9609	83.4649	84.9609	83.7407	84.9609	83.4733	84.9609	83.7638	84.9609	83.4959	84.9609	83.7925	84.9609	83.5325	84.9609	83.8269	84.9609	83.5811	84.9609	83.8654	84.9609	83.6387	84.9609	83.9047	84.9609	83.7016	84.9609	83.9403	84.9609	83.7658	84.9609	83.9674	84.9609	83.8275	84.9609	83.9816	84.9609	83.8832	84.9609	83.9801	84.9609	83.9292	84.9609	83.9623
87.8906	84.3101	87.8906	84.2724	87.8906	84.334	87.8906	84.2215	87.8906	84.3444	87.8906	84.1594	87.8906	84.3427	87.8906	84.0894	87.8906	84.331	87.8906	84.0159	87.8906	84.312	87.8906	83.944	87.8906	84.2888	87.8906	83.879	87.8906	84.2645	87.8906	83.826	87.8906	84.2422	87.8906	83.7894	87.8906	84.2244	87.8906	83.7719	87.8906	84.2126	87.8906	83.7748	87.8906	84.207	87.8906	83.7975	87.8906	84.2062	87.8906	83.8374	87.8906	84.2073	87.8906	83.8902	87.8906	84.2067	87.8906	83.9505	87.8906	84.2005	87.8906	84.0124	87.8906	84.1852	87.8906	84.0704	87.8906	84.1587	87.8906	84.12
90.8203	85.2375	90.8203	85.2436	90.8203	85.2069	90.8203	85.2241	90.8203	85.1544	90.8203	85.1793	90.8203	85.0835	90.8203	85.111	90.8203	84.9989	90.8203	85.0225	90.8203	84.906	90.8203	84.9182	90.8203	84.8101	90.8203	84.8036	90.8203	84.7166	90.8203	84.685	90.8203	84.6301	90.8203	84.5686	90.8203	84.554	90.8203	84.4605	90.8203	84.4902	90.8203	84.3657	90.8203	84.4386	90.8203	84.2884	90.8203	84.3975	90.8203	84.2309	90.8203	84.3637	90.8203	84.1943	90.8203	84.3339	90.8203	84.1775	90.8203	84.3049	90.8203	84.1782	90.8203	84.2753	90.8203	84.1927	90.8203	84.2451	90.8203	84.2164
95.2148	85.8638	95.2148	85.874	95.2148	85.8353	95.2148	85.866	95.2148	85.789	95.2148	85.8405	95.2148	85.7264	95.2148	85.7992	95.2148	85.6498	95.2148	85.7442	95.2148	85.5621	95.2148	85.6781	95.2148	85.4671	95.2148	85.6041	95.2148	85.3691	95.2148	85.5253	95.2148	85.2728	95.2148	85.445	95.2148	85.1828	95.2148	85.3661	95.2148	85.1035	95.2148	85.2911	95.2148	85.0381	95.2148	85.2219	95.2148	84.9883	95.2148	85.1596	95.2148	84.9542	95.2148	85.1048	95.2148	84.9345	95.2148	85.0577	95.2148	84.9272	95.2148	85.018	95.2148	84.9301	95.2148	84.9855	95.2148	84.9413	95.2148	84.96
98.1445	86.3622	98.1445	86.3516	98.1445	86.3499	98.1445	86.3193	98.1445	86.3145	98.1445	86.2677	98.1445	86.257	98.1445	86.2001	98.1445	86.1798	98.1445	86.12	98.1445	86.0865	98.1445	86.0317	98.1445	85.9815	98.1445	85.9394	98.1445	85.8698	98.1445	85.8473	98.1445	85.7571	98.1445	85.759	98.1445	85.6485	98.1445	85.6776	98.1445	85.5492	98.1445	85.6052	98.1445	85.4633	98.1445	85.5425	98.1445	85.3939	98.1445	85.4893	98.1445	85.3426	98.1445	85.4445	98.1445	85.3097	98.1445	85.4063	98.1445	85.2937	98.1445	85.3732	98.1445	85.2921	98.1445	85.3444	98.1445	85.302	98.1445	85.3202
101.074	86.6	101.074	86.5846	101.074	86.595	101.074	86.5496	101.074	86.5695	101.074	86.4969	101.074	86.5247	101.074	86.429	101.074	86.4624	101.074	86.3491	101.074	86.3856	101.074	86.2607	101.074	86.2981	101.074	86.168	101.074	86.2042	101.074	86.075	101.074	86.1087	101.074	85.9857	101.074	86.0162	101.074	85.9037	101.074	85.9306	101.074	85.832	101.074	85.8551	101.074	85.7724	101.074	85.7915	101.074	85.7256	101.074	85.7405	101.074	85.6911	101.074	85.7019	101.074	85.6672	101.074	85.6745	101.074	85.6522	101.074	85.6565	101.074	85.6443	101.074	85.6462	101.074	85.6424
105.469	86.8497	105.469	86.8444	105.469	86.8343	105.469	86.819	105.469	86.7986	105.469	86.7753	105.469	86.7446	105.469	86.7162	105.469	86.6753	105.469	86.6456	105.469	86.5949	105.469	86.5678	105.469	86.5086	105.469	86.488	105.469	86.4222	105.469	86.4112	105.469	86.3418	105.469	86.3423	105.469	86.2731	105.469	86.2856	105.469	86.2203	105.469	86.244	105.469	86.1861	105.469	86.2186	105.469	86.1704	105.469	86.2084	105.469	86.1709	105.469	86.2104	105.469	86.1832	105.469	86.2198	105.469	86.2017	105.469	86.2314	105.469	86.2206	105.469	86.2399	105.469	86.2349	105.469	86.2416
108.398	87.1567	108.398	87.1414	108.398	87.1507	108.398	87.106	108.398	87.1234	108.398	87.0526	108.398	87.0758	108.398	86.9841	108.398	87.01	108.398	86.9045	108.398	86.9296	108.398	86.8182	108.398	86.839	108.398	86.7303	108.398	86.7439	108.398	86.6458	108.398	86.6503	108.398	86.5698	108.398	86.5645	108.398	86.5065	108.398	86.492	108.398	86.4588	108.398	86.4369	108.398	86.4275	108.398	86.4009	108.398	86.4116	108.398	86.3834	108.398	86.4079	108.398	86.3813	108.398	86.4118	108.398	86.3895	108.398	86.4181	108.398	86.4022	108.398	86.4224	108.398	86.4141	108.398	86.4213
112.793	87.6886	112.793	87.6662	112.793	87.6847	112.793	87.619	112.793	87.6547	112.793	87.5494	112.793	87.5998	112.793	87.4611	112.793	87.5225	112.793	87.3589	112.793	87.4268	112.793	87.2484	112.793	87.3175	112.793	87.1361	112.793	87.2005	112.793	87.0281	112.793	87.0825	112.793	86.9304	112.793	86.97	112.793	86.8475	112.793	86.8692	112.793	86.7823	112.793	86.7849	112.793	86.7351	112.793	86.7201	112.793	86.7043	112.793	86.6757	112.793	86.6861	112.793	86.6499	112.793	86.6759	112.793	86.6395	112.793	86.6692	112.793	86.6399	112.793	86.6627	112.793	86.6464	112.793	86.6549
117.188	87.9332	117.188	87.9146	117.188	87.9272	117.188	87.8716	117.188	87.898	117.188	87.8056	117.188	87.8481	117.188	87.7194	117.188	87.7809	117.188	87.6172	117.188	87.7009	117.188	87.5042	117.188	87.613	117.188	87.3866	117.188	87.5226	117.188	87.2707	117.188	87.4347	117.188	87.163	117.188	87.3534	117.188	87.0694	117.188	87.282	117.188	86.9943	117.188	87.2219	117.188	86.9407	117.188	87.173	117.188	86.9091	117.188	87.1333	117.188	86.8981	117.188	87.1002	117.188	86.9043	117.188	87.0705	117.188	86.9233	117.188	87.0416	117.188	86.9502	117.188	87.0117	117.188	86.9807
120.117	88.0882	120.117	88.0895	120.117	88.0609	120.117	88.0647	120.117	88.009	120.117	88.0151	120.117	87.9355	120.117	87.9435	120.117	87.8443	120.117	87.854	120.117	87.7405	120.117	87.7518	120.117	87.6299	120.117	87.6426	120.117	87.5185	120.117	87.5322	120.117	87.4122	120.117	87.4265	120.117	87.3163	120.117	87.3303	120.117	87.2347	120.117	87.2473	120.117	87.1697	120.117	87.1797	120.117	87.1217	120.117	87.1282	120.117	87.089	120.117	87.0919	120.117	87.0688	120.117	87.0689	120.117	87.0576	120.117	87.056	120.117	87.0519	120.117	87.0501	120.117	87.0492	120.117	87.0485
124.512	88.326	124.512	88.3195	124.512	88.3066	124.512	88.2874	124.512	88.2623	124.512	88.2319	124.512	88.1958	124.512	88.1565	124.512	88.111	124.512	88.0664	124.512	88.013	124.512	87.9673	124.512	87.9076	124.512	87.8659	124.512	87.8008	124.512	87.7685	124.512	87.6989	124.512	87.6804	124.512	87.6071	124.512	87.6057	124.512	87.5298	124.512	87.5463	124.512	87.4701	124.512	87.5024	124.512	87.4287	124.512	87.4723	124.512	87.4048	124.512	87.4532	124.512	87.3953	124.512	87.4416	124.512	87.3961	124.512	87.4341	124.512	87.4029	124.512	87.4277	124.512	87.4119	124.512	87.4205
128.906	88.4805	128.906	88.4725	128.906	88.4619	128.906	88.4381	128.906	88.4178	128.906	88.3789	128.906	88.3509	128.906	88.298	128.906	88.2652	128.906	88.1999	128.906	88.1656	128.906	88.0904	128.906	88.0581	128.906	87.9762	128.906	87.9492	128.906	87.8646	128.906	87.8451	128.906	87.7626	128.906	87.7514	128.906	87.6761	128.906	87.6727	128.906	87.6087	128.906	87.6115	128.906	87.5614	128.906	87.5687	128.906	87.5328	128.906	87.5427	128.906	87.5194	128.906	87.5302	128.906	87.5167	128.906	87.5268	128.906	87.5198	128.906	87.5277	128.906	87.5246	128.906	87.5289	128.906	87.5281
133.301	88.4745	133.301	88.4722	133.301	88.4503	133.301	88.4444	133.301	88.4001	133.301	88.3935	133.301	88.3264	133.301	88.3236	133.301	88.2333	133.301	88.2395	133.301	88.1264	133.301	88.1472	133.301	88.0128	133.301	88.053	133.301	87.9002	133.301	87.9634	133.301	87.7969	133.301	87.8842	133.301	87.71	133.301	87.8202	133.301	87.6451	133.301	87.7742	133.301	87.6052	133.301	87.7467	133.301	87.5904	133.301	87.7354	133.301	87.5977	133.301	87.736	133.301	87.6214	133.301	87.7425	133.301	87.6543	133.301	87.7485	133.301	87.6888	133.301	87.7486	133.301	87.7186	133.301	87.7391
139.16	88.6762	139.16	88.6618	139.16	88.6607	139.16	88.6189	139.16	88.6157	139.16	88.5503	139.16	88.5434	139.16	88.4607	139.16	88.448	139.16	88.3559	139.16	88.3348	139.16	88.2427	139.16	88.2109	139.16	88.1286	139.16	88.0842	139.16	88.021	139.16	87.9631	139.16	87.9263	139.16	87.8554	139.16	87.8498	139.16	87.7679	139.16	87.7939	139.16	87.7049	139.16	87.7587	139.16	87.6677	139.16	87.7413	139.16	87.6545	139.16	87.737	139.16	87.6604	139.16	87.7398	139.16	87.6785	139.16	87.7439	139.16	87.7013	139.16	87.7442	139.16	87.7224	139.16	87.7373
143.555	88.6563	143.555	88.6448	143.555	88.6353	143.555	88.6015	143.555	88.5829	143.555	88.5296	143.555	88.5023	143.555	88.4339	143.555	88.3986	143.555	88.3214	143.555	88.2786	143.555	88.2	143.555	88.1505	143.555	88.0788	143.555	88.0229	143.555	87.9668	143.555	87.9045	143.555	87.8718	143.555	87.8031	143.555	87.7997	143.555	87.7246	143.555	87.7528	143.555	87.6723	143.555	87.7301	143.555	87.6466	143.555	87.7271	143.555	87.6445	143.555	87.737	143.555	87.6608	143.555	87.7519	143.555	87.688	143.555	87.7646	143.555	87.7185	143.555	87.7693	143.555	87.7452	143.555	87.763
147.949	88.6629	147.949	88.6476	147.949	88.6455	147.949	88.6011	147.949	88.596	147.949	88.5266	147.949	88.5167	147.949	88.429	147.949	88.4122	147.949	88.3149	147.949	88.2886	147.949	88.1921	147.949	88.154	147.949	88.0689	147.949	88.0174	147.949	87.9539	147.949	87.8887	147.949	87.8551	147.949	87.7768	147.949	87.7785	147.949	87.6888	147.949	87.7275	147.949	87.6291	147.949	87.7016	147.949	87.5983	147.949	87.6968	147.949	87.5936	147.949	87.7059	147.949	87.6094	147.949	87.7204	147.949	87.6382	147.949	87.7321	147.949	87.6718	147.949	87.7346	147.949	87.7027	147.949	87.7248
153.809	88.6075	153.809	88.5862	153.809	88.5955	153.809	88.5327	153.809	88.5512	153.809	88.4498	153.809	88.4774	153.809	88.3425	153.809	88.3786	153.809	88.2178	153.809	88.2611	153.809	88.0839	153.809	88.1329	153.809	87.9504	153.809	88.0028	153.809	87.8268	153.809	87.8806	153.809	87.7221	153.809	87.7754	153.809	87.6429	153.809	87.6945	153.809	87.5931	153.809	87.6423	153.809	87.5729	153.809	87.6191	153.809	87.5785	153.809	87.6209	153.809	87.6031	153.809	87.6403	153.809	87.6377	153.809	87.6679	153.809	87.6727	153.809	87.6942	153.809	87.7	153.809	87.7112	153.809	87.7136
159.668	88.7801	159.668	88.7614	159.668	88.7599	159.668	88.7053	159.668	88.7023	159.668	88.6155	159.668	88.6113	159.668	88.498	159.668	88.493	159.668	88.361	159.668	88.3559	159.668	88.214	159.668	88.2097	159.668	88.0676	159.668	88.0645	159.668	87.932	159.668	87.9302	159.668	87.8162	159.668	87.8154	159.668	87.7269	159.668	87.7262	159.668	87.6674	159.668	87.666	159.668	87.6372	159.668	87.6346	159.668	87.6322	159.668	87.6285	159.668	87.6453	159.668	87.6412	159.668	87.6681	159.668	87.6642	159.668	87.6918	159.668	87.6889	159.668	87.7091	159.668	87.7075	159.668	87.7149
165.527	88.8079	165.527	88.7883	165.527	88.788	165.527	88.7306	165.527	88.7296	165.527	88.6386	165.527	88.6362	165.527	88.5186	165.527	88.5141	165.527	88.3789	165.527	88.372	165.527	88.2295	165.527	88.2207	165.527	88.0813	165.527	88.0722	165.527	87.9457	165.527	87.9388	165.527	87.8323	165.527	87.8308	165.527	87.7484	165.527	87.7548	165.527	87.6976	165.527	87.7131	165.527	87.6791	165.527	87.7029	165.527	87.688	165.527	87.7175	165.527	87.7163	165.527	87.7475	165.527	87.7544	165.527	87.7827	165.527	87.7923	165.527	87.8138	165.527	87.8216	165.527	87.8331	165.527	87.8361
171.387	88.6881	171.387	88.6649	171.387	88.6694	171.387	88.6023	171.387	88.6093	171.387	88.5047	171.387	88.5106	171.387	88.3792	171.387	88.3793	171.387	88.2344	171.387	88.2244	171.387	88.0811	171.387	88.0576	171.387	87.9307	171.387	87.8927	171.387	87.7946	171.387	87.7442	171.387	87.6829	171.387	87.6251	171.387	87.603	171.387	87.5446	171.387	87.558	171.387	87.506	171.387	87.5465	171.387	87.5062	171.387	87.5629	171.387	87.5366	171.387	87.5984	171.387	87.5851	171.387	87.6425	171.387	87.6387	171.387	87.6844	171.387	87.6855	171.387	87.7147	171.387	87.7165	171.387	87.7266
177.246	88.5713	177.246	88.5533	177.246	88.5436	177.246	88.4909	177.246	88.4717	177.246	88.3882	177.246	88.3599	177.246	88.2525	177.246	88.2155	177.246	88.0936	177.246	88.0483	177.246	87.9238	177.246	87.8705	177.246	87.7567	177.246	87.6961	177.246	87.6057	177.246	87.5395	177.246	87.4826	177.246	87.4135	177.246	87.3952	177.246	87.327	177.246	87.3461	177.246	87.2832	177.246	87.3324	177.246	87.2788	177.246	87.3469	177.246	87.3052	177.246	87.3794	177.246	87.3504	177.246	87.4191	177.246	87.4015	177.246	87.4559	177.246	87.4468	177.246	87.4814	177.246	87.4778	177.246	87.4896
183.105	88.3799	183.105	88.3761	183.105	88.3342	183.105	88.3239	183.105	88.2407	183.105	88.2271	183.105	88.1035	183.105	88.0926	183.105	87.9301	183.105	87.9306	183.105	87.731	183.105	87.7536	183.105	87.5201	183.105	87.5764	183.105	87.3143	183.105	87.414	183.105	87.1316	183.105	87.28	183.105	86.9894	183.105	87.1837	183.105	86.8997	183.105	87.1291	183.105	86.8671	183.105	87.1135	183.105	86.8868	183.105	87.129	183.105	86.9458	183.105	87.1644	183.105	87.0268	183.105	87.2068	183.105	87.112	183.105	87.2444	183.105	87.1864	183.105	87.2669	183.105	87.2397	183.105	87.2666
188.965	88.2868	188.965	88.2783	188.965	88.2439	188.965	88.2194	188.965	88.1512	188.965	88.1137	188.965	88.0132	188.965	87.9678	188.965	87.8372	188.965	87.7913	188.965	87.6338	188.965	87.5969	188.965	87.4169	188.965	87.4002	188.965	87.2026	188.965	87.2176	188.965	87.0077	188.965	87.0647	188.965	86.8476	188.965	86.9533	188.965	86.7335	188.965	86.8882	188.965	86.6708	188.965	86.8667	188.965	86.6583	188.965	86.8794	188.965	86.6883	188.965	86.9127	188.965	86.7482	188.965	86.9518	188.965	86.8225	188.965	86.9839	188.965	86.8955	188.965	86.9986	188.965	86.954	188.965	86.9894
196.289	88.2877	196.289	88.2853	196.289	88.2331	196.289	88.2277	196.289	88.1224	196.289	88.1192	196.289	87.9597	196.289	87.9672	196.289	87.7531	196.289	87.7818	196.289	87.515	196.289	87.5757	196.289	87.2627	196.289	87.3641	196.289	87.0172	196.289	87.1629	196.289	86.801	196.289	86.9873	196.289	86.6334	196.289	86.8496	196.289	86.5259	196.289	86.7568	196.289	86.4791	196.289	86.7088	196.289	86.4836	196.289	86.6985	196.289	86.5236	196.289	86.7137	196.289	86.5826	196.289	86.7402	196.289	86.6461	196.289	86.7646	196.289	86.7032	196.289	86.777	196.289	86.7466	196.289	86.7717
203.613	88.4358	203.613	88.4047	203.613	88.398	203.613	88.3107	203.613	88.2888	203.613	88.1632	203.613	88.1092	203.613	87.9748	203.613	87.8644	203.613	87.7607	203.613	87.5641	203.613	87.5377	203.613	87.2244	203.613	87.3226	203.613	86.8682	203.613	87.1305	203.613	86.5254	203.613	86.9726	203.613	86.2302	203.613	86.8551	203.613	86.0145	203.613	86.7781	203.613	85.8987	203.613	86.7366	203.613	85.8852	203.613	86.7215	203.613	85.9571	203.613	86.721	203.613	86.0855	203.613	86.722	203.613	86.2384	203.613	86.7116	203.613	86.3887	203.613	86.6787	203.613	86.5177	203.613	86.6152
210.938	88.3012	210.938	88.2382	210.938	88.3014	210.938	88.1147	210.938	88.2391	210.938	87.9365	210.938	88.1173	210.938	87.7135	210.938	87.9414	210.938	87.4599	210.938	87.7197	210.938	87.1945	210.938	87.4642	210.938	86.9396	210.938	87.1902	210.938	86.7181	210.938	86.9172	210.938	86.5497	210.938	86.6662	210.938	86.4457	210.938	86.4578	210.938	86.4058	210.938	86.3073	210.938	86.4178	210.938	86.2218	210.938	86.4613	210.938	86.1987	210.938	86.5139	210.938	86.227	210.938	86.5559	210.938	86.2905	210.938	86.5737	210.938	86.3711	210.938	86.5613	210.938	86.4519	210.938	86.5187
218.262	88.0776	218.262	88.0235	218.262	88.0726	218.262	87.9127	218.262	88.009	218.262	87.7497	218.262	87.8899	218.262	87.5422	218.262	87.721	218.262	87.301	218.262	87.5114	218.262	87.0409	218.262	87.2739	218.262	86.7806	218.262	87.0255	218.262	86.542	218.262	86.787	218.262	86.3474	218.262	86.5811	218.262	86.2149	218.262	86.428	218.262	86.154	218.262	86.3398	218.262	86.1617	218.262	86.3165	218.262	86.2237	218.262	86.3461	218.262	86.318	218.262	86.4089	218.262	86.4207	218.262	86.483	218.262	86.511	218.262	86.549	218.262	86.574	218.262	86.5917	218.262	86.6015
225.586	87.8974	225.586	87.8311	225.586	87.8955	225.586	87.698	225.586	87.828	225.586	87.5042	225.586	87.7009	225.586	87.2608	225.586	87.5229	225.586	86.9842	225.586	87.3054	225.586	86.6951	225.586	87.063	225.586	86.4176	225.586	86.8132	225.586	86.1761	225.586	86.5769	225.586	85.9923	225.586	86.3769	225.586	85.8816	225.586	86.2335	225.586	85.8501	225.586	86.1594	225.586	85.8922	225.586	86.1546	225.586	85.9918	225.586	86.2059	225.586	86.1248	225.586	86.291	225.586	86.2648	225.586	86.3847	225.586	86.3877	225.586	86.4644	225.586	86.4755	225.586	86.5125	225.586	86.5178
232.91	87.9033	232.91	87.8291	232.91	87.9029	232.91	87.6806	232.91	87.8315	232.91	87.4616	232.91	87.6955	232.91	87.1804	232.91	87.5051	232.91	86.8503	232.91	87.2735	232.91	86.4909	232.91	87.0173	232.91	86.1284	232.91	86.7557	232.91	85.7944	232.91	86.51	232.91	85.5231	232.91	86.3012	232.91	85.3442	232.91	86.1475	232.91	85.2753	232.91	86.0592	232.91	85.3154	232.91	86.0357	232.91	85.4443	232.91	86.0652	232.91	85.6283	232.91	86.1272	232.91	85.8293	232.91	86.1975	232.91	86.0131	232.91	86.2526	232.91	86.1552	232.91	86.2724	232.91	86.2423
241.699	87.7536	241.699	87.723	241.699	87.7082	241.699	87.6162	241.699	87.5905	241.699	87.4368	241.699	87.4087	241.699	87.1917	241.699	87.1747	241.699	86.8922	241.699	86.9039	241.699	86.5547	241.699	86.6149	241.699	86.2015	241.699	86.3291	241.699	85.8599	241.699	86.0706	241.699	85.5597	241.699	85.8636	241.699	85.3292	241.699	85.7286	241.699	85.1908	241.699	85.6757	241.699	85.1576	241.699	85.7003	241.699	85.228	241.699	85.783	241.699	85.3827	241.699	85.8958	241.699	85.5864	241.699	86.0079	241.699	85.7956	241.699	86.0909	241.699	85.97	241.699	86.1209	241.699	86.0821
250.488	87.5741	250.488	87.5678	250.488	87.493	250.488	87.4761	250.488	87.3273	250.488	87.3032	250.488	87.0854	250.488	87.056	250.488	86.7826	250.488	86.7449	250.488	86.4406	250.488	86.3865	250.488	86.0852	250.488	86.0059	250.488	85.7436	250.488	85.6364	250.488	85.4422	250.488	85.315	250.488	85.2062	250.488	85.0729	250.488	85.0576	250.488	84.9281	250.488	85.0101	250.488	84.8822	250.488	85.0601	250.488	84.9237	250.488	85.1829	250.488	85.0327	250.488	85.3384	250.488	85.1837	250.488	85.4837	250.488	85.3466	250.488	85.5848	250.488	85.4902	250.488	85.6215	250.488	85.5878
259.277	87.4774	259.277	87.4749	259.277	87.4046	259.277	87.3992	259.277	87.256	259.277	87.254	259.277	87.0344	259.277	87.0447	259.277	86.7486	259.277	86.7799	259.277	86.4152	259.277	86.4723	259.277	86.0595	259.277	86.1405	259.277	85.7137	259.277	85.8104	259.277	85.41	259.277	85.5134	259.277	85.1746	259.277	85.2807	259.277	85.024	259.277	85.1329	259.277	84.9643	259.277	85.0729	259.277	84.9919	259.277	85.0872	259.277	85.0905	259.277	85.1541	259.277	85.2303	259.277	85.2517	259.277	85.3726	259.277	85.3597	259.277	85.4812	259.277	85.457	259.277	85.5326	259.277	85.5212
268.066	87.0929	268.066	87.0765	268.066	87.0281	268.066	86.9869	268.066	86.8763	268.066	86.8342	268.066	86.634	268.066	86.6299	268.066	86.3027	268.066	86.3873	268.066	85.8917	268.066	86.1218	268.066	85.4229	268.066	85.8516	268.066	84.9346	268.066	85.5979	268.066	84.48	268.066	85.383	268.066	84.1178	268.066	85.2257	268.066	83.8948	268.066	85.1356	268.066	83.8315	268.066	85.1093	268.066	83.9169	268.066	85.1312	268.066	84.1149	268.066	85.1791	268.066	84.3761	268.066	85.2297	268.066	84.6498	268.066	85.2623	268.066	84.8941	268.066	85.2584	268.066	85.0817	268.066	85.2021
276.855	87.0986	276.855	87.0393	276.855	87.0767	276.855	86.8973	276.855	86.9748	276.855	86.6745	276.855	86.7902	276.855	86.379	276.855	86.5176	276.855	86.0255	276.855	86.1552	276.855	85.6348	276.855	85.7148	276.855	85.2357	276.855	85.2306	276.855	84.8653	276.855	84.7599	276.855	84.5661	276.855	84.3678	276.855	84.3731	276.855	84.1018	276.855	84.2978	276.855	83.9729	276.855	84.3207	276.855	83.9618	276.855	84.4028	276.855	84.0383	276.855	84.504	276.855	84.1729	276.855	84.597	276.855	84.3356	276.855	84.6658	276.855	84.4933	276.855	84.6991	276.855	84.616	276.855	84.6853
287.109	87.0722	287.109	87.0338	287.109	87.0119	287.109	86.8933	287.109	86.8676	287.109	86.6595	287.109	86.6593	287.109	86.3516	287.109	86.4027	287.109	85.9946	287.109	86.0997	287.109	85.6126	287.109	85.7381	287.109	85.2241	287.109	85.305	287.109	84.8437	287.109	84.8094	287.109	84.4928	287.109	84.3001	287.109	84.2098	287.109	83.8633	287.109	84.0454	287.109	83.5858	287.109	84.0324	287.109	83.5037	287.109	84.1526	287.109	83.585	287.109	84.3386	287.109	83.7633	287.109	84.5108	287.109	83.9799	287.109	84.6123	287.109	84.1972	287.109	84.6205	287.109	84.3914	287.109	84.5403
297.363	86.7894	297.363	86.7192	297.363	86.7414	297.363	86.5416	297.363	86.5731	297.363	86.2696	297.363	86.2976	297.363	85.9161	297.363	85.945	297.363	85.4974	297.363	85.5551	297.363	85.0403	297.363	85.1612	297.363	84.5872	297.363	84.7781	297.363	84.1897	297.363	84.4064	297.363	83.891	297.363	84.0554	297.363	83.7095	297.363	83.761	297.363	83.6406	297.363	83.5783	297.363	83.6718	297.363	83.5449	297.363	83.7894	297.363	83.6503	297.363	83.9707	297.363	83.844	297.363	84.1763	297.363	84.0667	297.363	84.3571	297.363	84.2706	297.363	84.4704	297.363	84.421	297.363	84.4925
307.617	86.8486	307.617	86.8097	307.617	86.7818	307.617	86.663	307.617	86.6069	307.617	86.4078	307.617	86.3186	307.617	86.0507	307.617	85.9181	307.617	85.6089	307.617	85.4273	307.617	85.1103	307.617	84.8962	307.617	84.5924	307.617	84.3917	307.617	84.1011	307.617	83.9693	307.617	83.6843	307.617	83.6494	307.617	83.3817	307.617	83.427	307.617	83.2152	307.617	83.3	307.617	83.1885	307.617	83.2802	307.617	83.2902	307.617	83.3725	307.617	83.4899	307.617	83.5527	307.617	83.7353	307.617	83.7705	307.617	83.9624	307.617	83.9719	307.617	84.1163	307.617	84.114	307.617	84.1677
319.336	86.5742	319.336	86.5046	319.336	86.5499	319.336	86.3449	319.336	86.4263	319.336	86.0973	319.336	86.1959	319.336	85.7617	319.336	85.8501	319.336	85.3371	319.336	85.3838	319.336	84.8275	319.336	84.8066	319.336	84.2536	319.336	84.1576	319.336	83.6675	319.336	83.5171	319.336	83.1604	319.336	82.9961	319.336	82.8379	319.336	82.6949	319.336	82.7596	319.336	82.6515	319.336	82.8969	319.336	82.8301	319.336	83.1618	319.336	83.1528	319.336	83.4707	319.336	83.5329	319.336	83.7727	319.336	83.8923	319.336	84.0382	319.336	84.1689	319.336	84.239	319.336	84.3235	319.336	84.3432
329.59	86.508	329.59	86.455	329.59	86.4654	329.59	86.3062	329.59	86.3285	329.59	86.064	329.59	86.0976	329.59	85.735	329.59	85.7698	329.59	85.3301	329.59	85.3388	329.59	84.863	329.59	84.8002	329.59	84.3484	329.59	84.164	329.59	83.8056	329.59	83.472	329.59	83.2713	329.59	82.8126	329.59	82.8123	329.59	82.3123	329.59	82.518	329.59	82.0833	329.59	82.4537	329.59	82.1517	329.59	82.6063	329.59	82.4408	329.59	82.8885	329.59	82.8263	329.59	83.1965	329.59	83.1982	329.59	83.4569	329.59	83.4859	329.59	83.6316	329.59	83.656	329.59	83.7021
341.309	86.3022	341.309	86.2277	341.309	86.2497	341.309	86.0291	341.309	86.0738	341.309	85.7151	341.309	85.7858	341.309	85.3004	341.309	85.4033	341.309	84.8081	341.309	84.9467	341.309	84.2719	341.309	84.4354	341.309	83.7347	341.309	83.8895	341.309	83.2419	341.309	83.3382	341.309	82.8309	341.309	82.8319	341.309	82.526	341.309	82.4432	341.309	82.3437	341.309	82.2463	341.309	82.2982	341.309	82.2745	341.309	82.3956	341.309	82.4921	341.309	82.6153	341.309	82.8105	341.309	82.9041	341.309	83.1321	341.309	83.1919	341.309	83.3835	341.309	83.4156	341.309	83.5227	341.309	83.5328
353.027	86.4515	353.027	86.3598	353.027	86.4121	353.027	86.1419	353.027	86.2395	353.027	85.804	353.027	85.9352	353.027	85.353	353.027	85.505	353.027	84.7986	353.027	84.958	353.027	84.1582	353.027	84.3088	353.027	83.4658	353.027	83.5826	353.027	82.7815	353.027	82.8262	353.027	82.1963	353.027	82.1169	353.027	81.8119	353.027	81.56	353.027	81.6911	353.027	81.2561	353.027	81.8154	353.027	81.2507	353.027	82.1022	353.027	81.5069	353.027	82.458	353.027	81.9291	353.027	82.8088	353.027	82.4057	353.027	83.0976	353.027	82.8374	353.027	83.2744	353.027	83.1495	353.027	83.2985
366.211	86.4117	366.211	86.3034	366.211	86.3922	366.211	86.0608	366.211	86.2572	366.211	85.6897	366.211	86.017	366.211	85.2065	366.211	85.6741	366.211	84.6324	366.211	85.2235	366.211	83.9874	366.211	84.6565	366.211	83.2916	366.211	83.968	366.211	82.5784	366.211	83.1685	366.211	81.9146	366.211	82.3043	366.211	81.4087	366.211	81.4794	366.211	81.1753	366.211	80.8532	366.211	81.2532	366.211	80.5755	366.211	81.5587	366.211	80.6791	366.211	81.9428	366.211	81.0535	366.211	82.28	366.211	81.5327	366.211	82.5031	366.211	81.9825	366.211	82.5884	366.211	82.3255	366.211	82.5298
379.395	86.5415	379.395	86.4872	379.395	86.4855	379.395	86.3149	379.395	86.3251	379.395	86.0154	379.395	86.0666	379.395	85.5816	379.395	85.7197	379.395	85.0139	379.395	85.2969	379.395	84.3272	379.395	84.8111	379.395	83.5585	379.395	84.2753	379.395	82.7748	379.395	83.7056	379.395	82.0716	379.395	83.1272	379.395	81.5556	379.395	82.5818	379.395	81.3067	379.395	82.1298	379.395	81.3379	379.395	81.8388	379.395	81.585	379.395	81.7514	379.395	81.9377	379.395	81.854	379.395	82.2861	379.395	82.0791	379.395	82.5502	379.395	82.3396	379.395	82.6873	379.395	82.5598	379.395	82.6864
392.578	86.3256	392.578	86.2584	392.578	86.274	392.578	86.0768	392.578	86.0983	392.578	85.7818	392.578	85.7993	392.578	85.3718	392.578	85.3864	392.578	84.8486	392.578	84.8771	392.578	84.2206	392.578	84.2944	392.578	83.5035	392.578	83.6679	392.578	82.7214	392.578	83.041	392.578	81.9194	392.578	82.4781	392.578	81.1897	392.578	82.06	392.578	80.6878	392.578	81.8543	392.578	80.5756	392.578	81.8761	392.578	80.8861	392.578	82.0748	392.578	81.4718	392.578	82.365	392.578	82.1156	392.578	82.6665	392.578	82.6496	392.578	82.9223	392.578	82.9911	392.578	83.0901	392.578	83.1279
405.762	86.134	405.762	86.0807	405.762	86.0629	405.762	85.9015	405.762	85.8661	405.762	85.5913	405.762	85.5412	405.762	85.1408	405.762	85.0862	405.762	84.5423	405.762	84.5014	405.762	83.8013	405.762	83.793	405.762	82.954	405.762	82.9794	405.762	82.0827	405.762	82.1062	405.762	81.3139	405.762	81.2704	405.762	80.7787	405.762	80.6331	405.762	80.5522	405.762	80.366	405.762	80.6259	405.762	80.5205	405.762	80.9308	405.762	80.9672	405.762	81.3675	405.762	81.5045	405.762	81.8263	405.762	81.9822	405.762	82.2129	405.762	82.33	405.762	82.4697	405.762	82.5284	405.762	82.5755
420.41	86.2696	420.41	86.2015	420.41	86.2023	420.41	85.9951	420.41	86.0111	420.41	85.6631	420.41	85.7049	420.41	85.2289	420.41	85.2843	420.41	84.7103	420.41	84.747	420.41	84.1029	420.41	84.0964	420.41	83.3796	420.41	83.3458	420.41	82.5212	420.41	82.5154	420.41	81.5757	420.41	81.6345	420.41	80.7188	420.41	80.768	420.41	80.214	420.41	80.0643	420.41	80.1946	420.41	79.7499	420.41	80.5331	420.41	79.959	420.41	81.0166	420.41	80.5596	420.41	81.5097	420.41	81.2713	420.41	81.9411	420.41	81.872	420.41	82.2491	420.41	82.2491	420.41	82.3688
435.059	85.5106	435.059	85.4321	435.059	85.4666	435.059	85.2493	435.059	85.2922	435.059	84.9761	435.059	84.9926	435.059	84.6077	435.059	84.5764	435.059	84.1211	435.059	84.0428	435.059	83.4898	435.059	83.3786	435.059	82.7022	435.059	82.5731	435.059	81.772	435.059	81.6475	435.059	80.7492	435.059	80.6873	435.059	79.7559	435.059	79.8582	435.059	79.0294	435.059	79.3603	435.059	78.8461	435.059	79.3128	435.059	79.2628	435.059	79.6722	435.059	80.0323	435.059	80.2786	435.059	80.8459	435.059	80.9499	435.059	81.5068	435.059	81.5347	435.059	81.9246	435.059	81.9273	435.059	82.0657
451.172	87.1093	451.172	87.0271	451.172	87.0694	451.172	86.8272	451.172	86.898	451.172	86.5125	451.172	86.5851	451.172	86.0883	451.172	86.1296	451.172	85.5582	451.172	85.544	451.172	84.9178	451.172	84.8482	451.172	84.1563	451.172	84.0581	451.172	83.2741	451.172	83.1855	451.172	82.3139	451.172	82.2575	451.172	81.3948	451.172	81.3557	451.172	80.7218	451.172	80.6527	451.172	80.5099	451.172	80.3719	451.172	80.8148	451.172	80.6101	451.172	81.457	451.172	81.2134	451.172	82.1629	451.172	81.9162	451.172	82.7275	451.172	82.522	451.172	83.0541	451.172	82.9362	451.172	83.1203
465.82	86.9602	465.82	86.8695	465.82	86.9102	465.82	86.6248	465.82	86.7196	465.82	86.2125	465.82	86.3804	465.82	85.6364	465.82	85.8921	465.82	84.9243	465.82	85.2688	465.82	84.1204	465.82	84.5281	465.82	83.2704	465.82	83.677	465.82	82.4105	465.82	82.7167	465.82	81.562	465.82	81.6754	465.82	80.7471	465.82	80.6587	465.82	80.038	465.82	79.8747	465.82	79.6169	465.82	79.5548	465.82	79.7072	465.82	79.7693	465.82	80.3051	465.82	80.3622	465.82	81.1154	465.82	81.09	465.82	81.8268	465.82	81.7506	465.82	82.2724	465.82	82.2126	465.82	82.3994
483.398	86.8129	483.398	86.7293	483.398	86.7646	483.398	86.5292	483.398	86.579	483.398	86.2274	483.398	86.2593	483.398	85.8218	483.398	85.8094	483.398	85.285	483.398	85.2294	483.398	84.5776	483.398	84.5151	483.398	83.6741	483.398	83.6652	483.398	82.5902	483.398	82.69	483.398	81.404	483.398	81.6237	483.398	80.2754	483.398	80.5431	483.398	79.4444	483.398	79.6052	483.398	79.1319	483.398	79.0574	483.398	79.3561	483.398	79.1009	483.398	79.9185	483.398	79.6632	483.398	80.582	483.398	80.4396	483.398	81.176	483.398	81.1389	483.398	81.5885	483.398	81.5942	483.398	81.743
499.512	86.6572	499.512	86.5046	499.512	86.6545	499.512	86.2263	499.512	86.4842	499.512	85.8527	499.512	86.1565	499.512	85.4012	499.512	85.6918	499.512	84.8688	499.512	85.1	499.512	84.2328	499.512	84.3727	499.512	83.4608	499.512	83.4959	499.512	82.5291	499.512	82.4749	499.512	81.4561	499.512	81.3589	499.512	80.3569	499.512	80.2664	499.512	79.4825	499.512	79.399	499.512	79.1247	499.512	78.9873	499.512	79.3563	499.512	79.1276	499.512	79.9558	499.512	79.6747	499.512	80.6316	499.512	80.3613	499.512	81.1846	499.512	80.9732	499.512	81.5145	499.512	81.3976	499.512	81.5853
517.09	87.0526	517.09	87.004	517.09	86.9497	517.09	86.7667	517.09	86.72	517.09	86.3196	517.09	86.3655	517.09	85.6794	517.09	85.8832	517.09	84.8959	517.09	85.2841	517.09	84.0269	517.09	84.585	517.09	83.1098	517.09	83.7823	517.09	82.1503	517.09	82.8487	517.09	81.1452	517.09	81.7771	517.09	80.1481	517.09	80.6539	517.09	79.355	517.09	79.7124	517.09	79.0676	517.09	79.2705	517.09	79.4105	517.09	79.4812	517.09	80.1759	517.09	80.178	517.09	81.0592	517.09	81.0512	517.09	81.8391	517.09	81.8409	517.09	82.3712	517.09	82.3767	517.09	82.5627
536.133	86.4811	536.133	86.3256	536.133	86.4634	536.133	86.0188	536.133	86.2544	536.133	85.5799	536.133	85.8543	536.133	85.0276	536.133	85.2886	536.133	84.3747	536.133	84.5938	536.133	83.6069	536.133	83.7933	536.133	82.6659	536.133	82.8803	536.133	81.4746	536.133	81.8179	536.133	80.0254	536.133	80.5636	536.133	78.522	536.133	79.1385	536.133	77.4512	536.133	77.781	536.133	77.2549	536.133	77.0758	536.133	77.8698	536.133	77.5012	536.133	78.9409	536.133	78.7242	536.133	80.1452	536.133	80.093	536.133	81.2127	536.133	81.2216	536.133	81.9346	536.133	81.9451	536.133	82.1907
555.176	87.4153	555.176	87.3289	555.176	87.3528	555.176	87.0915	555.176	87.1421	555.176	86.7021	555.176	86.7839	555.176	86.1541	555.176	86.2854	555.176	85.4254	555.176	85.6602	555.176	84.485	555.176	84.9093	555.176	83.3221	555.176	84.003	555.176	81.9628	555.176	82.8862	555.176	80.4422	555.176	81.5065	555.176	78.7723	555.176	79.8328	555.176	77.0568	555.176	77.8827	555.176	75.8866	555.176	75.9125	555.176	76.1738	555.176	74.8659	555.176	77.5546	555.176	75.6359	555.176	78.9583	555.176	77.3172	555.176	79.9219	555.176	78.8251	555.176	80.3791	555.176	79.8411	555.176	80.3509
574.219	88.0535	574.219	88.0237	574.219	87.966	574.219	87.8622	574.219	87.7577	574.219	87.5552	574.219	87.4119	574.219	87.1152	574.219	86.9123	574.219	86.5768	574.219	86.2496	574.219	85.9507	574.219	85.4251	574.219	85.1817	574.219	84.4504	574.219	84.1664	574.219	83.338	574.219	82.8168	574.219	82.0924	574.219	81.1072	574.219	80.725	574.219	79.0676	574.219	79.3065	574.219	76.7979	574.219	78.0292	574.219	74.7947	574.219	77.2135	574.219	74.3683	574.219	77.1227	574.219	75.6911	574.219	77.6401	574.219	77.2578	574.219	78.3232	574.219	78.3246	574.219	78.7804	574.219	78.8119
594.727	86.9511	594.727	86.8802	594.727	86.8709	594.727	86.6673	594.727	86.6658	594.727	86.3374	594.727	86.3771	594.727	85.9028	594.727	86.0184	594.727	85.3672	594.727	85.5571	594.727	84.7447	594.727	84.942	594.727	84.0492	594.727	84.1488	594.727	83.2534	594.727	83.1898	594.727	82.2939	594.727	82.0737	594.727	81.1565	594.727	80.7647	594.727	79.9704	594.727	79.2457	594.727	78.993	594.727	77.7536	594.727	78.456	594.727	76.9916	594.727	78.4687	594.727	77.4254	594.727	79.0042	594.727	78.494	594.727	79.8025	594.727	79.5471	594.727	80.4487	594.727	80.3112	594.727	80.6416
615.234	86.9824	615.234	86.8578	615.234	86.9589	615.234	86.6208	615.234	86.7631	615.234	86.3012	615.234	86.3924	615.234	85.9007	615.234	85.8716	615.234	85.3881	615.234	85.2436	615.234	84.7166	615.234	84.5352	615.234	83.8515	615.234	83.7202	615.234	82.7852	615.234	82.7295	615.234	81.5293	615.234	81.5248	615.234	80.1108	615.234	80.1689	615.234	78.6652	615.234	78.8116	615.234	77.6783	615.234	77.6533	615.234	77.7628	615.234	77.0311	615.234	78.6107	615.234	77.2541	615.234	79.4048	615.234	78.0518	615.234	79.8031	615.234	78.8574	615.234	79.861	615.234	79.4052	615.234	79.716
637.207	87.3106	637.207	87.1426	637.207	87.3598	637.207	86.8638	637.207	87.2522	637.207	86.4611	637.207	86.9569	637.207	85.9347	637.207	86.49	637.207	85.309	637.207	85.9044	637.207	84.6091	637.207	85.2353	637.207	83.8354	637.207	84.4599	637.207	82.9561	637.207	83.4975	637.207	81.8993	637.207	82.2515	637.207	80.5528	637.207	80.7125	637.207	78.8452	637.207	79.1283	637.207	77.0444	637.207	78.0736	637.207	76.1804	637.207	77.9725	637.207	76.9885	637.207	78.6534	637.207	78.5417	637.207	79.7218	637.207	79.9625	637.207	80.7691	637.207	80.9828	637.207	81.4255	637.207	81.4984
659.18	87.3867	659.18	87.3739	659.18	87.2268	659.18	87.1942	659.18	86.9309	659.18	86.8612	659.18	86.5703	659.18	86.3687	659.18	86.1852	659.18	85.7031	659.18	85.7298	659.18	84.8731	659.18	85.1126	659.18	83.9063	659.18	84.2929	659.18	82.8065	659.18	83.3113	659.18	81.5545	659.18	82.1866	659.18	80.1914	659.18	80.7774	659.18	78.8546	659.18	78.8293	659.18	77.7202	659.18	76.4755	659.18	77.1081	659.18	75.3815	659.18	77.5053	659.18	76.6367	659.18	78.7173	659.18	78.2482	659.18	79.8691	659.18	79.3279	659.18	80.4445	659.18	80.0109	659.18	80.4251
682.617	87.4736	682.617	87.3788	682.617	87.392	682.617	87.1063	682.617	87.1506	682.617	86.6793	682.617	86.7636	682.617	86.146	682.617	86.2433	682.617	85.56	682.617	85.6213	682.617	84.9235	682.617	84.9409	682.617	84.1556	682.617	84.1939	682.617	83.1409	682.617	83.2769	682.617	81.7949	682.617	82.0533	682.617	80.0706	682.617	80.4768	682.617	78.0229	682.617	78.6594	682.617	76.1911	682.617	76.8128	682.617	75.7536	682.617	75.3321	682.617	76.7884	682.617	75.2226	682.617	78.1694	682.617	76.7744	682.617	79.2907	682.617	78.5817	682.617	79.9931	682.617	79.7591	682.617	80.1907
707.52	87.2404	707.52	87.1625	707.52	87.2526	707.52	87.0052	707.52	87.1591	707.52	86.7125	707.52	86.909	707.52	86.2435	707.52	86.4827	707.52	85.6125	707.52	85.8922	707.52	84.8856	707.52	85.1686	707.52	84.136	707.52	84.3595	707.52	83.3623	707.52	83.4881	707.52	82.4299	707.52	82.4923	707.52	81.1261	707.52	81.2662	707.52	79.318	707.52	79.7951	707.52	77.2101	707.52	78.2573	707.52	75.7355	707.52	77.0903	707.52	75.8883	707.52	76.8426	707.52	77.105	707.52	77.5668	707.52	78.4585	707.52	78.6915	707.52	79.4808	707.52	79.5939	707.52	79.8961
732.422	87.5279	732.422	87.4084	732.422	87.4533	732.422	87.0914	732.422	87.2144	732.422	86.6183	732.422	86.8362	732.422	86.0628	732.422	86.3277	732.422	85.4849	732.422	85.6995	732.422	84.874	732.422	84.9845	732.422	84.1369	732.422	84.2276	732.422	83.1613	732.422	83.4427	732.422	81.8967	732.422	82.5545	732.422	80.3594	732.422	81.3724	732.422	78.5421	732.422	79.659	732.422	76.4218	732.422	77.4007	732.422	74.632	732.422	75.4563	732.422	75.0086	732.422	75.3413	732.422	77.0175	732.422	76.6284	732.422	78.7586	732.422	78.0929	732.422	79.703	732.422	79.2445	732.422	79.8368
757.324	87.6495	757.324	87.4305	757.324	87.6239	757.324	87.0573	757.324	87.3133	757.324	86.5936	757.324	86.7916	757.324	86.0648	757.324	86.2068	757.324	85.486	757.324	85.6469	757.324	84.8711	757.324	85.0677	757.324	84.2178	757.324	84.3804	757.324	83.4815	757.324	83.5584	757.324	82.5367	757.324	82.6055	757.324	81.1777	757.324	81.4439	757.324	79.2483	757.324	79.9184	757.324	76.8473	757.324	78.0178	757.324	74.6895	757.324	76.3347	757.324	74.5597	757.324	76.175	757.324	76.6032	757.324	77.4823	757.324	78.6566	757.324	78.8771	757.324	79.8105	757.324	79.7691	757.324	80.1087
785.156	87.5742	785.156	87.4704	785.156	87.4952	785.156	87.1729	785.156	87.2605	785.156	86.6801	785.156	86.8655	785.156	85.9919	785.156	86.2719	785.156	85.1662	785.156	85.5054	785.156	84.3549	785.156	84.7086	785.156	83.6856	785.156	84.007	785.156	83.0999	785.156	83.3345	785.156	82.403	785.156	82.5029	785.156	81.4184	785.156	81.4044	785.156	80.011	785.156	80.0353	785.156	78.1082	785.156	78.3675	785.156	76.1456	785.156	76.5235	785.156	75.62	785.156	75.6447	785.156	76.7824	785.156	76.7001	785.156	78.1087	785.156	78.1593	785.156	78.9419	785.156	79.0139	785.156	79.2413
811.523	87.3541	811.523	87.2476	811.523	87.2154	811.523	86.8891	811.523	86.8622	811.523	86.3158	811.523	86.3437	811.523	85.6206	811.523	85.7213	811.523	84.9003	811.523	85.046	811.523	84.1656	811.523	84.3433	811.523	83.3606	811.523	83.6144	811.523	82.4653	811.523	82.8146	811.523	81.498	811.523	81.859	811.523	80.406	811.523	80.6923	811.523	79.0267	811.523	79.297	811.523	77.2805	811.523	77.6951	811.523	75.7394	811.523	76.2195	811.523	75.6925	811.523	75.8693	811.523	76.9892	811.523	77.0733	811.523	78.4988	811.523	78.7357	811.523	79.6745	811.523	79.8971	811.523	80.209
840.82	87.7418	840.82	87.5611	840.82	87.6591	840.82	87.1242	840.82	87.2835	840.82	86.4111	840.82	86.6551	840.82	85.4921	840.82	85.8618	840.82	84.5485	840.82	84.9437	840.82	83.7032	840.82	83.9247	840.82	82.9193	840.82	82.9251	840.82	82.1387	840.82	82.1009	840.82	81.3496	840.82	81.3994	840.82	80.4476	840.82	80.5142	840.82	79.1887	840.82	79.0903	840.82	77.362	840.82	76.9929	840.82	75.3822	840.82	74.9837	840.82	75.1659	840.82	74.9917	840.82	76.7765	840.82	76.666	840.82	78.3223	840.82	78.3464	840.82	79.339	840.82	79.4376	840.82	79.7603
870.117	87.4061	870.117	87.3221	870.117	87.2233	870.117	86.9527	870.117	86.8795	870.117	86.3853	870.117	86.3666	870.117	85.6511	870.117	85.5563	870.117	84.698	870.117	84.4685	870.117	83.5881	870.117	83.371	870.117	82.5733	870.117	82.4781	870.117	81.7625	870.117	81.6676	870.117	80.844	870.117	80.6905	870.117	79.4653	870.117	79.4872	870.117	77.6971	870.117	78.1021	870.117	75.9592	870.117	76.4359	870.117	74.5424	870.117	74.4997	870.117	73.9184	870.117	73.7388	870.117	75.1263	870.117	75.5111	870.117	77.2821	870.117	77.6459	870.117	78.8424	870.117	78.9611	870.117	79.3804
900.879	87.0655	900.879	86.9613	900.879	86.9734	900.879	86.6348	900.879	86.6013	900.879	85.9775	900.879	85.9633	900.879	85.0173	900.879	85.2017	900.879	83.9348	900.879	84.3303	900.879	82.808	900.879	83.1908	900.879	81.5647	900.879	81.7994	900.879	80.3448	900.879	80.497	900.879	79.5078	900.879	79.4858	900.879	78.918	900.879	78.4378	900.879	77.8386	900.879	76.9122	900.879	75.7884	900.879	74.9056	900.879	73.6245	900.879	73.2794	900.879	73.9017	900.879	73.5924	900.879	75.9483	900.879	75.6201	900.879	77.6597	900.879	77.6257	900.879	78.6854	900.879	78.802	900.879	79.0964
933.105	85.5356	933.105	85.4693	933.105	85.4285	933.105	85.2236	933.105	85.1774	933.105	84.7614	933.105	84.7808	933.105	84.052	933.105	84.1243	933.105	83.1768	933.105	83.1767	933.105	82.279	933.105	82.1873	933.105	81.4306	933.105	81.4074	933.105	80.5374	933.105	80.7491	933.105	79.5265	933.105	80.0598	933.105	78.4979	933.105	79.3437	933.105	77.4211	933.105	78.3998	933.105	75.7603	933.105	76.5785	933.105	73.0071	933.105	73.2011	933.105	71.7723	933.105	69.9924	933.105	74.7529	933.105	72.9671	933.105	77.4755	933.105	76.5047	933.105	78.8943	933.105	78.4693	933.105	79.2016
965.332	84.735	965.332	84.6234	965.332	84.6734	965.332	84.3251	965.332	84.3422	965.332	83.7772	965.332	83.7144	965.332	83.0122	965.332	82.9428	965.332	82.1369	965.332	82.1265	965.332	81.216	965.332	81.1134	965.332	80.2913	965.332	79.8245	965.332	79.3755	965.332	78.5917	965.332	78.3684	965.332	77.729	965.332	77.0551	965.332	76.9024	965.332	75.3276	965.332	75.6536	965.332	73.4771	965.332	74.1213	965.332	72.3459	965.332	72.7116	965.332	72.4716	965.332	72.0434	965.332	74.0818	965.332	73.7104	965.332	76.3831	965.332	76.2247	965.332	77.9525	965.332	77.781	965.332	78.3668
1,000.49	84.6806	1,000.49	84.4942	1,000.49	84.5173	1,000.49	83.9218	1,000.49	84.1528	1,000.49	83.2055	1,000.49	83.549	1,000.49	82.5712	1,000.49	82.6328	1,000.49	81.9634	1,000.49	81.6338	1,000.49	81.2688	1,000.49	80.8725	1,000.49	80.6085	1,000.49	80.2856	1,000.49	80.1629	1,000.49	79.6633	1,000.49	79.8592	1,000.49	79.0411	1,000.49	79.339	1,000.49	78.387	1,000.49	78.0496	1,000.49	77.1477	1,000.49	75.3912	1,000.49	74.2888	1,000.49	70.4916	1,000.49	68.0177	1,000.49	67.3257	1,000.49	66.0072	1,000.49	73.4212	1,000.49	73.3859	1,000.49	77.114	1,000.49	77.0598	1,000.49	78.7948	1,000.49	78.7654	1,000.49	79.2638
1,035.64	86.8804	1,035.64	86.7049	1,035.64	86.8487	1,035.64	86.2738	1,035.64	86.4755	1,035.64	85.4823	1,035.64	85.5807	1,035.64	84.2607	1,035.64	84.2318	1,035.64	82.6143	1,035.64	82.7631	1,035.64	80.8682	1,035.64	81.4204	1,035.64	79.7722	1,035.64	80.2792	1,035.64	79.6199	1,035.64	79.4771	1,035.64	79.6096	1,035.64	79.0899	1,035.64	79.0136	1,035.64	78.7132	1,035.64	77.8712	1,035.64	77.7607	1,035.64	76.2636	1,035.64	76.0999	1,035.64	73.4731	1,035.64	73.555	1,035.64	67.838	1,035.64	67.6541	1,035.64	69.0893	1,035.64	65.8013	1,035.64	74.658	1,035.64	73.5333	1,035.64	76.7129	1,035.64	75.9921	1,035.64	76.8074
1,072.27	86.5147	1,072.27	86.4406	1,072.27	86.1929	1,072.27	85.9647	1,072.27	85.7408	1,072.27	85.2681	1,072.27	85.1671	1,072.27	84.3706	1,072.27	84.2714	1,072.27	83.188	1,072.27	83.148	1,072.27	81.7315	1,072.27	81.857	1,072.27	80.2513	1,072.27	80.2874	1,072.27	79.1466	1,072.27	78.953	1,072.27	78.6658	1,072.27	78.5154	1,072.27	78.6822	1,072.27	78.2096	1,072.27	78.5627	1,072.27	77.1456	1,072.27	77.1399	1,072.27	75.4797	1,072.27	73.1031	1,072.27	73.4829	1,072.27	66.8899	1,072.27	70.7174	1,072.27	69.6043	1,072.27	69.552	1,072.27	73.703	1,072.27	73.1318	1,072.27	75.4232	1,072.27	75.4218	1,072.27	75.9278
1,108.89	86.842	1,108.89	86.7005	1,108.89	86.7268	1,108.89	86.4254	1,108.89	86.2107	1,108.89	85.8698	1,108.89	85.4503	1,108.89	84.9319	1,108.89	84.6084	1,108.89	83.6173	1,108.89	83.4792	1,108.89	81.9213	1,108.89	81.9102	1,108.89	80.2084	1,108.89	80.2124	1,108.89	78.9982	1,108.89	78.7095	1,108.89	78.2474	1,108.89	77.5013	1,108.89	77.6463	1,108.89	77.2579	1,108.89	76.7788	1,108.89	77.6266	1,108.89	75.3061	1,108.89	76.7579	1,108.89	72.9519	1,108.89	74.0155	1,108.89	69.2836	1,108.89	70.0781	1,108.89	70.2158	1,108.89	70.3173	1,108.89	74.9868	1,108.89	73.6123	1,108.89	76.9391	1,108.89	75.6674	1,108.89	76.8307
1,148.44	86.5229	1,148.44	86.5059	1,148.44	86.3181	1,148.44	86.2541	1,148.44	86.0935	1,148.44	85.7106	1,148.44	85.6874	1,148.44	84.784	1,148.44	84.692	1,148.44	83.7134	1,148.44	83.3538	1,148.44	82.5042	1,148.44	82.2309	1,148.44	80.774	1,148.44	81.1271	1,148.44	79.0659	1,148.44	79.6429	1,148.44	78.5139	1,148.44	78.5489	1,148.44	78.4301	1,148.44	78.4442	1,148.44	78.0113	1,148.44	77.8848	1,148.44	77.0624	1,148.44	76.2085	1,148.44	74.1805	1,148.44	73.8178	1,148.44	67.9584	1,148.44	69.1285	1,148.44	68.1251	1,148.44	69.2762	1,148.44	73.4743	1,148.44	74.7285	1,148.44	76.9874	1,148.44	77.0333	1,148.44	77.9723
1,189.45	87.5523	1,189.45	87.5407	1,189.45	87.389	1,189.45	87.2435	1,189.45	87.0305	1,189.45	86.6603	1,189.45	86.4247	1,189.45	85.7794	1,189.45	85.6032	1,189.45	84.5567	1,189.45	84.6657	1,189.45	83.1791	1,189.45	83.4531	1,189.45	81.7331	1,189.45	81.5153	1,189.45	80.1115	1,189.45	79.3222	1,189.45	78.5081	1,189.45	78.0758	1,189.45	77.5549	1,189.45	77.6651	1,189.45	77.0432	1,189.45	77.6246	1,189.45	76.2051	1,189.45	77.2004	1,189.45	73.9827	1,189.45	74.7584	1,189.45	68.8367	1,189.45	69.1165	1,189.45	66.5809	1,189.45	67.416	1,189.45	73.0552	1,189.45	72.7032	1,189.45	76.0634	1,189.45	75.829	1,189.45	76.8488
1,230.47	87.3316	1,230.47	87.2195	1,230.47	87.0934	1,230.47	86.9923	1,230.47	86.63	1,230.47	86.6086	1,230.47	86.1254	1,230.47	85.9109	1,230.47	85.341	1,230.47	84.876	1,230.47	84.2148	1,230.47	83.3805	1,230.47	82.8969	1,230.47	81.6327	1,230.47	81.289	1,230.47	80.0133	1,230.47	79.5094	1,230.47	78.82	1,230.47	78.0236	1,230.47	78.2333	1,230.47	77.3548	1,230.47	77.7742	1,230.47	77.1249	1,230.47	76.8772	1,230.47	76.3553	1,230.47	75.1556	1,230.47	74.35	1,230.47	71.0848	1,230.47	69.8415	1,230.47	69.9762	1,230.47	65.9735	1,230.47	74.375	1,230.47	73.9655	1,230.47	76.547	1,230.47	77.4032	1,230.47	77.7646
1,274.41	86.8012	1,274.41	86.8215	1,274.41	86.5788	1,274.41	86.8186	1,274.41	86.2102	1,274.41	86.5855	1,274.41	85.7976	1,274.41	85.8043	1,274.41	85.0949	1,274.41	84.5982	1,274.41	83.8758	1,274.41	83.2517	1,274.41	82.492	1,274.41	81.6301	1,274.41	81.1252	1,274.41	79.6113	1,274.41	79.1788	1,274.41	77.8831	1,274.41	77.3084	1,274.41	76.7054	1,274.41	76.6315	1,274.41	76.881	1,274.41	76.5673	1,274.41	76.9599	1,274.41	76.5405	1,274.41	74.6129	1,274.41	74.5457	1,274.41	69.5992	1,274.41	69.1196	1,274.41	66.7669	1,274.41	65.6534	1,274.41	73.2367	1,274.41	72.7323	1,274.41	76.5649	1,274.41	76.1149	1,274.41	77.06
1,319.82	86.1134	1,319.82	85.9248	1,319.82	86.0016	1,319.82	85.7484	1,319.82	85.4679	1,319.82	85.376	1,319.82	85.0139	1,319.82	84.823	1,319.82	84.531	1,319.82	84.2225	1,319.82	83.6309	1,319.82	83.3068	1,319.82	82.672	1,319.82	81.7927	1,319.82	81.6653	1,319.82	79.6693	1,319.82	79.8306	1,319.82	76.9799	1,319.82	77.495	1,319.82	75.5148	1,319.82	76.248	1,319.82	75.9475	1,319.82	76.33	1,319.82	75.5094	1,319.82	75.8704	1,319.82	73.7009	1,319.82	74.0741	1,319.82	66.8467	1,319.82	69.8832	1,319.82	64.7543	1,319.82	47.0091	1,319.82	72.7565	1,319.82	71.1768	1,319.82	76.3814	1,319.82	75.8701	1,319.82	77.6395
1,366.7	85.8225	1,366.7	85.567	1,366.7	85.5746	1,366.7	85.1391	1,366.7	85.002	1,366.7	84.9458	1,366.7	84.4403	1,366.7	84.449	1,366.7	84.1626	1,366.7	83.5464	1,366.7	83.4701	1,366.7	82.5056	1,366.7	82.4115	1,366.7	80.9352	1,366.7	81.4743	1,366.7	78.812	1,366.7	79.7751	1,366.7	77.2559	1,366.7	77.3814	1,366.7	76.3725	1,366.7	75.9962	1,366.7	76.0029	1,366.7	76.2877	1,366.7	76.5038	1,366.7	76.8467	1,366.7	75.0638	1,366.7	75.9131	1,366.7	69.7475	1,366.7	71.4888	1,366.7	57.1462	1,366.7	55.4156	1,366.7	70.3162	1,366.7	63.9408	1,366.7	75.5828	1,366.7	71.953	1,366.7	76.0259
1,413.57	86.0887	1,413.57	85.7526	1,413.57	86.2275	1,413.57	85.4858	1,413.57	86.0617	1,413.57	84.6695	1,413.57	85.4322	1,413.57	83.1521	1,413.57	84.5974	1,413.57	81.9309	1,413.57	83.4254	1,413.57	81.0768	1,413.57	81.5553	1,413.57	80.1717	1,413.57	80.0391	1,413.57	77.7825	1,413.57	78.7806	1,413.57	74.4506	1,413.57	76.6893	1,413.57	73.5185	1,413.57	74.5748	1,413.57	73.8769	1,413.57	72.8795	1,413.57	74.8661	1,413.57	73.8566	1,413.57	73.9418	1,413.57	75.0159	1,413.57	67.9559	1,413.57	72.0469	1,413.57	58.6054	1,413.57	57.6362	1,413.57	71.1584	1,413.57	68.3612	1,413.57	74.2276	1,413.57	72.6042	1,413.57	73.9783
1,463.38	86.9367	1,463.38	86.2081	1,463.38	86.6564	1,463.38	85.3712	1,463.38	86.1387	1,463.38	84.7938	1,463.38	85.3543	1,463.38	84.3001	1,463.38	83.7154	1,463.38	83.833	1,463.38	82.2863	1,463.38	82.5906	1,463.38	81.4134	1,463.38	81.2029	1,463.38	80.2392	1,463.38	79.9567	1,463.38	78.7132	1,463.38	76.82	1,463.38	76.9988	1,463.38	73.0718	1,463.38	75.379	1,463.38	71.4943	1,463.38	72.5711	1,463.38	72.6298	1,463.38	71.1956	1,463.38	73.3676	1,463.38	74.0004	1,463.38	72.1096	1,463.38	70.8244	1,463.38	68.5967	1,463.38	56.987	1,463.38	62.9867	1,463.38	64.4732	1,463.38	70.4512	1,463.38	71.628	1,463.38	72.8497
1,516.11	86.8148	1,516.11	86.8621	1,516.11	86.4236	1,516.11	85.9766	1,516.11	86.1687	1,516.11	85.167	1,516.11	85.339	1,516.11	84.4878	1,516.11	83.9572	1,516.11	84.0053	1,516.11	82.5479	1,516.11	83.2124	1,516.11	81.9656	1,516.11	81.2532	1,516.11	81.5495	1,516.11	80.016	1,516.11	80.1867	1,516.11	78.1816	1,516.11	78.2978	1,516.11	74.2859	1,516.11	76.881	1,516.11	72.2843	1,516.11	76.3413	1,516.11	72.8078	1,516.11	73.4307	1,516.11	74.5857	1,516.11	71.5628	1,516.11	72.9702	1,516.11	71.6602	1,516.11	66.3657	1,516.11	67.1546	1,516.11	61.2863	1,516.11	61.6394	1,516.11	69.821	1,516.11	73.3751	1,516.11	73.9907
1,568.85	87.2661	1,568.85	87.0268	1,568.85	87.2962	1,568.85	86.2519	1,568.85	86.8246	1,568.85	85.4145	1,568.85	85.6167	1,568.85	85.1382	1,568.85	84.4968	1,568.85	84.4461	1,568.85	83.7603	1,568.85	83.0931	1,568.85	82.0366	1,568.85	81.6587	1,568.85	80.8479	1,568.85	80.4641	1,568.85	80.8759	1,568.85	79.5834	1,568.85	79.1542	1,568.85	76.9146	1,568.85	76.7216	1,568.85	71.944	1,568.85	74.8324	1,568.85	74.398	1,568.85	73.3209	1,568.85	74.5626	1,568.85	74.8235	1,568.85	73.0169	1,568.85	76.0523	1,568.85	69.8867	1,568.85	70.8469	1,568.85	60.202	1,568.85	46.9332	1,568.85	71.0517	1,568.85	70.0117	1,568.85	74.1866
1,624.51	87.3776	1,624.51	87.1924	1,624.51	87.41	1,624.51	86.4368	1,624.51	87.2862	1,624.51	85.5567	1,624.51	86.471	1,624.51	84.9517	1,624.51	85.3869	1,624.51	83.671	1,624.51	84.8317	1,624.51	81.6222	1,624.51	83.3465	1,624.51	80.9952	1,624.51	80.9823	1,624.51	80.7557	1,624.51	80.3629	1,624.51	79.8684	1,624.51	78.989	1,624.51	77.7221	1,624.51	74.9423	1,624.51	72.6988	1,624.51	72.8761	1,624.51	72.4703	1,624.51	74.0449	1,624.51	73.5962	1,624.51	76.5338	1,624.51	71.9097	1,624.51	76.2117	1,624.51	67.4519	1,624.51	69.8225	1,624.51	36.6521	1,624.51	63.9209	1,624.51	71.7957	1,624.51	67.7112	1,624.51	74.6638
1,681.64	86.6684	1,681.64	86.6422	1,681.64	86.5026	1,681.64	86.3851	1,681.64	85.8381	1,681.64	85.839	1,681.64	84.725	1,681.64	84.1412	1,681.64	83.9683	1,681.64	82.1341	1,681.64	82.713	1,681.64	80.6565	1,681.64	81.5161	1,681.64	79.8366	1,681.64	80.5285	1,681.64	79.4961	1,681.64	79.1375	1,681.64	78.5415	1,681.64	78.4244	1,681.64	77.3937	1,681.64	76.6225	1,681.64	73.2234	1,681.64	74.2854	1,681.64	73.2391	1,681.64	73.8944	1,681.64	76.7106	1,681.64	74.2636	1,681.64	75.5945	1,681.64	73.5515	1,681.64	71.8369	1,681.64	64.4261	1,681.64	58.3351	1,681.64	63.3245	1,681.64	73.2024	1,681.64	60.241	1,681.64	72.6764
1,741.7	86.0207	1,741.7	85.7096	1,741.7	86.2225	1,741.7	85.039	1,741.7	86.0334	1,741.7	84.6565	1,741.7	85.2381	1,741.7	84.5585	1,741.7	84.7485	1,741.7	83.5412	1,741.7	84.0695	1,741.7	81.5764	1,741.7	83.3347	1,741.7	80.1359	1,741.7	82.4818	1,741.7	78.4388	1,741.7	80.873	1,741.7	78.3728	1,741.7	78.5492	1,741.7	77.0232	1,741.7	77.8048	1,741.7	73.3937	1,741.7	74.843	1,741.7	72.3507	1,741.7	69.8909	1,741.7	73.8191	1,741.7	73.418	1,741.7	74.3234	1,741.7	72.9527	1,741.7	67.2784	1,741.7	71.4179	1,741.7	57.3984	1,741.7	64.257	1,741.7	67.4472	1,741.7	71.0974	1,741.7	67.4378
1,803.22	87.0827	1,803.22	86.5266	1,803.22	86.3107	1,803.22	85.8668	1,803.22	85.2997	1,803.22	86.0539	1,803.22	85.0036	1,803.22	84.6895	1,803.22	84.8668	1,803.22	82.8805	1,803.22	83.0609	1,803.22	81.7471	1,803.22	81.3079	1,803.22	81.5838	1,803.22	81.8272	1,803.22	80.5697	1,803.22	80.7578	1,803.22	80.0284	1,803.22	78.6663	1,803.22	77.6914	1,803.22	79.2489	1,803.22	75.1482	1,803.22	77.7696	1,803.22	73.7504	1,803.22	76.0986	1,803.22	74.1924	1,803.22	76.7835	1,803.22	76.003	1,803.22	77.5344	1,803.22	73.8779	1,803.22	75.1284	1,803.22	64.4107	1,803.22	68.6937	1,803.22	69.9369	1,803.22	72.6745	1,803.22	73.6051
1,866.21	86.4868	1,866.21	86.2924	1,866.21	86.4802	1,866.21	85.8285	1,866.21	86.0029	1,866.21	85.1241	1,866.21	84.461	1,866.21	84.3402	1,866.21	83.5251	1,866.21	82.4331	1,866.21	83.3039	1,866.21	81.8434	1,866.21	81.7739	1,866.21	81.0259	1,866.21	79.9128	1,866.21	77.1965	1,866.21	77.6703	1,866.21	77.5934	1,866.21	76.4999	1,866.21	78.0332	1,866.21	78.1625	1,866.21	78.4265	1,866.21	75.9059	1,866.21	75.7484	1,866.21	72.8864	1,866.21	72.4642	1,866.21	74.8777	1,866.21	75.6759	1,866.21	73.5846	1,866.21	75.2911	1,866.21	69.8633	1,866.21	67.9145	1,866.21	69.8704	1,866.21	73.8206	1,866.21	74.7514	1,866.21	76.7784
1,932.13	87.8785	1,932.13	87.3641	1,932.13	87.7007	1,932.13	87.0253	1,932.13	87.2849	1,932.13	86.1284	1,932.13	85.7955	1,932.13	84.6951	1,932.13	85.0575	1,932.13	83.3123	1,932.13	84.7744	1,932.13	81.9288	1,932.13	82.6714	1,932.13	80.612	1,932.13	80.2563	1,932.13	80.2891	1,932.13	79.2525	1,932.13	79.4913	1,932.13	77.551	1,932.13	75.8874	1,932.13	74.0743	1,932.13	72.4886	1,932.13	68.8233	1,932.13	68.687	1,932.13	67.8703	1,932.13	70.3737	1,932.13	73.5451	1,932.13	73.0593	1,932.13	70.6383	1,932.13	70.7994	1,932.13	64.2914	1,932.13	68.9187	1,932.13	62.0575	1,932.13	73.0987	1,932.13	73.3145	1,932.13	73.3864
1,999.51	86.7338	1,999.51	87.4928	1,999.51	87.7752	1,999.51	86.859	1,999.51	87.1985	1,999.51	84.5183	1,999.51	84.8044	1,999.51	83.7151	1,999.51	83.6884	1,999.51	82.6319	1,999.51	83.6979	1,999.51	81.0703	1,999.51	81.8663	1,999.51	80.4707	1,999.51	80.6903	1,999.51	77.6298	1,999.51	78.4522	1,999.51	73.1114	1,999.51	75.8956	1,999.51	71.709	1,999.51	72.6416	1,999.51	67.0515	1,999.51	71.6366	1,999.51	64.8464	1,999.51	68.659	1,999.51	67.616	1,999.51	66.1329	1,999.51	73.0042	1,999.51	67.5423	1,999.51	69.4111	1,999.51	66.6109	1,999.51	64.0923	1,999.51	69.4582	1,999.51	73.9565	1,999.51	67.3061	1,999.51	74.7676
2,069.82	86.4311	2,069.82	86.3036	2,069.82	86.4568	2,069.82	85.3393	2,069.82	85.7958	2,069.82	84.8973	2,069.82	85.0919	2,069.82	84.0501	2,069.82	85.3316	2,069.82	81.09	2,069.82	84.7786	2,069.82	80.9731	2,069.82	82.837	2,069.82	79.1687	2,069.82	82.6832	2,069.82	78.0275	2,069.82	80.747	2,069.82	79.5931	2,069.82	77.0583	2,069.82	78.8414	2,069.82	75.5807	2,069.82	77.6056	2,069.82	75.5277	2,069.82	75.8567	2,069.82	71.5362	2,069.82	74.3038	2,069.82	71.5941	2,069.82	76.9224	2,069.82	75.3127	2,069.82	73.4225	2,069.82	75.1475	2,069.82	71.8692	2,069.82	71.721	2,069.82	55.7815	2,069.82	49.8862	2,069.82	66.7502
2,143.07	86.784	2,143.07	86.6841	2,143.07	87.0909	2,143.07	86.5347	2,143.07	86.7526	2,143.07	85.8522	2,143.07	86.9308	2,143.07	84.5298	2,143.07	86.7239	2,143.07	84.9338	2,143.07	85.7747	2,143.07	83.4821	2,143.07	84.1251	2,143.07	79.2847	2,143.07	81.8759	2,143.07	77.354	2,143.07	80.4998	2,143.07	76.2737	2,143.07	79.1555	2,143.07	73.7415	2,143.07	79.0679	2,143.07	76.8797	2,143.07	77.2256	2,143.07	76.1093	2,143.07	75.7528	2,143.07	71.884	2,143.07	73.5429	2,143.07	75.1004	2,143.07	75.9175	2,143.07	75.8368	2,143.07	74.4313	2,143.07	70.0546	2,143.07	71.4964	2,143.07	70.2013	2,143.07	70.3323	2,143.07	70.4965
2,219.24	88.1472	2,219.24	87.6955	2,219.24	88.4565	2,219.24	87.1517	2,219.24	86.9988	2,219.24	85.2969	2,219.24	86.7386	2,219.24	85.6779	2,219.24	86.4862	2,219.24	84.5953	2,219.24	84.7234	2,219.24	83.4421	2,219.24	83.7369	2,219.24	83.1692	2,219.24	82.822	2,219.24	79.9318	2,219.24	81.1309	2,219.24	77.3027	2,219.24	79.2861	2,219.24	78.2344	2,219.24	78.3374	2,219.24	75.5634	2,219.24	77.0166	2,219.24	76.4838	2,219.24	73.708	2,219.24	74.2502	2,219.24	73.4527	2,219.24	71.9535	2,219.24	75.8496	2,219.24	73.1114	2,219.24	78.5729	2,219.24	73.9105	2,219.24	76.2426	2,219.24	67.4604	2,219.24	75.6353	2,219.24	75.1899
2,296.88	86.5912	2,296.88	86.5236	2,296.88	86.7391	2,296.88	85.713	2,296.88	86.5083	2,296.88	85.5422	2,296.88	86.212	2,296.88	84.7399	2,296.88	86.056	2,296.88	84.0729	2,296.88	84.8791	2,296.88	82.6939	2,296.88	81.7693	2,296.88	80.1307	2,296.88	79.4088	2,296.88	78.6051	2,296.88	79.7814	2,296.88	73.8611	2,296.88	76.6009	2,296.88	74.6919	2,296.88	72.0616	2,296.88	76.9501	2,296.88	72.3839	2,296.88	70.0733	2,296.88	74.3135	2,296.88	66.6293	2,296.88	66.8219	2,296.88	71.7934	2,296.88	72.6468	2,296.88	74.2676	2,296.88	72.9923	2,296.88	71.1551	2,296.88	68.9283	2,296.88	69.8458	2,296.88	69.2377	2,296.88	69.691
2,378.91	85.1487	2,378.91	84.5781	2,378.91	85.1348	2,378.91	84.5764	2,378.91	85.2275	2,378.91	84.5744	2,378.91	84.7021	2,378.91	83.1993	2,378.91	83.9462	2,378.91	81.6277	2,378.91	83.022	2,378.91	81.7243	2,378.91	82.6541	2,378.91	78.7597	2,378.91	81.604	2,378.91	76.6438	2,378.91	77.689	2,378.91	76.945	2,378.91	75.8919	2,378.91	74.891	2,378.91	75.9132	2,378.91	73.6393	2,378.91	75.5776	2,378.91	72.3598	2,378.91	75.1629	2,378.91	71.1777	2,378.91	71.055	2,378.91	71.2562	2,378.91	69.8509	2,378.91	72.9749	2,378.91	70.3477	2,378.91	68.0281	2,378.91	67.4293	2,378.91	70.9016	2,378.91	67.2804	2,378.91	68.4805
2,462.4	85.387	2,462.4	85.2567	2,462.4	85.405	2,462.4	84.9962	2,462.4	85.5448	2,462.4	84.5724	2,462.4	85.4991	2,462.4	83.5157	2,462.4	84.5507	2,462.4	82.7331	2,462.4	83.4247	2,462.4	81.2843	2,462.4	82.0722	2,462.4	78.6871	2,462.4	80.7309	2,462.4	76.6815	2,462.4	78.9676	2,462.4	74.378	2,462.4	76.841	2,462.4	72.0649	2,462.4	74.7786	2,462.4	72.3209	2,462.4	73.997	2,462.4	70.4566	2,462.4	72.981	2,462.4	68.3157	2,462.4	71.1328	2,462.4	72.0928	2,462.4	71.0222	2,462.4	71.5347	2,462.4	72.5097	2,462.4	67.2816	2,462.4	68.8861	2,462.4	65.3263	2,462.4	65.4922	2,462.4	66.9488
2,548.83	86.5246	2,548.83	86.6255	2,548.83	86.2079	2,548.83	86.1766	2,548.83	86.7647	2,548.83	86.4031	2,548.83	86.5007	2,548.83	85.4089	2,548.83	85.4304	2,548.83	84.0793	2,548.83	83.9404	2,548.83	82.8971	2,548.83	82.5736	2,548.83	80.84	2,548.83	81.1866	2,548.83	78.2686	2,548.83	79.6142	2,548.83	76.0317	2,548.83	77.1329	2,548.83	73.8302	2,548.83	75.2304	2,548.83	73.7541	2,548.83	73.8234	2,548.83	72.6958	2,548.83	73.3071	2,548.83	69.2447	2,548.83	71.7569	2,548.83	69.4009	2,548.83	72.5411	2,548.83	71.8288	2,548.83	73.3589	2,548.83	67.4478	2,548.83	70.274	2,548.83	58.2843	2,548.83	57.061	2,548.83	63.7699
2,639.65	86.5361	2,639.65	86.1304	2,639.65	86.5264	2,639.65	85.9902	2,639.65	86.4698	2,639.65	85.7493	2,639.65	86.0891	2,639.65	84.9577	2,639.65	85.3147	2,639.65	83.6522	2,639.65	83.8226	2,639.65	81.7824	2,639.65	82.2253	2,639.65	80.719	2,639.65	80.3861	2,639.65	78.8091	2,639.65	79.2276	2,639.65	76.5154	2,639.65	77.1547	2,639.65	75.2199	2,639.65	74.419	2,639.65	73.0531	2,639.65	73.4096	2,639.65	72.9977	2,639.65	72.8589	2,639.65	71.7653	2,639.65	71.037	2,639.65	71.3737	2,639.65	71.7182	2,639.65	71.5087	2,639.65	73.2103	2,639.65	68.7016	2,639.65	70.8858	2,639.65	65.6929	2,639.65	64.1043	2,639.65	62.7913
2,731.93	85.7296	2,731.93	85.361	2,731.93	85.7656	2,731.93	84.9884	2,731.93	85.5971	2,731.93	84.3132	2,731.93	85.3974	2,731.93	83.6243	2,731.93	84.9099	2,731.93	82.5001	2,731.93	83.7342	2,731.93	79.8645	2,731.93	81.9339	2,731.93	78.6842	2,731.93	79.9421	2,731.93	77.385	2,731.93	78.2721	2,731.93	74.7717	2,731.93	76.6862	2,731.93	73.5012	2,731.93	74.6262	2,731.93	72.0094	2,731.93	73.0933	2,731.93	72.2351	2,731.93	71.7182	2,731.93	67.946	2,731.93	69.5653	2,731.93	70.4867	2,731.93	70.8535	2,731.93	72.0344	2,731.93	71.6453	2,731.93	68.4599	2,731.93	70.0847	2,731.93	65.0235	2,731.93	65.0411	2,731.93	64.6193
2,828.61	86.0902	2,828.61	85.761	2,828.61	86.1014	2,828.61	84.9687	2,828.61	85.5221	2,828.61	83.3515	2,828.61	85.3202	2,828.61	82.5046	2,828.61	84.5753	2,828.61	81.8502	2,828.61	83.5774	2,828.61	79.6313	2,828.61	81.7954	2,828.61	77.4637	2,828.61	79.6343	2,828.61	76.2714	2,828.61	77.8655	2,828.61	74.5313	2,828.61	75.5825	2,828.61	72.1188	2,828.61	74.0854	2,828.61	70.507	2,828.61	71.7179	2,828.61	70.4155	2,828.61	72.3798	2,828.61	68.1263	2,828.61	69.7486	2,828.61	69.1375	2,828.61	68.1942	2,828.61	71.2559	2,828.61	71.6337	2,828.61	67.0357	2,828.61	69.9227	2,828.61	60.376	2,828.61	61.3326	2,828.61	60.8153
2,928.22	86.7763	2,928.22	86.4562	2,928.22	86.8992	2,928.22	85.6883	2,928.22	86.1094	2,928.22	83.8276	2,928.22	85.2113	2,928.22	82.104	2,928.22	83.7717	2,928.22	80.4031	2,928.22	82.24	2,928.22	78.3062	2,928.22	79.9768	2,928.22	76.043	2,928.22	77.4974	2,928.22	74.2318	2,928.22	76.0768	2,928.22	73.049	2,928.22	74.2783	2,928.22	70.9102	2,928.22	72.3844	2,928.22	69.212	2,928.22	69.7574	2,928.22	70.1218	2,928.22	70.0917	2,928.22	67.1308	2,928.22	68.6369	2,928.22	66.5245	2,928.22	66.6382	2,928.22	70.6601	2,928.22	70.5185	2,928.22	66.2462	2,928.22	69.1632	2,928.22	52.4028	2,928.22	64.2483	2,928.22	54.3484
3,030.76	87.6816	3,030.76	87.4347	3,030.76	87.3166	3,030.76	86.3504	3,030.76	86.6466	3,030.76	84.6546	3,030.76	85.2194	3,030.76	82.2618	3,030.76	83.9382	3,030.76	80.0137	3,030.76	82.2697	3,030.76	77.5394	3,030.76	79.8221	3,030.76	74.3852	3,030.76	77.8672	3,030.76	72.0072	3,030.76	75.9051	3,030.76	70.761	3,030.76	74.3953	3,030.76	68.2535	3,030.76	72.2395	3,030.76	65.6355	3,030.76	68.7422	3,030.76	68.0345	3,030.76	68.6776	3,030.76	68.0861	3,030.76	68.4109	3,030.76	65.8216	3,030.76	64.0959	3,030.76	69.2602	3,030.76	69.1279	3,030.76	67.7283	3,030.76	68.727	3,030.76	63.8493	3,030.76	66.2127	3,030.76	60.9529
3,137.7	87.1821	3,137.7	87.0903	3,137.7	87.2717	3,137.7	86.4771	3,137.7	87.2468	3,137.7	85.7397	3,137.7	86.4986	3,137.7	84.5147	3,137.7	85.4588	3,137.7	82.6547	3,137.7	83.7846	3,137.7	80.5865	3,137.7	82.0493	3,137.7	78.4764	3,137.7	79.5726	3,137.7	74.9208	3,137.7	76.896	3,137.7	73.217	3,137.7	75.2422	3,137.7	71.999	3,137.7	73.6085	3,137.7	67.0067	3,137.7	69.9714	3,137.7	66.5102	3,137.7	67.3952	3,137.7	67.1594	3,137.7	68.5347	3,137.7	64.2976	3,137.7	64.3636	3,137.7	70.0784	3,137.7	68.664	3,137.7	70.5203	3,137.7	69.7572	3,137.7	66.5313	3,137.7	68.164	3,137.7	65.075
3,249.02	86.8693	3,249.02	86.6891	3,249.02	87.2536	3,249.02	86.6872	3,249.02	87.363	3,249.02	86.1965	3,249.02	87.0389	3,249.02	85.2044	3,249.02	86.0892	3,249.02	83.4607	3,249.02	84.57	3,249.02	81.4751	3,249.02	82.6538	3,249.02	79.4438	3,249.02	80.292	3,249.02	76.496	3,249.02	77.3964	3,249.02	73.9476	3,249.02	75.2341	3,249.02	73.2241	3,249.02	73.41	3,249.02	70.4884	3,249.02	70.2758	3,249.02	67.7159	3,249.02	66.6138	3,249.02	69.7417	3,249.02	68.5658	3,249.02	64.1762	3,249.02	65.4228	3,249.02	68.9788	3,249.02	67.7747	3,249.02	71.0338	3,249.02	69.3572	3,249.02	67.8793	3,249.02	68.1351	3,249.02	66.765
3,363.28	86.8108	3,363.28	86.5789	3,363.28	86.9617	3,363.28	86.4169	3,363.28	86.8892	3,363.28	85.9244	3,363.28	86.6223	3,363.28	84.9699	3,363.28	85.4187	3,363.28	83.2738	3,363.28	83.7518	3,363.28	80.9931	3,363.28	81.6493	3,363.28	78.6409	3,363.28	79.2369	3,363.28	76.1969	3,363.28	76.8769	3,363.28	72.9854	3,363.28	74.3439	3,363.28	71.4662	3,363.28	72.2366	3,363.28	70.4291	3,363.28	70.3822	3,363.28	65.8668	3,363.28	65.0903	3,363.28	69.1237	3,363.28	67.4569	3,363.28	64.7054	3,363.28	66.2253	3,363.28	68.153	3,363.28	65.9009	3,363.28	69.8755	3,363.28	69.5049	3,363.28	61.9457	3,363.28	67.5614	3,363.28	63.8323
3,481.93	86.8515	3,481.93	86.3343	3,481.93	86.8721	3,481.93	85.9388	3,481.93	86.5023	3,481.93	84.9664	3,481.93	86.1415	3,481.93	83.7951	3,481.93	84.8476	3,481.93	82.2226	3,481.93	83.5794	3,481.93	79.7194	3,481.93	81.5204	3,481.93	77.245	3,481.93	78.9962	3,481.93	75.3648	3,481.93	77.2494	3,481.93	72.8804	3,481.93	74.0468	3,481.93	69.2913	3,481.93	72.0288	3,481.93	69.8599	3,481.93	71.26	3,481.93	64.6554	3,481.93	66.3823	3,481.93	65.7508	3,481.93	67.1716	3,481.93	63.1714	3,481.93	69.2309	3,481.93	66.7917	3,481.93	66.1071	3,481.93	68.6921	3,481.93	69.1256	3,481.93	60.0309	3,481.93	66.0604	3,481.93	60.9679
3,604.98	87.6448	3,604.98	87.0118	3,604.98	87.9653	3,604.98	86.6238	3,604.98	88.1178	3,604.98	85.6341	3,604.98	87.7979	3,604.98	84.2812	3,604.98	86.8013	3,604.98	82.3567	3,604.98	85.6245	3,604.98	79.8803	3,604.98	83.246	3,604.98	76.6903	3,604.98	80.6939	3,604.98	75.5928	3,604.98	78.961	3,604.98	73.2218	3,604.98	76.4631	3,604.98	68.9359	3,604.98	74.6747	3,604.98	69.0249	3,604.98	73.4437	3,604.98	64.5934	3,604.98	70.2632	3,604.98	67.0692	3,604.98	69.9767	3,604.98	67.2543	3,604.98	71.4725	3,604.98	65.9892	3,604.98	70.6057	3,604.98	69.8978	3,604.98	70.9869	3,604.98	66.6383	3,604.98	66.3634	3,604.98	61.2234
3,732.42	87.4	3,732.42	87.498	3,732.42	87.3458	3,732.42	86.5381	3,732.42	88.068	3,732.42	85.2899	3,732.42	87.5536	3,732.42	83.7447	3,732.42	86.653	3,732.42	82.6487	3,732.42	85.3315	3,732.42	80.6282	3,732.42	82.9764	3,732.42	77.5326	3,732.42	80.3956	3,732.42	75.4588	3,732.42	78.2487	3,732.42	73.504	3,732.42	75.3158	3,732.42	69.5927	3,732.42	73.9072	3,732.42	69.6471	3,732.42	72.0889	3,732.42	65.9303	3,732.42	68.2532	3,732.42	68.6362	3,732.42	68.5386	3,732.42	68.5474	3,732.42	69.6007	3,732.42	68.3309	3,732.42	69.3186	3,732.42	70.8663	3,732.42	70.5279	3,732.42	66.8665	3,732.42	65.6637	3,732.42	64.2469
3,864.26	86.1995	3,864.26	86.2551	3,864.26	86.4773	3,864.26	85.6093	3,864.26	86.8476	3,864.26	85.1654	3,864.26	86.6125	3,864.26	84.1102	3,864.26	85.6162	3,864.26	82.2374	3,864.26	84.4046	3,864.26	80.5516	3,864.26	82.6772	3,864.26	78.4166	3,864.26	80.2313	3,864.26	75.2112	3,864.26	77.5306	3,864.26	71.7287	3,864.26	74.7003	3,864.26	68.9301	3,864.26	73.6522	3,864.26	67.9491	3,864.26	72.1615	3,864.26	63.4251	3,864.26	67.7307	3,864.26	67.453	3,864.26	67.678	3,864.26	68.4655	3,864.26	69.1874	3,864.26	65.4199	3,864.26	68.2823	3,864.26	70.5048	3,864.26	71.3883	3,864.26	65.0575	3,864.26	65.9988	3,864.26	62.6216
4,000.49	87.4352	4,000.49	86.5256	4,000.49	88.2577	4,000.49	87.2214	4,000.49	87.4235	4,000.49	86.9483	4,000.49	87.2741	4,000.49	85.776	4,000.49	86.1857	4,000.49	83.9101	4,000.49	84.974	4,000.49	82.2148	4,000.49	82.53	4,000.49	78.7341	4,000.49	80.2919	4,000.49	76.1532	4,000.49	77.7833	4,000.49	73.1776	4,000.49	75.8075	4,000.49	71.3957	4,000.49	71.6579	4,000.49	69.2667	4,000.49	70.6558	4,000.49	65.5279	4,000.49	68.5692	4,000.49	63.2332	4,000.49	66.5055	4,000.49	67.2772	4,000.49	67.4258	4,000.49	66.3937	4,000.49	67.7947	4,000.49	68.8697	4,000.49	70.7132	4,000.49	63.8169	4,000.49	62.6682	4,000.49	57.1139
4,141.11	87.4238	4,141.11	87.3207	4,141.11	87.3818	4,141.11	87.249	4,141.11	87.2478	4,141.11	85.9004	4,141.11	86.387	4,141.11	84.5485	4,141.11	85.6545	4,141.11	84.049	4,141.11	83.5541	4,141.11	80.4112	4,141.11	81.6692	4,141.11	76.4903	4,141.11	78.968	4,141.11	73.8326	4,141.11	75.3674	4,141.11	72.1702	4,141.11	70.2097	4,141.11	70.2869	4,141.11	70.3747	4,141.11	67.119	4,141.11	66.2196	4,141.11	66.0011	4,141.11	68.2281	4,141.11	63.8076	4,141.11	63.8775	4,141.11	64.9237	4,141.11	65.8583	4,141.11	65.0816	4,141.11	62.2256	4,141.11	67.9435	4,141.11	68.402	4,141.11	66.0728	4,141.11	63.4875	4,141.11	60.3674
4,287.6	88.2717	4,287.6	88.6549	4,287.6	88.0407	4,287.6	86.7429	4,287.6	88.2131	4,287.6	85.8622	4,287.6	86.5537	4,287.6	84.389	4,287.6	86.072	4,287.6	81.6502	4,287.6	84.2305	4,287.6	79.0213	4,287.6	80.8677	4,287.6	77.2018	4,287.6	76.9276	4,287.6	71.2079	4,287.6	71.6521	4,287.6	67.4784	4,287.6	70.7088	4,287.6	66.7134	4,287.6	66.1161	4,287.6	60.4745	4,287.6	65.8494	4,287.6	65.0163	4,287.6	64.5446	4,287.6	56.763	4,287.6	65.685	4,287.6	64.8517	4,287.6	65.1665	4,287.6	64.7165	4,287.6	63.6725	4,287.6	70.2411	4,287.6	68.966	4,287.6	61.9893	4,287.6	67.2684	4,287.6	64.0812
4,438.48	88.8513	4,438.48	87.3271	4,438.48	88.9866	4,438.48	87.8534	4,438.48	87.0123	4,438.48	87.4344	4,438.48	87.0811	4,438.48	84.5479	4,438.48	83.9413	4,438.48	80.5638	4,438.48	80.3856	4,438.48	78.4359	4,438.48	77.2054	4,438.48	74.9212	4,438.48	71.4224	4,438.48	72.2188	4,438.48	70.5152	4,438.48	71.5055	4,438.48	69.7417	4,438.48	69.7732	4,438.48	70.0873	4,438.48	68.7997	4,438.48	67.6196	4,438.48	65.7674	4,438.48	63.5798	4,438.48	65.7673	4,438.48	65.0502	4,438.48	69.7145	4,438.48	65.9676	4,438.48	66.2452	4,438.48	66.2163	4,438.48	70.6013	4,438.48	69.888	4,438.48	63.6771	4,438.48	65.1915	4,438.48	61.9746
4,595.21	89.0148	4,595.21	88.9013	4,595.21	88.5848	4,595.21	88.6408	4,595.21	88.2561	4,595.21	86.78	4,595.21	86.76	4,595.21	84.4319	4,595.21	84.8332	4,595.21	83.0794	4,595.21	82.8301	4,595.21	79.8753	4,595.21	78.5088	4,595.21	77.5467	4,595.21	78.5017	4,595.21	76.9465	4,595.21	77.2329	4,595.21	73.8066	4,595.21	75.0619	4,595.21	73.603	4,595.21	71.1447	4,595.21	69.8126	4,595.21	68.4268	4,595.21	67.209	4,595.21	70.3279	4,595.21	67.3531	4,595.21	65.364	4,595.21	69.8397	4,595.21	70.5892	4,595.21	69.9075	4,595.21	69.1489	4,595.21	71.3215	4,595.21	70.6493	4,595.21	67.0471	4,595.21	67.6484	4,595.21	54.5541
4,756.35	88.1234	4,756.35	88.5982	4,756.35	87.6333	4,756.35	87.0294	4,756.35	87.503	4,756.35	83.3798	4,756.35	83.9155	4,756.35	81.7729	4,756.35	83.7748	4,756.35	81.3292	4,756.35	81.2888	4,756.35	80.5263	4,756.35	80.8487	4,756.35	79.9465	4,756.35	80.7571	4,756.35	78.2525	4,756.35	78.3846	4,756.35	76.3474	4,756.35	74.6072	4,756.35	73.9451	4,756.35	73.5364	4,756.35	72.4648	4,756.35	71.6049	4,756.35	70.0463	4,756.35	68.744	4,756.35	66.7421	4,756.35	63.9742	4,756.35	70.8369	4,756.35	71.3707	4,756.35	65.0987	4,756.35	67.8018	4,756.35	71.5226	4,756.35	72.0066	4,756.35	64.3671	4,756.35	64.4876	4,756.35	61.9473
4,924.8	87.9235	4,924.8	87.2335	4,924.8	88.0415	4,924.8	85.7247	4,924.8	86.0251	4,924.8	85.5989	4,924.8	85.3479	4,924.8	85.1456	4,924.8	82.4568	4,924.8	83.9118	4,924.8	82.9708	4,924.8	82.7215	4,924.8	82.591	4,924.8	80.5286	4,924.8	79.8168	4,924.8	77.8837	4,924.8	78.4309	4,924.8	74.9054	4,924.8	76.6695	4,924.8	72.6104	4,924.8	74.2766	4,924.8	71.9589	4,924.8	73.0778	4,924.8	70.8441	4,924.8	71.3452	4,924.8	67.155	4,924.8	65.7323	4,924.8	66.773	4,924.8	69.7593	4,924.8	66.8291	4,924.8	69.7207	4,924.8	71.9275	4,924.8	71.383	4,924.8	66.2268	4,924.8	66.9372	4,924.8	53.0939
5,097.66	86.4638	5,097.66	86.5595	5,097.66	85.693	5,097.66	85.8424	5,097.66	85.0321	5,097.66	84.3352	5,097.66	83.1546	5,097.66	83.9166	5,097.66	83.1926	5,097.66	84.3629	5,097.66	84.4025	5,097.66	82.4018	5,097.66	82.6909	5,097.66	81.5047	5,097.66	80.6144	5,097.66	78.5355	5,097.66	78.8747	5,097.66	77.2746	5,097.66	76.2239	5,097.66	73.7901	5,097.66	74.4077	5,097.66	73.7734	5,097.66	71.7008	5,097.66	72.346	5,097.66	70.3254	5,097.66	67.2417	5,097.66	65.8825	5,097.66	68.6367	5,097.66	69.238	5,097.66	69.5416	5,097.66	69.8387	5,097.66	68.6155	5,097.66	70.8263	5,097.66	65.5525	5,097.66	71.1706	5,097.66	51.1031
5,277.83	87.0747	5,277.83	85.662	5,277.83	86.3567	5,277.83	84.751	5,277.83	85.3807	5,277.83	84.2078	5,277.83	84.5247	5,277.83	83.2297	5,277.83	84.3913	5,277.83	82.7233	5,277.83	83.5353	5,277.83	82.5734	5,277.83	83.8968	5,277.83	79.8504	5,277.83	81.7301	5,277.83	76.0801	5,277.83	78.3653	5,277.83	73.6332	5,277.83	75.6937	5,277.83	71.0558	5,277.83	75.2389	5,277.83	71.0886	5,277.83	71.463	5,277.83	66.7895	5,277.83	66.1415	5,277.83	63.0918	5,277.83	68.8974	5,277.83	69.2859	5,277.83	66.8607	5,277.83	67.3422	5,277.83	69.5104	5,277.83	70.9673	5,277.83	71.6317	5,277.83	68.46	5,277.83	70.6441	5,277.83	57.9383
5,463.87	86.5901	5,463.87	85.5661	5,463.87	85.7642	5,463.87	84.332	5,463.87	83.7289	5,463.87	84.2667	5,463.87	84.0446	5,463.87	85.239	5,463.87	84.0967	5,463.87	83.7442	5,463.87	84.3042	5,463.87	83.223	5,463.87	82.0271	5,463.87	78.7893	5,463.87	78.6303	5,463.87	78.5778	5,463.87	76.3112	5,463.87	74.3078	5,463.87	74.0696	5,463.87	74.8817	5,463.87	73.3945	5,463.87	62.1363	5,463.87	67.3958	5,463.87	64.2517	5,463.87	66.6365	5,463.87	66.4715	5,463.87	69.209	5,463.87	66.3205	5,463.87	60.9403	5,463.87	69.6076	5,463.87	68.0252	5,463.87	70.0365	5,463.87	68.7366	5,463.87	67.7463	5,463.87	68.4817	5,463.87	58.4178
5,657.23	86.4574	5,657.23	85.7749	5,657.23	85.7943	5,657.23	84.5109	5,657.23	85.2366	5,657.23	84.3943	5,657.23	83.7855	5,657.23	84.2835	5,657.23	84.8114	5,657.23	83.9004	5,657.23	84.2318	5,657.23	81.5192	5,657.23	82.1353	5,657.23	80.0323	5,657.23	80.5676	5,657.23	76.4547	5,657.23	78.7616	5,657.23	74.5617	5,657.23	75.3319	5,657.23	73.3917	5,657.23	72.692	5,657.23	70.5775	5,657.23	70.3459	5,657.23	67.9623	5,657.23	67.5212	5,657.23	68.447	5,657.23	69.4307	5,657.23	66.9122	5,657.23	67.4996	5,657.23	70.1848	5,657.23	68.5074	5,657.23	70.6065	5,657.23	70.3336	5,657.23	67.6008	5,657.23	68.7648	5,657.23	58.1814
5,856.45	85.8095	5,856.45	85.1037	5,856.45	85.6257	5,856.45	83.7608	5,856.45	84.1046	5,856.45	84.2853	5,856.45	83.8898	5,856.45	83.3768	5,856.45	84.3844	5,856.45	83.0266	5,856.45	82.7394	5,856.45	81.7389	5,856.45	81.3396	5,856.45	79.5329	5,856.45	79.9154	5,856.45	76.7496	5,856.45	76.7606	5,856.45	75.4327	5,856.45	74.2531	5,856.45	71.6258	5,856.45	71.1718	5,856.45	71.8811	5,856.45	69.9396	5,856.45	71.8609	5,856.45	69.5788	5,856.45	69.0616	5,856.45	67.4247	5,856.45	66.9264	5,856.45	67.7891	5,856.45	70.459	5,856.45	71.3637	5,856.45	71.5397	5,856.45	69.425	5,856.45	68.45	5,856.45	69.6751	5,856.45	61.5305
6,062.99	86.0678	6,062.99	85.9121	6,062.99	86.0148	6,062.99	84.721	6,062.99	84.639	6,062.99	83.7269	6,062.99	83.5981	6,062.99	83.807	6,062.99	83.9466	6,062.99	82.7731	6,062.99	82.9268	6,062.99	81.5195	6,062.99	80.8632	6,062.99	80.3654	6,062.99	79.7258	6,062.99	79.1166	6,062.99	77.827	6,062.99	76.2523	6,062.99	76.2586	6,062.99	71.738	6,062.99	72.4134	6,062.99	69.4298	6,062.99	71.1394	6,062.99	68.8348	6,062.99	70.4734	6,062.99	68.7219	6,062.99	67.705	6,062.99	68.8688	6,062.99	69.1322	6,062.99	69.0621	6,062.99	69.933	6,062.99	70.3734	6,062.99	69.4823	6,062.99	68.9805	6,062.99	70.6853	6,062.99	64.4412
6,276.86	86.3719	6,276.86	85.6477	6,276.86	85.8158	6,276.86	84.9016	6,276.86	84.8726	6,276.86	83.6203	6,276.86	83.9101	6,276.86	83.1769	6,276.86	82.8759	6,276.86	82.3507	6,276.86	82.9852	6,276.86	81.9173	6,276.86	81.9324	6,276.86	80.5419	6,276.86	80.8439	6,276.86	79.2732	6,276.86	78.2449	6,276.86	75.1938	6,276.86	76.2079	6,276.86	72.8927	6,276.86	72.2612	6,276.86	71.6119	6,276.86	72.1567	6,276.86	66.2116	6,276.86	69.8875	6,276.86	67.1901	6,276.86	62.4829	6,276.86	69.8914	6,276.86	66.7778	6,276.86	69.1334	6,276.86	66.4408	6,276.86	72.5898	6,276.86	71.3699	6,276.86	68.1145	6,276.86	69.164	6,276.86	64.1678
6,498.05	86.0268	6,498.05	85.5935	6,498.05	85.6092	6,498.05	85.152	6,498.05	84.8809	6,498.05	83.4894	6,498.05	83.6716	6,498.05	83.1124	6,498.05	83.1375	6,498.05	83.1799	6,498.05	83.3551	6,498.05	82.8942	6,498.05	82.6015	6,498.05	80.5467	6,498.05	80.6733	6,498.05	78.2179	6,498.05	78.596	6,498.05	75.8511	6,498.05	75.1925	6,498.05	73.7128	6,498.05	73.0031	6,498.05	70.6954	6,498.05	71.1711	6,498.05	69.1575	6,498.05	70.2122	6,498.05	66.8042	6,498.05	66.3709	6,498.05	66.9621	6,498.05	64.566	6,498.05	68.4879	6,498.05	67.6709	6,498.05	70.2909	6,498.05	69.7254	6,498.05	66.8729	6,498.05	67.9063	6,498.05	50.8055
6,726.56	85.9759	6,726.56	85.628	6,726.56	86.1316	6,726.56	85.5501	6,726.56	85.6514	6,726.56	83.802	6,726.56	84.234	6,726.56	83.066	6,726.56	83.5062	6,726.56	83.0113	6,726.56	83.4566	6,726.56	82.0468	6,726.56	82.5937	6,726.56	80.292	6,726.56	81.2238	6,726.56	78.047	6,726.56	78.6316	6,726.56	75.2133	6,726.56	75.7246	6,726.56	72.5413	6,726.56	73.0146	6,726.56	70.5403	6,726.56	70.1637	6,726.56	69.3348	6,726.56	68.4634	6,726.56	66.8741	6,726.56	66.8655	6,726.56	67.4537	6,726.56	68.3932	6,726.56	69.2101	6,726.56	68.0248	6,726.56	70.6531	6,726.56	70.6766	6,726.56	66.634	6,726.56	69.7741	6,726.56	52.5244
6,963.87	84.4546	6,963.87	85.2964	6,963.87	84.547	6,963.87	85.1567	6,963.87	84.9378	6,963.87	83.544	6,963.87	83.4757	6,963.87	82.9651	6,963.87	82.5977	6,963.87	83.2312	6,963.87	82.8495	6,963.87	82.1521	6,963.87	82.451	6,963.87	80.0703	6,963.87	80.7475	6,963.87	78.3361	6,963.87	77.7407	6,963.87	74.78	6,963.87	75.5279	6,963.87	72.4465	6,963.87	73.5799	6,963.87	68.8909	6,963.87	70.438	6,963.87	67.7854	6,963.87	67.6718	6,963.87	64.8343	6,963.87	68.2165	6,963.87	65.5603	6,963.87	64.2995	6,963.87	67.6615	6,963.87	68.0314	6,963.87	68.9998	6,963.87	69.3321	6,963.87	64.1273	6,963.87	65.3704	6,963.87	60.9596
7,209.96	85.5715	7,209.96	86.4402	7,209.96	86.1448	7,209.96	86.1119	7,209.96	86.5948	7,209.96	84.7141	7,209.96	84.9296	7,209.96	84.0213	7,209.96	83.9973	7,209.96	84.6381	7,209.96	84.7948	7,209.96	83.3841	7,209.96	83.7024	7,209.96	80.1973	7,209.96	81.1847	7,209.96	77.3502	7,209.96	78.8475	7,209.96	74.9088	7,209.96	75.8477	7,209.96	73.5393	7,209.96	73.9809	7,209.96	67.156	7,209.96	68.9662	7,209.96	67.5618	7,209.96	69.5129	7,209.96	65.2802	7,209.96	66.828	7,209.96	67.8627	7,209.96	65.856	7,209.96	67.5337	7,209.96	66.7917	7,209.96	69.8329	7,209.96	71.1196	7,209.96	61.8299	7,209.96	63.131	7,209.96	65.3755
7,464.84	84.8717	7,464.84	85.0179	7,464.84	85.5531	7,464.84	84.571	7,464.84	84.8114	7,464.84	83.7986	7,464.84	83.1479	7,464.84	83.2577	7,464.84	82.9149	7,464.84	82.0288	7,464.84	83.7763	7,464.84	81.0456	7,464.84	82.3914	7,464.84	78.917	7,464.84	79.5452	7,464.84	75.2065	7,464.84	76.9452	7,464.84	72.358	7,464.84	74.274	7,464.84	72.8923	7,464.84	72.8481	7,464.84	67.5531	7,464.84	68.075	7,464.84	65.1172	7,464.84	63.368	7,464.84	64.536	7,464.84	65.277	7,464.84	67.5567	7,464.84	66.6613	7,464.84	68.3383	7,464.84	66.6698	7,464.84	68.4107	7,464.84	66.6916	7,464.84	63.1369	7,464.84	62.3984	7,464.84	63.4924
7,727.05	83.1538	7,727.05	83.9064	7,727.05	83.7105	7,727.05	84.3845	7,727.05	84.1953	7,727.05	83.723	7,727.05	83.2632	7,727.05	82.8306	7,727.05	83.3757	7,727.05	82.7272	7,727.05	83.3015	7,727.05	81.7506	7,727.05	81.3093	7,727.05	79.5391	7,727.05	80.2262	7,727.05	78.7543	7,727.05	77.9974	7,727.05	75.1218	7,727.05	75.7752	7,727.05	73.2449	7,727.05	72.6813	7,727.05	69.7806	7,727.05	71.3377	7,727.05	66.9409	7,727.05	67.783	7,727.05	65.9811	7,727.05	64.9619	7,727.05	68.5884	7,727.05	68.3119	7,727.05	69.6155	7,727.05	66.1273	7,727.05	64.289	7,727.05	70.1536	7,727.05	54.7376	7,727.05	63.0628	7,727.05	67.839
7,999.51	82.9483	7,999.51	83.2079	7,999.51	83.5466	7,999.51	84.2468	7,999.51	83.7974	7,999.51	83.797	7,999.51	83.4555	7,999.51	82.9467	7,999.51	82.7641	7,999.51	81.0769	7,999.51	81.9611	7,999.51	80.3802	7,999.51	79.9329	7,999.51	79.8244	7,999.51	80.2338	7,999.51	78.0724	7,999.51	78.7392	7,999.51	76.7029	7,999.51	76.5522	7,999.51	73.2225	7,999.51	73.2724	7,999.51	71.327	7,999.51	72.0688	7,999.51	67.0611	7,999.51	68.4898	7,999.51	66.4952	7,999.51	65.7316	7,999.51	68.1155	7,999.51	71.8091	7,999.51	68.1925	7,999.51	67.9494	7,999.51	59.9758	7,999.51	65.8643	7,999.51	59.7192	7,999.51	61.5161	7,999.51	69.6
8,282.23	83.688	8,282.23	83.0269	8,282.23	83.2431	8,282.23	84.2765	8,282.23	83.7156	8,282.23	84.3868	8,282.23	84.7763	8,282.23	82.7164	8,282.23	83.5052	8,282.23	82.1359	8,282.23	81.5749	8,282.23	82.5224	8,282.23	81.7743	8,282.23	80.7338	8,282.23	80.2633	8,282.23	80.0913	8,282.23	79.3867	8,282.23	76.528	8,282.23	76.5041	8,282.23	74.0684	8,282.23	73.865	8,282.23	70.6168	8,282.23	70.2078	8,282.23	67.036	8,282.23	70.1583	8,282.23	63.5474	8,282.23	64.3571	8,282.23	65.7537	8,282.23	69.3148	8,282.23	68.0597	8,282.23	68.42	8,282.23	59.2643	8,282.23	68.425	8,282.23	60.7364	8,282.23	61.879	8,282.23	68.0263
8,573.73	84.1375	8,573.73	82.8418	8,573.73	83.1453	8,573.73	84.7044	8,573.73	84.3664	8,573.73	84.5166	8,573.73	84.3821	8,573.73	83.1367	8,573.73	82.8899	8,573.73	83.0869	8,573.73	82.5642	8,573.73	83.1324	8,573.73	82.5304	8,573.73	80.9207	8,573.73	81.3311	8,573.73	78.5036	8,573.73	78.962	8,573.73	75.2454	8,573.73	76.1889	8,573.73	72.2001	8,573.73	73.3971	8,573.73	71.5645	8,573.73	71.8734	8,573.73	68.4988	8,573.73	68.1786	8,573.73	64.9645	8,573.73	67.5208	8,573.73	67.5751	8,573.73	65.9514	8,573.73	65.8666	8,573.73	69.4297	8,573.73	58.2686	8,573.73	66.3094	8,573.73	56.1415	8,573.73	61.8472	8,573.73	69.8516
8,876.95	84.1808	8,876.95	83.1918	8,876.95	83.5355	8,876.95	84.84	8,876.95	84.2036	8,876.95	84.9409	8,876.95	84.8635	8,876.95	83.4488	8,876.95	83.5295	8,876.95	83.1551	8,876.95	82.8581	8,876.95	82.5064	8,876.95	81.6684	8,876.95	80.4662	8,876.95	80.2365	8,876.95	78.9863	8,876.95	78.0908	8,876.95	75.2524	8,876.95	74.4723	8,876.95	72.3781	8,876.95	73.0775	8,876.95	72.1923	8,876.95	70.3855	8,876.95	69.6428	8,876.95	67.4077	8,876.95	66.6362	8,876.95	67.8442	8,876.95	67.8061	8,876.95	63.9844	8,876.95	63.4172	8,876.95	68.8946	8,876.95	63.051	8,876.95	65.049	8,876.95	58.8987	8,876.95	57.6541	8,876.95	69.2849
9,188.96	84.6133	9,188.96	83.0236	9,188.96	83.0883	9,188.96	85.0489	9,188.96	84.5671	9,188.96	84.9643	9,188.96	84.9404	9,188.96	84.0102	9,188.96	83.6889	9,188.96	83.0713	9,188.96	82.6834	9,188.96	82.3865	9,188.96	80.8315	9,188.96	79.8936	9,188.96	79.9346	9,188.96	78.5078	9,188.96	77.4536	9,188.96	74.8805	9,188.96	75.496	9,188.96	72.0421	9,188.96	71.6228	9,188.96	69.7933	9,188.96	67.8032	9,188.96	64.7671	9,188.96	65.98	9,188.96	66.2569	9,188.96	66.7069	9,188.96	66.2118	9,188.96	65.9899	9,188.96	65.2179	9,188.96	67.7013	9,188.96	65.0665	9,188.96	64.3338	9,188.96	53.1814	9,188.96	53.2162	9,188.96	66.8197
9,514.16	82.7912	9,514.16	82.461	9,514.16	82.9061	9,514.16	84.087	9,514.16	83.2756	9,514.16	83.7857	9,514.16	83.3829	9,514.16	84.2805	9,514.16	83.8488	9,514.16	83.2505	9,514.16	83.0228	9,514.16	80.6093	9,514.16	80.2403	9,514.16	77.8335	9,514.16	78.067	9,514.16	75.1149	9,514.16	74.8283	9,514.16	73.7274	9,514.16	74.4885	9,514.16	70.0838	9,514.16	69.1805	9,514.16	65.5335	9,514.16	66.5655	9,514.16	57.24	9,514.16	59.4021	9,514.16	62.1228	9,514.16	64.1254	9,514.16	62.5415	9,514.16	66.2373	9,514.16	65.4801	9,514.16	63.9784	9,514.16	65.8554	9,514.16	58.4382	9,514.16	55.5465	9,514.16	54.2201	9,514.16	64.2331
9,849.61	81.9775	9,849.61	83.2795	9,849.61	82.985	9,849.61	83.5894	9,849.61	82.5667	9,849.61	82.7828	9,849.61	82.631	9,849.61	84.5097	9,849.61	84.3463	9,849.61	82.4805	9,849.61	82.674	9,849.61	79.5907	9,849.61	79.373	9,849.61	77.8098	9,849.61	77.5026	9,849.61	77.2364	9,849.61	77.0088	9,849.61	74.3082	9,849.61	74.1993	9,849.61	71.2354	9,849.61	72.2447	9,849.61	68.2045	9,849.61	68.7157	9,849.61	63.0189	9,849.61	62.2187	9,849.61	63.4695	9,849.61	61.7887	9,849.61	64.2344	9,849.61	64.1258	9,849.61	61.536	9,849.61	64.5137	9,849.61	64.9349	9,849.61	62.344	9,849.61	55.9379	9,849.61	57.614	9,849.61	63.1652
10,196.8	83.4068	10,196.8	83.419	10,196.8	83.96	10,196.8	80.8397	10,196.8	81.8294	10,196.8	82.736	10,196.8	81.7785	10,196.8	83.0329	10,196.8	83.3552	10,196.8	80.3229	10,196.8	82.0018	10,196.8	80.1272	10,196.8	79.9275	10,196.8	78.0506	10,196.8	78.5843	10,196.8	73.8247	10,196.8	76.4509	10,196.8	73.6004	10,196.8	72.866	10,196.8	70.8769	10,196.8	69.0814	10,196.8	65.8003	10,196.8	68.3629	10,196.8	62.8018	10,196.8	66.0995	10,196.8	60.1392	10,196.8	60.6383	10,196.8	65.8334	10,196.8	60.4014	10,196.8	64.0689	10,196.8	63.1116	10,196.8	63.8408	10,196.8	55.8708	10,196.8	52.9534	10,196.8	59.0266	10,196.8	61.917
10,555.7	85.3093	10,555.7	84.844	10,555.7	85.307	10,555.7	82.8343	10,555.7	83.3554	10,555.7	82.9102	10,555.7	82.6532	10,555.7	82.0844	10,555.7	81.9636	10,555.7	81.7008	10,555.7	82.0407	10,555.7	80.1129	10,555.7	80.2508	10,555.7	76.7239	10,555.7	77.6821	10,555.7	74.3492	10,555.7	72.4942	10,555.7	71.9774	10,555.7	73.2322	10,555.7	68.5368	10,555.7	69.2195	10,555.7	64.9149	10,555.7	66.3447	10,555.7	64.1688	10,555.7	61.4925	10,555.7	60.1816	10,555.7	61.1545	10,555.7	65.1113	10,555.7	60.8578	10,555.7	62.5341	10,555.7	64.2074	10,555.7	63.1472	10,555.7	63.297	10,555.7	53.5078	10,555.7	55.1061	10,555.7	56.089
10,927.7	86.692	10,927.7	85.7409	10,927.7	86.2862	10,927.7	84.3494	10,927.7	84.9922	10,927.7	83.0633	10,927.7	82.9436	10,927.7	81.3423	10,927.7	81.1489	10,927.7	81.1553	10,927.7	82.6016	10,927.7	79.6571	10,927.7	80.3248	10,927.7	74.898	10,927.7	77.2086	10,927.7	75.1895	10,927.7	73.9754	10,927.7	70.5047	10,927.7	71.0829	10,927.7	67.3951	10,927.7	69.7488	10,927.7	66.6753	10,927.7	66.3717	10,927.7	63.8286	10,927.7	63.9045	10,927.7	62.5091	10,927.7	60.2794	10,927.7	59.232	10,927.7	56.5701	10,927.7	56.1584	10,927.7	60.3441	10,927.7	61.4343	10,927.7	63.1752	10,927.7	60.5212	10,927.7	41.7535	10,927.7	54.7098
11,313	88.0859	11,313	86.4179	11,313	86.9066	11,313	86.1369	11,313	86.0166	11,313	82.4541	11,313	83.1328	11,313	80.8482	11,313	81.0329	11,313	80.9804	11,313	81.4654	11,313	79.8076	11,313	78.4984	11,313	76.0749	11,313	77.5265	11,313	76.0381	11,313	75.4184	11,313	71.0704	11,313	71.0718	11,313	69.3298	11,313	69.4642	11,313	66.2687	11,313	66.1733	11,313	62.3108	11,313	64.5312	11,313	59.5865	11,313	57.3982	11,313	59.0462	11,313	57.3213	11,313	60.4396	11,313	57.8055	11,313	63.7027	11,313	60.098	11,313	55.4324	11,313	54.6691	11,313	58.7341
11,712.9	88.7228	11,712.9	86.9917	11,712.9	87.5015	11,712.9	86.6047	11,712.9	86.6433	11,712.9	82.1866	11,712.9	82.9502	11,712.9	81.5236	11,712.9	82.2294	11,712.9	80.2473	11,712.9	80.3911	11,712.9	79.8959	11,712.9	78.732	11,712.9	78.2482	11,712.9	78.8511	11,712.9	76.731	11,712.9	75.475	11,712.9	69.7396	11,712.9	70.8516	11,712.9	68.3496	11,712.9	67.9129	11,712.9	62.9972	11,712.9	64.2415	11,712.9	63.4735	11,712.9	62.8799	11,712.9	56.1489	11,712.9	58.2503	11,712.9	50.2294	11,712.9	53.2663	11,712.9	57.3018	11,712.9	59.0407	11,712.9	60.2924	11,712.9	62.0856	11,712.9	53.4996	11,712.9	49.4766	11,712.9	54.6472
12,126	89.0573	12,126	87.7499	12,126	88.1044	12,126	86.7335	12,126	86.9047	12,126	82.7185	12,126	83.3976	12,126	80.7257	12,126	81.9246	12,126	79.2644	12,126	79.5625	12,126	80.2359	12,126	79.206	12,126	77.6301	12,126	77.5787	12,126	74.7492	12,126	74.2272	12,126	66.8886	12,126	66.1017	12,126	64.587	12,126	64.6039	12,126	52.288	12,126	59.178	12,126	61.6152	12,126	56.1538	12,126	52.5917	12,126	45.9517	12,126	47.5416	12,126	58.4856	12,126	61.0301	12,126	62.8028	12,126	58.2233	12,126	60.8378	12,126	56.4528	12,126	54.3424	12,126	51.5428
12,553.7	88.9679	12,553.7	88.1651	12,553.7	88.4593	12,553.7	86.9038	12,553.7	86.8603	12,553.7	82.7847	12,553.7	83.5202	12,553.7	79.4483	12,553.7	80.0851	12,553.7	79.9017	12,553.7	78.9137	12,553.7	79.0595	12,553.7	77.4863	12,553.7	74.9737	12,553.7	74.7813	12,553.7	72.7571	12,553.7	71.249	12,553.7	64.0436	12,553.7	65.8903	12,553.7	61.6537	12,553.7	56.1502	12,553.7	58.2505	12,553.7	59.1754	12,553.7	56.2617	12,553.7	55.0385	12,553.7	34.5732	12,553.7	52.4813	12,553.7	56.8127	12,553.7	57.3425	12,553.7	62.4082	12,553.7	62.2279	12,553.7	58.4964	12,553.7	55.7034	12,553.7	54.1305	12,553.7	54.1656	12,553.7	55.2883
12,996.1	88.2308	12,996.1	87.8176	12,996.1	87.9742	12,996.1	85.9877	12,996.1	86.1656	12,996.1	82.5467	12,996.1	83.5949	12,996.1	79.4134	12,996.1	79.3488	12,996.1	79.7036	12,996.1	79.3269	12,996.1	76.8722	12,996.1	75.5668	12,996.1	74.3179	12,996.1	73.1056	12,996.1	71.712	12,996.1	71.3983	12,996.1	67.8974	12,996.1	68.562	12,996.1	61.1228	12,996.1	60.5378	12,996.1	59.1629	12,996.1	59.9228	12,996.1	51.3956	12,996.1	49.8107	12,996.1	53.0308	12,996.1	56.2157	12,996.1	54.4413	12,996.1	54.9989	12,996.1	59.3464	12,996.1	60.0379	12,996.1	53.7237	12,996.1	53.4728	12,996.1	55.2629	12,996.1	52.4415	12,996.1	52.019
13,454.6	87.4033	13,454.6	86.778	13,454.6	87.2264	13,454.6	85.2466	13,454.6	85.3415	13,454.6	81.6206	13,454.6	82.604	13,454.6	79.3304	13,454.6	79.2265	13,454.6	77.3532	13,454.6	78.1309	13,454.6	75.7204	13,454.6	75.0394	13,454.6	75.1252	13,454.6	73.4381	13,454.6	72.4501	13,454.6	71.6388	13,454.6	67.0429	13,454.6	68.3451	13,454.6	61.8701	13,454.6	61.84	13,454.6	59.4099	13,454.6	60.658	13,454.6	45.5541	13,454.6	56.5288	13,454.6	55.9726	13,454.6	55.4954	13,454.6	48.296	13,454.6	55.7041	13,454.6	52.3383	13,454.6	58.6217	13,454.6	51.0007	13,454.6	53.9508	13,454.6	50.2038	13,454.6	48.8862	13,454.6	51.6455
13,929.2	86.8377	13,929.2	85.9194	13,929.2	86.4281	13,929.2	84.5193	13,929.2	84.6023	13,929.2	80.7625	13,929.2	81.7603	13,929.2	79.6452	13,929.2	79.1259	13,929.2	75.6839	13,929.2	76.2781	13,929.2	76.1061	13,929.2	75.5911	13,929.2	73.8731	13,929.2	73.1112	13,929.2	69.5275	13,929.2	69.8111	13,929.2	63.3924	13,929.2	65.1925	13,929.2	57.4953	13,929.2	60.292	13,929.2	59.9344	13,929.2	58.3226	13,929.2	54.4219	13,929.2	55.3217	13,929.2	53.6828	13,929.2	42.9767	13,929.2	47.9126	13,929.2	51.4727	13,929.2	55.7215	13,929.2	53.2752	13,929.2	43.1449	13,929.2	49.5017	13,929.2	51.8937	13,929.2	54.604	13,929.2	45.5429
14,419.9	86.2002	14,419.9	85.3108	14,419.9	85.7861	14,419.9	83.816	14,419.9	84.0627	14,419.9	80.7613	14,419.9	81.6621	14,419.9	79.4074	14,419.9	79.0491	14,419.9	76.8766	14,419.9	76.8082	14,419.9	75.1844	14,419.9	75.9028	14,419.9	70.715	14,419.9	70.6812	14,419.9	66.7614	14,419.9	68.1659	14,419.9	62.7267	14,419.9	64.5201	14,419.9	55.4376	14,419.9	58.8128	14,419.9	62.0665	14,419.9	58.6519	14,419.9	52.183	14,419.9	53.4308	14,419.9	51.04	14,419.9	49.9614	14,419.9	51.981	14,419.9	56.3197	14,419.9	54.7086	14,419.9	51.1354	14,419.9	45.7428	14,419.9	48.2252	14,419.9	53.2909	14,419.9	55.1497	14,419.9	49.6357
14,928.2	84.902	14,928.2	84.3361	14,928.2	84.7852	14,928.2	83.5278	14,928.2	83.4007	14,928.2	81.2749	14,928.2	81.9399	14,928.2	79.4595	14,928.2	79.6891	14,928.2	77.7717	14,928.2	78.2719	14,928.2	74.2573	14,928.2	75.5064	14,928.2	70.8843	14,928.2	70.5393	14,928.2	68.5378	14,928.2	69.5369	14,928.2	65.1094	14,928.2	66.7516	14,928.2	57.1086	14,928.2	61.7661	14,928.2	60.9017	14,928.2	59.7759	14,928.2	49.4565	14,928.2	54.5812	14,928.2	50.2178	14,928.2	54.5512	14,928.2	50.9309	14,928.2	55.8368	14,928.2	53.2145	14,928.2	53.1507	14,928.2	50.6404	14,928.2	49.8283	14,928.2	52.4922	14,928.2	56.0406	14,928.2	54.8437
15,455.6	82.9329	15,455.6	83.2928	15,455.6	83.0114	15,455.6	83.5848	15,455.6	83.4584	15,455.6	82.5643	15,455.6	82.6553	15,455.6	80.5812	15,455.6	80.6579	15,455.6	78.0441	15,455.6	78.9926	15,455.6	73.9603	15,455.6	74.8754	15,455.6	72.1099	15,455.6	71.8713	15,455.6	69.7218	15,455.6	70.2945	15,455.6	63.767	15,455.6	67.3597	15,455.6	57.6031	15,455.6	60.4272	15,455.6	58.0107	15,455.6	57.6226	15,455.6	50.0816	15,455.6	58.0532	15,455.6	52.769	15,455.6	53.8751	15,455.6	47.1708	15,455.6	52.9134	15,455.6	49.398	15,455.6	51.1708	15,455.6	40.6048	15,455.6	47.4561	15,455.6	51.3165	15,455.6	56.1931	15,455.6	57.5629
16,000.5	80.2859	16,000.5	82.745	16,000.5	81.6569	16,000.5	84.6479	16,000.5	83.7836	16,000.5	83.3504	16,000.5	83.1358	16,000.5	81.1614	16,000.5	81.5756	16,000.5	77.1199	16,000.5	78.2413	16,000.5	75.0926	16,000.5	75.655	16,000.5	71.7136	16,000.5	70.8573	16,000.5	68.3355	16,000.5	68.2186	16,000.5	63.9012	16,000.5	65.3531	16,000.5	58.0453	16,000.5	57.7824	16,000.5	58.0791	16,000.5	53.1516	16,000.5	53.4963	16,000.5	56.0943	16,000.5	50.2126	16,000.5	52.9284	16,000.5	44.6662	16,000.5	53.5329	16,000.5	46.4882	16,000.5	47.9682	16,000.5	42.1496	16,000.5	50.1525	16,000.5	49.0923	16,000.5	55.5947	16,000.5	58.2283
16,564.5	79.9612	16,564.5	83.3399	16,564.5	81.7625	16,564.5	85.4267	16,564.5	84.2281	16,564.5	83.4554	16,564.5	83.5527	16,564.5	80.8238	16,564.5	81.9122	16,564.5	76.7358	16,564.5	77.81	16,564.5	74.5932	16,564.5	75.2884	16,564.5	70.7534	16,564.5	70.1467	16,564.5	68.2984	16,564.5	66.4662	16,564.5	64.6057	16,564.5	64.806	16,564.5	58.9065	16,564.5	59.3164	16,564.5	56.6694	16,564.5	50.711	16,564.5	53.3951	16,564.5	55.8451	16,564.5	53.4063	16,564.5	49.521	16,564.5	43.1861	16,564.5	53.8598	16,564.5	46.9327	16,564.5	51.7354	16,564.5	31.8507	16,564.5	46.6584	16,564.5	44.8105	16,564.5	55.342	16,564.5	57.4343
17,148.9	83.6719	17,148.9	84.5934	17,148.9	83.9055	17,148.9	85.4798	17,148.9	84.7616	17,148.9	83.1539	17,148.9	83.6445	17,148.9	79.9756	17,148.9	81.0416	17,148.9	76.6094	17,148.9	77.4568	17,148.9	72.4666	17,148.9	73.4529	17,148.9	69.997	17,148.9	69.6008	17,148.9	68.383	17,148.9	65.8007	17,148.9	63.7526	17,148.9	64.3197	17,148.9	59.0716	17,148.9	58.5674	17,148.9	53.2902	17,148.9	49.2623	17,148.9	54.5439	17,148.9	57.3856	17,148.9	55.0837	17,148.9	51.8768	17,148.9	45.7946	17,148.9	52.937	17,148.9	49.4213	17,148.9	49.787	17,148.9	39.0532	17,148.9	46.4447	17,148.9	45.6018	17,148.9	56.0982	17,148.9	55.5548
17,752.4	86.782	17,752.4	86.3148	17,752.4	86.2637	17,752.4	85.961	17,752.4	85.6511	17,752.4	83.3156	17,752.4	83.8509	17,752.4	79.7339	17,752.4	80.6317	17,752.4	76.2479	17,752.4	77.2948	17,752.4	72.0726	17,752.4	72.013	17,752.4	69.6313	17,752.4	70.2727	17,752.4	67.0641	17,752.4	64.7433	17,752.4	63.204	17,752.4	63.7323	17,752.4	57.865	17,752.4	58.365	17,752.4	52.6223	17,752.4	50.7971	17,752.4	54.7213	17,752.4	54.2406	17,752.4	53.1282	17,752.4	46.3591	17,752.4	44.7002	17,752.4	54.7088	17,752.4	48.1754	17,752.4	45.8713	17,752.4	47.6677	17,752.4	43.4791	17,752.4	44.8134	17,752.4	52.2383	17,752.4	51.6843
18,379.4	89.0389	18,379.4	87.7974	18,379.4	88.1881	18,379.4	86.8289	18,379.4	86.6359	18,379.4	83.6838	18,379.4	84.3174	18,379.4	80.1672	18,379.4	81.2471	18,379.4	75.6293	18,379.4	77.5405	18,379.4	71.3168	18,379.4	72.5133	18,379.4	66.9004	18,379.4	69.7095	18,379.4	64.1493	18,379.4	63.5713	18,379.4	61.9219	18,379.4	62.3073	18,379.4	57.3865	18,379.4	58.5864	18,379.4	46.4671	18,379.4	51.3318	18,379.4	53.9033	18,379.4	51.2074	18,379.4	47.4488	18,379.4	45.3697	18,379.4	39.121	18,379.4	50.6696	18,379.4	47.3039	18,379.4	48.9867	18,379.4	50.9126	18,379.4	47.8311	18,379.4	50.153	18,379.4	47.7198	18,379.4	48.2646
19,026.9	90.4763	19,026.9	88.7088	19,026.9	89.3208	19,026.9	87.2842	19,026.9	87.0559	19,026.9	83.9669	19,026.9	84.5258	19,026.9	79.462	19,026.9	81.4267	19,026.9	74.5637	19,026.9	77.1239	19,026.9	68.1228	19,026.9	71.0762	19,026.9	62.3387	19,026.9	68.2579	19,026.9	60.0238	19,026.9	62.6003	19,026.9	58.0604	19,026.9	60.4059	19,026.9	54.5404	19,026.9	56.8848	19,026.9	24.8658	19,026.9	52.0132	19,026.9	50.3258	19,026.9	48.3591	19,026.9	48.0947	19,026.9	47.0103	19,026.9	41.6551	19,026.9	49.8259	19,026.9	51.3916	19,026.9	47.8593	19,026.9	51.6066	19,026.9	47.9245	19,026.9	52.7008	19,026.9	39.8267	19,026.9	57.3022
19,697.8	91.4621	19,697.8	89.1603	19,697.8	90.0651	19,697.8	87.5139	19,697.8	87.3699	19,697.8	83.6524	19,697.8	84.5159	19,697.8	77.7969	19,697.8	80.8721	19,697.8	72.0863	19,697.8	76.477	19,697.8	64.0074	19,697.8	69.5923	19,697.8	60.445	19,697.8	67.3232	19,697.8	52.3362	19,697.8	62.6359	19,697.8	51.356	19,697.8	60.4529	19,697.8	49.1208	19,697.8	56.4046	19,697.8	48.1518	19,697.8	50.8048	19,697.8	48.0877	19,697.8	47.2311	19,697.8	42.0958	19,697.8	46.985	19,697.8	39.8999	19,697.8	36.4096	19,697.8	52.494	19,697.8	52.4448	19,697.8	52.4724	19,697.8	47.8888	19,697.8	52.353	19,697.8	56.1156	19,697.8	63.1174
19,999.5	91.9908	19,999.5	89.343	19,999.5	90.4997	19,999.5	87.6535	19,999.5	87.5266	19,999.5	83.5951	19,999.5	84.6086	19,999.5	77.1502	19,999.5	81.0068	19,999.5	73.1225	19,999.5	75.8205	19,999.5	66.2558	19,999.5	70.7595	19,999.5	63.0699	19,999.5	68.7656	19,999.5	61.4754	19,999.5	62.8783	19,999.5	55.0407	19,999.5	62.9397	19,999.5	49.4621	19,999.5	61.5982	19,999.5	59.1414	19,999.5	56.5483	19,999.5	62.9252	19,999.5	54.9515	19,999.5	49.4325	19,999.5	59.3203	19,999.5	50.4852	19,999.5	45.0924	19,999.5	56.6653	19,999.5	60.7462	19,999.5	57.163	19,999.5	58.3401	19,999.5	51.3984	19,999.5	65.3489	19,999.5	67.4946
