"SPL Vertical"																																																																							
"On-Axis"		"10°"		"-10°"		"20°"		"-20°"		"30°"		"-30°"		"40°"		"-40°"		"50°"		"-50°"		"60°"		"-60°"		"70°"		"-70°"		"80°"		"-80°"		"90°"		"-90°"		"100°"		"-100°"		"110°"		"-110°"		"120°"		"-120°"		"130°"		"-130°"		"140°"		"-140°"		"150°"		"-150°"		"160°"		"-160°"		"170°"		"-170°"		"180°"	
"Frequency [Hz]"	"Sound Pessure Level [dB]  / [2.83V 1m] "	"Frequency [Hz]"	"Sound Pessure Level [dB]  / [2.83V 1m] "	"Frequency [Hz]"	"Sound Pessure Level [dB]  / [2.83V 1m] "	"Frequency [Hz]"	"Sound Pessure Level [dB]  / [2.83V 1m] "	"Frequency [Hz]"	"Sound Pessure Level [dB]  / [2.83V 1m] "	"Frequency [Hz]"	"Sound Pessure Level [dB]  / [2.83V 1m] "	"Frequency [Hz]"	"Sound Pessure Level [dB]  / [2.83V 1m] "	"Frequency [Hz]"	"Sound Pessure Level [dB]  / [2.83V 1m] "	"Frequency [Hz]"	"Sound Pessure Level [dB]  / [2.83V 1m] "	"Frequency [Hz]"	"Sound Pessure Level [dB]  / [2.83V 1m] "	"Frequency [Hz]"	"Sound Pessure Level [dB]  / [2.83V 1m] "	"Frequency [Hz]"	"Sound Pessure Level [dB]  / [2.83V 1m] "	"Frequency [Hz]"	"Sound Pessure Level [dB]  / [2.83V 1m] "	"Frequency [Hz]"	"Sound Pessure Level [dB]  / [2.83V 1m] "	"Frequency [Hz]"	"Sound Pessure Level [dB]  / [2.83V 1m] "	"Frequency [Hz]"	"Sound Pessure Level [dB]  / [2.83V 1m] "	"Frequency [Hz]"	"Sound Pessure Level [dB]  / [2.83V 1m] "	"Frequency [Hz]"	"Sound Pessure Level [dB]  / [2.83V 1m] "	"Frequency [Hz]"	"Sound Pessure Level [dB]  / [2.83V 1m] "	"Frequency [Hz]"	"Sound Pessure Level [dB]  / [2.83V 1m] "	"Frequency [Hz]"	"Sound Pessure Level [dB]  / [2.83V 1m] "	"Frequency [Hz]"	"Sound Pessure Level [dB]  / [2.83V 1m] "	"Frequency [Hz]"	"Sound Pessure Level [dB]  / [2.83V 1m] "	"Frequency [Hz]"	"Sound Pessure Level [dB]  / [2.83V 1m] "	"Frequency [Hz]"	"Sound Pessure Level [dB]  / [2.83V 1m] "	"Frequency [Hz]"	"Sound Pessure Level [dB]  / [2.83V 1m] "	"Frequency [Hz]"	"Sound Pessure Level [dB]  / [2.83V 1m] "	"Frequency [Hz]"	"Sound Pessure Level [dB]  / [2.83V 1m] "	"Frequency [Hz]"	"Sound Pessure Level [dB]  / [2.83V 1m] "	"Frequency [Hz]"	"Sound Pessure Level [dB]  / [2.83V 1m] "	"Frequency [Hz]"	"Sound Pessure Level [dB]  / [2.83V 1m] "	"Frequency [Hz]"	"Sound Pessure Level [dB]  / [2.83V 1m] "	"Frequency [Hz]"	"Sound Pessure Level [dB]  / [2.83V 1m] "	"Frequency [Hz]"	"Sound Pessure Level [dB]  / [2.83V 1m] "	"Frequency [Hz]"	"Sound Pessure Level [dB]  / [2.83V 1m] "	"Frequency [Hz]"	"Sound Pessure Level [dB]  / [2.83V 1m] "
20.5078	61.0261	20.5078	61.0154	20.5078	61.0398	20.5078	61.0061	20.5078	61.0584	20.5078	60.9975	20.5078	61.0834	20.5078	60.9899	20.5078	61.1156	20.5078	60.9842	20.5078	61.1546	20.5078	60.9819	20.5078	61.1989	20.5078	60.9847	20.5078	61.2462	20.5078	60.9944	20.5078	61.2943	20.5078	61.0122	20.5078	61.3411	20.5078	61.0392	20.5078	61.3854	20.5078	61.0755	20.5078	61.4262	20.5078	61.1209	20.5078	61.462	20.5078	61.1741	20.5078	61.4911	20.5078	61.233	20.5078	61.511	20.5078	61.2946	20.5078	61.5192	20.5078	61.3554	20.5078	61.5135	20.5078	61.4112	20.5078	61.493	20.5078	61.4582
21.9727	60.6141	21.9727	60.5363	21.9727	60.6922	21.9727	60.4609	21.9727	60.7681	21.9727	60.3894	21.9727	60.839	21.9727	60.3232	21.9727	60.9012	21.9727	60.2635	21.9727	60.9515	21.9727	60.2117	21.9727	60.9867	21.9727	60.169	21.9727	61.0048	21.9727	60.1367	21.9727	61.0049	21.9727	60.1157	21.9727	60.9875	21.9727	60.1068	21.9727	60.9545	21.9727	60.1106	21.9727	60.9085	21.9727	60.1272	21.9727	60.8527	21.9727	60.156	21.9727	60.7899	21.9727	60.1962	21.9727	60.7226	21.9727	60.2463	21.9727	60.6526	21.9727	60.3047	21.9727	60.581	21.9727	60.3692	21.9727	60.5091	21.9727	60.438
23.4375	62.2218	23.4375	62.143	23.4375	62.3012	23.4375	62.0664	23.4375	62.379	23.4375	61.9939	23.4375	62.4528	23.4375	61.9268	23.4375	62.5196	23.4375	61.8668	23.4375	62.5762	23.4375	61.8153	23.4375	62.6198	23.4375	61.7737	23.4375	62.6479	23.4375	61.7434	23.4375	62.6591	23.4375	61.7253	23.4375	62.6534	23.4375	61.7205	23.4375	62.6316	23.4375	61.7292	23.4375	62.5955	23.4375	61.7515	23.4375	62.5474	23.4375	61.7872	23.4375	62.4894	23.4375	61.8351	23.4375	62.4235	23.4375	61.894	23.4375	62.3514	23.4375	61.9618	23.4375	62.2747	23.4375	62.0363	23.4375	62.1952	23.4375	62.1149
24.9023	62.9741	24.9023	62.8904	24.9023	63.0563	24.9023	62.8075	24.9023	63.1345	24.9023	62.7275	24.9023	63.206	24.9023	62.6523	24.9023	63.2678	24.9023	62.5837	24.9023	63.3168	24.9023	62.5237	24.9023	63.3503	24.9023	62.4737	24.9023	63.3662	24.9023	62.4352	24.9023	63.3637	24.9023	62.4094	24.9023	63.3432	24.9023	62.397	24.9023	63.3064	24.9023	62.3986	24.9023	63.2559	24.9023	62.414	24.9023	63.1948	24.9023	62.4428	24.9023	63.1261	24.9023	62.4841	24.9023	63.0522	24.9023	62.5364	24.9023	62.9752	24.9023	62.5981	24.9023	62.8968	24.9023	62.667	24.9023	62.8182	24.9023	62.741
26.3672	63.7376	26.3672	63.6348	26.3672	63.8359	26.3672	63.5307	26.3672	63.926	26.3672	63.4277	26.3672	64.004	26.3672	63.3282	26.3672	64.0653	26.3672	63.234	26.3672	64.1061	26.3672	63.1467	26.3672	64.1228	26.3672	63.068	26.3672	64.1132	26.3672	62.9992	26.3672	64.0769	26.3672	62.9414	26.3672	64.0149	26.3672	62.8958	26.3672	63.9302	26.3672	62.8632	26.3672	63.8271	26.3672	62.8443	26.3672	63.7111	26.3672	62.8398	26.3672	63.588	26.3672	62.8501	26.3672	63.4638	26.3672	62.8756	26.3672	63.3436	26.3672	62.9164	26.3672	63.2317	26.3672	62.9728	26.3672	63.1313	26.3672	63.0446
27.832	64.7147	27.832	64.6104	27.832	64.814	27.832	64.5044	27.832	64.9047	27.832	64.3995	27.832	64.9827	27.832	64.2981	27.832	65.044	27.832	64.2024	27.832	65.0848	27.832	64.1142	27.832	65.1017	27.832	64.0351	27.832	65.0929	27.832	63.9667	27.832	65.0579	27.832	63.9099	27.832	64.9976	27.832	63.866	27.832	64.9149	27.832	63.8356	27.832	64.8139	27.832	63.8193	27.832	64.6997	27.832	63.8175	27.832	64.5783	27.832	63.8306	27.832	64.455	27.832	63.8587	27.832	64.3353	27.832	63.9021	27.832	64.2232	27.832	63.9606	27.832	64.1221	27.832	64.0342
29.2969	65.4624	29.2969	65.3575	29.2969	65.5616	29.2969	65.25	29.2969	65.6515	29.2969	65.143	29.2969	65.7282	29.2969	65.0388	29.2969	65.7877	29.2969	64.9397	29.2969	65.8263	29.2969	64.8477	29.2969	65.8409	29.2969	64.7646	29.2969	65.8297	29.2969	64.6919	29.2969	65.7921	29.2969	64.6311	29.2969	65.7293	29.2969	64.5833	29.2969	65.6442	29.2969	64.5494	29.2969	65.5408	29.2969	64.5302	29.2969	65.4243	29.2969	64.5263	29.2969	65.3006	29.2969	64.5381	29.2969	65.175	29.2969	64.5659	29.2969	65.0529	29.2969	64.6097	29.2969	64.9385	29.2969	64.6694	29.2969	64.835	29.2969	64.7448
30.7617	66.2746	30.7617	66.1681	30.7617	66.3752	30.7617	66.059	30.7617	66.466	30.7617	65.9507	30.7617	66.5428	30.7617	65.8456	30.7617	66.6015	30.7617	65.7463	30.7617	66.6387	30.7617	65.6547	30.7617	66.6512	30.7617	65.5724	30.7617	66.6376	30.7617	65.5012	30.7617	66.5975	30.7617	65.442	30.7617	66.5325	30.7617	65.3961	30.7617	66.4456	30.7617	65.3641	30.7617	66.3414	30.7617	65.3467	30.7617	66.2251	30.7617	65.3443	30.7617	66.1025	30.7617	65.3571	30.7617	65.9791	30.7617	65.3852	30.7617	65.8598	30.7617	65.4286	30.7617	65.7485	30.7617	65.4872	30.7617	65.6481	30.7617	65.5606
32.2266	67.1635	32.2266	67.0587	32.2266	67.2628	32.2266	66.9517	32.2266	67.3531	32.2266	66.8458	32.2266	67.431	32.2266	66.7437	32.2266	67.4928	32.2266	66.648	32.2266	67.5356	32.2266	66.561	32.2266	67.5567	32.2266	66.4846	32.2266	67.5547	32.2266	66.4207	32.2266	67.5294	32.2266	66.3704	32.2266	67.4817	32.2266	66.3348	32.2266	67.4138	32.2266	66.3148	32.2266	67.3291	32.2266	66.3105	32.2266	67.2317	32.2266	66.3222	32.2266	67.1257	32.2266	66.3496	32.2266	67.0155	32.2266	66.3922	32.2266	66.9049	32.2266	66.4493	32.2266	66.7973	32.2266	66.5199	32.2266	66.6957	32.2266	66.6026
33.6914	67.6364	33.6914	67.5245	33.6914	67.742	33.6914	67.4102	33.6914	67.8378	33.6914	67.2968	33.6914	67.92	33.6914	67.1878	33.6914	67.9853	33.6914	67.0862	33.6914	68.0308	33.6914	66.9948	33.6914	68.0543	33.6914	66.9159	33.6914	68.0546	33.6914	66.8516	33.6914	68.0317	33.6914	66.8035	33.6914	67.9867	33.6914	66.7727	33.6914	67.9221	33.6914	66.7598	33.6914	67.8412	33.6914	66.7649	33.6914	67.7477	33.6914	66.7876	33.6914	67.6457	33.6914	66.8271	33.6914	67.5388	33.6914	66.882	33.6914	67.4303	33.6914	66.9506	33.6914	67.323	33.6914	67.031	33.6914	67.2193	33.6914	67.1213
35.1562	68.2965	35.1562	68.1811	35.1562	68.4029	35.1562	68.0602	35.1562	68.4963	35.1562	67.9374	35.1562	68.5731	35.1562	67.8159	35.1562	68.6297	35.1562	67.6988	35.1562	68.6628	35.1562	67.589	35.1562	68.6702	35.1562	67.489	35.1562	68.6506	35.1562	67.4012	35.1562	68.6041	35.1562	67.3274	35.1562	68.5323	35.1562	67.2694	35.1562	68.4383	35.1562	67.2286	35.1562	68.3264	35.1562	67.2059	35.1562	68.2017	35.1562	67.2019	35.1562	68.0695	35.1562	67.217	35.1562	67.9352	35.1562	67.2512	35.1562	67.8034	35.1562	67.3039	35.1562	67.6784	35.1562	67.3744	35.1562	67.5635	35.1562	67.4615
36.6211	69.2065	36.6211	69.0926	36.6211	69.3127	36.6211	68.9747	36.6211	69.4076	36.6211	68.8562	36.6211	69.4874	36.6211	68.7405	36.6211	69.5489	36.6211	68.6307	36.6211	69.589	36.6211	68.5295	36.6211	69.6055	36.6211	68.4394	36.6211	69.5972	36.6211	68.3625	36.6211	69.5639	36.6211	68.3006	36.6211	69.507	36.6211	68.2552	36.6211	69.4288	36.6211	68.2273	36.6211	69.333	36.6211	68.2174	36.6211	69.2236	36.6211	68.226	36.6211	69.1053	36.6211	68.2527	36.6211	68.9827	36.6211	68.2971	36.6211	68.8599	36.6211	68.3583	36.6211	68.7408	36.6211	68.4351	36.6211	68.6285	36.6211	68.5258
38.0859	69.582	38.0859	69.4699	38.0859	69.688	38.0859	69.3553	38.0859	69.7842	38.0859	69.2413	38.0859	69.867	38.0859	69.1308	38.0859	69.9325	38.0859	69.0267	38.0859	69.9774	38.0859	68.9312	38.0859	69.9991	38.0859	68.8466	38.0859	69.9957	38.0859	68.7747	38.0859	69.9668	38.0859	68.7171	38.0859	69.9135	38.0859	68.6751	38.0859	69.838	38.0859	68.6496	38.0859	69.7439	38.0859	68.6412	38.0859	69.6358	38.0859	68.6502	38.0859	69.5183	38.0859	68.6766	38.0859	69.3963	38.0859	68.72	38.0859	69.2742	38.0859	68.7798	38.0859	69.156	38.0859	68.8548	38.0859	69.045	38.0859	68.9438
39.5508	70.4558	39.5508	70.3385	39.5508	70.5662	39.5508	70.2182	39.5508	70.6657	39.5508	70.0984	39.5508	70.7505	39.5508	69.9822	39.5508	70.8166	39.5508	69.8727	39.5508	70.8608	39.5508	69.7724	39.5508	70.8806	39.5508	69.6836	39.5508	70.8744	39.5508	69.6084	39.5508	70.8423	39.5508	69.5483	39.5508	70.7856	39.5508	69.5047	39.5508	70.7069	39.5508	69.4785	39.5508	70.6099	39.5508	69.4704	39.5508	70.4991	39.5508	69.4805	39.5508	70.3792	39.5508	69.5089	39.5508	70.2546	39.5508	69.5549	39.5508	70.1298	39.5508	69.6179	39.5508	70.0084	39.5508	69.6965	39.5508	69.8939	39.5508	69.7891
41.0156	70.9327	41.0156	70.8175	41.0156	71.0396	41.0156	70.6976	41.0156	71.1345	41.0156	70.5768	41.0156	71.2138	41.0156	70.4584	41.0156	71.2741	41.0156	70.3457	41.0156	71.3127	41.0156	70.2415	41.0156	71.3274	41.0156	70.1486	41.0156	71.317	41.0156	70.0692	41.0156	71.2817	41.0156	70.0051	41.0156	71.2227	41.0156	69.9578	41.0156	71.1425	41.0156	69.9283	41.0156	71.0447	41.0156	69.9174	41.0156	70.9336	41.0156	69.9252	41.0156	70.8138	41.0156	69.9515	41.0156	70.6896	41.0156	69.996	41.0156	70.5653	41.0156	70.0576	41.0156	70.4446	41.0156	70.1351	41.0156	70.3308	41.0156	70.2269
42.4805	71.4355	42.4805	71.3136	42.4805	71.5522	42.4805	71.1904	42.4805	71.6597	42.4805	71.0694	42.4805	71.7539	42.4805	70.9541	42.4805	71.831	42.4805	70.8475	42.4805	71.8874	42.4805	70.7521	42.4805	71.9204	42.4805	70.6702	42.4805	71.9281	42.4805	70.6038	42.4805	71.9098	42.4805	70.5542	42.4805	71.8663	42.4805	70.5223	42.4805	71.7995	42.4805	70.5088	42.4805	71.7126	42.4805	70.5137	42.4805	71.6097	42.4805	70.537	42.4805	71.4951	42.4805	70.5779	42.4805	71.3735	42.4805	70.6357	42.4805	71.2491	42.4805	70.7092	42.4805	71.126	42.4805	70.7969	42.4805	71.0077	42.4805	70.8971
43.9453	71.9435	43.9453	71.815	43.9453	72.0677	43.9453	71.6867	43.9453	72.1835	43.9453	71.5626	43.9453	72.2865	43.9453	71.4463	43.9453	72.3727	43.9453	71.3413	43.9453	72.439	43.9453	71.2503	43.9453	72.4828	43.9453	71.1757	43.9453	72.5027	43.9453	71.1194	43.9453	72.4985	43.9453	71.0829	43.9453	72.471	43.9453	71.0669	43.9453	72.4221	43.9453	71.0717	43.9453	72.3542	43.9453	71.0971	43.9453	72.2703	43.9453	71.1421	43.9453	72.1735	43.9453	71.2055	43.9453	72.0666	43.9453	71.2852	43.9453	71.9525	43.9453	71.3789	43.9453	71.8342	43.9453	71.4837	43.9453	71.7146	43.9453	71.5967
45.4102	72.6432	45.4102	72.5192	45.4102	72.764	45.4102	72.396	45.4102	72.8773	45.4102	72.2773	45.4102	72.9789	45.4102	72.1663	45.4102	73.0647	45.4102	72.0659	45.4102	73.1313	45.4102	71.9784	45.4102	73.1761	45.4102	71.9058	45.4102	73.1975	45.4102	71.8499	45.4102	73.1951	45.4102	71.8119	45.4102	73.1695	45.4102	71.7927	45.4102	73.1223	45.4102	71.7929	45.4102	73.0558	45.4102	71.8128	45.4102	72.9725	45.4102	71.8521	45.4102	72.8752	45.4102	71.9098	45.4102	72.7671	45.4102	71.9848	45.4102	72.6511	45.4102	72.0749	45.4102	72.5306	45.4102	72.1778	45.4102	72.4092	45.4102	72.2904
46.875	73.405	46.875	73.3023	46.875	73.4993	46.875	73.1941	46.875	73.5822	46.875	73.0832	46.875	73.6506	46.875	72.9722	46.875	73.7016	46.875	72.864	46.875	73.7321	46.875	72.7611	46.875	73.74	46.875	72.6663	46.875	73.7239	46.875	72.5819	46.875	73.6836	46.875	72.5105	46.875	73.6204	46.875	72.454	46.875	73.537	46.875	72.4141	46.875	73.4372	46.875	72.3922	46.875	73.3255	46.875	72.3891	46.875	73.2067	46.875	72.405	46.875	73.0851	46.875	72.4396	46.875	72.965	46.875	72.4921	46.875	72.8497	46.875	72.5613	46.875	72.7422	46.875	72.6453
48.3398	74.5636	48.3398	74.4448	48.3398	74.6651	48.3398	74.3122	48.3398	74.7457	48.3398	74.1701	48.3398	74.8025	48.3398	74.0226	48.3398	74.833	48.3398	73.8738	48.3398	74.8356	48.3398	73.7279	48.3398	74.8091	48.3398	73.5886	48.3398	74.7536	48.3398	73.4597	48.3398	74.6701	48.3398	73.3445	48.3398	74.5611	48.3398	73.246	48.3398	74.4301	48.3398	73.1667	48.3398	74.2823	48.3398	73.1088	48.3398	74.1236	48.3398	73.0741	48.3398	73.9602	48.3398	73.0635	48.3398	73.7983	48.3398	73.0777	48.3398	73.6436	48.3398	73.1168	48.3398	73.5008	48.3398	73.18	48.3398	73.3741	48.3398	73.2663
51.2695	74.6265	51.2695	74.5155	51.2695	74.7358	51.2695	74.406	51.2695	74.8401	51.2695	74.301	51.2695	74.9355	51.2695	74.2029	51.2695	75.0184	51.2695	74.1141	51.2695	75.0851	51.2695	74.0363	51.2695	75.1327	51.2695	73.9713	51.2695	75.1588	51.2695	73.9202	51.2695	75.1621	51.2695	73.8842	51.2695	75.1421	51.2695	73.8638	51.2695	75.0993	51.2695	73.8596	51.2695	75.0351	51.2695	73.8717	51.2695	74.9519	51.2695	73.9001	51.2695	74.8528	51.2695	73.9447	51.2695	74.7418	51.2695	74.0052	51.2695	74.6235	51.2695	74.0808	51.2695	74.5028	51.2695	74.1705	51.2695	74.3844	51.2695	74.2725
52.7344	75.4188	52.7344	75.3083	52.7344	75.5279	52.7344	75.1995	52.7344	75.6322	52.7344	75.0953	52.7344	75.7284	52.7344	74.9986	52.7344	75.8136	52.7344	74.912	52.7344	75.8847	52.7344	74.8377	52.7344	75.9395	52.7344	74.7778	52.7344	75.9763	52.7344	74.734	52.7344	75.9941	52.7344	74.7077	52.7344	75.9924	52.7344	74.6998	52.7344	75.9712	52.7344	74.7108	52.7344	75.9309	52.7344	74.7407	52.7344	75.8721	52.7344	74.789	52.7344	75.7962	52.7344	74.8548	52.7344	75.705	52.7344	74.9366	52.7344	75.6013	52.7344	75.0321	52.7344	75.4886	52.7344	75.1387	52.7344	75.371	52.7344	75.253
54.1992	75.9309	54.1992	75.8261	54.1992	76.0289	54.1992	75.7178	54.1992	76.1173	54.1992	75.6092	54.1992	76.1931	54.1992	75.5038	54.1992	76.2543	54.1992	75.4045	54.1992	76.2988	54.1992	75.3146	54.1992	76.3254	54.1992	75.2367	54.1992	76.3335	54.1992	75.1732	54.1992	76.323	54.1992	75.1261	54.1992	76.2948	54.1992	75.0969	54.1992	76.2498	54.1992	75.0866	54.1992	76.1895	54.1992	75.0957	54.1992	76.1157	54.1992	75.1242	54.1992	76.0299	54.1992	75.1711	54.1992	75.9343	54.1992	75.2352	54.1992	75.8312	54.1992	75.3144	54.1992	75.7234	54.1992	75.4061	54.1992	75.6143	54.1992	75.5073
55.6641	76.1962	55.6641	76.0814	55.6641	76.3008	55.6641	75.96	55.6641	76.3922	55.6641	75.8355	55.6641	76.4674	55.6641	75.7117	55.6641	76.5239	55.6641	75.5923	55.6641	76.5597	55.6641	75.4809	55.6641	76.5735	55.6641	75.381	55.6641	76.5647	55.6641	75.2954	55.6641	76.5336	55.6641	75.227	55.6641	76.4816	55.6641	75.1778	55.6641	76.4107	55.6641	75.1494	55.6641	76.3236	55.6641	75.1426	55.6641	76.2232	55.6641	75.1576	55.6641	76.1126	55.6641	75.194	55.6641	75.995	55.6641	75.2504	55.6641	75.8735	55.6641	75.3251	55.6641	75.7514	55.6641	75.4156	55.6641	75.6321	55.6641	75.519
58.5938	77.5424	58.5938	77.4287	58.5938	77.6457	58.5938	77.3082	58.5938	77.7355	58.5938	77.1845	58.5938	77.8086	58.5938	77.061	58.5938	77.8625	58.5938	76.9411	58.5938	77.8953	58.5938	76.8282	58.5938	77.9054	58.5938	76.7251	58.5938	77.8926	58.5938	76.6348	58.5938	77.857	58.5938	76.5596	58.5938	77.8	58.5938	76.5016	58.5938	77.7233	58.5938	76.4626	58.5938	77.6294	58.5938	76.444	58.5938	77.5212	58.5938	76.4466	58.5938	77.4016	58.5938	76.471	58.5938	77.2744	58.5938	76.517	58.5938	77.1434	58.5938	76.5836	58.5938	77.013	58.5938	76.6694	58.5938	76.8877	58.5938	76.7719
60.0586	77.9163	60.0586	77.8045	60.0586	78.0191	60.0586	77.687	60.0586	78.1097	60.0586	77.5674	60.0586	78.1849	60.0586	77.4489	60.0586	78.2422	60.0586	77.3349	60.0586	78.2795	60.0586	77.2286	60.0586	78.2951	60.0586	77.1327	60.0586	78.2884	60.0586	77.0501	60.0586	78.2598	60.0586	76.9828	60.0586	78.2104	60.0586	76.933	60.0586	78.1419	60.0586	76.9022	60.0586	78.0569	60.0586	76.8916	60.0586	77.9578	60.0586	76.9018	60.0586	77.8477	60.0586	76.9331	60.0586	77.7294	60.0586	76.9849	60.0586	77.6063	60.0586	77.0559	60.0586	77.4822	60.0586	77.1443	60.0586	77.3612	60.0586	77.2472
62.9883	78.6489	62.9883	78.5362	62.9883	78.7524	62.9883	78.4177	62.9883	78.8433	62.9883	78.2971	62.9883	78.9183	62.9883	78.1778	62.9883	78.9749	62.9883	78.0632	62.9883	79.0108	62.9883	77.9566	62.9883	79.0247	62.9883	77.8608	62.9883	79.0165	62.9883	77.7785	62.9883	78.9868	62.9883	77.7123	62.9883	78.9371	62.9883	77.6641	62.9883	78.8697	62.9883	77.6355	62.9883	78.7868	62.9883	77.6275	62.9883	78.691	62.9883	77.6409	62.9883	78.5847	62.9883	77.6753	62.9883	78.4704	62.9883	77.7302	62.9883	78.3511	62.9883	77.8038	62.9883	78.23	62.9883	77.8939	62.9883	78.1108	62.9883	77.9974
64.4531	79.0869	64.4531	78.9775	64.4531	79.1867	64.4531	78.8619	64.4531	79.2735	64.4531	78.7437	64.4531	79.3441	64.4531	78.6262	64.4531	79.3957	64.4531	78.5127	64.4531	79.4264	64.4531	78.4063	64.4531	79.4351	64.4531	78.31	64.4531	79.4215	64.4531	78.2262	64.4531	79.3866	64.4531	78.1575	64.4531	79.3321	64.4531	78.1057	64.4531	79.2605	64.4531	78.0724	64.4531	79.1741	64.4531	78.0589	64.4531	79.0757	64.4531	78.0659	64.4531	78.9677	64.4531	78.0935	64.4531	78.8527	64.4531	78.1413	64.4531	78.7339	64.4531	78.208	64.4531	78.6146	64.4531	78.2916	64.4531	78.4985	64.4531	78.3896
67.3828	79.9309	67.3828	79.8241	67.3828	80.0273	67.3828	79.7103	67.3828	80.1097	67.3828	79.5932	67.3828	80.175	67.3828	79.4762	67.3828	80.2207	67.3828	79.3629	67.3828	80.2449	67.3828	79.2563	67.3828	80.2467	67.3828	79.1594	67.3828	80.2262	67.3828	79.0747	67.3828	80.1847	67.3828	79.0045	67.3828	80.124	67.3828	78.9507	67.3828	80.047	67.3828	78.9148	67.3828	79.9565	67.3828	78.8979	67.3828	79.8554	67.3828	78.9006	67.3828	79.7467	67.3828	78.923	67.3828	79.633	67.3828	78.9647	67.3828	79.5175	67.3828	79.0245	67.3828	79.4031	67.3828	79.1009	67.3828	79.2933	67.3828	79.1915
68.8477	80.3236	68.8477	80.217	68.8477	80.4193	68.8477	80.1031	68.8477	80.5009	68.8477	79.9857	68.8477	80.5653	68.8477	79.8682	68.8477	80.6102	68.8477	79.7541	68.8477	80.634	68.8477	79.6468	68.8477	80.6358	68.8477	79.5492	68.8477	80.616	68.8477	79.4641	68.8477	80.5757	68.8477	79.3938	68.8477	80.5169	68.8477	79.3402	68.8477	80.4419	68.8477	79.305	68.8477	80.3534	68.8477	79.289	68.8477	80.2541	68.8477	79.293	68.8477	80.1466	68.8477	79.3169	68.8477	80.0338	68.8477	79.3602	68.8477	79.9185	68.8477	79.4216	68.8477	79.804	68.8477	79.4994	68.8477	79.6937	68.8477	79.5911
71.7773	81.1277	71.7773	81.0228	71.7773	81.2215	71.7773	80.9107	71.7773	81.301	71.7773	80.795	71.7773	81.3632	71.7773	80.6795	71.7773	81.4059	71.7773	80.5678	71.7773	81.4276	71.7773	80.4631	71.7773	81.4281	71.7773	80.3686	71.7773	81.4082	71.7773	80.287	71.7773	81.3695	71.7773	80.2205	71.7773	81.3142	71.7773	80.171	71.7773	81.2448	71.7773	80.1401	71.7773	81.1637	71.7773	80.1285	71.7773	81.073	71.7773	80.1369	71.7773	80.9746	71.7773	80.1648	71.7773	80.8704	71.7773	80.2116	71.7773	80.7626	71.7773	80.2757	71.7773	80.6539	71.7773	80.3549	71.7773	80.5474	71.7773	80.4466
74.707	81.8658	74.707	81.7607	74.707	81.9585	74.707	81.6472	74.707	82.0354	74.707	81.5291	74.707	82.0936	74.707	81.4104	74.707	82.1308	74.707	81.2949	74.707	82.1458	74.707	81.1861	74.707	82.1384	74.707	81.0874	74.707	82.1097	74.707	81.0015	74.707	82.0615	74.707	80.9308	74.707	81.9965	74.707	80.8772	74.707	81.9177	74.707	80.842	74.707	81.8282	74.707	80.826	74.707	81.7306	74.707	80.8295	74.707	81.6274	74.707	80.8522	74.707	81.5208	74.707	80.8932	74.707	81.4132	74.707	80.9511	74.707	81.3069	74.707	81.024	74.707	81.2047	74.707	81.1094
77.6367	82.5709	77.6367	82.4647	77.6367	82.6655	77.6367	82.3506	77.6367	82.7449	77.6367	82.2326	77.6367	82.8063	77.6367	82.1145	77.6367	82.8471	77.6367	81.9999	77.6367	82.8658	77.6367	81.8922	77.6367	82.8619	77.6367	81.7945	77.6367	82.8357	77.6367	81.7093	77.6367	82.7887	77.6367	81.6389	77.6367	82.723	77.6367	81.5848	77.6367	82.6413	77.6367	81.5483	77.6367	82.5466	77.6367	81.5301	77.6367	82.4423	77.6367	81.5306	77.6367	82.3315	77.6367	81.5496	77.6367	82.2175	77.6367	81.5866	77.6367	82.1036	77.6367	81.6405	77.6367	81.993	77.6367	81.7101	77.6367	81.8887	77.6367	81.7936
79.1016	82.9401	79.1016	82.8309	79.1016	83.0376	79.1016	82.7138	79.1016	83.1198	79.1016	82.5928	79.1016	83.1836	79.1016	82.4717	79.1016	83.2265	79.1016	82.3541	79.1016	83.2467	79.1016	82.2433	79.1016	83.2435	79.1016	82.1425	79.1016	83.217	79.1016	82.0541	79.1016	83.1685	79.1016	81.9803	79.1016	83.1	79.1016	81.9228	79.1016	83.0139	79.1016	81.8828	79.1016	82.9134	79.1016	81.8612	79.1016	82.802	79.1016	81.8584	79.1016	82.6833	79.1016	81.8744	79.1016	82.5613	79.1016	81.909	79.1016	82.4399	79.1016	81.9615	79.1016	82.3229	79.1016	82.0309	79.1016	82.2138	79.1016	82.1156
82.0312	83.5136	82.0312	83.4064	82.0312	83.613	82.0312	83.2951	82.0312	83.7009	82.0312	83.1832	82.0312	83.7738	82.0312	83.0741	82.0312	83.8286	82.0312	82.9705	82.0312	83.8629	82.0312	82.8752	82.0312	83.8751	82.0312	82.79	82.0312	83.8644	82.0312	82.7166	82.0312	83.8311	82.0312	82.6562	82.0312	83.7758	82.0312	82.6097	82.0312	83.7003	82.0312	82.5778	82.0312	83.6067	82.0312	82.5608	82.0312	83.4983	82.0312	82.5593	82.0312	83.3791	82.0312	82.5738	82.0312	83.2541	82.0312	82.6047	82.0312	83.1286	82.0312	82.6526	82.0312	83.008	82.0312	82.7176	82.0312	82.8971	82.0312	82.7995
84.9609	83.6118	84.9609	83.5183	84.9609	83.7051	84.9609	83.4279	84.9609	83.7959	84.9609	83.3439	84.9609	83.8821	84.9609	83.2698	84.9609	83.9627	84.9609	83.2092	84.9609	84.0373	84.9609	83.1649	84.9609	84.1056	84.9609	83.1394	84.9609	84.1678	84.9609	83.1344	84.9609	84.2231	84.9609	83.1507	84.9609	84.2702	84.9609	83.1879	84.9609	84.3067	84.9609	83.245	84.9609	84.3294	84.9609	83.32	84.9609	84.3351	84.9609	83.41	84.9609	84.3212	84.9609	83.512	84.9609	84.2862	84.9609	83.6221	84.9609	84.2305	84.9609	83.7366	84.9609	84.1558	84.9609	83.8514	84.9609	84.0652	84.9609	83.9623
87.8906	84.3101	87.8906	84.2244	87.8906	84.3828	87.8906	84.1295	87.8906	84.4397	87.8906	84.03	87.8906	84.4796	87.8906	83.9308	87.8906	84.503	87.8906	83.8366	87.8906	84.5122	87.8906	83.7519	87.8906	84.5112	87.8906	83.6807	87.8906	84.5047	87.8906	83.6265	87.8906	84.4971	87.8906	83.5918	87.8906	84.4913	87.8906	83.5783	87.8906	84.4875	87.8906	83.5869	87.8906	84.4833	87.8906	83.6174	87.8906	84.4742	87.8906	83.6685	87.8906	84.4548	87.8906	83.7381	87.8906	84.4205	87.8906	83.8227	87.8906	84.3688	87.8906	83.918	87.8906	84.2997	87.8906	84.019	87.8906	84.2154	87.8906	84.12
90.8203	85.2375	90.8203	85.1501	90.8203	85.3015	90.8203	85.0433	90.8203	85.3392	90.8203	84.922	90.8203	85.3489	90.8203	84.7916	90.8203	85.3306	90.8203	84.6577	90.8203	85.2862	90.8203	84.5259	90.8203	85.2195	90.8203	84.4012	90.8203	85.1357	90.8203	84.2885	90.8203	85.0415	90.8203	84.1918	90.8203	84.9435	90.8203	84.1143	90.8203	84.8473	90.8203	84.058	90.8203	84.7563	90.8203	84.0239	90.8203	84.6716	90.8203	84.012	90.8203	84.5918	90.8203	84.0212	90.8203	84.5148	90.8203	84.0492	90.8203	84.4389	90.8203	84.0934	90.8203	84.3631	90.8203	84.1503	90.8203	84.2883	90.8203	84.2164
95.2148	85.8638	95.2148	85.7664	95.2148	85.9456	95.2148	85.6572	95.2148	86.0082	95.2148	85.5406	95.2148	86.0485	95.2148	85.4208	95.2148	86.0643	95.2148	85.3021	95.2148	86.0542	95.2148	85.1886	95.2148	86.0186	95.2148	85.0841	95.2148	85.9594	95.2148	84.9914	95.2148	85.8809	95.2148	84.9131	95.2148	85.7885	95.2148	84.8509	95.2148	85.6884	95.2148	84.8059	95.2148	85.5859	95.2148	84.7786	95.2148	85.4849	95.2148	84.7691	95.2148	85.3871	95.2148	84.7769	95.2148	85.293	95.2148	84.8014	95.2148	85.2025	95.2148	84.8412	95.2148	85.116	95.2148	84.8947	95.2148	85.0345	95.2148	84.96
98.1445	86.3622	98.1445	86.2449	98.1445	86.4619	98.1445	86.1151	98.1445	86.5394	98.1445	85.9778	98.1445	86.5904	98.1445	85.838	98.1445	86.6119	98.1445	85.7004	98.1445	86.602	98.1445	85.5696	98.1445	86.5611	98.1445	85.4496	98.1445	86.4916	98.1445	85.3438	98.1445	86.3983	98.1445	85.2551	98.1445	86.2874	98.1445	85.1855	98.1445	86.1664	98.1445	85.1363	98.1445	86.0418	98.1445	85.108	98.1445	85.9192	98.1445	85.1003	98.1445	85.8018	98.1445	85.1122	98.1445	85.6912	98.1445	85.1422	98.1445	85.5877	98.1445	85.1883	98.1445	85.4911	98.1445	85.2485	98.1445	85.4016	98.1445	85.3202
101.074	86.6	101.074	86.4823	101.074	86.6996	101.074	86.3515	101.074	86.7767	101.074	86.2131	101.074	86.8279	101.074	86.0726	101.074	86.8509	101.074	85.9355	101.074	86.8451	101.074	85.8065	101.074	86.8116	101.074	85.6902	101.074	86.753	101.074	85.59	101.074	86.6734	101.074	85.5085	101.074	86.5779	101.074	85.4474	101.074	86.4719	101.074	85.4074	101.074	86.3602	101.074	85.3885	101.074	86.2469	101.074	85.3898	101.074	86.135	101.074	85.41	101.074	86.0261	101.074	85.4473	101.074	85.9215	101.074	85.4999	101.074	85.8219	101.074	85.5656	101.074	85.7284	101.074	85.6424
105.469	86.8497	105.469	86.7362	105.469	86.9457	105.469	86.61	105.469	87.0203	105.469	86.4767	105.469	87.0707	105.469	86.3419	105.469	87.0958	105.469	86.2115	105.469	87.096	105.469	86.091	105.469	87.0737	105.469	85.9853	105.469	87.0329	105.469	85.899	105.469	86.9783	105.469	85.8354	105.469	86.9153	105.469	85.7967	105.469	86.8485	105.469	85.7841	105.469	86.7809	105.469	85.7972	105.469	86.7137	105.469	85.8342	105.469	86.6462	105.469	85.8921	105.469	86.5764	105.469	85.9667	105.469	86.5021	105.469	86.0533	105.469	86.4215	105.469	86.1466	105.469	86.3343	105.469	86.2416
108.398	87.1567	108.398	87.0373	108.398	87.2575	108.398	86.9044	108.398	87.3359	108.398	86.7635	108.398	87.3889	108.398	86.6207	108.398	87.4153	108.398	86.4819	108.398	87.4155	108.398	86.3528	108.398	87.3915	108.398	86.2384	108.398	87.3468	108.398	86.1433	108.398	87.286	108.398	86.0708	108.398	87.214	108.398	86.0232	108.398	87.1351	108.398	86.0016	108.398	87.0528	108.398	86.0058	108.398	86.9688	108.398	86.0343	108.398	86.8836	108.398	86.0844	108.398	86.7966	108.398	86.1526	108.398	86.7069	108.398	86.2344	108.398	86.6141	108.398	86.3254	108.398	86.5184	108.398	86.4213
112.793	87.6886	112.793	87.5665	112.793	87.7885	112.793	87.4273	112.793	87.8622	112.793	87.2768	112.793	87.9064	112.793	87.1209	112.793	87.9197	112.793	86.9656	112.793	87.9022	112.793	86.8169	112.793	87.8558	112.793	86.6805	112.793	87.7845	112.793	86.5611	112.793	87.6937	112.793	86.4632	112.793	87.5895	112.793	86.3898	112.793	87.4782	112.793	86.3429	112.793	87.3651	112.793	86.3233	112.793	87.254	112.793	86.3303	112.793	87.1467	112.793	86.3617	112.793	87.0435	112.793	86.4142	112.793	86.9434	112.793	86.4836	112.793	86.8454	112.793	86.5653	112.793	86.749	112.793	86.6549
117.188	87.9332	117.188	87.8164	117.188	88.0277	117.188	87.682	117.188	88.0966	117.188	87.5358	117.188	88.1379	117.188	87.384	117.188	88.1514	117.188	87.2329	117.188	88.1387	117.188	87.0887	117.188	88.1026	117.188	86.957	117.188	88.0471	117.188	86.8427	117.188	87.9766	117.188	86.7497	117.188	87.8951	117.188	86.681	117.188	87.806	117.188	86.6383	117.188	87.7116	117.188	86.6222	117.188	87.6131	117.188	86.6321	117.188	87.5111	117.188	86.6663	117.188	87.4063	117.188	86.722	117.188	87.2994	117.188	86.7956	117.188	87.1915	117.188	86.8832	117.188	87.0845	117.188	86.9807
120.117	88.0882	120.117	87.9767	120.117	88.177	120.117	87.8474	120.117	88.2394	120.117	87.7061	120.117	88.2732	120.117	87.5591	120.117	88.278	120.117	87.4124	120.117	88.2552	120.117	87.2718	120.117	88.2078	120.117	87.1425	120.117	88.1401	120.117	87.0286	120.117	88.0572	120.117	86.9333	120.117	87.9641	120.117	86.8592	120.117	87.8651	120.117	86.8076	120.117	87.7632	120.117	86.7794	120.117	87.6599	120.117	86.7746	120.117	87.5559	120.117	86.7924	120.117	87.4514	120.117	86.8314	120.117	87.347	120.117	86.8891	120.117	87.2436	120.117	86.9626	120.117	87.1432	120.117	87.0485
124.512	88.326	124.512	88.2131	124.512	88.4178	124.512	88.084	124.512	88.4848	124.512	87.9446	124.512	88.5247	124.512	87.8011	124.512	88.537	124.512	87.6597	124.512	88.5226	124.512	87.5265	124.512	88.4842	124.512	87.4066	124.512	88.4258	124.512	87.3043	124.512	88.3519	124.512	87.2226	124.512	88.2673	124.512	87.1635	124.512	88.1764	124.512	87.1277	124.512	88.0822	124.512	87.1149	124.512	87.9866	124.512	87.1241	124.512	87.8906	124.512	87.1535	124.512	87.7944	124.512	87.2007	124.512	87.6984	124.512	87.2629	124.512	87.6032	124.512	87.3372	124.512	87.51	124.512	87.4205
128.906	88.4805	128.906	88.3611	128.906	88.5769	128.906	88.2237	128.906	88.6464	128.906	88.0742	128.906	88.6869	128.906	87.9194	128.906	88.6979	128.906	87.766	128.906	88.6808	128.906	87.6208	128.906	88.6385	128.906	87.4897	128.906	88.5756	128.906	87.3778	128.906	88.497	128.906	87.2889	128.906	88.408	128.906	87.2255	128.906	88.313	128.906	87.1887	128.906	88.2151	128.906	87.1782	128.906	88.1163	128.906	87.1924	128.906	88.0172	128.906	87.229	128.906	87.9182	128.906	87.2846	128.906	87.8193	128.906	87.3555	128.906	87.7206	128.906	87.4379	128.906	87.6231	128.906	87.5281
133.301	88.4745	133.301	88.3522	133.301	88.5762	133.301	88.2145	133.301	88.6534	133.301	88.0676	133.301	88.7039	133.301	87.9184	133.301	88.7275	133.301	87.7736	133.301	88.7253	133.301	87.6397	133.301	88.7006	133.301	87.5223	133.301	88.6573	133.301	87.426	133.301	88.6002	133.301	87.3542	133.301	88.5334	133.301	87.3086	133.301	88.4604	133.301	87.2901	133.301	88.3832	133.301	87.298	133.301	88.3025	133.301	87.3305	133.301	88.2181	133.301	87.3848	133.301	88.1298	133.301	87.4571	133.301	88.0372	133.301	87.5433	133.301	87.9406	133.301	87.6387	133.301	87.8406	133.301	87.7391
139.16	88.6762	139.16	88.551	139.16	88.7774	139.16	88.4075	139.16	88.8505	139.16	88.2522	139.16	88.8932	139.16	88.0922	139.16	88.9052	139.16	87.9348	139.16	88.8883	139.16	87.7865	139.16	88.8462	139.16	87.6535	139.16	88.7843	139.16	87.5407	139.16	88.7084	139.16	87.4516	139.16	88.6237	139.16	87.3887	139.16	88.5342	139.16	87.353	139.16	88.4423	139.16	87.3445	139.16	88.3485	139.16	87.3621	139.16	88.2525	139.16	87.4035	139.16	88.1538	139.16	87.4658	139.16	88.052	139.16	87.5451	139.16	87.9476	139.16	87.6371	139.16	87.8419	139.16	87.7373
143.555	88.6563	143.555	88.5269	143.555	88.7594	143.555	88.3769	143.555	88.8322	143.555	88.2133	143.555	88.8728	143.555	88.0441	143.555	88.8818	143.555	87.8773	143.555	88.8619	143.555	87.721	143.555	88.8178	143.555	87.5819	143.555	88.7556	143.555	87.4661	143.555	88.6815	143.555	87.3777	143.555	88.6011	143.555	87.3195	143.555	88.5182	143.555	87.2923	143.555	88.4343	143.555	87.2955	143.555	88.3496	143.555	87.3271	143.555	88.2627	143.555	87.3836	143.555	88.1721	143.555	87.4606	143.555	88.0767	143.555	87.5531	143.555	87.9761	143.555	87.6556	143.555	87.8709	143.555	87.763
147.949	88.6629	147.949	88.5286	147.949	88.7695	147.949	88.3723	147.949	88.8444	147.949	88.2014	147.949	88.8861	147.949	88.0241	147.949	88.8957	147.949	87.8491	147.949	88.8765	147.949	87.6845	147.949	88.8336	147.949	87.5377	147.949	88.7732	147.949	87.4146	147.949	88.7011	147.949	87.3199	147.949	88.6223	147.949	87.2564	147.949	88.5396	147.949	87.2255	147.949	88.454	147.949	87.2268	147.949	88.365	147.949	87.2584	147.949	88.2716	147.949	87.3173	147.949	88.1728	147.949	87.3988	147.949	88.0681	147.949	87.4978	147.949	87.9576	147.949	87.6083	147.949	87.8424	147.949	87.7248
153.809	88.6075	153.809	88.4845	153.809	88.7017	153.809	88.3381	153.809	88.7638	153.809	88.1755	153.809	88.7928	153.809	88.0047	153.809	88.7905	153.809	87.8339	153.809	88.7613	153.809	87.6713	153.809	88.7119	153.809	87.5242	153.809	88.6498	153.809	87.399	153.809	88.5824	153.809	87.3008	153.809	88.5151	153.809	87.233	153.809	88.4501	153.809	87.1977	153.809	88.386	153.809	87.1954	153.809	88.3194	153.809	87.2252	153.809	88.2457	153.809	87.2843	153.809	88.1614	153.809	87.3686	153.809	88.0646	153.809	87.4726	153.809	87.9558	153.809	87.5898	153.809	87.8374	153.809	87.7136
159.668	88.7801	159.668	88.6459	159.668	88.8831	159.668	88.4866	159.668	88.9507	159.668	88.3101	159.668	88.9813	159.668	88.1247	159.668	88.9757	159.668	87.9394	159.668	88.9374	159.668	87.7629	159.668	88.8726	159.668	87.6029	159.668	88.7889	159.668	87.4659	159.668	88.6945	159.668	87.3571	159.668	88.5965	159.668	87.2801	159.668	88.4998	159.668	87.2369	159.668	88.4067	159.668	87.2282	159.668	88.3168	159.668	87.2527	159.668	88.2279	159.668	87.3075	159.668	88.1371	159.668	87.3877	159.668	88.0416	159.668	87.4872	159.668	87.9393	159.668	87.5987	159.668	87.8298	159.668	87.7149
165.527	88.8079	165.527	88.6832	165.527	88.9007	165.527	88.5326	165.527	88.9581	165.527	88.3638	165.527	88.9794	165.527	88.1857	165.527	88.967	165.527	88.0074	165.527	88.9266	165.527	87.8376	165.527	88.8659	165.527	87.6841	165.527	88.7935	165.527	87.5533	165.527	88.7174	165.527	87.45	165.527	88.643	165.527	87.3775	165.527	88.5722	165.527	87.3377	165.527	88.5035	165.527	87.3312	165.527	88.4334	165.527	87.3572	165.527	88.3578	165.527	87.4134	165.527	88.2735	165.527	87.4956	165.527	88.1785	165.527	87.5982	165.527	88.0726	165.527	87.7141	165.527	87.9573	165.527	87.8361
171.387	88.6881	171.387	88.5598	171.387	88.781	171.387	88.4027	171.387	88.8349	171.387	88.2253	171.387	88.8492	171.387	88.0374	171.387	88.8268	171.387	87.8495	171.387	88.7741	171.387	87.6713	171.387	88.7003	171.387	87.5118	171.387	88.6158	171.387	87.3781	171.387	88.5303	171.387	87.2756	171.387	88.4509	171.387	87.2074	171.387	88.3805	171.387	87.1751	171.387	88.3178	171.387	87.1784	171.387	88.2582	171.387	87.2154	171.387	88.1961	171.387	87.2827	171.387	88.1264	171.387	87.3747	171.387	88.0452	171.387	87.4846	171.387	87.9508	171.387	87.6046	171.387	87.8437	171.387	87.7266
177.246	88.5713	177.246	88.4375	177.246	88.6671	177.246	88.2727	177.246	88.7207	177.246	88.086	177.246	88.7318	177.246	87.8884	177.246	88.7034	177.246	87.6908	177.246	88.6422	177.246	87.5038	177.246	88.5575	177.246	87.3365	177.246	88.4601	177.246	87.196	177.246	88.3602	177.246	87.0871	177.246	88.2654	177.246	87.0129	177.246	88.1796	177.246	86.9743	177.246	88.1026	177.246	86.9713	177.246	88.0311	177.246	87.0021	177.246	87.9601	177.246	87.0634	177.246	87.885	177.246	87.1501	177.246	87.8019	177.246	87.2555	177.246	87.7082	177.246	87.3714	177.246	87.6035	177.246	87.4896
183.105	88.3799	183.105	88.2381	183.105	88.4815	183.105	88.0625	183.105	88.5396	183.105	87.8619	183.105	88.5544	183.105	87.6474	183.105	88.5298	183.105	87.4309	183.105	88.4729	183.105	87.2246	183.105	88.3934	183.105	87.0401	183.105	88.3017	183.105	86.887	183.105	88.2065	183.105	86.7724	183.105	88.1133	183.105	86.7002	183.105	88.0239	183.105	86.6713	183.105	87.9371	183.105	86.6836	183.105	87.8511	183.105	86.7324	183.105	87.7641	183.105	86.8114	183.105	87.675	183.105	86.9126	183.105	87.5824	183.105	87.0274	183.105	87.4845	183.105	87.1478	183.105	87.3794	183.105	87.2666
188.965	88.2868	188.965	88.153	188.965	88.377	188.965	87.9827	188.965	88.4199	188.965	87.7851	188.965	88.4155	188.965	87.5709	188.965	88.3688	188.965	87.3514	188.965	88.2895	188.965	87.1375	188.965	88.1907	188.965	86.9394	188.965	88.087	188.965	86.7654	188.965	87.9901	188.965	86.6224	188.965	87.9062	188.965	86.5153	188.965	87.8345	188.965	86.4478	188.965	87.7683	188.965	86.4218	188.965	87.6986	188.965	86.4377	188.965	87.6176	188.965	86.4936	188.965	87.5207	188.965	86.5849	188.965	87.407	188.965	86.7041	188.965	87.2779	188.965	86.8422	188.965	87.137	188.965	86.9894
196.289	88.2877	196.289	88.1432	196.289	88.3794	196.289	87.9535	196.289	88.4152	196.289	87.7303	196.289	88.3978	196.289	87.4883	196.289	88.3349	196.289	87.243	196.289	88.2389	196.289	87.0099	196.289	88.1246	196.289	86.8016	196.289	88.0063	196.289	86.6273	196.289	87.8944	196.289	86.4917	196.289	87.7933	196.289	86.3956	196.289	87.7007	196.289	86.3374	196.289	87.6105	196.289	86.3144	196.289	87.5159	196.289	86.3243	196.289	87.4123	196.289	86.3649	196.289	87.2981	196.289	86.4341	196.289	87.1741	196.289	86.5286	196.289	87.0425	196.289	86.6433	196.289	86.9068	196.289	86.7717
203.613	88.4358	203.613	88.2866	203.613	88.5215	203.613	88.0796	203.613	88.542	203.613	87.8238	203.613	88.4997	203.613	87.5322	203.613	88.4015	203.613	87.2206	203.613	88.2597	203.613	86.9074	203.613	88.0919	203.613	86.6119	203.613	87.9188	203.613	86.3527	203.613	87.7605	203.613	86.1447	203.613	87.6303	203.613	85.9978	203.613	87.5311	203.613	85.9153	203.613	87.4547	203.613	85.8946	203.613	87.3863	203.613	85.9292	203.613	87.3101	203.613	86.0104	203.613	87.2147	203.613	86.1289	203.613	87.0949	203.613	86.2755	203.613	86.9511	203.613	86.4409	203.613	86.7885	203.613	86.6152
210.938	88.3012	210.938	88.1675	210.938	88.3774	210.938	87.9827	210.938	88.3928	210.938	87.756	210.938	88.3483	210.938	87.4988	210.938	88.2495	210.938	87.2239	210.938	88.1077	210.938	86.9454	210.938	87.9396	210.938	86.6774	210.938	87.765	210.938	86.4337	210.938	87.6032	210.938	86.2261	210.938	87.4682	210.938	86.0642	210.938	87.3645	210.938	85.9547	210.938	87.2864	210.938	85.9007	210.938	87.2213	210.938	85.9022	210.938	87.1541	210.938	85.9559	210.938	87.072	210.938	86.0552	210.938	86.9671	210.938	86.1904	210.938	86.8371	210.938	86.3494	210.938	86.685	210.938	86.5187
218.262	88.0776	218.262	87.9464	218.262	88.1554	218.262	87.7692	218.262	88.1763	218.262	87.5555	218.262	88.1408	218.262	87.3172	218.262	88.0545	218.262	87.0668	218.262	87.9288	218.262	86.8175	218.262	87.7796	218.262	86.5823	218.262	87.6259	218.262	86.3729	218.262	87.4851	218.262	86.1993	218.262	87.3695	218.262	86.0691	218.262	87.2831	218.262	85.9874	218.262	87.2212	218.262	85.9564	218.262	87.1735	218.262	85.9755	218.262	87.1269	218.262	86.0415	218.262	87.0688	218.262	86.148	218.262	86.9896	218.262	86.2854	218.262	86.8841	218.262	86.4412	218.262	86.7527	218.262	86.6015
225.586	87.8974	225.586	87.7661	225.586	87.9687	225.586	87.5838	225.586	87.9751	225.586	87.3624	225.586	87.9172	225.586	87.1158	225.586	87.8023	225.586	86.8586	225.586	87.6454	225.586	86.6056	225.586	87.4678	225.586	86.3706	225.586	87.2947	225.586	86.1656	225.586	87.1489	225.586	85.9999	225.586	87.0448	225.586	85.8803	225.586	86.9848	225.586	85.8108	225.586	86.9597	225.586	85.7932	225.586	86.9531	225.586	85.8267	225.586	86.9469	225.586	85.9081	225.586	86.9247	225.586	86.0304	225.586	86.8744	225.586	86.1829	225.586	86.7889	225.586	86.3509	225.586	86.6679	225.586	86.5178
232.91	87.9033	232.91	87.7772	232.91	87.9618	232.91	87.5932	232.91	87.948	232.91	87.3634	232.91	87.8622	232.91	87.1023	232.91	87.7124	232.91	86.8251	232.91	87.5141	232.91	86.5475	232.91	87.2902	232.91	86.2846	232.91	87.0677	232.91	86.0505	232.91	86.8722	232.91	85.8569	232.91	86.7212	232.91	85.713	232.91	86.6202	232.91	85.6243	232.91	86.5639	232.91	85.5928	232.91	86.5397	232.91	85.6168	232.91	86.5321	232.91	85.6907	232.91	86.5247	232.91	85.8052	232.91	86.5015	232.91	85.9467	232.91	86.4498	232.91	86.0984	232.91	86.3628	232.91	86.2423
241.699	87.7536	241.699	87.5991	241.699	87.8377	241.699	87.3865	241.699	87.8433	241.699	87.1307	241.699	87.7678	241.699	86.8487	241.699	87.6161	241.699	86.5578	241.699	87.4019	241.699	86.2753	241.699	87.1488	241.699	86.017	241.699	86.8878	241.699	85.7965	241.699	86.6517	241.699	85.6242	241.699	86.4662	241.699	85.5069	241.699	86.3424	241.699	85.4472	241.699	86.2756	241.699	85.444	241.699	86.2502	241.699	85.4923	241.699	86.2476	241.699	85.5828	241.699	86.2511	241.699	85.703	241.699	86.2463	241.699	85.837	241.699	86.2214	241.699	85.9684	241.699	86.1677	241.699	86.0821
250.488	87.5741	250.488	87.4088	250.488	87.6601	250.488	87.1759	250.488	87.6598	250.488	86.8902	250.488	87.5717	250.488	86.5688	250.488	87.4024	250.488	86.2303	250.488	87.1674	250.488	85.8935	250.488	86.891	250.488	85.5773	250.488	86.6046	250.488	85.2986	250.488	86.3406	250.488	85.072	250.488	86.1255	250.488	84.9082	250.488	85.973	250.488	84.8141	250.488	85.8821	250.488	84.7914	250.488	85.8405	250.488	84.837	250.488	85.8296	250.488	84.9417	250.488	85.8289	250.488	85.0901	250.488	85.8185	250.488	85.2621	250.488	85.7812	250.488	85.435	250.488	85.7054	250.488	85.5878
259.277	87.4774	259.277	87.3273	259.277	87.561	259.277	87.1214	259.277	87.5717	259.277	86.8738	259.277	87.5085	259.277	86.6004	259.277	87.3771	259.277	86.3172	259.277	87.1901	259.277	86.0394	259.277	86.9675	259.277	85.7797	259.277	86.7346	259.277	85.5476	259.277	86.5178	259.277	85.3494	259.277	86.3384	259.277	85.1892	259.277	86.2062	259.277	85.0706	259.277	86.117	259.277	84.9977	259.277	86.0566	259.277	84.9754	259.277	86.0073	259.277	85.0066	259.277	85.9532	259.277	85.0895	259.277	85.8825	259.277	85.2144	259.277	85.7876	259.277	85.3649	259.277	85.6659	259.277	85.5212
268.066	87.0929	268.066	86.9179	268.066	87.1925	268.066	86.6781	268.066	87.2107	268.066	86.388	268.066	87.1472	268.066	86.0649	268.066	87.0091	268.066	85.7283	268.066	86.8111	268.066	85.3985	268.066	86.5756	268.066	85.0951	268.066	86.3296	268.066	84.8347	268.066	86.0998	268.066	84.6293	268.066	85.9069	268.066	84.4854	268.066	85.7615	268.066	84.4051	268.066	85.664	268.066	84.3875	268.066	85.6068	268.066	84.4298	268.066	85.576	268.066	84.5268	268.066	85.5533	268.066	84.6695	268.066	85.5183	268.066	84.843	268.066	85.4531	268.066	85.0278	268.066	85.3475	268.066	85.2021
276.855	87.0986	276.855	86.9505	276.855	87.1634	276.855	86.7275	276.855	87.1408	276.855	86.4419	276.855	87.0324	276.855	86.1084	276.855	86.8467	276.855	85.7437	276.855	86.6007	276.855	85.3663	276.855	86.3195	276.855	84.9956	276.855	86.0353	276.855	84.6515	276.855	85.7802	276.855	84.3519	276.855	85.577	276.855	84.1111	276.855	85.4329	276.855	83.9393	276.855	85.3398	276.855	83.843	276.855	85.2815	276.855	83.8265	276.855	85.2401	276.855	83.891	276.855	85.1973	276.855	84.0308	276.855	85.1342	276.855	84.2289	276.855	85.0329	276.855	84.458	276.855	84.8826	276.855	84.6853
287.109	87.0722	287.109	86.9502	287.109	87.1161	287.109	86.7584	287.109	87.0776	287.109	86.5081	287.109	86.9582	287.109	86.2115	287.109	86.765	287.109	85.8807	287.109	86.5119	287.109	85.5274	287.109	86.2187	287.109	85.1645	287.109	85.9113	287.109	84.8077	287.109	85.6195	287.109	84.4766	287.109	85.3725	287.109	84.1937	287.109	85.1923	287.109	83.9801	287.109	85.0861	287.109	83.8503	287.109	85.0419	287.109	83.8089	287.109	85.0314	287.109	83.8509	287.109	85.0196	287.109	83.964	287.109	84.9752	287.109	84.1313	287.109	84.8797	287.109	84.3318	287.109	84.7305	287.109	84.5403
297.363	86.7894	297.363	86.6959	297.363	86.7864	297.363	86.5154	297.363	86.6852	297.363	86.2631	297.363	86.4944	297.363	85.9594	297.363	86.2344	297.363	85.6276	297.363	85.937	297.363	85.2903	297.363	85.6398	297.363	84.966	297.363	85.374	297.363	84.6659	297.363	85.1546	297.363	84.3956	297.363	84.9795	297.363	84.1584	297.363	84.8398	297.363	83.9623	297.363	84.7334	297.363	83.8221	297.363	84.6686	297.363	83.7575	297.363	84.6526	297.363	83.7839	297.363	84.6753	297.363	83.9006	297.363	84.705	297.363	84.0852	297.363	84.701	297.363	84.2977	297.363	84.6327	297.363	84.4925
307.617	86.8486	307.617	86.8211	307.617	86.7901	307.617	86.7198	307.617	86.6352	307.617	86.5566	307.617	86.3806	307.617	86.3419	307.617	86.0345	307.617	86.0849	307.617	85.621	307.617	85.7956	307.617	85.1822	307.617	85.4849	307.617	84.7733	307.617	85.1647	307.617	84.4468	307.617	84.8473	307.617	84.229	307.617	84.5451	307.617	84.1107	307.617	84.2715	307.617	84.0633	307.617	84.043	307.617	84.0634	307.617	83.8794	307.617	84.101	307.617	83.7997	307.617	84.1662	307.617	83.8118	307.617	84.2353	307.617	83.9027	307.617	84.2739	307.617	84.037	307.617	84.2535	307.617	84.1677
319.336	86.5742	319.336	86.3572	319.336	86.7117	319.336	86.0873	319.336	86.7497	319.336	85.795	319.336	86.6763	319.336	85.5092	319.336	86.4899	319.336	85.2529	319.336	86.2004	319.336	85.0394	319.336	85.8334	319.336	84.8713	319.336	85.4303	319.336	84.7422	319.336	85.0435	319.336	84.6402	319.336	84.7206	319.336	84.5518	319.336	84.4875	319.336	84.4673	319.336	84.3415	319.336	84.3845	319.336	84.2638	319.336	84.3107	319.336	84.2365	319.336	84.2602	319.336	84.2481	319.336	84.2451	319.336	84.2855	319.336	84.2661	319.336	84.3281	319.336	84.3074	319.336	84.3519	319.336	84.3432
329.59	86.508	329.59	86.2823	329.59	86.6373	329.59	85.9807	329.59	86.657	329.59	85.6298	329.59	86.5624	329.59	85.2585	329.59	86.3577	329.59	84.8952	329.59	86.0579	329.59	84.5632	329.59	85.6894	329.59	84.2787	329.59	85.2885	329.59	84.0484	329.59	84.8953	329.59	83.8701	329.59	84.5432	329.59	83.7348	329.59	84.2521	329.59	83.6313	329.59	84.0295	329.59	83.5521	329.59	83.8767	329.59	83.4971	329.59	83.7913	329.59	83.4735	329.59	83.7628	329.59	83.4894	329.59	83.7678	329.59	83.5443	329.59	83.7744	329.59	83.6236	329.59	83.7558	329.59	83.7021
341.309	86.3022	341.309	86.1244	341.309	86.3796	341.309	85.8641	341.309	86.348	341.309	85.5463	341.309	86.209	341.309	85.2001	341.309	85.9762	341.309	84.8533	341.309	85.6766	341.309	84.5272	341.309	85.3485	341.309	84.2327	341.309	85.0333	341.309	83.9718	341.309	84.7621	341.309	83.7411	341.309	84.5433	341.309	83.5378	341.309	84.3634	341.309	83.3635	341.309	84.2014	341.309	83.2268	341.309	84.0477	341.309	83.1414	341.309	83.9107	341.309	83.121	341.309	83.8068	341.309	83.1696	341.309	83.7393	341.309	83.2746	341.309	83.6896	341.309	83.4071	341.309	83.6277	341.309	83.5328
353.027	86.4515	353.027	86.2125	353.027	86.5499	353.027	85.8547	353.027	86.4973	353.027	85.4108	353.027	86.2959	353.027	84.9226	353.027	85.9628	353.027	84.438	353.027	85.5317	353.027	84.0047	353.027	85.0524	353.027	83.6581	353.027	84.5875	353.027	83.4101	353.027	84.1975	353.027	83.2461	353.027	83.9214	353.027	83.1337	353.027	83.7612	353.027	83.0405	353.027	83.6881	353.027	82.9505	353.027	83.6629	353.027	82.8722	353.027	83.6545	353.027	82.8328	353.027	83.6432	353.027	82.8611	353.027	83.6143	353.027	82.9657	353.027	83.5533	353.027	83.125	353.027	83.448	353.027	83.2985
366.211	86.4117	366.211	86.2006	366.211	86.4929	366.211	85.8814	366.211	86.4302	366.211	85.4826	366.211	86.2208	366.211	85.0378	366.211	85.8771	366.211	84.5849	366.211	85.4338	366.211	84.1628	366.211	84.9516	366.211	83.8052	366.211	84.5084	366.211	83.5307	366.211	84.1707	366.211	83.3341	366.211	83.9585	366.211	83.1877	366.211	83.8366	366.211	83.0528	366.211	83.7432	366.211	82.898	366.211	83.6298	366.211	82.7153	366.211	83.4807	366.211	82.5273	366.211	83.3054	366.211	82.3815	366.211	83.118	366.211	82.3268	366.211	82.9231	366.211	82.3833	366.211	82.7221	366.211	82.5298
379.395	86.5415	379.395	86.315	379.395	86.6428	379.395	85.9916	379.395	86.5976	379.395	85.603	379.395	86.3945	379.395	85.1806	379.395	86.0363	379.395	84.7518	379.395	85.5464	379.395	84.3389	379.395	84.9767	379.395	83.9594	379.395	84.4061	379.395	83.6274	379.395	83.9212	379.395	83.3511	379.395	83.576	379.395	83.1296	379.395	83.3649	379.395	82.9527	379.395	83.2391	379.395	82.806	379.395	83.1502	379.395	82.6814	379.395	83.0755	379.395	82.5832	379.395	83.0109	379.395	82.5273	379.395	82.9509	379.395	82.529	379.395	82.8817	379.395	82.5886	379.395	82.7919	379.395	82.6864
392.578	86.3256	392.578	86.0309	392.578	86.4947	392.578	85.6377	392.578	86.5185	392.578	85.1821	392.578	86.3852	392.578	84.7065	392.578	86.0937	392.578	84.253	392.578	85.6609	392.578	83.8547	392.578	85.131	392.578	83.5291	392.578	84.5764	392.578	83.2781	392.578	84.0829	392.578	83.0928	392.578	83.7152	392.578	82.9605	392.578	83.4861	392.578	82.869	392.578	83.3593	392.578	82.8101	392.578	83.2876	392.578	82.7811	392.578	83.2464	392.578	82.7855	392.578	83.2319	392.578	82.829	392.578	83.237	392.578	82.9119	392.578	83.2374	392.578	83.0206	392.578	83.2047	392.578	83.1279
405.762	86.134	405.762	85.8587	405.762	86.2412	405.762	85.4426	405.762	86.1672	405.762	84.9279	405.762	85.9153	405.762	84.3719	405.762	85.5084	405.762	83.8423	405.762	84.9941	405.762	83.4038	405.762	84.4465	405.762	83.0968	405.762	83.9547	405.762	82.9209	405.762	83.5947	405.762	82.8391	405.762	83.3911	405.762	82.7992	405.762	83.303	405.762	82.7566	405.762	83.255	405.762	82.6871	405.762	83.1867	405.762	82.5918	405.762	83.0818	405.762	82.4944	405.762	82.9608	405.762	82.4305	405.762	82.8508	405.762	82.4271	405.762	82.7588	405.762	82.4842	405.762	82.6708	405.762	82.5755
420.41	86.2696	420.41	86.015	420.41	86.3416	420.41	85.5965	420.41	86.2219	420.41	85.0421	420.41	85.913	420.41	84.3934	420.41	85.4325	420.41	83.7134	420.41	84.8185	420.41	83.0904	420.41	84.1362	420.41	82.6207	420.41	83.4817	420.41	82.3641	420.41	82.9658	420.41	82.302	420.41	82.6679	420.41	82.3488	420.41	82.5874	420.41	82.4055	420.41	82.6474	420.41	82.4073	420.41	82.749	420.41	82.3403	420.41	82.8201	420.41	82.2369	420.41	82.8298	420.41	82.1554	420.41	82.7769	420.41	82.147	420.41	82.6722	420.41	82.2269	420.41	82.5292	420.41	82.3688
435.059	85.5106	435.059	85.2099	435.059	85.6235	435.059	84.7397	435.059	85.5418	435.059	84.1325	435.059	85.2687	435.059	83.4362	435.059	84.8223	435.059	82.7145	435.059	84.2471	435.059	82.0443	435.059	83.6274	435.059	81.5078	435.059	83.08	435.059	81.172	435.059	82.7053	435.059	81.0606	435.059	82.5223	435.059	81.1363	435.059	82.4607	435.059	81.318	435.059	82.4253	435.059	81.5192	435.059	82.3641	435.059	81.6806	435.059	82.2862	435.059	81.7834	435.059	82.227	435.059	81.8454	435.059	82.2004	435.059	81.9019	435.059	82.1827	435.059	81.9771	435.059	82.1408	435.059	82.0657
451.172	87.1093	451.172	86.739	451.172	87.2514	451.172	86.1502	451.172	87.1464	451.172	85.3443	451.172	86.7689	451.172	84.3205	451.172	86.098	451.172	83.0914	451.172	85.1383	451.172	81.7147	451.172	83.961	451.172	80.3442	451.172	82.7714	451.172	79.2671	451.172	81.9471	451.172	78.7994	451.172	81.8283	451.172	79.007	451.172	82.3209	451.172	79.638	451.172	83.0054	451.172	80.385	451.172	83.5575	451.172	81.0661	451.172	83.8631	451.172	81.6235	451.172	83.9398	451.172	82.0717	451.172	83.8535	451.172	82.4514	451.172	83.666	451.172	82.7969	451.172	83.4148	451.172	83.1203
465.82	86.9602	465.82	86.694	465.82	87.0147	465.82	86.227	465.82	86.8468	465.82	85.5725	465.82	86.4479	465.82	84.7505	465.82	85.8179	465.82	83.7926	465.82	84.9704	465.82	82.7474	465.82	83.9373	465.82	81.6876	465.82	82.7783	465.82	80.7179	465.82	81.6157	465.82	79.9731	465.82	80.6796	465.82	79.5785	465.82	80.2433	465.82	79.5737	465.82	80.3798	465.82	79.8764	465.82	80.8705	465.82	80.3444	465.82	81.439	465.82	80.8594	465.82	81.925	465.82	81.3542	465.82	82.272	465.82	81.7942	465.82	82.4676	465.82	82.1524	465.82	82.5092	465.82	82.3994
483.398	86.8129	483.398	86.5291	483.398	86.9013	483.398	86.0588	483.398	86.7915	483.398	85.4222	483.398	86.4834	483.398	84.6536	483.398	85.9804	483.398	83.8	483.398	85.2943	483.398	82.9149	483.398	84.4507	483.398	82.049	483.398	83.4938	483.398	81.2448	483.398	82.4928	483.398	80.5403	483.398	81.5551	483.398	79.9768	483.398	80.8272	483.398	79.5997	483.398	80.447	483.398	79.4445	483.398	80.4585	483.398	79.5222	483.398	80.7746	483.398	79.8141	483.398	81.229	483.398	80.271	483.398	81.6513	483.398	80.813	483.398	81.9141	483.398	81.338	483.398	81.9484	483.398	81.743
499.512	86.6572	499.512	86.3944	499.512	86.692	499.512	85.9202	499.512	86.4958	499.512	85.2649	499.512	86.0798	499.512	84.4729	499.512	85.4706	499.512	83.6029	499.512	84.7119	499.512	82.7273	499.512	83.8675	499.512	81.929	499.512	83.023	499.512	81.2866	499.512	82.2772	499.512	80.845	499.512	81.7171	499.512	80.5926	499.512	81.3865	499.512	80.4708	499.512	81.2795	499.512	80.4141	499.512	81.3567	499.512	80.3892	499.512	81.5564	499.512	80.4134	499.512	81.7947	499.512	80.5398	499.512	81.9766	499.512	80.8076	499.512	82.0214	499.512	81.1885	499.512	81.8869	499.512	81.5853
517.09	87.0526	517.09	86.8033	517.09	87.0876	517.09	86.358	517.09	86.9032	517.09	85.7451	517.09	86.5102	517.09	85.0006	517.09	85.9377	517.09	84.1654	517.09	85.2324	517.09	83.2845	517.09	84.4509	517.09	82.4077	517.09	83.6461	517.09	81.5936	517.09	82.8561	517.09	80.9117	517.09	82.1102	517.09	80.4319	517.09	81.4603	517.09	80.1944	517.09	81.0121	517.09	80.189	517.09	80.893	517.09	80.3771	517.09	81.1368	517.09	80.7238	517.09	81.6184	517.09	81.1949	517.09	82.1361	517.09	81.7272	517.09	82.5206	517.09	82.22	517.09	82.6732	517.09	82.5627
536.133	86.4811	536.133	86.0925	536.133	86.5396	536.133	85.4061	536.133	86.2595	536.133	84.4894	536.133	85.6562	536.133	83.4629	536.133	84.7815	536.133	82.5096	536.133	83.7591	536.133	81.832	536.133	82.822	536.133	81.5336	536.133	82.246	536.133	81.5355	536.133	82.1166	536.133	81.6506	536.133	82.2246	536.133	81.7153	536.133	82.2887	536.133	81.6459	536.133	82.1764	536.133	81.4336	536.133	81.9597	536.133	81.1356	536.133	81.8462	536.133	80.8825	536.133	81.9796	536.133	80.8538	536.133	82.2723	536.133	81.1533	536.133	82.5007	536.133	81.6783	536.133	82.4909	536.133	82.1907
555.176	87.4153	555.176	86.9017	555.176	87.5846	555.176	86.0479	555.176	87.4063	555.176	84.8587	555.176	86.8756	555.176	83.3413	555.176	85.9905	555.176	81.5204	555.176	84.7726	555.176	79.5158	555.176	83.3196	555.176	77.7702	555.176	81.8876	555.176	77.1584	555.176	80.8931	555.176	77.9467	555.176	80.567	555.176	79.276	555.176	80.6029	555.176	80.4328	555.176	80.5132	555.176	81.1738	555.176	80.0725	555.176	81.4659	555.176	79.4241	555.176	81.3679	555.176	79.0254	555.176	81.0239	555.176	79.2119	555.176	80.6559	555.176	79.734	555.176	80.4443	555.176	80.1611	555.176	80.3509
574.219	88.0535	574.219	87.8595	574.219	87.9619	574.219	87.3858	574.219	87.5724	574.219	86.6319	574.219	86.8605	574.219	85.5827	574.219	85.7846	574.219	84.1985	574.219	84.2974	574.219	82.4033	574.219	82.4048	574.219	80.073	574.219	80.3932	574.219	77.0471	574.219	79.2564	574.219	73.4857	574.219	79.8267	574.219	71.9043	574.219	81.1419	574.219	74.2255	574.219	82.1308	574.219	76.828	574.219	82.458	574.219	78.5118	574.219	82.1159	574.219	79.3519	574.219	81.252	574.219	79.5554	574.219	80.1707	574.219	79.3649	574.219	79.2787	574.219	79.0429	574.219	78.838	574.219	78.8119
594.727	86.9511	594.727	86.9463	594.727	86.7855	594.727	86.7702	594.727	86.439	594.727	86.4143	594.727	85.8765	594.727	85.8601	594.727	85.0322	594.727	85.0787	594.727	83.8304	594.727	84.0335	594.727	82.224	594.727	82.6819	594.727	80.2413	594.727	80.9712	594.727	78.1664	594.727	78.8518	594.727	77.0485	594.727	76.3959	594.727	77.8592	594.727	74.2555	594.727	79.4961	594.727	73.8772	594.727	80.8287	594.727	75.2108	594.727	81.6166	594.727	76.8371	594.727	81.9311	594.727	78.1753	594.727	81.8933	594.727	79.1991	594.727	81.6146	594.727	79.9952	594.727	81.1815	594.727	80.6416
615.234	86.9824	615.234	86.9198	615.234	86.8939	615.234	86.7312	615.234	86.6001	615.234	86.4253	615.234	86.0249	615.234	86.0069	615.234	85.1017	615.234	85.4819	615.234	83.8056	615.234	84.8496	615.234	82.1251	615.234	84.086	615.234	79.9521	615.234	83.1331	615.234	77.0998	615.234	81.9137	615.234	74.3745	615.234	80.3806	615.234	75.0923	615.234	78.6079	615.234	77.8177	615.234	76.9295	615.234	79.8804	615.234	75.9394	615.234	81.0603	615.234	75.9614	615.234	81.5601	615.234	76.683	615.234	81.563	615.234	77.6797	615.234	81.201	615.234	78.7281	615.234	80.5629	615.234	79.716
637.207	87.3106	637.207	87.021	637.207	87.4324	637.207	86.617	637.207	87.3562	637.207	86.1723	637.207	87.0724	637.207	85.7611	637.207	86.5877	637.207	85.4217	637.207	85.9049	637.207	85.1317	637.207	84.9825	637.207	84.8157	637.207	83.6965	637.207	84.379	637.207	81.8263	637.207	83.7458	637.207	79.0504	637.207	82.8843	637.207	75.1616	637.207	81.822	637.207	72.7074	637.207	80.6641	637.207	75.4883	637.207	79.6268	637.207	78.4955	637.207	79.0306	637.207	80.4063	637.207	79.1153	637.207	81.5003	637.207	79.7879	637.207	81.9902	637.207	80.6969	637.207	81.9685	637.207	81.4984
659.18	87.3867	659.18	87.0817	659.18	87.4934	659.18	86.5924	659.18	87.3882	659.18	85.9497	659.18	87.0532	659.18	85.214	659.18	86.4816	659.18	84.4709	659.18	85.7063	659.18	83.8087	659.18	84.8102	659.18	83.2876	659.18	83.8778	659.18	82.9152	659.18	82.919	659.18	82.6384	659.18	81.8518	659.18	82.3587	659.18	80.5583	659.18	81.9689	659.18	79.0295	659.18	81.3966	659.18	77.7136	659.18	80.6444	659.18	77.6016	659.18	79.8431	659.18	78.6979	659.18	79.2958	659.18	79.8982	659.18	79.3123	659.18	80.6087	659.18	79.8247	659.18	80.7528	659.18	80.4251
682.617	87.4736	682.617	87.1124	682.617	87.4908	682.617	86.4431	682.617	87.1402	682.617	85.5211	682.617	86.4177	682.617	84.4301	682.617	85.3649	682.617	83.2925	682.617	84.0997	682.617	82.283	682.617	82.8117	682.617	81.6204	682.617	81.7266	682.617	81.4619	682.617	81.0623	682.617	81.7335	682.617	80.8501	682.617	82.152	682.617	80.8178	682.617	82.4236	682.617	80.6749	682.617	82.3593	682.617	80.3634	682.617	81.8826	682.617	80.0537	682.617	81.0477	682.617	80.0003	682.617	80.1201	682.617	80.2439	682.617	79.5844	682.617	80.5165	682.617	79.7165	682.617	80.5268	682.617	80.1907
707.52	87.2404	707.52	86.795	707.52	87.4116	707.52	86.0879	707.52	87.3127	707.52	85.177	707.52	86.9384	707.52	84.1732	707.52	86.267	707.52	83.1968	707.52	85.2715	707.52	82.2868	707.52	83.929	707.52	81.3686	707.52	82.2088	707.52	80.3981	707.52	80.1127	707.52	79.6206	707.52	77.975	707.52	79.4981	707.52	76.8713	707.52	80.0351	707.52	77.3865	707.52	80.72	707.52	78.4781	707.52	81.1416	707.52	79.3287	707.52	81.1413	707.52	79.8129	707.52	80.7552	707.52	80.0546	707.52	80.2175	707.52	80.1413	707.52	79.8797	707.52	80.0662	707.52	79.8961
732.422	87.5279	732.422	87.1697	732.422	87.5278	732.422	86.4763	732.422	87.1842	732.422	85.5281	732.422	86.5264	732.422	84.4546	732.422	85.5881	732.422	83.3761	732.422	84.4138	732.422	82.3424	732.422	83.0479	732.422	81.3681	732.422	81.5022	732.422	80.5162	732.422	79.8466	732.422	79.9033	732.422	78.5212	732.422	79.6289	732.422	78.1998	732.422	79.7028	732.422	78.6873	732.422	80.002	732.422	79.1961	732.422	80.2964	732.422	79.435	732.422	80.3642	732.422	79.6221	732.422	80.1328	732.422	79.9374	732.422	79.7724	732.422	80.1861	732.422	79.6261	732.422	80.1338	732.422	79.8368
757.324	87.6495	757.324	87.2233	757.324	87.7285	757.324	86.5202	757.324	87.4197	757.324	85.6321	757.324	86.7135	757.324	84.6313	757.324	85.6536	757.324	83.518	757.324	84.3491	757.324	82.2159	757.324	82.8829	757.324	80.6643	757.324	81.181	757.324	79.0513	757.324	79.2104	757.324	78.0973	757.324	77.5882	757.324	78.4468	757.324	77.3846	757.324	79.5113	757.324	78.2639	757.324	80.4072	757.324	79.1768	757.324	80.7856	757.324	79.7403	757.324	80.6692	757.324	80.0216	757.324	80.2909	757.324	80.1825	757.324	79.9813	757.324	80.2784	757.324	79.9465	757.324	80.2591	757.324	80.1087
785.156	87.5742	785.156	87.0544	785.156	87.7904	785.156	86.322	785.156	87.6386	785.156	85.4865	785.156	87.1006	785.156	84.663	785.156	86.2217	785.156	83.9194	785.156	85.0852	785.156	83.1856	785.156	83.7146	785.156	82.2184	785.156	81.9907	785.156	80.6992	785.156	79.6794	785.156	78.4468	785.156	76.5973	785.156	75.9043	785.156	73.6807	785.156	74.973	785.156	74.175	785.156	76.5397	785.156	76.3318	785.156	78.5249	785.156	77.6783	785.156	79.7717	785.156	78.3006	785.156	80.1621	785.156	78.6731	785.156	79.9435	785.156	78.9617	785.156	79.522	785.156	79.1218	785.156	79.2413
811.523	87.3541	811.523	87.0573	811.523	87.3695	811.523	86.5011	811.523	87.0978	811.523	85.7528	811.523	86.53	811.523	84.9091	811.523	85.6737	811.523	84.0194	811.523	84.5604	811.523	83.0204	811.523	83.1707	811.523	81.7704	811.523	81.3598	811.523	80.202	811.523	78.9563	811.523	78.5463	811.523	76.1009	811.523	77.4279	811.523	74.0716	811.523	77.3647	811.523	74.4478	811.523	78.0696	811.523	75.8046	811.523	78.8523	811.523	76.782	811.523	79.3547	811.523	77.4079	811.523	79.6332	811.523	78.1419	811.523	79.8829	811.523	79.085	811.523	80.1388	811.523	79.8682	811.523	80.209
840.82	87.7418	840.82	87.5612	840.82	87.5673	840.82	87.0436	840.82	87.1046	840.82	86.2902	840.82	86.4739	840.82	85.4153	840.82	85.8003	840.82	84.4446	840.82	85.1103	840.82	83.2941	840.82	84.2374	840.82	81.8444	840.82	82.9256	840.82	80.051	840.82	81.0095	840.82	78.0976	840.82	78.3777	840.82	76.4769	840.82	74.8413	840.82	75.9706	840.82	71.3598	840.82	76.9865	840.82	72.2995	840.82	78.4533	840.82	74.9693	840.82	79.3982	840.82	76.6842	840.82	79.7387	840.82	77.8114	840.82	79.7727	840.82	78.7706	840.82	79.7796	840.82	79.471	840.82	79.7603
870.117	87.4061	870.117	87.1365	870.117	87.2492	870.117	86.4674	870.117	86.6944	870.117	85.4781	870.117	85.8174	870.117	84.2466	870.117	84.7409	870.117	82.8104	870.117	83.5717	870.117	81.2016	870.117	82.3021	870.117	79.5132	870.117	80.9085	870.117	77.9864	870.117	79.5799	870.117	77.0434	870.117	78.6665	870.117	76.963	870.117	78.1905	870.117	77.4925	870.117	77.7366	870.117	78.0968	870.117	77.1169	870.117	78.4203	870.117	76.6243	870.117	78.4126	870.117	76.6944	870.117	78.2318	870.117	77.4596	870.117	78.2456	870.117	78.5786	870.117	78.7691	870.117	79.3727	870.117	79.3804
900.879	87.0655	900.879	86.9878	900.879	86.7943	900.879	86.5451	900.879	86.2282	900.879	85.7204	900.879	85.4756	900.879	84.4694	900.879	84.6477	900.879	82.7513	900.879	83.7375	900.879	80.6039	900.879	82.5771	900.879	78.1751	900.879	80.9154	900.879	75.7265	900.879	78.4358	900.879	73.6718	900.879	74.8758	900.879	72.9234	900.879	71.8099	900.879	74.8728	900.879	73.5206	900.879	77.8442	900.879	76.4928	900.879	79.9337	900.879	78.4408	900.879	80.8589	900.879	79.3632	900.879	80.799	900.879	79.5437	900.879	80.0999	900.879	79.3905	900.879	79.358	900.879	79.2018	900.879	79.0964
933.105	85.5356	933.105	85.5205	933.105	85.2079	933.105	85.1818	933.105	84.5214	933.105	84.4765	933.105	83.5905	933.105	83.326	933.105	82.6379	933.105	81.7046	933.105	81.6942	933.105	79.7646	933.105	80.5773	933.105	77.8952	933.105	79.2816	933.105	76.3499	933.105	77.8937	933.105	74.7263	933.105	76.2147	933.105	72.6228	933.105	74.3611	933.105	71.6395	933.105	73.4879	933.105	73.6839	933.105	74.178	933.105	76.2152	933.105	75.5106	933.105	77.9494	933.105	76.805	933.105	78.8522	933.105	77.8963	933.105	79.1184	933.105	78.731	933.105	79.1311	933.105	79.168	933.105	79.2016
965.332	84.735	965.332	84.9608	965.332	84.2648	965.332	84.8232	965.332	83.6839	965.332	84.2473	965.332	83.0569	965.332	83.2173	965.332	82.3428	965.332	81.7984	965.332	81.5018	965.332	80.1801	965.332	80.5282	965.332	78.6698	965.332	79.3257	965.332	77.4109	965.332	77.5526	965.332	75.9962	965.332	74.4893	965.332	73.5706	965.332	69.5532	965.332	70.2602	965.332	69.1154	965.332	72.2062	965.332	73.137	965.332	76.4542	965.332	75.4672	965.332	78.9537	965.332	76.7377	965.332	79.8941	965.332	77.6082	965.332	79.6607	965.332	78.1647	965.332	78.8619	965.332	78.3282	965.332	78.3668
1,000.49	84.6806	1,000.49	84.7682	1,000.49	84.1886	1,000.49	84.5056	1,000.49	83.2912	1,000.49	83.9019	1,000.49	82.1401	1,000.49	82.927	1,000.49	80.8994	1,000.49	81.5892	1,000.49	79.518	1,000.49	80.0357	1,000.49	78.0021	1,000.49	78.5529	1,000.49	76.6515	1,000.49	77.2867	1,000.49	75.6204	1,000.49	75.8888	1,000.49	74.7028	1,000.49	73.646	1,000.49	73.589	1,000.49	70.0268	1,000.49	72.0986	1,000.49	68.0384	1,000.49	70.286	1,000.49	72.3679	1,000.49	68.6973	1,000.49	76.2829	1,000.49	70.0537	1,000.49	78.4909	1,000.49	74.1233	1,000.49	79.4076	1,000.49	77.0868	1,000.49	79.535	1,000.49	78.6	1,000.49	79.2638
1,035.64	86.8804	1,035.64	86.9727	1,035.64	86.3505	1,035.64	86.5513	1,035.64	85.4845	1,035.64	85.6313	1,035.64	84.3895	1,035.64	84.3413	1,035.64	83.2329	1,035.64	82.8329	1,035.64	82.2305	1,035.64	81.1624	1,035.64	81.4542	1,035.64	79.325	1,035.64	80.6842	1,035.64	77.3987	1,035.64	79.5103	1,035.64	75.6788	1,035.64	77.6829	1,035.64	74.5677	1,035.64	75.712	1,035.64	74.3018	1,035.64	75.112	1,035.64	75.0683	1,035.64	76.0195	1,035.64	76.5324	1,035.64	76.6303	1,035.64	77.7821	1,035.64	75.6225	1,035.64	78.2617	1,035.64	72.7057	1,035.64	78.0046	1,035.64	72.1809	1,035.64	77.4747	1,035.64	75.1519	1,035.64	76.8074
1,072.27	86.5147	1,072.27	86.3776	1,072.27	86.1871	1,072.27	85.9393	1,072.27	85.2465	1,072.27	85.157	1,072.27	83.9053	1,072.27	83.891	1,072.27	82.7054	1,072.27	82.2236	1,072.27	81.8282	1,072.27	80.6339	1,072.27	81.069	1,072.27	79.6348	1,072.27	80.1858	1,072.27	79.0655	1,072.27	78.5962	1,072.27	78.1372	1,072.27	75.382	1,072.27	76.1005	1,072.27	70.7361	1,072.27	72.8833	1,072.27	73.1484	1,072.27	71.444	1,072.27	77.2506	1,072.27	74.2204	1,072.27	78.9498	1,072.27	77.0075	1,072.27	78.773	1,072.27	78.4206	1,072.27	77.1241	1,072.27	78.4535	1,072.27	74.8339	1,072.27	77.4584	1,072.27	74.4272	1,072.27	75.9278
1,108.89	86.842	1,108.89	86.8601	1,108.89	86.0358	1,108.89	86.11	1,108.89	84.8161	1,108.89	84.791	1,108.89	83.8066	1,108.89	83.187	1,108.89	82.9412	1,108.89	81.6732	1,108.89	81.9095	1,108.89	80.6594	1,108.89	81.1156	1,108.89	80.2722	1,108.89	80.7664	1,108.89	80.0228	1,108.89	80.1159	1,108.89	79.0843	1,108.89	78.0817	1,108.89	76.7501	1,108.89	73.4159	1,108.89	72.7764	1,108.89	69.8153	1,108.89	70.3918	1,108.89	75.4858	1,108.89	74.0015	1,108.89	78.427	1,108.89	77.5519	1,108.89	79.0925	1,108.89	79.3961	1,108.89	78.3471	1,108.89	79.5321	1,108.89	77.0222	1,108.89	78.342	1,108.89	76.2685	1,108.89	76.8307
1,148.44	86.5229	1,148.44	86.7403	1,148.44	85.7457	1,148.44	86.2844	1,148.44	84.73	1,148.44	85.2637	1,148.44	83.7572	1,148.44	83.8613	1,148.44	82.9077	1,148.44	82.306	1,148.44	82.1542	1,148.44	81.0989	1,148.44	81.2818	1,148.44	80.7694	1,148.44	80.108	1,148.44	80.8123	1,148.44	78.6421	1,148.44	79.7146	1,148.44	76.3277	1,148.44	76.6081	1,148.44	71.8285	1,148.44	71.9678	1,148.44	70.9299	1,148.44	67.1548	1,148.44	75.7943	1,148.44	71.0085	1,148.44	78.0909	1,148.44	74.9957	1,148.44	78.6806	1,148.44	76.8368	1,148.44	78.0798	1,148.44	77.7039	1,148.44	77.1876	1,148.44	78.0927	1,148.44	77.3947	1,148.44	77.9723
1,189.45	87.5523	1,189.45	87.5583	1,189.45	86.9049	1,189.45	86.951	1,189.45	85.9138	1,189.45	85.9125	1,189.45	84.9862	1,189.45	84.589	1,189.45	84.0875	1,189.45	83.1256	1,189.45	82.9536	1,189.45	81.7832	1,189.45	81.7648	1,189.45	80.9504	1,189.45	81.0137	1,189.45	80.6382	1,189.45	80.5883	1,189.45	79.8164	1,189.45	79.3343	1,189.45	78.2138	1,189.45	75.4709	1,189.45	76.1639	1,189.45	64.0568	1,189.45	72.4175	1,189.45	68.9937	1,189.45	69.7449	1,189.45	75.1679	1,189.45	73.8787	1,189.45	77.4214	1,189.45	76.8749	1,189.45	77.7183	1,189.45	78.1608	1,189.45	76.3848	1,189.45	77.9879	1,189.45	75.7082	1,189.45	76.8488
1,230.47	87.3316	1,230.47	87.1896	1,230.47	86.9073	1,230.47	86.762	1,230.47	86.0747	1,230.47	85.9567	1,230.47	85.5118	1,230.47	84.5614	1,230.47	84.7777	1,230.47	83.0302	1,230.47	83.1859	1,230.47	81.6741	1,230.47	81.5374	1,230.47	79.8469	1,230.47	80.5597	1,230.47	78.2876	1,230.47	79.9126	1,230.47	77.7095	1,230.47	78.9997	1,230.47	77.9022	1,230.47	75.7602	1,230.47	76.4215	1,230.47	58.6477	1,230.47	69.9124	1,230.47	73.3715	1,230.47	72.354	1,230.47	77.8743	1,230.47	76.1611	1,230.47	78.5542	1,230.47	77.9228	1,230.47	77.3617	1,230.47	78.644	1,230.47	75.929	1,230.47	78.5213	1,230.47	76.4966	1,230.47	77.7646
1,274.41	86.8012	1,274.41	86.9313	1,274.41	86.6234	1,274.41	86.826	1,274.41	86.3791	1,274.41	86.0008	1,274.41	85.9019	1,274.41	84.4912	1,274.41	84.8209	1,274.41	83.0602	1,274.41	83.3442	1,274.41	81.6459	1,274.41	81.9117	1,274.41	79.246	1,274.41	80.5692	1,274.41	76.3517	1,274.41	80.1408	1,274.41	75.7597	1,274.41	80.2502	1,274.41	76.5425	1,274.41	78.4218	1,274.41	75.019	1,274.41	72.6511	1,274.41	70.1443	1,274.41	68.5682	1,274.41	61.0056	1,274.41	73.9875	1,274.41	71.9455	1,274.41	76.5673	1,274.41	76.8183	1,274.41	77.7276	1,274.41	78.0807	1,274.41	77.0661	1,274.41	77.8212	1,274.41	76.477	1,274.41	77.06
1,319.82	86.1134	1,319.82	86.3168	1,319.82	85.9338	1,319.82	86.185	1,319.82	85.7298	1,319.82	85.2035	1,319.82	85.2816	1,319.82	83.8866	1,319.82	84.1194	1,319.82	83.0381	1,319.82	82.9083	1,319.82	81.7904	1,319.82	82.0993	1,319.82	78.6216	1,319.82	80.5576	1,319.82	74.4986	1,319.82	78.8773	1,319.82	76.1426	1,319.82	77.9508	1,319.82	78.726	1,319.82	75.1461	1,319.82	77.3505	1,319.82	66.6153	1,319.82	71.7676	1,319.82	66.6517	1,319.82	61.3651	1,319.82	72.8019	1,319.82	67.5785	1,319.82	77.8935	1,319.82	75.2162	1,319.82	78.9615	1,319.82	78.1311	1,319.82	76.0394	1,319.82	78.5542	1,319.82	75.4341	1,319.82	77.6395
1,366.7	85.8225	1,366.7	86.0166	1,366.7	85.7562	1,366.7	86.1663	1,366.7	85.4261	1,366.7	85.8676	1,366.7	84.8363	1,366.7	85.2816	1,366.7	84.4086	1,366.7	84.1837	1,366.7	83.5645	1,366.7	81.467	1,366.7	81.3607	1,366.7	75.8617	1,366.7	78.447	1,366.7	66.5238	1,366.7	77.9944	1,366.7	67.2203	1,366.7	78.7355	1,366.7	75.9912	1,366.7	76.5654	1,366.7	78.2167	1,366.7	66.0723	1,366.7	78.2522	1,366.7	68.6073	1,366.7	74.5251	1,366.7	73.0864	1,366.7	44.1851	1,366.7	75.1824	1,366.7	73.8549	1,366.7	76.3044	1,366.7	77.6786	1,366.7	75.0583	1,366.7	77.6405	1,366.7	74.6107	1,366.7	76.0259
1,413.57	86.0887	1,413.57	85.519	1,413.57	86.4093	1,413.57	85.4943	1,413.57	85.6512	1,413.57	85.9295	1,413.57	84.2849	1,413.57	85.9828	1,413.57	84.7365	1,413.57	84.2858	1,413.57	84.8925	1,413.57	80.4037	1,413.57	82.4816	1,413.57	77.4936	1,413.57	79.1594	1,413.57	78.3166	1,413.57	78.3141	1,413.57	77.9747	1,413.57	79.4709	1,413.57	76.5423	1,413.57	80.1157	1,413.57	79.2378	1,413.57	78.67	1,413.57	78.0365	1,413.57	71.4739	1,413.57	71.8347	1,413.57	69.4073	1,413.57	66.9395	1,413.57	76.1364	1,413.57	73.2148	1,413.57	74.9068	1,413.57	75.1713	1,413.57	72.975	1,413.57	74.7474	1,413.57	73.4196	1,413.57	73.9783
1,463.38	86.9367	1,463.38	86.9194	1,463.38	85.7502	1,463.38	85.3179	1,463.38	85.3065	1,463.38	83.937	1,463.38	85.5803	1,463.38	84.6922	1,463.38	84.8398	1,463.38	85.1745	1,463.38	82.3324	1,463.38	83.9807	1,463.38	80.6372	1,463.38	82.5884	1,463.38	81.1436	1,463.38	81.7017	1,463.38	79.3809	1,463.38	79.5435	1,463.38	78.1454	1,463.38	76.4397	1,463.38	78.1754	1,463.38	77.4117	1,463.38	77.2182	1,463.38	75.8145	1,463.38	74.4467	1,463.38	71.4636	1,463.38	61.9036	1,463.38	64.4029	1,463.38	70.9232	1,463.38	71.2259	1,463.38	74.9386	1,463.38	75.0196	1,463.38	74.4056	1,463.38	74.5741	1,463.38	72.9638	1,463.38	72.8497
1,516.11	86.8148	1,516.11	86.9965	1,516.11	86.4539	1,516.11	86.2274	1,516.11	85.8279	1,516.11	84.68	1,516.11	84.5729	1,516.11	83.6096	1,516.11	83.3042	1,516.11	82.373	1,516.11	82.2209	1,516.11	79.478	1,516.11	81.2959	1,516.11	77.7473	1,516.11	79.0794	1,516.11	78.7845	1,516.11	76.0274	1,516.11	79.0568	1,516.11	75.0954	1,516.11	78.3449	1,516.11	74.0632	1,516.11	77.8996	1,516.11	76.1305	1,516.11	77.1067	1,516.11	74.2106	1,516.11	73.4307	1,516.11	65.8935	1,516.11	69.6762	1,516.11	75.2537	1,516.11	73.9814	1,516.11	74.7379	1,516.11	71.7949	1,516.11	72.5737	1,516.11	70.6021	1,516.11	75.1533	1,516.11	73.9907
1,568.85	87.2661	1,568.85	87.3717	1,568.85	86.8444	1,568.85	86.2372	1,568.85	86.1152	1,568.85	83.9673	1,568.85	84.1695	1,568.85	81.6353	1,568.85	83.4062	1,568.85	79.743	1,568.85	83.0834	1,568.85	77.095	1,568.85	80.8125	1,568.85	75.1043	1,568.85	78.477	1,568.85	73.6107	1,568.85	74.8177	1,568.85	73.9958	1,568.85	74.0873	1,568.85	76.6579	1,568.85	72.8361	1,568.85	78.9852	1,568.85	65.141	1,568.85	76.3741	1,568.85	73.6051	1,568.85	73.9813	1,568.85	73.1812	1,568.85	65.5859	1,568.85	73.272	1,568.85	71.6214	1,568.85	73.8586	1,568.85	74.7094	1,568.85	75.1588	1,568.85	73.5209	1,568.85	75.7404	1,568.85	74.1866
1,624.51	87.3776	1,624.51	87.1762	1,624.51	87.3458	1,624.51	86.662	1,624.51	86.5239	1,624.51	85.2279	1,624.51	84.6231	1,624.51	81.1514	1,624.51	83.7658	1,624.51	76.1178	1,624.51	83.8795	1,624.51	78.3664	1,624.51	82.3657	1,624.51	79.7562	1,624.51	79.2058	1,624.51	77.3312	1,624.51	75.2606	1,624.51	71.8831	1,624.51	75.6347	1,624.51	64.8974	1,624.51	78.4878	1,624.51	73.328	1,624.51	73.0799	1,624.51	79.1838	1,624.51	73.2343	1,624.51	76.0641	1,624.51	71.2009	1,624.51	65.1411	1,624.51	70.4419	1,624.51	67.8677	1,624.51	78.5911	1,624.51	73.7603	1,624.51	77.3629	1,624.51	75.1825	1,624.51	73.5925	1,624.51	74.6638
1,681.64	86.6684	1,681.64	86.6291	1,681.64	86.7152	1,681.64	86.1576	1,681.64	85.97	1,681.64	84.5427	1,681.64	82.4789	1,681.64	80.4675	1,681.64	83.2709	1,681.64	77.1224	1,681.64	85.2212	1,681.64	80.3509	1,681.64	82.5013	1,681.64	80.2751	1,681.64	78.7046	1,681.64	76.1172	1,681.64	77.5534	1,681.64	77.1702	1,681.64	74.5927	1,681.64	77.2101	1,681.64	70.4331	1,681.64	73.8992	1,681.64	60.2642	1,681.64	73.5001	1,681.64	70.7563	1,681.64	63.1267	1,681.64	75.3792	1,681.64	66.4689	1,681.64	66.6975	1,681.64	62.2932	1,681.64	75.1445	1,681.64	76.2547	1,681.64	76.6866	1,681.64	76.7034	1,681.64	72.5015	1,681.64	72.6764
1,741.7	86.0207	1,741.7	85.6394	1,741.7	86.2455	1,741.7	86.0289	1,741.7	84.346	1,741.7	85.919	1,741.7	82.9904	1,741.7	83.3591	1,741.7	84.7092	1,741.7	77.163	1,741.7	82.9007	1,741.7	73.3657	1,741.7	80.0041	1,741.7	77.0326	1,741.7	80.0615	1,741.7	72.3258	1,741.7	78.7385	1,741.7	70.1847	1,741.7	75.2177	1,741.7	70.21	1,741.7	72.7776	1,741.7	69.9108	1,741.7	71.9848	1,741.7	72.7134	1,741.7	64.7121	1,741.7	67.7063	1,741.7	72.1871	1,741.7	66.6459	1,741.7	73.129	1,741.7	63.9914	1,741.7	70.6542	1,741.7	74.66	1,741.7	74.0481	1,741.7	72.6922	1,741.7	71.9499	1,741.7	67.4378
1,803.22	87.0827	1,803.22	84.5155	1,803.22	86.4569	1,803.22	83.3471	1,803.22	82.7182	1,803.22	84.4574	1,803.22	82.7314	1,803.22	82.54	1,803.22	83.0263	1,803.22	77.1978	1,803.22	77.256	1,803.22	68.9266	1,803.22	80.9156	1,803.22	80.9609	1,803.22	85.0757	1,803.22	80.5373	1,803.22	85.7933	1,803.22	81.9256	1,803.22	84.5655	1,803.22	83.4641	1,803.22	83.0918	1,803.22	82.3365	1,803.22	81.481	1,803.22	78.0149	1,803.22	79.3785	1,803.22	70.6495	1,803.22	78.5878	1,803.22	79.7467	1,803.22	80.3148	1,803.22	74.2642	1,803.22	75.0856	1,803.22	75.5547	1,803.22	73.306	1,803.22	66.4551	1,803.22	77.0041	1,803.22	73.6051
1,866.21	86.4868	1,866.21	85.7309	1,866.21	86.1062	1,866.21	83.8202	1,866.21	86.3087	1,866.21	80.9366	1,866.21	84.0251	1,866.21	80.6094	1,866.21	78.9689	1,866.21	82.8661	1,866.21	84.374	1,866.21	77.3682	1,866.21	85.7288	1,866.21	79.2461	1,866.21	83.133	1,866.21	77.8493	1,866.21	81.3707	1,866.21	80.0622	1,866.21	79.3146	1,866.21	82.3487	1,866.21	77.7347	1,866.21	79.2414	1,866.21	81.7807	1,866.21	77.238	1,866.21	82.8664	1,866.21	79.1965	1,866.21	77.1363	1,866.21	79.268	1,866.21	74.9851	1,866.21	70.6115	1,866.21	77.7544	1,866.21	65.1895	1,866.21	68.8654	1,866.21	74.0093	1,866.21	72.21	1,866.21	76.7784
1,932.13	87.8785	1,932.13	87.4226	1,932.13	87.3131	1,932.13	85.1181	1,932.13	86.0422	1,932.13	81.7334	1,932.13	84.2044	1,932.13	81.3971	1,932.13	79.5137	1,932.13	80.2934	1,932.13	83.7123	1,932.13	69.8254	1,932.13	85.2859	1,932.13	62.3492	1,932.13	80.8292	1,932.13	72.3725	1,932.13	67.2774	1,932.13	78.5554	1,932.13	67.5933	1,932.13	79.6666	1,932.13	69.7396	1,932.13	77.1874	1,932.13	74.518	1,932.13	56.6196	1,932.13	79.6174	1,932.13	79.5702	1,932.13	77.8795	1,932.13	78.5116	1,932.13	60.5962	1,932.13	68.2128	1,932.13	77.8793	1,932.13	66.9217	1,932.13	75.0463	1,932.13	72.199	1,932.13	71.6945	1,932.13	73.3864
1,999.51	86.7338	1,999.51	87.0582	1,999.51	85.2511	1,999.51	85.5802	1,999.51	85.401	1,999.51	85.0642	1,999.51	84.2171	1,999.51	84.6514	1,999.51	77.812	1,999.51	75.7278	1,999.51	86.1025	1,999.51	69.4794	1,999.51	84.5574	1,999.51	64.1177	1,999.51	75.8886	1,999.51	79.7682	1,999.51	76.0566	1,999.51	83.5817	1,999.51	71.1396	1,999.51	77.7615	1,999.51	71.4288	1,999.51	73.798	1,999.51	58.447	1,999.51	63.7676	1,999.51	72.7719	1,999.51	77.2341	1,999.51	78.1066	1,999.51	78.2197	1,999.51	73.13	1,999.51	66.0064	1,999.51	76.3359	1,999.51	69.9034	1,999.51	77.1836	1,999.51	70.326	1,999.51	72.5079	1,999.51	74.7676
2,069.82	86.4311	2,069.82	85.9872	2,069.82	84.5539	2,069.82	82.7288	2,069.82	84.0999	2,069.82	81.8504	2,069.82	75.8461	2,069.82	83.3823	2,069.82	84.3308	2,069.82	78.1315	2,069.82	85.282	2,069.82	77.8448	2,069.82	80.4837	2,069.82	73.8753	2,069.82	84.7978	2,069.82	78.0173	2,069.82	85.1822	2,069.82	81.7148	2,069.82	82.3079	2,069.82	72.4415	2,069.82	80.6971	2,069.82	74.4272	2,069.82	72.6625	2,069.82	68.1264	2,069.82	66.5393	2,069.82	80.1604	2,069.82	76.9999	2,069.82	77.1489	2,069.82	77.8609	2,069.82	64.6436	2,069.82	71.411	2,069.82	71.7907	2,069.82	79.0573	2,069.82	75.2385	2,069.82	70.9015	2,069.82	66.7502
2,143.07	86.784	2,143.07	86.2663	2,143.07	83.9648	2,143.07	84.9323	2,143.07	76.9715	2,143.07	83.3783	2,143.07	81.5168	2,143.07	78.8602	2,143.07	84.5709	2,143.07	75.7402	2,143.07	84.5368	2,143.07	79.0985	2,143.07	86.5376	2,143.07	80.8842	2,143.07	84.1677	2,143.07	76.4273	2,143.07	81.8171	2,143.07	75.1175	2,143.07	73.0436	2,143.07	78.0235	2,143.07	75.5589	2,143.07	75.9683	2,143.07	79.8741	2,143.07	75.1868	2,143.07	77.1486	2,143.07	78.5542	2,143.07	61.8169	2,143.07	69.3508	2,143.07	75.3134	2,143.07	60.0415	2,143.07	72.7202	2,143.07	75.049	2,143.07	72.1741	2,143.07	66.2938	2,143.07	74.6359	2,143.07	70.4965
2,219.24	88.1472	2,219.24	87.2826	2,219.24	85.2459	2,219.24	83.1165	2,219.24	80.3408	2,219.24	80.491	2,219.24	80.9767	2,219.24	77.8542	2,219.24	84.2665	2,219.24	78.2313	2,219.24	86.0351	2,219.24	79.5531	2,219.24	85.5123	2,219.24	75.7784	2,219.24	83.1545	2,219.24	76.0418	2,219.24	81.1937	2,219.24	79.4512	2,219.24	75.1401	2,219.24	78.8824	2,219.24	60.3597	2,219.24	80.9636	2,219.24	69.3919	2,219.24	80.1361	2,219.24	67.2076	2,219.24	71.4965	2,219.24	71.0303	2,219.24	76.0886	2,219.24	58.5562	2,219.24	64.5724	2,219.24	74.0298	2,219.24	73.6452	2,219.24	74.2977	2,219.24	68.339	2,219.24	74.7992	2,219.24	75.1899
2,296.88	86.5912	2,296.88	86.4883	2,296.88	85.3524	2,296.88	84.5744	2,296.88	80.1253	2,296.88	79.7085	2,296.88	82.0208	2,296.88	77.4528	2,296.88	83.2394	2,296.88	79.9956	2,296.88	83.539	2,296.88	75.8538	2,296.88	86.2836	2,296.88	63.5379	2,296.88	85.0184	2,296.88	73.3988	2,296.88	82.4818	2,296.88	77.885	2,296.88	75.8585	2,296.88	73.8625	2,296.88	75.0177	2,296.88	69.3986	2,296.88	73.9278	2,296.88	77.0982	2,296.88	59.6403	2,296.88	77.8795	2,296.88	70.4589	2,296.88	72.9752	2,296.88	69.6904	2,296.88	67.6787	2,296.88	72.3188	2,296.88	75.7699	2,296.88	73.962	2,296.88	56.6268	2,296.88	69.4372	2,296.88	69.691
2,378.91	85.1487	2,378.91	85.5833	2,378.91	83.4683	2,378.91	83.2133	2,378.91	78.9735	2,378.91	78.4046	2,378.91	78.189	2,378.91	78.3385	2,378.91	83.2242	2,378.91	79.4471	2,378.91	83.6092	2,378.91	76.2485	2,378.91	84.7315	2,378.91	74.9049	2,378.91	84.1649	2,378.91	80.2469	2,378.91	81.9108	2,378.91	80.7794	2,378.91	79.8466	2,378.91	75.3441	2,378.91	76.8843	2,378.91	60.1275	2,378.91	73.8891	2,378.91	69.0509	2,378.91	71.8157	2,378.91	76.8625	2,378.91	62.8571	2,378.91	77.7628	2,378.91	67.2733	2,378.91	70.3466	2,378.91	68.6261	2,378.91	68.8749	2,378.91	72.8573	2,378.91	69.6606	2,378.91	69.9809	2,378.91	68.4805
2,462.4	85.387	2,462.4	85.1776	2,462.4	82.1304	2,462.4	82.8127	2,462.4	74.0287	2,462.4	78.9937	2,462.4	79.0622	2,462.4	76.952	2,462.4	83.1774	2,462.4	78.559	2,462.4	83.9054	2,462.4	77.1415	2,462.4	83.5316	2,462.4	78.9499	2,462.4	81.8388	2,462.4	78.6006	2,462.4	78.8728	2,462.4	75.731	2,462.4	72.5788	2,462.4	76.0079	2,462.4	72.8307	2,462.4	73.2949	2,462.4	71.3522	2,462.4	59.5952	2,462.4	67.9905	2,462.4	75.4276	2,462.4	62.0347	2,462.4	77.4059	2,462.4	67.3173	2,462.4	70.2206	2,462.4	60.61	2,462.4	66.6305	2,462.4	70.5975	2,462.4	65.6501	2,462.4	71.3019	2,462.4	66.9488
2,548.83	86.5246	2,548.83	86.7919	2,548.83	81.9059	2,548.83	82.9511	2,548.83	71.3398	2,548.83	75.4876	2,548.83	79.3683	2,548.83	74.7569	2,548.83	82.7648	2,548.83	75.8049	2,548.83	84.1661	2,548.83	78.4751	2,548.83	82.6151	2,548.83	78.1168	2,548.83	79.0705	2,548.83	75.648	2,548.83	78.9846	2,548.83	76.802	2,548.83	72.0293	2,548.83	76.685	2,548.83	62.1772	2,548.83	74.9229	2,548.83	42.4219	2,548.83	67.9772	2,548.83	62.3607	2,548.83	71.7905	2,548.83	58.7296	2,548.83	76.5742	2,548.83	69.1802	2,548.83	72.1989	2,548.83	51.3345	2,548.83	61.0973	2,548.83	70.4177	2,548.83	65.9153	2,548.83	71.4102	2,548.83	63.7699
2,639.65	86.5361	2,639.65	86.9821	2,639.65	81.7699	2,639.65	82.9095	2,639.65	71.6533	2,639.65	69.0652	2,639.65	78.2374	2,639.65	74.1785	2,639.65	82.3648	2,639.65	78.7274	2,639.65	83.2925	2,639.65	80.3294	2,639.65	80.6744	2,639.65	77.7139	2,639.65	79.3741	2,639.65	74.6452	2,639.65	78.1051	2,639.65	74.4945	2,639.65	71.9681	2,639.65	75.5704	2,639.65	67.4443	2,639.65	76.1987	2,639.65	70.0993	2,639.65	71.4942	2,639.65	66.3575	2,639.65	69.565	2,639.65	59.6647	2,639.65	74.9695	2,639.65	69.2056	2,639.65	73.0171	2,639.65	51.881	2,639.65	62.5092	2,639.65	72.3002	2,639.65	61.3539	2,639.65	70.9319	2,639.65	62.7913
2,731.93	85.7296	2,731.93	85.7435	2,731.93	80.7056	2,731.93	81.6519	2,731.93	71.2804	2,731.93	66.6746	2,731.93	78.0035	2,731.93	75.8702	2,731.93	81.3046	2,731.93	80.0267	2,731.93	81.3027	2,731.93	79.7636	2,731.93	80.2095	2,731.93	77.484	2,731.93	78.719	2,731.93	76.6318	2,731.93	73.7486	2,731.93	75.4554	2,731.93	65.1216	2,731.93	75.583	2,731.93	58.1007	2,731.93	76.1461	2,731.93	66.8609	2,731.93	71.8334	2,731.93	66.8142	2,731.93	66.9309	2,731.93	63.2426	2,731.93	73.8133	2,731.93	67.442	2,731.93	71.788	2,731.93	60.8088	2,731.93	63.3969	2,731.93	72.5487	2,731.93	61.1271	2,731.93	70.9099	2,731.93	64.6193
2,828.61	86.0902	2,828.61	84.8582	2,828.61	81.6616	2,828.61	78.7457	2,828.61	68.9188	2,828.61	59.5127	2,828.61	79.1015	2,828.61	75.9232	2,828.61	81.6932	2,828.61	79.2666	2,828.61	80.7641	2,828.61	78.2548	2,828.61	79.8704	2,828.61	76.5574	2,828.61	78.9349	2,828.61	75.8438	2,828.61	72.9978	2,828.61	72.5259	2,828.61	62.0791	2,828.61	66.1947	2,828.61	67.9575	2,828.61	71.1673	2,828.61	71.4366	2,828.61	72.1676	2,828.61	67.0553	2,828.61	62.2704	2,828.61	62.7382	2,828.61	71.9821	2,828.61	67.2141	2,828.61	72.6375	2,828.61	63.2329	2,828.61	62.5132	2,828.61	71.7197	2,828.61	61.3414	2,828.61	69.976	2,828.61	60.8153
2,928.22	86.7763	2,928.22	85.955	2,928.22	82.3697	2,928.22	79.912	2,928.22	63.5901	2,928.22	58.0171	2,928.22	80.2783	2,928.22	77.339	2,928.22	81.4301	2,928.22	79.8584	2,928.22	80.6405	2,928.22	78.491	2,928.22	79.7642	2,928.22	75.8839	2,928.22	79.123	2,928.22	71.3979	2,928.22	69.4409	2,928.22	69.4848	2,928.22	58.5375	2,928.22	69.4839	2,928.22	71.7097	2,928.22	67.5004	2,928.22	71.9861	2,928.22	70.5156	2,928.22	66.6945	2,928.22	65.622	2,928.22	60.2111	2,928.22	67.2709	2,928.22	65.5869	2,928.22	71.2466	2,928.22	63.2334	2,928.22	62.5257	2,928.22	71.5752	2,928.22	60.9272	2,928.22	69.5991	2,928.22	54.3484
3,030.76	87.6816	3,030.76	87.3789	3,030.76	82.5927	3,030.76	81.8637	3,030.76	64.4696	3,030.76	64.3804	3,030.76	81.8221	3,030.76	80.2898	3,030.76	82.55	3,030.76	81.6205	3,030.76	79.6137	3,030.76	79.8888	3,030.76	75.7602	3,030.76	77.7691	3,030.76	75.6965	3,030.76	76.608	3,030.76	63.0839	3,030.76	75.9919	3,030.76	62.1798	3,030.76	73.3334	3,030.76	72.8073	3,030.76	70.633	3,030.76	69.9767	3,030.76	70.021	3,030.76	64.1756	3,030.76	69.5089	3,030.76	60.8665	3,030.76	66.1243	3,030.76	62.6923	3,030.76	70.8178	3,030.76	65.1265	3,030.76	68.1384	3,030.76	71.1654	3,030.76	57.46	3,030.76	63.9976	3,030.76	60.9529
3,137.7	87.1821	3,137.7	87.1406	3,137.7	80.0721	3,137.7	81.4042	3,137.7	74.2956	3,137.7	69.1757	3,137.7	82.1553	3,137.7	82.4545	3,137.7	82.432	3,137.7	83.7426	3,137.7	79.7912	3,137.7	82.5395	3,137.7	75.1232	3,137.7	80.9178	3,137.7	73.8301	3,137.7	78.9494	3,137.7	69.6129	3,137.7	76.9196	3,137.7	66.6036	3,137.7	74.7982	3,137.7	70.5783	3,137.7	72.8764	3,137.7	63.9764	3,137.7	71.2762	3,137.7	64.9836	3,137.7	71.4841	3,137.7	57.4069	3,137.7	70.0583	3,137.7	59.4949	3,137.7	71.3789	3,137.7	65.0898	3,137.7	69.4445	3,137.7	70.3483	3,137.7	55.7085	3,137.7	64.1982	3,137.7	65.075
3,249.02	86.8693	3,249.02	87.2909	3,249.02	78.2155	3,249.02	80.6715	3,249.02	75.7735	3,249.02	75.5089	3,249.02	81.8882	3,249.02	84.0628	3,249.02	81.1603	3,249.02	83.8507	3,249.02	79.006	3,249.02	82.6336	3,249.02	77.1829	3,249.02	81.0349	3,249.02	75.4154	3,249.02	77.9524	3,249.02	73.2869	3,249.02	76.6709	3,249.02	67.7856	3,249.02	76.5197	3,249.02	73.0799	3,249.02	74.7406	3,249.02	66.7931	3,249.02	71.0403	3,249.02	65.8674	3,249.02	71.1024	3,249.02	48.4654	3,249.02	72.0428	3,249.02	62.1624	3,249.02	71.9922	3,249.02	66.5646	3,249.02	71.1978	3,249.02	71.8638	3,249.02	58.2379	3,249.02	65.9403	3,249.02	66.765
3,363.28	86.8108	3,363.28	86.8826	3,363.28	77.7737	3,363.28	78.7977	3,363.28	77.0437	3,363.28	78.5709	3,363.28	81.0587	3,363.28	84.419	3,363.28	78.8584	3,363.28	84.1987	3,363.28	77.3235	3,363.28	83.2033	3,363.28	79.0994	3,363.28	79.9249	3,363.28	78.5159	3,363.28	77.8257	3,363.28	78.1629	3,363.28	76.8388	3,363.28	74.5079	3,363.28	74.7186	3,363.28	70.0361	3,363.28	73.3303	3,363.28	62.5386	3,363.28	70.6967	3,363.28	58.3292	3,363.28	70.0059	3,363.28	40.7166	3,363.28	70.1805	3,363.28	58.5691	3,363.28	70.9004	3,363.28	67.0856	3,363.28	69.8338	3,363.28	72.7456	3,363.28	61.4619	3,363.28	67.0904	3,363.28	63.8323
3,481.93	86.8515	3,481.93	86.4502	3,481.93	78.0295	3,481.93	77.1093	3,481.93	77.0579	3,481.93	80.6373	3,481.93	80.5354	3,481.93	84.8105	3,481.93	77.2774	3,481.93	84.8625	3,481.93	74.239	3,481.93	82.4623	3,481.93	80.0417	3,481.93	77.8166	3,481.93	79.7942	3,481.93	75.7279	3,481.93	79.6987	3,481.93	70.2571	3,481.93	77.1075	3,481.93	72.8354	3,481.93	74.1908	3,481.93	72.4195	3,481.93	69.4074	3,481.93	68.7696	3,481.93	64.2804	3,481.93	67.3828	3,481.93	56.7292	3,481.93	70.2869	3,481.93	57.7252	3,481.93	70.729	3,481.93	67.4157	3,481.93	67.9516	3,481.93	71.7521	3,481.93	62.0735	3,481.93	65.4271	3,481.93	60.9679
3,604.98	87.6448	3,604.98	86.5519	3,604.98	80.0265	3,604.98	75.4508	3,604.98	76.1026	3,604.98	81.5352	3,604.98	81.9486	3,604.98	85.2629	3,604.98	80.0376	3,604.98	83.8925	3,604.98	75.281	3,604.98	79.9015	3,604.98	80.1177	3,604.98	74.3016	3,604.98	80.0138	3,604.98	67.8415	3,604.98	79.9669	3,604.98	71.4115	3,604.98	74.3311	3,604.98	71.0991	3,604.98	72.3082	3,604.98	71.6404	3,604.98	69.5864	3,604.98	71.6691	3,604.98	62.9809	3,604.98	66.3654	3,604.98	50.7453	3,604.98	68.5835	3,604.98	53.166	3,604.98	71.1798	3,604.98	67.7127	3,604.98	70.3658	3,604.98	71.3343	3,604.98	66.1856	3,604.98	66.41	3,604.98	61.2234
3,732.42	87.4	3,732.42	85.9929	3,732.42	80.649	3,732.42	75.9461	3,732.42	75.2153	3,732.42	83.3102	3,732.42	82.4497	3,732.42	85.1232	3,732.42	80.8679	3,732.42	82.6459	3,732.42	78.2123	3,732.42	76.2661	3,732.42	82.211	3,732.42	71.0723	3,732.42	80.9554	3,732.42	75.8482	3,732.42	80.1944	3,732.42	75.1199	3,732.42	74.4794	3,732.42	73.0361	3,732.42	63.8674	3,732.42	72.0112	3,732.42	70.4442	3,732.42	72.7613	3,732.42	67.6178	3,732.42	70.7594	3,732.42	63.3768	3,732.42	67.7562	3,732.42	61.0423	3,732.42	70.1819	3,732.42	68.8219	3,732.42	69.5049	3,732.42	70.9903	3,732.42	65.9365	3,732.42	65.4199	3,732.42	64.2469
3,864.26	86.1995	3,864.26	85.0025	3,864.26	78.5021	3,864.26	75.9969	3,864.26	75.8815	3,864.26	84.3399	3,864.26	82.4352	3,864.26	85.6543	3,864.26	82.2279	3,864.26	80.68	3,864.26	80.2328	3,864.26	75.2584	3,864.26	83.1152	3,864.26	79.329	3,864.26	82.8619	3,864.26	77.2194	3,864.26	81.2915	3,864.26	76.8163	3,864.26	74.3436	3,864.26	75.4355	3,864.26	63.0575	3,864.26	73.7751	3,864.26	73.5296	3,864.26	73.3167	3,864.26	70.157	3,864.26	72.3605	3,864.26	65.0747	3,864.26	71.3801	3,864.26	65.3939	3,864.26	71.7229	3,864.26	68.5599	3,864.26	69.2299	3,864.26	72.1258	3,864.26	66.152	3,864.26	68.1328	3,864.26	62.6216
4,000.49	87.4352	4,000.49	86.2555	4,000.49	79.5651	4,000.49	77.9179	4,000.49	76.7958	4,000.49	84.9656	4,000.49	84.2266	4,000.49	85.5223	4,000.49	84.2127	4,000.49	78.6772	4,000.49	81.8321	4,000.49	81.098	4,000.49	83.6036	4,000.49	79.5924	4,000.49	83.1958	4,000.49	78.2733	4,000.49	83.0655	4,000.49	78.7637	4,000.49	75.0129	4,000.49	76.5805	4,000.49	71.5939	4,000.49	72.8803	4,000.49	71.7144	4,000.49	72.1204	4,000.49	71.6721	4,000.49	72.267	4,000.49	66.0363	4,000.49	70.8193	4,000.49	67.5289	4,000.49	71.4836	4,000.49	66.1373	4,000.49	68.5351	4,000.49	72.8968	4,000.49	68.0049	4,000.49	68.2017	4,000.49	57.1139
4,141.11	87.4238	4,141.11	85.4787	4,141.11	80.2782	4,141.11	76.5347	4,141.11	77.7354	4,141.11	86.1353	4,141.11	86.1764	4,141.11	83.0341	4,141.11	85.4404	4,141.11	79.2035	4,141.11	83.3343	4,141.11	81.0442	4,141.11	82.8418	4,141.11	79.4283	4,141.11	82.993	4,141.11	77.0939	4,141.11	81.1025	4,141.11	68.3262	4,141.11	69.2304	4,141.11	71.8562	4,141.11	73.585	4,141.11	71.9368	4,141.11	74.3328	4,141.11	68.2839	4,141.11	72.6935	4,141.11	70.6163	4,141.11	64.8194	4,141.11	69.7016	4,141.11	64.3255	4,141.11	71.6699	4,141.11	68.3593	4,141.11	67.6604	4,141.11	72.8479	4,141.11	64.0818	4,141.11	64.2661	4,141.11	60.3674
4,287.6	88.2717	4,287.6	84.1457	4,287.6	83.0234	4,287.6	82.0979	4,287.6	77.0046	4,287.6	86.169	4,287.6	86.4945	4,287.6	81.5748	4,287.6	87.2337	4,287.6	80.5035	4,287.6	84.5418	4,287.6	79.8363	4,287.6	82.7703	4,287.6	75.2293	4,287.6	83.9782	4,287.6	71.1397	4,287.6	78.3954	4,287.6	75.7041	4,287.6	72.45	4,287.6	70.4531	4,287.6	71.9157	4,287.6	72.9767	4,287.6	74.9152	4,287.6	70.2865	4,287.6	74.1244	4,287.6	66.3551	4,287.6	68.8209	4,287.6	68.7501	4,287.6	60.3902	4,287.6	72.8814	4,287.6	71.1116	4,287.6	69.5467	4,287.6	72.6024	4,287.6	62.8938	4,287.6	67.7681	4,287.6	64.0812
4,438.48	88.8513	4,438.48	85.0561	4,438.48	83.7182	4,438.48	81.5891	4,438.48	73.764	4,438.48	84.0987	4,438.48	86.5332	4,438.48	81.3481	4,438.48	87.2985	4,438.48	81.7179	4,438.48	85.1632	4,438.48	79.2176	4,438.48	84.0031	4,438.48	76.1149	4,438.48	84.7259	4,438.48	75.8019	4,438.48	75.0802	4,438.48	72.9055	4,438.48	75.3326	4,438.48	74.2982	4,438.48	55.6429	4,438.48	71.8743	4,438.48	71.5338	4,438.48	73.1407	4,438.48	71.0269	4,438.48	70.2011	4,438.48	68.4452	4,438.48	65.7825	4,438.48	66.2863	4,438.48	71.8742	4,438.48	71.981	4,438.48	72.1348	4,438.48	71.5112	4,438.48	61.3306	4,438.48	68.2072	4,438.48	61.9746
4,595.21	89.0148	4,595.21	83.7242	4,595.21	84.6717	4,595.21	83.4828	4,595.21	74.998	4,595.21	85.1684	4,595.21	86.7874	4,595.21	82.9849	4,595.21	87.7097	4,595.21	80.8287	4,595.21	86.1358	4,595.21	77.3159	4,595.21	84.8011	4,595.21	77.7073	4,595.21	83.228	4,595.21	77.1909	4,595.21	78.3683	4,595.21	75.9204	4,595.21	73.3941	4,595.21	73.7687	4,595.21	62.8236	4,595.21	71.425	4,595.21	62.5827	4,595.21	71.7743	4,595.21	70.0691	4,595.21	71.5706	4,595.21	68.2399	4,595.21	65.1995	4,595.21	67.8143	4,595.21	70.8653	4,595.21	70.2957	4,595.21	72.4779	4,595.21	72.601	4,595.21	68.8185	4,595.21	71.2917	4,595.21	54.5541
4,756.35	88.1234	4,756.35	81.6193	4,756.35	85.9397	4,756.35	84.4087	4,756.35	77.1296	4,756.35	83.4042	4,756.35	86.336	4,756.35	82.9798	4,756.35	86.9172	4,756.35	79.2033	4,756.35	85.9402	4,756.35	79.7858	4,756.35	83.3985	4,756.35	77.4137	4,756.35	79.3228	4,756.35	76.9426	4,756.35	81.6988	4,756.35	73.7041	4,756.35	76.7822	4,756.35	75.2992	4,756.35	64.7293	4,756.35	70.4083	4,756.35	56.7569	4,756.35	68.5016	4,756.35	69.5031	4,756.35	70.6558	4,756.35	69.5516	4,756.35	68.4849	4,756.35	68.7745	4,756.35	65.6503	4,756.35	66.652	4,756.35	70.5765	4,756.35	67.4334	4,756.35	58.9565	4,756.35	70.1455	4,756.35	61.9473
4,924.8	87.9235	4,924.8	82.4836	4,924.8	86.0065	4,924.8	83.7399	4,924.8	78.3068	4,924.8	85.7053	4,924.8	85.277	4,924.8	83.5883	4,924.8	85.7434	4,924.8	79.1153	4,924.8	84.8207	4,924.8	80.3238	4,924.8	81.431	4,924.8	74.0722	4,924.8	80.3398	4,924.8	71.3245	4,924.8	80.869	4,924.8	72.9456	4,924.8	78.4609	4,924.8	71.8022	4,924.8	69.8452	4,924.8	73.6677	4,924.8	61.7625	4,924.8	72.58	4,924.8	67.3315	4,924.8	70.0897	4,924.8	69.6386	4,924.8	70.4454	4,924.8	67.5631	4,924.8	66.1709	4,924.8	68.7657	4,924.8	72.0139	4,924.8	67.7005	4,924.8	65.7604	4,924.8	68.7328	4,924.8	53.0939
5,097.66	86.4638	5,097.66	82.5183	5,097.66	86.1049	5,097.66	84.6247	5,097.66	83.0073	5,097.66	85.2488	5,097.66	85.8993	5,097.66	80.1839	5,097.66	86.3426	5,097.66	82.2031	5,097.66	82.9212	5,097.66	77.1285	5,097.66	78.1348	5,097.66	77.3548	5,097.66	83.9266	5,097.66	78.6131	5,097.66	81.6438	5,097.66	77.9128	5,097.66	78.8658	5,097.66	75.6704	5,097.66	72.0778	5,097.66	73.6444	5,097.66	62.7116	5,097.66	75.1201	5,097.66	58.8777	5,097.66	72.0209	5,097.66	67.274	5,097.66	72.6884	5,097.66	63.222	5,097.66	68.8778	5,097.66	71.2912	5,097.66	73.2395	5,097.66	70.8083	5,097.66	65.3418	5,097.66	71.8407	5,097.66	51.1031
5,277.83	87.0747	5,277.83	82.1373	5,277.83	85.8489	5,277.83	84.7627	5,277.83	84.1404	5,277.83	83.6861	5,277.83	87.4366	5,277.83	82.3905	5,277.83	87.2921	5,277.83	80.8888	5,277.83	83.6335	5,277.83	79.5545	5,277.83	80.7057	5,277.83	79.6691	5,277.83	84.9305	5,277.83	79.7741	5,277.83	80.6432	5,277.83	78.2624	5,277.83	77.2262	5,277.83	76.2855	5,277.83	71.3608	5,277.83	73.7138	5,277.83	61.6923	5,277.83	73.0168	5,277.83	57.1938	5,277.83	72.0672	5,277.83	66.275	5,277.83	72.4143	5,277.83	61.0988	5,277.83	70.5875	5,277.83	67.0393	5,277.83	73.5787	5,277.83	68.9574	5,277.83	68.2232	5,277.83	68.8802	5,277.83	57.9383
5,463.87	86.5901	5,463.87	81.5881	5,463.87	85.339	5,463.87	85.0853	5,463.87	85.1114	5,463.87	82.7369	5,463.87	87.2585	5,463.87	82.7784	5,463.87	86.8201	5,463.87	80.1079	5,463.87	83.496	5,463.87	81.5562	5,463.87	80.1338	5,463.87	78.5256	5,463.87	82.4063	5,463.87	76.6417	5,463.87	76.8811	5,463.87	72.5727	5,463.87	75.5384	5,463.87	74.702	5,463.87	69.4139	5,463.87	72.4144	5,463.87	61.2516	5,463.87	71.6431	5,463.87	47.889	5,463.87	69.7047	5,463.87	61.3789	5,463.87	69.4406	5,463.87	60.2412	5,463.87	68.8201	5,463.87	62.6169	5,463.87	71.7744	5,463.87	69.0742	5,463.87	68.1317	5,463.87	71.612	5,463.87	58.4178
5,657.23	86.4574	5,657.23	82.3657	5,657.23	86.2763	5,657.23	85.4676	5,657.23	85.0464	5,657.23	83.1477	5,657.23	87.6135	5,657.23	82.7317	5,657.23	85.0927	5,657.23	80.8233	5,657.23	80.7876	5,657.23	81.1976	5,657.23	80.519	5,657.23	75.5384	5,657.23	78.0102	5,657.23	75.8565	5,657.23	72.9756	5,657.23	74.3223	5,657.23	68.6074	5,657.23	73.9194	5,657.23	66.1877	5,657.23	72.8114	5,657.23	51.0157	5,657.23	71.0265	5,657.23	58.4896	5,657.23	69.6264	5,657.23	66.1019	5,657.23	69.1766	5,657.23	65.4283	5,657.23	68.1001	5,657.23	66.3039	5,657.23	71.9326	5,657.23	66.1605	5,657.23	68.4356	5,657.23	69.9475	5,657.23	58.1814
5,856.45	85.8095	5,856.45	82.6706	5,856.45	86.2135	5,856.45	85.0924	5,856.45	84.89	5,856.45	83.7814	5,856.45	85.9461	5,856.45	82.2585	5,856.45	83.2627	5,856.45	82.1672	5,856.45	79.3865	5,856.45	80.5555	5,856.45	78.0344	5,856.45	78.292	5,856.45	72.8801	5,856.45	76.6747	5,856.45	71.5068	5,856.45	76.447	5,856.45	38.259	5,856.45	74.5819	5,856.45	59.479	5,856.45	71.8535	5,856.45	62.7842	5,856.45	72.1756	5,856.45	48.1968	5,856.45	70.7669	5,856.45	56.3265	5,856.45	68.5665	5,856.45	66.177	5,856.45	68.4982	5,856.45	63.167	5,856.45	71.6141	5,856.45	66.0894	5,856.45	67.3352	5,856.45	67.886	5,856.45	61.5305
6,062.99	86.0678	6,062.99	83.2635	6,062.99	86.132	6,062.99	85.6935	6,062.99	85.0741	6,062.99	83.0201	6,062.99	85.4086	6,062.99	83.253	6,062.99	81.7722	6,062.99	82.2622	6,062.99	78.8642	6,062.99	79.9384	6,062.99	69.8008	6,062.99	78.9099	6,062.99	54.7618	6,062.99	76.8345	6,062.99	63.0039	6,062.99	75.0262	6,062.99	66.9082	6,062.99	74.5284	6,062.99	54.3026	6,062.99	71.0957	6,062.99	59.0425	6,062.99	70.5152	6,062.99	47.2431	6,062.99	71.2628	6,062.99	65.1612	6,062.99	68.0207	6,062.99	63.4713	6,062.99	68.3912	6,062.99	46.0697	6,062.99	72.0782	6,062.99	67.084	6,062.99	67.9508	6,062.99	66.7165	6,062.99	64.4412
6,276.86	86.3719	6,276.86	84.2719	6,276.86	86.6499	6,276.86	85.7109	6,276.86	84.4577	6,276.86	82.9527	6,276.86	84.7577	6,276.86	83.6558	6,276.86	80.1895	6,276.86	82.2496	6,276.86	75.124	6,276.86	80.7523	6,276.86	71.0163	6,276.86	79.8952	6,276.86	72.378	6,276.86	75.1827	6,276.86	76.0881	6,276.86	72.9414	6,276.86	74.2823	6,276.86	71.5852	6,276.86	67.2818	6,276.86	70.2966	6,276.86	54.9199	6,276.86	66.473	6,276.86	45.997	6,276.86	69.6255	6,276.86	64.2421	6,276.86	64.5735	6,276.86	64.9017	6,276.86	65.5457	6,276.86	45.4316	6,276.86	70.0788	6,276.86	61.6682	6,276.86	64.2208	6,276.86	66.1159	6,276.86	64.1678
6,498.05	86.0268	6,498.05	84.8325	6,498.05	86.2597	6,498.05	84.9628	6,498.05	85.2092	6,498.05	82.5305	6,498.05	85.0691	6,498.05	84.2673	6,498.05	81.3819	6,498.05	82.0668	6,498.05	76.8669	6,498.05	82.1823	6,498.05	73.3916	6,498.05	76.8272	6,498.05	76.491	6,498.05	72.1697	6,498.05	79.0611	6,498.05	72.3029	6,498.05	76.6204	6,498.05	72.1749	6,498.05	68.8659	6,498.05	70.8733	6,498.05	61.451	6,498.05	67.0307	6,498.05	49.3822	6,498.05	68.2033	6,498.05	55.4897	6,498.05	67.3144	6,498.05	63.0971	6,498.05	61.5059	6,498.05	49.7091	6,498.05	69.6155	6,498.05	60.2044	6,498.05	67.2735	6,498.05	64.8489	6,498.05	50.8055
6,726.56	85.9759	6,726.56	84.874	6,726.56	86.0004	6,726.56	84.335	6,726.56	84.0173	6,726.56	83.6487	6,726.56	85.1347	6,726.56	83.5608	6,726.56	82.7825	6,726.56	83.6159	6,726.56	79.0256	6,726.56	79.6307	6,726.56	75.4492	6,726.56	76.6402	6,726.56	79.107	6,726.56	76.9354	6,726.56	80.2044	6,726.56	74.6076	6,726.56	76.0504	6,726.56	73.6516	6,726.56	65.2828	6,726.56	72.087	6,726.56	67.1192	6,726.56	68.6302	6,726.56	60.8515	6,726.56	69.6442	6,726.56	66.7515	6,726.56	68.4495	6,726.56	65.0015	6,726.56	58.5634	6,726.56	60.419	6,726.56	70.2245	6,726.56	64.0773	6,726.56	67.7773	6,726.56	65.9682	6,726.56	52.5244
6,963.87	84.4546	6,963.87	83.5715	6,963.87	85.8187	6,963.87	83.1669	6,963.87	84.1901	6,963.87	84.1289	6,963.87	84.2451	6,963.87	84.4063	6,963.87	83.0868	6,963.87	82.5312	6,963.87	80.7099	6,963.87	78.5892	6,963.87	78.3134	6,963.87	79.9436	6,963.87	80.67	6,963.87	73.0697	6,963.87	79.0649	6,963.87	69.6253	6,963.87	74.689	6,963.87	67.4304	6,963.87	68.5275	6,963.87	68.27	6,963.87	67.1612	6,963.87	66.6792	6,963.87	60.0215	6,963.87	65.4484	6,963.87	65.2626	6,963.87	67.9027	6,963.87	66.2702	6,963.87	57.815	6,963.87	62.4003	6,963.87	66.7934	6,963.87	61.0622	6,963.87	67.1934	6,963.87	59.9594	6,963.87	60.9596
7,209.96	85.5715	7,209.96	82.5736	7,209.96	85.5112	7,209.96	83.4211	7,209.96	83.8009	7,209.96	84.3283	7,209.96	82.774	7,209.96	84.4764	7,209.96	82.6617	7,209.96	79.8157	7,209.96	82.9093	7,209.96	81.0952	7,209.96	81.5441	7,209.96	71.4885	7,209.96	79.5423	7,209.96	71.1076	7,209.96	76.4176	7,209.96	72.0203	7,209.96	77.0531	7,209.96	72.0212	7,209.96	67.2368	7,209.96	71.2839	7,209.96	67.1411	7,209.96	67.4946	7,209.96	60.1119	7,209.96	67.9429	7,209.96	65.853	7,209.96	67.3737	7,209.96	65.7372	7,209.96	64.7905	7,209.96	57.1701	7,209.96	65.0776	7,209.96	65.1109	7,209.96	68.6945	7,209.96	54.5321	7,209.96	65.3755
7,464.84	84.8717	7,464.84	82.4716	7,464.84	85.2657	7,464.84	84.4278	7,464.84	82.8858	7,464.84	84.9914	7,464.84	81.5684	7,464.84	82.4448	7,464.84	82.3185	7,464.84	82.2875	7,464.84	84.2377	7,464.84	77.0247	7,464.84	83.2939	7,464.84	77.4989	7,464.84	77.7608	7,464.84	76.56	7,464.84	77.4135	7,464.84	73.0785	7,464.84	76.2068	7,464.84	71.3198	7,464.84	66.5796	7,464.84	70.6151	7,464.84	68.8507	7,464.84	67.3154	7,464.84	59.7631	7,464.84	67.4788	7,464.84	71.151	7,464.84	66.5417	7,464.84	59.1763	7,464.84	63.3705	7,464.84	56.4856	7,464.84	63.5992	7,464.84	70.0245	7,464.84	63.8887	7,464.84	58.5796	7,464.84	63.4924
7,727.05	83.1538	7,727.05	82.5621	7,727.05	85.4941	7,727.05	85.5666	7,727.05	81.9684	7,727.05	84.5631	7,727.05	81.8186	7,727.05	83.4391	7,727.05	81.6481	7,727.05	80.6818	7,727.05	86.2851	7,727.05	76.3733	7,727.05	83.1445	7,727.05	76.7149	7,727.05	77.9128	7,727.05	59.3956	7,727.05	79.0089	7,727.05	67.7438	7,727.05	77.1647	7,727.05	67.1433	7,727.05	55.1815	7,727.05	68.0999	7,727.05	66.0686	7,727.05	66.6536	7,727.05	55.9296	7,727.05	66.0145	7,727.05	65.42	7,727.05	66.0243	7,727.05	49.9541	7,727.05	64.9321	7,727.05	45.7504	7,727.05	65.3056	7,727.05	66.5228	7,727.05	65.4008	7,727.05	62.0733	7,727.05	67.839
7,999.51	82.9483	7,999.51	84.7742	7,999.51	84.7302	7,999.51	85.0174	7,999.51	82.8952	7,999.51	84.3	7,999.51	82.5569	7,999.51	83.0666	7,999.51	81.4504	7,999.51	79.8761	7,999.51	87.2125	7,999.51	78.4085	7,999.51	78.9407	7,999.51	74.7773	7,999.51	82.2596	7,999.51	77.2084	7,999.51	80.6672	7,999.51	74.5175	7,999.51	77.3365	7,999.51	71.8863	7,999.51	62.874	7,999.51	70.8439	7,999.51	61.1451	7,999.51	68.3406	7,999.51	60.0761	7,999.51	67.4583	7,999.51	58.1957	7,999.51	68.4371	7,999.51	44.2692	7,999.51	65.7826	7,999.51	59.4318	7,999.51	67.8654	7,999.51	68.3451	7,999.51	67.474	7,999.51	69.8737	7,999.51	69.6
8,282.23	83.688	8,282.23	84.6509	8,282.23	84.3446	8,282.23	85.0922	8,282.23	82.6414	8,282.23	84.5785	8,282.23	80.6021	8,282.23	80.6053	8,282.23	83.7808	8,282.23	81.4186	8,282.23	84.4958	8,282.23	75.9993	8,282.23	77.5619	8,282.23	77.9748	8,282.23	82.8065	8,282.23	69.7691	8,282.23	77.2237	8,282.23	63.7729	8,282.23	73.0604	8,282.23	63.2851	8,282.23	59.7207	8,282.23	61.526	8,282.23	60.6489	8,282.23	60.426	8,282.23	58.6653	8,282.23	60.9206	8,282.23	55.6067	8,282.23	62.3168	8,282.23	51.2712	8,282.23	61.3509	8,282.23	53.6527	8,282.23	59.6663	8,282.23	66.3178	8,282.23	65.441	8,282.23	69.6653	8,282.23	68.0263
8,573.73	84.1375	8,573.73	85.766	8,573.73	84.9928	8,573.73	85.5985	8,573.73	83.4204	8,573.73	83.5507	8,573.73	82.5133	8,573.73	81.6737	8,573.73	84.7645	8,573.73	79.731	8,573.73	80.1123	8,573.73	76.9314	8,573.73	80.6013	8,573.73	69.7601	8,573.73	80.7006	8,573.73	70.6956	8,573.73	71.8514	8,573.73	69.2313	8,573.73	65.4218	8,573.73	66.933	8,573.73	58.4834	8,573.73	66.2407	8,573.73	60.681	8,573.73	64.3521	8,573.73	57.7521	8,573.73	60.6859	8,573.73	55.6438	8,573.73	63.3877	8,573.73	61.878	8,573.73	64.5463	8,573.73	52.3104	8,573.73	57.7524	8,573.73	64.8566	8,573.73	62.6886	8,573.73	69.8848	8,573.73	69.8516
8,876.95	84.1808	8,876.95	85.7754	8,876.95	83.5987	8,876.95	84.6712	8,876.95	82.4377	8,876.95	84.0762	8,876.95	83.093	8,876.95	81.9132	8,876.95	83.7274	8,876.95	79.7172	8,876.95	76.3046	8,876.95	73.5489	8,876.95	81.2214	8,876.95	72.6922	8,876.95	75.9551	8,876.95	69.1314	8,876.95	69.053	8,876.95	67.1009	8,876.95	58.0822	8,876.95	65.2028	8,876.95	58.1532	8,876.95	64.5002	8,876.95	61.9601	8,876.95	62.663	8,876.95	56.0724	8,876.95	61.4116	8,876.95	49.8726	8,876.95	58.6511	8,876.95	56.2053	8,876.95	61.6496	8,876.95	53.4276	8,876.95	43.6132	8,876.95	62.652	8,876.95	56.3734	8,876.95	68.0393	8,876.95	69.2849
9,188.96	84.6133	9,188.96	85.4323	9,188.96	84.3722	9,188.96	85.0576	9,188.96	83.1185	9,188.96	84.6464	9,188.96	82.4622	9,188.96	81.1914	9,188.96	82.2545	9,188.96	78.376	9,188.96	78.8883	9,188.96	74.5864	9,188.96	77.7458	9,188.96	73.5806	9,188.96	60.6702	9,188.96	69.6968	9,188.96	61.2757	9,188.96	69.3361	9,188.96	62.5743	9,188.96	68.761	9,188.96	54.857	9,188.96	66.6689	9,188.96	56.0454	9,188.96	63.5541	9,188.96	51.7037	9,188.96	63.4748	9,188.96	47.506	9,188.96	60.8004	9,188.96	46.7432	9,188.96	62.9983	9,188.96	57.3108	9,188.96	56.5599	9,188.96	65.6124	9,188.96	61.8213	9,188.96	64.8383	9,188.96	66.8197
9,514.16	82.7912	9,514.16	84.8482	9,514.16	84.0273	9,514.16	85.6737	9,514.16	84.7799	9,514.16	84.4335	9,514.16	82.4819	9,514.16	81.9073	9,514.16	79.166	9,514.16	79.5617	9,514.16	77.6068	9,514.16	77.092	9,514.16	73.8986	9,514.16	72.3575	9,514.16	68.0453	9,514.16	72.4673	9,514.16	58.2854	9,514.16	69.375	9,514.16	67.6152	9,514.16	67.8905	9,514.16	68.276	9,514.16	66.5935	9,514.16	66.6953	9,514.16	64.2903	9,514.16	49.6282	9,514.16	62.1234	9,514.16	54.5726	9,514.16	61.3667	9,514.16	47.7644	9,514.16	61.4232	9,514.16	56.7598	9,514.16	51.508	9,514.16	64.8241	9,514.16	64.3246	9,514.16	54.9982	9,514.16	64.2331
9,849.61	81.9775	9,849.61	84.6522	9,849.61	84.1689	9,849.61	85.4682	9,849.61	86.4444	9,849.61	83.4183	9,849.61	84.3883	9,849.61	82.0971	9,849.61	79.4843	9,849.61	80.0232	9,849.61	76.8668	9,849.61	75.0499	9,849.61	76.2724	9,849.61	73.8405	9,849.61	73.3446	9,849.61	64.0972	9,849.61	70.6673	9,849.61	65.0336	9,849.61	73.4215	9,849.61	65.9085	9,849.61	69.2731	9,849.61	65.3336	9,849.61	58.397	9,849.61	62.182	9,849.61	58.1451	9,849.61	60.3887	9,849.61	55.5691	9,849.61	62.094	9,849.61	53.2628	9,849.61	57.0441	9,849.61	59.2187	9,849.61	50.9054	9,849.61	59.1002	9,849.61	55.0664	9,849.61	52.9231	9,849.61	63.1652
10,196.8	83.4068	10,196.8	85.4273	10,196.8	83.8406	10,196.8	84.5119	10,196.8	86.3463	10,196.8	83.8245	10,196.8	84.7559	10,196.8	82.2082	10,196.8	80.5819	10,196.8	79.7408	10,196.8	79.8073	10,196.8	77.2737	10,196.8	79.2617	10,196.8	74.6428	10,196.8	75.9287	10,196.8	73.7808	10,196.8	74.5155	10,196.8	69.0759	10,196.8	76.1567	10,196.8	66.2082	10,196.8	72.3245	10,196.8	65.9204	10,196.8	61.4163	10,196.8	62.2266	10,196.8	62.3274	10,196.8	58.3499	10,196.8	55.904	10,196.8	57.5342	10,196.8	53.1073	10,196.8	59.5518	10,196.8	38.8221	10,196.8	53.5183	10,196.8	45.6436	10,196.8	62.0092	10,196.8	49.8659	10,196.8	61.917
10,555.7	85.3093	10,555.7	85.5553	10,555.7	83.8794	10,555.7	83.3179	10,555.7	85.6664	10,555.7	83.2372	10,555.7	84.6332	10,555.7	80.8339	10,555.7	79.4705	10,555.7	80.4906	10,555.7	81.2663	10,555.7	77.1018	10,555.7	80.267	10,555.7	73.8697	10,555.7	73.271	10,555.7	64.5283	10,555.7	76.7441	10,555.7	64.392	10,555.7	72.7381	10,555.7	62.8334	10,555.7	73.1189	10,555.7	61.1366	10,555.7	60.4112	10,555.7	61.1621	10,555.7	62.444	10,555.7	59.7007	10,555.7	57.8065	10,555.7	60.9232	10,555.7	58.372	10,555.7	55.0048	10,555.7	60.9049	10,555.7	43.7974	10,555.7	49.4846	10,555.7	61.0415	10,555.7	51.5527	10,555.7	56.089
10,927.7	86.692	10,927.7	85.5872	10,927.7	85.0987	10,927.7	83.8353	10,927.7	85.6212	10,927.7	83.1362	10,927.7	84.0076	10,927.7	81.4813	10,927.7	81.2899	10,927.7	80.0024	10,927.7	80.1307	10,927.7	74.5783	10,927.7	80.7701	10,927.7	70.5497	10,927.7	75.5726	10,927.7	67.8001	10,927.7	76.939	10,927.7	63.6567	10,927.7	71.4166	10,927.7	60.3294	10,927.7	72.9325	10,927.7	60.4901	10,927.7	67.2171	10,927.7	60.5348	10,927.7	60.4525	10,927.7	58.4113	10,927.7	54.8513	10,927.7	61.3321	10,927.7	53.2848	10,927.7	57.4991	10,927.7	56.6584	10,927.7	50.7812	10,927.7	53.5489	10,927.7	56.5485	10,927.7	51.064	10,927.7	54.7098
11,313	88.0859	11,313	85.9628	11,313	85.95	11,313	83.9456	11,313	84.9337	11,313	82.4255	11,313	83.5246	11,313	81.979	11,313	81.296	11,313	78.3224	11,313	80.2204	11,313	74.1224	11,313	76.7534	11,313	66.5626	11,313	77.5386	11,313	65.948	11,313	71.1878	11,313	61.8224	11,313	71.9649	11,313	63.4647	11,313	68.1183	11,313	61.2894	11,313	67.2077	11,313	60.1129	11,313	46.4436	11,313	56.4526	11,313	57.4378	11,313	57.5735	11,313	58.6253	11,313	59.6224	11,313	49.9284	11,313	51.828	11,313	55.5208	11,313	56.1913	11,313	38.0994	11,313	58.7341
11,712.9	88.7228	11,712.9	86.1431	11,712.9	86.6115	11,712.9	84.3443	11,712.9	82.9927	11,712.9	83.9176	11,712.9	80.6753	11,712.9	81.6123	11,712.9	80.0567	11,712.9	79.1819	11,712.9	77.3607	11,712.9	72.576	11,712.9	73.5401	11,712.9	70.1937	11,712.9	74.6923	11,712.9	66.66	11,712.9	67.119	11,712.9	63.2702	11,712.9	68.5522	11,712.9	63.1039	11,712.9	65.8178	11,712.9	61.9777	11,712.9	63.5284	11,712.9	59.1243	11,712.9	53.7646	11,712.9	58.6563	11,712.9	54.2787	11,712.9	57.577	11,712.9	57.2377	11,712.9	60.1598	11,712.9	46.0722	11,712.9	61.1729	11,712.9	55.6262	11,712.9	59.5466	11,712.9	56.935	11,712.9	54.6472
12,126	89.0573	12,126	86.8439	12,126	86.6715	12,126	84.6773	12,126	82.8774	12,126	82.9902	12,126	82.2543	12,126	81.7223	12,126	79.9398	12,126	78.7883	12,126	74.7281	12,126	73.0507	12,126	73.0979	12,126	69.5215	12,126	68.0311	12,126	67.4711	12,126	65.2354	12,126	63.0884	12,126	65.0634	12,126	61.644	12,126	67.9658	12,126	58.7949	12,126	64.9444	12,126	51.9873	12,126	52.566	12,126	55.0943	12,126	47.4141	12,126	52.737	12,126	54.0985	12,126	60.9013	12,126	48.2653	12,126	61.1252	12,126	55.3137	12,126	56.758	12,126	58.2383	12,126	51.5428
12,553.7	88.9679	12,553.7	86.8985	12,553.7	86.2105	12,553.7	84.3997	12,553.7	82.8006	12,553.7	81.7725	12,553.7	82.0398	12,553.7	80.3251	12,553.7	78.9578	12,553.7	77.0566	12,553.7	72.2121	12,553.7	71.9202	12,553.7	72.0875	12,553.7	69.2734	12,553.7	65.6861	12,553.7	68.0626	12,553.7	63.7066	12,553.7	63.4942	12,553.7	65.3999	12,553.7	61.145	12,553.7	68.3815	12,553.7	58.8612	12,553.7	64.2135	12,553.7	53.6806	12,553.7	53.1349	12,553.7	54.2408	12,553.7	44.0025	12,553.7	53.5879	12,553.7	53.5567	12,553.7	61.912	12,553.7	43.7079	12,553.7	63.6167	12,553.7	47.8116	12,553.7	50.7564	12,553.7	55.3959	12,553.7	55.2883
12,996.1	88.2308	12,996.1	86.7025	12,996.1	85.9946	12,996.1	83.902	12,996.1	82.9619	12,996.1	80.5075	12,996.1	81.1359	12,996.1	78.8877	12,996.1	77.3339	12,996.1	75.956	12,996.1	73.2657	12,996.1	72.1762	12,996.1	70.7765	12,996.1	68.7831	12,996.1	65.1772	12,996.1	65.1159	12,996.1	64.7048	12,996.1	59.0306	12,996.1	65.2961	12,996.1	58.615	12,996.1	67.2553	12,996.1	57.303	12,996.1	63.2576	12,996.1	51.9815	12,996.1	54.1109	12,996.1	51.4961	12,996.1	45.0028	12,996.1	53.7848	12,996.1	55.4943	12,996.1	58.1945	12,996.1	42.1623	12,996.1	60.0209	12,996.1	49.0547	12,996.1	48.2439	12,996.1	49.5085	12,996.1	52.019
13,454.6	87.4033	13,454.6	86.3938	13,454.6	86.0709	13,454.6	83.4272	13,454.6	83.82	13,454.6	80.6513	13,454.6	80.7082	13,454.6	77.0997	13,454.6	76.5594	13,454.6	75.6261	13,454.6	74.2662	13,454.6	70.8895	13,454.6	70.5675	13,454.6	65.4703	13,454.6	64.6573	13,454.6	61.7192	13,454.6	59.6709	13,454.6	54.6101	13,454.6	62.7873	13,454.6	54.2717	13,454.6	66.8121	13,454.6	53.6715	13,454.6	63.1989	13,454.6	50.9687	13,454.6	54.9259	13,454.6	51.5844	13,454.6	49.1131	13,454.6	51.2243	13,454.6	54.2957	13,454.6	57.9849	13,454.6	42.4775	13,454.6	56.3453	13,454.6	46.3394	13,454.6	51.7197	13,454.6	40.7021	13,454.6	51.6455
13,929.2	86.8377	13,929.2	86.1779	13,929.2	85.819	13,929.2	83.3199	13,929.2	84.148	13,929.2	81.0319	13,929.2	80.8219	13,929.2	76.8025	13,929.2	76.6508	13,929.2	75.3011	13,929.2	75.0621	13,929.2	69.2128	13,929.2	66.9501	13,929.2	62.3922	13,929.2	64.0746	13,929.2	59.0089	13,929.2	49.6845	13,929.2	55.6806	13,929.2	58.9658	13,929.2	51.7859	13,929.2	66.271	13,929.2	49.8043	13,929.2	64.8746	13,929.2	47.7952	13,929.2	51.182	13,929.2	50.2788	13,929.2	45.1207	13,929.2	53.3827	13,929.2	53.4092	13,929.2	58.2409	13,929.2	49.3478	13,929.2	50.2288	13,929.2	51.6744	13,929.2	53.9206	13,929.2	42.9826	13,929.2	45.5429
14,419.9	86.2002	14,419.9	86.2356	14,419.9	85.5122	14,419.9	84.0143	14,419.9	84.4184	14,419.9	81.8928	14,419.9	80.7811	14,419.9	77.8273	14,419.9	76.681	14,419.9	75.0463	14,419.9	74.6801	14,419.9	69.2	14,419.9	66.6412	14,419.9	62.6895	14,419.9	61.3445	14,419.9	59.2064	14,419.9	59.0524	14,419.9	55.3967	14,419.9	55.3233	14,419.9	54.5991	14,419.9	66.5713	14,419.9	52.4632	14,419.9	64.9245	14,419.9	49.6001	14,419.9	50.9989	14,419.9	46.9088	14,419.9	31.4331	14,419.9	49.6481	14,419.9	53.8559	14,419.9	59.3159	14,419.9	49.4381	14,419.9	50.1261	14,419.9	50.8516	14,419.9	54.1889	14,419.9	45.2064	14,419.9	49.6357
14,928.2	84.902	14,928.2	86.0623	14,928.2	85.4858	14,928.2	85.0553	14,928.2	84.8839	14,928.2	82.6809	14,928.2	81.1012	14,928.2	78.3801	14,928.2	79.0186	14,928.2	75.6623	14,928.2	73.2044	14,928.2	69.494	14,928.2	72.9996	14,928.2	64.4502	14,928.2	66.6064	14,928.2	63.5679	14,928.2	63.3486	14,928.2	56.0961	14,928.2	46.6684	14,928.2	56.0235	14,928.2	67.3646	14,928.2	54.65	14,928.2	64.8366	14,928.2	51.5606	14,928.2	50.7376	14,928.2	51.1403	14,928.2	48.9138	14,928.2	53.4667	14,928.2	50.3657	14,928.2	60.1536	14,928.2	50.5356	14,928.2	49.7931	14,928.2	51.8688	14,928.2	55.5452	14,928.2	52.8188	14,928.2	54.8437
15,455.6	82.9329	15,455.6	85.7388	15,455.6	84.8419	15,455.6	85.581	15,455.6	84.6869	15,455.6	83.0892	15,455.6	81.1631	15,455.6	79.4441	15,455.6	78.8011	15,455.6	74.4367	15,455.6	74.0045	15,455.6	69.8344	15,455.6	71.0815	15,455.6	64.4303	15,455.6	70.2229	15,455.6	59.771	15,455.6	58.1253	15,455.6	50.391	15,455.6	49.4067	15,455.6	52.3704	15,455.6	66.5562	15,455.6	50.4549	15,455.6	64.3276	15,455.6	50.6635	15,455.6	47.5951	15,455.6	51.9562	15,455.6	48.9446	15,455.6	53.2465	15,455.6	49.6375	15,455.6	58.6984	15,455.6	52.5729	15,455.6	47.7904	15,455.6	49.6267	15,455.6	54.5621	15,455.6	54.0209	15,455.6	57.5629
16,000.5	80.2859	16,000.5	84.6162	16,000.5	84.093	16,000.5	85.3797	16,000.5	84.1754	16,000.5	83.5211	16,000.5	81.1958	16,000.5	79.5085	16,000.5	77.5741	16,000.5	74.9809	16,000.5	73.5442	16,000.5	68.571	16,000.5	67.9678	16,000.5	62.5862	16,000.5	68.9239	16,000.5	56.2116	16,000.5	51.2304	16,000.5	50.0188	16,000.5	49.1939	16,000.5	47.3008	16,000.5	66.1732	16,000.5	47.6037	16,000.5	62.7299	16,000.5	48.2809	16,000.5	49.1903	16,000.5	48.8954	16,000.5	34.8068	16,000.5	55.1539	16,000.5	43.147	16,000.5	55.2022	16,000.5	55.0103	16,000.5	50.1059	16,000.5	50.6352	16,000.5	55.9007	16,000.5	53.8667	16,000.5	58.2283
16,564.5	79.9612	16,564.5	83.695	16,564.5	83.194	16,564.5	84.6952	16,564.5	83.6901	16,564.5	83.8087	16,564.5	82.1596	16,564.5	80.0596	16,564.5	77.6985	16,564.5	75.3754	16,564.5	73.3314	16,564.5	68.366	16,564.5	70.0628	16,564.5	60.9106	16,564.5	59.6584	16,564.5	55.9908	16,564.5	56.2368	16,564.5	48.4642	16,564.5	44.4538	16,564.5	47.3442	16,564.5	65.7335	16,564.5	45.3364	16,564.5	62.3208	16,564.5	45.9053	16,564.5	47.2246	16,564.5	49.0402	16,564.5	33.7049	16,564.5	54.5596	16,564.5	48.6138	16,564.5	46.9086	16,564.5	53.5594	16,564.5	47.9444	16,564.5	49.1508	16,564.5	54.3907	16,564.5	50.9941	16,564.5	57.4343
17,148.9	83.6719	17,148.9	83.6103	17,148.9	83.0174	17,148.9	84.3008	17,148.9	83.7766	17,148.9	84.5333	17,148.9	83.3583	17,148.9	80.9816	17,148.9	79.6353	17,148.9	76.4645	17,148.9	74.9661	17,148.9	69.1055	17,148.9	67.7368	17,148.9	62.1056	17,148.9	59.5646	17,148.9	58.3741	17,148.9	55.1092	17,148.9	48.3968	17,148.9	48.5628	17,148.9	50.6569	17,148.9	65.6324	17,148.9	41.1748	17,148.9	62.641	17,148.9	41.9314	17,148.9	49.2224	17,148.9	50.2884	17,148.9	43.1156	17,148.9	54.8585	17,148.9	46.7273	17,148.9	42.2975	17,148.9	51.5127	17,148.9	48.8159	17,148.9	48.2095	17,148.9	53.8153	17,148.9	45.2234	17,148.9	55.5548
17,752.4	86.782	17,752.4	84.3318	17,752.4	83.4196	17,752.4	84.8181	17,752.4	83.793	17,752.4	84.8931	17,752.4	84.0627	17,752.4	81.7244	17,752.4	78.9845	17,752.4	77.1172	17,752.4	76.2852	17,752.4	69.2082	17,752.4	68.4707	17,752.4	61.813	17,752.4	63.4117	17,752.4	58.1399	17,752.4	59.5289	17,752.4	42.7982	17,752.4	54.2086	17,752.4	46.6437	17,752.4	66.9531	17,752.4	40.2836	17,752.4	62.9389	17,752.4	42.5486	17,752.4	52.0619	17,752.4	43.3309	17,752.4	45.0719	17,752.4	47.0124	17,752.4	51.2527	17,752.4	44.1839	17,752.4	42.1339	17,752.4	39.2155	17,752.4	34.6979	17,752.4	49.4188	17,752.4	42.5398	17,752.4	51.6843
18,379.4	89.0389	18,379.4	86.6165	18,379.4	85.4922	18,379.4	86.0054	18,379.4	84.1528	18,379.4	84.8019	18,379.4	82.9244	18,379.4	82.1263	18,379.4	77.9882	18,379.4	76.5891	18,379.4	75.7794	18,379.4	68.9454	18,379.4	68.7559	18,379.4	59.6227	18,379.4	56.9693	18,379.4	53.2608	18,379.4	56.4302	18,379.4	43.5123	18,379.4	54.0784	18,379.4	44.5863	18,379.4	65.9863	18,379.4	40.3268	18,379.4	62.9257	18,379.4	41.8725	18,379.4	50.743	18,379.4	47.7027	18,379.4	48.1877	18,379.4	46.8692	18,379.4	52.853	18,379.4	35.4296	18,379.4	50.5587	18,379.4	47.1491	18,379.4	51.2144	18,379.4	46.5499	18,379.4	54.3314	18,379.4	48.2646
19,026.9	90.4763	19,026.9	88.7093	19,026.9	87.4404	19,026.9	86.7493	19,026.9	84.8191	19,026.9	84.5712	19,026.9	81.7949	19,026.9	81.5653	19,026.9	77.7308	19,026.9	75.6031	19,026.9	73.4249	19,026.9	67.4592	19,026.9	66.1776	19,026.9	57.2771	19,026.9	61.6974	19,026.9	55.4156	19,026.9	61.9218	19,026.9	49.7216	19,026.9	56.5092	19,026.9	43.1253	19,026.9	65.2547	19,026.9	46.5904	19,026.9	62.2833	19,026.9	35.7198	19,026.9	50.1058	19,026.9	53.4808	19,026.9	51.891	19,026.9	47.9271	19,026.9	55.3403	19,026.9	36.9548	19,026.9	55.9885	19,026.9	52.0152	19,026.9	56.2452	19,026.9	51.5969	19,026.9	58.9286	19,026.9	57.3022
19,697.8	91.4621	19,697.8	89.8741	19,697.8	88.6119	19,697.8	86.743	19,697.8	85.3796	19,697.8	83.8948	19,697.8	80.7625	19,697.8	79.3531	19,697.8	75.642	19,697.8	74.2801	19,697.8	69.118	19,697.8	66.0747	19,697.8	64.7714	19,697.8	56.8689	19,697.8	63.2061	19,697.8	56.7111	19,697.8	60.9774	19,697.8	55.1239	19,697.8	57.6953	19,697.8	38.7615	19,697.8	63.1748	19,697.8	50.8203	19,697.8	60.7813	19,697.8	44.6397	19,697.8	46.509	19,697.8	56.0904	19,697.8	52.6593	19,697.8	46.9017	19,697.8	55.7528	19,697.8	44.9932	19,697.8	58.3991	19,697.8	56.8321	19,697.8	58.4157	19,697.8	55.5515	19,697.8	62.1875	19,697.8	63.1174
19,999.5	91.9908	19,999.5	90.1567	19,999.5	89.1371	19,999.5	86.6699	19,999.5	85.6456	19,999.5	83.6346	19,999.5	80.5578	19,999.5	78.1111	19,999.5	74.5427	19,999.5	74.4782	19,999.5	69.3228	19,999.5	67.6095	19,999.5	62.3095	19,999.5	57.2577	19,999.5	64.8577	19,999.5	56.3038	19,999.5	55.4688	19,999.5	57.1275	19,999.5	61.3739	19,999.5	45.1458	19,999.5	62.043	19,999.5	58.7593	19,999.5	64.1647	19,999.5	55.161	19,999.5	50.6728	19,999.5	58.8627	19,999.5	48.438	19,999.5	53.3172	19,999.5	60.3101	19,999.5	45.4471	19,999.5	57.7966	19,999.5	58.1368	19,999.5	64.7206	19,999.5	58.2974	19,999.5	64.728	19,999.5	67.4946
