"SPL Vertical"																																																																							
"On-Axis"		"10°"		"-10°"		"20°"		"-20°"		"30°"		"-30°"		"40°"		"-40°"		"50°"		"-50°"		"60°"		"-60°"		"70°"		"-70°"		"80°"		"-80°"		"90°"		"-90°"		"100°"		"-100°"		"110°"		"-110°"		"120°"		"-120°"		"130°"		"-130°"		"140°"		"-140°"		"150°"		"-150°"		"160°"		"-160°"		"170°"		"-170°"		"180°"	
"Frequency [Hz]"	"Sound Pessure Level [dB]  / [2.83V 1m] "	"Frequency [Hz]"	"Sound Pessure Level [dB]  / [2.83V 1m] "	"Frequency [Hz]"	"Sound Pessure Level [dB]  / [2.83V 1m] "	"Frequency [Hz]"	"Sound Pessure Level [dB]  / [2.83V 1m] "	"Frequency [Hz]"	"Sound Pessure Level [dB]  / [2.83V 1m] "	"Frequency [Hz]"	"Sound Pessure Level [dB]  / [2.83V 1m] "	"Frequency [Hz]"	"Sound Pessure Level [dB]  / [2.83V 1m] "	"Frequency [Hz]"	"Sound Pessure Level [dB]  / [2.83V 1m] "	"Frequency [Hz]"	"Sound Pessure Level [dB]  / [2.83V 1m] "	"Frequency [Hz]"	"Sound Pessure Level [dB]  / [2.83V 1m] "	"Frequency [Hz]"	"Sound Pessure Level [dB]  / [2.83V 1m] "	"Frequency [Hz]"	"Sound Pessure Level [dB]  / [2.83V 1m] "	"Frequency [Hz]"	"Sound Pessure Level [dB]  / [2.83V 1m] "	"Frequency [Hz]"	"Sound Pessure Level [dB]  / [2.83V 1m] "	"Frequency [Hz]"	"Sound Pessure Level [dB]  / [2.83V 1m] "	"Frequency [Hz]"	"Sound Pessure Level [dB]  / [2.83V 1m] "	"Frequency [Hz]"	"Sound Pessure Level [dB]  / [2.83V 1m] "	"Frequency [Hz]"	"Sound Pessure Level [dB]  / [2.83V 1m] "	"Frequency [Hz]"	"Sound Pessure Level [dB]  / [2.83V 1m] "	"Frequency [Hz]"	"Sound Pessure Level [dB]  / [2.83V 1m] "	"Frequency [Hz]"	"Sound Pessure Level [dB]  / [2.83V 1m] "	"Frequency [Hz]"	"Sound Pessure Level [dB]  / [2.83V 1m] "	"Frequency [Hz]"	"Sound Pessure Level [dB]  / [2.83V 1m] "	"Frequency [Hz]"	"Sound Pessure Level [dB]  / [2.83V 1m] "	"Frequency [Hz]"	"Sound Pessure Level [dB]  / [2.83V 1m] "	"Frequency [Hz]"	"Sound Pessure Level [dB]  / [2.83V 1m] "	"Frequency [Hz]"	"Sound Pessure Level [dB]  / [2.83V 1m] "	"Frequency [Hz]"	"Sound Pessure Level [dB]  / [2.83V 1m] "	"Frequency [Hz]"	"Sound Pessure Level [dB]  / [2.83V 1m] "	"Frequency [Hz]"	"Sound Pessure Level [dB]  / [2.83V 1m] "	"Frequency [Hz]"	"Sound Pessure Level [dB]  / [2.83V 1m] "	"Frequency [Hz]"	"Sound Pessure Level [dB]  / [2.83V 1m] "	"Frequency [Hz]"	"Sound Pessure Level [dB]  / [2.83V 1m] "	"Frequency [Hz]"	"Sound Pessure Level [dB]  / [2.83V 1m] "	"Frequency [Hz]"	"Sound Pessure Level [dB]  / [2.83V 1m] "	"Frequency [Hz]"	"Sound Pessure Level [dB]  / [2.83V 1m] "
20.5078	49.3935	20.5078	49.0105	20.5078	49.594	20.5078	48.4947	20.5078	49.5833	20.5078	47.9418	20.5078	49.3433	20.5078	47.5276	20.5078	48.8731	20.5078	47.5016	20.5078	48.2257	20.5078	48.0581	20.5078	47.6012	20.5078	49.163	20.5078	47.4607	20.5078	50.5934	20.5078	48.3014	20.5078	52.1242	20.5078	50.0253	20.5078	53.6165	20.5078	52.0746	20.5078	55.0026	20.5078	54.0427	20.5078	56.2525	20.5078	55.7664	20.5078	57.3513	20.5078	57.2009	20.5078	58.2885	20.5078	58.342	20.5078	59.0529	20.5078	59.1975	20.5078	59.6314	20.5078	59.7788	20.5078	60.0091	20.5078	60.0983	20.5078	60.17
21.9727	51.9884	21.9727	51.6349	21.9727	52.1756	21.9727	51.1537	21.9727	52.1735	21.9727	50.616	21.9727	51.968	21.9727	50.1525	21.9727	51.5602	21.9727	49.9626	21.9727	50.9931	21.9727	50.2478	21.9727	50.4176	21.9727	51.0661	21.9727	50.1771	21.9727	52.2801	21.9727	50.7045	21.9727	53.6801	21.9727	52.069	21.9727	55.1036	21.9727	53.8729	21.9727	56.4575	21.9727	55.7069	21.9727	57.6949	21.9727	57.36	21.9727	58.7915	21.9727	58.755	21.9727	59.7319	21.9727	59.8712	21.9727	60.5023	21.9727	60.7092	21.9727	61.0884	21.9727	61.2764	21.9727	61.4747	21.9727	61.584	21.9727	61.6452
23.4375	53.8459	23.4375	53.4959	23.4375	54.0356	23.4375	53.0201	23.4375	54.0448	23.4375	52.4822	23.4375	53.8616	23.4375	51.9996	23.4375	53.4882	23.4375	51.7574	23.4375	52.9644	23.4375	51.9571	23.4375	52.4232	23.4375	52.6819	23.4375	52.1629	23.4375	53.8237	23.4375	52.5781	23.4375	55.1805	23.4375	53.7864	23.4375	56.5823	23.4375	55.4685	23.4375	57.9268	23.4375	57.2315	23.4375	59.1608	23.4375	58.8478	23.4375	60.2566	23.4375	60.2246	23.4375	61.1966	23.4375	61.3325	23.4375	61.9665	23.4375	62.1672	23.4375	62.5516	23.4375	62.734	23.4375	62.9365	23.4375	63.0426	23.4375	63.1054
24.9023	55.8583	24.9023	55.5906	24.9023	56.0176	24.9023	55.2546	24.9023	56.0465	24.9023	54.9174	24.9023	55.9389	24.9023	54.6811	24.9023	55.7105	24.9023	54.6732	24.9023	55.4171	24.9023	55.0023	24.9023	55.1853	24.9023	55.6946	24.9023	55.2254	24.9023	56.6766	24.9023	55.7496	24.9023	57.8258	24.9023	56.7964	24.9023	59.0294	24.9023	58.1832	24.9023	60.2073	24.9023	59.6657	24.9023	61.3092	24.9023	61.0677	24.9023	62.303	24.9023	62.2939	24.9023	63.1659	24.9023	63.2999	24.9023	63.8788	24.9023	64.0682	24.9023	64.424	24.9023	64.5946	24.9023	64.7839	24.9023	64.8829	24.9023	64.9419
26.3672	58.2105	26.3672	57.9736	26.3672	58.3562	26.3672	57.6773	26.3672	58.3933	26.3672	57.3732	26.3672	58.3174	26.3672	57.1377	26.3672	58.1421	26.3672	57.0685	26.3672	57.9116	26.3672	57.2598	26.3672	57.7205	26.3672	57.7589	26.3672	57.723	26.3672	58.5386	26.3672	58.0884	26.3672	59.5142	26.3672	58.8886	26.3672	60.5864	26.3672	60.0282	26.3672	61.6719	26.3672	61.3186	26.3672	62.7114	26.3672	62.5894	26.3672	63.6639	26.3672	63.7306	26.3672	64.5001	26.3672	64.6824	26.3672	65.1965	26.3672	65.4161	26.3672	65.7323	26.3672	65.9208	26.3672	66.0887	26.3672	66.196	26.3672	66.2482
27.832	60.2081	27.832	60.0114	27.832	60.3336	27.832	59.7721	27.832	60.3719	27.832	59.5348	27.832	60.3197	27.832	59.3618	27.832	60.1904	27.832	59.329	27.832	60.0236	27.832	59.5082	27.832	59.8977	27.832	59.9392	27.832	59.9338	27.832	60.6092	27.832	60.2629	27.832	61.4599	27.832	60.9494	27.832	62.4139	27.832	61.9362	27.832	63.3988	27.832	63.0809	27.832	64.3571	27.832	64.2361	27.832	65.2463	27.832	65.2942	27.832	66.0337	27.832	66.1897	27.832	66.6934	27.832	66.8875	27.832	67.2025	27.832	67.3715	27.832	67.5409	27.832	67.6378	27.832	67.6909
29.2969	62.0766	29.2969	61.8984	29.2969	62.199	29.2969	61.6896	29.2969	62.2517	29.2969	61.4891	29.2969	62.2329	29.2969	61.3494	29.2969	62.1559	29.2969	61.3325	29.2969	62.0562	29.2969	61.4968	29.2969	61.9991	29.2969	61.8768	29.2969	62.0798	29.2969	62.4672	29.2969	62.398	29.2969	63.2256	29.2969	63.0064	29.2969	64.0898	29.2969	63.8699	29.2969	64.9963	29.2969	64.8829	29.2969	65.8911	29.2969	65.9228	29.2969	66.7314	29.2969	66.8901	29.2969	67.4833	29.2969	67.718	29.2969	68.1189	29.2969	68.367	29.2969	68.6141	29.2969	68.8169	29.2969	68.9476	29.2969	69.0609	29.2969	69.1013
30.7617	64.0415	30.7617	63.8911	30.7617	64.15	30.7617	63.7203	30.7617	64.2042	30.7617	63.5607	30.7617	64.2022	30.7617	63.4534	30.7617	64.1547	30.7617	63.4459	30.7617	64.0905	30.7617	63.5833	30.7617	64.0613	30.7617	63.8953	30.7617	64.1414	30.7617	64.385	30.7617	64.4108	30.7617	65.0272	30.7617	64.9187	30.7617	65.7766	30.7617	65.6508	30.7617	66.5812	30.7617	66.531	30.7617	67.3916	30.7617	67.4576	30.7617	68.1652	30.7617	68.3377	30.7617	68.8663	30.7617	69.1028	30.7617	69.4646	30.7617	69.7091	30.7617	69.934	30.7617	70.1323	30.7617	70.2518	30.7617	70.3623	30.7617	70.3993
32.2266	65.8025	32.2266	65.6911	32.2266	65.8884	32.2266	65.5728	32.2266	65.9388	32.2266	65.474	32.2266	65.9527	32.2266	65.4277	32.2266	65.9412	32.2266	65.4705	32.2266	65.9303	32.2266	65.6361	32.2266	65.9639	32.2266	65.9465	32.2266	66.101	32.2266	66.4049	32.2266	66.4014	32.2266	66.9937	32.2266	66.9005	32.2266	67.6796	32.2266	67.5863	32.2266	68.4212	32.2266	68.4003	32.2266	69.1764	32.2266	69.2602	32.2266	69.9058	32.2266	70.0853	32.2266	70.5743	32.2266	70.811	32.2266	71.1503	32.2266	71.3923	32.2266	71.6057	32.2266	71.8013	32.2266	71.9158	32.2266	72.0246	32.2266	72.0603
33.6914	67.5108	33.6914	67.4045	33.6914	67.5993	33.6914	67.2962	33.6914	67.6611	33.6914	67.2084	33.6914	67.6956	33.6914	67.1691	33.6914	67.7118	33.6914	67.209	33.6914	67.7307	33.6914	67.3569	33.6914	67.7871	33.6914	67.6325	33.6914	67.927	33.6914	68.0406	33.6914	68.1981	33.6914	68.5692	33.6914	68.6319	33.6914	69.1913	33.6914	69.2258	33.6914	69.8715	33.6914	69.9389	33.6914	70.5715	33.6914	70.7054	33.6914	71.2537	33.6914	71.4539	33.6914	71.8833	33.6914	72.1224	33.6914	72.4287	33.6914	72.6642	33.6914	72.8613	33.6914	73.0487	33.6914	73.1564	33.6914	73.26	33.6914	73.2939
35.1563	69.2196	35.1563	69.1293	35.1563	69.3011	35.1563	69.0438	35.1563	69.3666	35.1563	68.9818	35.1563	69.4155	35.1563	68.9661	35.1563	69.4559	35.1563	69.0215	35.1563	69.5056	35.1563	69.1706	35.1563	69.5931	35.1563	69.4296	35.1563	69.7553	35.1563	69.8029	35.1563	70.0295	35.1563	70.2822	35.1563	70.4399	35.1563	70.8469	35.1563	70.9848	35.1563	71.4681	35.1563	71.6321	35.1563	72.1126	35.1563	72.3276	35.1563	72.7464	35.1563	73.0096	35.1563	73.3366	35.1563	73.6217	35.1563	73.8522	35.1563	74.1193	35.1563	74.2649	35.1563	74.472	35.1563	74.5498	35.1563	74.6628	35.1563	74.687
36.6211	70.8481	36.6211	70.7664	36.6211	70.9271	36.6211	70.6933	36.6211	70.997	36.6211	70.6448	36.6211	71.0573	36.6211	70.6398	36.6211	71.1148	36.6211	70.6989	36.6211	71.1845	36.6211	70.8408	36.6211	71.2898	36.6211	71.0792	36.6211	71.4605	36.6211	71.4188	36.6211	71.7266	36.6211	71.8541	36.6211	72.1081	36.6211	72.3688	36.6211	72.6046	36.6211	72.939	36.6211	73.1908	36.6211	73.5355	36.6211	73.822	36.6211	74.1272	36.6211	74.4441	36.6211	74.6826	36.6211	75.0056	36.6211	75.1716	36.6211	75.4637	36.6211	75.566	36.6211	75.788	36.6211	75.8412	36.6211	75.9611	36.6211	75.9773
38.0859	72.2449	38.0859	72.1789	38.0859	72.3151	38.0859	72.1266	38.0859	72.3843	38.0859	72.1013	38.0859	72.4527	38.0859	72.1188	38.0859	72.5267	38.0859	72.1954	38.0859	72.6193	38.0859	72.3465	38.0859	72.7507	38.0859	72.5829	38.0859	72.945	38.0859	72.9085	38.0859	73.2255	38.0859	73.3187	38.0859	73.6062	38.0859	73.8006	38.0859	74.0845	38.0859	74.3338	38.0859	74.638	38.0859	74.8931	38.0859	75.2276	38.0859	75.4502	38.0859	75.8066	38.0859	75.9761	38.0859	76.3284	38.0859	76.4417	38.0859	76.7538	38.0859	76.8197	38.0859	77.054	38.0859	77.0859	38.0859	77.2116	38.0859	77.2208
39.5508	73.7273	39.5508	73.6689	39.5508	73.795	39.5508	73.6273	39.5508	73.868	39.5508	73.6127	39.5508	73.9462	39.5508	73.6373	39.5508	74.0342	39.5508	73.7135	39.5508	74.1416	39.5508	73.8532	39.5508	74.2829	39.5508	74.065	39.5508	74.4754	39.5508	74.3525	39.5508	74.7361	39.5508	74.7132	39.5508	75.0758	39.5508	75.1378	39.5508	75.4938	39.5508	75.6103	39.5508	75.9743	39.5508	76.11	39.5508	76.4879	39.5508	76.6124	39.5508	76.9958	39.5508	77.0908	39.5508	77.4573	39.5508	77.5179	39.5508	77.8359	39.5508	77.8677	39.5508	78.1034	39.5508	78.1164	39.5508	78.2421	39.5508	78.2452
41.0156	74.9085	41.0156	74.8487	41.0156	74.978	41.0156	74.8052	41.0156	75.0535	41.0156	74.7866	41.0156	75.1348	41.0156	74.8029	41.0156	75.2251	41.0156	74.865	41.0156	75.3321	41.0156	74.9831	41.0156	75.4672	41.0156	75.1651	41.0156	75.6449	41.0156	75.4154	41.0156	75.8796	41.0156	75.7331	41.0156	76.1816	41.0156	76.1115	41.0156	76.5519	41.0156	76.5379	41.0156	76.9787	41.0156	76.9943	41.0156	77.4377	41.0156	77.4586	41.0156	77.8948	41.0156	77.9056	41.0156	78.3125	41.0156	78.309	41.0156	78.6559	41.0156	78.6429	41.0156	78.8972	41.0156	78.8839	41.0156	79.0187	41.0156	79.0132
42.4805	75.8311	42.4805	75.7751	42.4805	75.9	42.4805	75.7374	42.4805	75.9788	42.4805	75.7251	42.4805	76.0674	42.4805	75.7468	42.4805	76.1685	42.4805	75.8114	42.4805	76.2888	42.4805	75.9276	42.4805	76.4375	42.4805	76.1023	42.4805	76.6264	42.4805	76.3393	42.4805	76.8668	42.4805	76.6384	42.4805	77.1661	42.4805	76.9944	42.4805	77.5239	42.4805	77.3964	42.4805	77.9294	42.4805	77.8287	42.4805	78.3603	42.4805	78.2712	42.4805	78.7862	42.4805	78.7003	42.4805	79.1729	42.4805	79.091	42.4805	79.4883	42.4805	79.4179	42.4805	79.7062	42.4805	79.6581	42.4805	79.8099	42.4805	79.7927
43.9453	76.8076	43.9453	76.7554	43.9453	76.8751	43.9453	76.7228	43.9453	76.9552	43.9453	76.7155	43.9453	77.0478	43.9453	76.7404	43.9453	77.1548	43.9453	76.8048	43.9453	77.281	43.9453	76.9155	43.9453	77.4335	43.9453	77.0785	43.9453	77.6209	43.9453	77.2972	43.9453	77.8517	43.9453	77.5717	43.9453	78.1315	43.9453	77.8981	43.9453	78.4601	43.9453	78.2674	43.9453	78.8284	43.9453	78.6661	43.9453	79.2183	43.9453	79.0762	43.9453	79.6036	43.9453	79.4761	43.9453	79.9541	43.9453	79.8421	43.9453	80.2402	43.9453	80.1502	43.9453	80.4372	43.9453	80.3783	43.9453	80.5288	43.9453	80.5082
45.4102	77.5077	45.4102	77.456	45.4102	77.5763	45.4102	77.4249	45.4102	77.6596	45.4102	77.4191	45.4102	77.757	45.4102	77.4442	45.4102	77.8698	45.4102	77.5061	45.4102	78.0013	45.4102	77.6106	45.4102	78.1567	45.4102	77.7625	45.4102	78.3425	45.4102	77.965	45.4102	78.5651	45.4102	78.2186	45.4102	78.8288	45.4102	78.52	45.4102	79.133	45.4102	78.8619	45.4102	79.4704	45.4102	79.2326	45.4102	79.8255	45.4102	79.6159	45.4102	80.1757	45.4102	79.9919	45.4102	80.4938	45.4102	80.3383	45.4102	80.7527	45.4102	80.6322	45.4102	80.9292	45.4102	80.8522	45.4102	81.0075	45.4102	80.9809
46.875	78.0483	46.875	77.9971	46.875	78.116	46.875	77.9654	46.875	78.1982	46.875	77.9572	46.875	78.2943	46.875	77.9772	46.875	78.4053	46.875	78.0307	46.875	78.5338	46.875	78.1228	46.875	78.6837	46.875	78.2581	46.875	78.8603	46.875	78.4398	46.875	79.0686	46.875	78.6689	46.875	79.3123	46.875	78.9433	46.875	79.5909	46.875	79.257	46.875	79.8984	46.875	79.5996	46.875	80.2214	46.875	79.9567	46.875	80.5398	46.875	80.3096	46.875	80.8292	46.875	80.6373	46.875	81.064	46.875	80.9178	46.875	81.2224	46.875	81.1301	46.875	81.289	46.875	81.2574
48.3398	78.3679	48.3398	78.3203	48.3398	78.4376	48.3398	78.2974	48.3398	78.5277	48.3398	78.3023	48.3398	78.6374	48.3398	78.3386	48.3398	78.7667	48.3398	78.4099	48.3398	78.917	48.3398	78.5197	48.3398	79.0904	48.3398	78.6708	48.3398	79.2899	48.3398	78.865	48.3398	79.518	48.3398	79.1021	48.3398	79.7759	48.3398	79.3793	48.3398	80.0616	48.3398	79.6909	48.3398	80.3684	48.3398	80.0274	48.3398	80.6837	48.3398	80.3755	48.3398	80.9893	48.3398	80.7184	48.3398	81.2631	48.3398	81.0369	48.3398	81.4824	48.3398	81.3103	48.3398	81.6274	48.3398	81.5191	48.3398	81.6843	48.3398	81.6473
51.2695	79.2762	51.2695	79.2282	51.2695	79.3474	51.2695	79.2051	51.2695	79.4403	51.2695	79.2086	51.2695	79.5538	51.2695	79.2405	51.2695	79.6869	51.2695	79.3027	51.2695	79.839	51.2695	79.397	51.2695	80.0099	51.2695	79.5251	51.2695	80.1997	51.2695	79.688	51.2695	80.4083	51.2695	79.8857	51.2695	80.635	51.2695	80.1166	51.2695	80.8776	51.2695	80.3769	51.2695	81.1307	51.2695	80.6602	51.2695	81.3855	51.2695	80.9564	51.2695	81.6284	51.2695	81.2523	51.2695	81.8427	51.2695	81.5317	51.2695	82.0104	51.2695	81.7766	51.2695	82.1151	51.2695	81.9696	51.2695	82.1451	51.2695	82.0956
52.7344	79.5732	52.7344	79.5274	52.7344	79.6431	52.7344	79.507	52.7344	79.7359	52.7344	79.5131	52.7344	79.8503	52.7344	79.5467	52.7344	79.9847	52.7344	79.6091	52.7344	80.1379	52.7344	79.7012	52.7344	80.3086	52.7344	79.8241	52.7344	80.4957	52.7344	79.9782	52.7344	80.698	52.7344	80.1634	52.7344	80.914	52.7344	80.3785	52.7344	81.1411	52.7344	80.6203	52.7344	81.375	52.7344	80.8835	52.7344	81.6079	52.7344	81.1595	52.7344	81.8287	52.7344	81.4364	52.7344	82.0227	52.7344	81.6993	52.7344	82.1737	52.7344	81.9316	52.7344	82.2664	52.7344	82.1162	52.7344	82.2897	52.7344	82.2387
54.1992	79.8777	54.1992	79.8328	54.1992	79.9468	54.1992	79.8131	54.1992	80.039	54.1992	79.8192	54.1992	80.153	54.1992	79.8517	54.1992	80.2869	54.1992	79.9112	54.1992	80.4388	54.1992	79.998	54.1992	80.6069	54.1992	80.1126	54.1992	80.7891	54.1992	80.2555	54.1992	80.9835	54.1992	80.4263	54.1992	81.1879	54.1992	80.624	54.1992	81.3996	54.1992	80.8463	54.1992	81.6143	54.1992	81.0886	54.1992	81.8255	54.1992	81.3436	54.1992	82.0234	54.1992	81.6008	54.1992	82.1953	54.1992	81.8468	54.1992	82.3268	54.1992	82.0661	54.1992	82.4043	54.1992	82.2427	54.1992	82.4178	54.1992	82.363
55.6641	80.1475	55.6641	80.1038	55.6641	80.2165	55.6641	80.086	55.6641	80.3096	55.6641	80.0942	55.6641	80.4255	55.6641	80.1284	55.6641	80.562	55.6641	80.1887	55.6641	80.7167	55.6641	80.2748	55.6641	80.887	55.6641	80.3868	55.6641	81.0699	55.6641	80.5243	55.6641	81.2626	55.6641	80.687	55.6641	81.4622	55.6641	80.8739	55.6641	81.6655	55.6641	81.0829	55.6641	81.8681	55.6641	81.3102	55.6641	82.064	55.6641	81.5495	55.6641	82.2446	55.6641	81.7917	55.6641	82.3988	55.6641	82.0245	55.6641	82.5141	55.6641	82.2337	55.6641	82.5784	55.6641	82.4044	55.6641	82.5827	55.6641	82.5238
58.5938	80.6948	58.5938	80.65	58.5938	80.7649	58.5938	80.6306	58.5938	80.8594	58.5938	80.6363	58.5938	80.9763	58.5938	80.6662	58.5938	81.1133	58.5938	80.7193	58.5938	81.2668	58.5938	80.7946	58.5938	81.433	58.5938	80.8911	58.5938	81.6078	58.5938	81.0081	58.5938	81.7868	58.5938	81.1449	58.5938	81.9662	58.5938	81.3009	58.5938	82.1419	58.5938	81.4748	58.5938	82.31	58.5938	81.6644	58.5938	82.4657	58.5938	81.8655	58.5938	82.603	58.5938	82.0717	58.5938	82.7142	58.5938	82.2737	58.5938	82.7902	58.5938	82.4598	58.5938	82.8225	58.5938	82.6176	58.5938	82.8049	58.5938	82.7354
60.0586	80.9498	60.0586	80.9045	60.0586	81.0197	60.0586	80.8838	60.0586	81.1133	60.0586	80.8871	60.0586	81.2289	60.0586	80.9132	60.0586	81.3637	60.0586	80.9608	60.0586	81.514	60.0586	81.0286	60.0586	81.6758	60.0586	81.1155	60.0586	81.8442	60.0586	81.2206	60.0586	82.0146	60.0586	81.3433	60.0586	82.1826	60.0586	81.483	60.0586	82.3441	60.0586	81.6391	60.0586	82.4951	60.0586	81.81	60.0586	82.6315	60.0586	81.9926	60.0586	82.7483	60.0586	82.1816	60.0586	82.8393	60.0586	82.3688	60.0586	82.897	60.0586	82.544	60.0586	82.9145	60.0586	82.6955	60.0586	82.8867	60.0586	82.8124
62.9883	81.4889	62.9883	81.4423	62.9883	81.5609	62.9883	81.421	62.9883	81.6575	62.9883	81.4237	62.9883	81.7767	62.9883	81.4487	62.9883	81.9154	62.9883	81.4941	62.9883	82.0691	62.9883	81.5579	62.9883	82.2326	62.9883	81.6381	62.9883	82.4003	62.9883	81.7334	62.9883	82.5664	62.9883	81.8427	62.9883	82.7252	62.9883	81.9654	62.9883	82.8721	62.9883	82.1013	62.9883	83.0029	62.9883	82.2494	62.9883	83.1143	62.9883	82.4081	62.9883	83.2026	62.9883	82.5738	62.9883	83.264	62.9883	82.7407	62.9883	83.2938	62.9883	82.9006	62.9883	83.2878	62.9883	83.0437	62.9883	83.2432	62.9883	83.1605
64.4531	81.6744	64.4531	81.6269	64.4531	81.7477	64.4531	81.6049	64.4531	81.8459	64.4531	81.6069	64.4531	81.967	64.4531	81.6312	64.4531	82.1075	64.4531	81.6753	64.4531	82.2627	64.4531	81.7368	64.4531	82.427	64.4531	81.8136	64.4531	82.5942	64.4531	81.9039	64.4531	82.758	64.4531	82.0065	64.4531	82.9124	64.4531	82.1207	64.4531	83.0523	64.4531	82.2463	64.4531	83.1734	64.4531	82.383	64.4531	83.2726	64.4531	82.5296	64.4531	83.3468	64.4531	82.6836	64.4531	83.3933	64.4531	82.8402	64.4531	83.4087	64.4531	82.9925	64.4531	83.3903	64.4531	83.1317	64.4531	83.3366	64.4531	83.2489
67.3828	81.9144	67.3828	81.8624	67.3828	81.9921	67.3828	81.8358	67.3828	82.0947	67.3828	81.8333	67.3828	82.2197	67.3828	81.8523	67.3828	82.3632	67.3828	81.8903	67.3828	82.5199	67.3828	81.9441	67.3828	82.6836	67.3828	82.0112	67.3828	82.8474	67.3828	82.0892	67.3828	83.004	67.3828	82.1766	67.3828	83.1467	67.3828	82.2726	67.3828	83.2699	67.3828	82.3771	67.3828	83.3692	67.3828	82.4905	67.3828	83.4417	67.3828	82.6129	67.3828	83.4857	67.3828	82.7437	67.3828	83.5004	67.3828	82.8802	67.3828	83.4854	67.3828	83.0178	67.3828	83.4407	67.3828	83.1499	67.3828	83.3675	67.3828	83.2688
68.8477	81.9564	68.8477	81.9015	68.8477	82.0363	68.8477	81.8713	68.8477	82.1402	68.8477	81.8643	68.8477	82.2654	68.8477	81.8781	68.8477	82.4082	68.8477	81.91	68.8477	82.563	68.8477	81.9569	68.8477	82.7234	68.8477	82.0159	68.8477	82.8824	68.8477	82.0848	68.8477	83.0324	68.8477	82.1618	68.8477	83.1665	68.8477	82.2462	68.8477	83.2789	68.8477	82.3382	68.8477	83.3651	68.8477	82.4385	68.8477	83.4224	68.8477	82.5478	68.8477	83.4498	68.8477	82.6662	68.8477	83.4475	68.8477	82.7922	68.8477	83.4165	68.8477	82.9222	68.8477	83.358	68.8477	83.0505	68.8477	83.2747	68.8477	83.1703
71.7773	82.2774	71.7773	82.2247	71.7773	82.3533	71.7773	82.1946	71.7773	82.4514	71.7773	82.1856	71.7773	82.5694	71.7773	82.1952	71.7773	82.7033	71.7773	82.2202	71.7773	82.8478	71.7773	82.2575	71.7773	82.9964	71.7773	82.3041	71.7773	83.1415	71.7773	82.3572	71.7773	83.2756	71.7773	82.4153	71.7773	83.3913	71.7773	82.4776	71.7773	83.4824	71.7773	82.5443	71.7773	83.5447	71.7773	82.617	71.7773	83.576	71.7773	82.6973	71.7773	83.5765	71.7773	82.7868	71.7773	83.5481	71.7773	82.8861	71.7773	83.494	71.7773	82.9939	71.7773	83.4179	71.7773	83.1064	71.7773	83.3244	71.7773	83.2187
74.707	82.5925	74.707	82.5445	74.707	82.6643	74.707	82.5194	74.707	82.7591	74.707	82.5153	74.707	82.8747	74.707	82.5291	74.707	83.0069	74.707	82.5571	74.707	83.15	74.707	82.5955	74.707	83.297	74.707	82.6407	74.707	83.44	74.707	82.6896	74.707	83.5706	74.707	82.7402	74.707	83.6811	74.707	82.7915	74.707	83.7649	74.707	82.8441	74.707	83.8174	74.707	82.8998	74.707	83.8365	74.707	82.9613	74.707	83.8229	74.707	83.0315	74.707	83.7796	74.707	83.1127	74.707	83.7111	74.707	83.2053	74.707	83.6234	74.707	83.3074	74.707	83.5225	74.707	83.415
77.6367	82.4834	77.6367	82.4297	77.6367	82.5606	77.6367	82.3992	77.6367	82.6602	77.6367	82.3902	77.6367	82.7792	77.6367	82.3996	77.6367	82.9132	77.6367	82.4239	77.6367	83.0561	77.6367	82.459	77.6367	83.2005	77.6367	82.5009	77.6367	83.3384	77.6367	82.5462	77.6367	83.4611	77.6367	82.5921	77.6367	83.5607	77.6367	82.6373	77.6367	83.6306	77.6367	82.6818	77.6367	83.6663	77.6367	82.7269	77.6367	83.6663	77.6367	82.7754	77.6367	83.6323	77.6367	82.8308	77.6367	83.5688	77.6367	82.8963	77.6367	83.4827	77.6367	82.9743	77.6367	83.3818	77.6367	83.0649	77.6367	83.2738	77.6367	83.1662
79.1016	82.4926	79.1016	82.4386	79.1016	82.5682	79.1016	82.4058	79.1016	82.664	79.1016	82.3929	79.1016	82.7772	79.1016	82.397	79.1016	82.9035	79.1016	82.4149	79.1016	83.0372	79.1016	82.4426	79.1016	83.1712	79.1016	82.4762	79.1016	83.2978	79.1016	82.5121	79.1016	83.4086	79.1016	82.5477	79.1016	83.496	79.1016	82.5813	79.1016	83.5532	79.1016	82.6128	79.1016	83.576	79.1016	82.6438	79.1016	83.5629	79.1016	82.6773	79.1016	83.5158	79.1016	82.7174	79.1016	83.4399	79.1016	82.7686	79.1016	83.3428	79.1016	82.8342	79.1016	83.2334	79.1016	82.916	79.1016	83.1207	79.1016	83.0128
82.0313	82.757	82.0313	82.7058	82.0313	82.8274	82.0313	82.6733	82.0313	82.9165	82.0313	82.6574	82.0313	83.0219	82.0313	82.6553	82.0313	83.1398	82.0313	82.6631	82.0313	83.2648	82.0313	82.6769	82.0313	83.3901	82.0313	82.6927	82.0313	83.5076	82.0313	82.7069	82.0313	83.6087	82.0313	82.717	82.0313	83.6846	82.0313	82.7219	82.0313	83.728	82.0313	82.7223	82.0313	83.7333	82.0313	82.7208	82.0313	83.6985	82.0313	82.7224	82.0313	83.6254	82.0313	82.7334	82.0313	83.5199	82.0313	82.761	82.0313	83.3917	82.0313	82.8113	82.0313	83.2526	82.0313	82.8879	82.0313	83.1152	82.0313	82.9908
84.9609	82.9405	84.9609	82.891	84.9609	83.0101	84.9609	82.8607	84.9609	83.0994	84.9609	82.8469	84.9609	83.2057	84.9609	82.8458	84.9609	83.3246	84.9609	82.853	84.9609	83.4501	84.9609	82.8635	84.9609	83.5745	84.9609	82.8728	84.9609	83.6889	84.9609	82.877	84.9609	83.7837	84.9609	82.8735	84.9609	83.85	84.9609	82.8614	84.9609	83.88	84.9609	82.8422	84.9609	83.8686	84.9609	82.8197	84.9609	83.8143	84.9609	82.8	84.9609	83.72	84.9609	82.7911	84.9609	83.5932	84.9609	82.8017	84.9609	83.4453	84.9609	82.8393	84.9609	83.2897	84.9609	82.9089	84.9609	83.1408	84.9609	83.0108
87.8906	82.6606	87.8906	82.5994	87.8906	82.7467	87.8906	82.5628	87.8906	82.8559	87.8906	82.5489	87.8906	82.9847	87.8906	82.5543	87.8906	83.1276	87.8906	82.5744	87.8906	83.2775	87.8906	82.6039	87.8906	83.4259	87.8906	82.6376	87.8906	83.5633	87.8906	82.6708	87.8906	83.6796	87.8906	82.6996	87.8906	83.7655	87.8906	82.7218	87.8906	83.813	87.8906	82.7372	87.8906	83.8168	87.8906	82.7478	87.8906	83.7756	87.8906	82.7578	87.8906	83.6927	87.8906	82.7733	87.8906	83.5762	87.8906	82.8018	87.8906	83.4377	87.8906	82.8504	87.8906	83.2909	87.8906	82.9241	87.8906	83.1495	87.8906	83.0248
90.8203	81.7412	90.8203	81.6981	90.8203	81.8249	90.8203	81.6947	90.8203	81.9488	90.8203	81.7284	90.8203	82.1103	90.8203	81.795	90.8203	82.3052	90.8203	81.8891	90.8203	82.5268	90.8203	82.0047	90.8203	82.7665	90.8203	82.135	90.8203	83.0137	90.8203	82.2737	90.8203	83.2558	90.8203	82.415	90.8203	83.4796	90.8203	82.5543	90.8203	83.6725	90.8203	82.6888	90.8203	83.8234	90.8203	82.8175	90.8203	83.9246	90.8203	82.9416	90.8203	83.9725	90.8203	83.0638	90.8203	83.9682	90.8203	83.1876	90.8203	83.9171	90.8203	83.3156	90.8203	83.8285	90.8203	83.4486	90.8203	83.7134	90.8203	83.5834
95.2148	83.5744	95.2148	83.5202	95.2148	83.6389	95.2148	83.476	95.2148	83.7129	95.2148	83.4398	95.2148	83.7937	95.2148	83.4084	95.2148	83.8776	95.2148	83.3777	95.2148	83.9589	95.2148	83.3428	95.2148	84.0312	95.2148	83.299	95.2148	84.0862	95.2148	83.2421	95.2148	84.1153	95.2148	83.1692	95.2148	84.1096	95.2148	83.0792	95.2148	84.0613	95.2148	82.9738	95.2148	83.9653	95.2148	82.8581	95.2148	83.8207	95.2148	82.7407	95.2148	83.6324	95.2148	82.6342	95.2148	83.4122	95.2148	82.5539	95.2148	83.1781	95.2148	82.516	95.2148	82.9526	95.2148	82.534	95.2148	82.7587	95.2148	82.6154
98.1445	82.7746	98.1445	82.711	98.1445	82.8565	98.1445	82.6662	98.1445	82.9548	98.1445	82.6395	98.1445	83.0662	98.1445	82.6285	98.1445	83.1864	98.1445	82.6294	98.1445	83.3099	98.1445	82.6373	98.1445	83.4296	98.1445	82.6468	98.1445	83.5371	98.1445	82.6525	98.1445	83.6232	98.1445	82.6499	98.1445	83.6778	98.1445	82.6359	98.1445	83.6923	98.1445	82.6097	98.1445	83.6599	98.1445	82.5737	98.1445	83.5785	98.1445	82.5332	98.1445	83.4514	98.1445	82.4971	98.1445	83.2883	98.1445	82.4768	98.1445	83.1048	98.1445	82.4843	98.1445	82.92	98.1445	82.5302	98.1445	82.7533	98.1445	82.6203
101.074	82.9966	101.074	82.939	101.074	83.0703	101.074	82.8978	101.074	83.1587	101.074	82.8719	101.074	83.2592	101.074	82.8586	101.074	83.3681	101.074	82.8544	101.074	83.4805	101.074	82.8546	101.074	83.59	101.074	82.8542	101.074	83.6886	101.074	82.8482	101.074	83.7672	101.074	82.8327	101.074	83.8161	101.074	82.8052	101.074	83.8263	101.074	82.7657	101.074	83.7907	101.074	82.7169	101.074	83.7067	101.074	82.665	101.074	83.5771	101.074	82.6193	101.074	83.4112	101.074	82.5918	101.074	83.2243	101.074	82.5948	101.074	83.0357	101.074	82.639	101.074	82.8654	101.074	82.7298
105.469	83.0164	105.469	82.956	105.469	83.0927	105.469	82.9128	105.469	83.1826	105.469	82.8864	105.469	83.2831	105.469	82.8752	105.469	83.3903	105.469	82.876	105.469	83.4992	105.469	82.8842	105.469	83.604	105.469	82.8945	105.469	83.6974	105.469	82.9015	105.469	83.771	105.469	82.9003	105.469	83.8158	105.469	82.8875	105.469	83.8233	105.469	82.8617	105.469	83.7874	105.469	82.8244	105.469	83.7056	105.469	82.7804	105.469	83.5814	105.469	82.7378	105.469	83.4243	105.469	82.7076	105.469	83.2498	105.469	82.7023	105.469	83.0767	105.469	82.733	105.469	82.9241	105.469	82.8069
108.398	83.1377	108.398	83.0677	108.398	83.2203	108.398	83.012	108.398	83.3127	108.398	82.9711	108.398	83.4117	108.398	82.9441	108.398	83.5132	108.398	82.9284	108.398	83.6128	108.398	82.9198	108.398	83.7047	108.398	82.9134	108.398	83.7822	108.398	82.9037	108.398	83.8375	108.398	82.8859	108.398	83.8619	108.398	82.8563	108.398	83.8475	108.398	82.8134	108.398	83.7884	108.398	82.7588	108.398	83.6826	108.398	82.6976	108.398	83.5342	108.398	82.6386	108.398	83.3535	108.398	82.594	108.398	83.1572	108.398	82.5776	108.398	82.966	108.398	82.6022	108.398	82.8002	108.398	82.6762
112.793	83.3818	112.793	83.3146	112.793	83.4596	112.793	83.2593	112.793	83.5462	112.793	83.2158	112.793	83.6388	112.793	83.1831	112.793	83.7344	112.793	83.1585	112.793	83.8286	112.793	83.1382	112.793	83.9162	112.793	83.1173	112.793	83.9902	112.793	83.0911	112.793	84.0422	112.793	83.0553	112.793	84.063	112.793	83.0068	112.793	84.0439	112.793	82.9453	112.793	83.9781	112.793	82.8732	112.793	83.8634	112.793	82.797	112.793	83.7034	112.793	82.7265	112.793	83.5087	112.793	82.6751	112.793	83.2966	112.793	82.6574	112.793	83.0887	112.793	82.6862	112.793	82.9071	112.793	82.7696
117.188	83.413	117.188	83.3549	117.188	83.4789	117.188	83.3058	117.188	83.5508	117.188	83.2663	117.188	83.6266	117.188	83.2357	117.188	83.704	117.188	83.2122	117.188	83.7795	117.188	83.1922	117.188	83.8486	117.188	83.1716	117.188	83.9053	117.188	83.1455	117.188	83.9416	117.188	83.1092	117.188	83.9487	117.188	83.0596	117.188	83.918	117.188	82.9951	117.188	83.8432	117.188	82.9175	117.188	83.7222	117.188	82.8319	117.188	83.5594	117.188	82.7476	117.188	83.3666	117.188	82.6772	117.188	83.162	117.188	82.6359	117.188	82.9681	117.188	82.6381	117.188	82.8066	117.188	82.6942
120.117	83.4183	120.117	83.3782	120.117	83.4681	120.117	83.3473	120.117	83.5275	120.117	83.3246	120.117	83.5956	120.117	83.3081	120.117	83.6709	120.117	83.2948	120.117	83.7505	120.117	83.2809	120.117	83.8297	120.117	83.2622	120.117	83.9018	120.117	83.2341	120.117	83.9576	120.117	83.193	120.117	83.9869	120.117	83.1365	120.117	83.9791	120.117	83.0644	120.117	83.9257	120.117	82.9794	120.117	83.8228	120.117	82.8883	120.117	83.6727	120.117	82.8012	120.117	83.4859	120.117	82.7321	120.117	83.2802	120.117	82.6965	120.117	83.0786	120.117	82.7088	120.117	82.9049	120.117	82.7782
124.512	83.0916	124.512	83.0333	124.512	83.1588	124.512	82.9847	124.512	83.2335	124.512	82.9452	124.512	83.3134	124.512	82.9127	124.512	83.396	124.512	82.8835	124.512	83.4778	124.512	82.8526	124.512	83.5544	124.512	82.8146	124.512	83.6195	124.512	82.764	124.512	83.6645	124.512	82.6966	124.512	83.6796	124.512	82.6105	124.512	83.6541	124.512	82.5068	124.512	83.5792	124.512	82.3909	124.512	83.4504	124.512	82.2723	124.512	83.2695	124.512	82.1652	124.512	83.0469	124.512	82.0864	124.512	82.8013	124.512	82.0539	124.512	82.5578	124.512	82.0825	124.512	82.3429	124.512	82.1798
128.906	82.7333	128.906	82.6645	128.906	82.812	128.906	82.6077	128.906	82.8973	128.906	82.5636	128.906	82.9852	128.906	82.5305	128.906	83.0714	128.906	82.5048	128.906	83.1514	128.906	82.4807	128.906	83.2197	128.906	82.4512	128.906	83.2694	128.906	82.4093	128.906	83.2923	128.906	82.3488	128.906	83.2793	128.906	82.2657	128.906	83.2213	128.906	82.1593	128.906	83.1115	128.906	82.0334	128.906	82.948	128.906	81.8968	128.906	82.7358	128.906	81.7635	128.906	82.4887	128.906	81.6518	128.906	82.2286	128.906	81.5824	128.906	81.9828	128.906	81.5741	128.906	81.779	128.906	81.6391
133.301	82.6099	133.301	82.5393	133.301	82.6923	133.301	82.4828	133.301	82.7835	133.301	82.4414	133.301	82.881	133.301	82.4147	133.301	82.9818	133.301	82.3997	133.301	83.0827	133.301	82.3916	133.301	83.179	133.301	82.384	133.301	83.2636	133.301	82.3698	133.301	83.3272	133.301	82.3427	133.301	83.3581	133.301	82.298	133.301	83.3446	133.301	82.2342	133.301	83.2774	133.301	82.1532	133.301	83.1523	133.301	82.0618	133.301	82.9731	133.301	81.9714	133.301	82.753	133.301	81.8975	133.301	82.5137	133.301	81.858	133.301	82.2825	133.301	81.8701	133.301	82.0861	133.301	81.9454
139.16	82.5806	139.16	82.5069	139.16	82.6598	139.16	82.4421	139.16	82.7416	139.16	82.3892	139.16	82.824	139.16	82.3498	139.16	82.9058	139.16	82.3235	139.16	82.9864	139.16	82.3075	139.16	83.0642	139.16	82.2971	139.16	83.1357	139.16	82.2864	139.16	83.1944	139.16	82.2695	139.16	83.231	139.16	82.2418	139.16	83.2344	139.16	82.201	139.16	83.1945	139.16	82.1483	139.16	83.1051	139.16	82.089	139.16	82.9672	139.16	82.032	139.16	82.7899	139.16	81.99	139.16	82.5908	139.16	81.977	139.16	82.3927	139.16	82.0064	139.16	82.2186	139.16	82.0867
143.555	82.5614	143.555	82.4774	143.555	82.6457	143.555	82.3976	143.555	82.7268	143.555	82.3257	143.555	82.8025	143.555	82.2641	143.555	82.8717	143.555	82.2131	143.555	82.9339	143.555	82.1705	143.555	82.9881	143.555	82.1322	143.555	83.0317	143.555	82.0927	143.555	83.0592	143.555	82.0464	143.555	83.0625	143.555	81.9892	143.555	83.0318	143.555	81.9198	143.555	82.9584	143.555	81.8401	143.555	82.8373	143.555	81.7566	143.555	82.6703	143.555	81.6794	143.555	82.4676	143.555	81.6222	143.555	82.2471	143.555	81.5997	143.555	82.0321	143.555	81.6253	143.555	81.8461	143.555	81.7073
147.949	82.5168	147.949	82.4199	147.949	82.6092	147.949	82.3232	147.949	82.6935	147.949	82.2313	147.949	82.7673	147.949	82.1479	147.949	82.83	147.949	82.0744	147.949	82.8816	147.949	82.01	147.949	82.9217	147.949	81.9515	147.949	82.9485	147.949	81.8942	147.949	82.9574	147.949	81.8329	147.949	82.941	147.949	81.764	147.949	82.8906	147.949	81.686	147.949	82.798	147.949	81.6011	147.949	82.6593	147.949	81.5154	147.949	82.4769	147.949	81.439	147.949	82.262	147.949	81.3845	147.949	82.0328	147.949	81.3659	147.949	81.8122	147.949	81.3953	147.949	81.6224	147.949	81.4807
153.809	82.5502	153.809	82.4508	153.809	82.6398	153.809	82.3464	153.809	82.7161	153.809	82.2417	153.809	82.7766	153.809	82.1407	153.809	82.8209	153.809	82.0455	153.809	82.8489	153.809	81.9557	153.809	82.8609	153.809	81.8686	153.809	82.8558	153.809	81.78	153.809	82.83	153.809	81.6852	153.809	82.7772	153.809	81.5804	153.809	82.6898	153.809	81.4647	153.809	82.5605	153.809	81.341	153.809	82.3859	153.809	81.2168	153.809	82.1693	153.809	81.104	153.809	81.9225	153.809	81.018	153.809	81.6652	153.809	80.9751	153.809	81.4221	153.809	80.9895	153.809	81.2175	153.809	81.0701
159.668	82.6339	159.668	82.5303	159.668	82.7264	159.668	82.4199	159.668	82.8046	159.668	82.307	159.668	82.8668	159.668	82.1956	159.668	82.9125	159.668	82.088	159.668	82.9415	159.668	81.9842	159.668	82.9533	159.668	81.8826	159.668	82.9451	159.668	81.78	159.668	82.9118	159.668	81.6728	159.668	82.8458	159.668	81.5586	159.668	82.7392	159.668	81.4375	159.668	82.5861	159.668	81.3124	159.668	82.3858	159.668	81.1905	159.668	82.1458	159.668	81.082	159.668	81.8817	159.668	80.9998	159.668	81.6161	159.668	80.9576	159.668	81.374	159.668	80.968	159.668	81.1773	159.668	81.0402
165.527	82.5876	165.527	82.5021	165.527	82.6614	165.527	82.4093	165.527	82.7209	165.527	82.3136	165.527	82.7656	165.527	82.219	165.527	82.7966	165.527	82.1276	165.527	82.8159	165.527	82.0392	165.527	82.8252	165.527	81.9512	165.527	82.8236	165.527	81.8596	165.527	82.8065	165.527	81.7603	165.527	82.7659	165.527	81.6506	165.527	82.6915	165.527	81.5308	165.527	82.5741	165.527	81.405	165.527	82.4095	165.527	81.2815	165.527	82.2014	165.527	81.1723	165.527	81.9626	165.527	81.0915	165.527	81.7144	165.527	81.0531	165.527	81.4814	165.527	81.069	165.527	81.2866	165.527	81.1466
171.387	82.544	171.387	82.4615	171.387	82.6114	171.387	82.3681	171.387	82.6615	171.387	82.2693	171.387	82.6945	171.387	82.1703	171.387	82.713	171.387	82.0749	171.387	82.7209	171.387	81.9845	171.387	82.7212	171.387	81.898	171.387	82.7146	171.387	81.8124	171.387	82.6978	171.387	81.724	171.387	82.6633	171.387	81.6303	171.387	82.6011	171.387	81.531	171.387	82.5018	171.387	81.4293	171.387	82.361	171.387	81.3321	171.387	82.1814	171.387	81.2489	171.387	81.9749	171.387	81.191	171.387	81.76	171.387	81.169	171.387	81.5583	171.387	81.1918	171.387	81.3889	171.387	81.2648
177.246	82.5495	177.246	82.464	177.246	82.6157	177.246	82.364	177.246	82.6603	177.246	82.2554	177.246	82.6838	177.246	82.1442	177.246	82.6891	177.246	82.0349	177.246	82.6805	177.246	81.9299	177.246	82.6618	177.246	81.8288	177.246	82.6348	177.246	81.7294	177.246	82.5971	177.246	81.6285	177.246	82.5427	177.246	81.5239	177.246	82.4629	177.246	81.4159	177.246	82.35	177.246	81.3082	177.246	82.2007	177.246	81.2081	177.246	82.0191	177.246	81.1252	177.246	81.8169	177.246	81.0698	177.246	81.6114	177.246	81.0509	177.246	81.4214	177.246	81.0751	177.246	81.2627	177.246	81.1457
183.105	82.5123	183.105	82.4201	183.105	82.5773	183.105	82.3053	183.105	82.6137	183.105	82.1748	183.105	82.6232	183.105	82.036	183.105	82.6108	183.105	81.8962	183.105	82.583	183.105	81.7604	183.105	82.5465	183.105	81.6313	183.105	82.5051	183.105	81.5093	183.105	82.4581	183.105	81.393	183.105	82.4001	183.105	81.2814	183.105	82.3222	183.105	81.175	183.105	82.2158	183.105	81.0773	183.105	82.0765	183.105	80.9947	183.105	81.9067	183.105	80.9351	183.105	81.7165	183.105	80.9065	183.105	81.5211	183.105	80.9146	183.105	81.3368	183.105	80.9626	183.105	81.177	183.105	81.0507
188.965	82.6727	188.965	82.5866	188.965	82.7277	188.965	82.4734	188.965	82.7501	188.965	82.3392	188.965	82.7422	188.965	82.1908	188.965	82.7091	188.965	82.0344	188.965	82.6581	188.965	81.8748	188.965	82.5967	188.965	81.7146	188.965	82.53	188.965	81.5551	188.965	82.4587	188.965	81.3968	188.965	82.3787	188.965	81.2414	188.965	82.2827	188.965	81.0935	188.965	82.1635	188.965	80.9611	188.965	82.0175	188.965	80.855	188.965	81.8475	188.965	80.7866	188.965	81.6616	188.965	80.7646	188.965	81.4713	188.965	80.7918	188.965	81.288	188.965	80.8651	188.965	81.1209	188.965	80.9774
196.289	82.9388	196.289	82.8764	196.289	82.966	196.289	82.7829	196.289	82.9577	196.289	82.6642	196.289	82.9171	196.289	82.527	196.289	82.8517	196.289	82.3771	196.289	82.7713	196.289	82.2189	196.289	82.6858	196.289	82.0544	196.289	82.6017	196.289	81.884	196.289	82.5197	196.289	81.7075	196.289	82.434	196.289	81.5263	196.289	82.3347	196.289	81.3445	196.289	82.2123	196.289	81.1713	196.289	82.0623	196.289	81.0203	196.289	81.8874	196.289	80.9076	196.289	81.6971	196.289	80.847	196.289	81.5034	196.289	80.8457	196.289	81.3175	196.289	80.902	196.289	81.1491	196.289	81.007
203.613	82.8922	203.613	82.8284	203.613	82.9138	203.613	82.7306	203.613	82.889	203.613	82.6091	203.613	82.8187	203.613	82.4748	203.613	82.7094	203.613	82.3368	203.613	82.5727	203.613	82.2009	203.613	82.4227	203.613	82.0689	203.613	82.2729	203.613	81.9392	203.613	82.1326	203.613	81.8085	203.613	82.004	203.613	81.6735	203.613	81.8834	203.613	81.534	203.613	81.7648	203.613	81.3943	203.613	81.6448	203.613	81.2636	203.613	81.5249	203.613	81.1544	203.613	81.4103	203.613	81.0784	203.613	81.3063	203.613	81.0422	203.613	81.2156	203.613	81.0453	203.613	81.1396	203.613	81.0807
210.938	83.041	210.938	82.9502	210.938	83.0832	210.938	82.8195	210.938	83.0721	210.938	82.6602	210.938	83.0079	210.938	82.4843	210.938	82.896	210.938	82.3028	210.938	82.7467	210.938	82.1238	210.938	82.5734	210.938	81.9518	210.938	82.3898	210.938	81.7877	210.938	82.2067	210.938	81.6301	210.938	82.0294	210.938	81.4772	210.938	81.8584	210.938	81.3294	210.938	81.6924	210.938	81.1911	210.938	81.5324	210.938	81.0707	210.938	81.384	210.938	80.9782	210.938	81.2548	210.938	80.9216	210.938	81.1496	210.938	80.9027	210.938	81.0674	210.938	80.916	210.938	81.003	210.938	80.952
218.262	83.2055	218.262	83.1112	218.262	83.2472	218.262	82.973	218.262	83.2319	218.262	82.8031	218.262	83.1608	218.262	82.6148	218.262	83.0406	218.262	82.4211	218.262	82.8832	218.262	82.2322	218.262	82.7031	218.262	82.0548	218.262	82.5146	218.262	81.8911	218.262	82.3277	218.262	81.7402	218.262	82.1468	218.262	81.5996	218.262	81.9707	218.262	81.4679	218.262	81.7978	218.262	81.3463	218.262	81.6305	218.262	81.2397	218.262	81.4771	218.262	81.1556	218.262	81.3482	218.262	81.1003	218.262	81.2502	218.262	81.0758	218.262	81.1811	218.262	81.0779	218.262	81.133	218.262	81.0989
225.586	83.4454	225.586	83.3583	225.586	83.4701	225.586	83.2172	225.586	83.4289	225.586	83.0342	225.586	83.3236	225.586	82.8234	225.586	83.1625	225.586	82.5991	225.586	82.9594	225.586	82.3739	225.586	82.7327	225.586	82.1576	225.586	82.5023	225.586	81.9563	225.586	82.286	225.586	81.7733	225.586	82.0955	225.586	81.6109	225.586	81.9354	225.586	81.472	225.586	81.8047	225.586	81.362	225.586	81.7009	225.586	81.2875	225.586	81.6224	225.586	81.254	225.586	81.5674	225.586	81.2615	225.586	81.5303	225.586	81.3018	225.586	81.5006	225.586	81.3598	225.586	81.466	225.586	81.4184
232.91	83.8289	232.91	83.7565	232.91	83.8344	232.91	83.6259	232.91	83.7691	232.91	83.449	232.91	83.6341	232.91	83.2391	232.91	83.4366	232.91	83.0091	232.91	83.1892	232.91	82.7697	232.91	82.909	232.91	82.5284	232.91	82.6154	232.91	82.2896	232.91	82.3274	232.91	82.056	232.91	82.0605	232.91	81.831	232.91	81.8262	232.91	81.6213	232.91	81.632	232.91	81.4379	232.91	81.4832	232.91	81.2946	232.91	81.3827	232.91	81.2035	232.91	81.3277	232.91	81.1685	232.91	81.307	232.91	81.1805	232.91	81.301	232.91	81.2194	232.91	81.2897	232.91	81.2615
241.699	83.9872	241.699	83.9114	241.699	83.9936	241.699	83.7748	241.699	83.9271	241.699	83.5896	241.699	83.7895	241.699	83.3705	241.699	83.5882	241.699	83.1324	241.699	83.336	241.699	82.8884	241.699	83.0491	241.699	82.6481	241.699	82.7458	241.699	82.4169	241.699	82.4433	241.699	82.1963	241.699	82.1575	241.699	81.9866	241.699	81.9022	241.699	81.7907	241.699	81.6903	241.699	81.6163	241.699	81.5338	241.699	81.4764	241.699	81.4397	241.699	81.3845	241.699	81.4043	241.699	81.3469	241.699	81.4104	241.699	81.3563	241.699	81.4312	241.699	81.3916	241.699	81.441	241.699	81.4265
250.488	84.3167	250.488	84.2552	250.488	84.3033	250.488	84.1267	250.488	84.2118	250.488	83.9428	250.488	84.0447	250.488	83.717	250.488	83.8106	250.488	83.4636	250.488	83.5242	250.488	83.1959	250.488	83.2045	250.488	82.9251	250.488	82.872	250.488	82.6595	250.488	82.5453	250.488	82.4046	250.488	82.238	250.488	82.1647	250.488	81.9601	250.488	81.9446	250.488	81.7215	250.488	81.7516	250.488	81.5352	250.488	81.5956	250.488	81.4141	250.488	81.4865	250.488	81.3621	250.488	81.4283	250.488	81.3659	250.488	81.4139	250.488	81.3972	250.488	81.4239	250.488	81.4257	250.488	81.434
259.277	84.5689	259.277	84.5362	259.277	84.5284	259.277	84.437	259.277	84.4126	259.277	84.2816	259.277	84.2247	259.277	84.0832	259.277	83.9726	259.277	83.8556	259.277	83.6693	259.277	83.6111	259.277	83.3322	259.277	83.3591	259.277	82.9822	259.277	83.1046	259.277	82.6423	259.277	82.8495	259.277	82.3344	259.277	82.5949	259.277	82.0772	259.277	82.3452	259.277	81.8832	259.277	82.1118	259.277	81.7581	259.277	81.9138	259.277	81.6994	259.277	81.772	259.277	81.6946	259.277	81.6991	259.277	81.722	259.277	81.6893	259.277	81.7544	259.277	81.7181	259.277	81.7681	259.277	81.7531
268.066	84.3593	268.066	84.3529	268.066	84.2889	268.066	84.2752	268.066	84.1415	268.066	84.1358	268.066	83.922	268.066	83.948	268.066	83.6405	268.066	83.726	268.066	83.3116	268.066	83.4839	268.066	82.9539	268.066	83.2332	268.066	82.5883	268.066	82.982	268.066	82.2371	268.066	82.7346	268.066	81.9219	268.066	82.4936	268.066	81.6628	268.066	82.2624	268.066	81.477	268.066	82.0492	268.066	81.3764	268.066	81.868	268.066	81.3621	268.066	81.7355	268.066	81.4182	268.066	81.6634	268.066	81.5124	268.066	81.6473	268.066	81.6051	268.066	81.6644	268.066	81.6648	268.066	81.6804
276.855	84.5449	276.855	84.6069	276.855	84.4038	276.855	84.5904	276.855	84.1887	276.855	84.5011	276.855	83.9103	276.855	84.3477	276.855	83.583	276.855	84.1406	276.855	83.222	276.855	83.8898	276.855	82.841	276.855	83.6048	276.855	82.4521	276.855	83.2943	276.855	82.0675	276.855	82.9676	276.855	81.7041	276.855	82.6364	276.855	81.3861	276.855	82.3166	276.855	81.1434	276.855	82.0285	276.855	81.0029	276.855	81.7936	276.855	80.9743	276.855	81.6283	276.855	81.0411	276.855	81.5347	276.855	81.1641	276.855	81.4967	276.855	81.2961	276.855	81.4834	276.855	81.4001	276.855	81.46
287.109	84.4597	287.109	84.5564	287.109	84.2776	287.109	84.5697	287.109	84.016	287.109	84.5076	287.109	83.6898	287.109	84.3808	287.109	83.3213	287.109	84.2003	287.109	82.9349	287.109	83.976	287.109	82.5507	287.109	83.7153	287.109	82.1797	287.109	83.4236	287.109	81.8253	287.109	83.1048	287.109	81.4926	287.109	82.7637	287.109	81.1979	287.109	82.4086	287.109	80.9713	287.109	82.0556	287.109	80.8459	287.109	81.731	287.109	80.8353	287.109	81.4683	287.109	80.9178	287.109	81.2956	287.109	81.0427	287.109	81.2185	287.109	81.1544	287.109	81.2115	287.109	81.2172	287.109	81.227
297.363	84.2975	297.363	84.4026	297.363	84.0847	297.363	84.4136	297.363	83.7595	297.363	84.3483	297.363	83.3308	297.363	84.2257	297.363	82.8265	297.363	84.0626	297.363	82.296	297.363	83.8708	297.363	81.8024	297.363	83.6552	297.363	81.4027	297.363	83.4141	297.363	81.1218	297.363	83.1411	297.363	80.9457	297.363	82.8311	297.363	80.8423	297.363	82.4873	297.363	80.7909	297.363	82.129	297.363	80.7954	297.363	81.7954	297.363	80.8702	297.363	81.5369	297.363	81.0125	297.363	81.3923	297.363	81.1879	297.363	81.3619	297.363	81.3429	297.363	81.4013	297.363	81.4327	297.363	81.4438
307.617	84.4849	307.617	84.5536	307.617	84.3272	307.617	84.5442	307.617	84.0726	307.617	84.4697	307.617	83.7179	307.617	84.3439	307.617	83.2672	307.617	84.1798	307.617	82.7358	307.617	83.9886	307.617	82.1556	307.617	83.7793	307.617	81.577	307.617	83.5575	307.617	81.0611	307.617	83.3251	307.617	80.6624	307.617	83.0792	307.617	80.4082	307.617	82.8134	307.617	80.2958	307.617	82.5228	307.617	80.3055	307.617	82.2124	307.617	80.4129	307.617	81.9036	307.617	80.5877	307.617	81.6316	307.617	80.789	307.617	81.4279	307.617	80.9729	307.617	81.2968	307.617	81.1112	307.617	81.2073
319.336	84.2623	319.336	84.3597	319.336	84.0608	319.336	84.3624	319.336	83.752	319.336	84.2848	319.336	83.3387	319.336	84.1443	319.336	82.8295	319.336	83.958	319.336	82.2396	319.336	83.7391	319.336	81.5946	319.336	83.4955	319.336	80.9372	319.336	83.2295	319.336	80.3321	319.336	82.9409	319.336	79.8591	319.336	82.6316	319.336	79.5876	319.336	82.3099	319.336	79.5441	319.336	81.9928	319.336	79.7001	319.336	81.7061	319.336	79.989	319.336	81.4777	319.336	80.3336	319.336	81.327	319.336	80.6639	319.336	81.2512	319.336	80.9284	319.336	81.2211	319.336	81.1013	319.336	81.1878
329.59	84.2362	329.59	84.293	329.59	84.0842	329.59	84.2644	329.59	83.8335	329.59	84.1656	329.59	83.4871	329.59	84.0147	329.59	83.0523	329.59	83.8292	329.59	82.5393	329.59	83.6233	329.59	81.9599	329.59	83.4055	329.59	81.3307	329.59	83.1775	329.59	80.6806	329.59	82.935	329.59	80.0625	329.59	82.6702	329.59	79.5589	329.59	82.3771	329.59	79.2646	329.59	82.0583	329.59	79.2378	329.59	81.7309	329.59	79.4531	329.59	81.4279	329.59	79.8105	329.59	81.1863	329.59	80.1917	329.59	81.0262	329.59	80.5097	329.59	80.9315	329.59	80.7267	329.59	80.8522
341.309	83.6045	341.309	83.6873	341.309	83.4294	341.309	83.6846	341.309	83.1646	341.309	83.6114	341.309	82.8218	341.309	83.4873	341.309	82.4186	341.309	83.3312	341.309	81.9741	341.309	83.1568	341.309	81.5053	341.309	82.9694	341.309	81.0262	341.309	82.7676	341.309	80.5519	341.309	82.5463	341.309	80.1078	341.309	82.3034	341.309	79.7392	341.309	82.0438	341.309	79.5114	341.309	81.7827	341.309	79.4859	341.309	81.5454	341.309	79.6748	341.309	81.3599	341.309	80.0173	341.309	81.2442	341.309	80.4082	341.309	81.192	341.309	80.7506	341.309	81.168	341.309	80.9895	341.309	81.1182
353.027	83.7312	353.027	83.8085	353.027	83.5376	353.027	83.7786	353.027	83.228	353.027	83.6586	353.027	82.8124	353.027	83.471	353.027	82.3087	353.027	83.2396	353.027	81.7406	353.027	82.9848	353.027	81.1354	353.027	82.7196	353.027	80.5229	353.027	82.4473	353.027	79.9357	353.027	82.1639	353.027	79.4132	353.027	81.8617	353.027	79.0057	353.027	81.5383	353.027	78.7743	353.027	81.2053	353.027	78.7718	353.027	80.8949	353.027	79.0025	353.027	80.6547	353.027	79.3975	353.027	80.5247	353.027	79.8389	353.027	80.5048	353.027	80.2143	353.027	80.5417	353.027	80.4555	353.027	80.551
366.211	83.963	366.211	84.0499	366.211	83.7536	366.211	84.021	366.211	83.4242	366.211	83.8908	366.211	82.9861	366.211	83.6794	366.211	82.459	366.211	83.4102	366.211	81.867	366.211	83.1072	366.211	81.2353	366.211	82.7913	366.211	80.5863	366.211	82.4746	366.211	79.94	366.211	82.1569	366.211	79.3203	366.211	81.8247	366.211	78.7677	366.211	81.4585	366.211	78.3518	366.211	81.0482	366.211	78.1606	366.211	80.611	366.211	78.2463	366.211	80.202	366.211	78.5641	366.211	79.8977	366.211	78.9823	366.211	79.7446	366.211	79.3575	366.211	79.7112	366.211	79.6005	366.211	79.6986
379.395	83.9056	379.395	83.9468	379.395	83.7645	379.395	83.9015	379.395	83.5185	379.395	83.7893	379.395	83.1706	379.395	83.631	379.395	82.7295	379.395	83.4424	379.395	82.2073	379.395	83.2296	379.395	81.617	379.395	82.9904	379.395	80.9735	379.395	82.7187	379.395	80.2988	379.395	82.4116	379.395	79.6317	379.395	82.0712	379.395	79.0393	379.395	81.7036	379.395	78.6158	379.395	81.3161	379.395	78.4483	379.395	80.9204	379.395	78.5553	379.395	80.5412	379.395	78.8559	379.395	80.2197	379.395	79.2153	379.395	79.9963	379.395	79.5181	379.395	79.8756	379.395	79.7105	379.395	79.8075
392.578	83.3088	392.578	83.346	392.578	83.1724	392.578	83.2759	392.578	82.9603	392.578	83.1109	392.578	82.6999	392.578	82.8816	392.578	82.407	392.578	82.6285	392.578	82.0764	392.578	82.3888	392.578	81.686	392.578	82.181	392.578	81.2122	392.578	81.9984	392.578	80.6467	392.578	81.8157	392.578	80.0104	392.578	81.6041	392.578	79.3631	392.578	81.3482	392.578	78.8127	392.578	81.0551	392.578	78.5003	392.578	80.7556	392.578	78.5277	392.578	80.4959	392.578	78.8604	392.578	80.319	392.578	79.3333	392.578	80.2386	392.578	79.7667	392.578	80.2206	392.578	80.056	392.578	80.1887
405.762	83.5833	405.762	83.7437	405.762	83.2667	405.762	83.7508	405.762	82.8146	405.762	83.6212	405.762	82.2798	405.762	83.3788	405.762	81.7444	405.762	83.0495	405.762	81.2916	405.762	82.6597	405.762	80.9558	405.762	82.2347	405.762	80.6969	405.762	81.7973	405.762	80.4311	405.762	81.3652	405.762	80.0901	405.762	80.9478	405.762	79.666	405.762	80.5474	405.762	79.2298	405.762	80.1698	405.762	78.9182	405.762	79.84	405.762	78.8586	405.762	79.6085	405.762	79.0612	405.762	79.5268	405.762	79.3997	405.762	79.5981	405.762	79.7094	405.762	79.7526	405.762	79.8789	405.762	79.8787
420.41	83.7928	420.41	83.8708	420.41	83.5925	420.41	83.8389	420.41	83.2713	420.41	83.7204	420.41	82.8447	420.41	83.5428	420.41	82.3384	420.41	83.3297	420.41	81.7808	420.41	83.0926	420.41	81.1951	420.41	82.8274	420.41	80.5943	420.41	82.5156	420.41	79.9852	420.41	82.1317	420.41	79.381	420.41	81.6535	420.41	78.8216	420.41	81.0732	420.41	78.3915	420.41	80.4125	420.41	78.205	420.41	79.7402	420.41	78.3283	420.41	79.1811	420.41	78.6941	420.41	78.879	420.41	79.1244	420.41	78.8952	420.41	79.44	420.41	79.1345	420.41	79.5364	420.41	79.4052
435.059	83.4896	435.059	83.5647	435.059	83.2677	435.059	83.4999	435.059	82.9177	435.059	83.3244	435.059	82.4819	435.059	83.0826	435.059	82.016	435.059	82.8218	435.059	81.5698	435.059	82.5781	435.059	81.1666	435.059	82.3653	435.059	80.7943	435.059	82.1715	435.059	80.4141	435.059	81.9652	435.059	79.9865	435.059	81.7066	435.059	79.5032	435.059	81.3581	435.059	79.0216	435.059	80.8985	435.059	78.6772	435.059	80.3437	435.059	78.6177	435.059	79.7733	435.059	78.8592	435.059	79.3362	435.059	79.2385	435.059	79.1751	435.059	79.5413	435.059	79.2897	435.059	79.6344	435.059	79.511
451.172	83.7394	451.172	83.7314	451.172	83.5775	451.172	83.5669	451.172	83.2619	451.172	83.2832	451.172	82.8392	451.172	82.9345	451.172	82.3747	451.172	82.58	451.172	81.9231	451.172	82.2677	451.172	81.4957	451.172	82.0172	451.172	81.0543	451.172	81.8093	451.172	80.5415	451.172	81.5897	451.172	79.9242	451.172	81.2847	451.172	79.2351	451.172	80.8242	451.172	78.6084	451.172	80.1714	451.172	78.2673	451.172	79.3691	451.172	78.3713	451.172	78.6005	451.172	78.8224	451.172	78.1751	451.172	79.3339	451.172	78.2906	451.172	79.6526	451.172	78.789	451.172	79.6529	451.172	79.3281
465.82	83.4787	465.82	83.4775	465.82	83.2881	465.82	83.3047	465.82	82.9232	465.82	83.007	465.82	82.4494	465.82	82.65	465.82	81.9738	465.82	82.3077	465.82	81.5976	465.82	82.0435	465.82	81.3413	465.82	81.8848	465.82	81.1195	465.82	81.8071	465.82	80.7965	465.82	81.7401	465.82	80.2588	465.82	81.59	465.82	79.4626	465.82	81.2605	465.82	78.4899	465.82	80.6675	465.82	77.6337	465.82	79.7639	465.82	77.3346	465.82	78.606	465.82	77.7078	465.82	77.4934	465.82	78.3299	465.82	76.9972	465.82	78.7247	465.82	77.372	465.82	78.6565	465.82	78.1198
483.398	83.7967	483.398	83.7964	483.398	83.5247	483.398	83.5506	483.398	82.9814	483.398	83.1045	483.398	82.2235	483.398	82.5251	483.398	81.4093	483.398	81.9092	483.398	80.8104	483.398	81.385	483.398	80.6536	483.398	81.0813	483.398	80.8701	483.398	81.0576	483.398	81.1424	483.398	81.2474	483.398	81.1622	483.398	81.4832	483.398	80.737	483.398	81.5699	483.398	79.7829	483.398	81.3328	483.398	78.3766	483.398	80.629	483.398	76.9719	483.398	79.359	483.398	76.4045	483.398	77.5607	483.398	76.7654	483.398	75.7675	483.398	77.1527	483.398	75.2259	483.398	76.9315	483.398	76.0566
499.512	84.457	499.512	84.4626	499.512	84.2007	499.512	84.2478	499.512	83.6637	499.512	83.8411	499.512	82.827	499.512	83.2724	499.512	81.7184	499.512	82.577	499.512	80.5049	499.512	81.803	499.512	79.6102	499.512	81.0218	499.512	79.5136	499.512	80.3396	499.512	80.1113	499.512	79.8887	499.512	80.8037	499.512	79.7615	499.512	81.1157	499.512	79.9051	499.512	80.81	499.512	80.1049	499.512	79.7744	499.512	80.0882	499.512	77.9926	499.512	79.6203	499.512	75.6789	499.512	78.5338	499.512	73.5351	499.512	76.7608	499.512	72.3262	499.512	74.5048	499.512	71.9654	499.512	72.5988
517.09	83.8153	517.09	83.8344	517.09	83.6099	517.09	83.6829	517.09	83.2041	517.09	83.3792	517.09	82.5816	517.09	82.9466	517.09	81.7181	517.09	82.4192	517.09	80.5896	517.09	81.8498	517.09	79.2286	517.09	81.3115	517.09	77.8882	517.09	80.8752	517.09	77.1928	517.09	80.5686	517.09	77.5685	517.09	80.3577	517.09	78.4906	517.09	80.1788	517.09	79.2332	517.09	79.985	517.09	79.4701	517.09	79.753	517.09	79.158	517.09	79.4502	517.09	78.4126	517.09	79.016	517.09	77.4898	517.09	78.3994	517.09	76.7584	517.09	77.6369	517.09	76.5465	517.09	76.9166
536.133	83.9279	536.133	83.8179	536.133	83.8085	536.133	83.522	536.133	83.4308	536.133	83.086	536.133	82.7948	536.133	82.5475	536.133	81.9411	536.133	81.9313	536.133	80.9593	536.133	81.2589	536.133	79.9769	536.133	80.5731	536.133	79.1226	536.133	79.9641	536.133	78.4934	536.133	79.5599	536.133	78.1583	536.133	79.4421	536.133	78.1605	536.133	79.5528	536.133	78.4679	536.133	79.7238	536.133	78.9475	536.133	79.7967	536.133	79.4279	536.133	79.704	536.133	79.7747	536.133	79.4878	536.133	79.9177	536.133	79.2784	536.133	79.8497	536.133	79.2219	536.133	79.6266	536.133	79.3675
555.176	84.0966	555.176	84.0198	555.176	83.9985	555.176	83.8016	555.176	83.6941	555.176	83.4755	555.176	83.1553	555.176	83.0683	555.176	82.3629	555.176	82.5943	555.176	81.3258	555.176	82.0561	555.176	80.122	555.176	81.4608	555.176	78.9545	555.176	80.8474	555.176	78.1281	555.176	80.2981	555.176	77.8206	555.176	79.8978	555.176	77.8954	555.176	79.6501	555.176	78.0998	555.176	79.4527	555.176	78.3076	555.176	79.1801	555.176	78.5153	555.176	78.7862	555.176	78.7189	555.176	78.3483	555.176	78.8437	555.176	78.0363	555.176	78.7957	555.176	77.9981	555.176	78.5559	555.176	78.2263
574.219	84.1453	574.219	83.9729	574.219	84.1247	574.219	83.6523	574.219	83.8794	574.219	83.2352	574.219	83.3919	574.219	82.7702	574.219	82.658	574.219	82.2896	574.219	81.6854	574.219	81.801	574.219	80.5027	574.219	81.2958	574.219	79.1978	574.219	80.7766	574.219	77.9968	574.219	80.2868	574.219	77.2701	574.219	79.9026	574.219	77.2301	574.219	79.6632	574.219	77.6441	574.219	79.5012	574.219	78.1383	574.219	79.2771	574.219	78.5308	574.219	78.8917	574.219	78.8006	574.219	78.3827	574.219	78.9361	574.219	77.9554	574.219	78.8754	574.219	77.8675	574.219	78.5818	574.219	78.1576
594.727	83.8827	594.727	83.743	594.727	83.8237	594.727	83.4308	594.727	83.5692	594.727	82.9934	594.727	83.1458	594.727	82.4853	594.727	82.5795	594.727	81.955	594.727	81.865	594.727	81.4396	594.727	80.9546	594.727	80.9674	594.727	79.7924	594.727	80.5648	594.727	78.4074	594.727	80.2543	594.727	77.0815	594.727	80.0355	594.727	76.4139	594.727	79.8651	594.727	76.7227	594.727	79.6701	594.727	77.5398	594.727	79.3955	594.727	78.3038	594.727	79.0426	594.727	78.7846	594.727	78.6708	594.727	78.9535	594.727	78.3729	594.727	78.8577	594.727	78.2458	594.727	78.5996	594.727	78.3417
615.234	84.4827	615.234	84.2697	615.234	84.4682	615.234	83.8837	615.234	84.1961	615.234	83.3892	615.234	83.6729	615.234	82.845	615.234	82.9467	615.234	82.2933	615.234	82.0996	615.234	81.7552	615.234	81.2153	615.234	81.2403	615.234	80.3355	615.234	80.7665	615.234	79.4489	615.234	80.3753	615.234	78.5475	615.234	80.1105	615.234	77.7176	615.234	79.9555	615.234	77.1844	615.234	79.8005	615.234	77.1831	615.234	79.5011	615.234	77.6828	615.234	78.9841	615.234	78.36	615.234	78.3387	615.234	78.864	615.234	77.8459	615.234	78.9929	615.234	77.8108	615.234	78.7237	615.234	78.2174
637.207	84.8757	637.207	84.5892	637.207	84.8603	637.207	84.058	637.207	84.5126	637.207	83.3557	637.207	83.8383	637.207	82.5629	637.207	82.8917	637.207	81.7616	637.207	81.793	637.207	81.0301	637.207	80.7277	637.207	80.4339	637.207	79.8683	637.207	80.0146	637.207	79.2352	637.207	79.7803	637.207	78.6842	637.207	79.6915	637.207	78.0773	637.207	79.6537	637.207	77.4709	637.207	79.5428	637.207	77.1899	637.207	79.2622	637.207	77.5499	637.207	78.8065	637.207	78.353	637.207	78.3137	637.207	79.0774	637.207	78.0519	637.207	79.3849	637.207	78.2248	637.207	79.2169	637.207	78.7263
659.18	85.1868	659.18	84.9132	659.18	85.2319	659.18	84.4669	659.18	85.0096	659.18	83.9015	659.18	84.5066	659.18	83.251	659.18	83.7354	659.18	82.5254	659.18	82.7346	659.18	81.7211	659.18	81.5731	659.18	80.8398	659.18	80.3544	659.18	79.9258	659.18	79.215	659.18	79.1236	659.18	78.317	659.18	78.6778	659.18	77.786	659.18	78.7135	659.18	77.5916	659.18	78.9949	659.18	77.5774	659.18	79.1053	659.18	77.6758	659.18	78.759	659.18	77.9388	659.18	77.9312	659.18	78.2682	659.18	76.9774	659.18	78.3502	659.18	76.6318	659.18	77.9488	659.18	77.1741
682.617	85.0852	682.617	84.7907	682.617	85.1131	682.617	84.2894	682.617	84.8358	682.617	83.6448	682.617	84.2554	682.617	82.9145	682.617	83.4227	682.617	82.1482	682.617	82.4286	682.617	81.3844	682.617	81.3814	682.617	80.6473	682.617	80.3766	682.617	79.9552	682.617	79.4625	682.617	79.3369	682.617	78.628	682.617	78.8445	682.617	77.8561	682.617	78.5339	682.617	77.2328	682.617	78.4039	682.617	76.9856	682.617	78.3481	682.617	77.2733	682.617	78.2024	682.617	77.9013	682.617	77.873	682.617	78.4492	682.617	77.4706	682.617	78.5959	682.617	77.3345	682.617	78.2675	682.617	77.6919
707.52	85.5852	707.52	85.2266	707.52	85.6326	707.52	84.6167	707.52	85.3345	707.52	83.8249	707.52	84.6945	707.52	82.9272	707.52	83.7586	707.52	82.0116	707.52	82.6093	707.52	81.168	707.52	81.3621	707.52	80.4472	707.52	80.1776	707.52	79.8346	707.52	79.254	707.52	79.2893	707.52	78.7043	707.52	78.8099	707.52	78.3969	707.52	78.4438	707.52	78.0662	707.52	78.211	707.52	77.6669	707.52	78.0273	707.52	77.6033	707.52	77.7448	707.52	78.2148	707.52	77.3124	707.52	79.0258	707.52	76.9751	707.52	79.368	707.52	77.2198	707.52	78.9995	707.52	78.0974
732.422	85.2326	732.422	84.6758	732.422	85.5109	732.422	83.9139	732.422	85.4581	732.422	83.0197	732.422	85.0542	732.422	82.0603	732.422	84.3115	732.422	81.1202	732.422	83.2807	732.422	80.3048	732.422	82.0675	732.422	79.6707	732.422	80.8291	732.422	79.1536	732.422	79.7109	732.422	78.6376	732.422	78.7847	732.422	78.1338	732.422	78.0823	732.422	77.8526	732.422	77.6197	732.422	77.9158	732.422	77.3744	732.422	78.0132	732.422	77.4063	732.422	77.6519	732.422	77.871	732.422	76.5769	732.422	78.5599	732.422	75.2068	732.422	78.8622	732.422	75.1589	732.422	78.2945	732.422	76.7875
757.324	84.8913	757.324	84.4579	757.324	85.0988	757.324	83.8498	757.324	85.0193	757.324	83.0752	757.324	84.6283	757.324	82.1288	757.324	83.9357	757.324	81.0446	757.324	82.951	757.324	79.9085	757.324	81.6988	757.324	78.8254	757.324	80.3397	757.324	77.8865	757.324	79.2632	757.324	77.1616	757.324	78.7474	757.324	76.6933	757.324	78.49	757.324	76.51	757.324	78.0029	757.324	76.6497	757.324	77.2302	757.324	77.0258	757.324	76.7365	757.324	77.2983	757.324	77.0176	757.324	77.072	757.324	77.5272	757.324	76.1984	757.324	77.4567	757.324	75.1837	757.324	76.5354	757.324	75.3142
785.156	84.9539	785.156	84.5226	785.156	85.0585	785.156	83.7443	785.156	84.8709	785.156	82.6553	785.156	84.4268	785.156	81.4045	785.156	83.7686	785.156	80.2697	785.156	82.9398	785.156	79.5431	785.156	81.9617	785.156	79.2761	785.156	80.8355	785.156	79.1794	785.156	79.626	785.156	78.8784	785.156	78.5649	785.156	78.2143	785.156	77.9235	785.156	77.3968	785.156	77.6257	785.156	76.9091	785.156	77.3201	785.156	76.9017	785.156	76.9439	785.156	76.8837	785.156	76.8685	785.156	76.2887	785.156	77.1639	785.156	74.938	785.156	77.1637	785.156	73.7328	785.156	76.2382	785.156	74.5235
811.523	85.294	811.523	84.6679	811.523	85.5539	811.523	83.7575	811.523	85.3856	811.523	82.6563	811.523	84.7902	811.523	81.4772	811.523	83.8749	811.523	80.3141	811.523	82.8249	811.523	79.1857	811.523	81.7714	811.523	78.1364	811.523	80.7168	811.523	77.4159	811.523	79.6697	811.523	77.2008	811.523	78.7752	811.523	77.1281	811.523	78.1627	811.523	76.7327	811.523	77.7512	811.523	76.15	811.523	77.4859	811.523	76.1621	811.523	77.5604	811.523	76.911	811.523	77.987	811.523	77.4754	811.523	78.2766	811.523	77.2253	811.523	77.9114	811.523	76.3197	811.523	76.8367	811.523	75.9238
840.82	85.0289	840.82	84.2861	840.82	85.4403	840.82	83.3716	840.82	85.437	840.82	82.4833	840.82	85.0106	840.82	81.7545	840.82	84.2118	840.82	81.1606	840.82	83.1343	840.82	80.5831	840.82	81.9123	840.82	79.9619	840.82	80.7367	840.82	79.3105	840.82	79.8262	840.82	78.5942	840.82	79.2454	840.82	77.7157	840.82	78.7336	840.82	76.6807	840.82	77.8851	840.82	75.7396	840.82	76.6002	840.82	75.2443	840.82	75.7167	840.82	75.2184	840.82	76.3375	840.82	75.2782	840.82	77.3872	840.82	75.0658	840.82	77.52	840.82	74.7524	840.82	76.5449	840.82	75.215
870.117	84.8913	870.117	84.0989	870.117	85.3661	870.117	83.1322	870.117	85.4378	870.117	82.1745	870.117	85.1007	870.117	81.411	870.117	84.4281	870.117	80.9303	870.117	83.5109	870.117	80.6555	870.117	82.3723	870.117	80.4175	870.117	80.9964	870.117	80.0672	870.117	79.5463	870.117	79.4835	870.117	78.537	870.117	78.527	870.117	78.2668	870.117	77.1415	870.117	78.1414	870.117	75.7622	870.117	77.4875	870.117	75.3671	870.117	76.5068	870.117	75.788	870.117	76.4399	870.117	75.8383	870.117	77.3555	870.117	75.1073	870.117	77.8003	870.117	74.5014	870.117	77.084	870.117	75.488
900.879	85.0267	900.879	83.9753	900.879	85.6648	900.879	82.7825	900.879	85.7683	900.879	81.807	900.879	85.3303	900.879	81.1964	900.879	84.448	900.879	80.7308	900.879	83.3174	900.879	80.1346	900.879	82.1459	900.879	79.4045	900.879	81.0094	900.879	78.8796	900.879	79.9106	900.879	78.8616	900.879	79.04	900.879	79.0322	900.879	78.634	900.879	78.7159	900.879	78.4084	900.879	77.4359	900.879	77.8677	900.879	75.29	900.879	77.1828	900.879	73.9369	900.879	77.2426	900.879	74.568	900.879	77.7958	900.879	74.8957	900.879	77.4478	900.879	73.869	900.879	75.5573	900.879	73.3867
933.105	85.1563	933.105	83.9936	933.105	85.9056	933.105	82.8795	933.105	86.0202	933.105	82.2192	933.105	85.5193	933.105	81.9188	933.105	84.5896	933.105	81.5429	933.105	83.4481	933.105	80.7532	933.105	82.1735	933.105	79.5502	933.105	80.7427	933.105	78.5185	933.105	79.36	933.105	78.4319	933.105	78.6756	933.105	78.8464	933.105	78.9268	933.105	78.7241	933.105	79.2323	933.105	77.6177	933.105	78.7267	933.105	75.9426	933.105	77.4808	933.105	75.2909	933.105	77.2703	933.105	75.9261	933.105	78.5473	933.105	76.0723	933.105	78.9651	933.105	75.2763	933.105	77.6199	933.105	75.4911
965.332	84.6728	965.332	83.6288	965.332	85.6739	965.332	83.0326	965.332	86.0991	965.332	82.7912	965.332	85.7481	965.332	82.5482	965.332	84.7494	965.332	82.1445	965.332	83.5135	965.332	81.5366	965.332	82.4347	965.332	80.6173	965.332	81.3429	965.332	79.266	965.332	79.7456	965.332	77.6527	965.332	77.7849	965.332	76.5916	965.332	76.8265	965.332	76.6025	965.332	77.1192	965.332	76.6164	965.332	77.128	965.332	75.5746	965.332	76.6822	965.332	74.0015	965.332	77.0529	965.332	74.5002	965.332	77.9953	965.332	75.9618	965.332	77.8483	965.332	76.041	965.332	76.2995	965.332	75.3319
1,000.49	84.751	1,000.49	83.8429	1,000.49	85.6775	1,000.49	83.1933	1,000.49	86.2015	1,000.49	82.7023	1,000.49	86.0247	1,000.49	82.1784	1,000.49	85.0857	1,000.49	81.5566	1,000.49	83.6414	1,000.49	80.8711	1,000.49	82.2716	1,000.49	80.1479	1,000.49	81.2575	1,000.49	79.3804	1,000.49	80.094	1,000.49	78.609	1,000.49	78.3948	1,000.49	78.0058	1,000.49	77.0462	1,000.49	77.6847	1,000.49	77.2278	1,000.49	77.316	1,000.49	77.5137	1,000.49	76.4353	1,000.49	76.7382	1,000.49	75.2241	1,000.49	76.1666	1,000.49	74.7747	1,000.49	77.2975	1,000.49	75.2661	1,000.49	77.9226	1,000.49	75.5036	1,000.49	76.9603	1,000.49	75.6984
1,035.64	84.3697	1,035.64	83.5237	1,035.64	85.4989	1,035.64	83.2032	1,035.64	86.2312	1,035.64	82.9444	1,035.64	86.1729	1,035.64	82.3315	1,035.64	85.2642	1,035.64	81.2794	1,035.64	83.6867	1,035.64	79.8673	1,035.64	81.9127	1,035.64	78.1737	1,035.64	80.4803	1,035.64	76.5133	1,035.64	79.4352	1,035.64	76.2248	1,035.64	78.6836	1,035.64	77.6985	1,035.64	78.4269	1,035.64	78.9045	1,035.64	78.4816	1,035.64	78.6725	1,035.64	78.1257	1,035.64	76.6951	1,035.64	76.9965	1,035.64	73.4745	1,035.64	76.1736	1,035.64	72.6398	1,035.64	76.8654	1,035.64	74.0054	1,035.64	77.2309	1,035.64	74.0875	1,035.64	75.9835	1,035.64	74.1682
1,072.27	84.2766	1,072.27	83.564	1,072.27	85.1437	1,072.27	83.0485	1,072.27	85.8479	1,072.27	82.6394	1,072.27	85.9691	1,072.27	82.2213	1,072.27	85.2631	1,072.27	81.6625	1,072.27	83.8498	1,072.27	80.896	1,072.27	82.3188	1,072.27	79.9669	1,072.27	81.1484	1,072.27	78.8417	1,072.27	79.8423	1,072.27	77.1797	1,072.27	77.902	1,072.27	75.0078	1,072.27	76.7143	1,072.27	74.6584	1,072.27	77.4425	1,072.27	76.3982	1,072.27	77.6355	1,072.27	77.1609	1,072.27	76.3149	1,072.27	76.2157	1,072.27	75.6266	1,072.27	74.6653	1,072.27	77.187	1,072.27	74.676	1,072.27	77.6566	1,072.27	74.8534	1,072.27	75.9947	1,072.27	74.4417
1,108.89	83.7862	1,108.89	83.3772	1,108.89	84.6265	1,108.89	83.1394	1,108.89	85.6741	1,108.89	82.9143	1,108.89	86.2397	1,108.89	82.6188	1,108.89	85.8243	1,108.89	82.1357	1,108.89	84.3434	1,108.89	81.416	1,108.89	82.2302	1,108.89	80.5169	1,108.89	80.3488	1,108.89	79.4932	1,108.89	78.8984	1,108.89	78.2335	1,108.89	77.3503	1,108.89	76.5572	1,108.89	76.356	1,108.89	74.8832	1,108.89	76.7947	1,108.89	74.5463	1,108.89	77.3149	1,108.89	75.0459	1,108.89	76.9111	1,108.89	74.6447	1,108.89	76.3006	1,108.89	73.7019	1,108.89	76.7144	1,108.89	74.2117	1,108.89	76.519	1,108.89	74.5776	1,108.89	74.5105	1,108.89	73.5656
1,148.44	83.7149	1,148.44	83.2417	1,148.44	84.578	1,148.44	83.1606	1,148.44	85.4634	1,148.44	83.1269	1,148.44	85.8681	1,148.44	82.8724	1,148.44	85.4183	1,148.44	82.4308	1,148.44	84.0435	1,148.44	81.9162	1,148.44	82.1926	1,148.44	81.2761	1,148.44	80.6981	1,148.44	80.3711	1,148.44	79.274	1,148.44	79.2069	1,148.44	76.7294	1,148.44	77.9354	1,148.44	74.1671	1,148.44	76.8068	1,148.44	76.3161	1,148.44	76.2155	1,148.44	78.1205	1,148.44	76.1232	1,148.44	77.2358	1,148.44	76.0035	1,148.44	75.3692	1,148.44	75.7982	1,148.44	76.2482	1,148.44	75.4509	1,148.44	76.8869	1,148.44	74.1254	1,148.44	74.9402	1,148.44	72.6236
1,189.45	83.8012	1,189.45	83.7203	1,189.45	84.3753	1,189.45	83.9564	1,189.45	85.137	1,189.45	83.8593	1,189.45	85.6474	1,189.45	83.03	1,189.45	85.4168	1,189.45	81.6932	1,189.45	84.1656	1,189.45	80.6069	1,189.45	82.1675	1,189.45	80.231	1,189.45	80.5604	1,189.45	79.8842	1,189.45	79.8008	1,189.45	78.8267	1,189.45	78.2955	1,189.45	77.3288	1,189.45	75.1301	1,189.45	76.3331	1,189.45	73.685	1,189.45	75.6073	1,189.45	75.6433	1,189.45	74.3936	1,189.45	75.9919	1,189.45	73.2825	1,189.45	75.1193	1,189.45	73.2281	1,189.45	75.9469	1,189.45	73.6849	1,189.45	76.0985	1,189.45	73.6646	1,189.45	74.0196	1,189.45	72.9363
1,230.47	84.7894	1,230.47	84.5386	1,230.47	85.2755	1,230.47	84.3609	1,230.47	85.8041	1,230.47	83.8804	1,230.47	86.0982	1,230.47	83.001	1,230.47	85.7957	1,230.47	81.9222	1,230.47	84.5905	1,230.47	80.9222	1,230.47	82.5747	1,230.47	80.1668	1,230.47	80.6697	1,230.47	79.4344	1,230.47	79.3667	1,230.47	78.4223	1,230.47	77.4212	1,230.47	77.6141	1,230.47	74.7023	1,230.47	77.7941	1,230.47	74.7737	1,230.47	78.1378	1,230.47	76.2845	1,230.47	77.3584	1,230.47	76.0207	1,230.47	74.936	1,230.47	75.1618	1,230.47	73.2453	1,230.47	75.5234	1,230.47	75.0338	1,230.47	74.8382	1,230.47	75.4712	1,230.47	71.9209	1,230.47	72.9398
1,274.41	85.0242	1,274.41	84.8717	1,274.41	85.7228	1,274.41	84.869	1,274.41	86.3053	1,274.41	84.5046	1,274.41	86.2479	1,274.41	83.7809	1,274.41	85.5907	1,274.41	82.725	1,274.41	84.3587	1,274.41	81.3801	1,274.41	82.464	1,274.41	80.1005	1,274.41	80.513	1,274.41	78.9711	1,274.41	79.6733	1,274.41	77.2724	1,274.41	79.0461	1,274.41	74.6465	1,274.41	77.142	1,274.41	73.8454	1,274.41	75.1429	1,274.41	75.7645	1,274.41	75.5976	1,274.41	76.8915	1,274.41	75.2394	1,274.41	76.3999	1,274.41	73.3052	1,274.41	74.9962	1,274.41	74.2975	1,274.41	74.8496	1,274.41	74.6121	1,274.41	75.5028	1,274.41	72.9178	1,274.41	74.3831
1,319.82	85.176	1,319.82	85.3695	1,319.82	85.3939	1,319.82	85.3555	1,319.82	86.0186	1,319.82	84.8238	1,319.82	86.5274	1,319.82	83.8405	1,319.82	86.4909	1,319.82	82.5388	1,319.82	85.4012	1,319.82	81.0469	1,319.82	82.9048	1,319.82	79.7284	1,319.82	79.8874	1,319.82	79.16	1,319.82	78.8737	1,319.82	78.8338	1,319.82	78.6325	1,319.82	77.8216	1,319.82	76.5861	1,319.82	76.4921	1,319.82	74.8356	1,319.82	75.9911	1,319.82	76.2884	1,319.82	75.8639	1,319.82	76.8257	1,319.82	74.6745	1,319.82	76.276	1,319.82	72.9669	1,319.82	76.884	1,319.82	73.4113	1,319.82	75.3274	1,319.82	74.5752	1,319.82	72.0815	1,319.82	73.7126
1,366.7	84.9125	1,366.7	85.5517	1,366.7	84.8829	1,366.7	85.82	1,366.7	85.6431	1,366.7	85.5089	1,366.7	86.2741	1,366.7	84.9557	1,366.7	86.2096	1,366.7	84.1636	1,366.7	85.3343	1,366.7	82.5815	1,366.7	83.5959	1,366.7	79.9273	1,366.7	80.9649	1,366.7	77.3636	1,366.7	78.797	1,366.7	76.1913	1,366.7	78.8323	1,366.7	75.0676	1,366.7	78.0842	1,366.7	73.9543	1,366.7	75.0837	1,366.7	75.6117	1,366.7	74.5917	1,366.7	77.2053	1,366.7	76.7526	1,366.7	76.2075	1,366.7	74.5711	1,366.7	73.7731	1,366.7	73.4384	1,366.7	74.06	1,366.7	73.5483	1,366.7	75.3562	1,366.7	71.5161	1,366.7	74.1569
1,413.57	84.6181	1,413.57	85.8834	1,413.57	84.7855	1,413.57	86.7479	1,413.57	85.7456	1,413.57	86.3155	1,413.57	86.1994	1,413.57	84.9476	1,413.57	86.066	1,413.57	83.4724	1,413.57	85.3139	1,413.57	82.3064	1,413.57	83.5899	1,413.57	81.0918	1,413.57	80.7719	1,413.57	79.7231	1,413.57	78.2277	1,413.57	78.2595	1,413.57	77.2644	1,413.57	77.112	1,413.57	76.6699	1,413.57	75.27	1,413.57	76.6831	1,413.57	72.1895	1,413.57	77.1764	1,413.57	73.9874	1,413.57	75.8337	1,413.57	75.6877	1,413.57	73.7895	1,413.57	73.8553	1,413.57	74.2123	1,413.57	72.453	1,413.57	72.4353	1,413.57	75.6506	1,413.57	72.279	1,413.57	75.7084
1,463.38	85.6004	1,463.38	86.2548	1,463.38	84.9847	1,463.38	86.325	1,463.38	85.6505	1,463.38	86.0333	1,463.38	86.5706	1,463.38	85.0704	1,463.38	86.6427	1,463.38	82.9056	1,463.38	85.7193	1,463.38	80.4283	1,463.38	83.8288	1,463.38	79.9598	1,463.38	81.0218	1,463.38	80.5327	1,463.38	78.2692	1,463.38	79.723	1,463.38	78.2852	1,463.38	78.005	1,463.38	78.9834	1,463.38	76.9058	1,463.38	77.6066	1,463.38	75.1596	1,463.38	76.2217	1,463.38	74.1858	1,463.38	77.1634	1,463.38	76.2919	1,463.38	75.6139	1,463.38	75.6571	1,463.38	72.9649	1,463.38	73.0193	1,463.38	70.8958	1,463.38	75.2133	1,463.38	68.6537	1,463.38	75.3104
1,516.11	85.7213	1,516.11	86.5897	1,516.11	84.7328	1,516.11	86.3519	1,516.11	85.0551	1,516.11	85.3231	1,516.11	85.9627	1,516.11	84.2689	1,516.11	86.1527	1,516.11	83.2266	1,516.11	85.2492	1,516.11	81.6983	1,516.11	83.2624	1,516.11	79.9515	1,516.11	80.2982	1,516.11	78.8667	1,516.11	77.1045	1,516.11	77.8111	1,516.11	75.3787	1,516.11	76.4408	1,516.11	75.9826	1,516.11	76.5432	1,516.11	77.0212	1,516.11	76.3987	1,516.11	77.335	1,516.11	73.117	1,516.11	76.7595	1,516.11	72.1408	1,516.11	73.4278	1,516.11	75.5745	1,516.11	69.0705	1,516.11	75.39	1,516.11	67.3805	1,516.11	73.9938	1,516.11	72.2434	1,516.11	75.0671
1,568.85	86.2873	1,568.85	86.7491	1,568.85	84.7461	1,568.85	86.1036	1,568.85	84.1481	1,568.85	85.3628	1,568.85	84.6401	1,568.85	84.3957	1,568.85	84.9927	1,568.85	82.6006	1,568.85	84.4079	1,568.85	80.5605	1,568.85	82.5357	1,568.85	79.3563	1,568.85	80.2191	1,568.85	79.0952	1,568.85	78.4155	1,568.85	78.1038	1,568.85	76.6602	1,568.85	75.1428	1,568.85	76.1457	1,568.85	72.8449	1,568.85	76.4391	1,568.85	74.7098	1,568.85	74.6564	1,568.85	74.8635	1,568.85	73.4816	1,568.85	73.2771	1,568.85	74.7206	1,568.85	72.4771	1,568.85	70.2565	1,568.85	72.7373	1,568.85	64.9024	1,568.85	73.3175	1,568.85	71.1023	1,568.85	73.5895
1,624.51	85.9777	1,624.51	85.8733	1,624.51	85.0015	1,624.51	85.2961	1,624.51	84.1065	1,624.51	84.6062	1,624.51	84.1982	1,624.51	83.0889	1,624.51	84.0321	1,624.51	81.2505	1,624.51	83.1235	1,624.51	80.2219	1,624.51	82.0106	1,624.51	78.8599	1,624.51	80.7224	1,624.51	76.8315	1,624.51	78.4855	1,624.51	76.286	1,624.51	75.4326	1,624.51	77.2937	1,624.51	74.0734	1,624.51	76.7393	1,624.51	74.2093	1,624.51	74.2254	1,624.51	73.3768	1,624.51	73.6569	1,624.51	70.4851	1,624.51	72.7491	1,624.51	70.3983	1,624.51	69.0575	1,624.51	73.1479	1,624.51	71.4656	1,624.51	74.7607	1,624.51	73.7417	1,624.51	76.218	1,624.51	75.0846
1,681.64	84.7772	1,681.64	85.6005	1,681.64	83.6496	1,681.64	85.8594	1,681.64	83.3596	1,681.64	84.7026	1,681.64	83.9574	1,681.64	82.7144	1,681.64	83.2964	1,681.64	81.9856	1,681.64	81.6219	1,681.64	81.6663	1,681.64	80.4036	1,681.64	79.8336	1,681.64	78.7037	1,681.64	76.692	1,681.64	75.0958	1,681.64	74.3499	1,681.64	72.8037	1,681.64	73.0393	1,681.64	73.3195	1,681.64	71.5386	1,681.64	73.9023	1,681.64	70.9316	1,681.64	75.1235	1,681.64	72.2477	1,681.64	74.0976	1,681.64	73.8347	1,681.64	69.5478	1,681.64	72.9997	1,681.64	65.4769	1,681.64	68.715	1,681.64	68.0148	1,681.64	71.1327	1,681.64	70.2509	1,681.64	72.7931
1,741.7	85.3251	1,741.7	86.1602	1,741.7	83.4798	1,741.7	85.6663	1,741.7	82.5188	1,741.7	84.5992	1,741.7	82.8583	1,741.7	83.7661	1,741.7	83.0038	1,741.7	82.2608	1,741.7	82.3078	1,741.7	78.934	1,741.7	80.4933	1,741.7	75.3392	1,741.7	77.6628	1,741.7	74.6037	1,741.7	75.005	1,741.7	75.0079	1,741.7	73.5421	1,741.7	74.2334	1,741.7	73.0655	1,741.7	73.0041	1,741.7	74.3761	1,741.7	71.9844	1,741.7	74.4768	1,741.7	69.6947	1,741.7	73.3816	1,741.7	70.4667	1,741.7	72.3697	1,741.7	72.939	1,741.7	67.6898	1,741.7	72.3766	1,741.7	57.6618	1,741.7	73.3462	1,741.7	66.6787	1,741.7	73.3105
1,803.22	86.0348	1,803.22	86.0187	1,803.22	84.232	1,803.22	85.1707	1,803.22	82.2193	1,803.22	84.2502	1,803.22	82.9752	1,803.22	83.1822	1,803.22	83.0723	1,803.22	81.7508	1,803.22	81.641	1,803.22	79.8686	1,803.22	79.8967	1,803.22	77.7892	1,803.22	77.8056	1,803.22	76.0496	1,803.22	74.9595	1,803.22	76.0914	1,803.22	73.1449	1,803.22	76.14	1,803.22	72.2488	1,803.22	74.2568	1,803.22	71.7017	1,803.22	73.2588	1,803.22	73.0479	1,803.22	71.7838	1,803.22	71.5576	1,803.22	68.9193	1,803.22	68.8859	1,803.22	71.9262	1,803.22	67.8363	1,803.22	71.2926	1,803.22	65.3609	1,803.22	71.6248	1,803.22	71.6211	1,803.22	75.1994
1,866.21	86.2006	1,866.21	86.2294	1,866.21	84.9316	1,866.21	85.4854	1,866.21	82.4143	1,866.21	84.7314	1,866.21	81.7356	1,866.21	84.2068	1,866.21	82.904	1,866.21	82.0898	1,866.21	82.3654	1,866.21	78.2393	1,866.21	79.9566	1,866.21	76.8007	1,866.21	76.7385	1,866.21	77.467	1,866.21	73.5755	1,866.21	76.2547	1,866.21	71.9671	1,866.21	74.2481	1,866.21	73.0943	1,866.21	72.9855	1,866.21	72.6213	1,866.21	72.0546	1,866.21	71.2243	1,866.21	71.9953	1,866.21	70.8424	1,866.21	70.5583	1,866.21	62.0786	1,866.21	70.273	1,866.21	65.4532	1,866.21	71.2836	1,866.21	67.2046	1,866.21	70.0895	1,866.21	71.7702	1,866.21	73.1953
1,932.13	85.5779	1,932.13	85.4043	1,932.13	84.7025	1,932.13	85.1365	1,932.13	82.9331	1,932.13	84.8794	1,932.13	82.2542	1,932.13	83.5566	1,932.13	82.4352	1,932.13	81.3585	1,932.13	81.937	1,932.13	80.4338	1,932.13	80.4622	1,932.13	78.9273	1,932.13	78.0115	1,932.13	74.9343	1,932.13	74.4576	1,932.13	71.6944	1,932.13	73.3428	1,932.13	72.1348	1,932.13	75.0808	1,932.13	72.1191	1,932.13	74.2725	1,932.13	72.0952	1,932.13	73.574	1,932.13	73.1047	1,932.13	70.792	1,932.13	70.7554	1,932.13	65.7706	1,932.13	64.0856	1,932.13	62.1304	1,932.13	69.996	1,932.13	57.0213	1,932.13	72.139	1,932.13	66.91	1,932.13	71.8334
1,999.51	85.4718	1,999.51	85.8117	1,999.51	84.5876	1,999.51	85.7556	1,999.51	82.8194	1,999.51	84.7913	1,999.51	81.5425	1,999.51	82.7815	1,999.51	82.1754	1,999.51	81.3133	1,999.51	82.2468	1,999.51	80.3856	1,999.51	80.4596	1,999.51	77.8592	1,999.51	77.4694	1,999.51	74.4929	1,999.51	74.8384	1,999.51	73.1614	1,999.51	72.1222	1,999.51	71.922	1,999.51	71.3592	1,999.51	69.6147	1,999.51	73.6028	1,999.51	66.684	1,999.51	72.9019	1,999.51	70.6369	1,999.51	69.6772	1,999.51	72.9194	1,999.51	68.2931	1,999.51	71.0896	1,999.51	63.8441	1,999.51	67.2284	1,999.51	57.3424	1,999.51	72.5294	1,999.51	67.1823	1,999.51	73.3392
2,069.82	87.151	2,069.82	86.4773	2,069.82	85.6278	2,069.82	85.3704	2,069.82	81.7376	2,069.82	83.8517	2,069.82	79.8338	2,069.82	82.356	2,069.82	80.7769	2,069.82	81.7403	2,069.82	80.9257	2,069.82	79.9292	2,069.82	79.9526	2,069.82	76.9122	2,069.82	77.9186	2,069.82	75.5533	2,069.82	74.9851	2,069.82	75.5122	2,069.82	71.7145	2,069.82	75.0391	2,069.82	69.8222	2,069.82	73.8619	2,069.82	72.0885	2,069.82	73.0299	2,069.82	72.9942	2,069.82	71.5554	2,069.82	70.1579	2,069.82	70.998	2,069.82	65.5122	2,069.82	69.598	2,069.82	59.1594	2,069.82	68.9806	2,069.82	50.5697	2,069.82	71.3005	2,069.82	70.8845	2,069.82	72.5461
2,143.07	86.4149	2,143.07	86.3265	2,143.07	85.2878	2,143.07	85.6119	2,143.07	82.3986	2,143.07	83.818	2,143.07	80.8254	2,143.07	81.926	2,143.07	81.2698	2,143.07	79.7552	2,143.07	80.813	2,143.07	76.994	2,143.07	79.7833	2,143.07	76.2459	2,143.07	77.7919	2,143.07	76.2042	2,143.07	74.2217	2,143.07	75.5901	2,143.07	72.5499	2,143.07	74.6625	2,143.07	71.2853	2,143.07	73.1578	2,143.07	68.1862	2,143.07	71.0856	2,143.07	69.4883	2,143.07	67.2332	2,143.07	65.8117	2,143.07	67.0586	2,143.07	64.7834	2,143.07	66.4024	2,143.07	57.7218	2,143.07	66.7901	2,143.07	63.4317	2,143.07	71.634	2,143.07	72.0043	2,143.07	74.1124
2,219.24	85.6198	2,219.24	84.8603	2,219.24	84.9341	2,219.24	84.914	2,219.24	82.1011	2,219.24	84.519	2,219.24	80.5506	2,219.24	82.4998	2,219.24	80.7936	2,219.24	79.4306	2,219.24	80.4183	2,219.24	77.9546	2,219.24	78.8834	2,219.24	78.6972	2,219.24	76.1938	2,219.24	75.9421	2,219.24	75.6494	2,219.24	72.3769	2,219.24	74.7773	2,219.24	74.0341	2,219.24	70.7503	2,219.24	75.0385	2,219.24	66.1059	2,219.24	73.5356	2,219.24	71.8209	2,219.24	71.1563	2,219.24	70.2579	2,219.24	70.2289	2,219.24	61.9966	2,219.24	72.1832	2,219.24	60.3483	2,219.24	70.7257	2,219.24	66.3257	2,219.24	69.045	2,219.24	71.3439	2,219.24	75.3488
2,296.88	85.1451	2,296.88	84.979	2,296.88	84.4776	2,296.88	84.4118	2,296.88	81.5397	2,296.88	82.8101	2,296.88	79.3433	2,296.88	81.4455	2,296.88	80.9132	2,296.88	80.0789	2,296.88	81.3115	2,296.88	79.747	2,296.88	79.0916	2,296.88	78.9651	2,296.88	77.4311	2,296.88	75.996	2,296.88	76.5711	2,296.88	71.8616	2,296.88	72.5733	2,296.88	68.2186	2,296.88	66.973	2,296.88	68.3465	2,296.88	66.2917	2,296.88	69.9607	2,296.88	70.2801	2,296.88	72.145	2,296.88	69.3705	2,296.88	73.0752	2,296.88	66.1572	2,296.88	71.178	2,296.88	61.5739	2,296.88	70.504	2,296.88	66.1886	2,296.88	69.5183	2,296.88	72.4669	2,296.88	72.1858
2,378.91	85.4955	2,378.91	84.8637	2,378.91	85.4174	2,378.91	84.1187	2,378.91	83.0645	2,378.91	84.0047	2,378.91	80.0971	2,378.91	83.6491	2,378.91	81.4826	2,378.91	81.8008	2,378.91	82.1753	2,378.91	80.3184	2,378.91	80.5543	2,378.91	78.0622	2,378.91	78.614	2,378.91	73.73	2,378.91	76.3023	2,378.91	73.348	2,378.91	74.699	2,378.91	73.1201	2,378.91	71.919	2,378.91	69.213	2,378.91	69.5039	2,378.91	67.1088	2,378.91	71.6047	2,378.91	68.3766	2,378.91	66.1366	2,378.91	70.3225	2,378.91	69.2746	2,378.91	70.6697	2,378.91	65.2108	2,378.91	68.866	2,378.91	65.1039	2,378.91	70.5556	2,378.91	71.7826	2,378.91	71.8984
2,462.4	85.0344	2,462.4	85.1164	2,462.4	84.9017	2,462.4	84.7341	2,462.4	83.7351	2,462.4	83.6768	2,462.4	80.7356	2,462.4	82.509	2,462.4	79.7217	2,462.4	81.3098	2,462.4	81.1323	2,462.4	78.9147	2,462.4	80.4709	2,462.4	77.3173	2,462.4	77.9595	2,462.4	75.8416	2,462.4	74.1663	2,462.4	72.401	2,462.4	70.4031	2,462.4	70.7218	2,462.4	74.6217	2,462.4	69.6672	2,462.4	73.9853	2,462.4	67.9075	2,462.4	73.7487	2,462.4	67.6273	2,462.4	71.7821	2,462.4	69.5361	2,462.4	68.1328	2,462.4	71.0634	2,462.4	63.8933	2,462.4	69.4224	2,462.4	64.6394	2,462.4	69.8491	2,462.4	69.5969	2,462.4	70.5422
2,548.83	84.4305	2,548.83	84.2502	2,548.83	84.6058	2,548.83	84.5061	2,548.83	83.7135	2,548.83	83.8897	2,548.83	81.7213	2,548.83	82.2755	2,548.83	80.3461	2,548.83	81.3509	2,548.83	80.7605	2,548.83	80.3967	2,548.83	80.5308	2,548.83	77.2159	2,548.83	78.8395	2,548.83	73.2736	2,548.83	75.8846	2,548.83	72.3708	2,548.83	71.8864	2,548.83	70.5385	2,548.83	73.5805	2,548.83	67.929	2,548.83	72.2698	2,548.83	66.9111	2,548.83	73.0261	2,548.83	66.6781	2,548.83	72.489	2,548.83	67.4423	2,548.83	68.8463	2,548.83	70.4462	2,548.83	61.6428	2,548.83	69.9456	2,548.83	65.9835	2,548.83	69.0019	2,548.83	70.9767	2,548.83	70.0208
2,639.65	84.2983	2,639.65	84.2197	2,639.65	84.5257	2,639.65	83.8183	2,639.65	83.8417	2,639.65	83.2382	2,639.65	82.0855	2,639.65	82.9933	2,639.65	80.7488	2,639.65	81.1412	2,639.65	80.7188	2,639.65	78.8048	2,639.65	80.4178	2,639.65	75.9393	2,639.65	79.1055	2,639.65	71.8528	2,639.65	75.9063	2,639.65	69.1395	2,639.65	69.9382	2,639.65	66.5077	2,639.65	72.6157	2,639.65	66.875	2,639.65	71.3708	2,639.65	66.0758	2,639.65	70.7747	2,639.65	64.341	2,639.65	70.734	2,639.65	66.5912	2,639.65	68.4319	2,639.65	68.3946	2,639.65	60.2765	2,639.65	70.4236	2,639.65	54.303	2,639.65	69.2734	2,639.65	68.4267	2,639.65	70.2161
2,731.93	83.851	2,731.93	84.2735	2,731.93	84.3857	2,731.93	83.5583	2,731.93	84.0212	2,731.93	83.1827	2,731.93	81.9593	2,731.93	82.8903	2,731.93	81.3219	2,731.93	80.2466	2,731.93	81.2594	2,731.93	76.7969	2,731.93	80.5304	2,731.93	74.5265	2,731.93	79.6414	2,731.93	72.6114	2,731.93	76.9881	2,731.93	70.2015	2,731.93	67.7795	2,731.93	69.4392	2,731.93	66.5864	2,731.93	67.0864	2,731.93	69.0148	2,731.93	67.3426	2,731.93	71.7337	2,731.93	62.8833	2,731.93	68.2933	2,731.93	66.1538	2,731.93	65.0284	2,731.93	67.5074	2,731.93	57.8866	2,731.93	68.4212	2,731.93	60.1909	2,731.93	69.8712	2,731.93	67.9567	2,731.93	68.9978
2,828.61	82.902	2,828.61	83.1265	2,828.61	83.2915	2,828.61	82.887	2,828.61	83.8459	2,828.61	83.1506	2,828.61	82.097	2,828.61	81.5678	2,828.61	80.751	2,828.61	79.1493	2,828.61	81.7954	2,828.61	76.3273	2,828.61	80.7999	2,828.61	74.3792	2,828.61	78.6619	2,828.61	72.945	2,828.61	76.5696	2,828.61	71.6274	2,828.61	64.942	2,828.61	71.4343	2,828.61	56.628	2,828.61	68.1661	2,828.61	60.7859	2,828.61	64.8032	2,828.61	71.7337	2,828.61	61.3573	2,828.61	69.786	2,828.61	61.9559	2,828.61	62.7915	2,828.61	66.1807	2,828.61	61.0521	2,828.61	66.4129	2,828.61	62.7782	2,828.61	68.2165	2,828.61	67.0181	2,828.61	67.438
2,928.22	82.3236	2,928.22	82.4766	2,928.22	82.3035	2,928.22	82.6461	2,928.22	83.1863	2,928.22	82.5259	2,928.22	82.3548	2,928.22	80.8591	2,928.22	80.4782	2,928.22	78.2771	2,928.22	81.5319	2,928.22	75.6593	2,928.22	81.0115	2,928.22	74.6824	2,928.22	77.5875	2,928.22	72.0869	2,928.22	73.3047	2,928.22	68.8301	2,928.22	66.3176	2,928.22	67.8455	2,928.22	64.1859	2,928.22	67.3121	2,928.22	67.5228	2,928.22	65.4661	2,928.22	70.1459	2,928.22	62.5847	2,928.22	71.5377	2,928.22	61.2233	2,928.22	62.5632	2,928.22	65.6225	2,928.22	57.2133	2,928.22	66.4514	2,928.22	63.9464	2,928.22	69.3176	2,928.22	68.5126	2,928.22	65.5624
3,030.76	81.9384	3,030.76	82.0797	3,030.76	81.858	3,030.76	82.4772	3,030.76	82.5706	3,030.76	82.3292	3,030.76	82.2144	3,030.76	80.6461	3,030.76	80.7648	3,030.76	78.6545	3,030.76	81.8143	3,030.76	77.6445	3,030.76	81.8624	3,030.76	75.4113	3,030.76	78.6486	3,030.76	72.2188	3,030.76	74.0823	3,030.76	71.1741	3,030.76	70.4688	3,030.76	69.8166	3,030.76	66.098	3,030.76	69.296	3,030.76	70.3981	3,030.76	67.8047	3,030.76	68.8875	3,030.76	63.6224	3,030.76	70.331	3,030.76	61.5886	3,030.76	63.3151	3,030.76	65.6939	3,030.76	63.9075	3,030.76	63.8046	3,030.76	61.3597	3,030.76	68.3787	3,030.76	67.3253	3,030.76	66.737
3,137.7	81.7597	3,137.7	81.88	3,137.7	81.631	3,137.7	82.4438	3,137.7	82.6094	3,137.7	81.9156	3,137.7	82.4266	3,137.7	80.0884	3,137.7	80.8426	3,137.7	79.9786	3,137.7	82.2121	3,137.7	78.0698	3,137.7	82.6456	3,137.7	75.3636	3,137.7	79.7486	3,137.7	75.3014	3,137.7	76.0062	3,137.7	73.2355	3,137.7	73.7988	3,137.7	70.2154	3,137.7	68.0963	3,137.7	69.3706	3,137.7	69.8321	3,137.7	67.2358	3,137.7	66.9019	3,137.7	64.5127	3,137.7	68.3627	3,137.7	58.878	3,137.7	62.6534	3,137.7	64.2873	3,137.7	66.0895	3,137.7	64.0687	3,137.7	63.344	3,137.7	68.9198	3,137.7	67.0488	3,137.7	67.6012
3,249.02	81.0931	3,249.02	81.4534	3,249.02	81.4303	3,249.02	82.2836	3,249.02	82.6646	3,249.02	81.0172	3,249.02	83.1632	3,249.02	79.7574	3,249.02	81.4178	3,249.02	79.4793	3,249.02	81.7639	3,249.02	78.6131	3,249.02	82.9304	3,249.02	76.9463	3,249.02	81.251	3,249.02	72.3542	3,249.02	78.1758	3,249.02	67.4191	3,249.02	74.4793	3,249.02	67.3717	3,249.02	68.1558	3,249.02	67.831	3,249.02	70.4282	3,249.02	67.3835	3,249.02	64.2886	3,249.02	65.6388	3,249.02	67.272	3,249.02	60.8058	3,249.02	62.109	3,249.02	64.4271	3,249.02	65.2513	3,249.02	63.5772	3,249.02	58.6601	3,249.02	67.032	3,249.02	64.9127	3,249.02	66.3301
3,363.28	80.8442	3,363.28	81.1518	3,363.28	81.6896	3,363.28	81.4839	3,363.28	82.7383	3,363.28	80.5453	3,363.28	83.0711	3,363.28	80.677	3,363.28	81.5827	3,363.28	79.7373	3,363.28	81.6913	3,363.28	78.3115	3,363.28	82.6476	3,363.28	75.1206	3,363.28	81.1981	3,363.28	71.1377	3,363.28	78.0425	3,363.28	72.0869	3,363.28	74.602	3,363.28	69.7687	3,363.28	69.6543	3,363.28	66.7658	3,363.28	70.7263	3,363.28	66.4858	3,363.28	66.5284	3,363.28	65.7261	3,363.28	67.8751	3,363.28	62.1645	3,363.28	62.378	3,363.28	62.3779	3,363.28	64.3369	3,363.28	62.3957	3,363.28	55.814	3,363.28	66.0454	3,363.28	59.022	3,363.28	66.2394
3,481.93	80.4601	3,481.93	81.2365	3,481.93	81.2931	3,481.93	81.1235	3,481.93	82.6902	3,481.93	80.727	3,481.93	82.7067	3,481.93	80.6995	3,481.93	81.2793	3,481.93	80.3255	3,481.93	81.4054	3,481.93	78.1616	3,481.93	81.9497	3,481.93	74.5917	3,481.93	80.404	3,481.93	74.0253	3,481.93	78.1061	3,481.93	69.1675	3,481.93	74.7376	3,481.93	66.3963	3,481.93	68.1684	3,481.93	66.9143	3,481.93	70.3819	3,481.93	62.8324	3,481.93	66.6708	3,481.93	63.241	3,481.93	68.8935	3,481.93	62.8133	3,481.93	62.6541	3,481.93	62.0907	3,481.93	63.5538	3,481.93	62.8872	3,481.93	60.0645	3,481.93	64.8384	3,481.93	64.4764	3,481.93	66.749
3,604.98	81.1179	3,604.98	81.3991	3,604.98	81.0373	3,604.98	81.6068	3,604.98	82.014	3,604.98	81.09	3,604.98	81.6196	3,604.98	81.2772	3,604.98	79.5185	3,604.98	80.1657	3,604.98	80.2759	3,604.98	77.255	3,604.98	80.8445	3,604.98	75.6814	3,604.98	79.5245	3,604.98	70.492	3,604.98	77.6568	3,604.98	68.8978	3,604.98	73.5766	3,604.98	68.6041	3,604.98	64.6466	3,604.98	66.9008	3,604.98	67.5777	3,604.98	64.1637	3,604.98	64.4753	3,604.98	61.3946	3,604.98	66.521	3,604.98	59.0131	3,604.98	61.4928	3,604.98	63.3991	3,604.98	61.3869	3,604.98	62.0213	3,604.98	57.4748	3,604.98	65.3394	3,604.98	63.1493	3,604.98	65.8207
3,732.42	81.1477	3,732.42	81.8459	3,732.42	81.3947	3,732.42	81.527	3,732.42	81.9994	3,732.42	81.1537	3,732.42	81.4986	3,732.42	81.2579	3,732.42	78.6271	3,732.42	79.0929	3,732.42	78.3158	3,732.42	77.8222	3,732.42	79.5581	3,732.42	74.1564	3,732.42	78.8775	3,732.42	71.6215	3,732.42	75.3805	3,732.42	70.7707	3,732.42	69.9303	3,732.42	67.8848	3,732.42	62.4458	3,732.42	65.5798	3,732.42	64.5298	3,732.42	63.9048	3,732.42	60.5021	3,732.42	63.1291	3,732.42	63.4554	3,732.42	59.9117	3,732.42	62.6994	3,732.42	61.8909	3,732.42	59.5286	3,732.42	60.1233	3,732.42	56.0739	3,732.42	63.7576	3,732.42	63.4319	3,732.42	64.6024
3,864.26	81.7267	3,864.26	82.1444	3,864.26	81.3658	3,864.26	81.55	3,864.26	82.2863	3,864.26	81.8414	3,864.26	81.5697	3,864.26	81.0438	3,864.26	78.0536	3,864.26	79.2933	3,864.26	77.168	3,864.26	77.7615	3,864.26	78.1622	3,864.26	75.3859	3,864.26	77.1889	3,864.26	72.9448	3,864.26	74.3356	3,864.26	66.9949	3,864.26	70.4249	3,864.26	67.0326	3,864.26	62.192	3,864.26	67.8095	3,864.26	64.2999	3,864.26	63.8195	3,864.26	59.4208	3,864.26	63.0035	3,864.26	65.4169	3,864.26	57.3438	3,864.26	56.3487	3,864.26	60.944	3,864.26	56.9693	3,864.26	60.9012	3,864.26	57.9049	3,864.26	63.3937	3,864.26	63.5702	3,864.26	63.7498
4,000.49	82.2643	4,000.49	82.3992	4,000.49	81.3295	4,000.49	82.2283	4,000.49	81.767	4,000.49	81.8797	4,000.49	80.7241	4,000.49	80.5406	4,000.49	77.0475	4,000.49	79.3715	4,000.49	76.8734	4,000.49	77.4977	4,000.49	77.2224	4,000.49	74.797	4,000.49	76.4991	4,000.49	69.2456	4,000.49	71.71	4,000.49	68.1842	4,000.49	68.6262	4,000.49	66.4765	4,000.49	64.7816	4,000.49	63.8679	4,000.49	64.3099	4,000.49	64.6936	4,000.49	61.9282	4,000.49	61.342	4,000.49	63.3877	4,000.49	59.2866	4,000.49	58.5923	4,000.49	58.7165	4,000.49	50.9328	4,000.49	62.9907	4,000.49	58.7036	4,000.49	62.1519	4,000.49	61.3715	4,000.49	62.5506
4,141.11	83.2021	4,141.11	82.8168	4,141.11	82.0462	4,141.11	82.3277	4,141.11	81.4949	4,141.11	81.5385	4,141.11	80.3549	4,141.11	79.8977	4,141.11	76.3569	4,141.11	78.5131	4,141.11	75.0354	4,141.11	76.8361	4,141.11	76.9337	4,141.11	73.6326	4,141.11	75.3637	4,141.11	72.6149	4,141.11	69.7731	4,141.11	68.8538	4,141.11	66.0184	4,141.11	64.631	4,141.11	52.6679	4,141.11	64.6563	4,141.11	62.6742	4,141.11	62.9714	4,141.11	58.5128	4,141.11	61.403	4,141.11	59.1566	4,141.11	61.1025	4,141.11	54.0486	4,141.11	59.1136	4,141.11	60.5779	4,141.11	62.9445	4,141.11	61.3471	4,141.11	62.1099	4,141.11	58.4628	4,141.11	62.7644
4,287.6	83.384	4,287.6	82.678	4,287.6	82.5805	4,287.6	82.3087	4,287.6	82.3023	4,287.6	81.3844	4,287.6	80.9183	4,287.6	79.2227	4,287.6	74.6636	4,287.6	77.8991	4,287.6	73.1354	4,287.6	75.5924	4,287.6	77.3334	4,287.6	74.2899	4,287.6	75.4369	4,287.6	69.1043	4,287.6	67.5586	4,287.6	67.9165	4,287.6	61.8656	4,287.6	66.0163	4,287.6	61.7261	4,287.6	62.693	4,287.6	66.2714	4,287.6	60.929	4,287.6	61.1871	4,287.6	58.8639	4,287.6	61.4368	4,287.6	58.3028	4,287.6	39.8238	4,287.6	59.7424	4,287.6	59.6779	4,287.6	59.5777	4,287.6	59.5683	4,287.6	61.5953	4,287.6	59.3187	4,287.6	60.9802
4,438.48	83.5207	4,438.48	82.2581	4,438.48	82.8786	4,438.48	81.762	4,438.48	82.3003	4,438.48	80.0778	4,438.48	81.5231	4,438.48	78.703	4,438.48	77.0002	4,438.48	76.4375	4,438.48	70.6022	4,438.48	75.3984	4,438.48	76.389	4,438.48	72.6543	4,438.48	73.8117	4,438.48	71.2308	4,438.48	67.7205	4,438.48	68.3545	4,438.48	67.8906	4,438.48	62.001	4,438.48	57.3079	4,438.48	61.6876	4,438.48	68.3008	4,438.48	58.9804	4,438.48	62.0118	4,438.48	57.8703	4,438.48	66.3134	4,438.48	54.9248	4,438.48	50.949	4,438.48	57.4664	4,438.48	58.7936	4,438.48	60.503	4,438.48	58.078	4,438.48	60.0355	4,438.48	61.1358	4,438.48	62.6216
4,595.21	82.5921	4,595.21	81.5708	4,595.21	82.3702	4,595.21	80.7782	4,595.21	81.2118	4,595.21	79.245	4,595.21	81.2906	4,595.21	77.2113	4,595.21	78.6852	4,595.21	75.7334	4,595.21	69.8467	4,595.21	74.1683	4,595.21	74.8761	4,595.21	70.4234	4,595.21	73.5858	4,595.21	66.6079	4,595.21	71.8038	4,595.21	64.5391	4,595.21	64.72	4,595.21	64.7276	4,595.21	61.6407	4,595.21	60.2137	4,595.21	66.2015	4,595.21	59.4789	4,595.21	59.9028	4,595.21	59.2557	4,595.21	65.2225	4,595.21	41.2006	4,595.21	53.3109	4,595.21	56.1949	4,595.21	56.8897	4,595.21	59.2581	4,595.21	40.8803	4,595.21	59.0651	4,595.21	59.6391	4,595.21	58.9705
4,756.35	82.2683	4,756.35	80.5499	4,756.35	82.6116	4,756.35	80.3641	4,756.35	81.2221	4,756.35	78.5159	4,756.35	81.2493	4,756.35	77.3342	4,756.35	78.1233	4,756.35	75.1983	4,756.35	72.5069	4,756.35	73.167	4,756.35	70.866	4,756.35	69.5146	4,756.35	71.3947	4,756.35	70.3341	4,756.35	72.1804	4,756.35	66.6011	4,756.35	69.137	4,756.35	62.6973	4,756.35	65.0202	4,756.35	63.0411	4,756.35	65.0602	4,756.35	59.2336	4,756.35	60.2889	4,756.35	60.0623	4,756.35	64.1889	4,756.35	58.6784	4,756.35	54.059	4,756.35	53.1431	4,756.35	52.7341	4,756.35	56.3054	4,756.35	52.2699	4,756.35	58.8228	4,756.35	54.4993	4,756.35	58.3251
4,924.8	82.0471	4,924.8	80.8409	4,924.8	82.9638	4,924.8	80.5652	4,924.8	81.2734	4,924.8	79.0964	4,924.8	79.2504	4,924.8	78.5145	4,924.8	77.7593	4,924.8	76.4909	4,924.8	72.3554	4,924.8	74.2226	4,924.8	67.2527	4,924.8	72.0987	4,924.8	73.9738	4,924.8	70	4,924.8	72.4059	4,924.8	67.8313	4,924.8	71.0017	4,924.8	66.7583	4,924.8	68.9936	4,924.8	63.3008	4,924.8	61.959	4,924.8	63.3082	4,924.8	52.5939	4,924.8	59.3657	4,924.8	65.9963	4,924.8	55.9457	4,924.8	59.5446	4,924.8	55.03	4,924.8	59.9796	4,924.8	55.1124	4,924.8	57.7139	4,924.8	57.6823	4,924.8	58.4274	4,924.8	61.5162
5,097.66	81.8925	5,097.66	81.7374	5,097.66	83.1496	5,097.66	81.2519	5,097.66	81.915	5,097.66	79.9738	5,097.66	80.6562	5,097.66	79.8051	5,097.66	78.5526	5,097.66	77.4438	5,097.66	73.7729	5,097.66	75.8018	5,097.66	73.284	5,097.66	74.2172	5,097.66	76.1692	5,097.66	72.3688	5,097.66	74.2386	5,097.66	67.54	5,097.66	71.7739	5,097.66	66.4988	5,097.66	68.7213	5,097.66	63.9986	5,097.66	59.732	5,097.66	63.4905	5,097.66	56.8316	5,097.66	59.4118	5,097.66	64.1389	5,097.66	56.8299	5,097.66	58.2197	5,097.66	53.7351	5,097.66	55.7522	5,097.66	56.8759	5,097.66	56.8935	5,097.66	56.9192	5,097.66	60.7454	5,097.66	56.3272
5,277.83	83.07	5,277.83	82.4023	5,277.83	83.6794	5,277.83	81.245	5,277.83	82.8045	5,277.83	80.6111	5,277.83	81.4062	5,277.83	80.1887	5,277.83	79.4047	5,277.83	78.3171	5,277.83	76.938	5,277.83	76.6991	5,277.83	74.7234	5,277.83	74.2603	5,277.83	76.7092	5,277.83	70.5805	5,277.83	75.4034	5,277.83	68.1483	5,277.83	70.745	5,277.83	66.9458	5,277.83	66.4653	5,277.83	62.4263	5,277.83	60.2311	5,277.83	64.2792	5,277.83	59.06	5,277.83	59.5289	5,277.83	62.7373	5,277.83	57.5237	5,277.83	52.2242	5,277.83	53.5024	5,277.83	54.2172	5,277.83	56.3356	5,277.83	58.9702	5,277.83	58.3048	5,277.83	58.746	5,277.83	55.6829
5,463.87	83.0783	5,463.87	82.627	5,463.87	83.406	5,463.87	81.3622	5,463.87	82.3704	5,463.87	80.9358	5,463.87	81.1274	5,463.87	80.2257	5,463.87	80.9757	5,463.87	78.8355	5,463.87	79.0868	5,463.87	76.6043	5,463.87	75.619	5,463.87	73.9126	5,463.87	75.6537	5,463.87	70.7112	5,463.87	74.4224	5,463.87	66.4506	5,463.87	70.3667	5,463.87	65.8262	5,463.87	68.1941	5,463.87	62.0675	5,463.87	50.1221	5,463.87	62.6221	5,463.87	61.5195	5,463.87	60.1445	5,463.87	59.5557	5,463.87	58.9099	5,463.87	51.804	5,463.87	57.3094	5,463.87	51.8974	5,463.87	57.5055	5,463.87	57.928	5,463.87	52.9322	5,463.87	57.3757	5,463.87	57.2907
5,657.23	83.4088	5,657.23	82.9725	5,657.23	83.4733	5,657.23	81.5836	5,657.23	82.4679	5,657.23	81.4406	5,657.23	81.5311	5,657.23	80.1305	5,657.23	81.1087	5,657.23	79.4928	5,657.23	78.1416	5,657.23	76.3947	5,657.23	75.4677	5,657.23	73.7211	5,657.23	74.769	5,657.23	70.3023	5,657.23	74.9578	5,657.23	69.2961	5,657.23	66.7193	5,657.23	67.045	5,657.23	63.813	5,657.23	64.4445	5,657.23	48.3107	5,657.23	63.7605	5,657.23	65.185	5,657.23	59.2712	5,657.23	50.369	5,657.23	59.437	5,657.23	58.5916	5,657.23	57.9993	5,657.23	52.3094	5,657.23	54.3671	5,657.23	53.7042	5,657.23	55.3177	5,657.23	56.2802	5,657.23	55.8969
5,856.45	84.2796	5,856.45	83.2744	5,856.45	83.7291	5,856.45	82.1558	5,856.45	82.6553	5,856.45	81.486	5,856.45	81.3884	5,856.45	80.2843	5,856.45	79.5544	5,856.45	79.2854	5,856.45	76.0906	5,856.45	76.2876	5,856.45	73.2012	5,856.45	74.9364	5,856.45	74.0196	5,856.45	70.1734	5,856.45	75.5335	5,856.45	68.1442	5,856.45	66.2764	5,856.45	65.7074	5,856.45	49.468	5,856.45	63.3965	5,856.45	51.5443	5,856.45	62.857	5,856.45	63.5971	5,856.45	61.6786	5,856.45	58.221	5,856.45	59.6781	5,856.45	57.5866	5,856.45	57.9687	5,856.45	55.5348	5,856.45	55.4774	5,856.45	56.281	5,856.45	53.0158	5,856.45	55.7274	5,856.45	54.8965
6,062.99	84.3715	6,062.99	83.4295	6,062.99	83.4228	6,062.99	82.4364	6,062.99	81.9871	6,062.99	81.1211	6,062.99	81.3451	6,062.99	79.8822	6,062.99	80.6479	6,062.99	78.5789	6,062.99	76.2362	6,062.99	76.7391	6,062.99	72.0536	6,062.99	74.3951	6,062.99	72.9274	6,062.99	70.0591	6,062.99	75.5894	6,062.99	68.0573	6,062.99	65.7892	6,062.99	63.9636	6,062.99	62.0477	6,062.99	64.6616	6,062.99	58.8595	6,062.99	62.1891	6,062.99	59.5084	6,062.99	60.4821	6,062.99	54.9001	6,062.99	59.3574	6,062.99	50.8959	6,062.99	57.5563	6,062.99	54.4736	6,062.99	54.419	6,062.99	55.8082	6,062.99	52.6676	6,062.99	53.0884	6,062.99	57.6391
6,276.86	84.2576	6,276.86	83.4434	6,276.86	83.7156	6,276.86	82.269	6,276.86	82.3723	6,276.86	80.5905	6,276.86	82.4687	6,276.86	79.3599	6,276.86	81.6367	6,276.86	77.45	6,276.86	76.8047	6,276.86	75.7084	6,276.86	70.2929	6,276.86	72.2218	6,276.86	75.0048	6,276.86	70.0415	6,276.86	75.6178	6,276.86	68.0459	6,276.86	67.3372	6,276.86	64.9625	6,276.86	65.9735	6,276.86	62.6801	6,276.86	60.9111	6,276.86	60.1674	6,276.86	60.2462	6,276.86	58.2675	6,276.86	50.5262	6,276.86	59.516	6,276.86	52.8085	6,276.86	56.3471	6,276.86	50.9529	6,276.86	54.0521	6,276.86	54.3052	6,276.86	50.6721	6,276.86	55.8545	6,276.86	53.7303
6,498.05	83.847	6,498.05	83.4372	6,498.05	83.3915	6,498.05	81.6633	6,498.05	82.1691	6,498.05	80.106	6,498.05	81.5816	6,498.05	78.8803	6,498.05	81.1455	6,498.05	77.5258	6,498.05	77.3091	6,498.05	75.1072	6,498.05	72.6433	6,498.05	73.5289	6,498.05	74.4158	6,498.05	69.3649	6,498.05	74.7096	6,498.05	66.5515	6,498.05	70.3666	6,498.05	62.7875	6,498.05	64.8812	6,498.05	62.8502	6,498.05	60.062	6,498.05	61.7414	6,498.05	58.2638	6,498.05	58.1424	6,498.05	49.2869	6,498.05	59.3568	6,498.05	56.5966	6,498.05	55.8171	6,498.05	54.4624	6,498.05	50.6751	6,498.05	49.783	6,498.05	49.1488	6,498.05	50.8883	6,498.05	56.2692
6,726.56	83.6447	6,726.56	82.979	6,726.56	83.1516	6,726.56	80.8537	6,726.56	82.4272	6,726.56	79.7595	6,726.56	81.7623	6,726.56	78.2074	6,726.56	80.2533	6,726.56	76.4421	6,726.56	77.3301	6,726.56	74.1715	6,726.56	74.415	6,726.56	72.1963	6,726.56	72.3524	6,726.56	68.1156	6,726.56	71.4103	6,726.56	66.0171	6,726.56	69.2361	6,726.56	60.2765	6,726.56	63.2278	6,726.56	61.7226	6,726.56	62.8092	6,726.56	59.8616	6,726.56	56.8972	6,726.56	56.1781	6,726.56	39.7003	6,726.56	58.3216	6,726.56	56.3073	6,726.56	55.2982	6,726.56	54.9456	6,726.56	51.9143	6,726.56	55.6986	6,726.56	49.4819	6,726.56	54.0373	6,726.56	55.0383
6,963.87	83.0263	6,963.87	82.0384	6,963.87	82.5814	6,963.87	80.354	6,963.87	82.475	6,963.87	79.6384	6,963.87	81.6692	6,963.87	77.7414	6,963.87	80.8115	6,963.87	76.1788	6,963.87	77.7165	6,963.87	74.1827	6,963.87	75.6546	6,963.87	71.5105	6,963.87	69.3852	6,963.87	67.8638	6,963.87	66.1483	6,963.87	65.3722	6,963.87	64.8236	6,963.87	59.3486	6,963.87	61.3531	6,963.87	59.4026	6,963.87	64.3499	6,963.87	58.1933	6,963.87	57.8474	6,963.87	56.1763	6,963.87	52.5758	6,963.87	55.3871	6,963.87	55.8044	6,963.87	54.3827	6,963.87	55.0651	6,963.87	50.6203	6,963.87	52.049	6,963.87	49.9313	6,963.87	50.6235	6,963.87	53.8677
7,209.96	82.2611	7,209.96	81.1646	7,209.96	82.2392	7,209.96	80.3585	7,209.96	81.92	7,209.96	79.4303	7,209.96	81.5266	7,209.96	77.9691	7,209.96	80.3851	7,209.96	76.6497	7,209.96	77.8759	7,209.96	73.7366	7,209.96	75.3858	7,209.96	70.7479	7,209.96	62.5197	7,209.96	66.3072	7,209.96	67.1411	7,209.96	62.9687	7,209.96	63.9884	7,209.96	58.6216	7,209.96	54.4626	7,209.96	58.8621	7,209.96	60.1606	7,209.96	56.6851	7,209.96	60.1752	7,209.96	55.4309	7,209.96	48.1465	7,209.96	56.3733	7,209.96	48.648	7,209.96	53.4836	7,209.96	53.1967	7,209.96	53.6445	7,209.96	48.3695	7,209.96	45.618	7,209.96	50.1513	7,209.96	50.6624
7,464.84	81.3375	7,464.84	80.6393	7,464.84	81.5741	7,464.84	80.2898	7,464.84	81.4847	7,464.84	79.1753	7,464.84	80.8449	7,464.84	78.5351	7,464.84	79.4993	7,464.84	76.2301	7,464.84	77.0794	7,464.84	73.267	7,464.84	73.4718	7,464.84	69.0352	7,464.84	66.7507	7,464.84	65.7433	7,464.84	71.3694	7,464.84	63.3022	7,464.84	64.8371	7,464.84	58.3411	7,464.84	55.8362	7,464.84	57.4617	7,464.84	52.9689	7,464.84	57.1053	7,464.84	63.9556	7,464.84	56.0745	7,464.84	56.8187	7,464.84	57.293	7,464.84	39.5286	7,464.84	55.18	7,464.84	42.3652	7,464.84	55.0064	7,464.84	50.8009	7,464.84	40.0901	7,464.84	51.2546	7,464.84	50.5814
7,727.05	80.3545	7,727.05	80.2994	7,727.05	80.2876	7,727.05	79.8425	7,727.05	81.0094	7,727.05	79.7812	7,727.05	80.6989	7,727.05	78.9666	7,727.05	78.767	7,727.05	76.4299	7,727.05	75.5771	7,727.05	74.3037	7,727.05	70.022	7,727.05	70.0153	7,727.05	70.6866	7,727.05	67.562	7,727.05	73.0298	7,727.05	64.0807	7,727.05	65.4069	7,727.05	60.1574	7,727.05	62.9548	7,727.05	59.0788	7,727.05	57.7219	7,727.05	58.3986	7,727.05	62.9486	7,727.05	55.8827	7,727.05	58.9659	7,727.05	57.3336	7,727.05	49.3547	7,727.05	56.6225	7,727.05	48.0674	7,727.05	56.2386	7,727.05	48.7377	7,727.05	40.2058	7,727.05	52.1598	7,727.05	50.7025
7,999.51	79.0193	7,999.51	79.1284	7,999.51	78.6349	7,999.51	79.5353	7,999.51	80.0693	7,999.51	80.2261	7,999.51	79.678	7,999.51	78.9157	7,999.51	78.4067	7,999.51	77.3979	7,999.51	75.2042	7,999.51	74.6949	7,999.51	70.2404	7,999.51	70.699	7,999.51	73.7978	7,999.51	66.4865	7,999.51	72.2463	7,999.51	64.077	7,999.51	66.6012	7,999.51	60.307	7,999.51	64.6442	7,999.51	57.9573	7,999.51	58.3476	7,999.51	56.1577	7,999.51	62.8048	7,999.51	57.1428	7,999.51	56.1498	7,999.51	58.2979	7,999.51	51.9827	7,999.51	58.5405	7,999.51	47.4554	7,999.51	54.8337	7,999.51	48.5326	7,999.51	41.8739	7,999.51	49.8734	7,999.51	53.6274
8,282.23	78.6249	8,282.23	79.8805	8,282.23	78.7427	8,282.23	80.8621	8,282.23	80.1101	8,282.23	80.1558	8,282.23	79.7209	8,282.23	79.4189	8,282.23	78.3198	8,282.23	77.7331	8,282.23	74.6475	8,282.23	75.0608	8,282.23	72.9367	8,282.23	71.3541	8,282.23	73.9747	8,282.23	68.4473	8,282.23	70.839	8,282.23	65.4883	8,282.23	66.4919	8,282.23	61.0453	8,282.23	64.6668	8,282.23	59.1917	8,282.23	60.3205	8,282.23	58.3897	8,282.23	62.2297	8,282.23	57.6541	8,282.23	56.1711	8,282.23	58.9486	8,282.23	49.93	8,282.23	59.8112	8,282.23	46.86	8,282.23	56.6903	8,282.23	42.9939	8,282.23	49.5516	8,282.23	47.1673	8,282.23	54.6539
8,573.73	79.8187	8,573.73	81.2399	8,573.73	80.5913	8,573.73	81.5578	8,573.73	80.8993	8,573.73	80.5015	8,573.73	79.8553	8,573.73	80.0285	8,573.73	79.0208	8,573.73	77.6849	8,573.73	76.4276	8,573.73	75.877	8,573.73	74.7126	8,573.73	72.9483	8,573.73	72.9857	8,573.73	69.8716	8,573.73	68.5047	8,573.73	65.6988	8,573.73	62.8303	8,573.73	61.2484	8,573.73	61.8405	8,573.73	59.0664	8,573.73	64.6094	8,573.73	55.9953	8,573.73	61.8027	8,573.73	58.6326	8,573.73	47.8189	8,573.73	59.2719	8,573.73	27.883	8,573.73	58.7616	8,573.73	37.2534	8,573.73	57.1055	8,573.73	46.6991	8,573.73	36.3943	8,573.73	47.5476	8,573.73	53.5682
8,876.95	80.4055	8,876.95	81.6459	8,876.95	81.3664	8,876.95	81.6848	8,876.95	81.4655	8,876.95	81.273	8,876.95	80.9936	8,876.95	79.6098	8,876.95	79.8947	8,876.95	77.8351	8,876.95	77.7199	8,876.95	75.7226	8,876.95	75.5608	8,876.95	73.0476	8,876.95	69.4562	8,876.95	68.9991	8,876.95	60.9251	8,876.95	65.0038	8,876.95	59.0863	8,876.95	60.1367	8,876.95	58.8244	8,876.95	60.6341	8,876.95	65.5301	8,876.95	52.9209	8,876.95	57.4921	8,876.95	57.408	8,876.95	52.7779	8,876.95	58.9564	8,876.95	51.8565	8,876.95	57.9625	8,876.95	35.6019	8,876.95	53.4369	8,876.95	50.4806	8,876.95	39.8015	8,876.95	40.6072	8,876.95	51.8483
9,188.96	81.953	9,188.96	82.2911	9,188.96	82.5422	9,188.96	82.477	9,188.96	82.1144	9,188.96	81.626	9,188.96	81.2747	9,188.96	79.3965	9,188.96	79.3997	9,188.96	77.2243	9,188.96	76.6113	9,188.96	74.271	9,188.96	73.6889	9,188.96	71.5568	9,188.96	66.4219	9,188.96	68.0646	9,188.96	60.8226	9,188.96	63.0558	9,188.96	62.8849	9,188.96	58.2452	9,188.96	61.6106	9,188.96	58.6342	9,188.96	62.2723	9,188.96	53.653	9,188.96	50.0816	9,188.96	55.872	9,188.96	48.6296	9,188.96	57.1512	9,188.96	45.9692	9,188.96	55.4402	9,188.96	43.3957	9,188.96	53.6135	9,188.96	52.6293	9,188.96	43.1833	9,188.96	34.1947	9,188.96	51.1311
9,514.16	82.3213	9,514.16	82.5182	9,514.16	82.6805	9,514.16	82.425	9,514.16	82.0317	9,514.16	81.3368	9,514.16	80.792	9,514.16	79.1517	9,514.16	77.6255	9,514.16	76.1326	9,514.16	75.0077	9,514.16	73.0862	9,514.16	69.3587	9,514.16	69.6805	9,514.16	64.5903	9,514.16	65.4922	9,514.16	61.0744	9,514.16	60.9526	9,514.16	61.7908	9,514.16	55.5079	9,514.16	60.8035	9,514.16	56.0653	9,514.16	59.3696	9,514.16	51.4796	9,514.16	53.6265	9,514.16	53.8703	9,514.16	44.0732	9,514.16	55.2441	9,514.16	47.0514	9,514.16	55.8716	9,514.16	42.6943	9,514.16	51.8078	9,514.16	50.3017	9,514.16	37.0559	9,514.16	35.8624	9,514.16	49.1352
9,849.61	82.4425	9,849.61	82.7118	9,849.61	82.439	9,849.61	81.9255	9,849.61	81.498	9,849.61	80.6631	9,849.61	80.079	9,849.61	78.2186	9,849.61	76.6926	9,849.61	75.5032	9,849.61	74.4147	9,849.61	72.2125	9,849.61	67.233	9,849.61	68.2304	9,849.61	66.4576	9,849.61	63.7253	9,849.61	59.4518	9,849.61	59.2782	9,849.61	58.0033	9,849.61	52.4106	9,849.61	54.8214	9,849.61	54.1146	9,849.61	57.3212	9,849.61	52.0059	9,849.61	55.3199	9,849.61	53.298	9,849.61	42.8961	9,849.61	51.1755	9,849.61	47.1478	9,849.61	55.075	9,849.61	38.6567	9,849.61	48.3577	9,849.61	50.2007	9,849.61	39.3394	9,849.61	33.9481	9,849.61	50.0002
10,196.8	82.2683	10,196.8	82.4694	10,196.8	81.964	10,196.8	81.4283	10,196.8	80.8046	10,196.8	80.0785	10,196.8	79.3815	10,196.8	77.7887	10,196.8	75.6108	10,196.8	76.0551	10,196.8	73.1081	10,196.8	73.2549	10,196.8	65.5637	10,196.8	68.9219	10,196.8	65.3301	10,196.8	63.9052	10,196.8	58.1201	10,196.8	59.7564	10,196.8	55.5279	10,196.8	54.9306	10,196.8	55.7742	10,196.8	54.3807	10,196.8	59.5963	10,196.8	53.3354	10,196.8	57.3913	10,196.8	51.314	10,196.8	49.0724	10,196.8	51.7561	10,196.8	47.406	10,196.8	55.9118	10,196.8	40.2116	10,196.8	45.0016	10,196.8	50.21	10,196.8	48.1304	10,196.8	34.9689	10,196.8	51.3887
10,555.7	82.8269	10,555.7	82.3968	10,555.7	82.2122	10,555.7	81.6126	10,555.7	81.0613	10,555.7	80.326	10,555.7	80.0421	10,555.7	78.7382	10,555.7	77.3966	10,555.7	76.6439	10,555.7	74.3458	10,555.7	74.5886	10,555.7	69.112	10,555.7	69.2729	10,555.7	67.9161	10,555.7	64.6419	10,555.7	60.1292	10,555.7	59.8321	10,555.7	56.1306	10,555.7	56.6834	10,555.7	52.7942	10,555.7	54.7874	10,555.7	60.0634	10,555.7	52.5741	10,555.7	57.8383	10,555.7	49.8588	10,555.7	42.0388	10,555.7	52.3378	10,555.7	45.8211	10,555.7	56.4717	10,555.7	40.311	10,555.7	45.5772	10,555.7	46.3551	10,555.7	50.0062	10,555.7	38.0122	10,555.7	51.5313
10,927.7	84.377	10,927.7	83.7923	10,927.7	83.8207	10,927.7	82.7766	10,927.7	82.6614	10,927.7	81.0609	10,927.7	81.0618	10,927.7	78.436	10,927.7	78.4207	10,927.7	75.7236	10,927.7	74.2566	10,927.7	72.6075	10,927.7	70.1602	10,927.7	66.6687	10,927.7	67.5882	10,927.7	61.1027	10,927.7	58.8654	10,927.7	56.6851	10,927.7	60.0601	10,927.7	53.4313	10,927.7	50.3971	10,927.7	52.0374	10,927.7	59.6309	10,927.7	50.1984	10,927.7	55.8261	10,927.7	43.2296	10,927.7	45.0125	10,927.7	52.7875	10,927.7	42.0683	10,927.7	53.1719	10,927.7	40.1133	10,927.7	38.193	10,927.7	40.0982	10,927.7	46.3411	10,927.7	34.7178	10,927.7	48.0948
11,313	84.8723	11,313	84.0561	11,313	84.3802	11,313	82.776	11,313	82.9746	11,313	80.4143	11,313	80.9041	11,313	77.08	11,313	77.9136	11,313	73.9329	11,313	73.5046	11,313	69.8955	11,313	68.7256	11,313	64.0666	11,313	65.4055	11,313	60.2932	11,313	51.3999	11,313	55.4565	11,313	57.6202	11,313	53.9307	11,313	52.6807	11,313	49.1613	11,313	60.8673	11,313	49.5289	11,313	58.8896	11,313	36.394	11,313	39.6401	11,313	52.0564	11,313	51.2529	11,313	51.37	11,313	36.9022	11,313	32.7735	11,313	40.8323	11,313	47.952	11,313	40.5844	11,313	48.2433
11,712.9	85.0124	11,712.9	84.2694	11,712.9	84.3761	11,712.9	82.8135	11,712.9	82.8726	11,712.9	80.0591	11,712.9	80.3451	11,712.9	76.9777	11,712.9	77.2625	11,712.9	73.0117	11,712.9	71.9704	11,712.9	69.761	11,712.9	65.5299	11,712.9	63.5653	11,712.9	60.8294	11,712.9	59.553	11,712.9	51.1298	11,712.9	53.2461	11,712.9	56.1718	11,712.9	52.4763	11,712.9	51.9066	11,712.9	46.1685	11,712.9	62.2765	11,712.9	44.4642	11,712.9	58.8292	11,712.9	40.9956	11,712.9	46.3281	11,712.9	52.4644	11,712.9	48.5432	11,712.9	49.8698	11,712.9	43.392	11,712.9	35.7544	11,712.9	43.3217	11,712.9	46.424	11,712.9	46.7083	11,712.9	46.331
12,126	84.7496	12,126	84.0552	12,126	83.6803	12,126	82.1644	12,126	82.1055	12,126	79.5356	12,126	79.6057	12,126	76.5346	12,126	76.2514	12,126	72.1537	12,126	70.1239	12,126	67.3022	12,126	66.8032	12,126	62.095	12,126	57.0517	12,126	56.2551	12,126	59.6025	12,126	52.4262	12,126	55.1804	12,126	47.3885	12,126	54.6141	12,126	47.1154	12,126	63.7365	12,126	40.0784	12,126	58.8622	12,126	44.9683	12,126	42.4692	12,126	50.1312	12,126	48.476	12,126	47.4799	12,126	43.064	12,126	33.2443	12,126	42.6983	12,126	42.761	12,126	48.1403	12,126	43.8722
12,553.7	84.2285	12,553.7	83.1506	12,553.7	83.1874	12,553.7	81.2138	12,553.7	81.6956	12,553.7	78.7172	12,553.7	79.6934	12,553.7	76.5947	12,553.7	76.4338	12,553.7	70.2498	12,553.7	71.8741	12,553.7	66.7215	12,553.7	69.5758	12,553.7	60.9091	12,553.7	61.6026	12,553.7	55.7493	12,553.7	60.9644	12,553.7	52.2447	12,553.7	56.9215	12,553.7	48.791	12,553.7	53.5923	12,553.7	47.0632	12,553.7	63.8829	12,553.7	46.675	12,553.7	58.7718	12,553.7	46.1549	12,553.7	40.2988	12,553.7	48.5549	12,553.7	47.643	12,553.7	48.0656	12,553.7	43.8045	12,553.7	19.7224	12,553.7	47.1246	12,553.7	40.6128	12,553.7	49.9267	12,553.7	38.3041
12,996.1	83.4561	12,996.1	82.3098	12,996.1	82.6022	12,996.1	80.0843	12,996.1	81.1257	12,996.1	78.2769	12,996.1	78.9818	12,996.1	75.2333	12,996.1	75.7918	12,996.1	70.2499	12,996.1	73.1584	12,996.1	64.4685	12,996.1	70.7171	12,996.1	62.3008	12,996.1	63.4232	12,996.1	57.9697	12,996.1	61.4054	12,996.1	52.9137	12,996.1	55.0869	12,996.1	51.6574	12,996.1	46.3104	12,996.1	47.751	12,996.1	64.2375	12,996.1	52.2998	12,996.1	60.8364	12,996.1	44.9478	12,996.1	43.1127	12,996.1	45.2469	12,996.1	51.9592	12,996.1	47.2552	12,996.1	43.2788	12,996.1	36.719	12,996.1	46.8574	12,996.1	42.578	12,996.1	48.4478	12,996.1	40.0811
13,454.6	82.898	13,454.6	81.8949	13,454.6	81.963	13,454.6	79.3005	13,454.6	80.6168	13,454.6	78.1594	13,454.6	78.819	13,454.6	74.3352	13,454.6	75.7589	13,454.6	71.0807	13,454.6	72.7049	13,454.6	66.9777	13,454.6	68.8449	13,454.6	62.7057	13,454.6	63.6953	13,454.6	59.5934	13,454.6	58.7816	13,454.6	52.3396	13,454.6	48.9238	13,454.6	52.1744	13,454.6	40.6535	13,454.6	42.6053	13,454.6	62.9217	13,454.6	51.0571	13,454.6	62.2753	13,454.6	41.2499	13,454.6	37.1166	13,454.6	44.6369	13,454.6	50.6549	13,454.6	46.0422	13,454.6	35.0879	13,454.6	37.5724	13,454.6	46.5303	13,454.6	42.7379	13,454.6	46.337	13,454.6	41.9977
13,929.2	82.5212	13,929.2	81.5771	13,929.2	81.0918	13,929.2	78.9366	13,929.2	79.8661	13,929.2	77.9722	13,929.2	77.8622	13,929.2	73.4142	13,929.2	74.5765	13,929.2	69.8307	13,929.2	71.0037	13,929.2	64.9213	13,929.2	67.723	13,929.2	61.2373	13,929.2	61.3126	13,929.2	56.5862	13,929.2	57.3278	13,929.2	50.3125	13,929.2	49.9582	13,929.2	49.1964	13,929.2	47.3141	13,929.2	40.2353	13,929.2	62.0017	13,929.2	48.0692	13,929.2	59.6865	13,929.2	40.9139	13,929.2	39.7229	13,929.2	45.1179	13,929.2	45.9483	13,929.2	42.6566	13,929.2	40.8635	13,929.2	33.0852	13,929.2	47.6551	13,929.2	38.2061	13,929.2	50.6631	13,929.2	46.3239
14,419.9	81.9156	14,419.9	80.761	14,419.9	80.3188	14,419.9	78.361	14,419.9	79.3839	14,419.9	77.2236	14,419.9	77.5607	14,419.9	72.7538	14,419.9	74.0608	14,419.9	68.4394	14,419.9	71.1651	14,419.9	65.4067	14,419.9	68.1812	14,419.9	59.2132	14,419.9	57.9851	14,419.9	53.2815	14,419.9	60.5851	14,419.9	45.5014	14,419.9	47.9603	14,419.9	47.9495	14,419.9	47.2684	14,419.9	29.9142	14,419.9	62.1952	14,419.9	47.4634	14,419.9	59.1352	14,419.9	35.8103	14,419.9	43.4557	14,419.9	42.5546	14,419.9	41.6047	14,419.9	40.633	14,419.9	41.6413	14,419.9	33.6772	14,419.9	49.0793	14,419.9	45.2677	14,419.9	51.5425	14,419.9	49.8632
14,928.2	81.6716	14,928.2	80.5082	14,928.2	80.2056	14,928.2	78.7371	14,928.2	79.7585	14,928.2	76.9321	14,928.2	78.0154	14,928.2	73.0648	14,928.2	74.7525	14,928.2	67.8916	14,928.2	72.5207	14,928.2	63.4863	14,928.2	67.4115	14,928.2	58.9017	14,928.2	63.2538	14,928.2	52.693	14,928.2	58.9266	14,928.2	43.3288	14,928.2	42.4037	14,928.2	49.8208	14,928.2	51.0094	14,928.2	24.1864	14,928.2	62.8684	14,928.2	49.5941	14,928.2	59.3903	14,928.2	34.9624	14,928.2	47.8251	14,928.2	42.9689	14,928.2	48.3863	14,928.2	40.6903	14,928.2	42.2797	14,928.2	45.9611	14,928.2	48.7569	14,928.2	49.9047	14,928.2	49.9724	14,928.2	52.761
15,455.6	81.0849	15,455.6	80.2755	15,455.6	80.1261	15,455.6	78.8041	15,455.6	79.7466	15,455.6	76.4925	15,455.6	78.1258	15,455.6	73.0832	15,455.6	74.5112	15,455.6	67.7268	15,455.6	71.4976	15,455.6	63.6495	15,455.6	66.5161	15,455.6	60.4683	15,455.6	64.5128	15,455.6	56.9142	15,455.6	57.7456	15,455.6	49.7614	15,455.6	47.3732	15,455.6	50.3777	15,455.6	51.8712	15,455.6	38.6523	15,455.6	61.4701	15,455.6	49.7332	15,455.6	60.4272	15,455.6	43.8171	15,455.6	48.9992	15,455.6	44.893	15,455.6	49.652	15,455.6	44.1562	15,455.6	45.7032	15,455.6	48.8531	15,455.6	49.2934	15,455.6	51.4113	15,455.6	48.7999	15,455.6	54.3945
16,000.5	79.6321	16,000.5	79.3879	16,000.5	79.328	16,000.5	78.4361	16,000.5	79.5146	16,000.5	76.6702	16,000.5	77.8181	16,000.5	72.5772	16,000.5	74.0602	16,000.5	66.8843	16,000.5	70.9301	16,000.5	63.0203	16,000.5	65.8317	16,000.5	60.698	16,000.5	59.5984	16,000.5	55.985	16,000.5	57.1713	16,000.5	48.4513	16,000.5	42.5467	16,000.5	46.6798	16,000.5	52.6464	16,000.5	43.0893	16,000.5	59.648	16,000.5	47.1741	16,000.5	58.7147	16,000.5	45.0268	16,000.5	47.4212	16,000.5	43.3996	16,000.5	45.2529	16,000.5	42.6571	16,000.5	46.6484	16,000.5	46.7773	16,000.5	52.4478	16,000.5	50.2673	16,000.5	49.9695	16,000.5	55.3216
16,564.5	79.8526	16,564.5	79.8234	16,564.5	79.2535	16,564.5	78.8179	16,564.5	79.4951	16,564.5	76.882	16,564.5	77.2076	16,564.5	71.832	16,564.5	72.8631	16,564.5	66.2038	16,564.5	68.4923	16,564.5	63.6244	16,564.5	59.9722	16,564.5	60.7372	16,564.5	57.4109	16,564.5	56.1475	16,564.5	49.1963	16,564.5	48.1895	16,564.5	31.8272	16,564.5	43.1698	16,564.5	50.9054	16,564.5	44.7081	16,564.5	57.3407	16,564.5	44.9542	16,564.5	56.8548	16,564.5	46.509	16,564.5	47.4292	16,564.5	42.7208	16,564.5	44.7023	16,564.5	45.2237	16,564.5	49.8507	16,564.5	47.3553	16,564.5	54.9477	16,564.5	49.803	16,564.5	48.9289	16,564.5	56.697
17,148.9	83.1209	17,148.9	82.1128	17,148.9	82.5258	17,148.9	79.8849	17,148.9	81.1253	17,148.9	76.6012	17,148.9	76.6633	17,148.9	70.6491	17,148.9	70.0774	17,148.9	65.2534	17,148.9	64.0291	17,148.9	62.035	17,148.9	52.414	17,148.9	59.5695	17,148.9	57.9333	17,148.9	56.3311	17,148.9	54.9935	17,148.9	45.2007	17,148.9	48.0126	17,148.9	40.46	17,148.9	55.4411	17,148.9	45.0576	17,148.9	58.91	17,148.9	44.446	17,148.9	54.8426	17,148.9	46.1282	17,148.9	49.8932	17,148.9	44.7224	17,148.9	49.5854	17,148.9	47.4363	17,148.9	51.3364	17,148.9	50.6214	17,148.9	54.5677	17,148.9	49.3295	17,148.9	45.9017	17,148.9	54.966
17,752.4	83.5842	17,752.4	82.4881	17,752.4	83.3227	17,752.4	79.9316	17,752.4	81.6355	17,752.4	76.1198	17,752.4	76.6293	17,752.4	70.4878	17,752.4	69.8764	17,752.4	64.5148	17,752.4	66.6142	17,752.4	62.8743	17,752.4	59.7572	17,752.4	61.2635	17,752.4	61.3044	17,752.4	58.7383	17,752.4	54.0894	17,752.4	49.0978	17,752.4	52.9636	17,752.4	40.1452	17,752.4	58.855	17,752.4	46.6499	17,752.4	58.2868	17,752.4	44.87	17,752.4	52.7927	17,752.4	48.2406	17,752.4	51.8438	17,752.4	46.1114	17,752.4	53.7618	17,752.4	48.325	17,752.4	52.8501	17,752.4	53.0396	17,752.4	54.7254	17,752.4	53.1763	17,752.4	48.7526	17,752.4	54.398
18,379.4	83.2721	18,379.4	82.2667	18,379.4	83.0676	18,379.4	79.5076	18,379.4	81.2394	18,379.4	75.3677	18,379.4	76.188	18,379.4	70.314	18,379.4	70.1034	18,379.4	64.5354	18,379.4	66.3579	18,379.4	62.0048	18,379.4	62.5002	18,379.4	61.6073	18,379.4	61.1605	18,379.4	58.0028	18,379.4	58.002	18,379.4	48.7978	18,379.4	52.1081	18,379.4	42.8958	18,379.4	59.3568	18,379.4	46.4927	18,379.4	57.7644	18,379.4	45.571	18,379.4	51.6479	18,379.4	47.8182	18,379.4	53.6917	18,379.4	45.5207	18,379.4	55.3645	18,379.4	48.0833	18,379.4	51.5686	18,379.4	53.5558	18,379.4	53.1672	18,379.4	55.204	18,379.4	51.4823	18,379.4	55.2277
19,026.9	82.3938	19,026.9	81.5095	19,026.9	82.2836	19,026.9	78.9832	19,026.9	79.773	19,026.9	74.3528	19,026.9	74.499	19,026.9	68.7686	19,026.9	68.7658	19,026.9	62.9683	19,026.9	63.8138	19,026.9	60.0697	19,026.9	58.6716	19,026.9	58.1513	19,026.9	57.4353	19,026.9	54.3135	19,026.9	54.589	19,026.9	48.3548	19,026.9	50.4037	19,026.9	42.6186	19,026.9	56.6363	19,026.9	46.4402	19,026.9	55.9455	19,026.9	44.7144	19,026.9	52.4539	19,026.9	46.3583	19,026.9	51.5826	19,026.9	43.5412	19,026.9	52.5537	19,026.9	43.9825	19,026.9	49.0609	19,026.9	51.2118	19,026.9	52.83	19,026.9	54.6579	19,026.9	49.8426	19,026.9	55.2267
19,697.8	81.1457	19,697.8	79.9643	19,697.8	81.2166	19,697.8	77.5766	19,697.8	77.9977	19,697.8	72.3068	19,697.8	72.4491	19,697.8	65.429	19,697.8	66.0187	19,697.8	59.7632	19,697.8	61.3908	19,697.8	58.4259	19,697.8	55.0238	19,697.8	54.6857	19,697.8	56.7625	19,697.8	50.415	19,697.8	49.362	19,697.8	47.1808	19,697.8	47.0173	19,697.8	43.7168	19,697.8	54.6844	19,697.8	45.448	19,697.8	54.4219	19,697.8	42.0411	19,697.8	52.3991	19,697.8	47.5795	19,697.8	47.5426	19,697.8	44.1498	19,697.8	49.4781	19,697.8	42.3691	19,697.8	49.1396	19,697.8	48.9407	19,697.8	54.9669	19,697.8	54.2897	19,697.8	48.2068	19,697.8	55.5303
19,999.5	80.8558	19,999.5	79.5622	19,999.5	80.9035	19,999.5	77.0764	19,999.5	77.5811	19,999.5	71.8209	19,999.5	72.0773	19,999.5	63.8427	19,999.5	65.2042	19,999.5	57.4	19,999.5	62.0403	19,999.5	58.0911	19,999.5	57.0979	19,999.5	52.919	19,999.5	50.6505	19,999.5	47.9282	19,999.5	41.7204	19,999.5	46.3212	19,999.5	45.8068	19,999.5	43.5297	19,999.5	54.3469	19,999.5	45.6047	19,999.5	54.6522	19,999.5	45.1041	19,999.5	55.091	19,999.5	50.6947	19,999.5	51.3702	19,999.5	49.6315	19,999.5	45.1474	19,999.5	46.7366	19,999.5	44.6704	19,999.5	43.4765	19,999.5	54.753	19,999.5	54.3785	19,999.5	48.1466	19,999.5	53.6335
