"SPL Horizontal"																																																																							
"On-Axis"		"10°"		"-10°"		"20°"		"-20°"		"30°"		"-30°"		"40°"		"-40°"		"50°"		"-50°"		"60°"		"-60°"		"70°"		"-70°"		"80°"		"-80°"		"90°"		"-90°"		"100°"		"-100°"		"110°"		"-110°"		"120°"		"-120°"		"130°"		"-130°"		"140°"		"-140°"		"150°"		"-150°"		"160°"		"-160°"		"170°"		"-170°"		"180°"	
"Frequency [Hz]"	"Sound Pessure Level [dB]  / [2.83V 1m] "	"Frequency [Hz]"	"Sound Pessure Level [dB]  / [2.83V 1m] "	"Frequency [Hz]"	"Sound Pessure Level [dB]  / [2.83V 1m] "	"Frequency [Hz]"	"Sound Pessure Level [dB]  / [2.83V 1m] "	"Frequency [Hz]"	"Sound Pessure Level [dB]  / [2.83V 1m] "	"Frequency [Hz]"	"Sound Pessure Level [dB]  / [2.83V 1m] "	"Frequency [Hz]"	"Sound Pessure Level [dB]  / [2.83V 1m] "	"Frequency [Hz]"	"Sound Pessure Level [dB]  / [2.83V 1m] "	"Frequency [Hz]"	"Sound Pessure Level [dB]  / [2.83V 1m] "	"Frequency [Hz]"	"Sound Pessure Level [dB]  / [2.83V 1m] "	"Frequency [Hz]"	"Sound Pessure Level [dB]  / [2.83V 1m] "	"Frequency [Hz]"	"Sound Pessure Level [dB]  / [2.83V 1m] "	"Frequency [Hz]"	"Sound Pessure Level [dB]  / [2.83V 1m] "	"Frequency [Hz]"	"Sound Pessure Level [dB]  / [2.83V 1m] "	"Frequency [Hz]"	"Sound Pessure Level [dB]  / [2.83V 1m] "	"Frequency [Hz]"	"Sound Pessure Level [dB]  / [2.83V 1m] "	"Frequency [Hz]"	"Sound Pessure Level [dB]  / [2.83V 1m] "	"Frequency [Hz]"	"Sound Pessure Level [dB]  / [2.83V 1m] "	"Frequency [Hz]"	"Sound Pessure Level [dB]  / [2.83V 1m] "	"Frequency [Hz]"	"Sound Pessure Level [dB]  / [2.83V 1m] "	"Frequency [Hz]"	"Sound Pessure Level [dB]  / [2.83V 1m] "	"Frequency [Hz]"	"Sound Pessure Level [dB]  / [2.83V 1m] "	"Frequency [Hz]"	"Sound Pessure Level [dB]  / [2.83V 1m] "	"Frequency [Hz]"	"Sound Pessure Level [dB]  / [2.83V 1m] "	"Frequency [Hz]"	"Sound Pessure Level [dB]  / [2.83V 1m] "	"Frequency [Hz]"	"Sound Pessure Level [dB]  / [2.83V 1m] "	"Frequency [Hz]"	"Sound Pessure Level [dB]  / [2.83V 1m] "	"Frequency [Hz]"	"Sound Pessure Level [dB]  / [2.83V 1m] "	"Frequency [Hz]"	"Sound Pessure Level [dB]  / [2.83V 1m] "	"Frequency [Hz]"	"Sound Pessure Level [dB]  / [2.83V 1m] "	"Frequency [Hz]"	"Sound Pessure Level [dB]  / [2.83V 1m] "	"Frequency [Hz]"	"Sound Pessure Level [dB]  / [2.83V 1m] "	"Frequency [Hz]"	"Sound Pessure Level [dB]  / [2.83V 1m] "	"Frequency [Hz]"	"Sound Pessure Level [dB]  / [2.83V 1m] "	"Frequency [Hz]"	"Sound Pessure Level [dB]  / [2.83V 1m] "	"Frequency [Hz]"	"Sound Pessure Level [dB]  / [2.83V 1m] "
20.5078	49.3935	20.5078	49.2498	20.5078	49.3371	20.5078	48.9236	20.5078	49.0782	20.5078	48.4631	20.5078	48.6313	20.5078	47.9827	20.5078	48.0499	20.5078	47.7089	20.5078	47.4772	20.5078	47.9486	20.5078	47.2063	20.5078	48.8692	20.5078	47.6028	20.5078	50.3186	20.5078	48.7739	20.5078	51.9913	20.5078	50.4365	20.5078	53.6555	20.5078	52.2339	20.5078	55.192	20.5078	53.9515	20.5078	56.5493	20.5078	55.4971	20.5078	57.7054	20.5078	56.837	20.5078	58.6493	20.5078	57.959	20.5078	59.3734	20.5078	58.8573	20.5078	59.8714	20.5078	59.5277	20.5078	60.138	20.5078	59.9663	20.5078	60.17
21.9727	51.9884	21.9727	51.8463	21.9727	51.9518	21.9727	51.5369	21.9727	51.7371	21.9727	51.0946	21.9727	51.359	21.9727	50.602	21.9727	50.8623	21.9727	50.2295	21.9727	50.3555	21.9727	50.2394	21.9727	50.052	21.9727	50.8525	21.9727	50.2398	21.9727	52.0404	21.9727	51.0813	21.9727	53.5549	21.9727	52.4417	21.9727	55.1432	21.9727	54.0322	21.9727	56.6501	21.9727	55.624	21.9727	57.9998	21.9727	57.0945	21.9727	59.1575	21.9727	58.3882	21.9727	60.106	21.9727	59.4809	21.9727	60.8351	21.9727	60.36	21.9727	61.3376	21.9727	61.0176	21.9727	61.6085	21.9727	61.4475	21.9727	61.6452
23.4375	53.8459	23.4375	53.7069	23.4375	53.8128	23.4375	53.4074	23.4375	53.6075	23.4375	52.9793	23.4375	53.2419	23.4375	52.4989	23.4375	52.7538	23.4375	52.1217	23.4375	52.236	23.4375	52.0897	23.4375	51.8772	23.4375	52.6211	23.4375	51.952	23.4375	53.7167	23.4375	52.6572	23.4375	55.1576	23.4375	53.9148	23.4375	56.697	23.4375	55.4539	23.4375	58.1732	23.4375	57.0306	23.4375	59.5032	23.4375	58.5041	23.4375	60.6477	23.4375	59.8078	23.4375	61.5869	23.4375	60.9118	23.4375	62.3092	23.4375	61.801	23.4375	62.8064	23.4375	62.4667	23.4375	63.073	23.4375	62.9028	23.4375	63.1054
24.9023	55.8583	24.9023	55.7766	24.9023	55.8185	24.9023	55.5887	24.9023	55.6589	24.9023	55.3335	24.9023	55.4003	24.9023	55.086	24.9023	55.0926	24.9023	54.9684	24.9023	54.8316	24.9023	55.133	24.9023	54.7659	24.9023	55.6915	24.9023	55.0587	24.9023	56.634	24.9023	55.7895	24.9023	57.8354	24.9023	56.8877	24.9023	59.1393	24.9023	58.1884	24.9023	60.4227	24.9023	59.5331	24.9023	61.6069	24.9023	60.8136	24.9023	62.6453	24.9023	61.9665	24.9023	63.5098	24.9023	62.9559	24.9023	64.182	24.9023	63.7602	24.9023	64.6497	24.9023	64.3652	24.9023	64.9044	24.9023	64.7612	24.9023	64.9419
26.3672	58.2105	26.3672	58.1292	26.3672	58.1908	26.3672	57.9603	26.3672	58.0708	26.3672	57.7363	26.3672	57.8663	26.3672	57.5168	26.3672	57.614	26.3672	57.3966	26.3672	57.3822	26.3672	57.4948	26.3672	57.2772	26.3672	57.9111	26.3672	57.4268	26.3672	58.6647	26.3672	57.9243	26.3672	59.6785	26.3672	58.7656	26.3672	60.8273	26.3672	59.8495	26.3672	61.9945	26.3672	61.0401	26.3672	63.0953	26.3672	62.2221	26.3672	64.0744	26.3672	63.3167	26.3672	64.8965	26.3672	64.2741	26.3672	65.5382	26.3672	65.0629	26.3672	65.9835	26.3672	65.6629	26.3672	66.2221	26.3672	66.0607	26.3672	66.2482
27.832	60.2081	27.832	60.1473	27.832	60.1883	27.832	60.018	27.832	60.0893	27.832	59.8485	27.832	59.9263	27.832	59.689	27.832	59.7333	27.832	59.6148	27.832	59.5688	27.832	59.7182	27.832	59.5184	27.832	60.0783	27.832	59.6803	27.832	60.7201	27.832	60.1266	27.832	61.5962	27.832	60.8602	27.832	62.6128	27.832	61.8105	27.832	63.6701	27.832	62.8714	27.832	64.6868	27.832	63.9429	27.832	65.605	27.832	64.9496	27.832	66.3847	27.832	65.8397	27.832	66.9986	27.832	66.5785	27.832	67.428	27.832	67.1428	27.832	67.6609	27.832	67.5167	27.832	67.6909
29.2969	62.0766	29.2969	62.0237	29.2969	62.0666	29.2969	61.919	29.2969	61.9947	29.2969	61.7881	29.2969	61.8748	29.2969	61.6746	29.2969	61.7365	29.2969	61.6408	29.2969	61.6284	29.2969	61.7605	29.2969	61.6184	29.2969	62.0965	29.2969	61.7825	29.2969	62.6714	29.2969	62.1786	29.2969	63.4529	29.2969	62.8162	29.2969	64.3685	29.2969	63.6487	29.2969	65.334	29.2969	64.5946	29.2969	66.2748	29.2969	65.5685	29.2969	67.1335	29.2969	66.499	29.2969	67.8683	29.2969	67.3329	29.2969	68.4495	29.2969	68.0325	29.2969	68.8566	29.2969	68.5713	29.2969	69.0761	29.2969	68.9314	29.2969	69.1013
30.7617	64.0415	30.7617	64.0054	30.7617	64.0287	30.7617	63.9298	30.7617	63.9678	30.7617	63.8357	30.7617	63.8706	30.7617	63.7577	30.7617	63.7611	30.7617	63.7441	30.7617	63.6783	30.7617	63.8518	30.7617	63.6757	30.7617	64.1318	30.7617	63.8137	30.7617	64.6089	30.7617	64.1419	30.7617	65.2681	30.7617	64.6766	30.7617	66.059	30.7617	65.3903	30.7617	66.9134	30.7617	66.2218	30.7617	67.7639	30.7617	67.0979	30.7617	68.5534	30.7617	67.9509	30.7617	69.2376	30.7617	68.7265	30.7617	69.7836	30.7617	69.3841	30.7617	70.1682	30.7617	69.8943	30.7617	70.3761	30.7617	70.2369	30.7617	70.3993
32.2266	65.8025	32.2266	65.7757	32.2266	65.7982	32.2266	65.7265	32.2266	65.7639	32.2266	65.6736	32.2266	65.7103	32.2266	65.6469	32.2266	65.6587	32.2266	65.6862	32.2266	65.6419	32.2266	65.836	32.2266	65.7025	32.2266	66.1344	32.2266	65.8856	32.2266	66.5987	32.2266	66.2266	32.2266	67.2168	32.2266	66.7363	32.2266	67.9493	32.2266	67.3942	32.2266	68.7412	32.2266	68.1541	32.2266	69.5351	32.2266	68.9577	32.2266	70.2793	32.2266	69.7474	32.2266	70.9309	32.2266	70.4731	32.2266	71.4561	32.2266	71.0944	32.2266	71.8297	32.2266	71.5798	32.2266	72.0342	32.2266	71.9066	32.2266	72.0603
33.6914	67.5108	33.6914	67.4949	33.6914	67.5038	33.6914	67.4635	33.6914	67.4744	33.6914	67.4325	33.6914	67.4318	33.6914	67.4267	33.6914	67.3939	33.6914	67.4785	33.6914	67.3879	33.6914	67.6237	33.6914	67.449	33.6914	67.8939	33.6914	67.615	33.6914	68.3053	33.6914	67.9165	33.6914	68.8519	33.6914	68.3661	33.6914	69.5044	33.6914	68.9511	33.6914	70.218	33.6914	69.6354	33.6914	70.9425	33.6914	70.3697	33.6914	71.6292	33.6914	71.1011	33.6914	72.2361	33.6914	71.781	33.6914	72.7286	33.6914	72.3686	33.6914	73.0799	33.6914	72.8311	33.6914	73.2717	33.6914	73.1447	33.6914	73.2939
35.1563	69.2196	35.1563	69.2134	35.1563	69.2127	35.1563	69.2003	35.1563	69.1938	35.1563	69.1937	35.1563	69.1708	35.1563	69.214	35.1563	69.1593	35.1563	69.2873	35.1563	69.1821	35.1563	69.4424	35.1563	69.2676	35.1563	69.7042	35.1563	69.4453	35.1563	70.0863	35.1563	69.7389	35.1563	70.5846	35.1563	70.158	35.1563	71.1769	35.1563	70.6928	35.1563	71.8267	35.1563	71.315	35.1563	72.4907	35.1563	71.9837	35.1563	73.1252	35.1563	72.6534	35.1563	73.69	35.1563	73.2801	35.1563	74.1514	35.1563	73.8249	35.1563	74.4825	35.1563	74.2556	35.1563	74.6645	35.1563	74.5483	35.1563	74.687
36.6211	70.8481	36.6211	70.845	36.6211	70.8448	36.6211	70.8407	36.6211	70.8358	36.6211	70.8467	36.6211	70.8279	36.6211	70.88	36.6211	70.8342	36.6211	70.9623	36.6211	70.8734	36.6211	71.1173	36.6211	70.9686	36.6211	71.3654	36.6211	71.1439	36.6211	71.7184	36.6211	71.4186	36.6211	72.1739	36.6211	71.8017	36.6211	72.7144	36.6211	72.2865	36.6211	73.3097	36.6211	72.851	36.6211	73.9217	36.6211	73.4612	36.6211	74.5106	36.6211	74.0771	36.6211	75.0382	36.6211	74.658	36.6211	75.4715	36.6211	75.1664	36.6211	75.7837	36.6211	75.5707	36.6211	75.9559	36.6211	75.8464	36.6211	75.9773
38.0859	72.2449	38.0859	72.2476	38.0859	72.2436	38.0859	72.2564	38.0859	72.2444	38.0859	72.2808	38.0859	72.2534	38.0859	72.3353	38.0859	72.2817	38.0859	72.4378	38.0859	72.345	38.0859	72.6074	38.0859	72.4622	38.0859	72.86	38.0859	72.6525	38.0859	73.2046	38.0859	72.931	38.0859	73.6386	38.0859	73.3036	38.0859	74.1472	38.0859	73.7646	38.0859	74.7044	38.0859	74.2949	38.0859	75.2773	38.0859	74.8654	38.0859	75.8298	38.0859	75.4408	38.0859	76.3268	38.0859	75.9842	38.0859	76.7367	38.0859	76.4608	38.0859	77.0335	38.0859	76.8404	38.0859	77.1984	38.0859	77.099	38.0859	77.2208
39.5508	73.7273	39.5508	73.7326	39.5508	73.7291	39.5508	73.7486	39.5508	73.7383	39.5508	73.783	39.5508	73.7595	39.5508	73.8468	39.5508	73.8008	39.5508	73.9537	39.5508	73.8739	39.5508	74.1178	39.5508	73.9929	39.5508	74.3512	39.5508	74.1721	39.5508	74.6609	39.5508	74.4231	39.5508	75.0454	39.5508	74.7514	39.5508	75.4939	39.5508	75.154	39.5508	75.986	39.5508	75.6173	39.5508	76.4947	39.5508	76.1188	39.5508	76.9887	39.5508	76.6293	39.5508	77.4362	39.5508	77.1163	39.5508	77.8074	39.5508	77.5475	39.5508	78.077	39.5508	77.8939	39.5508	78.2264	39.5508	78.1318	39.5508	78.2452
41.0156	74.9085	41.0156	74.916	41.0156	74.9087	41.0156	74.9345	41.0156	74.9169	41.0156	74.9701	41.0156	74.9367	41.0156	75.0319	41.0156	74.9747	41.0156	75.1311	41.0156	75.0408	41.0156	75.2797	41.0156	75.1466	41.0156	75.4882	41.0156	75.3044	41.0156	75.7633	41.0156	75.5246	41.0156	76.105	41.0156	75.8134	41.0156	76.5055	41.0156	76.1696	41.0156	76.9482	41.0156	76.5831	41.0156	77.4096	41.0156	77.0353	41.0156	77.8612	41.0156	77.5007	41.0156	78.2727	41.0156	77.9494	41.0156	78.6151	41.0156	78.3508	41.0156	78.8636	41.0156	78.6764	41.0156	78.9997	41.0156	78.9027	41.0156	79.0132
42.4805	75.8311	42.4805	75.8467	42.4805	75.8268	42.4805	75.8762	42.4805	75.8342	42.4805	75.9246	42.4805	75.8563	42.4805	75.9994	42.4805	75.899	42.4805	76.1097	42.4805	75.9706	42.4805	76.2651	42.4805	76.0809	42.4805	76.4741	42.4805	76.2402	42.4805	76.742	42.4805	76.4573	42.4805	77.0685	42.4805	76.7371	42.4805	77.4467	42.4805	77.0784	42.4805	77.8622	42.4805	77.4722	42.4805	78.2942	42.4805	77.902	42.4805	78.7169	42.4805	78.3444	42.4805	79.1024	42.4805	78.7717	42.4805	79.4234	42.4805	79.1551	42.4805	79.6562	42.4805	79.4671	42.4805	79.7827	42.4805	79.685	42.4805	79.7927
43.9453	76.8076	43.9453	76.8251	43.9453	76.8038	43.9453	76.8582	43.9453	76.8141	43.9453	76.9108	43.9453	76.8409	43.9453	76.9889	43.9453	76.8891	43.9453	77.0995	43.9453	76.9651	43.9453	77.2502	43.9453	77.0768	43.9453	77.4478	43.9453	77.2324	43.9453	77.6965	43.9453	77.4388	43.9453	77.9965	43.9453	77.7	43.9453	78.3421	43.9453	78.015	43.9453	78.7215	43.9453	78.3764	43.9453	79.1168	43.9453	78.77	43.9453	79.5053	43.9453	79.1755	43.9453	79.8615	43.9453	79.5682	43.9453	80.1598	43.9453	79.9212	43.9453	80.3774	43.9453	80.209	43.9453	80.4969	43.9453	80.4098	43.9453	80.5082
45.4102	77.5077	45.4102	77.5268	45.4102	77.5041	45.4102	77.5628	45.4102	77.5163	45.4102	77.6186	45.4102	77.5465	45.4102	77.6989	45.4102	77.5985	45.4102	77.8091	45.4102	77.6776	45.4102	77.9552	45.4102	77.7899	45.4102	78.1425	45.4102	77.942	45.4102	78.3746	45.4102	78.1394	45.4102	78.6515	45.4102	78.3852	45.4102	78.9691	45.4102	78.6784	45.4102	79.3174	45.4102	79.0128	45.4102	79.6811	45.4102	79.376	45.4102	80.04	45.4102	79.7502	45.4102	80.3708	45.4102	80.1129	45.4102	80.6495	45.4102	80.4394	45.4102	80.8543	45.4102	80.7057	45.4102	80.9681	45.4102	80.8912	45.4102	80.9809
46.875	78.0483	46.875	78.0661	46.875	78.0458	46.875	78.1002	46.875	78.0588	46.875	78.1531	46.875	78.0892	46.875	78.2285	46.875	78.1401	46.875	78.331	46.875	78.216	46.875	78.4658	46.875	78.322	46.875	78.6374	46.875	78.4636	46.875	78.8492	46.875	78.6456	46.875	79.1017	46.875	78.8707	46.875	79.3915	46.875	79.1384	46.875	79.7105	46.875	79.4436	46.875	80.0451	46.875	79.7758	46.875	80.3769	46.875	80.1192	46.875	80.6844	46.875	80.4533	46.875	80.9447	46.875	80.7552	46.875	81.1369	46.875	81.0023	46.875	81.2444	46.875	81.1744	46.875	81.2574
48.3398	78.3679	48.3398	78.3857	48.3398	78.3711	48.3398	78.4256	48.3398	78.3957	48.3398	78.4893	48.3398	78.4427	48.3398	78.5793	48.3398	78.5142	48.3398	78.6989	48.3398	78.6132	48.3398	78.8512	48.3398	78.7429	48.3398	79.0392	48.3398	78.9065	48.3398	79.2642	48.3398	79.1067	48.3398	79.5255	48.3398	79.3443	48.3398	79.8189	48.3398	79.6176	48.3398	80.1362	48.3398	79.9212	48.3398	80.465	48.3398	80.2453	48.3398	80.7883	48.3398	80.5755	48.3398	81.0865	48.3398	80.8937	48.3398	81.3387	48.3398	81.1793	48.3398	81.5254	48.3398	81.4114	48.3398	81.6313	48.3398	81.5718	48.3398	81.6473
51.2695	79.2762	51.2695	79.2976	51.2695	79.2771	51.2695	79.3415	51.2695	79.3005	51.2695	79.4085	51.2695	79.3468	51.2695	79.4995	51.2695	79.4168	51.2695	79.6155	51.2695	79.5116	51.2695	79.7576	51.2695	79.6326	51.2695	79.9267	51.2695	79.7809	51.2695	80.1231	51.2695	79.9573	51.2695	80.3455	51.2695	80.162	51.2695	80.591	51.2695	80.3932	51.2695	80.8537	51.2695	80.6471	51.2695	81.1244	51.2695	80.9165	51.2695	81.3905	51.2695	81.1909	51.2695	81.6362	51.2695	81.4563	51.2695	81.8444	51.2695	81.6959	51.2695	81.9984	51.2695	81.8923	51.2695	82.0849	51.2695	82.0295	51.2695	82.0956
52.7344	79.5732	52.7344	79.5944	52.7344	79.5754	52.7344	79.6388	52.7344	79.6009	52.7344	79.7065	52.7344	79.65	52.7344	79.7977	52.7344	79.7229	52.7344	79.9126	52.7344	79.8198	52.7344	80.0513	52.7344	79.9411	52.7344	80.2141	52.7344	80.087	52.7344	80.4005	52.7344	80.2576	52.7344	80.6094	52.7344	80.4522	52.7344	80.838	52.7344	80.6692	52.7344	81.0814	52.7344	80.9051	52.7344	81.3317	52.7344	81.1538	52.7344	81.5781	52.7344	81.4064	52.7344	81.8063	52.7344	81.6504	52.7344	82.0005	52.7344	81.8711	52.7344	82.1451	52.7344	82.0521	52.7344	82.2272	52.7344	82.1785	52.7344	82.2387
54.1992	79.8777	54.1992	79.8988	54.1992	79.8801	54.1992	79.9431	54.1992	79.9059	54.1992	80.0105	54.1992	79.9552	54.1992	80.1004	54.1992	80.0277	54.1992	80.2125	54.1992	80.123	54.1992	80.3464	54.1992	80.2409	54.1992	80.5014	54.1992	80.381	54.1992	80.6769	54.1992	80.5427	54.1992	80.8715	54.1992	80.7251	54.1992	81.0826	54.1992	80.9264	54.1992	81.306	54.1992	81.1436	54.1992	81.5348	54.1992	81.3714	54.1992	81.7596	54.1992	81.6021	54.1992	81.9678	54.1992	81.825	54.1992	82.1452	54.1992	82.0265	54.1992	82.2774	54.1992	82.192	54.1992	82.3525	54.1992	82.3077	54.1992	82.363
55.6641	80.1475	55.6641	80.1689	55.6641	80.1506	55.6641	80.2145	55.6641	80.1781	55.6641	80.2834	55.6641	80.2299	55.6641	80.3749	55.6641	80.3052	55.6641	80.488	55.6641	80.4031	55.6641	80.6213	55.6641	80.5227	55.6641	80.7739	55.6641	80.6628	55.6641	80.9443	55.6641	80.8222	55.6641	81.1308	55.6641	80.9993	55.6641	81.3309	55.6641	81.192	55.6641	81.5406	55.6641	81.3972	55.6641	81.754	55.6641	81.6104	55.6641	81.9628	55.6641	81.8246	55.6641	82.1558	55.6641	82.0303	55.6641	82.3202	55.6641	82.2158	55.6641	82.443	55.6641	82.3678	55.6641	82.5132	55.6641	82.4737	55.6641	82.5238
58.5938	80.6948	58.5938	80.7162	58.5938	80.6978	58.5938	80.7613	58.5938	80.725	58.5938	80.829	58.5938	80.7759	58.5938	80.9175	58.5938	80.849	58.5938	81.0248	58.5938	80.9428	58.5938	81.1488	58.5938	81.0552	58.5938	81.2872	58.5938	81.184	58.5938	81.438	58.5938	81.3272	58.5938	81.5989	58.5938	81.4825	58.5938	81.7676	58.5938	81.6476	58.5938	81.941	58.5938	81.82	58.5938	82.115	58.5938	81.996	58.5938	82.2837	58.5938	82.1708	58.5938	82.4389	58.5938	82.3375	58.5938	82.5711	58.5938	82.4872	58.5938	82.6701	58.5938	82.6097	58.5938	82.7267	58.5938	82.6951	58.5938	82.7354
60.0586	80.9498	60.0586	80.9695	60.0586	80.9539	60.0586	81.0122	60.0586	80.9816	60.0586	81.0768	60.0586	81.032	60.0586	81.1611	60.0586	81.1037	60.0586	81.263	60.0586	81.1946	60.0586	81.3799	60.0586	81.3022	60.0586	81.5094	60.0586	81.4242	60.0586	81.6489	60.0586	81.5579	60.0586	81.7963	60.0586	81.7009	60.0586	81.9493	60.0586	81.8511	60.0586	82.1052	60.0586	82.0059	60.0586	82.2606	60.0586	82.1625	60.0586	82.4106	60.0586	82.3168	60.0586	82.5484	60.0586	82.4634	60.0586	82.6657	60.0586	82.5948	60.0586	82.7537	60.0586	82.7024	60.0586	82.8043	60.0586	82.7773	60.0586	82.8124
62.9883	81.4889	62.9883	81.5091	62.9883	81.4931	62.9883	81.553	62.9883	81.5216	62.9883	81.6187	62.9883	81.5734	62.9883	81.7038	62.9883	81.6463	62.9883	81.8052	62.9883	81.7378	62.9883	81.9196	62.9883	81.8447	62.9883	82.0435	62.9883	81.9635	62.9883	82.174	62.9883	82.0911	62.9883	82.3082	62.9883	82.2242	62.9883	82.4436	62.9883	82.3601	62.9883	82.578	62.9883	82.4963	62.9883	82.7089	62.9883	82.6305	62.9883	82.8329	62.9883	82.7597	62.9883	82.9455	62.9883	82.8801	62.9883	83.0408	62.9883	82.9866	62.9883	83.1121	62.9883	83.073	62.9883	83.1533	62.9883	83.1328	62.9883	83.1605
64.4531	81.6744	64.4531	81.6936	64.4531	81.6799	64.4531	81.7367	64.4531	81.7101	64.4531	81.8016	64.4531	81.7635	64.4531	81.8858	64.4531	81.8381	64.4531	81.9857	64.4531	81.9307	64.4531	82.0978	64.4531	82.038	64.4531	82.2182	64.4531	82.1561	64.4531	82.3436	64.4531	82.2812	64.4531	82.4708	64.4531	82.4098	64.4531	82.5975	64.4531	82.5389	64.4531	82.7213	64.4531	82.666	64.4531	82.8403	64.4531	82.7886	64.4531	82.9519	64.4531	82.9045	64.4531	83.0527	64.4531	83.0107	64.4531	83.1379	64.4531	83.1032	64.4531	83.2021	64.4531	83.1771	64.4531	83.2403	64.4531	83.2271	64.4531	83.2489
67.3828	81.9144	67.3828	81.9319	67.3828	81.9214	67.3828	81.9731	67.3828	81.9529	67.3828	82.0359	67.3828	82.0073	67.3828	82.1169	67.3828	82.0821	67.3828	82.2125	67.3828	82.1738	67.3828	82.3184	67.3828	82.2784	67.3828	82.4301	67.3828	82.3913	67.3828	82.5437	67.3828	82.5082	67.3828	82.6556	67.3828	82.625	67.3828	82.7631	67.3828	82.7381	67.3828	82.8644	67.3828	82.8448	67.3828	82.9582	67.3828	82.9433	67.3828	83.0434	67.3828	83.032	67.3828	83.1186	67.3828	83.1097	67.3828	83.1817	67.3828	83.1747	67.3828	83.2297	67.3828	83.2246	67.3828	83.2595	67.3828	83.2568	67.3828	83.2688
68.8477	81.9564	68.8477	81.9741	68.8477	81.9626	68.8477	82.0145	68.8477	81.9924	68.8477	82.0755	68.8477	82.0443	68.8477	82.1538	68.8477	82.1157	68.8477	82.2455	68.8477	82.2031	68.8477	82.3461	68.8477	82.3022	68.8477	82.4512	68.8477	82.4085	68.8477	82.5563	68.8477	82.5175	68.8477	82.6581	68.8477	82.6248	68.8477	82.7537	68.8477	82.7269	68.8477	82.8415	68.8477	82.8213	68.8477	82.9206	68.8477	82.9061	68.8477	82.9907	68.8477	82.9807	68.8477	83.0513	68.8477	83.0444	68.8477	83.1014	68.8477	83.0966	68.8477	83.1393	68.8477	83.136	68.8477	83.1628	68.8477	83.1611	68.8477	83.1703
71.7773	82.2774	71.7773	82.2902	71.7773	82.2867	71.7773	82.3242	71.7773	82.3177	71.7773	82.3772	71.7773	82.3688	71.7773	82.4459	71.7773	82.4372	71.7773	82.5263	71.7773	82.5191	71.7773	82.6138	71.7773	82.6102	71.7773	82.7036	71.7773	82.7054	71.7773	82.7913	71.7773	82.8	71.7773	82.8732	71.7773	82.8896	71.7773	82.9466	71.7773	82.9704	71.7773	83.0099	71.7773	83.04	71.7773	83.0629	71.7773	83.0972	71.7773	83.1067	71.7773	83.142	71.7773	83.1424	71.7773	83.1754	71.7773	83.1712	71.7773	83.1988	71.7773	83.1938	71.7773	83.2135	71.7773	83.2098	71.7773	83.22	71.7773	83.2187
74.707	82.5925	74.707	82.5978	74.707	82.6092	74.707	82.6244	74.707	82.6477	74.707	82.6698	74.707	82.7061	74.707	82.7308	74.707	82.7814	74.707	82.803	74.707	82.8695	74.707	82.8818	74.707	82.9653	74.707	82.9622	74.707	83.0634	74.707	83.0398	74.707	83.1583	74.707	83.1108	74.707	83.245	74.707	83.1724	74.707	83.3191	74.707	83.2238	74.707	83.3778	74.707	83.2651	74.707	83.4198	74.707	83.2983	74.707	83.4456	74.707	83.3258	74.707	83.4569	74.707	83.35	74.707	83.4567	74.707	83.3727	74.707	83.448	74.707	83.3944	74.707	83.4334	74.707	83.415
77.6367	82.4834	77.6367	82.4999	77.6367	82.4889	77.6367	82.5371	77.6367	82.5162	77.6367	82.5924	77.6367	82.5639	77.6367	82.662	77.6367	82.629	77.6367	82.7414	77.6367	82.7075	77.6367	82.8255	77.6367	82.7944	77.6367	82.9087	77.6367	82.8839	77.6367	82.9859	77.6367	82.9703	77.6367	83.0527	77.6367	83.048	77.6367	83.1058	77.6367	83.1126	77.6367	83.1436	77.6367	83.1609	77.6367	83.1663	77.6367	83.1917	77.6367	83.176	77.6367	83.206	77.6367	83.1762	77.6367	83.2067	77.6367	83.1714	77.6367	83.1984	77.6367	83.166	77.6367	83.186	77.6367	83.1636	77.6367	83.1742	77.6367	83.1662
79.1016	82.4926	79.1016	82.5179	79.1016	82.4876	79.1016	82.562	79.1016	82.5029	79.1016	82.6222	79.1016	82.5375	79.1016	82.6946	79.1016	82.5886	79.1016	82.7745	79.1016	82.6526	79.1016	82.8566	79.1016	82.7249	79.1016	82.9354	79.1016	82.7999	79.1016	83.0054	79.1016	82.8722	79.1016	83.0621	79.1016	82.9366	79.1016	83.1021	79.1016	82.9886	79.1016	83.1238	79.1016	83.0253	79.1016	83.1277	79.1016	83.0459	79.1016	83.1165	79.1016	83.0515	79.1016	83.0947	79.1016	83.0457	79.1016	83.0681	79.1016	83.0335	79.1016	83.0426	79.1016	83.0206	79.1016	83.0231	79.1016	83.0125	79.1016	83.0128
82.0313	82.757	82.0313	82.7892	82.0313	82.7428	82.0313	82.8378	82.0313	82.7469	82.0313	82.9002	82.0313	82.768	82.0313	82.9721	82.0313	82.8038	82.0313	83.0488	82.0313	82.8506	82.0313	83.1244	82.0313	82.9041	82.0313	83.1931	82.0313	82.959	82.0313	83.2491	82.0313	83.0101	82.0313	83.2876	82.0313	83.0523	82.0313	83.3049	82.0313	83.0815	82.0313	83.2996	82.0313	83.0952	82.0313	83.2727	82.0313	83.0927	82.0313	83.2279	82.0313	83.0762	82.0313	83.1716	82.0313	83.0503	82.0313	83.1119	82.0313	83.0215	82.0313	83.0572	82.0313	82.9975	82.0313	83.0152	82.0313	82.9855	82.0313	82.9908
84.9609	82.9405	84.9609	82.9621	84.9609	82.9371	84.9609	83.0009	84.9609	82.9516	84.9609	83.0539	84.9609	82.9822	84.9609	83.1172	84.9609	83.0258	84.9609	83.1853	84.9609	83.0779	84.9609	83.2522	84.9609	83.1334	84.9609	83.3112	84.9609	83.1866	84.9609	83.3562	84.9609	83.2319	84.9609	83.3819	84.9609	83.2639	84.9609	83.3846	84.9609	83.2788	84.9609	83.3632	84.9609	83.2741	84.9609	83.3196	84.9609	83.25	84.9609	83.2589	84.9609	83.2094	84.9609	83.1893	84.9609	83.1579	84.9609	83.1206	84.9609	83.1034	84.9609	83.063	84.9609	83.0553	84.9609	83.0247	84.9609	83.0221	84.9609	83.0108
87.8906	82.6606	87.8906	82.6629	87.8906	82.6812	87.8906	82.6874	87.8906	82.7236	87.8906	82.7316	87.8906	82.7852	87.8906	82.7915	87.8906	82.8617	87.8906	82.8617	87.8906	82.9478	87.8906	82.9358	87.8906	83.0372	87.8906	83.0069	87.8906	83.1233	87.8906	83.0683	87.8906	83.1994	87.8906	83.1143	87.8906	83.2594	87.8906	83.1412	87.8906	83.2985	87.8906	83.1475	87.8906	83.3138	87.8906	83.1346	87.8906	83.3046	87.8906	83.1073	87.8906	83.2734	87.8906	83.0727	87.8906	83.2251	87.8906	83.0396	87.8906	83.1673	87.8906	83.0166	87.8906	83.1089	87.8906	83.0105	87.8906	83.059	87.8906	83.0248
90.8203	81.7412	90.8203	81.7022	90.8203	81.8205	90.8203	81.7043	90.8203	81.9378	90.8203	81.7461	90.8203	82.0889	90.8203	81.8246	90.8203	82.2681	90.8203	81.9351	90.8203	82.468	90.8203	82.0711	90.8203	82.6798	90.8203	82.2251	90.8203	82.8941	90.8203	82.389	90.8203	83.101	90.8203	82.5548	90.8203	83.2909	90.8203	82.7154	90.8203	83.4555	90.8203	82.8655	90.8203	83.5879	90.8203	83.0019	90.8203	83.6839	90.8203	83.1237	90.8203	83.7418	90.8203	83.232	90.8203	83.7629	90.8203	83.3297	90.8203	83.7512	90.8203	83.4197	90.8203	83.7127	90.8203	83.5043	90.8203	83.6546	90.8203	83.5834
95.2148	83.5744	95.2148	83.6141	95.2148	83.5427	95.2148	83.6596	95.2148	83.5199	95.2148	83.7076	95.2148	83.5058	95.2148	83.754	95.2148	83.4986	95.2148	83.7934	95.2148	83.4953	95.2148	83.82	95.2148	83.4918	95.2148	83.8279	95.2148	83.4828	95.2148	83.811	95.2148	83.4628	95.2148	83.7643	95.2148	83.426	95.2148	83.6846	95.2148	83.368	95.2148	83.5712	95.2148	83.2861	95.2148	83.4272	95.2148	83.1809	95.2148	83.2602	95.2148	83.057	95.2148	83.0828	95.2148	82.9242	95.2148	82.9118	95.2148	82.7966	95.2148	82.766	95.2148	82.6917	95.2148	82.6631	95.2148	82.6268	95.2148	82.6154
98.1445	82.7746	98.1445	82.8128	98.1445	82.7541	98.1445	82.8674	98.1445	82.7514	98.1445	82.9355	98.1445	82.7654	98.1445	83.013	98.1445	82.7936	98.1445	83.0946	98.1445	82.8322	98.1445	83.1736	98.1445	82.8761	98.1445	83.2425	98.1445	82.9191	98.1445	83.2938	98.1445	82.9546	98.1445	83.3203	98.1445	82.9759	98.1445	83.3165	98.1445	82.9777	98.1445	83.2792	98.1445	82.9565	98.1445	83.2088	98.1445	82.9122	98.1445	83.1101	98.1445	82.8487	98.1445	82.9926	98.1445	82.774	98.1445	82.8697	98.1445	82.7002	98.1445	82.7572	98.1445	82.6416	98.1445	82.6703	98.1445	82.6117	98.1445	82.6203
101.074	82.9966	101.074	83.0111	101.074	82.9954	101.074	83.0379	101.074	83.0079	101.074	83.0751	101.074	83.0331	101.074	83.1195	101.074	83.0693	101.074	83.1672	101.074	83.1133	101.074	83.2131	101.074	83.1606	101.074	83.2512	101.074	83.2057	101.074	83.2755	101.074	83.2421	101.074	83.28	101.074	83.2632	101.074	83.2604	101.074	83.2632	101.074	83.2145	101.074	83.2381	101.074	83.1438	101.074	83.1866	101.074	83.0539	101.074	83.1115	101.074	82.9545	101.074	83.0195	101.074	82.859	101.074	82.9216	101.074	82.7819	101.074	82.8315	101.074	82.7362	101.074	82.7636	101.074	82.7298
105.469	83.0164	105.469	83.0522	105.469	82.9943	105.469	83.1	105.469	82.987	105.469	83.157	105.469	82.9943	105.469	83.2195	105.469	83.0151	105.469	83.2826	105.469	83.0468	105.469	83.3407	105.469	83.0857	105.469	83.3876	105.469	83.1266	105.469	83.4171	105.469	83.1634	105.469	83.4237	105.469	83.1896	105.469	83.4033	105.469	83.1992	105.469	83.3544	105.469	83.1874	105.469	83.2791	105.469	83.1524	105.469	83.1831	105.469	83.0958	105.469	83.0766	105.469	83.0235	105.469	82.9725	105.469	82.9454	105.469	82.8853	105.469	82.8745	105.469	82.8274	105.469	82.8246	105.469	82.8069
108.398	83.1377	108.398	83.1699	108.398	83.1156	108.398	83.2118	108.398	83.1035	108.398	83.262	108.398	83.1007	108.398	83.3181	108.398	83.106	108.398	83.3763	108.398	83.1173	108.398	83.4312	108.398	83.1316	108.398	83.4763	108.398	83.145	108.398	83.5044	108.398	83.1523	108.398	83.5086	108.398	83.1484	108.398	83.483	108.398	83.1282	108.398	83.4246	108.398	83.0885	108.398	83.3337	108.398	83.0284	108.398	83.2156	108.398	82.9511	108.398	83.0805	108.398	82.8639	108.398	82.9428	108.398	82.7787	108.398	82.8195	108.398	82.7098	108.398	82.7268	108.398	82.672	108.398	82.6762
112.793	83.3818	112.793	83.3692	112.793	83.4014	112.793	83.3647	112.793	83.4268	112.793	83.3683	112.793	83.4564	112.793	83.3793	112.793	83.488	112.793	83.3956	112.793	83.5191	112.793	83.4133	112.793	83.5464	112.793	83.4274	112.793	83.5656	112.793	83.4314	112.793	83.5719	112.793	83.4191	112.793	83.5602	112.793	83.3848	112.793	83.5257	112.793	83.3253	112.793	83.4653	112.793	83.241	112.793	83.3786	112.793	83.1368	112.793	83.2687	112.793	83.0229	112.793	83.1435	112.793	82.9137	112.793	83.0153	112.793	82.8258	112.793	82.9	112.793	82.7744	112.793	82.8137	112.793	82.7696
117.188	83.413	117.188	83.382	117.188	83.449	117.188	83.3561	117.188	83.4893	117.188	83.3353	117.188	83.5329	117.188	83.3184	117.188	83.5781	117.188	83.3037	117.188	83.6223	117.188	83.2883	117.188	83.6619	117.188	83.2684	117.188	83.6923	117.188	83.2394	117.188	83.708	117.188	83.1971	117.188	83.703	117.188	83.138	117.188	83.6717	117.188	83.0612	117.188	83.6098	117.188	82.9694	117.188	83.5155	117.188	82.8694	117.188	83.391	117.188	82.7726	117.188	83.2427	117.188	82.6933	117.188	83.0826	117.188	82.6467	117.188	82.9262	117.188	82.6451	117.188	82.7914	117.188	82.6942
120.117	83.4183	120.117	83.3923	120.117	83.4514	120.117	83.3727	120.117	83.4916	120.117	83.3581	120.117	83.5383	120.117	83.3466	120.117	83.5898	120.117	83.3353	120.117	83.643	120.117	83.3208	120.117	83.6939	120.117	83.2992	120.117	83.737	120.117	83.2662	120.117	83.7658	120.117	83.2184	120.117	83.7737	120.117	83.1538	120.117	83.7543	120.117	83.0731	120.117	83.7027	120.117	82.9804	120.117	83.6168	120.117	82.8838	120.117	83.4981	120.117	82.7951	120.117	83.3529	120.117	82.7285	120.117	83.1924	120.117	82.6979	120.117	83.0317	120.117	82.7132	120.117	82.8883	120.117	82.7782
124.512	83.0916	124.512	83.1326	124.512	83.0584	124.512	83.1792	124.512	83.0352	124.512	83.2279	124.512	83.0229	124.512	83.275	124.512	83.0216	124.512	83.3155	124.512	83.0293	124.512	83.3436	124.512	83.0426	124.512	83.3528	124.512	83.0558	124.512	83.3366	124.512	83.0614	124.512	83.289	124.512	83.0513	124.512	83.2061	124.512	83.0179	124.512	83.0871	124.512	82.9554	124.512	82.9361	124.512	82.8617	124.512	82.7625	124.512	82.7398	124.512	82.5818	124.512	82.5985	124.512	82.4138	124.512	82.4525	124.512	82.28	124.512	82.3208	124.512	82.1985	124.512	82.224	124.512	82.1798
128.906	82.7333	128.906	82.7611	128.906	82.7123	128.906	82.7954	128.906	82.6975	128.906	82.8351	128.906	82.688	128.906	82.8777	128.906	82.6824	128.906	82.9188	128.906	82.6783	128.906	82.9524	128.906	82.6725	128.906	82.9706	128.906	82.6602	128.906	82.965	128.906	82.6358	128.906	82.9273	128.906	82.5929	128.906	82.8514	128.906	82.5259	128.906	82.7343	128.906	82.4311	128.906	82.5781	128.906	82.3084	128.906	82.391	128.906	82.163	128.906	82.1877	128.906	82.0061	128.906	81.9887	128.906	81.8548	128.906	81.8173	128.906	81.73	128.906	81.6956	128.906	81.6528	128.906	81.6391
133.301	82.6099	133.301	82.619	133.301	82.6086	133.301	82.6362	133.301	82.6143	133.301	82.6614	133.301	82.6264	133.301	82.6937	133.301	82.6439	133.301	82.7302	133.301	82.6648	133.301	82.7662	133.301	82.6861	133.301	82.7952	133.301	82.7032	133.301	82.8094	133.301	82.7101	133.301	82.8006	133.301	82.7003	133.301	82.7624	133.301	82.6676	133.301	82.691	133.301	82.608	133.301	82.5872	133.301	82.5205	133.301	82.4575	133.301	82.4091	133.301	82.3137	133.301	82.2829	133.301	82.1727	133.301	82.1562	133.301	82.0535	133.301	82.0465	133.301	81.9738	133.301	81.9717	133.301	81.9454
139.16	82.5806	139.16	82.5791	139.16	82.5835	139.16	82.5798	139.16	82.5879	139.16	82.5839	139.16	82.5944	139.16	82.5921	139.16	82.6039	139.16	82.6045	139.16	82.6169	139.16	82.6192	139.16	82.6325	139.16	82.6326	139.16	82.6483	139.16	82.6393	139.16	82.6598	139.16	82.6331	139.16	82.6613	139.16	82.6081	139.16	82.6466	139.16	82.5608	139.16	82.6108	139.16	82.4911	139.16	82.5517	139.16	82.4034	139.16	82.4712	139.16	82.3068	139.16	82.3758	139.16	82.2139	139.16	82.2763	139.16	82.1387	139.16	82.1862	139.16	82.0937	139.16	82.1194	139.16	82.0867
143.555	82.5614	143.555	82.5585	143.555	82.5617	143.555	82.5537	143.555	82.5595	143.555	82.5479	143.555	82.5554	143.555	82.542	143.555	82.5505	143.555	82.5361	143.555	82.5452	143.555	82.5288	143.555	82.5388	143.555	82.5169	143.555	82.5291	143.555	82.4957	143.555	82.5122	143.555	82.4598	143.555	82.4827	143.555	82.4042	143.555	82.4354	143.555	82.3262	143.555	82.3662	143.555	82.2267	143.555	82.2742	143.555	82.1108	143.555	82.1628	143.555	81.9886	143.555	82.04	143.555	81.8734	143.555	81.9186	143.555	81.7799	143.555	81.8136	143.555	81.7216	143.555	81.7395	143.555	81.7073
147.949	82.5168	147.949	82.5037	147.949	82.5232	147.949	82.4848	147.949	82.5231	147.949	82.4612	147.949	82.5176	147.949	82.4342	147.949	82.508	147.949	82.4044	147.949	82.4956	147.949	82.371	147.949	82.4804	147.949	82.3316	147.949	82.4611	147.949	82.2825	147.949	82.4342	147.949	82.2193	147.949	82.3949	147.949	82.1388	147.949	82.3379	147.949	82.0399	147.949	82.259	147.949	81.9254	147.949	82.1568	147.949	81.8024	147.949	82.0338	147.949	81.682	147.949	81.8975	147.949	81.5778	147.949	81.7599	147.949	81.5031	147.949	81.6354	147.949	81.4688	147.949	81.5384	147.949	81.4807
153.809	82.5502	153.809	82.554	153.809	82.5359	153.809	82.5478	153.809	82.5116	153.809	82.5326	153.809	82.4781	153.809	82.5089	153.809	82.4372	153.809	82.4767	153.809	82.3905	153.809	82.4344	153.809	82.3386	153.809	82.3789	153.809	82.2813	153.809	82.306	153.809	82.216	153.809	82.2114	153.809	82.139	153.809	82.0917	153.809	82.0459	153.809	81.9467	153.809	81.9332	153.809	81.7807	153.809	81.8002	153.809	81.6029	153.809	81.6506	153.809	81.4276	153.809	81.4929	153.809	81.2717	153.809	81.3404	153.809	81.1523	153.809	81.209	153.809	81.0826	153.809	81.1146	153.809	81.0701
159.668	82.6339	159.668	82.6254	159.668	82.6306	159.668	82.6061	159.668	82.6155	159.668	82.5777	159.668	82.589	159.668	82.5417	159.668	82.5523	159.668	82.4987	159.668	82.5062	159.668	82.448	159.668	82.4506	159.668	82.3869	159.668	82.3843	159.668	82.311	159.668	82.3046	159.668	82.2154	159.668	82.208	159.668	82.0962	159.668	82.0916	159.668	81.9522	159.668	81.9537	159.668	81.7867	159.668	81.7965	159.668	81.6084	159.668	81.6261	159.668	81.4306	159.668	81.4538	159.668	81.27	159.668	81.294	159.668	81.1431	159.668	81.1628	159.668	81.0637	159.668	81.0748	159.668	81.0402
165.527	82.5876	165.527	82.5824	165.527	82.5816	165.527	82.5667	165.527	82.565	165.527	82.5416	165.527	82.5387	165.527	82.5084	165.527	82.5042	165.527	82.4676	165.527	82.4628	165.527	82.4186	165.527	82.4146	165.527	82.3591	165.527	82.3581	165.527	82.2858	165.527	82.2905	165.527	82.1948	165.527	82.2075	165.527	82.0833	165.527	82.1056	165.527	81.9508	165.527	81.9827	165.527	81.8009	165.527	81.8405	165.527	81.6413	165.527	81.685	165.527	81.4841	165.527	81.5271	165.527	81.3434	165.527	81.3807	165.527	81.2332	165.527	81.2605	165.527	81.1652	165.527	81.1796	165.527	81.1466
171.387	82.544	171.387	82.5236	171.387	82.5517	171.387	82.4918	171.387	82.5462	171.387	82.4513	171.387	82.5286	171.387	82.4047	171.387	82.5007	171.387	82.3542	171.387	82.4644	171.387	82.3001	171.387	82.4204	171.387	82.2412	171.387	82.3682	171.387	82.1743	171.387	82.3054	171.387	82.0956	171.387	82.2283	171.387	82.0022	171.387	82.1335	171.387	81.8934	171.387	82.0193	171.387	81.7722	171.387	81.8873	171.387	81.6453	171.387	81.7442	171.387	81.522	171.387	81.6004	171.387	81.4132	171.387	81.4693	171.387	81.329	171.387	81.3637	171.387	81.2775	171.387	81.2938	171.387	81.2648
177.246	82.5495	177.246	82.5333	177.246	82.5469	177.246	82.4986	177.246	82.527	177.246	82.4473	177.246	82.4923	177.246	82.3817	177.246	82.4466	177.246	82.3046	177.246	82.3935	177.246	82.218	177.246	82.3356	177.246	82.123	177.246	82.2738	177.246	82.0192	177.246	82.2068	177.246	81.906	177.246	82.131	177.246	81.7832	177.246	82.0423	177.246	81.6529	177.246	81.9376	177.246	81.5202	177.246	81.8165	177.246	81.3931	177.246	81.6826	177.246	81.2816	177.246	81.5437	177.246	81.1953	177.246	81.4103	177.246	81.1416	177.246	81.2937	177.246	81.1247	177.246	81.2033	177.246	81.1457
183.105	82.5123	183.105	82.51	183.105	82.4921	183.105	82.486	183.105	82.4509	183.105	82.4418	183.105	82.3913	183.105	82.3803	183.105	82.3175	183.105	82.3039	183.105	82.234	183.105	82.2149	183.105	82.145	183.105	82.1142	183.105	82.0534	183.105	82.002	183.105	81.9601	183.105	81.8783	183.105	81.8643	183.105	81.7445	183.105	81.7639	183.105	81.6042	183.105	81.6575	183.105	81.4639	183.105	81.5454	183.105	81.3327	183.105	81.4308	183.105	81.2197	183.105	81.32	183.105	81.1324	183.105	81.2204	183.105	81.0749	183.105	81.1392	183.105	81.0479	183.105	81.0817	183.105	81.0507
188.965	82.6727	188.965	82.6693	188.965	82.6497	188.965	82.6408	188.965	82.6004	188.965	82.5896	188.965	82.5267	188.965	82.5186	188.965	82.4316	188.965	82.4305	188.965	82.3194	188.965	82.3272	188.965	82.1944	188.965	82.2098	188.965	82.0607	188.965	82.0787	188.965	81.9213	188.965	81.9345	188.965	81.7789	188.965	81.7796	188.965	81.6359	188.965	81.6189	188.965	81.4954	188.965	81.4606	188.965	81.3622	188.965	81.3146	188.965	81.2422	188.965	81.1908	188.965	81.1414	188.965	81.0954	188.965	81.0644	188.965	81.03	188.965	81.0123	188.965	80.992	188.965	80.9841	188.965	80.9774
196.289	82.9388	196.289	82.9072	196.289	82.9426	196.289	82.8504	196.289	82.918	196.289	82.7722	196.289	82.8662	196.289	82.6771	196.289	82.7894	196.289	82.5695	196.289	82.6907	196.289	82.4522	196.289	82.5728	196.289	82.3265	196.289	82.4374	196.289	82.1919	196.289	82.2858	196.289	82.0478	196.289	82.1186	196.289	81.8948	196.289	81.9381	196.289	81.7359	196.289	81.7488	196.289	81.5776	196.289	81.5592	196.289	81.428	196.289	81.3813	196.289	81.2954	196.289	81.2285	196.289	81.1853	196.289	81.1119	196.289	81.1001	196.289	81.0373	196.289	81.0403	196.289	81.0041	196.289	81.007
203.613	82.8922	203.613	82.851	203.613	82.8986	203.613	82.7761	203.613	82.8714	203.613	82.6709	203.613	82.8144	203.613	82.5408	203.613	82.7325	203.613	82.3923	203.613	82.6313	203.613	82.2323	203.613	82.5158	203.613	82.0665	203.613	82.3891	203.613	81.8996	203.613	82.2527	203.613	81.7354	203.613	82.1064	203.613	81.578	203.613	81.9509	203.613	81.4327	203.613	81.7888	203.613	81.3063	203.613	81.6262	203.613	81.2053	203.613	81.4726	203.613	81.1336	203.613	81.3385	203.613	81.0905	203.613	81.2321	203.613	81.071	203.613	81.1562	203.613	81.0689	203.613	81.1079	203.613	81.0807
210.938	83.041	210.938	83.0131	210.938	83.0287	210.938	82.9456	210.938	82.9782	210.938	82.8403	210.938	82.8932	210.938	82.7005	210.938	82.7795	210.938	82.5304	210.938	82.6444	210.938	82.3349	210.938	82.4954	210.938	82.1191	210.938	82.3393	210.938	81.8892	210.938	82.1805	210.938	81.653	210.938	82.0212	210.938	81.4212	210.938	81.8624	210.938	81.208	210.938	81.7052	210.938	81.0295	210.938	81.5532	210.938	80.9005	210.938	81.4118	210.938	80.8288	210.938	81.2871	210.938	80.8119	210.938	81.1821	210.938	80.8373	210.938	81.0951	210.938	80.8887	210.938	81.0204	210.938	80.952
218.262	83.2055	218.262	83.1857	218.262	83.1871	218.262	83.1285	218.262	83.1312	218.262	83.0361	218.262	83.0401	218.262	82.9117	218.262	82.9181	218.262	82.7591	218.262	82.7706	218.262	82.5826	218.262	82.6042	218.262	82.3866	218.262	82.4259	218.262	82.1763	218.262	82.2424	218.262	81.958	218.262	82.0591	218.262	81.7403	218.262	81.881	218.262	81.5346	218.262	81.7127	218.262	81.3542	218.262	81.5592	218.262	81.2122	218.262	81.4264	218.262	81.1168	218.262	81.3185	218.262	81.0679	218.262	81.2368	218.262	81.0571	218.262	81.1776	218.262	81.0714	218.262	81.1338	218.262	81.0989
225.586	83.4454	225.586	83.4435	225.586	83.4031	225.586	83.3982	225.586	83.3169	225.586	83.3118	225.586	83.1894	225.586	83.187	225.586	83.025	225.586	83.0272	225.586	82.83	225.586	82.836	225.586	82.613	225.586	82.6179	225.586	82.3841	225.586	82.3797	225.586	82.1549	225.586	82.1313	225.586	81.9384	225.586	81.8873	225.586	81.7473	225.586	81.6667	225.586	81.5931	225.586	81.4896	225.586	81.4836	225.586	81.3716	225.586	81.4207	225.586	81.317	225.586	81.3985	225.586	81.3161	225.586	81.4038	225.586	81.348	225.586	81.4193	225.586	81.3886	225.586	81.428	225.586	81.4184
232.91	83.8289	232.91	83.8089	232.91	83.804	232.91	83.7481	232.91	83.7313	232.91	83.6515	232.91	83.61	232.91	83.5239	232.91	83.4405	232.91	83.3693	232.91	83.225	232.91	83.1902	232.91	82.967	232.91	82.9881	232.91	82.6721	232.91	82.7649	232.91	82.349	232.91	82.5249	232.91	82.0116	232.91	82.2767	232.91	81.681	232.91	82.0346	232.91	81.3853	232.91	81.8165	232.91	81.1547	232.91	81.6394	232.91	81.013	232.91	81.5119	232.91	80.9662	232.91	81.4296	232.91	80.9991	232.91	81.3751	232.91	81.0806	232.91	81.3254	232.91	81.1766	232.91	81.2615
241.699	83.9872	241.699	83.9167	241.699	84.0086	241.699	83.8006	241.699	83.9797	241.699	83.6441	241.699	83.901	241.699	83.4541	241.699	83.7745	241.699	83.238	241.699	83.603	241.699	83.0033	241.699	83.3896	241.699	82.7572	241.699	83.1374	241.699	82.507	241.699	82.8504	241.699	82.2614	241.699	82.5354	241.699	82.0322	241.699	82.205	241.699	81.8338	241.699	81.8807	241.699	81.6806	241.699	81.593	241.699	81.5807	241.699	81.3753	241.699	81.5304	241.699	81.2515	241.699	81.5132	241.699	81.2237	241.699	81.5042	241.699	81.2687	241.699	81.4797	241.699	81.3485	241.699	81.4265
250.488	84.3167	250.488	84.2596	250.488	84.3238	250.488	84.1544	250.488	84.2798	250.488	84.0035	250.488	84.1844	250.488	83.8104	250.488	84.0381	250.488	83.5793	250.488	83.8429	250.488	83.3155	250.488	83.6024	250.488	83.026	250.488	83.3227	250.488	82.7201	250.488	83.013	250.488	82.4103	250.488	82.686	250.488	82.1134	250.488	82.3583	250.488	81.8496	250.488	82.0503	250.488	81.6396	250.488	81.7844	250.488	81.4983	250.488	81.5808	250.488	81.4269	250.488	81.4516	250.488	81.4108	250.488	81.3943	250.488	81.4234	250.488	81.3909	250.488	81.437	250.488	81.4133	250.488	81.434
259.277	84.5689	259.277	84.5122	259.277	84.5793	259.277	84.4096	259.277	84.5437	259.277	84.2626	259.277	84.4628	259.277	84.0735	259.277	84.3371	259.277	83.8458	259.277	84.1662	259.277	83.5837	259.277	83.9493	259.277	83.2934	259.277	83.6858	259.277	82.984	259.277	83.3779	259.277	82.6697	259.277	83.0341	259.277	82.3705	259.277	82.6724	259.277	82.1106	259.277	82.3222	259.277	81.9128	259.277	82.0201	259.277	81.7899	259.277	81.7997	259.277	81.7376	259.277	81.677	259.277	81.7355	259.277	81.6431	259.277	81.7541	259.277	81.6683	259.277	81.7657	259.277	81.7152	259.277	81.7531
268.066	84.3593	268.066	84.2899	268.066	84.3771	268.066	84.1688	268.066	84.3446	268.066	83.9983	268.066	84.2637	268.066	83.7836	268.066	84.1355	268.066	83.5327	268.066	83.9603	268.066	83.2552	268.066	83.7374	268.066	82.9613	268.066	83.4666	268.066	82.661	268.066	83.1498	268.066	82.3657	268.066	82.795	268.066	82.0913	268.066	82.4199	268.066	81.8594	268.066	82.0549	268.066	81.6942	268.066	81.7411	268.066	81.611	268.066	81.5198	268.066	81.6046	268.066	81.415	268.066	81.6463	268.066	81.4199	268.066	81.6949	268.066	81.4982	268.066	81.713	268.066	81.5999	268.066	81.6804
276.855	84.5449	276.855	84.558	276.855	84.4803	276.855	84.5084	276.855	84.3767	276.855	84.3867	276.855	84.2466	276.855	84.1852	276.855	84.0996	276.855	83.8989	276.855	83.9393	276.855	83.527	276.855	83.7623	276.855	83.076	276.855	83.5599	276.855	82.5655	276.855	83.3223	276.855	82.0327	276.855	83.0451	276.855	81.5344	276.855	82.7354	276.855	81.1373	276.855	82.4142	276.855	80.8951	276.855	82.1146	276.855	80.8229	276.855	81.8713	276.855	80.8898	276.855	81.7049	276.855	81.0373	276.855	81.6112	276.855	81.2063	276.855	81.5632	276.855	81.3542	276.855	81.5235	276.855	81.46
287.109	84.4597	287.109	84.4517	287.109	84.4107	287.109	84.3955	287.109	84.2984	287.109	84.2988	287.109	84.1231	287.109	84.1647	287.109	83.8926	287.109	83.9891	287.109	83.6215	287.109	83.7619	287.109	83.3274	287.109	83.4698	287.109	83.026	287.109	83.1032	287.109	82.7268	287.109	82.664	287.109	82.4335	287.109	82.1757	287.109	82.1481	287.109	81.6894	287.109	81.8772	287.109	81.2785	287.109	81.6359	287.109	81.0115	287.109	81.445	287.109	80.914	287.109	81.3208	287.109	80.9519	287.109	81.2632	287.109	81.0558	287.109	81.2514	287.109	81.1601	287.109	81.2508	287.109	81.227
297.363	84.2975	297.363	84.188	297.363	84.3526	297.363	84.0403	297.363	84.3363	297.363	83.8692	297.363	84.2322	297.363	83.6874	297.363	84.0267	297.363	83.5026	297.363	83.7125	297.363	83.3136	297.363	83.2928	297.363	83.1081	297.363	82.7838	297.363	82.8665	297.363	82.2173	297.363	82.5716	297.363	81.6415	297.363	82.2228	297.363	81.119	297.363	81.8484	297.363	80.7195	297.363	81.5079	297.363	80.5016	297.363	81.2726	297.363	80.4866	297.363	81.1853	297.363	80.6426	297.363	81.2295	297.363	80.8943	297.363	81.3377	297.363	81.1539	297.363	81.4297	297.363	81.3503	297.363	81.4438
307.617	84.4849	307.617	84.4099	307.617	84.519	307.617	84.2884	307.617	84.5176	307.617	84.1172	307.617	84.4825	307.617	83.8966	307.617	84.4092	307.617	83.6308	307.617	84.2856	307.617	83.3285	307.617	84.0948	307.617	83.0012	307.617	83.8192	307.617	82.6625	307.617	83.4471	307.617	82.3271	307.617	82.9791	307.617	82.0109	307.617	82.435	307.617	81.7329	307.617	81.8596	307.617	81.5152	307.617	81.3248	307.617	81.3761	307.617	80.9175	307.617	81.3179	307.617	80.7063	307.617	81.3175	307.617	80.7013	307.617	81.3295	307.617	80.8435	307.617	81.304	307.617	81.0394	307.617	81.2073
319.336	84.2623	319.336	84.223	319.336	84.241	319.336	84.1222	319.336	84.1622	319.336	83.9595	319.336	84.0315	319.336	83.7343	319.336	83.8553	319.336	83.4442	319.336	83.6385	319.336	83.0861	319.336	83.3815	319.336	82.66	319.336	83.081	319.336	82.1747	319.336	82.733	319.336	81.656	319.336	82.3417	319.336	81.1531	319.336	81.9277	319.336	80.7358	319.336	81.5336	319.336	80.4746	319.336	81.2163	319.336	80.4059	319.336	81.0241	319.336	80.5078	319.336	80.9694	319.336	80.7104	319.336	81.019	319.336	80.9305	319.336	81.1114	319.336	81.1018	319.336	81.1834	319.336	81.1878
329.59	84.2362	329.59	84.1859	329.59	84.2359	329.59	84.086	329.59	84.1856	329.59	83.9386	329.59	84.0876	329.59	83.7444	329.59	83.9443	329.59	83.5003	329.59	83.7563	329.59	83.1986	329.59	83.5195	329.59	82.8285	329.59	83.2244	329.59	82.3826	329.59	82.8591	329.59	81.8693	329.59	82.4161	329.59	81.3259	329.59	81.9051	329.59	80.8266	329.59	81.3669	329.59	80.4659	329.59	80.8795	329.59	80.3107	329.59	80.5388	329.59	80.3534	329.59	80.4061	329.59	80.516	329.59	80.4621	329.59	80.6994	329.59	80.6182	329.59	80.8257	329.59	80.7724	329.59	80.8522
341.309	83.6045	341.309	83.5851	341.309	83.5623	341.309	83.509	341.309	83.4583	341.309	83.3833	341.309	83.2983	341.309	83.2138	341.309	83.0938	341.309	83.0007	341.309	82.859	341.309	82.7368	341.309	82.6067	341.309	82.409	341.309	82.3425	341.309	82.0053	341.309	82.0642	341.309	81.5283	341.309	81.7659	341.309	81.0118	341.309	81.4505	341.309	80.533	341.309	81.1423	341.309	80.2006	341.309	80.89	341.309	80.1006	341.309	80.7486	341.309	80.2314	341.309	80.7444	341.309	80.5013	341.309	80.8498	341.309	80.7916	341.309	80.995	341.309	81.0123	341.309	81.1034	341.309	81.1182
353.027	83.7312	353.027	83.6729	353.027	83.7281	353.027	83.5619	353.027	83.6549	353.027	83.4047	353.027	83.5041	353.027	83.2034	353.027	83.2696	353.027	82.9538	353.027	82.9474	353.027	82.6458	353.027	82.5357	353.027	82.2663	353.027	82.0365	353.027	81.8068	353.027	81.4588	353.027	81.2743	353.027	80.8266	353.027	80.7049	353.027	80.1903	353.027	80.1749	353.027	79.6382	353.027	79.7918	353.027	79.2846	353.027	79.6466	353.027	79.2145	353.027	79.7484	353.027	79.4146	353.027	80.0085	353.027	79.773	353.027	80.296	353.027	80.1477	353.027	80.4993	353.027	80.4279	353.027	80.551
366.211	83.963	366.211	83.8587	366.211	84.0009	366.211	83.6898	366.211	83.9741	366.211	83.4615	366.211	83.885	366.211	83.1822	366.211	83.7346	366.211	82.8592	366.211	83.5194	366.211	82.4926	366.211	83.2296	366.211	82.0704	366.211	82.8467	366.211	81.5713	366.211	82.3451	366.211	80.9789	366.211	81.6991	366.211	80.3081	366.211	80.8979	366.211	79.6368	366.211	79.9767	366.211	79.1135	366.211	79.0625	366.211	78.889	366.211	78.3945	366.211	78.9893	366.211	78.2031	366.211	79.2812	366.211	78.4789	366.211	79.5791	366.211	78.9725	366.211	79.7431	366.211	79.4268	366.211	79.6986
379.395	83.9056	379.395	83.8789	379.395	83.8964	379.395	83.8162	379.395	83.8524	379.395	83.7163	379.395	83.7762	379.395	83.5734	379.395	83.6682	379.395	83.3746	379.395	83.5223	379.395	83.1016	379.395	83.3234	379.395	82.734	379.395	83.0485	379.395	82.257	379.395	82.6731	379.395	81.67	379.395	82.1807	379.395	80.9993	379.395	81.5775	379.395	80.3127	379.395	80.9087	379.395	79.7234	379.395	80.2682	379.395	79.3565	379.395	79.7782	379.395	79.2692	379.395	79.5251	379.395	79.3971	379.395	79.5001	379.395	79.602	379.395	79.6102	379.395	79.7599	379.395	79.742	379.395	79.8075
392.578	83.3088	392.578	83.2245	392.578	83.3393	392.578	83.1032	392.578	83.3092	392.578	82.967	392.578	83.2229	392.578	82.8322	392.578	83.0932	392.578	82.6971	392.578	82.9335	392.578	82.5358	392.578	82.748	392.578	82.304	392.578	82.5222	392.578	81.9553	392.578	82.2226	392.578	81.4628	392.578	81.8078	392.578	80.8414	392.578	81.2491	392.578	80.1703	392.578	80.5613	392.578	79.5977	392.578	79.8421	392.578	79.2884	392.578	79.2881	392.578	79.3085	392.578	79.1025	392.578	79.5672	392.578	79.3026	392.578	79.8922	392.578	79.6889	392.578	80.1311	392.578	80.0294	392.578	80.1887
405.762	83.5833	405.762	83.4758	405.762	83.5935	405.762	83.2795	405.762	83.5075	405.762	83.0133	405.762	83.3341	405.762	82.7045	405.762	83.0868	405.762	82.3784	405.762	82.7812	405.762	82.0446	405.762	82.4298	405.762	81.6845	405.762	82.0353	405.762	81.2565	405.762	81.5862	405.762	80.7197	405.762	81.0599	405.762	80.0701	405.762	80.4416	405.762	79.3808	405.762	79.7574	405.762	78.8194	405.762	79.113	405.762	78.5812	405.762	78.6919	405.762	78.7273	405.762	78.6431	405.762	79.1167	405.762	78.93	405.762	79.5329	405.762	79.3536	405.762	79.814	405.762	79.7104	405.762	79.8787
420.41	83.7928	420.41	83.6939	420.41	83.8327	420.41	83.5407	420.41	83.8155	420.41	83.3438	420.41	83.7492	420.41	83.1168	420.41	83.6437	420.41	82.8695	420.41	83.5021	420.41	82.5985	420.41	83.3117	420.41	82.2762	420.41	83.0379	420.41	81.8515	420.41	82.6257	420.41	81.2673	420.41	82.0113	420.41	80.496	420.41	81.1413	420.41	79.5925	420.41	80.0106	420.41	78.7506	420.41	78.7396	420.41	78.27	420.41	77.6791	420.41	78.3141	420.41	77.3071	420.41	78.7165	420.41	77.701	420.41	79.1645	420.41	78.4234	420.41	79.4309	420.41	79.0548	420.41	79.4052
435.059	83.4896	435.059	83.4236	435.059	83.4814	435.059	83.2858	435.059	83.41	435.059	83.0876	435.059	83.2999	435.059	82.8446	435.059	83.1844	435.059	82.5693	435.059	83.0907	435.059	82.2634	435.059	83.0201	435.059	81.9105	435.059	82.9347	435.059	81.4732	435.059	82.7636	435.059	80.903	435.059	82.4236	435.059	80.1689	435.059	81.8428	435.059	79.3107	435.059	80.9883	435.059	78.5097	435.059	79.9108	435.059	78.0798	435.059	78.8226	435.059	78.2115	435.059	78.1197	435.059	78.7203	435.059	78.0975	435.059	79.2482	435.059	78.5812	435.059	79.5456	435.059	79.15	435.059	79.511
451.172	83.7394	451.172	83.6653	451.172	83.7338	451.172	83.532	451.172	83.6462	451.172	83.3755	451.172	83.4907	451.172	83.2353	451.172	83.2954	451.172	83.1293	451.172	83.0945	451.172	83.0308	451.172	82.9132	451.172	82.8645	451.172	82.7444	451.172	82.5266	451.172	82.5356	451.172	81.9124	451.172	82.197	451.172	80.9438	451.172	81.6291	451.172	79.6157	451.172	80.7611	451.172	78.1181	451.172	79.6119	451.172	77.0166	451.172	78.4069	451.172	76.9514	451.172	77.6555	451.172	77.7197	451.172	77.7507	451.172	78.6045	451.172	78.3978	451.172	79.1844	451.172	79.031	451.172	79.3281
465.82	83.4787	465.82	83.3565	465.82	83.4716	465.82	83.1223	465.82	83.3423	465.82	82.8222	465.82	83.123	465.82	82.5327	465.82	82.8735	465.82	82.3417	465.82	82.6723	465.82	82.2939	465.82	82.5819	465.82	82.337	465.82	82.5979	465.82	82.3298	465.82	82.6268	465.82	82.1015	465.82	82.52	465.82	81.5019	465.82	82.1262	465.82	80.4274	465.82	81.3257	465.82	78.8732	465.82	80.059	465.82	77.1291	465.82	78.4142	465.82	76.0694	465.82	76.8589	465.82	76.3776	465.82	76.2685	465.82	77.322	465.82	76.8158	465.82	78.008	465.82	77.6492	465.82	78.1198
483.398	83.7967	483.398	83.6287	483.398	83.7738	483.398	83.29	483.398	83.5535	483.398	82.8222	483.398	83.1475	483.398	82.3056	483.398	82.6007	483.398	81.8693	483.398	82.0142	483.398	81.6483	483.398	81.5495	483.398	81.6735	483.398	81.3586	483.398	81.8071	483.398	81.4463	483.398	81.8174	483.398	81.6289	483.398	81.4887	483.398	81.6514	483.398	80.6629	483.398	81.3003	483.398	79.2467	483.398	80.437	483.398	77.2815	483.398	79.0202	483.398	75.2457	483.398	77.2313	483.398	74.328	483.398	75.7435	483.398	74.8859	483.398	75.3801	483.398	75.7235	483.398	75.7973	483.398	76.0566
499.512	84.457	499.512	84.3174	499.512	84.421	499.512	83.9955	499.512	84.2096	499.512	83.487	499.512	83.8168	499.512	82.8105	499.512	83.2396	499.512	82.0431	499.512	82.5	499.512	81.3577	499.512	81.6798	499.512	80.983	499.512	80.9489	499.512	81.0099	499.512	80.5105	499.512	81.2495	499.512	80.4212	499.512	81.3803	499.512	80.4875	499.512	81.1438	499.512	80.4097	499.512	80.3889	499.512	79.9477	499.512	79.0524	499.512	78.9664	499.512	77.1822	499.512	77.4492	499.512	75.0696	499.512	75.584	499.512	73.3844	499.512	73.8869	499.512	72.6574	499.512	72.9161	499.512	72.5988
517.09	83.8153	517.09	83.6684	517.09	83.8369	517.09	83.3919	517.09	83.7344	517.09	82.9787	517.09	83.5064	517.09	82.4237	517.09	83.1504	517.09	81.7367	517.09	82.6654	517.09	80.9654	517.09	82.0624	517.09	80.2249	517.09	81.3813	517.09	79.6948	517.09	80.707	517.09	79.5196	517.09	80.154	517.09	79.659	517.09	79.7951	517.09	79.8949	517.09	79.5847	517.09	79.9918	517.09	79.3787	517.09	79.809	517.09	79.036	517.09	79.3236	517.09	78.5021	517.09	78.6234	517.09	77.8447	517.09	77.8777	517.09	77.2433	517.09	77.2672	517.09	76.901	517.09	76.9166
536.133	83.9279	536.133	83.833	536.133	83.9065	536.133	83.6258	536.133	83.7643	536.133	83.3063	536.133	83.4998	536.133	82.8669	536.133	83.1158	536.133	82.2948	536.133	82.6203	536.133	81.5812	536.133	82.0286	536.133	80.7392	536.133	81.3707	536.133	79.8247	536.133	80.703	536.133	78.9514	536.133	80.1074	536.133	78.2769	536.133	79.6574	536.133	77.9373	536.133	79.366	536.133	77.9608	536.133	79.1815	536.133	78.2477	536.133	79.0505	536.133	78.6417	536.133	78.9727	536.133	79.0085	536.133	78.9848	536.133	79.2669	536.133	79.0947	536.133	79.385	536.133	79.2492	536.133	79.3675
555.176	84.0966	555.176	83.9952	555.176	84.0961	555.176	83.78	555.176	84.0122	555.176	83.4489	555.176	83.8643	555.176	83.0129	555.176	83.6667	555.176	82.4964	555.176	83.4207	555.176	81.9327	555.176	83.1104	555.176	81.3492	555.176	82.7037	555.176	80.7448	555.176	82.1592	555.176	80.0744	555.176	81.4328	555.176	79.2693	555.176	80.4862	555.176	78.3099	555.176	79.307	555.176	77.3451	555.176	77.9684	555.176	76.751	555.176	76.7473	555.176	76.8276	555.176	76.1404	555.176	77.3736	555.176	76.3938	555.176	77.9459	555.176	77.1238	555.176	78.2641	555.176	77.8211	555.176	78.2263
574.219	84.1453	574.219	84.0336	574.219	84.1403	574.219	83.8344	574.219	84.0018	574.219	83.5816	574.219	83.736	574.219	83.3058	574.219	83.382	574.219	83.0224	574.219	83.0112	574.219	82.7161	574.219	82.7048	574.219	82.334	574.219	82.504	574.219	81.7952	574.219	82.3647	574.219	81.0157	574.219	82.161	574.219	79.939	574.219	81.7407	574.219	78.5815	574.219	80.994	574.219	77.1316	574.219	79.9173	574.219	76.0782	574.219	78.6869	574.219	75.9697	574.219	77.6862	574.219	76.6699	574.219	77.2867	574.219	77.5197	574.219	77.4706	574.219	78.0614	574.219	77.8826	574.219	78.1576
594.727	83.8827	594.727	83.6978	594.727	83.9075	594.727	83.3548	594.727	83.772	594.727	82.8693	594.727	83.4791	594.727	82.2966	594.727	83.0511	594.727	81.7562	594.727	82.5534	594.727	81.4059	594.727	82.1036	594.727	81.3202	594.727	81.8199	594.727	81.3914	594.727	81.7184	594.727	81.4023	594.727	81.6729	594.727	81.1637	594.727	81.4941	594.727	80.5745	594.727	81.0196	594.727	79.6412	594.727	80.165	594.727	78.5356	594.727	79.0003	594.727	77.6572	594.727	77.8983	594.727	77.412	594.727	77.4463	594.727	77.7244	594.727	77.7214	594.727	78.1503	594.727	78.1655	594.727	78.3417
615.234	84.4827	615.234	84.3589	615.234	84.447	615.234	84.0848	615.234	84.2451	615.234	83.6681	615.234	83.8767	615.234	83.1148	615.234	83.3528	615.234	82.4386	615.234	82.7076	615.234	81.6803	615.234	82.0185	615.234	80.9156	615.234	81.4128	615.234	80.2123	615.234	81.0098	615.234	79.5525	615.234	80.8071	615.234	78.8277	615.234	80.6572	615.234	77.9573	615.234	80.3803	615.234	77.04	615.234	79.8694	615.234	76.4132	615.234	79.1272	615.234	76.416	615.234	78.2974	615.234	76.9745	615.234	77.6921	615.234	77.6769	615.234	77.6073	615.234	78.151	615.234	77.9288	615.234	78.2174
637.207	84.8757	637.207	84.7119	637.207	84.8643	637.207	84.3698	637.207	84.6812	637.207	83.8541	637.207	84.3314	637.207	83.194	637.207	83.8296	637.207	82.4664	637.207	83.2129	637.207	81.8068	637.207	82.5498	637.207	81.3543	637.207	81.9328	637.207	81.1194	637.207	81.4365	637.207	80.9203	637.207	81.0531	637.207	80.4887	637.207	80.6699	637.207	79.6093	637.207	80.1333	637.207	78.23	637.207	79.3608	637.207	76.6937	637.207	78.4578	637.207	75.977	637.207	77.7828	637.207	76.5965	637.207	77.7007	637.207	77.6718	637.207	78.1068	637.207	78.4443	637.207	78.5605	637.207	78.7263
659.18	85.1868	659.18	85.039	659.18	85.185	659.18	84.7383	659.18	85.0304	659.18	84.2783	659.18	84.7164	659.18	83.6637	659.18	84.2418	659.18	82.9341	659.18	83.6281	659.18	82.1857	659.18	82.946	659.18	81.5476	659.18	82.3259	659.18	81.0851	659.18	81.8898	659.18	80.7132	659.18	81.6046	659.18	80.237	659.18	81.244	659.18	79.464	659.18	80.53	659.18	78.2968	659.18	79.2747	659.18	76.8651	659.18	77.4997	659.18	75.7433	659.18	75.7296	659.18	75.6528	659.18	75.1026	659.18	76.3528	659.18	75.8024	659.18	77.014	659.18	76.7204	659.18	77.1741
682.617	85.0852	682.617	84.9509	682.617	85.0623	682.617	84.6642	682.617	84.8626	682.617	84.2129	682.617	84.4604	682.617	83.5771	682.617	83.8404	682.617	82.7635	682.617	83.0254	682.617	81.8755	682.617	82.1214	682.617	81.1677	682.617	81.3518	682.617	80.8882	682.617	80.9705	682.617	80.9303	682.617	81.0039	682.617	80.8694	682.617	81.1627	682.617	80.3196	682.617	81.0783	682.617	79.0944	682.617	80.4954	682.617	77.3283	682.617	79.3323	682.617	75.8801	682.617	77.8082	682.617	75.9259	682.617	76.6612	682.617	76.8894	682.617	76.6128	682.617	77.602	682.617	77.2301	682.617	77.6919
707.52	85.5852	707.52	85.4094	707.52	85.5517	707.52	85.0375	707.52	85.3063	707.52	84.4832	707.52	84.8607	707.52	83.7564	707.52	84.2334	707.52	82.8843	707.52	83.4402	707.52	81.9597	707.52	82.5073	707.52	81.1737	707.52	81.5334	707.52	80.7148	707.52	80.752	707.52	80.534	707.52	80.3895	707.52	80.3048	707.52	80.323	707.52	79.6454	707.52	80.1149	707.52	78.2876	707.52	79.3842	707.52	76.2622	707.52	78.0226	707.52	74.6093	707.52	76.4442	707.52	75.1005	707.52	75.808	707.52	76.7015	707.52	76.5581	707.52	77.8177	707.52	77.5919	707.52	78.0974
732.422	85.2326	732.422	85.1481	732.422	85.1848	732.422	84.9119	732.422	85.0072	732.422	84.5015	732.422	84.6733	732.422	83.8927	732.422	84.1384	732.422	83.0661	732.422	83.3736	732.422	82.0541	732.422	82.4115	732.422	81.0339	732.422	81.3979	732.422	80.3403	732.422	80.6136	732.422	80.1483	732.422	80.3098	732.422	80.1558	732.422	80.3685	732.422	79.8568	732.422	80.3214	732.422	78.8636	732.422	79.6953	732.422	76.973	732.422	78.1839	732.422	74.5209	732.422	75.858	732.422	73.5004	732.422	74.1185	732.422	74.8669	732.422	74.8068	732.422	76.3066	732.422	76.2022	732.422	76.7875
757.324	84.8913	757.324	84.7353	757.324	84.9096	757.324	84.4476	757.324	84.7699	757.324	84.003	757.324	84.4512	757.324	83.3454	757.324	83.9274	757.324	82.4212	757.324	83.1569	757.324	81.2623	757.324	82.1029	757.324	80.1369	757.324	80.8321	757.324	79.5751	757.324	79.6952	757.324	79.7716	757.324	79.2572	757.324	80.1779	757.324	79.5401	757.324	80.1775	757.324	79.8719	757.324	79.4664	757.324	79.6644	757.324	77.974	757.324	78.6271	757.324	75.9412	757.324	76.6853	757.324	74.3849	757.324	74.3155	757.324	74.4546	757.324	73.3791	757.324	75.2116	757.324	74.4163	757.324	75.3142
785.156	84.9539	785.156	84.8063	785.156	84.8937	785.156	84.493	785.156	84.6254	785.156	84.0834	785.156	84.1938	785.156	83.622	785.156	83.687	785.156	83.0645	785.156	83.1929	785.156	82.2923	785.156	82.6998	785.156	81.2354	785.156	82.0562	785.156	80.0399	785.156	81.098	785.156	79.1113	785.156	79.8857	785.156	78.6908	785.156	78.8793	785.156	78.4207	785.156	78.496	785.156	77.7804	785.156	78.3403	785.156	76.5656	785.156	77.7003	785.156	75.0532	785.156	76.2294	785.156	74.0956	785.156	74.217	785.156	74.2148	785.156	73.1007	785.156	74.6404	785.156	73.7072	785.156	74.5235
811.523	85.294	811.523	85.1491	811.523	85.2766	811.523	84.8195	811.523	85.0895	811.523	84.259	811.523	84.6932	811.523	83.4213	811.523	84.0259	811.523	82.319	811.523	83.039	811.523	81.117	811.523	81.7806	811.523	80.1689	811.523	80.5209	811.523	79.7718	811.523	79.7341	811.523	79.8023	811.523	79.6102	811.523	79.8481	811.523	79.7461	811.523	79.5328	811.523	79.6249	811.523	78.6017	811.523	78.9371	811.523	76.9935	811.523	77.5857	811.523	75.2033	811.523	75.8228	811.523	74.5002	811.523	74.5888	811.523	75.0813	811.523	74.7254	811.523	75.7621	811.523	75.4831	811.523	75.9238
840.82	85.0289	840.82	84.8857	840.82	85.0144	840.82	84.5985	840.82	84.8434	840.82	84.1797	840.82	84.528	840.82	83.6073	840.82	84.0698	840.82	82.8001	840.82	83.425	840.82	81.6399	840.82	82.4858	840.82	80.0895	840.82	81.1341	840.82	78.4778	840.82	79.4548	840.82	77.6555	840.82	78.1385	840.82	77.8359	840.82	78.0399	840.82	78.0319	840.82	78.5407	840.82	77.48	840.82	78.5307	840.82	76.0051	840.82	77.5782	840.82	74.069	840.82	75.7585	840.82	73.2312	840.82	73.8307	840.82	74.1348	840.82	73.3889	840.82	75.1192	840.82	74.3897	840.82	75.215
870.117	84.8913	870.117	84.7577	870.117	84.8732	870.117	84.4855	870.117	84.7137	870.117	84.0994	870.117	84.4299	870.117	83.5917	870.117	84.0101	870.117	82.8766	870.117	83.3954	870.117	81.8256	870.117	82.5134	870.117	80.4184	870.117	81.3491	870.117	78.9804	870.117	80.0499	870.117	78.2078	870.117	79.0154	870.117	78.2671	870.117	78.6387	870.117	78.3571	870.117	78.7037	870.117	77.6786	870.117	78.5363	870.117	75.7673	870.117	77.5827	870.117	72.7686	870.117	75.6222	870.117	71.6584	870.117	73.3216	870.117	73.7414	870.117	73.0051	870.117	75.294	870.117	74.4829	870.117	75.488
900.879	85.0267	900.879	84.8181	900.879	85.0727	900.879	84.4954	900.879	84.9263	900.879	84.0814	900.879	84.5923	900.879	83.5365	900.879	84.0918	900.879	82.7768	900.879	83.4214	900.879	81.7156	900.879	82.5296	900.879	80.3195	900.879	81.3549	900.879	78.8243	900.879	79.9603	900.879	78.0431	900.879	78.7615	900.879	78.4066	900.879	78.4016	900.879	78.8848	900.879	78.7382	900.879	78.4872	900.879	78.882	900.879	76.8302	900.879	78.2105	900.879	73.9564	900.879	76.4778	900.879	71.225	900.879	73.8773	900.879	71.3802	900.879	72.1585	900.879	72.8094	900.879	72.7759	900.879	73.3867
933.105	85.1563	933.105	84.98	933.105	85.1251	933.105	84.6018	933.105	84.9241	933.105	84.0719	933.105	84.607	933.105	83.4448	933.105	84.2002	933.105	82.7019	933.105	83.6707	933.105	81.7352	933.105	82.9293	933.105	80.4527	933.105	81.8659	933.105	78.9676	933.105	80.4624	933.105	77.8355	933.105	79.0725	933.105	77.7066	933.105	78.4802	933.105	78.1298	933.105	78.7459	933.105	78.0364	933.105	78.9204	933.105	76.8055	933.105	78.3254	933.105	74.5068	933.105	76.7916	933.105	72.9355	933.105	74.7321	933.105	73.9844	933.105	73.7622	933.105	75.3035	933.105	74.621	933.105	75.4911
965.332	84.6728	965.332	84.4986	965.332	84.6581	965.332	84.1445	965.332	84.4611	965.332	83.6738	965.332	84.1028	965.332	83.1852	965.332	83.6517	965.332	82.6923	965.332	83.1799	965.332	82.0152	965.332	82.6149	965.332	80.8509	965.332	81.7002	965.332	79.0341	965.332	80.2107	965.332	77.1493	965.332	78.3976	965.332	76.8437	965.332	77.4699	965.332	77.8211	965.332	77.9781	965.332	78.2762	965.332	78.5343	965.332	77.4539	965.332	78.1378	965.332	75.2409	965.332	76.5278	965.332	72.9995	965.332	74.252	965.332	73.632	965.332	73.4695	965.332	75.039	965.332	74.5283	965.332	75.3319
1,000.49	84.751	1,000.49	84.5883	1,000.49	84.6729	1,000.49	84.1783	1,000.49	84.4004	1,000.49	83.5964	1,000.49	84.0022	1,000.49	83.001	1,000.49	83.5464	1,000.49	82.4821	1,000.49	83.0537	1,000.49	81.8911	1,000.49	82.4529	1,000.49	80.938	1,000.49	81.5623	1,000.49	79.4683	1,000.49	80.1598	1,000.49	77.8385	1,000.49	78.3038	1,000.49	77.0727	1,000.49	77.0882	1,000.49	77.3336	1,000.49	77.6481	1,000.49	77.4168	1,000.49	78.4976	1,000.49	76.4775	1,000.49	78.1817	1,000.49	74.363	1,000.49	76.3687	1,000.49	72.6189	1,000.49	73.8451	1,000.49	73.8477	1,000.49	73.2307	1,000.49	75.4683	1,000.49	74.6376	1,000.49	75.6984
1,035.64	84.3697	1,035.64	84.2765	1,035.64	84.2601	1,035.64	83.9485	1,035.64	83.9576	1,035.64	83.3651	1,035.64	83.498	1,035.64	82.6179	1,035.64	82.9629	1,035.64	81.8953	1,035.64	82.4144	1,035.64	81.2307	1,035.64	81.8035	1,035.64	80.3415	1,035.64	80.9686	1,035.64	78.905	1,035.64	79.7257	1,035.64	77.0825	1,035.64	78.0126	1,035.64	76.0377	1,035.64	76.2459	1,035.64	76.3869	1,035.64	75.625	1,035.64	76.696	1,035.64	76.2193	1,035.64	75.8484	1,035.64	76.4172	1,035.64	73.6112	1,035.64	75.3376	1,035.64	71.1946	1,035.64	73.1103	1,035.64	71.7243	1,035.64	71.7514	1,035.64	73.5561	1,035.64	73.1123	1,035.64	74.1682
1,072.27	84.2766	1,072.27	83.9532	1,072.27	84.1762	1,072.27	83.2827	1,072.27	83.7131	1,072.27	82.427	1,072.27	83.0177	1,072.27	81.5294	1,072.27	82.1975	1,072.27	80.7393	1,072.27	81.3448	1,072.27	80.1744	1,072.27	80.5952	1,072.27	79.5871	1,072.27	79.9734	1,072.27	78.4288	1,072.27	79.1402	1,072.27	76.5724	1,072.27	77.5908	1,072.27	75.5125	1,072.27	75.4121	1,072.27	76.4352	1,072.27	74.5686	1,072.27	77.1008	1,072.27	75.6887	1,072.27	76.2513	1,072.27	76.1676	1,072.27	73.9822	1,072.27	75.0005	1,072.27	71.7552	1,072.27	72.5408	1,072.27	72.271	1,072.27	71.4489	1,072.27	73.9448	1,072.27	73.2412	1,072.27	74.4417
1,108.89	83.7862	1,108.89	83.4801	1,108.89	83.8115	1,108.89	82.8605	1,108.89	83.5215	1,108.89	81.9391	1,108.89	82.8508	1,108.89	80.9081	1,108.89	81.8544	1,108.89	80.0689	1,108.89	80.8289	1,108.89	79.4891	1,108.89	80.1019	1,108.89	78.8706	1,108.89	79.5489	1,108.89	77.7918	1,108.89	78.6837	1,108.89	75.9411	1,108.89	77.1409	1,108.89	73.8659	1,108.89	75.084	1,108.89	73.7972	1,108.89	74.0013	1,108.89	74.9186	1,108.89	74.8893	1,108.89	74.831	1,108.89	75.7875	1,108.89	73.115	1,108.89	75.3189	1,108.89	71.449	1,108.89	73.0308	1,108.89	72.3747	1,108.89	70.6545	1,108.89	73.5933	1,108.89	72.0624	1,108.89	73.5656
1,148.44	83.7149	1,148.44	83.4236	1,148.44	83.6462	1,148.44	82.8168	1,148.44	83.2375	1,148.44	81.9387	1,148.44	82.5675	1,148.44	80.7944	1,148.44	81.7396	1,148.44	79.5258	1,148.44	80.8314	1,148.44	78.5706	1,148.44	79.886	1,148.44	78.0628	1,148.44	78.9861	1,148.44	77.3374	1,148.44	78.1222	1,148.44	75.7909	1,148.44	76.9097	1,148.44	74.036	1,148.44	74.9566	1,148.44	74.1266	1,148.44	73.4552	1,148.44	75.1631	1,148.44	74.6152	1,148.44	75.07	1,148.44	75.849	1,148.44	73.1907	1,148.44	75.2334	1,148.44	70.2867	1,148.44	72.841	1,148.44	70.9296	1,148.44	70.6086	1,148.44	72.7247	1,148.44	71.218	1,148.44	72.6236
1,189.45	83.8012	1,189.45	83.5343	1,189.45	83.7635	1,189.45	82.9184	1,189.45	83.4886	1,189.45	81.9902	1,189.45	82.9535	1,189.45	80.847	1,189.45	82.0613	1,189.45	79.6329	1,189.45	80.825	1,189.45	78.5375	1,189.45	79.579	1,189.45	77.7096	1,189.45	78.8582	1,189.45	76.9552	1,189.45	78.5692	1,189.45	75.7359	1,189.45	77.8156	1,189.45	73.9678	1,189.45	75.9094	1,189.45	73.2759	1,189.45	73.6438	1,189.45	74.2645	1,189.45	73.965	1,189.45	74.6709	1,189.45	75.2894	1,189.45	73.5887	1,189.45	75.1059	1,189.45	71.6199	1,189.45	73.4798	1,189.45	71.2182	1,189.45	71.8076	1,189.45	72.5242	1,189.45	72.0631	1,189.45	72.9363
1,230.47	84.7894	1,230.47	84.4306	1,230.47	84.8539	1,230.47	83.9125	1,230.47	84.5177	1,230.47	83.1303	1,230.47	83.7982	1,230.47	81.8119	1,230.47	82.7433	1,230.47	79.998	1,230.47	81.4113	1,230.47	78.3868	1,230.47	79.9503	1,230.47	77.6196	1,230.47	78.7048	1,230.47	77.1223	1,230.47	78.007	1,230.47	75.9882	1,230.47	77.4853	1,230.47	73.9001	1,230.47	76.2866	1,230.47	72.2475	1,230.47	74.3671	1,230.47	73.3426	1,230.47	73.9292	1,230.47	74.2228	1,230.47	74.8745	1,230.47	72.7372	1,230.47	74.7825	1,230.47	69.8049	1,230.47	73.3638	1,230.47	70.3474	1,230.47	72.2506	1,230.47	72.2472	1,230.47	72.6745	1,230.47	72.9398
1,274.41	85.0242	1,274.41	84.8128	1,274.41	84.9107	1,274.41	84.3028	1,274.41	84.5793	1,274.41	83.5328	1,274.41	84.0906	1,274.41	82.3795	1,274.41	83.2637	1,274.41	80.667	1,274.41	81.9133	1,274.41	78.6815	1,274.41	80.2281	1,274.41	77.5367	1,274.41	78.8501	1,274.41	77.3894	1,274.41	78.27	1,274.41	76.8268	1,274.41	77.8552	1,274.41	75.1406	1,274.41	76.4691	1,274.41	73.5509	1,274.41	74.0691	1,274.41	73.8959	1,274.41	73.6649	1,274.41	74.4761	1,274.41	75.4401	1,274.41	73.8391	1,274.41	75.7776	1,274.41	72.0658	1,274.41	74.3302	1,274.41	71.7684	1,274.41	73.3169	1,274.41	73.5849	1,274.41	73.9389	1,274.41	74.3831
1,319.82	85.176	1,319.82	84.8915	1,319.82	85.0605	1,319.82	84.2765	1,319.82	84.4866	1,319.82	83.4555	1,319.82	83.6562	1,319.82	82.5641	1,319.82	82.8893	1,319.82	81.4027	1,319.82	82.0709	1,319.82	79.7097	1,319.82	80.814	1,319.82	77.9745	1,319.82	79.1106	1,319.82	77.1959	1,319.82	77.6505	1,319.82	76.5749	1,319.82	77.2082	1,319.82	75.013	1,319.82	76.8933	1,319.82	73.6868	1,319.82	75.3489	1,319.82	74.2245	1,319.82	73.7371	1,319.82	74.831	1,319.82	75.1045	1,319.82	74.0625	1,319.82	75.6208	1,319.82	71.7607	1,319.82	73.0631	1,319.82	70.864	1,319.82	70.1668	1,319.82	72.8242	1,319.82	72.3942	1,319.82	73.7126
1,366.7	84.9125	1,366.7	84.6487	1,366.7	85.0502	1,366.7	84.2099	1,366.7	84.812	1,366.7	83.4066	1,366.7	84.0492	1,366.7	82.3765	1,366.7	82.8926	1,366.7	81.3708	1,366.7	81.528	1,366.7	80.107	1,366.7	79.9742	1,366.7	78.2228	1,366.7	78.3338	1,366.7	76.4176	1,366.7	77.1349	1,366.7	75.5368	1,366.7	76.6249	1,366.7	74.5549	1,366.7	76.1578	1,366.7	73.3037	1,366.7	74.8173	1,366.7	73.8438	1,366.7	72.7666	1,366.7	75.0631	1,366.7	73.1198	1,366.7	75.0254	1,366.7	74.6034	1,366.7	74.0469	1,366.7	74.2797	1,366.7	73.6954	1,366.7	72.6603	1,366.7	74.1812	1,366.7	72.9881	1,366.7	74.1569
1,413.57	84.6181	1,413.57	84.2632	1,413.57	84.5564	1,413.57	83.6945	1,413.57	84.3626	1,413.57	83.1948	1,413.57	84.0867	1,413.57	82.4427	1,413.57	83.3467	1,413.57	81.0878	1,413.57	82.0589	1,413.57	79.43	1,413.57	80.5228	1,413.57	77.9917	1,413.57	78.7638	1,413.57	77.0892	1,413.57	76.7455	1,413.57	76.7903	1,413.57	75.3305	1,413.57	76.1987	1,413.57	74.7759	1,413.57	74.6091	1,413.57	73.8178	1,413.57	73.6587	1,413.57	72.3298	1,413.57	74.1791	1,413.57	71.7093	1,413.57	73.8036	1,413.57	71.863	1,413.57	72.7724	1,413.57	71.6638	1,413.57	73.5472	1,413.57	71.806	1,413.57	75.3817	1,413.57	73.9075	1,413.57	75.7084
1,463.38	85.6004	1,463.38	85.5102	1,463.38	85.463	1,463.38	84.8199	1,463.38	85.1052	1,463.38	83.516	1,463.38	84.332	1,463.38	82.1555	1,463.38	83.3338	1,463.38	80.9425	1,463.38	82.3504	1,463.38	79.3353	1,463.38	81.1741	1,463.38	77.2487	1,463.38	79.5398	1,463.38	75.8743	1,463.38	77.6578	1,463.38	75.4635	1,463.38	76.0588	1,463.38	74.382	1,463.38	74.9875	1,463.38	72.5362	1,463.38	73.9636	1,463.38	72.7363	1,463.38	73.1991	1,463.38	74.1474	1,463.38	74.2067	1,463.38	73.7306	1,463.38	75.1035	1,463.38	71.8851	1,463.38	73.6197	1,463.38	73.9815	1,463.38	72.125	1,463.38	75.7003	1,463.38	73.7737	1,463.38	75.3104
1,516.11	85.7213	1,516.11	85.5234	1,516.11	85.4529	1,516.11	84.766	1,516.11	85.0362	1,516.11	83.6075	1,516.11	84.571	1,516.11	82.3581	1,516.11	83.6972	1,516.11	81.1454	1,516.11	82.3122	1,516.11	79.3318	1,516.11	80.7068	1,516.11	76.5005	1,516.11	79.2025	1,516.11	74.5785	1,516.11	77.7142	1,516.11	74.8812	1,516.11	76.355	1,516.11	73.5539	1,516.11	75.8897	1,516.11	69.879	1,516.11	75.4497	1,516.11	70.6174	1,516.11	73.7847	1,516.11	73.3498	1,516.11	73.437	1,516.11	73.3562	1,516.11	74.6811	1,516.11	70.4469	1,516.11	73.3082	1,516.11	68.6245	1,516.11	71.1976	1,516.11	72.6211	1,516.11	73.8808	1,516.11	75.0671
1,568.85	86.2873	1,568.85	85.6711	1,568.85	86.1837	1,568.85	84.7673	1,568.85	85.4071	1,568.85	84.0881	1,568.85	84.4401	1,568.85	83.1647	1,568.85	83.6862	1,568.85	81.4679	1,568.85	82.7067	1,568.85	79.9797	1,568.85	80.8059	1,568.85	79.1776	1,568.85	78.3074	1,568.85	77.2908	1,568.85	76.4408	1,568.85	74.3835	1,568.85	76.1916	1,568.85	74.0881	1,568.85	75.8969	1,568.85	73.7384	1,568.85	74.0564	1,568.85	70.6591	1,568.85	72.1332	1,568.85	70.5203	1,568.85	72.5989	1,568.85	72.3003	1,568.85	73.6572	1,568.85	72.0939	1,568.85	73.2097	1,568.85	71.0229	1,568.85	71.9449	1,568.85	72.058	1,568.85	72.9708	1,568.85	73.5895
1,624.51	85.9777	1,624.51	85.9959	1,624.51	85.9095	1,624.51	85.4735	1,624.51	85.6818	1,624.51	83.9137	1,624.51	84.9219	1,624.51	82.0704	1,624.51	83.2859	1,624.51	81.1001	1,624.51	81.3928	1,624.51	79.9192	1,624.51	80.37	1,624.51	78.1319	1,624.51	79.3541	1,624.51	76.956	1,624.51	77.3664	1,624.51	76.0598	1,624.51	75.6366	1,624.51	74.7039	1,624.51	73.9527	1,624.51	73.4885	1,624.51	71.7045	1,624.51	73.0993	1,624.51	71.8307	1,624.51	73.2535	1,624.51	71.4638	1,624.51	71.3638	1,624.51	70.6229	1,624.51	68.3602	1,624.51	71.9351	1,624.51	71.2148	1,624.51	68.7121	1,624.51	74.5678	1,624.51	70.6997	1,624.51	75.0846
1,681.64	84.7772	1,681.64	84.655	1,681.64	84.4715	1,681.64	83.9152	1,681.64	84.0509	1,681.64	82.8842	1,681.64	83.5338	1,681.64	81.8552	1,681.64	82.6567	1,681.64	80.4317	1,681.64	80.9768	1,681.64	78.584	1,681.64	78.8785	1,681.64	77.135	1,681.64	77.3846	1,681.64	75.5493	1,681.64	75.5917	1,681.64	73.6128	1,681.64	72.4918	1,681.64	73.3425	1,681.64	71.9283	1,681.64	72.3521	1,681.64	72.9739	1,681.64	69.8001	1,681.64	70.1234	1,681.64	72.0355	1,681.64	69.5819	1,681.64	74.1046	1,681.64	72.3528	1,681.64	72.4442	1,681.64	71.6505	1,681.64	71.231	1,681.64	69.6436	1,681.64	73.5581	1,681.64	70.0391	1,681.64	72.7931
1,741.7	85.3251	1,741.7	84.9479	1,741.7	85.2028	1,741.7	84.027	1,741.7	84.8209	1,741.7	82.6374	1,741.7	83.7769	1,741.7	81.089	1,741.7	81.8078	1,741.7	79.8991	1,741.7	80.3814	1,741.7	78.7397	1,741.7	80.0688	1,741.7	77.3285	1,741.7	78.7407	1,741.7	76.019	1,741.7	76.4652	1,741.7	74.0991	1,741.7	75.0008	1,741.7	71.1114	1,741.7	72.9986	1,741.7	70.7742	1,741.7	71.5314	1,741.7	71.6348	1,741.7	71.2013	1,741.7	71.632	1,741.7	67.8578	1,741.7	72.356	1,741.7	70.0979	1,741.7	71.9066	1,741.7	71.5612	1,741.7	70.0657	1,741.7	69.6154	1,741.7	70.9125	1,741.7	72.8206	1,741.7	73.3105
1,803.22	86.0348	1,803.22	85.4131	1,803.22	86.2886	1,803.22	84.7689	1,803.22	85.4501	1,803.22	83.6964	1,803.22	83.9332	1,803.22	82.1255	1,803.22	82.6993	1,803.22	80.4139	1,803.22	81.344	1,803.22	78.8005	1,803.22	79.5008	1,803.22	76.8563	1,803.22	78.1558	1,803.22	74.8871	1,803.22	77.2042	1,803.22	73.7234	1,803.22	75.6021	1,803.22	72.4072	1,803.22	73.0544	1,803.22	69.9421	1,803.22	70.8486	1,803.22	67.7605	1,803.22	70.7718	1,803.22	71.3864	1,803.22	70.1037	1,803.22	73.1575	1,803.22	70.1068	1,803.22	69.8386	1,803.22	71.2121	1,803.22	68.7541	1,803.22	68.8158	1,803.22	73.056	1,803.22	72.8991	1,803.22	75.1994
1,866.21	86.2006	1,866.21	86.1385	1,866.21	85.9432	1,866.21	85.7398	1,866.21	85.2835	1,866.21	84.3413	1,866.21	84.286	1,866.21	82.1024	1,866.21	82.5898	1,866.21	80.4746	1,866.21	80.374	1,866.21	79.2951	1,866.21	78.3589	1,866.21	78.1058	1,866.21	76.6498	1,866.21	77.4046	1,866.21	75.8342	1,866.21	75.5805	1,866.21	75.6297	1,866.21	71.7597	1,866.21	73.8382	1,866.21	69.7925	1,866.21	71.3672	1,866.21	68.6598	1,866.21	69.8639	1,866.21	68.8226	1,866.21	68.6746	1,866.21	72.0179	1,866.21	71.2089	1,866.21	72.3948	1,866.21	72.1148	1,866.21	70.3348	1,866.21	69.6156	1,866.21	72.6708	1,866.21	69.5133	1,866.21	73.1953
1,932.13	85.5779	1,932.13	85.4657	1,932.13	85.5075	1,932.13	84.8142	1,932.13	85.1309	1,932.13	83.7935	1,932.13	84.0984	1,932.13	82.3931	1,932.13	82.715	1,932.13	80.2884	1,932.13	80.9932	1,932.13	78.4176	1,932.13	78.6644	1,932.13	77.3664	1,932.13	76.6673	1,932.13	76.4193	1,932.13	75.961	1,932.13	75.8589	1,932.13	74.9819	1,932.13	74.8907	1,932.13	72.4217	1,932.13	72.2589	1,932.13	70.0312	1,932.13	69.1112	1,932.13	69.9805	1,932.13	68.3445	1,932.13	68.0447	1,932.13	72.4498	1,932.13	70.1213	1,932.13	73.2063	1,932.13	73.2304	1,932.13	69.4058	1,932.13	70.3951	1,932.13	70.5354	1,932.13	69.8392	1,932.13	71.8334
1,999.51	85.4718	1,999.51	85.3078	1,999.51	85.2198	1,999.51	84.3657	1,999.51	85.147	1,999.51	82.9442	1,999.51	84.5983	1,999.51	81.6414	1,999.51	83.1298	1,999.51	80.6822	1,999.51	81.606	1,999.51	79.1933	1,999.51	80.4323	1,999.51	77.3136	1,999.51	78.4191	1,999.51	75.4398	1,999.51	75.3018	1,999.51	73.2988	1,999.51	74.1462	1,999.51	72.8389	1,999.51	73.1302	1,999.51	73.3396	1,999.51	71.0524	1,999.51	71.5804	1,999.51	71.2679	1,999.51	68.9576	1,999.51	69.2189	1,999.51	69.1862	1,999.51	68.7774	1,999.51	69.701	1,999.51	72.8795	1,999.51	68.6991	1,999.51	68.7705	1,999.51	71.3177	1,999.51	69.6423	1,999.51	73.3392
2,069.82	87.151	2,069.82	86.7969	2,069.82	86.7372	2,069.82	85.5634	2,069.82	85.9649	2,069.82	84.2701	2,069.82	84.859	2,069.82	82.6344	2,069.82	83.633	2,069.82	80.5605	2,069.82	82.4233	2,069.82	79.4294	2,069.82	81.0578	2,069.82	77.8903	2,069.82	79.0611	2,069.82	75.0313	2,069.82	77.26	2,069.82	73.5186	2,069.82	76.5383	2,069.82	72.7975	2,069.82	75.4804	2,069.82	71.5526	2,069.82	74.2293	2,069.82	69.9436	2,069.82	72.9347	2,069.82	65.8211	2,069.82	71.2904	2,069.82	70.8795	2,069.82	69.1002	2,069.82	70.5117	2,069.82	71.5818	2,069.82	66.9961	2,069.82	72.6096	2,069.82	72.5823	2,069.82	69.5188	2,069.82	72.5461
2,143.07	86.4149	2,143.07	86.0509	2,143.07	86.2456	2,143.07	85.0312	2,143.07	85.335	2,143.07	84.2717	2,143.07	83.9944	2,143.07	83.348	2,143.07	83.211	2,143.07	81.3164	2,143.07	81.8315	2,143.07	79.4151	2,143.07	80.0332	2,143.07	78.0658	2,143.07	79.1497	2,143.07	76.3877	2,143.07	76.7214	2,143.07	75.4567	2,143.07	73.5899	2,143.07	73.5418	2,143.07	73.828	2,143.07	70.6504	2,143.07	70.69	2,143.07	70.9539	2,143.07	68.4043	2,143.07	70.366	2,143.07	70.9356	2,143.07	72.5385	2,143.07	72.4511	2,143.07	70.375	2,143.07	71.9998	2,143.07	65.5437	2,143.07	67.0679	2,143.07	70.7647	2,143.07	72.1105	2,143.07	74.1124
2,219.24	85.6198	2,219.24	85.5046	2,219.24	84.8171	2,219.24	84.444	2,219.24	83.6219	2,219.24	83.5708	2,219.24	82.8676	2,219.24	82.972	2,219.24	82.0131	2,219.24	81.2654	2,219.24	80.2944	2,219.24	79.2081	2,219.24	78.6765	2,219.24	77.3321	2,219.24	77.4439	2,219.24	75.0322	2,219.24	75.7655	2,219.24	74.1108	2,219.24	73.0642	2,219.24	73.3943	2,219.24	70.8488	2,219.24	71.2905	2,219.24	69.798	2,219.24	71.0034	2,219.24	69.9771	2,219.24	70.5253	2,219.24	65.9206	2,219.24	69.9944	2,219.24	67.2222	2,219.24	68.7498	2,219.24	71.7394	2,219.24	68.6455	2,219.24	69.335	2,219.24	74.6088	2,219.24	71.0466	2,219.24	75.3488
2,296.88	85.1451	2,296.88	84.7653	2,296.88	85.1965	2,296.88	83.9101	2,296.88	84.9017	2,296.88	82.77	2,296.88	84.0331	2,296.88	81.1967	2,296.88	83.0428	2,296.88	79.5669	2,296.88	82.147	2,296.88	78.8626	2,296.88	80.2451	2,296.88	77.5577	2,296.88	78.3858	2,296.88	74.8362	2,296.88	77.9126	2,296.88	72.1461	2,296.88	76.3701	2,296.88	70.7538	2,296.88	74.2839	2,296.88	71.2815	2,296.88	72.8775	2,296.88	70.634	2,296.88	70.2576	2,296.88	66.3668	2,296.88	67.0069	2,296.88	71.1848	2,296.88	63.5506	2,296.88	72.2911	2,296.88	69.0897	2,296.88	69.1902	2,296.88	65.2574	2,296.88	73.8848	2,296.88	65.6153	2,296.88	72.1858
2,378.91	85.4955	2,378.91	85.7716	2,378.91	85.4636	2,378.91	85.2991	2,378.91	85.3401	2,378.91	84.0372	2,378.91	84.7752	2,378.91	83.0049	2,378.91	83.7594	2,378.91	81.6794	2,378.91	82.4333	2,378.91	80.2699	2,378.91	80.7391	2,378.91	78.8018	2,378.91	79.1917	2,378.91	75.7638	2,378.91	77.7901	2,378.91	73.7102	2,378.91	75.8286	2,378.91	73.6653	2,378.91	73.9006	2,378.91	70.4561	2,378.91	71.9588	2,378.91	70.342	2,378.91	69.1864	2,378.91	67.5194	2,378.91	66.0003	2,378.91	70.58	2,378.91	68.1376	2,378.91	70.9464	2,378.91	72.3898	2,378.91	60.0184	2,378.91	69.6592	2,378.91	69.5305	2,378.91	67.3412	2,378.91	71.8984
2,462.4	85.0344	2,462.4	84.8661	2,462.4	84.7943	2,462.4	84.4845	2,462.4	84.3098	2,462.4	83.8366	2,462.4	83.6231	2,462.4	82.9858	2,462.4	82.89	2,462.4	82.0216	2,462.4	81.763	2,462.4	80.6222	2,462.4	80.1004	2,462.4	79.1075	2,462.4	78.1582	2,462.4	77.3602	2,462.4	76.5747	2,462.4	74.6749	2,462.4	74.4566	2,462.4	73.6102	2,462.4	72.0704	2,462.4	72.095	2,462.4	71.0378	2,462.4	69.1399	2,462.4	68.9757	2,462.4	66.5672	2,462.4	65.5562	2,462.4	66.0231	2,462.4	61.0444	2,462.4	71.484	2,462.4	68.8925	2,462.4	67.6949	2,462.4	69.6721	2,462.4	70.4347	2,462.4	65.9291	2,462.4	70.5422
2,548.83	84.4305	2,548.83	84.0875	2,548.83	84.4167	2,548.83	83.4644	2,548.83	83.8052	2,548.83	82.8893	2,548.83	83.211	2,548.83	82.2913	2,548.83	82.5169	2,548.83	81.0725	2,548.83	81.357	2,548.83	79.5528	2,548.83	80.1694	2,548.83	78.0397	2,548.83	78.7066	2,548.83	76.5823	2,548.83	77.0077	2,548.83	74.6653	2,548.83	74.9629	2,548.83	73.1101	2,548.83	72.8234	2,548.83	72.5108	2,548.83	71.6639	2,548.83	69.8188	2,548.83	70.8801	2,548.83	68.8842	2,548.83	68.3303	2,548.83	68.342	2,548.83	62.9817	2,548.83	67.4538	2,548.83	64.9519	2,548.83	63.7308	2,548.83	67.3455	2,548.83	65.944	2,548.83	66.1769	2,548.83	70.0208
2,639.65	84.2983	2,639.65	84.126	2,639.65	84.3101	2,639.65	83.7654	2,639.65	83.9843	2,639.65	83.2402	2,639.65	83.626	2,639.65	82.307	2,639.65	83.0843	2,639.65	80.6983	2,639.65	82.0646	2,639.65	79.0091	2,639.65	80.5598	2,639.65	77.3373	2,639.65	79.1488	2,639.65	75.4403	2,639.65	77.6309	2,639.65	73.292	2,639.65	75.6176	2,639.65	71.5852	2,639.65	73.9003	2,639.65	71.5626	2,639.65	72.5436	2,639.65	70.3244	2,639.65	71.4644	2,639.65	66.5429	2,639.65	70.0439	2,639.65	66.9299	2,639.65	67.9902	2,639.65	67.4685	2,639.65	68.2074	2,639.65	64.2501	2,639.65	68.4644	2,639.65	69.4432	2,639.65	63.272	2,639.65	70.2161
2,731.93	83.851	2,731.93	83.7789	2,731.93	83.7427	2,731.93	83.4703	2,731.93	83.617	2,731.93	83.142	2,731.93	83.275	2,731.93	82.1867	2,731.93	82.6312	2,731.93	80.5957	2,731.93	81.6843	2,731.93	79.053	2,731.93	80.2278	2,731.93	77.4288	2,731.93	78.5399	2,731.93	75.3215	2,731.93	76.7113	2,731.93	72.9923	2,731.93	74.3271	2,731.93	71.761	2,731.93	72.0526	2,731.93	71.6697	2,731.93	72.1033	2,731.93	70.1522	2,731.93	71.5028	2,731.93	67.3153	2,731.93	69.7632	2,731.93	67.1895	2,731.93	68.493	2,731.93	67.7885	2,731.93	67.394	2,731.93	63.6169	2,731.93	67.2827	2,731.93	67.0178	2,731.93	62.118	2,731.93	68.9978
2,828.61	82.902	2,828.61	82.8615	2,828.61	82.9495	2,828.61	82.6802	2,828.61	83.0499	2,828.61	82.259	2,828.61	82.9141	2,828.61	81.2914	2,828.61	82.3064	2,828.61	79.7877	2,828.61	81.3425	2,828.61	78.011	2,828.61	80.1941	2,828.61	76.2864	2,828.61	78.3469	2,828.61	74.6674	2,828.61	76.1125	2,828.61	72.4496	2,828.61	74.0358	2,828.61	70.5361	2,828.61	71.7272	2,828.61	70.8307	2,828.61	70.3684	2,828.61	69.3107	2,828.61	70.3857	2,828.61	65.6456	2,828.61	70.0434	2,828.61	64.3761	2,828.61	70.2707	2,828.61	67.1358	2,828.61	69.1227	2,828.61	62.4667	2,828.61	68.6973	2,828.61	67.4285	2,828.61	60.68	2,828.61	67.438
2,928.22	82.3236	2,928.22	82.4945	2,928.22	82.5224	2,928.22	82.3466	2,928.22	82.7489	2,928.22	81.8712	2,928.22	82.7648	2,928.22	81.1976	2,928.22	82.245	2,928.22	79.9872	2,928.22	81.1069	2,928.22	77.9729	2,928.22	79.5958	2,928.22	75.6969	2,928.22	77.6799	2,928.22	73.9363	2,928.22	75.4232	2,928.22	72.0895	2,928.22	74.0492	2,928.22	69.2611	2,928.22	72.0421	2,928.22	67.949	2,928.22	69.4968	2,928.22	67.7826	2,928.22	69.2416	2,928.22	67.4724	2,928.22	69.1687	2,928.22	66.8442	2,928.22	70.7545	2,928.22	68.0675	2,928.22	69.763	2,928.22	63.9767	2,928.22	67.6352	2,928.22	61.6472	2,928.22	61.8207	2,928.22	65.5624
3,030.76	81.9384	3,030.76	82.04	3,030.76	82.0027	3,030.76	82.0501	3,030.76	82.2839	3,030.76	81.8307	3,030.76	82.3527	3,030.76	80.8832	3,030.76	82.0761	3,030.76	79.4679	3,030.76	81.1651	3,030.76	77.9402	3,030.76	79.4521	3,030.76	76.2157	3,030.76	77.3385	3,030.76	73.9982	3,030.76	75.3835	3,030.76	71.964	3,030.76	73.7655	3,030.76	69.7356	3,030.76	71.0037	3,030.76	68.7303	3,030.76	67.8298	3,030.76	67.174	3,030.76	68.0601	3,030.76	67.9438	3,030.76	67.2932	3,030.76	67.0034	3,030.76	68.6335	3,030.76	66.254	3,030.76	67.5801	3,030.76	63.3795	3,030.76	68.0817	3,030.76	64.88	3,030.76	63.0454	3,030.76	66.737
3,137.7	81.7597	3,137.7	81.9179	3,137.7	81.8779	3,137.7	81.9997	3,137.7	82.1956	3,137.7	81.744	3,137.7	82.5924	3,137.7	80.9335	3,137.7	82.4472	3,137.7	79.5126	3,137.7	81.3552	3,137.7	77.6301	3,137.7	79.5927	3,137.7	75.5711	3,137.7	77.8498	3,137.7	74.0772	3,137.7	75.5414	3,137.7	72.1503	3,137.7	73.7491	3,137.7	69.0937	3,137.7	72.4509	3,137.7	69.3286	3,137.7	69.7595	3,137.7	66.8679	3,137.7	68.8988	3,137.7	63.738	3,137.7	66.0705	3,137.7	68.1539	3,137.7	67.4155	3,137.7	67.341	3,137.7	68.0852	3,137.7	64.0648	3,137.7	67.1522	3,137.7	61.6071	3,137.7	63.6564	3,137.7	67.6012
3,249.02	81.0931	3,249.02	81.3735	3,249.02	81.2341	3,249.02	81.8124	3,249.02	82.0297	3,249.02	81.8071	3,249.02	82.5416	3,249.02	80.916	3,249.02	82.2076	3,249.02	79.5457	3,249.02	81.3037	3,249.02	78.0536	3,249.02	79.6959	3,249.02	75.9332	3,249.02	77.7353	3,249.02	73.4337	3,249.02	75.2431	3,249.02	71.4969	3,249.02	73.1935	3,249.02	68.922	3,249.02	72.4782	3,249.02	67.7257	3,249.02	70.1986	3,249.02	66.7652	3,249.02	68.9574	3,249.02	65.5352	3,249.02	68.0853	3,249.02	63.5272	3,249.02	68.0836	3,249.02	66.6724	3,249.02	68.186	3,249.02	64.7391	3,249.02	67.6144	3,249.02	64.5573	3,249.02	62.6315	3,249.02	66.3301
3,363.28	80.8442	3,363.28	81.4095	3,363.28	81.1428	3,363.28	81.8246	3,363.28	82.0522	3,363.28	81.7507	3,363.28	82.5132	3,363.28	80.8511	3,363.28	82.3238	3,363.28	79.2611	3,363.28	81.287	3,363.28	77.2215	3,363.28	79.399	3,363.28	74.7919	3,363.28	77.5672	3,363.28	72.3069	3,363.28	75.3044	3,363.28	71.1268	3,363.28	72.9844	3,363.28	68.8881	3,363.28	71.173	3,363.28	66.0304	3,363.28	68.8453	3,363.28	66.3953	3,363.28	67.8692	3,363.28	66.6329	3,363.28	67.2993	3,363.28	65.7339	3,363.28	67.0266	3,363.28	65.94	3,363.28	66.5125	3,363.28	65.6501	3,363.28	66.1654	3,363.28	62.7866	3,363.28	63.5708	3,363.28	66.2394
3,481.93	80.4601	3,481.93	81.0032	3,481.93	80.997	3,481.93	81.6521	3,481.93	81.9625	3,481.93	81.4098	3,481.93	82.5846	3,481.93	80.7265	3,481.93	82.2337	3,481.93	78.9076	3,481.93	81.2385	3,481.93	76.5199	3,481.93	79.5356	3,481.93	74.1037	3,481.93	77.5573	3,481.93	71.9115	3,481.93	75.2486	3,481.93	70.5928	3,481.93	72.6788	3,481.93	67.8883	3,481.93	70.3919	3,481.93	65.6246	3,481.93	68.4424	3,481.93	63.6824	3,481.93	67.0956	3,481.93	64.8222	3,481.93	65.7725	3,481.93	64.6267	3,481.93	66.1606	3,481.93	63.811	3,481.93	66.5994	3,481.93	64.5287	3,481.93	65.5542	3,481.93	62.1882	3,481.93	62.8583	3,481.93	66.749
3,604.98	81.1179	3,604.98	81.3007	3,604.98	81.5522	3,604.98	81.9196	3,604.98	82.5385	3,604.98	82.0911	3,604.98	83.052	3,604.98	80.8336	3,604.98	82.614	3,604.98	78.8045	3,604.98	81.3146	3,604.98	76.3494	3,604.98	79.3079	3,604.98	74.3943	3,604.98	77.0052	3,604.98	71.8338	3,604.98	74.3783	3,604.98	68.2225	3,604.98	73.0138	3,604.98	66.9989	3,604.98	70.6727	3,604.98	65.1378	3,604.98	68.245	3,604.98	63.9581	3,604.98	67.4931	3,604.98	61.3837	3,604.98	65.8663	3,604.98	64.2044	3,604.98	65.0772	3,604.98	64.0037	3,604.98	65.4172	3,604.98	63.4124	3,604.98	65.6313	3,604.98	62.0413	3,604.98	62.064	3,604.98	65.8207
3,732.42	81.1477	3,732.42	81.3137	3,732.42	81.3254	3,732.42	81.6039	3,732.42	82.23	3,732.42	81.376	3,732.42	82.5403	3,732.42	80.2754	3,732.42	82.1708	3,732.42	78.6325	3,732.42	81.2703	3,732.42	76.5131	3,732.42	79.1907	3,732.42	74.2186	3,732.42	76.6373	3,732.42	70.8603	3,732.42	74.3667	3,732.42	68.7387	3,732.42	71.0893	3,732.42	66.7853	3,732.42	69.1827	3,732.42	65.2023	3,732.42	68.7019	3,732.42	64.6518	3,732.42	67.2246	3,732.42	62.2601	3,732.42	66.1876	3,732.42	60.8258	3,732.42	64.4382	3,732.42	63.6313	3,732.42	64.2227	3,732.42	63.396	3,732.42	65.4659	3,732.42	58.7449	3,732.42	61.4755	3,732.42	64.6024
3,864.26	81.7267	3,864.26	82.1732	3,864.26	82.0415	3,864.26	82.4417	3,864.26	82.3132	3,864.26	81.1908	3,864.26	82.6421	3,864.26	80.2281	3,864.26	82.1513	3,864.26	78.8731	3,864.26	80.9872	3,864.26	76.4734	3,864.26	79.0816	3,864.26	72.9154	3,864.26	76.915	3,864.26	70.7494	3,864.26	73.924	3,864.26	69.1805	3,864.26	71.0267	3,864.26	66.8273	3,864.26	68.6188	3,864.26	63.9696	3,864.26	66.8698	3,864.26	65.0255	3,864.26	65.1525	3,864.26	66.0005	3,864.26	64.9199	3,864.26	63.5655	3,864.26	64.1289	3,864.26	62.5819	3,864.26	63.8577	3,864.26	64.2624	3,864.26	65.5672	3,864.26	57.629	3,864.26	61.086	3,864.26	63.7498
4,000.49	82.2643	4,000.49	82.458	4,000.49	82.0611	4,000.49	82.4753	4,000.49	82.3864	4,000.49	82.0833	4,000.49	82.3377	4,000.49	80.5263	4,000.49	81.5485	4,000.49	78.1966	4,000.49	80.0113	4,000.49	75.5223	4,000.49	77.9237	4,000.49	72.9985	4,000.49	76.2271	4,000.49	70.8698	4,000.49	73.4201	4,000.49	69.215	4,000.49	71.0535	4,000.49	68.4086	4,000.49	68.8547	4,000.49	64.6362	4,000.49	67.1216	4,000.49	62.8107	4,000.49	65.5635	4,000.49	64.4637	4,000.49	64.0016	4,000.49	64.4346	4,000.49	62.495	4,000.49	60.5624	4,000.49	60.7262	4,000.49	64.4645	4,000.49	64.4319	4,000.49	59.353	4,000.49	62.5062	4,000.49	62.5506
4,141.11	83.2021	4,141.11	82.8009	4,141.11	83.1829	4,141.11	82.7265	4,141.11	82.9227	4,141.11	82.2933	4,141.11	82.3008	4,141.11	80.3447	4,141.11	81.512	4,141.11	78.3885	4,141.11	79.6835	4,141.11	76.6264	4,141.11	77.5791	4,141.11	74.7016	4,141.11	75.3063	4,141.11	69.99	4,141.11	73.3775	4,141.11	65.9026	4,141.11	70.7783	4,141.11	65.4024	4,141.11	67.8656	4,141.11	64.0156	4,141.11	66.0409	4,141.11	61.7998	4,141.11	64.6886	4,141.11	59.6918	4,141.11	66.0386	4,141.11	61.3061	4,141.11	64.9751	4,141.11	62.8074	4,141.11	63.5755	4,141.11	62.4736	4,141.11	63.4991	4,141.11	61.0118	4,141.11	61.5019	4,141.11	62.7644
4,287.6	83.384	4,287.6	83.3607	4,287.6	83.4872	4,287.6	83.0541	4,287.6	83.0963	4,287.6	81.1159	4,287.6	82.8178	4,287.6	79.3108	4,287.6	81.6722	4,287.6	77.6503	4,287.6	79.7378	4,287.6	75.8838	4,287.6	77.6117	4,287.6	73.8377	4,287.6	75.456	4,287.6	71.6528	4,287.6	73.1534	4,287.6	67.7053	4,287.6	71.1236	4,287.6	64.0725	4,287.6	68.5862	4,287.6	63.7277	4,287.6	64.9892	4,287.6	64.0151	4,287.6	61.9389	4,287.6	61.8756	4,287.6	63.4223	4,287.6	62.1941	4,287.6	63.6699	4,287.6	64.194	4,287.6	63.0501	4,287.6	64.0023	4,287.6	64.3666	4,287.6	58.9164	4,287.6	61.7956	4,287.6	60.9802
4,438.48	83.5207	4,438.48	83.896	4,438.48	82.9116	4,438.48	82.9569	4,438.48	83.0504	4,438.48	81.5626	4,438.48	82.3019	4,438.48	79.6905	4,438.48	80.6782	4,438.48	76.8213	4,438.48	78.9097	4,438.48	73.5852	4,438.48	76.9949	4,438.48	71.2907	4,438.48	75.3654	4,438.48	69.9052	4,438.48	72.9737	4,438.48	68.9181	4,438.48	70.827	4,438.48	66.9106	4,438.48	68.5161	4,438.48	58.9352	4,438.48	65.5408	4,438.48	60.0056	4,438.48	61.0367	4,438.48	63.9259	4,438.48	60.8622	4,438.48	60.5011	4,438.48	61.1725	4,438.48	61.235	4,438.48	60.3097	4,438.48	61.6272	4,438.48	64.1995	4,438.48	56.2986	4,438.48	61.4527	4,438.48	62.6216
4,595.21	82.5921	4,595.21	81.6432	4,595.21	82.8326	4,595.21	80.7533	4,595.21	82.2089	4,595.21	79.2782	4,595.21	81.285	4,595.21	77.1427	4,595.21	80.4839	4,595.21	75.5168	4,595.21	78.8643	4,595.21	74.6103	4,595.21	77.1357	4,595.21	72.9034	4,595.21	74.6621	4,595.21	69.698	4,595.21	72.5064	4,595.21	67.5817	4,595.21	70.1719	4,595.21	66.3919	4,595.21	67.9521	4,595.21	65.7621	4,595.21	66.0132	4,595.21	60.2845	4,595.21	62.8821	4,595.21	58.664	4,595.21	61.5943	4,595.21	58.1366	4,595.21	59.9782	4,595.21	58.0212	4,595.21	60.2646	4,595.21	60.9511	4,595.21	63.747	4,595.21	55.9919	4,595.21	61.4566	4,595.21	58.9705
4,756.35	82.2683	4,756.35	81.7476	4,756.35	82.3208	4,756.35	80.8753	4,756.35	81.4836	4,756.35	78.9167	4,756.35	80.9534	4,756.35	78.0214	4,756.35	79.3913	4,756.35	77.073	4,756.35	77.4385	4,756.35	75.3196	4,756.35	75.6853	4,756.35	72.0895	4,756.35	73.5181	4,756.35	70.6183	4,756.35	71.2064	4,756.35	68.0501	4,756.35	69.5306	4,756.35	63.6945	4,756.35	66.6847	4,756.35	62.1619	4,756.35	65.3381	4,756.35	62.4587	4,756.35	63.163	4,756.35	58.823	4,756.35	59.8534	4,756.35	60.6997	4,756.35	62.6983	4,756.35	61.8266	4,756.35	58.2706	4,756.35	62.5201	4,756.35	60.4387	4,756.35	53.3641	4,756.35	61.5964	4,756.35	58.3251
4,924.8	82.0471	4,924.8	81.4922	4,924.8	81.5365	4,924.8	79.8688	4,924.8	81.3295	4,924.8	79.5618	4,924.8	79.7788	4,924.8	78.5247	4,924.8	78.3046	4,924.8	76.6046	4,924.8	77.4333	4,924.8	74.532	4,924.8	75.965	4,924.8	72.7473	4,924.8	74.0128	4,924.8	70.8192	4,924.8	72.5017	4,924.8	69.4813	4,924.8	69.4361	4,924.8	67.6202	4,924.8	67.1448	4,924.8	64.9295	4,924.8	65.6278	4,924.8	63.7665	4,924.8	63.4647	4,924.8	61.4804	4,924.8	59.471	4,924.8	58.953	4,924.8	57.4668	4,924.8	63.6989	4,924.8	61.8967	4,924.8	64.3331	4,924.8	62.0177	4,924.8	58.6599	4,924.8	60.7315	4,924.8	61.5162
5,097.66	81.8925	5,097.66	80.7629	5,097.66	82.3764	5,097.66	80.687	5,097.66	80.9613	5,097.66	79.5352	5,097.66	80.006	5,097.66	78.9992	5,097.66	79.3128	5,097.66	78.7508	5,097.66	77.9249	5,097.66	77.4428	5,097.66	76.5345	5,097.66	74.8187	5,097.66	74.78	5,097.66	71.7857	5,097.66	71.1956	5,097.66	68.871	5,097.66	69.2377	5,097.66	67.9886	5,097.66	66.449	5,097.66	65.2946	5,097.66	63.7934	5,097.66	61.2351	5,097.66	64.2	5,097.66	62.0103	5,097.66	61.9198	5,097.66	59.7926	5,097.66	55.1681	5,097.66	61.2562	5,097.66	60.0072	5,097.66	64.4591	5,097.66	61.0872	5,097.66	55.6743	5,097.66	61.1624	5,097.66	56.3272
5,277.83	83.07	5,277.83	82.4088	5,277.83	82.2997	5,277.83	80.8469	5,277.83	81.1537	5,277.83	80.5797	5,277.83	79.6714	5,277.83	80.4254	5,277.83	78.7991	5,277.83	79.0626	5,277.83	77.8445	5,277.83	76.5987	5,277.83	76.4963	5,277.83	73.9205	5,277.83	74.2834	5,277.83	70.9593	5,277.83	72.1601	5,277.83	69.8038	5,277.83	69.2128	5,277.83	67.4488	5,277.83	67.6875	5,277.83	66.4139	5,277.83	65.7193	5,277.83	65.3123	5,277.83	62.4834	5,277.83	60.0344	5,277.83	61.4004	5,277.83	59.3769	5,277.83	55.7781	5,277.83	60.6601	5,277.83	54.7151	5,277.83	63.8184	5,277.83	59.3184	5,277.83	56.3028	5,277.83	61.381	5,277.83	55.6829
5,463.87	83.0783	5,463.87	81.7405	5,463.87	82.8987	5,463.87	80.9953	5,463.87	80.8879	5,463.87	80.659	5,463.87	79.7972	5,463.87	80.0912	5,463.87	79.6544	5,463.87	78.5538	5,463.87	78.6743	5,463.87	76.5529	5,463.87	76.8005	5,463.87	74.3976	5,463.87	74.3328	5,463.87	72.5556	5,463.87	71.1348	5,463.87	69.1212	5,463.87	69.6792	5,463.87	67.7093	5,463.87	67.5885	5,463.87	65.4251	5,463.87	64.3606	5,463.87	62.3865	5,463.87	62.3981	5,463.87	61.7092	5,463.87	60.1927	5,463.87	56.4203	5,463.87	56.3354	5,463.87	61.6921	5,463.87	57.3141	5,463.87	63.6942	5,463.87	57.6646	5,463.87	59.4261	5,463.87	61.5832	5,463.87	57.2907
5,657.23	83.4088	5,657.23	82.2505	5,657.23	82.7836	5,657.23	80.9101	5,657.23	81.135	5,657.23	80.6031	5,657.23	80.1757	5,657.23	80.0479	5,657.23	79.9326	5,657.23	78.7691	5,657.23	78.4671	5,657.23	76.6486	5,657.23	76.7341	5,657.23	74.4231	5,657.23	74.1497	5,657.23	70.4979	5,657.23	72.0517	5,657.23	68.7431	5,657.23	69.5796	5,657.23	65.657	5,657.23	66.8485	5,657.23	63.5713	5,657.23	64.4035	5,657.23	61.703	5,657.23	63.1599	5,657.23	59.8035	5,657.23	61.5143	5,657.23	54.4208	5,657.23	52.812	5,657.23	57.9794	5,657.23	53.4235	5,657.23	62.9966	5,657.23	57.4988	5,657.23	54.9736	5,657.23	60.1833	5,657.23	55.8969
5,856.45	84.2796	5,856.45	82.9881	5,856.45	83.8183	5,856.45	81.4824	5,856.45	81.9577	5,856.45	80.7486	5,856.45	80.7562	5,856.45	79.9236	5,856.45	80.4277	5,856.45	77.8946	5,856.45	79.3085	5,856.45	75.7206	5,856.45	77.3653	5,856.45	72.3705	5,856.45	74.8553	5,856.45	70.4688	5,856.45	72.5346	5,856.45	68.8151	5,856.45	69.9829	5,856.45	66.6519	5,856.45	67.8902	5,856.45	65.3025	5,856.45	65.6137	5,856.45	63.227	5,856.45	63.0202	5,856.45	60.038	5,856.45	63.0966	5,856.45	55.0434	5,856.45	61.0415	5,856.45	55.2324	5,856.45	55.3744	5,856.45	61.3445	5,856.45	55.0449	5,856.45	56.8963	5,856.45	60.9368	5,856.45	54.8965
6,062.99	84.3715	6,062.99	82.7311	6,062.99	83.9268	6,062.99	80.8628	6,062.99	82.3175	6,062.99	80.6596	6,062.99	81.3936	6,062.99	79.6866	6,062.99	81.1322	6,062.99	77.812	6,062.99	79.6755	6,062.99	75.618	6,062.99	77.9055	6,062.99	74.2351	6,062.99	75.4551	6,062.99	71.4928	6,062.99	72.7814	6,062.99	68.7207	6,062.99	69.5712	6,062.99	66.0397	6,062.99	66.6175	6,062.99	65.889	6,062.99	64.9637	6,062.99	62.3954	6,062.99	63.8849	6,062.99	60.549	6,062.99	62.0485	6,062.99	54.5357	6,062.99	60.3814	6,062.99	57.764	6,062.99	55.5447	6,062.99	60.9555	6,062.99	58.6241	6,062.99	56.8582	6,062.99	59.9855	6,062.99	57.6391
6,276.86	84.2576	6,276.86	82.4453	6,276.86	84.0574	6,276.86	81.2943	6,276.86	82.6008	6,276.86	80.7402	6,276.86	81.7652	6,276.86	79.8172	6,276.86	81.2798	6,276.86	78.4814	6,276.86	79.9581	6,276.86	77.041	6,276.86	78.396	6,276.86	73.8551	6,276.86	76.2382	6,276.86	70.7697	6,276.86	73.6158	6,276.86	69.0712	6,276.86	70.9143	6,276.86	66.2115	6,276.86	68.4428	6,276.86	63.589	6,276.86	65.9433	6,276.86	61.0897	6,276.86	64.4489	6,276.86	59.892	6,276.86	63.7161	6,276.86	54.3487	6,276.86	62.4049	6,276.86	51.5296	6,276.86	57.6929	6,276.86	60.2018	6,276.86	57.783	6,276.86	54.3935	6,276.86	61.6992	6,276.86	53.7303
6,498.05	83.847	6,498.05	82.394	6,498.05	83.7217	6,498.05	81.1868	6,498.05	82.2787	6,498.05	80.6775	6,498.05	81.4449	6,498.05	79.8075	6,498.05	81.0958	6,498.05	78.0949	6,498.05	79.834	6,498.05	75.8273	6,498.05	78.4061	6,498.05	73.6026	6,498.05	75.8238	6,498.05	70.493	6,498.05	72.7212	6,498.05	67.294	6,498.05	70.1422	6,498.05	63.9745	6,498.05	66.7907	6,498.05	62.8721	6,498.05	65.2531	6,498.05	61.1592	6,498.05	64.4481	6,498.05	60.5868	6,498.05	60.824	6,498.05	58.7242	6,498.05	61.5869	6,498.05	54.9352	6,498.05	56.5563	6,498.05	59.2465	6,498.05	58.0664	6,498.05	55.5908	6,498.05	60.8974	6,498.05	56.2692
6,726.56	83.6447	6,726.56	82.1844	6,726.56	83.5957	6,726.56	81.2507	6,726.56	82.4405	6,726.56	80.5714	6,726.56	81.9735	6,726.56	79.5807	6,726.56	81.3173	6,726.56	78.0062	6,726.56	79.9277	6,726.56	76.0816	6,726.56	78.2277	6,726.56	72.7104	6,726.56	75.4979	6,726.56	69.4703	6,726.56	72.879	6,726.56	67.8469	6,726.56	69.8238	6,726.56	64.8499	6,726.56	67.188	6,726.56	62.0167	6,726.56	64.6491	6,726.56	60.7725	6,726.56	63.3966	6,726.56	60.3596	6,726.56	60.4576	6,726.56	58.1419	6,726.56	61.2724	6,726.56	57.2533	6,726.56	56.2038	6,726.56	58.2412	6,726.56	57.4205	6,726.56	55.7609	6,726.56	58.5197	6,726.56	55.0383
6,963.87	83.0263	6,963.87	81.9337	6,963.87	82.8935	6,963.87	80.8539	6,963.87	82.1959	6,963.87	80.4073	6,963.87	81.5123	6,963.87	79.616	6,963.87	80.9313	6,963.87	78.0781	6,963.87	79.5881	6,963.87	75.3543	6,963.87	77.7231	6,963.87	72.4009	6,963.87	74.9867	6,963.87	68.954	6,963.87	71.9421	6,963.87	66.2585	6,963.87	68.8555	6,963.87	63.1621	6,963.87	65.177	6,963.87	62.3511	6,963.87	63.6878	6,963.87	59.6001	6,963.87	62.1256	6,963.87	59.3603	6,963.87	59.6324	6,963.87	55.7118	6,963.87	58.6195	6,963.87	54.3308	6,963.87	55.4861	6,963.87	54.9702	6,963.87	53.0255	6,963.87	53.7359	6,963.87	59.9631	6,963.87	53.8677
7,209.96	82.2611	7,209.96	81.3598	7,209.96	82.3021	7,209.96	80.9454	7,209.96	81.7281	7,209.96	80.4159	7,209.96	81.2286	7,209.96	79.4077	7,209.96	80.6202	7,209.96	77.4885	7,209.96	79.0368	7,209.96	75.1328	7,209.96	76.9687	7,209.96	71.4584	7,209.96	73.1823	7,209.96	67.4932	7,209.96	70.2084	7,209.96	65.97	7,209.96	67.5971	7,209.96	62.7558	7,209.96	65.2108	7,209.96	61.652	7,209.96	61.9561	7,209.96	60.273	7,209.96	61.623	7,209.96	56.2657	7,209.96	57.0688	7,209.96	54.7553	7,209.96	57.6964	7,209.96	54.1203	7,209.96	53.1738	7,209.96	55.3205	7,209.96	52.0658	7,209.96	52.1179	7,209.96	56.4107	7,209.96	50.6624
7,464.84	81.3375	7,464.84	80.9692	7,464.84	81.0922	7,464.84	80.2773	7,464.84	80.9766	7,464.84	79.961	7,464.84	80.3261	7,464.84	79.2341	7,464.84	79.6925	7,464.84	77.1234	7,464.84	78.0696	7,464.84	73.8542	7,464.84	75.8635	7,464.84	69.9538	7,464.84	72.2833	7,464.84	68.0897	7,464.84	68.9607	7,464.84	65.9072	7,464.84	66.4762	7,464.84	63.4436	7,464.84	63.7049	7,464.84	61.7595	7,464.84	60.8491	7,464.84	59.5094	7,464.84	59.3516	7,464.84	58.685	7,464.84	56.2607	7,464.84	57.054	7,464.84	59.6046	7,464.84	47.4686	7,464.84	55.1717	7,464.84	53.257	7,464.84	52.6462	7,464.84	51.5927	7,464.84	57.3223	7,464.84	50.5814
7,727.05	80.3545	7,727.05	80.2874	7,727.05	80.45	7,727.05	80.3189	7,727.05	80.4207	7,727.05	79.8236	7,727.05	79.9781	7,727.05	78.7019	7,727.05	79.243	7,727.05	76.3249	7,727.05	77.4874	7,727.05	73.3404	7,727.05	74.6732	7,727.05	70.3291	7,727.05	71.3278	7,727.05	67.9147	7,727.05	67.7041	7,727.05	65.1396	7,727.05	65.6955	7,727.05	63.1802	7,727.05	64.0983	7,727.05	61.9156	7,727.05	61.497	7,727.05	59.2679	7,727.05	59.957	7,727.05	57.1992	7,727.05	56.8251	7,727.05	58.6312	7,727.05	56.0007	7,727.05	50.9846	7,727.05	56.0707	7,727.05	52.2025	7,727.05	49.0153	7,727.05	50.4577	7,727.05	55.8619	7,727.05	50.7025
7,999.51	79.0193	7,999.51	80.0328	7,999.51	79.0355	7,999.51	80.1831	7,999.51	79.7162	7,999.51	80.0027	7,999.51	79.3437	7,999.51	78.9867	7,999.51	78.829	7,999.51	76.8548	7,999.51	76.6186	7,999.51	74.4896	7,999.51	74.2077	7,999.51	72.0588	7,999.51	71.3354	7,999.51	69.2355	7,999.51	68.6487	7,999.51	66.8625	7,999.51	65.818	7,999.51	64.2258	7,999.51	63.017	7,999.51	62.631	7,999.51	61.628	7,999.51	60.2209	7,999.51	59.131	7,999.51	56.7453	7,999.51	58.1229	7,999.51	60.4138	7,999.51	57.2636	7,999.51	51.7508	7,999.51	55.6732	7,999.51	56.2894	7,999.51	51.4114	7,999.51	51.9173	7,999.51	57.0458	7,999.51	53.6274
8,282.23	78.6249	8,282.23	80.7382	8,282.23	78.9994	8,282.23	80.7255	8,282.23	80.5609	8,282.23	80.3961	8,282.23	79.8425	8,282.23	79.4587	8,282.23	79.2355	8,282.23	77.4896	8,282.23	77.3799	8,282.23	75.5587	8,282.23	75.6122	8,282.23	72.5205	8,282.23	73.3563	8,282.23	69.8945	8,282.23	70.0754	8,282.23	67.0406	8,282.23	67.968	8,282.23	64.155	8,282.23	64.2742	8,282.23	62.385	8,282.23	61.6768	8,282.23	62.4099	8,282.23	60.1999	8,282.23	60.1668	8,282.23	59.7917	8,282.23	59.9657	8,282.23	58.7658	8,282.23	51.419	8,282.23	56.3208	8,282.23	55.9148	8,282.23	48.4513	8,282.23	50.4772	8,282.23	56.6681	8,282.23	54.6539
8,573.73	79.8187	8,573.73	81.4711	8,573.73	80.4323	8,573.73	81.2321	8,573.73	81.4377	8,573.73	80.7116	8,573.73	80.7031	8,573.73	78.9796	8,573.73	80.0675	8,573.73	77.6173	8,573.73	78.1616	8,573.73	75.8989	8,573.73	76.6759	8,573.73	72.8845	8,573.73	74.2859	8,573.73	69.6117	8,573.73	70.7502	8,573.73	66.249	8,573.73	67.8027	8,573.73	63.6049	8,573.73	64.7075	8,573.73	61.5631	8,573.73	62.9963	8,573.73	61.2271	8,573.73	59.3141	8,573.73	60.2936	8,573.73	58.8927	8,573.73	58.0034	8,573.73	59.4562	8,573.73	51.5216	8,573.73	56.1046	8,573.73	56.4848	8,573.73	49.2034	8,573.73	45.4471	8,573.73	56.8961	8,573.73	53.5682
8,876.95	80.4055	8,876.95	81.8792	8,876.95	81.0245	8,876.95	81.508	8,876.95	81.8023	8,876.95	80.7959	8,876.95	81.0578	8,876.95	78.8838	8,876.95	80.1364	8,876.95	77.7461	8,876.95	78.035	8,876.95	75.446	8,876.95	76.7005	8,876.95	72.353	8,876.95	73.9635	8,876.95	69.5178	8,876.95	70.3925	8,876.95	65.3816	8,876.95	66.7034	8,876.95	62.057	8,876.95	63.8657	8,876.95	60.7956	8,876.95	62.0979	8,876.95	60.7837	8,876.95	57.9824	8,876.95	60.2962	8,876.95	57.8898	8,876.95	57.3289	8,876.95	58.6093	8,876.95	52.707	8,876.95	55.0358	8,876.95	55.1017	8,876.95	47.7567	8,876.95	45.6368	8,876.95	55.2693	8,876.95	51.8483
9,188.96	81.953	9,188.96	83.0565	9,188.96	82.043	9,188.96	82.4027	9,188.96	82.345	9,188.96	81.2404	9,188.96	81.2659	9,188.96	79.1848	9,188.96	79.6378	9,188.96	77.6374	9,188.96	77.1853	9,188.96	75.2884	9,188.96	75.6517	9,188.96	71.5449	9,188.96	72.3778	9,188.96	68.324	9,188.96	68.2503	9,188.96	64.5863	9,188.96	65.095	9,188.96	61.8634	9,188.96	61.1623	9,188.96	59.9142	9,188.96	59.4039	9,188.96	57.3842	9,188.96	57.2511	9,188.96	60.4579	9,188.96	53.1773	9,188.96	56.9981	9,188.96	58.9444	9,188.96	54.1577	9,188.96	53.7477	9,188.96	53.7646	9,188.96	45.227	9,188.96	46.46	9,188.96	53.6535	9,188.96	51.1311
9,514.16	82.3213	9,514.16	83.3867	9,514.16	82.5158	9,514.16	82.7906	9,514.16	82.3727	9,514.16	81.4157	9,514.16	81.0858	9,514.16	79.2856	9,514.16	79.097	9,514.16	78.0516	9,514.16	77.0003	9,514.16	75.4968	9,514.16	75.0189	9,514.16	71.6064	9,514.16	72.04	9,514.16	68.4045	9,514.16	67.7184	9,514.16	65.1213	9,514.16	64.1272	9,514.16	62.5516	9,514.16	61.9823	9,514.16	59.8665	9,514.16	58.9421	9,514.16	58.2211	9,514.16	57.2887	9,514.16	59.9042	9,514.16	56.2222	9,514.16	56.5207	9,514.16	57.5226	9,514.16	53.9938	9,514.16	52.1644	9,514.16	53.8282	9,514.16	44.1752	9,514.16	47.3908	9,514.16	53.1825	9,514.16	49.1352
9,849.61	82.4425	9,849.61	83.2849	9,849.61	82.6831	9,849.61	82.8273	9,849.61	82.2416	9,849.61	81.5616	9,849.61	81.0573	9,849.61	79.7248	9,849.61	78.8375	9,849.61	78.2417	9,849.61	77.1358	9,849.61	75.5586	9,849.61	75.0137	9,849.61	71.6903	9,849.61	71.6239	9,849.61	68.7568	9,849.61	68.0552	9,849.61	65.2532	9,849.61	64.1193	9,849.61	62.7196	9,849.61	61.8446	9,849.61	59.5374	9,849.61	59.1568	9,849.61	59.0459	9,849.61	57.2768	9,849.61	59.6108	9,849.61	55.32	9,849.61	55.1848	9,849.61	55.5391	9,849.61	54.3999	9,849.61	50.3415	9,849.61	55.1439	9,849.61	45.9165	9,849.61	47.9403	9,849.61	52.1917	9,849.61	50.0002
10,196.8	82.2683	10,196.8	82.8814	10,196.8	82.3486	10,196.8	82.609	10,196.8	81.8184	10,196.8	81.5663	10,196.8	80.7997	10,196.8	80.2115	10,196.8	78.6043	10,196.8	78.2787	10,196.8	77.2962	10,196.8	75.9338	10,196.8	74.9156	10,196.8	72.1399	10,196.8	71.4153	10,196.8	69.1984	10,196.8	68.2609	10,196.8	64.9707	10,196.8	63.2328	10,196.8	62.5088	10,196.8	61.5686	10,196.8	58.8844	10,196.8	59.1772	10,196.8	59.3825	10,196.8	56.6741	10,196.8	59.5353	10,196.8	53.9576	10,196.8	54.8362	10,196.8	55.3709	10,196.8	54.7242	10,196.8	43.7631	10,196.8	54.8452	10,196.8	45.9091	10,196.8	48.7718	10,196.8	53.4879	10,196.8	51.3887
10,555.7	82.8269	10,555.7	82.7549	10,555.7	82.4828	10,555.7	82.4056	10,555.7	81.5232	10,555.7	81.6652	10,555.7	80.516	10,555.7	80.351	10,555.7	78.6119	10,555.7	77.916	10,555.7	77.0247	10,555.7	75.7038	10,555.7	74.1061	10,555.7	71.6911	10,555.7	70.6331	10,555.7	68.4556	10,555.7	67.1768	10,555.7	63.5396	10,555.7	61.9196	10,555.7	61.0422	10,555.7	60.0448	10,555.7	57.9183	10,555.7	57.2589	10,555.7	58.637	10,555.7	53.6883	10,555.7	57.2238	10,555.7	53.6701	10,555.7	53.9123	10,555.7	52.2182	10,555.7	53.629	10,555.7	38.3289	10,555.7	51.9514	10,555.7	44.5114	10,555.7	48.9744	10,555.7	52.5176	10,555.7	51.5313
10,927.7	84.377	10,927.7	83.9425	10,927.7	84.172	10,927.7	82.9423	10,927.7	82.9292	10,927.7	81.4631	10,927.7	80.9867	10,927.7	79.2463	10,927.7	78.2135	10,927.7	76.0684	10,927.7	74.7057	10,927.7	73.0451	10,927.7	70.3701	10,927.7	68.4332	10,927.7	64.8949	10,927.7	64.4895	10,927.7	59.6554	10,927.7	60.5198	10,927.7	51.5992	10,927.7	58.7663	10,927.7	48.4305	10,927.7	52.9342	10,927.7	48.3461	10,927.7	54.2679	10,927.7	48.3171	10,927.7	52.8752	10,927.7	47.6552	10,927.7	49.4672	10,927.7	45.1668	10,927.7	50.3397	10,927.7	41.3197	10,927.7	49.3841	10,927.7	23.9621	10,927.7	41.7757	10,927.7	44.5244	10,927.7	48.0948
11,313	84.8723	11,313	84.2514	11,313	84.512	11,313	82.7754	11,313	83.0141	11,313	80.815	11,313	80.6645	11,313	77.9359	11,313	77.5386	11,313	73.9737	11,313	73.4146	11,313	70.7558	11,313	68.9051	11,313	64.8542	11,313	63.3479	11,313	61.5946	11,313	60.801	11,313	57.7161	11,313	55.1711	11,313	54.6175	11,313	54.2202	11,313	50.1266	11,313	53.1699	11,313	52.4641	11,313	51.254	11,313	49.8207	11,313	49.0844	11,313	47.2016	11,313	49.263	11,313	45.7293	11,313	42.8487	11,313	47.3147	11,313	34.2543	11,313	43.4425	11,313	43.2964	11,313	48.2433
11,712.9	85.0124	11,712.9	84.2681	11,712.9	84.6202	11,712.9	82.4543	11,712.9	82.9327	11,712.9	80.2138	11,712.9	80.3091	11,712.9	77.07	11,712.9	76.8987	11,712.9	73.2503	11,712.9	72.6284	11,712.9	69.8315	11,712.9	68.4999	11,712.9	64.8612	11,712.9	63.6122	11,712.9	62.1815	11,712.9	62.5825	11,712.9	57.0865	11,712.9	58.4783	11,712.9	56.5288	11,712.9	56.355	11,712.9	52.0467	11,712.9	53.8887	11,712.9	53.1613	11,712.9	52.0802	11,712.9	49.9565	11,712.9	50.1786	11,712.9	49.3561	11,712.9	46.5068	11,712.9	48.5484	11,712.9	43.9323	11,712.9	44.1062	11,712.9	41.1672	11,712.9	42.9182	11,712.9	28.4241	11,712.9	46.331
12,126	84.7496	12,126	83.94	12,126	84.2756	12,126	82.093	12,126	82.4656	12,126	80.0208	12,126	79.9327	12,126	76.8462	12,126	76.7935	12,126	73.5096	12,126	73.2437	12,126	70.5263	12,126	70.0254	12,126	66.7234	12,126	66.5079	12,126	63.751	12,126	65.8926	12,126	60.081	12,126	62.1095	12,126	59.0387	12,126	58.1759	12,126	54.5621	12,126	54.8982	12,126	54.7891	12,126	54.5029	12,126	52.3173	12,126	52.4295	12,126	48.6504	12,126	49.6824	12,126	51.0977	12,126	43.7777	12,126	44.7704	12,126	41.6797	12,126	38.2996	12,126	45.6581	12,126	43.8722
12,553.7	84.2285	12,553.7	83.2127	12,553.7	83.6011	12,553.7	81.7441	12,553.7	81.6571	12,553.7	80.3008	12,553.7	79.4965	12,553.7	77.9707	12,553.7	76.9262	12,553.7	75.2224	12,553.7	74.1505	12,553.7	73.0471	12,553.7	71.2134	12,553.7	69.5333	12,553.7	69.1205	12,553.7	67.0572	12,553.7	68.384	12,553.7	61.9078	12,553.7	64.2294	12,553.7	59.8083	12,553.7	60.3012	12,553.7	57.0223	12,553.7	56.3402	12,553.7	57.1395	12,553.7	56.2205	12,553.7	54.2221	12,553.7	52.559	12,553.7	48.5463	12,553.7	52.1449	12,553.7	51.6534	12,553.7	44.7633	12,553.7	49.4827	12,553.7	38.2512	12,553.7	38.9682	12,553.7	49.6542	12,553.7	38.3041
12,996.1	83.4561	12,996.1	82.266	12,996.1	82.5762	12,996.1	81.3523	12,996.1	80.4356	12,996.1	80.053	12,996.1	79.2507	12,996.1	78.3979	12,996.1	77.2	12,996.1	75.3491	12,996.1	75.1424	12,996.1	73.9125	12,996.1	72.5546	12,996.1	70.5061	12,996.1	71.0926	12,996.1	67.8104	12,996.1	68.9686	12,996.1	61.58	12,996.1	64.0971	12,996.1	59.3804	12,996.1	60.7363	12,996.1	57.6581	12,996.1	58.7291	12,996.1	58.3708	12,996.1	56.306	12,996.1	53.8662	12,996.1	52.4275	12,996.1	46.9601	12,996.1	49.1972	12,996.1	48.1454	12,996.1	42.8067	12,996.1	51.7853	12,996.1	41.5851	12,996.1	42.5065	12,996.1	48.0316	12,996.1	40.0811
13,454.6	82.898	13,454.6	81.5471	13,454.6	81.9787	13,454.6	81.1006	13,454.6	80.0727	13,454.6	79.9846	13,454.6	79.3594	13,454.6	78.3932	13,454.6	77.7298	13,454.6	75.607	13,454.6	75.3435	13,454.6	73.9585	13,454.6	73.5448	13,454.6	70.4314	13,454.6	70.8161	13,454.6	67.2874	13,454.6	67.8745	13,454.6	61.1844	13,454.6	63.017	13,454.6	59.002	13,454.6	59.6597	13,454.6	56.713	13,454.6	57.1026	13,454.6	57.2022	13,454.6	54.2313	13,454.6	51.8846	13,454.6	50.7464	13,454.6	46.5496	13,454.6	48.7594	13,454.6	42.6521	13,454.6	45.9605	13,454.6	52.1218	13,454.6	43.5338	13,454.6	45.0337	13,454.6	43.4867	13,454.6	41.9977
13,929.2	82.5212	13,929.2	81.2374	13,929.2	81.4713	13,929.2	80.9411	13,929.2	79.8792	13,929.2	79.8392	13,929.2	79.0815	13,929.2	77.9236	13,929.2	77.6392	13,929.2	75.0762	13,929.2	74.3225	13,929.2	72.8169	13,929.2	73.3733	13,929.2	68.9405	13,929.2	69.079	13,929.2	66.2263	13,929.2	67.3028	13,929.2	59.8473	13,929.2	63.6356	13,929.2	57.5887	13,929.2	58.6063	13,929.2	56.0938	13,929.2	56.4373	13,929.2	55.6578	13,929.2	54.6371	13,929.2	48.7643	13,929.2	45.0766	13,929.2	44.8942	13,929.2	49.6295	13,929.2	29.4412	13,929.2	45.5861	13,929.2	50.1376	13,929.2	40.1323	13,929.2	46.9987	13,929.2	39.6318	13,929.2	46.3239
14,419.9	81.9156	14,419.9	80.9225	14,419.9	80.7202	14,419.9	80.6129	14,419.9	79.5103	14,419.9	79.3953	14,419.9	78.727	14,419.9	76.4116	14,419.9	77.6315	14,419.9	74.1148	14,419.9	74.3282	14,419.9	71.1692	14,419.9	73.4803	14,419.9	67.7391	14,419.9	69.4246	14,419.9	65.6987	14,419.9	67.9031	14,419.9	56.8321	14,419.9	63.233	14,419.9	54.9419	14,419.9	58.2637	14,419.9	55.9845	14,419.9	56.8191	14,419.9	54.2938	14,419.9	53.2355	14,419.9	49.7094	14,419.9	48.3675	14,419.9	44.5087	14,419.9	49.2933	14,419.9	43.7541	14,419.9	41.3832	14,419.9	47.5813	14,419.9	41.6121	14,419.9	47.0748	14,419.9	46.4731	14,419.9	49.8632
14,928.2	81.6716	14,928.2	80.997	14,928.2	80.4851	14,928.2	80.411	14,928.2	79.5677	14,928.2	79.2125	14,928.2	78.5284	14,928.2	75.3451	14,928.2	77.6685	14,928.2	74.2118	14,928.2	74.5015	14,928.2	70.6134	14,928.2	72.9864	14,928.2	67.1845	14,928.2	68.8332	14,928.2	63.9614	14,928.2	67.1238	14,928.2	57.9061	14,928.2	63.4162	14,928.2	55.6741	14,928.2	57.608	14,928.2	55.6056	14,928.2	56.5306	14,928.2	53.8631	14,928.2	52.9743	14,928.2	47.2847	14,928.2	49.6387	14,928.2	40.2138	14,928.2	50.0639	14,928.2	47.2894	14,928.2	36.5995	14,928.2	44.7251	14,928.2	40.032	14,928.2	46.5748	14,928.2	50.4802	14,928.2	52.761
15,455.6	81.0849	15,455.6	80.8007	15,455.6	79.9454	15,455.6	80.8668	15,455.6	79.5104	15,455.6	79.6679	15,455.6	78.9913	15,455.6	76.0069	15,455.6	77.9587	15,455.6	74.3035	15,455.6	74.5375	15,455.6	70.4149	15,455.6	72.3315	15,455.6	67.1528	15,455.6	68.6205	15,455.6	64.3773	15,455.6	67.0131	15,455.6	57.5782	15,455.6	63.602	15,455.6	54.3615	15,455.6	54.1305	15,455.6	57.2168	15,455.6	56.5058	15,455.6	53.8582	15,455.6	50.6745	15,455.6	40.169	15,455.6	53.6722	15,455.6	45.5553	15,455.6	48.3166	15,455.6	49.6507	15,455.6	39.6567	15,455.6	43.0064	15,455.6	33.7429	15,455.6	46.6445	15,455.6	53.0124	15,455.6	54.3945
16,000.5	79.6321	16,000.5	80.121	16,000.5	78.5388	16,000.5	81.1385	16,000.5	78.6578	16,000.5	79.8438	16,000.5	78.8107	16,000.5	76.2256	16,000.5	77.2493	16,000.5	73.8566	16,000.5	74.0443	16,000.5	70.6842	16,000.5	71.164	16,000.5	67.9905	16,000.5	67.5159	16,000.5	64.6768	16,000.5	65.6389	16,000.5	57.8946	16,000.5	61.4839	16,000.5	53.386	16,000.5	48.9249	16,000.5	58.3142	16,000.5	55.2698	16,000.5	53.8062	16,000.5	46.2675	16,000.5	23.9046	16,000.5	54.5285	16,000.5	49.023	16,000.5	47.2635	16,000.5	53.2302	16,000.5	42.5461	16,000.5	45.136	16,000.5	30.5095	16,000.5	49.7634	16,000.5	56.5699	16,000.5	55.3216
16,564.5	79.8526	16,564.5	80.3266	16,564.5	78.6461	16,564.5	81.5264	16,564.5	78.7936	16,564.5	79.7949	16,564.5	78.767	16,564.5	76.0242	16,564.5	76.7253	16,564.5	73.3443	16,564.5	72.6834	16,564.5	70.2731	16,564.5	69.8199	16,564.5	67.1937	16,564.5	65.2697	16,564.5	63.5904	16,564.5	63.7568	16,564.5	57.696	16,564.5	62.0241	16,564.5	50.5448	16,564.5	48.4712	16,564.5	59.4327	16,564.5	54.1376	16,564.5	53.6756	16,564.5	38.4316	16,564.5	36.1339	16,564.5	56.3874	16,564.5	48.2058	16,564.5	48.3513	16,564.5	54.5704	16,564.5	39.1563	16,564.5	44.8463	16,564.5	38.9141	16,564.5	52.5023	16,564.5	58.8799	16,564.5	56.697
17,148.9	83.1209	17,148.9	82.7104	17,148.9	81.8304	17,148.9	82.1679	17,148.9	80.433	17,148.9	78.7635	17,148.9	78.2979	17,148.9	73.9592	17,148.9	75.3342	17,148.9	70.1175	17,148.9	70.2686	17,148.9	68.2361	17,148.9	67.11	17,148.9	64.7366	17,148.9	64.2472	17,148.9	60.6225	17,148.9	64.4692	17,148.9	56.2674	17,148.9	62.3459	17,148.9	40.4359	17,148.9	52.6614	17,148.9	58.0762	17,148.9	51.5003	17,148.9	50.9819	17,148.9	39.9518	17,148.9	27.288	17,148.9	57.2435	17,148.9	47.9014	17,148.9	49.0897	17,148.9	54.1691	17,148.9	29.875	17,148.9	40.584	17,148.9	45.4045	17,148.9	51.0668	17,148.9	59.7489	17,148.9	54.966
17,752.4	83.5842	17,752.4	83.0327	17,752.4	82.452	17,752.4	81.5268	17,752.4	80.6272	17,752.4	77.39	17,752.4	77.2869	17,752.4	71.7542	17,752.4	74.0227	17,752.4	68.7237	17,752.4	69.6137	17,752.4	67.814	17,752.4	67.3633	17,752.4	63.5483	17,752.4	64.4184	17,752.4	59.8831	17,752.4	64.7546	17,752.4	55.43	17,752.4	63.0796	17,752.4	34.1815	17,752.4	53.6439	17,752.4	58.0845	17,752.4	51.5346	17,752.4	49.6914	17,752.4	44.4943	17,752.4	34.7283	17,752.4	56.705	17,752.4	50.4103	17,752.4	49.6654	17,752.4	53.3408	17,752.4	44.0466	17,752.4	41.6376	17,752.4	47.5544	17,752.4	48.3915	17,752.4	59.3585	17,752.4	54.398
18,379.4	83.2721	18,379.4	82.8685	18,379.4	82.3448	18,379.4	80.9432	18,379.4	80.2335	18,379.4	76.5082	18,379.4	76.6716	18,379.4	69.9627	18,379.4	73.3047	18,379.4	68.3703	18,379.4	69.242	18,379.4	67.1791	18,379.4	67.3729	18,379.4	63.856	18,379.4	63.543	18,379.4	60.0101	18,379.4	64.1852	18,379.4	54.2225	18,379.4	61.5472	18,379.4	44.2547	18,379.4	53.9649	18,379.4	58.3961	18,379.4	49.4133	18,379.4	49.0649	18,379.4	47.1584	18,379.4	38.328	18,379.4	56.3405	18,379.4	51.5055	18,379.4	47.7023	18,379.4	53.0297	18,379.4	48.3937	18,379.4	41.0999	18,379.4	49.412	18,379.4	47.5669	18,379.4	57.8401	18,379.4	55.2277
19,026.9	82.3938	19,026.9	82.0071	19,026.9	81.6805	19,026.9	79.7751	19,026.9	79.4857	19,026.9	75.1011	19,026.9	75.6454	19,026.9	68.9326	19,026.9	72.4636	19,026.9	67.3711	19,026.9	68.4525	19,026.9	66.367	19,026.9	66.1742	19,026.9	62.9722	19,026.9	61.1293	19,026.9	58.6447	19,026.9	61.8081	19,026.9	55.4681	19,026.9	60.3481	19,026.9	47.9114	19,026.9	52.772	19,026.9	56.8816	19,026.9	42.2006	19,026.9	48.5286	19,026.9	49.4107	19,026.9	41.0971	19,026.9	54.2707	19,026.9	51.5905	19,026.9	47.449	19,026.9	52.3057	19,026.9	46.0136	19,026.9	37.834	19,026.9	47.8566	19,026.9	45.2205	19,026.9	56.5346	19,026.9	55.2267
19,697.8	81.1457	19,697.8	81.2382	19,697.8	80.6843	19,697.8	78.8839	19,697.8	78.5336	19,697.8	74.1417	19,697.8	74.49	19,697.8	68.5802	19,697.8	71.0621	19,697.8	67.0251	19,697.8	66.5445	19,697.8	64.3453	19,697.8	62.4833	19,697.8	61.6461	19,697.8	57.7236	19,697.8	57.591	19,697.8	56.4947	19,697.8	55.6123	19,697.8	56.3274	19,697.8	48.3376	19,697.8	47.834	19,697.8	55.4772	19,697.8	40.3724	19,697.8	48.5194	19,697.8	47.7372	19,697.8	39.8469	19,697.8	53.6459	19,697.8	50.5834	19,697.8	42.5703	19,697.8	52.5375	19,697.8	40.3424	19,697.8	31.2637	19,697.8	44.1382	19,697.8	47.2717	19,697.8	56.3661	19,697.8	55.5303
19,999.5	80.8558	19,999.5	81.1529	19,999.5	80.5887	19,999.5	78.7155	19,999.5	78.3904	19,999.5	73.9434	19,999.5	74.4121	19,999.5	68.3616	19,999.5	70.4077	19,999.5	65.9934	19,999.5	65.6074	19,999.5	63.8317	19,999.5	60.3464	19,999.5	60.6844	19,999.5	55.3202	19,999.5	57.1792	19,999.5	55.4406	19,999.5	55.5265	19,999.5	55.213	19,999.5	45.5124	19,999.5	47.6026	19,999.5	55.316	19,999.5	45.0378	19,999.5	44.7186	19,999.5	46.544	19,999.5	47.5961	19,999.5	54.1335	19,999.5	48.2626	19,999.5	38.2315	19,999.5	52.5734	19,999.5	43.8323	19,999.5	42.7482	19,999.5	46.5343	19,999.5	46.0665	19,999.5	59.4219	19,999.5	53.6335
