"CEA2034"													
"On Axis"		"Listening Window"		"Early Reflections"		"Sound Power"		"Sound Power DI"		"Early Reflections DI"		"DI offset"	
"Frequency [Hz]"	"Sound Pessure Level [dB]  / [2.83V 1m] "	"Frequency [Hz]"	"Sound Pessure Level [dB]  / [2.83V 1m] "	"Frequency [Hz]"	"Sound Pessure Level [dB]  / [2.83V 1m] "	"Frequency [Hz]"	"Sound Pessure Level [dB]  / [2.83V 1m] "	"Frequency [Hz]"	"Sound Pessure Level [dB]  / [2.83V 1m] "	"Frequency [Hz]"	"Sound Pessure Level [dB]  / [2.83V 1m] "	"Frequency [Hz]"	"Sound Pessure Level [dB]  / [2.83V 1m] "
20.5078	58.4641	20.5078	58.3645	20.5078	59.7994	20.5078	62.8599	20.5078	35.484	20.5078	38.5445	20.5078	39.9794
21.9727	59.6614	21.9727	59.4741	21.9727	60.3467	21.9727	63.2264	21.9727	36.2271	21.9727	39.1068	21.9727	39.9794
23.4375	61.4288	23.4375	61.3425	23.4375	62.703	23.4375	65.6378	23.4375	35.6841	23.4375	38.6189	23.4375	39.9794
24.9023	62.9582	24.9023	62.8822	24.9023	64.1661	24.9023	66.9758	24.9023	35.8859	24.9023	38.6955	24.9023	39.9794
26.3672	65.0001	26.3672	64.9215	26.3672	65.8443	26.3672	68.2436	26.3672	36.6572	26.3672	39.0566	26.3672	39.9794
27.832	66.3389	27.832	66.2926	27.832	67.3594	27.832	69.771	27.832	36.501	27.832	38.9126	27.832	39.9794
29.2969	68.318	29.2969	68.2735	29.2969	69.0599	29.2969	71.0925	29.2969	37.1604	29.2969	39.193	29.2969	39.9794
30.7617	69.6575	30.7617	69.6371	30.7617	70.4845	30.7617	72.4695	30.7617	37.147	30.7617	39.132	30.7617	39.9794
32.2266	71.3005	32.2266	71.2896	32.2266	72.0465	32.2266	73.8403	32.2266	37.4287	32.2266	39.2225	32.2266	39.9794
33.6914	72.7368	33.6914	72.7375	33.6914	73.4653	33.6914	75.1416	33.6914	37.5753	33.6914	39.2516	33.6914	39.9794
35.1563	74.0842	35.1563	74.0913	35.1563	74.7624	35.1563	76.3042	35.1563	37.7665	35.1563	39.3083	35.1563	39.9794
36.6211	75.3862	36.6211	75.4002	36.6211	76.0342	36.6211	77.4674	36.6211	37.9122	36.6211	39.3454	36.6211	39.9794
38.0859	76.5333	38.0859	76.5519	38.0859	77.1468	38.0859	78.4773	38.0859	38.054	38.0859	39.3845	38.0859	39.9794
39.5508	77.5681	39.5508	77.5921	39.5508	78.1716	39.5508	79.4349	39.5508	38.1366	39.5508	39.3999	39.5508	39.9794
41.0156	78.5965	41.0156	78.6251	41.0156	79.1766	41.0156	80.3501	41.0156	38.2544	41.0156	39.4279	41.0156	39.9794
42.4805	79.5385	42.4805	79.5691	42.4805	80.0876	42.4805	81.1827	42.4805	38.3658	42.4805	39.4609	42.4805	39.9794
43.9453	80.2583	43.9453	80.291	43.9453	80.7821	43.9453	81.8084	43.9453	38.4619	43.9453	39.4883	43.9453	39.9794
45.4102	80.9712	45.4102	81.0057	45.4102	81.4729	45.4102	82.4359	45.4102	38.5491	45.4102	39.5122	45.4102	39.9794
46.875	81.5948	46.875	81.6319	46.875	82.0795	46.875	82.9736	46.875	38.6376	46.875	39.5317	46.875	39.9794
48.3398	82.0699	48.3398	82.1106	48.3398	82.5609	48.3398	83.4326	48.3398	38.6574	48.3398	39.529	48.3398	39.9794
51.2695	82.9836	51.2695	83.0249	51.2695	83.431	51.2695	84.199	51.2695	38.8053	51.2695	39.5733	51.2695	39.9794
52.7344	83.3094	52.7344	83.3542	52.7344	83.7661	52.7344	84.5199	52.7344	38.8137	52.7344	39.5674	52.7344	39.9794
54.1992	83.623	54.1992	83.6681	54.1992	84.0615	54.1992	84.7677	54.1992	38.8798	54.1992	39.586	54.1992	39.9794
55.6641	83.9471	55.6641	83.991	55.6641	84.3548	55.6641	85.0018	55.6641	38.9686	55.6641	39.6156	55.6641	39.9794
58.5938	84.5332	58.5938	84.5748	58.5938	84.8972	58.5938	85.4632	58.5938	39.091	58.5938	39.6571	58.5938	39.9794
60.0586	84.7384	60.0586	84.7803	60.0586	85.0918	60.0586	85.631	60.0586	39.1286	60.0586	39.6679	60.0586	39.9794
62.9883	85.0368	62.9883	85.0805	62.9883	85.3858	62.9883	85.8953	62.9883	39.1646	62.9883	39.674	62.9883	39.9794
64.4531	85.1815	64.4531	85.2261	64.4531	85.5286	64.4531	86.0244	64.4531	39.181	64.4531	39.6769	64.4531	39.9794
67.3828	85.4131	67.3828	85.4583	67.3828	85.7497	67.3828	86.2125	67.3828	39.2252	67.3828	39.688	67.3828	39.9794
68.8477	85.4763	68.8477	85.5219	68.8477	85.8087	68.8477	86.2576	68.8477	39.2437	68.8477	39.6926	68.8477	39.9794
71.7773	85.7332	71.7773	85.7774	71.7773	86.0406	71.7773	86.441	71.7773	39.3158	71.7773	39.7162	71.7773	39.9794
74.707	86.0721	74.707	86.1124	74.707	86.3342	74.707	86.6577	74.707	39.4341	74.707	39.7576	74.707	39.9794
77.6367	86.1987	77.6367	86.2399	77.6367	86.4589	77.6367	86.7633	77.6367	39.456	77.6367	39.7604	77.6367	39.9794
79.1016	86.225	79.1016	86.2656	79.1016	86.4766	79.1016	86.765	79.1016	39.48	79.1016	39.7684	79.1016	39.9794
82.0313	86.3026	82.0313	86.3417	82.0313	86.5359	82.0313	86.7945	82.0313	39.5266	82.0313	39.7851	82.0313	39.9794
84.9609	86.3988	84.9609	86.4373	84.9609	86.6232	84.9609	86.866	84.9609	39.5507	84.9609	39.7935	84.9609	39.9794
87.8906	86.4427	87.8906	86.4788	87.8906	86.6426	87.8906	86.8482	87.8906	39.6099	87.8906	39.8155	87.8906	39.9794
90.8203	86.4135	90.8203	86.4488	90.8203	86.6047	90.8203	86.7921	90.8203	39.6361	90.8203	39.8235	90.8203	39.9794
95.2148	86.5659	95.2148	86.5952	95.2148	86.6995	95.2148	86.7982	95.2148	39.7764	95.2148	39.8751	95.2148	39.9794
98.1445	86.5626	98.1445	86.5924	98.1445	86.7002	98.1445	86.806	98.1445	39.7658	98.1445	39.8716	98.1445	39.9794
101.074	86.5572	101.074	86.5862	101.074	86.6914	101.074	86.7916	101.074	39.774	101.074	39.8742	101.074	39.9794
105.469	86.4353	105.469	86.4576	105.469	86.516	105.469	86.545	105.469	39.8919	105.469	39.921	105.469	39.9794
108.398	86.5495	108.398	86.5693	108.398	86.611	108.398	86.617	108.398	39.9317	108.398	39.9377	108.398	39.9794
112.793	86.6055	112.793	86.6264	112.793	86.6711	112.793	86.672	112.793	39.9337	112.793	39.9347	112.793	39.9794
117.188	86.5914	117.188	86.6036	117.188	86.5997	117.188	86.5433	117.188	40.0397	117.188	39.9833	117.188	39.9794
120.117	86.5668	120.117	86.5777	120.117	86.5682	120.117	86.51	120.117	40.0471	120.117	39.9888	120.117	39.9794
124.512	86.5889	124.512	86.5991	124.512	86.5933	124.512	86.5501	124.512	40.0284	124.512	39.9852	124.512	39.9794
128.906	86.4617	128.906	86.4688	128.906	86.4449	128.906	86.3787	128.906	40.0695	128.906	40.0033	128.906	39.9794
133.301	86.34	133.301	86.3446	133.301	86.3092	133.301	86.2353	133.301	40.0887	133.301	40.0147	133.301	39.9794
139.16	86.1942	139.16	86.193	139.16	86.1255	139.16	86.0186	139.16	40.1538	139.16	40.0469	139.16	39.9794
143.555	86.1391	143.555	86.1311	143.555	86.0245	143.555	85.872	143.555	40.2385	143.555	40.086	143.555	39.9794
147.949	86.0619	147.949	86.0484	147.949	85.9039	147.949	85.7022	147.949	40.3256	147.949	40.1239	147.949	39.9794
153.809	86.0133	153.809	85.9939	153.809	85.8008	153.809	85.5202	153.809	40.4532	153.809	40.1725	153.809	39.9794
159.668	86.0064	159.668	85.9861	159.668	85.7824	159.668	85.4818	159.668	40.4837	159.668	40.1831	159.668	39.9794
165.527	85.9794	165.527	85.9594	165.527	85.7673	165.527	85.4929	165.527	40.4459	165.527	40.1716	165.527	39.9794
171.387	85.929	171.387	85.9019	171.387	85.683	171.387	85.3751	171.387	40.5062	171.387	40.1983	171.387	39.9794
177.246	85.7398	177.246	85.712	177.246	85.4897	177.246	85.1713	177.246	40.5201	177.246	40.2017	177.246	39.9794
183.105	85.4549	183.105	85.4122	183.105	85.1201	183.105	84.7686	183.105	40.623	183.105	40.2715	183.105	39.9794
188.965	85.5003	188.965	85.4496	188.965	85.0737	188.965	84.563	188.965	40.866	188.965	40.3553	188.965	39.9794
196.289	85.4424	196.289	85.3928	196.289	85.0344	196.289	84.5276	196.289	40.8446	196.289	40.3378	196.289	39.9794
203.613	85.3012	203.613	85.242	203.613	84.836	203.613	84.2845	203.613	40.9369	203.613	40.3854	203.613	39.9794
210.938	85.2662	210.938	85.1994	210.938	84.7369	210.938	84.0826	210.938	41.0962	210.938	40.4418	210.938	39.9794
218.262	85.1863	218.262	85.1206	218.262	84.6524	218.262	83.9618	218.262	41.1382	218.262	40.4476	218.262	39.9794
225.586	85.0688	225.586	84.996	225.586	84.5131	225.586	83.85	225.586	41.1254	225.586	40.4623	225.586	39.9794
232.91	85.158	232.91	85.0786	232.91	84.5247	232.91	83.7076	232.91	41.3504	232.91	40.5333	232.91	39.9794
241.699	85.0446	241.699	84.9704	241.699	84.4591	241.699	83.6656	241.699	41.2842	241.699	40.4907	241.699	39.9794
250.488	84.9337	250.488	84.8376	250.488	84.1894	250.488	83.2343	250.488	41.5827	250.488	40.6276	250.488	39.9794
259.277	85.3258	259.277	85.2519	259.277	84.672	259.277	83.6465	259.277	41.5847	259.277	40.5593	259.277	39.9794
268.066	84.476	268.066	84.3904	268.066	83.8887	268.066	83.1585	268.066	41.2112	268.066	40.4811	268.066	39.9794
276.855	84.6864	276.855	84.5933	276.855	83.9288	276.855	82.8717	276.855	41.7009	276.855	40.6439	276.855	39.9794
287.109	84.5683	287.109	84.471	287.109	83.8877	287.109	82.8424	287.109	41.6081	287.109	40.5628	287.109	39.9794
297.363	84.2877	297.363	84.1595	297.363	83.4919	297.363	82.5282	297.363	41.6106	297.363	40.647	297.363	39.9794
307.617	84.7264	307.617	84.6161	307.617	83.9532	307.617	82.7649	307.617	41.8307	307.617	40.6424	307.617	39.9794
319.336	84.144	319.336	84.0091	319.336	83.3905	319.336	82.4296	319.336	41.5589	319.336	40.598	319.336	39.9794
329.59	84.3839	329.59	84.2312	329.59	83.4965	329.59	82.426	329.59	41.7846	329.59	40.7141	329.59	39.9794
341.309	84.3717	341.309	84.1821	341.309	83.4691	341.309	82.6465	341.309	41.5149	341.309	40.6924	341.309	39.9794
353.027	84.9976	353.027	84.7397	353.027	83.4927	353.027	82.3209	353.027	42.3982	353.027	41.2264	353.027	39.9794
366.211	85.6843	366.211	85.4493	366.211	84.126	366.211	82.6576	366.211	42.7711	366.211	41.3027	366.211	39.9794
379.395	86.3215	379.395	86.1346	379.395	84.8238	379.395	83.136	379.395	42.978	379.395	41.2902	379.395	39.9794
392.578	85.65	392.578	85.4824	392.578	84.3902	392.578	82.8918	392.578	42.5699	392.578	41.0715	392.578	39.9794
405.762	85.2206	405.762	84.9812	405.762	83.6623	405.762	82.2582	405.762	42.7024	405.762	41.2983	405.762	39.9794
420.41	85.7262	420.41	85.4905	420.41	83.9915	420.41	82.0726	420.41	43.3974	420.41	41.4785	420.41	39.9794
435.059	85.5956	435.059	85.3461	435.059	83.803	435.059	81.9476	435.059	43.3779	435.059	41.5225	435.059	39.9794
451.172	86.3004	451.172	86.1105	451.172	84.4385	451.172	82.1207	451.172	43.9692	451.172	41.6514	451.172	39.9794
465.82	85.3303	465.82	85.2708	465.82	84.2092	465.82	82.1376	465.82	43.1126	465.82	41.041	465.82	39.9794
483.398	84.6791	483.398	84.5527	483.398	83.7932	483.398	82.0598	483.398	42.4723	483.398	40.7389	483.398	39.9794
499.512	85.7456	499.512	85.518	499.512	84.1696	499.512	82.1205	499.512	43.3769	499.512	41.3278	499.512	39.9794
517.09	85.6486	517.09	85.4789	517.09	84.3458	517.09	82.2034	517.09	43.2549	517.09	41.1126	517.09	39.9794
536.133	86.4699	536.133	86.2233	536.133	84.7249	536.133	82.4711	536.133	43.7316	536.133	41.4778	536.133	39.9794
555.176	87.1206	555.176	86.9726	555.176	85.762	555.176	83.2304	555.176	43.7216	555.176	41.19	555.176	39.9794
574.219	86.9779	574.219	86.7519	574.219	85.8712	574.219	83.7226	574.219	43.0087	574.219	40.8601	574.219	39.9794
594.727	87.6386	594.727	87.2794	594.727	85.7855	594.727	83.5385	594.727	43.7203	594.727	41.4733	594.727	39.9794
615.234	88.1018	615.234	87.7696	615.234	85.9687	615.234	83.4061	615.234	44.3429	615.234	41.7803	615.234	39.9794
637.207	87.5635	637.207	87.2304	637.207	85.5135	637.207	83.1893	637.207	44.0205	637.207	41.6963	637.207	39.9794
659.18	87.8187	659.18	87.5263	659.18	85.472	659.18	82.8481	659.18	44.6576	659.18	42.0337	659.18	39.9794
682.617	87.7018	682.617	87.437	682.617	85.5199	682.617	82.9259	682.617	44.4905	682.617	41.8965	682.617	39.9794
707.52	87.4768	707.52	87.2322	707.52	85.5342	707.52	82.9838	707.52	44.2278	707.52	41.6774	707.52	39.9794
732.422	87.3521	732.422	87.1281	732.422	85.3819	732.422	82.7564	732.422	44.3512	732.422	41.7257	732.422	39.9794
757.324	87.5469	757.324	87.1811	757.324	85.3728	757.324	82.6922	757.324	44.4683	757.324	41.7877	757.324	39.9794
785.156	87.8666	785.156	87.5699	785.156	85.5963	785.156	82.6391	785.156	44.9103	785.156	41.953	785.156	39.9794
811.523	87.6526	811.523	87.2998	811.523	85.2818	811.523	82.3046	811.523	44.9745	811.523	41.9974	811.523	39.9794
840.82	88.0872	840.82	87.6927	840.82	85.4586	840.82	82.3677	840.82	45.3044	840.82	42.2135	840.82	39.9794
870.117	87.9796	870.117	87.5672	870.117	85.2945	870.117	82.1021	870.117	45.4445	870.117	42.2521	870.117	39.9794
900.879	88.2462	900.879	87.8177	900.879	85.393	900.879	82.0238	900.879	45.7733	900.879	42.4041	900.879	39.9794
933.105	88.2402	933.105	87.7327	933.105	85.2278	933.105	81.7184	933.105	45.9936	933.105	42.4843	933.105	39.9794
965.332	88.3219	965.332	87.8027	965.332	85.1791	965.332	81.6001	965.332	46.182	965.332	42.603	965.332	39.9794
1,000.49	88.3847	1,000.49	87.8388	1,000.49	85.1214	1,000.49	81.4345	1,000.49	46.3837	1,000.49	42.6968	1,000.49	39.9794
1,035.64	88.2828	1,035.64	87.7214	1,035.64	84.7824	1,035.64	81.1404	1,035.64	46.5604	1,035.64	42.9184	1,035.64	39.9794
1,072.27	87.9482	1,072.27	87.482	1,072.27	84.5277	1,072.27	80.9208	1,072.27	46.5406	1,072.27	42.9337	1,072.27	39.9794
1,108.89	87.2904	1,108.89	86.9806	1,108.89	84.1776	1,108.89	80.6371	1,108.89	46.3229	1,108.89	42.7825	1,108.89	39.9794
1,148.44	86.6398	1,148.44	86.2035	1,148.44	83.4157	1,148.44	80.1232	1,148.44	46.0597	1,148.44	42.7673	1,148.44	39.9794
1,189.45	86.0051	1,189.45	85.5769	1,189.45	82.7675	1,189.45	79.7451	1,189.45	45.8112	1,189.45	42.7888	1,189.45	39.9794
1,230.47	86.1995	1,230.47	85.6672	1,230.47	82.9115	1,230.47	79.8952	1,230.47	45.7513	1,230.47	42.7351	1,230.47	39.9794
1,274.41	86.3885	1,274.41	85.8767	1,274.41	82.9805	1,274.41	79.9141	1,274.41	45.9421	1,274.41	42.8756	1,274.41	39.9794
1,319.82	86.3643	1,319.82	85.785	1,319.82	82.7498	1,319.82	79.8022	1,319.82	45.9622	1,319.82	43.0146	1,319.82	39.9794
1,366.7	85.6845	1,366.7	85.3386	1,366.7	82.384	1,366.7	79.6201	1,366.7	45.6979	1,366.7	42.934	1,366.7	39.9794
1,413.57	85.4836	1,413.57	85.0164	1,413.57	82.2416	1,413.57	79.7486	1,413.57	45.2473	1,413.57	42.7543	1,413.57	39.9794
1,463.38	86.6439	1,463.38	85.9764	1,463.38	82.7694	1,463.38	80.0684	1,463.38	45.8874	1,463.38	43.1863	1,463.38	39.9794
1,516.11	87.2848	1,516.11	86.7468	1,516.11	83.5643	1,516.11	80.4546	1,516.11	46.2716	1,516.11	43.1619	1,516.11	39.9794
1,568.85	86.9347	1,568.85	86.3634	1,568.85	83.3816	1,568.85	80.5043	1,568.85	45.8386	1,568.85	42.9613	1,568.85	39.9794
1,624.51	86.1448	1,624.51	85.7521	1,624.51	82.7194	1,624.51	80.4474	1,624.51	45.284	1,624.51	43.0121	1,624.51	39.9794
1,681.64	86.2036	1,681.64	86.0178	1,681.64	83.0519	1,681.64	80.3724	1,681.64	45.6248	1,681.64	42.9453	1,681.64	39.9794
1,741.7	87.0938	1,741.7	86.7344	1,741.7	84.1349	1,741.7	81.1888	1,741.7	45.525	1,741.7	42.5789	1,741.7	39.9794
1,803.22	86.8378	1,803.22	86.5508	1,803.22	84.0612	1,803.22	81.5885	1,803.22	44.9417	1,803.22	42.469	1,803.22	39.9794
1,866.21	86.5805	1,866.21	86.1516	1,866.21	84.0684	1,866.21	81.5998	1,866.21	44.5313	1,866.21	42.0626	1,866.21	39.9794
1,932.13	86.2469	1,932.13	85.9965	1,932.13	84.2136	1,932.13	81.5414	1,932.13	44.4345	1,932.13	41.7623	1,932.13	39.9794
1,999.51	86.0137	1,999.51	85.7817	1,999.51	84.0266	1,999.51	81.3286	1,999.51	44.4325	1,999.51	41.7344	1,999.51	39.9794
2,069.82	85.4926	2,069.82	85.9401	2,069.82	84.3178	2,069.82	81.7465	2,069.82	44.173	2,069.82	41.6017	2,069.82	39.9794
2,143.07	84.9473	2,143.07	85.4573	2,143.07	84.3899	2,143.07	82.0364	2,143.07	43.4003	2,143.07	41.0468	2,143.07	39.9794
2,219.24	85.8798	2,219.24	86.1349	2,219.24	84.646	2,219.24	82.1126	2,219.24	44.0017	2,219.24	41.4682	2,219.24	39.9794
2,296.88	84.8518	2,296.88	85.8707	2,296.88	84.6111	2,296.88	81.9886	2,296.88	43.8615	2,296.88	41.239	2,296.88	39.9794
2,378.91	84.7169	2,378.91	85.3699	2,378.91	84.3762	2,378.91	82.1589	2,378.91	43.1903	2,378.91	40.9731	2,378.91	39.9794
2,462.4	85.5295	2,462.4	86.1255	2,462.4	84.954	2,462.4	82.4241	2,462.4	43.6808	2,462.4	41.1509	2,462.4	39.9794
2,548.83	85.2276	2,548.83	85.7356	2,548.83	84.6019	2,548.83	82.1007	2,548.83	43.6144	2,548.83	41.1132	2,548.83	39.9794
2,639.65	86.1057	2,639.65	86.3294	2,639.65	84.9388	2,639.65	82.3517	2,639.65	43.9571	2,639.65	41.37	2,639.65	39.9794
2,731.93	86.9217	2,731.93	86.8848	2,731.93	85.1726	2,731.93	82.4817	2,731.93	44.3825	2,731.93	41.6916	2,731.93	39.9794
2,828.61	86.5897	2,828.61	86.5155	2,828.61	84.8318	2,828.61	81.9703	2,828.61	44.5246	2,828.61	41.663	2,828.61	39.9794
2,928.22	87.0987	2,928.22	86.9387	2,928.22	85.1407	2,928.22	81.9828	2,928.22	44.9353	2,928.22	41.7775	2,928.22	39.9794
3,030.76	87.0845	3,030.76	86.9551	3,030.76	85.1653	3,030.76	81.753	3,030.76	45.1816	3,030.76	41.7692	3,030.76	39.9794
3,137.7	86.9947	3,137.7	86.8329	3,137.7	84.9029	3,137.7	81.4255	3,137.7	45.3867	3,137.7	41.9094	3,137.7	39.9794
3,249.02	87.5039	3,249.02	87.0118	3,249.02	84.9263	3,249.02	81.1868	3,249.02	45.8045	3,249.02	42.0649	3,249.02	39.9794
3,363.28	87.7104	3,363.28	87.0843	3,363.28	84.8016	3,363.28	81.0533	3,363.28	46.0104	3,363.28	42.2622	3,363.28	39.9794
3,481.93	87.9392	3,481.93	87.1369	3,481.93	84.6958	3,481.93	81.0875	3,481.93	46.0288	3,481.93	42.4205	3,481.93	39.9794
3,604.98	88.1869	3,604.98	87.2025	3,604.98	84.5772	3,604.98	80.9996	3,604.98	46.1823	3,604.98	42.6047	3,604.98	39.9794
3,732.42	88.0754	3,732.42	86.9584	3,732.42	84.3497	3,732.42	80.8499	3,732.42	46.0879	3,732.42	42.5881	3,732.42	39.9794
3,864.26	88.4176	3,864.26	87.1157	3,864.26	84.3836	3,864.26	80.6524	3,864.26	46.4427	3,864.26	42.7115	3,864.26	39.9794
4,000.49	88.2067	4,000.49	86.7783	4,000.49	84.0541	4,000.49	80.0312	4,000.49	46.7265	4,000.49	42.7035	4,000.49	39.9794
4,141.11	88.584	4,141.11	86.9286	4,141.11	84.1279	4,141.11	79.8818	4,141.11	47.0263	4,141.11	42.7801	4,141.11	39.9794
4,287.6	88.2729	4,287.6	86.6767	4,287.6	83.8442	4,287.6	79.4587	4,287.6	47.1974	4,287.6	42.8119	4,287.6	39.9794
4,438.48	88.0923	4,438.48	86.581	4,438.48	83.7456	4,438.48	79.2661	4,438.48	47.2943	4,438.48	42.8148	4,438.48	39.9794
4,595.21	87.9646	4,595.21	86.5043	4,595.21	83.5269	4,595.21	78.8296	4,595.21	47.6541	4,595.21	42.9568	4,595.21	39.9794
4,756.35	87.56	4,756.35	86.2742	4,756.35	83.2571	4,756.35	78.4655	4,756.35	47.7881	4,756.35	42.9965	4,756.35	39.9794
4,924.8	86.9864	4,924.8	85.9365	4,924.8	82.9443	4,924.8	78.0049	4,924.8	47.911	4,924.8	42.9717	4,924.8	39.9794
5,097.66	87.1357	5,097.66	86.1111	5,097.66	82.9705	5,097.66	77.8427	5,097.66	48.2477	5,097.66	43.1199	5,097.66	39.9794
5,277.83	86.8822	5,277.83	85.8767	5,277.83	82.7676	5,277.83	77.5243	5,277.83	48.3319	5,277.83	43.0885	5,277.83	39.9794
5,463.87	86.5768	5,463.87	85.473	5,463.87	82.5039	5,463.87	77.2462	5,463.87	48.2062	5,463.87	42.9484	5,463.87	39.9794
5,657.23	86.7038	5,657.23	85.3527	5,657.23	82.4242	5,657.23	77.0887	5,657.23	48.2434	5,657.23	42.9079	5,657.23	39.9794
5,856.45	87.0045	5,856.45	85.2346	5,856.45	82.2887	5,856.45	76.8439	5,856.45	48.3701	5,856.45	42.9253	5,856.45	39.9794
6,062.99	87.0104	6,062.99	84.9457	6,062.99	82.0387	6,062.99	76.5768	6,062.99	48.3482	6,062.99	42.8863	6,062.99	39.9794
6,276.86	87.2381	6,276.86	85.0504	6,276.86	82.0702	6,276.86	76.6221	6,276.86	48.4077	6,276.86	42.9596	6,276.86	39.9794
6,498.05	87.4935	6,498.05	85.392	6,498.05	82.3303	6,498.05	76.982	6,498.05	48.3894	6,498.05	43.0411	6,498.05	39.9794
6,726.56	87.3942	6,726.56	85.5438	6,726.56	82.4862	6,726.56	77.3159	6,726.56	48.2074	6,726.56	43.0371	6,726.56	39.9794
6,963.87	87.2864	6,963.87	85.4705	6,963.87	82.4655	6,963.87	77.4689	6,963.87	47.981	6,963.87	42.9843	6,963.87	39.9794
7,209.96	86.9423	7,209.96	85.3238	7,209.96	82.3532	7,209.96	77.5183	7,209.96	47.7849	7,209.96	42.95	7,209.96	39.9794
7,464.84	86.4437	7,464.84	85.1538	7,464.84	82.2214	7,464.84	77.5198	7,464.84	47.6133	7,464.84	42.9118	7,464.84	39.9794
7,727.05	86.1818	7,727.05	85.1905	7,727.05	82.195	7,727.05	77.5066	7,727.05	47.6632	7,727.05	42.9749	7,727.05	39.9794
7,999.51	86.1669	7,999.51	85.3145	7,999.51	82.1842	7,999.51	77.4271	7,999.51	47.8667	7,999.51	43.1097	7,999.51	39.9794
8,282.23	86.0727	8,282.23	85.3732	8,282.23	82.136	8,282.23	77.2823	8,282.23	48.0703	8,282.23	43.2165	8,282.23	39.9794
8,573.73	86.1941	8,573.73	85.7143	8,573.73	82.3457	8,573.73	77.3958	8,573.73	48.2979	8,573.73	43.348	8,573.73	39.9794
8,876.95	86.322	8,876.95	86.0653	8,876.95	82.5897	8,876.95	77.6074	8,876.95	48.4373	8,876.95	43.455	8,876.95	39.9794
9,188.96	86.7081	9,188.96	86.3875	9,188.96	82.7883	9,188.96	77.6774	9,188.96	48.6894	9,188.96	43.5786	9,188.96	39.9794
9,514.16	86.8786	9,514.16	86.5217	9,514.16	82.8825	9,514.16	77.666	9,514.16	48.8351	9,514.16	43.6186	9,514.16	39.9794
9,849.61	87.0381	9,849.61	86.5093	9,849.61	82.859	9,849.61	77.6041	9,849.61	48.8846	9,849.61	43.6297	9,849.61	39.9794
10,196.8	87.0552	10,196.8	86.5021	10,196.8	82.8187	10,196.8	77.528	10,196.8	48.9535	10,196.8	43.6628	10,196.8	39.9794
10,555.7	87.1587	10,555.7	86.4928	10,555.7	82.6932	10,555.7	77.335	10,555.7	49.1372	10,555.7	43.779	10,555.7	39.9794
10,927.7	87.1435	10,927.7	86.3963	10,927.7	82.3096	10,927.7	76.7863	10,927.7	49.5894	10,927.7	44.0661	10,927.7	39.9794
11,313	86.9647	11,313	86.1356	11,313	81.7938	11,313	76.1153	11,313	49.9997	11,313	44.3212	11,313	39.9794
11,712.9	86.8333	11,712.9	85.9669	11,712.9	81.493	11,712.9	75.713	11,712.9	50.2333	11,712.9	44.4533	11,712.9	39.9794
12,126	86.9177	12,126	85.9941	12,126	81.3819	12,126	75.5054	12,126	50.4681	12,126	44.5915	12,126	39.9794
12,553.7	86.5904	12,553.7	85.6706	12,553.7	81.0575	12,553.7	75.2081	12,553.7	50.442	12,553.7	44.5925	12,553.7	39.9794
12,996.1	85.6785	12,996.1	84.8612	12,996.1	80.366	12,996.1	74.659	12,996.1	50.1816	12,996.1	44.4746	12,996.1	39.9794
13,454.6	84.9209	13,454.6	84.0714	13,454.6	79.5087	13,454.6	73.8499	13,454.6	50.2009	13,454.6	44.5421	13,454.6	39.9794
13,929.2	84.5607	13,929.2	83.5906	13,929.2	78.9079	13,929.2	73.186	13,929.2	50.3841	13,929.2	44.6621	13,929.2	39.9794
14,419.9	84.423	14,419.9	83.2224	14,419.9	78.439	14,419.9	72.6356	14,419.9	50.5662	14,419.9	44.7628	14,419.9	39.9794
14,928.2	84.5246	14,928.2	83.0795	14,928.2	78.1956	14,928.2	72.2493	14,928.2	50.8096	14,928.2	44.8633	14,928.2	39.9794
15,455.6	84.5199	15,455.6	82.9161	15,455.6	77.9589	15,455.6	71.8799	15,455.6	51.0156	15,455.6	44.9366	15,455.6	39.9794
16,000.5	84.1751	16,000.5	82.4961	16,000.5	77.4526	16,000.5	71.2455	16,000.5	51.23	16,000.5	45.0229	16,000.5	39.9794
16,564.5	83.5587	16,564.5	81.8467	16,564.5	76.722	16,564.5	70.4055	16,564.5	51.4206	16,564.5	45.1041	16,564.5	39.9794
17,148.9	82.9666	17,148.9	81.1482	17,148.9	75.9485	17,148.9	69.502	17,148.9	51.6255	17,148.9	45.1791	17,148.9	39.9794
17,752.4	82.7598	17,752.4	80.7706	17,752.4	75.4987	17,752.4	68.8789	17,752.4	51.871	17,752.4	45.2513	17,752.4	39.9794
18,379.4	82.642	18,379.4	80.4927	18,379.4	75.1642	18,379.4	68.3974	18,379.4	52.0746	18,379.4	45.3079	18,379.4	39.9794
19,026.9	82.418	19,026.9	80.1012	19,026.9	74.7463	19,026.9	67.8618	19,026.9	52.2188	19,026.9	45.3344	19,026.9	39.9794
19,697.8	82.0572	19,697.8	79.5662	19,697.8	74.2256	19,697.8	67.2467	19,697.8	52.2989	19,697.8	45.32	19,697.8	39.9794
19,999.5	81.9954	19,999.5	79.3708	19,999.5	74.0657	19,999.5	67.0317	19,999.5	52.3185	19,999.5	45.2844	19,999.5	39.9794
