"SPL Vertical"																																																																							
"On-Axis"		"10°"		"-10°"		"20°"		"-20°"		"30°"		"-30°"		"40°"		"-40°"		"50°"		"-50°"		"60°"		"-60°"		"70°"		"-70°"		"80°"		"-80°"		"90°"		"-90°"		"100°"		"-100°"		"110°"		"-110°"		"120°"		"-120°"		"130°"		"-130°"		"140°"		"-140°"		"150°"		"-150°"		"160°"		"-160°"		"170°"		"-170°"		"180°"	
"Frequency [Hz]"	"Sound Pessure Level [dB]  / [2.83V 1m] "	"Frequency [Hz]"	"Sound Pessure Level [dB]  / [2.83V 1m] "	"Frequency [Hz]"	"Sound Pessure Level [dB]  / [2.83V 1m] "	"Frequency [Hz]"	"Sound Pessure Level [dB]  / [2.83V 1m] "	"Frequency [Hz]"	"Sound Pessure Level [dB]  / [2.83V 1m] "	"Frequency [Hz]"	"Sound Pessure Level [dB]  / [2.83V 1m] "	"Frequency [Hz]"	"Sound Pessure Level [dB]  / [2.83V 1m] "	"Frequency [Hz]"	"Sound Pessure Level [dB]  / [2.83V 1m] "	"Frequency [Hz]"	"Sound Pessure Level [dB]  / [2.83V 1m] "	"Frequency [Hz]"	"Sound Pessure Level [dB]  / [2.83V 1m] "	"Frequency [Hz]"	"Sound Pessure Level [dB]  / [2.83V 1m] "	"Frequency [Hz]"	"Sound Pessure Level [dB]  / [2.83V 1m] "	"Frequency [Hz]"	"Sound Pessure Level [dB]  / [2.83V 1m] "	"Frequency [Hz]"	"Sound Pessure Level [dB]  / [2.83V 1m] "	"Frequency [Hz]"	"Sound Pessure Level [dB]  / [2.83V 1m] "	"Frequency [Hz]"	"Sound Pessure Level [dB]  / [2.83V 1m] "	"Frequency [Hz]"	"Sound Pessure Level [dB]  / [2.83V 1m] "	"Frequency [Hz]"	"Sound Pessure Level [dB]  / [2.83V 1m] "	"Frequency [Hz]"	"Sound Pessure Level [dB]  / [2.83V 1m] "	"Frequency [Hz]"	"Sound Pessure Level [dB]  / [2.83V 1m] "	"Frequency [Hz]"	"Sound Pessure Level [dB]  / [2.83V 1m] "	"Frequency [Hz]"	"Sound Pessure Level [dB]  / [2.83V 1m] "	"Frequency [Hz]"	"Sound Pessure Level [dB]  / [2.83V 1m] "	"Frequency [Hz]"	"Sound Pessure Level [dB]  / [2.83V 1m] "	"Frequency [Hz]"	"Sound Pessure Level [dB]  / [2.83V 1m] "	"Frequency [Hz]"	"Sound Pessure Level [dB]  / [2.83V 1m] "	"Frequency [Hz]"	"Sound Pessure Level [dB]  / [2.83V 1m] "	"Frequency [Hz]"	"Sound Pessure Level [dB]  / [2.83V 1m] "	"Frequency [Hz]"	"Sound Pessure Level [dB]  / [2.83V 1m] "	"Frequency [Hz]"	"Sound Pessure Level [dB]  / [2.83V 1m] "	"Frequency [Hz]"	"Sound Pessure Level [dB]  / [2.83V 1m] "	"Frequency [Hz]"	"Sound Pessure Level [dB]  / [2.83V 1m] "	"Frequency [Hz]"	"Sound Pessure Level [dB]  / [2.83V 1m] "	"Frequency [Hz]"	"Sound Pessure Level [dB]  / [2.83V 1m] "	"Frequency [Hz]"	"Sound Pessure Level [dB]  / [2.83V 1m] "	"Frequency [Hz]"	"Sound Pessure Level [dB]  / [2.83V 1m] "
20.5078	58.4641	20.5078	58.1538	20.5078	58.7499	20.5078	57.885	20.5078	58.9631	20.5078	57.7394	20.5078	59.0733	20.5078	57.7994	20.5078	59.0689	20.5078	58.1204	20.5078	58.9695	20.5078	58.7056	20.5078	58.8484	20.5078	59.5064	20.5078	58.8597	20.5078	60.4488	20.5078	59.2147	20.5078	61.4601	20.5078	60.0472	20.5078	62.4831	20.5078	61.2768	20.5078	63.4769	20.5078	62.6758	20.5078	64.4123	20.5078	64.0337	20.5078	65.2671	20.5078	65.2241	20.5078	66.0219	20.5078	66.1891	20.5078	66.6583	20.5078	66.9099	20.5078	67.1574	20.5078	67.3879	20.5078	67.4998	20.5078	67.6343	20.5078	67.6654
21.9727	59.6614	21.9727	59.1616	21.9727	60.0763	21.9727	58.642	21.9727	60.363	21.9727	58.2006	21.9727	60.4909	21.9727	57.9676	21.9727	60.4386	21.9727	58.0696	21.9727	60.2007	21.9727	58.5629	21.9727	59.8113	21.9727	59.396	21.9727	59.3977	21.9727	60.4485	21.9727	59.2407	21.9727	61.5984	21.9727	59.6936	21.9727	62.7564	21.9727	60.842	21.9727	63.8666	21.9727	62.383	21.9727	64.8953	21.9727	63.954	21.9727	65.8203	21.9727	65.3447	21.9727	66.6241	21.9727	66.4727	21.9727	67.2899	21.9727	67.3186	21.9727	67.8002	21.9727	67.8895	21.9727	68.1361	21.9727	68.2021	21.9727	68.2771
23.4375	61.4288	23.4375	61.1397	23.4375	61.6971	23.4375	60.8918	23.4375	61.8993	23.4375	60.7609	23.4375	62.0067	23.4375	60.8231	23.4375	62.0094	23.4375	61.1303	23.4375	61.9267	23.4375	61.6872	23.4375	61.8272	23.4375	62.4516	23.4375	61.8508	23.4375	63.3556	23.4375	62.187	23.4375	64.3306	23.4375	62.961	23.4375	65.3209	23.4375	64.1127	23.4375	66.2857	23.4375	65.4414	23.4375	67.1953	23.4375	66.7483	23.4375	68.0268	23.4375	67.9065	23.4375	68.7604	23.4375	68.8537	23.4375	69.3775	23.4375	69.5672	23.4375	69.8591	23.4375	70.0455	23.4375	70.186	23.4375	70.2976	23.4375	70.3386
24.9023	62.9582	24.9023	62.6968	24.9023	63.2026	24.9023	62.4754	24.9023	63.3875	24.9023	62.363	24.9023	63.4858	24.9023	62.4279	24.9023	63.4886	24.9023	62.7174	24.9023	63.4146	24.9023	63.2384	24.9023	63.3289	24.9023	63.9564	24.9023	63.3613	24.9023	64.8118	24.9023	63.6855	24.9023	65.7418	24.9023	64.4188	24.9023	66.6932	24.9023	65.5128	24.9023	67.6254	24.9023	66.7859	24.9023	68.5081	24.9023	68.0494	24.9023	69.3176	24.9023	69.1772	24.9023	70.0333	24.9023	70.1046	24.9023	70.636	24.9023	70.8063	24.9023	71.1064	24.9023	71.2785	24.9023	71.4249	24.9023	71.5291	24.9023	71.5722
26.3672	65.0001	26.3672	64.7059	26.3672	65.2774	26.3672	64.4442	26.3672	65.5002	26.3672	64.2756	26.3672	65.6423	26.3672	64.2639	26.3672	65.6886	26.3672	64.4593	26.3672	65.64	26.3672	64.88	26.3672	65.5255	26.3672	65.5047	26.3672	65.4213	26.3672	66.283	26.3672	65.4646	26.3672	67.1543	26.3672	65.8194	26.3672	68.0631	26.3672	66.5691	26.3672	68.9645	26.3672	67.6337	26.3672	69.8238	26.3672	68.8271	26.3672	70.6134	26.3672	69.9752	26.3672	71.3095	26.3672	70.9667	26.3672	71.8896	26.3672	71.7469	26.3672	72.332	26.3672	72.2963	26.3672	72.6146	26.3672	72.6155	26.3672	72.7159
27.832	66.3389	27.832	66.1107	27.832	66.5683	27.832	65.9295	27.832	66.7634	27.832	65.8476	27.832	66.8991	27.832	65.9157	27.832	66.9631	27.832	66.1687	27.832	66.9604	27.832	66.6146	27.832	66.9243	27.832	67.2315	27.832	66.9294	27.832	67.9769	27.832	67.0941	27.832	68.8013	27.832	67.5416	27.832	69.6586	27.832	68.3173	27.832	70.5102	27.832	69.3421	27.832	71.3247	27.832	70.4627	27.832	72.0762	27.832	71.535	27.832	72.7412	27.832	72.4626	27.832	73.2977	27.832	73.1945	27.832	73.724	27.832	73.7105	27.832	73.9984	27.832	74.0091	27.832	74.0998
29.2969	68.318	29.2969	68.0856	29.2969	68.5462	29.2969	67.8857	29.2969	68.7412	29.2969	67.7613	29.2969	68.8824	29.2969	67.7565	29.2969	68.9591	29.2969	67.9071	29.2969	68.974	29.2969	68.2307	29.2969	68.9516	29.2969	68.7203	29.2969	68.9481	29.2969	69.3475	29.2969	69.0555	29.2969	70.0714	29.2969	69.3787	29.2969	70.8483	29.2969	69.9779	29.2969	71.6385	29.2969	70.8174	29.2969	72.4077	29.2969	71.7814	29.2969	73.1265	29.2969	72.7383	29.2969	73.7689	29.2969	73.5871	29.2969	74.3108	29.2969	74.267	29.2969	74.7291	29.2969	74.7497	29.2969	75.0016	29.2969	75.0279	29.2969	75.1073
30.7617	69.6575	30.7617	69.4785	30.7617	69.8432	30.7617	69.3376	30.7617	70.0103	30.7617	69.27	30.7617	70.1412	30.7617	69.3102	30.7617	70.2278	30.7617	69.4853	30.7617	70.2758	30.7617	69.8076	30.7617	70.3103	30.7617	70.2716	30.7617	70.3831	30.7617	70.855	30.7617	70.5705	30.7617	71.5257	30.7617	70.951	30.7617	72.2478	30.7617	71.5611	30.7617	72.9868	30.7617	72.3633	30.7617	73.7115	30.7617	73.2612	30.7617	74.3938	30.7617	74.1456	30.7617	75.0082	30.7617	74.9293	30.7617	75.5304	30.7617	75.5572	30.7617	75.9372	30.7617	76.0014	30.7617	76.2065	30.7617	76.2535	30.7617	76.3178
32.2266	71.3005	32.2266	71.1341	32.2266	71.4765	32.2266	71.0034	32.2266	71.6405	32.2266	70.9377	32.2266	71.7776	32.2266	70.9659	32.2266	71.8808	32.2266	71.1113	32.2266	71.9544	32.2266	71.3864	32.2266	72.0187	32.2266	71.7895	32.2266	72.1149	32.2266	72.3053	32.2266	72.3029	32.2266	72.9081	32.2266	72.6459	32.2266	73.5672	32.2266	73.1776	32.2266	74.2511	32.2266	73.8759	32.2266	74.9298	32.2266	74.6672	32.2266	75.5753	32.2266	75.459	32.2266	76.1614	32.2266	76.1704	32.2266	76.6634	32.2266	76.7458	32.2266	77.0577	32.2266	77.1541	32.2266	77.3219	32.2266	77.3837	32.2266	77.4361
33.6914	72.7368	33.6914	72.5928	33.6914	72.8941	33.6914	72.4841	33.6914	73.0469	33.6914	72.4349	33.6914	73.1824	33.6914	72.4688	33.6914	73.2952	33.6914	72.6053	33.6914	73.3897	33.6914	72.8554	33.6914	73.4839	33.6914	73.2193	33.6914	73.6122	33.6914	73.686	33.6914	73.8231	33.6914	74.2355	33.6914	74.1656	33.6914	74.8419	33.6914	74.6654	33.6914	75.4775	33.6914	75.3044	33.6914	76.1144	33.6914	76.0228	33.6914	76.7255	33.6914	76.7424	33.6914	77.2851	33.6914	77.3913	33.6914	77.7684	33.6914	77.9172	33.6914	78.1517	33.6914	78.2892	33.6914	78.4129	33.6914	78.4942	33.6914	78.5322
35.1563	74.0842	35.1563	73.9494	35.1563	74.2339	35.1563	73.848	35.1563	74.383	35.1563	73.8005	35.1563	74.5209	35.1563	73.827	35.1563	74.6428	35.1563	73.9444	35.1563	74.7522	35.1563	74.1633	35.1563	74.8642	35.1563	74.4857	35.1563	75.0069	35.1563	74.904	35.1563	75.2197	35.1563	75.4026	35.1563	75.5426	35.1563	75.9597	35.1563	75.9977	35.1563	76.5505	35.1563	76.5723	35.1563	77.1487	35.1563	77.2185	35.1563	77.7283	35.1563	77.8694	35.1563	78.2638	35.1563	78.4599	35.1563	78.7301	35.1563	78.9402	35.1563	79.1035	35.1563	79.2787	35.1563	79.362	35.1563	79.4612	35.1563	79.4862
36.6211	75.3862	36.6211	75.2602	36.6211	75.5295	36.6211	75.1672	36.6211	75.6771	36.6211	75.1244	36.6211	75.8195	36.6211	75.1486	36.6211	75.9527	36.6211	75.2542	36.6211	76.0795	36.6211	75.4505	36.6211	76.2119	36.6211	75.7404	36.6211	76.3724	36.6211	76.1186	36.6211	76.5924	36.6211	76.5728	36.6211	76.9035	36.6211	77.085	36.6211	77.3235	36.6211	77.6333	36.6211	77.8432	36.6211	78.1937	36.6211	78.424	36.6211	78.7416	36.6211	79.0097	36.6211	79.2521	36.6211	79.5426	36.6211	79.7007	36.6211	79.9762	36.6211	80.0638	36.6211	80.2798	36.6211	80.3196	36.6211	80.4383	36.6211	80.4491
38.0859	76.5333	38.0859	76.4147	38.0859	76.6705	38.0859	76.3281	38.0859	76.815	38.0859	76.2879	38.0859	76.9586	38.0859	76.3085	38.0859	77.0975	38.0859	76.4023	38.0859	77.2338	38.0859	76.5779	38.0859	77.3771	38.0859	76.8386	38.0859	77.5457	38.0859	77.181	38.0859	77.7651	38.0859	77.5956	38.0859	78.0611	38.0859	78.0674	38.0859	78.4491	38.0859	78.5771	38.0859	78.9222	38.0859	79.103	38.0859	79.4491	38.0859	79.6215	38.0859	79.9812	38.0859	80.1086	38.0859	80.4669	38.0859	80.5401	38.0859	80.8623	38.0859	80.8926	38.0859	81.1376	38.0859	81.1445	38.0859	81.277	38.0859	81.2771
39.5508	77.5681	39.5508	77.4595	39.5508	77.6974	39.5508	77.3829	39.5508	77.8377	39.5508	77.3506	39.5508	77.982	39.5508	77.3746	39.5508	78.1268	39.5508	77.4654	39.5508	78.2736	39.5508	77.6303	39.5508	78.4302	39.5508	77.8724	39.5508	78.6116	39.5508	78.1896	39.5508	78.8381	39.5508	78.5742	39.5508	79.1306	39.5508	79.0135	39.5508	79.5009	39.5508	79.4909	39.5508	79.9428	39.5508	79.9865	39.5508	80.4295	39.5508	80.4786	39.5508	80.9186	39.5508	80.944	39.5508	81.364	39.5508	81.3594	39.5508	81.7256	39.5508	81.7018	39.5508	81.9747	39.5508	81.9499	39.5508	82.0959	39.5508	82.0857
41.0156	78.5965	41.0156	78.4969	41.0156	78.7184	41.0156	78.4293	41.0156	78.8546	41.0156	78.4033	41.0156	78.999	41.0156	78.4289	41.0156	79.1482	41.0156	78.5144	41.0156	79.3027	41.0156	78.6659	41.0156	79.4684	41.0156	78.8862	41.0156	79.6564	41.0156	79.174	41.0156	79.8825	41.0156	79.5235	41.0156	80.1626	41.0156	79.9244	41.0156	80.506	41.0156	80.3626	41.0156	80.908	41.0156	80.8209	41.0156	81.3465	41.0156	81.2793	41.0156	81.7859	41.0156	81.7163	41.0156	82.1857	41.0156	82.1096	41.0156	82.5095	41.0156	82.4368	41.0156	82.7304	41.0156	82.6773	41.0156	82.8331	41.0156	82.8136
42.4805	79.5385	42.4805	79.4434	42.4805	79.6561	42.4805	79.3786	42.4805	79.7896	42.4805	79.352	42.4805	79.9341	42.4805	79.3717	42.4805	80.0866	42.4805	79.445	42.4805	80.2475	42.4805	79.5772	42.4805	80.421	42.4805	79.7717	42.4805	80.6159	42.4805	80.0283	42.4805	80.8443	42.4805	80.3432	42.4805	81.1183	42.4805	80.7086	42.4805	81.4443	42.4805	81.1128	42.4805	81.8174	42.4805	81.5407	42.4805	82.2181	42.4805	81.9739	42.4805	82.6152	42.4805	82.3922	42.4805	82.9731	42.4805	82.7737	42.4805	83.2586	42.4805	83.0965	42.4805	83.4471	42.4805	83.3401	42.4805	83.5245	42.4805	83.487
43.9453	80.2583	43.9453	80.1612	43.9453	80.3787	43.9453	80.0938	43.9453	80.5164	43.9453	80.0631	43.9453	80.6667	43.9453	80.076	43.9453	80.8267	43.9453	80.1386	43.9453	80.9958	43.9453	80.256	43.9453	81.1765	43.9453	80.4313	43.9453	81.3749	43.9453	80.6649	43.9453	81.6001	43.9453	80.9541	43.9453	81.8612	43.9453	81.2926	43.9453	82.1636	43.9453	81.6702	43.9453	82.5031	43.9453	82.0732	43.9453	82.864	43.9453	82.4848	43.9453	83.2197	43.9453	82.8855	43.9453	83.5388	43.9453	83.2543	43.9453	83.7912	43.9453	83.5698	43.9453	83.9537	43.9453	83.8119	43.9453	84.0123	43.9453	83.9634
45.4102	80.9712	45.4102	80.8749	45.4102	81.0911	45.4102	80.8079	45.4102	81.2297	45.4102	80.7757	45.4102	81.3828	45.4102	80.7842	45.4102	81.5473	45.4102	80.8386	45.4102	81.7221	45.4102	80.9433	45.4102	81.9083	45.4102	81.1014	45.4102	82.1099	45.4102	81.3137	45.4102	82.3331	45.4102	81.5783	45.4102	82.5846	45.4102	81.8903	45.4102	82.8679	45.4102	82.2411	45.4102	83.1794	45.4102	82.6186	45.4102	83.5057	45.4102	83.0074	45.4102	83.8242	45.4102	83.3892	45.4102	84.1074	45.4102	83.7439	45.4102	84.3283	45.4102	84.0508	45.4102	84.4654	45.4102	84.2904	45.4102	84.506	45.4102	84.446
46.875	81.5948	46.875	81.5074	46.875	81.7071	46.875	81.449	46.875	81.8404	46.875	81.424	46.875	81.9909	46.875	81.4366	46.875	82.1557	46.875	81.4911	46.875	82.3322	46.875	81.591	46.875	82.5194	46.875	81.739	46.875	82.7178	46.875	81.9361	46.875	82.9302	46.875	82.1813	46.875	83.1604	46.875	82.4706	46.875	83.4118	46.875	82.7966	46.875	83.6842	46.875	83.1486	46.875	83.9699	46.875	83.5122	46.875	84.2531	46.875	83.8699	46.875	84.5109	46.875	84.2022	46.875	84.718	46.875	84.4887	46.875	84.8523	46.875	84.7099	46.875	84.8984	46.875	84.85
48.3398	82.0699	48.3398	81.9869	48.3398	82.1796	48.3398	81.9338	48.3398	82.3127	48.3398	81.914	48.3398	82.4659	48.3398	81.9307	48.3398	82.6359	48.3398	81.987	48.3398	82.82	48.3398	82.0857	48.3398	83.0161	48.3398	82.2289	48.3398	83.2231	48.3398	82.4174	48.3398	83.4419	48.3398	82.6501	48.3398	83.6742	48.3398	82.9239	48.3398	83.9214	48.3398	83.2325	48.3398	84.1824	48.3398	83.5665	48.3398	84.4503	48.3398	83.9128	48.3398	84.711	48.3398	84.2554	48.3398	84.9446	48.3398	84.5759	48.3398	85.1287	48.3398	84.855	48.3398	85.2434	48.3398	85.0739	48.3398	85.2747	48.3398	85.2173
51.2695	82.9836	51.2695	82.9001	51.2695	83.0937	51.2695	82.8452	51.2695	83.228	51.2695	82.8206	51.2695	83.3839	51.2695	82.8282	51.2695	83.5579	51.2695	82.8698	51.2695	83.7466	51.2695	82.9471	51.2695	83.946	51.2695	83.062	51.2695	84.1529	51.2695	83.2154	51.2695	84.3651	51.2695	83.4076	51.2695	84.5811	51.2695	83.637	51.2695	84.8003	51.2695	83.8998	51.2695	85.0209	51.2695	84.1891	51.2695	85.2377	51.2695	84.4949	51.2695	85.4409	51.2695	84.8036	51.2695	85.616	51.2695	85.099	51.2695	85.7459	51.2695	85.3634	51.2695	85.8149	51.2695	85.5794	51.2695	85.8117	51.2695	85.7321
52.7344	83.3094	52.7344	83.2285	52.7344	83.4185	52.7344	83.1774	52.7344	83.5541	52.7344	83.1571	52.7344	83.7134	52.7344	83.1686	52.7344	83.893	52.7344	83.2128	52.7344	84.0887	52.7344	83.2909	52.7344	84.296	52.7344	83.4038	52.7344	84.5104	52.7344	83.5523	52.7344	84.728	52.7344	83.7362	52.7344	84.9461	52.7344	83.9544	52.7344	85.1624	52.7344	84.2037	52.7344	85.3744	52.7344	84.4781	52.7344	85.5771	52.7344	84.7689	52.7344	85.7619	52.7344	85.0638	52.7344	85.9165	52.7344	85.348	52.7344	86.0263	52.7344	85.6049	52.7344	86.0777	52.7344	85.8182	52.7344	86.0612	52.7344	85.9735
54.1992	83.623	54.1992	83.5453	54.1992	83.7288	54.1992	83.4965	54.1992	83.8615	54.1992	83.477	54.1992	84.0188	54.1992	83.4869	54.1992	84.1973	54.1992	83.5266	54.1992	84.3926	54.1992	83.5966	54.1992	84.5996	54.1992	83.6976	54.1992	84.8129	54.1992	83.8304	54.1992	85.0276	54.1992	83.9954	54.1992	85.2394	54.1992	84.192	54.1992	85.445	54.1992	84.4182	54.1992	85.6412	54.1992	84.6694	54.1992	85.8234	54.1992	84.9384	54.1992	85.9844	54.1992	85.2146	54.1992	86.1138	54.1992	85.4843	54.1992	86.1996	54.1992	85.7321	54.1992	86.2304	54.1992	85.9422	54.1992	86.1983	54.1992	86.1009
55.6641	83.9471	55.6641	83.8688	55.6641	84.0528	55.6641	83.818	55.6641	84.1847	55.6641	83.7945	55.6641	84.3409	55.6641	83.7982	55.6641	84.5179	55.6641	83.8288	55.6641	84.7111	55.6641	83.8867	55.6641	84.9148	55.6641	83.9725	55.6641	85.1229	55.6641	84.087	55.6641	85.3294	55.6641	84.231	55.6641	85.5291	55.6641	84.4047	55.6641	85.718	55.6641	84.6069	55.6641	85.8928	55.6641	84.8345	55.6641	86.0495	55.6641	85.0815	55.6641	86.1826	55.6641	85.3384	55.6641	86.284	55.6641	85.5931	55.6641	86.3441	55.6641	85.8311	55.6641	86.3534	55.6641	86.0375	55.6641	86.3055	55.6641	86.1988
58.5938	84.5332	58.5938	84.4506	58.5938	84.6419	58.5938	84.394	58.5938	84.7759	58.5938	84.3628	58.5938	84.9331	58.5938	84.356	58.5938	85.11	58.5938	84.373	58.5938	85.3012	58.5938	84.4137	58.5938	85.5003	58.5938	84.4784	58.5938	85.7002	58.5938	84.568	58.5938	85.8939	58.5938	84.6835	58.5938	86.0752	58.5938	84.826	58.5938	86.2394	58.5938	84.9954	58.5938	86.3833	58.5938	85.1903	58.5938	86.5039	58.5938	85.4066	58.5938	86.5976	58.5938	85.637	58.5938	86.6591	58.5938	85.8712	58.5938	86.682	58.5938	86.0963	58.5938	86.6595	58.5938	86.2987	58.5938	86.5875	58.5938	86.4656
60.0586	84.7384	60.0586	84.6534	60.0586	84.8496	60.0586	84.5942	60.0586	84.9863	60.0586	84.56	60.0586	85.1465	60.0586	84.5494	60.0586	85.3262	60.0586	84.5616	60.0586	85.52	60.0586	84.5961	60.0586	85.7209	60.0586	84.6529	60.0586	85.9212	60.0586	84.7328	60.0586	86.1133	60.0586	84.837	60.0586	86.2902	60.0586	84.9668	60.0586	86.4469	60.0586	85.1226	60.0586	86.5795	60.0586	85.3038	60.0586	86.6853	60.0586	85.5073	60.0586	86.7615	60.0586	85.7268	60.0586	86.8039	60.0586	85.9531	60.0586	86.8077	60.0586	86.1743	60.0586	86.7679	60.0586	86.3773	60.0586	86.6815	60.0586	86.5495
62.9883	85.0368	62.9883	84.9509	62.9883	85.1498	62.9883	84.8914	62.9883	85.2895	62.9883	84.8566	62.9883	85.4539	62.9883	84.8447	62.9883	85.639	62.9883	84.8539	62.9883	85.8386	62.9883	84.8831	62.9883	86.0453	62.9883	84.9319	62.9883	86.2501	62.9883	85.0005	62.9883	86.4443	62.9883	85.09	62.9883	86.6195	62.9883	85.202	62.9883	86.7693	62.9883	85.3378	62.9883	86.8891	62.9883	85.4977	62.9883	86.9757	62.9883	85.6805	62.9883	87.0271	62.9883	85.8817	62.9883	87.0411	62.9883	86.0943	62.9883	87.0155	62.9883	86.3079	62.9883	86.9483	62.9883	86.5109	62.9883	86.8393	62.9883	86.6913
64.4531	85.1815	64.4531	85.0947	64.4531	85.296	64.4531	85.0346	64.4531	85.4379	64.4531	84.9992	64.4531	85.6051	64.4531	84.9864	64.4531	85.7936	64.4531	84.994	64.4531	85.9969	64.4531	85.0205	64.4531	86.2072	64.4531	85.0652	64.4531	86.415	64.4531	85.1282	64.4531	86.6109	64.4531	85.2105	64.4531	86.7858	64.4531	85.3137	64.4531	86.9325	64.4531	85.4395	64.4531	87.0458	64.4531	85.5889	64.4531	87.1227	64.4531	85.7612	64.4531	87.1612	64.4531	85.9534	64.4531	87.1603	64.4531	86.1592	64.4531	87.119	64.4531	86.3694	64.4531	87.0369	64.4531	86.573	64.4531	86.9154	64.4531	86.7583
67.3828	85.4131	67.3828	85.3244	67.3828	85.5301	67.3828	85.2627	67.3828	85.6753	67.3828	85.2255	67.3828	85.8466	67.3828	85.2101	67.3828	86.0396	67.3828	85.2137	67.3828	86.2474	67.3828	85.2341	67.3828	86.4614	67.3828	85.27	67.3828	86.6714	67.3828	85.3212	67.3828	86.8667	67.3828	85.3885	67.3828	87.0374	67.3828	85.4737	67.3828	87.1752	67.3828	85.579	67.3828	87.2742	67.3828	85.7067	67.3828	87.331	67.3828	85.8577	67.3828	87.3447	67.3828	86.0308	67.3828	87.3156	67.3828	86.2219	67.3828	87.2453	67.3828	86.4238	67.3828	87.1362	67.3828	86.6266	67.3828	86.9922	67.3828	86.8195
68.8477	85.4763	68.8477	85.3856	68.8477	85.5957	68.8477	85.322	68.8477	85.7436	68.8477	85.283	68.8477	85.9176	68.8477	85.2657	68.8477	86.1133	68.8477	85.2669	68.8477	86.3236	68.8477	85.2843	68.8477	86.5395	68.8477	85.3162	68.8477	86.7504	68.8477	85.3623	68.8477	86.9454	68.8477	85.4232	68.8477	87.1141	68.8477	85.5008	68.8477	87.2478	68.8477	85.5976	68.8477	87.3402	68.8477	85.7161	68.8477	87.388	68.8477	85.8581	68.8477	87.3904	68.8477	86.0232	68.8477	87.3483	68.8477	86.2083	68.8477	87.2645	68.8477	86.407	68.8477	87.1426	68.8477	86.6102	68.8477	86.9878	68.8477	86.8073
71.7773	85.7332	71.7773	85.6393	71.7773	85.8551	71.7773	85.5717	71.7773	86.0045	71.7773	85.5278	71.7773	86.179	71.7773	85.5044	71.7773	86.374	71.7773	85.4981	71.7773	86.5821	71.7773	85.5061	71.7773	86.7942	71.7773	85.5265	71.7773	86.9995	71.7773	85.5584	71.7773	87.1866	71.7773	85.6024	71.7773	87.3447	71.7773	85.6604	71.7773	87.4644	71.7773	85.7353	71.7773	87.5392	71.7773	85.8306	71.7773	87.5653	71.7773	85.9492	71.7773	87.5425	71.7773	86.0928	71.7773	87.4733	71.7773	86.2603	71.7773	87.3621	71.7773	86.4472	71.7773	87.2154	71.7773	86.6463	71.7773	87.0409	71.7773	86.8478
74.707	86.0721	74.707	85.9766	74.707	86.1932	74.707	85.9053	74.707	86.3399	74.707	85.8553	74.707	86.5096	74.707	85.8232	74.707	86.6975	74.707	85.8054	74.707	86.8964	74.707	85.7988	74.707	87.0968	74.707	85.8013	74.707	87.2878	74.707	85.8118	74.707	87.458	74.707	85.8311	74.707	87.5962	74.707	85.8613	74.707	87.6931	74.707	85.9061	74.707	87.742	74.707	85.97	74.707	87.7397	74.707	86.0577	74.707	87.6867	74.707	86.1728	74.707	87.587	74.707	86.3164	74.707	87.4472	74.707	86.4864	74.707	87.2758	74.707	86.6771	74.707	87.0829	74.707	86.8795
77.6367	86.1987	77.6367	86.1085	77.6367	86.3146	77.6367	86.0421	77.6367	86.4563	77.6367	85.9962	77.6367	86.6219	77.6367	85.967	77.6367	86.8072	77.6367	85.9504	77.6367	87.0054	77.6367	85.9427	77.6367	87.2076	77.6367	85.9413	77.6367	87.4029	77.6367	85.9447	77.6367	87.5789	77.6367	85.9531	77.6367	87.7231	77.6367	85.9688	77.6367	87.8237	77.6367	85.9955	77.6367	87.8716	77.6367	86.0386	77.6367	87.8618	77.6367	86.1044	77.6367	87.7939	77.6367	86.1984	77.6367	87.6729	77.6367	86.3245	77.6367	87.5078	77.6367	86.483	77.6367	87.311	77.6367	86.6702	77.6367	87.0965	77.6367	86.8785
79.1016	86.225	79.1016	86.1321	79.1016	86.3434	79.1016	86.0628	79.1016	86.4872	79.1016	86.014	79.1016	86.6543	79.1016	85.9818	79.1016	86.8403	79.1016	85.9619	79.1016	87.0384	79.1016	85.9506	79.1016	87.2396	79.1016	85.945	79.1016	87.433	79.1016	85.9434	79.1016	87.6062	79.1016	85.9459	79.1016	87.7465	79.1016	85.9547	79.1016	87.8422	79.1016	85.9737	79.1016	87.884	79.1016	86.0086	79.1016	87.8665	79.1016	86.0661	79.1016	87.7894	79.1016	86.1525	79.1016	87.6579	79.1016	86.2726	79.1016	87.4819	79.1016	86.4276	79.1016	87.2745	79.1016	86.6147	79.1016	87.0508	79.1016	86.8262
82.0313	86.3026	82.0313	86.2045	82.0313	86.4254	82.0313	86.1296	82.0313	86.5729	82.0313	86.075	82.0313	86.7424	82.0313	86.0366	82.0313	86.9295	82.0313	86.01	82.0313	87.1271	82.0313	85.9913	82.0313	87.3263	82.0313	85.9772	82.0313	87.5161	82.0313	85.9659	82.0313	87.6842	82.0313	85.9571	82.0313	87.8177	82.0313	85.9531	82.0313	87.9045	82.0313	85.9578	82.0313	87.935	82.0313	85.9776	82.0313	87.9035	82.0313	86.0201	82.0313	87.8096	82.0313	86.0928	82.0313	87.659	82.0313	86.2023	82.0313	87.4625	82.0313	86.3515	82.0313	87.2351	82.0313	86.5386	82.0313	86.9941	82.0313	86.7568
84.9609	86.3988	84.9609	86.2974	84.9609	86.5249	84.9609	86.2192	84.9609	86.6752	84.9609	86.1612	84.9609	86.8474	84.9609	86.1193	84.9609	87.0365	84.9609	86.089	84.9609	87.2358	84.9609	86.0661	84.9609	87.4361	84.9609	86.0471	84.9609	87.6263	84.9609	86.0297	84.9609	87.7939	84.9609	86.0137	84.9609	87.9258	84.9609	86.0009	84.9609	88.0091	84.9609	85.9955	84.9609	88.0337	84.9609	86.0041	84.9609	87.9932	84.9609	86.035	84.9609	87.8871	84.9609	86.0971	84.9609	87.7212	84.9609	86.1983	84.9609	87.5074	84.9609	86.3431	84.9609	87.2625	84.9609	86.5313	84.9609	87.0056	84.9609	86.7562
87.8906	86.4427	87.8906	86.3386	87.8906	86.57	87.8906	86.2564	87.8906	86.72	87.8906	86.193	87.8906	86.8904	87.8906	86.1445	87.8906	87.0763	87.8906	86.1062	87.8906	87.2713	87.8906	86.0738	87.8906	87.4665	87.8906	86.0435	87.8906	87.6511	87.8906	86.0131	87.8906	87.8128	87.8906	85.9822	87.8906	87.9381	87.8906	85.9529	87.8906	88.0139	87.8906	85.9296	87.8906	88.0289	87.8906	85.9198	87.8906	87.9764	87.8906	85.9327	87.8906	87.855	87.8906	85.979	87.8906	87.6707	87.8906	86.0684	87.8906	87.4364	87.8906	86.2073	87.8906	87.1703	87.8906	86.3966	87.8906	86.8943	87.8906	86.6301
90.8203	86.4135	90.8203	86.3081	90.8203	86.5413	90.8203	86.2241	90.8203	86.6911	90.8203	86.1584	90.8203	86.8602	90.8203	86.1071	90.8203	87.044	90.8203	86.0654	90.8203	87.2359	90.8203	86.0287	90.8203	87.4276	90.8203	85.9932	90.8203	87.6086	90.8203	85.9564	90.8203	87.7669	90.8203	85.9181	90.8203	87.8891	90.8203	85.8801	90.8203	87.9619	90.8203	85.8475	90.8203	87.9737	90.8203	85.828	90.8203	87.9169	90.8203	85.8317	90.8203	87.7898	90.8203	85.87	90.8203	87.5978	90.8203	85.9537	90.8203	87.3541	90.8203	86.0901	90.8203	87.0778	90.8203	86.2808	90.8203	86.7917	90.8203	86.5193
95.2148	86.5659	95.2148	86.4561	95.2148	86.6943	95.2148	86.3638	95.2148	86.8405	95.2148	86.2865	95.2148	87.0017	95.2148	86.2202	95.2148	87.1736	95.2148	86.1603	95.2148	87.3502	95.2148	86.1025	95.2148	87.5238	95.2148	86.0428	95.2148	87.6848	95.2148	85.979	95.2148	87.8218	95.2148	85.9108	95.2148	87.9218	95.2148	85.8406	95.2148	87.9715	95.2148	85.774	95.2148	87.959	95.2148	85.7198	95.2148	87.8758	95.2148	85.69	95.2148	87.7197	95.2148	85.6981	95.2148	87.4967	95.2148	85.7577	95.2148	87.2208	95.2148	85.879	95.2148	86.9138	95.2148	86.0653	95.2148	86.6017	95.2148	86.3113
98.1445	86.5626	98.1445	86.4457	98.1445	86.6993	98.1445	86.3481	98.1445	86.8545	98.1445	86.2673	98.1445	87.0246	98.1445	86.1995	98.1445	87.2047	98.1445	86.1398	98.1445	87.388	98.1445	86.0832	98.1445	87.5664	98.1445	86.0255	98.1445	87.7301	98.1445	85.964	98.1445	87.8677	98.1445	85.8979	98.1445	87.9665	98.1445	85.8295	98.1445	88.0133	98.1445	85.7639	98.1445	87.9964	98.1445	85.71	98.1445	87.9077	98.1445	85.6797	98.1445	87.7452	98.1445	85.687	98.1445	87.5149	98.1445	85.7459	98.1445	87.2316	98.1445	85.8671	98.1445	86.9173	98.1445	86.0547	98.1445	86.5989	98.1445	86.3037
101.074	86.5572	101.074	86.4432	101.074	86.6908	101.074	86.3485	101.074	86.8425	101.074	86.2706	101.074	87.009	101.074	86.2055	101.074	87.1851	101.074	86.1483	101.074	87.3647	101.074	86.0937	101.074	87.5399	101.074	86.0373	101.074	87.7014	101.074	85.9759	101.074	87.8381	101.074	85.9086	101.074	87.9373	101.074	85.8374	101.074	87.9853	101.074	85.7675	101.074	87.9698	101.074	85.7077	101.074	87.8821	101.074	85.6704	101.074	87.7195	101.074	85.6701	101.074	87.4878	101.074	85.7215	101.074	87.2018	101.074	85.8365	101.074	86.8844	101.074	86.0199	101.074	86.5634	101.074	86.2673
105.469	86.4353	105.469	86.3145	105.469	86.5728	105.469	86.2105	105.469	86.7244	105.469	86.1217	105.469	86.8862	105.469	86.0446	105.469	87.0529	105.469	85.9741	105.469	87.2182	105.469	85.9051	105.469	87.3752	105.469	85.8327	105.469	87.5153	105.469	85.7535	105.469	87.6286	105.469	85.6666	105.469	87.7035	105.469	85.5737	105.469	87.7272	105.469	85.4804	105.469	87.6877	105.469	85.396	105.469	87.5763	105.469	85.3337	105.469	87.3905	105.469	85.3094	105.469	87.1364	105.469	85.3398	105.469	86.8295	105.469	85.4386	105.469	86.4944	105.469	85.6126	105.469	86.1606	105.469	85.8583
108.398	86.5495	108.398	86.4243	108.398	86.6898	108.398	86.3151	108.398	86.8425	108.398	86.2204	108.398	87.0033	108.398	86.1373	108.398	87.1669	108.398	86.0611	108.398	87.3273	108.398	85.9868	108.398	87.4776	108.398	85.9095	108.398	87.6099	108.398	85.826	108.398	87.7147	108.398	85.7349	108.398	87.7807	108.398	85.6379	108.398	87.7955	108.398	85.5402	108.398	87.7474	108.398	85.451	108.398	87.6277	108.398	85.3833	108.398	87.434	108.398	85.3529	108.398	87.1726	108.398	85.3768	108.398	86.8596	108.398	85.4695	108.398	86.5198	108.398	85.6386	108.398	86.1836	108.398	85.8816
112.793	86.6055	112.793	86.4779	112.793	86.7487	112.793	86.3667	112.793	86.9043	112.793	86.2708	112.793	87.068	112.793	86.1867	112.793	87.2342	112.793	86.1096	112.793	87.3967	112.793	86.034	112.793	87.5489	112.793	85.9547	112.793	87.683	112.793	85.868	112.793	87.7894	112.793	85.7722	112.793	87.857	112.793	85.669	112.793	87.8727	112.793	85.5635	112.793	87.8241	112.793	85.4655	112.793	87.7014	112.793	85.3886	112.793	87.5016	112.793	85.35	112.793	87.2305	112.793	85.3683	112.793	86.9045	112.793	85.4594	112.793	86.5497	112.793	85.632	112.793	86.1984	112.793	85.8835
117.188	86.5914	117.188	86.4626	117.188	86.7316	117.188	86.3467	117.188	86.8794	117.188	86.2433	117.188	87.0304	117.188	86.1496	117.188	87.1796	117.188	86.0608	117.188	87.3227	117.188	85.9713	117.188	87.4551	117.188	85.8758	117.188	87.5719	117.188	85.7701	117.188	87.6658	117.188	85.6524	117.188	87.7265	117.188	85.5245	117.188	87.7399	117.188	85.3922	117.188	87.6906	117.188	85.2662	117.188	87.5653	117.188	85.162	117.188	87.3571	117.188	85.0993	117.188	87.0698	117.188	85.0994	117.188	86.7202	117.188	85.1812	117.188	86.3372	117.188	85.3556	117.188	85.9579	117.188	85.6204
120.117	86.5668	120.117	86.4351	120.117	86.7096	120.117	86.3164	120.117	86.8594	120.117	86.2104	120.117	87.0115	120.117	86.1144	120.117	87.1608	120.117	86.0236	120.117	87.3028	120.117	85.9324	120.117	87.4334	120.117	85.8352	120.117	87.5481	120.117	85.728	120.117	87.6402	120.117	85.609	120.117	87.6996	120.117	85.4802	120.117	87.7129	120.117	85.3475	120.117	87.6644	120.117	85.2219	120.117	87.5404	120.117	85.1191	120.117	87.3335	120.117	85.0586	120.117	87.047	120.117	85.0616	120.117	86.6976	120.117	85.1467	120.117	86.3138	120.117	85.3245	120.117	85.9327	120.117	85.5925
124.512	86.5889	124.512	86.4501	124.512	86.7389	124.512	86.3253	124.512	86.895	124.512	86.215	124.512	87.0518	124.512	86.1169	124.512	87.204	124.512	86.0265	124.512	87.3472	124.512	85.9381	124.512	87.4778	124.512	85.8457	124.512	87.5921	124.512	85.7449	124.512	87.6844	124.512	85.6337	124.512	87.7453	124.512	85.5134	124.512	87.7615	124.512	85.3898	124.512	87.7172	124.512	85.2735	124.512	87.5982	124.512	85.1796	124.512	87.3963	124.512	85.1271	124.512	87.1146	124.512	85.1364	124.512	86.7692	124.512	85.2256	124.512	86.3889	124.512	85.405	124.512	86.0106	124.512	85.6724
128.906	86.4617	128.906	86.3179	128.906	86.6154	128.906	86.1875	128.906	86.7735	128.906	86.0714	128.906	86.9302	128.906	85.9676	128.906	87.0802	128.906	85.8714	128.906	87.2192	128.906	85.777	128.906	87.3442	128.906	85.6782	128.906	87.4522	128.906	85.5703	128.906	87.5381	128.906	85.451	128.906	87.593	128.906	85.3218	128.906	87.6032	128.906	85.1889	128.906	87.5527	128.906	85.063	128.906	87.4262	128.906	84.9601	128.906	87.2152	128.906	84.8997	128.906	86.9225	128.906	84.903	128.906	86.5651	128.906	84.9887	128.906	86.1729	128.906	85.1679	128.906	85.7844	128.906	85.4389
133.301	86.34	133.301	86.188	133.301	86.5013	133.301	86.0499	133.301	86.6656	133.301	85.9271	133.301	86.8264	133.301	85.8181	133.301	86.9778	133.301	85.7184	133.301	87.1158	133.301	85.6216	133.301	87.2378	133.301	85.5213	133.301	87.3415	133.301	85.4123	133.301	87.4227	133.301	85.2918	133.301	87.473	133.301	85.1614	133.301	87.4792	133.301	85.0268	133.301	87.4245	133.301	84.8991	133.301	87.2934	133.301	84.7944	133.301	87.0769	133.301	84.7324	133.301	86.7777	133.301	84.7343	133.301	86.4131	133.301	84.8193	133.301	86.0142	133.301	84.9987	133.301	85.6203	133.301	85.2714
139.16	86.1942	139.16	86.0246	139.16	86.3698	139.16	85.8672	139.16	86.544	139.16	85.725	139.16	86.7092	139.16	85.5976	139.16	86.8596	139.16	85.4814	139.16	86.9917	139.16	85.3703	139.16	87.1041	139.16	85.2578	139.16	87.1959	139.16	85.1383	139.16	87.2647	139.16	85.0091	139.16	87.3029	139.16	84.8714	139.16	87.2976	139.16	84.7314	139.16	87.2317	139.16	84.6002	139.16	87.0885	139.16	84.4939	139.16	86.8583	139.16	84.4321	139.16	86.5441	139.16	84.4358	139.16	86.1639	139.16	84.5237	139.16	85.7503	139.16	84.7073	139.16	85.3442	139.16	84.9862
143.555	86.1391	143.555	85.962	143.555	86.3185	143.555	85.7941	143.555	86.4924	143.555	85.6393	143.555	86.6533	143.555	85.4978	143.555	86.7954	143.555	85.3664	143.555	86.916	143.555	85.2395	143.555	87.0148	143.555	85.1108	143.555	87.0923	143.555	84.9748	143.555	87.1473	143.555	84.8293	143.555	87.1734	143.555	84.6759	143.555	87.1579	143.555	84.5214	143.555	87.0828	143.555	84.3778	143.555	86.9305	143.555	84.262	143.555	86.69	143.555	84.1941	143.555	86.3637	143.555	84.195	143.555	85.97	143.555	84.2834	143.555	85.5427	143.555	84.4706	143.555	85.1241	143.555	84.7562
147.949	86.0619	147.949	85.8702	147.949	86.2531	147.949	85.6856	147.949	86.4346	147.949	85.5132	147.949	86.5984	147.949	85.354	147.949	86.7384	147.949	85.2054	147.949	86.852	147.949	85.0617	147.949	86.9395	147.949	84.9165	147.949	87.0025	147.949	84.7643	147.949	87.0411	147.949	84.6025	147.949	87.0504	147.949	84.433	147.949	87.0182	147.949	84.263	147.949	86.9268	147.949	84.1053	147.949	86.7577	147.949	83.9776	147.949	86.4991	147.949	83.901	147.949	86.1531	147.949	83.8972	147.949	85.7386	147.949	83.9852	147.949	85.2908	147.949	84.1768	147.949	84.8541	147.949	84.4719
153.809	86.0133	153.809	85.8056	153.809	86.2162	153.809	85.6012	153.809	86.4048	153.809	85.4057	153.809	86.5706	153.809	85.2208	153.809	86.7076	153.809	85.0444	153.809	86.8129	153.809	84.8714	153.809	86.8868	153.809	84.6958	153.809	86.9315	153.809	84.5126	153.809	86.9476	153.809	84.3198	153.809	86.9311	153.809	84.1204	153.809	86.871	153.809	83.9229	153.809	86.7503	153.809	83.7414	153.809	86.5508	153.809	83.5952	153.809	86.2612	153.809	83.5064	153.809	85.8837	153.809	83.4973	153.809	85.4382	153.809	83.5868	153.809	84.9611	153.809	83.7864	153.809	84.4987	153.809	84.0959
159.668	86.0064	159.668	85.7922	159.668	86.214	159.668	85.5803	159.668	86.4054	159.668	85.3767	159.668	86.5724	159.668	85.1835	159.668	86.7092	159.668	84.9988	159.668	86.8136	159.668	84.8176	159.668	86.8867	159.668	84.6335	159.668	86.9309	159.668	84.4415	159.668	86.9468	159.668	84.2395	159.668	86.9296	159.668	84.0308	159.668	86.8668	159.668	83.8241	159.668	86.74	159.668	83.6346	159.668	86.5302	159.668	83.482	159.668	86.2259	159.668	83.3887	159.668	85.8304	159.668	83.377	159.668	85.3656	159.668	83.4658	159.668	84.8707	159.668	83.6672	159.668	84.394	159.668	83.9817
165.527	85.9794	165.527	85.7718	165.527	86.1779	165.527	85.5633	165.527	86.3585	165.527	85.3598	165.527	86.514	165.527	85.1633	165.527	86.6405	165.527	84.9722	165.527	86.7383	165.527	84.7819	165.527	86.8113	165.527	84.5869	165.527	86.8647	165.527	84.3833	165.527	86.9009	165.527	84.1706	165.527	86.915	165.527	83.9542	165.527	86.8917	165.527	83.7454	165.527	86.8078	165.527	83.5617	165.527	86.639	165.527	83.4248	165.527	86.369	165.527	83.3579	165.527	85.9974	165.527	83.3821	165.527	85.5438	165.527	83.5128	165.527	85.0459	165.527	83.7572	165.527	84.5522	165.527	84.1104
171.387	85.929	171.387	85.7271	171.387	86.1212	171.387	85.5254	171.387	86.2931	171.387	85.3306	171.387	86.4354	171.387	85.1451	171.387	86.5429	171.387	84.9663	171.387	86.6149	171.387	84.7887	171.387	86.6559	171.387	84.6054	171.387	86.6734	171.387	84.4118	171.387	86.6738	171.387	84.2072	171.387	86.6566	171.387	83.9969	171.387	86.6112	171.387	83.7931	171.387	86.517	171.387	83.6134	171.387	86.3507	171.387	83.4793	171.387	86.0959	171.387	83.412	171.387	85.7518	171.387	83.4288	171.387	85.3374	171.387	83.5414	171.387	84.8886	171.387	83.7537	171.387	84.4497	171.387	84.0617
177.246	85.7398	177.246	85.5353	177.246	85.9351	177.246	85.3326	177.246	86.1094	177.246	85.1393	177.246	86.253	177.246	84.9579	177.246	86.3601	177.246	84.7854	177.246	86.4305	177.246	84.6147	177.246	86.4692	177.246	84.4377	177.246	86.4844	177.246	84.248	177.246	86.4825	177.246	84.044	177.246	86.4628	177.246	83.8307	177.246	86.4132	177.246	83.6205	177.246	86.312	177.246	83.432	177.246	86.1346	177.246	83.2873	177.246	85.865	177.246	83.2083	177.246	85.5046	177.246	83.2122	177.246	85.076	177.246	83.3102	177.246	84.6191	177.246	83.5071	177.246	84.1807	177.246	83.8013
183.105	85.4549	183.105	85.2138	183.105	85.6782	183.105	84.9697	183.105	85.8697	183.105	84.7345	183.105	86.0184	183.105	84.5147	183.105	86.1188	183.105	84.3109	183.105	86.1722	183.105	84.1178	183.105	86.1869	183.105	83.9277	183.105	86.1753	183.105	83.7338	183.105	86.1492	183.105	83.5335	183.105	86.112	183.105	83.3314	183.105	86.053	183.105	83.1396	183.105	85.9482	183.105	82.9764	183.105	85.7698	183.105	82.8626	183.105	85.4988	183.105	82.8161	183.105	85.1364	183.105	82.849	183.105	84.7075	183.105	82.9663	183.105	84.2552	183.105	83.1696	183.105	83.8267	183.105	83.4584
188.965	85.5003	188.965	85.2574	188.965	85.7176	188.965	85.0014	188.965	85.897	188.965	84.7425	188.965	86.0289	188.965	84.4863	188.965	86.109	188.965	84.2329	188.965	86.1391	188.965	83.978	188.965	86.1281	188.965	83.7155	188.965	86.0897	188.965	83.4407	188.965	86.0367	188.965	83.1544	188.965	85.9732	188.965	82.8655	188.965	85.8881	188.965	82.5923	188.965	85.7551	188.965	82.3604	188.965	85.5429	188.965	82.1977	188.965	85.2291	188.965	82.1269	188.965	84.8132	188.965	82.1598	188.965	84.3213	188.965	82.2979	188.965	83.8007	188.965	82.5381	188.965	83.305	188.965	82.8765
196.289	85.4424	196.289	85.2039	196.289	85.6591	196.289	84.9585	196.289	85.8393	196.289	84.7173	196.289	85.9711	196.289	84.4855	196.289	86.0484	196.289	84.261	196.289	86.0725	196.289	84.0362	196.289	86.0528	196.289	83.8011	196.289	86.0045	196.289	83.5474	196.289	85.9426	196.289	83.2727	196.289	85.8727	196.289	82.9836	196.289	85.7841	196.289	82.6972	196.289	85.6495	196.289	82.4401	196.289	85.436	196.289	82.2436	196.289	85.1206	196.289	82.1357	196.289	84.7029	196.289	82.1339	196.289	84.2106	196.289	82.2437	196.289	83.6926	196.289	82.4626	196.289	83.2035	196.289	82.7858
203.613	85.3012	203.613	85.0493	203.613	85.5252	203.613	84.7871	203.613	85.7048	203.613	84.5291	203.613	85.8273	203.613	84.2834	203.613	85.8867	203.613	84.0504	203.613	85.8857	203.613	83.8235	203.613	85.8356	203.613	83.5927	203.613	85.7546	203.613	83.349	203.613	85.6611	203.613	83.0892	203.613	85.564	203.613	82.8191	203.613	85.4541	203.613	82.5549	203.613	85.3041	203.613	82.3216	203.613	85.0804	203.613	82.1467	203.613	84.7607	203.613	82.0531	203.613	84.3481	203.613	82.0521	203.613	83.8747	203.613	82.1441	203.613	83.3931	203.613	82.3256	203.613	82.9556	203.613	82.596
210.938	85.2662	210.938	84.9954	210.938	85.5034	210.938	84.7087	210.938	85.6897	210.938	84.4209	210.938	85.8117	210.938	84.1403	210.938	85.8623	210.938	83.8677	210.938	85.8428	210.938	83.597	210.938	85.7643	210.938	83.3189	210.938	85.6463	210.938	83.0258	210.938	85.5115	210.938	82.7169	210.938	85.3748	210.938	82.4016	210.938	85.2327	210.938	82.1013	210.938	85.0596	210.938	81.846	210.938	84.8196	210.938	81.6668	210.938	84.4857	210.938	81.5856	210.938	84.057	210.938	81.6082	210.938	83.5645	210.938	81.7275	210.938	83.0622	210.938	81.9341	210.938	82.6047	210.938	82.2257
218.262	85.1863	218.262	84.8999	218.262	85.4417	218.262	84.6018	218.262	85.6469	218.262	84.308	218.262	85.787	218.262	84.0264	218.262	85.8538	218.262	83.7558	218.262	85.8479	218.262	83.4871	218.262	85.7792	218.262	83.2075	218.262	85.6652	218.262	82.9066	218.262	85.5258	218.262	82.5819	218.262	85.3727	218.262	82.2429	218.262	85.1995	218.262	81.9126	218.262	84.9809	218.262	81.6247	218.262	84.6833	218.262	81.415	218.262	84.2849	218.262	81.3086	218.262	83.7926	218.262	81.3114	218.262	83.2473	218.262	81.4131	218.262	82.7124	218.262	81.6015	218.262	82.2457	218.262	81.8758
225.586	85.0688	225.586	84.7783	225.586	85.32	225.586	84.4698	225.586	85.5124	225.586	84.1622	225.586	85.6323	225.586	83.8671	225.586	85.6741	225.586	83.5865	225.586	85.6424	225.586	83.3134	225.586	85.5528	225.586	83.0363	225.586	85.4298	225.586	82.7452	225.586	85.2994	225.586	82.4382	225.586	85.1759	225.586	82.1257	225.586	85.05	225.586	81.8314	225.586	84.8876	225.586	81.5881	225.586	84.6458	225.586	81.4278	225.586	84.2957	225.586	81.3689	225.586	83.8411	225.586	81.4098	225.586	83.3238	225.586	81.5351	225.586	82.8098	225.586	81.7316	225.586	82.3597	225.586	82.0018
232.91	85.158	232.91	84.8561	232.91	85.4165	232.91	84.5332	232.91	85.6104	232.91	84.2079	232.91	85.7235	232.91	83.8907	232.91	85.7476	232.91	83.5814	232.91	85.6846	232.91	83.2711	232.91	85.5483	232.91	82.9466	232.91	85.364	232.91	82.5986	232.91	85.1623	232.91	82.2277	232.91	84.9661	232.91	81.8507	232.91	84.7753	232.91	81.5011	232.91	84.5618	232.91	81.2236	232.91	84.2842	232.91	81.0581	232.91	83.9128	232.91	81.0219	232.91	83.4526	232.91	81.1006	232.91	82.9481	232.91	81.2604	232.91	82.465	232.91	81.4721	232.91	82.0552	232.91	81.7307
241.699	85.0446	241.699	84.7279	241.699	85.3254	241.699	84.4015	241.699	85.5458	241.699	84.087	241.699	85.6873	241.699	83.7949	241.699	85.741	241.699	83.5213	241.699	85.7084	241.699	83.2501	241.699	85.603	241.699	82.9599	241.699	85.4483	241.699	82.6331	241.699	85.2711	241.699	82.2642	241.699	85.0886	241.699	81.8663	241.699	84.894	241.699	81.4737	241.699	84.6541	241.699	81.1373	241.699	84.3251	241.699	80.909	241.699	83.879	241.699	80.8178	241.699	83.3285	241.699	80.8548	241.699	82.7337	241.699	80.9835	241.699	82.1811	241.699	81.1699	241.699	81.7369	241.699	81.4109
250.488	84.9337	250.488	84.5399	250.488	85.269	250.488	84.1188	250.488	85.5201	250.488	83.7014	250.488	85.6705	250.488	83.3103	250.488	85.714	250.488	82.9518	250.488	85.6559	250.488	82.6153	250.488	85.5131	250.488	82.2789	250.488	85.3128	250.488	81.9212	250.488	85.0846	250.488	81.533	250.488	84.8466	250.488	81.1261	250.488	84.5896	250.488	80.7368	250.488	84.2744	250.488	80.4183	250.488	83.8507	250.488	80.2195	250.488	83.288	250.488	80.1572	250.488	82.6072	250.488	80.2034	250.488	81.8945	250.488	80.3059	250.488	81.2752	250.488	80.4279	250.488	80.84	250.488	80.5831
259.277	85.3258	259.277	85.0071	259.277	85.5879	259.277	84.6551	259.277	85.7739	259.277	84.2918	259.277	85.8721	259.277	83.93	259.277	85.8806	259.277	83.5695	259.277	85.8083	259.277	83.1959	259.277	85.6756	259.277	82.7869	259.277	85.5116	259.277	82.3216	259.277	85.3451	259.277	81.7911	259.277	85.1885	259.277	81.2084	259.277	85.0219	259.277	80.6165	259.277	84.7924	259.277	80.0883	259.277	84.4336	259.277	79.7062	259.277	83.8962	259.277	79.5229	259.277	83.1772	259.277	79.5299	259.277	82.3378	259.277	79.6753	259.277	81.4986	259.277	79.9182	259.277	80.789	259.277	80.2713
268.066	84.476	268.066	84.1271	268.066	84.7745	268.066	83.765	268.066	84.9929	268.066	83.4253	268.066	85.1134	268.066	83.1301	268.066	85.1318	268.066	82.8789	268.066	85.0594	268.066	82.6481	268.066	84.9241	268.066	82.4019	268.066	84.7682	268.066	82.1073	268.066	84.6356	268.066	81.7476	268.066	84.5481	268.066	81.3325	268.066	84.4834	268.066	80.9036	268.066	84.3764	268.066	80.5298	268.066	84.1496	268.066	80.2853	268.066	83.7514	268.066	80.2112	268.066	83.1855	268.066	80.2908	268.066	82.5221	268.066	80.4675	268.066	81.877	268.066	80.6942	268.066	81.3519	268.066	80.9725
276.855	84.6864	276.855	84.3095	276.855	84.9834	276.855	83.8833	276.855	85.1786	276.855	83.4426	276.855	85.2606	276.855	83.0177	276.855	85.2296	276.855	82.6242	276.855	85.0999	276.855	82.2567	276.855	84.9016	276.855	81.8911	276.855	84.6806	276.855	81.4967	276.855	84.4866	276.855	81.0511	276.855	84.3461	276.855	80.5548	276.855	84.2342	276.855	80.0415	276.855	84.0734	276.855	79.5793	276.855	83.7669	276.855	79.2502	276.855	83.2448	276.855	79.1058	276.855	82.5021	276.855	79.1306	276.855	81.6224	276.855	79.2588	276.855	80.7696	276.855	79.4386	276.855	80.109	276.855	79.6909
287.109	84.5683	287.109	84.2109	287.109	84.8563	287.109	83.8157	287.109	85.0499	287.109	83.4136	287.109	85.1331	287.109	83.0259	287.109	85.1013	287.109	82.6545	287.109	84.9632	287.109	82.2806	287.109	84.7453	287.109	81.8713	287.109	84.4943	287.109	81.3937	287.109	84.2693	287.109	80.8308	287.109	84.1154	287.109	80.1967	287.109	84.0263	287.109	79.5507	287.109	83.9308	287.109	78.9982	287.109	83.7241	287.109	78.6564	287.109	83.3193	287.109	78.5829	287.109	82.6885	287.109	78.7322	287.109	81.8843	287.109	79.0042	287.109	81.036	287.109	79.3336	287.109	80.295	287.109	79.7392
297.363	84.2877	297.363	83.9313	297.363	84.573	297.363	83.5435	297.363	84.7582	297.363	83.1658	297.363	84.8279	297.363	82.8264	297.363	84.7823	297.363	82.5269	297.363	84.6385	297.363	82.2384	297.363	84.4331	297.363	81.9128	297.363	84.2199	297.363	81.5015	297.363	84.0551	297.363	80.9733	297.363	83.965	297.363	80.3304	297.363	83.917	297.363	79.6255	297.363	83.824	297.363	78.9729	297.363	83.5848	297.363	78.5263	297.363	83.1313	297.363	78.3944	297.363	82.4613	297.363	78.5539	297.363	81.6534	297.363	78.8788	297.363	80.8487	297.363	79.2571	297.363	80.1769	297.363	79.6683
307.617	84.7264	307.617	84.3753	307.617	84.9936	307.617	83.9839	307.617	85.1427	307.617	83.5964	307.617	85.1526	307.617	83.2436	307.617	85.018	307.617	82.9289	307.617	84.7548	307.617	82.6251	307.617	84.4087	307.617	82.2838	307.617	84.0621	307.617	81.8532	307.617	83.8162	307.617	81.2947	307.617	83.7326	307.617	80.5974	307.617	83.7664	307.617	79.7944	307.617	83.775	307.617	78.9806	307.617	83.5952	307.617	78.3103	307.617	83.1161	307.617	77.9324	307.617	82.3147	307.617	77.88	307.617	81.2769	307.617	78.0514	307.617	80.1994	307.617	78.3319	307.617	79.3122	307.617	78.7162
319.336	84.144	319.336	83.6967	319.336	84.5022	319.336	83.2217	319.336	84.7281	319.336	82.7889	319.336	84.7959	319.336	82.4531	319.336	84.6957	319.336	82.2247	319.336	84.4356	319.336	82.0608	319.336	84.0517	319.336	81.8852	319.336	83.625	319.336	81.6205	319.336	83.2841	319.336	81.2116	319.336	83.1523	319.336	80.6384	319.336	83.2395	319.336	79.9279	319.336	83.3997	319.336	79.1691	319.336	83.4236	319.336	78.5157	319.336	83.1531	319.336	78.1307	319.336	82.5315	319.336	78.0747	319.336	81.6197	319.336	78.265	319.336	80.5956	319.336	78.5891	319.336	79.6898	319.336	79.0347
329.59	84.3839	329.59	83.914	329.59	84.7462	329.59	83.3997	329.59	84.9608	329.59	82.9212	329.59	85.006	329.59	82.5513	329.59	84.8734	329.59	82.3152	329.59	84.5687	329.59	82.1713	329.59	84.1211	329.59	82.0312	329.59	83.6026	329.59	81.8017	329.59	83.1447	329.59	81.4139	329.59	82.9025	329.59	80.8378	329.59	82.9339	329.59	80.0922	329.59	83.1107	329.59	79.2619	329.59	83.1995	329.59	78.5066	329.59	83.0051	329.59	78.0138	329.59	82.44	329.59	77.8719	329.59	81.5404	329.59	78.0078	329.59	80.4727	329.59	78.3081	329.59	79.4883	329.59	78.7701
341.309	84.3717	341.309	83.8578	341.309	84.7471	341.309	83.2764	341.309	84.9458	341.309	82.7363	341.309	84.9503	341.309	82.3566	341.309	84.7553	341.309	82.2018	341.309	84.3668	341.309	82.2293	341.309	83.8132	341.309	82.3159	341.309	83.1739	341.309	82.3302	341.309	82.6138	341.309	82.1794	341.309	82.3559	341.309	81.8205	341.309	82.5093	341.309	81.2599	341.309	82.9169	341.309	80.559	341.309	83.279	341.309	79.8417	341.309	83.3599	341.309	79.2757	341.309	83.0578	341.309	78.995	341.309	82.3945	341.309	79.023	341.309	81.5013	341.309	79.3088	341.309	80.5836	341.309	79.828
353.027	84.9976	353.027	84.3531	353.027	85.4366	353.027	83.5405	353.027	85.6585	353.027	82.6484	353.027	85.6607	353.027	81.8356	353.027	85.4404	353.027	81.2925	353.027	84.9919	353.027	81.1138	353.027	84.313	353.027	81.2051	353.027	83.4287	353.027	81.3654	353.027	82.4507	353.027	81.4235	353.027	81.6522	353.027	81.2914	353.027	81.3865	353.027	80.9592	353.027	81.7027	353.027	80.4858	353.027	82.2256	353.027	79.9916	353.027	82.5554	353.027	79.6274	353.027	82.5066	353.027	79.4962	353.027	82.0876	353.027	79.5917	353.027	81.4418	353.027	79.8467	353.027	80.7737	353.027	80.233
366.211	85.6843	366.211	85.1174	366.211	86.0631	366.211	84.3763	366.211	86.2538	366.211	83.5068	366.211	86.2596	366.211	82.6085	366.211	86.0809	366.211	81.8395	366.211	85.7123	366.211	81.3559	366.211	85.1448	366.211	81.1946	366.211	84.3764	366.211	81.2346	366.211	83.444	366.211	81.2979	366.211	82.4793	366.211	81.2542	366.211	81.7401	366.211	81.0545	366.211	81.4587	366.211	80.7231	366.211	81.5581	366.211	80.3429	366.211	81.709	366.211	80.0239	366.211	81.6484	366.211	79.8464	366.211	81.3186	366.211	79.8162	366.211	80.8339	366.211	79.8928	366.211	80.3779	366.211	80.0663
379.395	86.3215	379.395	85.8414	379.395	86.6315	379.395	85.1937	379.395	86.7769	379.395	84.4002	379.395	86.7649	379.395	83.5175	379.395	86.5988	379.395	82.6476	379.395	86.2751	379.395	81.9212	379.395	85.7828	379.395	81.4308	379.395	85.1082	379.395	81.1606	379.395	84.255	379.395	81.0003	379.395	83.2881	379.395	80.8298	379.395	82.3898	379.395	80.5852	379.395	81.8244	379.395	80.2765	379.395	81.6925	379.395	79.9714	379.395	81.7675	379.395	79.752	379.395	81.7312	379.395	79.6589	379.395	81.4304	379.395	79.6736	379.395	80.9186	379.395	79.772	379.395	80.3808	379.395	79.9874
392.578	85.65	392.578	85.2201	392.578	85.9263	392.578	84.6423	392.578	86.0539	392.578	83.9404	392.578	86.0423	392.578	83.165	392.578	85.9021	392.578	82.3975	392.578	85.6398	392.578	81.7339	392.578	85.2555	392.578	81.2419	392.578	84.7427	392.578	80.9192	392.578	84.0979	392.578	80.7012	392.578	83.3443	392.578	80.5136	392.578	82.5683	392.578	80.3211	392.578	81.9315	392.578	80.1421	392.578	81.5788	392.578	80.0304	392.578	81.4819	392.578	80.0298	392.578	81.454	392.578	80.1334	392.578	81.3363	392.578	80.2898	392.578	81.1073	392.578	80.4534	392.578	80.8463	392.578	80.6274
405.762	85.2206	405.762	84.7694	405.762	85.4898	405.762	84.1482	405.762	85.5806	405.762	83.3956	405.762	85.5059	405.762	82.588	405.762	85.2845	405.762	81.8399	405.762	84.9381	405.762	81.2663	405.762	84.4907	405.762	80.9122	405.762	83.9682	405.762	80.7198	405.762	83.3979	405.762	80.5794	405.762	82.8071	405.762	80.4094	405.762	82.2239	405.762	80.1997	405.762	81.6827	405.762	80.0115	405.762	81.2279	405.762	79.9378	405.762	80.8974	405.762	80.0308	405.762	80.6975	405.762	80.249	405.762	80.6064	405.762	80.4843	405.762	80.5984	405.762	80.6388	405.762	80.642	405.762	80.6791
420.41	85.7262	420.41	85.2848	420.41	85.9888	420.41	84.6621	420.41	86.0819	420.41	83.8691	420.41	86.018	420.41	82.9407	420.41	85.8094	420.41	81.9487	420.41	85.4664	420.41	81.0019	420.41	84.9971	420.41	80.2108	420.41	84.4109	420.41	79.6222	420.41	83.7261	420.41	79.1919	420.41	82.978	420.41	78.8421	420.41	82.218	420.41	78.5471	420.41	81.4907	420.41	78.37	420.41	80.8009	420.41	78.4127	420.41	80.1193	420.41	78.6953	420.41	79.4564	420.41	79.0926	420.41	78.9474	420.41	79.4091	420.41	78.7888	420.41	79.4957	420.41	78.9933	420.41	79.3174
435.059	85.5956	435.059	85.1876	435.059	85.8069	435.059	84.5884	435.059	85.8284	435.059	83.8223	435.059	85.6761	435.059	82.9424	435.059	85.3749	435.059	82.0371	435.059	84.9603	435.059	81.2133	435.059	84.4796	435.059	80.5448	435.059	83.9903	435.059	80.0209	435.059	83.5459	435.059	79.5591	435.059	83.1656	435.059	79.077	435.059	82.8065	435.059	78.5629	435.059	82.3703	435.059	78.1069	435.059	81.7461	435.059	77.8635	435.059	80.8642	435.059	77.9175	435.059	79.7562	435.059	78.1664	435.059	78.6388	435.059	78.3845	435.059	77.9183	435.059	78.3848	435.059	77.8378	435.059	78.1345
451.172	86.3004	451.172	85.9533	451.172	86.4549	451.172	85.4117	451.172	86.419	451.172	84.6778	451.172	86.1944	451.172	83.7697	451.172	85.7843	451.172	82.7366	451.172	85.1968	451.172	81.6701	451.172	84.4531	451.172	80.686	451.172	83.6091	451.172	79.8654	451.172	82.7906	451.172	79.1991	451.172	82.1975	451.172	78.6114	451.172	81.9719	451.172	78.0496	451.172	82.0039	451.172	77.5544	451.172	81.9796	451.172	77.2479	451.172	81.6057	451.172	77.2062	451.172	80.7285	451.172	77.3249	451.172	79.3814	451.172	77.3719	451.172	77.9007	451.172	77.185	451.172	76.9531	451.172	76.8741
465.82	85.3303	465.82	85.064	465.82	85.4579	465.82	84.6696	465.82	85.4449	465.82	84.1622	465.82	85.2992	465.82	83.5573	465.82	85.0328	465.82	82.8714	465.82	84.6531	465.82	82.1256	465.82	84.1576	465.82	81.3473	465.82	83.5433	465.82	80.564	465.82	82.8383	465.82	79.7963	465.82	82.1507	465.82	79.0607	465.82	81.6798	465.82	78.3897	465.82	81.5709	465.82	77.8476	465.82	81.7007	465.82	77.5052	465.82	81.742	465.82	77.368	465.82	81.4142	465.82	77.3398	465.82	80.6106	465.82	77.3027	465.82	79.4369	465.82	77.2702	465.82	78.2454	465.82	77.4873
483.398	84.6791	483.398	84.2015	483.398	84.9794	483.398	83.5815	483.398	85.0926	483.398	82.8812	483.398	85.0265	483.398	82.1781	483.398	84.7977	483.398	81.5362	483.398	84.4245	483.398	80.9704	483.398	83.921	483.398	80.4397	483.398	83.2945	483.398	79.88	483.398	82.5495	483.398	79.2578	483.398	81.713	483.398	78.6205	483.398	80.9019	483.398	78.1263	483.398	80.3871	483.398	77.9925	483.398	80.4331	483.398	78.3142	483.398	80.9227	483.398	78.9445	483.398	81.437	483.398	79.6309	483.398	81.6762	483.398	80.2032	483.398	81.5941	483.398	80.6294	483.398	81.3124	483.398	80.9769
499.512	85.7456	499.512	85.3437	499.512	85.9275	499.512	84.7401	499.512	85.8916	499.512	83.9796	499.512	85.6568	499.512	83.1395	499.512	85.2578	499.512	82.3207	499.512	84.7443	499.512	81.6047	499.512	84.1785	499.512	80.9924	499.512	83.6254	499.512	80.39	499.512	83.1267	499.512	79.67	499.512	82.6661	499.512	78.7587	499.512	82.164	499.512	77.7368	499.512	81.536	499.512	76.9541	499.512	80.7919	499.512	76.915	499.512	80.0924	499.512	77.6655	499.512	79.6509	499.512	78.6801	499.512	79.5321	499.512	79.4919	499.512	79.6396	499.512	79.923	499.512	79.8433	499.512	79.9953
517.09	85.6486	517.09	85.2659	517.09	85.8081	517.09	84.6978	517.09	85.7341	517.09	84.0056	517.09	85.4442	517.09	83.2634	517.09	84.9812	517.09	82.5346	517.09	84.411	517.09	81.8442	517.09	83.8169	517.09	81.1617	517.09	83.2859	517.09	80.4133	517.09	82.8729	517.09	79.5208	517.09	82.5554	517.09	78.4611	517.09	82.2258	517.09	77.3672	517.09	81.7591	517.09	76.6466	517.09	81.112	517.09	76.7768	517.09	80.3831	517.09	77.6559	517.09	79.7708	517.09	78.6964	517.09	79.438	517.09	79.4686	517.09	79.4168	517.09	79.8306	517.09	79.6112	517.09	79.8242
536.133	86.4699	536.133	86.0819	536.133	86.4997	536.133	85.3685	536.133	86.1778	536.133	84.4311	536.133	85.5377	536.133	83.4733	536.133	84.6412	536.133	82.7571	536.133	83.5971	536.133	82.4054	536.133	82.6045	536.133	82.258	536.133	81.981	536.133	82.0171	536.133	81.9904	536.133	81.438	536.133	82.4979	536.133	80.3667	536.133	83.0366	536.133	78.7388	536.133	83.1968	536.133	76.7524	536.133	82.7907	536.133	75.4627	536.133	81.8631	536.133	76.1936	536.133	80.7266	536.133	77.9543	536.133	79.9168	536.133	79.4008	536.133	79.7786	536.133	80.1803	536.133	80.0824	536.133	80.3394
555.176	87.1206	555.176	86.7092	555.176	87.1803	555.176	85.9468	555.176	86.9104	555.176	84.8757	555.176	86.3479	555.176	83.6336	555.176	85.5303	555.176	82.5255	555.176	84.4653	555.176	81.9356	555.176	83.1071	555.176	81.9362	555.176	81.4065	555.176	82.169	555.176	79.6161	555.176	82.2341	555.176	78.8858	555.176	81.9058	555.176	79.9794	555.176	81.1006	555.176	81.5013	555.176	79.8759	555.176	82.3237	555.176	78.6061	555.176	82.1778	555.176	78.1194	555.176	81.1618	555.176	78.7692	555.176	79.7864	555.176	79.7509	555.176	79.1105	555.176	80.3056	555.176	79.5473	555.176	80.1864
574.219	86.9779	574.219	86.5591	574.219	87.0694	574.219	85.7866	574.219	86.8737	574.219	84.6616	574.219	86.4363	574.219	83.2543	574.219	85.7963	574.219	81.8059	574.219	84.9696	574.219	80.8155	574.219	83.9369	574.219	80.696	574.219	82.6572	574.219	81.1902	574.219	81.1496	574.219	81.7165	574.219	79.741	574.219	81.9179	574.219	79.3143	574.219	81.6836	574.219	80.2741	574.219	81.074	574.219	81.6184	574.219	80.3629	574.219	82.4165	574.219	80.0352	574.219	82.3481	574.219	80.332	574.219	81.5098	574.219	80.8536	574.219	80.518	574.219	81.0571	574.219	80.2912	574.219	80.7491
594.727	87.6386	594.727	87.3255	594.727	87.6283	594.727	86.6549	594.727	87.3422	594.727	85.6034	594.727	86.8386	594.727	84.1639	594.727	86.169	594.727	82.3889	594.727	85.3513	594.727	80.5249	594.727	84.3584	594.727	79.1753	594.727	83.1474	594.727	78.8849	594.727	81.7256	594.727	79.3152	594.727	80.2572	594.727	79.777	594.727	79.1995	594.727	79.9564	594.727	79.1544	594.727	79.9059	594.727	80.0485	594.727	79.9167	594.727	81.0447	594.727	80.2741	594.727	81.4738	594.727	80.8918	594.727	81.1838	594.727	81.3736	594.727	80.581	594.727	81.3982	594.727	80.4525	594.727	80.9454
615.234	88.1018	615.234	87.7833	615.234	88.0884	615.234	87.1105	615.234	87.7881	615.234	86.0857	615.234	87.2659	615.234	84.7478	615.234	86.5917	615.234	83.2076	615.234	85.8037	615.234	81.7039	615.234	84.8779	615.234	80.5785	615.234	83.741	615.234	79.9955	615.234	82.3413	615.234	79.7081	615.234	80.7725	615.234	79.3085	615.234	79.4361	615.234	78.5565	615.234	78.904	615.234	77.591	615.234	79.158	615.234	77.1971	615.234	79.5329	615.234	78.1164	615.234	79.5209	615.234	79.6421	615.234	79.1507	615.234	80.7784	615.234	79.0592	615.234	81.1379	615.234	79.7589	615.234	80.6993
637.207	87.5635	637.207	87.2489	637.207	87.5799	637.207	86.5909	637.207	87.3625	637.207	85.5642	637.207	86.9861	637.207	84.1791	637.207	86.5061	637.207	82.5439	637.207	85.9233	637.207	80.9964	637.207	85.1813	637.207	80.0953	637.207	84.2022	637.207	80.0284	637.207	82.9266	637.207	80.2818	637.207	81.3634	637.207	80.2912	637.207	79.7235	637.207	79.799	637.207	78.6311	637.207	78.8511	637.207	78.6957	637.207	77.9635	637.207	79.4389	637.207	78.0657	637.207	79.9835	637.207	79.1729	637.207	80.0624	637.207	80.3024	637.207	80.0183	637.207	80.8524	637.207	80.2991	637.207	80.7515
659.18	87.8187	659.18	87.7269	659.18	87.5851	659.18	87.2477	659.18	87.108	659.18	86.3289	659.18	86.4861	659.18	84.9197	659.18	85.8067	659.18	82.9939	659.18	85.1137	659.18	80.6794	659.18	84.4039	659.18	78.6279	659.18	83.6469	659.18	77.9573	659.18	82.7912	659.18	78.4961	659.18	81.7513	659.18	79.0741	659.18	80.4597	659.18	79.1389	659.18	79.1145	659.18	78.7138	659.18	78.3644	659.18	78.2939	659.18	78.3135	659.18	78.6695	659.18	77.9972	659.18	79.8304	659.18	77.0435	659.18	80.8958	659.18	76.9497	659.18	81.2087	659.18	78.7263	659.18	80.4791
682.617	87.7018	682.617	87.6982	682.617	87.3897	682.617	87.317	682.617	86.8486	682.617	86.5091	682.617	86.1858	682.617	85.2319	682.617	85.4902	682.617	83.4735	682.617	84.7793	682.617	81.3636	682.617	83.9939	682.617	79.4326	682.617	83.0539	682.617	78.5276	682.617	81.9254	682.617	78.6049	682.617	80.6946	682.617	78.7429	682.617	79.6882	682.617	78.364	682.617	79.3907	682.617	77.4705	682.617	79.7381	682.617	76.8694	682.617	79.9468	682.617	77.7363	682.617	79.3281	682.617	79.4298	682.617	77.7978	682.617	80.6351	682.617	76.7369	682.617	80.8272	682.617	78.0086	682.617	79.8789
707.52	87.4768	707.52	87.4815	707.52	87.2586	707.52	87.2081	707.52	86.9015	707.52	86.5993	707.52	86.4578	707.52	85.5867	707.52	85.9266	707.52	84.092	707.52	85.2718	707.52	82.0955	707.52	84.4711	707.52	79.8811	707.52	83.5271	707.52	78.4102	707.52	82.4083	707.52	78.3924	707.52	80.9626	707.52	78.8867	707.52	79.0056	707.52	78.8619	707.52	77.277	707.52	77.974	707.52	78.0939	707.52	76.6447	707.52	80.0133	707.52	76.726	707.52	80.627	707.52	78.6873	707.52	79.5173	707.52	80.4287	707.52	77.736	707.52	80.978	707.52	78.2729	707.52	80.1396
732.422	87.3521	732.422	87.401	732.422	87.0928	732.422	87.2042	732.422	86.6487	732.422	86.6903	732.422	86.0517	732.422	85.7387	732.422	85.3375	732.422	84.1979	732.422	84.5391	732.422	81.9626	732.422	83.7024	732.422	79.2978	732.422	82.9215	732.422	77.6523	732.422	82.288	732.422	78.1765	732.422	81.6703	732.422	79.1972	732.422	80.59	732.422	79.4728	732.422	78.5338	732.422	78.7715	732.422	76.2964	732.422	77.4252	732.422	76.9042	732.422	76.8247	732.422	78.2577	732.422	77.9451	732.422	77.7464	732.422	79.206	732.422	75.5681	732.422	79.3309	732.422	75.3996	732.422	77.8903
757.324	87.5469	757.324	87.3534	757.324	87.4317	757.324	86.9273	757.324	86.9923	757.324	86.3403	757.324	86.2766	757.324	85.5513	757.324	85.358	757.324	84.3713	757.324	84.2829	757.324	82.5583	757.324	83.0727	757.324	80.0164	757.324	81.8413	757.324	77.4016	757.324	80.8872	757.324	76.6713	757.324	80.3489	757.324	77.631	757.324	79.6851	757.324	78.2499	757.324	78.0855	757.324	77.8072	757.324	76.095	757.324	76.4578	757.324	77.1143	757.324	75.6222	757.324	79.0952	757.324	76.7141	757.324	79.1347	757.324	77.9633	757.324	76.9489	757.324	77.838	757.324	74.484	757.324	75.9991
785.156	87.8666	785.156	87.6769	785.156	87.7274	785.156	87.1575	785.156	87.3166	785.156	86.3938	785.156	86.6987	785.156	85.5067	785.156	85.8992	785.156	84.5013	785.156	84.8829	785.156	83.1841	785.156	83.5781	785.156	81.2968	785.156	81.9395	785.156	78.8051	785.156	80.0673	785.156	76.5429	785.156	78.4998	785.156	76.1585	785.156	77.9704	785.156	76.9192	785.156	77.7656	785.156	77.1144	785.156	76.5319	785.156	76.3654	785.156	75.0548	785.156	75.5549	785.156	76.5022	785.156	76.2307	785.156	78.4237	785.156	77.6849	785.156	78.9288	785.156	78.5138	785.156	78.6779	785.156	78.6135
811.523	87.6526	811.523	87.4398	811.523	87.3996	811.523	86.7869	811.523	86.7463	811.523	85.8338	811.523	85.8156	811.523	84.7864	811.523	84.7305	811.523	83.7246	811.523	83.5454	811.523	82.4778	811.523	82.2393	811.523	80.8176	811.523	80.7733	811.523	78.813	811.523	79.1579	811.523	77.203	811.523	77.5903	811.523	76.862	811.523	76.5021	811.523	77.2035	811.523	75.8839	811.523	77.1743	811.523	75.2179	811.523	76.528	811.523	74.867	811.523	75.9604	811.523	75.3447	811.523	76.4202	811.523	75.5508	811.523	77.2996	811.523	74.9868	811.523	77.4424	811.523	75.1005	811.523	76.4729
840.82	88.0872	840.82	88.0957	840.82	87.6012	840.82	87.5841	840.82	86.7306	840.82	86.5718	840.82	85.6109	840.82	85.1564	840.82	84.3798	840.82	83.4967	840.82	83.1119	840.82	81.726	840.82	81.8185	840.82	79.9098	840.82	80.5129	840.82	78.2248	840.82	79.1873	840.82	77.1264	840.82	77.6823	840.82	76.8514	840.82	75.6483	840.82	76.883	840.82	73.1417	840.82	76.5586	840.82	72.766	840.82	75.7608	840.82	74.8884	840.82	75.4185	840.82	75.9762	840.82	76.5625	840.82	75.497	840.82	78.1096	840.82	75.1384	840.82	78.8219	840.82	76.6525	840.82	78.3041
870.117	87.9796	870.117	87.9607	870.117	87.4935	870.117	87.3929	870.117	86.5954	870.117	86.2976	870.117	85.3993	870.117	84.7596	870.117	84.0004	870.117	82.877	870.117	82.459	870.117	80.6921	870.117	80.8335	870.117	78.3069	870.117	79.2391	870.117	76.387	870.117	77.9324	870.117	76.069	870.117	77.3047	870.117	76.957	870.117	77.1389	870.117	77.7336	870.117	76.1103	870.117	77.765	870.117	72.3979	870.117	77.029	870.117	66.146	870.117	76.2745	870.117	71.6418	870.117	76.6576	870.117	74.3017	870.117	77.6329	870.117	74.2296	870.117	77.8537	870.117	74.7979	870.117	76.7419
900.879	88.2462	900.879	88.4062	900.879	87.5376	900.879	87.9224	900.879	86.4173	900.879	86.7895	900.879	85.0313	900.879	85.1572	900.879	83.4984	900.879	83.3097	900.879	81.8763	900.879	81.3829	900.879	80.1845	900.879	79.1133	900.879	78.4336	900.879	76.1159	900.879	76.4838	900.879	72.8208	900.879	73.9884	900.879	72.3728	900.879	71.8263	900.879	74.5832	900.879	72.6623	900.879	76.1522	900.879	73.5336	900.879	76.6361	900.879	72.0459	900.879	76.7537	900.879	70.3689	900.879	77.3809	900.879	72.1322	900.879	78.237	900.879	73.7521	900.879	78.3738	900.879	75.3728	900.879	77.3065
933.105	88.2402	933.105	88.3791	933.105	87.5162	933.105	87.9037	933.105	86.2413	933.105	86.7904	933.105	84.4854	933.105	85.0663	933.105	82.3764	933.105	82.8805	933.105	80.0934	933.105	80.5132	933.105	77.8906	933.105	78.2046	933.105	76.1305	933.105	76.0119	933.105	74.96	933.105	74.0943	933.105	73.9373	933.105	73.2109	933.105	72.5988	933.105	73.8607	933.105	71.1108	933.105	74.9634	933.105	69.0967	933.105	75.6442	933.105	65.1124	933.105	76.0771	933.105	66.542	933.105	76.7722	933.105	70.8302	933.105	77.5654	933.105	72.8657	933.105	77.734	933.105	74.7954	933.105	76.7658
965.332	88.3219	965.332	88.587	965.332	87.3867	965.332	88.1616	965.332	85.8407	965.332	87.0635	965.332	83.7876	965.332	85.3826	965.332	81.3256	965.332	83.3193	965.332	78.4876	965.332	81.12	965.332	75.4352	965.332	78.8933	965.332	72.9446	965.332	76.5918	965.332	71.65	965.332	74.3687	965.332	70.3332	965.332	73.1109	965.332	68.0152	965.332	73.4837	965.332	67.7142	965.332	74.4315	965.332	69.218	965.332	75.2759	965.332	68.129	965.332	76.353	965.332	65.6923	965.332	77.6974	965.332	67.6714	965.332	78.6187	965.332	70.311	965.332	78.4518	965.332	73.659	965.332	76.7964
1,000.49	88.3847	1,000.49	88.6105	1,000.49	87.3858	1,000.49	88.0921	1,000.49	85.619	1,000.49	86.8874	1,000.49	83.1213	1,000.49	85.0817	1,000.49	79.9233	1,000.49	82.7963	1,000.49	76.0077	1,000.49	80.2119	1,000.49	71.6742	1,000.49	77.6009	1,000.49	69.0083	1,000.49	75.3456	1,000.49	69.5492	1,000.49	73.8848	1,000.49	70.7638	1,000.49	73.401	1,000.49	70.882	1,000.49	73.4357	1,000.49	68.8794	1,000.49	73.4724	1,000.49	62.8936	1,000.49	73.8975	1,000.49	52.9399	1,000.49	75.3588	1,000.49	64.2288	1,000.49	77.1234	1,000.49	66.9898	1,000.49	78.1741	1,000.49	69.0282	1,000.49	78.0385	1,000.49	73.1365	1,000.49	76.4318
1,035.64	88.2828	1,035.64	88.7852	1,035.64	86.854	1,035.64	88.3814	1,035.64	84.5176	1,035.64	87.1541	1,035.64	81.2793	1,035.64	85.2764	1,035.64	76.9656	1,035.64	82.9905	1,035.64	71.0353	1,035.64	80.4757	1,035.64	66.0571	1,035.64	77.7865	1,035.64	68.9266	1,035.64	75.2601	1,035.64	71.1506	1,035.64	74.2681	1,035.64	71.8778	1,035.64	75.2347	1,035.64	71.5528	1,035.64	76.0975	1,035.64	70.1882	1,035.64	75.621	1,035.64	67.8439	1,035.64	74.1535	1,035.64	64.1481	1,035.64	74.5225	1,035.64	59.3967	1,035.64	76.9994	1,035.64	55.3635	1,035.64	78.6489	1,035.64	60.4885	1,035.64	78.5949	1,035.64	71.4196	1,035.64	76.4697
1,072.27	87.9482	1,072.27	88.7773	1,072.27	86.1469	1,072.27	88.611	1,072.27	83.497	1,072.27	87.4942	1,072.27	80.1437	1,072.27	85.5596	1,072.27	75.7457	1,072.27	83.0986	1,072.27	68.4439	1,072.27	80.5794	1,072.27	62.3873	1,072.27	78.4114	1,072.27	70.2652	1,072.27	76.6166	1,072.27	72.8513	1,072.27	75.0672	1,072.27	72.4157	1,072.27	74.109	1,072.27	71.0427	1,072.27	73.8689	1,072.27	73.1186	1,072.27	73.2037	1,072.27	73.9943	1,072.27	71.5881	1,072.27	69.6413	1,072.27	72.064	1,072.27	55.3211	1,072.27	75.1703	1,072.27	65.913	1,072.27	77.2601	1,072.27	57.0283	1,072.27	77.5201	1,072.27	68.8316	1,072.27	75.4352
1,108.89	87.2904	1,108.89	88.3553	1,108.89	85.1948	1,108.89	88.3918	1,108.89	82.1247	1,108.89	87.4613	1,108.89	78.049	1,108.89	85.7326	1,108.89	72.1981	1,108.89	83.5492	1,108.89	60.0255	1,108.89	81.3104	1,108.89	64.663	1,108.89	79.0856	1,108.89	71.4152	1,108.89	76.4072	1,108.89	74.2014	1,108.89	72.668	1,108.89	74.3221	1,108.89	70.7947	1,108.89	71.737	1,108.89	73.6352	1,108.89	72.0714	1,108.89	75.0391	1,108.89	74.7021	1,108.89	73.9123	1,108.89	72.4741	1,108.89	71.6605	1,108.89	56.0937	1,108.89	73.4079	1,108.89	66.551	1,108.89	76.2202	1,108.89	64.6422	1,108.89	76.7856	1,108.89	64.5725	1,108.89	74.1765
1,148.44	86.6398	1,148.44	87.6684	1,148.44	84.7005	1,148.44	87.7317	1,148.44	81.7833	1,148.44	86.7863	1,148.44	77.4208	1,148.44	84.9007	1,148.44	69.9462	1,148.44	82.4544	1,148.44	62.1273	1,148.44	80.3171	1,148.44	69.7166	1,148.44	79.0595	1,148.44	72.6727	1,148.44	77.9352	1,148.44	74.1944	1,148.44	75.8717	1,148.44	74.2828	1,148.44	72.9853	1,148.44	71.7096	1,148.44	72.7216	1,148.44	71.0736	1,148.44	74.0738	1,148.44	75.3782	1,148.44	73.5327	1,148.44	75.5898	1,148.44	71.4708	1,148.44	70.3453	1,148.44	72.3485	1,148.44	64.8293	1,148.44	74.9708	1,148.44	65.5992	1,148.44	75.3632	1,148.44	61.8239	1,148.44	72.1053
1,189.45	86.0051	1,189.45	87.3278	1,189.45	83.6613	1,189.45	87.6523	1,189.45	80.1158	1,189.45	86.9096	1,189.45	75.0944	1,189.45	85.0544	1,189.45	70.3841	1,189.45	82.2771	1,189.45	71.6745	1,189.45	79.4957	1,189.45	73.9143	1,189.45	78.2357	1,189.45	75.6127	1,189.45	77.931	1,189.45	76.8617	1,189.45	76.7793	1,189.45	76.8937	1,189.45	74.6318	1,189.45	74.6883	1,189.45	74.5212	1,189.45	70.1517	1,189.45	76.0757	1,189.45	73.1526	1,189.45	76.1222	1,189.45	76.1441	1,189.45	74.6323	1,189.45	74.3866	1,189.45	74.0637	1,189.45	65.2903	1,189.45	75.3334	1,189.45	56.4966	1,189.45	74.9545	1,189.45	56.2546	1,189.45	70.3343
1,230.47	86.1995	1,230.47	87.4407	1,230.47	83.5561	1,230.47	87.6452	1,230.47	79.0987	1,230.47	87.0861	1,230.47	72.0549	1,230.47	85.8011	1,230.47	70.7733	1,230.47	83.6785	1,230.47	75.0262	1,230.47	80.6696	1,230.47	76.5946	1,230.47	77.3849	1,230.47	77.3691	1,230.47	75.8632	1,230.47	78.057	1,230.47	76.0592	1,230.47	77.7483	1,230.47	76.1801	1,230.47	75.7112	1,230.47	76.1147	1,230.47	73.1633	1,230.47	75.7495	1,230.47	73.9638	1,230.47	74.2459	1,230.47	75.6194	1,230.47	72.0131	1,230.47	74.0232	1,230.47	73.3688	1,230.47	65.2337	1,230.47	75.8577	1,230.47	64.7808	1,230.47	75.3462	1,230.47	62.6357	1,230.47	69.6237
1,274.41	86.3885	1,274.41	87.6365	1,274.41	83.7489	1,274.41	87.791	1,274.41	79.2306	1,274.41	87.0826	1,274.41	71.3012	1,274.41	85.5991	1,274.41	71.3246	1,274.41	83.2992	1,274.41	76.8329	1,274.41	80.2851	1,274.41	78.4728	1,274.41	77.2683	1,274.41	78.4883	1,274.41	74.9686	1,274.41	78.6083	1,274.41	72.1374	1,274.41	78.7978	1,274.41	68.0633	1,274.41	77.7392	1,274.41	72.4327	1,274.41	75.3014	1,274.41	76.18	1,274.41	73.0541	1,274.41	76.5295	1,274.41	71.7777	1,274.41	74.2434	1,274.41	70.6632	1,274.41	72.8079	1,274.41	64.0393	1,274.41	75.7104	1,274.41	59.2052	1,274.41	76.266	1,274.41	64.0112	1,274.41	72.1921
1,319.82	86.3643	1,319.82	87.8135	1,319.82	83.3669	1,319.82	87.8738	1,319.82	78.312	1,319.82	86.825	1,319.82	72.0282	1,319.82	84.9777	1,319.82	76.1474	1,319.82	82.4399	1,319.82	78.7708	1,319.82	79.1306	1,319.82	79.011	1,319.82	75.557	1,319.82	78.8871	1,319.82	74.4839	1,319.82	79.2118	1,319.82	75.2937	1,319.82	78.3654	1,319.82	73.8968	1,319.82	76.4321	1,319.82	69.6333	1,319.82	76.0782	1,319.82	72.7644	1,319.82	74.6813	1,319.82	75.8647	1,319.82	75.1521	1,319.82	75.3566	1,319.82	76.4084	1,319.82	72.6481	1,319.82	71.7574	1,319.82	74.5261	1,319.82	51.9924	1,319.82	75.4195	1,319.82	60.789	1,319.82	71.284
1,366.7	85.6845	1,366.7	87.3277	1,366.7	82.7983	1,366.7	87.7626	1,366.7	77.6605	1,366.7	86.9002	1,366.7	71.2448	1,366.7	84.8633	1,366.7	77.4507	1,366.7	82.0081	1,366.7	80.8887	1,366.7	78.5574	1,366.7	81.4212	1,366.7	73.5504	1,366.7	80.4514	1,366.7	63.1753	1,366.7	80.498	1,366.7	68.8908	1,366.7	80.4901	1,366.7	72.4584	1,366.7	77.1899	1,366.7	71.0878	1,366.7	71.3893	1,366.7	70.4319	1,366.7	75.7468	1,366.7	74.433	1,366.7	75.9843	1,366.7	75.8815	1,366.7	74.6168	1,366.7	74.3905	1,366.7	71.1723	1,366.7	74.0788	1,366.7	62.7706	1,366.7	74.6496	1,366.7	60.9534	1,366.7	71.1256
1,413.57	85.4836	1,413.57	87.3014	1,413.57	81.5861	1,413.57	87.5811	1,413.57	75.402	1,413.57	86.7703	1,413.57	72.1027	1,413.57	84.7851	1,413.57	79.0532	1,413.57	81.5266	1,413.57	82.6052	1,413.57	77.8379	1,413.57	83.4068	1,413.57	75.3971	1,413.57	82.2378	1,413.57	73.8179	1,413.57	80.8663	1,413.57	70.472	1,413.57	81.1265	1,413.57	65.9689	1,413.57	79.9911	1,413.57	69.8334	1,413.57	75.2318	1,413.57	72.458	1,413.57	70.2705	1,413.57	73.8815	1,413.57	72.305	1,413.57	73.8299	1,413.57	77.4137	1,413.57	71.9266	1,413.57	74.8145	1,413.57	73.5166	1,413.57	58.7897	1,413.57	75.9923	1,413.57	62.0024	1,413.57	71.9945
1,463.38	86.6439	1,463.38	88.3272	1,463.38	83.0824	1,463.38	88.0702	1,463.38	76.9785	1,463.38	86.4692	1,463.38	74.906	1,463.38	84.1683	1,463.38	81.112	1,463.38	81.3193	1,463.38	83.3305	1,463.38	78.4866	1,463.38	83.8023	1,463.38	76.8758	1,463.38	82.9338	1,463.38	75.9633	1,463.38	80.5037	1,463.38	73.5121	1,463.38	79.9408	1,463.38	70.4495	1,463.38	81.0373	1,463.38	67.0809	1,463.38	78.8689	1,463.38	63.2168	1,463.38	72.8314	1,463.38	71.3449	1,463.38	70.424	1,463.38	74.8213	1,463.38	74.2482	1,463.38	73.8322	1,463.38	73.5865	1,463.38	69.0038	1,463.38	67.7053	1,463.38	74.0556	1,463.38	58.5658	1,463.38	72.092
1,516.11	87.2848	1,516.11	88.4265	1,516.11	84.2985	1,516.11	87.7288	1,516.11	77.3847	1,516.11	85.2981	1,516.11	77.0913	1,516.11	82.3469	1,516.11	82.2492	1,516.11	80.3815	1,516.11	82.9325	1,516.11	78.9517	1,516.11	82.4974	1,516.11	77.6982	1,516.11	82.7263	1,516.11	76.5143	1,516.11	81.6956	1,516.11	73.1485	1,516.11	77.6565	1,516.11	69.3347	1,516.11	78.3403	1,516.11	72.0211	1,516.11	80.2363	1,516.11	69.7543	1,516.11	77.4416	1,516.11	61.4976	1,516.11	70.9974	1,516.11	71.6856	1,516.11	69.7389	1,516.11	76.4607	1,516.11	68.8311	1,516.11	76.1517	1,516.11	61.4013	1,516.11	75.4745	1,516.11	62.593	1,516.11	72.19
1,568.85	86.9347	1,568.85	88.0666	1,568.85	83.8288	1,568.85	87.511	1,568.85	77.4763	1,568.85	85.4038	1,568.85	75.9852	1,568.85	82.0143	1,568.85	82.693	1,568.85	78.4603	1,568.85	84.2809	1,568.85	75.8857	1,568.85	83.9097	1,568.85	75.305	1,568.85	83.2135	1,568.85	75.7785	1,568.85	82.2734	1,568.85	72.5553	1,568.85	79.6317	1,568.85	56.9103	1,568.85	77.7999	1,568.85	73.0066	1,568.85	78.4683	1,568.85	73.4149	1,568.85	76.8478	1,568.85	69.0545	1,568.85	72.6244	1,568.85	68.5862	1,568.85	71.3557	1,568.85	75.3577	1,568.85	71.9435	1,568.85	77.4205	1,568.85	36.2504	1,568.85	77.5555	1,568.85	56.1312	1,568.85	72.6627
1,624.51	86.1448	1,624.51	88.122	1,624.51	83.3362	1,624.51	88.1145	1,624.51	79.228	1,624.51	85.8418	1,624.51	78.5538	1,624.51	81.255	1,624.51	82.6939	1,624.51	76.1722	1,624.51	84.0076	1,624.51	75.342	1,624.51	85.0394	1,624.51	77.0329	1,624.51	85.2573	1,624.51	78.3977	1,624.51	83.758	1,624.51	78.251	1,624.51	79.9323	1,624.51	73.1431	1,624.51	78.157	1,624.51	59.4644	1,624.51	79.6072	1,624.51	72.104	1,624.51	75.4409	1,624.51	74.5173	1,624.51	73.2531	1,624.51	74.1834	1,624.51	75.8355	1,624.51	73.5783	1,624.51	73.17	1,624.51	76.543	1,624.51	51.758	1,624.51	77.1651	1,624.51	62.7663	1,624.51	70.9026
1,681.64	86.2036	1,681.64	87.8931	1,681.64	83.5236	1,681.64	87.9747	1,681.64	77.4028	1,681.64	85.7285	1,681.64	79.4077	1,681.64	82.0825	1,681.64	82.9461	1,681.64	79.7013	1,681.64	84.5508	1,681.64	78.42	1,681.64	84.5228	1,681.64	75.5503	1,681.64	83.9925	1,681.64	71.1704	1,681.64	82.527	1,681.64	65.8861	1,681.64	78.4701	1,681.64	60.7085	1,681.64	77.4718	1,681.64	50.6908	1,681.64	80.6679	1,681.64	63.3816	1,681.64	78.9483	1,681.64	72.8913	1,681.64	74.4438	1,681.64	76.4557	1,681.64	75.2088	1,681.64	73.5585	1,681.64	72.7336	1,681.64	74.1049	1,681.64	55.8099	1,681.64	76.4599	1,681.64	61.8042	1,681.64	71.6374
1,741.7	87.0938	1,741.7	87.3263	1,741.7	83.8416	1,741.7	86.4147	1,741.7	75.2945	1,741.7	84.1935	1,741.7	78.9771	1,741.7	81.1266	1,741.7	85.233	1,741.7	79.2652	1,741.7	86.8822	1,741.7	78.8145	1,741.7	85.3971	1,741.7	77.8697	1,741.7	82.7671	1,741.7	76.8616	1,741.7	81.7067	1,741.7	75.9933	1,741.7	80.4678	1,741.7	73.6522	1,741.7	76.3214	1,741.7	73.4638	1,741.7	76.6224	1,741.7	72.8743	1,741.7	80.0802	1,741.7	56.8547	1,741.7	78.2152	1,741.7	75.9235	1,741.7	74.0392	1,741.7	75.8669	1,741.7	74.3661	1,741.7	71.4724	1,741.7	60.2312	1,741.7	73.7591	1,741.7	58.9728	1,741.7	71.4806
1,803.22	86.8378	1,803.22	87.9803	1,803.22	84.3382	1,803.22	86.7148	1,803.22	78.0044	1,803.22	83.5727	1,803.22	79.6616	1,803.22	81.0565	1,803.22	84.4233	1,803.22	80.1276	1,803.22	86.4864	1,803.22	79.7969	1,803.22	86.2717	1,803.22	80.0247	1,803.22	84.3369	1,803.22	80.9334	1,803.22	82.3837	1,803.22	81.4375	1,803.22	80.8808	1,803.22	79.1641	1,803.22	80.049	1,803.22	76.1621	1,803.22	77.995	1,803.22	77.9914	1,803.22	78.7884	1,803.22	74.5045	1,803.22	79.8425	1,803.22	60.7052	1,803.22	75.3263	1,803.22	74.5323	1,803.22	75.663	1,803.22	75.0876	1,803.22	68.6622	1,803.22	74.4976	1,803.22	65.5786	1,803.22	71.5799
1,866.21	86.5805	1,866.21	86.6533	1,866.21	84.0113	1,866.21	85.9809	1,866.21	76.8922	1,866.21	84.3276	1,866.21	78.8308	1,866.21	81.7953	1,866.21	85.8309	1,866.21	77.4828	1,866.21	87.9145	1,866.21	74.5103	1,866.21	85.7529	1,866.21	79.7919	1,866.21	81.265	1,866.21	82.2956	1,866.21	78.6665	1,866.21	81.9506	1,866.21	78.0193	1,866.21	79.9099	1,866.21	77.5981	1,866.21	79.3837	1,866.21	77.3351	1,866.21	80.6394	1,866.21	79.1832	1,866.21	78.1256	1,866.21	77.5424	1,866.21	70.3779	1,866.21	76.1918	1,866.21	63.3849	1,866.21	77.3267	1,866.21	71.6808	1,866.21	66.3585	1,866.21	76.3944	1,866.21	60.1115	1,866.21	74.2119
1,932.13	86.2469	1,932.13	86.576	1,932.13	84.9992	1,932.13	85.43	1,932.13	80.8044	1,932.13	84.0364	1,932.13	81.5741	1,932.13	83.1945	1,932.13	87.2036	1,932.13	82.3835	1,932.13	88.454	1,932.13	81.2454	1,932.13	86.1259	1,932.13	79.0041	1,932.13	81.0343	1,932.13	78.9676	1,932.13	76.5301	1,932.13	79.5543	1,932.13	76.1579	1,932.13	76.8203	1,932.13	77.4441	1,932.13	69.6304	1,932.13	76.8111	1,932.13	76.3593	1,932.13	77.3484	1,932.13	77.0457	1,932.13	78.904	1,932.13	74.4929	1,932.13	72.3904	1,932.13	73.3936	1,932.13	76.8805	1,932.13	74.0008	1,932.13	69.6724	1,932.13	76.3977	1,932.13	56.6187	1,932.13	73.1837
1,999.51	86.0137	1,999.51	85.7606	1,999.51	85.0689	1,999.51	85.1216	1,999.51	81.0084	1,999.51	84.5262	1,999.51	79.4933	1,999.51	83.5244	1,999.51	85.0145	1,999.51	82.4293	1,999.51	86.6828	1,999.51	81.5838	1,999.51	84.9892	1,999.51	79.8788	1,999.51	82.5442	1,999.51	76.9355	1,999.51	81.4178	1,999.51	75.4782	1,999.51	79.9764	1,999.51	74.2879	1,999.51	77.5308	1,999.51	68.4365	1,999.51	76.8139	1,999.51	60.4931	1,999.51	73.997	1,999.51	67.7211	1,999.51	80.0268	1,999.51	73.0503	1,999.51	76.5967	1,999.51	74.6806	1,999.51	75.3589	1,999.51	74.7669	1,999.51	72.6801	1,999.51	76.0633	1,999.51	65.0306	1,999.51	71.1691
2,069.82	85.4926	2,069.82	86.2351	2,069.82	85.5951	2,069.82	85.8503	2,069.82	82.6405	2,069.82	84.3869	2,069.82	80.7091	2,069.82	83.5541	2,069.82	85.6707	2,069.82	82.7918	2,069.82	87.7316	2,069.82	81.1577	2,069.82	86.5356	2,069.82	79.3838	2,069.82	83.0039	2,069.82	77.3678	2,069.82	80.0206	2,069.82	74.4194	2,069.82	77.5641	2,069.82	75.7109	2,069.82	77.7747	2,069.82	76.9214	2,069.82	79.8787	2,069.82	75.4726	2,069.82	77.0448	2,069.82	72.2063	2,069.82	78.345	2,069.82	73.6871	2,069.82	76.832	2,069.82	71.438	2,069.82	77.9212	2,069.82	70.713	2,069.82	70.4947	2,069.82	76.2176	2,069.82	65.9901	2,069.82	75.3816
2,143.07	84.9473	2,143.07	83.5707	2,143.07	85.5126	2,143.07	83.9392	2,143.07	82.5056	2,143.07	83.482	2,143.07	80.4167	2,143.07	82.8185	2,143.07	85.0767	2,143.07	83.8582	2,143.07	86.6063	2,143.07	83.6306	2,143.07	84.1798	2,143.07	81.7229	2,143.07	82.7169	2,143.07	82.1328	2,143.07	81.7751	2,143.07	82.9326	2,143.07	81.9946	2,143.07	81.1696	2,143.07	79.8309	2,143.07	80.1167	2,143.07	72.4796	2,143.07	78.8804	2,143.07	76.5369	2,143.07	75.6908	2,143.07	78.7551	2,143.07	75.3984	2,143.07	75.5976	2,143.07	75.8034	2,143.07	74.7062	2,143.07	72.7165	2,143.07	63.4992	2,143.07	77.736	2,143.07	58.1479	2,143.07	75.9659
2,219.24	85.8798	2,219.24	83.9016	2,219.24	86.3246	2,219.24	84.0237	2,219.24	83.9683	2,219.24	85.2015	2,219.24	82.699	2,219.24	84.0087	2,219.24	85.3096	2,219.24	81.4158	2,219.24	86.4892	2,219.24	82.4664	2,219.24	86.3364	2,219.24	84.0595	2,219.24	84.0762	2,219.24	82.3859	2,219.24	80.9887	2,219.24	79.8494	2,219.24	80.7746	2,219.24	77.5741	2,219.24	80.072	2,219.24	75.0151	2,219.24	80.236	2,219.24	73.8075	2,219.24	74.1354	2,219.24	72.8113	2,219.24	76.1247	2,219.24	76.0741	2,219.24	73.5029	2,219.24	78.3947	2,219.24	72.8253	2,219.24	76.7738	2,219.24	70.0361	2,219.24	75.3853	2,219.24	65.3892	2,219.24	72.7376
2,296.88	84.8518	2,296.88	84.1114	2,296.88	84.983	2,296.88	85.7593	2,296.88	82.7668	2,296.88	85.7221	2,296.88	82.5622	2,296.88	83.4765	2,296.88	85.9462	2,296.88	83.7973	2,296.88	87.9499	2,296.88	84.3389	2,296.88	87.7189	2,296.88	82.3228	2,296.88	84.3077	2,296.88	78.6418	2,296.88	79.3076	2,296.88	71.3561	2,296.88	80.033	2,296.88	63.5835	2,296.88	73.2663	2,296.88	63.975	2,296.88	79.4129	2,296.88	68.5713	2,296.88	79.245	2,296.88	61.1984	2,296.88	71.2926	2,296.88	68.1066	2,296.88	75.4407	2,296.88	76.7925	2,296.88	74.5285	2,296.88	77.4483	2,296.88	67.3455	2,296.88	76.9589	2,296.88	70.1496	2,296.88	75.6042
2,378.91	84.7169	2,378.91	84.9965	2,378.91	85.1406	2,378.91	84.2246	2,378.91	83.7598	2,378.91	83.7541	2,378.91	82.662	2,378.91	84.6251	2,378.91	85.901	2,378.91	85.597	2,378.91	87.5171	2,378.91	84.0836	2,378.91	87.2746	2,378.91	80.986	2,378.91	85.7549	2,378.91	79.6985	2,378.91	81.8586	2,378.91	79.5778	2,378.91	82.0565	2,378.91	79.0249	2,378.91	82.5454	2,378.91	78.8626	2,378.91	76.4151	2,378.91	79.0256	2,378.91	79.2128	2,378.91	72.5863	2,378.91	75.5996	2,378.91	74.5239	2,378.91	77.3123	2,378.91	77.6219	2,378.91	73.6331	2,378.91	76.8391	2,378.91	75.1156	2,378.91	78.333	2,378.91	61.9948	2,378.91	75.2844
2,462.4	85.5295	2,462.4	85.0487	2,462.4	84.9614	2,462.4	84.2452	2,462.4	83.2507	2,462.4	84.1436	2,462.4	81.8171	2,462.4	85.03	2,462.4	84.1465	2,462.4	84.9743	2,462.4	87.0509	2,462.4	83.1901	2,462.4	87.9947	2,462.4	82.5493	2,462.4	86.0607	2,462.4	81.8399	2,462.4	81.464	2,462.4	78.3926	2,462.4	80.7103	2,462.4	74.8094	2,462.4	81.6545	2,462.4	74.9589	2,462.4	74.1296	2,462.4	73.6306	2,462.4	78.525	2,462.4	72.0327	2,462.4	76.8262	2,462.4	74.7254	2,462.4	76.9292	2,462.4	76.809	2,462.4	72.4196	2,462.4	77.3978	2,462.4	71.7439	2,462.4	77.0921	2,462.4	64.0628	2,462.4	71.7246
2,548.83	85.2276	2,548.83	84.5912	2,548.83	84.7988	2,548.83	84.1213	2,548.83	83.7885	2,548.83	83.9571	2,548.83	83.6058	2,548.83	84.0298	2,548.83	84.7529	2,548.83	84.8625	2,548.83	86.9056	2,548.83	85.2043	2,548.83	88.0473	2,548.83	83.629	2,548.83	85.9134	2,548.83	80.9491	2,548.83	80.2234	2,548.83	79.0822	2,548.83	75.0155	2,548.83	77.162	2,548.83	78.754	2,548.83	75.5223	2,548.83	78.3766	2,548.83	74.4955	2,548.83	77.4042	2,548.83	72.4928	2,548.83	77.2056	2,548.83	74.6406	2,548.83	77.3837	2,548.83	76.2705	2,548.83	73.8259	2,548.83	76.0855	2,548.83	73.1276	2,548.83	76.1217	2,548.83	62.5997	2,548.83	69.5835
2,639.65	86.1057	2,639.65	85.5404	2,639.65	84.4496	2,639.65	83.6312	2,639.65	83.0364	2,639.65	82.7545	2,639.65	83.338	2,639.65	84.2222	2,639.65	84.9805	2,639.65	86.1217	2,639.65	87.3248	2,639.65	85.5742	2,639.65	88.2601	2,639.65	83.4688	2,639.65	86.4445	2,639.65	81.6014	2,639.65	81.9686	2,639.65	79.1997	2,639.65	78.0792	2,639.65	75.6783	2,639.65	79.6639	2,639.65	72.7492	2,639.65	80.4183	2,639.65	73.0884	2,639.65	78.1281	2,639.65	73.0364	2,639.65	78.4359	2,639.65	74.728	2,639.65	77.7583	2,639.65	76.7777	2,639.65	71.3889	2,639.65	75.8633	2,639.65	70.1783	2,639.65	75.4072	2,639.65	67.7715	2,639.65	67.6288
2,731.93	86.9217	2,731.93	86.0228	2,731.93	84.6627	2,731.93	82.3501	2,731.93	82.702	2,731.93	81.752	2,731.93	83.2737	2,731.93	84.8762	2,731.93	83.9992	2,731.93	85.4575	2,731.93	86.281	2,731.93	84.2084	2,731.93	88.4184	2,731.93	82.966	2,731.93	87.5376	2,731.93	80.8918	2,731.93	83.2373	2,731.93	78.7012	2,731.93	79.4337	2,731.93	76.3481	2,731.93	80.0982	2,731.93	74.1969	2,731.93	81.75	2,731.93	73.2423	2,731.93	78.4362	2,731.93	72.6186	2,731.93	77.4962	2,731.93	74.6131	2,731.93	77.0263	2,731.93	76.6967	2,731.93	70.0839	2,731.93	75.7942	2,731.93	68.1848	2,731.93	75.3752	2,731.93	68.9814	2,731.93	69.3774
2,828.61	86.5897	2,828.61	85.6134	2,828.61	84.5024	2,828.61	82.3054	2,828.61	82.735	2,828.61	81.8271	2,828.61	83.9888	2,828.61	84.8922	2,828.61	84.3235	2,828.61	86.1303	2,828.61	84.813	2,828.61	85.5686	2,828.61	86.6515	2,828.61	83.9218	2,828.61	86.0002	2,828.61	81.6707	2,828.61	82.886	2,828.61	79.8772	2,828.61	78.7728	2,828.61	77.7138	2,828.61	76.4069	2,828.61	75.4545	2,828.61	80.4864	2,828.61	73.8145	2,828.61	77.4916	2,828.61	74.2641	2,828.61	75.6151	2,828.61	76.0308	2,828.61	76.1992	2,828.61	77.2021	2,828.61	68.448	2,828.61	75.6997	2,828.61	68.3136	2,828.61	74.963	2,828.61	69.8988	2,828.61	68.7098
2,928.22	87.0987	2,928.22	86.4772	2,928.22	84.5568	2,928.22	83.0911	2,928.22	83.2178	2,928.22	81.9588	2,928.22	84.8326	2,928.22	84.4821	2,928.22	84.659	2,928.22	85.5004	2,928.22	84.1056	2,928.22	85.1602	2,928.22	85.4814	2,928.22	84.4568	2,928.22	84.8893	2,928.22	81.7577	2,928.22	82.5092	2,928.22	78.1658	2,928.22	80.576	2,928.22	74.7218	2,928.22	73.8996	2,928.22	72.3688	2,928.22	78.2572	2,928.22	71.4047	2,928.22	78.032	2,928.22	72.4693	2,928.22	75.0644	2,928.22	74.0787	2,928.22	76.5129	2,928.22	76.5819	2,928.22	68.2398	2,928.22	75.3757	2,928.22	67.8453	2,928.22	72.4713	2,928.22	69.7286	2,928.22	64.5009
3,030.76	87.0845	3,030.76	86.6721	3,030.76	84.6847	3,030.76	83.6456	3,030.76	83.8428	3,030.76	82.5182	3,030.76	85.6066	3,030.76	84.1606	3,030.76	85.053	3,030.76	85.2492	3,030.76	83.3835	3,030.76	85.2326	3,030.76	84.1254	3,030.76	83.6446	3,030.76	83.6414	3,030.76	79.7318	3,030.76	80.5491	3,030.76	76.5023	3,030.76	78.6452	3,030.76	74.4117	3,030.76	77.1802	3,030.76	74.2916	3,030.76	73.5393	3,030.76	72.1751	3,030.76	75.8281	3,030.76	72.9161	3,030.76	70.5995	3,030.76	74.4556	3,030.76	75.5822	3,030.76	75.3815	3,030.76	67.3351	3,030.76	75.3943	3,030.76	66.8317	3,030.76	72.1511	3,030.76	70.3848	3,030.76	63.8168
3,137.7	86.9947	3,137.7	87.3325	3,137.7	84.7018	3,137.7	84.5678	3,137.7	84.3526	3,137.7	82.5895	3,137.7	85.7622	3,137.7	83.8359	3,137.7	84.6324	3,137.7	85.169	3,137.7	82.5287	3,137.7	84.4579	3,137.7	83.1388	3,137.7	81.9411	3,137.7	83.4633	3,137.7	80.5842	3,137.7	79.8974	3,137.7	79.0261	3,137.7	72.3872	3,137.7	75.0585	3,137.7	71.2937	3,137.7	72.1467	3,137.7	78.3912	3,137.7	68.1014	3,137.7	76.2663	3,137.7	71.7004	3,137.7	74.7512	3,137.7	74.5148	3,137.7	73.5932	3,137.7	74.9736	3,137.7	67.1177	3,137.7	74.7204	3,137.7	66.5332	3,137.7	70.7428	3,137.7	70.3885	3,137.7	63.4475
3,249.02	87.5039	3,249.02	87.8091	3,249.02	84.984	3,249.02	84.8677	3,249.02	84.5292	3,249.02	82.2162	3,249.02	85.7387	3,249.02	83.5336	3,249.02	84.8621	3,249.02	84.1371	3,249.02	81.9049	3,249.02	83.0841	3,249.02	81.7406	3,249.02	81.9057	3,249.02	82.5062	3,249.02	78.4314	3,249.02	79.316	3,249.02	73.242	3,249.02	69.3909	3,249.02	70.3886	3,249.02	63.5162	3,249.02	71.3388	3,249.02	75.6712	3,249.02	67.1701	3,249.02	76.5812	3,249.02	68.1655	3,249.02	74.611	3,249.02	72.757	3,249.02	73.8315	3,249.02	74.6765	3,249.02	68.1457	3,249.02	74.4058	3,249.02	63.7762	3,249.02	71.7461	3,249.02	67.2361	3,249.02	64.5667
3,363.28	87.7104	3,363.28	87.8526	3,363.28	85.7328	3,363.28	84.9505	3,363.28	84.4966	3,363.28	82.3971	3,363.28	85.2687	3,363.28	83.186	3,363.28	84.9331	3,363.28	83.4154	3,363.28	82.1127	3,363.28	82.1843	3,363.28	80.8092	3,363.28	80.1513	3,363.28	82.6994	3,363.28	77.4199	3,363.28	81.4068	3,363.28	77.1981	3,363.28	72.3026	3,363.28	73.8416	3,363.28	66.3737	3,363.28	71.9746	3,363.28	73.2363	3,363.28	69.2146	3,363.28	74.3849	3,363.28	68.8195	3,363.28	75.2477	3,363.28	71.8191	3,363.28	71.6494	3,363.28	74.4696	3,363.28	65.9286	3,363.28	73.8664	3,363.28	58.1583	3,363.28	69.7391	3,363.28	67.8161	3,363.28	64.1712
3,481.93	87.9392	3,481.93	87.7141	3,481.93	86.7692	3,481.93	85.1696	3,481.93	85.6931	3,481.93	82.4851	3,481.93	85.3125	3,481.93	82.33	3,481.93	84.5628	3,481.93	82.6951	3,481.93	81.9829	3,481.93	81.8176	3,481.93	81.5795	3,481.93	81.2452	3,481.93	84.0896	3,481.93	80.7391	3,481.93	82.6885	3,481.93	78.4872	3,481.93	74.0025	3,481.93	73.1404	3,481.93	75.7969	3,481.93	72.2031	3,481.93	64.8756	3,481.93	68.0732	3,481.93	70.5692	3,481.93	66.6884	3,481.93	72.9484	3,481.93	70.3258	3,481.93	69.1145	3,481.93	73.9848	3,481.93	58.1055	3,481.93	74.2251	3,481.93	54.9215	3,481.93	67.4588	3,481.93	69.0469	3,481.93	61.3162
3,604.98	88.1869	3,604.98	88.1129	3,604.98	87.1245	3,604.98	85.6663	3,604.98	85.5192	3,604.98	82.201	3,604.98	84.3718	3,604.98	81.1756	3,604.98	83.3991	3,604.98	82.0793	3,604.98	81.9927	3,604.98	82.5145	3,604.98	81.8225	3,604.98	82.836	3,604.98	84.9423	3,604.98	79.0194	3,604.98	82.0826	3,604.98	74.5314	3,604.98	74.991	3,604.98	73.9994	3,604.98	77.453	3,604.98	72.2489	3,604.98	67.4407	3,604.98	69.525	3,604.98	67.8528	3,604.98	69.3659	3,604.98	70.9122	3,604.98	70.9641	3,604.98	66.4153	3,604.98	73.2713	3,604.98	56.3913	3,604.98	74.5805	3,604.98	55.4828	3,604.98	68.2531	3,604.98	67.5778	3,604.98	59.1603
3,732.42	88.0754	3,732.42	87.7213	3,732.42	87.55	3,732.42	85.6824	3,732.42	85.713	3,732.42	82.5539	3,732.42	84.2389	3,732.42	80.2096	3,732.42	83.9002	3,732.42	82.0248	3,732.42	82.0445	3,732.42	83.5793	3,732.42	81.9632	3,732.42	81.3531	3,732.42	85.3613	3,732.42	79.2681	3,732.42	82.381	3,732.42	77.1769	3,732.42	76.6221	3,732.42	72.538	3,732.42	77.7135	3,732.42	70.6462	3,732.42	70.1364	3,732.42	66.9564	3,732.42	66.1724	3,732.42	68.4296	3,732.42	69.7681	3,732.42	70.4333	3,732.42	68.6997	3,732.42	73.1824	3,732.42	52.8941	3,732.42	73.8907	3,732.42	56.4774	3,732.42	64.9127	3,732.42	65.2915	3,732.42	61.6062
3,864.26	88.4176	3,864.26	87.8553	3,864.26	87.9637	3,864.26	85.9828	3,864.26	86.0152	3,864.26	82.3387	3,864.26	84.6474	3,864.26	80.021	3,864.26	84.409	3,864.26	82.3715	3,864.26	82.4194	3,864.26	82.5025	3,864.26	80.985	3,864.26	81.8583	3,864.26	83.4882	3,864.26	80.0614	3,864.26	80.7654	3,864.26	74.3704	3,864.26	74.341	3,864.26	72.008	3,864.26	76.3242	3,864.26	71.2025	3,864.26	70.6365	3,864.26	65.0515	3,864.26	70.256	3,864.26	67.1468	3,864.26	66.1677	3,864.26	68.9882	3,864.26	69.7476	3,864.26	71.2419	3,864.26	42.82	3,864.26	73.8308	3,864.26	58.5169	3,864.26	68.7424	3,864.26	64.902	3,864.26	66.3909
4,000.49	88.2067	4,000.49	87.4608	4,000.49	87.5433	4,000.49	85.4079	4,000.49	85.4423	4,000.49	82.8327	4,000.49	84.8448	4,000.49	80.5182	4,000.49	84.9047	4,000.49	81.7099	4,000.49	81.6634	4,000.49	81.8	4,000.49	78.9213	4,000.49	79.5395	4,000.49	81.0454	4,000.49	74.5523	4,000.49	79.1433	4,000.49	72.0269	4,000.49	73.5035	4,000.49	69.3683	4,000.49	69.4683	4,000.49	65.9101	4,000.49	69.585	4,000.49	64.2608	4,000.49	71.4296	4,000.49	63.3447	4,000.49	64.2129	4,000.49	66.5192	4,000.49	67.2637	4,000.49	68.4356	4,000.49	53.9284	4,000.49	71.1991	4,000.49	55.223	4,000.49	68.567	4,000.49	67.1033	4,000.49	64.3786
4,141.11	88.584	4,141.11	87.3259	4,141.11	87.2666	4,141.11	84.869	4,141.11	84.6203	4,141.11	82.5181	4,141.11	84.6692	4,141.11	81.1272	4,141.11	84.8493	4,141.11	81.5581	4,141.11	81.7606	4,141.11	80.9685	4,141.11	76.0697	4,141.11	78.6648	4,141.11	78.4665	4,141.11	77.627	4,141.11	78.4897	4,141.11	73.8458	4,141.11	76.3731	4,141.11	68.0372	4,141.11	66.6174	4,141.11	66.2741	4,141.11	67.2125	4,141.11	61.671	4,141.11	69.4841	4,141.11	62.0458	4,141.11	64.3884	4,141.11	65.0857	4,141.11	66.2099	4,141.11	67.1173	4,141.11	45.2352	4,141.11	67.854	4,141.11	56.3566	4,141.11	65.6359	4,141.11	63.2384	4,141.11	60.5136
4,287.6	88.2729	4,287.6	86.9058	4,287.6	86.9269	4,287.6	84.2446	4,287.6	84.6365	4,287.6	81.9514	4,287.6	85.1131	4,287.6	81.2388	4,287.6	84.6075	4,287.6	80.9258	4,287.6	81.0789	4,287.6	80.0144	4,287.6	76.1972	4,287.6	79.0377	4,287.6	73.2818	4,287.6	73.9325	4,287.6	77.6443	4,287.6	70.9166	4,287.6	76.7097	4,287.6	68.0818	4,287.6	60.7433	4,287.6	64.566	4,287.6	59.1339	4,287.6	60.6784	4,287.6	66.2092	4,287.6	60.2707	4,287.6	59.9017	4,287.6	61.6685	4,287.6	63.2882	4,287.6	66.3174	4,287.6	56.2976	4,287.6	66.6738	4,287.6	55.8464	4,287.6	62.8064	4,287.6	60.8564	4,287.6	60.0065
4,438.48	88.0923	4,438.48	86.877	4,438.48	86.2465	4,438.48	83.3824	4,438.48	83.9187	4,438.48	81.8281	4,438.48	84.9627	4,438.48	81.0418	4,438.48	84.3482	4,438.48	80.7643	4,438.48	81.6334	4,438.48	80.3296	4,438.48	77.0114	4,438.48	77.2999	4,438.48	74.9536	4,438.48	75.1827	4,438.48	76.2519	4,438.48	71.9544	4,438.48	73.4835	4,438.48	62.399	4,438.48	67.6223	4,438.48	62.8837	4,438.48	43.4285	4,438.48	56.3197	4,438.48	60.6018	4,438.48	57.3238	4,438.48	59.3723	4,438.48	57.7953	4,438.48	62.0606	4,438.48	62.8559	4,438.48	51.4539	4,438.48	62.8429	4,438.48	50.3217	4,438.48	46.6583	4,438.48	58.7801	4,438.48	59.576
4,595.21	87.9646	4,595.21	86.5907	4,595.21	85.6002	4,595.21	82.6378	4,595.21	83.5588	4,595.21	80.9799	4,595.21	84.6546	4,595.21	81.1897	4,595.21	83.9776	4,595.21	80.1858	4,595.21	81.7163	4,595.21	79.1213	4,595.21	77.7578	4,595.21	75.2475	4,595.21	73.0506	4,595.21	68.8509	4,595.21	73.2561	4,595.21	61.9993	4,595.21	70.4588	4,595.21	57.8806	4,595.21	58.3672	4,595.21	56.8447	4,595.21	58.2233	4,595.21	38.7097	4,595.21	59.1936	4,595.21	51.8849	4,595.21	59.7389	4,595.21	50.7332	4,595.21	60.945	4,595.21	56.279	4,595.21	56.7806	4,595.21	57.6888	4,595.21	54.6586	4,595.21	48.0809	4,595.21	51.0084	4,595.21	58.6666
4,756.35	87.56	4,756.35	86.3983	4,756.35	84.9575	4,756.35	81.5469	4,756.35	82.6871	4,756.35	80.3257	4,756.35	84.334	4,756.35	81.4613	4,756.35	83.9508	4,756.35	80.1839	4,756.35	81.2172	4,756.35	77.0867	4,756.35	76.8492	4,756.35	70.8661	4,756.35	70.8321	4,756.35	66.3538	4,756.35	71.4168	4,756.35	59.7392	4,756.35	66.524	4,756.35	49.2582	4,756.35	51.4369	4,756.35	47.9265	4,756.35	60.8085	4,756.35	49.9722	4,756.35	58.9338	4,756.35	49.0013	4,756.35	57.7378	4,756.35	52.3892	4,756.35	56.797	4,756.35	51.2298	4,756.35	57.1458	4,756.35	48.5662	4,756.35	48.2451	4,756.35	48.028	4,756.35	43.3551	4,756.35	57.577
4,924.8	86.9864	4,924.8	86.0803	4,924.8	83.8106	4,924.8	79.7116	4,924.8	81.4015	4,924.8	79.7133	4,924.8	84.1071	4,924.8	81.7498	4,924.8	83.645	4,924.8	80.3192	4,924.8	79.7264	4,924.8	75.8149	4,924.8	73.5787	4,924.8	69.9539	4,924.8	65.4104	4,924.8	60.4141	4,924.8	59.387	4,924.8	55.7275	4,924.8	62.1101	4,924.8	51.9669	4,924.8	61.3383	4,924.8	40.0422	4,924.8	58.6593	4,924.8	50.978	4,924.8	60.0405	4,924.8	45.4878	4,924.8	55.9345	4,924.8	55.8078	4,924.8	53.3584	4,924.8	52.654	4,924.8	57.8972	4,924.8	51.7967	4,924.8	49.3373	4,924.8	51.5714	4,924.8	36.8221	4,924.8	57.2895
5,097.66	87.1357	5,097.66	85.8287	5,097.66	83.4531	5,097.66	78.3603	5,097.66	80.4822	5,097.66	79.053	5,097.66	84.0375	5,097.66	81.8133	5,097.66	83.3978	5,097.66	79.9155	5,097.66	78.8126	5,097.66	75.4562	5,097.66	70.8024	5,097.66	67.551	5,097.66	58.2965	5,097.66	61.2618	5,097.66	55.4844	5,097.66	48.1433	5,097.66	54.7248	5,097.66	53.0109	5,097.66	65.4824	5,097.66	50.363	5,097.66	61.5112	5,097.66	53.0829	5,097.66	56.0512	5,097.66	50.7539	5,097.66	51.113	5,097.66	53.8364	5,097.66	57.105	5,097.66	55.4395	5,097.66	54.7785	5,097.66	56.3114	5,097.66	47.8739	5,097.66	52.9747	5,097.66	50.905	5,097.66	56.5946
5,277.83	86.8822	5,277.83	85.2216	5,277.83	82.3673	5,277.83	76.4898	5,277.83	79.6955	5,277.83	78.967	5,277.83	84.2924	5,277.83	81.7821	5,277.83	82.9536	5,277.83	79.3921	5,277.83	76.5279	5,277.83	74.4557	5,277.83	65.1995	5,277.83	65.6494	5,277.83	58.2724	5,277.83	57.358	5,277.83	60.843	5,277.83	58.6012	5,277.83	55.3404	5,277.83	58.3369	5,277.83	66.436	5,277.83	54.6443	5,277.83	63.3381	5,277.83	53.7893	5,277.83	52.7047	5,277.83	51.4338	5,277.83	44.501	5,277.83	53.7775	5,277.83	53.248	5,277.83	56.1589	5,277.83	52.8032	5,277.83	58.5616	5,277.83	46.166	5,277.83	56.4393	5,277.83	55.2491	5,277.83	56.82
5,463.87	86.5768	5,463.87	84.6293	5,463.87	81.2395	5,463.87	74.2591	5,463.87	79.8858	5,463.87	79.4719	5,463.87	84.6382	5,463.87	81.7264	5,463.87	82.0542	5,463.87	78.9518	5,463.87	72.8718	5,463.87	73.3252	5,463.87	61.1558	5,463.87	62.1678	5,463.87	64.0124	5,463.87	62.9955	5,463.87	63.4165	5,463.87	59.0602	5,463.87	60.7223	5,463.87	59.0213	5,463.87	68.071	5,463.87	54.1288	5,463.87	64.9292	5,463.87	55.3909	5,463.87	51.5785	5,463.87	54.5989	5,463.87	45.9	5,463.87	54.2562	5,463.87	55.4469	5,463.87	56.5908	5,463.87	52.4721	5,463.87	60.0017	5,463.87	45.5483	5,463.87	57.9036	5,463.87	58.0895	5,463.87	57.2587
5,657.23	86.7038	5,657.23	84.4348	5,657.23	80.0176	5,657.23	70.5886	5,657.23	80.5068	5,657.23	79.902	5,657.23	84.6952	5,657.23	81.5968	5,657.23	80.5713	5,657.23	78.034	5,657.23	66.9964	5,657.23	72.0362	5,657.23	65.7467	5,657.23	64.3643	5,657.23	64.9083	5,657.23	64.1161	5,657.23	65.9901	5,657.23	58.1527	5,657.23	63.9275	5,657.23	58.2582	5,657.23	68.4258	5,657.23	55.465	5,657.23	64.5982	5,657.23	54.2198	5,657.23	53.4991	5,657.23	54.3884	5,657.23	44.1038	5,657.23	54.8478	5,657.23	49.8747	5,657.23	55.4602	5,657.23	54.3735	5,657.23	62.2821	5,657.23	51.9636	5,657.23	57.7381	5,657.23	61.329	5,657.23	60.581
5,856.45	87.0045	5,856.45	84.1161	5,856.45	78.6953	5,856.45	64.0792	5,856.45	81.4757	5,856.45	80.4296	5,856.45	84.1361	5,856.45	81.0471	5,856.45	78.4157	5,856.45	76.7448	5,856.45	57.4066	5,856.45	70.8149	5,856.45	66.7853	5,856.45	62.1035	5,856.45	64.6773	5,856.45	59.9669	5,856.45	66.5226	5,856.45	58.6531	5,856.45	62.2624	5,856.45	57.9566	5,856.45	68.999	5,856.45	52.6069	5,856.45	66.5929	5,856.45	52.0796	5,856.45	53.2728	5,856.45	51.4948	5,856.45	43.8283	5,856.45	54.1853	5,856.45	49.8853	5,856.45	54.8223	5,856.45	55.4536	5,856.45	62.1632	5,856.45	49.5052	5,856.45	59.9175	5,856.45	61.3778	5,856.45	59.0869
6,062.99	87.0104	6,062.99	83.736	6,062.99	77.198	6,062.99	66.1988	6,062.99	81.9301	6,062.99	81.2016	6,062.99	83.5447	6,062.99	80.3189	6,062.99	75.7705	6,062.99	75.2113	6,062.99	51.7134	6,062.99	67.9424	6,062.99	63.9218	6,062.99	61.4988	6,062.99	63.5255	6,062.99	60.6272	6,062.99	65.633	6,062.99	57.7695	6,062.99	54.9934	6,062.99	54.9687	6,062.99	68.1303	6,062.99	52.48	6,062.99	66.6992	6,062.99	50.2539	6,062.99	54.6983	6,062.99	44.7941	6,062.99	48.8811	6,062.99	52.7348	6,062.99	52.8025	6,062.99	54.2739	6,062.99	54.7334	6,062.99	60.9533	6,062.99	57.2423	6,062.99	54.4031	6,062.99	62.727	6,062.99	60.0852
6,276.86	87.2381	6,276.86	84.1638	6,276.86	76.278	6,276.86	73.3474	6,276.86	82.2499	6,276.86	82.0124	6,276.86	82.6226	6,276.86	80.0557	6,276.86	73.8141	6,276.86	73.909	6,276.86	60.1305	6,276.86	66.1151	6,276.86	62.2797	6,276.86	64.0037	6,276.86	62.1965	6,276.86	59.7522	6,276.86	65.1878	6,276.86	55.7776	6,276.86	52.9323	6,276.86	51.4582	6,276.86	67.4784	6,276.86	52.9657	6,276.86	65.1456	6,276.86	42.9935	6,276.86	50.434	6,276.86	39.7003	6,276.86	49.4555	6,276.86	49.1781	6,276.86	56.0782	6,276.86	50.2241	6,276.86	58.2372	6,276.86	61.4695	6,276.86	58.8529	6,276.86	58.9947	6,276.86	65.9943	6,276.86	64.0989
6,498.05	87.4935	6,498.05	84.949	6,498.05	76.6588	6,498.05	77.3413	6,498.05	82.843	6,498.05	82.7013	6,498.05	82.1302	6,498.05	80.0789	6,498.05	72.1552	6,498.05	73.2818	6,498.05	68.2533	6,498.05	66.7344	6,498.05	68.8086	6,498.05	62.5772	6,498.05	64.6685	6,498.05	55.9219	6,498.05	67.409	6,498.05	56.0941	6,498.05	54.6804	6,498.05	44.2271	6,498.05	66.3246	6,498.05	50.7448	6,498.05	65.4849	6,498.05	44.8615	6,498.05	48.0293	6,498.05	41.7326	6,498.05	50.6218	6,498.05	42.9705	6,498.05	55.7628	6,498.05	51.0669	6,498.05	58.3459	6,498.05	59.4089	6,498.05	56.1268	6,498.05	58.6121	6,498.05	65.4234	6,498.05	63.8235
6,726.56	87.3942	6,726.56	85.4891	6,726.56	77.9916	6,726.56	79.6977	6,726.56	83.5554	6,726.56	83.2461	6,726.56	81.7542	6,726.56	80.0125	6,726.56	71.0023	6,726.56	72.8094	6,726.56	71.6315	6,726.56	65.5331	6,726.56	70.3449	6,726.56	61.1618	6,726.56	66.0783	6,726.56	55.9307	6,726.56	66.6452	6,726.56	49.492	6,726.56	57.4098	6,726.56	46.7312	6,726.56	66.2442	6,726.56	44.5638	6,726.56	64.3317	6,726.56	46.7283	6,726.56	48.7535	6,726.56	49.2409	6,726.56	53.1789	6,726.56	46.2559	6,726.56	47.0897	6,726.56	51.0543	6,726.56	58.4656	6,726.56	58.2071	6,726.56	58.0747	6,726.56	54.9066	6,726.56	66.3224	6,726.56	64.5062
6,963.87	87.2864	6,963.87	85.7741	6,963.87	79.7458	6,963.87	81.0078	6,963.87	84.417	6,963.87	83.5533	6,963.87	81.6761	6,963.87	79.7451	6,963.87	70.8786	6,963.87	71.6859	6,963.87	72.9223	6,963.87	66.4833	6,963.87	70.24	6,963.87	60.2228	6,963.87	65.1354	6,963.87	47.3496	6,963.87	65.1921	6,963.87	53.0214	6,963.87	52.2009	6,963.87	54.5808	6,963.87	65.5847	6,963.87	48.8594	6,963.87	63.4265	6,963.87	53.7641	6,963.87	52.4877	6,963.87	51.8923	6,963.87	46.0256	6,963.87	52.9278	6,963.87	50.4348	6,963.87	52.0413	6,963.87	58.2303	6,963.87	54.2429	6,963.87	58.402	6,963.87	51.2096	6,963.87	67.3177	6,963.87	64.2294
7,209.96	86.9423	7,209.96	85.9318	7,209.96	81.1549	7,209.96	82.1394	7,209.96	84.6827	7,209.96	83.4719	7,209.96	81.0368	7,209.96	79.0355	7,209.96	72.2454	7,209.96	71.4221	7,209.96	73.8986	7,209.96	66.7179	7,209.96	69.8452	7,209.96	57.9225	7,209.96	62.0535	7,209.96	48.0554	7,209.96	64.9062	7,209.96	55.4206	7,209.96	55.2206	7,209.96	56.0913	7,209.96	64.6807	7,209.96	52.4776	7,209.96	61.2308	7,209.96	54.0668	7,209.96	54.8958	7,209.96	54.5245	7,209.96	42.9008	7,209.96	55.219	7,209.96	48.2938	7,209.96	54.5422	7,209.96	57.0978	7,209.96	46.6852	7,209.96	55.3352	7,209.96	47.5916	7,209.96	65.1094	7,209.96	63.4005
7,464.84	86.4437	7,464.84	86.0496	7,464.84	82.2957	7,464.84	82.7295	7,464.84	85.0169	7,464.84	83.4107	7,464.84	80.5382	7,464.84	78.241	7,464.84	73.7137	7,464.84	72.3708	7,464.84	74.2924	7,464.84	66.5823	7,464.84	69.1179	7,464.84	56.4912	7,464.84	63.6024	7,464.84	55.0594	7,464.84	65.666	7,464.84	59.152	7,464.84	52.1181	7,464.84	57.1461	7,464.84	65.4804	7,464.84	55.0696	7,464.84	59.5215	7,464.84	54.4087	7,464.84	52.0458	7,464.84	55.0437	7,464.84	50.7574	7,464.84	57.1163	7,464.84	39.308	7,464.84	55.9787	7,464.84	60.823	7,464.84	33.328	7,464.84	55.344	7,464.84	50.0483	7,464.84	64.5393	7,464.84	62.2461
7,727.05	86.1818	7,727.05	86.3625	7,727.05	83.1522	7,727.05	83.0617	7,727.05	85.4438	7,727.05	83.1544	7,727.05	80.0933	7,727.05	77.6628	7,727.05	74.6106	7,727.05	72.2174	7,727.05	73.8447	7,727.05	63.446	7,727.05	68.6415	7,727.05	60.4687	7,727.05	65.3909	7,727.05	56.9882	7,727.05	65.9444	7,727.05	61.2992	7,727.05	46.7856	7,727.05	57.7784	7,727.05	62.0499	7,727.05	56.6433	7,727.05	55.4838	7,727.05	56.0837	7,727.05	54.53	7,727.05	55.2651	7,727.05	44.9163	7,727.05	56.179	7,727.05	41.9774	7,727.05	59.1947	7,727.05	56.5191	7,727.05	39.9632	7,727.05	57.1215	7,727.05	52.2442	7,727.05	61.1528	7,727.05	62.5004
7,999.51	86.1669	7,999.51	86.4476	7,999.51	83.6116	7,999.51	82.9384	7,999.51	85.3146	7,999.51	82.3373	7,999.51	79.4784	7,999.51	77.1035	7,999.51	75.068	7,999.51	70.4358	7,999.51	73.4842	7,999.51	63.8951	7,999.51	69.3867	7,999.51	62.7268	7,999.51	68.2918	7,999.51	62.1415	7,999.51	67.4932	7,999.51	64.1319	7,999.51	56.3439	7,999.51	59.7927	7,999.51	61.8193	7,999.51	58.2435	7,999.51	57.9316	7,999.51	57.8314	7,999.51	51.813	7,999.51	56.5184	7,999.51	50.6566	7,999.51	57.8398	7,999.51	50.427	7,999.51	60.3612	7,999.51	59.9655	7,999.51	51.3885	7,999.51	59.835	7,999.51	43.6695	7,999.51	62.1818	7,999.51	63.9458
8,282.23	86.0727	8,282.23	86.1619	8,282.23	83.8095	8,282.23	82.3786	8,282.23	84.9533	8,282.23	81.2377	8,282.23	79.102	8,282.23	76.5197	8,282.23	76.7446	8,282.23	69.8361	8,282.23	74.1997	8,282.23	64.0704	8,282.23	66.9242	8,282.23	67.2745	8,282.23	70.8054	8,282.23	64.2124	8,282.23	68.229	8,282.23	65.4131	8,282.23	47.2954	8,282.23	60.3724	8,282.23	61.8579	8,282.23	58.4709	8,282.23	58.2797	8,282.23	58.0449	8,282.23	56.6207	8,282.23	58.1785	8,282.23	54.286	8,282.23	57.7256	8,282.23	48.0749	8,282.23	60.5528	8,282.23	62.7015	8,282.23	48.4426	8,282.23	63.6453	8,282.23	57.5783	8,282.23	61.0749	8,282.23	63.7059
8,573.73	86.1941	8,573.73	86.1122	8,573.73	84.2054	8,573.73	81.8941	8,573.73	84.6674	8,573.73	80.9757	8,573.73	79.0595	8,573.73	75.6074	8,573.73	77.5509	8,573.73	70.6266	8,573.73	74.944	8,573.73	62.8944	8,573.73	68.2415	8,573.73	68.5526	8,573.73	70.1784	8,573.73	63.1434	8,573.73	64.1146	8,573.73	63.8054	8,573.73	48.9127	8,573.73	58.5699	8,573.73	61.1156	8,573.73	56.2644	8,573.73	59.2601	8,573.73	55.869	8,573.73	48.5659	8,573.73	58.3805	8,573.73	56.9169	8,573.73	55.3939	8,573.73	43.2106	8,573.73	59.4213	8,573.73	56.7575	8,573.73	51.7136	8,573.73	62.9573	8,573.73	60.2668	8,573.73	58.1718	8,573.73	65.7231
8,876.95	86.322	8,876.95	86.212	8,876.95	84.7696	8,876.95	81.733	8,876.95	84.2298	8,876.95	80.6539	8,876.95	78.8581	8,876.95	74.8191	8,876.95	77.2667	8,876.95	68.3617	8,876.95	74.4036	8,876.95	67.1757	8,876.95	70.3083	8,876.95	66.7542	8,876.95	70.1686	8,876.95	64.1768	8,876.95	59.5538	8,876.95	63.838	8,876.95	50.8093	8,876.95	60.0109	8,876.95	60.0923	8,876.95	56.9277	8,876.95	57.8263	8,876.95	55.2057	8,876.95	53.5619	8,876.95	57.9233	8,876.95	52.2676	8,876.95	55.3628	8,876.95	43.1153	8,876.95	57.9852	8,876.95	39.4494	8,876.95	56.7116	8,876.95	58.9771	8,876.95	60.4509	8,876.95	50.6419	8,876.95	64.7271
9,188.96	86.7081	9,188.96	86.3016	9,188.96	85.2244	9,188.96	81.4064	9,188.96	84.2275	9,188.96	79.6767	9,188.96	78.604	9,188.96	73.3964	9,188.96	77.073	9,188.96	65.025	9,188.96	73.3381	9,188.96	69.3394	9,188.96	69.7515	9,188.96	67.6098	9,188.96	68.3962	9,188.96	64.0882	9,188.96	63.6591	9,188.96	63.5464	9,188.96	53.2789	9,188.96	58.1801	9,188.96	55.8823	9,188.96	55.9659	9,188.96	61.413	9,188.96	53.5371	9,188.96	55.2907	9,188.96	54.917	9,188.96	53.3686	9,188.96	55.0114	9,188.96	49.5697	9,188.96	55.7633	9,188.96	54.3319	9,188.96	56.5705	9,188.96	49.6144	9,188.96	57.993	9,188.96	53.008	9,188.96	62.758
9,514.16	86.8786	9,514.16	86.0591	9,514.16	85.5633	9,514.16	81.394	9,514.16	84.458	9,514.16	78.871	9,514.16	78.9878	9,514.16	72.1809	9,514.16	77.3586	9,514.16	68.2282	9,514.16	71.7887	9,514.16	69.3697	9,514.16	67.4192	9,514.16	66.9781	9,514.16	66.0731	9,514.16	60.2847	9,514.16	65.4133	9,514.16	61.6998	9,514.16	53.195	9,514.16	54.8648	9,514.16	36.7702	9,514.16	54.8825	9,514.16	59.8461	9,514.16	51.0327	9,514.16	58.0554	9,514.16	53.6654	9,514.16	52.1752	9,514.16	50.5717	9,514.16	53.745	9,514.16	53.1447	9,514.16	54.6142	9,514.16	56.0439	9,514.16	44.763	9,514.16	46.2996	9,514.16	57.3975	9,514.16	58.2131
9,849.61	87.0381	9,849.61	85.9024	9,849.61	85.9319	9,849.61	81.8348	9,849.61	84.6552	9,849.61	78.4698	9,849.61	79.5181	9,849.61	72.4258	9,849.61	77.4116	9,849.61	68.839	9,849.61	71.3646	9,849.61	68.6667	9,849.61	66.0758	9,849.61	64.4186	9,849.61	62.4226	9,849.61	58.801	9,849.61	62.5395	9,849.61	60.9626	9,849.61	54.0942	9,849.61	56.6556	9,849.61	51.5049	9,849.61	52.2234	9,849.61	53.3143	9,849.61	51.4004	9,849.61	55.9374	9,849.61	53.5956	9,849.61	49.6833	9,849.61	49.7532	9,849.61	56.0516	9,849.61	53.6506	9,849.61	54.9783	9,849.61	57.5769	9,849.61	48.8151	9,849.61	50.9072	9,849.61	60.5016	9,849.61	55.7545
10,196.8	87.0552	10,196.8	85.8895	10,196.8	86.0883	10,196.8	82.2994	10,196.8	84.7557	10,196.8	77.9528	10,196.8	79.9016	10,196.8	72.5051	10,196.8	76.8193	10,196.8	69.6372	10,196.8	70.5944	10,196.8	68.8891	10,196.8	64.2608	10,196.8	63.5251	10,196.8	58.3952	10,196.8	62.4703	10,196.8	59.9789	10,196.8	61.0615	10,196.8	58.684	10,196.8	57.2526	10,196.8	46.1655	10,196.8	53.8386	10,196.8	44.9123	10,196.8	51.9731	10,196.8	50.018	10,196.8	53.0011	10,196.8	48.587	10,196.8	52.7075	10,196.8	54.6726	10,196.8	52.6212	10,196.8	50.2569	10,196.8	59.6324	10,196.8	49.2523	10,196.8	58.04	10,196.8	62.9042	10,196.8	55.9972
10,555.7	87.1587	10,555.7	86.0896	10,555.7	86.281	10,555.7	82.6966	10,555.7	85.0007	10,555.7	77.8433	10,555.7	80.5903	10,555.7	73.1975	10,555.7	76.5245	10,555.7	71.7221	10,555.7	70.4159	10,555.7	67.918	10,555.7	62.7423	10,555.7	64.9347	10,555.7	58.7015	10,555.7	62.4059	10,555.7	56.8738	10,555.7	60.4856	10,555.7	59.9625	10,555.7	57.4314	10,555.7	47.2139	10,555.7	53.5042	10,555.7	48.0868	10,555.7	54.0786	10,555.7	46.7517	10,555.7	53.1014	10,555.7	54.259	10,555.7	52.9482	10,555.7	55.4442	10,555.7	52.9206	10,555.7	53.919	10,555.7	58.3568	10,555.7	47.5817	10,555.7	55.6603	10,555.7	64.046	10,555.7	51.9733
10,927.7	87.1435	10,927.7	86.3092	10,927.7	86.3162	10,927.7	82.9468	10,927.7	84.9285	10,927.7	78.2018	10,927.7	81.0636	10,927.7	73.1434	10,927.7	76.3879	10,927.7	71.0292	10,927.7	69.043	10,927.7	66.4754	10,927.7	56.3211	10,927.7	62.983	10,927.7	53.0954	10,927.7	63.0172	10,927.7	58.1257	10,927.7	59.1037	10,927.7	57.2452	10,927.7	56.4735	10,927.7	52.4175	10,927.7	52.6318	10,927.7	51.4695	10,927.7	52.1241	10,927.7	45.1253	10,927.7	52.4772	10,927.7	51.0049	10,927.7	51.4151	10,927.7	45.7672	10,927.7	50.7841	10,927.7	50.9759	10,927.7	59.2769	10,927.7	48.9888	10,927.7	51.5912	10,927.7	63.922	10,927.7	53.0534
11,313	86.9647	11,313	86.2886	11,313	86.0664	11,313	82.8067	11,313	84.3795	11,313	77.5579	11,313	80.6126	11,313	72.3001	11,313	75.2804	11,313	68.1771	11,313	64.1349	11,313	62.5408	11,313	48.8823	11,313	61.6786	11,313	56.8273	11,313	60.6995	11,313	57.0172	11,313	56.6724	11,313	55.1065	11,313	53.2583	11,313	50.3665	11,313	48.0075	11,313	53.4062	11,313	49.8624	11,313	46.7348	11,313	51.2474	11,313	46.0444	11,313	44.6585	11,313	53.3212	11,313	56.0205	11,313	50.2634	11,313	56.6021	11,313	59.2623	11,313	49.2117	11,313	65.2382	11,313	53.5753
11,712.9	86.8333	11,712.9	86.041	11,712.9	85.8714	11,712.9	82.2304	11,712.9	83.6739	11,712.9	76.097	11,712.9	79.5778	11,712.9	70.6698	11,712.9	73.224	11,712.9	62.5159	11,712.9	55.2774	11,712.9	62.7704	11,712.9	58.5584	11,712.9	61.6924	11,712.9	63.4937	11,712.9	60.6382	11,712.9	59.5348	11,712.9	56.1409	11,712.9	50.487	11,712.9	51.5904	11,712.9	46.7712	11,712.9	50.1225	11,712.9	52.834	11,712.9	48.6432	11,712.9	49.3216	11,712.9	44.9263	11,712.9	51.6626	11,712.9	50.1596	11,712.9	56.9094	11,712.9	53.7311	11,712.9	54.6806	11,712.9	53.6913	11,712.9	58.9838	11,712.9	51.3816	11,712.9	62.1344	11,712.9	43.3669
12,126	86.9177	12,126	85.9668	12,126	85.9864	12,126	81.6382	12,126	83.2145	12,126	75.7743	12,126	78.4726	12,126	69.1939	12,126	71.4549	12,126	61.6884	12,126	48.2867	12,126	65.0593	12,126	59.5915	12,126	62.2771	12,126	63.8823	12,126	61.1761	12,126	58.0359	12,126	55.4104	12,126	54.1708	12,126	50.4933	12,126	50.546	12,126	51.4805	12,126	52.8549	12,126	42.9492	12,126	50.1433	12,126	50.3262	12,126	51.2714	12,126	50.9887	12,126	57.6465	12,126	52.7545	12,126	56.8031	12,126	57.6292	12,126	61.9733	12,126	60.8756	12,126	64.9158	12,126	51.0379
12,553.7	86.5904	12,553.7	85.4952	12,553.7	85.7927	12,553.7	80.877	12,553.7	82.5138	12,553.7	76.0302	12,553.7	77.4796	12,553.7	67.6292	12,553.7	69.3582	12,553.7	57.5903	12,553.7	60.272	12,553.7	64.729	12,553.7	63.3367	12,553.7	60.6637	12,553.7	61.9305	12,553.7	58.247	12,553.7	56.8247	12,553.7	51.908	12,553.7	55.3379	12,553.7	48.334	12,553.7	48.3301	12,553.7	46.8909	12,553.7	51.7893	12,553.7	40.0275	12,553.7	51.016	12,553.7	45.1442	12,553.7	40.597	12,553.7	40.883	12,553.7	54.7625	12,553.7	55.4001	12,553.7	55.8348	12,553.7	54.2304	12,553.7	61.7811	12,553.7	63.8945	12,553.7	68.0396	12,553.7	57.0262
12,996.1	85.6785	12,996.1	84.4716	12,996.1	85.1823	12,996.1	79.6817	12,996.1	81.3899	12,996.1	75.1966	12,996.1	75.679	12,996.1	64.0478	12,996.1	65.4583	12,996.1	57.3219	12,996.1	66.9049	12,996.1	64.4684	12,996.1	66.5889	12,996.1	60.6456	12,996.1	63.6563	12,996.1	58.3068	12,996.1	58.1715	12,996.1	52.4425	12,996.1	54.2506	12,996.1	48.3226	12,996.1	34.381	12,996.1	48.5139	12,996.1	51.8212	12,996.1	40.997	12,996.1	43.4687	12,996.1	42.7891	12,996.1	50.0248	12,996.1	44.4298	12,996.1	48.4607	12,996.1	51.8033	12,996.1	56.9223	12,996.1	51.7828	12,996.1	51.1199	12,996.1	63.2363	12,996.1	67.0138	12,996.1	54.6805
13,454.6	84.9209	13,454.6	83.8217	13,454.6	84.4703	13,454.6	79.2733	13,454.6	80.1122	13,454.6	74.1005	13,454.6	72.6253	13,454.6	54.6914	13,454.6	63.3607	13,454.6	63.0134	13,454.6	68.8729	13,454.6	63.5338	13,454.6	68.1964	13,454.6	62.2004	13,454.6	64.7843	13,454.6	56.0381	13,454.6	60.5339	13,454.6	46.5197	13,454.6	51.8891	13,454.6	45.2232	13,454.6	34.2813	13,454.6	42.2386	13,454.6	48.9839	13,454.6	34.7558	13,454.6	48.4812	13,454.6	45.3628	13,454.6	47.8672	13,454.6	39.5478	13,454.6	39.5649	13,454.6	44.6687	13,454.6	47.0442	13,454.6	44.9095	13,454.6	57.0455	13,454.6	55.9122	13,454.6	62.1142	13,454.6	44.5237
13,929.2	84.5607	13,929.2	83.5686	13,929.2	84.0138	13,929.2	79.2921	13,929.2	79.5456	13,929.2	72.4366	13,929.2	69.3053	13,929.2	53.3851	13,929.2	64.6258	13,929.2	63.4416	13,929.2	68.6372	13,929.2	63.1361	13,929.2	68.1083	13,929.2	57.6913	13,929.2	63.8606	13,929.2	51.6299	13,929.2	59.2381	13,929.2	41.0876	13,929.2	49.9016	13,929.2	44.5628	13,929.2	42.8984	13,929.2	39.7649	13,929.2	45.3019	13,929.2	35.8518	13,929.2	50.1867	13,929.2	42.1435	13,929.2	43.4127	13,929.2	38.077	13,929.2	39.4007	13,929.2	27.443	13,929.2	48.0202	13,929.2	49.851	13,929.2	51.3865	13,929.2	47.6066	13,929.2	58.8279	13,929.2	53.5072
14,419.9	84.423	14,419.9	83.5055	14,419.9	83.4276	14,419.9	79.2808	14,419.9	78.6852	14,419.9	70.8913	14,419.9	66.1316	14,419.9	52.2813	14,419.9	65.2676	14,419.9	62.2852	14,419.9	68.3306	14,419.9	60.574	14,419.9	68.7563	14,419.9	51.3703	14,419.9	62.5028	14,419.9	52.3451	14,419.9	57.0002	14,419.9	48.8292	14,419.9	14.0193	14,419.9	48.0165	14,419.9	43.1578	14,419.9	40.0087	14,419.9	40.9167	14,419.9	42.1652	14,419.9	47.8417	14,419.9	39.5725	14,419.9	24.7116	14,419.9	39.0186	14,419.9	35.2295	14,419.9	30.1355	14,419.9	50.4687	14,419.9	41.5392	14,419.9	52.0947	14,419.9	51.913	14,419.9	58.2581	14,419.9	53.0754
14,928.2	84.5246	14,928.2	83.5235	14,928.2	83.0413	14,928.2	78.8923	14,928.2	77.9171	14,928.2	68.8118	14,928.2	63.3582	14,928.2	56.7633	14,928.2	66.3601	14,928.2	63.2879	14,928.2	67.992	14,928.2	61.965	14,928.2	66.8783	14,928.2	52.3357	14,928.2	61.2852	14,928.2	56.2553	14,928.2	50.5157	14,928.2	52.4823	14,928.2	48.6182	14,928.2	50.2163	14,928.2	38.892	14,928.2	41.7721	14,928.2	44.8077	14,928.2	44.0025	14,928.2	45.4521	14,928.2	39.527	14,928.2	29.599	14,928.2	39.4805	14,928.2	42.1238	14,928.2	41.7603	14,928.2	43.9807	14,928.2	44.6091	14,928.2	46.8235	14,928.2	49.6075	14,928.2	55.0903	14,928.2	51.1185
15,455.6	84.5199	15,455.6	83.3449	15,455.6	82.7533	15,455.6	78.0964	15,455.6	76.9936	15,455.6	65.3677	15,455.6	58.9207	15,455.6	63.2357	15,455.6	67.608	15,455.6	64.7427	15,455.6	68.1816	15,455.6	62.8171	15,455.6	65.1298	15,455.6	56.631	15,455.6	57.7075	15,455.6	57.0243	15,455.6	49.9173	15,455.6	51.3851	15,455.6	48.8217	15,455.6	48.9094	15,455.6	31.0299	15,455.6	40.7422	15,455.6	47.5045	15,455.6	41.9944	15,455.6	44.5626	15,455.6	35.6879	15,455.6	39.3263	15,455.6	36.1653	15,455.6	38.8938	15,455.6	43.6531	15,455.6	36.5755	15,455.6	45.1496	15,455.6	43.1834	15,455.6	49.0098	15,455.6	51.262	15,455.6	52.0675
16,000.5	84.1751	16,000.5	82.847	16,000.5	82.3684	16,000.5	76.9934	16,000.5	75.8512	16,000.5	62.1509	16,000.5	55.3482	16,000.5	64.3568	16,000.5	68.0841	16,000.5	63.4392	16,000.5	67.8046	16,000.5	60.721	16,000.5	63.7301	16,000.5	55.291	16,000.5	58.2799	16,000.5	52.7724	16,000.5	50.9941	16,000.5	48.3474	16,000.5	43.0081	16,000.5	45.3344	16,000.5	44.3439	16,000.5	37.6793	16,000.5	43.6389	16,000.5	37.1812	16,000.5	44.1271	16,000.5	30.9736	16,000.5	37.8646	16,000.5	35.3733	16,000.5	39.2499	16,000.5	38.1527	16,000.5	41.1817	16,000.5	42.9403	16,000.5	40.7309	16,000.5	47.3397	16,000.5	51.2092	16,000.5	51.0807
16,564.5	83.5587	16,564.5	82.2237	16,564.5	81.7019	16,564.5	75.9545	16,564.5	74.5387	16,564.5	60.1966	16,564.5	57.1425	16,564.5	64.4349	16,564.5	67.2856	16,564.5	62.3012	16,564.5	65.8038	16,564.5	60.1625	16,564.5	60.7284	16,564.5	55.0392	16,564.5	54.3426	16,564.5	52.8321	16,564.5	42.0838	16,564.5	48.6572	16,564.5	38.2902	16,564.5	44.4658	16,564.5	48.9549	16,564.5	40.0443	16,564.5	44.6061	16,564.5	37.7247	16,564.5	42.6152	16,564.5	26.3724	16,564.5	37.3413	16,564.5	35.884	16,564.5	36.458	16,564.5	40.7225	16,564.5	32.5246	16,564.5	46.1226	16,564.5	40.012	16,564.5	45.0327	16,564.5	51.4289	16,564.5	50.0293
17,148.9	82.9666	17,148.9	81.6393	17,148.9	80.8319	17,148.9	74.8764	17,148.9	72.757	17,148.9	58.6311	17,148.9	59.5989	17,148.9	65.9845	17,148.9	66.3271	17,148.9	63.2672	17,148.9	62.868	17,148.9	60.454	17,148.9	55.5095	17,148.9	54.6985	17,148.9	41.7297	17,148.9	51.7784	17,148.9	39.654	17,148.9	47.5708	17,148.9	36.9702	17,148.9	41.5554	17,148.9	50.2528	17,148.9	39.9702	17,148.9	47.1267	17,148.9	35.5313	17,148.9	41.0851	17,148.9	31.545	17,148.9	34.011	17,148.9	37.9856	17,148.9	36.1465	17,148.9	41.0326	17,148.9	34.7734	17,148.9	44.7984	17,148.9	29.5022	17,148.9	39.7404	17,148.9	50.0113	17,148.9	49.4558
17,752.4	82.7598	17,752.4	81.2938	17,752.4	80.2995	17,752.4	73.5286	17,752.4	70.7935	17,752.4	59.6789	17,752.4	62.9413	17,752.4	66.9503	17,752.4	66.5467	17,752.4	63.2723	17,752.4	61.0209	17,752.4	59.4594	17,752.4	51.0053	17,752.4	51.4489	17,752.4	38.5993	17,752.4	47.646	17,752.4	47.6667	17,752.4	44.8044	17,752.4	39.1175	17,752.4	34.7115	17,752.4	51.0361	17,752.4	38.0157	17,752.4	48.5216	17,752.4	30.2847	17,752.4	39.0326	17,752.4	36.4972	17,752.4	35.0743	17,752.4	38.3196	17,752.4	35.8569	17,752.4	39.492	17,752.4	39.571	17,752.4	42.4645	17,752.4	31.635	17,752.4	39.1047	17,752.4	48.0813	17,752.4	51.0411
18,379.4	82.642	18,379.4	81.0018	18,379.4	79.9971	18,379.4	71.7014	18,379.4	68.5877	18,379.4	61.9426	18,379.4	64.6365	18,379.4	67.045	18,379.4	66.3518	18,379.4	63.6075	18,379.4	58.5708	18,379.4	58.0356	18,379.4	42.9946	18,379.4	45.8517	18,379.4	49.1753	18,379.4	41.3259	18,379.4	50.0016	18,379.4	42.5995	18,379.4	42.2741	18,379.4	28.1905	18,379.4	50.617	18,379.4	37.7138	18,379.4	50.7636	18,379.4	30.3807	18,379.4	32.0314	18,379.4	39.6018	18,379.4	32.1621	18,379.4	38.9141	18,379.4	40.278	18,379.4	37.325	18,379.4	42.7598	18,379.4	42.129	18,379.4	36.0131	18,379.4	43.9762	18,379.4	47.1232	18,379.4	51.3003
19,026.9	82.418	19,026.9	80.5509	19,026.9	79.6582	19,026.9	69.55	19,026.9	66.663	19,026.9	63.4692	19,026.9	65.6659	19,026.9	66.7689	19,026.9	65.6242	19,026.9	63.2894	19,026.9	55.095	19,026.9	55.8283	19,026.9	45.8574	19,026.9	43.9451	19,026.9	50.1648	19,026.9	38.8396	19,026.9	51.7626	19,026.9	42.7404	19,026.9	35.4097	19,026.9	34.2179	19,026.9	50.0366	19,026.9	32.8747	19,026.9	51.813	19,026.9	30.8956	19,026.9	30.3933	19,026.9	39.0195	19,026.9	33.7383	19,026.9	38.3511	19,026.9	43.7401	19,026.9	36.6939	19,026.9	40.2941	19,026.9	35.5662	19,026.9	38.603	19,026.9	42.9262	19,026.9	39.7611	19,026.9	50.3475
19,697.8	82.0572	19,697.8	79.9799	19,697.8	79.0416	19,697.8	66.7878	19,697.8	64.3478	19,697.8	64.2691	19,697.8	66.5217	19,697.8	66.5888	19,697.8	64.7373	19,697.8	61.4267	19,697.8	50.1257	19,697.8	51.1995	19,697.8	42.6108	19,697.8	52.4739	19,697.8	54.4129	19,697.8	47.3226	19,697.8	53.5642	19,697.8	44.9198	19,697.8	43.7313	19,697.8	36.7891	19,697.8	50.2394	19,697.8	35.566	19,697.8	51.4696	19,697.8	29.9954	19,697.8	38.3605	19,697.8	40.002	19,697.8	38.069	19,697.8	38.4223	19,697.8	44.2853	19,697.8	36.6186	19,697.8	44.3666	19,697.8	40.7272	19,697.8	43.805	19,697.8	44.1924	19,697.8	43.8622	19,697.8	49.03
19,999.5	81.9954	19,999.5	79.7644	19,999.5	78.6214	19,999.5	65.9639	19,999.5	63.3948	19,999.5	64.8225	19,999.5	66.5981	19,999.5	66.5122	19,999.5	64.2189	19,999.5	60.7382	19,999.5	42.5336	19,999.5	49.1405	19,999.5	48.1775	19,999.5	54.3723	19,999.5	58.4809	19,999.5	48.3373	19,999.5	51.0423	19,999.5	46.6291	19,999.5	48.0873	19,999.5	38.0467	19,999.5	49.888	19,999.5	38.5902	19,999.5	47.7399	19,999.5	27.1998	19,999.5	42.2341	19,999.5	41.804	19,999.5	45.9855	19,999.5	36.5669	19,999.5	47.0958	19,999.5	43.893	19,999.5	48.9376	19,999.5	42.144	19,999.5	45.7288	19,999.5	44.9625	19,999.5	47.0739	19,999.5	51.8378
