"SPL Horizontal"																																																																							
"On-Axis"		"10°"		"-10°"		"20°"		"-20°"		"30°"		"-30°"		"40°"		"-40°"		"50°"		"-50°"		"60°"		"-60°"		"70°"		"-70°"		"80°"		"-80°"		"90°"		"-90°"		"100°"		"-100°"		"110°"		"-110°"		"120°"		"-120°"		"130°"		"-130°"		"140°"		"-140°"		"150°"		"-150°"		"160°"		"-160°"		"170°"		"-170°"		"180°"	
"Frequency [Hz]"	"Sound Pessure Level [dB]  / [2.83V 1m] "	"Frequency [Hz]"	"Sound Pessure Level [dB]  / [2.83V 1m] "	"Frequency [Hz]"	"Sound Pessure Level [dB]  / [2.83V 1m] "	"Frequency [Hz]"	"Sound Pessure Level [dB]  / [2.83V 1m] "	"Frequency [Hz]"	"Sound Pessure Level [dB]  / [2.83V 1m] "	"Frequency [Hz]"	"Sound Pessure Level [dB]  / [2.83V 1m] "	"Frequency [Hz]"	"Sound Pessure Level [dB]  / [2.83V 1m] "	"Frequency [Hz]"	"Sound Pessure Level [dB]  / [2.83V 1m] "	"Frequency [Hz]"	"Sound Pessure Level [dB]  / [2.83V 1m] "	"Frequency [Hz]"	"Sound Pessure Level [dB]  / [2.83V 1m] "	"Frequency [Hz]"	"Sound Pessure Level [dB]  / [2.83V 1m] "	"Frequency [Hz]"	"Sound Pessure Level [dB]  / [2.83V 1m] "	"Frequency [Hz]"	"Sound Pessure Level [dB]  / [2.83V 1m] "	"Frequency [Hz]"	"Sound Pessure Level [dB]  / [2.83V 1m] "	"Frequency [Hz]"	"Sound Pessure Level [dB]  / [2.83V 1m] "	"Frequency [Hz]"	"Sound Pessure Level [dB]  / [2.83V 1m] "	"Frequency [Hz]"	"Sound Pessure Level [dB]  / [2.83V 1m] "	"Frequency [Hz]"	"Sound Pessure Level [dB]  / [2.83V 1m] "	"Frequency [Hz]"	"Sound Pessure Level [dB]  / [2.83V 1m] "	"Frequency [Hz]"	"Sound Pessure Level [dB]  / [2.83V 1m] "	"Frequency [Hz]"	"Sound Pessure Level [dB]  / [2.83V 1m] "	"Frequency [Hz]"	"Sound Pessure Level [dB]  / [2.83V 1m] "	"Frequency [Hz]"	"Sound Pessure Level [dB]  / [2.83V 1m] "	"Frequency [Hz]"	"Sound Pessure Level [dB]  / [2.83V 1m] "	"Frequency [Hz]"	"Sound Pessure Level [dB]  / [2.83V 1m] "	"Frequency [Hz]"	"Sound Pessure Level [dB]  / [2.83V 1m] "	"Frequency [Hz]"	"Sound Pessure Level [dB]  / [2.83V 1m] "	"Frequency [Hz]"	"Sound Pessure Level [dB]  / [2.83V 1m] "	"Frequency [Hz]"	"Sound Pessure Level [dB]  / [2.83V 1m] "	"Frequency [Hz]"	"Sound Pessure Level [dB]  / [2.83V 1m] "	"Frequency [Hz]"	"Sound Pessure Level [dB]  / [2.83V 1m] "	"Frequency [Hz]"	"Sound Pessure Level [dB]  / [2.83V 1m] "	"Frequency [Hz]"	"Sound Pessure Level [dB]  / [2.83V 1m] "	"Frequency [Hz]"	"Sound Pessure Level [dB]  / [2.83V 1m] "	"Frequency [Hz]"	"Sound Pessure Level [dB]  / [2.83V 1m] "	"Frequency [Hz]"	"Sound Pessure Level [dB]  / [2.83V 1m] "
20.5078	58.4641	20.5078	58.4537	20.5078	58.3992	20.5078	58.3795	20.5078	58.2678	20.5078	58.2756	20.5078	58.1023	20.5078	58.2039	20.5078	57.9649	20.5078	58.2548	20.5078	57.9507	20.5078	58.5292	20.5078	58.1713	20.5078	59.0964	20.5078	58.7073	20.5078	59.9504	20.5078	59.5581	20.5078	61.012	20.5078	60.6389	20.5078	62.1717	20.5078	61.8309	20.5078	63.3309	20.5078	63.0285	20.5078	64.4181	20.5078	64.1565	20.5078	65.3857	20.5078	65.1661	20.5078	66.2034	20.5078	66.0265	20.5078	66.8512	20.5078	66.7177	20.5078	67.3158	20.5078	67.2264	20.5078	67.5888	20.5078	67.544	20.5078	67.6654
21.9727	59.6614	21.9727	59.5787	21.9727	59.616	21.9727	59.3787	21.9727	59.4452	21.9727	59.0912	21.9727	59.1677	21.9727	58.7782	21.9727	58.8288	21.9727	58.5501	21.9727	58.5188	21.9727	58.5647	21.9727	58.386	21.9727	58.9701	21.9727	58.6069	21.9727	59.8036	21.9727	59.2842	21.9727	60.9573	21.9727	60.3599	21.9727	62.2595	21.9727	61.6609	21.9727	63.5639	21.9727	63.0132	21.9727	64.776	21.9727	64.2969	21.9727	65.8422	21.9727	65.4436	21.9727	66.7327	21.9727	66.4164	21.9727	67.4303	21.9727	67.1952	21.9727	67.9242	21.9727	67.7688	21.9727	68.2078	21.9727	68.1305	21.9727	68.2771
23.4375	61.4288	23.4375	61.4146	23.4375	61.3771	23.4375	61.3468	23.4375	61.2664	23.4375	61.2588	23.4375	61.1249	23.4375	61.209	23.4375	61.0074	23.4375	61.2796	23.4375	60.9976	23.4375	61.5602	23.4375	61.1954	23.4375	62.1106	23.4375	61.679	23.4375	62.9256	23.4375	62.4589	23.4375	63.9356	23.4375	63.4687	23.4375	65.0424	23.4375	64.6021	23.4375	66.1542	23.4375	65.757	23.4375	67.202	23.4375	66.8562	23.4375	68.1381	23.4375	67.8477	23.4375	68.9308	23.4375	68.6976	23.4375	69.5592	23.4375	69.3838	23.4375	70.0088	23.4375	69.8917	23.4375	70.2703	23.4375	70.2117	23.4375	70.3386
24.9023	62.9582	24.9023	62.9511	24.9023	62.9069	24.9023	62.8966	24.9023	62.8037	24.9023	62.8256	24.9023	62.6753	24.9023	62.7909	24.9023	62.5723	24.9023	62.8668	24.9023	62.5712	24.9023	63.134	24.9023	62.7625	24.9023	63.649	24.9023	63.2182	24.9023	64.4123	24.9023	63.9518	24.9023	65.3658	24.9023	64.9076	24.9023	66.4207	24.9023	65.9895	24.9023	67.4899	24.9023	67.1009	24.9023	68.5046	24.9023	68.1659	24.9023	69.4161	24.9023	69.1313	24.9023	70.191	24.9023	69.962	24.9023	70.8067	24.9023	70.6344	24.9023	71.2481	24.9023	71.1329	24.9023	71.5051	24.9023	71.4475	24.9023	71.5722
26.3672	65.0001	26.3672	64.9645	26.3672	64.9779	26.3672	64.8789	26.3672	64.9029	26.3672	64.7658	26.3672	64.7937	26.3672	64.6661	26.3672	64.6859	26.3672	64.6414	26.3672	64.635	26.3672	64.7681	26.3672	64.7129	26.3672	65.116	26.3672	64.9922	26.3672	65.7159	26.3672	65.5166	26.3672	66.5396	26.3672	66.2754	26.3672	67.5121	26.3672	67.2064	26.3672	68.5431	26.3672	68.223	26.3672	69.5523	26.3672	69.2418	26.3672	70.4781	26.3672	70.1962	26.3672	71.2766	26.3672	71.0372	26.3672	71.9171	26.3672	71.7299	26.3672	72.3786	26.3672	72.2504	26.3672	72.6474	26.3672	72.5823	26.3672	72.7159
27.832	66.3389	27.832	66.3175	27.832	66.3225	27.832	66.2666	27.832	66.2738	27.832	66.2084	27.832	66.212	27.832	66.1812	27.832	66.1717	27.832	66.2387	27.832	66.2036	27.832	66.442	27.832	66.368	27.832	66.8413	27.832	66.7191	27.832	67.4531	27.832	67.2821	27.832	68.2498	27.832	68.0388	27.832	69.1692	27.832	68.9335	27.832	70.1371	27.832	69.8938	27.832	71.0852	27.832	70.8498	27.832	71.9584	27.832	71.7439	27.832	72.7154	27.832	72.532	27.832	73.326	27.832	73.1815	27.832	73.7687	27.832	73.6691	27.832	74.0292	27.832	73.9785	27.832	74.0998
29.2969	68.318	29.2969	68.2942	29.2969	68.3073	29.2969	68.2424	29.2969	68.2655	29.2969	68.1804	29.2969	68.2071	29.2969	68.1384	29.2969	68.1585	29.2969	68.1594	29.2969	68.1587	29.2969	68.2946	29.2969	68.257	29.2969	68.5915	29.2969	68.5031	29.2969	69.0755	29.2969	68.9303	29.2969	69.7369	29.2969	69.5399	29.2969	70.5315	29.2969	70.2973	29.2969	71.3956	29.2969	71.1436	29.2969	72.2633	29.2969	72.0128	29.2969	73.077	29.2969	72.8448	29.2969	73.7913	29.2969	73.5907	29.2969	74.372	29.2969	74.213	29.2969	74.7944	29.2969	74.6846	29.2969	75.0425	29.2969	74.9864	29.2969	75.1073
30.7617	69.6575	30.7617	69.6521	30.7617	69.6439	30.7617	69.6341	30.7617	69.6144	30.7617	69.6195	30.7617	69.5821	30.7617	69.6347	30.7617	69.5704	30.7617	69.7154	30.7617	69.6127	30.7617	69.9012	30.7617	69.7494	30.7617	70.2269	30.7617	70.0193	30.7617	70.7091	30.7617	70.4472	30.7617	71.3378	30.7617	71.0324	30.7617	72.0774	30.7617	71.7463	30.7617	72.8762	30.7617	72.5398	30.7617	73.6786	30.7617	73.3565	30.7617	74.4336	30.7617	74.1422	30.7617	75.0986	30.7617	74.8512	30.7617	75.6404	30.7617	75.4467	30.7617	76.0342	30.7617	75.9013	30.7617	76.2632	30.7617	76.1956	30.7617	76.3178
32.2266	71.3005	32.2266	71.2982	32.2266	71.2906	32.2266	71.2887	32.2266	71.2714	32.2266	71.285	32.2266	71.2542	32.2266	71.3086	32.2266	71.2584	32.2266	71.3881	32.2266	71.3114	32.2266	71.5563	32.2266	71.4461	32.2266	71.8428	32.2266	71.6941	32.2266	72.2644	32.2266	72.0771	32.2266	72.8175	32.2266	72.5972	32.2266	73.4764	32.2266	73.2341	32.2266	74.1988	32.2266	73.9484	32.2266	74.9354	32.2266	74.6915	32.2266	75.6377	32.2266	75.4138	32.2266	76.2636	32.2266	76.071	32.2266	76.7784	32.2266	76.6262	32.2266	77.1562	32.2266	77.0511	32.2266	77.3788	32.2266	77.3252	32.2266	77.4361
33.6914	72.7368	33.6914	72.7405	33.6914	72.7288	33.6914	72.7439	33.6914	72.7192	33.6914	72.7582	33.6914	72.7176	33.6914	72.801	33.6914	72.7405	33.6914	72.8958	33.6914	72.8109	33.6914	73.0689	33.6914	72.9552	33.6914	73.3444	33.6914	73.1991	33.6914	73.7362	33.6914	73.5601	33.6914	74.2428	33.6914	74.0405	33.6914	74.8443	33.6914	74.6244	33.6914	75.5061	33.6914	75.2798	33.6914	76.1852	33.6914	75.9647	33.6914	76.8378	33.6914	76.6347	33.6914	77.4234	33.6914	77.2481	33.6914	77.9082	33.6914	77.769	33.6914	78.2656	33.6914	78.1692	33.6914	78.4772	33.6914	78.4279	33.6914	78.5322
35.1563	74.0842	35.1563	74.0858	35.1563	74.0828	35.1563	74.0912	35.1563	74.0841	35.1563	74.1097	35.1563	74.0958	35.1563	74.1561	35.1563	74.1316	35.1563	74.2501	35.1563	74.21	35.1563	74.4138	35.1563	74.3528	35.1563	74.6677	35.1563	74.5811	35.1563	75.0248	35.1563	74.9099	35.1563	75.4853	35.1563	75.3431	35.1563	76.034	35.1563	75.8696	35.1563	76.6419	35.1563	76.4637	35.1563	77.271	35.1563	77.09	35.1563	77.8805	35.1563	77.7083	35.1563	78.4314	35.1563	78.2791	35.1563	78.8903	35.1563	78.7673	35.1563	79.2304	35.1563	79.1441	35.1563	79.4327	35.1563	79.3882	35.1563	79.4862
36.6211	75.3862	36.6211	75.3918	36.6211	75.3856	36.6211	75.4053	36.6211	75.392	36.6211	75.4344	36.6211	75.4121	36.6211	75.4911	36.6211	75.4572	36.6211	75.5915	36.6211	75.5426	36.6211	75.7536	36.6211	75.6859	36.6211	75.9942	36.6211	75.9046	36.6211	76.3243	36.6211	76.2112	36.6211	76.7452	36.6211	76.6096	36.6211	77.2453	36.6211	77.0913	36.6211	77.8008	36.6211	77.6356	36.6211	78.379	36.6211	78.2118	36.6211	78.9432	36.6211	78.784	36.6211	79.4566	36.6211	79.3155	36.6211	79.8867	36.6211	79.7725	36.6211	80.207	36.6211	80.1267	36.6211	80.3982	36.6211	80.3568	36.6211	80.4491
38.0859	76.5333	38.0859	76.5387	38.0859	76.5364	38.0859	76.5548	38.0859	76.5492	38.0859	76.5883	38.0859	76.5773	38.0859	76.6492	38.0859	76.6298	38.0859	76.7508	38.0859	76.7192	38.0859	76.9082	38.0859	76.8599	38.0859	77.1353	38.0859	77.0664	38.0859	77.4418	38.0859	77.3497	38.0859	77.8294	38.0859	77.7139	38.0859	78.2891	38.0859	78.1533	38.0859	78.8009	38.0859	78.6512	38.0859	79.3361	38.0859	79.1813	38.0859	79.8612	38.0859	79.7116	38.0859	80.3418	38.0859	80.2076	38.0859	80.7464	38.0859	80.6368	38.0859	81.0486	38.0859	80.9711	38.0859	81.2293	38.0859	81.1892	38.0859	81.2771
39.5508	77.5681	39.5508	77.577	39.5508	77.5712	39.5508	77.6	39.5508	77.5877	39.5508	77.6422	39.5508	77.6222	39.5508	77.712	39.5508	77.6825	39.5508	77.8202	39.5508	77.7789	39.5508	77.9789	39.5508	77.9235	39.5508	78.1997	39.5508	78.1279	39.5508	78.4908	39.5508	78.4013	39.5508	78.8537	39.5508	78.7468	39.5508	79.2813	39.5508	79.1594	39.5508	79.7567	39.5508	79.6249	39.5508	80.255	39.5508	80.1201	39.5508	80.746	39.5508	80.6161	39.5508	81.1975	39.5508	81.0811	39.5508	81.5794	39.5508	81.4843	39.5508	81.8662	39.5508	81.799	39.5508	82.0388	39.5508	82.0039	39.5508	82.0857
41.0156	78.5965	41.0156	78.6026	41.0156	78.6056	41.0156	78.6257	41.0156	78.631	41.0156	78.6699	41.0156	78.676	41.0156	78.742	41.0156	78.7467	41.0156	78.8506	41.0156	78.8508	41.0156	79.0051	41.0156	78.9975	41.0156	79.2149	41.0156	79.1958	41.0156	79.4864	41.0156	79.4528	41.0156	79.821	41.0156	79.771	41.0156	80.2131	41.0156	80.1469	41.0156	80.6488	41.0156	80.569	41.0156	81.1066	41.0156	81.0181	41.0156	81.5595	41.0156	81.4692	41.0156	81.9783	41.0156	81.8938	41.0156	82.3346	41.0156	82.2634	41.0156	82.6038	41.0156	82.5523	41.0156	82.7672	41.0156	82.7402	41.0156	82.8136
42.4805	79.5385	42.4805	79.5477	42.4805	79.546	42.4805	79.5752	42.4805	79.571	42.4805	79.6244	42.4805	79.6161	42.4805	79.7008	42.4805	79.6859	42.4805	79.8113	42.4805	79.7868	42.4805	79.9636	42.4805	79.9261	42.4805	80.165	42.4805	80.1114	42.4805	80.4208	42.4805	80.3488	42.4805	80.7323	42.4805	80.641	42.4805	81.0945	42.4805	80.9857	42.4805	81.4959	42.4805	81.3736	42.4805	81.9176	42.4805	81.7884	42.4805	82.3354	42.4805	82.2079	42.4805	82.7224	42.4805	82.6058	42.4805	83.0517	42.4805	82.955	42.4805	83.2998	42.4805	83.2307	42.4805	83.4485	42.4805	83.4125	42.4805	83.487
43.9453	80.2583	43.9453	80.2719	43.9453	80.263	43.9453	80.3048	43.9453	80.2865	43.9453	80.3596	43.9453	80.331	43.9453	80.4405	43.9453	80.4002	43.9453	80.5528	43.9453	80.4991	43.9453	80.7023	43.9453	80.6335	43.9453	80.895	43.9453	80.8095	43.9453	81.1352	43.9453	81.0322	43.9453	81.4239	43.9453	81.304	43.9453	81.7575	43.9453	81.6231	43.9453	82.1262	43.9453	81.9819	43.9453	82.5138	43.9453	82.3664	43.9453	82.899	43.9453	82.7567	43.9453	83.2568	43.9453	83.1288	43.9453	83.5622	43.9453	83.4571	43.9453	83.7923	43.9453	83.7177	43.9453	83.9296	43.9453	83.8909	43.9453	83.9634
45.4102	80.9712	45.4102	80.9894	45.4102	80.9726	45.4102	81.0278	45.4102	80.9941	45.4102	81.0882	45.4102	81.0375	45.4102	81.1737	45.4102	81.1058	45.4102	81.2879	45.4102	81.2027	45.4102	81.4355	45.4102	81.333	45.4102	81.6206	45.4102	81.5014	45.4102	81.8466	45.4102	81.7118	45.4102	82.1144	45.4102	81.9663	45.4102	82.4211	45.4102	82.2633	45.4102	82.7587	45.4102	82.5962	45.4102	83.1134	45.4102	82.9528	45.4102	83.4665	45.4102	83.3154	45.4102	83.7955	45.4102	83.662	45.4102	84.077	45.4102	83.9689	45.4102	84.2896	45.4102	84.2134	45.4102	84.4161	45.4102	84.3767	45.4102	84.446
46.875	81.5948	46.875	81.6145	46.875	81.5966	46.875	81.6559	46.875	81.6201	46.875	81.7202	46.875	81.6663	46.875	81.809	46.875	81.7369	46.875	81.9245	46.875	81.8344	46.875	82.0694	46.875	81.9615	46.875	82.2464	46.875	82.1217	46.875	82.4575	46.875	82.3176	46.875	82.7036	46.875	82.551	46.875	82.9827	46.875	82.8212	46.875	83.289	46.875	83.1238	46.875	83.612	46.875	83.4494	46.875	83.9357	46.875	83.7832	46.875	84.2401	46.875	84.1055	46.875	84.5031	46.875	84.3941	46.875	84.703	46.875	84.6263	46.875	84.8224	46.875	84.7827	46.875	84.85
48.3398	82.0699	48.3398	82.09	48.3398	82.0736	48.3398	82.1339	48.3398	82.1014	48.3398	82.2022	48.3398	82.1537	48.3398	82.2957	48.3398	82.2317	48.3398	82.4157	48.3398	82.3366	48.3398	82.5635	48.3398	82.4702	48.3398	82.7407	48.3398	82.6341	48.3398	82.9485	48.3398	82.8301	48.3398	83.187	48.3398	83.0587	48.3398	83.4541	48.3398	83.3188	48.3398	83.7447	48.3398	83.6061	48.3398	84.0493	48.3398	83.9125	48.3398	84.3538	48.3398	84.2248	48.3398	84.6401	48.3398	84.5255	48.3398	84.8877	48.3398	84.7943	48.3398	85.0765	48.3398	85.0104	48.3398	85.1899	48.3398	85.1557	48.3398	85.2173
51.2695	82.9836	51.2695	83.0026	51.2695	82.989	51.2695	83.046	51.2695	83.019	51.2695	83.1134	51.2695	83.0733	51.2695	83.2046	51.2695	83.1518	51.2695	83.3193	51.2695	83.2545	51.2695	83.4573	51.2695	83.3813	51.2695	83.6186	51.2695	83.5323	51.2695	83.803	51.2695	83.7077	51.2695	84.0101	51.2695	83.9074	51.2695	84.2383	51.2695	84.1304	51.2695	84.4839	51.2695	84.3736	51.2695	84.7402	51.2695	84.6311	51.2695	84.9965	51.2695	84.8933	51.2695	85.2383	51.2695	85.1463	51.2695	85.4487	51.2695	85.3734	51.2695	85.6102	51.2695	85.5567	51.2695	85.7079	51.2695	85.6801	51.2695	85.7321
52.7344	83.3094	52.7344	83.3291	52.7344	83.3163	52.7344	83.3753	52.7344	83.3497	52.7344	83.4471	52.7344	83.4093	52.7344	83.5436	52.7344	83.4941	52.7344	83.6637	52.7344	83.6031	52.7344	83.8063	52.7344	83.7355	52.7344	83.9702	52.7344	83.8901	52.7344	84.1544	52.7344	84.0662	52.7344	84.3576	52.7344	84.2627	52.7344	84.5778	52.7344	84.478	52.7344	84.8116	52.7344	84.7093	52.7344	85.0528	52.7344	84.9513	52.7344	85.2922	52.7344	85.1957	52.7344	85.517	52.7344	85.4305	52.7344	85.712	52.7344	85.6408	52.7344	85.8614	52.7344	85.8105	52.7344	85.9515	52.7344	85.925	52.7344	85.9735
54.1992	83.623	54.1992	83.6454	54.1992	83.6275	54.1992	83.6945	54.1992	83.6589	54.1992	83.7689	54.1992	83.7165	54.1992	83.8672	54.1992	83.799	54.1992	83.9875	54.1992	83.9049	54.1992	84.128	54.1992	84.0325	54.1992	84.2866	54.1992	84.1801	54.1992	84.4617	54.1992	84.3462	54.1992	84.6516	54.1992	84.5295	54.1992	84.8543	54.1992	84.7284	54.1992	85.0668	54.1992	84.9403	54.1992	85.2842	54.1992	85.161	54.1992	85.4987	54.1992	85.3835	54.1992	85.6994	54.1992	85.5976	54.1992	85.873	54.1992	85.7902	54.1992	86.0054	54.1992	85.9468	54.1992	86.084	54.1992	86.0536	54.1992	86.1009
55.6641	83.9471	55.6641	83.9733	55.6641	83.9472	55.6641	84.0252	55.6641	83.9736	55.6641	84.1011	55.6641	84.0255	55.6641	84.1991	55.6641	84.1014	55.6641	84.3168	55.6641	84.1994	55.6641	84.4515	55.6641	84.3174	55.6641	84.6009	55.6641	84.4533	55.6641	84.7628	55.6641	84.6053	55.6641	84.9354	55.6641	84.7718	55.6641	85.1168	55.6641	84.9513	55.6641	85.3047	55.6641	85.1417	55.6641	85.4953	55.6641	85.3398	55.6641	85.6824	55.6641	85.5398	55.6641	85.8571	55.6641	85.7332	55.6641	86.0078	55.6641	85.9083	55.6641	86.1219	55.6641	86.0522	55.6641	86.188	55.6641	86.1521	55.6641	86.1988
58.5938	84.5332	58.5938	84.5501	58.5938	84.5413	58.5938	84.5915	58.5938	84.5743	58.5938	84.6557	58.5938	84.631	58.5938	84.7405	58.5938	84.7093	58.5938	84.8431	58.5938	84.8067	58.5938	84.9605	58.5938	84.9203	58.5938	85.0898	58.5938	85.0473	58.5938	85.2286	58.5938	85.1851	58.5938	85.375	58.5938	85.3315	58.5938	85.5273	58.5938	85.4849	58.5938	85.6842	58.5938	85.6435	58.5938	85.8432	58.5938	85.8049	58.5938	86.0004	58.5938	85.9651	58.5938	86.1489	58.5938	86.1179	58.5938	86.2797	58.5938	86.2543	58.5938	86.3823	58.5938	86.3641	58.5938	86.4466	58.5938	86.4371	58.5938	86.4656
60.0586	84.7384	60.0586	84.7528	60.0586	84.7492	60.0586	84.7919	60.0586	84.785	60.0586	84.8541	60.0586	84.844	60.0586	84.9369	60.0586	84.9241	60.0586	85.0372	60.0586	85.0221	60.0586	85.1516	60.0586	85.1349	60.0586	85.2768	60.0586	85.259	60.0586	85.4101	60.0586	85.3916	60.0586	85.5489	60.0586	85.5301	60.0586	85.6917	60.0586	85.6728	60.0586	85.8369	60.0586	85.818	60.0586	85.9827	60.0586	85.9638	60.0586	86.1257	60.0586	86.1072	60.0586	86.2605	60.0586	86.243	60.0586	86.3791	60.0586	86.364	60.0586	86.4723	60.0586	86.4611	60.0586	86.5313	60.0586	86.5252	60.0586	86.5495
62.9883	85.0368	62.9883	85.0542	62.9883	85.0459	62.9883	85.0972	62.9883	85.081	62.9883	85.1638	62.9883	85.1405	62.9883	85.2509	62.9883	85.2215	62.9883	85.3546	62.9883	85.3205	62.9883	85.4708	62.9883	85.4333	62.9883	85.5952	62.9883	85.5559	62.9883	85.724	62.9883	85.6842	62.9883	85.8541	62.9883	85.8152	62.9883	85.9836	62.9883	85.9463	62.9883	86.1107	62.9883	86.0757	62.9883	86.2344	62.9883	86.2022	62.9883	86.3527	62.9883	86.3236	62.9883	86.4622	62.9883	86.4368	62.9883	86.5574	62.9883	86.5368	62.9883	86.6316	62.9883	86.6169	62.9883	86.6779	62.9883	86.6702	62.9883	86.6913
64.4531	85.1815	64.4531	85.1979	64.4531	85.1921	64.4531	85.2405	64.4531	85.2293	64.4531	85.3071	64.4531	85.2912	64.4531	85.3944	64.4531	85.3747	64.4531	85.4981	64.4531	85.4758	64.4531	85.6137	64.4531	85.5902	64.4531	85.7366	64.4531	85.713	64.4531	85.8626	64.4531	85.8401	64.4531	85.9883	64.4531	85.9677	64.4531	86.1113	64.4531	86.0931	64.4531	86.2301	64.4531	86.2144	64.4531	86.3439	64.4531	86.3304	64.4531	86.4513	64.4531	86.4396	64.4531	86.5499	64.4531	86.5398	64.4531	86.6354	64.4531	86.6271	64.4531	86.7023	64.4531	86.6963	64.4531	86.7448	64.4531	86.7415	64.4531	86.7583
67.3828	85.4131	67.3828	85.4274	67.3828	85.4262	67.3828	85.4685	67.3828	85.4662	67.3828	85.5337	67.3828	85.531	67.3828	85.6197	67.3828	85.617	67.3828	85.7216	67.3828	85.7198	67.3828	85.8344	67.3828	85.8343	67.3828	85.9527	67.3828	85.955	67.3828	86.0718	67.3828	86.0771	67.3828	86.1875	67.3828	86.196	67.3828	86.2971	67.3828	86.3086	67.3828	86.3992	67.3828	86.4129	67.3828	86.4931	67.3828	86.5079	67.3828	86.5787	67.3828	86.5932	67.3828	86.6554	67.3828	86.6683	67.3828	86.7212	67.3828	86.7314	67.3828	86.7729	67.3828	86.7798	67.3828	86.8067	67.3828	86.8102	67.3828	86.8195
68.8477	85.4763	68.8477	85.4894	68.8477	85.4909	68.8477	85.5294	68.8477	85.5326	68.8477	85.5938	68.8477	85.5991	68.8477	85.6789	68.8477	85.6868	68.8477	85.7798	68.8477	85.7909	68.8477	85.8911	68.8477	85.9061	68.8477	86.0072	68.8477	86.0266	68.8477	86.1231	68.8477	86.1471	68.8477	86.2344	68.8477	86.2628	68.8477	86.3381	68.8477	86.3703	68.8477	86.4326	68.8477	86.4673	68.8477	86.5177	68.8477	86.553	68.8477	86.5937	68.8477	86.6273	68.8477	86.6608	68.8477	86.6905	68.8477	86.718	68.8477	86.7419	68.8477	86.7633	68.8477	86.7799	68.8477	86.7939	68.8477	86.8024	68.8477	86.8073
71.7773	85.7332	71.7773	85.741	71.7773	85.7523	71.7773	85.775	71.7773	85.7974	71.7773	85.8328	71.7773	85.866	71.7773	85.9106	71.7773	85.9543	71.7773	86.0036	71.7773	86.0571	71.7773	86.1062	71.7773	86.1688	71.7773	86.2125	71.7773	86.2832	71.7773	86.3168	71.7773	86.3944	71.7773	86.4145	71.7773	86.4974	71.7773	86.5022	71.7773	86.5883	71.7773	86.5781	71.7773	86.6648	71.7773	86.6425	71.7773	86.7263	71.7773	86.6965	71.7773	86.7737	71.7773	86.7418	71.7773	86.8086	71.7773	86.7797	71.7773	86.8329	71.7773	86.8106	71.7773	86.8474	71.7773	86.8336	71.7773	86.8524	71.7773	86.8478
74.707	86.0721	74.707	86.0821	74.707	86.0867	74.707	86.1158	74.707	86.1252	74.707	86.1708	74.707	86.1853	74.707	86.243	74.707	86.2632	74.707	86.3274	74.707	86.3539	74.707	86.4183	74.707	86.4515	74.707	86.5096	74.707	86.5497	74.707	86.5955	74.707	86.6424	74.707	86.6712	74.707	86.7242	74.707	86.7335	74.707	86.7912	74.707	86.7809	74.707	86.8413	74.707	86.8142	74.707	86.8744	74.707	86.8359	74.707	86.8926	74.707	86.8495	74.707	86.8993	74.707	86.8585	74.707	86.8985	74.707	86.8656	74.707	86.8935	74.707	86.8725	74.707	86.8867	74.707	86.8795
77.6367	86.1987	77.6367	86.2115	77.6367	86.211	77.6367	86.2485	77.6367	86.2479	77.6367	86.3071	77.6367	86.307	77.6367	86.3831	77.6367	86.3845	77.6367	86.4712	77.6367	86.4753	77.6367	86.5653	77.6367	86.5732	77.6367	86.6584	77.6367	86.6715	77.6367	86.7442	77.6367	86.7631	77.6367	86.8167	77.6367	86.842	77.6367	86.8716	77.6367	86.9032	77.6367	86.907	77.6367	86.9437	77.6367	86.9232	77.6367	86.9633	77.6367	86.9234	77.6367	86.9641	77.6367	86.9129	77.6367	86.9509	77.6367	86.8979	77.6367	86.9299	77.6367	86.8845	77.6367	86.9075	77.6367	86.8771	77.6367	86.8892	77.6367	86.8785
79.1016	86.225	79.1016	86.2392	79.1016	86.2356	79.1016	86.2772	79.1016	86.2704	79.1016	86.3364	79.1016	86.3271	79.1016	86.4125	79.1016	86.402	79.1016	86.5002	79.1016	86.49	79.1016	86.5931	79.1016	86.5848	79.1016	86.6845	79.1016	86.6795	79.1016	86.7674	79.1016	86.7672	79.1016	86.8358	79.1016	86.8414	79.1016	86.8853	79.1016	86.8971	79.1016	86.9137	79.1016	86.9312	79.1016	86.9213	79.1016	86.9435	79.1016	86.9118	79.1016	86.9363	79.1016	86.8907	79.1016	86.9151	79.1016	86.8653	79.1016	86.8866	79.1016	86.8427	79.1016	86.8584	79.1016	86.8284	79.1016	86.8368	79.1016	86.8262
82.0313	86.3026	82.0313	86.3211	82.0313	86.3078	82.0313	86.3624	82.0313	86.3365	82.0313	86.4238	82.0313	86.3864	82.0313	86.5011	82.0313	86.4539	82.0313	86.5887	82.0313	86.5341	82.0313	86.6802	82.0313	86.6208	82.0313	86.7684	82.0313	86.707	82.0313	86.8462	82.0313	86.7858	82.0313	86.9072	82.0313	86.8504	82.0313	86.9464	82.0313	86.8956	82.0313	86.9615	82.0313	86.9184	82.0313	86.9529	82.0313	86.9184	82.0313	86.9245	82.0313	86.8986	82.0313	86.8831	82.0313	86.8649	82.0313	86.8374	82.0313	86.8256	82.0313	86.7964	82.0313	86.7895	82.0313	86.7679	82.0313	86.7648	82.0313	86.7568
84.9609	86.3988	84.9609	86.4162	84.9609	86.4048	84.9609	86.456	84.9609	86.4338	84.9609	86.5155	84.9609	86.4837	84.9609	86.5907	84.9609	86.5509	84.9609	86.6761	84.9609	86.6303	84.9609	86.7649	84.9609	86.7158	84.9609	86.8499	84.9609	86.8002	84.9609	86.9237	84.9609	86.8763	84.9609	86.9795	84.9609	86.9371	84.9609	87.012	84.9609	86.977	84.9609	87.0187	84.9609	86.9924	84.9609	87.0001	84.9609	86.983	84.9609	86.9604	84.9609	86.9517	84.9609	86.9071	84.9609	86.905	84.9609	86.8503	84.9609	86.8522	84.9609	86.8005	84.9609	86.8038	84.9609	86.7672	84.9609	86.7694	84.9609	86.7562
87.8906	86.4427	87.8906	86.4602	87.8906	86.4471	87.8906	86.4987	87.8906	86.473	87.8906	86.5557	87.8906	86.5184	87.8906	86.6271	87.8906	86.58	87.8906	86.7075	87.8906	86.6528	87.8906	86.7904	87.8906	86.7307	87.8906	86.8683	87.8906	86.8067	87.8906	86.9336	87.8906	86.8734	87.8906	86.9793	87.8906	86.9235	87.8906	86.9999	87.8906	86.9513	87.8906	86.9926	87.8906	86.9532	87.8906	86.958	87.8906	86.9286	87.8906	86.9005	87.8906	86.881	87.8906	86.8288	87.8906	86.8177	87.8906	86.7542	87.8906	86.7493	87.8906	86.6894	87.8906	86.688	87.8906	86.6455	87.8906	86.6454	87.8906	86.6301
90.8203	86.4135	90.8203	86.4307	90.8203	86.4177	90.8203	86.4684	90.8203	86.4431	90.8203	86.5243	90.8203	86.4875	90.8203	86.5943	90.8203	86.5478	90.8203	86.6732	90.8203	86.6191	90.8203	86.7542	90.8203	86.6953	90.8203	86.8298	90.8203	86.7691	90.8203	86.8922	90.8203	86.833	90.8203	86.934	90.8203	86.8796	90.8203	86.9495	90.8203	86.9027	90.8203	86.9355	90.8203	86.8984	90.8203	86.8925	90.8203	86.8661	90.8203	86.8254	90.8203	86.8094	90.8203	86.7433	90.8203	86.7359	90.8203	86.6587	90.8203	86.6572	90.8203	86.5854	90.8203	86.5867	90.8203	86.5361	90.8203	86.5376	90.8203	86.5193
95.2148	86.5659	95.2148	86.5856	95.2148	86.5641	95.2148	86.6224	95.2148	86.5796	95.2148	86.6739	95.2148	86.6107	95.2148	86.7367	95.2148	86.6544	95.2148	86.8056	95.2148	86.7061	95.2148	86.8741	95.2148	86.7602	95.2148	86.9345	95.2148	86.8098	95.2148	86.9787	95.2148	86.8475	95.2148	86.9991	95.2148	86.866	95.2148	86.9895	95.2148	86.8595	95.2148	86.9465	95.2148	86.8245	95.2148	86.8707	95.2148	86.7609	95.2148	86.7676	95.2148	86.6733	95.2148	86.6477	95.2148	86.5713	95.2148	86.5259	95.2148	86.4686	95.2148	86.4194	95.2148	86.3814	95.2148	86.344	95.2148	86.3251	95.2148	86.3113
98.1445	86.5626	98.1445	86.5716	98.1445	86.5716	98.1445	86.5981	98.1445	86.598	98.1445	86.6405	98.1445	86.6396	98.1445	86.6953	98.1445	86.6931	98.1445	86.7578	98.1445	86.7538	98.1445	86.8215	98.1445	86.8158	98.1445	86.8788	98.1445	86.8719	98.1445	86.9214	98.1445	86.9143	98.1445	86.9415	98.1445	86.9356	98.1445	86.9327	98.1445	86.9296	98.1445	86.8915	98.1445	86.8925	98.1445	86.8183	98.1445	86.8241	98.1445	86.7188	98.1445	86.7291	98.1445	86.6037	98.1445	86.6171	98.1445	86.4881	98.1445	86.5022	98.1445	86.3896	98.1445	86.4014	98.1445	86.3244	98.1445	86.3311	98.1445	86.3037
101.074	86.5572	101.074	86.5663	101.074	86.5656	101.074	86.5923	101.074	86.591	101.074	86.6336	101.074	86.6316	101.074	86.687	101.074	86.6843	101.074	86.748	101.074	86.7448	101.074	86.8102	101.074	86.8069	101.074	86.8664	101.074	86.8635	101.074	86.9081	101.074	86.9065	101.074	86.9275	101.074	86.9281	101.074	86.9178	101.074	86.9217	101.074	86.8754	101.074	86.8831	101.074	86.8002	101.074	86.812	101.074	86.6978	101.074	86.7131	101.074	86.5789	101.074	86.5961	101.074	86.4592	101.074	86.4758	101.074	86.3568	101.074	86.3701	101.074	86.2888	101.074	86.2962	101.074	86.2673
105.469	86.4353	105.469	86.4451	105.469	86.4388	105.469	86.4677	105.469	86.455	105.469	86.5017	105.469	86.483	105.469	86.5444	105.469	86.5203	105.469	86.5918	105.469	86.5632	105.469	86.638	105.469	86.6068	105.469	86.676	105.469	86.6444	105.469	86.6976	105.469	86.6684	105.469	86.6949	105.469	86.6712	105.469	86.6613	105.469	86.646	105.469	86.5934	105.469	86.5885	105.469	86.4917	105.469	86.4981	105.469	86.3627	105.469	86.3792	105.469	86.2187	105.469	86.2423	105.469	86.0772	105.469	86.1028	105.469	85.9584	105.469	85.9801	105.469	85.8811	105.469	85.8936	105.469	85.8583
108.398	86.5495	108.398	86.5525	108.398	86.5583	108.398	86.5668	108.398	86.5784	108.398	86.5913	108.398	86.6087	108.398	86.6237	108.398	86.6469	108.398	86.6601	108.398	86.6896	108.398	86.6952	108.398	86.7316	108.398	86.7222	108.398	86.7664	108.398	86.7335	108.398	86.7866	108.398	86.7214	108.398	86.7845	108.398	86.6797	108.398	86.7532	108.398	86.605	108.398	86.6884	108.398	86.4982	108.398	86.5895	108.398	86.366	108.398	86.4609	108.398	86.221	108.398	86.3129	108.398	86.0808	108.398	86.1615	108.398	85.966	108.398	86.0264	108.398	85.8953	108.398	85.9278	108.398	85.8816
112.793	86.6055	112.793	86.6157	112.793	86.6077	112.793	86.6374	112.793	86.6223	112.793	86.6693	112.793	86.6483	112.793	86.7087	112.793	86.6839	112.793	86.7514	112.793	86.7255	112.793	86.7918	112.793	86.7679	112.793	86.8227	112.793	86.804	112.793	86.8358	112.793	86.8257	112.793	86.8231	112.793	86.8243	112.793	86.7779	112.793	86.7923	112.793	86.6966	112.793	86.7247	112.793	86.5799	112.793	86.6206	112.793	86.4349	112.793	86.4848	112.793	86.2748	112.793	86.3285	112.793	86.1186	112.793	86.169	112.793	85.9885	112.793	86.0278	112.793	85.9054	112.793	85.927	112.793	85.8835
117.188	86.5914	117.188	86.5942	117.188	86.5955	117.188	86.6037	117.188	86.6061	117.188	86.6197	117.188	86.623	117.188	86.6407	117.188	86.645	117.188	86.664	117.188	86.6701	117.188	86.6852	117.188	86.6945	117.188	86.6977	117.188	86.7124	117.188	86.6936	117.188	86.7165	117.188	86.6649	117.188	86.6988	117.188	86.6042	117.188	86.6515	117.188	86.5075	117.188	86.5689	117.188	86.3753	117.188	86.4494	117.188	86.2144	117.188	86.2971	117.188	86.0387	117.188	86.1231	117.188	85.8687	117.188	85.9454	117.188	85.7283	117.188	85.7872	117.188	85.6403	117.188	85.6724	117.188	85.6204
120.117	86.5668	120.117	86.5678	120.117	86.5717	120.117	86.5749	120.117	86.5823	120.117	86.5878	120.117	86.5983	120.117	86.6057	120.117	86.6186	120.117	86.626	120.117	86.6414	120.117	86.6446	120.117	86.663	120.117	86.6552	120.117	86.678	120.117	86.6501	120.117	86.6793	120.117	86.6212	120.117	86.6591	120.117	86.5613	120.117	86.61	120.117	86.4662	120.117	86.5265	120.117	86.3362	120.117	86.4072	120.117	86.178	120.117	86.2562	120.117	86.0053	120.117	86.0845	120.117	85.8381	120.117	85.9098	120.117	85.6998	120.117	85.7547	120.117	85.6129	120.117	85.6427	120.117	85.5925
124.512	86.5889	124.512	86.5841	124.512	86.5991	124.512	86.5848	124.512	86.6145	124.512	86.591	124.512	86.6354	124.512	86.6023	124.512	86.661	124.512	86.6169	124.512	86.6899	124.512	86.6312	124.512	86.7185	124.512	86.6393	124.512	86.7413	124.512	86.6339	124.512	86.7509	124.512	86.6069	124.512	86.739	124.512	86.5511	124.512	86.6975	124.512	86.4621	124.512	86.6206	124.512	86.3402	124.512	86.5063	124.512	86.1921	124.512	86.3585	124.512	86.0313	124.512	86.1878	124.512	85.8774	124.512	86.0116	124.512	85.7533	124.512	85.8522	124.512	85.6802	124.512	85.7329	124.512	85.6724
128.906	86.4617	128.906	86.4644	128.906	86.4624	128.906	86.4699	128.906	86.4673	128.906	86.4781	128.906	86.4773	128.906	86.4883	128.906	86.4928	128.906	86.4987	128.906	86.513	128.906	86.5061	128.906	86.5347	128.906	86.505	128.906	86.5526	128.906	86.4885	128.906	86.5589	128.906	86.449	128.906	86.5448	128.906	86.3797	128.906	86.5013	128.906	86.2769	128.906	86.422	128.906	86.1414	128.906	86.3044	128.906	85.9808	128.906	86.1523	128.906	85.8094	128.906	85.9762	128.906	85.6477	128.906	85.7939	128.906	85.519	128.906	85.6284	128.906	85.4448	128.906	85.5035	128.906	85.4389
133.301	86.34	133.301	86.3574	133.301	86.3242	133.301	86.3758	133.301	86.311	133.301	86.3951	133.301	86.3019	133.301	86.4149	133.301	86.2982	133.301	86.4335	133.301	86.3002	133.301	86.4474	133.301	86.3057	133.301	86.4511	133.301	86.3104	133.301	86.4372	133.301	86.3072	133.301	86.3976	133.301	86.2873	133.301	86.3253	133.301	86.2419	133.301	86.2163	133.301	86.1642	133.301	86.0715	133.301	86.0517	133.301	85.8986	133.301	85.9077	133.301	85.7126	133.301	85.7427	133.301	85.5345	133.301	85.5743	133.301	85.3883	133.301	85.4248	133.301	85.2958	133.301	85.3175	133.301	85.2714
139.16	86.1942	139.16	86.2144	139.16	86.1717	139.16	86.233	139.16	86.1473	139.16	86.2511	139.16	86.1223	139.16	86.2694	139.16	86.0982	139.16	86.2874	139.16	86.0761	139.16	86.3021	139.16	86.0553	139.16	86.3078	139.16	86.0329	139.16	86.2964	139.16	86.0031	139.16	86.259	139.16	85.9586	139.16	86.1872	139.16	85.892	139.16	86.0757	139.16	85.7975	139.16	85.9245	139.16	85.6737	139.16	85.7405	139.16	85.5254	139.16	85.5383	139.16	85.3644	139.16	85.3387	139.16	85.2086	139.16	85.166	139.16	85.0802	139.16	85.0431	139.16	85.0006	139.16	84.9862
143.555	86.1391	143.555	86.1395	143.555	86.1322	143.555	86.1351	143.555	86.1187	143.555	86.1281	143.555	86.0994	143.555	86.1208	143.555	86.0761	143.555	86.1142	143.555	86.0498	143.555	86.1066	143.555	86.0202	143.555	86.0937	143.555	85.9847	143.555	86.068	143.555	85.9384	143.555	86.0205	143.555	85.8745	143.555	85.9427	143.555	85.7863	143.555	85.8285	143.555	85.669	143.555	85.6773	143.555	85.5224	143.555	85.4952	143.555	85.3523	143.555	85.2959	143.555	85.172	143.555	85.0997	143.555	85.0008	143.555	84.9303	143.555	84.8614	143.555	84.8102	143.555	84.7748	143.555	84.7562
147.949	86.0619	147.949	86.0506	147.949	86.0633	147.949	86.0307	147.949	86.0549	147.949	86.0046	147.949	86.0379	147.949	85.9749	147.949	86.0144	147.949	85.9435	147.949	85.9855	147.949	85.9096	147.949	85.9513	147.949	85.8701	147.949	85.9089	147.949	85.8187	147.949	85.8532	147.949	85.7475	147.949	85.7773	147.949	85.6487	147.949	85.6743	147.949	85.5172	147.949	85.5394	147.949	85.3533	147.949	85.3727	147.949	85.1638	147.949	85.1806	147.949	84.9631	147.949	84.977	147.949	84.7716	147.949	84.7822	147.949	84.6126	147.949	84.6196	147.949	84.5076	147.949	84.511	147.949	84.4719
153.809	86.0133	153.809	86.0116	153.809	86.0015	153.809	85.9969	153.809	85.977	153.809	85.971	153.809	85.9419	153.809	85.9358	153.809	85.899	153.809	85.8926	153.809	85.8505	153.809	85.8405	153.809	85.7968	153.809	85.7763	153.809	85.7357	153.809	85.6941	153.809	85.662	153.809	85.5869	153.809	85.5688	153.809	85.4483	153.809	85.4484	153.809	85.2751	153.809	85.2956	153.809	85.0699	153.809	85.11	153.809	84.8427	153.809	84.8981	153.809	84.6111	153.809	84.674	153.809	84.3981	153.809	84.4586	153.809	84.2284	153.809	84.2761	153.809	84.1233	153.809	84.1495	153.809	84.0959
159.668	86.0064	159.668	86.0063	159.668	85.9924	159.668	85.9936	159.668	85.9644	159.668	85.9706	159.668	85.9239	159.668	85.94	159.668	85.873	159.668	85.903	159.668	85.8136	159.668	85.8586	159.668	85.7459	159.668	85.8026	159.668	85.6678	159.668	85.7281	159.668	85.5747	159.668	85.6266	159.668	85.4603	159.668	85.4903	159.668	85.3182	159.668	85.3149	159.668	85.145	159.668	85.1022	159.668	84.942	159.668	84.8618	159.668	84.7182	159.668	84.6111	159.668	84.4898	159.668	84.3739	159.668	84.2792	159.668	84.1759	159.668	84.1111	159.668	84.04	159.668	84.007	159.668	83.9817
165.527	85.9794	165.527	85.9692	165.527	85.9759	165.527	85.9468	165.527	85.9588	165.527	85.9154	165.527	85.9298	165.527	85.8784	165.527	85.8916	165.527	85.8379	165.527	85.8463	165.527	85.7936	165.527	85.7943	165.527	85.7416	165.527	85.733	165.527	85.6749	165.527	85.6568	165.527	85.5847	165.527	85.5583	165.527	85.4629	165.527	85.4301	165.527	85.3047	165.527	85.2677	165.527	85.1117	165.527	85.0726	165.527	84.8932	165.527	84.8537	165.527	84.6658	165.527	84.628	165.527	84.452	165.527	84.4185	165.527	84.2753	165.527	84.2497	165.527	84.1566	165.527	84.1426	165.527	84.1104
171.387	85.929	171.387	85.9041	171.387	85.9353	171.387	85.863	171.387	85.923	171.387	85.8097	171.387	85.8942	171.387	85.7491	171.387	85.8518	171.387	85.6853	171.387	85.7989	171.387	85.6199	171.387	85.7366	171.387	85.551	171.387	85.6638	171.387	85.4729	171.387	85.5761	171.387	85.3776	171.387	85.4674	171.387	85.2574	171.387	85.3315	171.387	85.1075	171.387	85.1651	171.387	84.9296	171.387	84.9704	171.387	84.7322	171.387	84.757	171.387	84.5311	171.387	84.5418	171.387	84.3457	171.387	84.3461	171.387	84.1958	171.387	84.1911	171.387	84.0975	171.387	84.0934	171.387	84.0617
177.246	85.7398	177.246	85.7165	177.246	85.744	177.246	85.674	177.246	85.7316	177.246	85.6143	177.246	85.7069	177.246	85.5408	177.246	85.6747	177.246	85.4569	177.246	85.6388	177.246	85.3645	177.246	85.5997	177.246	85.2629	177.246	85.5541	177.246	85.1483	177.246	85.4944	177.246	85.0159	177.246	85.4105	177.246	84.8611	177.246	85.2925	177.246	84.6832	177.246	85.1342	177.246	84.4877	177.246	84.9361	177.246	84.2866	177.246	84.7072	177.246	84.0979	177.246	84.465	177.246	83.9408	177.246	84.2326	177.246	83.8322	177.246	84.0334	177.246	83.7838	177.246	83.8858	177.246	83.8013
183.105	85.4549	183.105	85.4713	183.105	85.4096	183.105	85.4592	183.105	85.338	183.105	85.4215	183.105	85.2458	183.105	85.3623	183.105	85.141	183.105	85.2852	183.105	85.0321	183.105	85.1925	183.105	84.9262	183.105	85.0834	183.105	84.8265	183.105	84.9543	183.105	84.7312	183.105	84.8006	183.105	84.6335	183.105	84.6188	183.105	84.5247	183.105	84.4106	183.105	84.3973	183.105	84.1851	183.105	84.2488	183.105	83.9593	183.105	84.0841	183.105	83.7556	183.105	83.9145	183.105	83.5951	183.105	83.755	183.105	83.4911	183.105	83.6193	183.105	83.4471	183.105	83.518	183.105	83.4584
188.965	85.5003	188.965	85.5122	188.965	85.4551	188.965	85.4937	188.965	85.3764	188.965	85.4492	188.965	85.2666	188.965	85.384	188.965	85.1307	188.965	85.3019	188.965	84.9748	188.965	85.204	188.965	84.8049	188.965	85.0878	188.965	84.6254	188.965	84.9469	188.965	84.4378	188.965	84.7737	188.965	84.2408	188.965	84.5621	188.965	84.0325	188.965	84.3117	188.965	83.8132	188.965	84.0314	188.965	83.5889	188.965	83.7399	188.965	83.3717	188.965	83.4631	188.965	83.1787	188.965	83.2269	188.965	83.0258	188.965	83.0485	188.965	82.9233	188.965	82.9331	188.965	82.8738	188.965	82.8765
196.289	85.4424	196.289	85.4077	196.289	85.4442	196.289	85.3439	196.289	85.4124	196.289	85.2573	196.289	85.3488	196.289	85.1558	196.289	85.2573	196.289	85.0467	196.289	85.1419	196.289	84.9342	196.289	85.0057	196.289	84.818	196.289	84.8495	196.289	84.6923	196.289	84.6709	196.289	84.5475	196.289	84.4658	196.289	84.3741	196.289	84.231	196.289	84.1669	196.289	83.9675	196.289	83.9291	196.289	83.685	196.289	83.6733	196.289	83.4028	196.289	83.4199	196.289	83.1478	196.289	83.1908	196.289	82.9471	196.289	83.0031	196.289	82.8188	196.289	82.8664	196.289	82.7671	196.289	82.7858
203.613	85.3012	203.613	85.2633	203.613	85.3001	203.613	85.1887	203.613	85.2611	203.613	85.0826	203.613	85.1883	203.613	84.9523	203.613	85.0872	203.613	84.8056	203.613	84.964	203.613	84.6486	203.613	84.8228	203.613	84.4836	203.613	84.6647	203.613	84.3089	203.613	84.4869	203.613	84.1197	203.613	84.2841	203.613	83.9118	203.613	84.052	203.613	83.6852	203.613	83.7912	203.613	83.448	203.613	83.5114	203.613	83.2156	203.613	83.233	203.613	83.0072	203.613	82.9832	203.613	82.8382	203.613	82.7878	203.613	82.7148	203.613	82.6609	203.613	82.6351	203.613	82.6009	203.613	82.596
210.938	85.2662	210.938	85.2269	210.938	85.2619	210.938	85.1447	210.938	85.2163	210.938	85.0239	210.938	85.1348	210.938	84.8709	210.938	85.0241	210.938	84.6929	210.938	84.8914	210.938	84.4965	210.938	84.7412	210.938	84.2849	210.938	84.5741	210.938	84.058	210.938	84.3861	210.938	83.8134	210.938	84.1703	210.938	83.5499	210.938	83.92	210.938	83.2722	210.938	83.6348	210.938	82.994	210.938	83.3246	210.938	82.7369	210.938	83.0117	210.938	82.5242	210.938	82.7272	210.938	82.3708	210.938	82.5001	210.938	82.2769	210.938	82.3454	210.938	82.2319	210.938	82.2591	210.938	82.2257
218.262	85.1863	218.262	85.1641	218.262	85.1654	218.262	85.0983	218.262	85.1049	218.262	84.9915	218.262	85.0113	218.262	84.8482	218.262	84.8926	218.262	84.6733	218.262	84.7564	218.262	84.4704	218.262	84.6076	218.262	84.2401	218.262	84.4459	218.262	83.98	218.262	84.2654	218.262	83.6867	218.262	84.0561	218.262	83.3605	218.262	83.8084	218.262	83.0105	218.262	83.5186	218.262	82.6589	218.262	83.1948	218.262	82.3394	218.262	82.8588	218.262	82.0872	218.262	82.543	218.262	81.9239	218.262	82.2787	218.262	81.8475	218.262	82.0833	218.262	81.8383	218.262	81.954	218.262	81.8758
225.586	85.0688	225.586	85.0946	225.586	84.9949	225.586	85.0723	225.586	84.877	225.586	85.0048	225.586	84.7237	225.586	84.8967	225.586	84.5471	225.586	84.7526	225.586	84.3611	225.586	84.5748	225.586	84.1779	225.586	84.3622	225.586	84.0041	225.586	84.1104	225.586	83.8381	225.586	83.8145	225.586	83.6707	225.586	83.4742	225.586	83.4894	225.586	83.1002	225.586	83.2849	225.586	82.7194	225.586	83.0573	225.586	82.3735	225.586	82.8186	225.586	82.1077	225.586	82.5894	225.586	81.9507	225.586	82.3894	225.586	81.9002	225.586	82.2282	225.586	81.9282	225.586	82.1019	225.586	82.0018
232.91	85.158	232.91	85.1706	232.91	85.0938	232.91	85.1373	232.91	84.9753	232.91	85.0658	232.91	84.8032	232.91	84.9641	232.91	84.5817	232.91	84.8381	232.91	84.3178	232.91	84.6891	232.91	84.0199	232.91	84.5125	232.91	83.6969	232.91	84.2981	232.91	83.3567	232.91	84.0341	232.91	83.0074	232.91	83.7125	232.91	82.6595	232.91	83.3375	232.91	82.3298	232.91	82.9312	232.91	82.0426	232.91	82.535	232.91	81.8249	232.91	82.1993	232.91	81.6948	232.91	81.9619	232.91	81.6489	232.91	81.827	232.91	81.6614	232.91	81.7643	232.91	81.6969	232.91	81.7307
241.699	85.0446	241.699	84.9875	241.699	85.0525	241.699	84.8867	241.699	85.0096	241.699	84.7516	241.699	84.9182	241.699	84.5938	241.699	84.7831	241.699	84.4237	241.699	84.609	241.699	84.2473	241.699	84.3986	241.699	84.063	241.699	84.1498	241.699	83.8609	241.699	83.8555	241.699	83.6269	241.699	83.5068	241.699	83.3493	241.699	83.0988	241.699	83.0273	241.699	82.6409	241.699	82.6772	241.699	82.1653	241.699	82.3331	241.699	81.7303	241.699	82.0348	241.699	81.405	241.699	81.8081	241.699	81.2361	241.699	81.6488	241.699	81.2175	241.699	81.5267	241.699	81.2963	241.699	81.4109
250.488	84.9337	250.488	84.8813	250.488	84.9235	250.488	84.7688	250.488	84.852	250.488	84.6029	250.488	84.7249	250.488	84.3928	250.488	84.5504	250.488	84.148	250.488	84.3372	250.488	83.8753	250.488	84.0916	250.488	83.5754	250.488	83.8141	250.488	83.2426	250.488	83.4979	250.488	82.8674	250.488	83.1311	250.488	82.4452	250.488	82.7035	250.488	81.9863	250.488	82.2174	250.488	81.5251	250.488	81.6998	250.488	81.1186	250.488	81.2083	250.488	80.8247	250.488	80.819	250.488	80.6669	250.488	80.5887	250.488	80.6151	250.488	80.5155	250.488	80.6052	250.488	80.5388	250.488	80.5831
259.277	85.3258	259.277	85.2901	259.277	85.3144	259.277	85.2104	259.277	85.2566	259.277	85.0926	259.277	85.1563	259.277	84.944	259.277	85.0188	259.277	84.77	259.277	84.8489	259.277	84.5705	259.277	84.647	259.277	84.3375	259.277	84.4074	259.277	84.0549	259.277	84.1167	259.277	83.7027	259.277	83.7567	259.277	83.2645	259.277	83.311	259.277	82.7383	259.277	82.7749	259.277	82.1479	259.277	82.1683	259.277	81.5497	259.277	81.545	259.277	81.0239	259.277	80.9888	259.277	80.6404	259.277	80.5817	259.277	80.4168	259.277	80.3554	259.277	80.3124	259.277	80.2736	259.277	80.2713
268.066	84.476	268.066	84.4174	268.066	84.4773	268.066	84.3083	268.066	84.4214	268.066	84.162	268.066	84.3149	268.066	83.9963	268.066	84.169	268.066	83.8282	268.066	83.9964	268.066	83.6684	268.066	83.8069	268.066	83.5147	268.066	83.6022	268.066	83.3511	268.066	83.3733	268.066	83.1534	268.066	83.1026	268.066	82.8992	268.066	82.7716	268.066	82.5809	268.066	82.3742	268.066	82.215	268.066	81.9293	268.066	81.8438	268.066	81.4892	268.066	81.5222	268.066	81.1294	268.066	81.2897	268.066	80.9133	268.066	81.1459	268.066	80.8505	268.066	81.0539	268.066	80.8923	268.066	80.9725
276.855	84.6864	276.855	84.6066	276.855	84.7068	276.855	84.4649	276.855	84.6746	276.855	84.264	276.855	84.5986	276.855	84.012	276.855	84.4871	276.855	83.7199	276.855	84.3455	276.855	83.3981	276.855	84.1732	276.855	83.0505	276.855	83.9619	276.855	82.6715	276.855	83.695	276.855	82.2486	276.855	83.3505	276.855	81.7721	276.855	82.9065	276.855	81.2496	276.855	82.3518	276.855	80.7202	276.855	81.7002	276.855	80.2544	276.855	81.0076	276.855	79.926	276.855	80.3758	276.855	79.7624	276.855	79.9207	276.855	79.7195	276.855	79.6979	276.855	79.7149	276.855	79.6576	276.855	79.6909
287.109	84.5683	287.109	84.5952	287.109	84.4756	287.109	84.5577	287.109	84.3264	287.109	84.4651	287.109	84.14	287.109	84.3308	287.109	83.9428	287.109	84.1663	287.109	83.7596	287.109	83.9749	287.109	83.6017	287.109	83.7461	287.109	83.4584	287.109	83.4557	287.109	83.2969	287.109	83.0717	287.109	83.0734	287.109	82.5673	287.109	82.7482	287.109	81.9382	287.109	82.3024	287.109	81.2233	287.109	81.7507	287.109	80.5191	287.109	81.1515	287.109	79.9619	287.109	80.599	287.109	79.6544	287.109	80.1855	287.109	79.5859	287.109	79.9429	287.109	79.6493	287.109	79.8217	287.109	79.7392
297.363	84.2877	297.363	84.2615	297.363	84.2286	297.363	84.1643	297.363	84.0797	297.363	84.0173	297.363	83.8479	297.363	83.8456	297.363	83.5534	297.363	83.6717	297.363	83.2283	297.363	83.5071	297.363	82.9077	297.363	83.3438	297.363	82.6144	297.363	83.1526	297.363	82.3438	297.363	82.8903	297.363	82.0629	297.363	82.5148	297.363	81.7269	297.363	82.0038	297.363	81.3067	297.363	81.3753	297.363	80.814	297.363	80.7054	297.363	80.315	297.363	80.1239	297.363	79.9128	297.363	79.7548	297.363	79.6876	297.363	79.6235	297.363	79.6321	297.363	79.6361	297.363	79.6573	297.363	79.6683
307.617	84.7264	307.617	84.6405	307.617	84.7408	307.617	84.4895	307.617	84.6845	307.617	84.2894	307.617	84.5638	307.617	84.0663	307.617	84.3893	307.617	83.8511	307.617	84.1742	307.617	83.6674	307.617	83.9301	307.617	83.515	307.617	83.6599	307.617	83.3625	307.617	83.3494	307.617	83.1548	307.617	82.9645	307.617	82.834	307.617	82.4588	307.617	82.3615	307.617	81.7911	307.617	81.738	307.617	80.9513	307.617	81.0178	307.617	79.9976	307.617	80.3065	307.617	79.0922	307.617	79.7191	307.617	78.4729	307.617	79.3023	307.617	78.2854	307.617	78.999	307.617	78.4368	307.617	78.7162
319.336	84.144	319.336	84.063	319.336	84.1344	319.336	83.8908	319.336	84.0462	319.336	83.6397	319.336	83.9025	319.336	83.3364	319.336	83.7356	319.336	83.0202	319.336	83.582	319.336	82.7334	319.336	83.47	319.336	82.5011	319.336	83.4045	319.336	82.3114	319.336	83.3575	319.336	82.1129	319.336	83.2721	319.336	81.8367	319.336	83.0795	319.336	81.4296	319.336	82.7195	319.336	80.8849	319.336	82.1602	319.336	80.2636	319.336	81.42	319.336	79.6904	319.336	80.5897	319.336	79.2922	319.336	79.8342	319.336	79.1021	319.336	79.3199	319.336	79.0441	319.336	79.0879	319.336	79.0347
329.59	84.3839	329.59	84.3662	329.59	84.3012	329.59	84.2504	329.59	84.1258	329.59	84.0484	329.59	83.8769	329.59	83.7832	329.59	83.5873	329.59	83.4868	329.59	83.3021	329.59	83.194	329.59	83.0684	329.59	82.9277	329.59	82.9153	329.59	82.682	329.59	82.8318	329.59	82.4169	329.59	82.763	329.59	82.0713	329.59	82.6295	329.59	81.5897	329.59	82.3565	329.59	80.9524	329.59	81.9002	329.59	80.2056	329.59	81.2676	329.59	79.4775	329.59	80.5321	329.59	78.9387	329.59	79.8276	329.59	78.6861	329.59	79.2886	329.59	78.6674	329.59	78.9569	329.59	78.7701
341.309	84.3717	341.309	84.3535	341.309	84.264	341.309	84.2157	341.309	84.0384	341.309	83.9796	341.309	83.7215	341.309	83.6842	341.309	83.3629	341.309	83.3856	341.309	83.0359	341.309	83.1453	341.309	82.8196	341.309	83.0029	341.309	82.7606	341.309	82.9465	341.309	82.8361	341.309	82.91	341.309	82.9592	341.309	82.8031	341.309	83.02	341.309	82.5496	341.309	82.9279	341.309	82.1167	341.309	82.634	341.309	81.5324	341.309	82.1414	341.309	80.892	341.309	81.5129	341.309	80.334	341.309	80.8662	341.309	79.9689	341.309	80.3338	341.309	79.8148	341.309	79.9909	341.309	79.828
353.027	84.9976	353.027	84.9191	353.027	84.9135	353.027	84.6868	353.027	84.6601	353.027	84.3157	353.027	84.2346	353.027	83.8344	353.027	83.647	353.027	83.296	353.027	82.9363	353.027	82.7826	353.027	82.1935	353.027	82.3866	353.027	81.5677	353.027	82.1622	353.027	81.2101	353.027	82.0796	353.027	81.1574	353.027	82.0371	353.027	81.2887	353.027	81.9225	353.027	81.424	353.027	81.6692	353.027	81.4355	353.027	81.2828	353.027	81.2859	353.027	80.843	353.027	81.0179	353.027	80.471	353.027	80.7217	353.027	80.2558	353.027	80.4808	353.027	80.1966	353.027	80.3244	353.027	80.233
366.211	85.6843	366.211	85.5175	366.211	85.7037	366.211	85.2035	366.211	85.5746	366.211	84.7455	366.211	85.296	366.211	84.1584	366.211	84.8703	366.211	83.4832	366.211	84.3109	366.211	82.8024	366.211	83.6515	366.211	82.2361	366.211	82.9538	366.211	81.8895	366.211	82.3003	366.211	81.7708	366.211	81.761	366.211	81.7741	366.211	81.3499	366.211	81.7563	366.211	81.0165	366.211	81.6211	366.211	80.6943	366.211	81.352	366.211	80.36	366.211	81.004	366.211	80.0588	366.211	80.6665	366.211	79.8706	366.211	80.4044	366.211	79.8384	366.211	80.2182	366.211	79.9274	366.211	80.0663
379.395	86.3215	379.395	86.2798	379.395	86.2528	379.395	86.1212	379.395	86.0745	379.395	85.8334	379.395	85.7836	379.395	85.4012	379.395	85.3785	379.395	84.8136	379.395	84.8664	379.395	84.0754	379.395	84.2748	379.395	83.2237	379.395	83.6614	379.395	82.3421	379.395	83.108	379.395	81.5514	379.395	82.6838	379.395	80.9545	379.395	82.3926	379.395	80.5681	379.395	82.1591	379.395	80.326	379.395	81.8801	379.395	80.1561	379.395	81.493	379.395	80.035	379.395	81.0157	379.395	79.9729	379.395	80.5454	379.395	79.9648	379.395	80.2015	379.395	79.9769	379.395	80.0335	379.395	79.9874
392.578	85.65	392.578	85.6402	392.578	85.5573	392.578	85.5345	392.578	85.358	392.578	85.3401	392.578	85.0518	392.578	85.0637	392.578	84.6453	392.578	84.711	392.578	84.1553	392.578	84.2872	392.578	83.6128	392.578	83.7976	392.578	83.0636	392.578	83.249	392.578	82.5618	392.578	82.6502	392.578	82.1518	392.578	82.014	392.578	81.8458	392.578	81.3652	392.578	81.6185	392.578	80.7547	392.578	81.4277	392.578	80.2702	392.578	81.2449	392.578	80.0094	392.578	81.0727	392.578	80.0082	392.578	80.9326	392.578	80.1933	392.578	80.834	392.578	80.4331	392.578	80.7495	392.578	80.6274
405.762	85.2206	405.762	85.1347	405.762	85.1581	405.762	84.9054	405.762	84.9441	405.762	84.5428	405.762	84.5763	405.762	84.068	405.762	84.0566	405.762	83.5189	405.762	83.4005	405.762	82.9514	405.762	82.6507	405.762	82.43	405.762	81.8914	405.762	82.001	405.762	81.2422	405.762	81.665	405.762	80.8069	405.762	81.3743	405.762	80.6019	405.762	81.0686	405.762	80.5478	405.762	80.7233	405.762	80.5444	405.762	80.3823	405.762	80.5426	405.762	80.1492	405.762	80.5548	405.762	80.1158	405.762	80.6083	405.762	80.2719	405.762	80.6898	405.762	80.5027	405.762	80.7361	405.762	80.6791
420.41	85.7262	420.41	85.5839	420.41	85.723	420.41	85.298	420.41	85.5715	420.41	84.8727	420.41	85.2651	420.41	84.3205	420.41	84.7924	420.41	83.6681	420.41	84.1398	420.41	82.962	420.41	83.2985	420.41	82.265	420.41	82.2771	420.41	81.6352	420.41	81.1211	420.41	81.0943	420.41	79.9295	420.41	80.614	420.41	78.8525	420.41	80.1451	420.41	78.0445	420.41	79.6721	420.41	77.6003	420.41	79.2507	420.41	77.5364	420.41	78.9899	420.41	77.8012	420.41	78.9597	420.41	78.2708	420.41	79.1053	420.41	78.7721	420.41	79.2747	420.41	79.1497	420.41	79.3174
435.059	85.5956	435.059	85.4944	435.059	85.5454	435.059	85.2353	435.059	85.3474	435.059	84.8087	435.059	85.0045	435.059	84.2071	435.059	84.5229	435.059	83.437	435.059	83.917	435.059	82.5374	435.059	83.2145	435.059	81.5993	435.059	82.4596	435.059	80.7562	435.059	81.7068	435.059	80.1133	435.059	80.9981	435.059	79.6593	435.059	80.3303	435.059	79.2834	435.059	79.6476	435.059	78.8957	435.059	78.8866	435.059	78.519	435.059	78.0637	435.059	78.2698	435.059	77.3568	435.059	78.2253	435.059	77.0527	435.059	78.3049	435.059	77.2552	435.059	78.3235	435.059	77.7232	435.059	78.1345
451.172	86.3004	451.172	86.2487	451.172	86.248	451.172	86.0805	451.172	86.0883	451.172	85.7693	451.172	85.8013	451.172	85.278	451.172	85.3534	451.172	84.5647	451.172	84.7029	451.172	83.5927	451.172	83.8116	451.172	82.3504	451.172	82.6644	451.172	80.8913	451.172	81.3082	451.172	79.3944	451.172	79.9128	451.172	78.1665	451.172	78.7867	451.172	77.4279	451.172	78.1789	451.172	77.0683	451.172	77.9918	451.172	76.8271	451.172	77.9077	451.172	76.6056	451.172	77.7193	451.172	76.4899	451.172	77.428	451.172	76.5547	451.172	77.1566	451.172	76.7244	451.172	76.9884	451.172	76.8741
465.82	85.3303	465.82	85.2883	465.82	85.3485	465.82	85.217	465.82	85.3374	465.82	85.0993	465.82	85.28	465.82	84.9043	465.82	85.1442	465.82	84.5869	465.82	84.8829	465.82	84.0931	465.82	84.437	465.82	83.3693	465.82	83.7423	465.82	82.3782	465.82	82.7417	465.82	81.1281	465.82	81.4074	465.82	79.7209	465.82	79.7969	465.82	78.403	465.82	78.1638	465.82	77.4958	465.82	77.0089	465.82	77.1249	465.82	76.6849	465.82	77.1075	465.82	76.9267	465.82	77.2058	465.82	77.2652	465.82	77.31	465.82	77.473	465.82	77.4045	465.82	77.529	465.82	77.4873
483.398	84.6791	483.398	84.611	483.398	84.665	483.398	84.4766	483.398	84.5742	483.398	84.3059	483.398	84.4329	483.398	84.1278	483.398	84.2772	483.398	83.9483	483.398	84.1298	483.398	83.7341	483.398	83.9747	483.398	83.414	483.398	83.7488	483.398	82.8988	483.398	83.3575	483.398	82.1143	483.398	82.7051	483.398	81.0502	483.398	81.7298	483.398	79.8479	483.398	80.4642	483.398	78.9045	483.398	79.1571	483.398	78.6968	483.398	78.3584	483.398	79.2099	483.398	78.4898	483.398	79.9689	483.398	79.2503	483.398	80.5972	483.398	80.0808	483.398	80.9456	483.398	80.6848	483.398	80.9769
499.512	85.7456	499.512	85.6335	499.512	85.7197	499.512	85.3864	499.512	85.5567	499.512	85.0138	499.512	85.2618	499.512	84.537	499.512	84.8472	499.512	83.9912	499.512	84.3359	499.512	83.4178	499.512	83.76	499.512	82.841	499.512	83.1474	499.512	82.2371	499.512	82.4985	499.512	81.5253	499.512	81.7698	499.512	80.6032	499.512	80.8873	499.512	79.4265	499.512	79.8018	499.512	78.1572	499.512	78.5965	499.512	77.3295	499.512	77.6334	499.512	77.4921	499.512	77.4431	499.512	78.3744	499.512	78.0672	499.512	79.2928	499.512	78.9646	499.512	79.8686	499.512	79.6731	499.512	79.9953
517.09	85.6486	517.09	85.5681	517.09	85.6271	517.09	85.385	517.09	85.5163	517.09	85.1091	517.09	85.3387	517.09	84.7543	517.09	85.1186	517.09	84.3292	517.09	84.8682	517.09	83.8244	517.09	84.5726	517.09	83.2042	517.09	84.1823	517.09	82.4088	517.09	83.6176	517.09	81.3715	517.09	82.7829	517.09	80.058	517.09	81.5857	517.09	78.5519	517.09	79.9779	517.09	77.2175	517.09	78.0869	517.09	76.6979	517.09	76.5425	517.09	77.2144	517.09	76.3641	517.09	78.2118	517.09	77.409	517.09	79.1241	517.09	78.6264	517.09	79.6935	517.09	79.4715	517.09	79.8242
536.133	86.4699	536.133	86.3987	536.133	86.4007	536.133	86.1973	536.133	86.1881	536.133	85.8803	536.133	85.8376	536.133	85.466	536.133	85.3675	536.133	84.9732	536.133	84.8107	536.133	84.4126	536.133	84.2103	536.133	83.7699	536.133	83.5985	536.133	82.9862	536.133	82.962	536.133	81.95	536.133	82.2217	536.133	80.5093	536.133	81.2534	536.133	78.5236	536.133	79.9542	536.133	76.1109	536.133	78.3833	536.133	74.526	536.133	77.0546	536.133	75.4811	536.133	76.8988	536.133	77.521	536.133	77.9197	536.133	79.1368	536.133	79.1559	536.133	80.063	536.133	80.0195	536.133	80.3394
555.176	87.1206	555.176	86.9968	555.176	87.1698	555.176	86.8101	555.176	87.1358	555.176	86.5748	555.176	87.0122	555.176	86.3072	555.176	86.7962	555.176	86.0199	555.176	86.4887	555.176	85.7097	555.176	86.0906	555.176	85.3399	555.176	85.5897	555.176	84.8273	555.176	84.9416	555.176	84.0415	555.176	84.0531	555.176	82.809	555.176	82.7765	555.176	80.9109	555.176	80.9179	555.176	78.1033	555.176	78.2975	555.176	74.6127	555.176	75.2625	555.176	73.5856	555.176	74.361	555.176	76.1578	555.176	76.4484	555.176	78.4798	555.176	78.5471	555.176	79.779	555.176	79.786	555.176	80.1864
574.219	86.9779	574.219	86.8708	574.219	86.9405	574.219	86.6303	574.219	86.7846	574.219	86.3126	574.219	86.5667	574.219	86.0164	574.219	86.3649	574.219	85.845	574.219	86.2549	574.219	85.8305	574.219	86.2668	574.219	85.8833	574.219	86.3461	574.219	85.8264	574.219	86.3585	574.219	85.4635	574.219	86.1285	574.219	84.6119	574.219	85.4714	574.219	83.0969	574.219	84.1929	574.219	80.7623	574.219	82.0667	574.219	77.747	574.219	78.8794	574.219	75.8702	574.219	75.3841	574.219	77.2114	574.219	75.6179	574.219	79.2416	574.219	78.2576	574.219	80.4684	574.219	80.0527	574.219	80.7491
594.727	87.6386	594.727	87.4655	594.727	87.5881	594.727	87.0753	594.727	87.3172	594.727	86.493	594.727	86.8453	594.727	85.7924	594.727	86.2281	594.727	85.1392	594.727	85.5886	594.727	84.772	594.727	85.1213	594.727	84.8145	594.727	84.9865	594.727	85.0873	594.727	85.1304	594.727	85.2308	594.727	85.2794	594.727	84.9202	594.727	85.1153	594.727	83.9081	594.727	84.3799	594.727	81.9754	594.727	82.8711	594.727	78.9929	594.727	80.4854	594.727	75.984	594.727	77.7717	594.727	76.5141	594.727	77.143	594.727	78.9065	594.727	78.8594	594.727	80.4721	594.727	80.3835	594.727	80.9454
615.234	88.1018	615.234	87.9656	615.234	88.0423	615.234	87.6302	615.234	87.7853	615.234	87.0897	615.234	87.3266	615.234	86.3501	615.234	86.6697	615.234	85.4669	615.234	85.853	615.234	84.6061	615.234	84.9991	615.234	84.0395	615.234	84.3399	615.234	83.9079	615.234	84.0775	615.234	83.9712	615.234	84.1164	615.234	83.7815	615.234	84.0773	615.234	82.9475	615.234	83.5549	615.234	81.1598	615.234	82.2197	615.234	78.2124	615.234	79.792	615.234	75.1471	615.234	76.4361	615.234	76.031	615.234	75.2498	615.234	78.7099	615.234	77.7318	615.234	80.33	615.234	79.8483	615.234	80.6993
637.207	87.5635	637.207	87.4223	637.207	87.5047	637.207	87.0813	637.207	87.2422	637.207	86.5391	637.207	86.7729	637.207	85.8086	637.207	86.1098	637.207	84.9549	637.207	85.3134	637.207	84.1521	637.207	84.5356	637.207	83.6634	637.207	84.0053	637.207	83.6014	637.207	83.8506	637.207	83.7141	637.207	83.9048	637.207	83.5736	637.207	83.8071	637.207	82.8262	637.207	83.2135	637.207	81.2443	637.207	81.8518	637.207	78.8559	637.207	79.5321	637.207	76.8417	637.207	76.6469	637.207	77.4581	637.207	75.9141	637.207	79.312	637.207	78.0343	637.207	80.5305	637.207	79.9221	637.207	80.7515
659.18	87.8187	659.18	87.7257	659.18	87.7499	659.18	87.4577	659.18	87.5155	659.18	86.9856	659.18	87.0922	659.18	86.2694	659.18	86.439	659.18	85.2832	659.18	85.5137	659.18	84.0867	659.18	84.3304	659.18	82.9553	659.18	83.0833	659.18	82.3587	659.18	82.2357	659.18	82.4032	659.18	82.119	659.18	82.5264	659.18	82.3391	659.18	82.0663	659.18	82.1863	659.18	80.5299	659.18	81.1372	659.18	77.4549	659.18	78.8026	659.18	73.3487	659.18	75.1861	659.18	74.5558	659.18	74.0074	659.18	78.136	659.18	77.1394	659.18	80.0605	659.18	79.5373	659.18	80.4791
682.617	87.7018	682.617	87.6099	682.617	87.6468	682.617	87.3631	682.617	87.4426	682.617	86.9391	682.617	87.0736	682.617	86.299	682.617	86.5093	682.617	85.406	682.617	85.7172	682.617	84.2978	682.617	84.7178	682.617	83.2241	682.617	83.6895	682.617	82.6547	682.617	83.0153	682.617	82.7337	682.617	82.9372	682.617	82.9142	682.617	83.1124	682.617	82.5219	682.617	82.9194	682.617	81.0571	682.617	81.8484	682.617	78.0116	682.617	79.4324	682.617	73.2325	682.617	75.1791	682.617	73.2025	682.617	72.1762	682.617	77.2235	682.617	75.917	682.617	79.3993	682.617	78.8068	682.617	79.8789
707.52	87.4768	707.52	87.401	707.52	87.4009	707.52	87.1775	707.52	87.1833	707.52	86.8107	707.52	86.8407	707.52	86.2829	707.52	86.3741	707.52	85.5504	707.52	85.7513	707.52	84.589	707.52	84.9325	707.52	83.5115	707.52	83.9679	707.52	82.6784	707.52	83.1331	707.52	82.4313	707.52	82.8182	707.52	82.501	707.52	82.9539	707.52	82.1849	707.52	82.9185	707.52	80.8325	707.52	82.0692	707.52	77.7388	707.52	79.8281	707.52	72.0858	707.52	75.3277	707.52	72.337	707.52	70.0992	707.52	77.3596	707.52	75.0707	707.52	79.7287	707.52	78.7667	707.52	80.1396
732.422	87.3521	732.422	87.2887	732.422	87.2756	732.422	87.091	732.422	87.0712	732.422	86.7704	732.422	86.7602	732.422	86.3155	732.422	86.3465	732.422	85.6652	732.422	85.787	732.422	84.7231	732.422	84.9954	732.422	83.4562	732.422	83.9174	732.422	82.121	732.422	82.7105	732.422	81.3892	732.422	81.9131	732.422	81.5153	732.422	81.9343	732.422	81.6923	732.422	82.2302	732.422	81.0359	732.422	81.9198	732.422	78.9085	732.422	80.3493	732.422	74.4528	732.422	76.7598	732.422	69.0481	732.422	70.171	732.422	73.7307	732.422	71.7053	732.422	77.1132	732.422	76.3399	732.422	77.8903
757.324	87.5469	757.324	87.3599	757.324	87.4949	757.324	86.9646	757.324	87.2056	757.324	86.4311	757.324	86.7083	757.324	85.8473	757.324	86.0558	757.324	85.2526	757.324	85.307	757.324	84.588	757.324	84.4974	757.324	83.765	757.324	83.6553	757.324	82.8423	757.324	82.9084	757.324	82.1431	757.324	82.5441	757.324	81.9329	757.324	82.6987	757.324	81.8715	757.324	82.9963	757.324	81.2689	757.324	82.8344	757.324	79.519	757.324	81.704	757.324	76.0482	757.324	79.0852	757.324	71.4372	757.324	74.1882	757.324	72.745	757.324	69.7006	757.324	75.5786	757.324	73.7376	757.324	75.9991
785.156	87.8666	785.156	87.7621	785.156	87.799	785.156	87.4766	785.156	87.5679	785.156	86.9951	785.156	87.1783	785.156	86.2923	785.156	86.6125	785.156	85.3421	785.156	85.8149	785.156	84.157	785.156	84.7095	785.156	82.8853	785.156	83.2917	785.156	81.9105	785.156	81.8497	785.156	81.5901	785.156	81.105	785.156	81.6648	785.156	81.3538	785.156	81.4409	785.156	81.7868	785.156	80.3079	785.156	81.5563	785.156	77.7188	785.156	80.1963	785.156	73.2979	785.156	77.4552	785.156	71.9238	785.156	74.2878	785.156	75.848	785.156	74.9699	785.156	78.1589	785.156	77.4437	785.156	78.6135
811.523	87.6526	811.523	87.5553	811.523	87.5411	811.523	87.255	811.523	87.2313	811.523	86.7759	811.523	86.75	811.523	86.149	811.523	86.1396	811.523	85.3751	811.523	85.4313	811.523	84.4042	811.523	84.6001	811.523	83.2165	811.523	83.5761	811.523	82.0477	811.523	82.4024	811.523	81.4823	811.523	81.4892	811.523	81.6806	811.523	81.3855	811.523	81.8652	811.523	81.7917	811.523	81.1794	811.523	81.793	811.523	78.9379	811.523	80.7125	811.523	74.0044	811.523	78.068	811.523	65.896	811.523	73.6291	811.523	72.2915	811.523	71.6901	811.523	75.8928	811.523	74.8	811.523	76.4729
840.82	88.0872	840.82	87.9666	840.82	87.9618	840.82	87.6245	840.82	87.5991	840.82	87.1148	840.82	87.043	840.82	86.4974	840.82	86.3569	840.82	85.7747	840.82	85.5736	840.82	84.8327	840.82	84.6332	840.82	83.5021	840.82	83.3959	840.82	81.8478	840.82	81.8291	840.82	80.7324	840.82	80.4809	840.82	81.1279	840.82	80.4415	840.82	82.0086	840.82	81.3112	840.82	81.9941	840.82	81.6495	840.82	80.3306	840.82	80.6485	840.82	76.009	840.82	77.8094	840.82	67.5201	840.82	73.3175	840.82	73.1319	840.82	73.6528	840.82	77.3303	840.82	77.0038	840.82	78.3041
870.117	87.9796	870.117	87.7978	870.117	87.9081	870.117	87.3886	870.117	87.5823	870.117	86.8027	870.117	87.0335	870.117	86.112	870.117	86.327	870.117	85.3698	870.117	85.5285	870.117	84.5396	870.117	84.6286	870.117	83.4935	870.117	83.5101	870.117	82.1969	870.117	82.081	870.117	81.0844	870.117	80.6407	870.117	80.9488	870.117	80.0773	870.117	81.503	870.117	80.4994	870.117	81.5736	870.117	80.7012	870.117	80.3318	870.117	79.7212	870.117	77.0584	870.117	76.9237	870.117	70.809	870.117	72.02	870.117	70.8492	870.117	71.7509	870.117	75.3897	870.117	75.4777	870.117	76.7419
900.879	88.2462	900.879	88.1171	900.879	88.1133	900.879	87.7209	900.879	87.747	900.879	87.0895	900.879	87.1847	900.879	86.2908	900.879	86.4648	900.879	85.3897	900.879	85.6147	900.879	84.3751	900.879	84.6216	900.879	83.1529	900.879	83.4099	900.879	81.7374	900.879	81.9299	900.879	80.6345	900.879	80.4948	900.879	80.5808	900.879	79.9873	900.879	81.0937	900.879	80.4986	900.879	80.9871	900.879	80.795	900.879	79.4758	900.879	79.8652	900.879	75.9063	900.879	76.9384	900.879	70.8264	900.879	71.1285	900.879	73.0912	900.879	71.1025	900.879	76.4472	900.879	75.7238	900.879	77.3065
933.105	88.2402	933.105	88.0425	933.105	88.1213	933.105	87.5493	933.105	87.6856	933.105	86.8119	933.105	86.9745	933.105	85.9466	933.105	86.0989	933.105	85.1188	933.105	85.2228	933.105	84.3759	933.105	84.4295	933.105	83.5013	933.105	83.5697	933.105	82.1947	933.105	82.3443	933.105	80.5432	933.105	80.6636	933.105	79.5684	933.105	79.2863	933.105	79.9392	933.105	79.4119	933.105	80.2906	933.105	80.1113	933.105	79.3414	933.105	79.7896	933.105	76.3335	933.105	77.5515	933.105	71.2793	933.105	72.4467	933.105	72.5264	933.105	69.822	933.105	76.0078	933.105	74.7677	933.105	76.7658
965.332	88.3219	965.332	88.1121	965.332	88.2067	965.332	87.5874	965.332	87.7865	965.332	86.8076	965.332	87.1072	965.332	85.8983	965.332	86.2516	965.332	85.0051	965.332	85.3331	965.332	84.1321	965.332	84.4134	965.332	83.031	965.332	83.3854	965.332	81.3892	965.332	82.0249	965.332	79.4187	965.332	80.3442	965.332	78.6846	965.332	79.2205	965.332	79.6357	965.332	79.5947	965.332	80.1664	965.332	80.2737	965.332	79.0065	965.332	79.8165	965.332	75.3017	965.332	77.4326	965.332	69.213	965.332	72.2158	965.332	72.8749	965.332	69.5038	965.332	76.3409	965.332	74.571	965.332	76.7964
1,000.49	88.3847	1,000.49	88.1816	1,000.49	88.265	1,000.49	87.6735	1,000.49	87.804	1,000.49	86.8881	1,000.49	87.0158	1,000.49	85.9179	1,000.49	86.0085	1,000.49	84.9436	1,000.49	85.017	1,000.49	84.0798	1,000.49	84.2479	1,000.49	83.1489	1,000.49	83.5693	1,000.49	81.7951	1,000.49	82.5394	1,000.49	80.0085	1,000.49	80.8574	1,000.49	78.8999	1,000.49	79.1565	1,000.49	79.399	1,000.49	79.1197	1,000.49	79.8916	1,000.49	79.9627	1,000.49	78.8484	1,000.49	79.7051	1,000.49	75.1806	1,000.49	77.3609	1,000.49	67.4234	1,000.49	71.4752	1,000.49	71.5154	1,000.49	66.745	1,000.49	75.7918	1,000.49	73.927	1,000.49	76.4318
1,035.64	88.2828	1,035.64	88.0868	1,035.64	88.1596	1,035.64	87.5467	1,035.64	87.7163	1,035.64	86.6321	1,035.64	86.9333	1,035.64	85.383	1,035.64	85.8244	1,035.64	84.0537	1,035.64	84.5552	1,035.64	83.0718	1,035.64	83.4982	1,035.64	82.4346	1,035.64	82.8417	1,035.64	81.4813	1,035.64	82.1254	1,035.64	79.6728	1,035.64	80.709	1,035.64	77.8138	1,035.64	78.7604	1,035.64	78.2367	1,035.64	78.2832	1,035.64	79.3921	1,035.64	79.4772	1,035.64	78.8825	1,035.64	79.8409	1,035.64	75.5085	1,035.64	78.1595	1,035.64	65.7146	1,035.64	73.0733	1,035.64	70.2155	1,035.64	65.393	1,035.64	75.6765	1,035.64	73.5802	1,035.64	76.4697
1,072.27	87.9482	1,072.27	87.7923	1,072.27	87.8536	1,072.27	87.3495	1,072.27	87.4982	1,072.27	86.5413	1,072.27	86.8346	1,072.27	85.2993	1,072.27	85.8078	1,072.27	83.7263	1,072.27	84.4565	1,072.27	82.3402	1,072.27	83.1059	1,072.27	81.6943	1,072.27	82.2566	1,072.27	81.2553	1,072.27	81.7221	1,072.27	79.9888	1,072.27	80.6086	1,072.27	77.7418	1,072.27	78.39	1,072.27	76.8755	1,072.27	76.5896	1,072.27	78.2638	1,072.27	77.9085	1,072.27	78.557	1,072.27	79.222	1,072.27	76.1613	1,072.27	78.3058	1,072.27	68.7916	1,072.27	73.9692	1,072.27	67.6602	1,072.27	66.0133	1,072.27	74.2476	1,072.27	72.648	1,072.27	75.4352
1,108.89	87.2904	1,108.89	87.164	1,108.89	87.2604	1,108.89	86.8742	1,108.89	87.0546	1,108.89	86.3601	1,108.89	86.625	1,108.89	85.4903	1,108.89	85.885	1,108.89	84.1261	1,108.89	84.7343	1,108.89	82.3372	1,108.89	83.1764	1,108.89	80.7343	1,108.89	81.5383	1,108.89	79.9498	1,108.89	80.3864	1,108.89	79.3078	1,108.89	79.6137	1,108.89	77.9232	1,108.89	78.5118	1,108.89	76.4591	1,108.89	77.2556	1,108.89	76.5784	1,108.89	77.1825	1,108.89	76.7314	1,108.89	77.6073	1,108.89	74.5454	1,108.89	76.3966	1,108.89	67.1489	1,108.89	71.7627	1,108.89	66.1059	1,108.89	64.0887	1,108.89	72.9824	1,108.89	71.4552	1,108.89	74.1765
1,148.44	86.6398	1,148.44	86.4889	1,148.44	86.5164	1,148.44	86.0674	1,148.44	86.1356	1,148.44	85.4092	1,148.44	85.5315	1,148.44	84.551	1,148.44	84.7427	1,148.44	83.4786	1,148.44	83.7686	1,148.44	82.1866	1,148.44	82.5892	1,148.44	80.8492	1,148.44	81.3225	1,148.44	79.6995	1,148.44	80.2762	1,148.44	78.5548	1,148.44	79.4933	1,148.44	77.2647	1,148.44	78.6231	1,148.44	76.9473	1,148.44	77.8704	1,148.44	77.889	1,148.44	77.9156	1,148.44	77.9482	1,148.44	77.958	1,148.44	75.4826	1,148.44	76.5116	1,148.44	67.8599	1,148.44	72.2839	1,148.44	63.5403	1,148.44	63.1248	1,148.44	71.3452	1,148.44	68.2765	1,148.44	72.1053
1,189.45	86.0051	1,189.45	85.7537	1,189.45	85.9557	1,189.45	85.2358	1,189.45	85.638	1,189.45	84.5585	1,189.45	85.0912	1,189.45	83.7591	1,189.45	84.328	1,189.45	82.661	1,189.45	83.3401	1,189.45	81.0532	1,189.45	82.14	1,189.45	79.2278	1,189.45	80.8757	1,189.45	78.1831	1,189.45	79.8218	1,189.45	77.7689	1,189.45	78.8733	1,189.45	76.6698	1,189.45	77.4665	1,189.45	75.369	1,189.45	75.9618	1,189.45	76.0707	1,189.45	76.2702	1,189.45	76.8894	1,189.45	77.3267	1,189.45	75.4358	1,189.45	76.8774	1,189.45	69.8446	1,189.45	73.8163	1,189.45	48.3413	1,189.45	65.94	1,189.45	68.6586	1,189.45	65.7193	1,189.45	70.3343
1,230.47	86.1995	1,230.47	85.8239	1,230.47	86.2309	1,230.47	85.127	1,230.47	85.9168	1,230.47	84.1933	1,230.47	85.307	1,230.47	83.1984	1,230.47	84.5148	1,230.47	82.2504	1,230.47	83.597	1,230.47	81.1802	1,230.47	82.4505	1,230.47	79.7325	1,230.47	81.037	1,230.47	78.0633	1,230.47	79.7242	1,230.47	76.7322	1,230.47	78.7928	1,230.47	75.5945	1,230.47	77.656	1,230.47	74.6063	1,230.47	76.0917	1,230.47	75.3415	1,230.47	75.8487	1,230.47	76.6111	1,230.47	77.0103	1,230.47	76.0413	1,230.47	76.9601	1,230.47	72.33	1,230.47	74.3681	1,230.47	62.8691	1,230.47	69.0243	1,230.47	66.1622	1,230.47	68.2366	1,230.47	69.6237
1,274.41	86.3885	1,274.41	86.0719	1,274.41	86.3892	1,274.41	85.4714	1,274.41	86.048	1,274.41	84.5924	1,274.41	85.4016	1,274.41	83.4718	1,274.41	84.5337	1,274.41	82.2425	1,274.41	83.484	1,274.41	81.0548	1,274.41	82.1931	1,274.41	79.9041	1,274.41	80.6699	1,274.41	78.6385	1,274.41	79.3372	1,274.41	77.1313	1,274.41	78.6261	1,274.41	75.5364	1,274.41	77.8482	1,274.41	74.7967	1,274.41	76.3342	1,274.41	75.7125	1,274.41	75.6369	1,274.41	76.7291	1,274.41	76.4969	1,274.41	76.0061	1,274.41	75.9905	1,274.41	72.0908	1,274.41	72.3202	1,274.41	65.206	1,274.41	66.463	1,274.41	70.121	1,274.41	70.1489	1,274.41	72.1921
1,319.82	86.3643	1,319.82	86.1038	1,319.82	86.2418	1,319.82	85.4797	1,319.82	85.7476	1,319.82	84.5672	1,319.82	84.9385	1,319.82	83.4615	1,319.82	83.9895	1,319.82	82.2368	1,319.82	83.0809	1,319.82	80.9835	1,319.82	82.0621	1,319.82	79.7299	1,319.82	80.583	1,319.82	78.3313	1,319.82	78.9169	1,319.82	76.7628	1,319.82	78.2946	1,319.82	75.2696	1,319.82	78.2277	1,319.82	74.3867	1,319.82	76.9303	1,319.82	75.3943	1,319.82	74.9716	1,319.82	77.0456	1,319.82	75.5124	1,319.82	76.9854	1,319.82	76.0257	1,319.82	74.0668	1,319.82	73.4138	1,319.82	66.961	1,319.82	65.2279	1,319.82	68.1173	1,319.82	68.3635	1,319.82	71.284
1,366.7	85.6845	1,366.7	85.6108	1,366.7	85.5728	1,366.7	85.2552	1,366.7	85.2877	1,366.7	84.5806	1,366.7	84.6316	1,366.7	83.5645	1,366.7	83.4888	1,366.7	82.1282	1,366.7	82.2807	1,366.7	80.3092	1,366.7	81.5613	1,366.7	78.7437	1,366.7	80.7709	1,366.7	78.2093	1,366.7	78.9099	1,366.7	77.8942	1,366.7	76.5523	1,366.7	76.4164	1,366.7	76.0888	1,366.7	73.1343	1,366.7	75.8593	1,366.7	72.231	1,366.7	74.4186	1,366.7	75.1048	1,366.7	74.4206	1,366.7	75.6322	1,366.7	75.4299	1,366.7	73.4492	1,366.7	73.8826	1,366.7	70.3054	1,366.7	67.936	1,366.7	70.4803	1,366.7	68.0535	1,366.7	71.1256
1,413.57	85.4836	1,413.57	85.3674	1,413.57	85.2431	1,413.57	84.9245	1,413.57	84.7924	1,413.57	84.2363	1,413.57	84.2493	1,413.57	83.3772	1,413.57	83.4612	1,413.57	82.4446	1,413.57	82.3308	1,413.57	81.2922	1,413.57	81.3778	1,413.57	79.6261	1,413.57	80.7758	1,413.57	78.089	1,413.57	79.4297	1,413.57	77.6758	1,413.57	76.971	1,413.57	77.0299	1,413.57	75.3174	1,413.57	75.025	1,413.57	75.2161	1,413.57	72.3109	1,413.57	73.9773	1,413.57	72.4553	1,413.57	72.5076	1,413.57	73.4797	1,413.57	72.775	1,413.57	71.4634	1,413.57	70.8863	1,413.57	69.2026	1,413.57	61.0563	1,413.57	71.6636	1,413.57	67.6963	1,413.57	71.9945
1,463.38	86.6439	1,463.38	86.446	1,463.38	86.3111	1,463.38	85.9157	1,463.38	85.4643	1,463.38	85.1193	1,463.38	84.5006	1,463.38	84.0286	1,463.38	83.6084	1,463.38	82.8164	1,463.38	82.2479	1,463.38	81.6176	1,463.38	80.3695	1,463.38	80.084	1,463.38	79.5387	1,463.38	78.0375	1,463.38	79.3891	1,463.38	76.373	1,463.38	78.1285	1,463.38	75.6528	1,463.38	76.2679	1,463.38	74.8535	1,463.38	75.8429	1,463.38	73.2022	1,463.38	75.0036	1,463.38	71.6185	1,463.38	73.8175	1,463.38	71.0655	1,463.38	74.3936	1,463.38	69.3459	1,463.38	73.5901	1,463.38	69.1897	1,463.38	66.6793	1,463.38	72.1578	1,463.38	64.6398	1,463.38	72.092
1,516.11	87.2848	1,516.11	87.1245	1,516.11	87.1346	1,516.11	86.7755	1,516.11	86.5725	1,516.11	86.1813	1,516.11	85.7632	1,516.11	85.182	1,516.11	84.9799	1,516.11	83.7794	1,516.11	83.9859	1,516.11	82.2185	1,516.11	82.1766	1,516.11	80.6458	1,516.11	79.987	1,516.11	78.8886	1,516.11	79.187	1,516.11	77.1314	1,516.11	78.7207	1,516.11	76.0934	1,516.11	77.0105	1,516.11	75.3641	1,516.11	76.1488	1,516.11	74.4011	1,516.11	76.1516	1,516.11	73.8424	1,516.11	74.9683	1,516.11	72.1887	1,516.11	75.0279	1,516.11	66.4489	1,516.11	75.1501	1,516.11	62.0682	1,516.11	70.6726	1,516.11	70.5679	1,516.11	67.1316	1,516.11	72.19
1,568.85	86.9347	1,568.85	86.657	1,568.85	86.7678	1,568.85	86.2385	1,568.85	86.1926	1,568.85	85.8937	1,568.85	85.5189	1,568.85	85.3043	1,568.85	84.9437	1,568.85	84.119	1,568.85	84.214	1,568.85	82.4926	1,568.85	82.8525	1,568.85	80.85	1,568.85	80.9603	1,568.85	79.3485	1,568.85	79.2529	1,568.85	77.8631	1,568.85	77.8629	1,568.85	76.5919	1,568.85	76.8393	1,568.85	75.8789	1,568.85	76.2649	1,568.85	74.904	1,568.85	75.0651	1,568.85	74.7349	1,568.85	74.2522	1,568.85	74.9333	1,568.85	75.3548	1,568.85	70.7832	1,568.85	74.3273	1,568.85	49.4175	1,568.85	66.5703	1,568.85	70.5785	1,568.85	67.4759	1,568.85	72.6627
1,624.51	86.1448	1,624.51	86.1023	1,624.51	85.7344	1,624.51	85.4647	1,624.51	85.4225	1,624.51	84.6943	1,624.51	85.1944	1,624.51	84.0719	1,624.51	84.4656	1,624.51	83.2195	1,624.51	83.3362	1,624.51	81.9472	1,624.51	82.0449	1,624.51	80.3379	1,624.51	80.7204	1,624.51	78.5259	1,624.51	79.6492	1,624.51	77.0236	1,624.51	78.0305	1,624.51	75.693	1,624.51	75.5605	1,624.51	74.2423	1,624.51	75.2231	1,624.51	72.8244	1,624.51	74.5502	1,624.51	72.3192	1,624.51	71.7969	1,624.51	74.1075	1,624.51	73.921	1,624.51	72.5352	1,624.51	74.7816	1,624.51	60.927	1,624.51	69.9744	1,624.51	68.1384	1,624.51	60.0401	1,624.51	70.9026
1,681.64	86.2036	1,681.64	86.1765	1,681.64	86.0529	1,681.64	85.653	1,681.64	86.2501	1,681.64	84.7717	1,681.64	86.3637	1,681.64	83.6996	1,681.64	85.4003	1,681.64	82.5935	1,681.64	83.6012	1,681.64	81.577	1,681.64	82.4812	1,681.64	80.463	1,681.64	81.484	1,681.64	78.4055	1,681.64	79.4285	1,681.64	74.5634	1,681.64	78.0934	1,681.64	72.1084	1,681.64	77.0522	1,681.64	72.7745	1,681.64	75.4783	1,681.64	70.9751	1,681.64	74.2478	1,681.64	68.1471	1,681.64	72.5114	1,681.64	72.5854	1,681.64	73.4016	1,681.64	72.8382	1,681.64	74.2181	1,681.64	65.7983	1,681.64	70.6074	1,681.64	69.2541	1,681.64	63.4363	1,681.64	71.6374
1,741.7	87.0938	1,741.7	86.6831	1,741.7	87.4782	1,741.7	86.6249	1,741.7	87.3313	1,741.7	86.2931	1,741.7	86.9595	1,741.7	85.0664	1,741.7	86.4853	1,741.7	83.3972	1,741.7	85.4175	1,741.7	82.374	1,741.7	84.0959	1,741.7	81.9452	1,741.7	83.0603	1,741.7	80.9138	1,741.7	81.2123	1,741.7	78.5499	1,741.7	78.8629	1,741.7	74.7754	1,741.7	77.2559	1,741.7	72.8361	1,741.7	76.0279	1,741.7	73.484	1,741.7	75.4387	1,741.7	72.0045	1,741.7	72.8332	1,741.7	73.0974	1,741.7	73.7531	1,741.7	72.8597	1,741.7	75.3966	1,741.7	66.7652	1,741.7	71.2184	1,741.7	71.4076	1,741.7	66.0485	1,741.7	71.4806
1,803.22	86.8378	1,803.22	86.6933	1,803.22	86.7587	1,803.22	86.291	1,803.22	86.692	1,803.22	85.9022	1,803.22	86.647	1,803.22	85.5629	1,803.22	86.3134	1,803.22	84.7556	1,803.22	85.4213	1,803.22	83.3619	1,803.22	83.8956	1,803.22	82.2747	1,803.22	82.2762	1,803.22	81.2408	1,803.22	81.1729	1,803.22	79.3543	1,803.22	79.893	1,803.22	76.5774	1,803.22	77.55	1,803.22	73.9825	1,803.22	74.6776	1,803.22	73.3382	1,803.22	75.095	1,803.22	71.2176	1,803.22	73.9112	1,803.22	73.4935	1,803.22	72.1984	1,803.22	74.8134	1,803.22	75.3977	1,803.22	69.5868	1,803.22	71.4049	1,803.22	69.3603	1,803.22	67.1544	1,803.22	71.5799
1,866.21	86.5805	1,866.21	86.596	1,866.21	86.3338	1,866.21	86.2977	1,866.21	86.227	1,866.21	85.9056	1,866.21	86.2192	1,866.21	85.764	1,866.21	86.0135	1,866.21	85.4465	1,866.21	85.6662	1,866.21	84.1702	1,866.21	84.6038	1,866.21	82.716	1,866.21	82.2923	1,866.21	81.8162	1,866.21	80.3439	1,866.21	80.4898	1,866.21	79.7738	1,866.21	78.7494	1,866.21	78.4354	1,866.21	76.7143	1,866.21	75.5676	1,866.21	76.5868	1,866.21	74.6089	1,866.21	73.9344	1,866.21	73.8589	1,866.21	70.2983	1,866.21	64.7388	1,866.21	72.2829	1,866.21	67.8221	1,866.21	64.8371	1,866.21	62.1884	1,866.21	72.5113	1,866.21	69.344	1,866.21	74.2119
1,932.13	86.2469	1,932.13	86.0477	1,932.13	86.4468	1,932.13	85.899	1,932.13	86.2045	1,932.13	85.747	1,932.13	85.5911	1,932.13	85.5343	1,932.13	85.1261	1,932.13	84.9753	1,932.13	84.8372	1,932.13	83.8804	1,932.13	84.4566	1,932.13	82.4909	1,932.13	83.5884	1,932.13	81.1594	1,932.13	81.9445	1,932.13	80.0039	1,932.13	80.2964	1,932.13	78.3512	1,932.13	78.5843	1,932.13	75.485	1,932.13	75.4838	1,932.13	75.2755	1,932.13	75.0804	1,932.13	73.7435	1,932.13	76.2203	1,932.13	70.9893	1,932.13	73.2945	1,932.13	71.6579	1,932.13	72.6021	1,932.13	61.3348	1,932.13	71.5142	1,932.13	70.1797	1,932.13	65.4449	1,932.13	73.1837
1,999.51	86.0137	1,999.51	86.1515	1,999.51	85.6673	1,999.51	85.8734	1,999.51	85.7195	1,999.51	86.0719	1,999.51	85.6141	1,999.51	86.1363	1,999.51	85.369	1,999.51	85.1077	1,999.51	85.1854	1,999.51	83.6512	1,999.51	84.2175	1,999.51	82.5058	1,999.51	82.9999	1,999.51	81.0797	1,999.51	81.9709	1,999.51	80.4093	1,999.51	79.7302	1,999.51	79.4935	1,999.51	78.5676	1,999.51	75.4603	1,999.51	77.2863	1,999.51	75.7347	1,999.51	73.3064	1,999.51	74.1354	1,999.51	75.9725	1,999.51	67.0315	1,999.51	76.3638	1,999.51	72.8518	1,999.51	75.4618	1,999.51	66.3436	1,999.51	74.5779	1,999.51	68.6635	1,999.51	65.7047	1,999.51	71.1691
2,069.82	85.4926	2,069.82	85.2195	2,069.82	85.9308	2,069.82	85.3944	2,069.82	86.6406	2,069.82	85.5546	2,069.82	87.0361	2,069.82	85.5054	2,069.82	86.2336	2,069.82	85.4392	2,069.82	85.2765	2,069.82	84.3009	2,069.82	85.0794	2,069.82	82.6827	2,069.82	84.1204	2,069.82	81.4844	2,069.82	82.5515	2,069.82	80.3852	2,069.82	79.8295	2,069.82	80.4251	2,069.82	76.2219	2,069.82	75.8083	2,069.82	76.814	2,069.82	71.1988	2,069.82	74.5132	2,069.82	76.0215	2,069.82	72.8675	2,069.82	73.4093	2,069.82	74.6715	2,069.82	75.3791	2,069.82	73.7742	2,069.82	70.1569	2,069.82	69.2896	2,069.82	70.2181	2,069.82	69.9824	2,069.82	75.3816
2,143.07	84.9473	2,143.07	84.7688	2,143.07	85.1571	2,143.07	85.5425	2,143.07	85.7712	2,143.07	86.0415	2,143.07	86.9953	2,143.07	85.402	2,143.07	87.1687	2,143.07	85.4097	2,143.07	85.5776	2,143.07	84.9186	2,143.07	84.355	2,143.07	83.1597	2,143.07	84.5774	2,143.07	82.2704	2,143.07	83.0457	2,143.07	80.981	2,143.07	80.0802	2,143.07	80.9438	2,143.07	77.7545	2,143.07	79.191	2,143.07	76.3463	2,143.07	74.7833	2,143.07	76.7994	2,143.07	77.2261	2,143.07	67.7888	2,143.07	73.4017	2,143.07	69.6211	2,143.07	75.9532	2,143.07	72.9957	2,143.07	71.8551	2,143.07	65.5426	2,143.07	69.8546	2,143.07	70.9965	2,143.07	75.9659
2,219.24	85.8798	2,219.24	86.1045	2,219.24	85.4359	2,219.24	86.7269	2,219.24	85.9168	2,219.24	87.2377	2,219.24	86.8681	2,219.24	86.1099	2,219.24	86.4674	2,219.24	84.9047	2,219.24	85.7975	2,219.24	84.5718	2,219.24	85.4843	2,219.24	82.6462	2,219.24	84.3376	2,219.24	81.0149	2,219.24	83.1806	2,219.24	78.9391	2,219.24	81.6808	2,219.24	76.7331	2,219.24	79.9762	2,219.24	76.9378	2,219.24	78.3224	2,219.24	71.6376	2,219.24	76.4908	2,219.24	73.4138	2,219.24	76.5793	2,219.24	71.4386	2,219.24	70.4686	2,219.24	72.8808	2,219.24	72.8366	2,219.24	70.6044	2,219.24	67.6912	2,219.24	64.2079	2,219.24	70.7395	2,219.24	72.7376
2,296.88	84.8518	2,296.88	85.1256	2,296.88	86.0587	2,296.88	86.0565	2,296.88	86.6507	2,296.88	86.8352	2,296.88	87.1783	2,296.88	86.508	2,296.88	87.5998	2,296.88	84.8669	2,296.88	86.3096	2,296.88	84.3105	2,296.88	84.1109	2,296.88	83.079	2,296.88	81.5261	2,296.88	80.8628	2,296.88	80.6597	2,296.88	79.6224	2,296.88	80.777	2,296.88	75.6554	2,296.88	77.2716	2,296.88	75.3916	2,296.88	76.8906	2,296.88	71.7859	2,296.88	75.3483	2,296.88	72.8511	2,296.88	74.6161	2,296.88	69.8046	2,296.88	73.8442	2,296.88	68.5866	2,296.88	76.7047	2,296.88	69.3581	2,296.88	75.1066	2,296.88	73.5828	2,296.88	63.9691	2,296.88	75.6042
2,378.91	84.7169	2,378.91	85.178	2,378.91	84.8415	2,378.91	85.6889	2,378.91	85.5756	2,378.91	85.9013	2,378.91	86.0749	2,378.91	86.1587	2,378.91	85.806	2,378.91	85.8612	2,378.91	84.7585	2,378.91	84.8242	2,378.91	84.4137	2,378.91	83.303	2,378.91	84.0245	2,378.91	81.08	2,378.91	80.8423	2,378.91	78.9983	2,378.91	77.5815	2,378.91	76.7909	2,378.91	77.5273	2,378.91	77.1652	2,378.91	76.7612	2,378.91	73.1768	2,378.91	73.9477	2,378.91	74.0763	2,378.91	72.2899	2,378.91	76.1488	2,378.91	73.7654	2,378.91	72.6843	2,378.91	71.0471	2,378.91	70.664	2,378.91	67.3246	2,378.91	69.9758	2,378.91	69.9524	2,378.91	75.2844
2,462.4	85.5295	2,462.4	85.7383	2,462.4	85.7976	2,462.4	86.5271	2,462.4	86.4082	2,462.4	87.1393	2,462.4	87.311	2,462.4	87.1809	2,462.4	87.7597	2,462.4	86.1383	2,462.4	87.0579	2,462.4	84.7358	2,462.4	85.3836	2,462.4	83.0358	2,462.4	83.922	2,462.4	80.4817	2,462.4	82.2	2,462.4	79.2742	2,462.4	80.3977	2,462.4	76.1475	2,462.4	78.7126	2,462.4	74.8633	2,462.4	76.7855	2,462.4	73.0585	2,462.4	75.5655	2,462.4	70.1084	2,462.4	72.6901	2,462.4	74.3736	2,462.4	73.4795	2,462.4	72.4552	2,462.4	73.5186	2,462.4	68.8561	2,462.4	74.1163	2,462.4	63.6132	2,462.4	65.2553	2,462.4	71.7246
2,548.83	85.2276	2,548.83	85.3543	2,548.83	85.4952	2,548.83	86.0372	2,548.83	86.3168	2,548.83	86.6134	2,548.83	86.652	2,548.83	86.7026	2,548.83	86.3871	2,548.83	85.9214	2,548.83	86.0969	2,548.83	84.5013	2,548.83	84.5304	2,548.83	83.1802	2,548.83	82.3165	2,548.83	80.9177	2,548.83	80.6165	2,548.83	79.5419	2,548.83	78.9528	2,548.83	77.5315	2,548.83	77.4756	2,548.83	73.9584	2,548.83	75.3031	2,548.83	74.1188	2,548.83	74.1351	2,548.83	70.4453	2,548.83	71.4851	2,548.83	72.9718	2,548.83	71.9185	2,548.83	73.1003	2,548.83	70.3322	2,548.83	69.471	2,548.83	72.4974	2,548.83	67.9561	2,548.83	66.1765	2,548.83	69.5835
2,639.65	86.1057	2,639.65	86.2096	2,639.65	86.4662	2,639.65	86.6212	2,639.65	86.9235	2,639.65	86.6852	2,639.65	87.338	2,639.65	86.442	2,639.65	87.1886	2,639.65	85.7375	2,639.65	86.471	2,639.65	83.9574	2,639.65	85.0854	2,639.65	82.144	2,639.65	83.1421	2,639.65	80.1816	2,639.65	81.2207	2,639.65	78.1319	2,639.65	79.0579	2,639.65	76.4752	2,639.65	77.1934	2,639.65	74.3512	2,639.65	75.4488	2,639.65	73.2448	2,639.65	74.7464	2,639.65	68.8251	2,639.65	71.3364	2,639.65	72.3987	2,639.65	72.1547	2,639.65	70.5025	2,639.65	71.1641	2,639.65	67.3403	2,639.65	70.1159	2,639.65	46.296	2,639.65	54.9686	2,639.65	67.6288
2,731.93	86.9217	2,731.93	87.0429	2,731.93	87.1107	2,731.93	87.3016	2,731.93	87.3545	2,731.93	87.3854	2,731.93	87.4709	2,731.93	86.9715	2,731.93	87.176	2,731.93	86.095	2,731.93	86.4005	2,731.93	84.3708	2,731.93	84.9099	2,731.93	82.621	2,731.93	83.0374	2,731.93	80.9308	2,731.93	81.5647	2,731.93	79.1753	2,731.93	79.7237	2,731.93	77.7579	2,731.93	78.1855	2,731.93	74.4186	2,731.93	76.2575	2,731.93	74.022	2,731.93	74.5157	2,731.93	71.1948	2,731.93	70.9088	2,731.93	71.6612	2,731.93	71.7536	2,731.93	71.8439	2,731.93	70.8046	2,731.93	70.1967	2,731.93	71.8604	2,731.93	61.9349	2,731.93	61.631	2,731.93	69.3774
2,828.61	86.5897	2,828.61	86.6046	2,828.61	86.8048	2,828.61	86.7596	2,828.61	87.08	2,828.61	86.9268	2,828.61	87.144	2,828.61	86.2209	2,828.61	86.6068	2,828.61	85.1837	2,828.61	85.5022	2,828.61	83.9299	2,828.61	84.2496	2,828.61	81.574	2,828.61	82.4237	2,828.61	79.5635	2,828.61	80.3532	2,828.61	77.8733	2,828.61	78.6017	2,828.61	75.7525	2,828.61	76.7667	2,828.61	75.6819	2,828.61	74.6711	2,828.61	73.7304	2,828.61	74.7348	2,828.61	69.3298	2,828.61	71.9432	2,828.61	71.3451	2,828.61	71.0012	2,828.61	69.0052	2,828.61	70.3384	2,828.61	71.5074	2,828.61	69.9854	2,828.61	58.1667	2,828.61	61.2589	2,828.61	68.7098
2,928.22	87.0987	2,928.22	87.1395	2,928.22	87.1686	2,928.22	87.2714	2,928.22	87.3926	2,928.22	87.2752	2,928.22	87.4056	2,928.22	86.6263	2,928.22	86.9725	2,928.22	85.7214	2,928.22	86.0266	2,928.22	84.2848	2,928.22	84.4545	2,928.22	82.4254	2,928.22	82.6393	2,928.22	80.15	2,928.22	80.588	2,928.22	78.3018	2,928.22	78.9823	2,928.22	76.7073	2,928.22	77.5584	2,928.22	72.3148	2,928.22	74.8331	2,928.22	73.8301	2,928.22	73.3992	2,928.22	70.2724	2,928.22	71.7295	2,928.22	72.0855	2,928.22	73.8156	2,928.22	69.258	2,928.22	72.5281	2,928.22	70.3052	2,928.22	69.5071	2,928.22	56.9993	2,928.22	64.8246	2,928.22	64.5009
3,030.76	87.0845	3,030.76	87.192	3,030.76	87.098	3,030.76	87.3358	3,030.76	87.3919	3,030.76	87.2734	3,030.76	87.2775	3,030.76	86.7048	3,030.76	86.6617	3,030.76	86.0021	3,030.76	85.8913	3,030.76	84.3553	3,030.76	84.4562	3,030.76	82.5009	3,030.76	82.4555	3,030.76	80.4663	3,030.76	80.4893	3,030.76	78.1393	3,030.76	78.1627	3,030.76	77.3693	3,030.76	76.3398	3,030.76	74.405	3,030.76	73.9967	3,030.76	74.5532	3,030.76	74.8984	3,030.76	71.8574	3,030.76	73.4705	3,030.76	72.1941	3,030.76	72.0033	3,030.76	70.291	3,030.76	71.6797	3,030.76	71.3066	3,030.76	69.9585	3,030.76	64.7198	3,030.76	58.8109	3,030.76	63.8168
3,137.7	86.9947	3,137.7	86.9175	3,137.7	87.1241	3,137.7	86.8114	3,137.7	87.1671	3,137.7	86.9746	3,137.7	86.9639	3,137.7	86.2526	3,137.7	86.4745	3,137.7	85.3181	3,137.7	85.3857	3,137.7	84.124	3,137.7	84.1017	3,137.7	82.1495	3,137.7	82.3222	3,137.7	80.139	3,137.7	80.2724	3,137.7	77.6335	3,137.7	78.707	3,137.7	76.0604	3,137.7	76.6049	3,137.7	73.9374	3,137.7	73.8146	3,137.7	71.0124	3,137.7	72.4869	3,137.7	71.5371	3,137.7	68.9546	3,137.7	73.9179	3,137.7	73.7103	3,137.7	69.2814	3,137.7	72.2832	3,137.7	69.3137	3,137.7	70.8443	3,137.7	56.0909	3,137.7	67.3393	3,137.7	63.4475
3,249.02	87.5039	3,249.02	87.3617	3,249.02	87.33	3,249.02	86.9666	3,249.02	87.0218	3,249.02	86.6735	3,249.02	86.9005	3,249.02	86.3536	3,249.02	86.7058	3,249.02	85.5646	3,249.02	85.7621	3,249.02	83.7827	3,249.02	84.3977	3,249.02	81.8809	3,249.02	82.5135	3,249.02	79.7357	3,249.02	80.7638	3,249.02	77.3606	3,249.02	78.5504	3,249.02	76.4843	3,249.02	76.3141	3,249.02	74.4812	3,249.02	74.1	3,249.02	72.5521	3,249.02	71.7938	3,249.02	67.774	3,249.02	70.9859	3,249.02	72.6636	3,249.02	71.1477	3,249.02	69.4849	3,249.02	72.5734	3,249.02	69.7753	3,249.02	68.5673	3,249.02	64.5683	3,249.02	65.3635	3,249.02	64.5667
3,363.28	87.7104	3,363.28	87.3934	3,363.28	87.5307	3,363.28	87.0549	3,363.28	86.902	3,363.28	86.5809	3,363.28	86.5986	3,363.28	86.2604	3,363.28	86.28	3,363.28	85.318	3,363.28	85.5493	3,363.28	83.7235	3,363.28	84.2587	3,363.28	81.9212	3,363.28	82.1401	3,363.28	80.2553	3,363.28	80.3176	3,363.28	78.2405	3,363.28	78.2102	3,363.28	75.6164	3,363.28	76.1905	3,363.28	74.2986	3,363.28	74.3526	3,363.28	73.7131	3,363.28	72.2889	3,363.28	69.1041	3,363.28	71.5148	3,363.28	72.1196	3,363.28	69.4699	3,363.28	68.94	3,363.28	73.0389	3,363.28	69.9124	3,363.28	67.2681	3,363.28	61.5268	3,363.28	68.6172	3,363.28	64.1712
3,481.93	87.9392	3,481.93	87.5815	3,481.93	87.3064	3,481.93	86.7132	3,481.93	86.9638	3,481.93	86.3832	3,481.93	86.5815	3,481.93	86.0674	3,481.93	85.8625	3,481.93	85.0272	3,481.93	85.425	3,481.93	83.5233	3,481.93	84.1306	3,481.93	81.6026	3,481.93	82.2857	3,481.93	79.7174	3,481.93	80.048	3,481.93	77.3918	3,481.93	78.136	3,481.93	75.7983	3,481.93	75.4704	3,481.93	73.5176	3,481.93	74.4128	3,481.93	73.0579	3,481.93	72.047	3,481.93	72.1836	3,481.93	71.7912	3,481.93	71.6285	3,481.93	71.541	3,481.93	71.2469	3,481.93	72.6202	3,481.93	70.5895	3,481.93	66.6696	3,481.93	63.8827	3,481.93	67.8097	3,481.93	61.3162
3,604.98	88.1869	3,604.98	87.5321	3,604.98	87.8046	3,604.98	86.6367	3,604.98	86.7694	3,604.98	86.1323	3,604.98	85.8836	3,604.98	85.4221	3,604.98	85.9464	3,604.98	85.0798	3,604.98	85.495	3,604.98	84.1145	3,604.98	84.2912	3,604.98	81.989	3,604.98	82.155	3,604.98	79.3327	3,604.98	80.3544	3,604.98	76.7033	3,604.98	78.3235	3,604.98	73.9589	3,604.98	75.2164	3,604.98	73.407	3,604.98	74.218	3,604.98	70.8458	3,604.98	71.9467	3,604.98	71.2505	3,604.98	71.8946	3,604.98	71.3699	3,604.98	70.371	3,604.98	70.6717	3,604.98	71.807	3,604.98	69.6186	3,604.98	68.8088	3,604.98	66.7687	3,604.98	69.6923	3,604.98	59.1603
3,732.42	88.0754	3,732.42	87.3822	3,732.42	87.5295	3,732.42	86.3446	3,732.42	86.0775	3,732.42	85.5408	3,732.42	85.5287	3,732.42	85.466	3,732.42	85.4907	3,732.42	84.5992	3,732.42	85.0582	3,732.42	83.4931	3,732.42	83.8266	3,732.42	81.9973	3,732.42	82.007	3,732.42	79.8914	3,732.42	79.4217	3,732.42	77.6556	3,732.42	77.3116	3,732.42	74.7311	3,732.42	74.6801	3,732.42	73.7776	3,732.42	72.7149	3,732.42	70.853	3,732.42	70.2007	3,732.42	70.5642	3,732.42	70.7184	3,732.42	70.6017	3,732.42	68.2425	3,732.42	68.3234	3,732.42	72.2137	3,732.42	69.1546	3,732.42	66.3424	3,732.42	67.5939	3,732.42	70.6677	3,732.42	61.6062
3,864.26	88.4176	3,864.26	87.6739	3,864.26	87.5966	3,864.26	86.1919	3,864.26	86.3334	3,864.26	85.3561	3,864.26	85.4697	3,864.26	85.2759	3,864.26	85.3641	3,864.26	84.8993	3,864.26	85.1292	3,864.26	83.167	3,864.26	83.8275	3,864.26	80.9657	3,864.26	81.9849	3,864.26	78.7391	3,864.26	79.61	3,864.26	76.9401	3,864.26	77.1798	3,864.26	73.6317	3,864.26	74.1301	3,864.26	72.2224	3,864.26	72.0081	3,864.26	71.0287	3,864.26	70.5071	3,864.26	70.1611	3,864.26	71.7337	3,864.26	66.8416	3,864.26	67.8965	3,864.26	69.716	3,864.26	70.8507	3,864.26	66.1514	3,864.26	65.2458	3,864.26	69.4346	3,864.26	71.4675	3,864.26	66.3909
4,000.49	88.2067	4,000.49	87.3588	4,000.49	87.4919	4,000.49	85.7141	4,000.49	86.1371	4,000.49	84.7268	4,000.49	84.9553	4,000.49	84.4623	4,000.49	84.7018	4,000.49	84.7991	4,000.49	84.3086	4,000.49	83.2524	4,000.49	83.1558	4,000.49	81.341	4,000.49	81.1316	4,000.49	79.0525	4,000.49	78.8807	4,000.49	76.1407	4,000.49	76.3354	4,000.49	73.8836	4,000.49	73.8905	4,000.49	72.0943	4,000.49	72.3332	4,000.49	70.8572	4,000.49	69.5101	4,000.49	72.1458	4,000.49	70.625	4,000.49	67.4136	4,000.49	68.313	4,000.49	68.5842	4,000.49	67.0644	4,000.49	67.0151	4,000.49	66.3801	4,000.49	66.0471	4,000.49	67.1526	4,000.49	64.3786
4,141.11	88.584	4,141.11	87.764	4,141.11	87.9972	4,141.11	86.0124	4,141.11	85.9712	4,141.11	84.9323	4,141.11	84.8863	4,141.11	85.0806	4,141.11	84.7612	4,141.11	84.2572	4,141.11	84.5345	4,141.11	83.0012	4,141.11	83.3537	4,141.11	81.2389	4,141.11	81.1381	4,141.11	78.9085	4,141.11	78.4977	4,141.11	75.4998	4,141.11	76.005	4,141.11	72.9512	4,141.11	73.199	4,141.11	69.654	4,141.11	71.6223	4,141.11	65.5361	4,141.11	68.7574	4,141.11	69.1748	4,141.11	67.0193	4,141.11	68.6019	4,141.11	67.8216	4,141.11	68.4599	4,141.11	69.6847	4,141.11	65.2014	4,141.11	67.7256	4,141.11	62.467	4,141.11	66.5237	4,141.11	60.5136
4,287.6	88.2729	4,287.6	87.3799	4,287.6	87.5178	4,287.6	85.5933	4,287.6	86.2739	4,287.6	85.1142	4,287.6	84.9006	4,287.6	84.4297	4,287.6	84.4973	4,287.6	84.1465	4,287.6	84.0361	4,287.6	82.6248	4,287.6	82.5172	4,287.6	80.0775	4,287.6	80.2592	4,287.6	77.9483	4,287.6	77.7963	4,287.6	75.7128	4,287.6	75.2003	4,287.6	73.1512	4,287.6	72.266	4,287.6	71.4714	4,287.6	69.7303	4,287.6	69.397	4,287.6	68.8627	4,287.6	69.2171	4,287.6	68.3165	4,287.6	67.3822	4,287.6	62.5329	4,287.6	68.1909	4,287.6	67.36	4,287.6	65.0845	4,287.6	67.5529	4,287.6	65.1441	4,287.6	66.131	4,287.6	60.0065
4,438.48	88.0923	4,438.48	87.4514	4,438.48	87.6732	4,438.48	86.0373	4,438.48	85.9946	4,438.48	84.9535	4,438.48	84.6162	4,438.48	84.951	4,438.48	84.3105	4,438.48	84.1079	4,438.48	83.5547	4,438.48	82.7797	4,438.48	82.12	4,438.48	80.6963	4,438.48	79.5844	4,438.48	77.7652	4,438.48	76.3916	4,438.48	74.5005	4,438.48	74.0749	4,438.48	71.4702	4,438.48	71.5736	4,438.48	69.9672	4,438.48	69.5575	4,438.48	68.7818	4,438.48	67.4707	4,438.48	69.8178	4,438.48	67.7195	4,438.48	63.9001	4,438.48	65.8621	4,438.48	68.5276	4,438.48	64.6518	4,438.48	63.6522	4,438.48	66.305	4,438.48	63.9836	4,438.48	63.5542	4,438.48	59.576
4,595.21	87.9646	4,595.21	87.6522	4,595.21	87.2609	4,595.21	86.3705	4,595.21	86.0349	4,595.21	85.1922	4,595.21	84.7575	4,595.21	84.4169	4,595.21	84.1073	4,595.21	83.7718	4,595.21	83.2992	4,595.21	81.8464	4,595.21	81.3009	4,595.21	79.3881	4,595.21	78.6958	4,595.21	76.8071	4,595.21	76.001	4,595.21	73.2953	4,595.21	73.1693	4,595.21	71.3698	4,595.21	70.3892	4,595.21	69.9123	4,595.21	67.8892	4,595.21	69.2075	4,595.21	66.3454	4,595.21	69.6154	4,595.21	66.4841	4,595.21	63.8824	4,595.21	65.8261	4,595.21	66.9602	4,595.21	63.9171	4,595.21	64.8567	4,595.21	64.2962	4,595.21	58.7642	4,595.21	64.2537	4,595.21	58.6666
4,756.35	87.56	4,756.35	87.2249	4,756.35	87.1258	4,756.35	86.1218	4,756.35	86.2447	4,756.35	85.0091	4,756.35	84.8512	4,756.35	84.1254	4,756.35	83.8725	4,756.35	83.2502	4,756.35	82.5764	4,756.35	81.5254	4,756.35	80.8783	4,756.35	78.9716	4,756.35	78.6123	4,756.35	76.6076	4,756.35	75.7167	4,756.35	73.8165	4,756.35	72.4965	4,756.35	71.6906	4,756.35	70.0133	4,756.35	70.3237	4,756.35	67.8877	4,756.35	68.9311	4,756.35	66.8311	4,756.35	69.4331	4,756.35	66.0338	4,756.35	64.1579	4,756.35	63.6334	4,756.35	66.0624	4,756.35	64.353	4,756.35	65.1144	4,756.35	64.5153	4,756.35	59.2074	4,756.35	61.0707	4,756.35	57.577
4,924.8	86.9864	4,924.8	86.9704	4,924.8	86.8315	4,924.8	86.1781	4,924.8	86.0871	4,924.8	84.6934	4,924.8	84.6219	4,924.8	83.6441	4,924.8	83.5045	4,924.8	82.9142	4,924.8	82.3453	4,924.8	81.1885	4,924.8	80.4351	4,924.8	78.6351	4,924.8	78.0303	4,924.8	76.0573	4,924.8	75.478	4,924.8	72.9601	4,924.8	72.2722	4,924.8	69.6311	4,924.8	69.422	4,924.8	67.3713	4,924.8	66.8519	4,924.8	66.2878	4,924.8	65.3349	4,924.8	68.3192	4,924.8	65.8593	4,924.8	64.0907	4,924.8	65.1397	4,924.8	65.0708	4,924.8	64.1075	4,924.8	64.8143	4,924.8	63.5385	4,924.8	56.7796	4,924.8	60.6207	4,924.8	57.2895
5,097.66	87.1357	5,097.66	87.2717	5,097.66	87.0072	5,097.66	86.5844	5,097.66	86.473	5,097.66	85.0136	5,097.66	84.8053	5,097.66	83.4593	5,097.66	83.1491	5,097.66	82.4086	5,097.66	81.8252	5,097.66	80.686	5,097.66	80.3696	5,097.66	78.0835	5,097.66	78.0741	5,097.66	75.1242	5,097.66	75.5171	5,097.66	72.3305	5,097.66	72.3987	5,097.66	68.9386	5,097.66	69.3825	5,097.66	66.4476	5,097.66	66.9277	5,097.66	65.3684	5,097.66	65.2706	5,097.66	67.0937	5,097.66	65.1745	5,097.66	64.3911	5,097.66	64.5385	5,097.66	63.6544	5,097.66	64.0056	5,097.66	63.6071	5,097.66	63.3977	5,097.66	52.7145	5,097.66	61.5202	5,097.66	56.5946
5,277.83	86.8822	5,277.83	87.0681	5,277.83	87.1748	5,277.83	86.3518	5,277.83	86.6155	5,277.83	84.3806	5,277.83	84.6858	5,277.83	82.6514	5,277.83	82.9023	5,277.83	81.544	5,277.83	81.7763	5,277.83	80.0899	5,277.83	80.4357	5,277.83	77.8453	5,277.83	78.2427	5,277.83	75.0993	5,277.83	75.5119	5,277.83	72.2613	5,277.83	72.3249	5,277.83	69.8618	5,277.83	69.4826	5,277.83	67.4611	5,277.83	66.9067	5,277.83	65.4643	5,277.83	64.8238	5,277.83	66.5211	5,277.83	64.4012	5,277.83	64.0788	5,277.83	64.6627	5,277.83	64.3034	5,277.83	63.9432	5,277.83	63.1809	5,277.83	63.1117	5,277.83	50.1663	5,277.83	61.9869	5,277.83	56.82
5,463.87	86.5768	5,463.87	86.7213	5,463.87	86.8977	5,463.87	85.9629	5,463.87	86.3845	5,463.87	83.7879	5,463.87	84.265	5,463.87	82.1692	5,463.87	82.3419	5,463.87	81.6108	5,463.87	81.4338	5,463.87	80.3349	5,463.87	80.3208	5,463.87	78.3197	5,463.87	78.243	5,463.87	75.7817	5,463.87	75.5633	5,463.87	72.5931	5,463.87	72.2356	5,463.87	69.99	5,463.87	69.2011	5,463.87	66.9717	5,463.87	66.9907	5,463.87	65.3175	5,463.87	65.0686	5,463.87	65.1165	5,463.87	63.8312	5,463.87	63.6109	5,463.87	64.3401	5,463.87	63.4298	5,463.87	63.8914	5,463.87	62.9436	5,463.87	62.7382	5,463.87	36.3882	5,463.87	60.6666	5,463.87	57.2587
5,657.23	86.7038	5,657.23	86.747	5,657.23	86.9405	5,657.23	85.842	5,657.23	86.142	5,657.23	83.6809	5,657.23	83.8887	5,657.23	82.3481	5,657.23	82.1002	5,657.23	81.9218	5,657.23	81.5526	5,657.23	80.6389	5,657.23	80.4695	5,657.23	78.1146	5,657.23	78.2866	5,657.23	75.0635	5,657.23	75.2675	5,657.23	71.516	5,657.23	72.175	5,657.23	68.3339	5,657.23	69.0368	5,657.23	66.0072	5,657.23	66.6059	5,657.23	64.1216	5,657.23	64.8959	5,657.23	64.1345	5,657.23	62.6817	5,657.23	62.8885	5,657.23	63.8701	5,657.23	63.0145	5,657.23	63.5041	5,657.23	62.6508	5,657.23	62.0476	5,657.23	53.2997	5,657.23	60.2961	5,657.23	60.581
5,856.45	87.0045	5,856.45	86.7599	5,856.45	87.0556	5,856.45	85.5219	5,856.45	85.8889	5,856.45	83.378	5,856.45	83.5421	5,856.45	82.1359	5,856.45	82.1169	5,856.45	82.0091	5,856.45	81.8423	5,856.45	80.5314	5,856.45	80.6634	5,856.45	77.5124	5,856.45	78.3171	5,856.45	74.0397	5,856.45	75.1709	5,856.45	70.2531	5,856.45	71.7129	5,856.45	67.1206	5,856.45	68.5764	5,856.45	65.6066	5,856.45	66.3893	5,856.45	64.2237	5,856.45	64.5789	5,856.45	63.898	5,856.45	62.3415	5,856.45	62.8013	5,856.45	62.9288	5,856.45	64.4801	5,856.45	63.1209	5,856.45	60.3508	5,856.45	61.6913	5,856.45	51.2619	5,856.45	59.1161	5,856.45	59.0869
6,062.99	87.0104	6,062.99	86.5364	6,062.99	86.8194	6,062.99	85.1476	6,062.99	85.3986	6,062.99	83.0581	6,062.99	83.2678	6,062.99	82.3237	6,062.99	82.0662	6,062.99	82.0278	6,062.99	81.9098	6,062.99	80.309	6,062.99	80.6788	6,062.99	77.2968	6,062.99	78.1192	6,062.99	73.517	6,062.99	74.9781	6,062.99	70.4064	6,062.99	71.3591	6,062.99	67.2803	6,062.99	68.3405	6,062.99	64.9138	6,062.99	66.0421	6,062.99	64.2578	6,062.99	64.0385	6,062.99	63.5954	6,062.99	63.3041	6,062.99	63.174	6,062.99	63.654	6,062.99	63.2428	6,062.99	63.4889	6,062.99	61.2427	6,062.99	62.6731	6,062.99	47.3856	6,062.99	56.4663	6,062.99	60.0852
6,276.86	87.2381	6,276.86	86.6901	6,276.86	86.8082	6,276.86	85.1355	6,276.86	85.3842	6,276.86	83.221	6,276.86	83.3978	6,276.86	82.5525	6,276.86	82.326	6,276.86	82.3677	6,276.86	81.9791	6,276.86	80.4083	6,276.86	80.518	6,276.86	77.4022	6,276.86	77.8476	6,276.86	74.3178	6,276.86	74.8334	6,276.86	71.335	6,276.86	71.4508	6,276.86	67.7049	6,276.86	68.1734	6,276.86	65.3302	6,276.86	65.4782	6,276.86	64.1327	6,276.86	63.9955	6,276.86	63.9843	6,276.86	63.8523	6,276.86	63.4391	6,276.86	62.8302	6,276.86	64.641	6,276.86	64.398	6,276.86	62.6643	6,276.86	63.5419	6,276.86	54.4753	6,276.86	54.9813	6,276.86	64.0989
6,498.05	87.4935	6,498.05	86.8771	6,498.05	87.0374	6,498.05	85.6438	6,498.05	85.5986	6,498.05	83.6134	6,498.05	83.8433	6,498.05	82.7269	6,498.05	82.3494	6,498.05	82.6211	6,498.05	81.983	6,498.05	80.9364	6,498.05	80.6473	6,498.05	78.3761	6,498.05	78.2198	6,498.05	75.6935	6,498.05	75.842	6,498.05	72.9067	6,498.05	72.4746	6,498.05	69.0906	6,498.05	69.7588	6,498.05	66.4437	6,498.05	66.7029	6,498.05	64.7721	6,498.05	63.4787	6,498.05	64.8371	6,498.05	64.7795	6,498.05	64.8772	6,498.05	65.2916	6,498.05	65.7772	6,498.05	62.1421	6,498.05	64.5317	6,498.05	62.9505	6,498.05	49.113	6,498.05	52.3647	6,498.05	63.8235
6,726.56	87.3942	6,726.56	86.9162	6,726.56	86.9599	6,726.56	85.9477	6,726.56	85.7127	6,726.56	83.9938	6,726.56	84.0661	6,726.56	82.5685	6,726.56	82.0476	6,726.56	82.9437	6,726.56	81.6564	6,726.56	81.8347	6,726.56	80.8461	6,726.56	79.7837	6,726.56	79.0564	6,726.56	77.2042	6,726.56	76.8401	6,726.56	74.5076	6,726.56	73.4388	6,726.56	70.7105	6,726.56	70.7884	6,726.56	68.0502	6,726.56	67.5672	6,726.56	65.2418	6,726.56	63.87	6,726.56	65.576	6,726.56	64.4287	6,726.56	66.3654	6,726.56	66.8007	6,726.56	64.694	6,726.56	63.9066	6,726.56	66.6572	6,726.56	62.5314	6,726.56	54.6152	6,726.56	58.0804	6,726.56	64.5062
6,963.87	87.2864	6,963.87	86.5271	6,963.87	86.522	6,963.87	85.9955	6,963.87	85.432	6,963.87	84.1248	6,963.87	84.1524	6,963.87	82.1103	6,963.87	81.3686	6,963.87	82.7885	6,963.87	81.1694	6,963.87	82.4554	6,963.87	81.3579	6,963.87	80.7542	6,963.87	80.0297	6,963.87	78.1248	6,963.87	77.6662	6,963.87	75.23	6,963.87	74.1384	6,963.87	71.4674	6,963.87	71.3828	6,963.87	69.461	6,963.87	68.6769	6,963.87	66.2411	6,963.87	64.5333	6,963.87	65.5579	6,963.87	65.0921	6,963.87	67.1709	6,963.87	65.789	6,963.87	64.8285	6,963.87	65.1417	6,963.87	66.0107	6,963.87	63.1548	6,963.87	44.3993	6,963.87	57.3643	6,963.87	64.2294
7,209.96	86.9423	7,209.96	86.1254	7,209.96	86.0349	7,209.96	85.9379	7,209.96	85.2446	7,209.96	84.1362	7,209.96	84.0166	7,209.96	81.6022	7,209.96	80.8189	7,209.96	82.7597	7,209.96	81.0682	7,209.96	82.905	7,209.96	82.0539	7,209.96	81.336	7,209.96	80.5805	7,209.96	78.5481	7,209.96	78.1018	7,209.96	75.5571	7,209.96	74.3443	7,209.96	71.7455	7,209.96	71.199	7,209.96	69.6271	7,209.96	68.32	7,209.96	65.9453	7,209.96	64.4706	7,209.96	65.5585	7,209.96	64.9991	7,209.96	67.1413	7,209.96	64.753	7,209.96	63.6948	7,209.96	65.5107	7,209.96	65.4942	7,209.96	63.5228	7,209.96	53.2767	7,209.96	54.342	7,209.96	63.4005
7,464.84	86.4437	7,464.84	85.7337	7,464.84	85.6322	7,464.84	85.7575	7,464.84	85.1133	7,464.84	83.95	7,464.84	83.9053	7,464.84	81.3607	7,464.84	81.0202	7,464.84	82.7436	7,464.84	81.5821	7,464.84	83.0757	7,464.84	82.4494	7,464.84	81.3335	7,464.84	80.7083	7,464.84	78.2389	7,464.84	77.982	7,464.84	75.1866	7,464.84	74.0318	7,464.84	71.2154	7,464.84	70.9004	7,464.84	69.2131	7,464.84	67.9314	7,464.84	65.4315	7,464.84	65.0478	7,464.84	64.9543	7,464.84	64.768	7,464.84	66.4534	7,464.84	64.3012	7,464.84	63.0482	7,464.84	64.7601	7,464.84	64.4864	7,464.84	63.5971	7,464.84	51.9925	7,464.84	55.2989	7,464.84	62.2461
7,727.05	86.1818	7,727.05	85.737	7,727.05	85.5123	7,727.05	85.6544	7,727.05	85.1625	7,727.05	83.9012	7,727.05	83.9286	7,727.05	81.7034	7,727.05	81.8032	7,727.05	82.8077	7,727.05	82.0269	7,727.05	82.9105	7,727.05	82.4356	7,727.05	80.9454	7,727.05	80.3156	7,727.05	77.5302	7,727.05	77.4377	7,727.05	74.5087	7,727.05	73.5524	7,727.05	70.4093	7,727.05	70.3636	7,727.05	68.7797	7,727.05	67.2539	7,727.05	65.0193	7,727.05	64.2051	7,727.05	65.4994	7,727.05	64.0691	7,727.05	65.8696	7,727.05	64.0345	7,727.05	61.5538	7,727.05	63.6332	7,727.05	63.7662	7,727.05	64.2412	7,727.05	56.0403	7,727.05	53.0612	7,727.05	62.5004
7,999.51	86.1669	7,999.51	85.8461	7,999.51	85.8316	7,999.51	85.4981	7,999.51	85.2812	7,999.51	84.0376	7,999.51	84.1896	7,999.51	82.1296	7,999.51	82.6597	7,999.51	82.6359	7,999.51	82.1735	7,999.51	82.3426	7,999.51	82.0913	7,999.51	80.2263	7,999.51	79.7658	7,999.51	77.1453	7,999.51	77.0972	7,999.51	74.1762	7,999.51	73.7069	7,999.51	69.8295	7,999.51	70.272	7,999.51	68.1599	7,999.51	67.2297	7,999.51	64.6216	7,999.51	64.1873	7,999.51	64.8822	7,999.51	63.0587	7,999.51	64.3838	7,999.51	63.1504	7,999.51	61.8146	7,999.51	63.173	7,999.51	63.8546	7,999.51	63.6854	7,999.51	57.4764	7,999.51	45.0928	7,999.51	63.9458
8,282.23	86.0727	8,282.23	86.0104	8,282.23	86.1411	8,282.23	85.2826	8,282.23	85.4137	8,282.23	84.1184	8,282.23	84.6119	8,282.23	82.1825	8,282.23	83.2113	8,282.23	82.0274	8,282.23	82.0288	8,282.23	81.5377	8,282.23	81.6994	8,282.23	79.3049	8,282.23	79.6334	8,282.23	76.2904	8,282.23	77.2066	8,282.23	73.6201	8,282.23	73.7652	8,282.23	69.1221	8,282.23	70.712	8,282.23	67.1664	8,282.23	67.1726	8,282.23	63.532	8,282.23	63.2143	8,282.23	63.5692	8,282.23	62.6409	8,282.23	63.7161	8,282.23	63.9089	8,282.23	61.9665	8,282.23	63.458	8,282.23	61.9694	8,282.23	63.3488	8,282.23	59.826	8,282.23	51.696	8,282.23	63.7059
8,573.73	86.1941	8,573.73	86.4705	8,573.73	86.5934	8,573.73	85.4712	8,573.73	85.7898	8,573.73	84.7756	8,573.73	85.2445	8,573.73	82.5338	8,573.73	83.5751	8,573.73	81.36	8,573.73	81.5598	8,573.73	81.0294	8,573.73	81.7075	8,573.73	79.2457	8,573.73	80.1843	8,573.73	76.0945	8,573.73	77.5698	8,573.73	73.2677	8,573.73	74.1357	8,573.73	69.2647	8,573.73	70.878	8,573.73	66.6836	8,573.73	68.2478	8,573.73	63.2603	8,573.73	64.2377	8,573.73	63.0996	8,573.73	61.6582	8,573.73	63.7996	8,573.73	63.8209	8,573.73	60.3837	8,573.73	63.5372	8,573.73	63.3313	8,573.73	63.0335	8,573.73	58.4088	8,573.73	53.9922	8,573.73	65.7231
8,876.95	86.322	8,876.95	86.6259	8,876.95	87.05	8,876.95	85.7283	8,876.95	86.1866	8,876.95	85.3865	8,876.95	85.8949	8,876.95	82.8057	8,876.95	83.798	8,876.95	81.1032	8,876.95	81.5257	8,876.95	81.0579	8,876.95	82.2143	8,876.95	79.4212	8,876.95	80.9238	8,876.95	76.0647	8,876.95	78.1076	8,876.95	72.8904	8,876.95	74.606	8,876.95	68.918	8,876.95	71.3361	8,876.95	66.3316	8,876.95	68.458	8,876.95	62.7636	8,876.95	64.3603	8,876.95	62.3879	8,876.95	63.1038	8,876.95	64.0413	8,876.95	63.9367	8,876.95	55.2126	8,876.95	63.4651	8,876.95	61.919	8,876.95	61.5987	8,876.95	55.0011	8,876.95	55.6722	8,876.95	64.7271
9,188.96	86.7081	9,188.96	86.8552	9,188.96	87.4287	9,188.96	86.0744	9,188.96	86.638	9,188.96	85.672	9,188.96	86.1888	9,188.96	82.7093	9,188.96	83.8229	9,188.96	81.2076	9,188.96	81.7648	9,188.96	81.0935	9,188.96	82.3271	9,188.96	79.2459	9,188.96	80.9486	9,188.96	75.7086	9,188.96	77.9714	9,188.96	71.9844	9,188.96	74.1359	9,188.96	68.2536	9,188.96	70.7815	9,188.96	65.0953	9,188.96	67.6018	9,188.96	61.9553	9,188.96	64.2889	9,188.96	62.578	9,188.96	63.3659	9,188.96	63.1395	9,188.96	64.1109	9,188.96	53.6788	9,188.96	62.433	9,188.96	57.0113	9,188.96	58.2601	9,188.96	49.3713	9,188.96	55.6027	9,188.96	62.758
9,514.16	86.8786	9,514.16	86.9223	9,514.16	87.5108	9,514.16	86.5058	9,514.16	86.9503	9,514.16	85.7557	9,514.16	86.1724	9,514.16	82.9044	9,514.16	83.9401	9,514.16	81.5266	9,514.16	82.0808	9,514.16	80.6142	9,514.16	81.9106	9,514.16	78.4204	9,514.16	80.487	9,514.16	75.4054	9,514.16	77.6368	9,514.16	71.1302	9,514.16	73.6526	9,514.16	68.1877	9,514.16	70.2038	9,514.16	64.7521	9,514.16	67.184	9,514.16	62.4386	9,514.16	63.826	9,514.16	62.9172	9,514.16	63.3419	9,514.16	62.0091	9,514.16	63.7374	9,514.16	52.9235	9,514.16	59.5381	9,514.16	56.772	9,514.16	52.0284	9,514.16	51.3422	9,514.16	60.5842	9,514.16	58.2131
9,849.61	87.0381	9,849.61	86.7906	9,849.61	87.4278	9,849.61	86.641	9,849.61	86.9239	9,849.61	85.6193	9,849.61	85.9408	9,849.61	83.3636	9,849.61	84.0785	9,849.61	81.5958	9,849.61	82.2891	9,849.61	80.2229	9,849.61	81.3629	9,849.61	78.0438	9,849.61	79.7991	9,849.61	75.2615	9,849.61	77.2783	9,849.61	70.6188	9,849.61	72.6537	9,849.61	68.2632	9,849.61	70.1519	9,849.61	64.6329	9,849.61	65.6877	9,849.61	62.6436	9,849.61	63.6939	9,849.61	62.1874	9,849.61	62.8503	9,849.61	62.4978	9,849.61	61.7837	9,849.61	43.3324	9,849.61	56.5942	9,849.61	54.2965	9,849.61	43.3544	9,849.61	55.7178	9,849.61	60.9213	9,849.61	55.7545
10,196.8	87.0552	10,196.8	86.8817	10,196.8	87.3605	10,196.8	86.7954	10,196.8	86.8306	10,196.8	85.5172	10,196.8	85.6989	10,196.8	83.7211	10,196.8	84.2271	10,196.8	81.0911	10,196.8	82.1361	10,196.8	79.9579	10,196.8	80.7476	10,196.8	78.1409	10,196.8	79.1792	10,196.8	75.5558	10,196.8	76.8321	10,196.8	70.63	10,196.8	71.4997	10,196.8	68.1551	10,196.8	69.4286	10,196.8	63.6993	10,196.8	64.3362	10,196.8	62.0676	10,196.8	63.2268	10,196.8	62.7667	10,196.8	62.5902	10,196.8	61.6985	10,196.8	61.1084	10,196.8	53.445	10,196.8	51.3588	10,196.8	55.4783	10,196.8	48.5775	10,196.8	56.3213	10,196.8	60.7393	10,196.8	55.9972
10,555.7	87.1587	10,555.7	86.8535	10,555.7	87.3246	10,555.7	86.654	10,555.7	86.7316	10,555.7	85.2465	10,555.7	85.673	10,555.7	83.5924	10,555.7	84.2638	10,555.7	80.5488	10,555.7	81.5451	10,555.7	79.3595	10,555.7	79.8895	10,555.7	77.3362	10,555.7	77.7845	10,555.7	74.6821	10,555.7	75.5958	10,555.7	69.3002	10,555.7	69.8667	10,555.7	66.8727	10,555.7	67.6318	10,555.7	62.077	10,555.7	62.3986	10,555.7	61.6477	10,555.7	62.3256	10,555.7	61.2793	10,555.7	60.3233	10,555.7	58.822	10,555.7	58.7432	10,555.7	56.3391	10,555.7	44.9835	10,555.7	51.5237	10,555.7	44.0451	10,555.7	54.4948	10,555.7	59.9242	10,555.7	51.9733
10,927.7	87.1435	10,927.7	86.8928	10,927.7	87.2397	10,927.7	86.4082	10,927.7	86.5573	10,927.7	84.7865	10,927.7	85.3403	10,927.7	82.6951	10,927.7	83.4508	10,927.7	79.7718	10,927.7	80.1897	10,927.7	77.9604	10,927.7	78.0324	10,927.7	74.9864	10,927.7	74.8326	10,927.7	72.0676	10,927.7	72.1421	10,927.7	65.935	10,927.7	66.1767	10,927.7	63.382	10,927.7	63.5298	10,927.7	57.6995	10,927.7	57.4105	10,927.7	57.7435	10,927.7	59.887	10,927.7	57.6223	10,927.7	57.2565	10,927.7	54.4365	10,927.7	50.1232	10,927.7	54.6239	10,927.7	49.1464	10,927.7	55.9759	10,927.7	51.0768	10,927.7	54.8127	10,927.7	54.9063	10,927.7	53.0534
11,313	86.9647	11,313	86.7008	11,313	87.0376	11,313	85.9812	11,313	86.3286	11,313	84.2309	11,313	84.8528	11,313	81.8915	11,313	82.3541	11,313	79.0006	11,313	78.6521	11,313	76.5063	11,313	75.9758	11,313	72.1382	11,313	71.7078	11,313	69.4918	11,313	68.4038	11,313	61.7826	11,313	63.1428	11,313	60.8904	11,313	57.988	11,313	53.5854	11,313	55.3325	11,313	55.2227	11,313	54.4852	11,313	54.9994	11,313	48.5647	11,313	53.8496	11,313	46.0168	11,313	53.686	11,313	49.3211	11,313	56.628	11,313	53.1053	11,313	57.2152	11,313	39.98	11,313	53.5753
11,712.9	86.8333	11,712.9	86.5939	11,712.9	86.9244	11,712.9	85.8386	11,712.9	86.2061	11,712.9	83.8981	11,712.9	84.6191	11,712.9	81.2091	11,712.9	81.8894	11,712.9	78.1481	11,712.9	78.2866	11,712.9	75.4455	11,712.9	75.7161	11,712.9	70.4925	11,712.9	72.4332	11,712.9	67.8476	11,712.9	69.2271	11,712.9	61.2259	11,712.9	64.8872	11,712.9	59.7348	11,712.9	60.7802	11,712.9	53.85	11,712.9	57.6318	11,712.9	55.2503	11,712.9	55.8018	11,712.9	52.4525	11,712.9	53.1688	11,712.9	53.0556	11,712.9	53.4215	11,712.9	52.9621	11,712.9	46.0875	11,712.9	59.471	11,712.9	53.9545	11,712.9	59.6208	11,712.9	57.1125	11,712.9	43.3669
12,126	86.9177	12,126	86.5313	12,126	87.1096	12,126	85.8104	12,126	86.3152	12,126	83.5989	12,126	84.6573	12,126	80.4424	12,126	81.7189	12,126	76.8717	12,126	78.2108	12,126	73.9348	12,126	75.417	12,126	70.1427	12,126	72.4299	12,126	67.6463	12,126	69.0641	12,126	62.8848	12,126	65.4668	12,126	59.0284	12,126	61.7967	12,126	56.4474	12,126	58.0971	12,126	55.2382	12,126	56.5094	12,126	52.3273	12,126	53.7628	12,126	53.5472	12,126	53.8096	12,126	52.9672	12,126	43.8296	12,126	58.6324	12,126	48.8418	12,126	60.865	12,126	61.2619	12,126	51.0379
12,553.7	86.5904	12,553.7	86.2483	12,553.7	86.8461	12,553.7	85.5546	12,553.7	86.09	12,553.7	83.0973	12,553.7	84.0855	12,553.7	80.107	12,553.7	80.959	12,553.7	76.7166	12,553.7	77.3371	12,553.7	75.4557	12,553.7	75.5146	12,553.7	72.9788	12,553.7	73.6956	12,553.7	71.1079	12,553.7	70.4156	12,553.7	66.8016	12,553.7	67.5371	12,553.7	61.8759	12,553.7	63.6919	12,553.7	60.0545	12,553.7	59.9015	12,553.7	58.0123	12,553.7	59.1855	12,553.7	53.5737	12,553.7	54.4342	12,553.7	48.2171	12,553.7	50.6506	12,553.7	49.4258	12,553.7	42.8441	12,553.7	63.1728	12,553.7	45.1707	12,553.7	64.0551	12,553.7	62.2805	12,553.7	57.0262
12,996.1	85.6785	12,996.1	85.5326	12,996.1	85.8836	12,996.1	84.8396	12,996.1	85.3276	12,996.1	82.488	12,996.1	83.1992	12,996.1	80.063	12,996.1	80.4334	12,996.1	77.3217	12,996.1	77.6364	12,996.1	76.3196	12,996.1	76.0239	12,996.1	73.5837	12,996.1	74.1526	12,996.1	71.6532	12,996.1	71.3532	12,996.1	67.7906	12,996.1	68.7514	12,996.1	62.3183	12,996.1	64.2413	12,996.1	61.1156	12,996.1	61.0178	12,996.1	58.6195	12,996.1	59.84	12,996.1	53.2286	12,996.1	53.679	12,996.1	52.1086	12,996.1	50.9516	12,996.1	43.2727	12,996.1	47.1185	12,996.1	63.0918	12,996.1	43.8584	12,996.1	61.71	12,996.1	60.8223	12,996.1	54.6805
13,454.6	84.9209	13,454.6	84.5533	13,454.6	85.0668	13,454.6	84.01	13,454.6	84.3338	13,454.6	81.9503	13,454.6	82.5649	13,454.6	79.1805	13,454.6	80.0445	13,454.6	76.7743	13,454.6	77.4563	13,454.6	74.6462	13,454.6	74.788	13,454.6	72.3972	13,454.6	73.3791	13,454.6	70.1628	13,454.6	70.3596	13,454.6	66.1853	13,454.6	67.9109	13,454.6	60.5903	13,454.6	62.5625	13,454.6	59.1807	13,454.6	60.0665	13,454.6	56.2666	13,454.6	57.3022	13,454.6	52.681	13,454.6	53.304	13,454.6	50.474	13,454.6	47.456	13,454.6	48.5899	13,454.6	50.1147	13,454.6	57.6534	13,454.6	48.1819	13,454.6	55.9014	13,454.6	61.0073	13,454.6	44.5237
13,929.2	84.5607	13,929.2	83.9961	13,929.2	84.6649	13,929.2	83.4425	13,929.2	83.645	13,929.2	81.483	13,929.2	81.9117	13,929.2	78.4691	13,929.2	79.3595	13,929.2	75.9495	13,929.2	76.6608	13,929.2	72.979	13,929.2	73.1722	13,929.2	71.5287	13,929.2	72.3778	13,929.2	69.2347	13,929.2	68.7063	13,929.2	64.9436	13,929.2	66.5166	13,929.2	58.7957	13,929.2	60.5499	13,929.2	58.9163	13,929.2	58.7808	13,929.2	55.5305	13,929.2	54.663	13,929.2	50.5647	13,929.2	51.1123	13,929.2	49.4302	13,929.2	44.9277	13,929.2	44.6123	13,929.2	45.1404	13,929.2	53.8369	13,929.2	45.8242	13,929.2	48.9305	13,929.2	58.478	13,929.2	53.5072
14,419.9	84.423	14,419.9	83.7687	14,419.9	84.2921	14,419.9	83.071	14,419.9	83.0411	14,419.9	81.0111	14,419.9	81.1929	14,419.9	78.1938	14,419.9	78.7056	14,419.9	75.2176	14,419.9	75.3738	14,419.9	72.5574	14,419.9	71.6742	14,419.9	70.4601	14,419.9	71.3641	14,419.9	68.239	14,419.9	67.817	14,419.9	64.2805	14,419.9	65.8072	14,419.9	58.27	14,419.9	60.3304	14,419.9	58.3065	14,419.9	57.9064	14,419.9	53.8842	14,419.9	53.8137	14,419.9	47.4478	14,419.9	51.1131	14,419.9	47.3187	14,419.9	42.0186	14,419.9	38.2078	14,419.9	49.387	14,419.9	52.6105	14,419.9	44.6999	14,419.9	35.2518	14,419.9	56.0803	14,419.9	53.0754
14,928.2	84.5246	14,928.2	83.6674	14,928.2	84.1426	14,928.2	82.9092	14,928.2	82.7776	14,928.2	80.8063	14,928.2	80.8396	14,928.2	77.8316	14,928.2	78.102	14,928.2	74.4064	14,928.2	74.1126	14,928.2	71.4169	14,928.2	70.5647	14,928.2	69.2767	14,928.2	70.6336	14,928.2	67.4342	14,928.2	67.7957	14,928.2	63.4501	14,928.2	65.1418	14,928.2	57.6078	14,928.2	60.1293	14,928.2	57.3137	14,928.2	57.3602	14,928.2	50.0357	14,928.2	52.5002	14,928.2	46.4184	14,928.2	49.6935	14,928.2	40.678	14,928.2	38.2651	14,928.2	35.0752	14,928.2	49.4704	14,928.2	45.4084	14,928.2	43.3875	14,928.2	41.1064	14,928.2	54.2881	14,928.2	51.1185
15,455.6	84.5199	15,455.6	83.4312	15,455.6	84.0975	15,455.6	82.669	15,455.6	82.6397	15,455.6	80.4096	15,455.6	80.7211	15,455.6	76.9541	15,455.6	77.6842	15,455.6	73.0268	15,455.6	73.7314	15,455.6	69.4865	15,455.6	69.844	15,455.6	68.6938	15,455.6	70.6483	15,455.6	66.7165	15,455.6	67.4331	15,455.6	62.0683	15,455.6	64.8889	15,455.6	57.6853	15,455.6	59.0733	15,455.6	55.8119	15,455.6	56.7574	15,455.6	46.0733	15,455.6	53.351	15,455.6	44.7046	15,455.6	48.6435	15,455.6	37.7631	15,455.6	38.9824	15,455.6	34.5929	15,455.6	49.6394	15,455.6	38.88	15,455.6	43.4002	15,455.6	49.1037	15,455.6	50.7934	15,455.6	52.0675
16,000.5	84.1751	16,000.5	82.9713	16,000.5	83.8424	16,000.5	82.1574	16,000.5	82.337	16,000.5	79.5526	16,000.5	80.256	16,000.5	75.6702	16,000.5	76.9768	16,000.5	71.2484	16,000.5	72.7395	16,000.5	68.0829	16,000.5	68.8037	16,000.5	67.8097	16,000.5	69.8808	16,000.5	65.746	16,000.5	66.4732	16,000.5	61.2136	16,000.5	64.2584	16,000.5	56.7459	16,000.5	58.3364	16,000.5	54.8609	16,000.5	56.1406	16,000.5	44.6695	16,000.5	52.8687	16,000.5	44.7024	16,000.5	48.8235	16,000.5	36.2374	16,000.5	38.6657	16,000.5	34.4635	16,000.5	48.4061	16,000.5	23.9031	16,000.5	40.2345	16,000.5	48.6295	16,000.5	49.7705	16,000.5	51.0807
16,564.5	83.5587	16,564.5	82.3521	16,564.5	83.2812	16,564.5	81.4719	16,564.5	81.7541	16,564.5	78.5166	16,564.5	79.5062	16,564.5	74.3206	16,564.5	76.0017	16,564.5	69.1863	16,564.5	71.1619	16,564.5	66.5853	16,564.5	67.6127	16,564.5	66.4081	16,564.5	68.3452	16,564.5	65.272	16,564.5	65.6547	16,564.5	60.6884	16,564.5	63.601	16,564.5	56.5548	16,564.5	57.3038	16,564.5	54.1141	16,564.5	55.4169	16,564.5	43.6791	16,564.5	51.5436	16,564.5	42.1856	16,564.5	47.2243	16,564.5	26.9413	16,564.5	38.1179	16,564.5	35.8337	16,564.5	48.3048	16,564.5	27.526	16,564.5	42.0747	16,564.5	47.2965	16,564.5	45.2988	16,564.5	50.0293
17,148.9	82.9666	17,148.9	81.6689	17,148.9	82.6841	17,148.9	80.7103	17,148.9	81.1116	17,148.9	77.4455	17,148.9	78.6053	17,148.9	72.8039	17,148.9	74.7759	17,148.9	67.251	17,148.9	69.5429	17,148.9	64.4017	17,148.9	65.4223	17,148.9	65.7167	17,148.9	66.726	17,148.9	64.6677	17,148.9	64.208	17,148.9	59.3944	17,148.9	62.0558	17,148.9	55.9183	17,148.9	54.9341	17,148.9	52.3013	17,148.9	53.7375	17,148.9	41.7144	17,148.9	49.7465	17,148.9	41.5367	17,148.9	45.3332	17,148.9	28.0643	17,148.9	34.8049	17,148.9	33.4684	17,148.9	44.7203	17,148.9	40.292	17,148.9	41.7069	17,148.9	40.392	17,148.9	43.4293	17,148.9	49.4558
17,752.4	82.7598	17,752.4	81.3407	17,752.4	82.4542	17,752.4	80.2202	17,752.4	80.7363	17,752.4	76.6952	17,752.4	77.8935	17,752.4	71.527	17,752.4	73.598	17,752.4	65.0939	17,752.4	67.6101	17,752.4	62.5859	17,752.4	63.0177	17,752.4	64.5439	17,752.4	65.1221	17,752.4	63.9853	17,752.4	63.1467	17,752.4	58.5562	17,752.4	61.6542	17,752.4	54.858	17,752.4	53.1268	17,752.4	50.5927	17,752.4	53.0857	17,752.4	43.2467	17,752.4	48.893	17,752.4	41.3143	17,752.4	44.033	17,752.4	26.0512	17,752.4	35.7693	17,752.4	27.6508	17,752.4	42.1323	17,752.4	41.7008	17,752.4	38.2	17,752.4	40.4786	17,752.4	42.4851	17,752.4	51.0411
18,379.4	82.642	18,379.4	81.1583	18,379.4	82.2906	18,379.4	79.8666	18,379.4	80.3759	18,379.4	75.9085	18,379.4	77.2811	18,379.4	70.054	18,379.4	72.4327	18,379.4	62.1633	18,379.4	65.3967	18,379.4	61.5506	18,379.4	61.8345	18,379.4	64.0574	18,379.4	64.487	18,379.4	64.5958	18,379.4	63.7727	18,379.4	59.4165	18,379.4	62.7083	18,379.4	54.9418	18,379.4	53.6023	18,379.4	51.5217	18,379.4	53.855	18,379.4	44.1025	18,379.4	48.7562	18,379.4	40.6945	18,379.4	42.2254	18,379.4	29.3292	18,379.4	31.3999	18,379.4	30.9368	18,379.4	41.0024	18,379.4	38.7777	18,379.4	44.0995	18,379.4	42.728	18,379.4	42.0998	18,379.4	51.3003
19,026.9	82.418	19,026.9	80.8494	19,026.9	82.0365	19,026.9	79.3849	19,026.9	79.9195	19,026.9	74.8664	19,026.9	76.4069	19,026.9	68.2988	19,026.9	71.0011	19,026.9	60.5481	19,026.9	63.2264	19,026.9	62.2007	19,026.9	61.3233	19,026.9	64.7608	19,026.9	64.8977	19,026.9	65.2711	19,026.9	64.1301	19,026.9	60.5473	19,026.9	63.3032	19,026.9	55.044	19,026.9	54.6804	19,026.9	52.536	19,026.9	54.4476	19,026.9	47.0587	19,026.9	47.3688	19,026.9	41.037	19,026.9	39.2597	19,026.9	32.872	19,026.9	27.4113	19,026.9	35.4417	19,026.9	33.4879	19,026.9	35.5745	19,026.9	42.061	19,026.9	43.8695	19,026.9	35.9734	19,026.9	50.3475
19,697.8	82.0572	19,697.8	80.5043	19,697.8	81.6636	19,697.8	78.6473	19,697.8	79.2808	19,697.8	73.7524	19,697.8	75.2406	19,697.8	66.2025	19,697.8	69.2049	19,697.8	61.0036	19,697.8	61.9756	19,697.8	64.0389	19,697.8	62.8225	19,697.8	64.9711	19,697.8	65.4422	19,697.8	65.7151	19,697.8	64.8724	19,697.8	61.1443	19,697.8	63.6726	19,697.8	55.3343	19,697.8	55.8891	19,697.8	53.2814	19,697.8	54.7419	19,697.8	45.903	19,697.8	45.6041	19,697.8	41.2553	19,697.8	39.8483	19,697.8	32.6754	19,697.8	24.7895	19,697.8	40.9318	19,697.8	32.3328	19,697.8	19.8431	19,697.8	33.1392	19,697.8	43.8095	19,697.8	28.5486	19,697.8	49.03
19,999.5	81.9954	19,999.5	80.4155	19,999.5	81.6256	19,999.5	78.3003	19,999.5	78.9626	19,999.5	73.3586	19,999.5	74.6677	19,999.5	65.3916	19,999.5	68.2051	19,999.5	61.7549	19,999.5	62.0042	19,999.5	64.9783	19,999.5	63.5253	19,999.5	65.336	19,999.5	65.7418	19,999.5	65.8932	19,999.5	65.4636	19,999.5	60.9991	19,999.5	63.5799	19,999.5	56.3968	19,999.5	55.6912	19,999.5	53.5989	19,999.5	55.5513	19,999.5	41.8857	19,999.5	46.702	19,999.5	44.6845	19,999.5	42.121	19,999.5	39.5979	19,999.5	36.3499	19,999.5	47.6633	19,999.5	30.4054	19,999.5	24.8177	19,999.5	29.1489	19,999.5	43.9382	19,999.5	29.025	19,999.5	51.8378
