"SPL Vertical"																																																																							
"On-Axis"		"10°"		"-10°"		"20°"		"-20°"		"30°"		"-30°"		"40°"		"-40°"		"50°"		"-50°"		"60°"		"-60°"		"70°"		"-70°"		"80°"		"-80°"		"90°"		"-90°"		"100°"		"-100°"		"110°"		"-110°"		"120°"		"-120°"		"130°"		"-130°"		"140°"		"-140°"		"150°"		"-150°"		"160°"		"-160°"		"170°"		"-170°"		"180°"	
"Frequency [Hz]"	"Sound Pessure Level [dB]  / [2.83V 1m] "	"Frequency [Hz]"	"Sound Pessure Level [dB]  / [2.83V 1m] "	"Frequency [Hz]"	"Sound Pessure Level [dB]  / [2.83V 1m] "	"Frequency [Hz]"	"Sound Pessure Level [dB]  / [2.83V 1m] "	"Frequency [Hz]"	"Sound Pessure Level [dB]  / [2.83V 1m] "	"Frequency [Hz]"	"Sound Pessure Level [dB]  / [2.83V 1m] "	"Frequency [Hz]"	"Sound Pessure Level [dB]  / [2.83V 1m] "	"Frequency [Hz]"	"Sound Pessure Level [dB]  / [2.83V 1m] "	"Frequency [Hz]"	"Sound Pessure Level [dB]  / [2.83V 1m] "	"Frequency [Hz]"	"Sound Pessure Level [dB]  / [2.83V 1m] "	"Frequency [Hz]"	"Sound Pessure Level [dB]  / [2.83V 1m] "	"Frequency [Hz]"	"Sound Pessure Level [dB]  / [2.83V 1m] "	"Frequency [Hz]"	"Sound Pessure Level [dB]  / [2.83V 1m] "	"Frequency [Hz]"	"Sound Pessure Level [dB]  / [2.83V 1m] "	"Frequency [Hz]"	"Sound Pessure Level [dB]  / [2.83V 1m] "	"Frequency [Hz]"	"Sound Pessure Level [dB]  / [2.83V 1m] "	"Frequency [Hz]"	"Sound Pessure Level [dB]  / [2.83V 1m] "	"Frequency [Hz]"	"Sound Pessure Level [dB]  / [2.83V 1m] "	"Frequency [Hz]"	"Sound Pessure Level [dB]  / [2.83V 1m] "	"Frequency [Hz]"	"Sound Pessure Level [dB]  / [2.83V 1m] "	"Frequency [Hz]"	"Sound Pessure Level [dB]  / [2.83V 1m] "	"Frequency [Hz]"	"Sound Pessure Level [dB]  / [2.83V 1m] "	"Frequency [Hz]"	"Sound Pessure Level [dB]  / [2.83V 1m] "	"Frequency [Hz]"	"Sound Pessure Level [dB]  / [2.83V 1m] "	"Frequency [Hz]"	"Sound Pessure Level [dB]  / [2.83V 1m] "	"Frequency [Hz]"	"Sound Pessure Level [dB]  / [2.83V 1m] "	"Frequency [Hz]"	"Sound Pessure Level [dB]  / [2.83V 1m] "	"Frequency [Hz]"	"Sound Pessure Level [dB]  / [2.83V 1m] "	"Frequency [Hz]"	"Sound Pessure Level [dB]  / [2.83V 1m] "	"Frequency [Hz]"	"Sound Pessure Level [dB]  / [2.83V 1m] "	"Frequency [Hz]"	"Sound Pessure Level [dB]  / [2.83V 1m] "	"Frequency [Hz]"	"Sound Pessure Level [dB]  / [2.83V 1m] "	"Frequency [Hz]"	"Sound Pessure Level [dB]  / [2.83V 1m] "	"Frequency [Hz]"	"Sound Pessure Level [dB]  / [2.83V 1m] "	"Frequency [Hz]"	"Sound Pessure Level [dB]  / [2.83V 1m] "	"Frequency [Hz]"	"Sound Pessure Level [dB]  / [2.83V 1m] "
20.5078	44.0974	20.5078	42.9126	20.5078	44.9994	20.5078	41.4313	20.5078	45.6533	20.5078	39.7612	20.5078	46.0921	20.5078	38.4327	20.5078	46.3465	20.5078	38.5164	20.5078	46.4491	20.5078	40.1958	20.5078	46.4421	20.5078	42.4218	20.5078	46.3859	20.5078	44.5205	20.5078	46.3632	20.5078	46.3249	20.5078	46.4702	20.5078	47.8338	20.5078	46.7858	20.5078	49.0772	20.5078	47.3315	20.5078	50.0834	20.5078	48.0592	20.5078	50.873	20.5078	48.8795	20.5078	51.4598	20.5078	49.7017	20.5078	51.8526	20.5078	50.4554	20.5078	52.0571	20.5078	51.0937	20.5078	52.0777	20.5078	51.5874	20.5078	51.9189
21.9727	52.4236	21.9727	52.7912	21.9727	52.197	21.9727	53.2862	21.9727	52.1213	21.9727	53.889	21.9727	52.2052	21.9727	54.5752	21.9727	52.4574	21.9727	55.318	21.9727	52.8831	21.9727	56.091	21.9727	53.4781	21.9727	56.8703	21.9727	54.2226	21.9727	57.6355	21.9727	55.0811	21.9727	58.3699	21.9727	56.008	21.9727	59.0591	21.9727	56.9554	21.9727	59.691	21.9727	57.8798	21.9727	60.2545	21.9727	58.7456	21.9727	60.7393	21.9727	59.5256	21.9727	61.1357	21.9727	60.2002	21.9727	61.4342	21.9727	60.7565	21.9727	61.626	21.9727	61.1867	21.9727	61.7031	21.9727	61.4874	21.9727	61.6586
23.4375	49.754	23.4375	49.2952	23.4375	50.1373	23.4375	48.8825	23.4375	50.3751	23.4375	48.6948	23.4375	50.4273	23.4375	48.9132	23.4375	50.2696	23.4375	49.6002	23.4375	49.8898	23.4375	50.6487	23.4375	49.2994	23.4375	51.8751	23.4375	48.5739	23.4375	53.1262	23.4375	47.9375	23.4375	54.3098	23.4375	47.8173	23.4375	55.3787	23.4375	48.5746	23.4375	56.3104	23.4375	50.0544	23.4375	57.0937	23.4375	51.7912	23.4375	57.7214	23.4375	53.4545	23.4375	58.1867	23.4375	54.9065	23.4375	58.4822	23.4375	56.1086	23.4375	58.5992	23.4375	57.0598	23.4375	58.5274	23.4375	57.7709	23.4375	58.2555
24.9023	56.3855	24.9023	56.3848	24.9023	56.4203	24.9023	56.4574	24.9023	56.4571	24.9023	56.641	24.9023	56.4757	24.9023	56.9609	24.9023	56.4711	24.9023	57.4214	24.9023	56.456	24.9023	58.0038	24.9023	56.4627	24.9023	58.6733	24.9023	56.5428	24.9023	59.3886	24.9023	56.7565	24.9023	60.1104	24.9023	57.1522	24.9023	60.8053	24.9023	57.7409	24.9023	61.4465	24.9023	58.4869	24.9023	62.0128	24.9023	59.3227	24.9023	62.487	24.9023	60.1743	24.9023	62.8547	24.9023	60.9788	24.9023	63.1037	24.9023	61.6912	24.9023	63.2236	24.9023	62.2825	24.9023	63.2059	24.9023	62.7361	24.9023	63.0443
26.3672	57.3467	26.3672	57.1021	26.3672	57.5692	26.3672	56.8894	26.3672	57.7323	26.3672	56.7765	26.3672	57.8132	26.3672	56.8325	26.3672	57.802	26.3672	57.103	26.3672	57.7012	26.3672	57.5896	26.3672	57.5296	26.3672	58.2487	26.3672	57.3283	26.3672	59.0121	26.3672	57.1673	26.3672	59.8108	26.3672	57.1423	26.3672	60.5884	26.3672	57.3477	26.3672	61.3037	26.3672	57.8283	26.3672	61.9273	26.3672	58.5471	26.3672	62.4382	26.3672	59.4062	26.3672	62.82	26.3672	60.296	26.3672	63.0598	26.3672	61.1291	26.3672	63.1467	26.3672	61.8483	26.3672	63.0722	26.3672	62.4209	26.3672	62.8307
27.832	59.3627	27.832	59.2209	27.832	59.5068	27.832	59.1313	27.832	59.6151	27.832	59.15	27.832	59.6633	27.832	59.3254	27.832	59.6404	27.832	59.6812	27.832	59.5499	27.832	60.2068	27.832	59.4133	27.832	60.8614	27.832	59.2755	27.832	61.5902	27.832	59.2072	27.832	62.3392	27.832	59.2959	27.832	63.0637	27.832	59.6143	27.832	63.729	27.832	60.1805	27.832	64.3094	27.832	60.9431	27.832	64.7851	27.832	61.8088	27.832	65.1404	27.832	62.6821	27.832	65.3621	27.832	63.4894	27.832	65.4393	27.832	64.1826	27.832	65.3635	27.832	64.7336	27.832	65.1288
29.2969	61.7103	29.2969	61.6459	29.2969	61.7986	29.2969	61.6447	29.2969	61.8788	29.2969	61.7468	29.2969	61.9298	29.2969	61.9828	29.2969	61.9426	29.2969	62.3632	29.2969	61.9215	29.2969	62.8746	29.2969	61.8864	29.2969	63.4846	29.2969	61.8736	29.2969	64.151	29.2969	61.9344	29.2969	64.832	29.2969	62.1248	29.2969	65.4911	29.2969	62.4854	29.2969	66.0986	29.2969	63.0218	29.2969	66.6309	29.2969	63.6982	29.2969	67.0689	29.2969	64.4513	29.2969	67.3972	29.2969	65.2124	29.2969	67.6028	29.2969	65.9229	29.2969	67.6752	29.2969	66.5399	29.2969	67.6068	29.2969	67.0354	29.2969	67.3933
30.7617	64.0715	30.7617	64.0229	30.7617	64.1433	30.7617	64.0297	30.7617	64.2117	30.7617	64.1249	30.7617	64.2586	30.7617	64.3338	30.7617	64.2764	30.7617	64.667	30.7617	64.2688	30.7617	65.1161	30.7617	64.2522	30.7617	65.6566	30.7617	64.2568	30.7617	66.2542	30.7617	64.3244	30.7617	66.8725	30.7617	64.5006	30.7617	67.4778	30.7617	64.8202	30.7617	68.0412	30.7617	65.2911	30.7617	68.5389	30.7617	65.8879	30.7617	68.9512	30.7617	66.5601	30.7617	69.2619	30.7617	67.2484	30.7617	69.4577	30.7617	67.8988	30.7617	69.5278	30.7617	68.4692	30.7617	69.4648	30.7617	68.9305	30.7617	69.2652
32.2266	66.4417	32.2266	66.4241	32.2266	66.4838	32.2266	66.4555	32.2266	66.5297	32.2266	66.56	32.2266	66.5654	32.2266	66.7564	32.2266	66.5847	32.2266	67.0529	32.2266	66.591	32.2266	67.4444	32.2266	66.5978	32.2266	67.9135	32.2266	66.6293	32.2266	68.4344	32.2266	66.7176	32.2266	68.978	32.2266	66.8967	32.2266	69.5155	32.2266	67.1922	32.2266	70.0206	32.2266	67.6103	32.2266	70.4706	32.2266	68.1326	32.2266	70.8461	32.2266	68.7206	32.2266	71.1307	32.2266	69.3269	32.2266	71.3108	32.2266	69.9049	32.2266	71.376	32.2266	70.4163	32.2266	71.319	32.2266	70.8331	32.2266	71.1372
33.6914	68.603	33.6914	68.6088	33.6914	68.6246	33.6914	68.6608	33.6914	68.6572	33.6914	68.7776	33.6914	68.6899	33.6914	68.9733	33.6914	68.7184	33.6914	69.2538	33.6914	68.7461	33.6914	69.6153	33.6914	68.7849	33.6914	70.0441	33.6914	68.8544	33.6914	70.5196	33.6914	68.9796	33.6914	71.0173	33.6914	69.1851	33.6914	71.5123	33.6914	69.488	33.6914	71.981	33.6914	69.89	33.6914	72.4021	33.6914	70.3745	33.6914	72.7569	33.6914	70.9098	33.6914	73.0293	33.6914	71.4568	33.6914	73.206	33.6914	71.9764	33.6914	73.2768	33.6914	72.4352	33.6914	73.2348	33.6914	72.808	33.6914	73.0776
35.1563	70.5899	35.1563	70.6072	35.1563	70.6005	35.1563	70.6672	35.1563	70.6262	35.1563	70.7841	35.1563	70.6584	35.1563	70.9688	35.1563	70.6938	35.1563	71.226	35.1563	70.7353	35.1563	71.5529	35.1563	70.7924	35.1563	71.9388	35.1563	70.8806	35.1563	72.3672	35.1563	71.019	35.1563	72.8176	35.1563	71.226	35.1563	73.2686	35.1563	71.5139	35.1563	73.6987	35.1563	71.8832	35.1563	74.088	35.1563	72.3206	35.1563	74.4187	35.1563	72.8005	35.1563	74.6752	35.1563	73.2903	35.1563	74.8444	35.1563	73.7563	35.1563	74.9161	35.1563	74.1687	35.1563	74.8838	35.1563	74.5039	35.1563	74.7453
36.6211	72.4522	36.6211	72.461	36.6211	72.4713	36.6211	72.5099	36.6211	72.5077	36.6211	72.6107	36.6211	72.5538	36.6211	72.7724	36.6211	72.6065	36.6211	72.9993	36.6211	72.6675	36.6211	73.2892	36.6211	72.7435	36.6211	73.6336	36.6211	72.8457	36.6211	74.0188	36.6211	72.9882	36.6211	74.427	36.6211	73.1845	36.6211	74.8391	36.6211	73.4441	36.6211	75.2355	36.6211	73.768	36.6211	75.5975	36.6211	74.147	36.6211	75.9078	36.6211	74.5616	36.6211	76.1515	36.6211	74.9858	36.6211	76.3157	36.6211	75.3914	36.6211	76.3909	36.6211	75.7517	36.6211	76.3709	36.6211	76.0447	36.6211	76.2543
38.0859	74.0631	38.0859	74.0758	38.0859	74.0762	38.0859	74.1244	38.0859	74.1065	38.0859	74.2186	38.0859	74.1477	38.0859	74.3659	38.0859	74.1973	38.0859	74.5702	38.0859	74.2564	38.0859	74.8302	38.0859	74.3307	38.0859	75.1393	38.0859	74.4293	38.0859	75.4863	38.0859	74.5636	38.0859	75.8562	38.0859	74.745	38.0859	76.232	38.0859	74.9815	38.0859	76.5957	38.0859	75.2745	38.0859	76.9297	38.0859	75.6166	38.0859	77.2176	38.0859	75.9917	38.0859	77.4446	38.0859	76.3772	38.0859	77.5983	38.0859	76.7479	38.0859	77.669	38.0859	77.0788	38.0859	77.6511	38.0859	77.3492	38.0859	77.5432
39.5508	75.4962	39.5508	75.5149	39.5508	75.5027	39.5508	75.567	39.5508	75.5272	39.5508	75.6604	39.5508	75.5646	39.5508	75.8011	39.5508	75.6126	39.5508	75.9923	39.5508	75.6722	39.5508	76.2328	39.5508	75.7478	39.5508	76.5173	39.5508	75.8469	39.5508	76.8362	39.5508	75.9788	39.5508	77.1765	39.5508	76.1528	39.5508	77.5231	39.5508	76.3754	39.5508	77.8597	39.5508	76.6476	39.5508	78.1701	39.5508	76.9634	39.5508	78.4386	39.5508	77.3089	39.5508	78.6509	39.5508	77.6643	39.5508	78.7951	39.5508	78.0067	39.5508	78.8619	39.5508	78.3134	39.5508	78.8456	39.5508	78.5646	39.5508	78.7452
41.0156	77.2	41.0156	77.2191	41.0156	77.2056	41.0156	77.2694	41.0156	77.2307	41.0156	77.3568	41.0156	77.2712	41.0156	77.486	41.0156	77.3253	41.0156	77.6594	41.0156	77.3937	41.0156	77.8761	41.0156	77.4794	41.0156	78.1318	41.0156	77.5876	41.0156	78.4187	41.0156	77.7249	41.0156	78.7258	41.0156	77.8972	41.0156	79.0401	41.0156	78.1087	41.0156	79.3473	41.0156	78.3593	41.0156	79.6324	41.0156	78.6432	41.0156	79.8812	41.0156	78.9493	41.0156	80.0802	41.0156	79.2613	41.0156	80.2182	41.0156	79.5602	41.0156	80.2866	41.0156	79.8269	41.0156	80.2802	41.0156	80.044	41.0156	80.198
42.4805	78.3391	42.4805	78.3539	42.4805	78.3484	42.4805	78.3981	42.4805	78.3766	42.4805	78.4772	42.4805	78.4203	42.4805	78.5952	42.4805	78.4775	42.4805	78.7543	42.4805	78.5486	42.4805	78.9539	42.4805	78.6359	42.4805	79.19	42.4805	78.7435	42.4805	79.4558	42.4805	78.8765	42.4805	79.7414	42.4805	79.0398	42.4805	80.0349	42.4805	79.2366	42.4805	80.3229	42.4805	79.467	42.4805	80.5915	42.4805	79.7263	42.4805	80.827	42.4805	80.005	42.4805	81.0166	42.4805	80.289	42.4805	81.1496	42.4805	80.5615	42.4805	81.2174	42.4805	80.8048	42.4805	81.2154	42.4805	81.0028	42.4805	81.1425
43.9453	79.6232	43.9453	79.6372	43.9453	79.6319	43.9453	79.6785	43.9453	79.6591	43.9453	79.7511	43.9453	79.7018	43.9453	79.8585	43.9453	79.7579	43.9453	80.0022	43.9453	79.8273	43.9453	80.1815	43.9453	79.9115	43.9453	80.3933	43.9453	80.0131	43.9453	80.6315	43.9453	80.1359	43.9453	80.8878	43.9453	80.2838	43.9453	81.1519	43.9453	80.4594	43.9453	81.4117	43.9453	80.663	43.9453	81.6548	43.9453	80.8914	43.9453	81.8684	43.9453	81.1371	43.9453	82.0408	43.9453	81.3886	43.9453	82.1617	43.9453	81.6313	43.9453	82.2233	43.9453	81.8493	43.9453	82.2211	43.9453	82.0279	43.9453	82.1546
45.4102	80.8072	45.4102	80.8257	45.4102	80.8106	45.4102	80.8694	45.4102	80.8327	45.4102	80.9418	45.4102	80.8708	45.4102	81.0454	45.4102	80.9235	45.4102	81.1812	45.4102	80.9904	45.4102	81.3487	45.4102	81.0726	45.4102	81.545	45.4102	81.1722	45.4102	81.7652	45.4102	81.2919	45.4102	82.002	45.4102	81.4346	45.4102	82.2461	45.4102	81.6023	45.4102	82.487	45.4102	81.795	45.4102	82.7131	45.4102	82.0095	45.4102	82.9126	45.4102	82.2391	45.4102	83.0742	45.4102	82.4734	45.4102	83.1881	45.4102	82.6992	45.4102	83.2469	45.4102	82.902	45.4102	83.2461	45.4102	83.0678	45.4102	83.1852
46.875	82.0094	46.875	82.03	46.875	82.0098	46.875	82.0742	46.875	82.0286	46.875	82.1448	46.875	82.0638	46.875	82.2435	46.875	82.1141	46.875	82.3712	46.875	82.1792	46.875	82.5272	46.875	82.2598	46.875	82.7093	46.875	82.3576	46.875	82.9129	46.875	82.4745	46.875	83.1319	46.875	82.6126	46.875	83.3579	46.875	82.773	46.875	83.5814	46.875	82.9552	46.875	83.7916	46.875	83.1558	46.875	83.9777	46.875	83.3688	46.875	84.129	46.875	83.5847	46.875	84.2361	46.875	83.7921	46.875	84.2919	46.875	83.978	46.875	84.2924	46.875	84.1299	46.875	84.2372
48.3398	83.091	48.3398	83.1064	48.3398	83.0954	48.3398	83.1439	48.3398	83.1174	48.3398	83.2057	48.3398	83.1553	48.3398	83.2932	48.3398	83.2077	48.3398	83.4072	48.3398	83.2742	48.3398	83.5472	48.3398	83.3549	48.3398	83.7113	48.3398	83.4508	48.3398	83.8955	48.3398	83.563	48.3398	84.0946	48.3398	83.6928	48.3398	84.3012	48.3398	83.8409	48.3398	84.5068	48.3398	84.0066	48.3398	84.7016	48.3398	84.187	48.3398	84.8753	48.3398	84.377	48.3398	85.0182	48.3398	84.5686	48.3398	85.1213	48.3398	84.7518	48.3398	85.178	48.3398	84.9152	48.3398	85.1843	48.3398	85.0478	48.3398	85.1398
51.2695	85.0832	51.2695	85.0974	51.2695	85.0867	51.2695	85.1306	51.2695	85.1066	51.2695	85.1836	51.2695	85.1418	51.2695	85.2573	51.2695	85.1912	51.2695	85.3518	51.2695	85.254	51.2695	85.4664	51.2695	85.3297	51.2695	85.5997	51.2695	85.4181	51.2695	85.7489	51.2695	85.5191	51.2695	85.9101	51.2695	85.6328	51.2695	86.078	51.2695	85.7588	51.2695	86.2459	51.2695	85.8961	51.2695	86.4062	51.2695	86.0426	51.2695	86.5505	51.2695	86.1943	51.2695	86.6707	51.2695	86.3458	51.2695	86.7593	51.2695	86.4895	51.2695	86.8103	51.2695	86.617	51.2695	86.8204	51.2695	86.7195	51.2695	86.7892
52.7344	85.9523	52.7344	85.9637	52.7344	85.9582	52.7344	85.9933	52.7344	85.9805	52.7344	86.042	52.7344	86.0181	52.7344	86.1101	52.7344	86.0699	52.7344	86.1978	52.7344	86.135	52.7344	86.3043	52.7344	86.2127	52.7344	86.4285	52.7344	86.3022	52.7344	86.5678	52.7344	86.4033	52.7344	86.7188	52.7344	86.5152	52.7344	86.8767	52.7344	86.6373	52.7344	87.0355	52.7344	86.7683	52.7344	87.1882	52.7344	86.906	52.7344	87.327	52.7344	87.0469	52.7344	87.4441	52.7344	87.1858	52.7344	87.5323	52.7344	87.3161	52.7344	87.586	52.7344	87.4302	52.7344	87.6018	52.7344	87.5202	52.7344	87.5791
54.1992	86.8084	54.1992	86.8192	54.1992	86.8146	54.1992	86.8475	54.1992	86.8372	54.1992	86.8936	54.1992	86.8753	54.1992	86.9575	54.1992	86.9281	54.1992	87.039	54.1992	86.9943	54.1992	87.1373	54.1992	87.0731	54.1992	87.2512	54.1992	87.1631	54.1992	87.3784	54.1992	87.2634	54.1992	87.516	54.1992	87.3726	54.1992	87.6599	54.1992	87.4895	54.1992	87.8048	54.1992	87.6123	54.1992	87.9447	54.1992	87.7387	54.1992	88.0726	54.1992	87.8656	54.1992	88.1816	54.1992	87.9885	54.1992	88.2653	54.1992	88.1021	54.1992	88.3184	54.1992	88.1999	54.1992	88.3378	54.1992	88.2755	54.1992	88.3229
55.6641	87.6238	55.6641	87.632	55.6641	87.6317	55.6641	87.6566	55.6641	87.6553	55.6641	87.6975	55.6641	87.694	55.6641	87.7545	55.6641	87.7468	55.6641	87.8273	55.6641	87.8126	55.6641	87.9149	55.6641	87.8901	55.6641	88.0163	55.6641	87.9777	55.6641	88.1296	55.6641	88.0739	55.6641	88.2523	55.6641	88.1771	55.6641	88.381	55.6641	88.2855	55.6641	88.5111	55.6641	88.3972	55.6641	88.6375	55.6641	88.51	55.6641	88.754	55.6641	88.621	55.6641	88.8545	55.6641	88.7268	55.6641	88.9333	55.6641	88.8229	55.6641	88.9855	55.6641	88.9042	55.6641	89.0084	55.6641	88.9652	55.6641	89.0011
58.5938	89.1053	58.5938	89.11	58.5938	89.1151	58.5938	89.1289	58.5938	89.1392	58.5938	89.1615	58.5938	89.1773	58.5938	89.2073	58.5938	89.2284	58.5938	89.2654	58.5938	89.2914	58.5938	89.335	58.5938	89.3643	58.5938	89.4152	58.5938	89.4453	58.5938	89.5045	58.5938	89.5322	58.5938	89.6012	58.5938	89.6226	58.5938	89.7029	58.5938	89.7146	58.5938	89.8065	58.5938	89.8059	58.5938	89.9082	58.5938	89.8946	58.5938	90.0034	58.5938	89.9787	58.5938	90.0874	58.5938	90.0559	58.5938	90.1557	58.5938	90.1233	58.5938	90.2043	58.5938	90.1778	58.5938	90.2308	58.5938	90.2159	58.5938	90.2343
60.0586	89.7571	60.0586	89.7614	60.0586	89.7667	60.0586	89.779	60.0586	89.7904	60.0586	89.8094	60.0586	89.8278	60.0586	89.8517	60.0586	89.8782	60.0586	89.905	60.0586	89.9402	60.0586	89.9683	60.0586	90.0121	60.0586	90.0407	60.0586	90.0916	60.0586	90.121	60.0586	90.1763	60.0586	90.2077	60.0586	90.2636	60.0586	90.299	60.0586	90.351	60.0586	90.3921	60.0586	90.4363	60.0586	90.484	60.0586	90.5173	60.0586	90.5709	60.0586	90.5921	60.0586	90.6486	60.0586	90.6588	60.0586	90.7131	60.0586	90.7153	60.0586	90.7608	60.0586	90.759	60.0586	90.7895	60.0586	90.7875	60.0586	90.7982
62.9883	91.013	62.9883	91.0133	62.9883	91.0251	62.9883	91.0251	62.9883	91.0498	62.9883	91.0475	62.9883	91.087	62.9883	91.0795	62.9883	91.136	62.9883	91.1199	62.9883	91.1953	62.9883	91.1678	62.9883	91.263	62.9883	91.2224	62.9883	91.3365	62.9883	91.2827	62.9883	91.413	62.9883	91.348	62.9883	91.4896	62.9883	91.417	62.9883	91.5635	62.9883	91.4883	62.9883	91.6321	62.9883	91.56	62.9883	91.6936	62.9883	91.6294	62.9883	91.7465	62.9883	91.6938	62.9883	91.7896	62.9883	91.7501	62.9883	91.8222	62.9883	91.7956	62.9883	91.8433	62.9883	91.8283	62.9883	91.852	62.9883	91.8471
64.4531	91.5569	64.4531	91.5563	64.4531	91.5697	64.4531	91.5669	64.4531	91.5952	64.4531	91.5878	64.4531	91.6333	64.4531	91.6175	64.4531	91.6833	64.4531	91.655	64.4531	91.7438	64.4531	91.6992	64.4531	91.8126	64.4531	91.7492	64.4531	91.887	64.4531	91.8042	64.4531	91.9641	64.4531	91.8635	64.4531	92.0405	64.4531	91.9263	64.4531	92.1131	64.4531	91.9914	64.4531	92.1791	64.4531	92.0573	64.4531	92.2365	64.4531	92.1221	64.4531	92.2837	64.4531	92.1834	64.4531	92.3198	64.4531	92.2385	64.4531	92.3443	64.4531	92.2851	64.4531	92.357	64.4531	92.3212	64.4531	92.3574	64.4531	92.3455
67.3828	92.5537	67.3828	92.55	67.3828	92.5691	67.3828	92.5568	67.3828	92.5968	67.3828	92.5727	67.3828	92.6368	67.3828	92.5961	67.3828	92.6886	67.3828	92.6257	67.3828	92.7504	67.3828	92.6603	67.3828	92.8199	67.3828	92.6988	67.3828	92.8941	67.3828	92.7406	67.3828	92.9694	67.3828	92.7855	67.3828	93.0421	67.3828	92.8331	67.3828	93.1086	67.3828	92.8832	67.3828	93.1658	67.3828	92.9352	67.3828	93.2112	67.3828	92.9883	67.3828	93.2436	67.3828	93.0413	67.3828	93.2624	67.3828	93.0925	67.3828	93.2682	67.3828	93.1401	67.3828	93.2619	67.3828	93.1824	67.3828	93.2447	67.3828	93.2177
68.8477	93	68.8477	92.9942	68.8477	93.017	68.8477	92.9985	68.8477	93.0459	68.8477	93.0111	68.8477	93.0867	68.8477	93.0307	68.8477	93.1388	68.8477	93.0557	68.8477	93.2005	68.8477	93.0847	68.8477	93.2694	68.8477	93.117	68.8477	93.3423	68.8477	93.1519	68.8477	93.4156	68.8477	93.1893	68.8477	93.4854	68.8477	93.2291	68.8477	93.5479	68.8477	93.2716	68.8477	93.5998	68.8477	93.3167	68.8477	93.6388	68.8477	93.364	68.8477	93.6636	68.8477	93.4128	68.8477	93.6739	68.8477	93.462	68.8477	93.6706	68.8477	93.51	68.8477	93.6552	68.8477	93.5551	68.8477	93.6296	68.8477	93.5956
71.7773	93.8391	71.7773	93.8315	71.7773	93.8567	71.7773	93.8327	71.7773	93.8852	71.7773	93.8409	71.7773	93.9248	71.7773	93.8543	71.7773	93.9749	71.7773	93.8714	71.7773	94.0338	71.7773	93.8908	71.7773	94.0991	71.7773	93.9116	71.7773	94.1676	71.7773	93.9334	71.7773	94.2354	71.7773	93.9564	71.7773	94.2984	71.7773	93.981	71.7773	94.3526	71.7773	94.008	71.7773	94.3946	71.7773	94.0384	71.7773	94.4218	71.7773	94.0727	71.7773	94.433	71.7773	94.1114	71.7773	94.4284	71.7773	94.154	71.7773	94.4096	71.7773	94.1999	71.7773	94.379	71.7773	94.2475	71.7773	94.3398	71.7773	94.295
74.707	94.6022	74.707	94.5924	74.707	94.6212	74.707	94.5905	74.707	94.6503	74.707	94.5946	74.707	94.6898	74.707	94.603	74.707	94.739	74.707	94.614	74.707	94.7964	74.707	94.6261	74.707	94.8595	74.707	94.6384	74.707	94.9251	74.707	94.6506	74.707	94.9892	74.707	94.6631	74.707	95.0476	74.707	94.6766	74.707	95.0961	74.707	94.6926	74.707	95.131	74.707	94.7124	74.707	95.1496	74.707	94.7376	74.707	95.1509	74.707	94.7692	74.707	95.1351	74.707	94.8078	74.707	95.1043	74.707	94.8531	74.707	95.0618	74.707	94.9037	74.707	95.0114	74.707	94.9575
77.6367	95.3075	77.6367	95.2954	77.6367	95.3281	77.6367	95.2902	77.6367	95.3581	77.6367	95.2903	77.6367	95.3977	77.6367	95.2936	77.6367	95.4464	77.6367	95.2984	77.6367	95.5026	77.6367	95.3031	77.6367	95.5637	77.6367	95.307	77.6367	95.6266	77.6367	95.3096	77.6367	95.6872	77.6367	95.3116	77.6367	95.7411	77.6367	95.3142	77.6367	95.7841	77.6367	95.3192	77.6367	95.8124	77.6367	95.3288	77.6367	95.8233	77.6367	95.3454	77.6367	95.8155	77.6367	95.3709	77.6367	95.7895	77.6367	95.4065	77.6367	95.7476	77.6367	95.4523	77.6367	95.6935	77.6367	95.5071	77.6367	95.632	77.6367	95.5683
79.1016	95.5933	79.1016	95.5802	79.1016	95.6143	79.1016	95.5733	79.1016	95.6441	79.1016	95.5709	79.1016	95.683	79.1016	95.571	79.1016	95.7304	79.1016	95.5718	79.1016	95.7848	79.1016	95.5717	79.1016	95.8438	79.1016	95.5699	79.1016	95.9039	79.1016	95.5663	79.1016	95.9613	79.1016	95.5613	79.1016	96.0115	79.1016	95.5566	79.1016	96.0502	79.1016	95.5543	79.1016	96.0735	79.1016	95.557	79.1016	96.0787	79.1016	95.5675	79.1016	96.0646	79.1016	95.5882	79.1016	96.0318	79.1016	95.6208	79.1016	95.9828	79.1016	95.6656	79.1016	95.922	79.1016	95.7215	79.1016	95.8544	79.1016	95.7859
82.0313	96.0685	82.0313	96.0529	82.0313	96.0912	82.0313	96.043	82.0313	96.1221	82.0313	96.0367	82.0313	96.1614	82.0313	96.032	82.0313	96.2086	82.0313	96.0271	82.0313	96.2621	82.0313	96.0205	82.0313	96.3195	82.0313	96.0112	82.0313	96.3773	82.0313	95.9992	82.0313	96.4317	82.0313	95.9853	82.0313	96.478	82.0313	95.9712	82.0313	96.5118	82.0313	95.9597	82.0313	96.5291	82.0313	95.9539	82.0313	96.5272	82.0313	95.9573	82.0313	96.5047	82.0313	95.9729	82.0313	96.4625	82.0313	96.003	82.0313	96.4035	82.0313	96.0483	82.0313	96.3324	82.0313	96.1077	82.0313	96.2552	82.0313	96.1783
84.9609	96.4273	84.9609	96.4104	84.9609	96.4515	84.9609	96.3992	84.9609	96.4841	84.9609	96.3918	84.9609	96.5254	84.9609	96.3859	84.9609	96.5747	84.9609	96.3796	84.9609	96.6306	84.9609	96.3712	84.9609	96.6905	84.9609	96.3597	84.9609	96.7509	84.9609	96.345	84.9609	96.8076	84.9609	96.3281	84.9609	96.8558	84.9609	96.3107	84.9609	96.8907	84.9609	96.2959	84.9609	96.9081	84.9609	96.2872	84.9609	96.905	84.9609	96.2885	84.9609	96.8799	84.9609	96.3034	84.9609	96.8335	84.9609	96.3344	84.9609	96.7689	84.9609	96.3825	84.9609	96.6912	84.9609	96.4465	84.9609	96.6069	84.9609	96.5231
87.8906	96.8121	87.8906	96.794	87.8906	96.8357	87.8906	96.7798	87.8906	96.866	87.8906	96.7677	87.8906	96.9034	87.8906	96.7557	87.8906	96.9477	87.8906	96.7418	87.8906	96.9978	87.8906	96.7248	87.8906	97.0515	87.8906	96.7037	87.8906	97.1058	87.8906	96.6786	87.8906	97.1567	87.8906	96.6507	87.8906	97.1995	87.8906	96.6222	87.8906	97.2291	87.8906	96.5964	87.8906	97.2411	87.8906	96.5774	87.8906	97.2319	87.8906	96.5697	87.8906	97.1997	87.8906	96.5777	87.8906	97.1452	87.8906	96.6045	87.8906	97.0715	87.8906	96.6515	87.8906	96.9843	87.8906	96.7178	87.8906	96.891	87.8906	96.7996
90.8203	97.1559	90.8203	97.1384	90.8203	97.1776	90.8203	97.1232	90.8203	97.2045	90.8203	97.1084	90.8203	97.2375	90.8203	97.0917	90.8203	97.2761	90.8203	97.0712	90.8203	97.3194	90.8203	97.0452	90.8203	97.3654	90.8203	97.013	90.8203	97.411	90.8203	96.9748	90.8203	97.4522	90.8203	96.9318	90.8203	97.4844	90.8203	96.887	90.8203	97.5029	90.8203	96.8441	90.8203	97.503	90.8203	96.8083	90.8203	97.4815	90.8203	96.7851	90.8203	97.4367	90.8203	96.7799	90.8203	97.3697	90.8203	96.7968	90.8203	97.2841	90.8203	96.8378	90.8203	97.1861	90.8203	96.9024	90.8203	97.084	90.8203	96.9866
95.2148	97.4071	95.2148	97.3869	95.2148	97.4313	95.2148	97.369	95.2148	97.4605	95.2148	97.3514	95.2148	97.4953	95.2148	97.3318	95.2148	97.5354	95.2148	97.3081	95.2148	97.5798	95.2148	97.2787	95.2148	97.6262	95.2148	97.2426	95.2148	97.6717	95.2148	97.1998	95.2148	97.7123	95.2148	97.1519	95.2148	97.7432	95.2148	97.1015	95.2148	97.7593	95.2148	97.0529	95.2148	97.756	95.2148	97.0115	95.2148	97.7296	95.2148	96.9834	95.2148	97.6786	95.2148	96.9746	95.2148	97.604	95.2148	96.9896	95.2148	97.51	95.2148	97.0312	95.2148	97.4032	95.2148	97.0986	95.2148	97.2927	95.2148	97.1881
98.1445	97.4965	98.1445	97.4766	98.1445	97.5205	98.1445	97.4595	98.1445	97.5499	98.1445	97.4429	98.1445	97.5853	98.1445	97.425	98.1445	97.6264	98.1445	97.4035	98.1445	97.6725	98.1445	97.3769	98.1445	97.7216	98.1445	97.3441	98.1445	97.771	98.1445	97.3051	98.1445	97.8167	98.1445	97.2614	98.1445	97.8539	98.1445	97.2155	98.1445	97.8771	98.1445	97.1718	98.1445	97.8813	98.1445	97.1356	98.1445	97.8623	98.1445	97.1127	98.1445	97.8181	98.1445	97.1091	98.1445	97.7492	98.1445	97.1293	98.1445	97.6593	98.1445	97.1755	98.1445	97.5549	98.1445	97.2469	98.1445	97.4449	98.1445	97.3391
101.074	97.6634	101.074	97.6402	101.074	97.6888	101.074	97.6177	101.074	97.7175	101.074	97.5942	101.074	97.7499	101.074	97.5675	101.074	97.7859	101.074	97.5359	101.074	97.8248	101.074	97.4978	101.074	97.865	101.074	97.4523	101.074	97.9039	101.074	97.3997	101.074	97.9379	101.074	97.3416	101.074	97.9625	101.074	97.2812	101.074	97.9728	101.074	97.2231	101.074	97.9638	101.074	97.1733	101.074	97.9318	101.074	97.1384	101.074	97.8747	101.074	97.1249	101.074	97.7934	101.074	97.1381	101.074	97.6919	101.074	97.1806	101.074	97.5772	101.074	97.2516	101.074	97.4587	101.074	97.3469
105.469	97.7896	105.469	97.7644	105.469	97.8165	105.469	97.7396	105.469	97.8461	105.469	97.7137	105.469	97.8789	105.469	97.6847	105.469	97.915	105.469	97.6509	105.469	97.9537	105.469	97.6108	105.469	97.9937	105.469	97.5638	105.469	98.0329	105.469	97.5099	105.469	98.0676	105.469	97.451	105.469	98.0934	105.469	97.3901	105.469	98.1053	105.469	97.332	105.469	98.0979	105.469	97.2828	105.469	98.0672	105.469	97.2492	105.469	98.0109	105.469	97.2377	105.469	97.9295	105.469	97.2536	105.469	97.8269	105.469	97.2995	105.469	97.7102	105.469	97.3743	105.469	97.5888	105.469	97.4734
108.398	97.8544	108.398	97.828	108.398	97.8811	108.398	97.8008	108.398	97.909	108.398	97.7712	108.398	97.9389	108.398	97.7374	108.398	97.9708	108.398	97.6978	108.398	98.0044	108.398	97.6511	108.398	98.0388	108.398	97.5965	108.398	98.0719	108.398	97.5346	108.398	98.1007	108.398	97.4672	108.398	98.1208	108.398	97.3977	108.398	98.1273	108.398	97.3313	108.398	98.1148	108.398	97.2743	108.398	98.079	108.398	97.234	108.398	98.0174	108.398	97.2175	108.398	97.9305	108.398	97.2303	108.398	97.8222	108.398	97.2751	108.398	97.6997	108.398	97.351	108.398	97.573	108.398	97.4532
112.793	97.9469	112.793	97.9168	112.793	97.9767	112.793	97.8857	112.793	98.007	112.793	97.852	112.793	98.0384	112.793	97.8143	112.793	98.0707	112.793	97.7711	112.793	98.104	112.793	97.721	112.793	98.1371	112.793	97.6636	112.793	98.1685	112.793	97.5993	112.793	98.1952	112.793	97.5299	112.793	98.2131	112.793	97.4589	112.793	98.2174	112.793	97.3916	112.793	98.2029	112.793	97.3345	112.793	98.1652	112.793	97.2948	112.793	98.1017	112.793	97.2796	112.793	98.013	112.793	97.2944	112.793	97.9026	112.793	97.3418	112.793	97.7778	112.793	97.4207	112.793	97.6484	112.793	97.5258
117.188	97.9173	117.188	97.8849	117.188	97.9476	117.188	97.8495	117.188	97.9764	117.188	97.8103	117.188	98.0042	117.188	97.7659	117.188	98.0315	117.188	97.7152	117.188	98.0586	117.188	97.6573	117.188	98.0851	117.188	97.5918	117.188	98.11	117.188	97.5194	117.188	98.1307	117.188	97.4425	117.188	98.1436	117.188	97.3646	117.188	98.1437	117.188	97.2913	117.188	98.1256	117.188	97.2293	117.188	98.0847	117.188	97.1862	117.188	98.0181	117.188	97.1691	117.188	97.9258	117.188	97.1836	117.188	97.8115	117.188	97.2322	117.188	97.6825	117.188	97.3135	117.188	97.5489	117.188	97.4221
120.117	97.9854	120.117	97.9509	120.117	98.0159	120.117	97.9119	120.117	98.0431	120.117	97.8676	120.117	98.0675	120.117	97.8168	120.117	98.0896	120.117	97.7587	120.117	98.1098	120.117	97.6924	120.117	98.1282	120.117	97.6179	120.117	98.1441	120.117	97.5363	120.117	98.1557	120.117	97.4501	120.117	98.1596	120.117	97.3633	120.117	98.1513	120.117	97.2818	120.117	98.1259	120.117	97.2129	120.117	98.0786	120.117	97.1642	120.117	98.0066	120.117	97.1431	120.117	97.9099	120.117	97.1551	120.117	97.7918	120.117	97.2028	120.117	97.6596	120.117	97.2845	120.117	97.5232	120.117	97.3944
124.512	98.0023	124.512	97.9649	124.512	98.0355	124.512	97.9227	124.512	98.0648	124.512	97.875	124.512	98.0906	124.512	97.8207	124.512	98.1134	124.512	97.7589	124.512	98.1336	124.512	97.6886	124.512	98.1511	124.512	97.61	124.512	98.1655	124.512	97.5239	124.512	98.1749	124.512	97.4329	124.512	98.1761	124.512	97.3414	124.512	98.1647	124.512	97.2555	124.512	98.1355	124.512	97.1826	124.512	98.084	124.512	97.1309	124.512	98.0071	124.512	97.1081	124.512	97.905	124.512	97.1199	124.512	97.7812	124.512	97.1688	124.512	97.6431	124.512	97.2533	124.512	97.5011	124.512	97.3673
128.906	97.8702	128.906	97.8292	128.906	97.9058	128.906	97.7825	128.906	97.9365	128.906	97.7294	128.906	97.9628	128.906	97.6691	128.906	97.9851	128.906	97.6009	128.906	98.0042	128.906	97.5241	128.906	98.0206	128.906	97.4389	128.906	98.0337	128.906	97.3467	128.906	98.0421	128.906	97.2502	128.906	98.0425	128.906	97.1542	128.906	98.0305	128.906	97.0651	128.906	98.0005	128.906	96.9906	128.906	97.9476	128.906	96.9393	128.906	97.8685	128.906	96.9187	128.906	97.763	128.906	96.9346	128.906	97.6346	128.906	96.9891	128.906	97.4908	128.906	97.0801	128.906	97.3422	128.906	97.2012
133.301	97.7209	133.301	97.6788	133.301	97.7569	133.301	97.6303	133.301	97.787	133.301	97.5749	133.301	97.8116	133.301	97.5119	133.301	97.8314	133.301	97.4404	133.301	97.8471	133.301	97.36	133.301	97.8594	133.301	97.2708	133.301	97.8684	133.301	97.1742	133.301	97.8728	133.301	97.0732	133.301	97.8698	133.301	96.9727	133.301	97.855	133.301	96.8795	133.301	97.823	133.301	96.8016	133.301	97.7685	133.301	96.7478	133.301	97.6882	133.301	96.726	133.301	97.5815	133.301	96.7417	133.301	97.4517	133.301	96.797	133.301	97.3063	133.301	96.8896	133.301	97.1557	133.301	97.0127
139.16	97.5214	139.16	97.4765	139.16	97.5585	139.16	97.4241	139.16	97.5877	139.16	97.3638	139.16	97.6093	139.16	97.2953	139.16	97.6237	139.16	97.2181	139.16	97.6322	139.16	97.1316	139.16	97.636	139.16	97.0362	139.16	97.6358	139.16	96.9332	139.16	97.6312	139.16	96.8259	139.16	97.6201	139.16	96.7193	139.16	97.5985	139.16	96.6204	139.16	97.5612	139.16	96.5377	139.16	97.5031	139.16	96.4801	139.16	97.4202	139.16	96.4554	139.16	97.3117	139.16	96.4694	139.16	97.1807	139.16	96.5239	139.16	97.0343	139.16	96.6162	139.16	96.883	139.16	96.7395
143.555	97.4174	143.555	97.3659	143.555	97.4602	143.555	97.3063	143.555	97.4938	143.555	97.239	143.555	97.5179	143.555	97.1637	143.555	97.5327	143.555	97.0803	143.555	97.5391	143.555	96.9882	143.555	97.5382	143.555	96.8877	143.555	97.5308	143.555	96.7802	143.555	97.5168	143.555	96.6687	143.555	97.4945	143.555	96.558	143.555	97.4607	143.555	96.4552	143.555	97.4109	143.555	96.3684	143.555	97.3408	143.555	96.3067	143.555	97.2473	143.555	96.2778	143.555	97.1303	143.555	96.2876	143.555	96.9932	143.555	96.3381	143.555	96.8432	143.555	96.4271	143.555	96.6907	143.555	96.548
147.949	97.3058	147.949	97.2471	147.949	97.354	147.949	97.1786	147.949	97.3914	147.949	97.101	147.949	97.4181	147.949	97.0146	147.949	97.435	147.949	96.9196	147.949	97.4436	147.949	96.8162	147.949	97.4456	147.949	96.7053	147.949	97.4421	147.949	96.5888	147.949	97.4328	147.949	96.4704	147.949	97.4156	147.949	96.3557	147.949	97.3863	147.949	96.252	147.949	97.3394	147.949	96.168	147.949	97.2697	147.949	96.1125	147.949	97.1736	147.949	96.0933	147.949	97.0507	147.949	96.1153	147.949	96.9047	147.949	96.1799	147.949	96.7432	147.949	96.284	147.949	96.5774	147.949	96.4201
153.809	97.1447	153.809	97.0845	153.809	97.1914	153.809	97.0113	153.809	97.2242	153.809	96.926	153.809	97.2437	153.809	96.8293	153.809	97.2514	153.809	96.7218	153.809	97.2497	153.809	96.6043	153.809	97.2411	153.809	96.4782	153.809	97.2279	153.809	96.3465	153.809	97.2107	153.809	96.2136	153.809	97.1878	153.809	96.0861	153.809	97.155	153.809	95.9724	153.809	97.1066	153.809	95.8817	153.809	97.0362	153.809	95.8234	153.809	96.9395	153.809	95.8053	153.809	96.815	153.809	95.8319	153.809	96.6658	153.809	95.9036	153.809	96.4993	153.809	96.0162	153.809	96.3267	153.809	96.1612
159.668	97.0005	159.668	96.9442	159.668	97.0416	159.668	96.8735	159.668	97.067	159.668	96.7893	159.668	97.0774	159.668	96.6923	159.668	97.0745	159.668	96.5833	159.668	97.0608	159.668	96.4629	159.668	97.0397	159.668	96.3328	159.668	97.0141	159.668	96.1956	159.668	96.9855	159.668	96.0561	159.668	96.9527	159.668	95.921	159.668	96.9124	159.668	95.7988	159.668	96.8588	159.668	95.6995	159.668	96.7859	159.668	95.6327	159.668	96.6889	159.668	95.6064	159.668	96.5663	159.668	95.6252	159.668	96.4207	159.668	95.6896	159.668	96.2591	159.668	95.7951	159.668	96.0924	159.668	95.9333
165.527	96.9583	165.527	96.9008	165.527	96.9989	165.527	96.8275	165.527	97.0222	165.527	96.7396	165.527	97.0288	165.527	96.6382	165.527	97.0209	165.527	96.5241	165.527	97.0016	165.527	96.3987	165.527	96.9751	165.527	96.2636	165.527	96.945	165.527	96.1221	165.527	96.9135	165.527	95.979	165.527	96.8797	165.527	95.8414	165.527	96.8399	165.527	95.7181	165.527	96.788	165.527	95.619	165.527	96.7171	165.527	95.5537	165.527	96.622	165.527	95.5296	165.527	96.5007	165.527	95.5512	165.527	96.3556	165.527	95.6182	165.527	96.194	165.527	95.7261	165.527	96.0264	165.527	95.8661
171.387	96.7638	171.387	96.6997	171.387	96.8096	171.387	96.6192	171.387	96.8361	171.387	96.5242	171.387	96.8433	171.387	96.4166	171.387	96.8336	171.387	96.2981	171.387	96.8107	171.387	96.1701	171.387	96.7798	171.387	96.035	171.387	96.7461	171.387	95.8962	171.387	96.7131	171.387	95.7589	171.387	96.6813	171.387	95.6304	171.387	96.6475	171.387	95.5194	171.387	96.6056	171.387	95.4356	171.387	96.5477	171.387	95.3875	171.387	96.4672	171.387	95.3812	171.387	96.3607	171.387	95.4192	171.387	96.2292	171.387	95.4995	171.387	96.0784	171.387	95.6162	171.387	95.9179	171.387	95.7595
177.246	96.6818	177.246	96.6132	177.246	96.7299	177.246	96.5262	177.246	96.7559	177.246	96.4233	177.246	96.7598	177.246	96.3066	177.246	96.7435	177.246	96.1778	177.246	96.7107	177.246	96.0386	177.246	96.667	177.246	95.8914	177.246	96.618	177.246	95.7396	177.246	96.5685	177.246	95.5889	177.246	96.52	177.246	95.4468	177.246	96.4705	177.246	95.3229	177.246	96.4146	177.246	95.2273	177.246	96.3449	177.246	95.1692	177.246	96.2547	177.246	95.1551	177.246	96.1404	177.246	95.1876	177.246	96.0027	177.246	95.2645	177.246	95.8472	177.246	95.3797	177.246	95.6834	177.246	95.5233
183.105	96.3809	183.105	96.3001	183.105	96.4398	183.105	96.2003	183.105	96.4751	183.105	96.0847	183.105	96.4864	183.105	95.9563	183.105	96.4758	183.105	95.8179	183.105	96.447	183.105	95.672	183.105	96.4056	183.105	95.5213	183.105	96.3575	183.105	95.37	183.105	96.3074	183.105	95.2234	183.105	96.2573	183.105	95.0891	183.105	96.2056	183.105	94.9758	183.105	96.1475	183.105	94.8928	183.105	96.0762	183.105	94.8484	183.105	95.9854	183.105	94.848	183.105	95.8715	183.105	94.893	183.105	95.7346	183.105	94.9805	183.105	95.5796	183.105	95.1036	183.105	95.4151	183.105	95.2523
188.965	96.2446	188.965	96.1672	188.965	96.2941	188.965	96.0641	188.965	96.3145	188.965	95.9382	188.965	96.3066	188.965	95.7926	188.965	96.2734	188.965	95.6308	188.965	96.2198	188.965	95.4565	188.965	96.1526	188.965	95.2742	188.965	96.0789	188.965	95.0902	188.965	96.0045	188.965	94.9123	188.965	95.9322	188.965	94.7503	188.965	95.8611	188.965	94.6151	188.965	95.7868	188.965	94.5169	188.965	95.7028	188.965	94.4639	188.965	95.603	188.965	94.4603	188.965	95.4837	188.965	94.5055	188.965	95.3448	188.965	94.5944	188.965	95.1903	188.965	94.7183	188.965	95.0276	188.965	94.8665
196.289	96.257	196.289	96.1927	196.289	96.2924	196.289	96.1012	196.289	96.2978	196.289	95.9849	196.289	96.2741	196.289	95.8462	196.289	96.2242	196.289	95.6872	196.289	96.1534	196.289	95.5108	196.289	96.0684	196.289	95.3207	196.289	95.9765	196.289	95.1226	196.289	95.8835	196.289	94.9246	196.289	95.7923	196.289	94.7372	196.289	95.702	196.289	94.5727	196.289	95.6084	196.289	94.4433	196.289	95.5059	196.289	94.359	196.289	95.3896	196.289	94.3255	196.289	95.2571	196.289	94.3433	196.289	95.1099	196.289	94.4079	196.289	94.9531	196.289	94.5114	196.289	94.7945	196.289	94.6438
203.613	96.0449	203.613	95.9782	203.613	96.0815	203.613	95.8842	203.613	96.0864	203.613	95.7661	203.613	96.06	203.613	95.627	203.613	96.0058	203.613	95.4695	203.613	95.9307	203.613	95.2965	203.613	95.8437	203.613	95.1117	203.613	95.755	203.613	94.9203	203.613	95.6728	203.613	94.7304	203.613	95.6007	203.613	94.5523	203.613	95.5365	203.613	94.3984	203.613	95.4727	203.613	94.2809	203.613	95.3993	203.613	94.2098	203.613	95.3072	203.613	94.1907	203.613	95.1913	203.613	94.2237	203.613	95.0522	203.613	94.304	203.613	94.8954	203.613	94.4226	203.613	94.7305	203.613	94.5688
210.938	95.9146	210.938	95.8348	210.938	95.9605	210.938	95.725	210.938	95.9696	210.938	95.5895	210.938	95.9415	210.938	95.4325	210.938	95.8787	210.938	95.2577	210.938	95.7871	210.938	95.0688	210.938	95.6757	210.938	94.8702	210.938	95.5556	210.938	94.6679	210.938	95.4373	210.938	94.4704	210.938	95.3286	210.938	94.2886	210.938	95.2323	210.938	94.1347	210.938	95.1455	210.938	94.021	210.938	95.0611	210.938	93.9564	210.938	94.9707	210.938	93.9451	210.938	94.8675	210.938	93.985	210.938	94.7481	210.938	94.0688	210.938	94.6136	210.938	94.1856	210.938	94.4692	210.938	94.323
218.262	95.7804	218.262	95.699	218.262	95.8277	218.262	95.5874	218.262	95.8381	218.262	95.4501	218.262	95.8111	218.262	95.291	218.262	95.7493	218.262	95.1137	218.262	95.6586	218.262	94.9219	218.262	95.548	218.262	94.72	218.262	95.4282	218.262	94.5145	218.262	95.309	218.262	94.3141	218.262	95.1969	218.262	94.1301	218.262	95.0934	218.262	93.9751	218.262	94.9955	218.262	93.8607	218.262	94.8968	218.262	93.7952	218.262	94.7911	218.262	93.7814	218.262	94.6744	218.262	93.8164	218.262	94.546	218.262	93.8926	218.262	94.4084	218.262	93.9999	218.262	94.2667	218.262	94.1278
225.586	95.6805	225.586	95.5978	225.586	95.7245	225.586	95.4815	225.586	95.7268	225.586	95.3367	225.586	95.6873	225.586	95.1685	225.586	95.6096	225.586	94.9816	225.586	95.5021	225.586	94.7803	225.586	95.3767	225.586	94.5701	225.586	95.2477	225.586	94.3581	225.586	95.1281	225.586	94.1545	225.586	95.0262	225.586	93.9721	225.586	94.9433	225.586	93.825	225.586	94.8733	225.586	93.7255	225.586	94.8061	225.586	93.6816	225.586	94.7312	225.586	93.6941	225.586	94.6411	225.586	93.7568	225.586	94.5327	225.586	93.8584	225.586	94.4074	225.586	93.9858	225.586	94.2698	225.586	94.1264
232.91	95.6219	232.91	95.5306	232.91	95.6695	232.91	95.4011	232.91	95.6693	232.91	95.2393	232.91	95.6197	232.91	95.0507	232.91	95.5231	232.91	94.8402	232.91	95.3865	232.91	94.6125	232.91	95.2217	232.91	94.3737	232.91	95.0441	232.91	94.1318	232.91	94.87	232.91	93.8984	232.91	94.7132	232.91	93.6879	232.91	94.5811	232.91	93.5165	232.91	94.4736	232.91	93.3987	232.91	94.3837	232.91	93.3432	232.91	94.3014	232.91	93.3505	232.91	94.2171	232.91	93.412	232.91	94.1236	232.91	93.5131	232.91	94.0175	232.91	93.6372	232.91	93.8984	232.91	93.7693
241.699	95.5159	241.699	95.4231	241.699	95.5654	241.699	95.2929	241.699	95.567	241.699	95.1314	241.699	95.5188	241.699	94.9444	241.699	95.4231	241.699	94.7364	241.699	95.2867	241.699	94.5121	241.699	95.1212	241.699	94.2765	241.699	94.9413	241.699	94.0369	241.699	94.7619	241.699	93.8037	241.699	94.5949	241.699	93.5903	241.699	94.446	241.699	93.4119	241.699	94.3141	241.699	93.2819	241.699	94.1939	241.699	93.2089	241.699	94.0791	241.699	93.1934	241.699	93.9651	241.699	93.2281	241.699	93.8503	241.699	93.3005	241.699	93.7347	241.699	93.3966	241.699	93.6191	241.699	93.5052
250.488	95.3736	250.488	95.249	250.488	95.4474	250.488	95.0816	250.488	95.464	250.488	94.88	250.488	95.4203	250.488	94.6516	250.488	95.318	250.488	94.4029	250.488	95.1642	250.488	94.1395	250.488	94.9725	250.488	93.8675	250.488	94.7608	250.488	93.595	250.488	94.5488	250.488	93.3335	250.488	94.353	250.488	93.0981	250.488	94.1821	250.488	92.9059	250.488	94.0354	250.488	92.7723	250.488	93.9054	250.488	92.7065	250.488	93.7821	250.488	92.7079	250.488	93.658	250.488	92.7662	250.488	93.5296	250.488	92.8654	250.488	93.3966	250.488	92.9887	250.488	93.2603	250.488	93.123
259.277	95.6491	259.277	95.5264	259.277	95.7205	259.277	95.3597	259.277	95.7346	259.277	95.1567	259.277	95.6885	259.277	94.924	259.277	95.5831	259.277	94.6671	259.277	95.4249	259.277	94.3906	259.277	95.2256	259.277	94.0996	259.277	95.0018	259.277	93.8013	259.277	94.772	259.277	93.5071	259.277	94.5526	259.277	93.2323	259.277	94.3536	259.277	92.9957	259.277	94.1764	259.277	92.8158	259.277	94.0151	259.277	92.706	259.277	93.8608	259.277	92.6707	259.277	93.706	259.277	92.7037	259.277	93.5472	259.277	92.7909	259.277	93.3848	259.277	92.9157	259.277	93.2218	259.277	93.063
268.066	95.2773	268.066	95.1383	268.066	95.365	268.066	94.9569	268.066	95.3942	268.066	94.7427	268.066	95.361	268.066	94.5043	268.066	95.2658	268.066	94.2494	268.066	95.1147	268.066	93.9848	268.066	94.9198	268.066	93.7171	268.066	94.6985	268.066	93.4548	268.066	94.471	268.066	93.2086	268.066	94.2557	268.066	92.9925	268.066	94.065	268.066	92.8212	268.066	93.9023	268.066	92.7073	268.066	93.7631	268.066	92.6573	268.066	93.6395	268.066	92.6686	268.066	93.5238	268.066	92.7303	268.066	93.4107	268.066	92.8266	268.066	93.2971	268.066	92.9411	268.066	93.181	268.066	93.0616
276.855	95.3798	276.855	95.2315	276.855	95.4674	276.855	95.0299	276.855	95.4892	276.855	94.784	276.855	95.4439	276.855	94.5033	276.855	95.3341	276.855	94.1975	276.855	95.1673	276.855	93.876	276.855	94.9556	276.855	93.549	276.855	94.715	276.855	93.2279	276.855	94.4631	276.855	92.9265	276.855	94.2153	276.855	92.6604	276.855	93.9818	276.855	92.4454	276.855	93.7657	276.855	92.2944	276.855	93.5646	276.855	92.2132	276.855	93.3741	276.855	92.199	276.855	93.1915	276.855	92.2408	276.855	93.0171	276.855	92.3237	276.855	92.853	276.855	92.4334	276.855	92.7007	276.855	92.5606
287.109	95.6194	287.109	95.4937	287.109	95.6772	287.109	95.3059	287.109	95.6631	287.109	95.0635	287.109	95.5764	287.109	94.7739	287.109	95.4215	287.109	94.445	287.109	95.2085	287.109	94.086	287.109	94.9536	287.109	93.7085	287.109	94.6785	287.109	93.3286	287.109	94.4067	287.109	92.9678	287.109	94.1582	287.109	92.6519	287.109	93.944	287.109	92.407	287.109	93.7639	287.109	92.2526	287.109	93.6087	287.109	92.1944	287.109	93.4666	287.109	92.2227	287.109	93.3282	287.109	92.3158	287.109	93.1887	287.109	92.448	287.109	93.0463	287.109	92.5976	287.109	92.9004	287.109	92.7505
297.363	95.4662	297.363	95.3444	297.363	95.5244	297.363	95.1655	297.363	95.5135	297.363	94.9364	297.363	95.4314	297.363	94.6634	297.363	95.2798	297.363	94.3527	297.363	95.067	297.363	94.0109	297.363	94.8077	297.363	93.647	297.363	94.5234	297.363	93.2748	297.363	94.2391	297.363	92.9148	297.363	93.9787	297.363	92.5939	297.363	93.7586	297.363	92.3425	297.363	93.5841	297.363	92.1867	297.363	93.4498	297.363	92.1387	297.363	93.3437	297.363	92.1905	297.363	93.2524	297.363	92.3165	297.363	93.1637	297.363	92.4824	297.363	93.067	297.363	92.6564	297.363	92.9535	297.363	92.8166
307.617	95.5965	307.617	95.4699	307.617	95.6632	307.617	95.2915	307.617	95.6622	307.617	95.0686	307.617	95.5881	307.617	94.8065	307.617	95.4401	307.617	94.5096	307.617	95.2234	307.617	94.1822	307.617	94.9509	307.617	93.8312	307.617	94.6426	307.617	93.4684	307.617	94.3233	307.617	93.1114	307.617	94.0181	307.617	92.7839	307.617	93.7469	307.617	92.5124	307.617	93.5209	307.617	92.3208	307.617	93.3417	307.617	92.2233	307.617	93.2038	307.617	92.2187	307.617	93.0962	307.617	92.2907	307.617	93.0049	307.617	92.4121	307.617	92.9148	307.617	92.5537	307.617	92.8128	307.617	92.6918
319.336	95.3161	319.336	95.1671	319.336	95.4024	319.336	94.9659	319.336	95.4168	319.336	94.7225	319.336	95.3537	319.336	94.4452	319.336	95.213	319.336	94.1395	319.336	95.0011	319.336	93.8101	319.336	94.7324	319.336	93.4632	319.336	94.4284	319.336	93.11	319.336	94.1149	319.336	92.7693	319.336	93.8167	319.336	92.4667	319.336	93.551	319.336	92.2305	319.336	93.3246	319.336	92.0833	319.336	93.1363	319.336	92.0331	319.336	92.9824	319.336	92.0695	319.336	92.86	319.336	92.1664	319.336	92.7646	319.336	92.2919	319.336	92.6871	319.336	92.4174	319.336	92.6125	319.336	92.5255
329.59	95.4025	329.59	95.2459	329.59	95.4891	329.59	95.0305	329.59	95.4967	329.59	94.7676	329.59	95.4204	329.59	94.4672	329.59	95.2605	329.59	94.1367	329.59	95.0237	329.59	93.7816	329.59	94.724	329.59	93.4083	329.59	94.3825	329.59	93.0272	329.59	94.0256	329.59	92.6571	329.59	93.6805	329.59	92.3254	329.59	93.3696	329.59	92.0643	329.59	93.1066	329.59	91.9016	329.59	92.8952	329.59	91.848	329.59	92.7335	329.59	91.891	329.59	92.6161	329.59	91.9985	329.59	92.5349	329.59	92.131	329.59	92.4764	329.59	92.2551	329.59	92.4221	329.59	92.3526
341.309	95.3764	341.309	95.2278	341.309	95.4558	341.309	95.0203	341.309	95.4587	341.309	94.7649	341.309	95.3824	341.309	94.4719	341.309	95.2302	341.309	94.1493	341.309	95.012	341.309	93.8037	341.309	94.7446	341.309	93.4417	341.309	94.4495	341.309	93.0738	341.309	94.1495	341.309	92.7178	341.309	93.8635	341.309	92.4	341.309	93.6022	341.309	92.152	341.309	93.3686	341.309	92.0017	341.309	93.1621	341.309	91.9611	341.309	92.9843	341.309	92.018	341.309	92.8396	341.309	92.1392	341.309	92.7314	341.309	92.2829	341.309	92.6538	341.309	92.4143	341.309	92.5897	341.309	92.5158
353.027	95.2954	353.027	95.1042	353.027	95.3992	353.027	94.8408	353.027	95.4039	353.027	94.5216	353.027	95.303	353.027	94.1617	353.027	95.0975	353.027	93.7739	353.027	94.7982	353.027	93.3683	353.027	94.4272	353.027	92.9542	353.027	94.017	353.027	92.5425	353.027	93.6063	353.027	92.1505	353.027	93.2315	353.027	91.8037	353.027	92.9164	353.027	91.5343	353.027	92.6687	353.027	91.373	353.027	92.4835	353.027	91.3354	353.027	92.3516	353.027	91.4114	353.027	92.2636	353.027	91.5648	353.027	92.2083	353.027	91.7471	353.027	92.1685	353.027	91.9144	353.027	92.1205	353.027	92.0404
366.211	95.4697	366.211	95.2677	366.211	95.5799	366.211	94.9859	366.211	95.5888	366.211	94.638	366.211	95.4915	366.211	94.2381	366.211	95.2888	366.211	93.8002	366.211	94.9902	366.211	93.3383	366.211	94.6158	366.211	92.8675	366.211	94.1974	366.211	92.4056	366.211	93.7741	366.211	91.9744	366.211	93.3822	366.211	91.6	366.211	93.0431	366.211	91.3096	366.211	92.7576	366.211	91.1255	366.211	92.5129	366.211	91.0569	366.211	92.2975	366.211	91.093	366.211	92.1099	366.211	91.2039	366.211	91.9547	366.211	91.3501	366.211	91.8316	366.211	91.4958	366.211	91.7276	366.211	91.6214
379.395	95.8558	379.395	95.6688	379.395	95.9607	379.395	95.4092	379.395	95.9745	379.395	95.0851	379.395	95.8894	379.395	94.7032	379.395	95.7012	379.395	94.2693	379.395	95.4116	379.395	93.7903	379.395	95.0311	379.395	93.2776	379.395	94.5814	379.395	92.7509	379.395	94.0956	379.395	92.2406	379.395	93.6133	379.395	91.7866	379.395	93.171	379.395	91.4318	379.395	92.7918	379.395	91.209	379.395	92.4833	379.395	91.1281	379.395	92.2431	379.395	91.17	379.395	92.0659	379.395	91.293	379.395	91.9437	379.395	91.4479	379.395	91.8605	379.395	91.5939	379.395	91.7913	379.395	91.7085
392.578	95.4489	392.578	95.2525	392.578	95.5692	392.578	94.9906	392.578	95.6045	392.578	94.6739	392.578	95.5493	392.578	94.3112	392.578	95.4021	392.578	93.9088	392.578	95.1671	392.578	93.4714	392.578	94.8555	392.578	93.006	392.578	94.4869	392.578	92.527	392.578	94.0877	392.578	92.0618	392.578	93.6875	392.578	91.6513	392.578	93.3116	392.578	91.3441	392.578	92.975	392.578	91.1791	392.578	92.6834	392.578	91.1665	392.578	92.4398	392.578	91.2787	392.578	92.25	392.578	91.4612	392.578	92.1187	392.578	91.654	392.578	92.0387	392.578	91.8129	392.578	91.9846	392.578	91.9197
405.762	95.3156	405.762	95.1582	405.762	95.3793	405.762	94.9139	405.762	95.3451	405.762	94.5916	405.762	95.2136	405.762	94.2011	405.762	94.9907	405.762	93.7531	405.762	94.69	405.762	93.2607	405.762	94.3335	405.762	92.7415	405.762	93.9509	405.762	92.2207	405.762	93.5758	405.762	91.7319	405.762	93.2374	405.762	91.3156	405.762	92.9512	405.762	91.0126	405.762	92.7159	405.762	90.8524	405.762	92.5193	405.762	90.8422	405.762	92.3503	405.762	90.9601	405.762	92.2053	405.762	91.1604	405.762	92.0852	405.762	91.3881	405.762	91.9846	405.762	91.5972	405.762	91.8857	405.762	91.763
420.41	95.5136	420.41	95.3328	420.41	95.6046	420.41	95.0764	420.41	95.592	420.41	94.7561	420.41	95.4652	420.41	94.3792	420.41	95.2201	420.41	93.9478	420.41	94.8624	420.41	93.4613	420.41	94.4115	420.41	92.9219	420.41	93.9034	420.41	92.3424	420.41	93.3882	420.41	91.753	420.41	92.9177	420.41	91.2052	420.41	92.5279	420.41	90.7662	420.41	92.2269	420.41	90.4991	420.41	92.0014	420.41	90.4337	420.41	91.8353	420.41	90.548	420.41	91.7201	420.41	90.7773	420.41	91.649	420.41	91.0428	420.41	91.6036	420.41	91.2792	420.41	91.5498	420.41	91.4496
435.059	95.183	435.059	95.0116	435.059	95.2643	435.059	94.7624	435.059	95.2458	435.059	94.4485	435.059	95.1218	435.059	94.0812	435.059	94.8926	435.059	93.6696	435.059	94.5663	435.059	93.2223	435.059	94.1615	435.059	92.7512	435.059	93.7094	435.059	92.2762	435.059	93.2506	435.059	91.8284	435.059	92.8263	435.059	91.4469	435.059	92.4645	435.059	91.1702	435.059	92.1714	435.059	91.0235	435.059	91.939	435.059	91.0077	435.059	91.7607	435.059	91.0973	435.059	91.6408	435.059	91.2467	435.059	91.5844	435.059	91.404	435.059	91.5807	435.059	91.5253	435.059	91.596	435.059	91.5877
451.172	95.6678	451.172	95.4505	451.172	95.7793	451.172	95.142	451.172	95.7718	451.172	94.7555	451.172	95.6358	451.172	94.3004	451.172	95.3676	451.172	93.7815	451.172	94.9707	451.172	93.2019	451.172	94.4601	451.172	92.5706	451.172	93.8667	451.172	91.9136	451.172	93.2412	451.172	91.2835	451.172	92.6498	451.172	90.7616	451.172	92.1559	451.172	90.4363	451.172	91.7945	451.172	90.3589	451.172	91.5624	451.172	90.5072	451.172	91.4351	451.172	90.7949	451.172	91.3913	451.172	91.1166	451.172	91.4174	451.172	91.387	451.172	91.4923	451.172	91.556	451.172	91.5748	451.172	91.6115
465.82	96.0205	465.82	95.816	465.82	96.1192	465.82	95.5214	465.82	96.0998	465.82	95.152	465.82	95.9549	465.82	94.7189	465.82	95.6837	465.82	94.2261	465.82	95.2943	465.82	93.6721	465.82	94.806	465.82	93.0554	465.82	94.2528	465.82	92.3859	465.82	93.6826	465.82	91.6973	465.82	93.148	465.82	91.0564	465.82	92.6878	465.82	90.5591	465.82	92.3125	465.82	90.2969	465.82	92.0101	465.82	90.3014	465.82	91.7689	465.82	90.5163	465.82	91.5942	465.82	90.8293	465.82	91.4987	465.82	91.13	465.82	91.4752	465.82	91.347	465.82	91.4821	465.82	91.4572
483.398	96.4869	483.398	96.2653	483.398	96.605	483.398	95.9572	483.398	96.604	483.398	95.5774	483.398	96.4716	483.398	95.1344	483.398	96.2005	483.398	94.6279	483.398	95.7905	483.398	94.0502	483.398	95.2536	483.398	93.3947	483.398	94.6215	483.398	92.6684	483.398	93.951	483.398	91.9094	483.398	93.3212	483.398	91.2014	483.398	92.8095	483.398	90.6702	483.398	92.4551	483.398	90.4357	483.398	92.2435	483.398	90.5309	483.398	92.1322	483.398	90.869	483.398	92.0872	483.398	91.3017	483.398	92.0923	483.398	91.6981	483.398	92.1297	483.398	91.9809	483.398	92.1602	483.398	92.1276
499.512	96.551	499.512	96.3578	499.512	96.6445	499.512	96.0825	499.512	96.6252	499.512	95.7427	499.512	96.4859	499.512	95.3506	499.512	96.2258	499.512	94.909	499.512	95.85	499.512	94.411	499.512	95.3709	499.512	93.8463	499.512	94.8107	499.512	93.2107	499.512	94.2057	499.512	92.5208	499.512	93.6089	499.512	91.8289	499.512	93.0834	499.512	91.2334	499.512	92.6838	499.512	90.8609	499.512	92.4345	499.512	90.8006	499.512	92.3232	499.512	91.0309	499.512	92.3146	499.512	91.4272	499.512	92.3651	499.512	91.8428	499.512	92.4267	499.512	92.1736	499.512	92.4466	499.512	92.374
517.09	96.6339	517.09	96.4276	517.09	96.742	517.09	96.1464	517.09	96.7327	517.09	95.8105	517.09	96.5947	517.09	95.4285	517.09	96.3259	517.09	94.9932	517.09	95.9328	517.09	94.4856	517.09	95.4315	517.09	93.8871	517.09	94.8478	517.09	93.1942	517.09	94.2177	517.09	92.4334	517.09	93.5854	517.09	91.6748	517.09	92.9992	517.09	91.0384	517.09	92.5084	517.09	90.6689	517.09	92.1617	517.09	90.659	517.09	91.9982	517.09	90.9723	517.09	92.0239	517.09	91.4599	517.09	92.1882	517.09	91.9527	517.09	92.3933	517.09	92.3279	517.09	92.5322	517.09	92.5236
536.133	96.0642	536.133	95.7897	536.133	96.2205	536.133	95.4347	536.133	96.2359	536.133	95.0433	536.133	96.103	536.133	94.6505	536.133	95.8276	536.133	94.2653	536.133	95.4268	536.133	93.8667	536.133	94.9282	536.133	93.4187	536.133	94.3688	536.133	92.8939	536.133	93.7939	536.133	92.297	536.133	93.2504	536.133	91.6815	536.133	92.7763	536.133	91.1581	536.133	92.3936	536.133	90.8709	536.133	92.118	536.133	90.9203	536.133	91.9772	536.133	91.2778	536.133	92.0061	536.133	91.7952	536.133	92.2008	536.133	92.2971	536.133	92.4808	536.133	92.6524	536.133	92.7164	536.133	92.7934
555.176	96.7226	555.176	96.4297	555.176	96.8646	555.176	96.0092	555.176	96.8416	555.176	95.4921	555.176	96.6485	555.176	94.9115	555.176	96.2894	555.176	94.2939	555.176	95.7791	555.176	93.6525	555.176	95.1448	555.176	92.9869	555.176	94.428	555.176	92.2933	555.176	93.6834	555.176	91.581	555.176	92.9701	555.176	90.8933	555.176	92.3391	555.176	90.3246	555.176	91.8232	555.176	90.0125	555.176	91.4424	555.176	90.0647	555.176	91.2198	555.176	90.4541	555.176	91.1851	555.176	91.0128	555.176	91.3395	555.176	91.5388	555.176	91.6134	555.176	91.8874	555.176	91.8761	555.176	91.9952
574.219	96.6771	574.219	96.3763	574.219	96.8415	574.219	95.9696	574.219	96.8475	574.219	95.4934	574.219	96.6822	574.219	94.9802	574.219	96.342	574.219	94.4457	574.219	95.8354	574.219	93.8799	574.219	95.1862	574.219	93.254	574.219	94.4373	574.219	92.5389	574.219	93.6482	574.219	91.7307	574.219	92.8873	574.219	90.8788	574.219	92.2195	574.219	90.1133	574.219	91.6978	574.219	89.6401	574.219	91.3594	574.219	89.6332	574.219	91.2207	574.219	90.0685	574.219	91.2709	574.219	90.7247	574.219	91.4662	574.219	91.3537	574.219	91.7247	574.219	91.7943	574.219	91.9342	574.219	91.9827
594.727	96.4641	594.727	96.1341	594.727	96.6426	594.727	95.6869	594.727	96.6487	594.727	95.1696	594.727	96.4725	594.727	94.6318	594.727	96.1142	594.727	94.1075	594.727	95.5873	594.727	93.6001	594.727	94.926	594.727	93.0833	594.727	94.1883	594.727	92.5194	594.727	93.4467	594.727	91.8829	594.727	92.76	594.727	91.1831	594.727	92.1487	594.727	90.491	594.727	91.6134	594.727	89.9615	594.727	91.1858	594.727	89.7927	594.727	90.9499	594.727	90.0704	594.727	90.9785	594.727	90.6523	594.727	91.2397	594.727	91.2786	594.727	91.593	594.727	91.7419	594.727	91.8701	594.727	91.9417
615.234	96.9908	615.234	96.6602	615.234	97.1403	615.234	96.171	615.234	97.1011	615.234	95.5656	615.234	96.8755	615.234	94.9044	615.234	96.4715	615.234	94.252	615.234	95.9014	615.234	93.6505	615.234	95.1832	615.234	93.0963	615.234	94.3464	615.234	92.5439	615.234	93.4391	615.234	91.9354	615.234	92.5331	615.234	91.2417	615.234	91.7138	615.234	90.5066	615.234	91.055	615.234	89.8885	615.234	90.5978	615.234	89.6304	615.234	90.3649	615.234	89.8668	615.234	90.3821	615.234	90.4471	615.234	90.6452	615.234	91.0675	615.234	91.0556	615.234	91.4915	615.234	91.4348	615.234	91.6126
637.207	96.6657	637.207	96.3473	637.207	96.8388	637.207	95.9019	637.207	96.853	637.207	95.352	637.207	96.6986	637.207	94.7235	637.207	96.371	637.207	94.0461	637.207	95.8741	637.207	93.3543	637.207	95.227	637.207	92.6837	637.207	94.4676	637.207	92.0588	637.207	93.6475	637.207	91.477	637.207	92.8124	637.207	90.9114	637.207	91.9898	637.207	90.3503	637.207	91.219	637.207	89.8648	637.207	90.6096	637.207	89.6368	637.207	90.3237	637.207	89.8313	637.207	90.4237	637.207	90.379	637.207	90.784	637.207	91.0063	637.207	91.2058	637.207	91.464	637.207	91.5283	637.207	91.6379
659.18	96.4425	659.18	96.1473	659.18	96.602	659.18	95.7393	659.18	96.6135	659.18	95.2479	659.18	96.4723	659.18	94.6978	659.18	96.178	659.18	94.0965	659.18	95.7349	659.18	93.4336	659.18	95.1581	659.18	92.6975	659.18	94.48	659.18	91.8968	659.18	93.7452	659.18	91.0733	659.18	92.9838	659.18	90.2926	659.18	92.1836	659.18	89.6268	659.18	91.315	659.18	89.1542	659.18	90.4382	659.18	88.9744	659.18	89.8166	659.18	89.1664	659.18	89.7664	659.18	89.6803	659.18	90.2246	659.18	90.3214	659.18	90.7894	659.18	90.8688	659.18	91.1433	659.18	91.1685
682.617	96.383	682.617	96.0141	682.617	96.5873	682.617	95.5125	682.617	96.6151	682.617	94.9268	682.617	96.4685	682.617	94.3079	682.617	96.1572	682.617	93.6891	682.617	95.6977	682.617	93.0795	682.617	95.1192	682.617	92.4753	682.617	94.4687	682.617	91.8747	682.617	93.8014	682.617	91.2816	682.617	93.1472	682.617	90.7044	682.617	92.481	682.617	90.1688	682.617	91.7502	682.617	89.7524	682.617	90.9768	682.617	89.6013	682.617	90.3696	682.617	89.8437	682.617	90.25	682.617	90.4303	682.617	90.6745	682.617	91.1279	682.617	91.3089	682.617	91.6819	682.617	91.7879	682.617	91.9244
707.52	96.3839	707.52	96.0475	707.52	96.5177	707.52	95.5387	707.52	96.4443	707.52	94.9104	707.52	96.1774	707.52	94.2203	707.52	95.7418	707.52	93.5018	707.52	95.172	707.52	92.7487	707.52	94.5185	707.52	91.9357	707.52	93.8525	707.52	91.0643	707.52	93.2442	707.52	90.2052	707.52	92.7046	707.52	89.5044	707.52	92.1407	707.52	89.1287	707.52	91.4118	707.52	89.1728	707.52	90.5039	707.52	89.6132	707.52	89.7786	707.52	90.3363	707.52	89.8781	707.52	91.1789	707.52	90.7987	707.52	91.9624	707.52	91.8406	707.52	92.5265	707.52	92.529	707.52	92.7455
732.422	96.5407	732.422	96.256	732.422	96.6299	732.422	95.8123	732.422	96.51	732.422	95.262	732.422	96.1856	732.422	94.6532	732.422	95.6732	732.422	94.0042	732.422	95.0002	732.422	93.2999	732.422	94.2168	732.422	92.5199	732.422	93.417	732.422	91.6739	732.422	92.7349	732.422	90.812	732.422	92.2513	732.422	89.9997	732.422	91.8625	732.422	89.308	732.422	91.3053	732.422	88.8728	732.422	90.3673	732.422	88.9311	732.422	89.2057	732.422	89.6041	732.422	88.6971	732.422	90.6463	732.422	89.5519	732.422	91.6459	732.422	90.9556	732.422	92.304	732.422	92.0107	732.422	92.4563
757.324	96.6197	757.324	96.2929	757.324	96.7155	757.324	95.7853	757.324	96.5686	757.324	95.182	757.324	96.1933	757.324	94.569	757.324	95.6151	757.324	93.9785	757.324	94.8664	757.324	93.3692	757.324	94.0052	757.324	92.6732	757.324	93.1552	757.324	91.8674	757.324	92.5083	757.324	91.0082	757.324	92.1772	757.324	90.2079	757.324	91.9981	757.324	89.5791	757.324	91.6078	757.324	89.2334	757.324	90.7145	757.324	89.3301	757.324	89.4029	757.324	89.9674	757.324	88.6207	757.324	90.9637	757.324	89.4492	757.324	91.9454	757.324	91.0211	757.324	92.5976	757.324	92.2123	757.324	92.7265
785.156	97.1625	785.156	96.7846	785.156	97.2869	785.156	96.2129	785.156	97.1348	785.156	95.5473	785.156	96.7078	785.156	94.8982	785.156	96.0229	785.156	94.3176	785.156	95.1079	785.156	93.7489	785.156	94.0144	785.156	93.0686	785.156	92.8636	785.156	92.1777	785.156	91.8966	785.156	91.0639	785.156	91.3638	785.156	89.8192	785.156	91.1834	785.156	88.6381	785.156	90.893	785.156	87.8428	785.156	90.0203	785.156	87.8629	785.156	88.4517	785.156	88.836	785.156	87.2222	785.156	90.2825	785.156	88.2535	785.156	91.5972	785.156	90.3763	785.156	92.4219	785.156	91.9175	785.156	92.5723
811.523	96.8613	811.523	96.5404	811.523	96.9398	811.523	96.0254	811.523	96.7731	811.523	95.4188	811.523	96.3772	811.523	94.8374	811.523	95.7617	811.523	94.3201	811.523	94.9145	811.523	93.7819	811.523	93.8157	811.523	93.0891	811.523	92.513	811.523	92.1776	811.523	91.2878	811.523	91.1189	811.523	90.6734	811.523	90.094	811.523	90.7708	811.523	89.2633	811.523	90.8752	811.523	88.6927	811.523	90.2374	811.523	88.5291	811.523	88.4724	811.523	89.0494	811.523	86.191	811.523	90.176	811.523	86.6097	811.523	91.3663	811.523	89.2842	811.523	92.1253	811.523	91.2755	811.523	92.1645
840.82	97.101	840.82	96.7493	840.82	97.1914	840.82	96.1574	840.82	97.0449	840.82	95.4284	840.82	96.693	840.82	94.7354	840.82	96.1448	840.82	94.1969	840.82	95.3722	840.82	93.7371	840.82	94.3211	840.82	93.1491	840.82	92.9748	840.82	92.2884	840.82	91.5198	840.82	91.1891	840.82	90.528	840.82	90.0637	840.82	90.4339	840.82	89.1438	840.82	90.6454	840.82	88.4833	840.82	90.2162	840.82	88.1461	840.82	88.5332	840.82	88.5294	840.82	85.7764	840.82	89.7913	840.82	85.7798	840.82	91.2799	840.82	89.0594	840.82	92.2858	840.82	91.4311	840.82	92.4225
870.117	96.9937	870.117	96.6425	870.117	97.0231	870.117	95.9825	870.117	96.7812	870.117	95.1525	870.117	96.3351	870.117	94.4338	870.117	95.7279	870.117	94.0529	870.117	94.9475	870.117	93.8846	870.117	93.9246	870.117	93.5632	870.117	92.5928	870.117	92.8115	870.117	91.0871	870.117	91.5687	870.117	90.0644	870.117	90.0299	870.117	90.181	870.117	88.6637	870.117	90.7391	870.117	87.9299	870.117	90.5748	870.117	87.8809	870.117	88.9158	870.117	88.4203	870.117	85.107	870.117	89.4495	870.117	82.1789	870.117	90.584	870.117	86.5546	870.117	91.3037	870.117	89.7993	870.117	91.1817
900.879	97.3344	900.879	97.098	900.879	97.1988	900.879	96.423	900.879	96.8019	900.879	95.358	900.879	96.2486	900.879	94.1697	900.879	95.5913	900.879	93.3053	900.879	94.7969	900.879	92.9225	900.879	93.751	900.879	92.6349	900.879	92.3108	900.879	92.0095	900.879	90.4906	900.879	90.9154	900.879	89.0181	900.879	89.5587	900.879	89.2294	900.879	88.409	900.879	90.4188	900.879	87.7943	900.879	90.8825	900.879	87.652	900.879	89.6915	900.879	88.098	900.879	85.8214	900.879	89.3533	900.879	79.7808	900.879	90.8998	900.879	85.9772	900.879	91.9224	900.879	90.2206	900.879	91.8677
933.105	96.6472	933.105	96.55	933.105	96.3099	933.105	95.9205	933.105	95.6942	933.105	94.7895	933.105	94.9707	933.105	93.4731	933.105	94.2563	933.105	92.6235	933.105	93.5383	933.105	92.5329	933.105	92.6569	933.105	92.6295	933.105	91.3664	933.105	92.2942	933.105	89.5356	933.105	91.2967	933.105	87.9322	933.105	89.7413	933.105	88.6002	933.105	88.1453	933.105	90.5988	933.105	87.2911	933.105	91.7336	933.105	87.2924	933.105	91.219	933.105	87.7286	933.105	88.372	933.105	88.5266	933.105	80.9321	933.105	89.5263	933.105	79.8426	933.105	90.1297	933.105	87.0732	933.105	89.6261
965.332	97.3359	965.332	97.2933	965.332	96.9082	965.332	96.661	965.332	96.1726	965.332	95.3808	965.332	95.3248	965.332	93.5759	965.332	94.5334	965.332	91.8698	965.332	93.8304	965.332	91.2417	965.332	93.0442	965.332	91.4845	965.332	91.8143	965.332	91.5173	965.332	89.5912	965.332	90.7785	965.332	85.6759	965.332	89.24	965.332	83.1344	965.332	87.5237	965.332	87.5749	965.332	86.9934	965.332	90.6546	965.332	87.7117	965.332	91.3162	965.332	88.5281	965.332	89.4274	965.332	89.2079	965.332	83.4118	965.332	89.9263	965.332	78.0731	965.332	90.3519	965.332	86.6955	965.332	89.685
1,000.49	97.6557	1,000.49	97.778	1,000.49	97.036	1,000.49	97.2845	1,000.49	96.0715	1,000.49	96.0838	1,000.49	94.9776	1,000.49	94.1937	1,000.49	94.0175	1,000.49	92.0723	1,000.49	93.366	1,000.49	90.9513	1,000.49	92.9286	1,000.49	91.1973	1,000.49	92.3297	1,000.49	91.5103	1,000.49	91.0289	1,000.49	91.0282	1,000.49	88.3162	1,000.49	89.514	1,000.49	83.7378	1,000.49	87.1091	1,000.49	84.4225	1,000.49	85.0609	1,000.49	88.8081	1,000.49	85.4364	1,000.49	90.5521	1,000.49	87.1397	1,000.49	89.5892	1,000.49	88.6837	1,000.49	84.9261	1,000.49	89.7322	1,000.49	72.3439	1,000.49	89.9654	1,000.49	84.5394	1,000.49	88.741
1,035.64	97.2169	1,035.64	97.5516	1,035.64	96.3995	1,035.64	97.2939	1,035.64	95.2361	1,035.64	96.3216	1,035.64	93.9535	1,035.64	94.5113	1,035.64	92.8826	1,035.64	91.9211	1,035.64	92.2922	1,035.64	89.5997	1,035.64	92.1134	1,035.64	89.5247	1,035.64	91.9209	1,035.64	90.6038	1,035.64	91.1498	1,035.64	91.0533	1,035.64	89.1405	1,035.64	90.4474	1,035.64	85.0644	1,035.64	88.7502	1,035.64	82.5575	1,035.64	86.1981	1,035.64	87.2235	1,035.64	84.3573	1,035.64	89.7695	1,035.64	85.3083	1,035.64	89.5058	1,035.64	87.2002	1,035.64	86.0358	1,035.64	88.4004	1,035.64	76.1944	1,035.64	88.4522	1,035.64	81.3766	1,035.64	86.7502
1,072.27	96.8559	1,072.27	97.3105	1,072.27	95.9248	1,072.27	97.1832	1,072.27	94.6348	1,072.27	96.354	1,072.27	93.1667	1,072.27	94.7002	1,072.27	91.7954	1,072.27	92.1901	1,072.27	90.8532	1,072.27	89.3552	1,072.27	90.5588	1,072.27	88.0855	1,072.27	90.689	1,072.27	88.7757	1,072.27	90.5681	1,072.27	89.3376	1,072.27	89.387	1,072.27	88.7882	1,072.27	86.1454	1,072.27	86.8566	1,072.27	81.0178	1,072.27	83.8291	1,072.27	85.088	1,072.27	82.7698	1,072.27	88.9076	1,072.27	85.1269	1,072.27	89.5372	1,072.27	87.2546	1,072.27	87.0767	1,072.27	88.2617	1,072.27	79.3446	1,072.27	87.9558	1,072.27	78.3037	1,072.27	85.595
1,108.89	96.5261	1,108.89	97.1348	1,108.89	95.4979	1,108.89	97.2116	1,108.89	94.1973	1,108.89	96.645	1,108.89	92.8281	1,108.89	95.326	1,108.89	91.6176	1,108.89	93.1984	1,108.89	90.8091	1,108.89	90.4855	1,108.89	90.5898	1,108.89	88.3302	1,108.89	90.7502	1,108.89	88.0634	1,108.89	90.6694	1,108.89	88.5659	1,108.89	89.6384	1,108.89	88.4907	1,108.89	86.7953	1,108.89	87.463	1,108.89	81.7299	1,108.89	85.4551	1,108.89	84.2313	1,108.89	83.1251	1,108.89	88.5041	1,108.89	83.4779	1,108.89	89.6418	1,108.89	86.2192	1,108.89	87.7965	1,108.89	88.0845	1,108.89	81.3023	1,108.89	88.1473	1,108.89	77.2841	1,108.89	85.6109
1,148.44	96.3126	1,148.44	96.8016	1,148.44	95.5749	1,148.44	96.9662	1,148.44	94.6343	1,148.44	96.6809	1,148.44	93.5423	1,148.44	95.7825	1,148.44	92.3683	1,148.44	94.1141	1,148.44	91.2143	1,148.44	91.6941	1,148.44	90.293	1,148.44	89.4014	1,148.44	89.8748	1,148.44	89.0307	1,148.44	89.8265	1,148.44	89.7431	1,148.44	89.3838	1,148.44	89.6676	1,148.44	87.4398	1,148.44	88.1443	1,148.44	82.3897	1,148.44	85.012	1,148.44	81.4047	1,148.44	81.4836	1,148.44	87.6253	1,148.44	82.2581	1,148.44	89.8452	1,148.44	85.1076	1,148.44	88.7639	1,148.44	86.9053	1,148.44	83.5956	1,148.44	87.0551	1,148.44	77.4087	1,148.44	84.5919
1,189.45	96.333	1,189.45	96.6569	1,189.45	95.76	1,189.45	96.7562	1,189.45	94.9025	1,189.45	96.5447	1,189.45	93.8101	1,189.45	95.848	1,189.45	92.581	1,189.45	94.4938	1,189.45	91.291	1,189.45	92.4379	1,189.45	90.1358	1,189.45	90.1879	1,189.45	89.5421	1,189.45	89.2613	1,189.45	89.5842	1,189.45	89.8279	1,189.45	89.5179	1,189.45	90.1856	1,189.45	88.2403	1,189.45	89.4296	1,189.45	84.1046	1,189.45	87.1885	1,189.45	77.9412	1,189.45	83.1743	1,189.45	85.9878	1,189.45	80.0671	1,189.45	89.3516	1,189.45	83.2306	1,189.45	88.911	1,189.45	85.9305	1,189.45	84.4714	1,189.45	86.3892	1,189.45	77.3315	1,189.45	83.824
1,230.47	96.6541	1,230.47	96.76	1,230.47	96.1401	1,230.47	96.608	1,230.47	95.2334	1,230.47	96.3303	1,230.47	94.1381	1,230.47	95.8568	1,230.47	93.0612	1,230.47	94.9272	1,230.47	91.9962	1,230.47	93.2811	1,230.47	90.7973	1,230.47	91.0136	1,230.47	89.4945	1,230.47	89.3354	1,230.47	88.5828	1,230.47	89.5977	1,230.47	88.4034	1,230.47	90.422	1,230.47	87.8806	1,230.47	90.3517	1,230.47	85.0257	1,230.47	88.8095	1,230.47	78.0918	1,230.47	85.3222	1,230.47	84.6152	1,230.47	80.587	1,230.47	88.7345	1,230.47	82.0306	1,230.47	88.7472	1,230.47	84.9719	1,230.47	85.1777	1,230.47	85.5034	1,230.47	79.7104	1,230.47	83.1708
1,274.41	96.8409	1,274.41	97.0453	1,274.41	96.1986	1,274.41	96.9102	1,274.41	95.1932	1,274.41	96.5332	1,274.41	94.095	1,274.41	95.8666	1,274.41	93.079	1,274.41	94.7485	1,274.41	92.0203	1,274.41	93.1062	1,274.41	90.7951	1,274.41	91.1618	1,274.41	89.5772	1,274.41	89.3367	1,274.41	88.872	1,274.41	88.0146	1,274.41	88.9141	1,274.41	87.9155	1,274.41	88.7587	1,274.41	88.8487	1,274.41	86.7861	1,274.41	89.0333	1,274.41	80.6734	1,274.41	87.1902	1,274.41	81.2825	1,274.41	83.0059	1,274.41	86.7623	1,274.41	82.1304	1,274.41	87.1221	1,274.41	85.4081	1,274.41	83.1368	1,274.41	86.4668	1,274.41	79.6976	1,274.41	84.6364
1,319.82	96.7631	1,319.82	97.2064	1,319.82	95.9214	1,319.82	97.2209	1,319.82	94.898	1,319.82	96.8712	1,319.82	93.9589	1,319.82	96.1621	1,319.82	93.0816	1,319.82	95.0002	1,319.82	91.9835	1,319.82	93.416	1,319.82	90.5468	1,319.82	91.9697	1,319.82	88.9596	1,319.82	91.3091	1,319.82	87.7545	1,319.82	90.8088	1,319.82	87.7373	1,319.82	89.544	1,319.82	88.1054	1,319.82	87.8337	1,319.82	86.5129	1,319.82	86.8551	1,319.82	79.0728	1,319.82	85.5806	1,319.82	82.3601	1,319.82	82.9709	1,319.82	88.5859	1,319.82	83.6675	1,319.82	88.8047	1,319.82	86.6518	1,319.82	83.6715	1,319.82	87.5309	1,319.82	77.5439	1,319.82	85.3954
1,366.7	96.5452	1,366.7	97.4107	1,366.7	95.4174	1,366.7	97.7692	1,366.7	94.425	1,366.7	97.534	1,366.7	93.7659	1,366.7	96.6203	1,366.7	93.2068	1,366.7	94.8643	1,366.7	92.405	1,366.7	92.2019	1,366.7	91.2321	1,366.7	89.747	1,366.7	89.7083	1,366.7	89.8525	1,366.7	87.9642	1,366.7	90.794	1,366.7	87.3353	1,366.7	90.5375	1,366.7	88.618	1,366.7	89.0093	1,366.7	88.6283	1,366.7	87.1686	1,366.7	83.4073	1,366.7	85.332	1,366.7	78.4454	1,366.7	82.5817	1,366.7	89.2104	1,366.7	82.4702	1,366.7	90.6027	1,366.7	85.5861	1,366.7	86.5749	1,366.7	86.6725	1,366.7	69.6259	1,366.7	83.7829
1,413.57	96.7004	1,413.57	97.1225	1,413.57	95.6841	1,413.57	97.1748	1,413.57	94.2997	1,413.57	97.0744	1,413.57	93.2188	1,413.57	96.6518	1,413.57	92.8378	1,413.57	95.4128	1,413.57	92.8185	1,413.57	92.817	1,413.57	92.6022	1,413.57	88.9153	1,413.57	91.667	1,413.57	86.9658	1,413.57	89.3426	1,413.57	88.0772	1,413.57	85.9736	1,413.57	88.1548	1,413.57	87.5339	1,413.57	86.8972	1,413.57	89.9285	1,413.57	85.4174	1,413.57	88.007	1,413.57	82.749	1,413.57	68.8272	1,413.57	76.8672	1,413.57	87.9061	1,413.57	80.4938	1,413.57	91.4942	1,413.57	85.7277	1,413.57	89.1288	1,413.57	86.562	1,413.57	77.2316	1,413.57	81.639
1,463.38	97.2244	1,463.38	97.2781	1,463.38	96.0545	1,463.38	96.5403	1,463.38	94.4021	1,463.38	95.9624	1,463.38	93.1599	1,463.38	95.8415	1,463.38	92.5016	1,463.38	95.2701	1,463.38	92.1773	1,463.38	93.1756	1,463.38	92.1528	1,463.38	88.5519	1,463.38	92.2154	1,463.38	82.5418	1,463.38	91.2286	1,463.38	86.6802	1,463.38	87.529	1,463.38	89.0138	1,463.38	86.0038	1,463.38	87.6841	1,463.38	90.2995	1,463.38	84.7732	1,463.38	90.4855	1,463.38	84.1491	1,463.38	83.1453	1,463.38	81.2957	1,463.38	84.1871	1,463.38	64.4071	1,463.38	90.8109	1,463.38	82.2784	1,463.38	90.1775	1,463.38	83.3586	1,463.38	83.6245	1,463.38	71.0784
1,516.11	97.0788	1,516.11	97.2934	1,516.11	95.7942	1,516.11	96.5962	1,516.11	93.9515	1,516.11	95.501	1,516.11	92.2431	1,516.11	94.6615	1,516.11	91.215	1,516.11	94.2534	1,516.11	91.2474	1,516.11	93.5758	1,516.11	91.834	1,516.11	91.7376	1,516.11	92.5119	1,516.11	87.3517	1,516.11	92.6667	1,516.11	84.0088	1,516.11	90.8256	1,516.11	89.1065	1,516.11	86.5491	1,516.11	89.5626	1,516.11	88.7509	1,516.11	85.7787	1,516.11	90.8851	1,516.11	83.4146	1,516.11	86.5933	1,516.11	83.8093	1,516.11	76.2452	1,516.11	78.1719	1,516.11	88.5504	1,516.11	73.7048	1,516.11	89.6107	1,516.11	78.2473	1,516.11	86.2925	1,516.11	77.4131
1,568.85	95.9284	1,568.85	96.7568	1,568.85	94.4817	1,568.85	96.693	1,568.85	93.0626	1,568.85	95.6839	1,568.85	91.968	1,568.85	94.0524	1,568.85	91.3298	1,568.85	92.6649	1,568.85	91.3831	1,568.85	92.0623	1,568.85	91.5745	1,568.85	91.4209	1,568.85	91.5195	1,568.85	88.9951	1,568.85	91.5233	1,568.85	85.4858	1,568.85	90.6713	1,568.85	89.213	1,568.85	87.6871	1,568.85	90.8066	1,568.85	87.3335	1,568.85	88.3102	1,568.85	90.1138	1,568.85	84.7468	1,568.85	88.0931	1,568.85	85.4899	1,568.85	77.0878	1,568.85	83.8362	1,568.85	85.1749	1,568.85	75.7608	1,568.85	87.9113	1,568.85	78.1924	1,568.85	86.5711	1,568.85	82.8639
1,624.51	94.456	1,624.51	95.8929	1,624.51	93.3312	1,624.51	96.7638	1,624.51	92.6701	1,624.51	96.3511	1,624.51	92.3249	1,624.51	94.7712	1,624.51	92.1622	1,624.51	92.7429	1,624.51	92.2323	1,624.51	90.8322	1,624.51	92.432	1,624.51	89.3996	1,624.51	91.8213	1,624.51	87.4464	1,624.51	90.3832	1,624.51	80.5903	1,624.51	89.3401	1,624.51	84.5933	1,624.51	88.0449	1,624.51	90.0262	1,624.51	86.7651	1,624.51	89.887	1,624.51	88.4449	1,624.51	86.751	1,624.51	87.1551	1,624.51	85.5535	1,624.51	79.7149	1,624.51	85.7119	1,624.51	82.335	1,624.51	81.646	1,624.51	85.8501	1,624.51	82.3374	1,624.51	85.9941	1,624.51	84.7
1,681.64	94.7123	1,681.64	96.0072	1,681.64	93.3589	1,681.64	96.7979	1,681.64	92.5181	1,681.64	96.4399	1,681.64	92.647	1,681.64	94.8457	1,681.64	92.7872	1,681.64	92.9734	1,681.64	92.73	1,681.64	91.7671	1,681.64	92.695	1,681.64	90.805	1,681.64	92.0355	1,681.64	89.4943	1,681.64	90.7201	1,681.64	86.617	1,681.64	89.5565	1,681.64	82.6133	1,681.64	88.3077	1,681.64	86.5917	1,681.64	87.3448	1,681.64	88.2117	1,681.64	87.8419	1,681.64	87.3811	1,681.64	85.8693	1,681.64	86.6893	1,681.64	81.0139	1,681.64	85.7946	1,681.64	82.5891	1,681.64	82.3369	1,681.64	84.3377	1,681.64	82.4964	1,681.64	84.3131	1,681.64	83.9348
1,741.7	95.2159	1,741.7	96.4667	1,741.7	93.5487	1,741.7	96.7115	1,741.7	93.222	1,741.7	96.2715	1,741.7	93.6884	1,741.7	95.4831	1,741.7	93.2427	1,741.7	94.4797	1,741.7	92.3658	1,741.7	93.1074	1,741.7	92.3451	1,741.7	91.3234	1,741.7	92.4781	1,741.7	89.7824	1,741.7	91.5169	1,741.7	86.8958	1,741.7	89.8049	1,741.7	77.5233	1,741.7	88.331	1,741.7	83.0163	1,741.7	86.8823	1,741.7	86.7103	1,741.7	86.3645	1,741.7	86.811	1,741.7	84.3521	1,741.7	86.8326	1,741.7	81.0902	1,741.7	86.4236	1,741.7	83.2748	1,741.7	82.0587	1,741.7	84.3751	1,741.7	82.6345	1,741.7	84.6508	1,741.7	85.4113
1,803.22	95.2539	1,803.22	96.6503	1,803.22	93.7427	1,803.22	97.1362	1,803.22	93.4746	1,803.22	96.6265	1,803.22	94.0047	1,803.22	95.3861	1,803.22	93.937	1,803.22	94.2542	1,803.22	93.0104	1,803.22	93.6194	1,803.22	92.2347	1,803.22	91.8566	1,803.22	92.5309	1,803.22	88.8755	1,803.22	92.4372	1,803.22	87.7401	1,803.22	90.9672	1,803.22	84.4501	1,803.22	88.6809	1,803.22	66.1618	1,803.22	86.2286	1,803.22	82.1355	1,803.22	84.7149	1,803.22	85.6368	1,803.22	83.5551	1,803.22	86.7796	1,803.22	82.2981	1,803.22	87.7193	1,803.22	85.6718	1,803.22	84.5917	1,803.22	85.7602	1,803.22	83.0496	1,803.22	84.7232	1,803.22	85.9215
1,866.21	95.0391	1,866.21	96.8448	1,866.21	93.3844	1,866.21	97.3249	1,866.21	93.5216	1,866.21	96.6669	1,866.21	94.2084	1,866.21	95.3049	1,866.21	94.5472	1,866.21	93.3568	1,866.21	93.9623	1,866.21	92.6121	1,866.21	92.51	1,866.21	92.5073	1,866.21	91.8543	1,866.21	89.6022	1,866.21	92.3076	1,866.21	86.1342	1,866.21	91.7624	1,866.21	87.2417	1,866.21	89.2272	1,866.21	84.9389	1,866.21	87.5102	1,866.21	75.0584	1,866.21	86.6418	1,866.21	85.0925	1,866.21	83.6649	1,866.21	86.3895	1,866.21	80.9815	1,866.21	87.1029	1,866.21	85.9147	1,866.21	86.0421	1,866.21	86.4289	1,866.21	83.5585	1,866.21	81.6935	1,866.21	84.5313
1,932.13	95.9432	1,932.13	97.102	1,932.13	94.8738	1,932.13	97.4597	1,932.13	94.7256	1,932.13	96.7703	1,932.13	95.3427	1,932.13	95.4694	1,932.13	95.7579	1,932.13	93.5555	1,932.13	94.9493	1,932.13	90.9874	1,932.13	93.1072	1,932.13	90.3771	1,932.13	91.7216	1,932.13	89.3466	1,932.13	91.4086	1,932.13	85.7797	1,932.13	90.3273	1,932.13	88.1455	1,932.13	87.0751	1,932.13	90.0757	1,932.13	86.135	1,932.13	86.4645	1,932.13	87.6696	1,932.13	81.6443	1,932.13	86.2274	1,932.13	84.5674	1,932.13	83.175	1,932.13	85.2502	1,932.13	86.0791	1,932.13	86.1494	1,932.13	87.0803	1,932.13	85.8079	1,932.13	82.0989	1,932.13	83.9549
1,999.51	96.243	1,999.51	97.3955	1,999.51	95.1197	1,999.51	97.672	1,999.51	95.1682	1,999.51	97.0768	1,999.51	95.6206	1,999.51	95.7753	1,999.51	95.6633	1,999.51	94.1837	1,999.51	94.9507	1,999.51	92.0649	1,999.51	94.0331	1,999.51	89.3836	1,999.51	93.2458	1,999.51	88.2169	1,999.51	92.1302	1,999.51	86.5062	1,999.51	90.7205	1,999.51	84.6946	1,999.51	88.2171	1,999.51	88.6215	1,999.51	84.8119	1,999.51	88.6637	1,999.51	88.1387	1,999.51	85.4513	1,999.51	88.9593	1,999.51	85.8696	1,999.51	84.3348	1,999.51	85.7137	1,999.51	85.2106	1,999.51	84.6445	1,999.51	87.0744	1,999.51	85.7927	1,999.51	81.9602	1,999.51	84.7228
2,069.82	95.8718	2,069.82	97.2586	2,069.82	94.708	2,069.82	97.7078	2,069.82	94.5761	2,069.82	97.4506	2,069.82	95.2543	2,069.82	96.7729	2,069.82	95.4832	2,069.82	95.433	2,069.82	94.7303	2,069.82	93.6029	2,069.82	94.1397	2,069.82	91.2596	2,069.82	94.0102	2,069.82	88.6916	2,069.82	93.1414	2,069.82	84.9356	2,069.82	91.9652	2,069.82	83.7133	2,069.82	90.8547	2,069.82	88.0542	2,069.82	86.8855	2,069.82	87.0661	2,069.82	86.2728	2,069.82	83.1674	2,069.82	88.9796	2,069.82	83.7025	2,069.82	87.2501	2,069.82	85.0074	2,069.82	85.1285	2,069.82	84.5954	2,069.82	86.2034	2,069.82	84.5416	2,069.82	82.9118	2,069.82	81.6974
2,143.07	96.432	2,143.07	96.736	2,143.07	95.397	2,143.07	96.9541	2,143.07	94.8793	2,143.07	97.5667	2,143.07	94.7693	2,143.07	96.8834	2,143.07	94.9118	2,143.07	94.0959	2,143.07	95.0517	2,143.07	91.8253	2,143.07	94.3124	2,143.07	91.4846	2,143.07	93.4539	2,143.07	90.9342	2,143.07	92.8546	2,143.07	89.1099	2,143.07	91.5966	2,143.07	81.9519	2,143.07	90.3025	2,143.07	80.9557	2,143.07	87.4914	2,143.07	84.6899	2,143.07	86.8871	2,143.07	82.2408	2,143.07	89.622	2,143.07	83.5081	2,143.07	86.5857	2,143.07	85.9301	2,143.07	86.1452	2,143.07	83.4532	2,143.07	85.7401	2,143.07	84.0074	2,143.07	82.1301	2,143.07	83.0527
2,219.24	96.5141	2,219.24	97.3419	2,219.24	96.0274	2,219.24	97.4214	2,219.24	95.5126	2,219.24	96.996	2,219.24	94.446	2,219.24	96.2294	2,219.24	94.4998	2,219.24	94.073	2,219.24	94.953	2,219.24	90.472	2,219.24	94.3222	2,219.24	88.4233	2,219.24	93.3879	2,219.24	89.1122	2,219.24	93.1021	2,219.24	88.6726	2,219.24	92.1658	2,219.24	84.3476	2,219.24	90.2327	2,219.24	62.9846	2,219.24	87.1698	2,219.24	77.44	2,219.24	86.9305	2,219.24	82.359	2,219.24	88.4321	2,219.24	81.7834	2,219.24	85.5978	2,219.24	86.5843	2,219.24	84.4572	2,219.24	83.0064	2,219.24	86.7376	2,219.24	78.6671	2,219.24	81.5165	2,219.24	81.6793
2,296.88	96.4104	2,296.88	97.0821	2,296.88	95.7922	2,296.88	97.707	2,296.88	95.6091	2,296.88	96.8774	2,296.88	95.7579	2,296.88	95.2335	2,296.88	95.0516	2,296.88	94.1319	2,296.88	94.4366	2,296.88	92.3392	2,296.88	93.501	2,296.88	89.325	2,296.88	92.543	2,296.88	85.6804	2,296.88	92.6456	2,296.88	84.8976	2,296.88	91.258	2,296.88	85.0815	2,296.88	88.1464	2,296.88	80.9116	2,296.88	85.8908	2,296.88	78.7067	2,296.88	85.5267	2,296.88	82.9371	2,296.88	88.6271	2,296.88	81.5939	2,296.88	85.0654	2,296.88	83.9018	2,296.88	82.7342	2,296.88	82.4076	2,296.88	85.4046	2,296.88	76.2684	2,296.88	80.49	2,296.88	75.2833
2,378.91	96.5897	2,378.91	97.1468	2,378.91	95.9206	2,378.91	96.5627	2,378.91	95.697	2,378.91	95.8629	2,378.91	95.219	2,378.91	95.6529	2,378.91	95.8743	2,378.91	95.0183	2,378.91	95.2973	2,378.91	92.0594	2,378.91	93.2549	2,378.91	87.8143	2,378.91	91.9444	2,378.91	85.5704	2,378.91	92.5264	2,378.91	82.8655	2,378.91	92.2572	2,378.91	85.275	2,378.91	88.7915	2,378.91	83.1276	2,378.91	84.0554	2,378.91	81.0621	2,378.91	82.8749	2,378.91	82.9675	2,378.91	87.1637	2,378.91	84.2038	2,378.91	86.033	2,378.91	82.2283	2,378.91	76.2932	2,378.91	78.98	2,378.91	83.6558	2,378.91	78.9975	2,378.91	81.7688	2,378.91	79.6912
2,462.4	96.4938	2,462.4	96.6002	2,462.4	96.1802	2,462.4	96.4601	2,462.4	95.7925	2,462.4	96.4439	2,462.4	95.7792	2,462.4	96.066	2,462.4	95.901	2,462.4	94.4086	2,462.4	95.8151	2,462.4	90.7355	2,462.4	94.2747	2,462.4	86.176	2,462.4	90.8031	2,462.4	86.22	2,462.4	91.7357	2,462.4	84.9533	2,462.4	91.7854	2,462.4	80.4196	2,462.4	85.7824	2,462.4	81.2645	2,462.4	85.3862	2,462.4	78.9138	2,462.4	80.5176	2,462.4	80.3831	2,462.4	82.4899	2,462.4	80.3193	2,462.4	85.5039	2,462.4	80.847	2,462.4	81.5627	2,462.4	82.6236	2,462.4	82.9603	2,462.4	80.2508	2,462.4	81.0603	2,462.4	78.3386
2,548.83	95.1755	2,548.83	96.1614	2,548.83	94.7045	2,548.83	97.2275	2,548.83	94.7054	2,548.83	96.9351	2,548.83	95.4308	2,548.83	95.0376	2,548.83	95.7078	2,548.83	92.3905	2,548.83	95.245	2,548.83	89.6245	2,548.83	94.0255	2,548.83	86.065	2,548.83	91.5466	2,548.83	83.357	2,548.83	91.2913	2,548.83	80.7929	2,548.83	92.4579	2,548.83	80.3755	2,548.83	86.2496	2,548.83	81.7826	2,548.83	71.4023	2,548.83	79.3288	2,548.83	79.5505	2,548.83	79.326	2,548.83	80.1054	2,548.83	80.2673	2,548.83	84.0001	2,548.83	80.0673	2,548.83	78.1944	2,548.83	80.615	2,548.83	82.211	2,548.83	78.7539	2,548.83	82.3741	2,548.83	77.4036
2,639.65	95.913	2,639.65	96.9521	2,639.65	94.2055	2,639.65	96.8762	2,639.65	93.3211	2,639.65	95.8368	2,639.65	94.6106	2,639.65	93.8488	2,639.65	95.8547	2,639.65	90.8316	2,639.65	95.436	2,639.65	88.2056	2,639.65	94.1016	2,639.65	86.2186	2,639.65	91.9658	2,639.65	84.8151	2,639.65	91.142	2,639.65	84.862	2,639.65	92.7583	2,639.65	79.705	2,639.65	90.3399	2,639.65	82.7131	2,639.65	83.8335	2,639.65	81.4719	2,639.65	81.5516	2,639.65	74.9115	2,639.65	81.4617	2,639.65	79.0692	2,639.65	85.8918	2,639.65	79.6618	2,639.65	79.8204	2,639.65	78.174	2,639.65	75.5534	2,639.65	78.8283	2,639.65	80.7235	2,639.65	80.2685
2,731.93	95.8894	2,731.93	97.1401	2,731.93	93.4667	2,731.93	97.0096	2,731.93	91.85	2,731.93	94.9983	2,731.93	93.5171	2,731.93	91.796	2,731.93	95.1224	2,731.93	89.7426	2,731.93	95.2979	2,731.93	88.4236	2,731.93	94.0435	2,731.93	87.4489	2,731.93	91.2221	2,731.93	84.4169	2,731.93	88.1692	2,731.93	82.7438	2,731.93	88.9693	2,731.93	80.4263	2,731.93	88.4243	2,731.93	74.5078	2,731.93	85.5704	2,731.93	78.7109	2,731.93	85.2906	2,731.93	76.724	2,731.93	83.4185	2,731.93	76.3267	2,731.93	85.8517	2,731.93	80.0486	2,731.93	82.3196	2,731.93	76.8872	2,731.93	77.1969	2,731.93	75.5217	2,731.93	80.7011	2,731.93	79.7509
2,828.61	95.6945	2,828.61	96.6595	2,828.61	93.2239	2,828.61	96.1761	2,828.61	91.9828	2,828.61	94.5735	2,828.61	94.1562	2,828.61	92.0941	2,828.61	95.5219	2,828.61	89.8175	2,828.61	95.3538	2,828.61	87.6125	2,828.61	94.1886	2,828.61	85.0846	2,828.61	91.4056	2,828.61	83.6238	2,828.61	87.1135	2,828.61	79.3136	2,828.61	87.7118	2,828.61	76.6551	2,828.61	89.2215	2,828.61	77.4471	2,828.61	86.7852	2,828.61	77.6133	2,828.61	85.3402	2,828.61	76.2486	2,828.61	84.3109	2,828.61	75.3994	2,828.61	84.4917	2,828.61	79.498	2,828.61	80.5662	2,828.61	76.7431	2,828.61	73.7187	2,828.61	72.8985	2,828.61	80.1765	2,828.61	79.9594
2,928.22	96.1342	2,928.22	97.2946	2,928.22	92.9178	2,928.22	96.3409	2,928.22	91.1879	2,928.22	93.892	2,928.22	93.647	2,928.22	90.6929	2,928.22	95.3866	2,928.22	88.4216	2,928.22	95.3562	2,928.22	87.3401	2,928.22	93.7467	2,928.22	84.7929	2,928.22	91.0574	2,928.22	80.85	2,928.22	86.8772	2,928.22	79.0889	2,928.22	86.215	2,928.22	81.8191	2,928.22	88.9073	2,928.22	81.9879	2,928.22	87.2045	2,928.22	80.7776	2,928.22	84.2908	2,928.22	80.0309	2,928.22	83.7842	2,928.22	77.2082	2,928.22	84.8625	2,928.22	78.2571	2,928.22	81.9426	2,928.22	74.7471	2,928.22	75.5591	2,928.22	69.2606	2,928.22	76.4415	2,928.22	75.1062
3,030.76	96.267	3,030.76	97.6817	3,030.76	92.768	3,030.76	96.6281	3,030.76	91.4436	3,030.76	93.1723	3,030.76	94.0172	3,030.76	88.0903	3,030.76	95.0089	3,030.76	86.6132	3,030.76	94.1464	3,030.76	86.0751	3,030.76	92.4932	3,030.76	83.5072	3,030.76	90.3355	3,030.76	84.8896	3,030.76	87.1906	3,030.76	85.137	3,030.76	85.6216	3,030.76	83.4238	3,030.76	86.6706	3,030.76	81.8952	3,030.76	85.142	3,030.76	79.0101	3,030.76	84.1	3,030.76	79.7333	3,030.76	81.0068	3,030.76	78.3704	3,030.76	83.6329	3,030.76	79.1317	3,030.76	80.2177	3,030.76	75.4663	3,030.76	75.0374	3,030.76	70.0514	3,030.76	78.957	3,030.76	77.6172
3,137.7	96.45	3,137.7	97.8842	3,137.7	92.3312	3,137.7	96.2213	3,137.7	90.9323	3,137.7	92.5101	3,137.7	93.9917	3,137.7	87.1213	3,137.7	95.1832	3,137.7	85.6881	3,137.7	94.3755	3,137.7	86.3098	3,137.7	92.2887	3,137.7	86.4569	3,137.7	88.5259	3,137.7	86.9667	3,137.7	85.3065	3,137.7	85.1168	3,137.7	86.9033	3,137.7	80.8816	3,137.7	87.0308	3,137.7	80.7471	3,137.7	82.7742	3,137.7	78.1178	3,137.7	82.6327	3,137.7	77.1345	3,137.7	81.588	3,137.7	78.5131	3,137.7	83.2456	3,137.7	78.2585	3,137.7	79.6211	3,137.7	72.6024	3,137.7	74.9739	3,137.7	69.3652	3,137.7	77.1791	3,137.7	77.4323
3,249.02	96.3628	3,249.02	97.8332	3,249.02	92.1084	3,249.02	96.3458	3,249.02	90.0338	3,249.02	91.6254	3,249.02	92.4048	3,249.02	83.7202	3,249.02	94.523	3,249.02	85.4313	3,249.02	95.1508	3,249.02	88.1191	3,249.02	93.1262	3,249.02	88.8606	3,249.02	89.5064	3,249.02	86.1962	3,249.02	86.6961	3,249.02	81.0916	3,249.02	87.0918	3,249.02	79.552	3,249.02	87.4727	3,249.02	82.3664	3,249.02	84.0619	3,249.02	80.369	3,249.02	81.291	3,249.02	75.915	3,249.02	82.1439	3,249.02	76.4827	3,249.02	81.8896	3,249.02	78.1787	3,249.02	79.095	3,249.02	72.5612	3,249.02	74.4974	3,249.02	58.206	3,249.02	77.1054	3,249.02	76.8593
3,363.28	96.0996	3,363.28	97.7824	3,363.28	92.2834	3,363.28	96.4669	3,363.28	90.1923	3,363.28	90.1112	3,363.28	92.6916	3,363.28	78.4856	3,363.28	94.0853	3,363.28	86.3426	3,363.28	94.2767	3,363.28	88.6921	3,363.28	93.1453	3,363.28	87.0804	3,363.28	91.358	3,363.28	82.1981	3,363.28	88.9134	3,363.28	81.7819	3,363.28	87.0404	3,363.28	80.4708	3,363.28	86.0206	3,363.28	80.5595	3,363.28	83.7747	3,363.28	79.2298	3,363.28	79.1446	3,363.28	76.8031	3,363.28	81.8179	3,363.28	75.119	3,363.28	78.9136	3,363.28	74.7996	3,363.28	77.3628	3,363.28	68.5338	3,363.28	66.5304	3,363.28	72.3275	3,363.28	77.3969	3,363.28	72.2433
3,481.93	96.4509	3,481.93	97.9083	3,481.93	92.3239	3,481.93	95.7672	3,481.93	89.8962	3,481.93	88.6234	3,481.93	93.0781	3,481.93	77.1178	3,481.93	94.5208	3,481.93	87.5442	3,481.93	93.748	3,481.93	87.0149	3,481.93	92.1866	3,481.93	83.2881	3,481.93	90.7124	3,481.93	83.8761	3,481.93	89.4235	3,481.93	82.8494	3,481.93	85.351	3,481.93	77.3659	3,481.93	84.1003	3,481.93	76.8609	3,481.93	81.9902	3,481.93	76.3443	3,481.93	77.2766	3,481.93	75.2359	3,481.93	78.9329	3,481.93	74.5775	3,481.93	78.1115	3,481.93	71.8721	3,481.93	70.1967	3,481.93	64.7195	3,481.93	65.9208	3,481.93	71.9558	3,481.93	76.0733	3,481.93	73.4198
3,604.98	97.2769	3,604.98	98.1014	3,604.98	93.1399	3,604.98	95.3633	3,604.98	89.818	3,604.98	86.9052	3,604.98	92.4375	3,604.98	79.5872	3,604.98	93.8337	3,604.98	85.7992	3,604.98	93.3605	3,604.98	85.2976	3,604.98	91.7946	3,604.98	85.6538	3,604.98	89.3182	3,604.98	82.1693	3,604.98	88.1185	3,604.98	76.9691	3,604.98	83.1252	3,604.98	77.5187	3,604.98	79.6231	3,604.98	78.2723	3,604.98	81.4902	3,604.98	77.4002	3,604.98	75.792	3,604.98	74.3456	3,604.98	77.2746	3,604.98	74.4695	3,604.98	74.453	3,604.98	71.0546	3,604.98	69.5901	3,604.98	62.6653	3,604.98	71.2088	3,604.98	70.6702	3,604.98	75.013	3,604.98	76.0699
3,732.42	97.1418	3,732.42	97.8874	3,732.42	93.0735	3,732.42	94.5685	3,732.42	88.7174	3,732.42	82.8692	3,732.42	91.6911	3,732.42	81.7987	3,732.42	93.2169	3,732.42	86.5358	3,732.42	92.956	3,732.42	86.9411	3,732.42	91.4672	3,732.42	84.2703	3,732.42	88.2498	3,732.42	81.9096	3,732.42	85.9403	3,732.42	81.5767	3,732.42	79.5386	3,732.42	80.2093	3,732.42	78.1466	3,732.42	78.7071	3,732.42	78.6411	3,732.42	77.785	3,732.42	73.8292	3,732.42	77.024	3,732.42	75.9964	3,732.42	76.5645	3,732.42	75.7957	3,732.42	74.4215	3,732.42	71.8628	3,732.42	61.7699	3,732.42	74.8692	3,732.42	69.6833	3,732.42	74.2491	3,732.42	72.5179
3,864.26	97.6756	3,864.26	98.1838	3,864.26	93.2664	3,864.26	94.0444	3,864.26	87.2281	3,864.26	79.7918	3,864.26	91.0301	3,864.26	84.9602	3,864.26	93.1207	3,864.26	88.7384	3,864.26	92.1771	3,864.26	87.8546	3,864.26	89.6061	3,864.26	86.3346	3,864.26	86.5651	3,864.26	85.6483	3,864.26	85.1212	3,864.26	83.8165	3,864.26	77.3451	3,864.26	81.1735	3,864.26	77.432	3,864.26	81.3572	3,864.26	80.2248	3,864.26	79.8367	3,864.26	77.7905	3,864.26	78.7184	3,864.26	76.2284	3,864.26	78.9859	3,864.26	77.2379	3,864.26	75.6003	3,864.26	70.9591	3,864.26	60.3587	3,864.26	75.6297	3,864.26	74.4573	3,864.26	74.8597	3,864.26	77.3042
4,000.49	97.5422	4,000.49	97.5684	4,000.49	93.0955	4,000.49	93.108	4,000.49	85.8431	4,000.49	75.0096	4,000.49	90.8585	4,000.49	87.8449	4,000.49	93.0711	4,000.49	90.2517	4,000.49	91.9324	4,000.49	88.7411	4,000.49	88.8714	4,000.49	88.2902	4,000.49	84.1774	4,000.49	85.2673	4,000.49	83.9528	4,000.49	82.1667	4,000.49	75.4921	4,000.49	81.6203	4,000.49	80.3863	4,000.49	80.9784	4,000.49	81.9518	4,000.49	81.0619	4,000.49	80.2893	4,000.49	78.8054	4,000.49	77.0077	4,000.49	80.9193	4,000.49	76.5867	4,000.49	79.1866	4,000.49	76.0751	4,000.49	70.5973	4,000.49	73.1756	4,000.49	72.4688	4,000.49	74.5464	4,000.49	77.7141
4,141.11	97.5357	4,141.11	97.6017	4,141.11	94.0103	4,141.11	92.7132	4,141.11	85.7505	4,141.11	74.1816	4,141.11	91.2693	4,141.11	90.309	4,141.11	92.5919	4,141.11	90.8666	4,141.11	90.7747	4,141.11	89.8425	4,141.11	88.6289	4,141.11	87.0847	4,141.11	83.6408	4,141.11	86.0988	4,141.11	81.9747	4,141.11	85.6281	4,141.11	73.6862	4,141.11	83.6063	4,141.11	82.4978	4,141.11	81.1674	4,141.11	85.2809	4,141.11	82.2701	4,141.11	79.6734	4,141.11	79.0697	4,141.11	79.2904	4,141.11	80.5306	4,141.11	73.6854	4,141.11	81.3349	4,141.11	78.2182	4,141.11	75.405	4,141.11	68.6858	4,141.11	57.3087	4,141.11	64.9952	4,141.11	73.8214
4,287.6	97.5204	4,287.6	97.1063	4,287.6	94.3681	4,287.6	90.9892	4,287.6	83.6923	4,287.6	82.7546	4,287.6	91.3185	4,287.6	91.8284	4,287.6	92.8394	4,287.6	91.7768	4,287.6	88.684	4,287.6	89.807	4,287.6	87.3696	4,287.6	89.6533	4,287.6	83.2101	4,287.6	88.7471	4,287.6	84.194	4,287.6	84.5531	4,287.6	76.7097	4,287.6	82.9653	4,287.6	84.956	4,287.6	82.311	4,287.6	86.5408	4,287.6	81.0999	4,287.6	82.2817	4,287.6	81.5637	4,287.6	77.6843	4,287.6	80.534	4,287.6	73.8862	4,287.6	81.3312	4,287.6	70.0712	4,287.6	75.8261	4,287.6	75.136	4,287.6	70.1624	4,287.6	68.3714	4,287.6	75.4251
4,438.48	97.617	4,438.48	96.7581	4,438.48	94.3255	4,438.48	88.7897	4,438.48	78.7337	4,438.48	87.4257	4,438.48	90.9701	4,438.48	92.4773	4,438.48	93.3303	4,438.48	91.6903	4,438.48	87.875	4,438.48	91.8564	4,438.48	85.7425	4,438.48	90.571	4,438.48	84.3221	4,438.48	87.1385	4,438.48	83.9306	4,438.48	86.7366	4,438.48	82.1183	4,438.48	84.9917	4,438.48	84.7726	4,438.48	82.7647	4,438.48	86.152	4,438.48	81.492	4,438.48	83.7956	4,438.48	81.0259	4,438.48	76.8817	4,438.48	81.1533	4,438.48	73.9065	4,438.48	81.6881	4,438.48	74.4252	4,438.48	76.3016	4,438.48	75.4829	4,438.48	71.6505	4,438.48	71.9042	4,438.48	80.296
4,595.21	97.2839	4,595.21	95.7938	4,595.21	94.5763	4,595.21	85.5842	4,595.21	79.068	4,595.21	89.4676	4,595.21	91.6195	4,595.21	92.3739	4,595.21	93.6277	4,595.21	92.5285	4,595.21	88.0816	4,595.21	91.8248	4,595.21	83.9154	4,595.21	90.2145	4,595.21	83.8867	4,595.21	89.5021	4,595.21	81.9023	4,595.21	86.0359	4,595.21	83.1136	4,595.21	82.738	4,595.21	83.3023	4,595.21	82.622	4,595.21	84.1642	4,595.21	80.4856	4,595.21	80.8267	4,595.21	79.5309	4,595.21	79.6655	4,595.21	80.2802	4,595.21	73.7824	4,595.21	81.2729	4,595.21	76.4505	4,595.21	77.2068	4,595.21	75.0451	4,595.21	65.9721	4,595.21	73.488	4,595.21	81.6355
4,756.35	97.4459	4,756.35	94.5975	4,756.35	94.9747	4,756.35	81.1741	4,756.35	83.7403	4,756.35	90.1712	4,756.35	91.6131	4,756.35	92.2249	4,756.35	93.0696	4,756.35	92.561	4,756.35	88.2899	4,756.35	92.1233	4,756.35	84.4305	4,756.35	91.2217	4,756.35	81.4138	4,756.35	87.0335	4,756.35	82.5166	4,756.35	83.2707	4,756.35	85.6737	4,756.35	82.849	4,756.35	81.8372	4,756.35	80.2713	4,756.35	85.5304	4,756.35	79.7283	4,756.35	78.4326	4,756.35	78.5655	4,756.35	78.6735	4,756.35	79.453	4,756.35	71.6256	4,756.35	79.9499	4,756.35	73.5175	4,756.35	75.6866	4,756.35	71.5459	4,756.35	66.9857	4,756.35	70.2068	4,756.35	78.3805
4,924.8	97.0737	4,924.8	93.2961	4,924.8	94.3383	4,924.8	81.6938	4,924.8	86.8317	4,924.8	90.9564	4,924.8	92.594	4,924.8	92.3027	4,924.8	92.3097	4,924.8	92.6088	4,924.8	87.2672	4,924.8	91.742	4,924.8	86.8608	4,924.8	88.4286	4,924.8	84.7205	4,924.8	86.1254	4,924.8	84.522	4,924.8	84.1729	4,924.8	87.4843	4,924.8	79.5709	4,924.8	79.077	4,924.8	79.1736	4,924.8	83.9753	4,924.8	78.181	4,924.8	77.5804	4,924.8	76.1629	4,924.8	78.9316	4,924.8	76.8558	4,924.8	67.7137	4,924.8	78.4064	4,924.8	69.5217	4,924.8	72.309	4,924.8	63.0751	4,924.8	67.9952	4,924.8	68.6648	4,924.8	75.9654
5,097.66	97.012	5,097.66	92.4169	5,097.66	94.5395	5,097.66	84.7741	5,097.66	87.8388	5,097.66	91.5054	5,097.66	93.5216	5,097.66	92.3498	5,097.66	92.5291	5,097.66	92.3201	5,097.66	86.0169	5,097.66	90.071	5,097.66	87.0446	5,097.66	89.0612	5,097.66	88.0279	5,097.66	85.8707	5,097.66	87.1347	5,097.66	80.2923	5,097.66	86.5827	5,097.66	80.033	5,097.66	73.5966	5,097.66	77.2654	5,097.66	83.6867	5,097.66	74.7274	5,097.66	75.7904	5,097.66	73.2807	5,097.66	78.9775	5,097.66	73.416	5,097.66	72.9767	5,097.66	76.5791	5,097.66	72.0878	5,097.66	73.6589	5,097.66	66.2491	5,097.66	63.1343	5,097.66	72.8453	5,097.66	78.3615
5,277.83	97.0988	5,277.83	91.6359	5,277.83	94.9311	5,277.83	87.8135	5,277.83	89.9117	5,277.83	91.8355	5,277.83	93.7432	5,277.83	92.5871	5,277.83	92.1908	5,277.83	91.7286	5,277.83	85.7495	5,277.83	90.1935	5,277.83	86.7863	5,277.83	86.8387	5,277.83	89.2478	5,277.83	82.0909	5,277.83	89.6237	5,277.83	81.9574	5,277.83	84.6543	5,277.83	77.5961	5,277.83	78.0415	5,277.83	75.6889	5,277.83	83.4103	5,277.83	74.623	5,277.83	79.62	5,277.83	72.5784	5,277.83	77.8187	5,277.83	71.2208	5,277.83	71.8789	5,277.83	74.3453	5,277.83	73.4737	5,277.83	72.6193	5,277.83	71.1797	5,277.83	59.5415	5,277.83	71.5293	5,277.83	75.363
5,463.87	96.9303	5,463.87	91.5754	5,463.87	94.5916	5,463.87	88.9712	5,463.87	90.9056	5,463.87	92.751	5,463.87	94.5512	5,463.87	92.7153	5,463.87	91.8543	5,463.87	91.5782	5,463.87	85.7844	5,463.87	89.1403	5,463.87	87.2904	5,463.87	86.8983	5,463.87	89.3298	5,463.87	84.539	5,463.87	88.4005	5,463.87	79.0037	5,463.87	84.7682	5,463.87	78.1749	5,463.87	78.0268	5,463.87	76.8939	5,463.87	83.9511	5,463.87	73.0158	5,463.87	78.4673	5,463.87	73.6989	5,463.87	77.6488	5,463.87	67.3067	5,463.87	75.8547	5,463.87	73.3611	5,463.87	73.956	5,463.87	67.4394	5,463.87	72.0248	5,463.87	56.5989	5,463.87	70.0007	5,463.87	73.6931
5,657.23	97.4721	5,657.23	91.2405	5,657.23	94.882	5,657.23	90.7684	5,657.23	91.6713	5,657.23	92.9747	5,657.23	95.0185	5,657.23	93.0992	5,657.23	91.9092	5,657.23	90.9781	5,657.23	85.0639	5,657.23	89.1216	5,657.23	88.251	5,657.23	84.6923	5,657.23	90.128	5,657.23	81.4621	5,657.23	86.1205	5,657.23	80.8095	5,657.23	83.216	5,657.23	78.19	5,657.23	78.3854	5,657.23	76.9338	5,657.23	82.3242	5,657.23	73.7062	5,657.23	74.1718	5,657.23	73.5981	5,657.23	75.6683	5,657.23	67.9926	5,657.23	76.2632	5,657.23	70.468	5,657.23	74.1569	5,657.23	68.9141	5,657.23	69.7749	5,657.23	57.229	5,657.23	71.6609	5,657.23	72.3667
5,856.45	97.356	5,856.45	91.2755	5,856.45	95.3784	5,856.45	91.8953	5,856.45	91.908	5,856.45	93.5542	5,856.45	95.6303	5,856.45	93.3414	5,856.45	92.0313	5,856.45	91.3354	5,856.45	85.1944	5,856.45	88.4539	5,856.45	88.9821	5,856.45	86.0832	5,856.45	90.5199	5,856.45	83.8706	5,856.45	86.2197	5,856.45	78.2617	5,856.45	83.0064	5,856.45	79.2948	5,856.45	78.2559	5,856.45	77.6287	5,856.45	83.6187	5,856.45	75.5818	5,856.45	74.8452	5,856.45	72.0515	5,856.45	67.055	5,856.45	70.2371	5,856.45	73.0564	5,856.45	70.9302	5,856.45	69.4454	5,856.45	68.7238	5,856.45	58.9728	5,856.45	50.6639	5,856.45	71.0867	5,856.45	73.6497
6,062.99	97.2128	6,062.99	91.6491	6,062.99	95.8181	6,062.99	92.9168	6,062.99	92.3398	6,062.99	93.9949	6,062.99	95.5552	6,062.99	93.7119	6,062.99	92.326	6,062.99	90.6617	6,062.99	85.9328	6,062.99	89.1169	6,062.99	88.4813	6,062.99	85.1925	6,062.99	89.5994	6,062.99	83.7359	6,062.99	87.2239	6,062.99	82.5332	6,062.99	86.7896	6,062.99	78.9002	6,062.99	76.703	6,062.99	77.8572	6,062.99	82.6477	6,062.99	75.8426	6,062.99	76.2066	6,062.99	74.3675	6,062.99	69.4358	6,062.99	72.9296	6,062.99	69.3662	6,062.99	71.5036	6,062.99	59.8887	6,062.99	70.7824	6,062.99	69.5409	6,062.99	55.6346	6,062.99	73.4344	6,062.99	69.9508
6,276.86	97.3319	6,276.86	92.3782	6,276.86	96.3168	6,276.86	93.5538	6,276.86	92.4989	6,276.86	94.8742	6,276.86	95.3022	6,276.86	93.7618	6,276.86	91.1629	6,276.86	91.2222	6,276.86	85.0828	6,276.86	89.0448	6,276.86	88.2437	6,276.86	86.6823	6,276.86	87.5247	6,276.86	84.069	6,276.86	87.6161	6,276.86	80.0378	6,276.86	86.0367	6,276.86	80.1357	6,276.86	75.5079	6,276.86	77.9918	6,276.86	81.6413	6,276.86	76.0646	6,276.86	76.3321	6,276.86	73.9945	6,276.86	66.3145	6,276.86	74.0282	6,276.86	74.0849	6,276.86	72.2562	6,276.86	64.7391	6,276.86	71.1562	6,276.86	69.9383	6,276.86	59.5081	6,276.86	74.0944	6,276.86	70.6626
6,498.05	97.349	6,498.05	93.2411	6,498.05	96.406	6,498.05	94.2767	6,498.05	92.9266	6,498.05	94.7446	6,498.05	95.4704	6,498.05	93.2103	6,498.05	92.3384	6,498.05	91.4358	6,498.05	84.5755	6,498.05	89.6543	6,498.05	87.0649	6,498.05	86.8835	6,498.05	87.8824	6,498.05	84.4553	6,498.05	87.7963	6,498.05	82.1163	6,498.05	83.6271	6,498.05	79.0094	6,498.05	69.9953	6,498.05	78.3855	6,498.05	79.9766	6,498.05	76.5573	6,498.05	76.4341	6,498.05	74.085	6,498.05	67.0306	6,498.05	73.7202	6,498.05	74.7457	6,498.05	73.5289	6,498.05	71.369	6,498.05	71.6976	6,498.05	67.9311	6,498.05	56.3346	6,498.05	72.3253	6,498.05	72.0656
6,726.56	97.1818	6,726.56	93.7589	6,726.56	96.728	6,726.56	94.5293	6,726.56	93.2718	6,726.56	94.6614	6,726.56	95.5847	6,726.56	93.0078	6,726.56	93.106	6,726.56	91.1918	6,726.56	84.431	6,726.56	89.4104	6,726.56	87.4639	6,726.56	87.4477	6,726.56	87.7953	6,726.56	82.7334	6,726.56	85.9933	6,726.56	81.4354	6,726.56	82.1376	6,726.56	78.6194	6,726.56	74.308	6,726.56	77.3397	6,726.56	74.1439	6,726.56	75.7213	6,726.56	75.8547	6,726.56	73.5	6,726.56	68.7148	6,726.56	71.9389	6,726.56	73.0971	6,726.56	74.1992	6,726.56	69.5703	6,726.56	70.5884	6,726.56	68.8922	6,726.56	60.2217	6,726.56	71.5667	6,726.56	69.3944
6,963.87	96.9557	6,963.87	94.0811	6,963.87	96.4139	6,963.87	94.8682	6,963.87	93.9888	6,963.87	94.5519	6,963.87	95.0134	6,963.87	92.572	6,963.87	93.9599	6,963.87	90.6837	6,963.87	86.4499	6,963.87	90.0036	6,963.87	86.6994	6,963.87	87.2911	6,963.87	88.6993	6,963.87	83.3923	6,963.87	82.0907	6,963.87	80.8458	6,963.87	81.2953	6,963.87	77.3749	6,963.87	72.5144	6,963.87	76.9639	6,963.87	67.9603	6,963.87	72.768	6,963.87	74.9238	6,963.87	73.458	6,963.87	69.4944	6,963.87	72.0292	6,963.87	63.1723	6,963.87	73.4223	6,963.87	68.0957	6,963.87	72.2236	6,963.87	64.2094	6,963.87	62.8606	6,963.87	69.798	6,963.87	67.1996
7,209.96	97.0369	7,209.96	94.3497	7,209.96	96.3035	7,209.96	95.1298	7,209.96	94.4641	7,209.96	94.4952	7,209.96	95.1373	7,209.96	92.0221	7,209.96	94.0199	7,209.96	91.192	7,209.96	89.5762	7,209.96	90.063	7,209.96	86.3862	7,209.96	86.4941	7,209.96	87.2509	7,209.96	84.1112	7,209.96	79.1168	7,209.96	81.1983	7,209.96	81.1829	7,209.96	77.5832	7,209.96	74.4424	7,209.96	76.4971	7,209.96	62.9111	7,209.96	73.188	7,209.96	75.1777	7,209.96	73.0411	7,209.96	72.5833	7,209.96	71.9574	7,209.96	68.0333	7,209.96	73.33	7,209.96	68.6136	7,209.96	72.5685	7,209.96	62.7231	7,209.96	60.3091	7,209.96	69.6682	7,209.96	64.0071
7,464.84	96.9891	7,464.84	94.7505	7,464.84	96.0827	7,464.84	95.5764	7,464.84	94.7236	7,464.84	93.8083	7,464.84	94.9364	7,464.84	91.5392	7,464.84	94.0007	7,464.84	91.1045	7,464.84	90.3717	7,464.84	89.8899	7,464.84	85.6388	7,464.84	86.7954	7,464.84	83.9867	7,464.84	84.1236	7,464.84	78.7881	7,464.84	80.267	7,464.84	80.5559	7,464.84	77.8208	7,464.84	72.6604	7,464.84	76.4975	7,464.84	68.1227	7,464.84	73.9947	7,464.84	74.9626	7,464.84	72.5984	7,464.84	70.0311	7,464.84	71.2394	7,464.84	65.6386	7,464.84	71.838	7,464.84	62.2983	7,464.84	70.3028	7,464.84	67.2454	7,464.84	60.6961	7,464.84	71.0159	7,464.84	66.9061
7,727.05	97.029	7,727.05	95.0309	7,727.05	95.78	7,727.05	95.8437	7,727.05	95.0183	7,727.05	93.2437	7,727.05	95.1346	7,727.05	91.8546	7,727.05	93.873	7,727.05	90.6155	7,727.05	90.117	7,727.05	89.821	7,727.05	84.7649	7,727.05	87.1668	7,727.05	85.7049	7,727.05	84.2884	7,727.05	84.7776	7,727.05	79.5245	7,727.05	80.6392	7,727.05	77.0775	7,727.05	74.9068	7,727.05	75.4308	7,727.05	74.609	7,727.05	73.2945	7,727.05	73.5139	7,727.05	70.7163	7,727.05	70.7089	7,727.05	70.5023	7,727.05	65.6373	7,727.05	70.5109	7,727.05	65.9819	7,727.05	68.3721	7,727.05	63.6763	7,727.05	54.8119	7,727.05	66.2072	7,727.05	64.1999
7,999.51	97.085	7,999.51	95.5402	7,999.51	95.9281	7,999.51	96.0026	7,999.51	94.9133	7,999.51	92.9674	7,999.51	95.3152	7,999.51	92.38	7,999.51	93.8689	7,999.51	90.1848	7,999.51	90.5729	7,999.51	90.2155	7,999.51	85.7426	7,999.51	85.6631	7,999.51	87.3501	7,999.51	82.841	7,999.51	86.8463	7,999.51	78.0276	7,999.51	84.034	7,999.51	77.413	7,999.51	77.8911	7,999.51	74.1313	7,999.51	75.8528	7,999.51	72.5867	7,999.51	67.8504	7,999.51	70.5742	7,999.51	65.9388	7,999.51	69.7456	7,999.51	54.5979	7,999.51	68.0431	7,999.51	65.9695	7,999.51	68.0796	7,999.51	60.0014	7,999.51	62.8516	7,999.51	66.7511	7,999.51	60.1226
8,282.23	96.7477	8,282.23	95.9115	8,282.23	96.4038	8,282.23	95.7631	8,282.23	95.0892	8,282.23	93.5161	8,282.23	95.1068	8,282.23	92.1291	8,282.23	93.9331	8,282.23	90.3686	8,282.23	91.6252	8,282.23	89.9326	8,282.23	86.2219	8,282.23	84.3563	8,282.23	88.9911	8,282.23	83.4471	8,282.23	86.3447	8,282.23	77.5923	8,282.23	80.9751	8,282.23	77.9786	8,282.23	79.2005	8,282.23	72.9429	8,282.23	72.8231	8,282.23	73.0338	8,282.23	64.981	8,282.23	71.8774	8,282.23	38.3821	8,282.23	68.1179	8,282.23	67.4444	8,282.23	68.7093	8,282.23	67.1071	8,282.23	69.9287	8,282.23	47.556	8,282.23	58.8685	8,282.23	68.3904	8,282.23	58.147
8,573.73	96.5854	8,573.73	96.2271	8,573.73	96.3885	8,573.73	95.8465	8,573.73	95.6246	8,573.73	93.808	8,573.73	95.1093	8,573.73	91.5635	8,573.73	93.6514	8,573.73	90.1617	8,573.73	91.6493	8,573.73	88.4099	8,573.73	86.7232	8,573.73	85.5386	8,573.73	88.76	8,573.73	82.1173	8,573.73	84.6677	8,573.73	75.2186	8,573.73	75.2361	8,573.73	75.6159	8,573.73	81.0898	8,573.73	68.5652	8,573.73	72.3421	8,573.73	69.725	8,573.73	73.3369	8,573.73	68.0694	8,573.73	69.5935	8,573.73	65.7885	8,573.73	70.8925	8,573.73	64.7267	8,573.73	60.8961	8,573.73	64.15	8,573.73	63.195	8,573.73	57.9764	8,573.73	65.9348	8,573.73	58.6972
8,876.95	96.6148	8,876.95	96.404	8,876.95	96.4175	8,876.95	96.0125	8,876.95	96.0991	8,876.95	93.3378	8,876.95	94.5141	8,876.95	91.6939	8,876.95	93.0775	8,876.95	89.4162	8,876.95	90.6852	8,876.95	87.5103	8,876.95	86.026	8,876.95	83.7195	8,876.95	86.6447	8,876.95	76.5718	8,876.95	79.7799	8,876.95	71.6556	8,876.95	76.302	8,876.95	70.8776	8,876.95	79.2133	8,876.95	66.8161	8,876.95	74.9208	8,876.95	67.1287	8,876.95	74.4673	8,876.95	59.3792	8,876.95	74.6099	8,876.95	65.604	8,876.95	65.708	8,876.95	62.073	8,876.95	70.0517	8,876.95	59.7303	8,876.95	61.9995	8,876.95	56.777	8,876.95	60.0411	8,876.95	59.3889
9,188.96	96.4867	9,188.96	96.4312	9,188.96	96.1518	9,188.96	95.7049	9,188.96	96.0058	9,188.96	93.4794	9,188.96	94.5597	9,188.96	92.0853	9,188.96	93.1446	9,188.96	88.9562	9,188.96	90.086	9,188.96	87.0768	9,188.96	85.4252	9,188.96	80.1758	9,188.96	81.1701	9,188.96	77.1676	9,188.96	81.0006	9,188.96	71.6579	9,188.96	79.5898	9,188.96	69.8702	9,188.96	73.0114	9,188.96	66.4899	9,188.96	77.9907	9,188.96	67.9658	9,188.96	69.2588	9,188.96	65.1421	9,188.96	73.333	9,188.96	66.2367	9,188.96	48.608	9,188.96	67.5326	9,188.96	63.0808	9,188.96	60.9474	9,188.96	61.1372	9,188.96	63.5911	9,188.96	61.9433	9,188.96	60.7686
9,514.16	96.4404	9,514.16	96.1793	9,514.16	95.9084	9,514.16	95.38	9,514.16	95.686	9,514.16	94.0717	9,514.16	94.0092	9,514.16	91.8288	9,514.16	92.6473	9,514.16	88.5675	9,514.16	91.0951	9,514.16	86.1545	9,514.16	85.6779	9,514.16	78.8342	9,514.16	80.7052	9,514.16	75.4764	9,514.16	83.7056	9,514.16	68.6247	9,514.16	78.8935	9,514.16	69.1536	9,514.16	72.3723	9,514.16	60.5639	9,514.16	78.7211	9,514.16	62.522	9,514.16	62.9413	9,514.16	64.3906	9,514.16	62.9254	9,514.16	66.5139	9,514.16	69.2084	9,514.16	66.554	9,514.16	66.1157	9,514.16	64.7881	9,514.16	66.8565	9,514.16	63.7713	9,514.16	62.5283	9,514.16	60.2565
9,849.61	96.6783	9,849.61	96.0211	9,849.61	95.936	9,849.61	95.1022	9,849.61	95.4664	9,849.61	93.5654	9,849.61	94.0173	9,849.61	90.848	9,849.61	91.3835	9,849.61	88.1179	9,849.61	90.901	9,849.61	83.9808	9,849.61	85.4255	9,849.61	75.5886	9,849.61	81.9699	9,849.61	67.694	9,849.61	84.9015	9,849.61	66.7777	9,849.61	76.8425	9,849.61	65.4092	9,849.61	70.9119	9,849.61	61.7928	9,849.61	73.8511	9,849.61	62.2548	9,849.61	65.898	9,849.61	61.4581	9,849.61	63.1723	9,849.61	64.1141	9,849.61	71.1049	9,849.61	68.1816	9,849.61	65.2884	9,849.61	66.9031	9,849.61	63.3078	9,849.61	65.0761	9,849.61	61.2981	9,849.61	62.183
10,196.8	96.5188	10,196.8	95.8243	10,196.8	96.0081	10,196.8	94.5998	10,196.8	95.5522	10,196.8	92.1862	10,196.8	93.7421	10,196.8	90.5419	10,196.8	91.2765	10,196.8	86.5897	10,196.8	90.2798	10,196.8	81.9789	10,196.8	84.449	10,196.8	68.9586	10,196.8	83.328	10,196.8	71.0517	10,196.8	83.9544	10,196.8	65.9298	10,196.8	75.5782	10,196.8	65.5269	10,196.8	68.1438	10,196.8	61.3522	10,196.8	75.2511	10,196.8	64.5	10,196.8	63.5763	10,196.8	55.8915	10,196.8	59.8101	10,196.8	63.0252	10,196.8	69.7561	10,196.8	70.4013	10,196.8	65.2472	10,196.8	66.3244	10,196.8	63.2242	10,196.8	66.4704	10,196.8	59.2536	10,196.8	61.4514
10,555.7	96.4873	10,555.7	95.9402	10,555.7	96.1584	10,555.7	94.0822	10,555.7	95.4468	10,555.7	91.7418	10,555.7	93.4533	10,555.7	89.5449	10,555.7	90.6387	10,555.7	84.35	10,555.7	88.7067	10,555.7	79.9919	10,555.7	82.4426	10,555.7	72.4097	10,555.7	81.5552	10,555.7	72.7893	10,555.7	83.3876	10,555.7	70.0902	10,555.7	77.3677	10,555.7	68.2201	10,555.7	59.7793	10,555.7	61.846	10,555.7	76.1942	10,555.7	64.5314	10,555.7	55.0498	10,555.7	53.8589	10,555.7	59.1083	10,555.7	61.7713	10,555.7	64.8405	10,555.7	68.6173	10,555.7	62.3509	10,555.7	65.837	10,555.7	58.5442	10,555.7	67.0778	10,555.7	60.2292	10,555.7	64.0028
10,927.7	96.4815	10,927.7	96.0409	10,927.7	96.1242	10,927.7	94.0237	10,927.7	95.2416	10,927.7	91.6881	10,927.7	93.2473	10,927.7	88.1915	10,927.7	90.2072	10,927.7	84.0738	10,927.7	86.4368	10,927.7	78.1134	10,927.7	79.3031	10,927.7	76.877	10,927.7	81.1371	10,927.7	73.477	10,927.7	82.6522	10,927.7	72.4646	10,927.7	73.0962	10,927.7	67.2201	10,927.7	68.2273	10,927.7	66.0781	10,927.7	76.9343	10,927.7	65.7543	10,927.7	56.6189	10,927.7	61.0018	10,927.7	63.9822	10,927.7	63.6789	10,927.7	65.7273	10,927.7	65.4874	10,927.7	62.8713	10,927.7	67.3335	10,927.7	62.2713	10,927.7	68.0225	10,927.7	61.5217	10,927.7	63.6127
11,313	96.4779	11,313	96.2326	11,313	96.089	11,313	94.3172	11,313	94.7945	11,313	91.3759	11,313	92.8413	11,313	87.8437	11,313	90.0193	11,313	82.8869	11,313	85.6018	11,313	79.749	11,313	80.8301	11,313	78.2489	11,313	78.6741	11,313	75.5444	11,313	80.364	11,313	72.5725	11,313	74.5418	11,313	66.979	11,313	72.4253	11,313	67.5243	11,313	73.894	11,313	66.4612	11,313	55.9135	11,313	61.5084	11,313	59.651	11,313	65.5531	11,313	66.816	11,313	63.8855	11,313	63.6332	11,313	68.5011	11,313	54.7845	11,313	66.8629	11,313	57.5445	11,313	59.1478
11,712.9	96.7044	11,712.9	96.5143	11,712.9	96.1488	11,712.9	94.4743	11,712.9	94.383	11,712.9	91.8166	11,712.9	92.7513	11,712.9	87.0666	11,712.9	89.88	11,712.9	82.9422	11,712.9	85.8246	11,712.9	81.3892	11,712.9	80.7291	11,712.9	79.0739	11,712.9	75.2951	11,712.9	76.3492	11,712.9	77.137	11,712.9	72.4435	11,712.9	74.7454	11,712.9	68.4532	11,712.9	74.2097	11,712.9	66.8227	11,712.9	71.6174	11,712.9	65.3656	11,712.9	59.1003	11,712.9	62.4728	11,712.9	59.9837	11,712.9	65.2076	11,712.9	69.3884	11,712.9	63.0607	11,712.9	64.5403	11,712.9	68.4767	11,712.9	60.9863	11,712.9	65.7433	11,712.9	56.9982	11,712.9	60.2944
12,126	96.9264	12,126	96.5825	12,126	96.2869	12,126	94.7853	12,126	94.1147	12,126	92.0208	12,126	92.3614	12,126	86.2909	12,126	89.5273	12,126	83.8381	12,126	85.5738	12,126	81.1469	12,126	79.5917	12,126	78.7544	12,126	74.4492	12,126	74.2692	12,126	75.0041	12,126	70.4748	12,126	73.2943	12,126	64.8752	12,126	72.4949	12,126	64.6456	12,126	68.501	12,126	64.5579	12,126	60.8833	12,126	60.6983	12,126	54.3345	12,126	63.2076	12,126	62.1595	12,126	61.7597	12,126	63.1368	12,126	67.8182	12,126	54.2979	12,126	65.7191	12,126	49.2051	12,126	61.207
12,553.7	97.1317	12,553.7	96.5989	12,553.7	96.2918	12,553.7	94.8161	12,553.7	93.8172	12,553.7	91.4807	12,553.7	91.4683	12,553.7	85.8656	12,553.7	88.568	12,553.7	83.1408	12,553.7	85.0825	12,553.7	80.3639	12,553.7	78.4892	12,553.7	76.5502	12,553.7	73.7522	12,553.7	72.4301	12,553.7	73.4667	12,553.7	68.3731	12,553.7	71.4318	12,553.7	62.6903	12,553.7	70.1045	12,553.7	63.3161	12,553.7	67.57	12,553.7	62.6043	12,553.7	57.5552	12,553.7	57.6709	12,553.7	44.6075	12,553.7	61.0697	12,553.7	61.9214	12,553.7	59.2957	12,553.7	55.9961	12,553.7	65.7397	12,553.7	62.098	12,553.7	62.8837	12,553.7	53.3817	12,553.7	62.9802
12,996.1	96.9777	12,996.1	96.4916	12,996.1	96.3222	12,996.1	94.439	12,996.1	93.6738	12,996.1	90.8374	12,996.1	90.8595	12,996.1	85.1779	12,996.1	88.4796	12,996.1	82.4983	12,996.1	84.575	12,996.1	79.1999	12,996.1	79.4231	12,996.1	73.8866	12,996.1	75.7136	12,996.1	69.9033	12,996.1	73.3066	12,996.1	65.7624	12,996.1	70.1735	12,996.1	59.2922	12,996.1	67.3327	12,996.1	61.0076	12,996.1	63.8168	12,996.1	59.9045	12,996.1	52.7132	12,996.1	57.2949	12,996.1	47.0407	12,996.1	56.9905	12,996.1	61.2767	12,996.1	55.0014	12,996.1	59.8301	12,996.1	64.2361	12,996.1	60.5868	12,996.1	61.0189	12,996.1	39.4461	12,996.1	63.8881
13,454.6	96.8791	13,454.6	96.3676	13,454.6	95.9698	13,454.6	93.8643	13,454.6	93.738	13,454.6	89.9375	13,454.6	90.7823	13,454.6	84.1478	13,454.6	88.0384	13,454.6	81.9841	13,454.6	83.9197	13,454.6	77.574	13,454.6	80.098	13,454.6	72.4757	13,454.6	73.9762	13,454.6	68.8422	13,454.6	66.7117	13,454.6	66.2466	13,454.6	68.4933	13,454.6	60.8795	13,454.6	66.4871	13,454.6	61.1156	13,454.6	61.7293	13,454.6	57.8817	13,454.6	43.3851	13,454.6	59.0905	13,454.6	48.3555	13,454.6	53.6296	13,454.6	55.0759	13,454.6	56.7789	13,454.6	60.9135	13,454.6	64.0308	13,454.6	61.8857	13,454.6	62.773	13,454.6	48.3609	13,454.6	63.1962
13,929.2	96.822	13,929.2	96.0443	13,929.2	95.8471	13,929.2	93.2843	13,929.2	93.8119	13,929.2	89.0864	13,929.2	90.8681	13,929.2	83.0142	13,929.2	87.2245	13,929.2	80.6335	13,929.2	81.9714	13,929.2	75.4765	13,929.2	79.328	13,929.2	72.8011	13,929.2	70.7916	13,929.2	67.5008	13,929.2	66.0313	13,929.2	66.3972	13,929.2	65.5864	13,929.2	61.0282	13,929.2	61.4188	13,929.2	60.0943	13,929.2	58.233	13,929.2	53.5994	13,929.2	54.6634	13,929.2	57.0461	13,929.2	36.6647	13,929.2	52.4619	13,929.2	59.33	13,929.2	58.9606	13,929.2	60.8979	13,929.2	62.1947	13,929.2	62.0914	13,929.2	62.8503	13,929.2	52.8759	13,929.2	62.1768
14,419.9	97.0998	14,419.9	96.2037	14,419.9	96.2091	14,419.9	93.0799	14,419.9	94.2706	14,419.9	88.6753	14,419.9	91.0025	14,419.9	81.7725	14,419.9	86.5168	14,419.9	78.9904	14,419.9	81.0461	14,419.9	73.7239	14,419.9	77.8426	14,419.9	73.4044	14,419.9	62.4163	14,419.9	67.7953	14,419.9	61.8409	14,419.9	66.8512	14,419.9	59.4771	14,419.9	60.388	14,419.9	58.0307	14,419.9	60.2018	14,419.9	55.6135	14,419.9	52.4545	14,419.9	51.2251	14,419.9	56.2638	14,419.9	50.1122	14,419.9	51.7428	14,419.9	54.6505	14,419.9	57.1955	14,419.9	59.9023	14,419.9	58.2695	14,419.9	62.0974	14,419.9	61.9533	14,419.9	54.7116	14,419.9	60.9689
14,928.2	97.6441	14,928.2	96.6641	14,928.2	96.7384	14,928.2	93.2206	14,928.2	94.5479	14,928.2	88.4517	14,928.2	90.894	14,928.2	80.3633	14,928.2	85.7923	14,928.2	78.273	14,928.2	78.183	14,928.2	74.3755	14,928.2	73.1244	14,928.2	74.0217	14,928.2	51.4774	14,928.2	67.844	14,928.2	50.9387	14,928.2	65.6297	14,928.2	55.0105	14,928.2	59.4382	14,928.2	60.7486	14,928.2	57.3601	14,928.2	49.4106	14,928.2	52.7366	14,928.2	54.3659	14,928.2	55.2261	14,928.2	46.1748	14,928.2	48.5705	14,928.2	46.0973	14,928.2	57.5937	14,928.2	56.5334	14,928.2	58.5862	14,928.2	59.3155	14,928.2	60.1129	14,928.2	56.0951	14,928.2	59.809
15,455.6	97.8488	15,455.6	96.7683	15,455.6	97.0671	15,455.6	93.037	15,455.6	94.4229	15,455.6	87.6266	15,455.6	90.2628	15,455.6	79.7072	15,455.6	84.5661	15,455.6	78.1424	15,455.6	74.0658	15,455.6	75.1367	15,455.6	65.1699	15,455.6	73.5508	15,455.6	60.8138	15,455.6	66.463	15,455.6	55.8305	15,455.6	63.5241	15,455.6	57.4602	15,455.6	57.7305	15,455.6	59.3307	15,455.6	54.3507	15,455.6	51.4262	15,455.6	49.852	15,455.6	48.3832	15,455.6	50.2511	15,455.6	49.4582	15,455.6	45.4918	15,455.6	44.6064	15,455.6	56.8229	15,455.6	55.6829	15,455.6	57.0746	15,455.6	57.637	15,455.6	57.3901	15,455.6	57.2617	15,455.6	58.2057
16,000.5	97.6605	16,000.5	96.5618	16,000.5	97.068	16,000.5	92.3271	16,000.5	94.1973	16,000.5	86.6103	16,000.5	89.281	16,000.5	79.7976	16,000.5	82.5325	16,000.5	78.7286	16,000.5	70.3633	16,000.5	75.8942	16,000.5	56.8774	16,000.5	73.012	16,000.5	66.9033	16,000.5	65.069	16,000.5	63.8957	16,000.5	61.5842	16,000.5	61.9669	16,000.5	55.6655	16,000.5	52.1478	16,000.5	52.0603	16,000.5	56.8234	16,000.5	50.1389	16,000.5	46.9771	16,000.5	44.1763	16,000.5	50.5885	16,000.5	46.0477	16,000.5	47.6765	16,000.5	57.6598	16,000.5	55.0344	16,000.5	56.1901	16,000.5	56.7146	16,000.5	55.8953	16,000.5	56.763	16,000.5	56.8744
16,564.5	97.2778	16,564.5	96.1649	16,564.5	96.7902	16,564.5	91.4927	16,564.5	93.9311	16,564.5	86.178	16,564.5	88.4528	16,564.5	80.3729	16,564.5	80.8396	16,564.5	79.3606	16,564.5	70.803	16,564.5	76.3504	16,564.5	62.8491	16,564.5	72.3029	16,564.5	68.0723	16,564.5	64.8627	16,564.5	64.6864	16,564.5	60.1	16,564.5	62.3223	16,564.5	56.027	16,564.5	33.0192	16,564.5	52.8397	16,564.5	59.4945	16,564.5	50.2876	16,564.5	51.8134	16,564.5	40.3646	16,564.5	52.8617	16,564.5	49.6545	16,564.5	52.46	16,564.5	58.2458	16,564.5	53.8173	16,564.5	56.3055	16,564.5	53.8804	16,564.5	54.9288	16,564.5	56.0259	16,564.5	56.9071
17,148.9	96.7382	17,148.9	95.5587	17,148.9	96.2089	17,148.9	90.8213	17,148.9	93.0325	17,148.9	86.0384	17,148.9	87.4714	17,148.9	80.2914	17,148.9	78.8455	17,148.9	79.3848	17,148.9	67.926	17,148.9	75.7997	17,148.9	62.0584	17,148.9	71.6292	17,148.9	69.0092	17,148.9	62.7387	17,148.9	63.6554	17,148.9	58.7262	17,148.9	59.0307	17,148.9	54.5968	17,148.9	41.4094	17,148.9	52.249	17,148.9	59.435	17,148.9	46.0894	17,148.9	53.5197	17,148.9	35.2591	17,148.9	56.5956	17,148.9	49.6669	17,148.9	56.4421	17,148.9	57.081	17,148.9	53.6535	17,148.9	55.9092	17,148.9	51.6399	17,148.9	52.8126	17,148.9	55.7257	17,148.9	56.035
17,752.4	96.2881	17,752.4	95.062	17,752.4	95.3447	17,752.4	90.2942	17,752.4	91.7351	17,752.4	85.5711	17,752.4	85.8541	17,752.4	79.7663	17,752.4	76.1949	17,752.4	78.9233	17,752.4	56.8454	17,752.4	75.0732	17,752.4	65.8931	17,752.4	69.1504	17,752.4	66.5058	17,752.4	61.8656	17,752.4	62.9483	17,752.4	54.6519	17,752.4	55.556	17,752.4	51.9076	17,752.4	49.6649	17,752.4	50.195	17,752.4	60.1492	17,752.4	41.3862	17,752.4	55.0737	17,752.4	43.5993	17,752.4	56.206	17,752.4	48.9061	17,752.4	57.6154	17,752.4	54.2594	17,752.4	53.4324	17,752.4	53.7217	17,752.4	51.7799	17,752.4	49.9427	17,752.4	54.9732	17,752.4	52.8011
18,379.4	95.7004	18,379.4	94.3624	18,379.4	94.5998	18,379.4	89.6425	18,379.4	90.5754	18,379.4	84.6559	18,379.4	83.6663	18,379.4	78.7281	18,379.4	71.8613	18,379.4	77.8629	18,379.4	66.7476	18,379.4	73.6329	18,379.4	69.859	18,379.4	66.5738	18,379.4	67.116	18,379.4	58.747	18,379.4	63.4574	18,379.4	49.7157	18,379.4	60.413	18,379.4	48.7887	18,379.4	52.8765	18,379.4	47.1528	18,379.4	57.0775	18,379.4	46.1357	18,379.4	52.2404	18,379.4	40.6962	18,379.4	53.1458	18,379.4	48.2647	18,379.4	53.918	18,379.4	48.686	18,379.4	51.5152	18,379.4	52.1287	18,379.4	49.0832	18,379.4	50.2047	18,379.4	54.1667	18,379.4	50.9137
19,026.9	94.7936	19,026.9	93.3028	19,026.9	93.7291	19,026.9	88.4737	19,026.9	89.3841	19,026.9	83.476	19,026.9	80.5677	19,026.9	77.6527	19,026.9	66.4327	19,026.9	76.5214	19,026.9	72.2034	19,026.9	71.9606	19,026.9	69.2654	19,026.9	63.6373	19,026.9	66.248	19,026.9	53.8418	19,026.9	62.0346	19,026.9	41.456	19,026.9	57.8434	19,026.9	41.2175	19,026.9	56.2691	19,026.9	37.5898	19,026.9	53.9105	19,026.9	46.1761	19,026.9	47.3908	19,026.9	17.8376	19,026.9	49.9242	19,026.9	45.8046	19,026.9	51.8444	19,026.9	42.9813	19,026.9	47.8949	19,026.9	46.0518	19,026.9	47.2125	19,026.9	49.5068	19,026.9	52.9556	19,026.9	46.4354
19,697.8	93.4318	19,697.8	91.8662	19,697.8	92.6049	19,697.8	87.1998	19,697.8	87.8333	19,697.8	81.7558	19,697.8	75.8407	19,697.8	75.9893	19,697.8	69.453	19,697.8	74.7905	19,697.8	73.2869	19,697.8	70.083	19,697.8	66.924	19,697.8	59.6549	19,697.8	64.8934	19,697.8	40.1448	19,697.8	58.7072	19,697.8	45.8583	19,697.8	50.5363	19,697.8	42.7881	19,697.8	59.6169	19,697.8	34.4184	19,697.8	57.655	19,697.8	45.39	19,697.8	40.3381	19,697.8	40.3556	19,697.8	42.0736	19,697.8	44.9411	19,697.8	46.5635	19,697.8	50.402	19,697.8	40.7941	19,697.8	42.8184	19,697.8	44.8889	19,697.8	49.4352	19,697.8	53.083	19,697.8	44.0627
19,999.5	92.7604	19,999.5	91.1104	19,999.5	91.9911	19,999.5	86.647	19,999.5	87.1135	19,999.5	80.9094	19,999.5	74.1235	19,999.5	75.1481	19,999.5	69.8378	19,999.5	74.0908	19,999.5	73.4744	19,999.5	69.2403	19,999.5	65.4739	19,999.5	58.9346	19,999.5	66.6162	19,999.5	50.7266	19,999.5	58.2591	19,999.5	49.6677	19,999.5	49.5016	19,999.5	43.8175	19,999.5	60.6047	19,999.5	36.1439	19,999.5	60.0394	19,999.5	45.0944	19,999.5	46.4372	19,999.5	46.1183	19,999.5	51.6	19,999.5	53.3762	19,999.5	47.455	19,999.5	57.132	19,999.5	51.839	19,999.5	50.9135	19,999.5	53.1787	19,999.5	55.0764	19,999.5	48.5578	19,999.5	32.0635
