"SPL Horizontal"																																																																							
"On-Axis"		"10°"		"-10°"		"20°"		"-20°"		"30°"		"-30°"		"40°"		"-40°"		"50°"		"-50°"		"60°"		"-60°"		"70°"		"-70°"		"80°"		"-80°"		"90°"		"-90°"		"100°"		"-100°"		"110°"		"-110°"		"120°"		"-120°"		"130°"		"-130°"		"140°"		"-140°"		"150°"		"-150°"		"160°"		"-160°"		"170°"		"-170°"		"180°"	
"Frequency [Hz]"	"Sound Pessure Level [dB]  / [2.83V 1m] "	"Frequency [Hz]"	"Sound Pessure Level [dB]  / [2.83V 1m] "	"Frequency [Hz]"	"Sound Pessure Level [dB]  / [2.83V 1m] "	"Frequency [Hz]"	"Sound Pessure Level [dB]  / [2.83V 1m] "	"Frequency [Hz]"	"Sound Pessure Level [dB]  / [2.83V 1m] "	"Frequency [Hz]"	"Sound Pessure Level [dB]  / [2.83V 1m] "	"Frequency [Hz]"	"Sound Pessure Level [dB]  / [2.83V 1m] "	"Frequency [Hz]"	"Sound Pessure Level [dB]  / [2.83V 1m] "	"Frequency [Hz]"	"Sound Pessure Level [dB]  / [2.83V 1m] "	"Frequency [Hz]"	"Sound Pessure Level [dB]  / [2.83V 1m] "	"Frequency [Hz]"	"Sound Pessure Level [dB]  / [2.83V 1m] "	"Frequency [Hz]"	"Sound Pessure Level [dB]  / [2.83V 1m] "	"Frequency [Hz]"	"Sound Pessure Level [dB]  / [2.83V 1m] "	"Frequency [Hz]"	"Sound Pessure Level [dB]  / [2.83V 1m] "	"Frequency [Hz]"	"Sound Pessure Level [dB]  / [2.83V 1m] "	"Frequency [Hz]"	"Sound Pessure Level [dB]  / [2.83V 1m] "	"Frequency [Hz]"	"Sound Pessure Level [dB]  / [2.83V 1m] "	"Frequency [Hz]"	"Sound Pessure Level [dB]  / [2.83V 1m] "	"Frequency [Hz]"	"Sound Pessure Level [dB]  / [2.83V 1m] "	"Frequency [Hz]"	"Sound Pessure Level [dB]  / [2.83V 1m] "	"Frequency [Hz]"	"Sound Pessure Level [dB]  / [2.83V 1m] "	"Frequency [Hz]"	"Sound Pessure Level [dB]  / [2.83V 1m] "	"Frequency [Hz]"	"Sound Pessure Level [dB]  / [2.83V 1m] "	"Frequency [Hz]"	"Sound Pessure Level [dB]  / [2.83V 1m] "	"Frequency [Hz]"	"Sound Pessure Level [dB]  / [2.83V 1m] "	"Frequency [Hz]"	"Sound Pessure Level [dB]  / [2.83V 1m] "	"Frequency [Hz]"	"Sound Pessure Level [dB]  / [2.83V 1m] "	"Frequency [Hz]"	"Sound Pessure Level [dB]  / [2.83V 1m] "	"Frequency [Hz]"	"Sound Pessure Level [dB]  / [2.83V 1m] "	"Frequency [Hz]"	"Sound Pessure Level [dB]  / [2.83V 1m] "	"Frequency [Hz]"	"Sound Pessure Level [dB]  / [2.83V 1m] "	"Frequency [Hz]"	"Sound Pessure Level [dB]  / [2.83V 1m] "	"Frequency [Hz]"	"Sound Pessure Level [dB]  / [2.83V 1m] "	"Frequency [Hz]"	"Sound Pessure Level [dB]  / [2.83V 1m] "	"Frequency [Hz]"	"Sound Pessure Level [dB]  / [2.83V 1m] "	"Frequency [Hz]"	"Sound Pessure Level [dB]  / [2.83V 1m] "
20.5078	44.0974	20.5078	44.111	20.5078	43.9107	20.5078	43.9315	20.5078	43.588	20.5078	43.5487	20.5078	43.1997	20.5078	42.9657	20.5078	42.8718	20.5078	42.22	20.5078	42.7881	20.5078	41.4354	20.5078	43.1221	20.5078	40.9013	20.5078	43.9123	20.5078	41.0354	20.5078	45.0287	20.5078	42.0192	20.5078	46.281	20.5078	43.5625	20.5078	47.52	20.5078	45.2551	20.5078	48.6592	20.5078	46.8516	20.5078	49.655	20.5078	48.2535	20.5078	50.487	20.5078	49.4315	20.5078	51.145	20.5078	50.3818	20.5078	51.6227	20.5078	51.1088	20.5078	51.9147	20.5078	51.6189	20.5078	52.0154	20.5078	51.9189
21.9727	52.4236	21.9727	52.4754	21.9727	52.5192	21.9727	52.6673	21.9727	52.7684	21.9727	52.9922	21.9727	53.1713	21.9727	53.4422	21.9727	53.718	21.9727	54.0062	21.9727	54.387	21.9727	54.6676	21.9727	55.1473	21.9727	55.4041	21.9727	55.9639	21.9727	56.1893	21.9727	56.8021	21.9727	56.9956	21.9727	57.6312	21.9727	57.7962	21.9727	58.4255	21.9727	58.5666	21.9727	59.1639	21.9727	59.2851	21.9727	59.8292	21.9727	59.933	21.9727	60.4072	21.9727	60.4946	21.9727	60.8865	21.9727	60.9569	21.9727	61.2576	21.9727	61.3096	21.9727	61.5131	21.9727	61.5451	21.9727	61.6477	21.9727	61.6586
23.4375	49.754	23.4375	49.7524	23.4375	49.5957	23.4375	49.6021	23.4375	49.2847	23.4375	49.3366	23.4375	48.8539	23.4375	49.0271	23.4375	48.3823	23.4375	48.8001	23.4375	48.0236	23.4375	48.8333	23.4375	48.0004	23.4375	49.2814	23.4375	48.495	23.4375	50.1614	23.4375	49.492	23.4375	51.3372	23.4375	50.7938	23.4375	52.6256	23.4375	52.183	23.4375	53.8858	23.4375	53.5165	23.4375	55.0348	23.4375	54.721	23.4375	56.0298	23.4375	55.7636	23.4375	56.8503	23.4375	56.6307	23.4375	57.4864	23.4375	57.3162	23.4375	57.9336	23.4375	57.817	23.4375	58.1901	23.4375	58.1307	23.4375	58.2555
24.9023	56.3855	24.9023	56.4352	24.9023	56.3337	24.9023	56.4851	24.9023	56.2911	24.9023	56.5503	24.9023	56.2821	24.9023	56.6562	24.9023	56.3422	24.9023	56.8347	24.9023	56.511	24.9023	57.1159	24.9023	56.8205	24.9023	57.5188	24.9023	57.2827	24.9023	58.043	24.9023	57.8827	24.9023	58.6674	24.9023	58.5834	24.9023	59.3558	24.9023	59.3363	24.9023	60.0663	24.9023	60.0933	24.9023	60.7583	24.9023	60.8135	24.9023	61.3973	24.9023	61.4645	24.9023	61.9558	24.9023	62.0224	24.9023	62.4127	24.9023	62.4696	24.9023	62.7528	24.9023	62.7938	24.9023	62.9655	24.9023	62.9868	24.9023	63.0443
26.3672	57.3467	26.3672	57.3423	26.3672	57.2875	26.3672	57.2793	26.3672	57.1716	26.3672	57.1756	26.3672	57.0191	26.3672	57.0635	26.3672	56.8657	26.3672	56.9906	26.3672	56.7638	26.3672	57.0161	26.3672	56.7768	26.3672	57.197	26.3672	56.9634	26.3672	57.567	26.3672	57.3537	26.3672	58.1194	26.3672	57.9335	26.3672	58.8087	26.3672	58.6496	26.3672	59.5686	26.3672	59.432	26.3672	60.3331	26.3672	60.2146	26.3672	61.0475	26.3672	60.9448	26.3672	61.6714	26.3672	61.5847	26.3672	62.1768	26.3672	62.1082	26.3672	62.5452	26.3672	62.4973	26.3672	62.7651	26.3672	62.7405	26.3672	62.8307
27.832	59.3627	27.832	59.3657	27.832	59.3185	27.832	59.3351	27.832	59.2378	27.832	59.2913	27.832	59.1383	27.832	59.267	27.832	59.0518	27.832	59.3058	27.832	59.0235	27.832	59.454	27.832	59.1056	27.832	59.7483	27.832	59.3436	27.832	60.2003	27.832	59.7584	27.832	60.7905	27.832	60.3354	27.832	61.4748	27.832	61.0297	27.832	62.1984	27.832	61.782	27.832	62.9092	27.832	62.5348	27.832	63.5638	27.832	63.2406	27.832	64.1295	27.832	63.8638	27.832	64.5823	27.832	64.3789	27.832	64.906	27.832	64.7684	27.832	65.0901	27.832	65.0207	27.832	65.1288
29.2969	61.7103	29.2969	61.731	29.2969	61.6749	29.2969	61.7428	29.2969	61.6295	29.2969	61.7622	29.2969	61.5899	29.2969	61.8145	29.2969	61.5823	29.2969	61.9311	29.2969	61.6408	29.2969	62.1427	29.2969	61.8009	29.2969	62.4706	29.2969	62.0898	29.2969	62.9185	29.2969	62.5158	29.2969	63.4694	29.2969	63.0636	29.2969	64.0901	29.2969	63.6984	29.2969	64.7394	29.2969	64.3757	29.2969	65.3765	29.2969	65.0509	29.2969	65.9654	29.2969	65.6851	29.2969	66.4771	29.2969	66.2473	29.2969	66.8894	29.2969	66.7139	29.2969	67.186	29.2969	67.0674	29.2969	67.356	29.2969	67.2963	29.2969	67.3933
30.7617	64.0715	30.7617	64.0738	30.7617	64.06	30.7617	64.0722	30.7617	64.0428	30.7617	64.0806	30.7617	64.0325	30.7617	64.1209	30.7617	64.0497	30.7617	64.2198	30.7617	64.121	30.7617	64.4038	30.7617	64.2744	30.7617	64.6921	30.7617	64.5319	30.7617	65.0896	30.7617	64.9023	30.7617	65.5836	30.7617	65.377	30.7617	66.1467	30.7617	65.931	30.7617	66.7429	30.7617	66.5288	30.7617	67.3346	30.7617	67.1325	30.7617	67.8874	30.7617	67.706	30.7617	68.3725	30.7617	68.2191	30.7617	68.7671	30.7617	68.6472	30.7617	69.0543	30.7617	68.9721	30.7617	69.2225	30.7617	69.1807	30.7617	69.2652
32.2266	66.4417	32.2266	66.4498	32.2266	66.4334	32.2266	66.4621	32.2266	66.4272	32.2266	66.4899	32.2266	66.4325	32.2266	66.55	32.2266	66.4645	32.2266	66.6625	32.2266	66.5431	32.2266	66.8469	32.2266	66.6889	32.2266	67.1167	32.2266	66.9186	32.2266	67.4751	32.2266	67.2398	32.2266	67.9124	32.2266	67.6479	32.2266	68.4072	32.2266	68.1253	32.2266	68.9309	32.2266	68.6453	32.2266	69.4517	32.2266	69.1768	32.2266	69.9397	32.2266	69.6888	32.2266	70.3684	32.2266	70.1532	32.2266	70.7163	32.2266	70.5463	32.2266	70.967	32.2266	70.8495	32.2266	71.1093	32.2266	71.0494	32.2266	71.1372
33.6914	68.603	33.6914	68.6114	33.6914	68.6027	33.6914	68.6318	33.6914	68.612	33.6914	68.6739	33.6914	68.638	33.6914	68.7513	33.6914	68.6928	33.6914	68.8797	33.6914	68.7915	33.6914	69.0737	33.6914	68.9497	33.6914	69.3427	33.6914	69.1797	33.6914	69.6877	33.6914	69.4867	33.6914	70.0994	33.6914	69.8666	33.6914	70.5595	33.6914	70.3053	33.6914	71.0433	33.6914	70.7807	33.6914	71.5234	33.6914	71.2667	33.6914	71.9733	33.6914	71.7361	33.6914	72.3689	33.6914	72.1635	33.6914	72.6902	33.6914	72.5269	33.6914	72.9218	33.6914	72.8085	33.6914	73.0529	33.6914	72.9949	33.6914	73.0776
35.1563	70.5899	35.1563	70.6106	35.1563	70.5822	35.1563	70.6472	35.1563	70.589	35.1563	70.7069	35.1563	70.6161	35.1563	70.7999	35.1563	70.6731	35.1563	70.9379	35.1563	70.772	35.1563	71.1314	35.1563	70.9249	35.1563	71.3871	35.1563	71.1414	35.1563	71.7054	35.1563	71.4253	35.1563	72.0787	35.1563	71.7731	35.1563	72.4924	35.1563	72.1732	35.1563	72.9261	35.1563	72.607	35.1563	73.3569	35.1563	73.0521	35.1563	73.7612	35.1563	73.4843	35.1563	74.1173	35.1563	73.8804	35.1563	74.4064	35.1563	74.2196	35.1563	74.6137	35.1563	74.4847	35.1563	74.7286	35.1563	74.6628	35.1563	74.7453
36.6211	72.4522	36.6211	72.4681	36.6211	72.4515	36.6211	72.5014	36.6211	72.4669	36.6211	72.558	36.6211	72.5032	36.6211	72.6457	36.6211	72.5676	36.6211	72.7739	36.6211	72.6693	36.6211	72.9509	36.6211	72.8175	36.6211	73.1822	36.6211	73.0195	36.6211	73.4684	36.6211	73.2784	36.6211	73.8035	36.6211	73.5912	36.6211	74.1757	36.6211	73.9488	36.6211	74.5679	36.6211	74.3362	36.6211	74.9599	36.6211	74.7343	36.6211	75.3305	36.6211	75.1222	36.6211	75.6593	36.6211	75.4787	36.6211	75.9285	36.6211	75.7846	36.6211	76.1236	36.6211	76.0236	36.6211	76.2342	36.6211	76.1829	36.6211	76.2543
38.0859	74.0631	38.0859	74.0742	38.0859	74.0673	38.0859	74.1027	38.0859	74.0877	38.0859	74.153	38.0859	74.128	38.0859	74.232	38.0859	74.1942	38.0859	74.3474	38.0859	74.2937	38.0859	74.5063	38.0859	74.434	38.0859	74.7137	38.0859	74.6208	38.0859	74.9705	38.0859	74.8568	38.0859	75.2722	38.0859	75.1398	38.0859	75.609	38.0859	75.4622	38.0859	75.9661	38.0859	75.8114	38.0859	76.3256	38.0859	76.1709	38.0859	76.668	38.0859	76.5218	38.0859	76.9742	38.0859	76.8451	38.0859	77.2271	38.0859	77.1226	38.0859	77.4123	38.0859	77.3389	38.0859	77.5196	38.0859	77.4818	38.0859	77.5432
39.5508	75.4962	39.5508	75.5078	39.5508	75.5011	39.5508	75.5373	39.5508	75.5232	39.5508	75.5887	39.5508	75.5654	39.5508	75.6675	39.5508	75.6327	39.5508	75.7798	39.5508	75.731	39.5508	75.9315	39.5508	75.8661	39.5508	76.1266	39.5508	76.0428	39.5508	76.3657	39.5508	76.263	39.5508	76.6449	39.5508	76.5247	39.5508	76.9557	39.5508	76.8215	39.5508	77.2852	39.5508	77.1423	39.5508	77.6171	39.5508	77.4728	39.5508	77.9338	39.5508	77.7963	39.5508	78.2176	39.5508	78.0951	39.5508	78.4523	39.5508	78.3526	39.5508	78.6243	39.5508	78.5539	39.5508	78.7238	39.5508	78.6874	39.5508	78.7452
41.0156	77.2	41.0156	77.2149	41.0156	77.2033	41.0156	77.2498	41.0156	77.2251	41.0156	77.308	41.0156	77.2671	41.0156	77.3938	41.0156	77.3329	41.0156	77.5119	41.0156	77.4267	41.0156	77.6664	41.0156	77.5528	41.0156	77.8594	41.0156	77.7149	41.0156	78.0898	41.0156	77.9143	41.0156	78.3532	41.0156	78.1497	41.0156	78.6412	41.0156	78.4158	41.0156	78.9417	41.0156	78.7039	41.0156	79.2404	41.0156	79.002	41.0156	79.5217	41.0156	79.2957	41.0156	79.7702	41.0156	79.57	41.0156	79.9719	41.0156	79.8095	41.0156	80.1152	41.0156	80.0009	41.0156	80.192	41.0156	80.133	41.0156	80.198
42.4805	78.3391	42.4805	78.3547	42.4805	78.3419	42.4805	78.3896	42.4805	78.3635	42.4805	78.4462	42.4805	78.4056	42.4805	78.5277	42.4805	78.4712	42.4805	78.6379	42.4805	78.5639	42.4805	78.78	42.4805	78.6871	42.4805	78.9558	42.4805	78.8436	42.4805	79.1648	42.4805	79.034	42.4805	79.4036	42.4805	79.2568	42.4805	79.6656	42.4805	79.5069	42.4805	79.9408	42.4805	79.7763	42.4805	80.2166	42.4805	80.0537	42.4805	80.4792	42.4805	80.3262	42.4805	80.7141	42.4805	80.5793	42.4805	80.9079	42.4805	80.799	42.4805	81.0489	42.4805	80.9724	42.4805	81.1288	42.4805	81.0893	42.4805	81.1425
43.9453	79.6232	43.9453	79.641	43.9453	79.6232	43.9453	79.6772	43.9453	79.6413	43.9453	79.7337	43.9453	79.679	43.9453	79.8129	43.9453	79.7383	43.9453	79.9174	43.9453	79.8222	43.9453	80.0494	43.9453	79.9334	43.9453	80.2101	43.9453	80.0739	43.9453	80.399	43.9453	80.2443	43.9453	80.6131	43.9453	80.4434	43.9453	80.8467	43.9453	80.667	43.9453	81.0914	43.9453	80.9082	43.9453	81.3366	43.9453	81.1577	43.9453	81.5701	43.9453	81.4037	43.9453	81.779	43.9453	81.6337	43.9453	81.9512	43.9453	81.8345	43.9453	82.0759	43.9453	81.9943	43.9453	82.1453	43.9453	82.1032	43.9453	82.1546
45.4102	80.8072	45.4102	80.8223	45.4102	80.81	45.4102	80.8559	45.4102	80.8309	45.4102	80.9094	45.4102	80.8709	45.4102	80.9847	45.4102	80.9318	45.4102	81.0839	45.4102	81.0155	45.4102	81.2086	45.4102	81.124	45.4102	81.3597	45.4102	81.2589	45.4102	81.5364	45.4102	81.4204	45.4102	81.7362	45.4102	81.6071	45.4102	81.9538	45.4102	81.8153	45.4102	82.1819	45.4102	82.0389	45.4102	82.4109	45.4102	82.2694	45.4102	82.6294	45.4102	82.4965	45.4102	82.8257	45.4102	82.7085	45.4102	82.9882	45.4102	82.8934	45.4102	83.1069	45.4102	83.0402	45.4102	83.174	45.4102	83.1395	45.4102	83.1852
46.875	82.0094	46.875	82.027	46.875	82.0097	46.875	82.063	46.875	82.0283	46.875	82.1184	46.875	82.0659	46.875	82.1944	46.875	82.1239	46.875	82.2924	46.875	82.2038	46.875	82.4135	46.875	82.3073	46.875	82.5581	46.875	82.4352	46.875	82.7251	46.875	82.5875	46.875	82.9119	46.875	82.7627	46.875	83.1138	46.875	82.9573	46.875	83.3242	46.875	83.1657	46.875	83.5345	46.875	83.3802	46.875	83.7346	46.875	83.5915	46.875	83.9138	46.875	83.7889	46.875	84.0618	46.875	83.9615	46.875	84.1692	46.875	84.099	46.875	84.2291	46.875	84.1929	46.875	84.2372
48.3398	83.091	48.3398	83.107	48.3398	83.0923	48.3398	83.1405	48.3398	83.1111	48.3398	83.1923	48.3398	83.148	48.3398	83.2633	48.3398	83.2042	48.3398	83.3543	48.3398	83.2805	48.3398	83.4661	48.3398	83.3782	48.3398	83.5989	48.3398	83.4978	48.3398	83.7516	48.3398	83.6389	48.3398	83.922	48.3398	83.8001	48.3398	84.106	48.3398	83.9782	48.3398	84.2977	48.3398	84.1683	48.3398	84.4897	48.3398	84.3636	48.3398	84.673	48.3398	84.5556	48.3398	84.8377	48.3398	84.735	48.3398	84.9744	48.3398	84.8916	48.3398	85.0742	48.3398	85.0162	48.3398	85.1307	48.3398	85.1007	48.3398	85.1398
51.2695	85.0832	51.2695	85.0986	51.2695	85.0839	51.2695	85.1302	51.2695	85.101	51.2695	85.1781	51.2695	85.1345	51.2695	85.2424	51.2695	85.185	51.2695	85.3233	51.2695	85.2526	51.2695	85.4206	51.2695	85.3376	51.2695	85.5339	51.2695	85.4398	51.2695	85.662	51.2695	85.5586	51.2695	85.803	51.2695	85.6925	51.2695	85.9537	51.2695	85.839	51.2695	86.1097	51.2695	85.9943	51.2695	86.2653	51.2695	86.1533	51.2695	86.4135	51.2695	86.3096	51.2695	86.5467	51.2695	86.4558	51.2695	86.6571	51.2695	86.5839	51.2695	86.7377	51.2695	86.6863	51.2695	86.7828	51.2695	86.7563	51.2695	86.7892
52.7344	85.9523	52.7344	85.9654	52.7344	85.9552	52.7344	85.9947	52.7344	85.9744	52.7344	86.0401	52.7344	86.0099	52.7344	86.1015	52.7344	86.0618	52.7344	86.1789	52.7344	86.1301	52.7344	86.2719	52.7344	86.2146	52.7344	86.38	52.7344	86.315	52.7344	86.5019	52.7344	86.4304	52.7344	86.6356	52.7344	86.559	52.7344	86.7784	52.7344	86.6986	52.7344	86.926	52.7344	86.8454	52.7344	87.0734	52.7344	86.9947	52.7344	87.214	52.7344	87.1407	52.7344	87.3409	52.7344	87.2764	52.7344	87.4468	52.7344	87.3946	52.7344	87.525	52.7344	87.4882	52.7344	87.5701	52.7344	87.5511	52.7344	87.5791
54.1992	86.8084	54.1992	86.8224	54.1992	86.8107	54.1992	86.8524	54.1992	86.8292	54.1992	86.8983	54.1992	86.8638	54.1992	86.9598	54.1992	86.9144	54.1992	87.0363	54.1992	86.9807	54.1992	87.127	54.1992	87.062	54.1992	87.231	54.1992	87.1576	54.1992	87.3467	54.1992	87.2663	54.1992	87.4722	54.1992	87.3864	54.1992	87.6045	54.1992	87.5156	54.1992	87.74	54.1992	87.6506	54.1992	87.874	54.1992	87.7872	54.1992	88.001	54.1992	87.9203	54.1992	88.1147	54.1992	88.0439	54.1992	88.2089	54.1992	88.1518	54.1992	88.2778	54.1992	88.2376	54.1992	88.3167	54.1992	88.2959	54.1992	88.3229
55.6641	87.6238	55.6641	87.6387	55.6641	87.6245	55.6641	87.6691	55.6641	87.641	55.6641	87.7146	55.6641	87.6729	55.6641	87.7744	55.6641	87.7201	55.6641	87.8478	55.6641	87.7818	55.6641	87.9337	55.6641	87.8573	55.6641	88.0308	55.6641	87.9456	55.6641	88.1376	55.6641	88.0454	55.6641	88.2521	55.6641	88.155	55.6641	88.3715	55.6641	88.2722	55.6641	88.4927	55.6641	88.394	55.6641	88.6116	55.6641	88.5169	55.6641	88.7235	55.6641	88.6365	55.6641	88.8232	55.6641	88.7475	55.6641	88.9053	55.6641	88.8445	55.6641	88.9646	55.6641	88.9221	55.6641	88.9974	55.6641	88.9754	55.6641	89.0011
58.5938	89.1053	58.5938	89.1184	58.5938	89.1066	58.5938	89.1454	58.5938	89.1222	58.5938	89.1859	58.5938	89.1517	58.5938	89.2388	58.5938	89.1945	58.5938	89.3029	58.5938	89.2497	58.5938	89.377	58.5938	89.316	58.5938	89.4594	58.5938	89.3921	58.5938	89.5485	58.5938	89.4766	58.5938	89.6424	58.5938	89.5676	58.5938	89.7389	58.5938	89.6632	58.5938	89.8356	58.5938	89.761	58.5938	89.9295	58.5938	89.8585	58.5938	90.0173	58.5938	89.9523	58.5938	90.0951	58.5938	90.0388	58.5938	90.1591	58.5938	90.114	58.5938	90.2054	58.5938	90.1739	58.5938	90.2311	58.5938	90.2149	58.5938	90.2343
60.0586	89.7571	60.0586	89.7688	60.0586	89.7595	60.0586	89.7944	60.0586	89.776	60.0586	89.8331	60.0586	89.806	60.0586	89.8838	60.0586	89.8488	60.0586	89.9452	60.0586	89.903	60.0586	90.0157	60.0586	89.9673	60.0586	90.0936	60.0586	90.0401	60.0586	90.1771	60.0586	90.1197	60.0586	90.2642	60.0586	90.2043	60.0586	90.3529	60.0586	90.292	60.0586	90.441	60.0586	90.3807	60.0586	90.5258	60.0586	90.468	60.0586	90.6045	60.0586	90.5514	60.0586	90.6739	60.0586	90.6277	60.0586	90.7308	60.0586	90.6937	60.0586	90.772	60.0586	90.7459	60.0586	90.795	60.0586	90.7815	60.0586	90.7982
62.9883	91.013	62.9883	91.0255	62.9883	91.0134	62.9883	91.0504	62.9883	91.0266	62.9883	91.0868	62.9883	91.0519	62.9883	91.1336	62.9883	91.0885	62.9883	91.189	62.9883	91.1348	62.9883	91.2512	62.9883	91.1893	62.9883	91.3183	62.9883	91.2503	62.9883	91.3883	62.9883	91.3161	62.9883	91.4592	62.9883	91.3848	62.9883	91.5293	62.9883	91.4547	62.9883	91.5969	62.9883	91.5243	62.9883	91.6602	62.9883	91.5919	62.9883	91.7175	62.9883	91.6557	62.9883	91.7667	62.9883	91.7138	62.9883	91.806	62.9883	91.764	62.9883	91.8334	62.9883	91.8043	62.9883	91.8474	62.9883	91.8325	62.9883	91.8471
64.4531	91.5569	64.4531	91.5688	64.4531	91.5578	64.4531	91.5933	64.4531	91.5715	64.4531	91.6292	64.4531	91.5973	64.4531	91.6752	64.4531	91.6341	64.4531	91.7296	64.4531	91.6804	64.4531	91.7903	64.4531	91.7345	64.4531	91.8553	64.4531	91.7944	64.4531	91.9226	64.4531	91.8582	64.4531	91.9901	64.4531	91.9241	64.4531	92.0561	64.4531	91.9903	64.4531	92.119	64.4531	92.0553	64.4531	92.1772	64.4531	92.1175	64.4531	92.2292	64.4531	92.1755	64.4531	92.2736	64.4531	92.2277	64.4531	92.3087	64.4531	92.2724	64.4531	92.3332	64.4531	92.3079	64.4531	92.3456	64.4531	92.3327	64.4531	92.3455
67.3828	92.5537	67.3828	92.5646	67.3828	92.5553	67.3828	92.5875	67.3828	92.5692	67.3828	92.6215	67.3828	92.5947	67.3828	92.6648	67.3828	92.6304	67.3828	92.7156	67.3828	92.6747	67.3828	92.7717	67.3828	92.7254	67.3828	92.8306	67.3828	92.7805	67.3828	92.8902	67.3828	92.8378	67.3828	92.9484	67.3828	92.8953	67.3828	93.0035	67.3828	92.9512	67.3828	93.0541	67.3828	93.0041	67.3828	93.0991	67.3828	93.0528	67.3828	93.1378	67.3828	93.0967	67.3828	93.1696	67.3828	93.1348	67.3828	93.1939	67.3828	93.1666	67.3828	93.2102	67.3828	93.1915	67.3828	93.2182	67.3828	93.2087	67.3828	93.2177
68.8477	93	68.8477	93.01	68.8477	93.0021	68.8477	93.0316	68.8477	93.0161	68.8477	93.0637	68.8477	93.0412	68.8477	93.1048	68.8477	93.0759	68.8477	93.1529	68.8477	93.1187	68.8477	93.2055	68.8477	93.1672	68.8477	93.2605	68.8477	93.2192	68.8477	93.3154	68.8477	93.2726	68.8477	93.3682	68.8477	93.3253	68.8477	93.4173	68.8477	93.3756	68.8477	93.4614	68.8477	93.422	68.8477	93.4997	68.8477	93.4638	68.8477	93.5319	68.8477	93.5003	68.8477	93.5576	68.8477	93.5313	68.8477	93.5769	68.8477	93.5564	68.8477	93.5897	68.8477	93.5757	68.8477	93.5959	68.8477	93.5888	68.8477	93.5956
71.7773	93.8391	71.7773	93.8464	71.7773	93.8428	71.7773	93.8644	71.7773	93.8573	71.7773	93.8919	71.7773	93.8817	71.7773	93.9274	71.7773	93.9146	71.7773	93.9687	71.7773	93.9541	71.7773	94.0136	71.7773	93.9979	71.7773	94.0596	71.7773	94.0436	71.7773	94.1045	71.7773	94.089	71.7773	94.1461	71.7773	94.1319	71.7773	94.1831	71.7773	94.1707	71.7773	94.2144	71.7773	94.2042	71.7773	94.2398	71.7773	94.2319	71.7773	94.2594	71.7773	94.2536	71.7773	94.2738	71.7773	94.27	71.7773	94.2839	71.7773	94.2815	71.7773	94.2904	71.7773	94.2891	71.7773	94.294	71.7773	94.2934	71.7773	94.295
74.707	94.6022	74.707	94.6096	74.707	94.6051	74.707	94.6269	74.707	94.6183	74.707	94.653	74.707	94.6407	74.707	94.6862	74.707	94.6709	74.707	94.7244	74.707	94.707	74.707	94.7652	74.707	94.7466	74.707	94.8061	74.707	94.7873	74.707	94.8446	74.707	94.8267	74.707	94.8788	74.707	94.8626	74.707	94.9071	74.707	94.8933	74.707	94.9289	74.707	94.9179	74.707	94.9441	74.707	94.9359	74.707	94.9533	74.707	94.9477	74.707	94.9578	74.707	94.9544	74.707	94.9591	74.707	94.9573	74.707	94.9587	74.707	94.9579	74.707	94.9579	74.707	94.9576	74.707	94.9575
77.6367	95.3075	77.6367	95.316	77.6367	95.3088	77.6367	95.3339	77.6367	95.3199	77.6367	95.3599	77.6367	95.3398	77.6367	95.3921	77.6367	95.3671	77.6367	95.4283	77.6367	95.3998	77.6367	95.4659	77.6367	95.4355	77.6367	95.5024	77.6367	95.4715	77.6367	95.5352	77.6367	95.5054	77.6367	95.5623	77.6367	95.5349	77.6367	95.5824	77.6367	95.5583	77.6367	95.5947	77.6367	95.5745	77.6367	95.5996	77.6367	95.5836	77.6367	95.5982	77.6367	95.5863	77.6367	95.5925	77.6367	95.584	77.6367	95.5845	77.6367	95.579	77.6367	95.5767	77.6367	95.5734	77.6367	95.5709	77.6367	95.5694	77.6367	95.5683
79.1016	95.5933	79.1016	95.602	79.1016	95.5939	79.1016	95.6192	79.1016	95.6035	79.1016	95.6438	79.1016	95.6213	79.1016	95.674	79.1016	95.6459	79.1016	95.7074	79.1016	95.6754	79.1016	95.7416	79.1016	95.7073	79.1016	95.7738	79.1016	95.7392	79.1016	95.8018	79.1016	95.7684	79.1016	95.8236	79.1016	95.7928	79.1016	95.8377	79.1016	95.8107	79.1016	95.8437	79.1016	95.8212	79.1016	95.8421	79.1016	95.8243	79.1016	95.8344	79.1016	95.8211	79.1016	95.8227	79.1016	95.8134	79.1016	95.8096	79.1016	95.8035	79.1016	95.7977	79.1016	95.7942	79.1016	95.7893	79.1016	95.7877	79.1016	95.7859
82.0313	96.0685	82.0313	96.0771	82.0313	96.0684	82.0313	96.0936	82.0313	96.0766	82.0313	96.1168	82.0313	96.0923	82.0313	96.1449	82.0313	96.114	82.0313	96.1756	82.0313	96.1398	82.0313	96.2064	82.0313	96.1672	82.0313	96.2346	82.0313	96.1938	82.0313	96.2576	82.0313	96.217	82.0313	96.2736	82.0313	96.2347	82.0313	96.2812	82.0313	96.2453	82.0313	96.28	82.0313	96.2481	82.0313	96.2706	82.0313	96.2434	82.0313	96.2548	82.0313	96.2326	82.0313	96.2352	82.0313	96.2179	82.0313	96.2148	82.0313	96.2022	82.0313	96.1969	82.0313	96.1887	82.0313	96.1841	82.0313	96.1801	82.0313	96.1783
84.9609	96.4273	84.9609	96.4348	84.9609	96.4285	84.9609	96.4504	84.9609	96.4382	84.9609	96.4731	84.9609	96.4556	84.9609	96.5009	84.9609	96.479	84.9609	96.5315	84.9609	96.5064	84.9609	96.5622	84.9609	96.5353	84.9609	96.5902	84.9609	96.563	84.9609	96.6129	84.9609	96.5869	84.9609	96.6281	84.9609	96.6047	84.9609	96.6345	84.9609	96.6147	84.9609	96.6317	84.9609	96.616	84.9609	96.6203	84.9609	96.6091	84.9609	96.6023	84.9609	96.5952	84.9609	96.5805	84.9609	96.5768	84.9609	96.5585	84.9609	96.5572	84.9609	96.5398	84.9609	96.5397	84.9609	96.5274	84.9609	96.5275	84.9609	96.5231
87.8906	96.8121	87.8906	96.8194	87.8906	96.812	87.8906	96.8333	87.8906	96.8189	87.8906	96.8527	87.8906	96.8323	87.8906	96.8758	87.8906	96.8507	87.8906	96.9005	87.8906	96.8723	87.8906	96.9243	87.8906	96.8948	87.8906	96.9446	87.8906	96.9156	87.8906	96.959	87.8906	96.9323	87.8906	96.9654	87.8906	96.9425	87.8906	96.9627	87.8906	96.9445	87.8906	96.9505	87.8906	96.9376	87.8906	96.9298	87.8906	96.9221	87.8906	96.9029	87.8906	96.8997	87.8906	96.873	87.8906	96.8731	87.8906	96.844	87.8906	96.8459	87.8906	96.82	87.8906	96.8223	87.8906	96.8045	87.8906	96.806	87.8906	96.7996
90.8203	97.1559	90.8203	97.1655	90.8203	97.1518	90.8203	97.18	90.8203	97.1531	90.8203	97.1981	90.8203	97.1592	90.8203	97.2182	90.8203	97.169	90.8203	97.2379	90.8203	97.1807	90.8203	97.255	90.8203	97.1922	90.8203	97.2668	90.8203	97.201	90.8203	97.2709	90.8203	97.205	90.8203	97.2655	90.8203	97.2019	90.8203	97.2495	90.8203	97.1905	90.8203	97.2229	90.8203	97.1703	90.8203	97.1871	90.8203	97.1421	90.8203	97.1449	90.8203	97.108	90.8203	97.1002	90.8203	97.0714	90.8203	97.0575	90.8203	97.0367	90.8203	97.0218	90.8203	97.0084	90.8203	96.9973	90.8203	96.9907	90.8203	96.9866
95.2148	97.4071	95.2148	97.415	95.2148	97.4048	95.2148	97.4279	95.2148	97.4077	95.2148	97.4449	95.2148	97.415	95.2148	97.4641	95.2148	97.4253	95.2148	97.4835	95.2148	97.4366	95.2148	97.5004	95.2148	97.4466	95.2148	97.5119	95.2148	97.4528	95.2148	97.5154	95.2148	97.453	95.2148	97.5087	95.2148	97.445	95.2148	97.4905	95.2148	97.4276	95.2148	97.4605	95.2148	97.4008	95.2148	97.4202	95.2148	97.3656	95.2148	97.3724	95.2148	97.3247	95.2148	97.3214	95.2148	97.2819	95.2148	97.2724	95.2148	97.2421	95.2148	97.2309	95.2148	97.2105	95.2148	97.2017	95.2148	97.1914	95.2148	97.1881
98.1445	97.4965	98.1445	97.5021	98.1445	97.4965	98.1445	97.5132	98.1445	97.5021	98.1445	97.5288	98.1445	97.5125	98.1445	97.5473	98.1445	97.5262	98.1445	97.5669	98.1445	97.5415	98.1445	97.5852	98.1445	97.5561	98.1445	97.5994	98.1445	97.5674	98.1445	97.607	98.1445	97.5731	98.1445	97.6057	98.1445	97.5708	98.1445	97.5939	98.1445	97.5592	98.1445	97.5712	98.1445	97.5378	98.1445	97.5386	98.1445	97.5075	98.1445	97.4984	98.1445	97.4707	98.1445	97.4545	98.1445	97.4312	98.1445	97.4117	98.1445	97.3936	98.1445	97.3754	98.1445	97.3629	98.1445	97.3501	98.1445	97.3438	98.1445	97.3391
101.074	97.6634	101.074	97.6632	101.074	97.6672	101.074	97.6665	101.074	97.6744	101.074	97.6726	101.074	97.6842	101.074	97.6801	101.074	97.6953	101.074	97.6874	101.074	97.7059	101.074	97.6924	101.074	97.7139	101.074	97.6926	101.074	97.717	101.074	97.6859	101.074	97.7127	101.074	97.6703	101.074	97.6991	101.074	97.6445	101.074	97.6748	101.074	97.6085	101.074	97.6396	101.074	97.5638	101.074	97.5947	101.074	97.5133	101.074	97.5427	101.074	97.4615	101.074	97.4878	101.074	97.4137	101.074	97.4354	101.074	97.3757	101.074	97.3912	101.074	97.3523	101.074	97.3604	101.074	97.3469
105.469	97.7896	105.469	97.7969	105.469	97.7854	105.469	97.8068	105.469	97.7846	105.469	97.8181	105.469	97.7868	105.469	97.8295	105.469	97.7914	105.469	97.8393	105.469	97.7971	105.469	97.8452	105.469	97.8019	105.469	97.845	105.469	97.8039	105.469	97.8366	105.469	97.8005	105.469	97.8182	105.469	97.7897	105.469	97.789	105.469	97.7696	105.469	97.7492	105.469	97.7397	105.469	97.7007	105.469	97.7004	105.469	97.6467	105.469	97.654	105.469	97.5922	105.469	97.6042	105.469	97.5425	105.469	97.556	105.469	97.5034	105.469	97.5147	105.469	97.4794	105.469	97.4859	105.469	97.4734
108.398	97.8544	108.398	97.8573	108.398	97.8533	108.398	97.8616	108.398	97.8541	108.398	97.8665	108.398	97.8567	108.398	97.8708	108.398	97.8601	108.398	97.873	108.398	97.8634	108.398	97.8713	108.398	97.8647	108.398	97.8635	108.398	97.862	108.398	97.8478	108.398	97.8532	108.398	97.8225	108.398	97.8359	108.398	97.7869	108.398	97.8087	108.398	97.7414	108.398	97.7709	108.398	97.6878	108.398	97.7233	108.398	97.6296	108.398	97.6682	108.398	97.5716	108.398	97.6098	108.398	97.5198	108.398	97.5533	108.398	97.4798	108.398	97.5048	108.398	97.4566	108.398	97.4699	108.398	97.4532
112.793	97.9469	112.793	97.9523	112.793	97.9419	112.793	97.9579	112.793	97.9376	112.793	97.963	112.793	97.9338	112.793	97.9667	112.793	97.9303	112.793	97.9678	112.793	97.9261	112.793	97.9646	112.793	97.9202	112.793	97.9555	112.793	97.911	112.793	97.9386	112.793	97.8967	112.793	97.9123	112.793	97.8755	112.793	97.8761	112.793	97.8462	112.793	97.83	112.793	97.8082	112.793	97.776	112.793	97.7624	112.793	97.7171	112.793	97.7109	112.793	97.658	112.793	97.6574	112.793	97.6043	112.793	97.607	112.793	97.5614	112.793	97.565	112.793	97.5343	112.793	97.5366	112.793	97.5258
117.188	97.9173	117.188	97.9196	117.188	97.9142	117.188	97.9209	117.188	97.9104	117.188	97.9209	117.188	97.9059	117.188	97.9188	117.188	97.9003	117.188	97.9138	117.188	97.8929	117.188	97.9046	117.188	97.8827	117.188	97.8895	117.188	97.8682	117.188	97.8669	117.188	97.848	117.188	97.8354	117.188	97.8203	117.188	97.7943	117.188	97.7841	117.188	97.7438	117.188	97.7389	117.188	97.6856	117.188	97.6859	117.188	97.6229	117.188	97.6275	117.188	97.5604	117.188	97.5677	117.188	97.5038	117.188	97.5119	117.188	97.4589	117.188	97.4656	117.188	97.4306	117.188	97.4344	117.188	97.4221
120.117	97.9854	120.117	97.9807	120.117	97.9868	120.117	97.9727	120.117	97.985	120.117	97.9613	120.117	97.9799	120.117	97.9465	120.117	97.9715	120.117	97.9277	120.117	97.9594	120.117	97.9044	120.117	97.9431	120.117	97.8755	120.117	97.9215	120.117	97.8402	120.117	97.8936	120.117	97.7976	120.117	97.8581	120.117	97.7475	120.117	97.8142	120.117	97.6905	120.117	97.7618	120.117	97.6287	120.117	97.7019	120.117	97.5654	120.117	97.6368	120.117	97.5052	120.117	97.5705	120.117	97.4533	120.117	97.5077	120.117	97.4149	120.117	97.4541	120.117	97.3945	120.117	97.415	120.117	97.3944
124.512	98.0023	124.512	98.0012	124.512	97.9999	124.512	97.9964	124.512	97.9943	124.512	97.9877	124.512	97.9855	124.512	97.9745	124.512	97.9735	124.512	97.9565	124.512	97.958	124.512	97.9327	124.512	97.9385	124.512	97.9022	124.512	97.9138	124.512	97.864	124.512	97.8829	124.512	97.8173	124.512	97.8443	124.512	97.762	124.512	97.7973	124.512	97.6992	124.512	97.7418	124.512	97.6311	124.512	97.679	124.512	97.5613	124.512	97.6114	124.512	97.4949	124.512	97.5429	124.512	97.4374	124.512	97.4789	124.512	97.3943	124.512	97.4249	124.512	97.37	124.512	97.3863	124.512	97.3673
128.906	97.8702	128.906	97.872	128.906	97.8641	128.906	97.8691	128.906	97.8541	128.906	97.8615	128.906	97.8406	128.906	97.8485	128.906	97.8238	128.906	97.8298	128.906	97.8037	128.906	97.8047	128.906	97.78	128.906	97.7722	128.906	97.7517	128.906	97.7314	128.906	97.7178	128.906	97.6817	128.906	97.677	128.906	97.6232	128.906	97.6284	128.906	97.5568	128.906	97.5719	128.906	97.4849	128.906	97.5084	128.906	97.4114	128.906	97.4405	128.906	97.3413	128.906	97.3721	128.906	97.2801	128.906	97.3085	128.906	97.2337	128.906	97.2553	128.906	97.2065	128.906	97.2182	128.906	97.2012
133.301	97.7209	133.301	97.7277	133.301	97.7086	133.301	97.7286	133.301	97.6913	133.301	97.7235	133.301	97.6694	133.301	97.7122	133.301	97.6437	133.301	97.6942	133.301	97.6145	133.301	97.6689	133.301	97.5819	133.301	97.6356	133.301	97.5456	133.301	97.5932	133.301	97.5049	133.301	97.5412	133.301	97.459	133.301	97.4796	133.301	97.4073	133.301	97.4094	133.301	97.3496	133.301	97.333	133.301	97.287	133.301	97.2544	133.301	97.2218	133.301	97.1787	133.301	97.1578	133.301	97.1116	133.301	97.0997	133.301	97.0588	133.301	97.053	133.301	97.0249	133.301	97.0227	133.301	97.0127
139.16	97.5214	139.16	97.5259	139.16	97.5091	139.16	97.5227	139.16	97.4892	139.16	97.5121	139.16	97.4622	139.16	97.4944	139.16	97.4288	139.16	97.4698	139.16	97.3898	139.16	97.4381	139.16	97.3459	139.16	97.399	139.16	97.2974	139.16	97.3516	139.16	97.2445	139.16	97.2954	139.16	97.1872	139.16	97.2304	139.16	97.1258	139.16	97.1576	139.16	97.0608	139.16	97.079	139.16	96.9937	139.16	96.9984	139.16	96.927	139.16	96.9205	139.16	96.8643	139.16	96.8509	139.16	96.8099	139.16	96.7948	139.16	96.7683	139.16	96.7568	139.16	96.7438	139.16	96.7395
143.555	97.4174	143.555	97.4152	143.555	97.4102	143.555	97.404	143.555	97.3934	143.555	97.3844	143.555	97.3676	143.555	97.3573	143.555	97.3332	143.555	97.3234	143.555	97.2909	143.555	97.283	143.555	97.2414	143.555	97.2359	143.555	97.1853	143.555	97.1819	143.555	97.123	143.555	97.1204	143.555	97.0549	143.555	97.0514	143.555	96.9819	143.555	96.9756	143.555	96.9054	143.555	96.8949	143.555	96.8276	143.555	96.8127	143.555	96.7517	143.555	96.7335	143.555	96.6817	143.555	96.6626	143.555	96.6223	143.555	96.6053	143.555	96.5778	143.555	96.5661	143.555	96.5522	143.555	96.548
147.949	97.3058	147.949	97.2989	147.949	97.3018	147.949	97.2815	147.949	97.2872	147.949	97.2542	147.949	97.2627	147.949	97.2182	147.949	97.2294	147.949	97.1746	147.949	97.1883	147.949	97.1244	147.949	97.1402	147.949	97.0683	147.949	97.0858	147.949	97.0066	147.949	97.0252	147.949	96.9396	147.949	96.9587	147.949	96.8679	147.949	96.8866	147.949	96.7924	147.949	96.81	147.949	96.7152	147.949	96.7309	147.949	96.6391	147.949	96.6524	147.949	96.568	147.949	96.5788	147.949	96.5065	147.949	96.5146	147.949	96.459	147.949	96.4644	147.949	96.4294	147.949	96.432	147.949	96.4201
153.809	97.1447	153.809	97.1406	153.809	97.1353	153.809	97.1234	153.809	97.1128	153.809	97.0938	153.809	97.0782	153.809	97.053	153.809	97.0329	153.809	97.0024	153.809	96.9786	153.809	96.943	153.809	96.917	153.809	96.876	153.809	96.8495	153.809	96.8023	153.809	96.7773	153.809	96.7228	153.809	96.7013	153.809	96.639	153.809	96.6223	153.809	96.5527	153.809	96.5416	153.809	96.4668	153.809	96.4609	153.809	96.3846	153.809	96.3831	153.809	96.3102	153.809	96.3114	153.809	96.2474	153.809	96.2499	153.809	96.1999	153.809	96.2024	153.809	96.1706	153.809	96.1721	153.809	96.1612
159.668	97.0005	159.668	96.996	159.668	96.99	159.668	96.9771	159.668	96.9646	159.668	96.945	159.668	96.9253	159.668	96.9012	159.668	96.8735	159.668	96.8474	159.668	96.811	159.668	96.7851	159.668	96.7397	159.668	96.7154	159.668	96.6613	159.668	96.639	159.668	96.5776	159.668	96.5566	159.668	96.49	159.668	96.4692	159.668	96.4001	159.668	96.3783	159.668	96.3099	159.668	96.2865	159.668	96.2219	159.668	96.1974	159.668	96.1394	159.668	96.1151	159.668	96.066	159.668	96.044	159.668	96.0057	159.668	95.9881	159.668	95.9619	159.668	95.9505	159.668	95.9372	159.668	95.9333
165.527	96.9583	165.527	96.9546	165.527	96.9457	165.527	96.9351	165.527	96.9172	165.527	96.9009	165.527	96.8739	165.527	96.8538	165.527	96.8175	165.527	96.7957	165.527	96.7502	165.527	96.7285	165.527	96.6742	165.527	96.6539	165.527	96.5915	165.527	96.5731	165.527	96.5039	165.527	96.4874	165.527	96.4131	165.527	96.398	165.527	96.3209	165.527	96.3066	165.527	96.2293	165.527	96.2155	165.527	96.1411	165.527	96.128	165.527	96.0594	165.527	96.0475	165.527	95.9879	165.527	95.9779	165.527	95.9302	165.527	95.9227	165.527	95.8894	165.527	95.8848	165.527	95.8676	165.527	95.8661
171.387	96.7638	171.387	96.7472	171.387	96.7622	171.387	96.7134	171.387	96.7426	171.387	96.6643	171.387	96.7061	171.387	96.6027	171.387	96.6547	171.387	96.5317	171.387	96.5911	171.387	96.4543	171.387	96.5181	171.387	96.3734	171.387	96.4383	171.387	96.2912	171.387	96.3541	171.387	96.2095	171.387	96.2678	171.387	96.13	171.387	96.1812	171.387	96.0541	171.387	96.0965	171.387	95.9834	171.387	96.0161	171.387	95.9196	171.387	95.9427	171.387	95.8646	171.387	95.879	171.387	95.8198	171.387	95.8275	171.387	95.7867	171.387	95.79	171.387	95.7663	171.387	95.7673	171.387	95.7595
177.246	96.6818	177.246	96.6644	177.246	96.6772	177.246	96.6252	177.246	96.6518	177.246	96.5657	177.246	96.6077	177.246	96.4886	177.246	96.548	177.246	96.3974	177.246	96.4761	177.246	96.296	177.246	96.3954	177.246	96.1886	177.246	96.309	177.246	96.0792	177.246	96.2193	177.246	95.9715	177.246	96.1283	177.246	95.8689	177.246	96.0373	177.246	95.7745	177.246	95.9479	177.246	95.6914	177.246	95.8617	177.246	95.6222	177.246	95.7809	177.246	95.5689	177.246	95.7075	177.246	95.5326	177.246	95.6435	177.246	95.5134	177.246	95.5907	177.246	95.5106	177.246	95.5503	177.246	95.5233
183.105	96.3809	183.105	96.3791	183.105	96.3588	183.105	96.3536	183.105	96.3144	183.105	96.3058	183.105	96.2504	183.105	96.2382	183.105	96.1708	183.105	96.1545	183.105	96.0804	183.105	96.0586	183.105	95.9841	183.105	95.9549	183.105	95.8865	183.105	95.8475	183.105	95.7913	183.105	95.7405	183.105	95.7013	183.105	95.6376	183.105	95.6181	183.105	95.5424	183.105	95.5425	183.105	95.4579	183.105	95.4749	183.105	95.3865	183.105	95.4153	183.105	95.3298	183.105	95.3642	183.105	95.2887	183.105	95.3218	183.105	95.2628	183.105	95.2886	183.105	95.2511	183.105	95.2652	183.105	95.2523
188.965	96.2446	188.965	96.2442	188.965	96.216	188.965	96.2151	188.965	96.1594	188.965	96.159	188.965	96.0771	188.965	96.0786	188.965	95.9728	188.965	95.9775	188.965	95.8514	188.965	95.8603	188.965	95.7184	188.965	95.7319	188.965	95.5801	188.965	95.5982	188.965	95.4427	188.965	95.4649	188.965	95.3123	188.965	95.338	188.965	95.1941	188.965	95.2227	188.965	95.0922	188.965	95.1231	188.965	95.0094	188.965	95.0418	188.965	94.9465	188.965	94.9789	188.965	94.9029	188.965	94.9328	188.965	94.8762	188.965	94.9008	188.965	94.8632	188.965	94.8795	188.965	94.8608	188.965	94.8665
196.289	96.257	196.289	96.2472	196.289	96.2373	196.289	96.209	196.289	96.1882	196.289	96.1444	196.289	96.1116	196.289	96.0565	196.289	96.0103	196.289	95.9488	196.289	95.8885	196.289	95.825	196.289	95.7513	196.289	95.689	196.289	95.604	196.289	95.5448	196.289	95.4526	196.289	95.3969	196.289	95.3028	196.289	95.2507	196.289	95.1601	196.289	95.1119	196.289	95.0296	196.289	94.9864	196.289	94.9156	196.289	94.879	196.289	94.8212	196.289	94.7927	196.289	94.7479	196.289	94.7281	196.289	94.6954	196.289	94.6834	196.289	94.6621	196.289	94.6561	196.289	94.6456	196.289	94.6438
203.613	96.0449	203.613	96.0269	203.613	96.0316	203.613	95.9786	203.613	95.9874	203.613	95.9027	203.613	95.9146	203.613	95.8031	203.613	95.8169	203.613	95.6848	203.613	95.6991	203.613	95.5534	203.613	95.5667	203.613	95.4145	203.613	95.4257	203.613	95.2737	203.613	95.2822	203.613	95.1364	203.613	95.1422	203.613	95.0076	203.613	95.0112	203.613	94.8919	203.613	94.8938	203.613	94.7931	203.613	94.794	203.613	94.7136	203.613	94.7138	203.613	94.654	203.613	94.6537	203.613	94.6128	203.613	94.6121	203.613	94.5871	203.613	94.5863	203.613	94.5732	203.613	94.5727	203.613	94.5688
210.938	95.9146	210.938	95.8995	210.938	95.8952	210.938	95.8505	210.938	95.8422	210.938	95.7701	210.938	95.7582	210.938	95.662	210.938	95.6475	210.938	95.5311	210.938	95.5154	210.938	95.3831	210.938	95.3681	210.938	95.2242	210.938	95.2124	210.938	95.061	210.938	95.0551	210.938	94.9007	210.938	94.903	210.938	94.7506	210.938	94.7623	210.938	94.6179	210.938	94.6387	210.938	94.5084	210.938	94.5362	210.938	94.4257	210.938	94.4571	210.938	94.37	210.938	94.4009	210.938	94.3378	210.938	94.3643	210.938	94.3233	210.938	94.3425	210.938	94.32	210.938	94.3301	210.938	94.323
218.262	95.7804	218.262	95.7625	218.262	95.7614	218.262	95.7085	218.262	95.7065	218.262	95.6213	218.262	95.6184	218.262	95.505	218.262	95.5016	218.262	95.3652	218.262	95.3619	218.262	95.2083	218.262	95.2062	218.262	95.0415	218.262	95.042	218.262	94.8723	218.262	94.8766	218.262	94.7081	218.262	94.7175	218.262	94.5565	218.262	94.5711	218.262	94.424	218.262	94.4433	218.262	94.3158	218.262	94.338	218.262	94.2346	218.262	94.2572	218.262	94.1798	218.262	94.2002	218.262	94.1476	218.262	94.1639	218.262	94.1321	218.262	94.1432	218.262	94.1271	218.262	94.1327	218.262	94.1278
225.586	95.6805	225.586	95.6773	225.586	95.644	225.586	95.6348	225.586	95.5696	225.586	95.5553	225.586	95.4609	225.586	95.4428	225.586	95.3236	225.586	95.3028	225.586	95.165	225.586	95.1423	225.586	94.9938	225.586	94.9691	225.586	94.8195	225.586	94.7921	225.586	94.6519	225.586	94.6208	225.586	94.4997	225.586	94.4645	225.586	94.3704	225.586	94.3321	225.586	94.2689	225.586	94.2297	225.586	94.197	225.586	94.1602	225.586	94.153	225.586	94.1217	225.586	94.1317	225.586	94.1081	225.586	94.1259	225.586	94.1103	225.586	94.1274	225.586	94.1189	225.586	94.1291	225.586	94.1264
232.91	95.6219	232.91	95.6246	232.91	95.573	232.91	95.5824	232.91	95.4784	232.91	95.4985	232.91	95.3411	232.91	95.3775	232.91	95.1664	232.91	95.2252	232.91	94.9616	232.91	95.0484	232.91	94.7364	232.91	94.8553	232.91	94.5026	232.91	94.6548	232.91	94.2733	232.91	94.4572	232.91	94.0625	232.91	94.2736	232.91	93.8837	232.91	94.1148	232.91	93.7476	232.91	93.9892	232.91	93.6601	232.91	93.9006	232.91	93.6206	232.91	93.8466	232.91	93.6217	232.91	93.8186	232.91	93.6508	232.91	93.8042	232.91	93.6933	232.91	93.7909	232.91	93.7358	232.91	93.7693
241.699	95.5159	241.699	95.4903	241.699	95.4946	241.699	95.4202	241.699	95.4257	241.699	95.3102	241.699	95.3109	241.699	95.1662	241.699	95.1538	241.699	94.9954	241.699	94.9605	241.699	94.8058	241.699	94.7392	241.699	94.6061	241.699	94.5001	241.699	94.4051	241.699	94.2554	241.699	94.2117	241.699	94.019	241.699	94.0345	241.699	93.8052	241.699	93.8819	241.699	93.6279	241.699	93.7598	241.699	93.4975	241.699	93.6709	241.699	93.4185	241.699	93.6128	241.699	93.3881	241.699	93.5779	241.699	93.396	241.699	93.5553	241.699	93.4278	241.699	93.5337	241.699	93.4681	241.699	93.5052
250.488	95.3736	250.488	95.349	250.488	95.3426	250.488	95.2705	250.488	95.2564	250.488	95.1414	250.488	95.1175	250.488	94.9671	250.488	94.9306	250.488	94.7549	250.488	94.7032	250.488	94.5141	250.488	94.4454	250.488	94.256	250.488	94.1703	250.488	93.9941	250.488	93.8937	250.488	93.7434	250.488	93.633	250.488	93.5199	250.488	93.4052	250.488	93.3377	250.488	93.2247	250.488	93.2068	250.488	93.1002	250.488	93.1294	250.488	93.0324	250.488	93.0988	250.488	93.0142	250.488	93.1002	250.488	93.0314	250.488	93.1152	250.488	93.0661	250.488	93.1267	250.488	93.101	250.488	93.123
259.277	95.6491	259.277	95.6234	259.277	95.6234	259.277	95.5479	259.277	95.5458	259.277	95.4257	259.277	95.417	259.277	95.261	259.277	95.2389	259.277	95.0595	259.277	95.0151	259.277	94.8281	259.277	94.7515	259.277	94.5753	259.277	94.457	259.277	94.3115	259.277	94.1448	259.277	94.0486	259.277	93.8327	259.277	93.8	259.277	93.5425	259.277	93.5797	259.277	93.2965	259.277	93.3995	259.277	93.1131	259.277	93.2661	259.277	93.0004	259.277	93.1791	259.277	92.9539	259.277	93.13	259.277	92.9576	259.277	93.1043	259.277	92.9896	259.277	93.0862	259.277	93.0293	259.277	93.063
268.066	95.2773	268.066	95.2375	268.066	95.2622	268.066	95.1451	268.066	95.1921	268.066	95.0041	268.066	95.0687	268.066	94.821	268.066	94.8955	268.066	94.6042	268.066	94.6783	268.066	94.3642	268.066	94.4246	268.066	94.1134	268.066	94.1448	268.066	93.8657	268.066	93.8529	268.066	93.6356	268.066	93.566	268.066	93.4367	268.066	93.3047	268.066	93.28	268.066	93.0902	268.066	93.1712	268.066	92.9397	268.066	93.1091	268.066	92.861	268.066	93.0852	268.066	92.8489	268.066	93.0849	268.066	92.8862	268.066	93.0908	268.066	92.9488	268.066	93.0867	268.066	93.0131	268.066	93.0616
276.855	95.3798	276.855	95.3292	276.855	95.3723	276.855	95.22	276.855	95.3083	276.855	95.0532	276.855	95.1898	276.855	94.832	276.855	95.0198	276.855	94.5626	276.855	94.8021	276.855	94.2548	276.855	94.5427	276.855	93.9225	276.855	94.2503	276.855	93.5843	276.855	93.9372	276.855	93.2623	276.855	93.6189	276.855	92.9802	276.855	93.3138	276.855	92.7587	276.855	93.0412	276.855	92.6096	276.855	92.8187	276.855	92.5315	276.855	92.6585	276.855	92.5101	276.855	92.5635	276.855	92.5229	276.855	92.5255	276.855	92.5461	276.855	92.5265	276.855	92.5617	276.855	92.5448	276.855	92.5606
287.109	95.6194	287.109	95.6318	287.109	95.5471	287.109	95.583	287.109	95.4176	287.109	95.4736	287.109	95.2358	287.109	95.3053	287.109	95.0075	287.109	95.0812	287.109	94.7388	287.109	94.8058	287.109	94.4368	287.109	94.4869	287.109	94.1099	287.109	94.1369	287.109	93.7709	287.109	93.7749	287.109	93.4387	287.109	93.4267	287.109	93.1383	287.109	93.1223	287.109	92.8955	287.109	92.889	287.109	92.7292	287.109	92.7419	287.109	92.6437	287.109	92.6781	287.109	92.6267	287.109	92.6764	287.109	92.6542	287.109	92.7062	287.109	92.6986	287.109	92.7378	287.109	92.7359	287.109	92.7505
297.363	95.4662	297.363	95.4332	297.363	95.4314	297.363	95.3375	297.363	95.3262	297.363	95.1865	297.363	95.1509	297.363	94.9884	297.363	94.9092	297.363	94.7521	297.363	94.6082	297.363	94.4864	297.363	94.2581	297.363	94.201	297.363	93.8733	297.363	93.9066	297.363	93.4734	297.363	93.6171	297.363	93.0849	297.363	93.3499	297.363	92.7408	297.363	93.1248	297.363	92.4764	297.363	92.9593	297.363	92.3195	297.363	92.8624	297.363	92.2784	297.363	92.8281	297.363	92.3368	297.363	92.8358	297.363	92.4588	297.363	92.8551	297.363	92.6019	297.363	92.856	297.363	92.7292	297.363	92.8166
307.617	95.5965	307.617	95.5458	307.617	95.5853	307.617	95.4337	307.617	95.5127	307.617	95.262	307.617	95.3798	307.617	95.0348	307.617	95.1887	307.617	94.7594	307.617	94.9425	307.617	94.4469	307.617	94.6463	307.617	94.1126	307.617	94.3075	307.617	93.7761	307.617	93.9369	307.617	93.46	307.617	93.5506	307.617	93.1874	307.617	93.1716	307.617	92.9771	307.617	92.831	307.617	92.8384	307.617	92.5634	307.617	92.7677	307.617	92.3975	307.617	92.7489	307.617	92.3432	307.617	92.7571	307.617	92.3841	307.617	92.7647	307.617	92.4832	307.617	92.7477	307.617	92.5974	307.617	92.6918
319.336	95.3161	319.336	95.2953	319.336	95.2741	319.336	95.2104	319.336	95.1713	319.336	95.061	319.336	95.0106	319.336	94.8483	319.336	94.7957	319.336	94.5754	319.336	94.531	319.336	94.2489	319.336	94.2231	319.336	93.8807	319.336	93.8821	319.336	93.4903	319.336	93.5229	319.336	93.1057	319.336	93.1669	319.336	92.7621	319.336	92.8409	319.336	92.4956	319.336	92.5733	319.336	92.3316	319.336	92.3878	319.336	92.2741	319.336	92.2948	319.336	92.3021	319.336	92.2865	319.336	92.3778	319.336	92.3387	319.336	92.4598	319.336	92.4174	319.336	92.5152	319.336	92.4885	319.336	92.5255
329.59	95.4025	329.59	95.3768	329.59	95.3614	329.59	95.2846	329.59	95.2539	329.59	95.1267	329.59	95.0811	329.59	94.9044	329.59	94.8454	329.59	94.6196	329.59	94.5501	329.59	94.2766	329.59	94.2009	329.59	93.8842	329.59	93.8078	329.59	93.4597	329.59	93.3871	329.59	93.0317	329.59	92.9644	329.59	92.6406	329.59	92.5749	329.59	92.3313	329.59	92.2588	329.59	92.1386	329.59	92.0504	329.59	92.0706	329.59	91.9639	329.59	92.1035	329.59	91.9858	329.59	92.1918	329.59	92.0791	329.59	92.286	329.59	92.1973	329.59	92.3471	329.59	92.2983	329.59	92.3526
341.309	95.3764	341.309	95.3509	341.309	95.3353	341.309	95.2612	341.309	95.2273	341.309	95.1114	341.309	95.0553	341.309	94.9057	341.309	94.8247	341.309	94.6481	341.309	94.5429	341.309	94.3419	341.309	94.2188	341.309	93.9918	341.309	93.8629	341.309	93.607	341.309	93.4885	341.309	93.2062	341.309	93.1137	341.309	92.8207	341.309	92.7642	341.309	92.4931	341.309	92.4725	341.309	92.2664	341.309	92.271	341.309	92.1657	341.309	92.1795	341.309	92.1826	341.309	92.1927	341.309	92.2769	341.309	92.2787	341.309	92.3938	341.309	92.39	341.309	92.4839	341.309	92.48	341.309	92.5158
353.027	95.2954	353.027	95.2557	353.027	95.2505	353.027	95.1351	353.027	95.119	353.027	94.9389	353.027	94.9006	353.027	94.6739	353.027	94.5968	353.027	94.3493	353.027	94.2126	353.027	93.976	353.027	93.7584	353.027	93.5673	353.027	93.2524	353.027	93.1403	353.027	92.7244	353.027	92.7179	353.027	92.2165	353.027	92.3309	353.027	91.7809	353.027	92.0167	353.027	91.4684	353.027	91.8106	353.027	91.3116	353.027	91.7292	353.027	91.3104	353.027	91.7588	353.027	91.4305	353.027	91.8562	353.027	91.6163	353.027	91.9661	353.027	91.8091	353.027	92.0384	353.027	91.9607	353.027	92.0404
366.211	95.4697	366.211	95.3877	366.211	95.4703	366.211	95.227	366.211	95.3881	366.211	94.9921	366.211	95.2228	366.211	94.6888	366.211	94.9746	366.211	94.3249	366.211	94.6443	366.211	93.9102	366.211	94.2331	366.211	93.4583	366.211	93.7445	366.211	92.9886	366.211	93.1881	366.211	92.5285	366.211	92.587	366.211	92.1142	366.211	91.9859	366.211	91.7855	366.211	91.4543	366.211	91.5737	366.211	91.0732	366.211	91.4863	366.211	90.8981	366.211	91.5005	366.211	90.9245	366.211	91.5698	366.211	91.088	366.211	91.6405	366.211	91.3022	366.211	91.6673	366.211	91.4945	366.211	91.6214
379.395	95.8558	379.395	95.8062	379.395	95.8328	379.395	95.6832	379.395	95.7373	379.395	95.4851	379.395	95.5683	379.395	95.2104	379.395	95.3243	379.395	94.8584	379.395	95.0041	379.395	94.4313	379.395	94.6088	379.395	93.9368	379.395	94.1434	379.395	93.3919	379.395	93.6207	379.395	92.8265	379.395	93.0643	379.395	92.2868	379.395	92.512	379.395	91.8311	379.395	92.0152	379.395	91.5156	379.395	91.6309	379.395	91.3692	379.395	91.4022	379.395	91.3757	379.395	91.3367	379.395	91.478	379.395	91.3988	379.395	91.6043	379.395	91.5239	379.395	91.6931	379.395	91.6441	379.395	91.7085
392.578	95.4489	392.578	95.4142	392.578	95.4141	392.578	95.3104	392.578	95.3097	392.578	95.1385	392.578	95.1366	392.578	94.8985	392.578	94.8957	392.578	94.5903	392.578	94.5883	392.578	94.2147	392.578	94.2155	392.578	93.7768	392.578	93.7803	392.578	93.2911	392.578	93.2909	392.578	92.7866	392.578	92.7661	392.578	92.3095	392.578	92.2432	392.578	91.9171	392.578	91.7807	392.578	91.6604	392.578	91.4474	392.578	91.561	392.578	91.2932	392.578	91.5976	392.578	91.3175	392.578	91.7136	392.578	91.466	392.578	91.8409	392.578	91.6595	392.578	91.9214	392.578	91.8263	392.578	91.9197
405.762	95.3156	405.762	95.2665	405.762	95.2799	405.762	95.1353	405.762	95.1592	405.762	94.9271	405.762	94.9556	405.762	94.6489	405.762	94.6719	405.762	94.3076	405.762	94.3115	405.762	93.9099	405.762	93.8788	405.762	93.463	405.762	93.3824	405.762	92.9794	405.762	92.8401	405.762	92.4832	405.762	92.2843	405.762	92.016	405.762	91.7652	405.762	91.6346	405.762	91.3458	405.762	91.3931	405.762	91.0844	405.762	91.3148	405.762	91.0089	405.762	91.375	405.762	91.098	405.762	91.513	405.762	91.2885	405.762	91.6584	405.762	91.5028	405.762	91.7537	405.762	91.6747	405.762	91.763
420.41	95.5136	420.41	95.419	420.41	95.5186	420.41	95.237	420.41	95.4333	420.41	94.9714	420.41	95.2577	420.41	94.6278	420.41	94.9927	420.41	94.2137	420.41	94.6378	420.41	93.7394	420.41	94.1918	420.41	93.2191	420.41	93.6525	420.41	92.6741	420.41	93.0218	420.41	92.1373	420.41	92.3153	420.41	91.6569	420.41	91.5776	420.41	91.2921	420.41	90.8963	420.41	91.0934	420.41	90.3957	420.41	91.0716	420.41	90.1826	420.41	91.1832	420.41	90.2696	420.41	91.3481	420.41	90.5613	420.41	91.4841	420.41	90.9213	420.41	91.5292	420.41	91.2388	420.41	91.4496
435.059	95.183	435.059	95.0878	435.059	95.1992	435.059	94.9135	435.059	95.1367	435.059	94.66	435.059	94.9961	435.059	94.3265	435.059	94.7782	435.059	93.9128	435.059	94.4835	435.059	93.4218	435.059	94.112	435.059	92.8653	435.059	93.6644	435.059	92.2722	435.059	93.1445	435.059	91.6954	435.059	92.5665	435.059	91.2108	435.059	91.9644	435.059	90.8972	435.059	91.4014	435.059	90.7982	435.059	90.9658	435.059	90.8937	435.059	90.738	435.059	91.1089	435.059	90.7421	435.059	91.3508	435.059	90.9243	435.059	91.5405	435.059	91.1853	435.059	91.6269	435.059	91.4289	435.059	91.5877
451.172	95.6678	451.172	95.6397	451.172	95.6003	451.172	95.5122	451.172	95.4421	451.172	95.2825	451.172	95.1995	451.172	94.9467	451.172	94.8789	451.172	94.4985	451.172	94.485	451.172	93.9292	451.172	94.0203	451.172	93.2322	451.172	93.4866	451.172	92.4132	451.172	92.8908	451.172	91.5114	451.172	92.2542	451.172	90.6284	451.172	91.6244	451.172	89.9416	451.172	91.0813	451.172	89.6394	451.172	90.7231	451.172	89.774	451.172	90.6184	451.172	90.2065	451.172	90.7544	451.172	90.7291	451.172	91.0353	451.172	91.1851	451.172	91.3355	451.172	91.4902	451.172	91.5496	451.172	91.6115
465.82	96.0205	465.82	95.9802	465.82	95.9736	465.82	95.8538	465.82	95.839	465.82	95.6421	465.82	95.6163	465.82	95.3449	465.82	95.3057	465.82	94.9596	465.82	94.9074	465.82	94.4811	465.82	94.4223	465.82	93.9028	465.82	93.8537	465.82	93.2217	465.82	93.2118	465.82	92.4496	465.82	92.5209	465.82	91.6339	465.82	91.8293	465.82	90.8811	465.82	91.2154	465.82	90.352	465.82	90.7777	465.82	90.1805	465.82	90.592	465.82	90.3562	465.82	90.6582	465.82	90.7234	465.82	90.8911	465.82	91.0997	465.82	91.168	465.82	91.3624	465.82	91.3808	465.82	91.4572
483.398	96.4869	483.398	96.4346	483.398	96.4587	483.398	96.3043	483.398	96.3454	483.398	96.0956	483.398	96.1415	483.398	95.8038	483.398	95.8399	483.398	95.4198	483.398	95.4313	483.398	94.9325	483.398	94.9038	483.398	94.3337	483.398	94.2459	483.398	93.6271	483.398	93.4555	483.398	92.8429	483.398	92.5587	483.398	92.0555	483.398	91.6394	483.398	91.3916	483.398	90.8605	483.398	90.9957	483.398	90.4224	483.398	90.9401	483.398	90.4236	483.398	91.1628	483.398	90.7658	483.398	91.5145	483.398	91.2451	483.398	91.85	483.398	91.6888	483.398	92.0718	483.398	91.9973	483.398	92.1276
499.512	96.551	499.512	96.4585	499.512	96.564	499.512	96.2919	499.512	96.4948	499.512	96.0581	499.512	96.3423	499.512	95.762	499.512	96.1051	499.512	95.4022	499.512	95.7794	499.512	94.9693	499.512	95.3565	499.512	94.4484	499.512	94.8231	499.512	93.8287	499.512	94.1647	499.512	93.1201	499.512	93.377	499.512	92.3761	499.512	92.49	499.512	91.7126	499.512	91.6032	499.512	91.29	499.512	90.9064	499.512	91.2194	499.512	90.609	499.512	91.4595	499.512	90.7662	499.512	91.8422	499.512	91.2171	499.512	92.19	499.512	91.7321	499.512	92.3855	499.512	92.146	499.512	92.374
517.09	96.6339	517.09	96.5333	517.09	96.6445	517.09	96.3408	517.09	96.5701	517.09	96.0583	517.09	96.4172	517.09	95.6892	517.09	96.1894	517.09	95.2354	517.09	95.8838	517.09	94.695	517.09	95.488	517.09	94.0649	517.09	94.9825	517.09	93.3494	517.09	94.3463	517.09	92.5785	517.09	93.5702	517.09	91.8313	517.09	92.6795	517.09	91.2444	517.09	91.7718	517.09	90.965	517.09	91.0457	517.09	91.0467	517.09	90.7355	517.09	91.3967	517.09	90.9129	517.09	91.8456	517.09	91.3979	517.09	92.2419	517.09	91.9308	517.09	92.4862	517.09	92.3327	517.09	92.5236
536.133	96.0642	536.133	96.0559	536.133	95.9909	536.133	95.9624	536.133	95.8406	536.133	95.7791	536.133	95.6194	536.133	95.4983	536.133	95.333	536.133	95.107	536.133	94.9826	536.133	94.5871	536.133	94.5618	536.133	93.9171	536.133	94.0562	536.133	93.082	536.133	93.4526	536.133	92.0964	536.133	92.7541	536.133	91.0524	536.133	92.0047	536.133	90.1815	536.133	91.3148	536.133	89.8164	536.133	90.8605	536.133	90.1083	536.133	90.7985	536.133	90.8325	536.133	91.1284	536.133	91.6359	536.133	91.6769	536.133	92.2859	536.133	92.2291	536.133	92.6814	536.133	92.6298	536.133	92.7934
555.176	96.7226	555.176	96.6301	555.176	96.7279	555.176	96.4606	555.176	96.64	555.176	96.225	555.176	96.4566	555.176	95.9268	555.176	96.175	555.176	95.5543	555.176	95.7877	555.176	95.0768	555.176	95.2788	555.176	94.4485	555.176	94.6226	555.176	93.6214	555.176	93.7874	555.176	92.5675	555.176	92.747	555.176	91.3248	555.176	91.5132	555.176	90.0843	555.176	90.2102	555.176	89.26	555.176	89.1793	555.176	89.242	555.176	88.8845	555.176	89.9048	555.176	89.403	555.176	90.7705	555.176	90.3	555.176	91.4887	555.176	91.146	555.176	91.9116	555.176	91.7342	555.176	91.9952
574.219	96.6771	574.219	96.6426	574.219	96.6135	574.219	96.5104	574.219	96.4589	574.219	96.2884	574.219	96.2265	574.219	95.9869	574.219	95.9296	574.219	95.6103	574.219	95.5742	574.219	95.148	574.219	95.1516	574.219	94.5694	574.219	94.6353	574.219	93.8289	574.219	93.9867	574.219	92.8824	574.219	93.1693	574.219	91.7254	574.219	92.1782	574.219	90.4701	574.219	91.0954	574.219	89.4545	574.219	90.161	574.219	89.1543	574.219	89.7346	574.219	89.6581	574.219	89.9746	574.219	90.524	574.219	90.6265	574.219	91.3135	574.219	91.3146	574.219	91.82	574.219	91.8015	574.219	91.9827
594.727	96.4641	594.727	96.4108	594.727	96.4048	594.727	96.2504	594.727	96.2349	594.727	95.9947	594.727	95.9634	594.727	95.6588	594.727	95.6033	594.727	95.2542	594.727	95.1648	594.727	94.7817	594.727	94.648	594.727	94.2253	594.727	94.0377	594.727	93.5542	594.727	93.3077	594.727	92.7384	594.727	92.4361	594.727	91.7836	594.727	91.4361	594.727	90.7898	594.727	90.4076	594.727	90.0086	594.727	89.5935	594.727	89.7563	594.727	89.3169	594.727	90.1016	594.727	89.6825	594.727	90.7646	594.727	90.4232	594.727	91.4087	594.727	91.1775	594.727	91.8307	594.727	91.7163	594.727	91.9417
615.234	96.9908	615.234	96.8927	615.234	96.9816	615.234	96.699	615.234	96.8573	615.234	96.4203	615.234	96.6164	615.234	96.0582	615.234	96.2618	615.234	95.5987	615.234	95.7952	615.234	95.0108	615.234	95.2078	615.234	94.2515	615.234	94.4731	615.234	93.2785	615.234	93.5456	615.234	92.0722	615.234	92.3726	615.234	90.6809	615.234	90.9303	615.234	89.3134	615.234	89.3263	615.234	88.4239	615.234	88.005	615.234	88.4433	615.234	87.6988	615.234	89.2142	615.234	88.4972	615.234	90.195	615.234	89.678	615.234	91.0064	615.234	90.6899	615.234	91.4945	615.234	91.3459	615.234	91.6126
637.207	96.6657	637.207	96.5654	637.207	96.687	637.207	96.3926	637.207	96.6322	637.207	96.1618	637.207	96.5071	637.207	95.8873	637.207	96.312	637.207	95.5673	637.207	96.0357	637.207	95.1697	637.207	95.6518	637.207	94.6299	637.207	95.1201	637.207	93.8617	637.207	94.3896	637.207	92.7832	637.207	93.4035	637.207	91.3673	637.207	92.113	637.207	89.7687	637.207	90.5251	637.207	88.545	637.207	88.8538	637.207	88.4357	637.207	87.7658	637.207	89.3084	637.207	87.9777	637.207	90.3874	637.207	89.1133	637.207	91.2103	637.207	90.3237	637.207	91.6377	637.207	91.1983	637.207	91.6379
659.18	96.4425	659.18	96.3861	659.18	96.391	659.18	96.2226	659.18	96.2411	659.18	95.9627	659.18	96.0114	659.18	95.6228	659.18	95.7223	659.18	95.2144	659.18	95.3824	659.18	94.7295	659.18	94.9731	659.18	94.1299	659.18	94.4443	659.18	93.3525	659.18	93.7271	659.18	92.3301	659.18	92.7577	659.18	91.0335	659.18	91.5077	659.18	89.5656	659.18	90.0418	659.18	88.3361	659.18	88.6374	659.18	88.0035	659.18	87.8632	659.18	88.6765	659.18	88.1248	659.18	89.7182	659.18	89.0672	659.18	90.5928	659.18	90.0785	659.18	91.0931	659.18	90.8191	659.18	91.1685
682.617	96.383	682.617	96.2802	682.617	96.39	682.617	96.0978	682.617	96.2954	682.617	95.8564	682.617	96.1043	682.617	95.5689	682.617	95.8273	682.617	95.2264	682.617	95.4717	682.617	94.7884	682.617	95.0269	682.617	94.1827	682.617	94.4521	682.617	93.3155	682.617	93.6708	682.617	92.0915	682.617	92.5817	682.617	90.4647	682.617	91.0937	682.617	88.6106	682.617	89.2338	682.617	87.3154	682.617	87.4751	682.617	87.5991	682.617	86.9807	682.617	88.974	682.617	88.0609	682.617	90.3595	682.617	89.5736	682.617	91.3357	682.617	90.7965	682.617	91.8488	682.617	91.5777	682.617	91.9244
707.52	96.3839	707.52	96.3329	707.52	96.3383	707.52	96.1946	707.52	96.2186	707.52	96.0032	707.52	96.0712	707.52	95.7974	707.52	95.9413	707.52	95.5897	707.52	95.836	707.52	95.3404	707.52	95.7006	707.52	94.9537	707.52	95.4289	707.52	94.2919	707.52	94.892	707.52	93.1898	707.52	93.9549	707.52	91.4615	707.52	92.473	707.52	88.9599	707.52	90.2994	707.52	86.1422	707.52	87.4944	707.52	85.6733	707.52	85.525	707.52	88.0394	707.52	86.8099	707.52	90.3429	707.52	89.2744	707.52	91.8438	707.52	91.149	707.52	92.6113	707.52	92.2748	707.52	92.7455
732.422	96.5407	732.422	96.4643	732.422	96.4796	732.422	96.2606	732.422	96.3006	732.422	95.9722	732.422	96.0491	732.422	95.6652	732.422	95.7865	732.422	95.3935	732.422	95.5639	732.422	95.1462	732.422	95.3825	732.422	94.8246	732.422	95.1696	732.422	94.2682	732.422	94.7936	732.422	93.2916	732.422	94.0948	732.422	91.6926	732.422	92.9031	732.422	89.2707	732.422	91.038	732.422	86.2049	732.422	88.3828	732.422	84.9638	732.422	85.6304	732.422	87.284	732.422	85.7426	732.422	89.8302	732.422	88.2971	732.422	91.4954	732.422	90.5095	732.422	92.3369	732.422	91.8696	732.422	92.4563
757.324	96.6197	757.324	96.5276	757.324	96.55	757.324	96.3015	757.324	96.3243	757.324	95.9999	757.324	95.9875	757.324	95.7028	757.324	95.6251	757.324	95.4776	757.324	95.3371	757.324	95.3214	757.324	95.1696	757.324	95.1284	757.324	95.0538	757.324	94.7203	757.324	94.8194	757.324	93.8945	757.324	94.2595	757.324	92.4358	757.324	93.1699	757.324	90.0957	757.324	91.3516	757.324	86.7424	757.324	88.6923	757.324	84.2445	757.324	85.9853	757.324	86.4146	757.324	86.2806	757.324	89.4462	757.324	88.8398	757.324	91.4377	757.324	90.9693	757.324	92.4775	757.324	92.2386	757.324	92.7265
785.156	97.1625	785.156	97.0124	785.156	97.099	785.156	96.6792	785.156	96.8349	785.156	96.2428	785.156	96.4287	785.156	95.8282	785.156	95.9872	785.156	95.5593	785.156	95.639	785.156	95.4666	785.156	95.4551	785.156	95.4308	785.156	95.3681	785.156	95.23	785.156	95.1887	785.156	94.6163	785.156	94.6881	785.156	93.3321	785.156	93.6414	785.156	91.0496	785.156	91.7969	785.156	87.2517	785.156	88.8053	785.156	82.2633	785.156	84.5508	785.156	84.1817	785.156	83.4955	785.156	88.4531	785.156	87.3933	785.156	90.9892	785.156	90.3467	785.156	92.2637	785.156	91.974	785.156	92.5723
811.523	96.8613	811.523	96.7567	811.523	96.7334	811.523	96.4297	811.523	96.3926	811.523	95.933	811.523	95.8957	811.523	95.3874	811.523	95.3554	811.523	94.9731	811.523	94.9322	811.523	94.8173	811.523	94.7476	811.523	94.8439	811.523	94.7575	811.523	94.7976	811.523	94.7503	811.523	94.3888	811.523	94.4636	811.523	93.3516	811.523	93.6512	811.523	91.3881	811.523	92.0538	811.523	88.0695	811.523	89.3195	811.523	83.4715	811.523	85.1591	811.523	83.8858	811.523	83.0253	811.523	87.9724	811.523	86.7141	811.523	90.577	811.523	89.8168	811.523	91.8726	811.523	91.5246	811.523	92.1645
840.82	97.101	840.82	96.8924	840.82	97.0087	840.82	96.404	840.82	96.6117	840.82	95.6935	840.82	95.9301	840.82	94.8986	840.82	95.0491	840.82	94.2652	840.82	94.1869	840.82	94.0359	840.82	93.678	840.82	94.1891	840.82	93.6839	840.82	94.4003	840.82	93.9356	840.82	94.2854	840.82	93.9769	840.82	93.5263	840.82	93.4409	840.82	91.7991	840.82	92.0321	840.82	88.5797	840.82	89.3672	840.82	83.0466	840.82	84.8644	840.82	82.0101	840.82	81.5866	840.82	87.4511	840.82	86.1395	840.82	90.5973	840.82	89.7598	840.82	92.0951	840.82	91.6952	840.82	92.4225
870.117	96.9937	870.117	96.8079	870.117	96.8888	870.117	96.325	870.117	96.4961	870.117	95.5524	870.117	95.8248	870.117	94.5648	870.117	94.9246	870.117	93.5925	870.117	93.9458	870.117	93.0195	870.117	93.1717	870.117	93.04	870.117	92.8586	870.117	93.3446	870.117	92.9224	870.117	93.4226	870.117	92.9645	870.117	92.8717	870.117	92.5662	870.117	91.3433	870.117	91.37	870.117	88.3081	870.117	88.9421	870.117	82.662	870.117	84.4926	870.117	79.7627	870.117	79.1209	870.117	85.9438	870.117	83.9189	870.117	89.3598	870.117	88.1572	870.117	90.902	870.117	90.3379	870.117	91.1817
900.879	97.3344	900.879	97.1207	900.879	97.2482	900.879	96.6035	900.879	96.8549	900.879	95.7731	900.879	96.142	900.879	94.6427	900.879	95.1153	900.879	93.3342	900.879	93.8621	900.879	92.215	900.879	92.666	900.879	91.7813	900.879	91.9962	900.879	92.0018	900.879	92.0152	900.879	92.2378	900.879	92.2462	900.879	91.8803	900.879	92.0695	900.879	90.4678	900.879	91.0114	900.879	87.3385	900.879	88.5223	900.879	80.6175	900.879	83.228	900.879	78.1636	900.879	73.7194	900.879	86.1407	900.879	84.0268	900.879	89.7948	900.879	88.8449	900.879	91.4763	900.879	91.0847	900.879	91.8677
933.105	96.6472	933.105	96.4985	933.105	96.5642	933.105	96.1058	933.105	96.2416	933.105	95.4515	933.105	95.6616	933.105	94.5524	933.105	94.8298	933.105	93.5331	933.105	93.8397	933.105	92.6963	933.105	92.951	933.105	92.3823	933.105	92.5162	933.105	92.5438	933.105	92.5965	933.105	92.7041	933.105	92.7978	933.105	92.3569	933.105	92.6265	933.105	91.0838	933.105	91.6925	933.105	88.3293	933.105	89.5781	933.105	82.5393	933.105	85.3881	933.105	57.6174	933.105	74.5936	933.105	82.3775	933.105	77.8351	933.105	87.2701	933.105	85.5617	933.105	89.2555	933.105	88.5603	933.105	89.6261
965.332	97.3359	965.332	97.1089	965.332	97.2628	965.332	96.5741	965.332	96.8808	965.332	95.7092	965.332	96.1639	965.332	94.5027	965.332	95.0749	965.332	93.0543	965.332	93.6199	965.332	91.8095	965.332	92.0598	965.332	91.5344	965.332	91.2206	965.332	92.2575	965.332	91.7196	965.332	93.0912	965.332	92.7484	965.332	93.3411	965.332	93.3309	965.332	92.6419	965.332	93.0205	965.332	90.62	965.332	91.5172	965.332	86.3958	965.332	88.2254	965.332	75.7312	965.332	80.8351	965.332	79.5657	965.332	73.1528	965.332	86.5129	965.332	84.9259	965.332	89.1046	965.332	88.5418	965.332	89.685
1,000.49	97.6557	1,000.49	97.5311	1,000.49	97.5636	1,000.49	97.1479	1,000.49	97.252	1,000.49	96.4298	1,000.49	96.6667	1,000.49	95.2782	1,000.49	95.7144	1,000.49	93.6156	1,000.49	94.3074	1,000.49	91.5934	1,000.49	92.4959	1,000.49	90.1916	1,000.49	90.835	1,000.49	90.699	1,000.49	90.4946	1,000.49	92.1391	1,000.49	91.4687	1,000.49	93.0833	1,000.49	92.4546	1,000.49	93.0133	1,000.49	92.6755	1,000.49	91.6514	1,000.49	91.7839	1,000.49	88.4311	1,000.49	89.3331	1,000.49	81.1799	1,000.49	83.9833	1,000.49	73.7512	1,000.49	66.99	1,000.49	84.7377	1,000.49	82.4787	1,000.49	88.0642	1,000.49	87.2721	1,000.49	88.741
1,035.64	97.2169	1,035.64	97.0674	1,035.64	97.2088	1,035.64	96.7648	1,035.64	97.002	1,035.64	96.2482	1,035.64	96.5328	1,035.64	95.3754	1,035.64	95.7107	1,035.64	93.9453	1,035.64	94.4152	1,035.64	91.7904	1,035.64	92.5333	1,035.64	89.2076	1,035.64	90.2045	1,035.64	88.14	1,035.64	88.6517	1,035.64	89.6186	1,035.64	89.4049	1,035.64	91.26	1,035.64	90.9791	1,035.64	91.9021	1,035.64	91.8176	1,035.64	91.259	1,035.64	91.4543	1,035.64	88.9217	1,035.64	89.5551	1,035.64	83.5178	1,035.64	85.2241	1,035.64	58.7093	1,035.64	73.1399	1,035.64	81.5543	1,035.64	78.3362	1,035.64	85.959	1,035.64	84.8987	1,035.64	86.7502
1,072.27	96.8559	1,072.27	96.8047	1,072.27	96.7646	1,072.27	96.5792	1,072.27	96.5379	1,072.27	96.1266	1,072.27	96.1533	1,072.27	95.3766	1,072.27	95.5494	1,072.27	94.2361	1,072.27	94.6193	1,072.27	92.6063	1,072.27	93.2384	1,072.27	90.5571	1,072.27	91.3846	1,072.27	88.9473	1,072.27	89.5406	1,072.27	89.1996	1,072.27	89.0166	1,072.27	90.4528	1,072.27	89.9384	1,072.27	91.1037	1,072.27	90.7644	1,072.27	90.5198	1,072.27	90.5571	1,072.27	88.2649	1,072.27	88.8325	1,072.27	83.1525	1,072.27	84.7145	1,072.27	67.0193	1,072.27	73.5403	1,072.27	79.9745	1,072.27	76.7903	1,072.27	84.6878	1,072.27	83.7388	1,072.27	85.595
1,108.89	96.5261	1,108.89	96.4371	1,108.89	96.495	1,108.89	96.2336	1,108.89	96.3162	1,108.89	95.8795	1,108.89	95.9542	1,108.89	95.2827	1,108.89	95.3619	1,108.89	94.2963	1,108.89	94.4516	1,108.89	92.7467	1,108.89	93.0704	1,108.89	90.5543	1,108.89	91.0596	1,108.89	88.3103	1,108.89	88.6588	1,108.89	87.9573	1,108.89	87.5647	1,108.89	89.3669	1,108.89	88.7975	1,108.89	90.3821	1,108.89	90.1726	1,108.89	90.1279	1,108.89	90.435	1,108.89	88.1746	1,108.89	89.1741	1,108.89	83.4636	1,108.89	85.6726	1,108.89	69.6922	1,108.89	76.4987	1,108.89	79.476	1,108.89	75.2772	1,108.89	84.5761	1,108.89	83.5935	1,108.89	85.6109
1,148.44	96.3126	1,148.44	96.2456	1,148.44	96.2396	1,148.44	96.0344	1,148.44	96.0395	1,148.44	95.6757	1,148.44	95.7156	1,148.44	95.1343	1,148.44	95.2287	1,148.44	94.3086	1,148.44	94.4846	1,148.44	93.0306	1,148.44	93.3487	1,148.44	91.1456	1,148.44	91.6738	1,148.44	88.8676	1,148.44	89.4485	1,148.44	87.6564	1,148.44	87.5316	1,148.44	88.5197	1,148.44	87.7649	1,148.44	89.5454	1,148.44	89.1434	1,148.44	89.403	1,148.44	89.699	1,148.44	87.5715	1,148.44	88.7433	1,148.44	83.0756	1,148.44	85.6877	1,148.44	70.6794	1,148.44	78.2251	1,148.44	78.5488	1,148.44	71.535	1,148.44	83.7416	1,148.44	82.047	1,148.44	84.5919
1,189.45	96.333	1,189.45	96.1494	1,189.45	96.2863	1,189.45	95.7952	1,189.45	96.0239	1,189.45	95.3543	1,189.45	95.6019	1,189.45	94.8255	1,189.45	95.0502	1,189.45	94.0689	1,189.45	94.3216	1,189.45	92.8595	1,189.45	93.279	1,189.45	90.9915	1,189.45	91.733	1,189.45	88.5884	1,189.45	89.6239	1,189.45	87.1154	1,189.45	87.6973	1,189.45	88.0345	1,189.45	87.7191	1,189.45	89.3416	1,189.45	89.0145	1,189.45	89.513	1,189.45	89.6729	1,189.45	88.0315	1,189.45	88.9524	1,189.45	84.0577	1,189.45	86.2944	1,189.45	73.6318	1,189.45	79.8376	1,189.45	77.0592	1,189.45	65.654	1,189.45	82.9466	1,189.45	80.8842	1,189.45	83.824
1,230.47	96.6541	1,230.47	96.4498	1,230.47	96.6167	1,230.47	96.0378	1,230.47	96.3439	1,230.47	95.4856	1,230.47	95.8789	1,230.47	94.8526	1,230.47	95.2746	1,230.47	94.1047	1,230.47	94.5387	1,230.47	93.076	1,230.47	93.5944	1,230.47	91.5703	1,230.47	92.3046	1,230.47	89.6142	1,230.47	90.5775	1,230.47	87.9573	1,230.47	88.7059	1,230.47	87.8168	1,230.47	87.8899	1,230.47	88.6023	1,230.47	88.6076	1,230.47	88.8293	1,230.47	89.2558	1,230.47	87.635	1,230.47	88.6294	1,230.47	84.0536	1,230.47	86.0394	1,230.47	74.5718	1,230.47	80.0471	1,230.47	76.1295	1,230.47	71.8791	1,230.47	82.2897	1,230.47	80.4116	1,230.47	83.1708
1,274.41	96.8409	1,274.41	96.6339	1,274.41	96.7851	1,274.41	96.215	1,274.41	96.478	1,274.41	95.6546	1,274.41	95.985	1,274.41	94.9819	1,274.41	95.3554	1,274.41	94.144	1,274.41	94.5555	1,274.41	93.0092	1,274.41	93.4761	1,274.41	91.4012	1,274.41	91.9976	1,274.41	89.2623	1,274.41	90.0877	1,274.41	87.3874	1,274.41	88.1397	1,274.41	87.5396	1,274.41	87.4728	1,274.41	88.7465	1,274.41	88.4281	1,274.41	89.0684	1,274.41	89.2864	1,274.41	87.7815	1,274.41	88.8874	1,274.41	84.1378	1,274.41	86.5047	1,274.41	75.4389	1,274.41	80.3181	1,274.41	77.7312	1,274.41	71.4035	1,274.41	83.524	1,274.41	82.0108	1,274.41	84.6364
1,319.82	96.7631	1,319.82	96.4981	1,319.82	96.7473	1,319.82	96.022	1,319.82	96.4455	1,319.82	95.4314	1,319.82	95.9249	1,319.82	94.791	1,319.82	95.2902	1,319.82	94.0617	1,319.82	94.577	1,319.82	93.0369	1,319.82	93.6432	1,319.82	91.3584	1,319.82	92.2043	1,319.82	88.7166	1,319.82	90.0238	1,319.82	86.0838	1,319.82	87.5158	1,319.82	86.8196	1,319.82	86.9932	1,319.82	88.8149	1,319.82	88.7147	1,319.82	89.423	1,319.82	89.8932	1,319.82	88.1366	1,319.82	89.4369	1,319.82	84.1148	1,319.82	86.6931	1,319.82	71.6553	1,319.82	79.2573	1,319.82	78.3658	1,319.82	72.1517	1,319.82	84.3012	1,319.82	83.0178	1,319.82	85.3954
1,366.7	96.5452	1,366.7	96.2284	1,366.7	96.5025	1,366.7	95.6188	1,366.7	96.0912	1,366.7	94.8473	1,366.7	95.4167	1,366.7	94.122	1,366.7	94.7119	1,366.7	93.545	1,366.7	94.1422	1,366.7	92.8627	1,366.7	93.5429	1,366.7	91.5681	1,366.7	92.4996	1,366.7	89.1136	1,366.7	90.5975	1,366.7	85.3806	1,366.7	87.6173	1,366.7	84.2956	1,366.7	85.011	1,366.7	87.2891	1,366.7	86.6066	1,366.7	89.0581	1,366.7	89.0522	1,366.7	88.6879	1,366.7	89.748	1,366.7	85.5566	1,366.7	88.1532	1,366.7	76.0931	1,366.7	83.1241	1,366.7	75.6431	1,366.7	70.7133	1,366.7	82.893	1,366.7	80.4515	1,366.7	83.7829
1,413.57	96.7004	1,413.57	96.3763	1,413.57	96.5585	1,413.57	95.6027	1,413.57	95.9516	1,413.57	94.4944	1,413.57	94.9516	1,413.57	93.3637	1,413.57	93.8658	1,413.57	92.567	1,413.57	93.161	1,413.57	92.0406	1,413.57	92.8594	1,413.57	91.2693	1,413.57	92.3726	1,413.57	89.6444	1,413.57	91.0406	1,413.57	86.4736	1,413.57	88.3233	1,413.57	82.2782	1,413.57	84.3127	1,413.57	84.534	1,413.57	84.0942	1,413.57	87.627	1,413.57	87.2151	1,413.57	87.9195	1,413.57	88.6254	1,413.57	85.47	1,413.57	87.8499	1,413.57	79.4183	1,413.57	84.2557	1,413.57	73.4144	1,413.57	74.6501	1,413.57	80.2727	1,413.57	77.2431	1,413.57	81.639
1,463.38	97.2244	1,463.38	96.7861	1,463.38	97.235	1,463.38	95.9311	1,463.38	96.7161	1,463.38	94.6191	1,463.38	95.5989	1,463.38	93.0115	1,463.38	94.0331	1,463.38	91.7319	1,463.38	92.5717	1,463.38	91.3526	1,463.38	91.8889	1,463.38	91.3355	1,463.38	91.7912	1,463.38	90.6359	1,463.38	91.3425	1,463.38	88.3828	1,463.38	89.6725	1,463.38	83.8005	1,463.38	86.3472	1,463.38	81.9112	1,463.38	84.0169	1,463.38	85.794	1,463.38	86.3462	1,463.38	87.272	1,463.38	88.2364	1,463.38	86.3457	1,463.38	88.1976	1,463.38	83.0549	1,463.38	85.9449	1,463.38	75.9107	1,463.38	80.2189	1,463.38	68.019	1,463.38	62.5889	1,463.38	71.0784
1,516.11	97.0788	1,516.11	96.7041	1,516.11	97.1483	1,516.11	96.0614	1,516.11	96.7764	1,516.11	95.0814	1,516.11	95.8277	1,516.11	93.6918	1,516.11	94.2879	1,516.11	92.0065	1,516.11	92.3952	1,516.11	90.5716	1,516.11	90.8559	1,516.11	89.9499	1,516.11	90.2389	1,516.11	89.7217	1,516.11	89.907	1,516.11	88.8814	1,516.11	89.0065	1,516.11	86.3695	1,516.11	86.9745	1,516.11	82.0985	1,516.11	84.0584	1,516.11	83.4653	1,516.11	84.2219	1,516.11	86.3977	1,516.11	86.4195	1,516.11	86.7283	1,516.11	86.9042	1,516.11	84.6718	1,516.11	85.4099	1,516.11	80.4521	1,516.11	81.7323	1,516.11	77.6432	1,516.11	77.1921	1,516.11	77.4131
1,568.85	95.9284	1,568.85	95.7169	1,568.85	95.8816	1,568.85	95.2812	1,568.85	95.5225	1,568.85	94.6196	1,568.85	94.8005	1,568.85	93.6839	1,568.85	93.6832	1,568.85	92.3886	1,568.85	92.1562	1,568.85	90.7593	1,568.85	90.3678	1,568.85	89.2707	1,568.85	88.7911	1,568.85	88.6139	1,568.85	87.8522	1,568.85	88.3687	1,568.85	87.4376	1,568.85	87.4922	1,568.85	86.7152	1,568.85	85.841	1,568.85	84.8852	1,568.85	84.7625	1,568.85	83.5601	1,568.85	84.8239	1,568.85	84.4926	1,568.85	84.4244	1,568.85	84.593	1,568.85	83.0586	1,568.85	82.865	1,568.85	82.2832	1,568.85	80.8386	1,568.85	82.8509	1,568.85	81.5339	1,568.85	82.8639
1,624.51	94.456	1,624.51	94.2859	1,624.51	94.1968	1,624.51	93.805	1,624.51	93.6336	1,624.51	93.2036	1,624.51	93.0128	1,624.51	92.4559	1,624.51	92.3746	1,624.51	91.3974	1,624.51	91.4747	1,624.51	90.0895	1,624.51	90.1677	1,624.51	88.7469	1,624.51	88.574	1,624.51	87.6845	1,624.51	86.842	1,624.51	87.4626	1,624.51	85.5446	1,624.51	87.5216	1,624.51	85.062	1,624.51	86.9486	1,624.51	84.4217	1,624.51	86.4171	1,624.51	83.9237	1,624.51	85.804	1,624.51	84.0627	1,624.51	83.2126	1,624.51	82.9948	1,624.51	78.4585	1,624.51	79.6963	1,624.51	81.3905	1,624.51	78.3117	1,624.51	84.5561	1,624.51	82.2317	1,624.51	84.7
1,681.64	94.7123	1,681.64	94.5394	1,681.64	94.3991	1,681.64	94.02	1,681.64	93.7958	1,681.64	93.3086	1,681.64	93.2937	1,681.64	92.3439	1,681.64	92.8886	1,681.64	91.0934	1,681.64	92.0935	1,681.64	89.8164	1,681.64	90.6791	1,681.64	88.625	1,681.64	89.1519	1,681.64	87.1617	1,681.64	87.7842	1,681.64	85.8007	1,681.64	85.9121	1,681.64	85.6494	1,681.64	84.0028	1,681.64	85.8978	1,681.64	83.7178	1,681.64	86.2754	1,681.64	84.4236	1,681.64	86.465	1,681.64	85.1612	1,681.64	84.513	1,681.64	84.1031	1,681.64	77.1419	1,681.64	79.8968	1,681.64	79.1116	1,681.64	77.6856	1,681.64	83.9228	1,681.64	81.4012	1,681.64	83.9348
1,741.7	95.2159	1,741.7	95.0441	1,741.7	95.1078	1,741.7	94.631	1,741.7	94.7076	1,741.7	93.9208	1,741.7	94.0774	1,741.7	92.8979	1,741.7	93.2944	1,741.7	91.754	1,741.7	92.3999	1,741.7	90.6868	1,741.7	91.3334	1,741.7	89.5891	1,741.7	90.1496	1,741.7	88.1018	1,741.7	89.0024	1,741.7	86.0509	1,741.7	87.4385	1,741.7	84.3075	1,741.7	85.0744	1,741.7	84.5636	1,741.7	83.7583	1,741.7	86.1097	1,741.7	84.756	1,741.7	86.8032	1,741.7	85.8116	1,741.7	84.9068	1,741.7	84.6709	1,741.7	77.3817	1,741.7	78.7299	1,741.7	77.5555	1,741.7	77.2274	1,741.7	84.0812	1,741.7	83.6477	1,741.7	85.4113
1,803.22	95.2539	1,803.22	95.0209	1,803.22	95.1931	1,803.22	94.5623	1,803.22	94.8188	1,803.22	93.9016	1,803.22	94.172	1,803.22	93.0225	1,803.22	93.3262	1,803.22	91.9777	1,803.22	92.3402	1,803.22	90.941	1,803.22	91.223	1,803.22	90.0198	1,803.22	90.2062	1,803.22	88.8077	1,803.22	89.4081	1,803.22	86.761	1,803.22	88.0616	1,803.22	84.4761	1,803.22	85.538	1,803.22	83.6277	1,803.22	83.2521	1,803.22	85.1274	1,803.22	84.2451	1,803.22	86.7706	1,803.22	86.0858	1,803.22	85.7114	1,803.22	85.2442	1,803.22	78.695	1,803.22	78.4713	1,803.22	75.4643	1,803.22	73.75	1,803.22	84.4	1,803.22	83.6873	1,803.22	85.9215
1,866.21	95.0391	1,866.21	95.0969	1,866.21	94.6965	1,866.21	94.6133	1,866.21	94.3946	1,866.21	93.6528	1,866.21	93.9134	1,866.21	92.5256	1,866.21	92.79	1,866.21	91.4587	1,866.21	91.377	1,866.21	90.3991	1,866.21	90.2467	1,866.21	89.6289	1,866.21	89.0913	1,866.21	88.9826	1,866.21	88.1723	1,866.21	87.0175	1,866.21	87.5902	1,866.21	83.5929	1,866.21	85.7885	1,866.21	82.1943	1,866.21	82.5862	1,866.21	84.172	1,866.21	81.2875	1,866.21	86.2775	1,866.21	84.3578	1,866.21	85.6091	1,866.21	85.1679	1,866.21	79.8237	1,866.21	80.596	1,866.21	69.22	1,866.21	65.5457	1,866.21	82.4921	1,866.21	81.7011	1,866.21	84.5313
1,932.13	95.9432	1,932.13	95.9406	1,932.13	95.7315	1,932.13	95.4616	1,932.13	95.4976	1,932.13	94.4717	1,932.13	95.043	1,932.13	93.2649	1,932.13	93.9763	1,932.13	92.2039	1,932.13	92.586	1,932.13	91.2147	1,932.13	91.708	1,932.13	90.1687	1,932.13	90.8103	1,932.13	89.2476	1,932.13	89.1643	1,932.13	87.6103	1,932.13	88.011	1,932.13	84.5151	1,932.13	86.7821	1,932.13	81.6256	1,932.13	84.0726	1,932.13	82.2809	1,932.13	81.4313	1,932.13	85.1382	1,932.13	83.0843	1,932.13	85.0563	1,932.13	84.7114	1,932.13	80.4343	1,932.13	81.6249	1,932.13	59.6562	1,932.13	62.2103	1,932.13	80.6426	1,932.13	81.3358	1,932.13	83.9549
1,999.51	96.243	1,999.51	96.2238	1,999.51	96.1301	1,999.51	95.9581	1,999.51	95.839	1,999.51	95.2965	1,999.51	95.2194	1,999.51	94.2039	1,999.51	94.1562	1,999.51	92.9418	1,999.51	92.8975	1,999.51	91.9859	1,999.51	92.0523	1,999.51	91.1457	1,999.51	91.232	1,999.51	90.1014	1,999.51	89.3849	1,999.51	88.6081	1,999.51	87.7819	1,999.51	86.1733	1,999.51	87.0904	1,999.51	83.5803	1,999.51	84.9157	1,999.51	82.9251	1,999.51	81.6831	1,999.51	85.2848	1,999.51	82.8214	1,999.51	85.407	1,999.51	85.0125	1,999.51	80.2579	1,999.51	83.2196	1,999.51	64.5922	1,999.51	73.4984	1,999.51	81.7157	1,999.51	82.254	1,999.51	84.7228
2,069.82	95.8718	2,069.82	95.9384	2,069.82	95.8352	2,069.82	95.8437	2,069.82	95.4941	2,069.82	95.5503	2,069.82	94.526	2,069.82	94.9583	2,069.82	93.4519	2,069.82	93.7314	2,069.82	92.5686	2,069.82	92.2845	2,069.82	91.4146	2,069.82	91.1634	2,069.82	90.2229	2,069.82	89.8225	2,069.82	88.6933	2,069.82	88.1321	2,069.82	86.9037	2,069.82	85.9007	2,069.82	85.8577	2,069.82	83.9759	2,069.82	84.1731	2,069.82	84.2286	2,069.82	81.4138	2,069.82	86.6743	2,069.82	81.2958	2,069.82	87.6661	2,069.82	84.6948	2,069.82	84.0963	2,069.82	84.6348	2,069.82	66.5564	2,069.82	78.5822	2,069.82	80.1011	2,069.82	76.8493	2,069.82	81.6974
2,143.07	96.432	2,143.07	96.4168	2,143.07	96.3902	2,143.07	96.1751	2,143.07	96.043	2,143.07	95.6362	2,143.07	95.2695	2,143.07	95.1139	2,143.07	94.5134	2,143.07	94.2889	2,143.07	93.884	2,143.07	92.6655	2,143.07	92.6757	2,143.07	90.696	2,143.07	90.7603	2,143.07	88.733	2,143.07	89.0883	2,143.07	87.7508	2,143.07	88.0404	2,143.07	87.2354	2,143.07	87.5564	2,143.07	84.4474	2,143.07	86.8259	2,143.07	82.1803	2,143.07	84.3832	2,143.07	84.9828	2,143.07	83.1905	2,143.07	87.2124	2,143.07	84.703	2,143.07	84.8205	2,143.07	84.1393	2,143.07	72.0738	2,143.07	77.6433	2,143.07	81.1556	2,143.07	75.7393	2,143.07	83.0527
2,219.24	96.5141	2,219.24	96.6301	2,219.24	96.3642	2,219.24	96.2101	2,219.24	96.1279	2,219.24	95.3615	2,219.24	95.4617	2,219.24	94.7123	2,219.24	94.7243	2,219.24	94.1337	2,219.24	94.031	2,219.24	92.6847	2,219.24	93.0387	2,219.24	90.3397	2,219.24	91.46	2,219.24	88.2815	2,219.24	89.3106	2,219.24	87.6995	2,219.24	88.0225	2,219.24	88.1018	2,219.24	87.4494	2,219.24	86.2304	2,219.24	86.414	2,219.24	80.9345	2,219.24	84.9587	2,219.24	82.8739	2,219.24	83.9815	2,219.24	86.6682	2,219.24	86.1154	2,219.24	85.5733	2,219.24	85.7509	2,219.24	77.4806	2,219.24	78.9014	2,219.24	78.5529	2,219.24	75.0387	2,219.24	81.6793
2,296.88	96.4104	2,296.88	96.5033	2,296.88	96.0715	2,296.88	95.9226	2,296.88	95.7198	2,296.88	95.1409	2,296.88	94.9411	2,296.88	94.5366	2,296.88	93.8418	2,296.88	93.5173	2,296.88	92.6864	2,296.88	91.9623	2,296.88	91.633	2,296.88	90.5085	2,296.88	91.0289	2,296.88	88.7807	2,296.88	89.5569	2,296.88	86.6068	2,296.88	86.6143	2,296.88	86.2509	2,296.88	85.5066	2,296.88	85.7938	2,296.88	85.2727	2,296.88	82.7082	2,296.88	83.2863	2,296.88	82.436	2,296.88	80.678	2,296.88	86.2123	2,296.88	84.5274	2,296.88	85.6694	2,296.88	86.6477	2,296.88	80.0103	2,296.88	82.7564	2,296.88	71.5693	2,296.88	64.1485	2,296.88	75.2833
2,378.91	96.5897	2,378.91	96.5208	2,378.91	96.5088	2,378.91	96.0622	2,378.91	96.2486	2,378.91	95.355	2,378.91	95.7914	2,378.91	94.5953	2,378.91	95.2444	2,378.91	93.4963	2,378.91	94.3001	2,378.91	92.0689	2,378.91	92.5605	2,378.91	90.709	2,378.91	90.5738	2,378.91	89.1211	2,378.91	89.6755	2,378.91	86.2857	2,378.91	88.4032	2,378.91	85.0647	2,378.91	85.5032	2,378.91	85.8601	2,378.91	84.0595	2,378.91	83.4336	2,378.91	83.3481	2,378.91	81.1057	2,378.91	82.3141	2,378.91	85.2802	2,378.91	83.1778	2,378.91	85.2283	2,378.91	85.8809	2,378.91	80.0271	2,378.91	83.2985	2,378.91	72.1566	2,378.91	70.6325	2,378.91	79.6912
2,462.4	96.4938	2,462.4	96.4326	2,462.4	96.4477	2,462.4	96.188	2,462.4	96.3365	2,462.4	95.871	2,462.4	95.9079	2,462.4	95.3304	2,462.4	95.1928	2,462.4	94.4257	2,462.4	94.4718	2,462.4	93.2566	2,462.4	93.2192	2,462.4	91.3663	2,462.4	91.0299	2,462.4	89.4794	2,462.4	89.1549	2,462.4	88.2442	2,462.4	88.2717	2,462.4	86.2238	2,462.4	86.4625	2,462.4	85.4705	2,462.4	84.5975	2,462.4	83.1924	2,462.4	83.994	2,462.4	79.9118	2,462.4	81.3247	2,462.4	84.9544	2,462.4	83.9098	2,462.4	85.1837	2,462.4	85.7106	2,462.4	78.0075	2,462.4	81.6376	2,462.4	73.2401	2,462.4	64.5656	2,462.4	78.3386
2,548.83	95.1755	2,548.83	95.3752	2,548.83	95.1479	2,548.83	95.1605	2,548.83	95.1974	2,548.83	94.3644	2,548.83	94.8046	2,548.83	93.9775	2,548.83	93.9392	2,548.83	93.6695	2,548.83	93.2695	2,548.83	92.4578	2,548.83	92.6574	2,548.83	90.4193	2,548.83	90.8929	2,548.83	88.0488	2,548.83	88.5324	2,548.83	87.0094	2,548.83	87.3298	2,548.83	86.4722	2,548.83	85.1405	2,548.83	86.3979	2,548.83	82.3846	2,548.83	85.1795	2,548.83	82.0067	2,548.83	79.6823	2,548.83	81.5124	2,548.83	83.3965	2,548.83	82.1658	2,548.83	83.7422	2,548.83	85.5965	2,548.83	75.8652	2,548.83	82.363	2,548.83	74.3385	2,548.83	59.6185	2,548.83	77.4036
2,639.65	95.913	2,639.65	96.1008	2,639.65	95.7705	2,639.65	96.0021	2,639.65	95.8189	2,639.65	95.4505	2,639.65	95.6291	2,639.65	94.7305	2,639.65	95.0106	2,639.65	94.1523	2,639.65	94.2381	2,639.65	93.3242	2,639.65	93.4081	2,639.65	91.3951	2,639.65	91.9146	2,639.65	88.6227	2,639.65	89.3159	2,639.65	86.0911	2,639.65	87.9208	2,639.65	83.4894	2,639.65	86.847	2,639.65	84.2272	2,639.65	84.6312	2,639.65	84.1274	2,639.65	83.466	2,639.65	80.637	2,639.65	81.0347	2,639.65	82.1614	2,639.65	82.0435	2,639.65	84.0483	2,639.65	84.0155	2,639.65	76.3976	2,639.65	82.5637	2,639.65	77.9046	2,639.65	66.5187	2,639.65	80.2685
2,731.93	95.8894	2,731.93	96.051	2,731.93	95.6898	2,731.93	96.0571	2,731.93	95.6741	2,731.93	95.7216	2,731.93	95.4286	2,731.93	94.8711	2,731.93	94.8359	2,731.93	94.0022	2,731.93	93.9541	2,731.93	93.2678	2,731.93	92.9807	2,731.93	91.7978	2,731.93	91.5834	2,731.93	89.2986	2,731.93	89.0446	2,731.93	87.8439	2,731.93	87.1215	2,731.93	86.1032	2,731.93	86.2113	2,731.93	84.6109	2,731.93	84.1776	2,731.93	84.9929	2,731.93	83.4029	2,731.93	80.4302	2,731.93	81.0807	2,731.93	82.0974	2,731.93	80.2216	2,731.93	83.9662	2,731.93	84.317	2,731.93	77.9017	2,731.93	81.1547	2,731.93	74.9492	2,731.93	69.4599	2,731.93	79.7509
2,828.61	95.6945	2,828.61	95.6382	2,828.61	95.6151	2,828.61	95.7078	2,828.61	95.604	2,828.61	95.7501	2,828.61	95.6269	2,828.61	94.8384	2,828.61	95.2483	2,828.61	93.438	2,828.61	94.1869	2,828.61	92.6621	2,828.61	92.6836	2,828.61	90.8875	2,828.61	91.0021	2,828.61	88.0008	2,828.61	88.5957	2,828.61	86.385	2,828.61	86.9253	2,828.61	83.834	2,828.61	86.2962	2,828.61	82.4963	2,828.61	83.897	2,828.61	84.2499	2,828.61	83.8137	2,828.61	81.7793	2,828.61	82.2771	2,828.61	81.3013	2,828.61	79.3336	2,828.61	84.2933	2,828.61	82.3689	2,828.61	78.3326	2,828.61	82.1604	2,828.61	77.8655	2,828.61	66.5274	2,828.61	79.9594
2,928.22	96.1342	2,928.22	96.2195	2,928.22	96.1919	2,928.22	96.392	2,928.22	96.1306	2,928.22	96.1927	2,928.22	95.9004	2,928.22	95.3167	2,928.22	95.3554	2,928.22	93.9132	2,928.22	94.1506	2,928.22	92.485	2,928.22	92.7969	2,928.22	90.8751	2,928.22	91.3917	2,928.22	88.1257	2,928.22	88.9351	2,928.22	86.0421	2,928.22	85.8599	2,928.22	84.389	2,928.22	84.6732	2,928.22	79.3263	2,928.22	82.2034	2,928.22	81.684	2,928.22	80.5014	2,928.22	80.5011	2,928.22	82.2864	2,928.22	80.7786	2,928.22	79.5107	2,928.22	83.7814	2,928.22	83.0212	2,928.22	77.6647	2,928.22	80.0561	2,928.22	72.1008	2,928.22	71.6191	2,928.22	75.1062
3,030.76	96.267	3,030.76	96.1701	3,030.76	96.2499	3,030.76	96.1367	3,030.76	96.0207	3,030.76	95.9593	3,030.76	96.0091	3,030.76	95.4576	3,030.76	95.654	3,030.76	93.9896	3,030.76	94.4467	3,030.76	92.2786	3,030.76	92.7901	3,030.76	90.8427	3,030.76	91.3869	3,030.76	87.9795	3,030.76	89.6919	3,030.76	85.5498	3,030.76	86.9646	3,030.76	84.224	3,030.76	85.0435	3,030.76	79.3824	3,030.76	83.5517	3,030.76	79.4663	3,030.76	81.7601	3,030.76	80.4829	3,030.76	82.2773	3,030.76	79.1564	3,030.76	80.1261	3,030.76	83.2778	3,030.76	82.6892	3,030.76	77.2179	3,030.76	82.1664	3,030.76	74.6069	3,030.76	65.143	3,030.76	77.6172
3,137.7	96.45	3,137.7	96.3707	3,137.7	96.4357	3,137.7	96.1982	3,137.7	96.3415	3,137.7	95.8835	3,137.7	96.3385	3,137.7	95.375	3,137.7	95.8396	3,137.7	94.0116	3,137.7	94.6927	3,137.7	92.0398	3,137.7	92.9871	3,137.7	90.6045	3,137.7	91.1623	3,137.7	88.2675	3,137.7	89.4975	3,137.7	85.1427	3,137.7	86.7613	3,137.7	84.9177	3,137.7	84.9212	3,137.7	81.9771	3,137.7	83.7717	3,137.7	77.9145	3,137.7	79.2948	3,137.7	79.1736	3,137.7	80.2702	3,137.7	78.5137	3,137.7	79.6018	3,137.7	82.9976	3,137.7	82.58	3,137.7	78.6063	3,137.7	81.6885	3,137.7	69.6473	3,137.7	69.6755	3,137.7	77.4323
3,249.02	96.3628	3,249.02	96.4883	3,249.02	96.5096	3,249.02	96.3696	3,249.02	96.8155	3,249.02	95.8071	3,249.02	96.5033	3,249.02	94.9784	3,249.02	95.7677	3,249.02	93.9134	3,249.02	94.8453	3,249.02	92.0425	3,249.02	93.0624	3,249.02	89.9988	3,249.02	90.7169	3,249.02	88.2361	3,249.02	88.7925	3,249.02	85.2838	3,249.02	86.3524	3,249.02	83.3483	3,249.02	84.3155	3,249.02	81.8519	3,249.02	83.1179	3,249.02	79.8097	3,249.02	80.2474	3,249.02	79.2077	3,249.02	79.8735	3,249.02	75.2384	3,249.02	76.1801	3,249.02	81.4893	3,249.02	80.1249	3,249.02	78.844	3,249.02	81.5565	3,249.02	73.025	3,249.02	70.8188	3,249.02	76.8593
3,363.28	96.0996	3,363.28	96.2147	3,363.28	96.3776	3,363.28	96.2954	3,363.28	96.3479	3,363.28	95.8317	3,363.28	96.1108	3,363.28	94.865	3,363.28	95.6748	3,363.28	93.833	3,363.28	94.4561	3,363.28	91.9195	3,363.28	92.8124	3,363.28	89.4661	3,363.28	90.6478	3,363.28	88.1217	3,363.28	88.3837	3,363.28	85.1204	3,363.28	86.1666	3,363.28	82.7007	3,363.28	82.5211	3,363.28	81.2675	3,363.28	81.8718	3,363.28	77.5567	3,363.28	79.2721	3,363.28	79.6098	3,363.28	78.649	3,363.28	73.7728	3,363.28	76.9239	3,363.28	78.3431	3,363.28	77.3105	3,363.28	76.1811	3,363.28	79.2466	3,363.28	63.6337	3,363.28	72.2739	3,363.28	72.2433
3,481.93	96.4509	3,481.93	96.3472	3,481.93	96.5377	3,481.93	96.2984	3,481.93	96.0902	3,481.93	95.7865	3,481.93	95.6862	3,481.93	94.7499	3,481.93	95.2617	3,481.93	93.377	3,481.93	93.7918	3,481.93	91.4701	3,481.93	91.6986	3,481.93	88.6503	3,481.93	89.3393	3,481.93	86.2943	3,481.93	87.0297	3,481.93	84.0042	3,481.93	85.282	3,481.93	80.6966	3,481.93	82.1164	3,481.93	79.175	3,481.93	80.1727	3,481.93	76.7652	3,481.93	76.7642	3,481.93	78.2086	3,481.93	75.7682	3,481.93	75.947	3,481.93	76.1712	3,481.93	77.3754	3,481.93	75.4621	3,481.93	76.7616	3,481.93	78.1661	3,481.93	71.1339	3,481.93	70.3031	3,481.93	73.4198
3,604.98	97.2769	3,604.98	97.0435	3,604.98	97.0826	3,604.98	96.7163	3,604.98	96.7415	3,604.98	96.2295	3,604.98	96.282	3,604.98	95.151	3,604.98	94.9749	3,604.98	93.247	3,604.98	93.3368	3,604.98	91.2886	3,604.98	91.5693	3,604.98	88.6668	3,604.98	88.9787	3,604.98	85.3281	3,604.98	86.1251	3,604.98	82.8117	3,604.98	83.8911	3,604.98	79.9831	3,604.98	81.3293	3,604.98	79.6167	3,604.98	79.4667	3,604.98	76.6941	3,604.98	78.621	3,604.98	77.4725	3,604.98	77.2837	3,604.98	76.6868	3,604.98	76.6714	3,604.98	77.3695	3,604.98	74.5476	3,604.98	77.7028	3,604.98	78.6225	3,604.98	74.0799	3,604.98	72.7255	3,604.98	76.0699
3,732.42	97.1418	3,732.42	97.0402	3,732.42	96.9513	3,732.42	96.4796	3,732.42	96.627	3,732.42	95.7369	3,732.42	95.9202	3,732.42	94.3534	3,732.42	94.5977	3,732.42	92.3861	3,732.42	92.6636	3,732.42	90.2276	3,732.42	90.2828	3,732.42	87.3538	3,732.42	88.0584	3,732.42	83.7957	3,732.42	84.742	3,732.42	81.0031	3,732.42	81.6047	3,732.42	78.7781	3,732.42	78.5523	3,732.42	76.7256	3,732.42	76.4287	3,732.42	75.1153	3,732.42	75.7434	3,732.42	75.8995	3,732.42	76.0921	3,732.42	75.3922	3,732.42	77.787	3,732.42	76.5155	3,732.42	73.9586	3,732.42	76.702	3,732.42	77.1947	3,732.42	72.9799	3,732.42	73.7847	3,732.42	72.5179
3,864.26	97.6756	3,864.26	97.5993	3,864.26	97.5462	3,864.26	97.0538	3,864.26	97.0762	3,864.26	96.0168	3,864.26	96.1283	3,864.26	94.3609	3,864.26	95.0258	3,864.26	92.5311	3,864.26	93.2936	3,864.26	90.0021	3,864.26	90.6629	3,864.26	87.0892	3,864.26	88.0169	3,864.26	84.1986	3,864.26	84.9438	3,864.26	81.2654	3,864.26	82.7074	3,864.26	79.2336	3,864.26	80.3185	3,864.26	77.3616	3,864.26	77.6566	3,864.26	74.4759	3,864.26	76.8037	3,864.26	75.3771	3,864.26	71.916	3,864.26	76.7425	3,864.26	78.4267	3,864.26	75.5346	3,864.26	75.5972	3,864.26	75.4466	3,864.26	77.5776	3,864.26	72.7372	3,864.26	74.424	3,864.26	77.3042
4,000.49	97.5422	4,000.49	97.16	4,000.49	97.4378	4,000.49	96.4993	4,000.49	96.7569	4,000.49	95.2919	4,000.49	95.9872	4,000.49	93.5285	4,000.49	94.5307	4,000.49	91.2224	4,000.49	92.4244	4,000.49	88.4515	4,000.49	90.0236	4,000.49	85.7664	4,000.49	87.1861	4,000.49	82.7794	4,000.49	84.3339	4,000.49	80.9092	4,000.49	81.6983	4,000.49	79.2095	4,000.49	79.8855	4,000.49	77.1331	4,000.49	76.9144	4,000.49	75.8255	4,000.49	77.4175	4,000.49	74.5534	4,000.49	72.9347	4,000.49	78.3062	4,000.49	75.8454	4,000.49	77.7761	4,000.49	76.414	4,000.49	77.1029	4,000.49	77.3376	4,000.49	74.1506	4,000.49	71.2802	4,000.49	77.7141
4,141.11	97.5357	4,141.11	97.2444	4,141.11	97.2751	4,141.11	96.5035	4,141.11	96.8656	4,141.11	95.4131	4,141.11	96.1127	4,141.11	93.7494	4,141.11	94.5636	4,141.11	91.4392	4,141.11	92.5475	4,141.11	88.771	4,141.11	89.7688	4,141.11	86.3258	4,141.11	87.0763	4,141.11	84.0183	4,141.11	84.7277	4,141.11	81.4417	4,141.11	82.0593	4,141.11	79.8472	4,141.11	80.7042	4,141.11	77.3821	4,141.11	78.3461	4,141.11	77.2515	4,141.11	76.1488	4,141.11	74.6194	4,141.11	74.3963	4,141.11	77.5348	4,141.11	76.3905	4,141.11	77.9817	4,141.11	77.3273	4,141.11	80.0175	4,141.11	79.7235	4,141.11	68.3727	4,141.11	75.0994	4,141.11	73.8214
4,287.6	97.5204	4,287.6	97.2631	4,287.6	97.366	4,287.6	96.4944	4,287.6	97.0657	4,287.6	95.3723	4,287.6	95.9162	4,287.6	93.4536	4,287.6	94.335	4,287.6	91.4398	4,287.6	92.3042	4,287.6	89.0426	4,287.6	89.7806	4,287.6	86.735	4,287.6	86.6211	4,287.6	84.1023	4,287.6	84.6927	4,287.6	81.2181	4,287.6	83.1689	4,287.6	79.4575	4,287.6	80.8851	4,287.6	78.2655	4,287.6	79.8018	4,287.6	77.7457	4,287.6	78.9685	4,287.6	74.6521	4,287.6	76.8955	4,287.6	77.1568	4,287.6	76.8631	4,287.6	75.6064	4,287.6	77.353	4,287.6	79.8232	4,287.6	79.3157	4,287.6	75.6303	4,287.6	78.879	4,287.6	75.4251
4,438.48	97.617	4,438.48	97.0984	4,438.48	97.5833	4,438.48	96.4861	4,438.48	96.9475	4,438.48	95.0892	4,438.48	95.8782	4,438.48	93.3911	4,438.48	94.4215	4,438.48	91.0826	4,438.48	92.2507	4,438.48	89.2045	4,438.48	89.8581	4,438.48	87.7298	4,438.48	88.2624	4,438.48	85.947	4,438.48	86.7819	4,438.48	84.0962	4,438.48	84.3134	4,438.48	81.9638	4,438.48	82.1458	4,438.48	80.6017	4,438.48	80.5804	4,438.48	77.6597	4,438.48	76.9776	4,438.48	76.5298	4,438.48	75.613	4,438.48	79.7692	4,438.48	76.9966	4,438.48	77.8299	4,438.48	79.2717	4,438.48	79.454	4,438.48	79.1579	4,438.48	79.5453	4,438.48	76.4326	4,438.48	80.296
4,595.21	97.2839	4,595.21	96.7634	4,595.21	96.7864	4,595.21	95.9205	4,595.21	96.0515	4,595.21	94.7318	4,595.21	95.2529	4,595.21	93.5616	4,595.21	93.774	4,595.21	91.7097	4,595.21	92.0807	4,595.21	90.132	4,595.21	90.0329	4,595.21	88.3327	4,595.21	88.5156	4,595.21	86.7531	4,595.21	86.9057	4,595.21	85.4508	4,595.21	84.8423	4,595.21	83.3159	4,595.21	83.1785	4,595.21	81.7242	4,595.21	81.6468	4,595.21	79.3272	4,595.21	80.3642	4,595.21	77.2196	4,595.21	77.8748	4,595.21	79.2379	4,595.21	75.3546	4,595.21	78.0535	4,595.21	79.4874	4,595.21	80.2871	4,595.21	79.8933	4,595.21	78.6334	4,595.21	78.8619	4,595.21	81.6355
4,756.35	97.4459	4,756.35	96.9675	4,756.35	97.0174	4,756.35	96.0477	4,756.35	96.444	4,756.35	95.3429	4,756.35	95.2209	4,756.35	93.8341	4,756.35	94.0138	4,756.35	92.9039	4,756.35	92.2853	4,756.35	91.3252	4,756.35	91.2513	4,756.35	88.885	4,756.35	89.6974	4,756.35	86.9797	4,756.35	87.6377	4,756.35	84.7238	4,756.35	86.0818	4,756.35	81.4402	4,756.35	84.0368	4,756.35	80.1644	4,756.35	81.8501	4,756.35	79.5566	4,756.35	77.917	4,756.35	76.8725	4,756.35	79.1268	4,756.35	76.9235	4,756.35	77.2609	4,756.35	78.055	4,756.35	78.8677	4,756.35	79.6422	4,756.35	79.6466	4,756.35	73.1201	4,756.35	79.1157	4,756.35	78.3805
4,924.8	97.0737	4,924.8	96.5441	4,924.8	97.001	4,924.8	95.6145	4,924.8	96.1944	4,924.8	94.4539	4,924.8	94.8683	4,924.8	93.7458	4,924.8	93.9012	4,924.8	91.944	4,924.8	92.7766	4,924.8	90.576	4,924.8	91.3941	4,924.8	89.5537	4,924.8	90.1643	4,924.8	87.9718	4,924.8	88.369	4,924.8	85.2221	4,924.8	86.4144	4,924.8	82.777	4,924.8	84.0369	4,924.8	81.2908	4,924.8	81.9423	4,924.8	78.2725	4,924.8	78.8963	4,924.8	79.446	4,924.8	76.861	4,924.8	79.4037	4,924.8	77.5149	4,924.8	78.4649	4,924.8	78.7109	4,924.8	79.4201	4,924.8	77.2645	4,924.8	74.3967	4,924.8	76.0669	4,924.8	75.9654
5,097.66	97.012	5,097.66	96.4439	5,097.66	96.4289	5,097.66	95.3549	5,097.66	95.6617	5,097.66	94.4406	5,097.66	94.7112	5,097.66	93.3283	5,097.66	93.7675	5,097.66	92.6057	5,097.66	93.1773	5,097.66	90.945	5,097.66	91.7575	5,097.66	89.3971	5,097.66	89.8662	5,097.66	88.2757	5,097.66	88.1625	5,097.66	85.7896	5,097.66	86.2716	5,097.66	84.2475	5,097.66	83.896	5,097.66	82.0185	5,097.66	81.9902	5,097.66	79.0373	5,097.66	80.3476	5,097.66	77.1938	5,097.66	76.1152	5,097.66	77.9998	5,097.66	75.9547	5,097.66	77.5498	5,097.66	78.5499	5,097.66	78.8655	5,097.66	77.4977	5,097.66	77.1973	5,097.66	75.0187	5,097.66	78.3615
5,277.83	97.0988	5,277.83	96.29	5,277.83	96.61	5,277.83	95.4302	5,277.83	95.8637	5,277.83	95.0115	5,277.83	94.5847	5,277.83	93.8218	5,277.83	93.7743	5,277.83	93.0024	5,277.83	92.5526	5,277.83	92.0839	5,277.83	91.6761	5,277.83	89.8311	5,277.83	90.3214	5,277.83	86.7832	5,277.83	87.9546	5,277.83	84.6876	5,277.83	86.0243	5,277.83	82.0834	5,277.83	83.7143	5,277.83	80.2059	5,277.83	80.5758	5,277.83	78.452	5,277.83	77.5071	5,277.83	75.062	5,277.83	76.7577	5,277.83	76.0229	5,277.83	75.2944	5,277.83	77.9085	5,277.83	77.6308	5,277.83	79.2222	5,277.83	78.732	5,277.83	71.9242	5,277.83	76.97	5,277.83	75.363
5,463.87	96.9303	5,463.87	96.4499	5,463.87	96.7025	5,463.87	95.4347	5,463.87	95.4606	5,463.87	94.1536	5,463.87	94.3375	5,463.87	93.5485	5,463.87	94.0123	5,463.87	92.5635	5,463.87	93.5815	5,463.87	91.2902	5,463.87	91.86	5,463.87	89.4509	5,463.87	89.9684	5,463.87	87.0068	5,463.87	88.0032	5,463.87	83.7535	5,463.87	85.8452	5,463.87	81.527	5,463.87	83.2879	5,463.87	79.3624	5,463.87	81.2563	5,463.87	77.9141	5,463.87	79.8787	5,463.87	78.7332	5,463.87	76.0169	5,463.87	77.3134	5,463.87	72.0753	5,463.87	78.3504	5,463.87	77.1655	5,463.87	78.7421	5,463.87	77.5531	5,463.87	71.9114	5,463.87	76.4864	5,463.87	73.6931
5,657.23	97.4721	5,657.23	96.7361	5,657.23	96.7074	5,657.23	95.418	5,657.23	95.8046	5,657.23	94.3207	5,657.23	94.8355	5,657.23	93.0757	5,657.23	93.867	5,657.23	92.8118	5,657.23	92.7085	5,657.23	91.0712	5,657.23	91.8887	5,657.23	88.7271	5,657.23	89.9494	5,657.23	87.4267	5,657.23	87.2784	5,657.23	84.6927	5,657.23	85.4281	5,657.23	82.1035	5,657.23	82.8163	5,657.23	80.1529	5,657.23	80.4725	5,657.23	77.4804	5,657.23	77.6256	5,657.23	76.9081	5,657.23	74.5145	5,657.23	77.9748	5,657.23	75.422	5,657.23	75.8275	5,657.23	75.9658	5,657.23	78.2644	5,657.23	76.04	5,657.23	72.2092	5,657.23	76.3333	5,657.23	72.3667
5,856.45	97.356	5,856.45	96.5222	5,856.45	96.9213	5,856.45	94.9394	5,856.45	95.863	5,856.45	94.1012	5,856.45	94.4943	5,856.45	93.6684	5,856.45	93.7016	5,856.45	92.2602	5,856.45	93.069	5,856.45	91.3398	5,856.45	91.6262	5,856.45	89.2396	5,856.45	89.8894	5,856.45	86.5062	5,856.45	87.4639	5,856.45	84.4705	5,856.45	84.77	5,856.45	82.4185	5,856.45	82.1278	5,856.45	79.244	5,856.45	79.9509	5,856.45	77.0923	5,856.45	78.2404	5,856.45	71.8398	5,856.45	77.368	5,856.45	75.3646	5,856.45	69.2469	5,856.45	75.9387	5,856.45	77.2282	5,856.45	77.4147	5,856.45	75.9233	5,856.45	71.0815	5,856.45	76.5769	5,856.45	73.6497
6,062.99	97.2128	6,062.99	96.5675	6,062.99	96.9689	6,062.99	95.2063	6,062.99	95.8137	6,062.99	93.8646	6,062.99	94.406	6,062.99	92.9918	6,062.99	93.678	6,062.99	92.7987	6,062.99	93.0369	6,062.99	91.3668	6,062.99	91.4796	6,062.99	88.7366	6,062.99	89.5644	6,062.99	87.2221	6,062.99	87.1777	6,062.99	84.4112	6,062.99	84.8084	6,062.99	82.0521	6,062.99	82.403	6,062.99	78.4353	6,062.99	79.6403	6,062.99	76.161	6,062.99	77.0759	6,062.99	74.8173	6,062.99	76.8533	6,062.99	73.8205	6,062.99	74.6334	6,062.99	77.6805	6,062.99	76.6623	6,062.99	77.0609	6,062.99	76.4389	6,062.99	74.8424	6,062.99	75.5227	6,062.99	69.9508
6,276.86	97.3319	6,276.86	96.5754	6,276.86	96.6726	6,276.86	95.219	6,276.86	95.5525	6,276.86	94.2689	6,276.86	94.3769	6,276.86	93.6601	6,276.86	93.5325	6,276.86	92.8079	6,276.86	92.4171	6,276.86	91.453	6,276.86	91.4238	6,276.86	89.4443	6,276.86	89.7347	6,276.86	86.8788	6,276.86	86.8097	6,276.86	84.1836	6,276.86	84.6141	6,276.86	81.8139	6,276.86	82.041	6,276.86	78.4143	6,276.86	79.6939	6,276.86	76.4989	6,276.86	77.0574	6,276.86	72.9683	6,276.86	75.2602	6,276.86	71.2568	6,276.86	71.3127	6,276.86	75.0855	6,276.86	74.9647	6,276.86	75.9036	6,276.86	75.4746	6,276.86	74.583	6,276.86	76.5554	6,276.86	70.6626
6,498.05	97.349	6,498.05	96.6112	6,498.05	97.065	6,498.05	95.0218	6,498.05	95.7528	6,498.05	93.7821	6,498.05	94.3051	6,498.05	93.1105	6,498.05	93.4587	6,498.05	92.5687	6,498.05	92.7803	6,498.05	91.1762	6,498.05	91.0821	6,498.05	88.4389	6,498.05	89.1715	6,498.05	86.4342	6,498.05	87.104	6,498.05	82.8785	6,498.05	84.0562	6,498.05	80.0943	6,498.05	81.3023	6,498.05	77.565	6,498.05	79.2626	6,498.05	75.1543	6,498.05	75.9618	6,498.05	71.2958	6,498.05	75.0377	6,498.05	70.5626	6,498.05	70.4985	6,498.05	75.3427	6,498.05	75.7545	6,498.05	75.9326	6,498.05	74.6474	6,498.05	72.1889	6,498.05	76.4399	6,498.05	72.0656
6,726.56	97.1818	6,726.56	96.605	6,726.56	96.5253	6,726.56	95.0794	6,726.56	95.4787	6,726.56	93.7334	6,726.56	94.0831	6,726.56	93.0083	6,726.56	93.2366	6,726.56	92.3531	6,726.56	92.1869	6,726.56	90.582	6,726.56	90.9647	6,726.56	88.1255	6,726.56	89.1311	6,726.56	85.4135	6,726.56	86.5825	6,726.56	82.5185	6,726.56	84.5072	6,726.56	80.8182	6,726.56	81.521	6,726.56	77.036	6,726.56	78.888	6,726.56	75.4737	6,726.56	76.9068	6,726.56	74.5576	6,726.56	73.5405	6,726.56	69.9611	6,726.56	73.7534	6,726.56	76.1585	6,726.56	73.2028	6,726.56	76.5563	6,726.56	73.7991	6,726.56	73.8578	6,726.56	74.6995	6,726.56	69.3944
6,963.87	96.9557	6,963.87	96.4211	6,963.87	96.592	6,963.87	95.0822	6,963.87	95.3361	6,963.87	93.8782	6,963.87	94.227	6,963.87	92.9611	6,963.87	93.1906	6,963.87	92.0174	6,963.87	92.3025	6,963.87	90.2882	6,963.87	90.6853	6,963.87	87.8248	6,963.87	88.6969	6,963.87	85.1898	6,963.87	86.3008	6,963.87	81.7127	6,963.87	83.6682	6,963.87	79.4002	6,963.87	80.644	6,963.87	77.0771	6,963.87	78.182	6,963.87	75.2302	6,963.87	75.0701	6,963.87	73.1895	6,963.87	73.3068	6,963.87	68.0026	6,963.87	69.8184	6,963.87	75.6151	6,963.87	72.9316	6,963.87	74.3075	6,963.87	74.0794	6,963.87	69.8691	6,963.87	71.9114	6,963.87	67.1996
7,209.96	97.0369	7,209.96	96.5163	7,209.96	96.6848	7,209.96	95.2391	7,209.96	95.6482	7,209.96	94.027	7,209.96	94.2895	7,209.96	92.8266	7,209.96	93.2825	7,209.96	91.7825	7,209.96	92.1473	7,209.96	89.8852	7,209.96	90.5743	7,209.96	87.3512	7,209.96	88.3847	7,209.96	84.4833	7,209.96	85.5312	7,209.96	81.5469	7,209.96	83.4682	7,209.96	79.9395	7,209.96	81.0705	7,209.96	76.6619	7,209.96	78.5849	7,209.96	74.7468	7,209.96	75.5287	7,209.96	72.6547	7,209.96	74.3646	7,209.96	67.2267	7,209.96	68.5995	7,209.96	75.3818	7,209.96	73.4674	7,209.96	74.3109	7,209.96	73.7283	7,209.96	70.8545	7,209.96	73.1621	7,209.96	64.0071
7,464.84	96.9891	7,464.84	96.5278	7,464.84	96.7026	7,464.84	95.4098	7,464.84	95.5997	7,464.84	94.0143	7,464.84	94.3806	7,464.84	92.5281	7,464.84	93.0753	7,464.84	91.2273	7,464.84	91.6841	7,464.84	89.1701	7,464.84	89.9469	7,464.84	86.6892	7,464.84	88.0567	7,464.84	83.8559	7,464.84	85.5464	7,464.84	81.3802	7,464.84	82.1514	7,464.84	78.2073	7,464.84	79.9664	7,464.84	75.7859	7,464.84	78.1667	7,464.84	75.024	7,464.84	74.9701	7,464.84	68.0884	7,464.84	70.6978	7,464.84	66.8036	7,464.84	67.1699	7,464.84	72.5868	7,464.84	71.5147	7,464.84	72.8994	7,464.84	72.9583	7,464.84	70.4152	7,464.84	72.5774	7,464.84	66.9061
7,727.05	97.029	7,727.05	96.4886	7,727.05	96.8343	7,727.05	95.2313	7,727.05	95.794	7,727.05	93.8719	7,727.05	94.3089	7,727.05	92.0872	7,727.05	92.7861	7,727.05	90.7273	7,727.05	91.6166	7,727.05	88.6037	7,727.05	90.019	7,727.05	85.7598	7,727.05	87.5978	7,727.05	83.3464	7,727.05	85.2458	7,727.05	81.0769	7,727.05	82.9617	7,727.05	77.9544	7,727.05	79.6332	7,727.05	74.9308	7,727.05	76.8835	7,727.05	73.315	7,727.05	73.8872	7,727.05	63.3619	7,727.05	73.5905	7,727.05	61.7764	7,727.05	70.2943	7,727.05	70.5248	7,727.05	71.443	7,727.05	73.0231	7,727.05	72.438	7,727.05	69.6764	7,727.05	72.0777	7,727.05	64.1999
7,999.51	97.085	7,999.51	96.6269	7,999.51	96.8799	7,999.51	95.5488	7,999.51	95.9662	7,999.51	93.8796	7,999.51	94.368	7,999.51	91.5763	7,999.51	92.7328	7,999.51	89.9207	7,999.51	91.3176	7,999.51	87.8616	7,999.51	89.6872	7,999.51	85.2401	7,999.51	87.5287	7,999.51	82.2421	7,999.51	85.1641	7,999.51	79.995	7,999.51	82.1263	7,999.51	76.9406	7,999.51	79.6889	7,999.51	74.6466	7,999.51	77.0756	7,999.51	72.2715	7,999.51	73.8398	7,999.51	68.0734	7,999.51	72.408	7,999.51	55.8737	7,999.51	67.594	7,999.51	69.7002	7,999.51	70.4967	7,999.51	71.2535	7,999.51	72.8244	7,999.51	68.5777	7,999.51	71.065	7,999.51	60.1226
8,282.23	96.7477	8,282.23	96.2584	8,282.23	96.8463	8,282.23	95.2287	8,282.23	95.7799	8,282.23	93.2946	8,282.23	94.1289	8,282.23	91.2511	8,282.23	92.2522	8,282.23	90.1299	8,282.23	91.0438	8,282.23	88.2597	8,282.23	89.6009	8,282.23	85.4922	8,282.23	87.2463	8,282.23	81.9118	8,282.23	85.2222	8,282.23	79.8625	8,282.23	82.4754	8,282.23	75.4244	8,282.23	78.8174	8,282.23	74.7272	8,282.23	77.0077	8,282.23	72.9398	8,282.23	73.8457	8,282.23	70.0453	8,282.23	71.7124	8,282.23	58.6372	8,282.23	68.5294	8,282.23	68.5311	8,282.23	69.7299	8,282.23	71.6979	8,282.23	72.4275	8,282.23	69.019	8,282.23	71.6938	8,282.23	58.147
8,573.73	96.5854	8,573.73	96.1682	8,573.73	96.7184	8,573.73	95.0799	8,573.73	95.6311	8,573.73	92.8405	8,573.73	93.9033	8,573.73	90.6125	8,573.73	91.836	8,573.73	89.6478	8,573.73	90.955	8,573.73	87.4009	8,573.73	89.3083	8,573.73	84.7038	8,573.73	87.0375	8,573.73	81.2937	8,573.73	84.6311	8,573.73	78.547	8,573.73	81.2258	8,573.73	74.9672	8,573.73	78.6008	8,573.73	73.5974	8,573.73	76.8684	8,573.73	70.2964	8,573.73	74.3537	8,573.73	69.3721	8,573.73	71.2192	8,573.73	64.6304	8,573.73	67.6362	8,573.73	65.1891	8,573.73	67.2113	8,573.73	70.3517	8,573.73	70.7007	8,573.73	67.6214	8,573.73	70.6303	8,573.73	58.6972
8,876.95	96.6148	8,876.95	96.4743	8,876.95	96.6717	8,876.95	95.1444	8,876.95	95.9078	8,876.95	92.6033	8,876.95	93.9253	8,876.95	90.5249	8,876.95	92.086	8,876.95	89.7856	8,876.95	91.1602	8,876.95	86.5254	8,876.95	89.2851	8,876.95	83.3304	8,876.95	86.3638	8,876.95	79.8345	8,876.95	83.7266	8,876.95	78.3251	8,876.95	81.1536	8,876.95	74.5437	8,876.95	79.3901	8,876.95	73.7792	8,876.95	76.5022	8,876.95	70.0023	8,876.95	73.5742	8,876.95	70.4593	8,876.95	71.9794	8,876.95	69.1726	8,876.95	69.0573	8,876.95	62.2438	8,876.95	65.8475	8,876.95	65.7263	8,876.95	68.9001	8,876.95	65.3496	8,876.95	68.8107	8,876.95	59.3889
9,188.96	96.4867	9,188.96	96.6146	9,188.96	96.7285	9,188.96	95.2573	9,188.96	96.1792	9,188.96	92.7414	9,188.96	94.2094	9,188.96	90.9039	9,188.96	92.4457	9,188.96	89.7632	9,188.96	90.7467	9,188.96	85.984	9,188.96	88.879	9,188.96	83.4812	9,188.96	85.8035	9,188.96	80.3501	9,188.96	84.2485	9,188.96	78.5828	9,188.96	80.9104	9,188.96	74.9587	9,188.96	78.6422	9,188.96	74.9228	9,188.96	76.2157	9,188.96	69.1311	9,188.96	74.0594	9,188.96	66.7445	9,188.96	72.0328	9,188.96	67.7707	9,188.96	67.923	9,188.96	66.1971	9,188.96	66.9625	9,188.96	64.1374	9,188.96	70.3283	9,188.96	61.5327	9,188.96	66.6445	9,188.96	60.7686
9,514.16	96.4404	9,514.16	96.7677	9,514.16	96.9798	9,514.16	95.4403	9,514.16	96.3606	9,514.16	92.7416	9,514.16	94.4002	9,514.16	90.6847	9,514.16	92.4751	9,514.16	88.8603	9,514.16	90.8349	9,514.16	86.336	9,514.16	89.0895	9,514.16	84.3311	9,514.16	86.2533	9,514.16	80.7723	9,514.16	84.4737	9,514.16	79.1614	9,514.16	81.6075	9,514.16	76.3021	9,514.16	79.1632	9,514.16	75.0162	9,514.16	76.7287	9,514.16	69.9277	9,514.16	73.0891	9,514.16	70.0253	9,514.16	72.9096	9,514.16	69.4497	9,514.16	68.0056	9,514.16	66.3554	9,514.16	67.1924	9,514.16	66.1506	9,514.16	69.7654	9,514.16	58.5357	9,514.16	65.5946	9,514.16	60.2565
9,849.61	96.6783	9,849.61	96.6939	9,849.61	97.2157	9,849.61	95.0183	9,849.61	96.2248	9,849.61	92.3117	9,849.61	94.2108	9,849.61	90.6522	9,849.61	92.2082	9,849.61	88.8726	9,849.61	90.9544	9,849.61	86.65	9,849.61	89.2031	9,849.61	85.5805	9,849.61	86.781	9,849.61	82.6559	9,849.61	84.7375	9,849.61	80.1071	9,849.61	81.9574	9,849.61	77.2272	9,849.61	79.747	9,849.61	76.0307	9,849.61	77.1871	9,849.61	72.3805	9,849.61	73.7329	9,849.61	72.1097	9,849.61	73.7712	9,849.61	69.0945	9,849.61	69.9178	9,849.61	67.6738	9,849.61	64.9514	9,849.61	66.1003	9,849.61	71.3152	9,849.61	56.9405	9,849.61	66.7809	9,849.61	62.183
10,196.8	96.5188	10,196.8	96.734	10,196.8	97.0123	10,196.8	94.9653	10,196.8	96.4937	10,196.8	92.4525	10,196.8	94.5676	10,196.8	90.4993	10,196.8	92.4929	10,196.8	89.4004	10,196.8	90.7657	10,196.8	87.7908	10,196.8	89.0994	10,196.8	86.7379	10,196.8	87.3439	10,196.8	84.2553	10,196.8	85.7234	10,196.8	82.2136	10,196.8	82.3392	10,196.8	78.3493	10,196.8	80.5115	10,196.8	76.8619	10,196.8	77.843	10,196.8	73.5241	10,196.8	74.4188	10,196.8	71.3947	10,196.8	73.6866	10,196.8	71.0754	10,196.8	69.8409	10,196.8	68.8624	10,196.8	66.5782	10,196.8	68.4617	10,196.8	71.2006	10,196.8	58.6403	10,196.8	68.1855	10,196.8	61.4514
10,555.7	96.4873	10,555.7	96.4746	10,555.7	96.6011	10,555.7	95.1459	10,555.7	96.199	10,555.7	92.6613	10,555.7	94.6293	10,555.7	90.2516	10,555.7	92.2273	10,555.7	89.7144	10,555.7	90.5394	10,555.7	88.7455	10,555.7	89.3772	10,555.7	86.7182	10,555.7	87.2647	10,555.7	84.4543	10,555.7	85.5897	10,555.7	82.0529	10,555.7	82.1731	10,555.7	78.5391	10,555.7	80.0102	10,555.7	76.6362	10,555.7	77.0322	10,555.7	72.7676	10,555.7	73.7961	10,555.7	71.1471	10,555.7	72.727	10,555.7	69.1841	10,555.7	69.2072	10,555.7	68.5654	10,555.7	67.6222	10,555.7	70.6385	10,555.7	70.1734	10,555.7	58.49	10,555.7	67.3717	10,555.7	64.0028
10,927.7	96.4815	10,927.7	96.1605	10,927.7	96.5571	10,927.7	95.1413	10,927.7	95.91	10,927.7	92.4094	10,927.7	94.4256	10,927.7	89.8827	10,927.7	91.8089	10,927.7	89.6452	10,927.7	90.539	10,927.7	88.9805	10,927.7	89.308	10,927.7	86.5708	10,927.7	86.9069	10,927.7	84.0031	10,927.7	85.0312	10,927.7	81.1163	10,927.7	80.6002	10,927.7	77.4902	10,927.7	78.3514	10,927.7	75.9909	10,927.7	75.6043	10,927.7	71.7374	10,927.7	72.4054	10,927.7	71.6281	10,927.7	72.6004	10,927.7	67.5631	10,927.7	68.4884	10,927.7	66.5902	10,927.7	66.5986	10,927.7	71.2569	10,927.7	68.959	10,927.7	61.2455	10,927.7	64.3154	10,927.7	63.6127
11,313	96.4779	11,313	95.6319	11,313	96.6832	11,313	95.1184	11,313	95.6571	11,313	92.17	11,313	94.1458	11,313	90.1984	11,313	91.406	11,313	89.6579	11,313	90.5111	11,313	88.254	11,313	88.6732	11,313	86.0479	11,313	86.0394	11,313	83.5099	11,313	83.9364	11,313	80.4152	11,313	79.3098	11,313	76.8589	11,313	77.9173	11,313	75.7999	11,313	74.4966	11,313	71.7217	11,313	72.2901	11,313	69.9661	11,313	71.7338	11,313	67.2586	11,313	68.4638	11,313	63.964	11,313	61.8637	11,313	70.9354	11,313	65.8106	11,313	63.2776	11,313	65.4584	11,313	59.1478
11,712.9	96.7044	11,712.9	95.535	11,712.9	96.7381	11,712.9	94.9481	11,712.9	95.7192	11,712.9	91.9968	11,712.9	94.078	11,712.9	90.4109	11,712.9	91.4649	11,712.9	89.7377	11,712.9	90.212	11,712.9	87.6769	11,712.9	87.9426	11,712.9	85.2758	11,712.9	84.7507	11,712.9	83.5042	11,712.9	82.9908	11,712.9	79.5527	11,712.9	78.0918	11,712.9	76.234	11,712.9	77.2378	11,712.9	74.3685	11,712.9	73.6026	11,712.9	69.736	11,712.9	72.0477	11,712.9	69.4483	11,712.9	70.8669	11,712.9	65.4542	11,712.9	67.0107	11,712.9	63.4539	11,712.9	53.6197	11,712.9	69.6222	11,712.9	62.502	11,712.9	62.9	11,712.9	66.0439	11,712.9	60.2944
12,126	96.9264	12,126	95.8154	12,126	96.6498	12,126	94.8211	12,126	95.8464	12,126	92.2355	12,126	94.1434	12,126	90.67	12,126	91.8433	12,126	89.56	12,126	90.0987	12,126	87.8816	12,126	87.9138	12,126	84.7423	12,126	84.1776	12,126	83.4101	12,126	82.9692	12,126	79.1659	12,126	78.4369	12,126	76.3994	12,126	77.0261	12,126	72.9348	12,126	72.9391	12,126	70.3129	12,126	71.536	12,126	69.1348	12,126	69.3693	12,126	64.9946	12,126	67.5657	12,126	60.9454	12,126	60.1959	12,126	67.217	12,126	63.7908	12,126	60.5621	12,126	66.6419	12,126	61.207
12,553.7	97.1317	12,553.7	95.643	12,553.7	96.932	12,553.7	94.871	12,553.7	95.5473	12,553.7	92.754	12,553.7	94.2803	12,553.7	90.6763	12,553.7	92.0488	12,553.7	89.2314	12,553.7	90.0724	12,553.7	87.8121	12,553.7	88.0939	12,553.7	84.9129	12,553.7	84.6293	12,553.7	82.9574	12,553.7	83.3733	12,553.7	78.6985	12,553.7	78.6213	12,553.7	76.268	12,553.7	76.9176	12,553.7	72.1945	12,553.7	72.4677	12,553.7	70.3438	12,553.7	72.1816	12,553.7	68.0689	12,553.7	69.0183	12,553.7	63.6399	12,553.7	67.2214	12,553.7	54.22	12,553.7	61.5134	12,553.7	66.8167	12,553.7	64.4624	12,553.7	62.5236	12,553.7	63.7345	12,553.7	62.9802
12,996.1	96.9777	12,996.1	95.6086	12,996.1	96.9208	12,996.1	94.8186	12,996.1	95.5127	12,996.1	93.0677	12,996.1	94.2141	12,996.1	90.5727	12,996.1	91.955	12,996.1	88.8155	12,996.1	89.7374	12,996.1	87.3326	12,996.1	87.7859	12,996.1	84.4146	12,996.1	84.3562	12,996.1	82.4064	12,996.1	82.6432	12,996.1	78.0649	12,996.1	78.2673	12,996.1	75.132	12,996.1	76.0011	12,996.1	71.1694	12,996.1	71.1845	12,996.1	69.4669	12,996.1	71.2719	12,996.1	66.4033	12,996.1	67.6441	12,996.1	61.2202	12,996.1	65.5128	12,996.1	54.5245	12,996.1	61.6383	12,996.1	65.1164	12,996.1	64.402	12,996.1	62.0115	12,996.1	63.1146	12,996.1	63.8881
13,454.6	96.8791	13,454.6	95.567	13,454.6	96.8118	13,454.6	94.7428	13,454.6	95.4315	13,454.6	93.0884	13,454.6	94.2926	13,454.6	90.4161	13,454.6	91.8244	13,454.6	88.5723	13,454.6	89.2391	13,454.6	86.747	13,454.6	87.3585	13,454.6	83.2557	13,454.6	83.6151	13,454.6	81.0932	13,454.6	81.4417	13,454.6	76.8303	13,454.6	77.8203	13,454.6	74.0057	13,454.6	74.8728	13,454.6	69.8599	13,454.6	70.1865	13,454.6	68.6426	13,454.6	69.6892	13,454.6	64.5994	13,454.6	65.9975	13,454.6	59.3928	13,454.6	63.5606	13,454.6	55.1344	13,454.6	60.2154	13,454.6	64.2022	13,454.6	64.4781	13,454.6	60.7484	13,454.6	63.1031	13,454.6	63.1962
13,929.2	96.822	13,929.2	95.7615	13,929.2	96.7204	13,929.2	94.7473	13,929.2	95.535	13,929.2	92.866	13,929.2	94.3335	13,929.2	90.0605	13,929.2	91.6055	13,929.2	87.8221	13,929.2	88.9372	13,929.2	85.5754	13,929.2	86.8712	13,929.2	81.7108	13,929.2	82.7812	13,929.2	79.3986	13,929.2	79.978	13,929.2	75.6168	13,929.2	76.962	13,929.2	72.5791	13,929.2	73.3696	13,929.2	68.863	13,929.2	69.8996	13,929.2	67.6317	13,929.2	67.2596	13,929.2	62.1258	13,929.2	62.3715	13,929.2	56.8944	13,929.2	62.4554	13,929.2	56.8694	13,929.2	59.9639	13,929.2	63.5267	13,929.2	64.0588	13,929.2	59.102	13,929.2	62.8154	13,929.2	62.1768
14,419.9	97.0998	14,419.9	96.096	14,419.9	97.2432	14,419.9	94.7492	14,419.9	96.124	14,419.9	92.2998	14,419.9	94.3409	14,419.9	89.5973	14,419.9	91.3702	14,419.9	86.7867	14,419.9	88.6024	14,419.9	83.6694	14,419.9	85.9131	14,419.9	79.7073	14,419.9	81.4434	14,419.9	78.2868	14,419.9	78.5744	14,419.9	74.3003	14,419.9	76.1029	14,419.9	71.2779	14,419.9	71.4037	14,419.9	67.8523	14,419.9	69.0186	14,419.9	65.7528	14,419.9	66.6353	14,419.9	59.9346	14,419.9	58.9563	14,419.9	54.166	14,419.9	61.5357	14,419.9	56.3656	14,419.9	58.8504	14,419.9	61.6254	14,419.9	63.0114	14,419.9	56.6959	14,419.9	61.512	14,419.9	60.9689
14,928.2	97.6441	14,928.2	96.5931	14,928.2	97.7933	14,928.2	94.7131	14,928.2	96.6273	14,928.2	91.5213	14,928.2	94.1395	14,928.2	88.5552	14,928.2	90.8499	14,928.2	84.3645	14,928.2	87.4747	14,928.2	80.6075	14,928.2	83.6514	14,928.2	76.8797	14,928.2	78.9897	14,928.2	76.2043	14,928.2	76.3065	14,928.2	72.2019	14,928.2	74.0754	14,928.2	68.993	14,928.2	69.0995	14,928.2	65.8339	14,928.2	66.8383	14,928.2	62.9464	14,928.2	63.3585	14,928.2	55.4275	14,928.2	56.3588	14,928.2	47.5995	14,928.2	60.237	14,928.2	55.2358	14,928.2	56.8279	14,928.2	58.5654	14,928.2	61.3298	14,928.2	54.4693	14,928.2	60.1055	14,928.2	59.809
15,455.6	97.8488	15,455.6	96.6981	15,455.6	98.0263	15,455.6	94.4637	15,455.6	96.6652	15,455.6	90.5413	15,455.6	93.6439	15,455.6	87.0254	15,455.6	89.8511	15,455.6	81.2918	15,455.6	85.4612	15,455.6	77.9122	15,455.6	80.5264	15,455.6	73.7972	15,455.6	76.0079	15,455.6	73.9679	15,455.6	73.6493	15,455.6	69.3377	15,455.6	71.6519	15,455.6	66.3284	15,455.6	65.8925	15,455.6	61.7583	15,455.6	63.7658	15,455.6	60.2851	15,455.6	58.9657	15,455.6	51.9538	15,455.6	52.86	15,455.6	46.755	15,455.6	58.5729	15,455.6	53.9556	15,455.6	53.8589	15,455.6	54.7916	15,455.6	59.0781	15,455.6	53.0228	15,455.6	58.942	15,455.6	58.2057
16,000.5	97.6605	16,000.5	96.3198	16,000.5	97.7754	16,000.5	93.8186	16,000.5	96.1665	16,000.5	89.1561	16,000.5	92.8048	16,000.5	84.8409	16,000.5	88.1456	16,000.5	78.0695	16,000.5	82.571	16,000.5	75.96	16,000.5	77.0403	16,000.5	71.0955	16,000.5	73.3916	16,000.5	72.0438	16,000.5	71.0577	16,000.5	66.875	16,000.5	68.9541	16,000.5	64.0656	16,000.5	62.5562	16,000.5	58.743	16,000.5	60.8599	16,000.5	58.8017	16,000.5	56.3309	16,000.5	52.225	16,000.5	51.8502	16,000.5	48.5174	16,000.5	57.4626	16,000.5	52.3708	16,000.5	51.8351	16,000.5	50.6441	16,000.5	56.5834	16,000.5	52.1505	16,000.5	57.2887	16,000.5	56.8744
16,564.5	97.2778	16,564.5	95.7346	16,564.5	97.2764	16,564.5	93.033	16,564.5	95.4038	16,564.5	87.5527	16,564.5	91.6726	16,564.5	82.0936	16,564.5	86.0797	16,564.5	74.9493	16,564.5	78.8687	16,564.5	74.7241	16,564.5	74.1257	16,564.5	70.101	16,564.5	72.7523	16,564.5	70.3543	16,564.5	71.7016	16,564.5	65.6105	16,564.5	69.3086	16,564.5	61.7527	16,564.5	62.8303	16,564.5	56.1898	16,564.5	60.5433	16,564.5	57.8944	16,564.5	58.9711	16,564.5	52.8266	16,564.5	54.2696	16,564.5	46.6664	16,564.5	57.6026	16,564.5	49.7549	16,564.5	51.5481	16,564.5	38.6539	16,564.5	55.9306	16,564.5	50.4108	16,564.5	57.5333	16,564.5	56.9071
17,148.9	96.7382	17,148.9	94.9682	17,148.9	96.7107	17,148.9	92.2419	17,148.9	94.4173	17,148.9	85.9887	17,148.9	90.2192	17,148.9	78.6734	17,148.9	83.6837	17,148.9	72.1246	17,148.9	74.9591	17,148.9	73.8691	17,148.9	72.4471	17,148.9	70.1433	17,148.9	72.7723	17,148.9	70.0297	17,148.9	72.0293	17,148.9	65.2726	17,148.9	69.6499	17,148.9	60.6347	17,148.9	63.6638	17,148.9	53.103	17,148.9	60.7115	17,148.9	57.6867	17,148.9	58.733	17,148.9	51.2426	17,148.9	52.3487	17,148.9	41.4831	17,148.9	57.0779	17,148.9	50.0416	17,148.9	51.3165	17,148.9	34.0746	17,148.9	53.6617	17,148.9	51.7747	17,148.9	58.2262	17,148.9	56.035
17,752.4	96.2881	17,752.4	94.2619	17,752.4	96.0862	17,752.4	91.3011	17,752.4	93.4381	17,752.4	84.1945	17,752.4	88.647	17,752.4	75.9367	17,752.4	80.9652	17,752.4	69.6863	17,752.4	70.8673	17,752.4	73.1976	17,752.4	72.0526	17,752.4	69.5183	17,752.4	72.1273	17,752.4	68.4024	17,752.4	70.7322	17,752.4	62.8904	17,752.4	67.3396	17,752.4	58.6481	17,752.4	61.7258	17,752.4	45.7064	17,752.4	58.8014	17,752.4	56.5734	17,752.4	56.6489	17,752.4	49.4466	17,752.4	50.2245	17,752.4	40.7116	17,752.4	55.4174	17,752.4	49.8091	17,752.4	52.2184	17,752.4	41.4241	17,752.4	52.2239	17,752.4	47.9593	17,752.4	57.5389	17,752.4	52.8011
18,379.4	95.7004	18,379.4	93.5472	18,379.4	95.4178	18,379.4	90.0864	18,379.4	92.5591	18,379.4	82.3921	18,379.4	86.9771	18,379.4	74.7506	18,379.4	78.0236	18,379.4	70.9605	18,379.4	70.3662	18,379.4	72.639	18,379.4	70.2628	18,379.4	68.8535	18,379.4	68.5223	18,379.4	67.9018	18,379.4	67.4807	18,379.4	62.4437	18,379.4	63.5219	18,379.4	58.5236	18,379.4	58.1849	18,379.4	47.0428	18,379.4	56.2	18,379.4	54.8455	18,379.4	53.8043	18,379.4	46.3334	18,379.4	42.5222	18,379.4	33.3625	18,379.4	52.9811	18,379.4	46.0247	18,379.4	49.6107	18,379.4	45.7096	18,379.4	48.6456	18,379.4	44.792	18,379.4	57.2057	18,379.4	50.9137
19,026.9	94.7936	19,026.9	92.4518	19,026.9	94.4376	19,026.9	88.6101	19,026.9	91.2536	19,026.9	80.6484	19,026.9	85.0809	19,026.9	73.5983	19,026.9	75.1511	19,026.9	71.544	19,026.9	71.2927	19,026.9	69.3266	19,026.9	68.7404	19,026.9	64.7753	19,026.9	63.7927	19,026.9	67.291	19,026.9	63.0496	19,026.9	62.0109	19,026.9	61.5457	19,026.9	60.182	19,026.9	58.0603	19,026.9	50.2774	19,026.9	53.8066	19,026.9	52.5601	19,026.9	50.0639	19,026.9	43.0232	19,026.9	22.8772	19,026.9	39.1844	19,026.9	49.3613	19,026.9	44.9086	19,026.9	48.9618	19,026.9	48.2089	19,026.9	47.2868	19,026.9	40.7874	19,026.9	56.7274	19,026.9	46.4354
19,697.8	93.4318	19,697.8	91.0218	19,697.8	93.1039	19,697.8	86.8252	19,697.8	89.7216	19,697.8	77.9146	19,697.8	82.8217	19,697.8	71.9581	19,697.8	73.603	19,697.8	70.4805	19,697.8	71.8536	19,697.8	63.7669	19,697.8	68.4138	19,697.8	60.5155	19,697.8	59.7769	19,697.8	66.7708	19,697.8	62.2982	19,697.8	61.9657	19,697.8	62.1917	19,697.8	60.9543	19,697.8	60.0319	19,697.8	52.1606	19,697.8	50.3228	19,697.8	49.1334	19,697.8	53.4816	19,697.8	46.1144	19,697.8	46.5473	19,697.8	39.0667	19,697.8	41.0456	19,697.8	42.2998	19,697.8	45.859	19,697.8	45.4398	19,697.8	45.8306	19,697.8	39.1498	19,697.8	57.4187	19,697.8	44.0627
19,999.5	92.7604	19,999.5	90.4226	19,999.5	92.3781	19,999.5	86.145	19,999.5	89.0415	19,999.5	75.6722	19,999.5	81.756	19,999.5	71.6655	19,999.5	73.1732	19,999.5	70.1712	19,999.5	71.2849	19,999.5	62.9903	19,999.5	68.5339	19,999.5	61.1987	19,999.5	57.2123	19,999.5	67.8144	19,999.5	63.2651	19,999.5	63.1509	19,999.5	64.8675	19,999.5	62.4345	19,999.5	63.4487	19,999.5	55.1228	19,999.5	53.5881	19,999.5	57.3947	19,999.5	57.3067	19,999.5	50.3803	19,999.5	55.3129	19,999.5	50.3083	19,999.5	49.1116	19,999.5	53.2054	19,999.5	54.9745	19,999.5	49.5798	19,999.5	41.5965	19,999.5	42.3298	19,999.5	52.7851	19,999.5	32.0635
