"Early Reflections"											
"Floor Bounce"		"Ceiling Bounce"		"Front Wall Bounce"		"Side Wall Bounce"		"Rear Wall Bounce"		"Total Early Reflection"	
"Frequency [Hz]"	"Sound Pessure Level [dB]  / [2.83V 1m] "	"Frequency [Hz]"	"Sound Pessure Level [dB]  / [2.83V 1m] "	"Frequency [Hz]"	"Sound Pessure Level [dB]  / [2.83V 1m] "	"Frequency [Hz]"	"Sound Pessure Level [dB]  / [2.83V 1m] "	"Frequency [Hz]"	"Sound Pessure Level [dB]  / [2.83V 1m] "	"Frequency [Hz]"	"Sound Pessure Level [dB]  / [2.83V 1m] "
20.5078	64.2751	20.5078	63.8474	20.5078	64.1797	20.5078	64.0464	20.5078	63.6718	20.5078	64.0461
23.4375	66.5758	23.4375	66.1103	23.4375	66.4668	23.4375	66.3244	23.4375	65.9433	23.4375	66.3271
26.3672	68.4259	26.3672	67.9763	26.3672	68.3203	26.3672	68.1819	26.3672	67.8245	26.3672	68.186
29.2969	69.9908	29.2969	69.5283	29.2969	69.8814	29.2969	69.7316	29.2969	69.3639	29.2969	69.7398
32.2266	71.5614	32.2266	71.0843	32.2266	71.4451	32.2266	71.2926	32.2266	70.9356	32.2266	71.3033
35.1563	72.9268	35.1563	72.4492	35.1563	72.8094	35.1563	72.653	35.1563	72.3119	35.1563	72.6676
38.0859	74.2222	38.0859	73.7404	38.0859	74.1047	38.0859	73.9349	38.0859	73.577	38.0859	73.9542
41.0156	75.3476	41.0156	74.8529	41.0156	75.2223	41.0156	75.0551	41.0156	74.7379	41.0156	75.0777
43.9453	76.5521	43.9453	76.0539	43.9453	76.4338	43.9453	76.2406	43.9453	75.8804	43.9453	76.27
46.875	77.6697	46.875	77.1498	46.875	77.5489	46.875	77.3251	46.875	76.9267	46.875	77.3644
49.8047	78.6388	49.8047	78.1191	49.8047	78.5124	49.8047	78.2954	49.8047	77.93	49.8047	78.336
52.7344	79.5995	52.7344	79.0921	52.7344	79.4812	52.7344	79.2472	52.7344	78.8713	52.7344	79.2949
55.6641	80.4733	55.6641	79.9767	55.6641	80.3561	55.6641	80.1186	55.6641	79.7696	55.6641	80.1718
58.5938	81.389	58.5938	80.8828	58.5938	81.2674	58.5938	81.0223	58.5938	80.6897	58.5938	81.0811
61.5234	82.1433	61.5234	81.6053	61.5234	82.0177	61.5234	81.7354	61.5234	81.3664	61.5234	81.8071
64.4531	82.944	64.4531	82.3828	64.4531	82.8139	64.4531	82.5073	64.4531	82.1095	64.4531	82.5871
67.3828	83.6469	67.3828	83.0708	67.3828	83.5131	67.3828	83.1857	67.3828	82.7805	67.3828	83.2748
70.3125	84.2458	70.3125	83.663	70.3125	84.0995	70.3125	83.787	70.3125	83.4452	70.3125	83.8771
73.2422	84.8412	73.2422	84.3299	73.2422	84.7323	73.2422	84.3823	73.2422	84.0253	73.2422	84.4894
76.1719	85.4274	76.1719	84.9289	76.1719	85.3208	76.1719	84.9624	76.1719	84.6161	76.1719	85.0759
79.1016	85.8721	79.1016	85.3571	79.1016	85.7628	79.1016	85.3825	79.1016	85.0636	79.1016	85.5091
82.0313	86.3902	82.0313	85.8611	82.0313	86.291	82.0313	85.855	82.0313	85.4543	82.0313	85.9984
84.9609	86.8105	84.9609	86.248	84.9609	86.7067	84.9609	86.2297	84.9609	85.753	84.9609	86.3844
87.8906	87.0442	87.8906	86.5344	87.8906	86.942	87.8906	86.4957	87.8906	86.1181	87.8906	86.6497
90.8203	87.2656	90.8203	86.7617	90.8203	87.1575	90.8203	86.7204	90.8203	86.4544	90.8203	86.8832
93.75	87.7144	93.75	87.1504	93.75	87.6263	93.75	87.0665	93.75	86.6347	93.75	87.2657
96.6797	87.838	96.6797	87.2746	96.6797	87.7478	96.6797	87.1793	96.6797	86.7152	96.6797	87.3805
102.539	88.1123	102.539	87.6889	102.539	88.0769	102.539	87.4472	102.539	86.9944	102.539	87.685
105.469	88.2237	105.469	87.8293	105.469	88.2067	105.469	87.5438	105.469	87.0634	105.469	87.7957
108.398	88.4189	108.398	87.9566	108.398	88.3764	108.398	87.6818	108.398	87.1821	108.398	87.9473
111.328	88.5772	111.328	88.0539	111.328	88.5125	111.328	87.7869	111.328	87.2889	111.328	88.0678
117.188	88.7441	117.188	88.2196	117.188	88.6844	117.188	87.8898	117.188	87.3594	117.188	88.2038
120.117	88.796	120.117	88.2577	120.117	88.7316	120.117	87.9084	120.117	87.3972	120.117	88.2394
125.977	88.762	125.977	88.1233	125.977	88.6767	125.977	87.7687	125.977	87.2171	125.977	88.1362
128.906	88.7408	128.906	88.0944	128.906	88.6594	128.906	87.7101	128.906	87.0959	128.906	88.0929
134.766	88.5311	134.766	87.8656	134.766	88.4329	134.766	87.4527	134.766	86.9176	134.766	87.862
137.695	88.4873	137.695	87.7665	137.695	88.3753	137.695	87.3485	137.695	86.8313	137.695	87.7825
143.555	88.4993	143.555	87.6225	143.555	88.35	143.555	87.2088	143.555	86.5933	143.555	87.6898
149.414	88.4525	149.414	87.517	149.414	88.3043	149.414	87.0615	149.414	86.334	149.414	87.5835
155.273	88.4578	155.273	87.5713	155.273	88.3335	155.273	86.9871	155.273	86.1712	155.273	87.5607
158.203	88.5377	158.203	87.5451	158.203	88.3748	158.203	86.9937	158.203	86.1778	158.203	87.5852
164.063	88.734	164.063	87.8114	164.063	88.6166	164.063	87.1492	164.063	86.2338	164.063	87.7792
169.922	88.2914	169.922	87.5159	169.922	88.2052	169.922	86.7363	169.922	85.9709	169.922	87.3887
175.781	88.1313	175.781	87.2615	175.781	88.0347	175.781	86.4427	175.781	85.7397	175.781	87.1643
181.641	88.2014	181.641	87.1187	181.641	88.0546	181.641	86.321	181.641	85.3962	181.641	87.0974
190.43	88.1323	190.43	87.3997	190.43	88.1142	190.43	86.2389	190.43	85.1048	190.43	87.0928
196.289	88.0067	196.289	87.4067	196.289	88.0423	196.289	86.0976	196.289	85.1237	196.289	87.0079
202.148	88.0628	202.148	87.4179	202.148	88.1226	202.148	86.0388	202.148	84.9077	202.148	87.0112
210.938	88.2181	210.938	87.3386	210.938	88.173	210.938	86.0015	210.938	84.5748	210.938	87.0079
216.797	88.0274	216.797	87.2384	216.797	87.9934	216.797	85.8154	216.797	84.6121	216.797	86.8492
225.586	88.1377	225.586	87.8699	225.586	88.3745	225.586	85.9113	225.586	84.5874	225.586	87.1111
234.375	88.4082	234.375	87.9317	234.375	88.4725	234.375	85.9777	234.375	84.4756	234.375	87.2075
240.234	88.2848	240.234	87.5093	240.234	88.2296	240.234	85.6344	240.234	84.2438	240.234	86.9309
249.023	88.6845	249.023	87.4204	249.023	88.4589	249.023	85.6338	249.023	83.554	249.023	87.0298
257.813	88.9142	257.813	87.6164	257.813	88.5902	257.813	85.8243	257.813	83.8745	257.813	87.2125
266.602	88.5442	266.602	86.7773	266.602	88.1311	266.602	85.1649	266.602	83.098	266.602	86.6504
278.32	88.3647	278.32	87.416	278.32	88.2391	278.32	85.2278	278.32	83.1493	278.32	86.7607
287.109	88.3106	287.109	87.8722	287.109	88.3967	287.109	85.1983	287.109	83.0882	287.109	86.8647
295.898	88.5502	295.898	88.1188	295.898	88.5495	295.898	85.1094	295.898	82.6378	295.898	86.9561
307.617	88.5191	307.617	87.0896	307.617	88.1455	307.617	84.3803	307.617	82.7429	307.617	86.4728
319.336	89.6759	319.336	87.5346	319.336	89.3668	319.336	84.8582	319.336	83.3806	319.336	87.3882
331.055	89.6871	331.055	87.9079	331.055	89.2491	331.055	85.1039	331.055	82.6249	331.055	87.41
342.773	88.8328	342.773	87.3031	342.773	88.4807	342.773	84.1248	342.773	82.6617	342.773	86.634
354.492	89.2303	354.492	88.0284	354.492	88.9751	354.492	84.5154	354.492	81.9042	354.492	87.0692
366.211	89.3404	366.211	88.2841	366.211	89.018	366.211	84.255	366.211	81.235	366.211	87.0704
377.93	89.6194	377.93	88.4927	377.93	89.1411	377.93	84.3968	377.93	81.6589	377.93	87.2504
392.578	88.663	392.578	87.4075	392.578	88.0499	392.578	83.0944	392.578	80.7819	392.578	86.1533
407.227	88.3757	407.227	87.3567	407.227	87.8503	407.227	82.5621	407.227	81.2023	407.227	85.9204
421.875	88.6815	421.875	87.3199	421.875	87.8377	421.875	82.0723	421.875	80.4943	421.875	85.8656
436.523	88.5443	436.523	87.1701	436.523	87.8429	436.523	81.6607	436.523	79.6935	436.523	85.7244
451.172	88.9478	451.172	87.4277	451.172	88.213	451.172	81.8369	451.172	78.6473	451.172	86.02
465.82	88.4132	465.82	87.4906	465.82	87.7411	465.82	81.1683	465.82	79.0637	465.82	85.6169
483.398	88.438	483.398	88.1352	483.398	87.7831	483.398	80.6393	483.398	78.6571	483.398	85.6851
500.977	87.7224	500.977	87.15	500.977	86.7721	500.977	79.1894	500.977	79.0732	500.977	84.7338
518.555	87.0418	518.555	86.089	518.555	86.4512	518.555	78.5948	518.555	79.0628	518.555	84.1717
536.133	87.3434	536.133	85.8851	536.133	87.1022	536.133	78.5396	536.133	79.2649	536.133	84.5131
553.711	88.1615	553.711	86.5042	553.711	87.4131	553.711	78.7109	553.711	76.7038	553.711	84.9071
574.219	87.753	574.219	85.2653	574.219	86.7252	574.219	77.948	574.219	77.2628	574.219	84.2218
594.727	87.1516	594.727	85.3292	594.727	87.0269	594.727	78.116	594.727	77.1578	594.727	84.2479
615.234	87.339	615.234	86.0809	615.234	86.9998	615.234	78.0581	615.234	75.9249	615.234	84.3674
638.672	87.2147	638.672	85.8176	638.672	86.5328	638.672	77.6734	638.672	74.3742	638.672	84.0079
659.18	86.3118	659.18	84.6742	659.18	85.9836	659.18	77.0865	659.18	75.9763	659.18	83.3085
682.617	87.2647	682.617	85.0166	682.617	87.0967	682.617	77.4776	682.617	77.2906	682.617	84.2122
706.055	87.654	706.055	85.6987	706.055	87.0481	706.055	77.8441	706.055	75.6984	706.055	84.381
732.422	87.0123	732.422	85.6493	732.422	86.6565	732.422	77.9641	732.422	75.346	732.422	84.0322
758.789	88.129	758.789	86.3194	758.789	87.5748	758.789	78.8469	758.789	77.3389	758.789	84.9722
785.156	86.5905	785.156	86.2098	785.156	86.1668	785.156	79.8317	785.156	76.0972	785.156	84.0468
811.523	86.7153	811.523	86.7714	811.523	86.4448	811.523	80.0932	811.523	77.0227	811.523	84.3596
840.82	86.2754	840.82	85.669	840.82	86.6529	840.82	80.6343	840.82	73.6014	840.82	84.2034
870.117	86.045	870.117	85.3853	870.117	86.7002	870.117	81.0979	870.117	75.9416	870.117	84.2534
902.344	85.1564	902.344	86.1548	902.344	86.9753	902.344	82.6767	902.344	74.382	902.344	84.6835
931.641	85.4653	931.641	86.0342	931.641	87.218	931.641	82.7815	931.641	76.9389	931.641	84.8781
966.797	85.3557	966.797	84.7339	966.797	87.4596	966.797	83.3209	966.797	76.4361	966.797	84.9363
999.023	85.4703	999.023	85.1101	999.023	87.5078	999.023	83.6001	999.023	76.5974	999.023	85.0939
1,034.18	85.7886	1,034.18	84.6671	1,034.18	87.8345	1,034.18	83.7065	1,034.18	76.2121	1,034.18	85.2659
1,072.27	85.9579	1,072.27	86.2009	1,072.27	87.8334	1,072.27	84.528	1,072.27	76.0694	1,072.27	85.692
1,110.35	85.8958	1,110.35	85.7208	1,110.35	87.6605	1,110.35	84.5563	1,110.35	77.3853	1,110.35	85.5769
1,148.44	86.8924	1,148.44	86.2317	1,148.44	88.1386	1,148.44	84.8468	1,148.44	77.8236	1,148.44	86.0708
1,189.45	87.5956	1,189.45	84.2395	1,189.45	88.4141	1,189.45	84.6234	1,189.45	77.2687	1,189.45	86.0369
1,230.47	87.7494	1,230.47	83.907	1,230.47	88.437	1,230.47	84.66	1,230.47	76.7386	1,230.47	86.0515
1,274.41	87.6873	1,274.41	84.9943	1,274.41	88.0978	1,274.41	84.7136	1,274.41	77.5268	1,274.41	86.0023
1,318.36	88.031	1,318.36	84.0702	1,318.36	87.5988	1,318.36	84.7654	1,318.36	78.3278	1,318.36	85.8063
1,365.23	87.9069	1,365.23	84.5436	1,365.23	86.975	1,365.23	84.3828	1,365.23	78.0697	1,365.23	85.4553
1,415.04	87.5662	1,415.04	84.6354	1,415.04	86.9299	1,415.04	84.1686	1,415.04	77.0865	1,415.04	85.2961
1,464.84	86.8611	1,464.84	84.9135	1,464.84	87.1339	1,464.84	84.3344	1,464.84	77.0035	1,464.84	85.3284
1,514.65	87.0466	1,514.65	84.8232	1,514.65	87.3464	1,514.65	84.7518	1,514.65	77.7839	1,514.65	85.5801
1,570.31	87.0564	1,570.31	84.8555	1,570.31	87.3371	1,570.31	84.728	1,570.31	78.1355	1,570.31	85.5806
1,623.05	86.3678	1,623.05	84.3199	1,623.05	87.0117	1,623.05	84.2238	1,623.05	78.1012	1,623.05	85.1277
1,681.64	86.0645	1,681.64	83.8963	1,681.64	86.6956	1,681.64	84.1204	1,681.64	77.9811	1,681.64	84.8756
1,740.23	85.1339	1,740.23	83.1827	1,740.23	86.7773	1,740.23	84.327	1,740.23	78.1799	1,740.23	84.7941
1,801.76	83.8488	1,801.76	82.4089	1,801.76	87.2114	1,801.76	85.0052	1,801.76	78.4291	1,801.76	85.0455
1,866.21	82.3678	1,866.21	82.742	1,866.21	86.7836	1,866.21	85.0313	1,866.21	78.4855	1,866.21	84.7802
1,930.66	81.7749	1,930.66	81.6561	1,930.66	86.4248	1,930.66	84.7602	1,930.66	77.9167	1,930.66	84.3884
2,000.98	80.8765	2,000.98	80.019	2,000.98	87.4473	2,000.98	85.3419	2,000.98	77.7494	2,000.98	84.9657
2,071.29	80.4128	2,071.29	80.5676	2,071.29	88.6421	2,071.29	85.835	2,071.29	78.792	2,071.29	85.7855
2,144.53	79.6292	2,144.53	80.8843	2,144.53	88.7129	2,144.53	85.551	2,144.53	78.7663	2,144.53	85.7017
2,217.77	78.796	2,217.77	79.0493	2,217.77	88.4858	2,217.77	85.0544	2,217.77	78.6786	2,217.77	85.3105
2,296.88	78.3035	2,296.88	74.4232	2,296.88	89.7279	2,296.88	85.9513	2,296.88	79.5596	2,296.88	86.2912
2,378.91	81.0219	2,378.91	72.8267	2,378.91	90.5123	2,378.91	86.7057	2,378.91	79.96	2,378.91	87.0869
2,460.94	83.4297	2,460.94	75.3686	2,460.94	90.4946	2,460.94	87.0773	2,460.94	79.8552	2,460.94	87.3117
2,548.83	82.1542	2,548.83	77.3732	2,548.83	89.7208	2,548.83	86.4327	2,548.83	79.6893	2,548.83	86.605
2,639.65	78.7771	2,639.65	75.2178	2,639.65	88.6408	2,639.65	84.5598	2,639.65	76.1886	2,639.65	85.1071
2,733.4	79.0565	2,733.4	75.599	2,733.4	88.5986	2,733.4	84.8674	2,733.4	76.715	2,733.4	85.2092
2,827.15	79.0735	2,827.15	75.8244	2,827.15	88.7165	2,827.15	84.9408	2,827.15	75.6469	2,827.15	85.2929
2,926.76	79.746	2,926.76	76.7531	2,926.76	88.4098	2,926.76	84.5291	2,926.76	74.9728	2,926.76	84.9939
3,032.23	80.6424	3,032.23	79.9325	3,032.23	88.0265	3,032.23	83.8101	3,032.23	74.1906	3,032.23	84.6413
3,137.7	81.3896	3,137.7	79.8871	3,137.7	88.1156	3,137.7	84.059	3,137.7	75.4538	3,137.7	84.8226
3,249.02	80.974	3,249.02	80.64	3,249.02	87.9581	3,249.02	84.0122	3,249.02	74.951	3,249.02	84.7209
3,363.28	81.3548	3,363.28	81.5126	3,363.28	87.3794	3,363.28	83.8847	3,363.28	74.4405	3,363.28	84.4193
3,483.4	82.3554	3,483.4	82.6534	3,483.4	87.2608	3,483.4	84.4452	3,483.4	73.934	3,483.4	84.6876
3,606.45	82.553	3,606.45	83.5237	3,606.45	86.5938	3,606.45	84.0533	3,606.45	74.0061	3,606.45	84.3191
3,732.42	82.7654	3,732.42	82.6226	3,732.42	86.2394	3,732.42	83.7757	3,732.42	74.5118	3,732.42	83.9999
3,864.26	82.2758	3,864.26	82.3101	3,864.26	86.7406	3,864.26	84.1482	3,864.26	73.8552	3,864.26	84.2976
3,999.02	82.5	3,999.02	81.8441	3,999.02	87.1915	3,999.02	83.9612	3,999.02	73.7786	3,999.02	84.4355
4,139.65	82.2061	4,139.65	81.7878	4,139.65	87.0302	4,139.65	83.8996	4,139.65	73.3088	4,139.65	84.303
4,286.13	81.7239	4,286.13	82.6963	4,286.13	87.7513	4,286.13	84.1997	4,286.13	74.3818	4,286.13	84.8197
4,438.48	82.0024	4,438.48	83.0882	4,438.48	88.0353	4,438.48	84.6771	4,438.48	74.4761	4,438.48	85.1745
4,593.75	83.4458	4,593.75	83.7592	4,593.75	88.2451	4,593.75	84.3098	4,593.75	71.9283	4,593.75	85.292
4,757.81	84.426	4,757.81	82.7783	4,757.81	88.2839	4,757.81	84.1778	4,757.81	73.02	4,757.81	85.2912
4,924.8	83.8285	4,924.8	82.2766	4,924.8	88.4194	4,924.8	84.2823	4,924.8	72.9258	4,924.8	85.3123
5,097.66	83.7281	5,097.66	81.7924	5,097.66	87.3901	5,097.66	83.7596	5,097.66	72.0331	5,097.66	84.5564
5,279.3	84.637	5,279.3	81.7975	5,279.3	86.1983	5,279.3	83.0747	5,279.3	71.1178	5,279.3	83.852
5,463.87	85.0289	5,463.87	81.9118	5,463.87	86.3441	5,463.87	82.831	5,463.87	71.79	5,463.87	83.9133
5,657.23	84.2159	5,657.23	81.7902	5,657.23	85.8307	5,657.23	82.4421	5,657.23	72.1501	5,657.23	83.4312
5,856.45	84.3572	5,856.45	81.7063	5,856.45	85.8078	5,856.45	82.8003	5,856.45	71.6357	5,856.45	83.5426
6,061.52	84.9301	6,061.52	80.7716	6,061.52	86.0743	6,061.52	83.2665	6,061.52	72.3306	6,061.52	83.8434
6,275.39	85.5384	6,275.39	81.1714	6,275.39	86.3965	6,275.39	83.5025	6,275.39	71.3513	6,275.39	84.1759
6,498.05	85.73	6,498.05	80.91	6,498.05	86.478	6,498.05	83.3989	6,498.05	71.1588	6,498.05	84.1942
6,726.56	85.2634	6,726.56	81.1636	6,726.56	86.7076	6,726.56	82.9503	6,726.56	71.52	6,726.56	84.1079
6,963.87	85.3755	6,963.87	81.459	6,963.87	86.6938	6,963.87	82.9191	6,963.87	71.7967	6,963.87	84.1288
7,209.96	85.4547	7,209.96	81.8096	7,209.96	86.3407	7,209.96	82.3716	7,209.96	71.5005	7,209.96	83.8378
7,464.84	85.1611	7,464.84	81.6887	7,464.84	86.2311	7,464.84	81.9248	7,464.84	71.4531	7,464.84	83.6069
7,728.52	85.2312	7,728.52	81.8876	7,728.52	86.4206	7,728.52	81.4921	7,728.52	70.7523	7,728.52	83.617
8,000.98	85.5464	8,000.98	81.8872	8,000.98	87.0877	8,000.98	82.0957	8,000.98	70.2933	8,000.98	84.157
8,282.23	85.2782	8,282.23	81.7886	8,282.23	87.4644	8,282.23	82.216	8,282.23	70.791	8,282.23	84.3446
8,575.2	85.5415	8,575.2	81.827	8,575.2	87.7302	8,575.2	81.9794	8,575.2	70.4199	8,575.2	84.4791
8,876.95	85.1892	8,876.95	81.9094	8,876.95	87.5421	8,876.95	81.8246	8,876.95	72.3499	8,876.95	84.3044
9,190.43	84.8241	9,190.43	81.896	9,190.43	87.3129	9,190.43	81.564	9,190.43	71.5544	9,190.43	84.0602
9,512.7	85.2116	9,512.7	82.1845	9,512.7	87.2504	9,512.7	81.3846	9,512.7	70.877	9,512.7	84.0594
9,849.61	85.1337	9,849.61	82.1891	9,849.61	87.3801	9,849.61	81.2949	9,849.61	70.2344	9,849.61	84.1001
10,195.3	84.7071	10,195.3	81.8735	10,195.3	87.6788	10,195.3	81.2137	10,195.3	71.7108	10,195.3	84.1864
10,555.7	85.3137	10,555.7	81.6915	10,555.7	87.8507	10,555.7	81.0701	10,555.7	71.4386	10,555.7	84.3329
10,927.7	85.1878	10,927.7	81.5834	10,927.7	87.7033	10,927.7	80.924	10,927.7	71.3508	10,927.7	84.1917
11,314.5	85.3064	11,314.5	81.5201	11,314.5	87.3792	11,314.5	80.6361	11,314.5	70.8459	11,314.5	83.9569
11,712.9	85.5224	11,712.9	81.4752	11,712.9	86.7656	11,712.9	80.3034	11,712.9	70.9348	11,712.9	83.577
12,126	85.5728	12,126	81.3334	12,126	86.6869	12,126	80.5883	12,126	70.8865	12,126	83.5855
12,553.7	85.3591	12,553.7	80.9695	12,553.7	86.355	12,553.7	81.0342	12,553.7	70.5482	12,553.7	83.4337
12,996.1	85.3324	12,996.1	80.7466	12,996.1	85.9612	12,996.1	81.3911	12,996.1	71.1345	12,996.1	83.3001
13,453.1	84.8867	13,453.1	80.4256	13,453.1	85.6226	13,453.1	81.5472	13,453.1	71.5392	13,453.1	83.0771
13,927.7	84.6999	13,927.7	79.868	13,927.7	85.2716	13,927.7	81.6041	13,927.7	70.8491	13,927.7	82.8539
14,419.9	84.478	14,419.9	79.6265	14,419.9	84.9339	14,419.9	81.4759	14,419.9	69.9462	14,419.9	82.5998
14,929.7	83.8904	14,929.7	79.2661	14,929.7	85.1126	14,929.7	81.872	14,929.7	70.1391	14,929.7	82.6895
15,454.1	83.9319	15,454.1	79.3779	15,454.1	85.6835	15,454.1	82.0252	15,454.1	69.8648	15,454.1	83.0235
15,999	83.5609	15,999	79.1855	15,999	85.9574	15,999	81.9565	15,999	68.8622	15,999	83.0779
16,564.5	83.3239	16,564.5	78.6894	16,564.5	85.8835	16,564.5	80.8918	16,564.5	67.1768	16,564.5	82.6837
17,147.5	82.9301	17,147.5	78.2079	17,147.5	86.4628	17,147.5	80.9671	17,147.5	65.6444	17,147.5	82.9667
17,753.9	82.8143	17,753.9	77.1585	17,753.9	86.915	17,753.9	80.412	17,753.9	62.1845	17,753.9	83.0719
18,377.9	82.5459	18,377.9	75.8592	18,377.9	86.7315	18,377.9	79.3085	18,377.9	61.3912	18,377.9	82.6715
19,028.3	81.9741	19,028.3	74.3974	19,028.3	86.6591	19,028.3	78.1989	19,028.3	58.987	19,028.3	82.3451
19,699.2	81.6362	19,699.2	72.2325	19,699.2	86.7884	19,699.2	77.0909	19,699.2	59.977	19,699.2	82.2289
19,998	81.6517	19,998	71.3375	19,998	86.7234	19,998	76.612	19,998	61.4441	19,998	82.1178
