"SPL Vertical"																																																																							
"On-Axis"		"10°"		"-10°"		"20°"		"-20°"		"30°"		"-30°"		"40°"		"-40°"		"50°"		"-50°"		"60°"		"-60°"		"70°"		"-70°"		"80°"		"-80°"		"90°"		"-90°"		"100°"		"-100°"		"110°"		"-110°"		"120°"		"-120°"		"130°"		"-130°"		"140°"		"-140°"		"150°"		"-150°"		"160°"		"-160°"		"170°"		"-170°"		"180°"	
"Frequency [Hz]"	"Sound Pessure Level [dB]  / [2.83V 1m] "	"Frequency [Hz]"	"Sound Pessure Level [dB]  / [2.83V 1m] "	"Frequency [Hz]"	"Sound Pessure Level [dB]  / [2.83V 1m] "	"Frequency [Hz]"	"Sound Pessure Level [dB]  / [2.83V 1m] "	"Frequency [Hz]"	"Sound Pessure Level [dB]  / [2.83V 1m] "	"Frequency [Hz]"	"Sound Pessure Level [dB]  / [2.83V 1m] "	"Frequency [Hz]"	"Sound Pessure Level [dB]  / [2.83V 1m] "	"Frequency [Hz]"	"Sound Pessure Level [dB]  / [2.83V 1m] "	"Frequency [Hz]"	"Sound Pessure Level [dB]  / [2.83V 1m] "	"Frequency [Hz]"	"Sound Pessure Level [dB]  / [2.83V 1m] "	"Frequency [Hz]"	"Sound Pessure Level [dB]  / [2.83V 1m] "	"Frequency [Hz]"	"Sound Pessure Level [dB]  / [2.83V 1m] "	"Frequency [Hz]"	"Sound Pessure Level [dB]  / [2.83V 1m] "	"Frequency [Hz]"	"Sound Pessure Level [dB]  / [2.83V 1m] "	"Frequency [Hz]"	"Sound Pessure Level [dB]  / [2.83V 1m] "	"Frequency [Hz]"	"Sound Pessure Level [dB]  / [2.83V 1m] "	"Frequency [Hz]"	"Sound Pessure Level [dB]  / [2.83V 1m] "	"Frequency [Hz]"	"Sound Pessure Level [dB]  / [2.83V 1m] "	"Frequency [Hz]"	"Sound Pessure Level [dB]  / [2.83V 1m] "	"Frequency [Hz]"	"Sound Pessure Level [dB]  / [2.83V 1m] "	"Frequency [Hz]"	"Sound Pessure Level [dB]  / [2.83V 1m] "	"Frequency [Hz]"	"Sound Pessure Level [dB]  / [2.83V 1m] "	"Frequency [Hz]"	"Sound Pessure Level [dB]  / [2.83V 1m] "	"Frequency [Hz]"	"Sound Pessure Level [dB]  / [2.83V 1m] "	"Frequency [Hz]"	"Sound Pessure Level [dB]  / [2.83V 1m] "	"Frequency [Hz]"	"Sound Pessure Level [dB]  / [2.83V 1m] "	"Frequency [Hz]"	"Sound Pessure Level [dB]  / [2.83V 1m] "	"Frequency [Hz]"	"Sound Pessure Level [dB]  / [2.83V 1m] "	"Frequency [Hz]"	"Sound Pessure Level [dB]  / [2.83V 1m] "	"Frequency [Hz]"	"Sound Pessure Level [dB]  / [2.83V 1m] "	"Frequency [Hz]"	"Sound Pessure Level [dB]  / [2.83V 1m] "	"Frequency [Hz]"	"Sound Pessure Level [dB]  / [2.83V 1m] "	"Frequency [Hz]"	"Sound Pessure Level [dB]  / [2.83V 1m] "	"Frequency [Hz]"	"Sound Pessure Level [dB]  / [2.83V 1m] "	"Frequency [Hz]"	"Sound Pessure Level [dB]  / [2.83V 1m] "	"Frequency [Hz]"	"Sound Pessure Level [dB]  / [2.83V 1m] "
20.5078	64.1927	20.5078	64.1387	20.5078	64.2354	20.5078	64.0752	20.5078	64.2651	20.5078	64.0043	20.5078	64.2803	20.5078	63.9277	20.5078	64.2797	20.5078	63.8475	20.5078	64.2625	20.5078	63.7654	20.5078	64.2284	20.5078	63.6835	20.5078	64.1778	20.5078	63.6036	20.5078	64.1118	20.5078	63.5275	20.5078	64.0324	20.5078	63.457	20.5078	63.9423	20.5078	63.3939	20.5078	63.8451	20.5078	63.34	20.5078	63.7446	20.5078	63.2966	20.5078	63.645	20.5078	63.2654	20.5078	63.5504	20.5078	63.2477	20.5078	63.4645	20.5078	63.2446	20.5078	63.3904	20.5078	63.2571	20.5078	63.3303	20.5078	63.2856
23.4375	66.4812	23.4375	66.4222	23.4375	66.5285	23.4375	66.3535	23.4375	66.5625	23.4375	66.2773	23.4375	66.5813	23.4375	66.1955	23.4375	66.5836	23.4375	66.1102	23.4375	66.5687	23.4375	66.0235	23.4375	66.5362	23.4375	65.9374	23.4375	66.4865	23.4375	65.8539	23.4375	66.4207	23.4375	65.7749	23.4375	66.341	23.4375	65.7026	23.4375	66.2499	23.4375	65.6387	23.4375	66.151	23.4375	65.585	23.4375	66.0482	23.4375	65.5433	23.4375	65.9454	23.4375	65.5151	23.4375	65.8467	23.4375	65.5016	23.4375	65.7558	23.4375	65.5039	23.4375	65.6758	23.4375	65.5225	23.4375	65.6092	23.4375	65.5578
26.3672	68.3346	26.3672	68.2775	26.3672	68.3804	26.3672	68.211	26.3672	68.4131	26.3672	68.1373	26.3672	68.4312	26.3672	68.0583	26.3672	68.4335	26.3672	67.9762	26.3672	68.4192	26.3672	67.893	26.3672	68.3882	26.3672	67.8108	26.3672	68.341	26.3672	67.7316	26.3672	68.2787	26.3672	67.6574	26.3672	68.2035	26.3672	67.5901	26.3672	68.1179	26.3672	67.5313	26.3672	68.0253	26.3672	67.4828	26.3672	67.9292	26.3672	67.4458	26.3672	67.8334	26.3672	67.4218	26.3672	67.7414	26.3672	67.4116	26.3672	67.6567	26.3672	67.416	26.3672	67.5818	26.3672	67.4355	26.3672	67.5191	26.3672	67.47
29.2969	69.8975	29.2969	69.8389	29.2969	69.9444	29.2969	69.7706	29.2969	69.9778	29.2969	69.6946	29.2969	69.9962	29.2969	69.6131	29.2969	69.9982	29.2969	69.5282	29.2969	69.9833	29.2969	69.4421	29.2969	69.9511	29.2969	69.3569	29.2969	69.9022	29.2969	69.2748	29.2969	69.838	29.2969	69.1979	29.2969	69.7604	29.2969	69.1281	29.2969	69.6723	29.2969	69.0673	29.2969	69.5771	29.2969	69.0173	29.2969	69.4785	29.2969	68.9795	29.2969	69.3803	29.2969	68.9553	29.2969	69.2861	29.2969	68.9456	29.2969	69.1994	29.2969	68.9509	29.2969	69.1227	29.2969	68.9716	29.2969	69.0583	29.2969	69.0076
32.2266	71.462	32.2266	71.4013	32.2266	71.5111	32.2266	71.3309	32.2266	71.5465	32.2266	71.253	32.2266	71.5668	32.2266	71.1699	32.2266	71.5708	32.2266	71.0839	32.2266	71.5577	32.2266	70.9972	32.2266	71.5274	32.2266	70.9123	32.2266	71.4805	32.2266	70.8312	32.2266	71.4184	32.2266	70.7561	32.2266	71.3431	32.2266	70.6889	32.2266	71.2573	32.2266	70.6314	32.2266	71.1643	32.2266	70.5851	32.2266	71.0676	32.2266	70.5514	32.2266	70.9709	32.2266	70.5311	32.2266	70.8777	32.2266	70.5251	32.2266	70.7913	32.2266	70.5339	32.2266	70.7141	32.2266	70.5576	32.2266	70.6485	32.2266	70.596
35.1563	72.8274	35.1563	72.7663	35.1563	72.8766	35.1563	72.6956	35.1563	72.9121	35.1563	72.6174	35.1563	72.9322	35.1563	72.5343	35.1563	72.936	35.1563	72.4487	35.1563	72.9227	35.1563	72.363	35.1563	72.8924	35.1563	72.2797	35.1563	72.8459	35.1563	72.2012	35.1563	72.7848	35.1563	72.1295	35.1563	72.7112	35.1563	72.0665	35.1563	72.6281	35.1563	72.0139	35.1563	72.5388	35.1563	71.9729	35.1563	72.4467	35.1563	71.9446	35.1563	72.3553	35.1563	71.9293	35.1563	72.2679	35.1563	71.9276	35.1563	72.187	35.1563	71.9394	35.1563	72.1148	35.1563	71.9645	35.1563	72.0529	35.1563	72.0025
38.0859	74.1249	38.0859	74.0636	38.0859	74.1739	38.0859	73.992	38.0859	74.2087	38.0859	73.9126	38.0859	74.2278	38.0859	73.8278	38.0859	74.23	38.0859	73.74	38.0859	74.2148	38.0859	73.6518	38.0859	74.1822	38.0859	73.5657	38.0859	74.133	38.0859	73.4839	38.0859	74.0689	38.0859	73.4088	38.0859	73.9919	38.0859	73.3422	38.0859	73.905	38.0859	73.2858	38.0859	73.8115	38.0859	73.2409	38.0859	73.7151	38.0859	73.2086	38.0859	73.6193	38.0859	73.1897	38.0859	73.5277	38.0859	73.1845	38.0859	73.4432	38.0859	73.1935	38.0859	73.3682	38.0859	73.2167	38.0859	73.3047	38.0859	73.2539
41.0156	75.2427	41.0156	75.1792	41.0156	75.294	41.0156	75.1058	41.0156	75.3313	41.0156	75.025	41.0156	75.3531	41.0156	74.9395	41.0156	75.3583	41.0156	74.852	41.0156	75.3467	41.0156	74.7654	41.0156	75.3185	41.0156	74.6824	41.0156	75.2747	41.0156	74.6057	41.0156	75.217	41.0156	74.5375	41.0156	75.1478	41.0156	74.48	41.0156	75.0701	41.0156	74.4346	41.0156	74.9868	41.0156	74.4022	41.0156	74.9014	41.0156	74.3834	41.0156	74.8167	41.0156	74.3779	41.0156	74.7354	41.0156	74.3855	41.0156	74.6596	41.0156	74.4053	41.0156	74.5907	41.0156	74.4365	41.0156	74.53	41.0156	74.4784
43.9453	76.4579	43.9453	76.3952	43.9453	76.507	43.9453	76.321	43.9453	76.5408	43.9453	76.2375	43.9453	76.5579	43.9453	76.1474	43.9453	76.5577	43.9453	76.0535	43.9453	76.54	43.9453	75.9586	43.9453	76.5054	43.9453	75.8658	43.9453	76.4549	43.9453	75.7778	43.9453	76.3906	43.9453	75.6975	43.9453	76.3149	43.9453	75.6273	43.9453	76.2305	43.9453	75.5695	43.9453	76.1408	43.9453	75.5258	43.9453	76.0486	43.9453	75.4972	43.9453	75.9569	43.9453	75.4845	43.9453	75.8683	43.9453	75.4874	43.9453	75.7849	43.9453	75.5056	43.9453	75.7085	43.9453	75.5381	43.9453	75.641	43.9453	75.5837
46.875	77.5776	46.875	77.5124	46.875	77.6276	46.875	77.4344	46.875	77.6609	46.875	77.346	46.875	77.676	46.875	77.2501	46.875	77.6721	46.875	77.1495	46.875	77.6493	46.875	77.0474	46.875	77.6081	46.875	76.9469	46.875	77.55	46.875	76.8511	46.875	77.4771	46.875	76.7629	46.875	77.3922	46.875	76.685	46.875	77.2985	46.875	76.6198	46.875	77.1995	46.875	76.5691	46.875	77.0986	46.875	76.5342	46.875	76.999	46.875	76.516	46.875	76.9036	46.875	76.5146	46.875	76.8146	46.875	76.5296	46.875	76.7342	46.875	76.5603	46.875	76.6639	46.875	76.6055
49.8047	78.5408	49.8047	78.4752	49.8047	78.592	49.8047	78.3975	49.8047	78.6271	49.8047	78.3103	49.8047	78.6449	49.8047	78.2163	49.8047	78.6445	49.8047	78.1185	49.8047	78.6259	49.8047	78.0202	49.8047	78.5897	49.8047	77.9244	49.8047	78.5373	49.8047	77.8342	49.8047	78.4707	49.8047	77.7526	49.8047	78.3927	49.8047	77.6821	49.8047	78.3061	49.8047	77.6248	49.8047	78.2143	49.8047	77.5822	49.8047	78.1204	49.8047	77.5554	49.8047	78.0274	49.8047	77.5446	49.8047	77.9378	49.8047	77.5496	49.8047	77.8536	49.8047	77.5696	49.8047	77.7767	49.8047	77.6036	49.8047	77.7085	49.8047	77.6503
52.7344	79.5123	52.7344	79.4489	52.7344	79.5606	52.7344	79.3724	52.7344	79.5921	52.7344	79.2855	52.7344	79.6056	52.7344	79.1909	52.7344	79.6007	52.7344	79.0918	52.7344	79.5774	52.7344	78.9913	52.7344	79.5366	52.7344	78.8929	52.7344	79.4801	52.7344	78.7997	52.7344	79.4101	52.7344	78.7148	52.7344	79.3294	52.7344	78.641	52.7344	79.2413	52.7344	78.5806	52.7344	79.1491	52.7344	78.5354	52.7344	79.0557	52.7344	78.5063	52.7344	78.9639	52.7344	78.4936	52.7344	78.876	52.7344	78.4972	52.7344	78.7937	52.7344	78.5162	52.7344	78.7185	52.7344	78.5492	52.7344	78.6518	52.7344	78.5949
55.6641	80.3886	55.6641	80.3261	55.6641	80.436	55.6641	80.2508	55.6641	80.4666	55.6641	80.1654	55.6641	80.4793	55.6641	80.0727	55.6641	80.4738	55.6641	79.9762	55.6641	80.4504	55.6641	79.879	55.6641	80.4101	55.6641	79.7847	55.6641	80.3549	55.6641	79.6965	55.6641	80.2873	55.6641	79.6175	55.6641	80.2105	55.6641	79.5503	55.6641	80.1275	55.6641	79.4969	55.6641	80.0418	55.6641	79.4586	55.6641	79.956	55.6641	79.4361	55.6641	79.8725	55.6641	79.4293	55.6641	79.7931	55.6641	79.4372	55.6641	79.7189	55.6641	79.4588	55.6641	79.6508	55.6641	79.4924	55.6641	79.5897	55.6641	79.5365
58.5938	81.3017	58.5938	81.2378	58.5938	81.3502	58.5938	81.1609	58.5938	81.3817	58.5938	81.0739	58.5938	81.3951	58.5938	80.9798	58.5938	81.39	58.5938	80.8821	58.5938	81.367	58.5938	80.7845	58.5938	81.3272	58.5938	80.6905	58.5938	81.273	58.5938	80.6036	58.5938	81.207	58.5938	80.5271	58.5938	81.1325	58.5938	80.4634	58.5938	81.0529	58.5938	80.4146	58.5938	80.9712	58.5938	80.3818	58.5938	80.8902	58.5938	80.3654	58.5938	80.8119	58.5938	80.3647	58.5938	80.7373	58.5938	80.3785	58.5938	80.6673	58.5938	80.4052	58.5938	80.6023	58.5938	80.4426	58.5938	80.5426	58.5938	80.4889
61.5234	82.0575	61.5234	81.9901	61.5234	82.1077	61.5234	81.9079	61.5234	82.1389	61.5234	81.8139	61.5234	82.15	61.5234	81.7116	61.5234	82.1409	61.5234	81.6046	61.5234	82.1122	61.5234	81.497	61.5234	82.0655	61.5234	81.393	61.5234	82.0032	61.5234	81.2964	61.5234	81.9284	61.5234	81.2109	61.5234	81.845	61.5234	81.1396	61.5234	81.7566	61.5234	81.0847	61.5234	81.667	61.5234	81.0476	61.5234	81.579	61.5234	81.0286	61.5234	81.4947	61.5234	81.0269	61.5234	81.4155	61.5234	81.041	61.5234	81.3419	61.5234	81.0687	61.5234	81.2739	61.5234	81.1077	61.5234	81.2117	61.5234	81.156
64.4531	82.8573	64.4531	82.7879	64.4531	82.9086	64.4531	82.7026	64.4531	82.9401	64.4531	82.6043	64.4531	82.9509	64.4531	82.4963	64.4531	82.9409	64.4531	82.3824	64.4531	82.911	64.4531	82.2668	64.4531	82.8627	64.4531	82.1536	64.4531	82.7986	64.4531	82.0473	64.4531	82.7218	64.4531	81.9519	64.4531	82.6358	64.4531	81.8711	64.4531	82.5442	64.4531	81.8076	64.4531	82.4504	64.4531	81.7636	64.4531	82.3571	64.4531	81.7397	64.4531	82.2663	64.4531	81.7357	64.4531	82.1792	64.4531	81.7503	64.4531	82.0965	64.4531	81.7813	64.4531	82.0188	64.4531	81.8261	64.4531	81.9469	64.4531	81.8821
67.3828	83.5602	67.3828	83.489	67.3828	83.6123	67.3828	83.4013	67.3828	83.6439	67.3828	83.2999	67.3828	83.654	67.3828	83.1882	67.3828	83.6427	67.3828	83.0704	67.3828	83.6109	67.3828	82.9506	67.3828	83.5605	67.3828	82.8335	67.3828	83.4941	67.3828	82.7235	67.3828	83.4151	67.3828	82.625	67.3828	83.3272	67.3828	82.5417	67.3828	83.2343	67.3828	82.4768	67.3828	83.1396	67.3828	82.4323	67.3828	83.046	67.3828	82.4091	67.3828	82.955	67.3828	82.4067	67.3828	82.8678	67.3828	82.4237	67.3828	82.7846	67.3828	82.4577	67.3828	82.7058	67.3828	82.5057	67.3828	82.6321	67.3828	82.5647
70.3125	84.1457	70.3125	84.0728	70.3125	84.2009	70.3125	83.9846	70.3125	84.2368	70.3125	83.8842	70.3125	84.2525	70.3125	83.7753	70.3125	84.248	70.3125	83.662	70.3125	84.2246	70.3125	83.5488	70.3125	84.1839	70.3125	83.4402	70.3125	84.1288	70.3125	83.3407	70.3125	84.0625	70.3125	83.2544	70.3125	83.9884	70.3125	83.1849	70.3125	83.9098	70.3125	83.1348	70.3125	83.8294	70.3125	83.1054	70.3125	83.7491	70.3125	83.097	70.3125	83.6701	70.3125	83.1085	70.3125	83.5926	70.3125	83.1378	70.3125	83.5167	70.3125	83.1818	70.3125	83.4423	70.3125	83.2373	70.3125	83.37	70.3125	83.3009
73.2422	84.7843	73.2422	84.7217	73.2422	84.8271	73.2422	84.6414	73.2422	84.8485	73.2422	84.5467	73.2422	84.8482	73.2422	84.4413	73.2422	84.8268	73.2422	84.3295	73.2422	84.7861	73.2422	84.216	73.2422	84.729	73.2422	84.1058	73.2422	84.6593	73.2422	84.0035	73.2422	84.5814	73.2422	83.9139	73.2422	84.4998	73.2422	83.8407	73.2422	84.4186	73.2422	83.7867	73.2422	84.3408	73.2422	83.7534	73.2422	84.2682	73.2422	83.741	73.2422	84.201	73.2422	83.748	73.2422	84.1384	73.2422	83.7718	73.2422	84.0788	73.2422	83.8089	73.2422	84.0208	73.2422	83.8556	73.2422	83.9638	73.2422	83.9081
76.1719	85.3748	76.1719	85.3135	76.1719	85.4162	76.1719	85.2348	76.1719	85.4362	76.1719	85.1417	76.1719	85.4345	76.1719	85.0381	76.1719	85.4115	76.1719	84.9285	76.1719	85.3693	76.1719	84.8174	76.1719	85.3108	76.1719	84.7099	76.1719	85.2398	76.1719	84.6107	76.1719	85.161	76.1719	84.5242	76.1719	85.0792	76.1719	84.4541	76.1719	84.9985	76.1719	84.403	76.1719	84.9223	76.1719	84.3721	76.1719	84.8523	76.1719	84.3613	76.1719	84.7888	76.1719	84.369	76.1719	84.7306	76.1719	84.3924	76.1719	84.676	76.1719	84.4279	76.1719	84.6233	76.1719	84.4717	76.1719	84.5714	76.1719	84.5204
79.1016	85.8212	79.1016	85.7578	79.1016	85.8634	79.1016	85.6757	79.1016	85.8829	79.1016	85.5785	79.1016	85.8794	79.1016	85.4704	79.1016	85.854	79.1016	85.3563	79.1016	85.8089	79.1016	85.2417	79.1016	85.7477	79.1016	85.1323	79.1016	85.6751	79.1016	85.0334	79.1016	85.5964	79.1016	84.95	79.1016	85.517	79.1016	84.8859	79.1016	85.4416	79.1016	84.8437	79.1016	85.3734	79.1016	84.8241	79.1016	85.3137	79.1016	84.8262	79.1016	85.2619	79.1016	84.8471	79.1016	85.2158	79.1016	84.8829	79.1016	85.1721	79.1016	84.9286	79.1016	85.128	79.1016	84.9795	79.1016	85.0812	79.1016	85.0313
82.0313	86.3568	82.0313	86.2932	82.0313	86.3962	82.0313	86.208	82.0313	86.4101	82.0313	86.1045	82.0313	86.3983	82.0313	85.9871	82.0313	86.362	82.0313	85.8609	82.0313	86.3036	82.0313	85.7315	82.0313	86.2271	82.0313	85.6051	82.0313	86.1376	82.0313	85.4877	82.0313	86.041	82.0313	85.3851	82.0313	85.9433	82.0313	85.3021	82.0313	85.8501	82.0313	85.2422	82.0313	85.7654	82.0313	85.2069	82.0313	85.6914	82.0313	85.1959	82.0313	85.6278	82.0313	85.2065	82.0313	85.5724	82.0313	85.2347	82.0313	85.5222	82.0313	85.2754	82.0313	85.4738	82.0313	85.3234	82.0313	85.4247	82.0313	85.3742
84.9609	86.778	84.9609	86.7111	84.9609	86.8191	84.9609	86.6209	84.9609	86.8329	84.9609	86.5107	84.9609	86.8192	84.9609	86.3849	84.9609	86.7792	84.9609	86.2482	84.9609	86.7152	84.9609	86.1065	84.9609	86.631	84.9609	85.9658	84.9609	86.5317	84.9609	85.8323	84.9609	86.4232	84.9609	85.7122	84.9609	86.3116	84.9609	85.6108	84.9609	86.2028	84.9609	85.5326	84.9609	86.1012	84.9609	85.4799	84.9609	86.0093	84.9609	85.4535	84.9609	85.9277	84.9609	85.4516	84.9609	85.8551	84.9609	85.471	84.9609	85.789	84.9609	85.507	84.9609	85.7269	84.9609	85.5545	84.9609	85.6669	84.9609	85.6089
87.8906	87.0111	87.8906	86.9497	87.8906	87.0492	87.8906	86.8675	87.8906	87.0629	87.8906	86.7679	87.8906	87.0519	87.8906	86.6552	87.8906	87.0176	87.8906	86.5342	87.8906	86.9627	87.8906	86.4105	87.8906	86.891	87.8906	86.2897	87.8906	86.8076	87.8906	86.1775	87.8906	86.718	87.8906	86.0793	87.8906	86.6279	87.8906	85.9994	87.8906	86.5419	87.8906	85.941	87.8906	86.4634	87.8906	85.9058	87.8906	86.3938	87.8906	85.8936	87.8906	86.3323	87.8906	85.9024	87.8906	86.277	87.8906	85.9288	87.8906	86.2249	87.8906	85.9684	87.8906	86.1736	87.8906	86.0163	87.8906	86.1214	87.8906	86.0684
90.8203	87.2276	90.8203	87.1657	90.8203	87.2668	90.8203	87.0838	90.8203	87.2819	90.8203	86.9856	90.8203	87.273	90.8203	86.876	90.8203	87.2419	90.8203	86.7606	90.8203	87.1919	90.8203	86.6455	90.8203	87.1277	90.8203	86.537	90.8203	87.0552	90.8203	86.4411	90.8203	86.9807	90.8203	86.3633	90.8203	86.9104	90.8203	86.3076	90.8203	86.8487	90.8203	86.2764	90.8203	86.7981	90.8203	86.2701	90.8203	86.7585	90.8203	86.2867	90.8203	86.7271	90.8203	86.3226	90.8203	86.6997	90.8203	86.3725	90.8203	86.6714	90.8203	86.4303	90.8203	86.6379	90.8203	86.4901	90.8203	86.5966	90.8203	86.5468
93.75	87.712	93.75	87.6462	93.75	87.7474	93.75	87.5526	93.75	87.7513	93.75	87.4351	93.75	87.724	93.75	87.2989	93.75	87.6676	93.75	87.1503	93.75	87.5862	93.75	86.9967	93.75	87.4853	93.75	86.8461	93.75	87.3723	93.75	86.7072	93.75	87.2557	93.75	86.5879	93.75	87.1438	93.75	86.495	93.75	87.0442	93.75	86.4333	93.75	86.9615	93.75	86.4044	93.75	86.8975	93.75	86.4066	93.75	86.8499	93.75	86.4352	93.75	86.8138	93.75	86.4829	93.75	86.7823	93.75	86.5414	93.75	86.749	93.75	86.6026	93.75	86.7089	93.75	86.6598
96.6797	87.8354	96.6797	87.7703	96.6797	87.8705	96.6797	87.6774	96.6797	87.8743	96.6797	87.5605	96.6797	87.8474	96.6797	87.4244	96.6797	87.7919	96.6797	87.275	96.6797	87.7118	96.6797	87.119	96.6797	87.6128	96.6797	86.9639	96.6797	87.502	96.6797	86.8175	96.6797	87.3873	96.6797	86.6877	96.6797	87.2765	96.6797	86.5814	96.6797	87.1761	96.6797	86.5039	96.6797	87.09	96.6797	86.4584	96.6797	87.0189	96.6797	86.4449	96.6797	86.9603	96.6797	86.4607	96.6797	86.9094	96.6797	86.5003	96.6797	86.8607	96.6797	86.5565	96.6797	86.8092	96.6797	86.6216	96.6797	86.7519	96.6797	86.6885
102.539	88.1751	102.539	88.1281	102.539	88.1901	102.539	88.0516	102.539	88.1722	102.539	87.9496	102.539	88.1219	102.539	87.8271	102.539	88.042	102.539	87.69	102.539	87.9373	102.539	87.545	102.539	87.8149	102.539	87.3996	102.539	87.6839	102.539	87.2614	102.539	87.5541	102.539	87.1378	102.539	87.4354	102.539	87.0353	102.539	87.3359	102.539	86.9588	102.539	87.2598	102.539	86.9112	102.539	87.2073	102.539	86.8921	102.539	87.1743	102.539	86.8988	102.539	87.1535	102.539	86.9256	102.539	87.1369	102.539	86.9654	102.539	87.1172	102.539	87.0103	102.539	87.0899	102.539	87.0535
105.469	88.3098	105.469	88.266	105.469	88.3198	105.469	88.1913	105.469	88.2945	105.469	88.09	105.469	88.2341	105.469	87.9677	105.469	88.1411	105.469	87.8304	105.469	88.0204	105.469	87.6854	105.469	87.8794	105.469	87.5401	105.469	87.7279	105.469	87.4021	105.469	87.5773	105.469	87.2789	105.469	87.4394	105.469	87.1766	105.469	87.3244	105.469	87.0997	105.469	87.2388	105.469	87.0502	105.469	87.184	105.469	87.0275	105.469	87.156	105.469	87.0278	105.469	87.147	105.469	87.0453	105.469	87.1472	105.469	87.0723	105.469	87.1476	105.469	87.1013	105.469	87.1414	105.469	87.1257
108.398	88.4847	108.398	88.4315	108.398	88.5031	108.398	88.3469	108.398	88.4849	108.398	88.2356	108.398	88.43	108.398	88.1034	108.398	88.3406	108.398	87.9571	108.398	88.2209	108.398	87.8042	108.398	88.0783	108.398	87.6528	108.398	87.9223	108.398	87.5107	108.398	87.7644	108.398	87.3855	108.398	87.6168	108.398	87.2834	108.398	87.4905	108.398	87.2086	108.398	87.3932	108.398	87.1624	108.398	87.3275	108.398	87.1436	108.398	87.2907	108.398	87.1476	108.398	87.2754	108.398	87.1678	108.398	87.2721	108.398	87.1966	108.398	87.2711	108.398	87.226	108.398	87.2651	108.398	87.25
111.328	88.626	111.328	88.5649	111.328	88.6513	111.328	88.4717	111.328	88.639	111.328	88.3511	111.328	88.5888	111.328	88.2095	111.328	88.5028	111.328	88.0539	111.328	88.3856	111.328	87.8926	111.328	88.2441	111.328	87.7341	111.328	88.0883	111.328	87.587	111.328	87.9296	111.328	87.4596	111.328	87.7807	111.328	87.3584	111.328	87.6528	111.328	87.2876	111.328	87.5539	111.328	87.2485	111.328	87.4869	111.328	87.2388	111.328	87.449	111.328	87.2535	111.328	87.4327	111.328	87.2848	111.328	87.4278	111.328	87.3239	111.328	87.4244	111.328	87.3626	111.328	87.4146	111.328	87.394
117.188	88.8086	117.188	88.7481	117.188	88.8312	117.188	88.6532	117.188	88.8137	117.188	88.5291	117.188	88.7563	117.188	88.3821	117.188	88.6611	117.188	88.2197	117.188	88.5329	117.188	88.0506	117.188	88.3793	117.188	87.8836	117.188	88.2107	117.188	87.7281	117.188	88.0396	117.188	87.5928	117.188	87.8796	117.188	87.4847	117.188	87.7429	117.188	87.4086	117.188	87.6382	117.188	87.3657	117.188	87.5688	117.188	87.3539	117.188	87.5319	117.188	87.3675	117.188	87.5191	117.188	87.3981	117.188	87.5195	117.188	87.4363	117.188	87.5219	117.188	87.4731	117.188	87.5175	117.188	87.5014
120.117	88.8609	120.117	88.798	120.117	88.8848	120.117	88.6999	120.117	88.8674	120.117	88.5723	120.117	88.8086	120.117	88.422	120.117	88.7106	120.117	88.2573	120.117	88.5785	120.117	88.0872	120.117	88.4201	120.117	87.9214	120.117	88.2465	120.117	87.7696	120.117	88.0709	120.117	87.6405	120.117	87.9077	120.117	87.5409	120.117	87.7701	120.117	87.4749	120.117	87.6676	120.117	87.4428	120.117	87.6037	120.117	87.441	120.117	87.5753	120.117	87.4629	120.117	87.5733	120.117	87.499	120.117	87.5856	120.117	87.5393	120.117	87.5998	120.117	87.5746	120.117	87.6058	120.117	87.5978
125.977	88.8186	125.977	88.745	125.977	88.8493	125.977	88.6322	125.977	88.8349	125.977	88.4858	125.977	88.7756	125.977	88.313	125.977	88.674	125.977	88.1228	125.977	88.5352	125.977	87.9254	125.977	88.3679	125.977	87.7325	125.977	88.1836	125.977	87.5562	125.977	87.9967	125.977	87.4078	125.977	87.8228	125.977	87.2965	125.977	87.6763	125.977	87.228	125.977	87.5676	125.977	87.2027	125.977	87.5004	125.977	87.2157	125.977	87.4709	125.977	87.2578	125.977	87.4689	125.977	87.3167	125.977	87.4806	125.977	87.3793	125.977	87.492	125.977	87.4342	125.977	87.4918	125.977	87.473
128.906	88.8071	128.906	88.7336	128.906	88.8362	128.906	88.6194	128.906	88.8188	128.906	88.4699	128.906	88.7549	128.906	88.292	128.906	88.647	128.906	88.0945	128.906	88.5003	128.906	87.8874	128.906	88.3233	128.906	87.6821	128.906	88.1276	128.906	87.4911	128.906	87.9279	128.906	87.3261	128.906	87.7404	128.906	87.1976	128.906	87.5801	128.906	87.1122	128.906	87.4583	128.906	87.0718	128.906	87.3795	128.906	87.0727	128.906	87.3404	128.906	87.1062	128.906	87.3307	128.906	87.16	128.906	87.3364	128.906	87.2207	128.906	87.3429	128.906	87.276	128.906	87.3387	128.906	87.3168
134.766	88.5889	134.766	88.5119	134.766	88.6211	134.766	88.3942	134.766	88.6064	134.766	88.2417	134.766	88.5452	134.766	88.0621	134.766	88.4402	134.766	87.8648	134.766	88.2973	134.766	87.6606	134.766	88.1258	134.766	87.4617	134.766	87.9382	134.766	87.2803	134.766	87.7498	134.766	87.1285	134.766	87.5768	134.766	87.0157	134.766	87.4338	134.766	86.9478	134.766	87.3309	134.766	86.9255	134.766	87.2708	134.766	86.9441	134.766	87.2484	134.766	86.9939	134.766	87.252	134.766	87.0622	134.766	87.2666	134.766	87.1351	134.766	87.2776	134.766	87.2002	134.766	87.2735	134.766	87.2479
137.695	88.5387	137.695	88.4544	137.695	88.5759	137.695	88.3276	137.695	88.5637	137.695	88.1645	137.695	88.5022	137.695	87.9736	137.695	88.3943	137.695	87.765	137.695	88.2459	137.695	87.5507	137.695	88.0669	137.695	87.344	137.695	87.8707	137.695	87.1587	137.695	87.674	137.695	87.0079	137.695	87.4951	137.695	86.9015	137.695	87.3503	137.695	86.8454	137.695	87.2509	137.695	86.8392	137.695	87.1999	137.695	86.8764	137.695	87.1907	137.695	86.9452	137.695	87.2096	137.695	87.0307	137.695	87.2391	137.695	87.1174	137.695	87.2622	137.695	87.1914	137.695	87.2658	137.695	87.2425
143.555	88.5294	143.555	88.427	143.555	88.5797	143.555	88.2771	143.555	88.5753	143.555	88.0865	143.555	88.5162	143.555	87.8638	143.555	88.4046	143.555	87.6202	143.555	88.2463	143.555	87.3693	143.555	88.0507	143.555	87.1263	143.555	87.8316	143.555	86.9081	143.555	87.6062	143.555	86.7305	143.555	87.3946	143.555	86.6065	143.555	87.2163	143.555	86.5434	143.555	87.0859	143.555	86.5404	143.555	87.0098	143.555	86.589	143.555	86.9835	143.555	86.6741	143.555	86.9933	143.555	86.777	143.555	87.0197	143.555	86.8791	143.555	87.0431	143.555	86.9643	143.555	87.0472	143.555	87.0218
149.414	88.4985	149.414	88.3939	149.414	88.5467	149.414	88.2364	149.414	88.5369	149.414	88.0318	149.414	88.4698	149.414	87.7881	149.414	88.3486	149.414	87.5159	149.414	88.1799	149.414	87.2288	149.414	87.9734	149.414	86.9434	149.414	87.743	149.414	86.6788	149.414	87.506	149.414	86.4548	149.414	87.282	149.414	86.2892	149.414	87.0899	149.414	86.1939	149.414	86.9441	149.414	86.1715	149.414	86.8508	149.414	86.2144	149.414	86.8057	149.414	86.3059	149.414	86.7956	149.414	86.4243	149.414	86.8015	149.414	86.5474	149.414	86.8037	149.414	86.656	149.414	86.7857	149.414	86.7373
155.273	88.5425	155.273	88.4453	155.273	88.5807	155.273	88.293	155.273	88.5583	155.273	88.0909	155.273	88.4758	155.273	87.8469	155.273	88.3364	155.273	87.5712	155.273	88.1464	155.273	87.2769	155.273	87.9161	155.273	86.9801	155.273	87.6602	155.273	86.6995	155.273	87.3977	155.273	86.4553	155.273	87.1501	155.273	86.266	155.273	86.9388	155.273	86.1452	155.273	86.7798	155.273	86.0978	155.273	86.6797	155.273	86.1179	155.273	86.6336	155.273	86.1904	155.273	86.6261	155.273	86.2943	155.273	86.6362	155.273	86.4068	155.273	86.6427	155.273	86.5083	155.273	86.6288	155.273	86.5845
158.203	88.5887	158.203	88.4787	158.203	88.639	158.203	88.3124	158.203	88.628	158.203	88.0955	158.203	88.5561	158.203	87.8359	158.203	88.4266	158.203	87.5442	158.203	88.2456	158.203	87.2343	158.203	88.023	158.203	86.9236	158.203	87.7731	158.203	86.6326	158.203	87.5142	158.203	86.383	158.203	87.2675	158.203	86.1949	158.203	87.054	158.203	86.0825	158.203	86.8901	158.203	86.0496	158.203	86.7834	158.203	86.0887	158.203	86.7296	158.203	86.182	158.203	86.7145	158.203	86.306	158.203	86.7173	158.203	86.4365	158.203	86.7166	158.203	86.5528	158.203	86.6947	158.203	86.641
164.063	88.842	164.063	88.7456	164.063	88.8754	164.063	88.589	164.063	88.845	164.063	88.3765	164.063	88.7523	164.063	88.1148	164.063	88.6013	164.063	87.813	164.063	88.3993	164.063	87.4835	164.063	88.1578	164.063	87.1426	164.063	87.8923	164.063	86.8111	164.063	87.6226	164.063	86.5132	164.063	87.3707	164.063	86.2737	164.063	87.1572	164.063	86.1136	164.063	86.9974	164.063	86.0439	164.063	86.8961	164.063	86.0619	164.063	86.8464	164.063	86.1512	164.063	86.8312	164.063	86.286	164.063	86.828	164.063	86.4376	164.063	86.8145	164.063	86.5804	164.063	86.7735	164.063	86.6955
169.922	88.4363	169.922	88.3559	169.922	88.4556	169.922	88.2176	169.922	88.4126	169.922	88.0266	169.922	88.3088	169.922	87.7901	169.922	88.1487	169.922	87.5176	169.922	87.9406	169.922	87.2214	169.922	87.6974	169.922	86.9172	169.922	87.4367	169.922	86.624	169.922	87.1799	169.922	86.3631	169.922	86.9504	169.922	86.1562	169.922	86.7689	169.922	86.0207	169.922	86.6483	169.922	85.9658	169.922	86.59	169.922	85.9885	169.922	86.5826	169.922	86.0743	169.922	86.6056	169.922	86.2	169.922	86.6347	169.922	86.3392	169.922	86.6475	169.922	86.4679	169.922	86.6278	169.922	86.5675
175.781	88.2842	175.781	88.1922	175.781	88.3087	175.781	88.0365	175.781	88.2641	175.781	87.8233	175.781	88.1511	175.781	87.5611	175.781	87.9737	175.781	87.2614	175.781	87.7402	175.781	86.9396	175.781	87.464	175.781	86.6156	175.781	87.1651	175.781	86.3131	175.781	86.8698	175.781	86.0587	175.781	86.6084	175.781	85.8768	175.781	86.4101	175.781	85.7847	175.781	86.2946	175.781	85.7861	175.781	86.2656	175.781	85.8698	175.781	86.3081	175.781	86.0116	175.781	86.3935	175.781	86.1803	175.781	86.4882	175.781	86.3447	175.781	86.5615	175.781	86.4785	175.781	86.5906	175.781	86.5635
181.641	88.322	181.641	88.211	181.641	88.3608	181.641	88.0299	181.641	88.3269	181.641	87.7829	181.641	88.2222	181.641	87.4762	181.641	88.0508	181.641	87.1197	181.641	87.8204	181.641	86.7279	181.641	87.5433	181.641	86.3214	181.641	87.237	181.641	85.9282	181.641	86.9249	181.641	85.5827	181.641	86.6345	181.641	85.3211	181.641	86.3939	181.641	85.1725	181.641	86.2252	181.641	85.149	181.641	86.1369	181.641	85.2396	181.641	86.1207	181.641	85.4132	181.641	86.1528	181.641	85.6283	181.641	86.2012	181.641	85.8439	181.641	86.2337	181.641	86.0271	181.641	86.2241	181.641	86.1566
190.43	88.4014	190.43	88.3381	190.43	88.3913	190.43	88.203	190.43	88.3074	190.43	87.9993	190.43	88.1518	190.43	87.7315	190.43	87.9294	190.43	87.4063	190.43	87.6492	190.43	87.0334	190.43	87.3255	190.43	86.6273	190.43	86.9792	190.43	86.2088	190.43	86.6367	190.43	85.8066	190.43	86.3284	190.43	85.4552	190.43	86.0828	190.43	85.1909	190.43	85.9189	190.43	85.0411	190.43	85.8391	190.43	85.015	190.43	85.8282	190.43	85.0977	190.43	85.8572	190.43	85.2552	190.43	85.8923	190.43	85.4453	190.43	85.9028	190.43	85.6283	190.43	85.8668	190.43	85.7743
196.289	88.3419	196.289	88.2934	196.289	88.3137	196.289	88.1709	196.289	88.2079	196.289	87.9789	196.289	88.0265	196.289	87.7234	196.289	87.775	196.289	87.4127	196.289	87.4642	196.289	87.0586	196.289	87.1119	196.289	86.6771	196.289	86.7438	196.289	86.2908	196.289	86.3931	196.289	85.9282	196.289	86.0968	196.289	85.6227	196.289	85.8872	196.289	85.4063	196.289	85.7816	196.289	85.3008	196.289	85.7752	196.289	85.309	196.289	85.8422	196.289	85.4127	196.289	85.9447	196.289	85.577	196.289	86.0433	196.289	85.7616	196.289	86.1059	196.289	85.929	196.289	86.1113	196.289	86.051
202.148	88.4389	202.148	88.3847	202.148	88.4084	202.148	88.2499	202.148	88.291	202.148	88.0398	202.148	88.0862	202.148	87.7611	202.148	87.797	202.148	87.4233	202.148	87.4313	202.148	87.0392	202.148	87.0046	202.148	86.6273	202.148	86.5426	202.148	86.2128	202.148	86.0831	202.148	85.8285	202.148	85.6749	202.148	85.5112	202.148	85.3691	202.148	85.2949	202.148	85.2032	202.148	85.1996	202.148	85.1844	202.148	85.2226	202.148	85.2851	202.148	85.3375	202.148	85.4547	202.148	85.5024	202.148	85.6374	202.148	85.672	202.148	85.7868	202.148	85.8067	202.148	85.872	202.148	85.8784
210.938	88.5014	210.938	88.4238	210.938	88.4976	210.938	88.2666	210.938	88.4111	210.938	88.0323	210.938	88.2416	210.938	87.7239	210.938	87.9914	210.938	87.3462	210.938	87.6657	210.938	86.9073	210.938	87.2756	210.938	86.4217	210.938	86.8392	210.938	85.913	210.938	86.3845	210.938	85.4173	210.938	85.949	210.938	84.9826	210.938	85.5759	210.938	84.6607	210.938	85.3042	210.938	84.4908	210.938	85.155	210.938	84.4812	210.938	85.1219	210.938	84.6028	210.938	85.1722	210.938	84.8011	210.938	85.2589	210.938	85.0163	210.938	85.3345	210.938	85.1993	210.938	85.362	210.938	85.3187
216.797	88.3285	216.797	88.2609	216.797	88.3161	216.797	88.1154	216.797	88.2226	216.797	87.8952	216.797	88.0491	216.797	87.6038	216.797	87.8	216.797	87.2464	216.797	87.4845	216.797	86.8308	216.797	87.1184	216.797	86.3703	216.797	86.7253	216.797	85.887	216.797	86.3369	216.797	85.4145	216.797	85.9902	216.797	84.9985	216.797	85.7204	216.797	84.69	216.797	85.5505	216.797	84.5298	216.797	85.4827	216.797	84.5303	216.797	85.4969	216.797	84.6671	216.797	85.5569	216.797	84.889	216.797	85.6218	216.797	85.1376	216.797	85.6551	216.797	85.3634	216.797	85.6302	216.797	85.5329
225.586	88.745	225.586	88.747	225.586	88.6487	225.586	88.6585	225.586	88.4546	225.586	88.4831	225.586	88.161	225.586	88.224	225.586	87.7704	225.586	87.8843	225.586	87.2926	225.586	87.4685	225.586	86.7491	225.586	86.9856	225.586	86.1792	225.586	86.4527	225.586	85.6429	225.586	85.9005	225.586	85.2155	225.586	85.3777	225.586	84.9661	225.586	84.9492	225.586	84.9242	225.586	84.6812	225.586	85.0608	225.586	84.6135	225.586	85.3031	225.586	84.7358	225.586	85.5672	225.586	84.9905	225.586	85.784	225.586	85.299	225.586	85.908	225.586	85.5885	225.586	85.9164	225.586	85.8052
234.375	88.8474	234.375	88.8042	234.375	88.8065	234.375	88.6854	234.375	88.6728	234.375	88.498	234.375	88.4378	234.375	88.2482	234.375	88.0947	234.375	87.9407	234.375	87.64	234.375	87.5805	234.375	87.0774	234.375	87.1747	234.375	86.4233	234.375	86.7355	234.375	85.7165	234.375	86.2837	234.375	85.0286	234.375	85.8521	234.375	84.4656	234.375	85.4837	234.375	84.1388	234.375	85.224	234.375	84.1053	234.375	85.1032	234.375	84.3232	234.375	85.1201	234.375	84.6787	234.375	85.2381	234.375	85.0504	234.375	85.397	234.375	85.3511	234.375	85.5325	234.375	85.5351	234.375	85.5907
240.234	88.6232	240.234	88.5419	240.234	88.6184	240.234	88.3829	240.234	88.5187	240.234	88.154	240.234	88.3162	240.234	87.8624	240.234	88.0042	240.234	87.5148	240.234	87.5791	240.234	87.1188	240.234	87.0439	240.234	86.685	240.234	86.4129	240.234	86.2304	240.234	85.7211	240.234	85.7818	240.234	85.0349	240.234	85.3774	240.234	84.4552	240.234	85.0634	240.234	84.0953	240.234	84.8807	240.234	84.0233	240.234	84.8473	240.234	84.2125	240.234	84.9449	240.234	84.5567	240.234	85.1233	240.234	84.9331	240.234	85.3176	240.234	85.2482	240.234	85.4656	240.234	85.4497	240.234	85.5194
249.023	88.878	249.023	88.739	249.023	88.9269	249.023	88.5177	249.023	88.8771	249.023	88.221	249.023	88.7198	249.023	87.8546	249.023	88.4458	249.023	87.4237	249.023	88.047	249.023	86.934	249.023	87.5167	249.023	86.3949	249.023	86.8538	249.023	85.823	249.023	86.0687	249.023	85.2484	249.023	85.1957	249.023	84.7174	249.023	84.3116	249.023	84.2902	249.023	83.5487	249.023	84.0235	249.023	83.0687	249.023	83.9431	249.023	82.9697	249.023	84.0238	249.023	83.2012	249.023	84.1971	249.023	83.6023	249.023	84.3779	249.023	84.0098	249.023	84.4901	249.023	84.3179	249.023	84.4793
257.813	89.0054	257.813	88.8589	257.813	89.0731	257.813	88.641	257.813	89.055	257.813	88.3582	257.813	88.9447	257.813	88.0163	257.813	88.737	257.813	87.6196	257.813	88.4285	257.813	87.1724	257.813	88.0185	257.813	86.6806	257.813	87.5106	257.813	86.1556	257.813	86.9173	257.813	85.6195	257.813	86.2649	257.813	85.1093	257.813	85.6012	257.813	84.6767	257.813	84.9987	257.813	84.3764	257.813	84.5431	257.813	84.2431	257.813	84.2992	257.813	84.2695	257.813	84.27	257.813	84.4042	257.813	84.3907	257.813	84.5733	257.813	84.564	257.813	84.7068	257.813	84.7036	257.813	84.7565
266.602	88.5742	266.602	88.3768	266.602	88.6776	266.602	88.0919	266.602	88.6809	266.602	87.7261	266.602	88.5788	266.602	87.2855	266.602	88.3671	266.602	86.776	266.602	88.0425	266.602	86.2032	266.602	87.6038	266.602	85.5758	266.602	87.0537	266.602	84.9106	266.602	86.4031	266.602	84.2413	266.602	85.6787	266.602	83.6272	266.602	84.9331	266.602	83.1531	266.602	84.2528	266.602	82.9042	266.602	83.7477	266.602	82.9174	266.602	83.5048	266.602	83.1485	266.602	83.5276	266.602	83.4925	266.602	83.7255	266.602	83.8342	266.602	83.9688	266.602	84.0851	266.602	84.1474	266.602	84.1941
278.32	88.7041	278.32	88.6334	278.32	88.6838	278.32	88.4705	278.32	88.5756	278.32	88.2153	278.32	88.3853	278.32	87.8678	278.32	88.1214	278.32	87.4283	278.32	87.7951	278.32	86.898	278.32	87.4191	278.32	86.2814	278.32	87.0061	278.32	85.5903	278.32	86.5681	278.32	84.8525	278.32	86.1165	278.32	84.1205	278.32	85.6646	278.32	83.478	278.32	85.2316	278.32	83.026	278.32	84.8441	278.32	82.838	278.32	84.5321	278.32	82.9094	278.32	84.3161	278.32	83.1558	278.32	84.1915	278.32	83.4632	278.32	84.1232	278.32	83.7403	278.32	84.0567	278.32	83.9394
287.109	88.8905	287.109	88.8707	287.109	88.8105	287.109	88.7568	287.109	88.626	287.109	88.5539	287.109	88.3355	287.109	88.2647	287.109	87.9433	287.109	87.8887	287.109	87.4613	287.109	87.4225	287.109	86.9111	287.109	86.8622	287.109	86.3251	287.109	86.2074	287.109	85.746	287.109	85.4694	287.109	85.2214	287.109	84.6833	287.109	84.7937	287.109	83.9224	287.109	84.4883	287.109	83.3004	287.109	84.3068	287.109	82.9376	287.109	84.2284	287.109	82.8871	287.109	84.2177	287.109	83.0898	287.109	84.2319	287.109	83.417	287.109	84.2264	287.109	83.7464	287.109	84.1602	287.109	84.003
295.898	89.0807	295.898	89.0386	295.898	89.0263	295.898	88.9137	295.898	88.8629	295.898	88.7178	295.898	88.5815	295.898	88.4576	295.898	88.1791	295.898	88.1328	295.898	87.6613	295.898	87.7359	295.898	87.0448	295.898	87.2533	295.898	86.3622	295.898	86.6698	295.898	85.6642	295.898	85.9747	295.898	85.0179	295.898	85.1716	295.898	84.4917	295.898	84.2939	295.898	84.1297	295.898	83.4238	295.898	83.9301	295.898	82.6993	295.898	83.8476	295.898	82.2725	295.898	83.8157	295.898	82.2113	295.898	83.7713	295.898	82.4408	295.898	83.6661	295.898	82.807	295.898	83.4701	295.898	83.1753
307.617	88.7341	307.617	88.5188	307.617	88.8241	307.617	88.2056	307.617	88.7704	307.617	87.8309	307.617	88.5638	307.617	87.4368	307.617	88.2042	307.617	87.0638	307.617	87.7029	307.617	86.7403	307.617	87.0865	307.617	86.4729	307.617	86.4036	307.617	86.2456	307.617	85.7278	307.617	86.0284	307.617	85.1494	307.617	85.7907	307.617	84.7457	307.617	85.5141	307.617	84.5409	307.617	85.1999	307.617	84.4918	307.617	84.8709	307.617	84.5178	307.617	84.5675	307.617	84.5439	307.617	84.3347	307.617	84.5262	307.617	84.2044	307.617	84.4553	307.617	84.1815	307.617	84.3491	307.617	84.2432
319.336	90.0076	319.336	89.7858	319.336	90.0769	319.336	89.4171	319.336	89.9865	319.336	88.9074	319.336	89.7268	319.336	88.2662	319.336	89.2858	319.336	87.5121	319.336	88.6502	319.336	86.6815	319.336	87.8097	319.336	85.8389	319.336	86.7682	319.336	85.0838	319.336	85.5717	319.336	84.5366	319.336	84.3614	319.336	84.2895	319.336	83.4278	319.336	84.3502	319.336	83.1076	319.336	84.6383	319.336	83.4579	319.336	85.0399	319.336	84.1829	319.336	85.4585	319.336	84.9539	319.336	85.8319	319.336	85.5922	319.336	86.124	319.336	86.0389	319.336	86.312	319.336	86.2932	319.336	86.3759
331.055	89.8379	331.055	89.6625	331.055	89.9106	331.055	89.3855	331.055	89.8761	331.055	89.0047	331.055	89.7259	331.055	88.516	331.055	89.4485	331.055	87.9137	331.055	89.0292	331.055	87.1938	331.055	88.452	331.055	86.3589	331.055	87.7028	331.055	85.4288	331.055	86.7777	331.055	84.4595	331.055	85.702	331.055	83.5666	331.055	84.5676	331.055	82.9278	331.055	83.5794	331.055	82.7083	331.055	83.0284	331.055	82.9302	331.055	83.076	331.055	83.4445	331.055	83.5676	331.055	84.0484	331.055	84.1943	331.055	84.5851	331.055	84.7239	331.055	84.9607	331.055	85.0452	331.055	85.1229
342.773	89.1198	342.773	88.9727	342.773	89.1554	342.773	88.7176	342.773	89.0746	342.773	88.3559	342.773	88.8707	342.773	87.8869	342.773	88.5362	342.773	87.3092	342.773	88.0636	342.773	86.6213	342.773	87.4481	342.773	85.8278	342.773	86.6933	342.773	84.9487	342.773	85.8235	342.773	84.0396	342.773	84.9066	342.773	83.2165	342.773	84.0818	342.773	82.6593	342.773	83.5521	342.773	82.5349	342.773	83.4766	342.773	82.8615	342.773	83.8223	342.773	83.4818	342.773	84.3851	342.773	84.1868	342.773	84.9469	342.773	84.8195	342.773	85.3661	342.773	85.2887	342.773	85.5741	342.773	85.5474
354.492	89.6262	354.492	89.5236	354.492	89.6227	354.492	89.3177	354.492	89.5066	354.492	89.0072	354.492	89.2681	354.492	88.5865	354.492	88.8944	354.492	88.0451	354.492	88.3699	354.492	87.3685	354.492	87.6771	354.492	86.5394	354.492	86.7996	354.492	85.5435	354.492	85.7308	354.492	84.3841	354.492	84.4992	354.492	83.1154	354.492	83.2238	354.492	81.9078	354.492	82.1886	354.492	81.0933	354.492	81.7788	354.492	80.999	354.492	82.1108	354.492	81.5837	354.492	82.8611	354.492	82.4771	354.492	83.6301	354.492	83.3427	354.492	84.1877	354.492	84.0026	354.492	84.445	354.492	84.3805
366.211	89.719	366.211	89.6204	366.211	89.7177	366.211	89.4286	366.211	89.6075	366.211	89.1465	366.211	89.3776	366.211	88.7725	366.211	89.0158	366.211	88.2997	366.211	88.508	366.211	87.716	366.211	87.838	366.211	87.005	366.211	86.9879	366.211	86.1502	366.211	85.9439	366.211	85.1434	366.211	84.7123	366.211	84.0039	366.211	83.3611	366.211	82.816	366.211	82.0972	366.211	81.7796	366.211	81.2994	366.211	81.1922	366.211	81.2626	366.211	81.2359	366.211	81.8228	366.211	81.7642	366.211	82.5481	366.211	82.4508	366.211	83.1239	366.211	83.0357	366.211	83.4124	366.211	83.3775
377.93	89.8309	377.93	89.7075	377.93	89.8718	377.93	89.5105	377.93	89.8184	377.93	89.2453	377.93	89.6568	377.93	88.9123	377.93	89.3711	377.93	88.5056	377.93	88.9428	377.93	88.0137	377.93	88.3504	377.93	87.4209	377.93	87.5713	377.93	86.7127	377.93	86.5866	377.93	85.8846	377.93	85.3982	377.93	84.9588	377.93	84.069	377.93	84.0106	377.93	82.8019	377.93	83.1917	377.93	81.9805	377.93	82.7042	377.93	81.9212	377.93	82.6695	377.93	82.4767	377.93	83.0063	377.93	83.2124	377.93	83.4952	377.93	83.8104	377.93	83.9275	377.93	84.1373	377.93	84.1665
392.578	88.7786	392.578	88.6508	392.578	88.8328	392.578	88.4522	392.578	88.8079	392.578	88.1828	392.578	88.6946	392.578	87.8406	392.578	88.4802	392.578	87.4201	392.578	88.1479	392.578	86.9122	392.578	87.6772	392.578	86.305	392.578	87.0447	392.578	85.5873	392.578	86.2283	392.578	84.7593	392.578	85.2175	392.578	83.8514	392.578	84.0419	392.578	82.9532	392.578	82.8289	392.578	82.2336	392.578	81.8696	392.578	81.8915	392.578	81.5239	392.578	82.006	392.578	81.8516	392.578	82.4467	392.578	82.5137	392.578	82.98	392.578	83.138	392.578	83.409	392.578	83.5251	392.578	83.6116
407.227	88.6365	407.227	88.5324	407.227	88.658	407.227	88.3532	407.227	88.5868	407.227	88.1025	407.227	88.4108	407.227	87.7786	407.227	88.1165	407.227	87.3732	407.227	87.6884	407.227	86.8709	407.227	87.1082	407.227	86.2509	407.227	86.3553	407.227	85.4922	407.227	85.4126	407.227	84.5861	407.227	84.2855	407.227	83.563	407.227	83.0507	407.227	82.5406	407.227	81.9468	407.227	81.7706	407.227	81.3974	407.227	81.5558	407.227	81.6738	407.227	81.968	407.227	82.5146	407.227	82.7472	407.227	83.4414	407.227	83.5611	407.227	84.1503	407.227	84.192	407.227	84.5217	407.227	84.5297
421.875	88.6927	421.875	88.5202	421.875	88.7907	421.875	88.2866	421.875	88.8021	421.875	88.0053	421.875	88.7163	421.875	87.6854	421.875	88.5213	421.875	87.3264	421.875	88.2014	421.875	86.9136	421.875	87.7326	421.875	86.4182	421.875	87.0803	421.875	85.803	421.875	86.1976	421.875	85.034	421.875	85.0292	421.875	84.1025	421.875	83.5328	421.875	83.0646	421.875	81.7652	421.875	82.1029	421.875	80.1419	421.875	81.541	421.875	79.6213	421.875	81.6316	421.875	80.5407	421.875	82.2544	421.875	81.9502	421.875	83.0336	421.875	83.0968	421.875	83.6515	421.875	83.7591	421.875	83.9262
436.523	88.7238	436.523	88.5693	436.523	88.7813	436.523	88.3272	436.523	88.7347	436.523	88.0081	436.523	88.5787	436.523	87.622	436.523	88.3088	436.523	87.174	436.523	87.9185	436.523	86.6612	436.523	87.3955	436.523	86.0699	436.523	86.7192	436.523	85.3794	436.523	85.8601	436.523	84.573	436.523	84.7856	436.523	83.6604	436.523	83.4828	436.523	82.7151	436.523	82.0227	436.523	81.9149	436.523	80.7012	436.523	81.5115	436.523	80.0964	436.523	81.6401	436.523	80.5177	436.523	82.1538	436.523	81.5037	436.523	82.7543	436.523	82.4576	436.523	83.1952	436.523	83.092	436.523	83.332
451.172	89.1366	451.172	88.9764	451.172	89.1945	451.172	88.7204	451.172	89.1448	451.172	88.3752	451.172	88.983	451.172	87.9461	451.172	88.7042	451.172	87.4341	451.172	88.2996	451.172	86.8317	451.172	87.7524	451.172	86.1211	451.172	87.0339	451.172	85.2757	451.172	86.1007	451.172	84.2697	451.172	84.896	451.172	83.1009	451.172	83.3564	451.172	81.8394	451.172	81.4521	451.172	80.7034	451.172	79.3514	451.172	80.0626	451.172	77.8362	451.172	80.1478	451.172	77.9921	451.172	80.7431	451.172	79.3302	451.172	81.4248	451.172	80.6813	451.172	81.8872	451.172	81.5821	451.172	81.9691
465.82	88.6717	465.82	88.6059	465.82	88.6641	465.82	88.4646	465.82	88.5846	465.82	88.2432	465.82	88.4344	465.82	87.9324	465.82	88.2127	465.82	87.5159	465.82	87.9136	465.82	86.97	465.82	87.5223	465.82	86.2662	465.82	87.013	465.82	85.3767	465.82	86.3496	465.82	84.2894	465.82	85.491	465.82	83.0412	465.82	84.4046	465.82	81.7853	465.82	83.1003	465.82	80.857	465.82	81.7168	465.82	80.627	465.82	80.6507	465.82	81.0889	465.82	80.4223	465.82	81.849	465.82	81.0305	465.82	82.5332	465.82	81.9187	465.82	82.9409	465.82	82.6308	465.82	82.9834
483.398	88.805	483.398	88.7907	483.398	88.7543	483.398	88.7184	483.398	88.6361	483.398	88.5944	483.398	88.4539	483.398	88.416	483.398	88.2136	483.398	88.1645	483.398	87.9156	483.398	87.8033	483.398	87.5478	483.398	87.2799	483.398	87.0804	483.398	86.5293	483.398	86.4684	483.398	85.4764	483.398	85.6572	483.398	84.0394	483.398	84.5956	483.398	82.1527	483.398	83.2705	483.398	79.8936	483.398	81.8064	483.398	77.9507	483.398	80.65	483.398	77.8076	483.398	80.4448	483.398	79.3202	483.398	81.1569	483.398	80.9779	483.398	82.0659	483.398	82.1365	483.398	82.6434	483.398	82.6878
500.977	87.8596	500.977	87.7289	500.977	87.9076	500.977	87.5507	500.977	87.8632	500.977	87.375	500.977	87.7393	500.977	87.2416	500.977	87.5594	500.977	87.1512	500.977	87.3411	500.977	87.0552	500.977	87.0802	500.977	86.8726	500.977	86.7446	500.977	86.5157	500.977	86.2788	500.977	85.9083	500.977	85.6171	500.977	84.9961	500.977	84.7038	500.977	83.7669	500.977	83.5342	500.977	82.3126	500.977	82.2561	500.977	80.9727	500.977	81.3189	500.977	80.3823	500.977	81.2669	500.977	80.8498	500.977	81.9807	500.977	81.8563	500.977	82.8076	500.977	82.7718	500.977	83.2957	500.977	83.2863
518.555	87.6105	518.555	87.4895	518.555	87.5579	518.555	87.207	518.555	87.3533	518.555	86.8131	518.555	87.0458	518.555	86.3933	518.555	86.7017	518.555	86.0421	518.555	86.3851	518.555	85.8118	518.555	86.1264	518.555	85.6704	518.555	85.8976	518.555	85.5121	518.555	85.6152	518.555	85.2075	518.555	85.1677	518.555	84.6449	518.555	84.4493	518.555	83.7576	518.555	83.3995	518.555	82.5726	518.555	82.0959	518.555	81.3395	518.555	80.9652	518.555	80.6591	518.555	80.7668	518.555	81.0136	518.555	81.5965	518.555	82.0105	518.555	82.6546	518.555	82.9451	518.555	83.3329	518.555	83.4308
536.133	88.3799	536.133	88.2137	536.133	88.2948	536.133	87.8153	536.133	87.9567	536.133	87.228	536.133	87.3781	536.133	86.5275	536.133	86.5877	536.133	85.8196	536.133	85.6402	536.133	85.2073	536.133	84.629	536.133	84.7294	536.133	83.6821	536.133	84.3205	536.133	82.9057	536.133	83.8433	536.133	82.2958	536.133	83.1609	536.133	81.7268	536.133	82.2067	536.133	81.0652	536.133	81.0823	536.133	80.3522	536.133	80.217	536.133	79.9735	536.133	80.2491	536.133	80.4283	536.133	81.2005	536.133	81.5686	536.133	82.3981	536.133	82.7418	536.133	83.305	536.133	83.5036	536.133	83.6969
553.711	88.7146	553.711	88.5187	553.711	88.7243	553.711	88.1513	553.711	88.5495	553.711	87.6474	553.711	88.201	553.711	87.0624	553.711	87.6915	553.711	86.4639	553.711	87.0288	553.711	85.9097	553.711	86.2116	553.711	85.4145	553.711	85.2233	553.711	84.9271	553.711	84.0262	553.711	84.3358	553.711	82.5543	553.711	83.4922	553.711	80.7159	553.711	82.2317	553.711	78.4494	553.711	80.3913	553.711	76.0592	553.711	77.9458	553.711	75.0711	553.711	75.7803	553.711	76.5343	553.711	76.1727	553.711	78.6375	553.711	78.2934	553.711	80.1907	553.711	80.0381	553.711	80.9652	553.711	80.9268
574.219	88.1098	574.219	87.81	574.219	88.1883	574.219	87.2923	574.219	88.0666	574.219	86.5985	574.219	87.7819	574.219	85.8304	574.219	87.3835	574.219	85.1544	574.219	86.9219	574.219	84.7406	574.219	86.4276	574.219	84.6344	574.219	85.8859	574.219	84.704	574.219	85.2241	574.219	84.7387	574.219	84.3158	574.219	84.5583	574.219	82.9849	574.219	84.0444	574.219	80.9927	574.219	83.14	574.219	78.0406	574.219	81.8898	574.219	74.3971	574.219	80.5785	574.219	74.1109	574.219	79.8401	574.219	77.3248	574.219	80.0836	574.219	79.7563	574.219	80.7967	574.219	80.981	574.219	81.2394
594.727	88.4008	594.727	88.3213	594.727	88.2252	594.727	87.9768	594.727	87.8072	594.727	87.3576	594.727	87.1691	594.727	86.4567	594.727	86.3581	594.727	85.2798	594.727	85.4672	594.727	83.8715	594.727	84.6399	594.727	82.3696	594.727	84.0129	594.727	81.0589	594.727	83.5937	594.727	80.2672	594.727	83.1988	594.727	80.0376	594.727	82.5274	594.727	80.0735	594.727	81.2347	594.727	80.0942	594.727	78.8832	594.727	80.0547	594.727	74.8137	594.727	80.1168	594.727	70.5129	594.727	80.449	594.727	74.4208	594.727	80.9747	594.727	78.3507	594.727	81.3808	594.727	80.4397	594.727	81.3133
615.234	88.4029	615.234	88.3259	615.234	88.2708	615.234	88.0422	615.234	87.928	615.234	87.5584	615.234	87.3745	615.234	86.8894	615.234	86.6156	615.234	86.0616	615.234	85.6685	615.234	85.1109	615.234	84.575	615.234	84.072	615.234	83.4218	615.234	82.9579	615.234	82.3489	615.234	81.7311	615.234	81.4796	615.234	80.2868	615.234	80.7644	615.234	78.4748	615.234	79.9194	615.234	76.245	615.234	78.5501	615.234	74.2814	615.234	76.3474	615.234	74.5095	615.234	73.8787	615.234	76.5751	615.234	74.2039	615.234	78.4819	615.234	76.831	615.234	79.5664	615.234	78.8302	615.234	79.711
638.672	88.004	638.672	87.8355	638.672	87.9578	638.672	87.4766	638.672	87.6957	638.672	86.9722	638.672	87.2415	638.672	86.3842	638.672	86.6431	638.672	85.7806	638.672	85.9605	638.672	85.2084	638.672	85.2442	638.672	84.6619	638.672	84.51	638.672	84.0693	638.672	83.7239	638.672	83.3096	638.672	82.8053	638.672	82.2404	638.672	81.6323	638.672	80.7131	638.672	80.0215	638.672	78.5828	638.672	77.6522	638.672	75.8204	638.672	73.8655	638.672	73.2516	638.672	67.4924	638.672	73.2459	638.672	67.6625	638.672	75.1123	638.672	73.2268	638.672	76.552	638.672	75.9688	638.672	76.9162
659.18	87.5137	659.18	87.3423	659.18	87.3947	659.18	86.8978	659.18	86.992	659.18	86.2258	659.18	86.3341	659.18	85.4091	659.18	85.4777	659.18	84.5792	659.18	84.5303	659.18	83.9029	659.18	83.6733	659.18	83.4975	659.18	83.1098	659.18	83.3124	659.18	82.8899	659.18	83.1317	659.18	82.8121	659.18	82.6997	659.18	82.552	659.18	81.8083	659.18	81.7982	659.18	80.3195	659.18	80.2601	659.18	78.2688	659.18	77.6501	659.18	76.3491	659.18	74.1335	659.18	76.0959	659.18	72.963	659.18	77.2718	659.18	75.4734	659.18	78.2822	659.18	77.5644	659.18	78.4515
682.617	88.6664	682.617	88.5186	682.617	88.4991	682.617	88.048	682.617	88.0356	682.617	87.2627	682.617	87.2956	682.617	86.193	682.617	86.2883	682.617	84.9075	682.617	85.0181	682.617	83.5518	682.617	83.5447	682.617	82.3794	682.617	82.1111	682.617	81.6402	682.617	81.1783	682.617	81.3076	682.617	80.963	682.617	81.0425	682.617	81.0223	682.617	80.4698	682.617	80.7201	682.617	79.3786	682.617	79.6005	682.617	77.9351	682.617	77.3776	682.617	77.1633	682.617	74.6052	682.617	78.0899	682.617	74.9663	682.617	79.7027	682.617	77.952	682.617	80.8142	682.617	80.107	682.617	81.009
706.055	88.7141	706.055	88.5126	706.055	88.6491	706.055	88.0656	706.055	88.3133	706.055	87.4101	706.055	87.7051	706.055	86.5878	706.055	86.8145	706.055	85.6433	706.055	85.6346	706.055	84.65	706.055	84.2087	706.055	83.7309	706.055	82.7163	706.055	82.9951	706.055	81.5314	706.055	82.3911	706.055	80.9585	706.055	81.6657	706.055	80.7267	706.055	80.4717	706.055	80.1437	706.055	78.4319	706.055	78.5164	706.055	75.144	706.055	74.9403	706.055	71.3355	706.055	66.4183	706.055	72.6271	706.055	66.3185	706.055	76.0733	706.055	74.3697	706.055	78.055	706.055	77.4988	706.055	78.5377
732.422	88.225	732.422	88.1519	732.422	88.0639	732.422	87.8461	732.422	87.6721	732.422	87.3177	732.422	87.0491	732.422	86.5765	732.422	86.1897	732.422	85.6265	732.422	85.0925	732.422	84.4986	732.422	83.7769	732.422	83.3405	732.422	82.3301	732.422	82.4688	732.422	81.0163	732.422	82.1062	732.422	80.2881	732.422	81.9915	732.422	80.2865	732.422	81.5837	732.422	80.4479	732.422	80.4354	732.422	80.0272	732.422	78.2324	732.422	78.4063	732.422	75.0465	732.422	74.8813	732.422	73.4799	732.422	70.0507	732.422	75.6306	732.422	72.9391	732.422	77.5847	732.422	76.6271	732.422	78.008
758.789	89.1784	758.789	89.0536	758.789	89.0715	758.789	88.7018	758.789	88.734	758.789	88.1278	758.789	88.1703	758.789	87.3282	758.789	87.3767	758.789	86.2929	758.789	86.3315	758.789	85.0387	758.789	85.0021	758.789	83.6893	758.789	83.3897	758.789	82.5391	758.789	81.6291	758.789	81.8578	758.789	80.0658	758.789	81.4638	758.789	78.987	758.789	80.7949	758.789	78.1189	758.789	79.3114	758.789	76.808	758.789	76.6565	758.789	74.5217	758.789	73.6584	758.789	71.9818	758.789	74.7389	758.789	73.6994	758.789	77.9594	758.789	77.4386	758.789	80.015	758.789	79.812	758.789	80.6345
785.156	87.5661	785.156	87.6214	785.156	87.391	785.156	87.5532	785.156	87.0873	785.156	87.3402	785.156	86.6309	785.156	86.9348	785.156	85.9831	785.156	86.2652	785.156	85.0974	785.156	85.2704	785.156	83.9316	785.156	83.9825	785.156	82.4867	785.156	82.63	785.156	80.934	785.156	81.58	785.156	79.7842	785.156	80.9381	785.156	79.4954	785.156	80.3567	785.156	79.6126	785.156	79.3649	785.156	79.202	785.156	77.5149	785.156	77.4719	785.156	74.2422	785.156	73.4323	785.156	69.6672	785.156	65.6983	785.156	70.6989	785.156	69.6789	785.156	74.2185	785.156	74.2075	785.156	75.4296
811.523	87.5588	811.523	87.5231	811.523	87.4505	811.523	87.3876	811.523	87.1793	811.523	87.2165	811.523	86.7441	811.523	87.0481	811.523	86.1629	811.523	86.8303	811.523	85.472	811.523	86.412	811.523	84.6986	811.523	85.626	811.523	83.8215	811.523	84.3969	811.523	82.7671	811.523	82.8183	811.523	81.4957	811.523	81.1501	811.523	80.2014	811.523	79.6188	811.523	79.375	811.523	78.1107	811.523	79.0282	811.523	76.224	811.523	78.1317	811.523	73.8026	811.523	75.195	811.523	72.431	811.523	66.3704	811.523	74.0802	811.523	65.7959	811.523	75.9965	811.523	74.127	811.523	76.3208
840.82	87.7859	840.82	87.7541	840.82	87.5687	840.82	87.4587	840.82	87.0921	840.82	86.9104	840.82	86.3165	840.82	86.2008	840.82	85.2163	840.82	85.5364	840.82	83.8482	840.82	85.2106	840.82	82.4692	840.82	85.364	840.82	81.641	840.82	85.7318	840.82	81.8257	840.82	85.8702	840.82	82.6627	840.82	85.4768	840.82	83.3997	840.82	84.4111	840.82	83.5366	840.82	82.5731	840.82	82.8241	840.82	79.7546	840.82	81.136	840.82	75.4672	840.82	78.2987	840.82	69.1902	840.82	73.62	840.82	67.2147	840.82	63.7657	840.82	69.736	840.82	62.3539	840.82	69.0836
870.117	87.6122	870.117	87.7413	870.117	87.286	870.117	87.6685	870.117	86.761	870.117	87.3291	870.117	86.0566	870.117	86.6076	870.117	85.173	870.117	85.3955	870.117	84.0306	870.117	83.6631	870.117	82.41	870.117	81.7484	870.117	79.8862	870.117	80.9053	870.117	75.8997	870.117	81.7551	870.117	72.7119	870.117	82.8492	870.117	76.3527	870.117	83.204	870.117	79.7519	870.117	82.5839	870.117	81.2667	870.117	80.9215	870.117	81.0551	870.117	78.3096	870.117	78.9475	870.117	75.925	870.117	74.1932	870.117	76.1024	870.117	68.949	870.117	77.21	870.117	73.9841	870.117	76.8748
902.344	87.635	902.344	87.9283	902.344	87.0202	902.344	87.9157	902.344	86.1291	902.344	87.6239	902.344	85.0756	902.344	87.0511	902.344	84.0064	902.344	86.1776	902.344	83.0396	902.344	84.9943	902.344	82.1882	902.344	83.527	902.344	81.3227	902.344	81.9525	902.344	80.247	902.344	80.7788	902.344	78.928	902.344	80.3808	902.344	77.9295	902.344	80.2015	902.344	78.2031	902.344	79.3857	902.344	79.2426	902.344	77.3749	902.344	79.6625	902.344	73.9365	902.344	78.5483	902.344	71.4667	902.344	74.8041	902.344	73.756	902.344	63.3344	902.344	75.5472	902.344	68.8549	902.344	74.6435
931.641	87.6835	931.641	87.8621	931.641	87.1886	931.641	87.7701	931.641	86.4103	931.641	87.4733	931.641	85.4218	931.641	86.9569	931.641	84.3129	931.641	86.1061	931.641	83.1669	931.641	84.7649	931.641	81.8763	931.641	82.8848	931.641	79.9884	931.641	81.0343	931.641	76.8518	931.641	80.7244	931.641	72.9589	931.641	81.8143	931.641	74.8646	931.641	82.6327	931.641	78.9943	931.641	82.3635	931.641	81.4292	931.641	80.6048	931.641	82.197	931.641	76.9986	931.641	81.3266	931.641	73.3405	931.641	78.6097	931.641	75.4361	931.641	74.253	931.641	77.4599	931.641	74.0911	931.641	76.9381
966.797	87.601	966.797	87.6351	966.797	87.1423	966.797	87.1934	966.797	86.3493	966.797	86.3835	966.797	85.3026	966.797	85.4883	966.797	84.1356	966.797	84.708	966.797	83.021	966.797	83.8521	966.797	82.0317	966.797	82.539	966.797	81.062	966.797	80.5765	966.797	79.8561	966.797	78.2743	966.797	77.9719	966.797	76.9515	966.797	74.6256	966.797	77.438	966.797	70.1867	966.797	78.2399	966.797	72.9888	966.797	78.0743	966.797	76.2	966.797	76.2202	966.797	76.3378	966.797	72.3317	966.797	72.9755	966.797	72.2227	966.797	63.5372	966.797	75.4381	966.797	71.1822	966.797	75.4981
999.023	87.3375	999.023	87.4994	999.023	86.9111	999.023	87.3477	999.023	86.2585	999.023	86.8368	999.023	85.4456	999.023	86.01	999.023	84.5372	999.023	85.037	999.023	83.5598	999.023	84.0667	999.023	82.5749	999.023	83.0051	999.023	81.6669	999.023	81.6241	999.023	80.7801	999.023	80.0901	999.023	79.6543	999.023	79.3058	999.023	78.1264	999.023	79.4475	999.023	77.3909	999.023	79.352	999.023	79.0089	999.023	78.1326	999.023	80.6377	999.023	75.2701	999.023	80.4978	999.023	70.754	999.023	77.8482	999.023	69.8214	999.023	70.8011	999.023	72.2922	999.023	63.8043	999.023	71.5877
1,034.18	87.9018	1,034.18	88.0806	1,034.18	87.3989	1,034.18	87.8349	1,034.18	86.6672	1,034.18	87.1174	1,034.18	85.7655	1,034.18	85.9846	1,034.18	84.7155	1,034.18	84.5754	1,034.18	83.51	1,034.18	82.9049	1,034.18	82.1222	1,034.18	80.7134	1,034.18	80.5528	1,034.18	77.9934	1,034.18	78.8389	1,034.18	76.5861	1,034.18	76.9123	1,034.18	77.9242	1,034.18	75.059	1,034.18	79.6339	1,034.18	75.0481	1,034.18	80.5432	1,034.18	76.8129	1,034.18	80.2233	1,034.18	78.3219	1,034.18	78.1984	1,034.18	78.5997	1,034.18	74.4239	1,034.18	76.7318	1,034.18	72.3561	1,034.18	71.3143	1,034.18	73.4763	1,034.18	67.3255	1,034.18	72.4203
1,072.27	87.7235	1,072.27	88.2034	1,072.27	87.1209	1,072.27	88.4906	1,072.27	86.4677	1,072.27	88.3728	1,072.27	85.8909	1,072.27	87.6179	1,072.27	85.4554	1,072.27	86.1792	1,072.27	85.0907	1,072.27	84.1189	1,072.27	84.5341	1,072.27	81.2794	1,072.27	83.4453	1,072.27	77.2224	1,072.27	81.7403	1,072.27	72.654	1,072.27	79.8074	1,072.27	73.4444	1,072.27	77.9544	1,072.27	76.3758	1,072.27	76.512	1,072.27	77.7208	1,072.27	78.1288	1,072.27	77.7714	1,072.27	80.7579	1,072.27	77.0638	1,072.27	81.6715	1,072.27	75.6853	1,072.27	80.4768	1,072.27	73.7284	1,072.27	76.7026	1,072.27	72.0295	1,072.27	70.0783	1,072.27	69.7706
1,110.35	87.3824	1,110.35	87.6509	1,110.35	86.9046	1,110.35	87.6612	1,110.35	86.3422	1,110.35	87.4051	1,110.35	85.8222	1,110.35	86.7943	1,110.35	85.4791	1,110.35	85.7362	1,110.35	85.335	1,110.35	84.2699	1,110.35	85.1008	1,110.35	82.4671	1,110.35	84.3129	1,110.35	80.161	1,110.35	82.6154	1,110.35	76.8182	1,110.35	79.7831	1,110.35	72.6235	1,110.35	75.9888	1,110.35	72.2282	1,110.35	74.2449	1,110.35	73.6235	1,110.35	76.2935	1,110.35	72.9426	1,110.35	78.2701	1,110.35	70.8675	1,110.35	79.3695	1,110.35	71.0871	1,110.35	79.3334	1,110.35	74.0363	1,110.35	77.3509	1,110.35	75.4145	1,110.35	73.5898	1,110.35	73.9692
1,148.44	88.4019	1,148.44	88.3428	1,148.44	88.1782	1,148.44	88.0562	1,148.44	87.6453	1,148.44	87.5606	1,148.44	86.8648	1,148.44	86.8882	1,148.44	86.0148	1,148.44	86.1916	1,148.44	85.3506	1,148.44	85.5054	1,148.44	85.0262	1,148.44	84.5413	1,148.44	84.8427	1,148.44	82.748	1,148.44	84.4047	1,148.44	79.0687	1,148.44	83.1857	1,148.44	70.8319	1,148.44	80.1174	1,148.44	70.5253	1,148.44	71.247	1,148.44	75.7283	1,148.44	72.1609	1,148.44	76.4039	1,148.44	79.5173	1,148.44	74.9036	1,148.44	80.8871	1,148.44	73.0291	1,148.44	79.7742	1,148.44	74.3645	1,148.44	78.0472	1,148.44	76.2122	1,148.44	76.6256	1,148.44	76.2451
1,189.45	88.9638	1,189.45	88.739	1,189.45	88.9118	1,189.45	88.2227	1,189.45	88.4696	1,189.45	87.2312	1,189.45	87.617	1,189.45	85.6102	1,189.45	86.4726	1,189.45	83.7509	1,189.45	85.1067	1,189.45	82.9041	1,189.45	83.735	1,189.45	83.4231	1,189.45	83.1152	1,189.45	83.9742	1,189.45	83.346	1,189.45	83.2907	1,189.45	83.3233	1,189.45	80.4559	1,189.45	82.039	1,189.45	74.3785	1,189.45	78.6346	1,189.45	67.5106	1,189.45	72.5832	1,189.45	68.565	1,189.45	73.8017	1,189.45	66.6783	1,189.45	77.6006	1,189.45	69.4097	1,189.45	77.8572	1,189.45	74.1637	1,189.45	75.9362	1,189.45	75.8127	1,189.45	75.2534	1,189.45	75.7134
1,230.47	89.1973	1,230.47	88.8646	1,230.47	89.0029	1,230.47	88.1492	1,230.47	88.4164	1,230.47	87.0782	1,230.47	87.7448	1,230.47	85.475	1,230.47	86.9665	1,230.47	83.5219	1,230.47	85.8033	1,230.47	82.036	1,230.47	84.3693	1,230.47	81.7635	1,230.47	83.4728	1,230.47	82.4743	1,230.47	83.5464	1,230.47	82.8334	1,230.47	83.7574	1,230.47	81.6823	1,230.47	83.2502	1,230.47	78.991	1,230.47	81.3419	1,230.47	76.3524	1,230.47	76.1881	1,230.47	74.6527	1,230.47	65.5651	1,230.47	72.5107	1,230.47	75.9042	1,230.47	70.2988	1,230.47	77.3372	1,230.47	69.8226	1,230.47	75.1626	1,230.47	71.8018	1,230.47	74.1316	1,230.47	73.7632
1,274.41	88.9708	1,274.41	88.816	1,274.41	88.8027	1,274.41	88.3952	1,274.41	88.3261	1,274.41	87.6812	1,274.41	87.6774	1,274.41	86.4865	1,274.41	86.9497	1,274.41	84.7711	1,274.41	86.0234	1,274.41	83.0567	1,274.41	84.7062	1,274.41	81.7266	1,274.41	82.9946	1,274.41	80.1667	1,274.41	81.3657	1,274.41	78.0358	1,274.41	80.715	1,274.41	75.9403	1,274.41	80.5382	1,274.41	75.1903	1,274.41	79.2626	1,274.41	76.0651	1,274.41	77.4084	1,274.41	76.1327	1,274.41	77.4084	1,274.41	72.8568	1,274.41	77.3905	1,274.41	65.3514	1,274.41	75.8215	1,274.41	70.3699	1,274.41	73.1184	1,274.41	74.0513	1,274.41	73.4819	1,274.41	74.9848
1,318.36	88.9572	1,318.36	88.7701	1,318.36	88.9394	1,318.36	88.2914	1,318.36	88.6426	1,318.36	87.2506	1,318.36	88.0622	1,318.36	85.5826	1,318.36	87.282	1,318.36	83.674	1,318.36	86.3026	1,318.36	82.3349	1,318.36	84.9436	1,318.36	81.9832	1,318.36	83.3699	1,318.36	81.4096	1,318.36	82.3254	1,318.36	79.4172	1,318.36	81.7077	1,318.36	75.4854	1,318.36	80.2079	1,318.36	69.3697	1,318.36	76.8316	1,318.36	72.3261	1,318.36	73.2584	1,318.36	75.0266	1,318.36	72.4742	1,318.36	72.5736	1,318.36	74.1046	1,318.36	64.7911	1,318.36	76.3396	1,318.36	71.8008	1,318.36	75.788	1,318.36	75.724	1,318.36	75.1261	1,318.36	76.3444
1,365.23	88.9391	1,365.23	88.9734	1,365.23	88.7169	1,365.23	88.6992	1,365.23	88.3693	1,365.23	87.9045	1,365.23	87.9287	1,365.23	86.4022	1,365.23	87.3647	1,365.23	84.2949	1,365.23	86.3527	1,365.23	81.7166	1,365.23	84.4805	1,365.23	79.3701	1,365.23	81.9919	1,365.23	79.4127	1,365.23	80.4275	1,365.23	80.4631	1,365.23	81.1887	1,365.23	79.7886	1,365.23	82.2996	1,365.23	75.7937	1,365.23	81.656	1,365.23	69.4666	1,365.23	77.4871	1,365.23	72.6512	1,365.23	63.9801	1,365.23	73.24	1,365.23	72.0523	1,365.23	67.0918	1,365.23	74.6419	1,365.23	68.689	1,365.23	74.6687	1,365.23	75.5805	1,365.23	75.9303	1,365.23	76.9137
1,415.04	89.1437	1,415.04	89.0826	1,415.04	88.9598	1,415.04	88.6699	1,415.04	88.3878	1,415.04	87.5719	1,415.04	87.5472	1,415.04	86.0982	1,415.04	86.5761	1,415.04	84.6444	1,415.04	85.3627	1,415.04	82.398	1,415.04	83.8085	1,415.04	78.3421	1,415.04	81.9138	1,415.04	71.4645	1,415.04	80.0497	1,415.04	69.6696	1,415.04	80.218	1,415.04	73.7332	1,415.04	81.4887	1,415.04	73.2243	1,415.04	80.976	1,415.04	72.3444	1,415.04	77.8125	1,415.04	74.966	1,415.04	73.6089	1,415.04	75.3408	1,415.04	71.6341	1,415.04	69.5138	1,415.04	70.8011	1,415.04	66.292	1,415.04	72.0306	1,415.04	73.0734	1,415.04	73.1289	1,415.04	74.4152
1,464.84	89.5002	1,464.84	89.2808	1,464.84	88.9568	1,464.84	88.4398	1,464.84	87.9329	1,464.84	87.3256	1,464.84	86.7777	1,464.84	86.2155	1,464.84	85.5482	1,464.84	84.9875	1,464.84	84.4837	1,464.84	82.9292	1,464.84	83.7888	1,464.84	79.9354	1,464.84	82.7974	1,464.84	76.6846	1,464.84	80.6554	1,464.84	73.1573	1,464.84	77.7782	1,464.84	68.9138	1,464.84	76.649	1,464.84	66.2205	1,464.84	77.4192	1,464.84	59.552	1,464.84	77.8443	1,464.84	70.3496	1,464.84	76.4615	1,464.84	74.0279	1,464.84	72.9325	1,464.84	69.2457	1,464.84	69.9501	1,464.84	67.06	1,464.84	64.2352	1,464.84	72.1897	1,464.84	71.5894	1,464.84	74.0482
1,514.65	89.7499	1,514.65	89.4789	1,514.65	89.2513	1,514.65	88.3542	1,514.65	88.3488	1,514.65	87.0208	1,514.65	86.9547	1,514.65	86.0108	1,514.65	85.3158	1,514.65	84.9613	1,514.65	84.1548	1,514.65	82.9738	1,514.65	83.0367	1,514.65	79.7975	1,514.65	81.2185	1,514.65	77.1385	1,514.65	79.1784	1,514.65	76.2765	1,514.65	77.7364	1,514.65	75.842	1,514.65	76.8981	1,514.65	73.2051	1,514.65	76.7943	1,514.65	62.3185	1,514.65	76.3662	1,514.65	69.2984	1,514.65	73.7747	1,514.65	71.538	1,514.65	71.2479	1,514.65	65.5816	1,514.65	71.8732	1,514.65	65.7818	1,514.65	70.7113	1,514.65	74.1588	1,514.65	70.1222	1,514.65	74.8504
1,570.31	89.9057	1,570.31	89.775	1,570.31	89.3349	1,570.31	88.6061	1,570.31	88.4544	1,570.31	87.2359	1,570.31	86.9394	1,570.31	86.2975	1,570.31	85.1645	1,570.31	84.9436	1,570.31	83.9753	1,570.31	82.5325	1,570.31	82.6622	1,570.31	78.8813	1,570.31	80.8845	1,570.31	76.3969	1,570.31	79.4558	1,570.31	78.4134	1,570.31	78.2242	1,570.31	80.1265	1,570.31	76.9472	1,570.31	79.4256	1,570.31	75.6772	1,570.31	75.2265	1,570.31	72.8463	1,570.31	59.3619	1,570.31	65.5456	1,570.31	64.357	1,570.31	70.5395	1,570.31	63.1631	1,570.31	71.4107	1,570.31	62.1469	1,570.31	67.828	1,570.31	73.357	1,570.31	70.4511	1,570.31	74.5505
1,623.05	89.6054	1,623.05	89.7291	1,623.05	88.9614	1,623.05	89.1795	1,623.05	87.7486	1,623.05	88.029	1,623.05	86.1276	1,623.05	86.2528	1,623.05	84.6896	1,623.05	83.8744	1,623.05	82.862	1,623.05	81.6185	1,623.05	80.9593	1,623.05	79.4265	1,623.05	80.2081	1,623.05	76.2379	1,623.05	78.9289	1,623.05	73.3039	1,623.05	76.1591	1,623.05	75.4374	1,623.05	76.4958	1,623.05	77.3347	1,623.05	78.1959	1,623.05	75.6746	1,623.05	76.5626	1,623.05	67.9164	1,623.05	72.9963	1,623.05	58.5945	1,623.05	70.5562	1,623.05	64.6725	1,623.05	65.9159	1,623.05	63.5571	1,623.05	67.025	1,623.05	72.9862	1,623.05	69.2036	1,623.05	73.2851
1,681.64	89.2334	1,681.64	89.204	1,681.64	88.6379	1,681.64	88.9928	1,681.64	87.3788	1,681.64	88.3111	1,681.64	86.004	1,681.64	86.4001	1,681.64	84.2626	1,681.64	83.1344	1,681.64	81.654	1,681.64	79.706	1,681.64	79.6839	1,681.64	77.3894	1,681.64	79.3362	1,681.64	76.1044	1,681.64	78.8735	1,681.64	74.6647	1,681.64	77.7187	1,681.64	71.625	1,681.64	76.0156	1,681.64	71.8941	1,681.64	75.0031	1,681.64	71.2848	1,681.64	75.6982	1,681.64	68.2063	1,681.64	75.6602	1,681.64	64.6609	1,681.64	74.3625	1,681.64	56.64	1,681.64	70.8714	1,681.64	66.1604	1,681.64	64.0775	1,681.64	72.0468	1,681.64	66.0938	1,681.64	71.1319
1,740.23	89.128	1,740.23	89.1654	1,740.23	88.1255	1,740.23	88.4747	1,740.23	86.6551	1,740.23	87.5536	1,740.23	85.0677	1,740.23	85.6959	1,740.23	82.8839	1,740.23	82.1838	1,740.23	80.1022	1,740.23	79.4341	1,740.23	79.2875	1,740.23	78.7659	1,740.23	79.6653	1,740.23	76.0868	1,740.23	78.7409	1,740.23	74.4603	1,740.23	77.481	1,740.23	72.343	1,740.23	76.4435	1,740.23	64.8727	1,740.23	72.8178	1,740.23	67.528	1,740.23	67.8538	1,740.23	66.6327	1,740.23	71.7176	1,740.23	62.7631	1,740.23	74.111	1,740.23	58.8466	1,740.23	72.9131	1,740.23	61.8279	1,740.23	66.232	1,740.23	70.6837	1,740.23	64.7117	1,740.23	70.9887
1,801.76	89.0976	1,801.76	88.9717	1,801.76	88.1113	1,801.76	88.1737	1,801.76	85.9581	1,801.76	86.8598	1,801.76	83.3831	1,801.76	84.8667	1,801.76	80.6284	1,801.76	81.6339	1,801.76	77.8374	1,801.76	78.455	1,801.76	77.5858	1,801.76	78.9104	1,801.76	78.1294	1,801.76	76.5045	1,801.76	76.6576	1,801.76	63.9644	1,801.76	72.8212	1,801.76	66.7702	1,801.76	71.994	1,801.76	64.5968	1,801.76	73.0427	1,801.76	66.3492	1,801.76	71.806	1,801.76	65.116	1,801.76	68.9783	1,801.76	62.2836	1,801.76	68.1504	1,801.76	61.0373	1,801.76	71.6869	1,801.76	59.5838	1,801.76	68.5225	1,801.76	71.4175	1,801.76	66.8059	1,801.76	71.5349
1,866.21	88.0914	1,866.21	88.3369	1,866.21	87.2691	1,866.21	88.4694	1,866.21	84.8963	1,866.21	87.3602	1,866.21	81.734	1,866.21	84.8356	1,866.21	77.7563	1,866.21	82.2974	1,866.21	73.2303	1,866.21	79.5353	1,866.21	72.3516	1,866.21	76.2337	1,866.21	74.2077	1,866.21	73.8169	1,866.21	76.5574	1,866.21	66.5033	1,866.21	75.1058	1,866.21	58.1268	1,866.21	72.0847	1,866.21	65.6021	1,866.21	73.0505	1,866.21	67.2438	1,866.21	72.6964	1,866.21	56.4112	1,866.21	73.2102	1,866.21	65.0129	1,866.21	68.3012	1,866.21	63.4884	1,866.21	72.1068	1,866.21	60.5908	1,866.21	69.3143	1,866.21	70.2208	1,866.21	59.6605	1,866.21	67.7954
1,930.66	87.277	1,930.66	88.0144	1,930.66	86.0945	1,930.66	88.1817	1,930.66	84.2995	1,930.66	86.7627	1,930.66	81.5391	1,930.66	83.61	1,930.66	75.9988	1,930.66	80.8995	1,930.66	74.4781	1,930.66	79.3772	1,930.66	75.0152	1,930.66	76.6166	1,930.66	75.7847	1,930.66	70.5241	1,930.66	77.3019	1,930.66	63.1227	1,930.66	75.5968	1,930.66	70.1638	1,930.66	74.8767	1,930.66	73.653	1,930.66	75.7132	1,930.66	71.0636	1,930.66	69.2288	1,930.66	57.6963	1,930.66	68.2061	1,930.66	59.6821	1,930.66	71.0261	1,930.66	59.1965	1,930.66	72.1399	1,930.66	66.0789	1,930.66	71.2553	1,930.66	68.0879	1,930.66	64.005	1,930.66	62.6765
2,000.98	87.6515	2,000.98	88.2175	2,000.98	85.904	2,000.98	87.3402	2,000.98	84.0067	2,000.98	85.6227	2,000.98	79.7675	2,000.98	82.3997	2,000.98	73.1649	2,000.98	79.0245	2,000.98	73.5761	2,000.98	76.7822	2,000.98	73.7127	2,000.98	73.7407	2,000.98	74.0717	2,000.98	70.7725	2,000.98	76.325	2,000.98	69.5427	2,000.98	76.3617	2,000.98	59.1143	2,000.98	73.3092	2,000.98	71.1993	2,000.98	75.9879	2,000.98	68.9028	2,000.98	76.2603	2,000.98	57.4	2,000.98	70.4789	2,000.98	65.0019	2,000.98	63.2174	2,000.98	56.2023	2,000.98	69.6251	2,000.98	67.2396	2,000.98	71.3227	2,000.98	67.6515	2,000.98	68.2813	2,000.98	57.8315
2,071.29	88.7582	2,071.29	89.3616	2,071.29	86.8499	2,071.29	87.4407	2,071.29	83.9771	2,071.29	84.8384	2,071.29	77.8758	2,071.29	83.364	2,071.29	72.7251	2,071.29	79.8343	2,071.29	71.6824	2,071.29	74.5724	2,071.29	76.2414	2,071.29	69.9492	2,071.29	78.6565	2,071.29	70.9467	2,071.29	79.7	2,071.29	73.7053	2,071.29	78.6351	2,071.29	61.5962	2,071.29	72.7743	2,071.29	70.172	2,071.29	75.3492	2,071.29	68.558	2,071.29	76.9837	2,071.29	63.2072	2,071.29	73.5507	2,071.29	64.1814	2,071.29	66.9343	2,071.29	60.5433	2,071.29	69.4401	2,071.29	65.0945	2,071.29	69.7475	2,071.29	61.1018	2,071.29	69.7744	2,071.29	55.1876
2,144.53	88.3901	2,144.53	88.8181	2,144.53	86.6297	2,144.53	87.3296	2,144.53	83.0341	2,144.53	84.7514	2,144.53	77.9655	2,144.53	83.5051	2,144.53	70.7013	2,144.53	80.859	2,144.53	74.146	2,144.53	73.3734	2,144.53	78.5885	2,144.53	61.5422	2,144.53	79.619	2,144.53	64.3837	2,144.53	80.2928	2,144.53	72.0418	2,144.53	80.5966	2,144.53	64.8834	2,144.53	76.0699	2,144.53	72.3235	2,144.53	74.2404	2,144.53	70.4982	2,144.53	77.3698	2,144.53	58.8043	2,144.53	71.574	2,144.53	51.0313	2,144.53	69.7601	2,144.53	58.5099	2,144.53	69.0454	2,144.53	69.5523	2,144.53	67.5668	2,144.53	68.9489	2,144.53	68.5474	2,144.53	51.4987
2,217.77	88.3141	2,217.77	88.6415	2,217.77	86.2917	2,217.77	87.7124	2,217.77	82.3894	2,217.77	85.1216	2,217.77	75.8762	2,217.77	81.4868	2,217.77	71.8516	2,217.77	78.4519	2,217.77	78.2386	2,217.77	74.7967	2,217.77	78.5303	2,217.77	70.6793	2,217.77	79.7778	2,217.77	63.25	2,217.77	79.2041	2,217.77	72.736	2,217.77	78.9191	2,217.77	61.0156	2,217.77	77.6939	2,217.77	73.7311	2,217.77	69.006	2,217.77	73.6899	2,217.77	77.4068	2,217.77	66.3553	2,217.77	72.3054	2,217.77	66.8487	2,217.77	70.7903	2,217.77	60.2406	2,217.77	68.3468	2,217.77	69.8986	2,217.77	71.3848	2,217.77	71.0993	2,217.77	68.6342	2,217.77	62.7367
2,296.88	89.5748	2,296.88	88.3448	2,296.88	87.9087	2,296.88	86.3791	2,296.88	82.1335	2,296.88	84.5222	2,296.88	72.1711	2,296.88	78.7394	2,296.88	73.6297	2,296.88	65.7135	2,296.88	80.5955	2,296.88	66.5668	2,296.88	81.3545	2,296.88	72.1078	2,296.88	82.4287	2,296.88	71.3274	2,296.88	82.3007	2,296.88	73.2175	2,296.88	80.4164	2,296.88	70.5029	2,296.88	79.7286	2,296.88	65.8927	2,296.88	71.8117	2,296.88	71.4832	2,296.88	72.8655	2,296.88	67.2372	2,296.88	73.8365	2,296.88	70.0998	2,296.88	72.7316	2,296.88	69.089	2,296.88	70.2785	2,296.88	66.2699	2,296.88	71.8991	2,296.88	67.0635	2,296.88	70.5132	2,296.88	60.5048
2,378.91	90.6876	2,378.91	90.3277	2,378.91	89.569	2,378.91	87.6714	2,378.91	84.9935	2,378.91	81.9719	2,378.91	72.4334	2,378.91	76.5045	2,378.91	76.6579	2,378.91	70.8191	2,378.91	80.31	2,378.91	58.6101	2,378.91	81.9314	2,378.91	73.7194	2,378.91	82.7293	2,378.91	77.7322	2,378.91	82.0357	2,378.91	73.7144	2,378.91	80.6182	2,378.91	69.0737	2,378.91	80.2728	2,378.91	59.7009	2,378.91	76.9101	2,378.91	66.7095	2,378.91	69.6169	2,378.91	68.991	2,378.91	62.5136	2,378.91	69.0023	2,378.91	72.8768	2,378.91	71.7985	2,378.91	64.514	2,378.91	70.3629	2,378.91	70.316	2,378.91	72.5247	2,378.91	72.8744	2,378.91	65.801
2,460.94	90.5169	2,460.94	89.9884	2,460.94	89.8706	2,460.94	87.0227	2,460.94	86.6769	2,460.94	80.1221	2,460.94	79.8488	2,460.94	74.6775	2,460.94	79.9566	2,460.94	73.1893	2,460.94	82.1684	2,460.94	77.2485	2,460.94	82.814	2,460.94	75.1222	2,460.94	80.3909	2,460.94	73.8409	2,460.94	82.4386	2,460.94	73.812	2,460.94	83.3313	2,460.94	72.6894	2,460.94	78.2287	2,460.94	71.5321	2,460.94	72.0657	2,460.94	71.6114	2,460.94	72.5984	2,460.94	72.0007	2,460.94	72.8671	2,460.94	67.7315	2,460.94	72.6705	2,460.94	69.5699	2,460.94	72.7377	2,460.94	64.6718	2,460.94	69.629	2,460.94	69.326	2,460.94	73.3754	2,460.94	67.5768
2,548.83	89.5196	2,548.83	87.846	2,548.83	88.8191	2,548.83	83.425	2,548.83	86.0621	2,548.83	77.5176	2,548.83	78.6406	2,548.83	63.0647	2,548.83	71.9546	2,548.83	78.4283	2,548.83	79.8145	2,548.83	79.6467	2,548.83	80.287	2,548.83	79.7638	2,548.83	79.4015	2,548.83	79.9286	2,548.83	81.0858	2,548.83	77.293	2,548.83	83.4386	2,548.83	75.7074	2,548.83	81.0473	2,548.83	74.8595	2,548.83	77.6201	2,548.83	72.8713	2,548.83	72.6252	2,548.83	73.7439	2,548.83	72.4916	2,548.83	72.9565	2,548.83	65.4995	2,548.83	73.3148	2,548.83	72.5861	2,548.83	69.7902	2,548.83	67.7867	2,548.83	67.8352	2,548.83	72.7623	2,548.83	64.0701
2,639.65	88.4352	2,639.65	87.0308	2,639.65	86.9932	2,639.65	84.0192	2,639.65	81.7778	2,639.65	79.2925	2,639.65	67.4186	2,639.65	71.4795	2,639.65	78.4679	2,639.65	75.833	2,639.65	81.4727	2,639.65	76.756	2,639.65	81.424	2,639.65	76.192	2,639.65	80.0021	2,639.65	71.7537	2,639.65	77.9148	2,639.65	72.7659	2,639.65	76.2065	2,639.65	73.403	2,639.65	74.8056	2,639.65	71.7476	2,639.65	77.1992	2,639.65	71.4752	2,639.65	73.7866	2,639.65	70.6179	2,639.65	74.5567	2,639.65	69.0251	2,639.65	65.8104	2,639.65	69.3586	2,639.65	70.6936	2,639.65	68.7779	2,639.65	65.6691	2,639.65	67.1868	2,639.65	70.4404	2,639.65	63.8391
2,733.4	88.1854	2,733.4	87.5999	2,733.4	86.8298	2,733.4	84.9766	2,733.4	81.3948	2,733.4	78.5635	2,733.4	67.9634	2,733.4	73.4547	2,733.4	79.8807	2,733.4	76.3293	2,733.4	82.5183	2,733.4	76.4145	2,733.4	81.9687	2,733.4	75.6443	2,733.4	80.6294	2,733.4	75.6961	2,733.4	77.6144	2,733.4	74.8919	2,733.4	77.6731	2,733.4	74.9502	2,733.4	79.5346	2,733.4	71.9644	2,733.4	78.5959	2,733.4	72.0891	2,733.4	73.8079	2,733.4	71.2191	2,733.4	71.8398	2,733.4	69.6855	2,733.4	70.0999	2,733.4	70.1257	2,733.4	71.4053	2,733.4	69.1536	2,733.4	66.8043	2,733.4	63.1867	2,733.4	71.7515	2,733.4	65.9651
2,827.15	88.1286	2,827.15	87.0972	2,827.15	86.3096	2,827.15	84.2478	2,827.15	79.8145	2,827.15	78.1317	2,827.15	72.5013	2,827.15	74.4524	2,827.15	81.0978	2,827.15	75.8262	2,827.15	83.2036	2,827.15	76.8641	2,827.15	83.1917	2,827.15	76.3396	2,827.15	80.9066	2,827.15	76.67	2,827.15	75.9129	2,827.15	76.6147	2,827.15	73.4866	2,827.15	74.3301	2,827.15	80.0115	2,827.15	70.9165	2,827.15	79.5382	2,827.15	71.2819	2,827.15	74.6765	2,827.15	71.4663	2,827.15	72.7899	2,827.15	68.3948	2,827.15	66.4299	2,827.15	68.9664	2,827.15	72.2838	2,827.15	69.7005	2,827.15	70.5974	2,827.15	71.0993	2,827.15	71.993	2,827.15	55.5017
2,926.76	87.6098	2,926.76	86.7423	2,926.76	86.2892	2,926.76	83.4033	2,926.76	79.2813	2,926.76	77.9253	2,926.76	75.4983	2,926.76	73.8054	2,926.76	82.115	2,926.76	77.1205	2,926.76	83.9112	2,926.76	78.2283	2,926.76	84.3156	2,926.76	78.9439	2,926.76	80.7563	2,926.76	77.1484	2,926.76	74.659	2,926.76	72.9483	2,926.76	76.7348	2,926.76	72.2781	2,926.76	79.3794	2,926.76	73.2778	2,926.76	77.1905	2,926.76	71.9034	2,926.76	68.5998	2,926.76	73.0932	2,926.76	73.8649	2,926.76	70.671	2,926.76	70.7602	2,926.76	70.5945	2,926.76	68.3175	2,926.76	68.894	2,926.76	65.5161	2,926.76	68.9332	2,926.76	72.2407	2,926.76	55.8908
3,032.23	87.779	3,032.23	86.945	3,032.23	86.3734	3,032.23	83.5592	3,032.23	80.2096	3,032.23	78.1277	3,032.23	74.5214	3,032.23	78.6349	3,032.23	83.3155	3,032.23	80.3822	3,032.23	84.6174	3,032.23	80.5365	3,032.23	83.9529	3,032.23	79.2092	3,032.23	80.3346	3,032.23	73.9171	3,032.23	74.5306	3,032.23	75.4273	3,032.23	79.2379	3,032.23	75.1604	3,032.23	79.3513	3,032.23	73.4996	3,032.23	75.2921	3,032.23	72.0255	3,032.23	74.028	3,032.23	73.445	3,032.23	73.0419	3,032.23	71.563	3,032.23	71.8494	3,032.23	71.2476	3,032.23	67.9151	3,032.23	68.9199	3,032.23	60.7082	3,032.23	70.041	3,032.23	71.7397	3,032.23	46.1058
3,137.7	88.1938	3,137.7	87.3508	3,137.7	86.529	3,137.7	83.4081	3,137.7	81.7241	3,137.7	79.4921	3,137.7	72.834	3,137.7	79.2939	3,137.7	83.895	3,137.7	80.2807	3,137.7	85.4531	3,137.7	80.0271	3,137.7	84.258	3,137.7	76.4548	3,137.7	80.9247	3,137.7	77.3483	3,137.7	76.0487	3,137.7	77.572	3,137.7	79.8583	3,137.7	73.7906	3,137.7	80.5587	3,137.7	72.2332	3,137.7	78.2574	3,137.7	72.6593	3,137.7	72.5027	3,137.7	72.4944	3,137.7	71.0367	3,137.7	71.062	3,137.7	72.3465	3,137.7	70.1198	3,137.7	66.6938	3,137.7	68.7588	3,137.7	58.3678	3,137.7	65.6347	3,137.7	70.1856	3,137.7	55.7153
3,249.02	88.4663	3,249.02	86.9377	3,249.02	86.4378	3,249.02	83.5481	3,249.02	81.6243	3,249.02	80.71	3,249.02	76.6751	3,249.02	80.2746	3,249.02	82.6379	3,249.02	80.9701	3,249.02	85.3478	3,249.02	80.6474	3,249.02	84.8391	3,249.02	79.9719	3,249.02	82.5678	3,249.02	79.9539	3,249.02	79.7817	3,249.02	74.8016	3,249.02	79.1763	3,249.02	72.9706	3,249.02	79.8821	3,249.02	73.0831	3,249.02	77.9968	3,249.02	72.6182	3,249.02	74.7802	3,249.02	73.0826	3,249.02	66.6374	3,249.02	72.0571	3,249.02	69.0207	3,249.02	70.7623	3,249.02	69.7186	3,249.02	70.2949	3,249.02	60.3549	3,249.02	69.7464	3,249.02	68.3479	3,249.02	62.0512
3,363.28	87.9178	3,363.28	86.5631	3,363.28	86.4816	3,363.28	83.8	3,363.28	80.7396	3,363.28	82.0631	3,363.28	79.1571	3,363.28	80.8521	3,363.28	83.1995	3,363.28	82.1304	3,363.28	84.9182	3,363.28	81.4611	3,363.28	84.1068	3,363.28	82.0038	3,363.28	82.5073	3,363.28	75.8935	3,363.28	81.1241	3,363.28	74.9774	3,363.28	78.9167	3,363.28	75.582	3,363.28	78.2972	3,363.28	72.8982	3,363.28	73.5954	3,363.28	72.5959	3,363.28	71.2835	3,363.28	72.6052	3,363.28	66.8283	3,363.28	72.1923	3,363.28	71.0061	3,363.28	70.7462	3,363.28	67.4478	3,363.28	70.9983	3,363.28	59.3196	3,363.28	69.9465	3,363.28	68.345	3,363.28	64.9132
3,483.4	87.9155	3,483.4	86.2054	3,483.4	86.6136	3,483.4	84.6563	3,483.4	81.615	3,483.4	81.6272	3,483.4	79.1182	3,483.4	81.9966	3,483.4	84.6142	3,483.4	82.5091	3,483.4	85.4106	3,483.4	83.3464	3,483.4	84.0465	3,483.4	79.8898	3,483.4	81.3178	3,483.4	77.4074	3,483.4	79.4045	3,483.4	78.0344	3,483.4	75.7248	3,483.4	73.3047	3,483.4	70.0178	3,483.4	74.1261	3,483.4	69.3322	3,483.4	71.9971	3,483.4	68.577	3,483.4	71.7767	3,483.4	60.6307	3,483.4	70.8524	3,483.4	66.5165	3,483.4	69.5928	3,483.4	69.1759	3,483.4	68.879	3,483.4	58.7085	3,483.4	69.3724	3,483.4	68.7288	3,483.4	64.5036
3,606.45	86.9223	3,606.45	86.8206	3,606.45	86.341	3,606.45	85.264	3,606.45	82.6741	3,606.45	82.427	3,606.45	79.6382	3,606.45	83.2231	3,606.45	84.1983	3,606.45	84.1533	3,606.45	85.7282	3,606.45	83.1184	3,606.45	83.9516	3,606.45	79.4501	3,606.45	81.4239	3,606.45	79.8502	3,606.45	77.5141	3,606.45	74.0075	3,606.45	71.6393	3,606.45	73.4953	3,606.45	66.0732	3,606.45	72.6191	3,606.45	58.6064	3,606.45	71.1057	3,606.45	68.343	3,606.45	70.5592	3,606.45	61.7603	3,606.45	70.5383	3,606.45	68.9052	3,606.45	68.6165	3,606.45	68.0515	3,606.45	69.8934	3,606.45	57.4501	3,606.45	68.5711	3,606.45	66.2535	3,606.45	66.0787
3,732.42	86.4892	3,732.42	87.0281	3,732.42	85.045	3,732.42	85.216	3,732.42	82.4346	3,732.42	82.8085	3,732.42	80.9572	3,732.42	83.2888	3,732.42	84.2695	3,732.42	83.584	3,732.42	85.4384	3,732.42	80.3046	3,732.42	82.9471	3,732.42	80.2871	3,732.42	81.3034	3,732.42	76.0081	3,732.42	75.0532	3,732.42	72.2533	3,732.42	63.6423	3,732.42	74.0497	3,732.42	64.8016	3,732.42	70.8609	3,732.42	66.3024	3,732.42	71.8688	3,732.42	71.8457	3,732.42	70.2787	3,732.42	68.3697	3,732.42	71.9914	3,732.42	61.8271	3,732.42	68.5854	3,732.42	65.7102	3,732.42	69.6389	3,732.42	58.1152	3,732.42	67.7404	3,732.42	64.6884	3,732.42	67.4601
3,864.26	87.1435	3,864.26	87.6213	3,864.26	84.9238	3,864.26	84.6132	3,864.26	81.9323	3,864.26	82.9123	3,864.26	80.3881	3,864.26	83.7201	3,864.26	83.8248	3,864.26	81.8495	3,864.26	85.0867	3,864.26	80.8656	3,864.26	82.7713	3,864.26	78.106	3,864.26	80.0676	3,864.26	73.9036	3,864.26	76.234	3,864.26	75.0857	3,864.26	68.9743	3,864.26	72.7069	3,864.26	72.5767	3,864.26	72.5445	3,864.26	70.6763	3,864.26	70.3244	3,864.26	73.4835	3,864.26	70.4333	3,864.26	65.4902	3,864.26	70.2145	3,864.26	64.658	3,864.26	69.1196	3,864.26	63.8335	3,864.26	69.2114	3,864.26	50.9095	3,864.26	66.8574	3,864.26	60.8409	3,864.26	66.7722
3,999.02	87.8247	3,999.02	88.132	3,999.02	84.6236	3,999.02	84.9494	3,999.02	82.8477	3,999.02	83.536	3,999.02	80.1515	3,999.02	83.3965	3,999.02	83.7526	3,999.02	81.4443	3,999.02	84.1561	3,999.02	80.0282	3,999.02	82.6643	3,999.02	77.5246	3,999.02	79.871	3,999.02	78.8323	3,999.02	75.3691	3,999.02	74.9206	3,999.02	63.1603	3,999.02	72.5485	3,999.02	72.7914	3,999.02	71.9332	3,999.02	73.6222	3,999.02	70.3618	3,999.02	68.4456	3,999.02	69.5111	3,999.02	63.2382	3,999.02	70.7943	3,999.02	63.0216	3,999.02	68.7481	3,999.02	66.4264	3,999.02	70.8441	3,999.02	58.8747	3,999.02	66.9415	3,999.02	54.9254	3,999.02	64.6259
4,139.65	87.9484	4,139.65	87.8865	4,139.65	84.6897	4,139.65	84.839	4,139.65	82.2427	4,139.65	84.365	4,139.65	81.5461	4,139.65	83.0957	4,139.65	82.7464	4,139.65	82.1415	4,139.65	83.9471	4,139.65	79.2982	4,139.65	83.9832	4,139.65	80.9977	4,139.65	79.1895	4,139.65	76.131	4,139.65	74.5527	4,139.65	73.6151	4,139.65	70.9135	4,139.65	74.3961	4,139.65	73.8473	4,139.65	72.4338	4,139.65	71.332	4,139.65	71.9166	4,139.65	71.3695	4,139.65	70.0762	4,139.65	68.1879	4,139.65	69.8202	4,139.65	62.9349	4,139.65	69.1276	4,139.65	66.6825	4,139.65	69.1969	4,139.65	56.6379	4,139.65	68.5637	4,139.65	55.3873	4,139.65	64.7931
4,286.13	88.5934	4,286.13	88.0162	4,286.13	84.9975	4,286.13	84.4553	4,286.13	82.7102	4,286.13	83.8089	4,286.13	81.5817	4,286.13	83.2892	4,286.13	80.6294	4,286.13	82.1527	4,286.13	83.9394	4,286.13	82.5703	4,286.13	83.2871	4,286.13	80.108	4,286.13	79.2769	4,286.13	77.8164	4,286.13	73.4271	4,286.13	78.0456	4,286.13	75.2302	4,286.13	71.9195	4,286.13	70.8338	4,286.13	72.9608	4,286.13	58.5276	4,286.13	71.295	4,286.13	72.0183	4,286.13	70.684	4,286.13	68.9684	4,286.13	70.7038	4,286.13	65.8468	4,286.13	69.8005	4,286.13	64.7945	4,286.13	68.2713	4,286.13	61.0386	4,286.13	68.4394	4,286.13	49.6209	4,286.13	67.6902
4,438.48	88.8858	4,438.48	87.4959	4,438.48	85.4385	4,438.48	85.1131	4,438.48	83.2528	4,438.48	83.7063	4,438.48	81.6114	4,438.48	83.8513	4,438.48	80.7673	4,438.48	83.326	4,438.48	83.3465	4,438.48	81.8484	4,438.48	80.6786	4,438.48	79.0447	4,438.48	78.7636	4,438.48	78.9098	4,438.48	76.8001	4,438.48	68.0145	4,438.48	76.1582	4,438.48	73.5503	4,438.48	66.3019	4,438.48	69.6665	4,438.48	61.0707	4,438.48	72.0086	4,438.48	65.8468	4,438.48	69.9186	4,438.48	70.2209	4,438.48	70.868	4,438.48	66.3826	4,438.48	68.118	4,438.48	60.6254	4,438.48	70.3139	4,438.48	58.675	4,438.48	69.0254	4,438.48	46.5625	4,438.48	67.6864
4,593.75	89.2392	4,593.75	86.8049	4,593.75	86.6705	4,593.75	84.4043	4,593.75	82.8294	4,593.75	85.2253	4,593.75	84.6496	4,593.75	85.6101	4,593.75	82.5462	4,593.75	83.7107	4,593.75	81.8489	4,593.75	80.5688	4,593.75	78.8288	4,593.75	78.0276	4,593.75	79.5035	4,593.75	73.5259	4,593.75	80.3669	4,593.75	74.9232	4,593.75	76.2414	4,593.75	71.284	4,593.75	67.05	4,593.75	71.3257	4,593.75	60.3402	4,593.75	70.672	4,593.75	64.7653	4,593.75	69.6076	4,593.75	71.5122	4,593.75	69.2281	4,593.75	59.112	4,593.75	66.4064	4,593.75	59.952	4,593.75	67.3038	4,593.75	50.2713	4,593.75	62.0049	4,593.75	51.95	4,593.75	63.8537
4,757.81	89.2226	4,757.81	86.702	4,757.81	87.3766	4,757.81	85.3359	4,757.81	84.2303	4,757.81	84.9315	4,757.81	85.5604	4,757.81	85.4496	4,757.81	83.1509	4,757.81	81.7654	4,757.81	80.8937	4,757.81	78.3195	4,757.81	80.0821	4,757.81	75.5716	4,757.81	80.4538	4,757.81	76.9256	4,757.81	80.1819	4,757.81	70.9637	4,757.81	75.2268	4,757.81	71.2825	4,757.81	70.4744	4,757.81	70.282	4,757.81	64.8909	4,757.81	67.1832	4,757.81	64.4612	4,757.81	66.4402	4,757.81	68.7308	4,757.81	66.5349	4,757.81	56.8742	4,757.81	67.6042	4,757.81	64.654	4,757.81	65.0021	4,757.81	58.9935	4,757.81	66.871	4,757.81	48.0852	4,757.81	67.8447
4,924.8	89.2914	4,924.8	86.5195	4,924.8	87.9138	4,924.8	85.2629	4,924.8	83.7053	4,924.8	86.3973	4,924.8	84.9096	4,924.8	84.8374	4,924.8	82.552	4,924.8	81.3585	4,924.8	81.0276	4,924.8	78.1558	4,924.8	81.0654	4,924.8	78.1496	4,924.8	82.1638	4,924.8	74.1253	4,924.8	78.0992	4,924.8	73.6635	4,924.8	71.791	4,924.8	70.6479	4,924.8	74.3352	4,924.8	69.8777	4,924.8	68.4484	4,924.8	68.2654	4,924.8	62.4869	4,924.8	67.3763	4,924.8	62.2036	4,924.8	68.2692	4,924.8	62.8846	4,924.8	69.5021	4,924.8	50.9391	4,924.8	68.2212	4,924.8	58.5732	4,924.8	69.1932	4,924.8	49.9953	4,924.8	69.8599
5,097.66	88.3704	5,097.66	85.662	5,097.66	88.3702	5,097.66	85.2968	5,097.66	83.9718	5,097.66	85.9182	5,097.66	84.0112	5,097.66	83.979	5,097.66	83.1478	5,097.66	80.8473	5,097.66	80.5722	5,097.66	79.1253	5,097.66	82.1736	5,097.66	77.2865	5,097.66	83.1772	5,097.66	75.9061	5,097.66	76.0381	5,097.66	72.6236	5,097.66	65.8599	5,097.66	70.2638	5,097.66	71.6384	5,097.66	69.861	5,097.66	72.76	5,097.66	67.3775	5,097.66	60.9245	5,097.66	68.2434	5,097.66	59.4865	5,097.66	65.8011	5,097.66	63.4404	5,097.66	69.5703	5,097.66	63.1729	5,097.66	65.2807	5,097.66	46.9296	5,097.66	66.6717	5,097.66	55.517	5,097.66	67.1683
5,279.3	86.8953	5,279.3	85.9304	5,279.3	87.615	5,279.3	85.4976	5,279.3	85.925	5,279.3	85.4497	5,279.3	84.3749	5,279.3	83.3934	5,279.3	83.17	5,279.3	81.897	5,279.3	81.5868	5,279.3	79.0628	5,279.3	83.4546	5,279.3	77.6413	5,279.3	80.9792	5,279.3	72.124	5,279.3	73.2228	5,279.3	70.7959	5,279.3	71.4791	5,279.3	69.5748	5,279.3	70.5861	5,279.3	67.6628	5,279.3	71.6797	5,279.3	66.4196	5,279.3	66.4749	5,279.3	67.5277	5,279.3	58.9155	5,279.3	67.4508	5,279.3	60.961	5,279.3	67.2468	5,279.3	66.095	5,279.3	66.0473	5,279.3	54.7487	5,279.3	65.8833	5,279.3	52.1904	5,279.3	65.8793
5,463.87	87.4083	5,463.87	86.1076	5,463.87	86.9888	5,463.87	85.4569	5,463.87	86.1235	5,463.87	85.6336	5,463.87	85.5195	5,463.87	83.9353	5,463.87	82.7648	5,463.87	81.9855	5,463.87	81.5816	5,463.87	77.8158	5,463.87	83.9884	5,463.87	75.5013	5,463.87	78.6242	5,463.87	75.2592	5,463.87	73.8836	5,463.87	72.8198	5,463.87	68.5542	5,463.87	68.5457	5,463.87	67.2108	5,463.87	69.2358	5,463.87	68.7578	5,463.87	66.9824	5,463.87	67.4509	5,463.87	67.5147	5,463.87	50.815	5,463.87	64.0494	5,463.87	47.1587	5,463.87	68.7705	5,463.87	63.8754	5,463.87	62.0891	5,463.87	57.699	5,463.87	67.0002	5,463.87	53.8084	5,463.87	63.567
5,657.23	86.5829	5,657.23	85.1021	5,657.23	86.1471	5,657.23	86.0056	5,657.23	84.481	5,657.23	85.2275	5,657.23	84.9359	5,657.23	83.4383	5,657.23	83.0054	5,657.23	81.558	5,657.23	80.4662	5,657.23	79.5028	5,657.23	82.9032	5,657.23	76.8681	5,657.23	75.9005	5,657.23	73.6963	5,657.23	74.9688	5,657.23	72.198	5,657.23	69.6205	5,657.23	70.0597	5,657.23	56.4665	5,657.23	69.1331	5,657.23	67.599	5,657.23	68.5292	5,657.23	56.866	5,657.23	66.6446	5,657.23	54.2435	5,657.23	65.3063	5,657.23	54.994	5,657.23	69.175	5,657.23	63.1451	5,657.23	65.9217	5,657.23	49.5665	5,657.23	66.8045	5,657.23	54.2545	5,657.23	62.1914
5,856.45	85.5075	5,856.45	85.4922	5,856.45	86.2351	5,856.45	86.0749	5,856.45	84.7996	5,856.45	85.1836	5,856.45	84.7412	5,856.45	83.7019	5,856.45	83.39	5,856.45	81.5038	5,856.45	82.2613	5,856.45	78.3556	5,856.45	81.6595	5,856.45	76.1939	5,856.45	77.7459	5,856.45	75.8451	5,856.45	77.4932	5,856.45	73.0063	5,856.45	71.2155	5,856.45	69.6369	5,856.45	61.2539	5,856.45	69.5263	5,856.45	63.0263	5,856.45	67.279	5,856.45	59.2866	5,856.45	67.2415	5,856.45	55.6245	5,856.45	63.078	5,856.45	56.4	5,856.45	69.2518	5,856.45	61.6791	5,856.45	66.6095	5,856.45	61.7785	5,856.45	67.315	5,856.45	53.6759	5,856.45	64.194
6,061.52	86.5861	6,061.52	86.4781	6,061.52	86.715	6,061.52	86.2938	6,061.52	85.6666	6,061.52	84.7689	6,061.52	85.1194	6,061.52	82.8312	6,061.52	83.7986	6,061.52	79.7869	6,061.52	81.3231	6,061.52	78.5243	6,061.52	79.7158	6,061.52	77.1938	6,061.52	79.4482	6,061.52	73.3874	6,061.52	75.9743	6,061.52	71.5793	6,061.52	70.086	6,061.52	70.7329	6,061.52	64.585	6,061.52	68.086	6,061.52	58.4848	6,061.52	68.5948	6,061.52	55.7925	6,061.52	67.4381	6,061.52	55.6479	6,061.52	66.566	6,061.52	55.4314	6,061.52	67.2405	6,061.52	56.386	6,061.52	65.8869	6,061.52	56.0128	6,061.52	67.2944	6,061.52	53.3339	6,061.52	64.0931
6,275.39	86.9072	6,275.39	87.3297	6,275.39	86.8595	6,275.39	86.495	6,275.39	85.7929	6,275.39	85.5112	6,275.39	85.9236	6,275.39	83.0657	6,275.39	84.8165	6,275.39	80.6321	6,275.39	79.992	6,275.39	78.7302	6,275.39	78.1167	6,275.39	76.6324	6,275.39	79.7027	6,275.39	75.3227	6,275.39	73.0961	6,275.39	70.1598	6,275.39	70.1393	6,275.39	70.1312	6,275.39	64.9931	6,275.39	69.103	6,275.39	65.0543	6,275.39	67.8458	6,275.39	59.5709	6,275.39	67.1303	6,275.39	50.2341	6,275.39	67.3527	6,275.39	54.5038	6,275.39	67.2304	6,275.39	60.7004	6,275.39	64.6443	6,275.39	52.7111	6,275.39	65.9361	6,275.39	56.0836	6,275.39	62.6251
6,498.05	87.3788	6,498.05	87.5041	6,498.05	87.2861	6,498.05	86.4795	6,498.05	86.4217	6,498.05	85.3527	6,498.05	85.8432	6,498.05	82.5686	6,498.05	84.766	6,498.05	80.2985	6,498.05	80.0788	6,498.05	79.1466	6,498.05	78.8168	6,498.05	75.7461	6,498.05	77.6181	6,498.05	73.952	6,498.05	64.8799	6,498.05	71.4951	6,498.05	66.3347	6,498.05	69.6223	6,498.05	65.6243	6,498.05	68.4631	6,498.05	70.028	6,498.05	67.3653	6,498.05	59.4672	6,498.05	66.5421	6,498.05	56.8072	6,498.05	66.9682	6,498.05	59.3614	6,498.05	66.6767	6,498.05	61.886	6,498.05	66.1094	6,498.05	56.067	6,498.05	65.3467	6,498.05	53.7635	6,498.05	61.0027
6,726.56	87.6432	6,726.56	87.528	6,726.56	87.8148	6,726.56	86.8152	6,726.56	86.6674	6,726.56	85.6198	6,726.56	85.0114	6,726.56	82.9898	6,726.56	83.5546	6,726.56	80.9072	6,726.56	80.8483	6,726.56	78.4442	6,726.56	79.1895	6,726.56	76.1744	6,726.56	74.3199	6,726.56	74.0073	6,726.56	71.8401	6,726.56	71.0518	6,726.56	68.8781	6,726.56	69.3517	6,726.56	59.2142	6,726.56	67.4931	6,726.56	68.8098	6,726.56	67.8138	6,726.56	63.2161	6,726.56	64.542	6,726.56	37.7571	6,726.56	64.2202	6,726.56	59.6064	6,726.56	65.9439	6,726.56	63.6588	6,726.56	65.9011	6,726.56	59.8191	6,726.56	65.3613	6,726.56	60.9683	6,726.56	61.4957
6,963.87	87.6263	6,963.87	87.4138	6,963.87	87.6161	6,963.87	86.6525	6,963.87	86.6954	6,963.87	85.841	6,963.87	85.2767	6,963.87	83.3973	6,963.87	83.6188	6,963.87	80.9921	6,963.87	79.8376	6,963.87	78.7783	6,963.87	77.2704	6,963.87	76.5735	6,963.87	75.4434	6,963.87	75.2366	6,963.87	75.6164	6,963.87	72.9382	6,963.87	70.1144	6,963.87	68.7912	6,963.87	58.5629	6,963.87	68.3177	6,963.87	66.1235	6,963.87	66.4836	6,963.87	62.1539	6,963.87	66.3585	6,963.87	58.2675	6,963.87	65.9639	6,963.87	57.0697	6,963.87	65.1773	6,963.87	58.3508	6,963.87	66.9596	6,963.87	58.5832	6,963.87	65.6097	6,963.87	57.8319	6,963.87	61.9353
7,209.96	87.1811	7,209.96	87.19	7,209.96	87.4451	7,209.96	86.686	7,209.96	87.0432	7,209.96	85.7756	7,209.96	85.6167	7,209.96	83.9611	7,209.96	82.6178	7,209.96	81.0821	7,209.96	78.8039	7,209.96	78.9116	7,209.96	75.9056	7,209.96	77.2054	7,209.96	78.5388	7,209.96	73.5867	7,209.96	79.6289	7,209.96	71.4304	7,209.96	72.8694	7,209.96	69.3019	7,209.96	62.9682	7,209.96	68.3795	7,209.96	61.794	7,209.96	67.6947	7,209.96	59.4946	7,209.96	65.4375	7,209.96	51.6615	7,209.96	65.238	7,209.96	58.9698	7,209.96	65.3106	7,209.96	57.6095	7,209.96	66.367	7,209.96	57.6172	7,209.96	63.2377	7,209.96	56.6026	7,209.96	60.8391
7,464.84	86.8424	7,464.84	86.7312	7,464.84	86.7813	7,464.84	86.5816	7,464.84	86.7713	7,464.84	85.4187	7,464.84	85.2996	7,464.84	83.8321	7,464.84	82.3105	7,464.84	80.5642	7,464.84	77.8534	7,464.84	79.3973	7,464.84	73.4527	7,464.84	76.4214	7,464.84	82.0075	7,464.84	74.4084	7,464.84	78.284	7,464.84	70.9283	7,464.84	73.6676	7,464.84	68.1766	7,464.84	67.3689	7,464.84	68.0738	7,464.84	62.9931	7,464.84	65.5646	7,464.84	63.6769	7,464.84	65.6875	7,464.84	54.9728	7,464.84	66.5122	7,464.84	60.45	7,464.84	65.9305	7,464.84	62.288	7,464.84	65.3369	7,464.84	58.0271	7,464.84	63.7547	7,464.84	56.703	7,464.84	59.1263
7,728.52	87.068	7,728.52	87.1514	7,728.52	86.5698	7,728.52	86.6824	7,728.52	86.2259	7,728.52	85.7094	7,728.52	85.5625	7,728.52	84.2629	7,728.52	83.4485	7,728.52	80.6637	7,728.52	77.7761	7,728.52	79.0279	7,728.52	76.6662	7,728.52	75.1905	7,728.52	82.3331	7,728.52	73.8155	7,728.52	76.5504	7,728.52	72.5056	7,728.52	73.717	7,728.52	68.5931	7,728.52	64.868	7,728.52	68.2863	7,728.52	59.4948	7,728.52	66.7492	7,728.52	55.8861	7,728.52	65.3851	7,728.52	59.7452	7,728.52	67.5614	7,728.52	59.2932	7,728.52	66.1882	7,728.52	60.5518	7,728.52	66.2348	7,728.52	56.1952	7,728.52	64.0993	7,728.52	56.9315	7,728.52	58.6527
8,000.98	87.6585	8,000.98	87.5464	8,000.98	87.1805	8,000.98	86.7135	8,000.98	86.3122	8,000.98	86.0202	8,000.98	86.0377	8,000.98	84.009	8,000.98	83.9184	8,000.98	81.5661	8,000.98	79.8219	8,000.98	78.3346	8,000.98	78.3726	8,000.98	77.5526	8,000.98	80.1793	8,000.98	74.2211	8,000.98	69.8631	8,000.98	72.8011	8,000.98	73.9328	8,000.98	70.1947	8,000.98	69.7988	8,000.98	67.5422	8,000.98	56.8053	8,000.98	67.8271	8,000.98	62.2036	8,000.98	67.5953	8,000.98	54.0769	8,000.98	67.5205	8,000.98	58.8239	8,000.98	66.9327	8,000.98	61.0611	8,000.98	65.7521	8,000.98	60.7039	8,000.98	64.6857	8,000.98	59.3453	8,000.98	56.8768
8,282.23	88.0843	8,282.23	87.3663	8,282.23	87.8156	8,282.23	86.579	8,282.23	86.0454	8,282.23	85.4798	8,282.23	85.5268	8,282.23	83.4555	8,282.23	84.0164	8,282.23	81.3989	8,282.23	80.7408	8,282.23	79.6981	8,282.23	77.7811	8,282.23	78.3579	8,282.23	75.2157	8,282.23	73.6533	8,282.23	71.9909	8,282.23	70.5301	8,282.23	72.4259	8,282.23	68.6491	8,282.23	68.2641	8,282.23	66.1212	8,282.23	60.2049	8,282.23	66.1301	8,282.23	59.7502	8,282.23	66.1497	8,282.23	63.7777	8,282.23	65.9597	8,282.23	61.5103	8,282.23	64.5184	8,282.23	51.9787	8,282.23	65.4408	8,282.23	60.64	8,282.23	63.9824	8,282.23	56.3377	8,282.23	61.1938
8,575.2	88.0788	8,575.2	87.5966	8,575.2	87.94	8,575.2	86.6886	8,575.2	86.6296	8,575.2	84.9433	8,575.2	85.4081	8,575.2	83.8323	8,575.2	84.2661	8,575.2	80.5596	8,575.2	81.2035	8,575.2	80.0636	8,575.2	78.1635	8,575.2	75.4993	8,575.2	68.9734	8,575.2	73.0528	8,575.2	76.4652	8,575.2	69.9226	8,575.2	71.8705	8,575.2	67.7678	8,575.2	68.8099	8,575.2	67.6069	8,575.2	64.1193	8,575.2	64.4567	8,575.2	56.6625	8,575.2	65.4328	8,575.2	62.2297	8,575.2	65.1416	8,575.2	55.3339	8,575.2	62.9185	8,575.2	54.1485	8,575.2	65.4829	8,575.2	53.6729	8,575.2	64.3508	8,575.2	57.1511	8,575.2	59.149
8,876.95	88.2157	8,876.95	87.4298	8,876.95	87.7262	8,876.95	86.0886	8,876.95	86.4043	8,876.95	84.9003	8,876.95	85.0201	8,876.95	83.786	8,876.95	83.7344	8,876.95	81.1828	8,876.95	81.7892	8,876.95	79.788	8,876.95	74.65	8,876.95	76.1964	8,876.95	76.8243	8,876.95	73.4519	8,876.95	78.1126	8,876.95	71.1179	8,876.95	71.3293	8,876.95	67.7817	8,876.95	64.9565	8,876.95	67.6293	8,876.95	64.1162	8,876.95	64.3894	8,876.95	56.0324	8,876.95	65.0099	8,876.95	55.5255	8,876.95	64.4058	8,876.95	59.4772	8,876.95	64.4898	8,876.95	47.445	8,876.95	65.719	8,876.95	58.5401	8,876.95	63.1843	8,876.95	53.8466	8,876.95	58.2096
9,190.43	87.7674	9,190.43	86.9	9,190.43	87.7825	9,190.43	86.0094	9,190.43	86.3301	9,190.43	85.448	9,190.43	84.489	9,190.43	83.8641	9,190.43	83.0178	9,190.43	81.8028	9,190.43	81.0766	9,190.43	78.408	9,190.43	69.55	9,190.43	76.5767	9,190.43	79.2488	9,190.43	71.688	9,190.43	76.1675	9,190.43	69.9417	9,190.43	71.6017	9,190.43	66.1241	9,190.43	53.1468	9,190.43	65.9333	9,190.43	66.4968	9,190.43	63.4303	9,190.43	58.8791	9,190.43	63.8407	9,190.43	56.3324	9,190.43	64.8398	9,190.43	48.1909	9,190.43	64.7611	9,190.43	56.5721	9,190.43	64.9784	9,190.43	51.1319	9,190.43	62.8521	9,190.43	57.7356	9,190.43	58.2623
9,512.7	87.6279	9,512.7	86.9322	9,512.7	87.6072	9,512.7	86.0925	9,512.7	86.3389	9,512.7	85.8711	9,512.7	85.0658	9,512.7	84.4938	9,512.7	83.8842	9,512.7	81.4733	9,512.7	79.5672	9,512.7	78.7089	9,512.7	75.7068	9,512.7	75.1688	9,512.7	78.6318	9,512.7	72.2757	9,512.7	72.9938	9,512.7	69.5648	9,512.7	67.7874	9,512.7	65.3315	9,512.7	37.8302	9,512.7	65.283	9,512.7	70.0635	9,512.7	61.883	9,512.7	53.3845	9,512.7	65.246	9,512.7	59.5378	9,512.7	65.5613	9,512.7	49.8233	9,512.7	65.2039	9,512.7	53.725	9,512.7	65.7381	9,512.7	50.3431	9,512.7	60.8884	9,512.7	50.97	9,512.7	56.6427
9,849.61	87.7626	9,849.61	87.2089	9,849.61	87.6516	9,849.61	86.1191	9,849.61	85.9312	9,849.61	85.632	9,849.61	85.3535	9,849.61	84.5285	9,849.61	83.8643	9,849.61	81.4165	9,849.61	77.73	9,849.61	78.7141	9,849.61	77.8197	9,849.61	74.2613	9,849.61	74.9635	9,849.61	71.9067	9,849.61	72.3161	9,849.61	69.0759	9,849.61	64.8071	9,849.61	64.5921	9,849.61	52.7903	9,849.61	64.3273	9,849.61	69.9297	9,849.61	63.3528	9,849.61	54.0937	9,849.61	64.1998	9,849.61	60.2239	9,849.61	64.2844	9,849.61	50.3806	9,849.61	64.0542	9,849.61	57.2695	9,849.61	65.7519	9,849.61	53.5943	9,849.61	61.3266	9,849.61	56.2076	9,849.61	59.9477
10,195.3	88.1656	10,195.3	87.5978	10,195.3	87.6352	10,195.3	86.4012	10,195.3	85.7116	10,195.3	85.5376	10,195.3	84.9731	10,195.3	84.0573	10,195.3	83.0106	10,195.3	81.2633	10,195.3	79.9808	10,195.3	78.6647	10,195.3	77.0059	10,195.3	74.8141	10,195.3	73.2519	10,195.3	71.6116	10,195.3	74.4096	10,195.3	69.7358	10,195.3	68.0225	10,195.3	64.5877	10,195.3	61.5227	10,195.3	64.4391	10,195.3	68.4971	10,195.3	63.6339	10,195.3	43.6601	10,195.3	64.6511	10,195.3	56.1564	10,195.3	64.4922	10,195.3	51.9968	10,195.3	64.6215	10,195.3	47.1301	10,195.3	64.8613	10,195.3	43.2041	10,195.3	62.2501	10,195.3	50.5735	10,195.3	57.2946
10,555.7	88.5156	10,555.7	87.5037	10,555.7	87.8105	10,555.7	86.2837	10,555.7	86.0354	10,555.7	85.6665	10,555.7	85.4403	10,555.7	83.8605	10,555.7	84.2881	10,555.7	81.1481	10,555.7	81.051	10,555.7	78.4106	10,555.7	73.6826	10,555.7	74.6816	10,555.7	75.132	10,555.7	71.5369	10,555.7	72.2337	10,555.7	68.7207	10,555.7	70.3428	10,555.7	64.3256	10,555.7	63.9932	10,555.7	64.3707	10,555.7	67.0597	10,555.7	63.7857	10,555.7	52.3978	10,555.7	63.4961	10,555.7	46.8786	10,555.7	63.4646	10,555.7	50.0268	10,555.7	63.5123	10,555.7	50.8127	10,555.7	62.8998	10,555.7	48.4972	10,555.7	59.8775	10,555.7	50.6188	10,555.7	57.3745
10,927.7	88.4287	10,927.7	87.0424	10,927.7	88.1456	10,927.7	85.9148	10,927.7	86.2885	10,927.7	85.4493	10,927.7	85.14	10,927.7	83.962	10,927.7	83.7763	10,927.7	80.6029	10,927.7	79.4768	10,927.7	78.3304	10,927.7	76.4778	10,927.7	74.57	10,927.7	72.743	10,927.7	70.3283	10,927.7	73.6575	10,927.7	68.3843	10,927.7	67.381	10,927.7	63.8217	10,927.7	66.079	10,927.7	61.8656	10,927.7	67.6533	10,927.7	63.9221	10,927.7	53.4768	10,927.7	61.7401	10,927.7	49.8084	10,927.7	63.4477	10,927.7	50.3398	10,927.7	63.1956	10,927.7	53.6403	10,927.7	62.6556	10,927.7	52.9889	10,927.7	60.7841	10,927.7	47.5	10,927.7	55.2691
11,314.5	88.2167	11,314.5	87.0265	11,314.5	87.898	11,314.5	86.1603	11,314.5	86.3891	11,314.5	85.8383	11,314.5	85.2999	11,314.5	84.189	11,314.5	83.8699	11,314.5	80.0996	11,314.5	77.8919	11,314.5	77.8566	11,314.5	78.117	11,314.5	73.8802	11,314.5	63.131	11,314.5	70.4191	11,314.5	75.9733	11,314.5	67.7708	11,314.5	65.7126	11,314.5	62.9905	11,314.5	64.3001	11,314.5	61.2164	11,314.5	70.321	11,314.5	62.9302	11,314.5	53.9005	11,314.5	62.1647	11,314.5	49.6045	11,314.5	63.6114	11,314.5	54.4541	11,314.5	63.9699	11,314.5	59.0978	11,314.5	64.4884	11,314.5	47.3159	11,314.5	60.7486	11,314.5	41.4242	11,314.5	56.6234
11,712.9	87.445	11,712.9	86.9164	11,712.9	87.212	11,712.9	86.2811	11,712.9	86.3553	11,712.9	86.0135	11,712.9	85.8923	11,712.9	84.0392	11,712.9	83.9712	11,712.9	80.1339	11,712.9	79.4528	11,712.9	78.1124	11,712.9	77.1778	11,712.9	74.2414	11,712.9	72.6605	11,712.9	70.2956	11,712.9	76.4608	11,712.9	67.0931	11,712.9	70.556	11,712.9	64.5112	11,712.9	67.1312	11,712.9	61.173	11,712.9	70.4451	11,712.9	63.0414	11,712.9	56.9946	11,712.9	62.9874	11,712.9	50.0812	11,712.9	63.9193	11,712.9	57.223	11,712.9	64.1235	11,712.9	46.4586	11,712.9	63.8289	11,712.9	44.7486	11,712.9	61.1276	11,712.9	48.2954	11,712.9	56.7477
12,126	87.2767	12,126	86.6355	12,126	86.7564	12,126	86.3774	12,126	86.1598	12,126	85.8994	12,126	85.9983	12,126	83.914	12,126	84.3368	12,126	80.0306	12,126	79.5993	12,126	77.8419	12,126	77.2304	12,126	74.2177	12,126	75.5732	12,126	70.9757	12,126	75.8476	12,126	68.1024	12,126	71.0632	12,126	63.8176	12,126	69.1549	12,126	60.5406	12,126	71.9743	12,126	64.3652	12,126	57.3331	12,126	62.6821	12,126	46.5316	12,126	63.619	12,126	57.8939	12,126	64.0455	12,126	50.6473	12,126	63.6529	12,126	50.9392	12,126	61.3732	12,126	51.3642	12,126	54.2077
12,553.7	86.736	12,553.7	86.4672	12,553.7	86.478	12,553.7	86.4838	12,553.7	85.9156	12,553.7	85.7418	12,553.7	85.9871	12,553.7	83.3434	12,553.7	83.8577	12,553.7	79.9378	12,553.7	79.5105	12,553.7	77.8185	12,553.7	79.1581	12,553.7	75.019	12,553.7	71.864	12,553.7	70.8517	12,553.7	72.9438	12,553.7	68.6594	12,553.7	68.6829	12,553.7	63.7602	12,553.7	68.4442	12,553.7	60.6444	12,553.7	71.5967	12,553.7	63.7779	12,553.7	51.9844	12,553.7	63.0854	12,553.7	46.3803	12,553.7	63.4869	12,553.7	55.6626	12,553.7	64.2792	12,553.7	38.0954	12,553.7	64.8264	12,553.7	51.5011	12,553.7	61.4242	12,553.7	51.3107	12,553.7	54.3341
12,996.1	86.4721	12,996.1	86.2867	12,996.1	86.5884	12,996.1	86.285	12,996.1	86.4851	12,996.1	85.356	12,996.1	85.5372	12,996.1	82.8766	12,996.1	83.4464	12,996.1	80.1233	12,996.1	79.7371	12,996.1	77.7418	12,996.1	79.1018	12,996.1	74.3035	12,996.1	69.466	12,996.1	69.8379	12,996.1	75.0585	12,996.1	66.2731	12,996.1	67.7097	12,996.1	63.0057	12,996.1	71.5495	12,996.1	59.8558	12,996.1	73.8275	12,996.1	61.2724	12,996.1	57.8912	12,996.1	63.0099	12,996.1	56.9236	12,996.1	63.3374	12,996.1	56.875	12,996.1	64.2379	12,996.1	45.7986	12,996.1	62.8171	12,996.1	51.538	12,996.1	60.7607	12,996.1	49.9723	12,996.1	53.3435
13,453.1	86.0417	13,453.1	86.6738	13,453.1	86.5617	13,453.1	86.1649	13,453.1	86.6415	13,453.1	84.5185	13,453.1	84.7574	13,453.1	82.5254	13,453.1	82.1409	13,453.1	79.5713	13,453.1	79.7328	13,453.1	77.8829	13,453.1	77.9915	13,453.1	74.293	13,453.1	73.1262	13,453.1	69.7052	13,453.1	75.0134	13,453.1	66.8104	13,453.1	64.5128	13,453.1	64.2041	13,453.1	72.8674	13,453.1	59.4321	13,453.1	73.0574	13,453.1	60.4476	13,453.1	58.279	13,453.1	62.0719	13,453.1	54.3197	13,453.1	62.8662	13,453.1	46.4062	13,453.1	63.2967	13,453.1	48.5809	13,453.1	62.8337	13,453.1	47.9627	13,453.1	61.1445	13,453.1	47.8366	13,453.1	54.8638
13,927.7	85.6118	13,927.7	86.7403	13,927.7	86.2177	13,927.7	86.0283	13,927.7	86.4008	13,927.7	84.0498	13,927.7	84.3972	13,927.7	81.8532	13,927.7	82.3927	13,927.7	79.0278	13,927.7	80.5622	13,927.7	77.6233	13,927.7	77.3166	13,927.7	73.9004	13,927.7	75.7165	13,927.7	68.6252	13,927.7	74.1913	13,927.7	64.5296	13,927.7	67.6582	13,927.7	62.2775	13,927.7	71.425	13,927.7	57.0601	13,927.7	72.2896	13,927.7	59.0319	13,927.7	59.5153	13,927.7	60.9655	13,927.7	56.6078	13,927.7	61.4654	13,927.7	53.0333	13,927.7	60.504	13,927.7	44.6006	13,927.7	61.9454	13,927.7	49.8214	13,927.7	59.8624	13,927.7	48.2684	13,927.7	53.569
14,419.9	85.4448	14,419.9	86.3747	14,419.9	86.2441	14,419.9	85.8254	14,419.9	85.9119	14,419.9	83.705	14,419.9	84.2221	14,419.9	81.5903	14,419.9	82.7131	14,419.9	78.786	14,419.9	80.2404	14,419.9	77.4381	14,419.9	75.6689	14,419.9	71.4492	14,419.9	75.7608	14,419.9	67.0243	14,419.9	70.8852	14,419.9	64.0102	14,419.9	69.0578	14,419.9	59.5318	14,419.9	70.9714	14,419.9	55.3576	14,419.9	71.6341	14,419.9	58.4403	14,419.9	45.7436	14,419.9	58.5348	14,419.9	44.7175	14,419.9	59.5145	14,419.9	53.8767	14,419.9	60.7057	14,419.9	45.5091	14,419.9	60.193	14,419.9	46.3668	14,419.9	57.457	14,419.9	19.3594	14,419.9	52.4544
14,929.7	85.5814	14,929.7	86.2387	14,929.7	86.4633	14,929.7	85.1505	14,929.7	85.5617	14,929.7	83.4755	14,929.7	83.4197	14,929.7	81.2466	14,929.7	81.9065	14,929.7	79.0613	14,929.7	79.6603	14,929.7	75.9712	14,929.7	74.5727	14,929.7	70.9929	14,929.7	74.3302	14,929.7	64.4827	14,929.7	72.3181	14,929.7	61.1223	14,929.7	67.3306	14,929.7	56.65	14,929.7	70.7602	14,929.7	55.0025	14,929.7	71.7407	14,929.7	56.0715	14,929.7	44.9771	14,929.7	55.9643	14,929.7	45.9611	14,929.7	58.836	14,929.7	49.6334	14,929.7	56.9409	14,929.7	51.8253	14,929.7	56.8948	14,929.7	43.861	14,929.7	56.5156	14,929.7	48.634	14,929.7	53.9819
15,454.1	86.1698	15,454.1	86.7539	15,454.1	86.3378	15,454.1	85.2833	15,454.1	85.5279	15,454.1	83.4141	15,454.1	83.3215	15,454.1	81.5107	15,454.1	82.3016	15,454.1	79.272	15,454.1	78.3572	15,454.1	75.2883	15,454.1	74.2397	15,454.1	69.9417	15,454.1	74.4358	15,454.1	64.8115	15,454.1	69.7664	15,454.1	60.5488	15,454.1	62.1303	15,454.1	57.9569	15,454.1	70.2644	15,454.1	53.5377	15,454.1	71.6997	15,454.1	54.9049	15,454.1	41.4303	15,454.1	53.9353	15,454.1	47.4519	15,454.1	60.0812	15,454.1	49.2713	15,454.1	55.7789	15,454.1	49.9738	15,454.1	58.4878	15,454.1	49.6108	15,454.1	57.253	15,454.1	48.8492	15,454.1	56.1223
15,999	86.3645	15,999	86.6223	15,999	86.1252	15,999	85.315	15,999	84.8072	15,999	83.5922	15,999	83.4773	15,999	81.8386	15,999	81.9286	15,999	78.6572	15,999	78.0434	15,999	73.5383	15,999	73.7779	15,999	69.0359	15,999	71.8294	15,999	63.6592	15,999	64.9783	15,999	58.8308	15,999	58.9538	15,999	56.4051	15,999	71.1207	15,999	52.8773	15,999	71.34	15,999	51.9857	15,999	52.2938	15,999	51.6738	15,999	45.3734	15,999	58.3792	15,999	45.6937	15,999	53.5645	15,999	52.6324	15,999	56.7905	15,999	51.7918	15,999	55.5007	15,999	50.0597	15,999	55.3683
16,564.5	86.451	16,564.5	86.496	16,564.5	85.8714	16,564.5	85.0976	16,564.5	84.5946	16,564.5	83.5858	16,564.5	83.4813	16,564.5	81.627	16,564.5	81.27	16,564.5	77.5743	16,564.5	76.4693	16,564.5	72.8334	16,564.5	72.0526	16,564.5	66.12	16,564.5	69.8199	16,564.5	63.0669	16,564.5	63.4894	16,564.5	57.6876	16,564.5	59.3876	16,564.5	55.3737	16,564.5	68.9105	16,564.5	49.0804	16,564.5	69.5292	16,564.5	51.849	16,564.5	55.7056	16,564.5	48.9117	16,564.5	46.2254	16,564.5	57.1467	16,564.5	49.6747	16,564.5	53.4001	16,564.5	49.3757	16,564.5	54.1225	16,564.5	50.4658	16,564.5	53.6165	16,564.5	50.1349	16,564.5	53.3517
17,147.5	86.9474	17,147.5	86.2322	17,147.5	85.8794	17,147.5	84.859	17,147.5	83.9831	17,147.5	83.6887	17,147.5	83.1215	17,147.5	81.498	17,147.5	81.2587	17,147.5	76.3567	17,147.5	75.0162	17,147.5	71.5117	17,147.5	71.8173	17,147.5	66.1031	17,147.5	68.6613	17,147.5	61.462	17,147.5	63.218	17,147.5	55.1002	17,147.5	51.7137	17,147.5	51.9269	17,147.5	68.3415	17,147.5	45.3394	17,147.5	68.6062	17,147.5	48.8368	17,147.5	52.1821	17,147.5	50.7163	17,147.5	50.0449	17,147.5	56.129	17,147.5	49.3369	17,147.5	47.598	17,147.5	52.1111	17,147.5	48.5747	17,147.5	47.3429	17,147.5	52.7977	17,147.5	48.9905	17,147.5	50.3478
17,753.9	87.4218	17,753.9	86.424	17,753.9	86.1906	17,753.9	84.872	17,753.9	84.1912	17,753.9	83.6315	17,753.9	82.9635	17,753.9	80.5827	17,753.9	80.5376	17,753.9	74.813	17,753.9	74.8266	17,753.9	70.5293	17,753.9	71.6039	17,753.9	63.1042	17,753.9	67.8189	17,753.9	60.5267	17,753.9	61.5445	17,753.9	52.0911	17,753.9	53.8921	17,753.9	50.1729	17,753.9	67.5252	17,753.9	46.668	17,753.9	68.7513	17,753.9	41.8117	17,753.9	48.0683	17,753.9	53.691	17,753.9	47.5518	17,753.9	53.1292	17,753.9	52.1331	17,753.9	41.9573	17,753.9	48.8221	17,753.9	48.1404	17,753.9	50.7628	17,753.9	53.7325	17,753.9	49.4938	17,753.9	46.4468
18,377.9	87.3699	18,377.9	86.2603	18,377.9	86.1646	18,377.9	85.0679	18,377.9	84.11	18,377.9	83.5583	18,377.9	82.669	18,377.9	79.3677	18,377.9	79.8516	18,377.9	73.4556	18,377.9	73.6702	18,377.9	68.4573	18,377.9	68.697	18,377.9	61.3354	18,377.9	65.0031	18,377.9	57.1638	18,377.9	59.615	18,377.9	50.4834	18,377.9	48.939	18,377.9	46.9847	18,377.9	66.3437	18,377.9	45.5307	18,377.9	67.681	18,377.9	35.1971	18,377.9	47.4978	18,377.9	53.969	18,377.9	36.0531	18,377.9	51.0335	18,377.9	47.7626	18,377.9	39.6078	18,377.9	47.6975	18,377.9	48.2385	18,377.9	46.8086	18,377.9	52.6265	18,377.9	40.7106	18,377.9	41.9893
19,028.3	87.3966	19,028.3	86.1673	19,028.3	86.0952	19,028.3	84.8752	19,028.3	83.7528	19,028.3	83.1088	19,028.3	81.9861	19,028.3	77.9829	19,028.3	78.8856	19,028.3	72.0522	19,028.3	71.6105	19,028.3	65.6702	19,028.3	65.8732	19,028.3	57.29	19,028.3	63.0187	19,028.3	55.7072	19,028.3	56.3814	19,028.3	48.9643	19,028.3	42.5499	19,028.3	43.0183	19,028.3	65.3082	19,028.3	44.8726	19,028.3	65.4351	19,028.3	41.577	19,028.3	48.0598	19,028.3	52.2895	19,028.3	46.4997	19,028.3	47.1025	19,028.3	48.5806	19,028.3	40.3696	19,028.3	29.0522	19,028.3	50.3899	19,028.3	48.299	19,028.3	52.9325	19,028.3	44.1316	19,028.3	51.8605
19,699.2	87.5666	19,699.2	86.1341	19,699.2	86.3812	19,699.2	84.4629	19,699.2	83.8935	19,699.2	81.7957	19,699.2	81.2977	19,699.2	76.1015	19,699.2	77.5842	19,699.2	69.1656	19,699.2	69.7895	19,699.2	60.6339	19,699.2	63.5546	19,699.2	52.696	19,699.2	58.8333	19,699.2	53.5944	19,699.2	51.4243	19,699.2	45.4895	19,699.2	48.2708	19,699.2	34.1228	19,699.2	63.2896	19,699.2	42.0703	19,699.2	63.1679	19,699.2	41.4768	19,699.2	48.2069	19,699.2	51.6707	19,699.2	47.4924	19,699.2	36.0151	19,699.2	50.5715	19,699.2	42.9553	19,699.2	45.3427	19,699.2	48.089	19,699.2	49.4682	19,699.2	51.6435	19,699.2	45.7361	19,699.2	53.884
19,998	87.3935	19,998	85.9012	19,998	86.4835	19,998	84.0996	19,998	84.2476	19,998	81.0861	19,998	80.7723	19,998	75.4733	19,998	77.2779	19,998	67.0617	19,998	67.797	19,998	56.7419	19,998	59.3252	19,998	51.7349	19,998	55.5137	19,998	56.6373	19,998	53.0134	19,998	47.8562	19,998	52.48	19,998	42.0821	19,998	61.5938	19,998	35.2804	19,998	62.7635	19,998	48.0808	19,998	35.098	19,998	57.6373	19,998	46.162	19,998	51.5925	19,998	54.123	19,998	50.6505	19,998	49.1009	19,998	57.3557	19,998	50.4222	19,998	43.7234	19,998	44.7532	19,998	52.7538
