"SPL Horizontal"																																																																							
"On-Axis"		"10°"		"-10°"		"20°"		"-20°"		"30°"		"-30°"		"40°"		"-40°"		"50°"		"-50°"		"60°"		"-60°"		"70°"		"-70°"		"80°"		"-80°"		"90°"		"-90°"		"100°"		"-100°"		"110°"		"-110°"		"120°"		"-120°"		"130°"		"-130°"		"140°"		"-140°"		"150°"		"-150°"		"160°"		"-160°"		"170°"		"-170°"		"180°"	
"Frequency [Hz]"	"Sound Pessure Level [dB]  / [2.83V 1m] "	"Frequency [Hz]"	"Sound Pessure Level [dB]  / [2.83V 1m] "	"Frequency [Hz]"	"Sound Pessure Level [dB]  / [2.83V 1m] "	"Frequency [Hz]"	"Sound Pessure Level [dB]  / [2.83V 1m] "	"Frequency [Hz]"	"Sound Pessure Level [dB]  / [2.83V 1m] "	"Frequency [Hz]"	"Sound Pessure Level [dB]  / [2.83V 1m] "	"Frequency [Hz]"	"Sound Pessure Level [dB]  / [2.83V 1m] "	"Frequency [Hz]"	"Sound Pessure Level [dB]  / [2.83V 1m] "	"Frequency [Hz]"	"Sound Pessure Level [dB]  / [2.83V 1m] "	"Frequency [Hz]"	"Sound Pessure Level [dB]  / [2.83V 1m] "	"Frequency [Hz]"	"Sound Pessure Level [dB]  / [2.83V 1m] "	"Frequency [Hz]"	"Sound Pessure Level [dB]  / [2.83V 1m] "	"Frequency [Hz]"	"Sound Pessure Level [dB]  / [2.83V 1m] "	"Frequency [Hz]"	"Sound Pessure Level [dB]  / [2.83V 1m] "	"Frequency [Hz]"	"Sound Pessure Level [dB]  / [2.83V 1m] "	"Frequency [Hz]"	"Sound Pessure Level [dB]  / [2.83V 1m] "	"Frequency [Hz]"	"Sound Pessure Level [dB]  / [2.83V 1m] "	"Frequency [Hz]"	"Sound Pessure Level [dB]  / [2.83V 1m] "	"Frequency [Hz]"	"Sound Pessure Level [dB]  / [2.83V 1m] "	"Frequency [Hz]"	"Sound Pessure Level [dB]  / [2.83V 1m] "	"Frequency [Hz]"	"Sound Pessure Level [dB]  / [2.83V 1m] "	"Frequency [Hz]"	"Sound Pessure Level [dB]  / [2.83V 1m] "	"Frequency [Hz]"	"Sound Pessure Level [dB]  / [2.83V 1m] "	"Frequency [Hz]"	"Sound Pessure Level [dB]  / [2.83V 1m] "	"Frequency [Hz]"	"Sound Pessure Level [dB]  / [2.83V 1m] "	"Frequency [Hz]"	"Sound Pessure Level [dB]  / [2.83V 1m] "	"Frequency [Hz]"	"Sound Pessure Level [dB]  / [2.83V 1m] "	"Frequency [Hz]"	"Sound Pessure Level [dB]  / [2.83V 1m] "	"Frequency [Hz]"	"Sound Pessure Level [dB]  / [2.83V 1m] "	"Frequency [Hz]"	"Sound Pessure Level [dB]  / [2.83V 1m] "	"Frequency [Hz]"	"Sound Pessure Level [dB]  / [2.83V 1m] "	"Frequency [Hz]"	"Sound Pessure Level [dB]  / [2.83V 1m] "	"Frequency [Hz]"	"Sound Pessure Level [dB]  / [2.83V 1m] "	"Frequency [Hz]"	"Sound Pessure Level [dB]  / [2.83V 1m] "	"Frequency [Hz]"	"Sound Pessure Level [dB]  / [2.83V 1m] "	"Frequency [Hz]"	"Sound Pessure Level [dB]  / [2.83V 1m] "
20.5078	64.1927	20.5078	64.1877	20.5078	64.1914	20.5078	64.176	20.5078	64.1839	20.5078	64.1565	20.5078	64.1698	20.5078	64.1278	20.5078	64.148	20.5078	64.0884	20.5078	64.1173	20.5078	64.0372	20.5078	64.0768	20.5078	63.9738	20.5078	64.0255	20.5078	63.8988	20.5078	63.9633	20.5078	63.814	20.5078	63.8911	20.5078	63.7228	20.5078	63.8106	20.5078	63.6295	20.5078	63.7247	20.5078	63.5391	20.5078	63.637	20.5078	63.4568	20.5078	63.5516	20.5078	63.387	20.5078	63.4725	20.5078	63.3334	20.5078	63.4036	20.5078	63.298	20.5078	63.3479	20.5078	63.2821	20.5078	63.308	20.5078	63.2856
23.4375	66.4812	23.4375	66.4802	23.4375	66.4752	23.4375	66.4718	23.4375	66.4623	23.4375	66.455	23.4375	66.442	23.4375	66.4287	23.4375	66.4133	23.4375	66.3916	23.4375	66.3754	23.4375	66.3426	23.4375	66.3273	23.4375	66.2814	23.4375	66.2687	23.4375	66.2086	23.4375	66.1997	23.4375	66.126	23.4375	66.1218	23.4375	66.0364	23.4375	66.0372	23.4375	65.9439	23.4375	65.9492	23.4375	65.8531	23.4375	65.8619	23.4375	65.7687	23.4375	65.7793	23.4375	65.6947	23.4375	65.7057	23.4375	65.6347	23.4375	65.6444	23.4375	65.591	23.4375	65.5982	23.4375	65.5652	23.4375	65.569	23.4375	65.5578
26.3672	68.3346	26.3672	68.331	26.3672	68.3312	26.3672	68.3201	26.3672	68.3208	26.3672	68.301	26.3672	68.3031	26.3672	68.2728	26.3672	68.2773	26.3672	68.2343	26.3672	68.2426	26.3672	68.185	26.3672	68.1983	26.3672	68.1246	26.3672	68.144	26.3672	68.0539	26.3672	68.0802	26.3672	67.9749	26.3672	68.008	26.3672	67.8904	26.3672	67.9294	26.3672	67.8044	26.3672	67.8477	26.3672	67.7211	26.3672	67.7662	26.3672	67.6449	26.3672	67.6888	26.3672	67.5795	26.3672	67.6192	26.3672	67.5278	26.3672	67.5604	26.3672	67.4917	26.3672	67.5149	26.3672	67.4724	26.3672	67.4844	26.3672	67.47
29.2969	69.8975	29.2969	69.8944	29.2969	69.8928	29.2969	69.883	29.2969	69.8801	29.2969	69.8627	29.2969	69.8593	29.2969	69.8327	29.2969	69.8297	29.2969	69.7921	29.2969	69.7908	29.2969	69.7404	29.2969	69.7419	29.2969	69.6776	29.2969	69.6833	29.2969	69.6047	29.2969	69.6153	29.2969	69.5236	29.2969	69.5397	29.2969	69.4375	29.2969	69.4587	29.2969	69.3502	29.2969	69.3755	29.2969	69.2658	29.2969	69.2937	29.2969	69.1886	29.2969	69.217	29.2969	69.1223	29.2969	69.1487	29.2969	69.0697	29.2969	69.0919	29.2969	69.0324	29.2969	69.0485	29.2969	69.0117	29.2969	69.02	29.2969	69.0076
32.2266	71.462	32.2266	71.4587	32.2266	71.4571	32.2266	71.4466	32.2266	71.4438	32.2266	71.4253	32.2266	71.422	32.2266	71.3942	32.2266	71.3913	32.2266	71.3527	32.2266	71.3515	32.2266	71.3006	32.2266	71.3024	32.2266	71.2382	32.2266	71.244	32.2266	71.1667	32.2266	71.1773	32.2266	71.0881	32.2266	71.1038	32.2266	71.0052	32.2266	71.0257	32.2266	70.9218	32.2266	70.9459	32.2266	70.8417	32.2266	70.8678	32.2266	70.7686	32.2266	70.7947	32.2266	70.7057	32.2266	70.7298	32.2266	70.6557	32.2266	70.6758	32.2266	70.6201	32.2266	70.6345	32.2266	70.6001	32.2266	70.6076	32.2266	70.596
35.1563	72.8274	35.1563	72.8235	35.1563	72.8223	35.1563	72.8105	35.1563	72.8084	35.1563	72.7879	35.1563	72.7855	35.1563	72.7554	35.1563	72.7536	35.1563	72.7127	35.1563	72.7125	35.1563	72.6598	35.1563	72.6623	35.1563	72.5975	35.1563	72.6037	35.1563	72.5272	35.1563	72.5377	35.1563	72.4511	35.1563	72.4662	35.1563	72.3722	35.1563	72.3915	35.1563	72.2941	35.1563	72.3165	35.1563	72.2203	35.1563	72.2443	35.1563	72.154	35.1563	72.1779	35.1563	72.0979	35.1563	72.1199	35.1563	72.0539	35.1563	72.0721	35.1563	72.0231	35.1563	72.0361	35.1563	72.0059	35.1563	72.0127	35.1563	72.0025
38.0859	74.1249	38.0859	74.12	38.0859	74.1197	38.0859	74.1049	38.0859	74.1045	38.0859	74.0794	38.0859	74.0794	38.0859	74.0434	38.0859	74.0443	38.0859	73.997	38.0859	73.9993	38.0859	73.9407	38.0859	73.9449	38.0859	73.8753	38.0859	73.8818	38.0859	73.8026	38.0859	73.8113	38.0859	73.7246	38.0859	73.7353	38.0859	73.6444	38.0859	73.6563	38.0859	73.5651	38.0859	73.5772	38.0859	73.4899	38.0859	73.5012	38.0859	73.4217	38.0859	73.4315	38.0859	73.363	38.0859	73.3708	38.0859	73.3157	38.0859	73.3213	38.0859	73.2812	38.0859	73.2847	38.0859	73.2604	38.0859	73.262	38.0859	73.2539
41.0156	75.2427	41.0156	75.2377	41.0156	75.2374	41.0156	75.2224	41.0156	75.222	41.0156	75.1965	41.0156	75.1968	41.0156	75.1602	41.0156	75.1619	41.0156	75.1137	41.0156	75.118	41.0156	75.0578	41.0156	75.0659	41.0156	74.9937	41.0156	75.0066	41.0156	74.9235	41.0156	74.942	41.0156	74.8499	41.0156	74.8743	41.0156	74.7762	41.0156	74.8061	41.0156	74.7057	41.0156	74.7399	41.0156	74.6416	41.0156	74.6783	41.0156	74.5865	41.0156	74.6232	41.0156	74.5421	41.0156	74.5762	41.0156	74.5093	41.0156	74.5378	41.0156	74.488	41.0156	74.5086	41.0156	74.4779	41.0156	74.4887	41.0156	74.4784
43.9453	76.4579	43.9453	76.4562	43.9453	76.4476	43.9453	76.4421	43.9453	76.4253	43.9453	76.4159	43.9453	76.3914	43.9453	76.3778	43.9453	76.3465	43.9453	76.3282	43.9453	76.2913	43.9453	76.2683	43.9453	76.227	43.9453	76.1994	43.9453	76.1552	43.9453	76.1239	43.9453	76.0782	43.9453	76.0444	43.9453	75.9985	43.9453	75.9641	43.9453	75.9193	43.9453	75.8861	43.9453	75.8436	43.9453	75.8136	43.9453	75.7743	43.9453	75.7488	43.9453	75.7139	43.9453	75.6935	43.9453	75.664	43.9453	75.6489	43.9453	75.6258	43.9453	75.6155	43.9453	75.5996	43.9453	75.5937	43.9453	75.5856	43.9453	75.5837
46.875	77.5776	46.875	77.5738	46.875	77.5667	46.875	77.5556	46.875	77.5416	46.875	77.5233	46.875	77.5027	46.875	77.4776	46.875	77.4509	46.875	77.4195	46.875	77.3872	46.875	77.3507	46.875	77.3134	46.875	77.2731	46.875	77.2315	46.875	77.1896	46.875	77.1442	46.875	77.103	46.875	77.0546	46.875	77.0167	46.875	76.9661	46.875	76.9337	46.875	76.8822	46.875	76.8569	46.875	76.8059	46.875	76.7882	46.875	76.74	46.875	76.7293	46.875	76.6861	46.875	76.6809	46.875	76.6455	46.875	76.6438	46.875	76.6186	46.875	76.6185	46.875	76.6054	46.875	76.6055
49.8047	78.5408	49.8047	78.5329	49.8047	78.5342	49.8047	78.5109	49.8047	78.5134	49.8047	78.4752	49.8047	78.4788	49.8047	78.4269	49.8047	78.4315	49.8047	78.3673	49.8047	78.3727	49.8047	78.2983	49.8047	78.3043	49.8047	78.2223	49.8047	78.2285	49.8047	78.1421	49.8047	78.148	49.8047	78.0609	49.8047	78.0659	49.8047	77.982	49.8047	77.9854	49.8047	77.9081	49.8047	77.9097	49.8047	77.8417	49.8047	77.8414	49.8047	77.7843	49.8047	77.7823	49.8047	77.7368	49.8047	77.7338	49.8047	77.6996	49.8047	77.6964	49.8047	77.6728	49.8047	77.6701	49.8047	77.6563	49.8047	77.6548	49.8047	77.6503
52.7344	79.5123	52.7344	79.5041	52.7344	79.5048	52.7344	79.4802	52.7344	79.4816	52.7344	79.4414	52.7344	79.4435	52.7344	79.389	52.7344	79.3918	52.7344	79.3247	52.7344	79.3281	52.7344	79.2508	52.7344	79.2547	52.7344	79.1701	52.7344	79.1742	52.7344	79.0858	52.7344	79.0899	52.7344	79.0015	52.7344	79.0049	52.7344	78.9205	52.7344	78.9229	52.7344	78.8458	52.7344	78.8467	52.7344	78.7796	52.7344	78.7789	52.7344	78.7232	52.7344	78.7212	52.7344	78.6771	52.7344	78.6743	52.7344	78.6415	52.7344	78.6385	52.7344	78.6161	52.7344	78.6136	52.7344	78.6005	52.7344	78.5992	52.7344	78.5949
55.6641	80.3886	55.6641	80.3802	55.6641	80.3803	55.6641	80.3556	55.6641	80.3558	55.6641	80.3157	55.6641	80.3159	55.6641	80.2621	55.6641	80.2621	55.6641	80.1972	55.6641	80.1965	55.6641	80.1236	55.6641	80.122	55.6641	80.0448	55.6641	80.0415	55.6641	79.9644	55.6641	79.9587	55.6641	79.886	55.6641	79.8773	55.6641	79.8129	55.6641	79.8006	55.6641	79.7475	55.6641	79.7316	55.6641	79.6914	55.6641	79.6725	55.6641	79.645	55.6641	79.6243	55.6641	79.6078	55.6641	79.5873	55.6641	79.5791	55.6641	79.561	55.6641	79.5579	55.6641	79.5444	55.6641	79.5438	55.6641	79.5365	55.6641	79.5365
58.5938	81.3017	58.5938	81.2886	58.5938	81.2972	58.5938	81.2584	58.5938	81.2754	58.5938	81.2123	58.5938	81.2374	58.5938	81.1525	58.5938	81.185	58.5938	81.0816	58.5938	81.1207	58.5938	81.0031	58.5938	81.0475	58.5938	80.921	58.5938	80.9689	58.5938	80.8394	58.5938	80.8888	58.5938	80.7624	58.5938	80.8109	58.5938	80.6933	58.5938	80.7386	58.5938	80.6346	58.5938	80.6746	58.5938	80.5872	58.5938	80.6206	58.5938	80.551	58.5938	80.5772	58.5938	80.5247	58.5938	80.5438	58.5938	80.5066	58.5938	80.5196	58.5938	80.4953	58.5938	80.5032	58.5938	80.4896	58.5938	80.4933	58.5938	80.4889
61.5234	82.0575	61.5234	82.0453	61.5234	82.0493	61.5234	82.0131	61.5234	82.0211	61.5234	81.9624	61.5234	81.9742	61.5234	81.8957	61.5234	81.911	61.5234	81.8162	61.5234	81.8344	61.5234	81.7279	61.5234	81.7485	61.5234	81.6354	61.5234	81.6574	61.5234	81.5437	61.5234	81.5659	61.5234	81.4574	61.5234	81.4784	61.5234	81.3804	61.5234	81.3991	61.5234	81.3155	61.5234	81.3307	61.5234	81.2636	61.5234	81.2748	61.5234	81.2244	61.5234	81.2317	61.5234	81.1963	61.5234	81.2003	61.5234	81.1772	61.5234	81.1788	61.5234	81.165	61.5234	81.1654	61.5234	81.1582	61.5234	81.1582	61.5234	81.156
64.4531	82.8573	64.4531	82.8443	64.4531	82.848	64.4531	82.8096	64.4531	82.8167	64.4531	82.7549	64.4531	82.765	64.4531	82.6829	64.4531	82.6954	64.4531	82.5974	64.4531	82.6113	64.4531	82.5028	64.4531	82.517	64.4531	82.4042	64.4531	82.4173	64.4531	82.3069	64.4531	82.3173	64.4531	82.2158	64.4531	82.222	64.4531	82.1348	64.4531	82.1356	64.4531	82.0664	64.4531	82.0613	64.4531	82.0114	64.4531	82.0009	64.4531	81.9691	64.4531	81.9545	64.4531	81.9376	64.4531	81.9212	64.4531	81.9148	64.4531	81.8993	64.4531	81.8987	64.4531	81.8866	64.4531	81.8879	64.4531	81.8813	64.4531	81.8821
67.3828	83.5602	67.3828	83.5404	67.3828	83.5556	67.3828	83.4973	67.3828	83.5272	67.3828	83.4328	67.3828	83.4767	67.3828	83.3503	67.3828	83.4068	67.3828	83.2541	67.3828	83.3213	67.3828	83.1496	67.3828	83.225	67.3828	83.0426	67.3828	83.123	67.3828	82.9392	67.3828	83.021	67.3828	82.8448	67.3828	82.9239	67.3828	82.7636	67.3828	82.8363	67.3828	82.6979	67.3828	82.7612	67.3828	82.6482	67.3828	82.7001	67.3828	82.6129	67.3828	82.6531	67.3828	82.5895	67.3828	82.6186	67.3828	82.5752	67.3828	82.5946	67.3828	82.5672	67.3828	82.5788	67.3828	82.564	67.3828	82.5694	67.3828	82.5647
70.3125	84.1457	70.3125	84.1262	70.3125	84.1413	70.3125	84.0836	70.3125	84.1135	70.3125	84.0201	70.3125	84.0644	70.3125	83.9394	70.3125	83.9972	70.3125	83.8462	70.3125	83.9163	70.3125	83.7464	70.3125	83.8267	70.3125	83.6462	70.3125	83.7341	70.3125	83.5519	70.3125	83.6441	70.3125	83.469	70.3125	83.5615	70.3125	83.4016	70.3125	83.4901	70.3125	83.3514	70.3125	83.4322	70.3125	83.3179	70.3125	83.3881	70.3125	83.2989	70.3125	83.3565	70.3125	83.2906	70.3125	83.3352	70.3125	83.2894	70.3125	83.3214	70.3125	83.292	70.3125	83.3124	70.3125	83.2962	70.3125	83.3061	70.3125	83.3009
73.2422	84.7843	73.2422	84.7623	73.2422	84.7794	73.2422	84.7142	73.2422	84.7483	73.2422	84.6422	73.2422	84.6936	73.2422	84.5505	73.2422	84.6189	73.2422	84.4443	73.2422	84.5295	73.2422	84.3304	73.2422	84.4313	73.2422	84.2161	73.2422	84.3308	73.2422	84.109	73.2422	84.2346	73.2422	84.016	73.2422	84.1483	73.2422	83.9423	73.2422	84.0762	73.2422	83.8905	73.2422	84.0205	73.2422	83.8604	73.2422	83.9811	73.2422	83.8491	73.2422	83.9557	73.2422	83.852	73.2422	83.9407	73.2422	83.8637	73.2422	83.932	73.2422	83.8792	73.2422	83.9255	73.2422	83.8948	73.2422	83.9182	73.2422	83.9081
76.1719	85.3748	76.1719	85.3566	76.1719	85.3651	76.1719	85.3112	76.1719	85.3282	76.1719	85.2412	76.1719	85.267	76.1719	85.151	76.1719	85.1857	76.1719	85.0462	76.1719	85.0899	76.1719	84.9337	76.1719	84.9864	76.1719	84.8213	76.1719	84.8824	76.1719	84.7166	76.1719	84.7849	76.1719	84.6262	76.1719	84.6999	76.1719	84.5551	76.1719	84.6317	76.1719	84.5058	76.1719	84.5823	76.1719	84.4777	76.1719	84.5507	76.1719	84.4676	76.1719	84.534	76.1719	84.471	76.1719	84.5278	76.1719	84.4824	76.1719	84.5272	76.1719	84.4968	76.1719	84.5277	76.1719	84.5103	76.1719	84.5261	76.1719	84.5204
79.1016	85.8212	79.1016	85.8039	79.1016	85.8082	79.1016	85.7572	79.1016	85.7659	79.1016	85.684	79.1016	85.6975	79.1016	85.5892	79.1016	85.608	79.1016	85.4793	79.1016	85.5042	79.1016	85.3623	79.1016	85.3937	79.1016	85.2468	79.1016	85.2852	79.1016	85.1415	79.1016	85.1867	79.1016	85.0539	79.1016	85.1051	79.1016	84.9893	79.1016	85.0448	79.1016	84.9496	79.1016	85.0074	79.1016	84.9338	79.1016	84.9908	79.1016	84.9374	79.1016	84.9908	79.1016	84.9542	79.1016	85.001	79.1016	84.9775	79.1016	85.0151	79.1016	85.001	79.1016	85.0274	79.1016	85.02	79.1016	85.0336	79.1016	85.0313
82.0313	86.3568	82.0313	86.348	82.0313	86.3315	82.0313	86.306	82.0313	86.2732	82.0313	86.2338	82.0313	86.1852	82.0313	86.1367	82.0313	86.0729	82.0313	86.0212	82.0313	85.9435	82.0313	85.8958	82.0313	85.8059	82.0313	85.7694	82.0313	85.6696	82.0313	85.6509	82.0313	85.5443	82.0313	85.5484	82.0313	85.4384	82.0313	85.4675	82.0313	85.3581	82.0313	85.4108	82.0313	85.3062	82.0313	85.3775	82.0313	85.2816	82.0313	85.3636	82.0313	85.2797	82.0313	85.3631	82.0313	85.2939	82.0313	85.3695	82.0313	85.3166	82.0313	85.3764	82.0313	85.3408	82.0313	85.379	82.0313	85.3611	82.0313	85.3742
84.9609	86.778	84.9609	86.7674	84.9609	86.7516	84.9609	86.7212	84.9609	86.6891	84.9609	86.6427	84.9609	86.5938	84.9609	86.5377	84.9609	86.4709	84.9609	86.4133	84.9609	86.3278	84.9609	86.2785	84.9609	86.1734	84.9609	86.1425	84.9609	86.0177	84.9609	86.0146	84.9609	85.8709	84.9609	85.9026	84.9609	85.7426	84.9609	85.812	84.9609	85.6399	84.9609	85.7447	84.9609	85.567	84.9609	85.6997	84.9609	85.5243	84.9609	85.6726	84.9609	85.5085	84.9609	85.6575	84.9609	85.5138	84.9609	85.6483	84.9609	85.5329	84.9609	85.6394	84.9609	85.5587	84.9609	85.6269	84.9609	85.5854	84.9609	85.6089
87.8906	87.0111	87.8906	86.9832	87.8906	87.0029	87.8906	86.9212	87.8906	86.9595	87.8906	86.8293	87.8906	86.8839	87.8906	86.7142	87.8906	86.7817	87.8906	86.5844	87.8906	86.6603	87.8906	86.45	87.8906	86.5286	87.8906	86.3213	87.8906	86.3963	87.8906	86.208	87.8906	86.2731	87.8906	86.1178	87.8906	86.1674	87.8906	86.055	87.8906	86.0853	87.8906	86.0197	87.8906	86.0296	87.8906	86.0084	87.8906	85.9999	87.8906	86.0146	87.8906	85.9922	87.8906	86.0306	87.8906	86.0007	87.8906	86.0489	87.8906	86.0186	87.8906	86.0636	87.8906	86.0393	87.8906	86.0707	87.8906	86.0572	87.8906	86.0684
90.8203	87.2276	90.8203	87.196	90.8203	87.2225	90.8203	87.1296	90.8203	87.1816	90.8203	87.0333	90.8203	87.1086	90.8203	86.9144	90.8203	87.0098	90.8203	86.7828	90.8203	86.8935	90.8203	86.6497	90.8203	86.77	90.8203	86.5269	90.8203	86.65	90.8203	86.4256	90.8203	86.5439	90.8203	86.354	90.8203	86.4604	90.8203	86.3163	90.8203	86.405	90.8203	86.3119	90.8203	86.3792	90.8203	86.335	90.8203	86.3804	90.8203	86.3769	90.8203	86.4026	90.8203	86.4271	90.8203	86.4376	90.8203	86.4758	90.8203	86.4767	90.8203	86.515	90.8203	86.5119	90.8203	86.5395	90.8203	86.5368	90.8203	86.5468
93.75	87.712	93.75	87.6852	93.75	87.6942	93.75	87.6151	93.75	87.6333	93.75	87.5061	93.75	87.5336	93.75	87.3652	93.75	87.4024	93.75	87.2022	93.75	87.2492	93.75	87.029	93.75	87.0858	93.75	86.8593	93.75	86.9249	93.75	86.7067	93.75	86.7795	93.75	86.5834	93.75	86.6605	93.75	86.4981	93.75	86.5757	93.75	86.454	93.75	86.5279	93.75	86.4483	93.75	86.5146	93.75	86.4729	93.75	86.5289	93.75	86.5165	93.75	86.5606	93.75	86.5667	93.75	86.5987	93.75	86.6124	93.75	86.633	93.75	86.6451	93.75	86.6551	93.75	86.6598
96.6797	87.8354	96.6797	87.8183	96.6797	87.8069	96.6797	87.7572	96.6797	87.734	96.6797	87.657	96.6797	87.6211	96.6797	87.5255	96.6797	87.4756	96.6797	87.3727	96.6797	87.3074	96.6797	87.2109	96.6797	87.1286	96.6797	87.0528	96.6797	86.9526	96.6797	86.9109	96.6797	86.7927	96.6797	86.7954	96.6797	86.6605	96.6797	86.7126	96.6797	86.5642	96.6797	86.6637	96.6797	86.5071	96.6797	86.645	96.6797	86.4875	96.6797	86.6488	96.6797	86.4989	96.6797	86.6654	96.6797	86.532	96.6797	86.6848	96.6797	86.5763	96.6797	86.6986	96.6797	86.622	96.6797	86.7008	96.6797	86.6613	96.6797	86.6885
102.539	88.1751	102.539	88.1453	102.539	88.1536	102.539	88.0663	102.539	88.0822	102.539	87.9438	102.539	87.966	102.539	87.7869	102.539	87.8134	102.539	87.6076	102.539	87.6358	102.539	87.4205	102.539	87.4472	102.539	87.241	102.539	87.2629	102.539	87.0844	102.539	87.0982	102.539	86.9629	102.539	86.9661	102.539	86.8842	102.539	86.8753	102.539	86.8493	102.539	86.8287	102.539	86.8531	102.539	86.8228	102.539	86.8851	102.539	86.8491	102.539	86.9326	102.539	86.8955	102.539	86.9826	102.539	86.9495	102.539	87.0241	102.539	86.9993	102.539	87.0493	102.539	87.036	102.539	87.0535
105.469	88.3098	105.469	88.2807	105.469	88.2851	105.469	88.1999	105.469	88.2081	105.469	88.073	105.469	88.0843	105.469	87.9094	105.469	87.9224	105.469	87.7215	105.469	87.7345	105.469	87.5243	105.469	87.5353	105.469	87.334	105.469	87.3408	105.469	87.1666	105.469	87.1673	105.469	87.0354	105.469	87.0282	105.469	86.9489	105.469	86.933	105.469	86.9088	105.469	86.8846	105.469	86.9102	105.469	86.8795	105.469	86.9425	105.469	86.9084	105.469	86.9923	105.469	86.9586	105.469	87.046	105.469	87.0165	105.469	87.0914	105.469	87.0696	105.469	87.1197	105.469	87.1082	105.469	87.1257
108.398	88.4847	108.398	88.4594	108.398	88.4535	108.398	88.3797	108.398	88.3672	108.398	88.252	108.398	88.2315	108.398	88.0861	108.398	88.0557	108.398	87.895	108.398	87.8526	108.398	87.6945	108.398	87.6379	108.398	87.5014	108.398	87.429	108.398	87.3319	108.398	87.2432	108.398	87.1994	108.398	87.0955	108.398	87.1119	108.398	86.9959	108.398	87.0706	108.398	86.9475	108.398	87.07	108.398	86.9464	108.398	87.0994	108.398	86.9825	108.398	87.145	108.398	87.042	108.398	87.1932	108.398	87.1102	108.398	87.2321	108.398	87.174	108.398	87.2527	108.398	87.2229	108.398	87.25
111.328	88.626	111.328	88.5966	111.328	88.596	111.328	88.5106	111.328	88.508	111.328	88.3748	111.328	88.3677	111.328	88.1999	111.328	88.1846	111.328	88.0003	111.328	87.9718	111.328	87.7929	111.328	87.7459	111.328	87.5959	111.328	87.5251	111.328	87.4267	111.328	87.3279	111.328	87.2991	111.328	87.1707	111.328	87.2208	111.328	87.0648	111.328	87.1915	111.328	87.0146	111.328	87.2039	111.328	87.0164	111.328	87.245	111.328	87.06	111.328	87.2993	111.328	87.1308	111.328	87.3518	111.328	87.2128	111.328	87.3903	111.328	87.2914	111.328	87.4058	111.328	87.3545	111.328	87.394
117.188	88.8086	117.188	88.7644	117.188	88.7878	117.188	88.658	117.188	88.7035	117.188	88.497	117.188	88.5616	117.188	88.2933	117.188	88.3726	117.188	88.0627	117.188	88.1508	117.188	87.8244	117.188	87.9138	117.188	87.5992	117.188	87.6814	117.188	87.4074	117.188	87.4737	117.188	87.2651	117.188	87.3079	117.188	87.1817	117.188	87.1961	117.188	87.1574	117.188	87.1427	117.188	87.1836	117.188	87.1436	117.188	87.245	117.188	87.1875	117.188	87.3235	117.188	87.2587	117.188	87.401	117.188	87.3402	117.188	87.4626	117.188	87.4158	117.188	87.498	117.188	87.4725	117.188	87.5014
120.117	88.8609	120.117	88.8064	120.117	88.8477	120.117	88.687	120.117	88.7682	120.117	88.5108	120.117	88.6288	120.117	88.2903	120.117	88.4404	120.117	88.0428	120.117	88.218	120.117	87.7887	120.117	87.9801	120.117	87.5509	120.117	87.7474	120.117	87.3511	120.117	87.5406	120.117	87.2071	120.117	87.3777	120.117	87.129	120.117	87.2711	120.117	87.1167	120.117	87.2248	120.117	87.1604	120.117	87.2339	120.117	87.243	120.117	87.2861	120.117	87.3443	120.117	87.3642	120.117	87.4446	120.117	87.4498	120.117	87.5273	120.117	87.5256	120.117	87.5805	120.117	87.5781	120.117	87.5978
125.977	88.8186	125.977	88.7813	125.977	88.7816	125.977	88.6724	125.977	88.6724	125.977	88.4998	125.977	88.4986	125.977	88.2761	125.977	88.2724	125.977	88.0187	125.977	88.0112	125.977	87.7488	125.977	87.7363	125.977	87.4901	125.977	87.4719	125.977	87.2663	125.977	87.2423	125.977	87.0977	125.977	87.0687	125.977	86.9975	125.977	86.9647	125.977	86.9684	125.977	86.934	125.977	87.0028	125.977	86.9689	125.977	87.0841	125.977	87.0529	125.977	87.1907	125.977	87.1641	125.977	87.3004	125.977	87.2797	125.977	87.3933	125.977	87.3792	125.977	87.454	125.977	87.4469	125.977	87.473
128.906	88.8071	128.906	88.7761	128.906	88.7608	128.906	88.6709	128.906	88.639	128.906	88.4997	128.906	88.449	128.906	88.276	128.906	88.2033	128.906	88.0176	128.906	87.9195	128.906	87.7461	128.906	87.6196	128.906	87.4852	128.906	87.3287	128.906	87.2584	128.906	87.0726	128.906	87.0852	128.906	86.8743	128.906	86.9781	128.906	86.7499	128.906	86.9392	128.906	86.7047	128.906	86.9607	128.906	86.7325	128.906	87.0263	128.906	86.8171	128.906	87.1154	128.906	86.936	128.906	87.206	128.906	87.065	128.906	87.279	128.906	87.1821	128.906	87.319	128.906	87.2697	128.906	87.3168
134.766	88.5889	134.766	88.5471	134.766	88.5487	134.766	88.4273	134.766	88.4284	134.766	88.2395	134.766	88.2358	134.766	87.9995	134.766	87.9846	134.766	87.7284	134.766	87.6937	134.766	87.4513	134.766	87.3872	134.766	87.1953	134.766	87.0918	134.766	86.9857	134.766	86.8351	134.766	86.8418	134.766	86.641	134.766	86.7728	134.766	86.5255	134.766	86.7761	134.766	86.4937	134.766	86.8378	134.766	86.5385	134.766	86.937	134.766	86.6427	134.766	87.0498	134.766	86.7831	134.766	87.1535	134.766	86.9346	134.766	87.2292	134.766	87.0741	134.766	87.2631	134.766	87.1828	134.766	87.2479
137.695	88.5387	137.695	88.4894	137.695	88.502	137.695	88.3585	137.695	88.3814	137.695	88.1563	137.695	88.1848	137.695	87.8995	137.695	87.9263	137.695	87.6103	137.695	87.6258	137.695	87.3159	137.695	87.3081	137.695	87.0454	137.695	87.0018	137.695	86.8268	137.695	86.7362	137.695	86.6816	137.695	86.5372	137.695	86.6201	137.695	86.4225	137.695	86.6391	137.695	86.3979	137.695	86.7229	137.695	86.4555	137.695	86.8476	137.695	86.5764	137.695	86.9862	137.695	86.7351	137.695	87.1131	137.695	86.904	137.695	87.2071	137.695	87.0575	137.695	87.253	137.695	87.1751	137.695	87.2425
143.555	88.5294	143.555	88.4629	143.555	88.5015	143.555	88.3062	143.555	88.3815	143.555	88.0699	143.555	88.178	143.555	87.7715	143.555	87.9059	143.555	87.4348	143.555	87.5863	143.555	87.0896	143.555	87.2454	143.555	86.769	143.555	86.9134	143.555	86.5058	143.555	86.6215	143.555	86.3265	143.555	86.3975	143.555	86.2453	143.555	86.261	143.555	86.2605	143.555	86.219	143.555	86.3551	143.555	86.2645	143.555	86.5016	143.555	86.3783	143.555	86.6683	143.555	86.5336	143.555	86.8251	143.555	86.7008	143.555	86.9469	143.555	86.8523	143.555	87.0156	143.555	86.9647	143.555	87.0218
149.414	88.4985	149.414	88.434	149.414	88.4609	149.414	88.2714	149.414	88.3237	149.414	88.0218	149.414	88.0966	149.414	87.7031	149.414	87.7956	149.414	87.34	149.414	87.4436	149.414	86.9633	149.414	87.0694	149.414	86.6076	149.414	86.7058	149.414	86.3075	149.414	86.3869	149.414	86.092	149.414	86.1427	149.414	85.9781	149.414	85.9936	149.414	85.9668	149.414	85.946	149.414	86.0429	149.414	85.9908	149.414	86.1797	149.414	86.1066	149.414	86.3453	149.414	86.2641	149.414	86.5077	149.414	86.4322	149.414	86.6395	149.414	86.5817	149.414	86.72	149.414	86.6888	149.414	86.7373
155.273	88.5425	155.273	88.4734	155.273	88.5015	155.273	88.2993	155.273	88.3529	155.273	88.0321	155.273	88.1058	155.273	87.6909	155.273	87.7767	155.273	87.3024	155.273	87.3893	155.273	86.8994	155.273	86.9742	155.273	86.5192	155.273	86.5672	155.273	86.1992	155.273	86.2066	155.273	85.9702	155.273	85.9273	155.273	85.8495	155.273	85.7538	155.273	85.8369	155.273	85.6948	155.273	85.9147	155.273	85.7407	155.273	86.0536	155.273	85.8672	155.273	86.2197	155.273	86.0415	155.273	86.3801	155.273	86.2287	155.273	86.5066	155.273	86.3971	155.273	86.5788	155.273	86.5214	155.273	86.5845
158.203	88.5887	158.203	88.5149	158.203	88.55	158.203	88.3334	158.203	88.4008	158.203	88.0565	158.203	88.1506	158.203	87.7038	158.203	87.8158	158.203	87.3025	158.203	87.4204	158.203	86.8869	158.203	86.9952	158.203	86.4958	158.203	86.5769	158.203	86.1683	158.203	86.2048	158.203	85.9371	158.203	85.9153	158.203	85.8205	158.203	85.7351	158.203	85.818	158.203	85.6744	158.203	85.9106	158.203	85.7247	158.203	86.0665	158.203	85.8613	158.203	86.2493	158.203	86.0495	158.203	86.4236	158.203	86.2522	158.203	86.56	158.203	86.4352	158.203	86.6366	158.203	86.571	158.203	86.641
164.063	88.842	164.063	88.7713	164.063	88.7941	164.063	88.5868	164.063	88.6302	164.063	88.3005	164.063	88.36	164.063	87.9322	164.063	88.0007	164.063	87.5091	164.063	87.5773	164.063	87.0659	164.063	87.1218	164.063	86.6422	164.063	86.6725	164.063	86.279	164.063	86.2703	164.063	86.0123	164.063	85.9538	164.063	85.8644	164.063	85.752	164.063	85.8391	164.063	85.6771	164.063	85.9199	164.063	85.722	164.063	86.0752	164.063	85.8619	164.063	86.2661	164.063	86.0604	164.063	86.4533	164.063	86.2774	164.063	86.6026	164.063	86.4747	164.063	86.6884	164.063	86.6211	164.063	86.6955
169.922	88.4363	169.922	88.3638	169.922	88.3869	169.922	88.1749	169.922	88.218	169.922	87.8837	169.922	87.9403	169.922	87.5129	169.922	87.5726	169.922	87.0938	169.922	87.1418	169.922	86.6653	169.922	86.6821	169.922	86.2704	169.922	86.2335	169.922	85.9512	169.922	85.8382	169.922	85.7402	169.922	85.5349	169.922	85.653	169.922	85.352	169.922	85.6843	169.922	85.3012	169.922	85.8101	169.922	85.3747	169.922	85.9949	169.922	85.5473	169.922	86.1995	169.922	85.7822	169.922	86.3864	169.922	86.038	169.922	86.524	169.922	86.2747	169.922	86.5888	169.922	86.459	169.922	86.5675
175.781	88.2842	175.781	88.1924	175.781	88.2442	175.781	87.9735	175.781	88.076	175.781	87.6412	175.781	87.7918	175.781	87.2184	175.781	87.4122	175.781	86.7381	175.781	86.9666	175.781	86.2429	175.781	86.4927	175.781	85.7833	175.781	86.0346	175.781	85.4118	175.781	85.6387	175.781	85.1728	175.781	85.3469	175.781	85.0909	175.781	85.1883	175.781	85.1627	175.781	85.1722	175.781	85.3584	175.781	85.2859	175.781	85.6313	175.781	85.4984	175.781	85.9297	175.781	85.7678	175.781	86.2055	175.781	86.0483	175.781	86.4196	175.781	86.2967	175.781	86.544	175.781	86.4769	175.781	86.5635
181.641	88.322	181.641	88.2392	181.641	88.2637	181.641	88.02	181.641	88.068	181.641	87.678	181.641	87.7474	181.641	87.2358	181.641	87.3231	181.641	86.726	181.641	86.8258	181.641	86.1905	181.641	86.295	181.641	85.6797	181.641	85.7773	181.641	85.2472	181.641	85.3226	181.641	84.9418	181.641	84.9769	181.641	84.7949	181.641	84.7732	181.641	84.8114	181.641	84.7244	181.641	84.9675	181.641	84.8197	181.641	85.2184	181.641	85.0281	181.641	85.5099	181.641	85.3052	181.641	85.7888	181.641	85.601	181.641	86.0095	181.641	85.8667	181.641	86.1384	181.641	86.0616	181.641	86.1566
190.43	88.4014	190.43	88.3082	190.43	88.3429	190.43	88.0699	190.43	88.135	190.43	87.702	190.43	87.7888	190.43	87.2298	190.43	87.3253	190.43	86.6885	190.43	86.7752	190.43	86.1227	190.43	86.1802	190.43	85.5845	190.43	85.591	190.43	85.1279	190.43	85.064	190.43	84.7995	190.43	84.6531	190.43	84.6278	190.43	84.398	190.43	84.6152	190.43	84.3145	190.43	84.7385	190.43	84.3909	190.43	84.9556	190.43	84.5926	190.43	85.2157	190.43	84.8714	190.43	85.4674	190.43	85.1749	190.43	85.6651	190.43	85.4527	190.43	85.7741	190.43	85.6625	190.43	85.7743
196.289	88.3419	196.289	88.236	196.289	88.2893	196.289	87.9776	196.289	88.0812	196.289	87.5829	196.289	87.73	196.289	87.078	196.289	87.2582	196.289	86.5011	196.289	86.6987	196.289	85.9019	196.289	86.0951	196.289	85.34	196.289	85.5009	196.289	84.8789	196.289	84.9751	196.289	84.5733	196.289	84.5737	196.289	84.4545	196.289	84.3386	196.289	84.5198	196.289	84.2867	196.289	84.7339	196.289	84.4056	196.289	85.0412	196.289	84.6582	196.289	85.3796	196.289	84.992	196.289	85.6909	196.289	85.3491	196.289	85.9271	196.289	85.6737	196.289	86.0534	196.289	85.9188	196.289	86.051
202.148	88.4389	202.148	88.3291	202.148	88.3813	202.148	88.0576	202.148	88.16	202.148	87.6392	202.148	87.7881	202.148	87.0992	202.148	87.2884	202.148	86.4741	202.148	86.6946	202.148	85.8127	202.148	86.052	202.148	85.1752	202.148	85.4161	202.148	84.6296	202.148	84.849	202.148	84.2405	202.148	84.4111	202.148	84.0538	202.148	84.1487	202.148	84.0803	202.148	84.0815	202.148	84.2913	202.148	84.1979	202.148	84.6276	202.148	84.4586	202.148	85.0166	202.148	84.807	202.148	85.3871	202.148	85.1795	202.148	85.6795	202.148	85.5147	202.148	85.8509	202.148	85.7601	202.148	85.8784
210.938	88.5014	210.938	88.3907	210.938	88.4382	210.938	88.1126	210.938	88.2043	210.938	87.6831	210.938	87.8128	210.938	87.1287	210.938	87.2868	210.938	86.4868	210.938	86.6607	210.938	85.8049	210.938	85.9802	210.938	85.1397	210.938	85.3015	210.938	84.5521	210.938	84.6869	210.938	84.0993	210.938	84.1978	210.938	83.8241	210.938	83.8818	210.938	83.7446	210.938	83.7616	210.938	83.8491	210.938	83.8286	210.938	84.098	210.938	84.0462	210.938	84.431	210.938	84.3588	210.938	84.7787	210.938	84.7013	210.938	85.0743	210.938	85.0093	210.938	85.2649	210.938	85.228	210.938	85.3187
216.797	88.3285	216.797	88.2156	216.797	88.2636	216.797	87.9321	216.797	88.0241	216.797	87.496	216.797	87.6234	216.797	86.9368	216.797	87.0864	216.797	86.2965	216.797	86.45	216.797	85.629	216.797	85.7636	216.797	84.9977	216.797	85.0882	216.797	84.4682	216.797	84.4912	216.797	84.096	216.797	84.0364	216.797	83.9134	216.797	83.77	216.797	83.9216	216.797	83.708	216.797	84.0928	216.797	83.8337	216.797	84.3793	216.797	84.1038	216.797	84.7227	216.797	84.4596	216.797	85.0611	216.797	84.8368	216.797	85.3369	216.797	85.1736	216.797	85.5037	216.797	85.4176	216.797	85.5329
225.586	88.745	225.586	88.6379	225.586	88.6558	225.586	88.3405	225.586	88.3738	225.586	87.8695	225.586	87.913	225.586	87.253	225.586	87.2985	225.586	86.5318	225.586	86.5686	225.586	85.7617	225.586	85.7759	225.586	85.0125	225.586	84.9879	225.586	84.3642	225.586	84.284	225.586	83.895	225.586	83.7452	225.586	83.6611	225.586	83.436	225.586	83.6777	225.586	83.385	225.586	83.9134	225.586	83.5744	225.586	84.3014	225.586	83.9473	225.586	84.7583	225.586	84.4237	225.586	85.2005	225.586	84.9179	225.586	85.5551	225.586	85.3511	225.586	85.7674	225.586	85.6608	225.586	85.8052
234.375	88.8474	234.375	88.7117	234.375	88.7838	234.375	88.3851	234.375	88.5234	234.375	87.8864	234.375	88.0789	234.375	87.2468	234.375	87.4741	234.375	86.5102	234.375	86.7446	234.375	85.7336	234.375	85.9389	234.375	84.9847	234.375	85.1178	234.375	84.3357	234.375	84.3533	234.375	83.8534	234.375	83.7223	234.375	83.5862	234.375	83.2965	234.375	83.5526	234.375	83.1262	234.375	83.7368	234.375	83.2237	234.375	84.0893	234.375	83.5531	234.375	84.5341	234.375	84.0359	234.375	84.9822	234.375	84.5708	234.375	85.3484	234.375	85.0574	234.375	85.5649	234.375	85.4146	234.375	85.5907
240.234	88.6232	240.234	88.473	240.234	88.5636	240.234	88.1206	240.234	88.2979	240.234	87.5855	240.234	87.8408	240.234	86.9007	240.234	87.2187	240.234	86.1148	240.234	86.4711	240.234	85.2923	240.234	85.6511	240.234	84.5123	240.234	84.8247	240.234	83.8589	240.234	84.0672	240.234	83.4063	240.234	83.4552	240.234	83.199	240.234	83.0552	240.234	83.2416	240.234	82.91	240.234	83.501	240.234	83.0275	240.234	83.9165	240.234	83.3742	240.234	84.4086	240.234	83.8766	240.234	84.8893	240.234	84.4355	240.234	85.2749	240.234	84.9479	240.234	85.4985	240.234	85.3281	240.234	85.5194
249.023	88.878	249.023	88.7253	249.023	88.8075	249.023	88.3562	249.023	88.5179	249.023	87.7884	249.023	88.0239	249.023	87.0524	249.023	87.3518	249.023	86.1929	249.023	86.5406	249.023	85.2702	249.023	85.6423	249.023	84.359	249.023	84.7212	249.023	83.5434	249.023	83.85	249.023	82.9049	249.023	83.1029	249.023	82.505	249.023	82.5467	249.023	82.3722	249.023	82.2329	249.023	82.4963	249.023	82.1897	249.023	82.8305	249.023	82.4101	249.023	83.2945	249.023	82.8386	249.023	83.7852	249.023	83.373	249.023	84.1977	249.023	83.891	249.023	84.4465	249.023	84.2841	249.023	84.4793
257.813	89.0054	257.813	88.8578	257.813	88.9317	257.813	88.4955	257.813	88.6415	257.813	87.9366	257.813	88.1507	257.813	87.2123	257.813	87.4878	257.813	86.3686	257.813	86.6947	257.813	85.4676	257.813	85.8273	257.813	84.5865	257.813	84.9538	257.813	83.8123	257.813	84.1481	257.813	83.2279	257.813	83.4799	257.813	82.8928	257.813	83.0024	257.813	82.8252	257.813	82.7463	257.813	82.9978	257.813	82.7194	257.813	83.3467	257.813	82.9076	257.813	83.7863	257.813	83.2685	257.813	84.2232	257.813	83.7272	257.813	84.5706	257.813	84.1872	257.813	84.7611	257.813	84.5536	257.813	84.7565
266.602	88.5742	266.602	88.4058	266.602	88.5058	266.602	88.0107	266.602	88.2022	266.602	87.4112	266.602	87.677	266.602	86.643	266.602	86.957	266.602	85.7568	266.602	86.084	266.602	84.8171	266.602	85.1165	266.602	83.8985	266.602	84.129	266.602	83.0772	266.602	83.2057	266.602	82.421	266.602	82.429	266.602	81.9833	266.602	81.8655	266.602	81.8036	266.602	81.5583	266.602	81.9034	266.602	81.5299	266.602	82.2644	266.602	81.7788	266.602	82.8047	266.602	82.2604	266.602	83.3904	266.602	82.873	266.602	83.8809	266.602	83.4796	266.602	84.1683	266.602	83.9505	266.602	84.1941
278.32	88.7041	278.32	88.5558	278.32	88.6029	278.32	88.1626	278.32	88.2618	278.32	87.5437	278.32	87.7045	278.32	86.735	278.32	86.9711	278.32	85.7915	278.32	86.1181	278.32	84.7895	278.32	85.2174	278.32	83.8229	278.32	84.3492	278.32	82.9915	278.32	83.5882	278.32	82.3769	278.32	82.9872	278.32	82.0193	278.32	82.5685	278.32	81.9131	278.32	82.3314	278.32	82.0252	278.32	82.2708	278.32	82.3142	278.32	82.3868	278.32	82.727	278.32	82.6678	278.32	83.1871	278.32	83.0625	278.32	83.5982	278.32	83.4749	278.32	83.8691	278.32	83.7954	278.32	83.9394
287.109	88.8905	287.109	88.7541	287.109	88.7618	287.109	88.3625	287.109	88.3721	287.109	87.74	287.109	87.7415	287.109	86.9262	287.109	86.9092	287.109	85.9789	287.109	85.9382	287.109	84.974	287.109	84.9168	287.109	84.0025	287.109	83.9523	287.109	83.1589	287.109	83.1486	287.109	82.5215	287.109	82.5717	287.109	82.1345	287.109	82.2282	287.109	82.0044	287.109	82.0808	287.109	82.1107	287.109	82.0906	287.109	82.4138	287.109	82.2464	287.109	82.8494	287.109	82.5505	287.109	83.3243	287.109	82.9734	287.109	83.7312	287.109	83.4296	287.109	83.9763	287.109	83.8047	287.109	84.003
295.898	89.0807	295.898	88.8644	295.898	89.0101	295.898	88.3768	295.898	88.6517	295.898	87.6496	295.898	88.0196	295.898	86.7348	295.898	87.1462	295.898	85.7081	295.898	86.0895	295.898	84.6672	295.898	84.9414	295.898	83.7181	295.898	83.8319	295.898	82.9467	295.898	82.9103	295.898	82.3912	295.898	82.2919	295.898	82.0383	295.898	81.9942	295.898	81.8531	295.898	81.9348	295.898	81.8177	295.898	82.0001	295.898	81.9396	295.898	82.117	295.898	82.2151	295.898	82.2745	295.898	82.5835	295.898	82.4924	295.898	82.9318	295.898	82.7634	295.898	83.1488	295.898	83.0228	295.898	83.1753
307.617	88.7341	307.617	88.4432	307.617	88.7032	307.617	87.8362	307.617	88.3594	307.617	86.9384	307.617	87.7257	307.617	85.8044	307.617	86.8411	307.617	84.5337	307.617	85.7664	307.617	83.2876	307.617	84.5923	307.617	82.2803	307.617	83.447	307.617	81.7022	307.617	82.4904	307.617	81.5986	307.617	81.8758	307.617	81.8438	307.617	81.6786	307.617	82.2502	307.617	81.8527	307.617	82.6756	307.617	82.2672	307.617	83.0552	307.617	82.7814	307.617	83.3832	307.617	83.2891	307.617	83.6759	307.617	83.7221	307.617	83.9362	307.617	84.0387	307.617	84.1389	307.617	84.2146	307.617	84.2432
319.336	90.0076	319.336	89.7714	319.336	89.8989	319.336	89.1959	319.336	89.4485	319.336	88.2941	319.336	88.6689	319.336	87.0894	319.336	87.586	319.336	85.621	319.336	86.2453	319.336	83.9616	319.336	84.7232	319.336	82.2603	319.336	83.1461	319.336	80.8168	319.336	81.715	319.336	80.0764	319.336	80.7017	319.336	80.3006	319.336	80.3465	319.336	81.2465	319.336	80.683	319.336	82.4685	319.336	81.5158	319.336	83.6685	319.336	82.5858	319.336	84.708	319.336	83.6905	319.336	85.5259	319.336	84.695	319.336	86.0898	319.336	85.5114	319.336	86.3776	319.336	86.0827	319.336	86.3759
331.055	89.8379	331.055	89.6417	331.055	89.7185	331.055	89.1367	331.055	89.2861	331.055	88.339	331.055	88.5538	331.055	87.2762	331.055	87.5473	331.055	85.989	331.055	86.3091	331.055	84.5349	331.055	84.9039	331.055	82.9934	331.055	83.4249	331.055	81.4784	331.055	81.9988	331.055	80.1666	331.055	80.786	331.055	79.328	331.055	79.9646	331.055	79.2495	331.055	79.6853	331.055	79.9765	331.055	79.9993	331.055	81.208	331.055	80.8112	331.055	82.5511	331.055	81.911	331.055	83.7288	331.055	83.0602	331.055	84.5903	331.055	84.0605	331.055	85.0636	331.055	84.7752	331.055	85.1229
342.773	89.1198	342.773	88.8819	342.773	89.0121	342.773	88.3052	342.773	88.5637	342.773	87.4101	342.773	87.7918	342.773	86.2357	342.773	86.7285	342.773	84.8475	342.773	85.4265	342.773	83.3477	342.773	83.966	342.773	81.8834	342.773	82.4628	342.773	80.6393	342.773	81.0711	342.773	79.8031	342.773	79.976	342.773	79.506	342.773	79.3622	342.773	79.7806	342.773	79.3543	342.773	80.5557	342.773	79.949	342.773	81.6691	342.773	80.9962	342.773	82.9025	342.773	82.2584	342.773	84.041	342.773	83.4975	342.773	84.9205	342.773	84.5298	342.773	85.4392	342.773	85.2355	342.773	85.5474
354.492	89.6262	354.492	89.4088	354.492	89.4916	354.492	88.8456	354.492	89.011	354.492	87.9562	354.492	88.2033	354.492	86.7772	354.492	87.1035	354.492	85.3679	354.492	85.7674	354.492	83.8152	354.492	84.2769	354.492	82.2348	354.492	82.741	354.492	80.7633	354.492	81.2872	354.492	79.5419	354.492	80.0397	354.492	78.7106	354.492	79.1043	354.492	78.4217	354.492	78.5872	354.492	78.8103	354.492	78.6282	354.492	79.8388	354.492	79.323	354.492	81.2146	354.492	80.5372	354.492	82.5672	354.492	81.9239	354.492	83.6281	354.492	83.1477	354.492	84.2531	354.492	84.0002	354.492	84.3805
366.211	89.719	366.211	89.4693	366.211	89.5879	366.211	88.849	366.211	89.0782	366.211	87.8817	366.211	88.2061	366.211	86.6092	366.211	87.0069	366.211	85.0987	366.211	85.5447	366.211	83.4529	366.211	83.9251	366.211	81.8172	366.211	82.3053	366.211	80.3728	366.211	80.8802	366.211	79.2974	366.211	79.8214	366.211	78.7014	366.211	79.1938	366.211	78.6016	366.211	78.9472	366.211	78.9645	366.211	79.0187	366.211	79.7319	366.211	79.4231	366.211	80.7698	366.211	80.1906	366.211	81.8537	366.211	81.2117	366.211	82.7491	366.211	82.2332	366.211	83.2865	366.211	83.0064	366.211	83.3775
377.93	89.8309	377.93	89.561	377.93	89.7263	377.93	88.927	377.93	89.2478	377.93	87.9531	377.93	88.4079	377.93	86.6822	377.93	87.2341	377.93	85.1847	377.93	85.7758	377.93	83.5681	377.93	84.1144	377.93	81.9803	377.93	82.3774	377.93	80.5937	377.93	80.7473	377.93	79.5634	377.93	79.4502	377.93	78.9852	377.93	78.6926	377.93	78.9011	377.93	78.5623	377.93	79.3286	377.93	78.9936	377.93	80.2208	377.93	79.8378	377.93	81.3926	377.93	80.9259	377.93	82.5682	377.93	82.0734	377.93	83.5063	377.93	83.0929	377.93	84.06	377.93	83.8264	377.93	84.1665
392.578	88.7786	392.578	88.5194	392.578	88.6409	392.578	87.8685	392.578	88.1138	392.578	86.8456	392.578	87.2178	392.578	85.4913	392.578	85.9911	392.578	83.8763	392.578	84.4966	392.578	82.1149	392.578	82.8324	392.578	80.3744	392.578	81.1398	392.578	78.8691	392.578	79.5972	392.578	77.818	392.578	78.3869	392.578	77.37	392.578	77.6455	392.578	77.5523	392.578	77.4425	392.578	78.2875	392.578	77.8006	392.578	79.4206	392.578	78.6826	392.578	80.7283	392.578	79.9262	392.578	81.9664	392.578	81.2614	392.578	82.9347	392.578	82.4259	392.578	83.5046	392.578	83.2409	392.578	83.6116
407.227	88.6365	407.227	88.3437	407.227	88.4983	407.227	87.6301	407.227	87.9325	407.227	86.5224	407.227	86.9571	407.227	85.072	407.227	85.6106	407.227	83.3677	407.227	83.9625	407.227	81.5521	407.227	82.13	407.227	79.8249	407.227	80.2912	407.227	78.4081	407.227	78.6738	407.227	77.4629	407.227	77.4941	407.227	77.0429	407.227	76.8755	407.227	77.1701	407.227	76.8453	407.227	77.9175	407.227	77.414	407.227	79.2654	407.227	78.5648	407.227	80.9256	407.227	80.1182	407.227	82.5002	407.227	81.7436	407.227	83.7051	407.227	83.1336	407.227	84.3991	407.227	84.0949	407.227	84.5297
421.875	88.6927	421.875	88.4235	421.875	88.4923	421.875	87.6962	421.875	87.8228	421.875	86.5383	421.875	86.6989	421.875	85.0026	421.875	85.1564	421.875	83.1831	421.875	83.2683	421.875	81.2356	421.875	81.1708	421.875	79.382	421.875	79.0908	421.875	77.8593	421.875	77.3324	421.875	76.8077	421.875	76.1552	421.875	76.2192	421.875	75.608	421.875	76.0832	421.875	75.5677	421.875	76.587	421.875	75.9956	421.875	77.9201	421.875	77.0396	421.875	79.7884	421.875	78.7003	421.875	81.6152	421.875	80.5883	421.875	83.0072	421.875	82.2445	421.875	83.7957	421.875	83.396	421.875	83.9262
436.523	88.7238	436.523	88.3983	436.523	88.5663	436.523	87.5881	436.523	87.9323	436.523	86.2981	436.523	86.8352	436.523	84.5474	436.523	85.3021	436.523	82.3877	436.523	83.3875	436.523	79.9476	436.523	81.1992	436.523	77.5113	436.523	78.9358	436.523	75.572	436.523	76.9096	436.523	74.6116	436.523	75.4729	436.523	74.6275	436.523	74.8135	436.523	75.2224	436.523	74.8548	436.523	76.1535	436.523	75.4703	436.523	77.4621	436.523	76.6631	436.523	79.1296	436.523	78.3574	436.523	80.8513	436.523	80.2047	436.523	82.2575	436.523	81.7986	436.523	83.1173	436.523	82.8804	436.523	83.332
451.172	89.1366	451.172	88.7853	451.172	88.9774	451.172	87.9302	451.172	88.3097	451.172	86.5906	451.172	87.1452	451.172	84.8081	451.172	85.5113	451.172	82.6672	451.172	83.4656	451.172	80.3259	451.172	81.123	451.172	78.0447	451.172	78.6964	451.172	76.1531	451.172	76.5241	451.172	74.8897	451.172	74.9854	451.172	74.2359	451.172	74.2447	451.172	74.0336	451.172	74.1197	451.172	74.3389	451.172	74.3871	451.172	75.4667	451.172	75.1394	451.172	77.3386	451.172	76.5815	451.172	79.3205	451.172	78.4551	451.172	80.8809	451.172	80.1971	451.172	81.7874	451.172	81.4223	451.172	81.9691
465.82	88.6717	465.82	88.2877	465.82	88.541	465.82	87.3867	465.82	87.9027	465.82	85.9727	465.82	86.7695	465.82	84.0634	465.82	85.1648	465.82	81.7075	465.82	83.1343	465.82	79.0236	465.82	80.7683	465.82	76.2728	465.82	78.239	465.82	73.9374	465.82	75.8344	465.82	72.6303	465.82	73.9328	465.82	72.6275	465.82	72.8748	465.82	73.6107	465.82	72.8451	465.82	75.147	465.82	73.8533	465.82	76.9869	465.82	75.6707	465.82	78.9122	465.82	77.8306	465.82	80.6584	465.82	79.8667	465.82	81.9986	465.82	81.4847	465.82	82.7953	465.82	82.5424	465.82	82.9834
483.398	88.805	483.398	88.3954	483.398	88.6451	483.398	87.4165	483.398	87.9197	483.398	85.8733	483.398	86.6397	483.398	83.7831	483.398	84.8332	483.398	81.1942	483.398	82.565	483.398	78.2286	483.398	79.9785	483.398	75.1527	483.398	77.3554	483.398	72.4148	483.398	75.1283	483.398	70.4713	483.398	73.687	483.398	69.4469	483.398	73.0278	483.398	69.3218	483.398	72.7643	483.398	70.6451	483.398	72.6756	483.398	73.5785	483.398	73.3248	483.398	76.876	483.398	75.4082	483.398	79.6035	483.398	78.135	483.398	81.4963	483.398	80.4582	483.398	82.5215	483.398	81.999	483.398	82.6878
500.977	87.8596	500.977	87.4596	500.977	87.6528	500.977	86.4566	500.977	86.8362	500.977	84.8606	500.977	85.4072	500.977	82.705	500.977	83.3711	500.977	80.0859	500.977	80.7625	500.977	77.2435	500.977	77.7018	500.977	74.6603	500.977	74.5199	500.977	72.9662	500.977	71.9078	500.977	72.4178	500.977	70.711	500.977	72.5777	500.977	71.0547	500.977	72.8738	500.977	72.1999	500.977	73.3719	500.977	73.575	500.977	74.9008	500.977	75.1968	500.977	77.5013	500.977	77.2279	500.977	80.09	500.977	79.4363	500.977	82.0001	500.977	81.3646	500.977	83.0663	500.977	82.6969	500.977	83.2863
518.555	87.6105	518.555	87.1562	518.555	87.4072	518.555	86.0457	518.555	86.5548	518.555	84.2943	518.555	85.0727	518.555	81.9478	518.555	82.9994	518.555	79.121	518.555	80.4154	518.555	76.0716	518.555	77.4899	518.555	73.2661	518.555	74.5517	518.555	71.2423	518.555	72.0772	518.555	70.2049	518.555	70.396	518.555	69.9208	518.555	69.3904	518.555	70.2408	518.555	68.9545	518.555	71.591	518.555	69.9362	518.555	74.2034	518.555	72.9345	518.555	77.253	518.555	76.4975	518.555	79.9228	518.555	79.5007	518.555	81.89	518.555	81.6658	518.555	83.0668	518.555	82.9695	518.555	83.4308
536.133	88.3799	536.133	87.8407	536.133	88.1831	536.133	86.5661	536.133	87.2577	536.133	84.5695	536.133	85.6242	536.133	81.8974	536.133	83.3331	536.133	78.6836	536.133	80.5012	536.133	75.2514	536.133	77.3727	536.133	72.1936	536.133	74.3706	536.133	70.1215	536.133	71.9865	536.133	69.0571	536.133	70.4066	536.133	68.5197	536.133	69.3521	536.133	68.687	536.133	68.6361	536.133	70.779	536.133	69.0202	536.133	74.3318	536.133	71.5019	536.133	77.7961	536.133	75.0868	536.133	80.5708	536.133	78.4624	536.133	82.5143	536.133	81.1141	536.133	83.5692	536.133	82.8766	536.133	83.6969
553.711	88.7146	553.711	88.2228	553.711	88.4572	553.711	86.9871	553.711	87.457	553.711	85.0265	553.711	85.7377	553.711	82.389	553.711	83.3569	553.711	79.194	553.711	80.4409	553.711	75.7156	553.711	77.2498	553.711	72.4351	553.711	74.2402	553.711	69.7786	553.711	71.9119	553.711	67.7233	553.711	70.3081	553.711	66.365	553.711	69.0077	553.711	66.687	553.711	67.9525	553.711	68.6626	553.711	67.8836	553.711	71.1637	553.711	69.2246	553.711	73.97	553.711	71.7011	553.711	76.8727	553.711	74.8926	553.711	79.2557	553.711	77.8888	553.711	80.6676	553.711	79.9854	553.711	80.9268
574.219	88.1098	574.219	87.506	574.219	87.8999	574.219	86.1001	574.219	86.8847	574.219	83.9413	574.219	85.0939	574.219	81.1653	574.219	82.6011	574.219	78.0871	574.219	79.5807	574.219	75.2864	574.219	76.4024	574.219	73.4041	574.219	73.6589	574.219	72.4791	574.219	71.823	574.219	71.7551	574.219	70.6922	574.219	70.3153	574.219	69.5957	574.219	67.7059	574.219	68.404	574.219	66.7162	574.219	68.748	574.219	70.6454	574.219	71.3534	574.219	74.6623	574.219	74.2268	574.219	77.7018	574.219	76.701	574.219	79.8519	574.219	78.8277	574.219	81.0543	574.219	80.4378	574.219	81.2394
594.727	88.4008	594.727	87.8721	594.727	88.1289	594.727	86.5487	594.727	87.0685	594.727	84.461	594.727	85.2554	594.727	81.6899	594.727	82.771	594.727	78.4256	594.727	79.7909	594.727	75.0506	594.727	76.6705	594.727	72.123	594.727	73.9714	594.727	70.108	594.727	72.1346	594.727	69.1022	594.727	70.9613	594.727	68.8515	594.727	69.7692	594.727	69.0151	594.727	67.9603	594.727	69.5208	594.727	66.0484	594.727	70.8865	594.727	67.5409	594.727	73.6366	594.727	71.689	594.727	76.8934	594.727	75.487	594.727	79.5085	594.727	78.4411	594.727	81.0154	594.727	80.4262	594.727	81.3133
615.234	88.4029	615.234	87.7599	615.234	88.2166	615.234	86.3107	615.234	87.2006	615.234	84.1176	615.234	85.3789	615.234	81.3222	615.234	82.821	615.234	78.2215	615.234	79.7038	615.234	75.3168	615.234	76.4389	615.234	73.0863	615.234	73.7396	615.234	71.5045	615.234	72.1439	615.234	70.0873	615.234	71.3417	615.234	68.4294	615.234	70.6149	615.234	66.899	615.234	69.5617	615.234	67.2931	615.234	68.4769	615.234	69.768	615.234	68.5148	615.234	72.6325	615.234	70.4341	615.234	75.3991	615.234	73.5322	615.234	77.7906	615.234	76.6	615.234	79.3397	615.234	78.7779	615.234	79.711
638.672	88.004	638.672	87.3573	638.672	87.7709	638.672	85.8638	638.672	86.6629	638.672	83.6161	638.672	84.7239	638.672	80.8166	638.672	82.0704	638.672	77.8543	638.672	78.9878	638.672	75.3097	638.672	76.0881	638.672	73.6204	638.672	74.1677	638.672	72.5686	638.672	73.3219	638.672	71.4684	638.672	72.7768	638.672	69.8055	638.672	71.7786	638.672	68.0202	638.672	70.0326	638.672	68.1201	638.672	68.4987	638.672	69.669	638.672	69.3792	638.672	70.7932	638.672	71.3018	638.672	72.1382	638.672	72.7442	638.672	74.4715	638.672	74.2696	638.672	76.4	638.672	75.9887	638.672	76.9162
659.18	87.5137	659.18	86.8896	659.18	87.2244	659.18	85.3726	659.18	86.0278	659.18	83.0376	659.18	83.9667	659.18	80.0983	659.18	81.1849	659.18	77.0582	659.18	78.0833	659.18	74.735	659.18	75.4727	659.18	73.7062	659.18	74.1463	659.18	73.6257	659.18	73.977	659.18	73.5809	659.18	74.1441	659.18	72.7838	659.18	73.8849	659.18	70.7904	659.18	72.6881	659.18	68.9142	659.18	70.6362	659.18	71.309	659.18	70.3689	659.18	74.6964	659.18	73.0946	659.18	76.8092	659.18	75.4709	659.18	77.9423	659.18	76.9156	659.18	78.4741	659.18	77.8781	659.18	78.4515
682.617	88.6664	682.617	88.0591	682.617	88.3395	682.617	86.5589	682.617	87.0555	682.617	84.246	682.617	84.8229	682.617	81.3034	682.617	81.7507	682.617	78.1248	682.617	78.2231	682.617	75.3156	682.617	75.0587	682.617	73.3805	682.617	73.0932	682.617	72.436	682.617	72.4785	682.617	72.0902	682.617	72.6538	682.617	71.5713	682.617	72.845	682.617	70.2837	682.617	72.6025	682.617	68.7932	682.617	71.8539	682.617	70.2211	682.617	71.2934	682.617	73.8826	682.617	72.7278	682.617	77.0892	682.617	75.7188	682.617	79.3956	682.617	78.4128	682.617	80.7301	682.617	80.2173	682.617	81.009
706.055	88.7141	706.055	88.0578	706.055	88.3515	706.055	86.4173	706.055	86.9852	706.055	83.918	706.055	84.7106	706.055	80.8935	706.055	81.8233	706.055	77.9688	706.055	78.9486	706.055	75.7494	706.055	76.7151	706.055	74.3688	706.055	75.1496	706.055	73.5809	706.055	74.0068	706.055	72.9191	706.055	73.1014	706.055	72.0023	706.055	72.1489	706.055	70.9818	706.055	70.8422	706.055	70.6577	706.055	69.3831	706.055	71.2187	706.055	69.3367	706.055	71.9551	706.055	71.0287	706.055	73.4237	706.055	72.8547	706.055	76.0365	706.055	74.9857	706.055	78.0958	706.055	77.2863	706.055	78.5377
732.422	88.225	732.422	87.6277	732.422	87.8619	732.422	86.1203	732.422	86.5678	732.422	83.8592	732.422	84.479	732.422	81.1593	732.422	81.8964	732.422	78.4413	732.422	79.2461	732.422	76.0052	732.422	76.8299	732.422	74.0945	732.422	74.7946	732.422	73.112	732.422	73.4524	732.422	72.935	732.422	72.9815	732.422	72.7342	732.422	72.9316	732.422	71.8401	732.422	72.6443	732.422	70.3985	732.422	71.726	732.422	70.6326	732.422	70.923	732.422	73.1126	732.422	72.4899	732.422	75.2702	732.422	75.0573	732.422	76.7007	732.422	76.7393	732.422	77.6726	732.422	77.6442	732.422	78.008
758.789	89.1784	758.789	88.5713	758.789	88.7934	758.789	87.0339	758.789	87.4521	758.789	84.763	758.789	85.3055	758.789	82.1258	758.789	82.6695	758.789	79.5261	758.789	79.9844	758.789	77.1362	758.789	77.5805	758.789	75.0626	758.789	75.6475	758.789	73.7229	758.789	74.486	758.789	73.2887	758.789	74.0663	758.789	73.0616	758.789	73.7789	758.789	72.2083	758.789	73.3209	758.789	70.5212	758.789	72.9736	758.789	70.1547	758.789	72.913	758.789	73.2918	758.789	73.1874	758.789	76.7001	758.789	74.5719	758.789	79.1457	758.789	77.1121	758.789	80.512	758.789	79.428	758.789	80.6345
785.156	87.5661	785.156	86.9222	785.156	87.3023	785.156	85.5033	785.156	86.217	785.156	83.6836	785.156	84.5962	785.156	81.9066	785.156	82.834	785.156	80.2902	785.156	81.1579	785.156	78.7307	785.156	79.5268	785.156	77.3918	785.156	77.991	785.156	76.5906	785.156	76.9551	785.156	76.1765	785.156	76.6052	785.156	75.4922	785.156	76.2577	785.156	73.7336	785.156	74.9718	785.156	70.6286	785.156	72.3127	785.156	70.6158	785.156	71.186	785.156	73.3133	785.156	73.9261	785.156	73.6555	785.156	75.2994	785.156	73.153	785.156	74.593	785.156	74.7396	785.156	74.4165	785.156	75.4296
811.523	87.5588	811.523	87.0719	811.523	87.3644	811.523	86.0253	811.523	86.5076	811.523	84.5986	811.523	85.1386	811.523	82.8804	811.523	83.4469	811.523	80.8203	811.523	81.5207	811.523	78.4606	811.523	79.3469	811.523	76.5874	811.523	77.2433	811.523	76.6117	811.523	76.3457	811.523	77.7294	811.523	76.9018	811.523	78.2699	811.523	77.5834	811.523	77.4821	811.523	77.5555	811.523	74.7683	811.523	76.3742	811.523	71.1022	811.523	73.8259	811.523	73.4938	811.523	72.7442	811.523	75.9142	811.523	75.1715	811.523	76.187	811.523	76.4593	811.523	76.1417	811.523	76.4299	811.523	76.3208
840.82	87.7859	840.82	87.3835	840.82	87.483	840.82	86.3604	840.82	86.5563	840.82	84.9275	840.82	85.2448	840.82	83.3037	840.82	83.8246	840.82	81.5315	840.82	82.3545	840.82	79.4298	840.82	80.6003	840.82	76.8682	840.82	78.3388	840.82	74.578	840.82	75.9922	840.82	74.4534	840.82	75.1544	840.82	75.7311	840.82	75.9562	840.82	76.253	840.82	76.5096	840.82	75.0892	840.82	75.8118	840.82	72.5319	840.82	74.1278	840.82	72.8948	840.82	74.0503	840.82	74.68	840.82	75.086	840.82	73.7752	840.82	73.9013	840.82	70.8961	840.82	70.3397	840.82	69.0836
870.117	87.6122	870.117	87.102	870.117	87.5504	870.117	86.2157	870.117	86.8951	870.117	85.108	870.117	85.8372	870.117	83.7167	870.117	84.5876	870.117	81.854	870.117	83.0964	870.117	79.4161	870.117	81.0993	870.117	76.7236	870.117	78.5228	870.117	75.1086	870.117	76.0869	870.117	75.5081	870.117	75.2626	870.117	76.7292	870.117	75.9648	870.117	77.6285	870.117	76.8799	870.117	77.3988	870.117	77.0496	870.117	75.5089	870.117	75.8421	870.117	73.9349	870.117	74.4686	870.117	75.7747	870.117	76.2322	870.117	76.9825	870.117	77.8923	870.117	76.8136	870.117	77.7215	870.117	76.8748
902.344	87.635	902.344	87.5505	902.344	87.2818	902.344	87.0579	902.344	86.6811	902.344	86.2975	902.344	86.0713	902.344	85.3218	902.344	85.4051	902.344	84.0005	902.344	84.3844	902.344	82.0686	902.344	82.7606	902.344	79.2265	902.344	80.4686	902.344	75.4973	902.344	77.6635	902.344	73.2522	902.344	75.0528	902.344	74.6827	902.344	74.3095	902.344	76.0279	902.344	75.3817	902.344	76.0507	902.344	76.3516	902.344	75.4872	902.344	76.548	902.344	75.9393	902.344	76.3966	902.344	76.8943	902.344	76.6669	902.344	76.5996	902.344	76.7164	902.344	75.2395	902.344	75.674	902.344	74.6435
931.641	87.6835	931.641	87.4639	931.641	87.6637	931.641	87.0394	931.641	87.3764	931.641	86.3418	931.641	86.7914	931.641	85.253	931.641	85.8158	931.641	83.7589	931.641	84.3709	931.641	81.9615	931.641	82.4719	931.641	79.9784	931.641	80.2766	931.641	77.9587	931.641	78.2629	931.641	76.5851	931.641	77.2668	931.641	76.8021	931.641	77.3035	931.641	77.3803	931.641	77.4777	931.641	76.433	931.641	77.1784	931.641	73.0793	931.641	75.705	931.641	71.8931	931.641	73.8279	931.641	75.3075	931.641	76.1545	931.641	76.4964	931.641	78.4077	931.641	76.3745	931.641	78.2384	931.641	76.9381
966.797	87.601	966.797	87.6553	966.797	87.5554	966.797	87.5912	966.797	87.4792	966.797	87.1835	966.797	87.1204	966.797	86.2364	966.797	86.1991	966.797	84.6799	966.797	84.6754	966.797	82.5518	966.797	82.7718	966.797	80.0159	966.797	80.778	966.797	77.6021	966.797	78.8681	966.797	76.3133	966.797	77.3073	966.797	76.6727	966.797	76.8533	966.797	77.9753	966.797	77.6094	966.797	78.6355	966.797	78.4848	966.797	77.3028	966.797	78.6149	966.797	74.3297	966.797	77.4547	966.797	74.7489	966.797	75.6183	966.797	76.1008	966.797	75.407	966.797	75.8247	966.797	75.6732	966.797	75.4981
999.023	87.3375	999.023	87.5482	999.023	87.4466	999.023	87.7218	999.023	87.6587	999.023	87.3783	999.023	87.4493	999.023	86.3314	999.023	86.5358	999.023	84.6919	999.023	85.0292	999.023	82.6522	999.023	83.2253	999.023	80.3953	999.023	81.3106	999.023	78.5042	999.023	79.4456	999.023	77.7379	999.023	78.0092	999.023	77.8704	999.023	77.3167	999.023	78.3417	999.023	77.2829	999.023	78.3435	999.023	77.2616	999.023	76.8593	999.023	76.7403	999.023	73.8902	999.023	76.2594	999.023	72.9293	999.023	76.53	999.023	72.8029	999.023	76.4076	999.023	71.1992	999.023	74.5109	999.023	71.5877
1,034.18	87.9018	1,034.18	88.0237	1,034.18	87.9405	1,034.18	88.0056	1,034.18	87.9512	1,034.18	87.4457	1,034.18	87.5352	1,034.18	86.2719	1,034.18	86.5651	1,034.18	84.7116	1,034.18	85.1935	1,034.18	82.958	1,034.18	83.4933	1,034.18	81.0238	1,034.18	81.3789	1,034.18	78.9809	1,034.18	79.0175	1,034.18	77.437	1,034.18	77.2038	1,034.18	77.1673	1,034.18	76.4525	1,034.18	77.8617	1,034.18	76.7254	1,034.18	78.5131	1,034.18	77.8385	1,034.18	77.7353	1,034.18	78.2388	1,034.18	74.6123	1,034.18	76.9764	1,034.18	73.6794	1,034.18	75.9651	1,034.18	75.112	1,034.18	75.7729	1,034.18	73.9181	1,034.18	73.9194	1,034.18	72.4203
1,072.27	87.7235	1,072.27	87.9388	1,072.27	87.6831	1,072.27	88.0882	1,072.27	87.7817	1,072.27	87.8784	1,072.27	87.7256	1,072.27	87.1986	1,072.27	87.2445	1,072.27	86.0035	1,072.27	86.1535	1,072.27	84.1273	1,072.27	84.2667	1,072.27	81.5594	1,072.27	81.6113	1,072.27	79.0338	1,072.27	78.8654	1,072.27	77.7518	1,072.27	77.1832	1,072.27	77.6704	1,072.27	77.0076	1,072.27	78.2676	1,072.27	77.8161	1,072.27	79.3305	1,072.27	78.7458	1,072.27	79.7105	1,072.27	79.3575	1,072.27	77.8578	1,072.27	78.91	1,072.27	74.1803	1,072.27	77.2491	1,072.27	71.7837	1,072.27	75.1932	1,072.27	69.3037	1,072.27	71.9273	1,072.27	69.7706
1,110.35	87.3824	1,110.35	87.6164	1,110.35	87.3635	1,110.35	87.964	1,110.35	87.5498	1,110.35	88.0469	1,110.35	87.6518	1,110.35	87.4464	1,110.35	87.2496	1,110.35	85.962	1,110.35	86.1191	1,110.35	83.6272	1,110.35	84.29	1,110.35	80.9623	1,110.35	82.0589	1,110.35	79.1243	1,110.35	79.9471	1,110.35	78.4845	1,110.35	78.3773	1,110.35	78.3551	1,110.35	77.2017	1,110.35	79.1273	1,110.35	76.8905	1,110.35	80.3795	1,110.35	77.9256	1,110.35	80.3268	1,110.35	78.4476	1,110.35	78.3209	1,110.35	77.4848	1,110.35	75.5417	1,110.35	76.5808	1,110.35	73.2949	1,110.35	76.2165	1,110.35	72.275	1,110.35	74.8962	1,110.35	73.9692
1,148.44	88.4019	1,148.44	88.2785	1,148.44	88.3301	1,148.44	87.9584	1,148.44	88.2636	1,148.44	87.4983	1,148.44	88.1744	1,148.44	86.8154	1,148.44	87.7011	1,148.44	85.6988	1,148.44	86.6938	1,148.44	83.9269	1,148.44	85.2708	1,148.44	81.4349	1,148.44	83.4009	1,148.44	78.9077	1,148.44	80.9891	1,148.44	77.9423	1,148.44	78.8855	1,148.44	78.3837	1,148.44	77.7503	1,148.44	78.6886	1,148.44	77.0591	1,148.44	79.0327	1,148.44	77.766	1,148.44	79.8245	1,148.44	79.2433	1,148.44	78.666	1,148.44	79.0746	1,148.44	75.3007	1,148.44	76.7018	1,148.44	73.7651	1,148.44	75.7299	1,148.44	75.1207	1,148.44	75.9339	1,148.44	76.2451
1,189.45	88.9638	1,189.45	88.7719	1,189.45	88.7777	1,189.45	88.2977	1,189.45	88.4071	1,189.45	87.5218	1,189.45	87.984	1,189.45	86.5104	1,189.45	87.2192	1,189.45	85.4663	1,189.45	86.1342	1,189.45	84.1495	1,189.45	84.9541	1,189.45	81.9651	1,189.45	83.451	1,189.45	78.921	1,189.45	81.2244	1,189.45	76.7259	1,189.45	78.787	1,189.45	76.8842	1,189.45	77.3905	1,189.45	77.7754	1,189.45	76.8331	1,189.45	78.376	1,189.45	77.1718	1,189.45	78.9408	1,189.45	78.3661	1,189.45	78.0989	1,189.45	78.3226	1,189.45	75.2858	1,189.45	75.7669	1,189.45	74.3899	1,189.45	73.6732	1,189.45	75.7323	1,189.45	73.5884	1,189.45	75.7134
1,230.47	89.1973	1,230.47	88.6418	1,230.47	89.1074	1,230.47	88.0511	1,230.47	88.4826	1,230.47	87.4375	1,230.47	87.8496	1,230.47	86.5877	1,230.47	87.1125	1,230.47	85.6554	1,230.47	86.0968	1,230.47	84.4658	1,230.47	84.8114	1,230.47	82.4027	1,230.47	83.2189	1,230.47	79.1731	1,230.47	81.1526	1,230.47	76.3095	1,230.47	78.7526	1,230.47	77.0081	1,230.47	76.9853	1,230.47	78.0371	1,230.47	76.7184	1,230.47	77.7709	1,230.47	77.0533	1,230.47	79.0913	1,230.47	77.909	1,230.47	79.0966	1,230.47	79.1851	1,230.47	75.0511	1,230.47	77.9083	1,230.47	71.6684	1,230.47	74.1354	1,230.47	72.6886	1,230.47	72.2792	1,230.47	73.7632
1,274.41	88.9708	1,274.41	88.2612	1,274.41	88.757	1,274.41	87.5877	1,274.41	87.9889	1,274.41	87.2987	1,274.41	87.5365	1,274.41	86.7882	1,274.41	87.1136	1,274.41	85.8274	1,274.41	86.2216	1,274.41	84.33	1,274.41	84.8206	1,274.41	82.2436	1,274.41	83.0893	1,274.41	79.8411	1,274.41	80.9674	1,274.41	77.8973	1,274.41	78.8431	1,274.41	77.0575	1,274.41	77.8306	1,274.41	77.6231	1,274.41	77.2044	1,274.41	77.4327	1,274.41	76.7677	1,274.41	77.2938	1,274.41	77.1362	1,274.41	77.8984	1,274.41	77.6707	1,274.41	75.1121	1,274.41	76.4757	1,274.41	71.2952	1,274.41	73.0945	1,274.41	73.427	1,274.41	71.4027	1,274.41	74.9848
1,318.36	88.9572	1,318.36	87.9732	1,318.36	88.4263	1,318.36	86.8682	1,318.36	87.0893	1,318.36	86.7099	1,318.36	86.5387	1,318.36	86.5747	1,318.36	86.5284	1,318.36	85.925	1,318.36	86.0946	1,318.36	84.7799	1,318.36	84.8767	1,318.36	83.1806	1,318.36	83.2128	1,318.36	81.0351	1,318.36	81.5029	1,318.36	78.613	1,318.36	79.4631	1,318.36	76.6187	1,318.36	77.672	1,318.36	77.2924	1,318.36	77.421	1,318.36	77.4949	1,318.36	77.089	1,318.36	76.7026	1,318.36	76.2711	1,318.36	77.8176	1,318.36	76.9282	1,318.36	74.3065	1,318.36	75.6053	1,318.36	69.0019	1,318.36	71.0484	1,318.36	73.9963	1,318.36	71.4852	1,318.36	76.3444
1,365.23	88.9391	1,365.23	87.5142	1,365.23	88.1792	1,365.23	85.6239	1,365.23	86.1032	1,365.23	85.6292	1,365.23	85.3771	1,365.23	86.1443	1,365.23	85.8271	1,365.23	85.6788	1,365.23	85.7361	1,365.23	84.3332	1,365.23	84.7644	1,365.23	82.7288	1,365.23	83.0972	1,365.23	80.6821	1,365.23	80.9909	1,365.23	78.3432	1,365.23	78.7467	1,365.23	77.4653	1,365.23	77.0325	1,365.23	77.9335	1,365.23	76.8719	1,365.23	77.8495	1,365.23	76.2376	1,365.23	75.9911	1,365.23	74.3313	1,365.23	76.2046	1,365.23	76.1769	1,365.23	73.7013	1,365.23	74.848	1,365.23	69.5312	1,365.23	69.5798	1,365.23	74.419	1,365.23	72.1417	1,365.23	76.9137
1,415.04	89.1437	1,415.04	87.6102	1,415.04	88.4057	1,415.04	85.3011	1,415.04	86.0017	1,415.04	85.1214	1,415.04	84.7598	1,415.04	85.9262	1,415.04	85.51	1,415.04	85.5818	1,415.04	85.8864	1,415.04	83.8979	1,415.04	84.9308	1,415.04	81.849	1,415.04	82.8887	1,415.04	79.717	1,415.04	80.6852	1,415.04	77.0321	1,415.04	78.7652	1,415.04	76.8502	1,415.04	77.3298	1,415.04	78.2642	1,415.04	76.7922	1,415.04	78.2309	1,415.04	76.9143	1,415.04	76.0757	1,415.04	74.5887	1,415.04	75.8928	1,415.04	73.8072	1,415.04	72.7014	1,415.04	73.9149	1,415.04	64.2541	1,415.04	66.1675	1,415.04	71.2923	1,415.04	67.2832	1,415.04	74.4152
1,464.84	89.5002	1,464.84	87.9493	1,464.84	88.8155	1,464.84	85.3756	1,464.84	86.268	1,464.84	84.6969	1,464.84	84.4531	1,464.84	85.7489	1,464.84	85.3048	1,464.84	85.9663	1,464.84	86.0374	1,464.84	84.6576	1,464.84	85.1384	1,464.84	82.3897	1,464.84	82.9238	1,464.84	79.7823	1,464.84	80.7249	1,464.84	76.868	1,464.84	78.8344	1,464.84	75.4109	1,464.84	76.9306	1,464.84	76.533	1,464.84	75.9185	1,464.84	77.4263	1,464.84	76.65	1,464.84	75.3952	1,464.84	76.1186	1,464.84	74.8751	1,464.84	72.2739	1,464.84	71.3276	1,464.84	73.5196	1,464.84	56.6384	1,464.84	65.7653	1,464.84	70.8616	1,464.84	65.6014	1,464.84	74.0482
1,514.65	89.7499	1,514.65	88.1766	1,514.65	89.0223	1,514.65	85.4879	1,514.65	86.4888	1,514.65	84.8175	1,514.65	84.7336	1,514.65	85.9246	1,514.65	85.5047	1,514.65	86.256	1,514.65	86.2452	1,514.65	85.3312	1,514.65	85.524	1,514.65	83.5121	1,514.65	83.39	1,514.65	81.2246	1,514.65	80.909	1,514.65	78.3814	1,514.65	79.0667	1,514.65	75.654	1,514.65	77.6568	1,514.65	75.2622	1,514.65	76.738	1,514.65	76.6156	1,514.65	76.5716	1,514.65	74.6477	1,514.65	76.9829	1,514.65	73.3895	1,514.65	74.087	1,514.65	68.9989	1,514.65	74.0606	1,514.65	58.7678	1,514.65	67.6914	1,514.65	71.3284	1,514.65	68.1277	1,514.65	74.8504
1,570.31	89.9057	1,570.31	88.3976	1,570.31	88.9151	1,570.31	85.6841	1,570.31	86.0243	1,570.31	84.9642	1,570.31	84.1228	1,570.31	86.03	1,570.31	84.9986	1,570.31	86.3314	1,570.31	85.7711	1,570.31	85.5927	1,570.31	85.1354	1,570.31	83.9482	1,570.31	83.4574	1,570.31	81.7885	1,570.31	81.3489	1,570.31	79.2558	1,570.31	79.1657	1,570.31	76.8753	1,570.31	77.1963	1,570.31	76.3756	1,570.31	76.8978	1,570.31	76.4574	1,570.31	76.6193	1,570.31	73.7834	1,570.31	76.3217	1,570.31	70.8399	1,570.31	74.8194	1,570.31	68.6311	1,570.31	74.7456	1,570.31	60.9391	1,570.31	66.6216	1,570.31	71.586	1,570.31	66.9248	1,570.31	74.5505
1,623.05	89.6054	1,623.05	88.1602	1,623.05	88.5665	1,623.05	85.4272	1,623.05	85.6667	1,623.05	84.532	1,623.05	83.6096	1,623.05	85.5922	1,623.05	84.2159	1,623.05	85.8853	1,623.05	84.8084	1,623.05	85.1266	1,623.05	84.5941	1,623.05	83.3916	1,623.05	83.4219	1,623.05	81.4767	1,623.05	81.3244	1,623.05	79.5694	1,623.05	79.1319	1,623.05	77.2054	1,623.05	76.3427	1,623.05	77.019	1,623.05	75.9542	1,623.05	78.6716	1,623.05	76.1131	1,623.05	76.9171	1,623.05	75.5322	1,623.05	69.671	1,623.05	70.9004	1,623.05	68.6762	1,623.05	72.5768	1,623.05	63.1837	1,623.05	61.2787	1,623.05	69.0049	1,623.05	63.3692	1,623.05	73.2851
1,681.64	89.2334	1,681.64	87.7435	1,681.64	88.4614	1,681.64	84.8968	1,681.64	85.8326	1,681.64	83.6008	1,681.64	83.3284	1,681.64	84.7025	1,681.64	83.9167	1,681.64	85.4672	1,681.64	84.8711	1,681.64	85.1414	1,681.64	85.0804	1,681.64	83.521	1,681.64	83.7288	1,681.64	81.4857	1,681.64	81.1764	1,681.64	79.4368	1,681.64	79.4275	1,681.64	76.8621	1,681.64	76.7612	1,681.64	76.8595	1,681.64	75.802	1,681.64	77.7746	1,681.64	75.0786	1,681.64	77.2182	1,681.64	75.1246	1,681.64	69.3192	1,681.64	71.4976	1,681.64	69.1299	1,681.64	70.6203	1,681.64	67.1127	1,681.64	58.2285	1,681.64	69.123	1,681.64	66.6188	1,681.64	71.1319
1,740.23	89.128	1,740.23	87.8553	1,740.23	88.5421	1,740.23	85.0726	1,740.23	86.3682	1,740.23	83.2643	1,740.23	83.4796	1,740.23	84.679	1,740.23	83.7541	1,740.23	85.5825	1,740.23	85.1402	1,740.23	85.4726	1,740.23	85.2859	1,740.23	83.8161	1,740.23	84.2436	1,740.23	80.9739	1,740.23	82.2307	1,740.23	79.4412	1,740.23	79.8592	1,740.23	77.0486	1,740.23	77.5669	1,740.23	76.0957	1,740.23	76.0075	1,740.23	76.8886	1,740.23	76.2826	1,740.23	76.5227	1,740.23	74.0949	1,740.23	68.8793	1,740.23	72.4124	1,740.23	66.7527	1,740.23	69.6886	1,740.23	67.913	1,740.23	55.4281	1,740.23	70.8957	1,740.23	70.2297	1,740.23	70.9887
1,801.76	89.0976	1,801.76	88.6985	1,801.76	88.6041	1,801.76	86.4435	1,801.76	86.9363	1,801.76	83.5999	1,801.76	83.8185	1,801.76	84.9752	1,801.76	83.7822	1,801.76	86.4372	1,801.76	85.6551	1,801.76	86.2431	1,801.76	86.1894	1,801.76	84.668	1,801.76	85.182	1,801.76	81.8325	1,801.76	82.8478	1,801.76	79.6675	1,801.76	80.0892	1,801.76	77.7253	1,801.76	77.8909	1,801.76	75.7671	1,801.76	76.4536	1,801.76	76.3821	1,801.76	78.108	1,801.76	75.8295	1,801.76	76.1235	1,801.76	67.7369	1,801.76	71.2945	1,801.76	64.3702	1,801.76	68.0747	1,801.76	66.1216	1,801.76	56.4913	1,801.76	68.9267	1,801.76	71.6483	1,801.76	71.5349
1,866.21	88.0914	1,866.21	88.2738	1,866.21	87.7596	1,866.21	86.6718	1,866.21	86.771	1,866.21	84.0763	1,866.21	83.5908	1,866.21	85.0768	1,866.21	82.6923	1,866.21	86.5769	1,866.21	85.4083	1,866.21	86.3242	1,866.21	86.42	1,866.21	84.9209	1,866.21	85.1429	1,866.21	82.6796	1,866.21	82.6761	1,866.21	80.4065	1,866.21	79.8156	1,866.21	78.4776	1,866.21	77.0827	1,866.21	76.2207	1,866.21	75.7474	1,866.21	75.9038	1,866.21	77.2255	1,866.21	74.4984	1,866.21	75.1058	1,866.21	66.2743	1,866.21	71.7295	1,866.21	65.5814	1,866.21	63.5639	1,866.21	66.8071	1,866.21	62.2537	1,866.21	65.8801	1,866.21	70.7594	1,866.21	67.7954
1,930.66	87.277	1,930.66	87.6277	1,930.66	87.4752	1,930.66	86.3891	1,930.66	86.8833	1,930.66	83.5317	1,930.66	84.0112	1,930.66	84.6233	1,930.66	82.9873	1,930.66	86.6491	1,930.66	85.3999	1,930.66	86.2965	1,930.66	85.8219	1,930.66	84.3602	1,930.66	84.5252	1,930.66	81.7011	1,930.66	82.596	1,930.66	79.487	1,930.66	79.7764	1,930.66	78.5534	1,930.66	76.8608	1,930.66	77.1884	1,930.66	74.3897	1,930.66	76.5346	1,930.66	76.7516	1,930.66	74.5018	1,930.66	75.0076	1,930.66	62.1287	1,930.66	68.3484	1,930.66	67.4175	1,930.66	63.7533	1,930.66	65.2153	1,930.66	61.5805	1,930.66	65.5781	1,930.66	70.7773	1,930.66	62.6765
2,000.98	87.6515	2,000.98	88.1814	2,000.98	88.4461	2,000.98	87.3964	2,000.98	88.393	2,000.98	84.6672	2,000.98	86.199	2,000.98	84.2392	2,000.98	85.3297	2,000.98	86.0836	2,000.98	86.8581	2,000.98	85.9154	2,000.98	87.2508	2,000.98	83.8597	2,000.98	86.0916	2,000.98	80.5757	2,000.98	83.7734	2,000.98	77.1618	2,000.98	81.0052	2,000.98	75.8606	2,000.98	78.1685	2,000.98	76.6861	2,000.98	77.0321	2,000.98	75.4463	2,000.98	77.4428	2,000.98	74.6293	2,000.98	75.4414	2,000.98	64.1416	2,000.98	69.287	2,000.98	68.5351	2,000.98	63.7031	2,000.98	66.4611	2,000.98	63.3743	2,000.98	62.2852	2,000.98	70.8731	2,000.98	57.8315
2,071.29	88.7582	2,071.29	89.2929	2,071.29	89.2533	2,071.29	88.96	2,071.29	89.268	2,071.29	86.9798	2,071.29	87.3764	2,071.29	85.838	2,071.29	85.8305	2,071.29	86.9377	2,071.29	87.2026	2,071.29	86.3023	2,071.29	87.3258	2,071.29	84.2593	2,071.29	85.8738	2,071.29	82.3199	2,071.29	84.0838	2,071.29	79.0386	2,071.29	81.6638	2,071.29	75.006	2,071.29	78.5231	2,071.29	74.5506	2,071.29	77.4143	2,071.29	76.3961	2,071.29	78.1719	2,071.29	71.9589	2,071.29	76.9648	2,071.29	68.1252	2,071.29	70.1697	2,071.29	68.0255	2,071.29	60.5712	2,071.29	68.6239	2,071.29	67.6411	2,071.29	67.6892	2,071.29	72.2254	2,071.29	55.1876
2,144.53	88.3901	2,144.53	88.9852	2,144.53	89.2861	2,144.53	89.3354	2,144.53	89.3706	2,144.53	87.8218	2,144.53	87.3676	2,144.53	86.5322	2,144.53	85.4243	2,144.53	86.9963	2,144.53	86.1262	2,144.53	86.6723	2,144.53	86.2655	2,144.53	84.9213	2,144.53	85.1629	2,144.53	82.4316	2,144.53	82.5249	2,144.53	80.5479	2,144.53	80.501	2,144.53	77.1726	2,144.53	78.2081	2,144.53	74.1996	2,144.53	78.0138	2,144.53	74.5956	2,144.53	76.3378	2,144.53	70.5702	2,144.53	76.199	2,144.53	63.2242	2,144.53	70.5322	2,144.53	67.9705	2,144.53	44.8551	2,144.53	61.2135	2,144.53	69.4406	2,144.53	67.5455	2,144.53	70.0298	2,144.53	51.4987
2,217.77	88.3141	2,217.77	88.8975	2,217.77	88.2583	2,217.77	88.9757	2,217.77	88.9797	2,217.77	87.287	2,217.77	88.4496	2,217.77	85.838	2,217.77	85.3322	2,217.77	86.8318	2,217.77	84.9468	2,217.77	86.4379	2,217.77	85.6251	2,217.77	84.4901	2,217.77	84.457	2,217.77	81.6247	2,217.77	82.3439	2,217.77	79.7393	2,217.77	80.9777	2,217.77	77.8567	2,217.77	78.4226	2,217.77	75.3719	2,217.77	75.8822	2,217.77	76.1554	2,217.77	75.835	2,217.77	70.556	2,217.77	75.1072	2,217.77	64.6982	2,217.77	67.8638	2,217.77	68.9378	2,217.77	60.5454	2,217.77	61.3849	2,217.77	64.2801	2,217.77	65.4296	2,217.77	70.1055	2,217.77	62.7367
2,296.88	89.5748	2,296.88	89.7969	2,296.88	89.3445	2,296.88	90.1965	2,296.88	90.2083	2,296.88	88.6221	2,296.88	90.1297	2,296.88	85.3213	2,296.88	87.6144	2,296.88	85.9023	2,296.88	86.4953	2,296.88	86.2549	2,296.88	87.126	2,296.88	84.9206	2,296.88	86.8097	2,296.88	81.9281	2,296.88	84.7597	2,296.88	78.9808	2,296.88	82.8072	2,296.88	79.2383	2,296.88	80.8785	2,296.88	76.3489	2,296.88	77.5605	2,296.88	72.3823	2,296.88	77.8998	2,296.88	69.8936	2,296.88	77.9784	2,296.88	69.183	2,296.88	68.1612	2,296.88	67.2692	2,296.88	70.3661	2,296.88	57.1106	2,296.88	67.2168	2,296.88	45.9467	2,296.88	68.0889	2,296.88	60.5048
2,378.91	90.6876	2,378.91	90.0545	2,378.91	90.2295	2,378.91	90.8707	2,378.91	90.3555	2,378.91	90.3211	2,378.91	90.983	2,378.91	87.0345	2,378.91	88.2173	2,378.91	86.8263	2,378.91	86.3869	2,378.91	87.5733	2,378.91	87.8757	2,378.91	86.0358	2,378.91	86.9764	2,378.91	83.4601	2,378.91	84.6451	2,378.91	80.3968	2,378.91	82.6453	2,378.91	78.9443	2,378.91	81.0291	2,378.91	78.5747	2,378.91	78.627	2,378.91	74.5933	2,378.91	77.2964	2,378.91	68.7478	2,378.91	76.1816	2,378.91	66.9954	2,378.91	68.3948	2,378.91	73.4837	2,378.91	71.2792	2,378.91	66.5561	2,378.91	66.1683	2,378.91	63.5139	2,378.91	65.7021	2,378.91	65.801
2,460.94	90.5169	2,460.94	90.1339	2,460.94	89.6869	2,460.94	91.2873	2,460.94	90.2688	2,460.94	90.4381	2,460.94	90.9385	2,460.94	87.213	2,460.94	87.6381	2,460.94	87.4785	2,460.94	86.526	2,460.94	88.1685	2,460.94	88.1538	2,460.94	87.1125	2,460.94	87.4346	2,460.94	84.5418	2,460.94	85.1004	2,460.94	81.4866	2,460.94	81.5721	2,460.94	80.7176	2,460.94	79.87	2,460.94	78.057	2,460.94	77.9579	2,460.94	76.397	2,460.94	76.25	2,460.94	71.3593	2,460.94	76.8963	2,460.94	67.4304	2,460.94	58.7048	2,460.94	70.7043	2,460.94	72.5874	2,460.94	56.4504	2,460.94	67.6423	2,460.94	61.6445	2,460.94	65.2225	2,460.94	67.5768
2,548.83	89.5196	2,548.83	89.3001	2,548.83	89.3175	2,548.83	90.3232	2,548.83	89.5947	2,548.83	89.5281	2,548.83	90.3257	2,548.83	86.5351	2,548.83	88.7552	2,548.83	86.0057	2,548.83	86.2965	2,548.83	86.8127	2,548.83	87.5281	2,548.83	85.0788	2,548.83	86.9292	2,548.83	82.9758	2,548.83	84.951	2,548.83	80.2788	2,548.83	82.3071	2,548.83	79.0677	2,548.83	79.7728	2,548.83	78.5591	2,548.83	77.0156	2,548.83	73.7501	2,548.83	74.9003	2,548.83	73.3127	2,548.83	72.6517	2,548.83	69.3944	2,548.83	66.7495	2,548.83	73.116	2,548.83	74.3138	2,548.83	66.5077	2,548.83	69.2442	2,548.83	62.0965	2,548.83	69.6312	2,548.83	64.0701
2,639.65	88.4352	2,639.65	88.437	2,639.65	88.6548	2,639.65	88.7899	2,639.65	88.9161	2,639.65	88.3979	2,639.65	88.8235	2,639.65	86.4239	2,639.65	87.539	2,639.65	84.6183	2,639.65	85.0836	2,639.65	84.4277	2,639.65	84.5268	2,639.65	82.8181	2,639.65	83.751	2,639.65	80.0288	2,639.65	81.7367	2,639.65	76.3586	2,639.65	78.9803	2,639.65	74.155	2,639.65	76.8449	2,639.65	73.906	2,639.65	74.339	2,639.65	70.0941	2,639.65	70.0426	2,639.65	64.7912	2,639.65	63.0773	2,639.65	71	2,639.65	67.1837	2,639.65	72.1168	2,639.65	72.3029	2,639.65	63.9143	2,639.65	69.0497	2,639.65	59.4224	2,639.65	66.3931	2,639.65	63.8391
2,733.4	88.1854	2,733.4	88.5504	2,733.4	88.7649	2,733.4	88.5838	2,733.4	89.0294	2,733.4	88.4464	2,733.4	88.5823	2,733.4	87.0745	2,733.4	87.9112	2,733.4	85.1816	2,733.4	85.1531	2,733.4	85.223	2,733.4	84.4355	2,733.4	83.1644	2,733.4	83.2904	2,733.4	80.5105	2,733.4	81.4061	2,733.4	77.1872	2,733.4	79.2701	2,733.4	74.861	2,733.4	76.406	2,733.4	73.9493	2,733.4	74.2143	2,733.4	69.2533	2,733.4	71.2369	2,733.4	49.0425	2,733.4	57.7516	2,733.4	71.7555	2,733.4	68.0268	2,733.4	70.34	2,733.4	73.2815	2,733.4	65.2166	2,733.4	66.6884	2,733.4	67.3139	2,733.4	61.6615	2,733.4	65.9651
2,827.15	88.1286	2,827.15	88.6772	2,827.15	88.999	2,827.15	88.4773	2,827.15	89.0481	2,827.15	88.6535	2,827.15	88.9576	2,827.15	87.6798	2,827.15	88.4836	2,827.15	85.0563	2,827.15	85.334	2,827.15	84.3736	2,827.15	84.5327	2,827.15	82.4711	2,827.15	83.4827	2,827.15	79.2062	2,827.15	80.989	2,827.15	76.7643	2,827.15	77.9435	2,827.15	73.3452	2,827.15	76.1932	2,827.15	73.2528	2,827.15	74.7718	2,827.15	69.8681	2,827.15	70.6149	2,827.15	65.384	2,827.15	57.15	2,827.15	69.3273	2,827.15	68.5579	2,827.15	70.9909	2,827.15	73.0802	2,827.15	66.7249	2,827.15	65.97	2,827.15	59.6231	2,827.15	66.0296	2,827.15	55.5017
2,926.76	87.6098	2,926.76	88.3268	2,926.76	88.2865	2,926.76	87.9468	2,926.76	88.6394	2,926.76	88.9614	2,926.76	88.9276	2,926.76	87.6653	2,926.76	88.4541	2,926.76	84.449	2,926.76	84.7904	2,926.76	83.5003	2,926.76	83.6248	2,926.76	81.6585	2,926.76	82.7867	2,926.76	78.8397	2,926.76	80.2317	2,926.76	76.2714	2,926.76	77.1189	2,926.76	74.5913	2,926.76	74.7663	2,926.76	70.731	2,926.76	73.581	2,926.76	69.814	2,926.76	69.4678	2,926.76	63.9322	2,926.76	60.7036	2,926.76	70.7671	2,926.76	67.3995	2,926.76	68.3032	2,926.76	71.8789	2,926.76	57.3828	2,926.76	63.0127	2,926.76	67.8174	2,926.76	59.6999	2,926.76	55.8908
3,032.23	87.779	3,032.23	87.4584	3,032.23	87.6447	3,032.23	87.5722	3,032.23	87.8493	3,032.23	88.7494	3,032.23	88.8912	3,032.23	86.6554	3,032.23	88.1651	3,032.23	83.5562	3,032.23	84.4724	3,032.23	82.1213	3,032.23	82.7528	3,032.23	80.4725	3,032.23	82.2527	3,032.23	77.2692	3,032.23	79.7758	3,032.23	75.2092	3,032.23	76.5814	3,032.23	74.3255	3,032.23	73.8115	3,032.23	71.4655	3,032.23	73.1793	3,032.23	71.2465	3,032.23	70.706	3,032.23	67.0446	3,032.23	63.9731	3,032.23	68.1184	3,032.23	67.6663	3,032.23	66.9896	3,032.23	70.5426	3,032.23	54.7732	3,032.23	62.0518	3,032.23	64.4766	3,032.23	61.7853	3,032.23	46.1058
3,137.7	88.1938	3,137.7	87.2762	3,137.7	87.8291	3,137.7	87.9514	3,137.7	87.5965	3,137.7	88.7615	3,137.7	88.9467	3,137.7	86.7192	3,137.7	88.1396	3,137.7	83.8593	3,137.7	84.5744	3,137.7	83.028	3,137.7	83.0277	3,137.7	81.4521	3,137.7	82.4676	3,137.7	78.139	3,137.7	80.4933	3,137.7	75.9578	3,137.7	78.1636	3,137.7	73.2526	3,137.7	73.7668	3,137.7	72.4686	3,137.7	72.7535	3,137.7	68.2287	3,137.7	72.4902	3,137.7	65.1304	3,137.7	67.1487	3,137.7	69.9513	3,137.7	68.7229	3,137.7	64.5226	3,137.7	69.8791	3,137.7	66.0556	3,137.7	59.4447	3,137.7	69.9342	3,137.7	67.4352	3,137.7	55.7153
3,249.02	88.4663	3,249.02	87.1923	3,249.02	87.9217	3,249.02	87.9469	3,249.02	87.3633	3,249.02	88.1749	3,249.02	88.4705	3,249.02	86.5221	3,249.02	87.439	3,249.02	84.3309	3,249.02	84.8479	3,249.02	83.141	3,249.02	83.0662	3,249.02	81.4422	3,249.02	83.2095	3,249.02	78.3643	3,249.02	80.5299	3,249.02	75.511	3,249.02	77.5304	3,249.02	73.734	3,249.02	73.9095	3,249.02	72.9036	3,249.02	73.1905	3,249.02	69.8422	3,249.02	70.7931	3,249.02	65.0777	3,249.02	64.0562	3,249.02	67.3381	3,249.02	63.725	3,249.02	65.9709	3,249.02	68.3609	3,249.02	63.61	3,249.02	54.1527	3,249.02	62.3622	3,249.02	67.9788	3,249.02	62.0512
3,363.28	87.9178	3,363.28	87.1743	3,363.28	87.3621	3,363.28	87.2752	3,363.28	87.1679	3,363.28	87.1772	3,363.28	87.5282	3,363.28	86.0924	3,363.28	87.0472	3,363.28	84.2619	3,363.28	85.3683	3,363.28	83.5677	3,363.28	83.3809	3,363.28	81.5445	3,363.28	82.7678	3,363.28	77.8532	3,363.28	79.2268	3,363.28	75.0688	3,363.28	76.828	3,363.28	69.9379	3,363.28	72.0298	3,363.28	72.4787	3,363.28	72.8451	3,363.28	67.2633	3,363.28	68.1209	3,363.28	64.1073	3,363.28	63.0593	3,363.28	65.3878	3,363.28	64.7817	3,363.28	61.8927	3,363.28	66.311	3,363.28	64.3469	3,363.28	55.9709	3,363.28	65.3444	3,363.28	69.3292	3,363.28	64.9132
3,483.4	87.9155	3,483.4	87.6843	3,483.4	87.6005	3,483.4	86.4616	3,483.4	87.1927	3,483.4	86.9043	3,483.4	86.8793	3,483.4	86.9529	3,483.4	87.7076	3,483.4	84.521	3,483.4	86.4078	3,483.4	83.4982	3,483.4	84.4591	3,483.4	81.4896	3,483.4	83.1736	3,483.4	77.1669	3,483.4	78.6458	3,483.4	75.1546	3,483.4	75.8693	3,483.4	70.8003	3,483.4	72.8823	3,483.4	70.6513	3,483.4	73.1216	3,483.4	68.2116	3,483.4	69.1416	3,483.4	63.7157	3,483.4	59.5588	3,483.4	64.6554	3,483.4	64.1469	3,483.4	61.6584	3,483.4	66.4295	3,483.4	60.5964	3,483.4	58.9691	3,483.4	67.0841	3,483.4	67.2323	3,483.4	64.5036
3,606.45	86.9223	3,606.45	87.3125	3,606.45	87.5738	3,606.45	85.6597	3,606.45	86.4683	3,606.45	86.0871	3,606.45	85.7348	3,606.45	87.0556	3,606.45	87.2675	3,606.45	84.3636	3,606.45	85.8551	3,606.45	82.6658	3,606.45	83.6264	3,606.45	81.5679	3,606.45	81.7297	3,606.45	78.1737	3,606.45	78.4985	3,606.45	76.1138	3,606.45	74.8488	3,606.45	71.841	3,606.45	72.1277	3,606.45	71.7828	3,606.45	72.1782	3,606.45	65.3954	3,606.45	70.9588	3,606.45	67.3155	3,606.45	63.2881	3,606.45	67.7405	3,606.45	62.6188	3,606.45	59.3001	3,606.45	65.6699	3,606.45	59.2377	3,606.45	56.7582	3,606.45	67.7481	3,606.45	62.7817	3,606.45	66.0787
3,732.42	86.4892	3,732.42	87.1127	3,732.42	87.33	3,732.42	85.1751	3,732.42	86.1498	3,732.42	85.4662	3,732.42	85.4479	3,732.42	85.9924	3,732.42	87.3061	3,732.42	83.8027	3,732.42	86.1131	3,732.42	81.8854	3,732.42	83.3207	3,732.42	80.8007	3,732.42	82.289	3,732.42	77.5149	3,732.42	79.3639	3,732.42	75.9461	3,732.42	76.0085	3,732.42	73.5457	3,732.42	73.846	3,732.42	72.4735	3,732.42	72.2903	3,732.42	68.1288	3,732.42	71.7768	3,732.42	66.7243	3,732.42	65.2396	3,732.42	68.662	3,732.42	65.6548	3,732.42	61.6549	3,732.42	59.8745	3,732.42	64.3278	3,732.42	63.7895	3,732.42	68.4679	3,732.42	63.3224	3,732.42	67.4601
3,864.26	87.1435	3,864.26	87.6355	3,864.26	87.3764	3,864.26	86.0038	3,864.26	86.429	3,864.26	86.5758	3,864.26	85.6551	3,864.26	85.9628	3,864.26	87.2575	3,864.26	84.619	3,864.26	86.3262	3,864.26	83.0544	3,864.26	83.4977	3,864.26	81.8292	3,864.26	83.2889	3,864.26	77.7602	3,864.26	80.1124	3,864.26	74.8247	3,864.26	75.7701	3,864.26	72.9685	3,864.26	74.2172	3,864.26	70.7014	3,864.26	73.3301	3,864.26	63.7002	3,864.26	71.7363	3,864.26	66.5406	3,864.26	65.707	3,864.26	70.178	3,864.26	68.2973	3,864.26	60.1781	3,864.26	58.6455	3,864.26	66.7799	3,864.26	67.9669	3,864.26	66.1943	3,864.26	66.2847	3,864.26	66.7722
3,999.02	87.8247	3,999.02	87.9398	3,999.02	87.6952	3,999.02	86.3842	3,999.02	87.4547	3,999.02	86.5837	3,999.02	86.0553	3,999.02	86.5883	3,999.02	86.5509	3,999.02	84.2526	3,999.02	85.6104	3,999.02	82.8078	3,999.02	83.6378	3,999.02	82.2676	3,999.02	83.2078	3,999.02	77.5269	3,999.02	79.784	3,999.02	73.5175	3,999.02	76.6495	3,999.02	71.8901	3,999.02	74.2514	3,999.02	70.9281	3,999.02	73.1189	3,999.02	65.006	3,999.02	71.7363	3,999.02	65.7443	3,999.02	63.6632	3,999.02	68.6354	3,999.02	63.4443	3,999.02	57.9391	3,999.02	62.8014	3,999.02	64.3686	3,999.02	66.4761	3,999.02	66.4715	3,999.02	66.1775	3,999.02	64.6259
4,139.65	87.9484	4,139.65	87.5437	4,139.65	88.3166	4,139.65	86.4599	4,139.65	87.4618	4,139.65	84.5842	4,139.65	85.7426	4,139.65	86.0407	4,139.65	86.1236	4,139.65	84.1955	4,139.65	86.0306	4,139.65	82.7662	4,139.65	83.908	4,139.65	82.4956	4,139.65	82.6607	4,139.65	79.398	4,139.65	79.783	4,139.65	74.2822	4,139.65	75.3717	4,139.65	71.2987	4,139.65	73.9129	4,139.65	70.5642	4,139.65	72.2964	4,139.65	58.4581	4,139.65	70.2788	4,139.65	64.1109	4,139.65	64.1403	4,139.65	66.0177	4,139.65	64.8824	4,139.65	61.6591	4,139.65	60.9031	4,139.65	63.6992	4,139.65	65.8156	4,139.65	62.108	4,139.65	65.9554	4,139.65	64.7931
4,286.13	88.5934	4,286.13	88.1083	4,286.13	88.956	4,286.13	87.8366	4,286.13	88.0144	4,286.13	84.3895	4,286.13	86.9796	4,286.13	84.7568	4,286.13	86.7288	4,286.13	85.3797	4,286.13	87.4452	4,286.13	82.4734	4,286.13	84.3083	4,286.13	80.446	4,286.13	82.8472	4,286.13	79.4045	4,286.13	80.8919	4,286.13	74.4058	4,286.13	76.8866	4,286.13	73.2271	4,286.13	74.6315	4,286.13	70.2628	4,286.13	70.5977	4,286.13	64.974	4,286.13	68.7943	4,286.13	64.591	4,286.13	68.0784	4,286.13	65.7883	4,286.13	67.632	4,286.13	61.291	4,286.13	63.3209	4,286.13	65.3334	4,286.13	58.4196	4,286.13	66.7077	4,286.13	62.9692	4,286.13	67.6902
4,438.48	88.8858	4,438.48	88.6758	4,438.48	87.9805	4,438.48	87.8907	4,438.48	88.5118	4,438.48	86.9805	4,438.48	86.8984	4,438.48	87.2054	4,438.48	86.2511	4,438.48	86.6813	4,438.48	86.7721	4,438.48	83.6039	4,438.48	83.7256	4,438.48	82.8313	4,438.48	82.9879	4,438.48	78.7537	4,438.48	80.6463	4,438.48	74.953	4,438.48	76.7149	4,438.48	73.5071	4,438.48	75.6977	4,438.48	71.7122	4,438.48	72.7664	4,438.48	63.1376	4,438.48	70.9796	4,438.48	61.9086	4,438.48	67.7397	4,438.48	66.9166	4,438.48	67.263	4,438.48	61.6537	4,438.48	60.367	4,438.48	61.6787	4,438.48	66.3726	4,438.48	66.5797	4,438.48	67.3427	4,438.48	67.6864
4,593.75	89.2392	4,593.75	88.3741	4,593.75	88.5866	4,593.75	88.3226	4,593.75	88.6154	4,593.75	86.5674	4,593.75	87.5098	4,593.75	87.5959	4,593.75	85.7736	4,593.75	85.1405	4,593.75	86.2717	4,593.75	83.0675	4,593.75	84.4224	4,593.75	81.1766	4,593.75	83.241	4,593.75	76.8113	4,593.75	80.9659	4,593.75	70.4758	4,593.75	75.209	4,593.75	72.6924	4,593.75	75.1277	4,593.75	72.5217	4,593.75	72.4596	4,593.75	62.8296	4,593.75	67.1541	4,593.75	61.9437	4,593.75	66.8411	4,593.75	65.1621	4,593.75	66.6512	4,593.75	57.966	4,593.75	60.8164	4,593.75	67.6341	4,593.75	67.2181	4,593.75	64.3021	4,593.75	65.9212	4,593.75	63.8537
4,757.81	89.2226	4,757.81	88.0693	4,757.81	89.8646	4,757.81	88.0528	4,757.81	88.3754	4,757.81	85.4657	4,757.81	87.7084	4,757.81	85.7459	4,757.81	86.4456	4,757.81	85.0596	4,757.81	87.1966	4,757.81	82.8987	4,757.81	84.7473	4,757.81	80.5424	4,757.81	82.4977	4,757.81	79.1909	4,757.81	79.4411	4,757.81	73.2915	4,757.81	75.1465	4,757.81	72.031	4,757.81	73.5527	4,757.81	68.3154	4,757.81	71.8167	4,757.81	55.3241	4,757.81	65.4391	4,757.81	61.7098	4,757.81	64.6135	4,757.81	62.4921	4,757.81	66.14	4,757.81	64.7683	4,757.81	62.611	4,757.81	65.775	4,757.81	65.4117	4,757.81	62.6173	4,757.81	60.5556	4,757.81	67.8447
4,924.8	89.2914	4,924.8	89.188	4,924.8	88.7663	4,924.8	87.4367	4,924.8	88.9075	4,924.8	87.0068	4,924.8	87.7747	4,924.8	85.8989	4,924.8	87.1676	4,924.8	86.0269	4,924.8	86.3577	4,924.8	83.1082	4,924.8	84.6807	4,924.8	80.7811	4,924.8	82.4271	4,924.8	77.3313	4,924.8	79.583	4,924.8	71.6596	4,924.8	75.3791	4,924.8	72.7988	4,924.8	72.9207	4,924.8	68.2336	4,924.8	71.9698	4,924.8	55.6656	4,924.8	66.512	4,924.8	63.0854	4,924.8	64.284	4,924.8	61.6539	4,924.8	69.8852	4,924.8	64.762	4,924.8	61.3727	4,924.8	65.8331	4,924.8	68.1544	4,924.8	64.4717	4,924.8	63.0767	4,924.8	69.8599
5,097.66	88.3704	5,097.66	87.4061	5,097.66	87.9046	5,097.66	87.0595	5,097.66	87.3902	5,097.66	86.3759	5,097.66	86.9268	5,097.66	85.6959	5,097.66	85.6454	5,097.66	84.933	5,097.66	85.3149	5,097.66	83.0977	5,097.66	85.0234	5,097.66	81.2399	5,097.66	82.5352	5,097.66	77.2721	5,097.66	79.9779	5,097.66	69.7938	5,097.66	75.2067	5,097.66	73.3315	5,097.66	73.9481	5,097.66	68.9859	5,097.66	71.7724	5,097.66	60.2372	5,097.66	67.1355	5,097.66	65.2478	5,097.66	62.0531	5,097.66	61.7935	5,097.66	67.9812	5,097.66	59.5869	5,097.66	58.7051	5,097.66	66.8636	5,097.66	67.7904	5,097.66	63.6664	5,097.66	61.2584	5,097.66	67.1683
5,279.3	86.8953	5,279.3	85.5566	5,279.3	87.4815	5,279.3	86.6268	5,279.3	85.752	5,279.3	84.6972	5,279.3	85.768	5,279.3	84.9512	5,279.3	83.9797	5,279.3	84.1584	5,279.3	85.2004	5,279.3	82.6989	5,279.3	84.1621	5,279.3	80.7432	5,279.3	81.5589	5,279.3	78.6317	5,279.3	79.7199	5,279.3	69.8623	5,279.3	74.022	5,279.3	72.0091	5,279.3	72.6442	5,279.3	69.1139	5,279.3	71.0529	5,279.3	49.0766	5,279.3	65.0329	5,279.3	64.6162	5,279.3	58.2076	5,279.3	60.1836	5,279.3	65.9607	5,279.3	65.0453	5,279.3	59.1852	5,279.3	64.9305	5,279.3	67.081	5,279.3	63.9744	5,279.3	54.9911	5,279.3	65.8793
5,463.87	87.4083	5,463.87	87.1526	5,463.87	86.3031	5,463.87	85.6993	5,463.87	87.0547	5,463.87	84.3053	5,463.87	85.6987	5,463.87	83.0601	5,463.87	85.1732	5,463.87	83.304	5,463.87	85.6037	5,463.87	82.4924	5,463.87	84.3445	5,463.87	79.4802	5,463.87	81.36	5,463.87	76.4763	5,463.87	79.5888	5,463.87	71.2907	5,463.87	74.7082	5,463.87	73.2662	5,463.87	72.7902	5,463.87	68.2426	5,463.87	70.1968	5,463.87	57.3241	5,463.87	69.3363	5,463.87	66.833	5,463.87	63.0727	5,463.87	60.4672	5,463.87	67.0959	5,463.87	61.6078	5,463.87	55.4347	5,463.87	60.5702	5,463.87	67.2628	5,463.87	60.7829	5,463.87	61.0973	5,463.87	63.567
5,657.23	86.5829	5,657.23	85.7285	5,657.23	86.6887	5,657.23	85.9962	5,657.23	85.9553	5,657.23	84.7939	5,657.23	84.64	5,657.23	83.8288	5,657.23	83.6952	5,657.23	83.141	5,657.23	83.7307	5,657.23	83.6704	5,657.23	83.1166	5,657.23	80.8745	5,657.23	80.8151	5,657.23	76.6008	5,657.23	80.4315	5,657.23	73.7391	5,657.23	73.7854	5,657.23	71.5818	5,657.23	69.9774	5,657.23	67.8927	5,657.23	70.0454	5,657.23	64.3771	5,657.23	67.881	5,657.23	66.44	5,657.23	57.3619	5,657.23	63.6678	5,657.23	65.2837	5,657.23	62.1919	5,657.23	57.3846	5,657.23	65.3893	5,657.23	65.5075	5,657.23	59.3511	5,657.23	62.0713	5,657.23	62.1914
5,856.45	85.5075	5,856.45	86.1935	5,856.45	86.602	5,856.45	86.1267	5,856.45	85.982	5,856.45	84.7052	5,856.45	85.2546	5,856.45	83.4415	5,856.45	83.9425	5,856.45	83.7931	5,856.45	83.9166	5,856.45	83.937	5,856.45	83.2226	5,856.45	81.3635	5,856.45	81.9424	5,856.45	78.2135	5,856.45	81.2631	5,856.45	70.8876	5,856.45	74.598	5,856.45	69.1528	5,856.45	70.8819	5,856.45	69.7876	5,856.45	70.3022	5,856.45	62.1641	5,856.45	67.6664	5,856.45	61.3103	5,856.45	60.9219	5,856.45	61.5575	5,856.45	63.014	5,856.45	63.5486	5,856.45	59.1632	5,856.45	65.2334	5,856.45	66.2852	5,856.45	59.4133	5,856.45	56.223	5,856.45	64.194
6,061.52	86.5861	6,061.52	87.0383	6,061.52	86.1511	6,061.52	85.2648	6,061.52	86.4032	6,061.52	85.0915	6,061.52	85.629	6,061.52	83.4809	6,061.52	84.7049	6,061.52	84.4459	6,061.52	84.3475	6,061.52	83.8609	6,061.52	84.1743	6,061.52	81.5554	6,061.52	83.5038	6,061.52	76.6287	6,061.52	81.2974	6,061.52	70.8548	6,061.52	75.6308	6,061.52	69.8747	6,061.52	70.2899	6,061.52	66.7098	6,061.52	68.8653	6,061.52	62.3939	6,061.52	68.4382	6,061.52	59.8765	6,061.52	57.4172	6,061.52	62.4798	6,061.52	64.6421	6,061.52	60.8865	6,061.52	58.1151	6,061.52	64.2644	6,061.52	66.3726	6,061.52	59.947	6,061.52	53.4561	6,061.52	64.0931
6,275.39	86.9072	6,275.39	86.2026	6,275.39	87.2252	6,275.39	86.3982	6,275.39	86.2788	6,275.39	85.1728	6,275.39	86.3115	6,275.39	84.266	6,275.39	84.4478	6,275.39	84.7349	6,275.39	84.4506	6,275.39	83.8508	6,275.39	84.4143	6,275.39	82.2393	6,275.39	83.9426	6,275.39	76.7463	6,275.39	81.3568	6,275.39	68.8248	6,275.39	74.9818	6,275.39	70.2191	6,275.39	70.6992	6,275.39	68.0379	6,275.39	69.9642	6,275.39	65.2392	6,275.39	66.5332	6,275.39	63.3905	6,275.39	63.5096	6,275.39	63.7973	6,275.39	65.6179	6,275.39	59.8887	6,275.39	60.844	6,275.39	65.4714	6,275.39	65.2898	6,275.39	57.3766	6,275.39	58.8827	6,275.39	62.6251
6,498.05	87.3788	6,498.05	86.8713	6,498.05	86.8573	6,498.05	85.9856	6,498.05	86.7017	6,498.05	84.7965	6,498.05	86.2951	6,498.05	84.2245	6,498.05	84.4169	6,498.05	84.2754	6,498.05	84.3177	6,498.05	84.1063	6,498.05	84.3445	6,498.05	82.3523	6,498.05	83.723	6,498.05	77.1131	6,498.05	80.7905	6,498.05	70.0642	6,498.05	74.435	6,498.05	68.298	6,498.05	71.4075	6,498.05	67.9153	6,498.05	67.7996	6,498.05	62.5951	6,498.05	65.2562	6,498.05	61.5593	6,498.05	58.4457	6,498.05	65.5527	6,498.05	60.9664	6,498.05	62.7034	6,498.05	61.5952	6,498.05	63.8266	6,498.05	64.0588	6,498.05	55.2378	6,498.05	59.8523	6,498.05	61.0027
6,726.56	87.6432	6,726.56	87.0881	6,726.56	87.6488	6,726.56	86.2321	6,726.56	86.726	6,726.56	85.1399	6,726.56	85.8908	6,726.56	84.4995	6,726.56	84.0141	6,726.56	83.7976	6,726.56	83.6521	6,726.56	83.5769	6,726.56	83.7946	6,726.56	81.4684	6,726.56	82.9058	6,726.56	77.724	6,726.56	80.2118	6,726.56	70.7131	6,726.56	74.6799	6,726.56	69.2897	6,726.56	70.2058	6,726.56	68.3716	6,726.56	68.1468	6,726.56	64.2429	6,726.56	61.2772	6,726.56	63.2737	6,726.56	56.5447	6,726.56	61.2885	6,726.56	62.5788	6,726.56	59.6448	6,726.56	60.4407	6,726.56	60.9244	6,726.56	65.0812	6,726.56	47.8333	6,726.56	55.1749	6,726.56	61.4957
6,963.87	87.6263	6,963.87	86.9375	6,963.87	87.6758	6,963.87	86.3473	6,963.87	86.6627	6,963.87	85.5662	6,963.87	85.5106	6,963.87	84.2097	6,963.87	84.4426	6,963.87	82.623	6,963.87	84.4216	6,963.87	83.0057	6,963.87	83.9028	6,963.87	81.1704	6,963.87	83.0899	6,963.87	78.2029	6,963.87	80.445	6,963.87	71.2766	6,963.87	74.8279	6,963.87	69.5762	6,963.87	68.588	6,963.87	68.188	6,963.87	68.6634	6,963.87	65.791	6,963.87	62.2706	6,963.87	64.0356	6,963.87	47.9829	6,963.87	60.8082	6,963.87	61.7617	6,963.87	61.7791	6,963.87	61.9415	6,963.87	61.0245	6,963.87	64.3207	6,963.87	56.8247	6,963.87	55.1504	6,963.87	61.9353
7,209.96	87.1811	7,209.96	86.7475	7,209.96	87.3112	7,209.96	85.9177	7,209.96	86.5408	7,209.96	84.8074	7,209.96	85.2672	7,209.96	83.307	7,209.96	84.755	7,209.96	81.7649	7,209.96	83.5917	7,209.96	82.1452	7,209.96	83.3873	7,209.96	80.5017	7,209.96	82.5054	7,209.96	77.0153	7,209.96	80.4952	7,209.96	71.0328	7,209.96	74.5459	7,209.96	68.7239	7,209.96	65.7414	7,209.96	65.5544	7,209.96	67.1967	7,209.96	63.4977	7,209.96	62.8576	7,209.96	62.9249	7,209.96	52.7758	7,209.96	61.7724	7,209.96	61.2421	7,209.96	61.5522	7,209.96	59.2477	7,209.96	63.0236	7,209.96	62.9927	7,209.96	53.0879	7,209.96	56.8874	7,209.96	60.8391
7,464.84	86.8424	7,464.84	86.8629	7,464.84	87.0418	7,464.84	85.7905	7,464.84	86.0114	7,464.84	85.406	7,464.84	85.2933	7,464.84	83.2499	7,464.84	84.5715	7,464.84	82.0586	7,464.84	83.3792	7,464.84	81.5385	7,464.84	82.8348	7,464.84	79.7398	7,464.84	81.1709	7,464.84	74.9147	7,464.84	79.5769	7,464.84	71.3934	7,464.84	74.3648	7,464.84	67.5432	7,464.84	64.8348	7,464.84	65.2235	7,464.84	67.5995	7,464.84	61.7166	7,464.84	60.7074	7,464.84	60.4793	7,464.84	56.1218	7,464.84	62.1419	7,464.84	64.7912	7,464.84	62.821	7,464.84	61.5047	7,464.84	62.5963	7,464.84	62.6571	7,464.84	54.2343	7,464.84	45.564	7,464.84	59.1263
7,728.52	87.068	7,728.52	87.1636	7,728.52	87.2449	7,728.52	85.7783	7,728.52	86.5976	7,728.52	84.82	7,728.52	85.7033	7,728.52	82.4343	7,728.52	84.465	7,728.52	81.8533	7,728.52	82.8377	7,728.52	80.1817	7,728.52	82.1295	7,728.52	79.7349	7,728.52	81.1591	7,728.52	74.5386	7,728.52	79.5009	7,728.52	71.5806	7,728.52	73.1282	7,728.52	67.0996	7,728.52	64.7667	7,728.52	60.3391	7,728.52	63.3636	7,728.52	57.5933	7,728.52	60.4169	7,728.52	60.5515	7,728.52	57.9687	7,728.52	62.461	7,728.52	63.1475	7,728.52	62.4495	7,728.52	58.9656	7,728.52	62.6487	7,728.52	62.152	7,728.52	54.493	7,728.52	55.5542	7,728.52	58.6527
8,000.98	87.6585	8,000.98	87.6297	8,000.98	87.2988	8,000.98	87.0257	8,000.98	86.9717	8,000.98	86.2726	8,000.98	86.5738	8,000.98	84.1595	8,000.98	85.0406	8,000.98	83.101	8,000.98	83.5579	8,000.98	81.3371	8,000.98	82.2237	8,000.98	79.4324	8,000.98	80.7573	8,000.98	73.5109	8,000.98	78.8747	8,000.98	70.5323	8,000.98	73.0761	8,000.98	66.7614	8,000.98	65.8682	8,000.98	59.6687	8,000.98	64.451	8,000.98	51.7107	8,000.98	60.4068	8,000.98	61.0996	8,000.98	52.5426	8,000.98	59.9595	8,000.98	62.8409	8,000.98	61.3828	8,000.98	60.3693	8,000.98	60.6804	8,000.98	60.5998	8,000.98	57.4103	8,000.98	56.4482	8,000.98	56.8768
8,282.23	88.0843	8,282.23	87.7821	8,282.23	88.0107	8,282.23	87.5987	8,282.23	87.4611	8,282.23	86.0663	8,282.23	86.9153	8,282.23	84.3587	8,282.23	85.7634	8,282.23	82.8888	8,282.23	83.4145	8,282.23	80.2571	8,282.23	82.0326	8,282.23	79.7134	8,282.23	80.5978	8,282.23	75.7887	8,282.23	79.535	8,282.23	72.4573	8,282.23	72.3218	8,282.23	66.3688	8,282.23	65.131	8,282.23	57.9626	8,282.23	61.7572	8,282.23	42.1171	8,282.23	59.0832	8,282.23	59.2484	8,282.23	52.3769	8,282.23	58.2345	8,282.23	58.3892	8,282.23	59.6187	8,282.23	62.0185	8,282.23	59.2785	8,282.23	60.8366	8,282.23	56.8046	8,282.23	58.3493	8,282.23	61.1938
8,575.2	88.0788	8,575.2	87.9861	8,575.2	88.0908	8,575.2	87.8901	8,575.2	87.7302	8,575.2	86.5938	8,575.2	87.5616	8,575.2	84.3471	8,575.2	85.4772	8,575.2	81.9236	8,575.2	83.4249	8,575.2	80.9652	8,575.2	81.6212	8,575.2	79.3088	8,575.2	80.2759	8,575.2	75.0794	8,575.2	79.1584	8,575.2	70.825	8,575.2	73.0388	8,575.2	63.8547	8,575.2	68.7336	8,575.2	63.2041	8,575.2	62.8624	8,575.2	55.058	8,575.2	59.1749	8,575.2	58.0442	8,575.2	53.4828	8,575.2	59.1163	8,575.2	57.7499	8,575.2	62.1979	8,575.2	58.6865	8,575.2	62.8357	8,575.2	61.118	8,575.2	52.727	8,575.2	54.4792	8,575.2	59.149
8,876.95	88.2157	8,876.95	87.7677	8,876.95	88.0622	8,876.95	87.6247	8,876.95	87.7093	8,876.95	86.1573	8,876.95	86.9184	8,876.95	83.6635	8,876.95	85.0104	8,876.95	81.7239	8,876.95	83.2706	8,876.95	80.9058	8,876.95	81.583	8,876.95	79.2852	8,876.95	80.4477	8,876.95	76.9644	8,876.95	79.9598	8,876.95	73.3473	8,876.95	74.6627	8,876.95	64.7194	8,876.95	69.6768	8,876.95	62.2569	8,876.95	60.3028	8,876.95	58.7665	8,876.95	64.2361	8,876.95	56.2101	8,876.95	53.3885	8,876.95	58.1649	8,876.95	57.6697	8,876.95	59.8204	8,876.95	58.5419	8,876.95	61.3489	8,876.95	57.9888	8,876.95	54.9144	8,876.95	58.1827	8,876.95	58.2096
9,190.43	87.7674	9,190.43	87.9604	9,190.43	87.6662	9,190.43	87.3316	9,190.43	87.6133	9,190.43	85.8573	9,190.43	86.6221	9,190.43	83.6205	9,190.43	84.6361	9,190.43	81.0392	9,190.43	82.7101	9,190.43	81.217	9,190.43	81.0897	9,190.43	79.0419	9,190.43	80.9191	9,190.43	76.7668	9,190.43	79.3809	9,190.43	72.1745	9,190.43	74.1064	9,190.43	64.3879	9,190.43	67.4946	9,190.43	63.7953	9,190.43	61.1765	9,190.43	61.2124	9,190.43	61.2289	9,190.43	57.7115	9,190.43	56.5818	9,190.43	58.2795	9,190.43	58.2136	9,190.43	58.7137	9,190.43	52.2821	9,190.43	61.9158	9,190.43	60.7349	9,190.43	54.6488	9,190.43	47.9749	9,190.43	58.2623
9,512.7	87.6279	9,512.7	87.9409	9,512.7	87.7823	9,512.7	87.1939	9,512.7	87.5577	9,512.7	85.9003	9,512.7	86.3529	9,512.7	83.4351	9,512.7	84.7805	9,512.7	80.8449	9,512.7	82.2649	9,512.7	80.7207	9,512.7	81.4373	9,512.7	78.4898	9,512.7	80.9548	9,512.7	75.9566	9,512.7	78.6014	9,512.7	71.8985	9,512.7	73.1741	9,512.7	63.688	9,512.7	66.21	9,512.7	62.3693	9,512.7	56.9768	9,512.7	60.7573	9,512.7	61.9928	9,512.7	55.4487	9,512.7	56.356	9,512.7	58.8795	9,512.7	60.8502	9,512.7	62.9254	9,512.7	58.7117	9,512.7	60.8172	9,512.7	59.6743	9,512.7	53.3921	9,512.7	56.2392	9,512.7	56.6427
9,849.61	87.7626	9,849.61	87.9385	9,849.61	87.8927	9,849.61	87.3051	9,849.61	87.6073	9,849.61	86.0132	9,849.61	86.819	9,849.61	83.2948	9,849.61	84.8288	9,849.61	81.53	9,849.61	82.3653	9,849.61	79.7614	9,849.61	81.6575	9,849.61	78.562	9,849.61	80.0585	9,849.61	76.0347	9,849.61	77.8376	9,849.61	71.3986	9,849.61	72.2727	9,849.61	62.7408	9,849.61	65.8506	9,849.61	59.8632	9,849.61	57.9849	9,849.61	59.3882	9,849.61	61.5477	9,849.61	59.5361	9,849.61	57.7736	9,849.61	59.2006	9,849.61	61.8258	9,849.61	59.2415	9,849.61	57.0631	9,849.61	56.6274	9,849.61	60.6538	9,849.61	56.1284	9,849.61	49.8279	9,849.61	59.9477
10,195.3	88.1656	10,195.3	88.3045	10,195.3	88.4052	10,195.3	87.5707	10,195.3	87.7304	10,195.3	86.2388	10,195.3	86.9169	10,195.3	83.5952	10,195.3	84.7538	10,195.3	81.5569	10,195.3	82.4057	10,195.3	79.459	10,195.3	81.4863	10,195.3	78.2447	10,195.3	79.5336	10,195.3	75.1613	10,195.3	77.7212	10,195.3	72.958	10,195.3	73.8358	10,195.3	61.9572	10,195.3	65.9549	10,195.3	51.0948	10,195.3	59.7086	10,195.3	60.1932	10,195.3	59.3043	10,195.3	61.8929	10,195.3	56.2628	10,195.3	56.2952	10,195.3	60.4077	10,195.3	58.6712	10,195.3	57.7407	10,195.3	55.8351	10,195.3	60.2694	10,195.3	58.317	10,195.3	57.7279	10,195.3	57.2946
10,555.7	88.5156	10,555.7	88.4839	10,555.7	88.6399	10,555.7	87.5423	10,555.7	88.0381	10,555.7	86.285	10,555.7	86.9109	10,555.7	83.6965	10,555.7	84.8719	10,555.7	81.189	10,555.7	82.6419	10,555.7	78.8891	10,555.7	80.3755	10,555.7	77.8213	10,555.7	79.0966	10,555.7	75.4145	10,555.7	77.7734	10,555.7	72.4104	10,555.7	73.7686	10,555.7	58.5647	10,555.7	66.1649	10,555.7	53.959	10,555.7	58.8267	10,555.7	57.7166	10,555.7	59.0578	10,555.7	60.6289	10,555.7	55.0439	10,555.7	59.502	10,555.7	57.3575	10,555.7	59.1648	10,555.7	48.8924	10,555.7	59.7273	10,555.7	59.379	10,555.7	57.415	10,555.7	56.4693	10,555.7	57.3745
10,927.7	88.4287	10,927.7	88.2416	10,927.7	88.5646	10,927.7	87.2881	10,927.7	88.1164	10,927.7	85.7252	10,927.7	86.8635	10,927.7	83.3526	10,927.7	84.8387	10,927.7	81.1624	10,927.7	82.2381	10,927.7	79.3082	10,927.7	79.4968	10,927.7	78.3639	10,927.7	79.1488	10,927.7	75.2666	10,927.7	77.7168	10,927.7	72.3216	10,927.7	73.7183	10,927.7	60.0441	10,927.7	64.8444	10,927.7	53.9086	10,927.7	58.1664	10,927.7	56.4649	10,927.7	58.8298	10,927.7	59.7142	10,927.7	49.2791	10,927.7	59.9456	10,927.7	54.7435	10,927.7	59.2159	10,927.7	56.675	10,927.7	59.24	10,927.7	58.6154	10,927.7	55.4221	10,927.7	56.6877	10,927.7	55.2691
11,314.5	88.2167	11,314.5	87.9356	11,314.5	88.1607	11,314.5	87.0733	11,314.5	87.7295	11,314.5	85.4038	11,314.5	86.4259	11,314.5	83.4039	11,314.5	84.519	11,314.5	80.6308	11,314.5	81.477	11,314.5	79.2054	11,314.5	79.816	11,314.5	77.8256	11,314.5	78.8418	11,314.5	74.5138	11,314.5	77.4004	11,314.5	72.0991	11,314.5	72.9616	11,314.5	60.3936	11,314.5	64.822	11,314.5	55.1634	11,314.5	57.3726	11,314.5	55.0874	11,314.5	56.686	11,314.5	55.5958	11,314.5	43.3424	11,314.5	58.276	11,314.5	55.219	11,314.5	59.1212	11,314.5	57.6673	11,314.5	60.442	11,314.5	58.698	11,314.5	57.3298	11,314.5	52.7215	11,314.5	56.6234
11,712.9	87.445	11,712.9	87.4041	11,712.9	87.3962	11,712.9	86.7269	11,712.9	86.9614	11,712.9	85.1193	11,712.9	85.7652	11,712.9	83.1669	11,712.9	84.1844	11,712.9	80.3892	11,712.9	80.9681	11,712.9	79.4093	11,712.9	79.9731	11,712.9	76.0066	11,712.9	77.421	11,712.9	75.5817	11,712.9	77.0469	11,712.9	72.4188	11,712.9	72.8507	11,712.9	59.5443	11,712.9	63.6839	11,712.9	27.4053	11,712.9	57.6458	11,712.9	54.1125	11,712.9	56.2562	11,712.9	46.0468	11,712.9	21.6786	11,712.9	56.3437	11,712.9	56.0911	11,712.9	54.8906	11,712.9	56.6552	11,712.9	60.9376	11,712.9	58.4475	11,712.9	52.6916	11,712.9	53.8231	11,712.9	56.7477
12,126	87.2767	12,126	87.3115	12,126	87.4554	12,126	86.4606	12,126	86.7888	12,126	85.2265	12,126	85.8188	12,126	82.9817	12,126	84.2637	12,126	80.3377	12,126	81.5548	12,126	79.7045	12,126	80.471	12,126	76.8413	12,126	78.4936	12,126	76.624	12,126	77.6707	12,126	71.8928	12,126	73.2362	12,126	54.9582	12,126	63.9265	12,126	51.2411	12,126	58.3703	12,126	52.3069	12,126	54.9537	12,126	54.3478	12,126	53.9959	12,126	55.4582	12,126	59.206	12,126	56.4502	12,126	58.1901	12,126	61.4791	12,126	57.8135	12,126	56.5477	12,126	55.4993	12,126	54.2077
12,553.7	86.736	12,553.7	87.1077	12,553.7	86.8578	12,553.7	86.2252	12,553.7	86.2316	12,553.7	85.2579	12,553.7	85.785	12,553.7	82.8717	12,553.7	84.4804	12,553.7	81.0599	12,553.7	82.4621	12,553.7	79.825	12,553.7	80.877	12,553.7	78.1257	12,553.7	79.763	12,553.7	76.8726	12,553.7	78.0576	12,553.7	71.2502	12,553.7	73.1025	12,553.7	58.2834	12,553.7	64.4719	12,553.7	51.0508	12,553.7	59.9081	12,553.7	51.658	12,553.7	50.2083	12,553.7	58.4214	12,553.7	54.4147	12,553.7	57.8719	12,553.7	57.7002	12,553.7	52.6972	12,553.7	49.1502	12,553.7	61.0462	12,553.7	58.5922	12,553.7	57.3299	12,553.7	55.0923	12,553.7	54.3341
12,996.1	86.4721	12,996.1	86.4265	12,996.1	86.5271	12,996.1	85.8717	12,996.1	85.8441	12,996.1	84.8811	12,996.1	85.4553	12,996.1	83.2607	12,996.1	84.9334	12,996.1	81.3842	12,996.1	82.814	12,996.1	80.102	12,996.1	81.6313	12,996.1	78.2436	12,996.1	80.3761	12,996.1	76.2977	12,996.1	77.723	12,996.1	71.8053	12,996.1	73.7265	12,996.1	59.3095	12,996.1	64.7285	12,996.1	51.0095	12,996.1	58.5027	12,996.1	45.3923	12,996.1	46.4087	12,996.1	58.6522	12,996.1	56.9704	12,996.1	57.2537	12,996.1	57.5078	12,996.1	53.3958	12,996.1	55.5354	12,996.1	59.6799	12,996.1	56.534	12,996.1	56.0902	12,996.1	56.6443	12,996.1	53.3435
13,453.1	86.0417	13,453.1	85.7337	13,453.1	86.1319	13,453.1	85.5342	13,453.1	85.2576	13,453.1	85.2596	13,453.1	85.3038	13,453.1	83.4246	13,453.1	84.7506	13,453.1	82.3817	13,453.1	82.7531	13,453.1	80.1617	13,453.1	81.7254	13,453.1	78.7381	13,453.1	80.3778	13,453.1	76.6974	13,453.1	78.1049	13,453.1	72.2543	13,453.1	74.0908	13,453.1	58.6451	13,453.1	64.0643	13,453.1	54.032	13,453.1	56.2859	13,453.1	49.9099	13,453.1	43.5593	13,453.1	57.4163	13,453.1	57.4655	13,453.1	57.3795	13,453.1	58.0074	13,453.1	55.1948	13,453.1	46.0462	13,453.1	62.2625	13,453.1	57.97	13,453.1	56.2751	13,453.1	54.1784	13,453.1	54.8638
13,927.7	85.6118	13,927.7	85.1607	13,927.7	85.6366	13,927.7	85.2294	13,927.7	84.8178	13,927.7	85.1351	13,927.7	85.2538	13,927.7	83.5702	13,927.7	84.5752	13,927.7	82.8469	13,927.7	83.0238	13,927.7	80.3213	13,927.7	81.4379	13,927.7	78.3861	13,927.7	80.5049	13,927.7	76.3674	13,927.7	78.3081	13,927.7	71.5461	13,927.7	73.4192	13,927.7	59.1119	13,927.7	63.2698	13,927.7	53.8208	13,927.7	57.0634	13,927.7	51.6034	13,927.7	52.3686	13,927.7	52.9882	13,927.7	54.21	13,927.7	55.6104	13,927.7	57.8519	13,927.7	55.768	13,927.7	45.7143	13,927.7	60.7003	13,927.7	58.2101	13,927.7	52.9896	13,927.7	51.9992	13,927.7	53.569
14,419.9	85.4448	14,419.9	84.8301	14,419.9	85.2741	14,419.9	84.6655	14,419.9	84.2792	14,419.9	84.9142	14,419.9	85.0272	14,419.9	83.49	14,419.9	84.4749	14,419.9	82.8336	14,419.9	83.2057	14,419.9	80.4439	14,419.9	81.2763	14,419.9	77.5921	14,419.9	80.2591	14,419.9	76.0154	14,419.9	77.1143	14,419.9	70.6118	14,419.9	72.5387	14,419.9	56.1534	14,419.9	62.459	14,419.9	55.9459	14,419.9	56.6394	14,419.9	52.8891	14,419.9	55.812	14,419.9	53.9032	14,419.9	53.2718	14,419.9	52.7603	14,419.9	56.7824	14,419.9	55.9998	14,419.9	49.5686	14,419.9	59.5029	14,419.9	55.2051	14,419.9	51.0769	14,419.9	52.643	14,419.9	52.4544
14,929.7	85.5814	14,929.7	84.9762	14,929.7	85.5265	14,929.7	84.9703	14,929.7	84.6362	14,929.7	84.9739	14,929.7	85.045	14,929.7	83.9753	14,929.7	85.1814	14,929.7	83.255	14,929.7	83.7033	14,929.7	80.1678	14,929.7	82.0831	14,929.7	77.7662	14,929.7	80.2356	14,929.7	75.4393	14,929.7	76.7522	14,929.7	70.648	14,929.7	72.8142	14,929.7	58.5873	14,929.7	62.6831	14,929.7	54.6664	14,929.7	56.4043	14,929.7	53.3982	14,929.7	54.6671	14,929.7	53.2408	14,929.7	54.4356	14,929.7	49.9459	14,929.7	54.8699	14,929.7	55.293	14,929.7	48.8496	14,929.7	59.0156	14,929.7	53.8822	14,929.7	50.4008	14,929.7	51.6083	14,929.7	53.9819
15,454.1	86.1698	15,454.1	85.7382	15,454.1	86.0792	15,454.1	85.5464	15,454.1	85.3293	15,454.1	85.3189	15,454.1	85.5212	15,454.1	84.6558	15,454.1	85.5329	15,454.1	83.3182	15,454.1	83.9762	15,454.1	79.9106	15,454.1	81.9556	15,454.1	77.8444	15,454.1	79.6786	15,454.1	74.1492	15,454.1	76.5673	15,454.1	70.4601	15,454.1	72.4436	15,454.1	58.2586	15,454.1	62.516	15,454.1	53.1488	15,454.1	54.6057	15,454.1	52.9899	15,454.1	53.7668	15,454.1	51.4238	15,454.1	54.7384	15,454.1	35.96	15,454.1	53.5118	15,454.1	56.0978	15,454.1	46.7472	15,454.1	57.9392	15,454.1	54.5553	15,454.1	52.4389	15,454.1	45.1069	15,454.1	56.1223
15,999	86.3645	15,999	85.9045	15,999	86.5114	15,999	85.4469	15,999	85.7757	15,999	85.7369	15,999	85.8656	15,999	84.9793	15,999	85.6944	15,999	83.1072	15,999	83.8647	15,999	79.9068	15,999	81.4216	15,999	77.2888	15,999	79.3387	15,999	73.952	15,999	75.3719	15,999	69.9492	15,999	71.0917	15,999	57.8806	15,999	61.028	15,999	47.2977	15,999	53.1602	15,999	50.4571	15,999	53.5097	15,999	45.6319	15,999	52.6738	15,999	43.6835	15,999	54.5607	15,999	54.3767	15,999	35.6366	15,999	54.3864	15,999	54.0751	15,999	52.6677	15,999	42.2525	15,999	55.3683
16,564.5	86.451	16,564.5	86.0561	16,564.5	86.6053	16,564.5	85.4316	16,564.5	85.7995	16,564.5	85.141	16,564.5	85.4936	16,564.5	83.7108	16,564.5	85.4666	16,564.5	81.2864	16,564.5	83.2227	16,564.5	77.6896	16,564.5	80.7484	16,564.5	73.6824	16,564.5	77.6337	16,564.5	71.0662	16,564.5	73.9204	16,564.5	66.6513	16,564.5	70.3418	16,564.5	55.1832	16,564.5	59.9612	16,564.5	51.1289	16,564.5	49.6029	16,564.5	48.6209	16,564.5	51.974	16,564.5	48.5686	16,564.5	47.1519	16,564.5	42.962	16,564.5	50.7399	16,564.5	53.8284	16,564.5	43.881	16,564.5	53.062	16,564.5	52.5661	16,564.5	50.036	16,564.5	41.7391	16,564.5	53.3517
17,147.5	86.9474	17,147.5	86.7011	17,147.5	87.0929	17,147.5	85.9304	17,147.5	86.6432	17,147.5	85.6408	17,147.5	86.0758	17,147.5	84.0457	17,147.5	85.749	17,147.5	81.5925	17,147.5	83.1124	17,147.5	77.6908	17,147.5	80.3848	17,147.5	73.2989	17,147.5	76.8709	17,147.5	71.3745	17,147.5	72.7852	17,147.5	65.3118	17,147.5	68.7496	17,147.5	54.9851	17,147.5	59.0793	17,147.5	49.2688	17,147.5	47.9634	17,147.5	47.3155	17,147.5	53.3826	17,147.5	47.4838	17,147.5	47.8615	17,147.5	46.9834	17,147.5	48.1122	17,147.5	53.8037	17,147.5	49.7646	17,147.5	52.0322	17,147.5	49.8415	17,147.5	53.4376	17,147.5	48.2788	17,147.5	50.3478
17,753.9	87.4218	17,753.9	87.2681	17,753.9	87.5736	17,753.9	86.4089	17,753.9	86.9553	17,753.9	86.1853	17,753.9	86.3754	17,753.9	84.0501	17,753.9	85.4445	17,753.9	81.0581	17,753.9	82.4772	17,753.9	76.0888	17,753.9	78.9142	17,753.9	72.7903	17,753.9	75.0564	17,753.9	70.6198	17,753.9	69.792	17,753.9	61.9975	17,753.9	65.2282	17,753.9	54.7687	17,753.9	52.8484	17,753.9	49.8133	17,753.9	36.6476	17,753.9	45.3274	17,753.9	53.2704	17,753.9	44.7894	17,753.9	46.7948	17,753.9	49.56	17,753.9	49.9243	17,753.9	51.3709	17,753.9	50.9796	17,753.9	44.3922	17,753.9	41.852	17,753.9	54.4572	17,753.9	53.5135	17,753.9	46.4468
18,377.9	87.3699	18,377.9	86.954	18,377.9	87.5567	18,377.9	86.2842	18,377.9	86.8513	18,377.9	85.7085	18,377.9	86.0749	18,377.9	83.0764	18,377.9	84.7132	18,377.9	79.5533	18,377.9	81.2035	18,377.9	74.7827	18,377.9	77.6307	18,377.9	71.0354	18,377.9	72.6348	18,377.9	69.1956	18,377.9	66.2121	18,377.9	61.0953	18,377.9	64.518	18,377.9	54.4842	18,377.9	49.8964	18,377.9	49.4844	18,377.9	31.4576	18,377.9	44.8266	18,377.9	51.5891	18,377.9	49.0696	18,377.9	37.4387	18,377.9	49.9359	18,377.9	51.1925	18,377.9	51.1262	18,377.9	52.174	18,377.9	41.0548	18,377.9	41.0356	18,377.9	53.1152	18,377.9	53.8229	18,377.9	41.9893
19,028.3	87.3966	19,028.3	86.9044	19,028.3	87.6517	19,028.3	86.1105	19,028.3	87.0282	19,028.3	85.0166	19,028.3	85.9271	19,028.3	82.1171	19,028.3	84.0313	19,028.3	78.2463	19,028.3	80.0415	19,028.3	73.0789	19,028.3	75.3974	19,028.3	68.5641	19,028.3	69.286	19,028.3	67.051	19,028.3	60.9732	19,028.3	58.844	19,028.3	61.6319	19,028.3	52.7887	19,028.3	49.9543	19,028.3	47.4599	19,028.3	33.428	19,028.3	39.6738	19,028.3	52.6984	19,028.3	51.5715	19,028.3	39.1791	19,028.3	50.1757	19,028.3	48.1627	19,028.3	49.8161	19,028.3	54.2099	19,028.3	43.0839	19,028.3	43.0848	19,028.3	54.0944	19,028.3	55.4287	19,028.3	51.8605
19,699.2	87.5666	19,699.2	87.1805	19,699.2	87.8539	19,699.2	86.3149	19,699.2	87.2275	19,699.2	84.6959	19,699.2	85.876	19,699.2	81.0615	19,699.2	83.5195	19,699.2	76.0449	19,699.2	78.9625	19,699.2	67.8456	19,699.2	73.2578	19,699.2	63.5003	19,699.2	68.323	19,699.2	60.5797	19,699.2	64.4738	19,699.2	60.6725	19,699.2	61.9648	19,699.2	50.7985	19,699.2	52.5486	19,699.2	47.7353	19,699.2	37.9126	19,699.2	44.3582	19,699.2	51.0406	19,699.2	49.5377	19,699.2	43.4007	19,699.2	51.3993	19,699.2	47.8696	19,699.2	48.8802	19,699.2	53.6279	19,699.2	46.9493	19,699.2	44.947	19,699.2	55.0181	19,699.2	55.6074	19,699.2	53.884
19,998	87.3935	19,998	87.3664	19,998	87.7114	19,998	86.6467	19,998	87.0705	19,998	84.2811	19,998	85.6582	19,998	80.3348	19,998	83.1755	19,998	75.0485	19,998	78.786	19,998	66.1369	19,998	72.5816	19,998	61.9867	19,998	67.2037	19,998	63.5926	19,998	65.6171	19,998	62.7987	19,998	63.2015	19,998	56.4106	19,998	53.3123	19,998	40.7423	19,998	52.6497	19,998	48.9667	19,998	39.7248	19,998	49.7719	19,998	31.6735	19,998	50.6878	19,998	48.3373	19,998	47.9626	19,998	52.1087	19,998	48.3336	19,998	46.3644	19,998	52.1501	19,998	56.9341	19,998	52.7538
