"SPL Horizontal"																																																																							
"On-Axis"		"10°"		"-10°"		"20°"		"-20°"		"30°"		"-30°"		"40°"		"-40°"		"50°"		"-50°"		"60°"		"-60°"		"70°"		"-70°"		"80°"		"-80°"		"90°"		"-90°"		"100°"		"-100°"		"110°"		"-110°"		"120°"		"-120°"		"130°"		"-130°"		"140°"		"-140°"		"150°"		"-150°"		"160°"		"-160°"		"170°"		"-170°"		"180°"	
"Frequency [Hz]"	"Sound Pessure Level [dB]  / [2.83V 1m] "	"Frequency [Hz]"	"Sound Pessure Level [dB]  / [2.83V 1m] "	"Frequency [Hz]"	"Sound Pessure Level [dB]  / [2.83V 1m] "	"Frequency [Hz]"	"Sound Pessure Level [dB]  / [2.83V 1m] "	"Frequency [Hz]"	"Sound Pessure Level [dB]  / [2.83V 1m] "	"Frequency [Hz]"	"Sound Pessure Level [dB]  / [2.83V 1m] "	"Frequency [Hz]"	"Sound Pessure Level [dB]  / [2.83V 1m] "	"Frequency [Hz]"	"Sound Pessure Level [dB]  / [2.83V 1m] "	"Frequency [Hz]"	"Sound Pessure Level [dB]  / [2.83V 1m] "	"Frequency [Hz]"	"Sound Pessure Level [dB]  / [2.83V 1m] "	"Frequency [Hz]"	"Sound Pessure Level [dB]  / [2.83V 1m] "	"Frequency [Hz]"	"Sound Pessure Level [dB]  / [2.83V 1m] "	"Frequency [Hz]"	"Sound Pessure Level [dB]  / [2.83V 1m] "	"Frequency [Hz]"	"Sound Pessure Level [dB]  / [2.83V 1m] "	"Frequency [Hz]"	"Sound Pessure Level [dB]  / [2.83V 1m] "	"Frequency [Hz]"	"Sound Pessure Level [dB]  / [2.83V 1m] "	"Frequency [Hz]"	"Sound Pessure Level [dB]  / [2.83V 1m] "	"Frequency [Hz]"	"Sound Pessure Level [dB]  / [2.83V 1m] "	"Frequency [Hz]"	"Sound Pessure Level [dB]  / [2.83V 1m] "	"Frequency [Hz]"	"Sound Pessure Level [dB]  / [2.83V 1m] "	"Frequency [Hz]"	"Sound Pessure Level [dB]  / [2.83V 1m] "	"Frequency [Hz]"	"Sound Pessure Level [dB]  / [2.83V 1m] "	"Frequency [Hz]"	"Sound Pessure Level [dB]  / [2.83V 1m] "	"Frequency [Hz]"	"Sound Pessure Level [dB]  / [2.83V 1m] "	"Frequency [Hz]"	"Sound Pessure Level [dB]  / [2.83V 1m] "	"Frequency [Hz]"	"Sound Pessure Level [dB]  / [2.83V 1m] "	"Frequency [Hz]"	"Sound Pessure Level [dB]  / [2.83V 1m] "	"Frequency [Hz]"	"Sound Pessure Level [dB]  / [2.83V 1m] "	"Frequency [Hz]"	"Sound Pessure Level [dB]  / [2.83V 1m] "	"Frequency [Hz]"	"Sound Pessure Level [dB]  / [2.83V 1m] "	"Frequency [Hz]"	"Sound Pessure Level [dB]  / [2.83V 1m] "	"Frequency [Hz]"	"Sound Pessure Level [dB]  / [2.83V 1m] "	"Frequency [Hz]"	"Sound Pessure Level [dB]  / [2.83V 1m] "	"Frequency [Hz]"	"Sound Pessure Level [dB]  / [2.83V 1m] "	"Frequency [Hz]"	"Sound Pessure Level [dB]  / [2.83V 1m] "	"Frequency [Hz]"	"Sound Pessure Level [dB]  / [2.83V 1m] "
20.5078	50.8719	20.5078	50.8828	20.5078	50.8667	20.5078	50.8976	20.5078	50.8673	20.5078	50.9125	20.5078	50.8717	20.5078	50.9224	20.5078	50.8761	20.5078	50.9207	20.5078	50.8751	20.5078	50.9003	20.5078	50.8618	20.5078	50.854	20.5078	50.8291	20.5078	50.7757	20.5078	50.7698	20.5078	50.6608	20.5078	50.6779	20.5078	50.5081	20.5078	50.5499	20.5078	50.32	20.5078	50.3855	20.5078	50.1038	20.5078	50.1888	20.5078	49.8721	20.5078	49.9692	20.5078	49.6424	20.5078	49.7415	20.5078	49.4358	20.5078	49.5251	20.5078	49.2744	20.5078	49.3421	20.5078	49.177	20.5078	49.2136	20.5078	49.1559
21.9727	58.016	21.9727	58.0114	21.9727	58.0159	21.9727	58.0025	21.9727	58.0109	21.9727	57.9904	21.9727	58.0012	21.9727	57.9759	21.9727	57.9876	21.9727	57.9601	21.9727	57.9708	21.9727	57.9436	21.9727	57.9516	21.9727	57.9267	21.9727	57.9308	21.9727	57.9095	21.9727	57.9088	21.9727	57.892	21.9727	57.8859	21.9727	57.8741	21.9727	57.8624	21.9727	57.8557	21.9727	57.8387	21.9727	57.8372	21.9727	57.8155	21.9727	57.8186	21.9727	57.7937	21.9727	57.8004	21.9727	57.7747	21.9727	57.7833	21.9727	57.7598	21.9727	57.7681	21.9727	57.75	21.9727	57.7561	21.9727	57.7463	21.9727	57.7485
23.4375	60.4546	23.4375	60.4339	23.4375	60.4629	23.4375	60.4017	23.4375	60.4586	23.4375	60.3592	23.4375	60.4421	23.4375	60.3083	23.4375	60.4144	23.4375	60.2512	23.4375	60.3769	23.4375	60.19	23.4375	60.3313	23.4375	60.1269	23.4375	60.2792	23.4375	60.0641	23.4375	60.2225	23.4375	60.0035	23.4375	60.1629	23.4375	59.9465	23.4375	60.102	23.4375	59.8948	23.4375	60.0415	23.4375	59.8496	23.4375	59.9828	23.4375	59.8117	23.4375	59.9276	23.4375	59.7821	23.4375	59.8776	23.4375	59.7612	23.4375	59.8342	23.4375	59.7496	23.4375	59.7987	23.4375	59.7475	23.4375	59.7721	23.4375	59.755
24.9023	61.2089	24.9023	61.1936	24.9023	61.2103	24.9023	61.1651	24.9023	61.1978	24.9023	61.1244	24.9023	61.172	24.9023	61.0733	24.9023	61.1342	24.9023	61.0138	24.9023	61.0859	24.9023	60.9483	24.9023	61.0292	24.9023	60.8791	24.9023	60.9664	24.9023	60.8087	24.9023	60.8996	24.9023	60.7394	24.9023	60.8312	24.9023	60.6732	24.9023	60.7632	24.9023	60.6118	24.9023	60.6976	24.9023	60.5568	24.9023	60.636	24.9023	60.5096	24.9023	60.5799	24.9023	60.4711	24.9023	60.5304	24.9023	60.4422	24.9023	60.4886	24.9023	60.4236	24.9023	60.4555	24.9023	60.4157	24.9023	60.4319	24.9023	60.4185
26.3672	61.3908	26.3672	61.3817	26.3672	61.3897	26.3672	61.3629	26.3672	61.3785	26.3672	61.3346	26.3672	61.3572	26.3672	61.2977	26.3672	61.3261	26.3672	61.2529	26.3672	61.2857	26.3672	61.2012	26.3672	61.2368	26.3672	61.1437	26.3672	61.1803	26.3672	61.082	26.3672	61.1176	26.3672	61.0175	26.3672	61.0502	26.3672	60.9519	26.3672	60.9802	26.3672	60.8872	26.3672	60.9098	26.3672	60.8253	26.3672	60.8416	26.3672	60.7681	26.3672	60.7784	26.3672	60.7175	26.3672	60.7227	26.3672	60.6754	26.3672	60.677	26.3672	60.6435	26.3672	60.6433	26.3672	60.6233	26.3672	60.6228	26.3672	60.6162
27.832	62.082	27.832	62.0807	27.832	62.0827	27.832	62.0784	27.832	62.0826	27.832	62.0744	27.832	62.0812	27.832	62.0677	27.832	62.0774	27.832	62.0572	27.832	62.07	27.832	62.0421	27.832	62.0577	27.832	62.0218	27.832	62.0395	27.832	61.9961	27.832	62.0147	27.832	61.9653	27.832	61.9832	27.832	61.9305	27.832	61.946	27.832	61.8929	27.832	61.9044	27.832	61.8543	27.832	61.8609	27.832	61.8166	27.832	61.8181	27.832	61.7815	27.832	61.779	27.832	61.7511	27.832	61.7463	27.832	61.727	27.832	61.7222	27.832	61.711	27.832	61.708	27.832	61.7044
29.2969	64.1785	29.2969	64.1809	29.2969	64.1759	29.2969	64.1825	29.2969	64.1731	29.2969	64.1828	29.2969	64.1698	29.2969	64.1807	29.2969	64.1653	29.2969	64.1756	29.2969	64.1589	29.2969	64.1667	29.2969	64.1495	29.2969	64.1538	29.2969	64.1364	29.2969	64.137	29.2969	64.1194	29.2969	64.117	29.2969	64.0985	29.2969	64.0946	29.2969	64.0746	29.2969	64.0708	29.2969	64.0488	29.2969	64.047	29.2969	64.023	29.2969	64.024	29.2969	63.9988	29.2969	64.0029	29.2969	63.9782	29.2969	63.9843	29.2969	63.9624	29.2969	63.9688	29.2969	63.9523	29.2969	63.9572	29.2969	63.9483	29.2969	63.9501
30.7617	66.2575	30.7617	66.2492	30.7617	66.2578	30.7617	66.2329	30.7617	66.2499	30.7617	66.2088	30.7617	66.234	30.7617	66.1774	30.7617	66.2103	30.7617	66.1393	30.7617	66.1793	30.7617	66.0954	30.7617	66.1414	30.7617	66.0469	30.7617	66.0974	30.7617	65.9953	30.7617	66.0484	30.7617	65.9422	30.7617	65.9958	30.7617	65.8895	30.7617	65.9412	30.7617	65.8391	30.7617	65.8866	30.7617	65.7927	30.7617	65.8341	30.7617	65.7518	30.7617	65.7859	30.7617	65.7176	30.7617	65.7438	30.7617	65.6908	30.7617	65.7094	30.7617	65.672	30.7617	65.6837	30.7617	65.6615	30.7617	65.6671	30.7617	65.6598
32.2266	67.6058	32.2266	67.5928	32.2266	67.6062	32.2266	67.5676	32.2266	67.5939	32.2266	67.531	32.2266	67.5694	32.2266	67.484	32.2266	67.5334	32.2266	67.4279	32.2266	67.4868	32.2266	67.3645	32.2266	67.4312	32.2266	67.2955	32.2266	67.3682	32.2266	67.2231	32.2266	67.2997	32.2266	67.1495	32.2266	67.2278	32.2266	67.077	32.2266	67.1547	32.2266	67.0079	32.2266	67.0827	32.2266	66.9444	32.2266	67.0138	32.2266	66.8885	32.2266	66.9502	32.2266	66.842	32.2266	66.894	32.2266	66.8062	32.2266	66.8466	32.2266	66.7821	32.2266	66.8097	32.2266	66.7702	32.2266	66.7842	32.2266	66.7709
33.6914	68.3494	33.6914	68.3382	33.6914	68.3494	33.6914	68.316	33.6914	68.3381	33.6914	68.2836	33.6914	68.3156	33.6914	68.2421	33.6914	68.2828	33.6914	68.1926	33.6914	68.2404	33.6914	68.1366	33.6914	68.1899	33.6914	68.0759	33.6914	68.1328	33.6914	68.0122	33.6914	68.0708	33.6914	67.9475	33.6914	68.0061	33.6914	67.8839	33.6914	67.9407	33.6914	67.8233	33.6914	67.8767	33.6914	67.7678	33.6914	67.8162	33.6914	67.7188	33.6914	67.7611	33.6914	67.678	33.6914	67.7131	33.6914	67.6464	33.6914	67.6734	33.6914	67.6247	33.6914	67.643	33.6914	67.6134	33.6914	67.6227	33.6914	67.6127
35.1563	69.1542	35.1563	69.1473	35.1563	69.1533	35.1563	69.1328	35.1563	69.1447	35.1563	69.1109	35.1563	69.1284	35.1563	69.082	35.1563	69.1048	35.1563	69.0466	35.1563	69.0743	35.1563	69.0056	35.1563	69.0375	35.1563	68.96	35.1563	68.9953	35.1563	68.9111	35.1563	68.949	35.1563	68.8604	35.1563	68.8998	35.1563	68.8096	35.1563	68.8495	35.1563	68.7606	35.1563	68.7997	35.1563	68.7152	35.1563	68.7521	35.1563	68.675	35.1563	68.7084	35.1563	68.6415	35.1563	68.67	35.1563	68.6156	35.1563	68.638	35.1563	68.5979	35.1563	68.6134	35.1563	68.5889	35.1563	68.5968	35.1563	68.5886
36.6211	70.3521	36.6211	70.3474	36.6211	70.3508	36.6211	70.3364	36.6211	70.3433	36.6211	70.3193	36.6211	70.3296	36.6211	70.2959	36.6211	70.3098	36.6211	70.2666	36.6211	70.2838	36.6211	70.2316	36.6211	70.2518	36.6211	70.1917	36.6211	70.2143	36.6211	70.1478	36.6211	70.172	36.6211	70.1012	36.6211	70.126	36.6211	70.0537	36.6211	70.0779	36.6211	70.0068	36.6211	70.0293	36.6211	69.9624	36.6211	69.9824	36.6211	69.9222	36.6211	69.939	36.6211	69.8877	36.6211	69.901	36.6211	69.8601	36.6211	69.8698	36.6211	69.8401	36.6211	69.8464	36.6211	69.8285	36.6211	69.8316	36.6211	69.8256
38.0859	71.748	38.0859	71.7418	38.0859	71.7488	38.0859	71.7299	38.0859	71.7439	38.0859	71.7124	38.0859	71.7336	38.0859	71.6894	38.0859	71.7176	38.0859	71.661	38.0859	71.6961	38.0859	71.6278	38.0859	71.6691	38.0859	71.5904	38.0859	71.637	38.0859	71.5499	38.0859	71.6005	38.0859	71.5075	38.0859	71.5603	38.0859	71.4646	38.0859	71.5177	38.0859	71.4227	38.0859	71.4742	38.0859	71.3834	38.0859	71.4314	38.0859	71.3481	38.0859	71.3908	38.0859	71.3183	38.0859	71.3541	38.0859	71.2951	38.0859	71.3229	38.0859	71.2792	38.0859	71.2982	38.0859	71.2714	38.0859	71.2811	38.0859	71.272
39.5508	72.8877	39.5508	72.8784	39.5508	72.8887	39.5508	72.8607	39.5508	72.8812	39.5508	72.835	39.5508	72.8657	39.5508	72.8021	39.5508	72.8424	39.5508	72.7627	39.5508	72.8119	39.5508	72.7182	39.5508	72.7751	39.5508	72.67	39.5508	72.7328	39.5508	72.6196	39.5508	72.6862	39.5508	72.569	39.5508	72.6366	39.5508	72.5198	39.5508	72.5856	39.5508	72.4737	39.5508	72.535	39.5508	72.4319	39.5508	72.4866	39.5508	72.3957	39.5508	72.4421	39.5508	72.3658	39.5508	72.403	39.5508	72.3429	39.5508	72.3707	39.5508	72.3274	39.5508	72.3458	39.5508	72.3198	39.5508	72.3289	39.5508	72.3202
41.0156	74.1105	41.0156	74.1015	41.0156	74.1075	41.0156	74.081	41.0156	74.0929	41.0156	74.0496	41.0156	74.0669	41.0156	74.0081	41.0156	74.0304	41.0156	73.9578	41.0156	73.9844	41.0156	73.9004	41.0156	73.9303	41.0156	73.8377	41.0156	73.8698	41.0156	73.7716	41.0156	73.8047	41.0156	73.7045	41.0156	73.7372	41.0156	73.6384	41.0156	73.6692	41.0156	73.5756	41.0156	73.6031	41.0156	73.5178	41.0156	73.541	41.0156	73.4668	41.0156	73.485	41.0156	73.4236	41.0156	73.4368	41.0156	73.3893	41.0156	73.3981	41.0156	73.3645	41.0156	73.3696	41.0156	73.3497	41.0156	73.352	41.0156	73.3455
42.4805	74.9198	42.4805	74.9084	42.4805	74.9185	42.4805	74.8848	42.4805	74.9047	42.4805	74.8496	42.4805	74.8788	42.4805	74.8039	42.4805	74.8416	42.4805	74.7489	42.4805	74.7943	42.4805	74.6863	42.4805	74.7383	42.4805	74.6181	42.4805	74.6753	42.4805	74.5462	42.4805	74.6073	42.4805	74.473	42.4805	74.5363	42.4805	74.4008	42.4805	74.4646	42.4805	74.3321	42.4805	74.3944	42.4805	74.269	42.4805	74.3278	42.4805	74.2137	42.4805	74.2667	42.4805	74.1678	42.4805	74.2129	42.4805	74.1326	42.4805	74.1681	42.4805	74.1089	42.4805	74.1333	42.4805	74.0971	42.4805	74.1096	42.4805	74.0974
43.9453	75.8354	43.9453	75.826	43.9453	75.8332	43.9453	75.8054	43.9453	75.8194	43.9453	75.7741	43.9453	75.7947	43.9453	75.7331	43.9453	75.7598	43.9453	75.6837	43.9453	75.7158	43.9453	75.6274	43.9453	75.6643	43.9453	75.5661	43.9453	75.607	43.9453	75.5016	43.9453	75.5457	43.9453	75.4361	43.9453	75.4824	43.9453	75.3718	43.9453	75.4192	43.9453	75.3109	43.9453	75.3581	43.9453	75.2555	43.9453	75.3008	43.9453	75.2073	43.9453	75.249	43.9453	75.1678	43.9453	75.204	43.9453	75.1378	43.9453	75.1669	43.9453	75.1179	43.9453	75.1383	43.9453	75.1082	43.9453	75.1187	43.9453	75.1086
45.4102	76.63	45.4102	76.6225	45.4102	76.6262	45.4102	76.604	45.4102	76.6112	45.4102	76.5751	45.4102	76.5854	45.4102	76.5367	45.4102	76.5497	45.4102	76.4899	45.4102	76.5053	45.4102	76.4364	45.4102	76.4536	45.4102	76.3778	45.4102	76.3964	45.4102	76.3161	45.4102	76.3357	45.4102	76.2534	45.4102	76.2736	45.4102	76.1918	45.4102	76.2121	45.4102	76.1334	45.4102	76.1534	45.4102	76.0801	45.4102	76.0991	45.4102	76.0335	45.4102	76.0508	45.4102	75.9948	45.4102	76.0098	45.4102	75.9648	45.4102	75.9768	45.4102	75.944	45.4102	75.9523	45.4102	75.9324	45.4102	75.9367	45.4102	75.93
46.875	77.4848	46.875	77.479	46.875	77.4797	46.875	77.4627	46.875	77.4639	46.875	77.4364	46.875	77.4377	46.875	77.4008	46.875	77.4019	46.875	77.3571	46.875	77.3575	46.875	77.3066	46.875	77.306	46.875	77.251	46.875	77.249	46.875	77.1921	46.875	77.1884	46.875	77.1318	46.875	77.1264	46.875	77.0721	46.875	77.0652	46.875	77.0151	46.875	77.0069	46.875	76.9624	46.875	76.9534	46.875	76.9157	46.875	76.9065	46.875	76.8761	46.875	76.8673	46.875	76.8443	46.875	76.8368	46.875	76.8208	46.875	76.8154	46.875	76.8061	46.875	76.8031	46.875	76.8001
48.3398	78.3376	48.3398	78.3315	48.3398	78.3324	48.3398	78.3144	48.3398	78.3161	48.3398	78.2868	48.3398	78.2889	48.3398	78.2496	48.3398	78.2516	48.3398	78.2037	48.3398	78.2051	48.3398	78.1505	48.3398	78.1507	48.3398	78.0916	48.3398	78.0901	48.3398	78.0289	48.3398	78.0251	48.3398	77.9643	48.3398	77.9581	48.3398	77.9	48.3398	77.8912	48.3398	77.8378	48.3398	77.8269	48.3398	77.7798	48.3398	77.7673	48.3398	77.7276	48.3398	77.7145	48.3398	77.6827	48.3398	77.67	48.3398	77.6461	48.3398	77.6351	48.3398	77.6187	48.3398	77.6106	48.3398	77.601	48.3398	77.5967	48.3398	77.5936
51.2695	80.0014	51.2695	79.9929	51.2695	79.9982	51.2695	79.973	51.2695	79.9833	51.2695	79.9424	51.2695	79.9572	51.2695	79.902	51.2695	79.9206	51.2695	79.8531	51.2695	79.8747	51.2695	79.7974	51.2695	79.8207	51.2695	79.7366	51.2695	79.7606	51.2695	79.6729	51.2695	79.6963	51.2695	79.6084	51.2695	79.6299	51.2695	79.5452	51.2695	79.5639	51.2695	79.4853	51.2695	79.5006	51.2695	79.4305	51.2695	79.4421	51.2695	79.3822	51.2695	79.3903	51.2695	79.3416	51.2695	79.3467	51.2695	79.3094	51.2695	79.3122	51.2695	79.2862	51.2695	79.2875	51.2695	79.2722	51.2695	79.2726	51.2695	79.2676
52.7344	80.8064	52.7344	80.7975	52.7344	80.803	52.7344	80.7766	52.7344	80.7874	52.7344	80.7445	52.7344	80.7601	52.7344	80.7021	52.7344	80.7219	52.7344	80.6509	52.7344	80.674	52.7344	80.5927	52.7344	80.618	52.7344	80.5294	52.7344	80.5559	52.7344	80.4632	52.7344	80.4896	52.7344	80.3963	52.7344	80.4215	52.7344	80.3311	52.7344	80.354	52.7344	80.2695	52.7344	80.2895	52.7344	80.2135	52.7344	80.23	52.7344	80.1645	52.7344	80.1774	52.7344	80.1235	52.7344	80.133	52.7344	80.0914	52.7344	80.0979	52.7344	80.0685	52.7344	80.0725	52.7344	80.0551	52.7344	80.0569	52.7344	80.0512
54.1992	81.5072	54.1992	81.498	54.1992	81.5044	54.1992	81.477	54.1992	81.4896	54.1992	81.4452	54.1992	81.4633	54.1992	81.4035	54.1992	81.4265	54.1992	81.3536	54.1992	81.3803	54.1992	81.2973	54.1992	81.3265	54.1992	81.2366	54.1992	81.2669	54.1992	81.1738	54.1992	81.2038	54.1992	81.1111	54.1992	81.1394	54.1992	81.0508	54.1992	81.0761	54.1992	80.9949	54.1992	81.0162	54.1992	80.9447	54.1992	80.9617	54.1992	80.9016	54.1992	80.9141	54.1992	80.8662	54.1992	80.8747	54.1992	80.8389	54.1992	80.844	54.1992	80.8195	54.1992	80.8223	54.1992	80.8081	54.1992	80.8092	54.1992	80.8046
55.6641	82.14	55.6641	82.1301	55.6641	82.1376	55.6641	82.1081	55.6641	82.1229	55.6641	82.075	55.6641	82.0964	55.6641	82.032	55.6641	82.059	55.6641	81.9807	55.6641	82.012	55.6641	81.9231	55.6641	81.9571	55.6641	81.8613	55.6641	81.8965	55.6641	81.7978	55.6641	81.8324	55.6641	81.7348	55.6641	81.7672	55.6641	81.6747	55.6641	81.7034	55.6641	81.6193	55.6641	81.6433	55.6641	81.5702	55.6641	81.5891	55.6641	81.5284	55.6641	81.5422	55.6641	81.4944	55.6641	81.5037	55.6641	81.4684	55.6641	81.474	55.6641	81.4502	55.6641	81.4531	55.6641	81.4395	55.6641	81.4407	55.6641	81.4363
58.5938	83.3075	58.5938	83.296	58.5938	83.3059	58.5938	83.2718	58.5938	83.2911	58.5938	83.2359	58.5938	83.2638	58.5938	83.1896	58.5938	83.2248	58.5938	83.1349	58.5938	83.1758	58.5938	83.0738	58.5938	83.1186	58.5938	83.009	58.5938	83.0555	58.5938	82.9428	58.5938	82.989	58.5938	82.878	58.5938	82.9218	58.5938	82.8169	58.5938	82.8566	58.5938	82.7615	58.5938	82.7958	58.5938	82.7132	58.5938	82.7414	58.5938	82.673	58.5938	82.6949	58.5938	82.6412	58.5938	82.6571	58.5938	82.6175	58.5938	82.6283	58.5938	82.6015	58.5938	82.6079	58.5938	82.5926	58.5938	82.5956	58.5938	82.5906
60.0586	83.7896	60.0586	83.7774	60.0586	83.7885	60.0586	83.7522	60.0586	83.7739	60.0586	83.7152	60.0586	83.7464	60.0586	83.6678	60.0586	83.707	60.0586	83.612	60.0586	83.6572	60.0586	83.5499	60.0586	83.599	60.0586	83.4841	60.0586	83.5346	60.0586	83.4172	60.0586	83.4668	60.0586	83.3516	60.0586	83.3982	60.0586	83.2899	60.0586	83.3316	60.0586	83.234	60.0586	83.2694	60.0586	83.1852	60.0586	83.2138	60.0586	83.1445	60.0586	83.1663	60.0586	83.1121	60.0586	83.1276	60.0586	83.0879	60.0586	83.0981	60.0586	83.0713	60.0586	83.0773	60.0586	83.0621	60.0586	83.0648	60.0586	83.0599
62.9883	84.6932	62.9883	84.6805	62.9883	84.6925	62.9883	84.6548	62.9883	84.6782	62.9883	84.6171	62.9883	84.6509	62.9883	84.5689	62.9883	84.6116	62.9883	84.5121	62.9883	84.562	62.9883	84.4491	62.9883	84.5038	62.9883	84.3824	62.9883	84.4396	62.9883	84.3147	62.9883	84.3718	62.9883	84.2486	62.9883	84.3033	62.9883	84.1867	62.9883	84.2367	62.9883	84.1309	62.9883	84.1745	62.9883	84.0826	62.9883	84.1188	62.9883	84.0426	62.9883	84.0711	62.9883	84.0111	62.9883	84.0322	62.9883	83.9878	62.9883	84.0022	62.9883	83.9722	62.9883	83.981	62.9883	83.9638	62.9883	83.9679	62.9883	83.9623
64.4531	85.141	64.4531	85.1284	64.4531	85.1401	64.4531	85.1028	64.4531	85.1256	64.4531	85.0652	64.4531	85.0982	64.4531	85.0171	64.4531	85.0589	64.4531	84.9606	64.4531	85.0093	64.4531	84.8981	64.4531	84.9514	64.4531	84.8321	64.4531	84.8877	64.4531	84.7655	64.4531	84.8209	64.4531	84.7011	64.4531	84.7538	64.4531	84.6411	64.4531	84.6891	64.4531	84.5877	64.4531	84.6294	64.4531	84.5422	64.4531	84.5765	64.4531	84.5051	64.4531	84.5319	64.4531	84.4766	64.4531	84.4961	64.4531	84.4559	64.4531	84.4691	64.4531	84.4423	64.4531	84.4503	64.4531	84.4352	64.4531	84.4389	64.4531	84.434
67.3828	85.8849	67.3828	85.8709	67.3828	85.8847	67.3828	85.8432	67.3828	85.8702	67.3828	85.803	67.3828	85.8421	67.3828	85.7522	67.3828	85.8014	67.3828	85.6928	67.3828	85.7499	67.3828	85.6276	67.3828	85.6899	67.3828	85.5597	67.3828	85.624	67.3828	85.4919	67.3828	85.5551	67.3828	85.4274	67.3828	85.4865	67.3828	85.3687	67.3828	85.4212	67.3828	85.3177	67.3828	85.3617	67.3828	85.2756	67.3828	85.3102	67.3828	85.2426	67.3828	85.268	67.3828	85.2183	67.3828	85.2354	67.3828	85.2015	67.3828	85.2119	67.3828	85.1908	67.3828	85.1965	67.3828	85.1853	67.3828	85.1876	67.3828	85.1842
68.8477	86.156	68.8477	86.14	68.8477	86.1569	68.8477	86.1097	68.8477	86.1428	68.8477	86.0664	68.8477	86.1142	68.8477	86.0118	68.8477	86.0723	68.8477	85.9484	68.8477	86.019	68.8477	85.8791	68.8477	85.9565	68.8477	85.8072	68.8477	85.8877	68.8477	85.736	68.8477	85.8156	68.8477	85.6687	68.8477	85.7437	68.8477	85.608	68.8477	85.6751	68.8477	85.5559	68.8477	85.6127	68.8477	85.5136	68.8477	85.5588	68.8477	85.4811	68.8477	85.5146	68.8477	85.4577	68.8477	85.4806	68.8477	85.4421	68.8477	85.4562	68.8477	85.4325	68.8477	85.4403	68.8477	85.4278	68.8477	85.4311	68.8477	85.4273
71.7773	86.5897	71.7773	86.5689	71.7773	86.594	71.7773	86.5322	71.7773	86.5817	71.7773	86.4809	71.7773	86.5535	71.7773	86.4171	71.7773	86.5106	71.7773	86.3435	71.7773	86.455	71.7773	86.2632	71.7773	86.3889	71.7773	86.18	71.7773	86.3154	71.7773	86.0978	71.7773	86.2377	71.7773	86.0204	71.7773	86.1591	71.7773	85.9509	71.7773	86.0832	71.7773	85.892	71.7773	86.0128	71.7773	85.8449	71.7773	85.9504	71.7773	85.8098	71.7773	85.8975	71.7773	85.7859	71.7773	85.8548	71.7773	85.7716	71.7773	85.8218	71.7773	85.7651	71.7773	85.7975	71.7773	85.7649	71.7773	85.7807	71.7773	85.7701
74.707	87.0538	74.707	87.03	74.707	87.0606	74.707	86.9897	74.707	87.0507	74.707	86.9341	74.707	87.0248	74.707	86.865	74.707	86.9844	74.707	86.785	74.707	86.9314	74.707	86.6973	74.707	86.8683	74.707	86.6058	74.707	86.7978	74.707	86.5147	74.707	86.7229	74.707	86.4283	74.707	86.6468	74.707	86.3505	74.707	86.5723	74.707	86.2847	74.707	86.5018	74.707	86.2331	74.707	86.4374	74.707	86.1966	74.707	86.3801	74.707	86.1748	74.707	86.3304	74.707	86.1661	74.707	86.288	74.707	86.1686	74.707	86.2522	74.707	86.1799	74.707	86.2224	74.707	86.1982
77.6367	87.3401	77.6367	87.3283	77.6367	87.3358	77.6367	87.3008	77.6367	87.3159	77.6367	87.2587	77.6367	87.2815	77.6367	87.2035	77.6367	87.2343	77.6367	87.1378	77.6367	87.1767	77.6367	87.0646	77.6367	87.1116	77.6367	86.9874	77.6367	87.0423	77.6367	86.91	77.6367	86.9723	77.6367	86.8365	77.6367	86.905	77.6367	86.7705	77.6367	86.8433	77.6367	86.7147	77.6367	86.7895	77.6367	86.6712	77.6367	86.7449	77.6367	86.6406	77.6367	86.7096	77.6367	86.622	77.6367	86.6828	77.6367	86.6138	77.6367	86.6628	77.6367	86.6133	77.6367	86.6478	77.6367	86.618	77.6367	86.6358	77.6367	86.6259
79.1016	87.4446	79.1016	87.437	79.1016	87.4356	79.1016	87.4132	79.1016	87.4105	79.1016	87.3744	79.1016	87.3703	79.1016	87.3224	79.1016	87.3169	79.1016	87.2597	79.1016	87.253	79.1016	87.1895	79.1016	87.1818	79.1016	87.1154	79.1016	87.1069	79.1016	87.0413	79.1016	87.0323	79.1016	86.971	79.1016	86.962	79.1016	86.9079	79.1016	86.8992	79.1016	86.8545	79.1016	86.8467	79.1016	86.8125	79.1016	86.8059	79.1016	86.7819	79.1016	86.7767	79.1016	86.7618	79.1016	86.7579	79.1016	86.7502	79.1016	86.7475	79.1016	86.7443	79.1016	86.7427	79.1016	86.7419	79.1016	86.7412	79.1016	86.7411
82.0313	87.6495	82.0313	87.6402	82.0313	87.6395	82.0313	87.6121	82.0313	87.6103	82.0313	87.5667	82.0313	87.563	82.0313	87.5061	82.0313	87.4994	82.0313	87.4333	82.0313	87.4222	82.0313	87.3518	82.0313	87.3349	82.0313	87.2656	82.0313	87.2419	82.0313	87.179	82.0313	87.1478	82.0313	87.0964	82.0313	87.0576	82.0313	87.0213	82.0313	86.9759	82.0313	86.9569	82.0313	86.9065	82.0313	86.9045	82.0313	86.8519	82.0313	86.8645	82.0313	86.8129	82.0313	86.8356	82.0313	86.7885	82.0313	86.8154	82.0313	86.7765	82.0313	86.8014	82.0313	86.7736	82.0313	86.7911	82.0313	86.7766	82.0313	86.7828
84.9609	87.7058	84.9609	87.6945	84.9609	87.6977	84.9609	87.6648	84.9609	87.6703	84.9609	87.6181	84.9609	87.6239	84.9609	87.5564	84.9609	87.5598	84.9609	87.4823	84.9609	87.48	84.9609	87.3988	84.9609	87.3874	84.9609	87.3094	84.9609	87.2856	84.9609	87.2177	84.9609	87.1789	84.9609	87.1274	84.9609	87.0721	84.9609	87.0417	84.9609	86.9705	84.9609	86.9634	84.9609	86.8787	84.9609	86.8943	84.9609	86.8008	84.9609	86.8352	84.9609	86.7393	84.9609	86.7859	84.9609	86.6955	84.9609	86.7455	84.9609	86.6688	84.9609	86.7129	84.9609	86.6571	84.9609	86.6873	84.9609	86.6579	84.9609	86.6687
87.8906	87.7729	87.8906	87.7481	87.8906	87.7819	87.8906	87.7087	87.8906	87.7748	87.8906	87.6565	87.8906	87.752	87.8906	87.594	87.8906	87.7145	87.8906	87.5241	87.8906	87.664	87.8906	87.4503	87.8906	87.6028	87.8906	87.3763	87.8906	87.5339	87.8906	87.3054	87.8906	87.4604	87.8906	87.2407	87.8906	87.386	87.8906	87.1846	87.8906	87.314	87.8906	87.1384	87.8906	87.2478	87.8906	87.1025	87.8906	87.1899	87.8906	87.0762	87.8906	87.142	87.8906	87.0585	87.8906	87.1048	87.8906	87.0475	87.8906	87.0776	87.8906	87.0418	87.8906	87.0593	87.8906	87.0401	87.8906	87.048	87.8906	87.042
90.8203	87.3454	90.8203	87.3054	90.8203	87.3717	90.8203	87.2527	90.8203	87.3847	90.8203	87.19	90.8203	87.3857	90.8203	87.1209	90.8203	87.3771	90.8203	87.0505	90.8203	87.3621	90.8203	86.9846	90.8203	87.344	90.8203	86.9295	90.8203	87.3265	90.8203	86.8911	90.8203	87.3128	90.8203	86.8738	90.8203	87.3053	90.8203	86.8799	90.8203	87.3051	90.8203	86.9093	90.8203	87.3122	90.8203	86.9588	90.8203	87.3249	90.8203	87.023	90.8203	87.3406	90.8203	87.095	90.8203	87.3556	90.8203	87.1676	90.8203	87.3658	90.8203	87.2342	90.8203	87.3671	90.8203	87.2896	90.8203	87.3562	90.8203	87.3306
95.2148	88.2309	95.2148	88.2217	95.2148	88.2146	95.2148	88.1876	95.2148	88.173	95.2148	88.1299	95.2148	88.1074	95.2148	88.0508	95.2148	88.0196	95.2148	87.9531	95.2148	87.9128	95.2148	87.8406	95.2148	87.7907	95.2148	87.7179	95.2148	87.6584	95.2148	87.5902	95.2148	87.5216	95.2148	87.4628	95.2148	87.3867	95.2148	87.3415	95.2148	87.2602	95.2148	87.2311	95.2148	87.1477	95.2148	87.1355	95.2148	87.0539	95.2148	87.0568	95.2148	86.9811	95.2148	86.9953	95.2148	86.9294	95.2148	86.9496	95.2148	86.897	95.2148	86.9171	95.2148	86.8805	95.2148	86.8951	95.2148	86.8763	95.2148	86.8816
98.1445	87.7321	98.1445	87.7147	98.1445	87.7276	98.1445	87.6763	98.1445	87.7013	98.1445	87.6191	98.1445	87.6544	98.1445	87.5464	98.1445	87.5895	98.1445	87.4626	98.1445	87.51	98.1445	87.3727	98.1445	87.4205	98.1445	87.2823	98.1445	87.3263	98.1445	87.1973	98.1445	87.2331	98.1445	87.1225	98.1445	87.1467	98.1445	87.062	98.1445	87.072	98.1445	87.0178	98.1445	87.0129	98.1445	86.9898	98.1445	86.9715	98.1445	86.976	98.1445	86.9476	98.1445	86.9723	98.1445	86.939	98.1445	86.9742	98.1445	86.9418	98.1445	86.9768	98.1445	86.9513	98.1445	86.9766	98.1445	86.9626	98.1445	86.9718
101.074	87.6195	101.074	87.5947	101.074	87.6184	101.074	87.5448	101.074	87.592	101.074	87.4719	101.074	87.5419	101.074	87.3793	101.074	87.4709	101.074	87.2718	101.074	87.3829	101.074	87.155	101.074	87.2829	101.074	87.0356	101.074	87.1766	101.074	86.9208	101.074	87.0701	101.074	86.8174	101.074	86.9693	101.074	86.7312	101.074	86.8795	101.074	86.666	101.074	86.8048	101.074	86.6231	101.074	86.7472	101.074	86.601	101.074	86.7066	101.074	86.5959	101.074	86.6807	101.074	86.6025	101.074	86.6656	101.074	86.6151	101.074	86.6567	101.074	86.6288	101.074	86.6494	101.074	86.6406
105.469	87.9468	105.469	87.9377	105.469	87.9304	105.469	87.904	105.469	87.8892	105.469	87.8476	105.469	87.8249	105.469	87.7715	105.469	87.7406	105.469	87.68	105.469	87.6406	105.469	87.5784	105.469	87.5309	105.469	87.4728	105.469	87.4181	105.469	87.3697	105.469	87.3097	105.469	87.2758	105.469	87.213	105.469	87.1968	105.469	87.1343	105.469	87.1367	105.469	87.0776	105.469	87.097	105.469	87.0443	105.469	87.0768	105.469	87.0325	105.469	87.0723	105.469	87.0376	105.469	87.0779	105.469	87.0529	105.469	87.0872	105.469	87.0712	105.469	87.0942	105.469	87.0865	105.469	87.0946
108.398	87.6174	108.398	87.606	108.398	87.6017	108.398	87.5688	108.398	87.559	108.398	87.5086	108.398	87.4907	108.398	87.4291	108.398	87.3997	108.398	87.3354	108.398	87.2906	108.398	87.2336	108.398	87.1693	108.398	87.1304	108.398	87.0432	108.398	87.0324	108.398	86.9207	108.398	86.946	108.398	86.8104	108.398	86.876	108.398	86.7201	108.398	86.825	108.398	86.6555	108.398	86.7933	108.398	86.6195	108.398	86.7781	108.398	86.6109	108.398	86.7746	108.398	86.6249	108.398	86.7762	108.398	86.6543	108.398	86.7764	108.398	86.6904	108.398	86.7697	108.398	86.7252	108.398	86.7527
112.793	88.1334	112.793	88.1008	112.793	88.1346	112.793	88.0387	112.793	88.1041	112.793	87.9505	112.793	88.043	112.793	87.8412	112.793	87.954	112.793	87.7171	112.793	87.8415	112.793	87.5861	112.793	87.7115	112.793	87.4568	112.793	87.5716	112.793	87.3378	112.793	87.4305	112.793	87.2369	112.793	87.2977	112.793	87.1597	112.793	87.1822	112.793	87.1087	112.793	87.0914	112.793	87.0825	112.793	87.0298	112.793	87.0763	112.793	86.9981	112.793	87.0829	112.793	86.9931	112.793	87.0938	112.793	87.0082	112.793	87.1012	112.793	87.0345	112.793	87.0996	112.793	87.0631	112.793	87.0865
117.188	87.9136	117.188	87.8563	117.188	87.9373	117.188	87.767	117.188	87.9277	117.188	87.6486	117.188	87.8862	117.188	87.5058	117.188	87.8158	117.188	87.3452	117.188	87.7208	117.188	87.1754	117.188	87.6069	117.188	87.0065	117.188	87.4811	117.188	86.8497	117.188	87.3513	117.188	86.7157	117.188	87.2255	117.188	86.6137	117.188	87.1113	117.188	86.5488	117.188	87.0144	117.188	86.5216	117.188	86.9382	117.188	86.5277	117.188	86.8825	117.188	86.5588	117.188	86.8443	117.188	86.6046	117.188	86.8177	117.188	86.6553	117.188	86.796	117.188	86.7026	117.188	86.7724	117.188	86.7421
120.117	88.242	120.117	88.2027	120.117	88.2497	120.117	88.132	120.117	88.2268	120.117	88.0318	120.117	88.1754	120.117	87.9052	120.117	88.099	120.117	87.7573	120.117	88.0024	120.117	87.5952	120.117	87.8919	120.117	87.4279	120.117	87.7747	120.117	87.2663	120.117	87.6591	120.117	87.1222	120.117	87.5531	120.117	87.0068	120.117	87.4637	120.117	86.9287	120.117	87.3952	120.117	86.8923	120.117	87.3485	120.117	86.8964	120.117	87.3206	120.117	86.9344	120.117	87.3048	120.117	86.9957	120.117	87.2926	120.117	87.0677	120.117	87.2752	120.117	87.1388	120.117	87.2455	120.117	87.1998
124.512	87.817	124.512	87.8082	124.512	87.7926	124.512	87.7671	124.512	87.7361	124.512	87.6955	124.512	87.6496	124.512	87.5971	124.512	87.537	124.512	87.4769	124.512	87.4037	124.512	87.3417	124.512	87.2571	124.512	87.1994	124.512	87.1058	124.512	87.0593	124.512	86.9597	124.512	86.9309	124.512	86.8291	124.512	86.8227	124.512	86.723	124.512	86.7412	124.512	86.6482	124.512	86.6896	124.512	86.6071	124.512	86.6663	124.512	86.5975	124.512	86.6661	124.512	86.6124	124.512	86.6802	124.512	86.6417	124.512	86.6986	124.512	86.6742	124.512	86.712	124.512	86.7002	124.512	86.7134
128.906	87.8194	128.906	87.8013	128.906	87.8024	128.906	87.7495	128.906	87.75	128.906	87.6669	128.906	87.6633	128.906	87.5575	128.906	87.5451	128.906	87.4268	128.906	87.4	128.906	87.2816	128.906	87.2345	128.906	87.1298	128.906	87.0572	128.906	86.9801	128.906	86.8786	128.906	86.8414	128.906	86.7101	128.906	86.7214	128.906	86.5632	128.906	86.6258	128.906	86.4474	128.906	86.5565	128.906	86.3684	128.906	86.5119	128.906	86.3269	128.906	86.4865	128.906	86.3184	128.906	86.4728	128.906	86.3343	128.906	86.4624	128.906	86.364	128.906	86.4486	128.906	86.3975	128.906	86.427
133.301	87.828	133.301	87.8026	133.301	87.8195	133.301	87.7448	133.301	87.777	133.301	87.6579	133.301	87.7019	133.301	87.5463	133.301	87.5971	133.301	87.4163	133.301	87.4673	133.301	87.2754	133.301	87.319	133.301	87.1325	133.301	87.1606	133.301	86.997	133.301	87.002	133.301	86.8776	133.301	86.854	133.301	86.7817	133.301	86.7271	133.301	86.7135	133.301	86.6299	133.301	86.6731	133.301	86.5672	133.301	86.6567	133.301	86.5392	133.301	86.657	133.301	86.5408	133.301	86.665	133.301	86.5635	133.301	86.6716	133.301	86.5967	133.301	86.6699	133.301	86.6301	133.301	86.656
139.16	87.6092	139.16	87.5768	139.16	87.6043	139.16	87.5086	139.16	87.5621	139.16	87.4083	139.16	87.4848	139.16	87.2815	139.16	87.3765	139.16	87.1363	139.16	87.2432	139.16	86.9823	139.16	87.0929	139.16	86.8312	139.16	86.9356	139.16	86.6951	139.16	86.7831	139.16	86.5852	139.16	86.6474	139.16	86.5099	139.16	86.5398	139.16	86.473	139.16	86.4687	139.16	86.4726	139.16	86.4374	139.16	86.5011	139.16	86.4435	139.16	86.5468	139.16	86.4787	139.16	86.5963	139.16	86.5307	139.16	86.637	139.16	86.5858	139.16	86.6591	139.16	86.6312	139.16	86.6573
143.555	87.6026	143.555	87.5648	143.555	87.5989	143.555	87.487	143.555	87.5538	143.555	87.3729	143.555	87.4695	143.555	87.2285	143.555	87.3502	143.555	87.062	143.555	87.202	143.555	86.8839	143.555	87.0336	143.555	86.707	143.555	86.8558	143.555	86.5452	143.555	86.6812	143.555	86.4118	143.555	86.5236	143.555	86.3176	143.555	86.3956	143.555	86.2681	143.555	86.3073	143.555	86.2619	143.555	86.2632	143.555	86.291	143.555	86.2614	143.555	86.3418	143.555	86.2933	143.555	86.3986	143.555	86.3453	143.555	86.4464	143.555	86.402	143.555	86.4739	143.555	86.4489	143.555	86.4748
147.949	87.5648	147.949	87.5233	147.949	87.5616	147.949	87.4387	147.949	87.5142	147.949	87.3146	147.949	87.4251	147.949	87.1569	147.949	87.2987	147.949	86.9739	147.949	87.1419	147.949	86.7769	147.949	86.9639	147.949	86.5794	147.949	86.7764	147.949	86.397	147.949	86.5931	147.949	86.2448	147.949	86.4284	147.949	86.1356	147.949	86.2956	147.949	86.0765	147.949	86.2047	147.949	86.0672	147.949	86.1594	147.949	86.0992	147.949	86.1569	147.949	86.1579	147.949	86.1871	147.949	86.2261	147.949	86.2358	147.949	86.287	147.949	86.2868	147.949	86.3277	147.949	86.3255	147.949	86.3409
153.809	87.6249	153.809	87.591	153.809	87.6099	153.809	87.5098	153.809	87.5465	153.809	87.3843	153.809	87.4367	153.809	87.22	153.809	87.2847	153.809	87.0245	153.809	87.0971	153.809	86.8083	153.809	86.8834	153.809	86.5847	153.809	86.6565	153.809	86.3697	153.809	86.4324	153.809	86.1802	153.809	86.2288	153.809	86.0317	153.809	86.0632	153.809	85.9352	153.809	85.9489	153.809	85.8937	153.809	85.8917	153.809	85.9014	153.809	85.8878	153.809	85.9443	153.809	85.9245	153.809	86.0038	153.809	85.9833	153.809	86.061	153.809	86.0444	153.809	86.1001	153.809	86.0909	153.809	86.111
159.668	87.7481	159.668	87.707	159.668	87.7408	159.668	87.6192	159.668	87.685	159.668	87.4885	159.668	87.5823	159.668	87.3202	159.668	87.4359	159.668	87.1224	159.668	87.2514	159.668	86.9055	159.668	87.0371	159.668	86.6826	159.668	86.804	159.668	86.4685	159.668	86.5667	159.668	86.279	159.668	86.3421	159.668	86.1279	159.668	86.148	159.668	86.0242	159.668	86.0003	159.668	85.9702	159.668	85.9085	159.668	85.96	159.668	85.8732	159.668	85.9812	159.668	85.8855	159.668	86.0171	159.668	85.929	159.668	86.0511	159.668	85.9844	159.668	86.0695	159.668	86.0337	159.668	86.0642
165.527	87.6903	165.527	87.6512	165.527	87.6801	165.527	87.5642	165.527	87.6207	165.527	87.4331	165.527	87.5142	165.527	87.2636	165.527	87.3648	165.527	87.0644	165.527	87.1788	165.527	86.847	165.527	86.9656	165.527	86.6258	165.527	86.7374	165.527	86.4176	165.527	86.5096	165.527	86.2395	165.527	86.3	165.527	86.106	165.527	86.1266	165.527	86.026	165.527	86.0042	165.527	85.9999	165.527	85.9411	165.527	86.0192	165.527	85.9354	165.527	86.0685	165.527	85.9756	165.527	86.1288	165.527	86.0431	165.527	86.1816	165.527	86.1166	165.527	86.2119	165.527	86.177	165.527	86.2109
171.387	87.5657	171.387	87.5173	171.387	87.5627	171.387	87.4195	171.387	87.5085	171.387	87.2758	171.387	87.4046	171.387	87.0924	171.387	87.2549	171.387	86.8782	171.387	87.0653	171.387	86.6456	171.387	86.8449	171.387	86.4105	171.387	86.606	171.387	86.1915	171.387	86.3646	171.387	86.0081	171.387	86.1395	171.387	85.8766	171.387	85.9507	171.387	85.8063	171.387	85.8153	171.387	85.7961	171.387	85.7435	171.387	85.834	171.387	85.7352	171.387	85.9007	171.387	85.779	171.387	85.974	171.387	85.855	171.387	86.0333	171.387	85.94	171.387	86.0635	171.387	86.0125	171.387	86.0565
177.246	87.4263	177.246	87.3823	177.246	87.4161	177.246	87.2852	177.246	87.3528	177.246	87.1382	177.246	87.239	177.246	86.947	177.246	87.0796	177.246	86.7206	177.246	86.882	177.246	86.4719	177.246	86.6564	177.246	86.2178	177.246	86.4162	177.246	85.9788	177.246	86.1784	177.246	85.777	177.246	85.962	177.246	85.6319	177.246	85.7862	177.246	85.5552	177.246	85.6667	177.246	85.5474	177.246	85.6112	177.246	85.5964	177.246	85.6168	177.246	85.6811	177.246	85.6698	177.246	85.7764	177.246	85.7491	177.246	85.859	177.246	85.8309	177.246	85.9113	177.246	85.8941	177.246	85.9234
183.105	87.2567	183.105	87.2233	183.105	87.2303	183.105	87.131	183.105	87.145	183.105	86.9829	183.105	87.0038	183.105	86.7849	183.105	86.8121	183.105	86.5459	183.105	86.578	183.105	86.2795	183.105	86.3137	183.105	86.0039	183.105	86.0355	183.105	85.7421	183.105	85.7641	183.105	85.5195	183.105	85.5236	183.105	85.3592	183.105	85.3373	183.105	85.2759	183.105	85.2236	183.105	85.2704	183.105	85.1892	183.105	85.3289	183.105	85.2271	183.105	85.4262	183.105	85.3176	183.105	85.5331	183.105	85.4336	183.105	85.623	183.105	85.5473	183.105	85.6757	183.105	85.635	183.105	85.6803
188.965	87.402	188.965	87.3651	188.965	87.377	188.965	87.2677	188.965	87.2897	188.965	87.113	188.965	87.1414	188.965	86.906	188.965	86.9355	188.965	86.6549	188.965	86.6782	188.965	86.3715	188.965	86.3797	188.965	86.073	188.965	86.0557	188.965	85.7818	188.965	85.7285	188.965	85.5242	188.965	85.426	188.965	85.3263	188.965	85.1789	188.965	85.207	188.965	85.014	188.965	85.1713	188.965	84.9455	188.965	85.2075	188.965	84.9693	188.965	85.2902	188.965	85.0636	188.965	85.3876	188.965	85.1955	188.965	85.4693	188.965	85.3305	188.965	85.5123	188.965	85.4396	188.965	85.5031
196.289	87.4189	196.289	87.3617	196.289	87.415	196.289	87.2462	196.289	87.3492	196.289	87.0766	196.289	87.2217	196.289	86.8595	196.289	87.035	196.289	86.6043	196.289	86.7938	196.289	86.3242	196.289	86.5065	196.289	86.0366	196.289	86.1864	196.289	85.7635	196.289	85.8532	196.289	85.5291	196.289	85.5333	196.289	85.3562	196.289	85.2583	196.289	85.2594	196.289	85.059	196.289	85.2402	196.289	84.9565	196.289	85.2845	196.289	84.9539	196.289	85.3662	196.289	85.0339	196.289	85.4546	196.289	85.1643	196.289	85.5214	196.289	85.3083	196.289	85.5456	196.289	85.4333	196.289	85.5162
203.613	87.2928	203.613	87.2254	203.613	87.2911	203.613	87.0906	203.613	87.2204	203.613	86.8917	203.613	87.0823	203.613	86.6347	203.613	86.8801	203.613	86.3292	203.613	86.6196	203.613	85.9898	203.613	86.3101	203.613	85.6374	203.613	85.966	203.613	85.2996	203.613	85.6083	203.613	85.0093	203.613	85.2656	203.613	84.7983	203.613	84.9719	203.613	84.6884	203.613	84.7606	203.613	84.6825	203.613	84.6539	203.613	84.7614	203.613	84.6536	203.613	84.8901	203.613	84.7388	203.613	85.0284	203.613	84.8732	203.613	85.1406	203.613	85.0163	203.613	85.2017	203.613	85.1331	203.613	85.1991
210.938	87.29	210.938	87.227	210.938	87.285	210.938	87.0967	210.938	87.2128	210.938	86.9008	210.938	87.0755	210.938	86.6435	210.938	86.8765	210.938	86.3319	210.938	86.6213	210.938	85.9781	210.938	86.3181	210.938	85.6002	210.938	85.9792	210.938	85.2247	210.938	85.6222	210.938	84.8848	210.938	85.2716	210.938	84.6166	210.938	84.9577	210.938	84.4493	210.938	84.7129	210.938	84.3946	210.938	84.5629	210.938	84.4403	210.938	84.5161	210.938	84.5536	210.938	84.5587	210.938	84.692	210.938	84.658	210.938	84.8153	210.938	84.7731	210.938	84.8937	210.938	84.8665	210.938	84.9112
218.262	87.1746	218.262	87.1195	218.262	87.1621	218.262	86.9978	218.262	87.0827	218.262	86.8117	218.262	86.938	218.262	86.5654	218.262	86.7321	218.262	86.2662	218.262	86.4713	218.262	85.926	218.262	86.1656	218.262	85.5628	218.262	85.8296	218.262	85.2026	218.262	85.4837	218.262	84.8782	218.262	85.1539	218.262	84.6246	218.262	84.8702	218.262	84.4696	218.262	84.6611	218.262	84.4237	218.262	84.5455	218.262	84.4738	218.262	84.5255	218.262	84.5874	218.262	84.5836	218.262	84.7233	218.262	84.6882	218.262	84.8431	218.262	84.8023	218.262	84.9188	218.262	84.8928	218.262	84.9357
225.586	87.1531	225.586	87.1165	225.586	87.1118	225.586	87.0028	225.586	86.9929	225.586	86.8146	225.586	86.7983	225.586	86.5563	225.586	86.5322	225.586	86.2358	225.586	86.2026	225.586	85.866	225.586	85.8229	225.586	85.468	225.586	85.4149	225.586	85.0723	225.586	85.0104	225.586	84.719	225.586	84.6509	225.586	84.4523	225.586	84.3819	225.586	84.3078	225.586	84.24	225.586	84.2985	225.586	84.2378	225.586	84.4069	225.586	84.3566	225.586	84.591	225.586	84.5522	225.586	84.7988	225.586	84.7711	225.586	84.9822	225.586	84.9645	225.586	85.1049	225.586	85.0963	225.586	85.1454
232.91	87.4209	232.91	87.3686	232.91	87.3944	232.91	87.2395	232.91	87.2872	232.91	87.0367	232.91	87.0977	232.91	86.7644	232.91	86.8254	232.91	86.4293	232.91	86.4712	232.91	86.0425	232.91	86.0396	232.91	85.6216	232.91	85.5425	232.91	85.193	232.91	85.0035	232.91	84.7925	232.91	84.4641	232.91	84.4619	232.91	83.985	232.91	84.2394	232.91	83.638	232.91	84.1457	232.91	83.4795	232.91	84.1733	232.91	83.5203	232.91	84.2871	232.91	83.7165	232.91	84.4353	232.91	83.991	232.91	84.565	232.91	84.2659	232.91	84.6321	232.91	84.4828	232.91	84.6082
241.699	87.3838	241.699	87.2943	241.699	87.3982	241.699	87.1319	241.699	87.3366	241.699	86.8992	241.699	87.1981	241.699	86.6006	241.699	86.9831	241.699	86.2433	241.699	86.6929	241.699	85.8391	241.699	86.3314	241.699	85.4072	241.699	85.9065	241.699	84.9767	241.699	85.4336	241.699	84.5859	241.699	84.9394	241.699	84.2779	241.699	84.4659	241.699	84.0871	241.699	84.0679	241.699	84.0255	241.699	83.8015	241.699	84.0746	241.699	83.7003	241.699	84.1923	241.699	83.7563	241.699	84.3272	241.699	83.921	241.699	84.4328	241.699	84.1267	241.699	84.4747	241.699	84.3121	241.699	84.4347
250.488	87.508	250.488	87.4315	250.488	87.5087	250.488	87.2794	250.488	87.4328	250.488	87.0513	250.488	87.2794	250.488	86.7479	250.488	87.0472	250.488	86.3715	250.488	86.7363	250.488	85.9296	250.488	86.3495	250.488	85.4387	250.488	85.8963	250.488	84.9294	250.488	85.3964	250.488	84.4497	250.488	84.8843	250.488	84.0597	250.488	84.4102	250.488	83.8145	250.488	84.0333	250.488	83.7381	250.488	83.8031	250.488	83.8091	250.488	83.7377	250.488	83.9708	250.488	83.8132	250.488	84.1569	250.488	83.9747	250.488	84.3116	250.488	84.1591	250.488	84.3979	250.488	84.3124	250.488	84.398
259.277	87.6373	259.277	87.5646	259.277	87.638	259.277	87.4212	259.277	87.5659	259.277	87.2085	259.277	87.4202	259.277	86.9285	259.277	87.2002	259.277	86.5843	259.277	86.9054	259.277	86.1813	259.277	86.5366	259.277	85.7299	259.277	86.0978	259.277	85.2503	259.277	85.6008	259.277	84.7771	259.277	85.0709	259.277	84.362	259.277	84.5542	259.277	84.0649	259.277	84.1176	259.277	83.9305	259.277	83.8335	259.277	83.9614	259.277	83.7451	259.277	84.1119	259.277	83.8382	259.277	84.3096	259.277	84.0456	259.277	84.4841	259.277	84.2822	259.277	84.5846	259.277	84.4765	259.277	84.5835
268.066	87.2936	268.066	87.1935	268.066	87.3162	268.066	87.0164	268.066	87.2613	268.066	86.764	268.066	87.1283	268.066	86.4413	268.066	86.9156	268.066	86.0575	268.066	86.6215	268.066	85.6278	268.066	86.2454	268.066	85.175	268.066	85.7917	268.066	84.7302	268.066	85.2742	268.066	84.3319	268.066	84.722	268.066	84.0215	268.066	84.1844	268.066	83.8342	268.066	83.7293	268.066	83.7855	268.066	83.4274	268.066	83.8604	268.066	83.3228	268.066	84.0143	268.066	83.4079	268.066	84.1864	268.066	83.6249	268.066	84.3175	268.066	83.8929	268.066	84.3637	268.066	84.1366	268.066	84.3027
276.855	87.6042	276.855	87.5693	276.855	87.5521	276.855	87.4385	276.855	87.4234	276.855	87.2057	276.855	87.2293	276.855	86.8672	276.855	86.9794	276.855	86.4237	276.855	86.6798	276.855	85.8826	276.855	86.3328	276.855	85.2633	276.855	85.9391	276.855	84.6051	276.855	85.5032	276.855	83.974	276.855	85.0416	276.855	83.4601	276.855	84.5906	276.855	83.1508	276.855	84.2059	276.855	83.0864	276.855	83.9469	276.855	83.2326	276.855	83.8468	276.855	83.5022	276.855	83.8898	276.855	83.8005	276.855	84.019	276.855	84.056	276.855	84.1651	276.855	84.2272	276.855	84.2707	276.855	84.2979
287.109	87.5948	287.109	87.5328	287.109	87.5652	287.109	87.3847	287.109	87.4409	287.109	87.1559	287.109	87.2232	287.109	86.8508	287.109	86.9183	287.109	86.472	287.109	86.5375	287.109	86.0217	287.109	86.0955	287.109	85.5061	287.109	85.6083	287.109	84.9418	287.109	85.0932	287.109	84.3657	287.109	84.5725	287.109	83.8412	287.109	84.0817	287.109	83.4525	287.109	83.6758	287.109	83.2733	287.109	83.4212	287.109	83.3207	287.109	83.3631	287.109	83.5374	287.109	83.4902	287.109	83.8235	287.109	83.7319	287.109	84.083	287.109	83.9943	287.109	84.2494	287.109	84.197	287.109	84.2892
297.363	87.5526	297.363	87.4304	297.363	87.5818	297.363	87.2249	297.363	87.5063	297.363	86.943	297.363	87.3142	297.363	86.5901	297.363	86.9959	297.363	86.1715	297.363	86.5486	297.363	85.6949	297.363	85.9801	297.363	85.1739	297.363	85.3133	297.363	84.6326	297.363	84.5902	297.363	84.1104	297.363	83.8731	297.363	83.6628	297.363	83.2405	297.363	83.3535	297.363	82.7763	297.363	83.23	297.363	82.5485	297.363	83.2957	297.363	82.5816	297.363	83.5002	297.363	82.8355	297.363	83.7591	297.363	83.2152	297.363	83.9856	297.363	83.6076	297.363	84.111	297.363	83.9193	297.363	84.0934
307.617	87.6952	307.617	87.6132	307.617	87.7143	307.617	87.4621	307.617	87.6728	307.617	87.234	307.617	87.5668	307.617	86.921	307.617	87.3849	307.617	86.5175	307.617	87.11	307.617	86.0231	307.617	86.7228	307.617	85.4476	307.617	86.2087	307.617	84.8199	307.617	85.5671	307.617	84.1963	307.617	84.8237	307.617	83.6614	307.617	84.0446	307.617	83.3072	307.617	83.3424	307.617	83.1862	307.617	82.8505	307.617	83.2754	307.617	82.657	307.617	83.4883	307.617	82.7473	307.617	83.7222	307.617	83.0218	307.617	83.8938	307.617	83.3601	307.617	83.9513	307.617	83.665	307.617	83.8731
319.336	87.6317	319.336	87.5469	319.336	87.6283	319.336	87.3753	319.336	87.5372	319.336	87.1181	319.336	87.3604	319.336	86.7752	319.336	87.101	319.336	86.343	319.336	86.7609	319.336	85.8156	319.336	86.3391	319.336	85.1884	319.336	85.8318	319.336	84.4688	319.336	85.2364	319.336	83.6936	319.336	84.5619	319.336	82.9528	319.336	83.8456	319.336	82.3958	319.336	83.1722	319.336	82.1737	319.336	82.6736	319.336	82.323	319.336	82.4743	319.336	82.7218	319.336	82.5971	319.336	83.1851	319.336	82.9346	319.336	83.5665	319.336	83.3275	319.336	83.785	319.336	83.6454	319.336	83.8099
329.59	87.7891	329.59	87.7137	329.59	87.7879	329.59	87.5604	329.59	87.7123	329.59	87.33	329.59	87.5655	329.59	87.0237	329.59	87.3496	329.59	86.6426	329.59	87.0639	329.59	86.1867	329.59	86.7036	329.59	85.6558	329.59	86.2596	329.59	85.0532	329.59	85.722	329.59	84.3951	329.59	85.0879	329.59	83.7242	329.59	84.3747	329.59	83.1223	329.59	83.6384	329.59	82.7	329.59	82.9862	329.59	82.5427	329.59	82.5551	329.59	82.6423	329.59	82.4343	329.59	82.8918	329.59	82.5889	329.59	83.1518	329.59	82.8803	329.59	83.3129	329.59	83.1577	329.59	83.3172
341.309	86.9997	341.309	86.9185	341.309	86.9836	341.309	86.7417	341.309	86.8738	341.309	86.4758	341.309	86.68	341.309	86.1294	341.309	86.4168	341.309	85.7125	341.309	86.102	341.309	85.2353	341.309	85.7522	341.309	84.7104	341.309	85.3782	341.309	84.1572	341.309	84.9832	341.309	83.609	341.309	84.5657	341.309	83.1185	341.309	84.1297	341.309	82.7553	341.309	83.6994	341.309	82.5851	341.309	83.3275	341.309	82.6314	341.309	83.0844	341.309	82.8502	341.309	83.0198	341.309	83.1459	341.309	83.122	341.309	83.4149	341.309	83.3166	341.309	83.5813	341.309	83.5062	341.309	83.6097
353.027	87.4252	353.027	87.3121	353.027	87.4204	353.027	87.086	353.027	87.2937	353.027	86.752	353.027	87.0422	353.027	86.3155	353.027	86.6642	353.027	85.7821	353.027	86.161	353.027	85.1595	353.027	85.5403	353.027	84.4624	353.027	84.8216	353.027	83.7225	353.027	84.0443	353.027	83.0024	353.027	83.2756	353.027	82.4018	353.027	82.6097	353.027	82.0345	353.027	82.1468	353.027	81.9654	353.027	81.9515	353.027	82.1594	353.027	82.0179	353.027	82.5037	353.027	82.275	353.027	82.8737	353.027	82.6232	353.027	83.1747	353.027	82.9673	353.027	83.3485	353.027	83.2323	353.027	83.3678
366.211	87.5424	366.211	87.4205	366.211	87.5633	366.211	87.1966	366.211	87.4839	366.211	86.8699	366.211	87.3046	366.211	86.4392	366.211	87.024	366.211	85.9026	366.211	86.6391	366.211	85.2579	366.211	86.1432	366.211	84.5046	366.211	85.5264	366.211	83.654	366.211	84.7787	366.211	82.7503	366.211	83.9008	366.211	81.9052	366.211	82.929	366.211	81.3103	366.211	81.9771	366.211	81.15	366.211	81.265	366.211	81.4314	366.211	81.0319	366.211	81.962	366.211	81.3146	366.211	82.5146	366.211	81.8908	366.211	82.9405	366.211	82.4888	366.211	83.1689	366.211	82.9389	366.211	83.1711
379.395	87.8652	379.395	87.7971	379.395	87.8538	379.395	87.6455	379.395	87.7657	379.395	87.4039	379.395	87.6024	379.395	87.0616	379.395	87.3633	379.395	86.6043	379.395	87.0439	379.395	86.0158	379.395	86.6359	379.395	85.2857	379.395	86.1283	379.395	84.4206	379.395	85.5116	379.395	83.4622	379.395	84.786	379.395	82.5109	379.395	83.9749	379.395	81.7351	379.395	83.1443	379.395	81.3205	379.395	82.4171	379.395	81.3425	379.395	81.9463	379.395	81.6923	379.395	81.8263	379.395	82.163	379.395	82.0109	379.395	82.5728	379.395	82.3443	379.395	82.8117	379.395	82.6596	379.395	82.8367
392.578	87.3209	392.578	87.2803	392.578	87.2605	392.578	87.1447	392.578	87.1008	392.578	86.9255	392.578	86.8513	392.578	86.6338	392.578	86.5271	392.578	86.2741	392.578	86.1448	392.578	85.8378	392.578	85.7153	392.578	85.3037	392.578	85.2404	392.578	84.6468	392.578	84.7141	392.578	83.8589	392.578	84.1331	392.578	82.9798	392.578	83.512	392.578	82.132	392.578	82.9004	392.578	81.5191	392.578	82.3885	392.578	81.3158	392.578	82.0828	392.578	81.511	392.578	82.0413	392.578	81.9201	392.578	82.2181	392.578	82.341	392.578	82.4832	392.578	82.6427	392.578	82.6973	392.578	82.7643
405.762	87.3603	405.762	87.2065	405.762	87.3553	405.762	86.9022	405.762	87.187	405.762	86.4597	405.762	86.8545	405.762	85.8968	405.762	86.3624	405.762	85.2378	405.762	85.7248	405.762	84.5158	405.762	84.9714	405.762	83.7746	405.762	84.1546	405.762	83.0701	405.762	83.3493	405.762	82.4684	405.762	82.6424	405.762	82.0379	405.762	82.1118	405.762	81.8304	405.762	81.8098	405.762	81.8547	405.762	81.7526	405.762	82.0637	405.762	81.9106	405.762	82.3702	405.762	82.2064	405.762	82.6827	405.762	82.5412	405.762	82.9325	405.762	82.8318	405.762	83.0814	405.762	83.0296	405.762	83.1145
420.41	87.9428	420.41	87.8139	420.41	87.9598	420.41	87.5691	420.41	87.866	420.41	87.202	420.41	87.6585	420.41	86.7041	420.41	87.3283	420.41	86.0654	420.41	86.8581	420.41	85.2749	420.41	86.2209	420.41	84.3245	420.41	85.3816	420.41	83.2231	420.41	84.3046	420.41	82.0346	420.41	82.9761	420.41	80.9476	420.41	81.4637	420.41	80.3024	420.41	80.0451	420.41	80.3692	420.41	79.2837	420.41	81.0194	420.41	79.5641	420.41	81.8722	420.41	80.5333	420.41	82.6359	420.41	81.616	420.41	83.1757	420.41	82.5088	420.41	83.4449	420.41	83.1179	420.41	83.4283
435.059	87.5243	435.059	87.4553	435.059	87.4985	435.059	87.2881	435.059	87.3803	435.059	87.0158	435.059	87.1724	435.059	86.6246	435.059	86.8774	435.059	86.0936	435.059	86.4939	435.059	85.3963	435.059	86.0114	435.059	84.508	435.059	85.4056	435.059	83.4204	435.059	84.6407	435.059	82.1768	435.059	83.6844	435.059	80.9484	435.059	82.5481	435.059	80.1134	435.059	81.3696	435.059	80.0782	435.059	80.504	435.059	80.7903	435.059	80.3757	435.059	81.7895	435.059	80.9889	435.059	82.6964	435.059	81.9137	435.059	83.3418	435.059	82.7689	435.059	83.6744	435.059	83.3787	435.059	83.6856
451.172	87.6886	451.172	87.6127	451.172	87.6747	451.172	87.4466	451.172	87.5713	451.172	87.1891	451.172	87.3765	451.172	86.8332	451.172	87.0824	451.172	86.3595	451.172	86.6727	451.172	85.7323	451.172	86.1228	451.172	84.9003	451.172	85.4012	451.172	83.8066	451.172	84.4729	451.172	82.4156	451.172	83.3074	451.172	80.7933	451.172	81.9113	451.172	79.3098	451.172	80.4291	451.172	78.754	451.172	79.3299	451.172	79.4887	451.172	79.2792	451.172	80.8279	451.172	80.2542	451.172	82.0876	451.172	81.5438	451.172	83.0092	451.172	82.6361	451.172	83.533	451.172	83.3503	451.172	83.6487
465.82	87.5543	465.82	87.4525	465.82	87.5693	465.82	87.268	465.82	87.4958	465.82	87.0053	465.82	87.334	465.82	86.6645	465.82	87.0833	465.82	86.2369	465.82	86.7376	465.82	85.6995	465.82	86.2805	465.82	85.013	465.82	85.6822	465.82	84.1238	465.82	84.9001	465.82	82.9763	465.82	83.8846	465.82	81.5495	465.82	82.5964	465.82	79.9697	465.82	81.0593	465.82	78.7423	465.82	79.5046	465.82	78.6452	465.82	78.5527	465.82	79.6421	465.82	78.7913	465.82	80.8972	465.82	79.8682	465.82	81.8595	465.82	81.0411	465.82	82.3583	465.82	81.9182	465.82	82.3716
483.398	87.1553	483.398	87.0708	483.398	87.1577	483.398	86.9147	483.398	87.0741	483.398	86.6993	483.398	86.9064	483.398	86.429	483.398	86.6568	483.398	86.0895	483.398	86.3203	483.398	85.6402	483.398	85.8789	483.398	85.0166	483.398	85.2999	483.398	84.1405	483.398	84.5375	483.398	82.9415	483.398	83.5398	483.398	81.4102	483.398	82.2681	483.398	79.7455	483.398	80.7632	483.398	78.5981	483.398	79.3233	483.398	78.7174	483.398	78.6666	483.398	79.8116	483.398	79.2592	483.398	81.0613	483.398	80.5143	483.398	82.0439	483.398	81.6903	483.398	82.6321	483.398	82.471	483.398	82.7831
499.512	87.4394	499.512	87.3621	499.512	87.3876	499.512	87.1604	499.512	87.2155	499.512	86.8513	499.512	86.9434	499.512	86.459	499.512	86.599	499.512	86.0028	499.512	86.2072	499.512	85.4801	499.512	85.7732	499.512	84.8518	499.512	85.2672	499.512	84.0417	499.512	84.6207	499.512	82.9532	499.512	83.7371	499.512	81.5174	499.512	82.5161	499.512	79.8324	499.512	80.9103	499.512	78.4942	499.512	79.1041	499.512	78.5024	499.512	77.8968	499.512	79.7201	499.512	78.2652	499.512	81.0944	499.512	79.6782	499.512	82.08	499.512	81.0792	499.512	82.5642	499.512	82.0596	499.512	82.5541
517.09	87.8186	517.09	87.7099	517.09	87.8306	517.09	87.5086	517.09	87.749	517.09	87.2237	517.09	87.5845	517.09	86.8628	517.09	87.351	517.09	86.4247	517.09	87.0581	517.09	85.8906	517.09	86.6988	517.09	85.218	517.09	86.2385	517.09	84.34	517.09	85.6115	517.09	83.1717	517.09	84.7271	517.09	81.6384	517.09	83.4848	517.09	79.7901	517.09	81.8031	517.09	78.1718	517.09	79.7339	517.09	77.9888	517.09	77.8734	517.09	79.31	517.09	77.6114	517.09	80.872	517.09	79.0173	517.09	81.9943	517.09	80.6684	517.09	82.5358	517.09	81.8693	517.09	82.4931
536.133	87.4423	536.133	87.3362	536.133	87.4045	536.133	87.1083	536.133	87.2179	536.133	86.7901	536.133	86.8958	536.133	86.4112	536.133	86.467	536.133	85.9865	536.133	85.9654	536.133	85.5043	536.133	85.4167	536.133	84.916	536.133	84.822	536.133	84.1302	536.133	84.1461	536.133	83.0195	536.133	83.3165	536.133	81.4488	536.133	82.2398	536.133	79.3852	536.133	80.8494	536.133	77.3428	536.133	79.2485	536.133	76.9488	536.133	78.0446	536.133	78.5542	536.133	78.2341	536.133	80.4661	536.133	79.6385	536.133	81.8704	536.133	81.1751	536.133	82.6369	536.133	82.2691	536.133	82.7664
555.176	87.8428	555.176	87.7102	555.176	87.8392	555.176	87.4445	555.176	87.7095	555.176	87.0668	555.176	87.4726	555.176	86.6141	555.176	87.151	555.176	86.1259	555.176	86.7631	555.176	85.6168	555.176	86.3122	555.176	85.052	555.176	85.7756	555.176	84.3419	555.176	85.0977	555.176	83.358	555.176	84.1876	555.176	81.9529	555.176	82.9178	555.176	79.9988	555.176	81.1219	555.176	77.5952	555.176	78.6389	555.176	75.8806	555.176	75.7511	555.176	76.6236	555.176	74.7506	555.176	78.5737	555.176	76.8115	555.176	80.1385	555.176	79.0713	555.176	80.9871	555.176	80.5041	555.176	81.1155
574.219	88.04	574.219	87.9234	574.219	88.0182	574.219	87.6882	574.219	87.8559	574.219	87.3673	574.219	87.5708	574.219	86.9965	574.219	87.1994	574.219	86.5952	574.219	86.7884	574.219	86.1457	574.219	86.3733	574.219	85.5857	574.219	85.9502	574.219	84.8165	574.219	85.4566	574.219	83.7117	574.219	84.7722	574.219	82.1141	574.219	83.7359	574.219	79.8401	574.219	82.1671	574.219	76.9021	574.219	79.9162	574.219	74.9419	574.219	77.1698	574.219	76.575	574.219	75.6056	574.219	79.156	574.219	76.9645	574.219	80.8964	574.219	79.15	574.219	81.6852	574.219	80.7672	574.219	81.6209
594.727	87.3929	594.727	87.2272	594.727	87.4067	594.727	86.927	594.727	87.2686	594.727	86.5307	594.727	86.9963	594.727	86.0993	594.727	86.6288	594.727	85.7041	594.727	86.2259	594.727	85.3892	594.727	85.8473	594.727	85.1235	594.727	85.5078	594.727	84.7881	594.727	85.146	594.727	84.2159	594.727	84.6397	594.727	83.2418	594.727	83.8438	594.727	81.7373	594.727	82.608	594.727	79.6954	594.727	80.7964	594.727	77.6175	594.727	78.4767	594.727	77.025	594.727	76.7465	594.727	78.3151	594.727	77.4353	594.727	79.8897	594.727	79.2874	594.727	80.9011	594.727	80.6434	594.727	81.172
615.234	87.9674	615.234	87.792	615.234	87.9368	615.234	87.4289	615.234	87.7074	615.234	86.9195	615.234	87.3128	615.234	86.3236	615.234	86.8075	615.234	85.7046	615.234	86.2533	615.234	85.1043	615.234	85.6976	615.234	84.5127	615.234	85.1554	615.234	83.8521	615.234	84.5942	615.234	82.9818	615.234	83.9273	615.234	81.7212	615.234	83.0226	615.234	79.8887	615.234	81.7316	615.234	77.4517	615.234	79.9408	615.234	75.2776	615.234	77.7465	615.234	75.6201	615.234	76.0717	615.234	77.7511	615.234	76.5335	615.234	79.5766	615.234	78.3607	615.234	80.5672	615.234	79.9166	615.234	80.6786
637.207	87.9099	637.207	87.7422	637.207	87.8846	637.207	87.3883	637.207	87.6723	637.207	86.8806	637.207	87.29	637.207	86.2922	637.207	86.7798	637.207	85.7303	637.207	86.2245	637.207	85.2824	637.207	85.7319	637.207	84.9317	637.207	85.3603	637.207	84.5309	637.207	85.0453	637.207	83.8617	637.207	84.6162	637.207	82.6939	637.207	83.868	637.207	80.8024	637.207	82.5993	637.207	78.0735	637.207	80.6269	637.207	75.485	637.207	77.9838	637.207	76.1721	637.207	76.0792	637.207	78.7705	637.207	77.3049	637.207	80.7577	637.207	79.6406	637.207	81.8063	637.207	81.2674	637.207	81.9742
659.18	88.4502	659.18	88.2574	659.18	88.4278	659.18	87.855	659.18	88.1963	659.18	87.2675	659.18	87.7687	659.18	86.5452	659.18	87.1678	659.18	85.7639	659.18	86.4377	659.18	85.0114	659.18	85.6571	659.18	84.3459	659.18	84.9285	659.18	83.7332	659.18	84.3107	659.18	83.0168	659.18	83.7303	659.18	81.9529	659.18	82.9766	659.18	80.2667	659.18	81.7797	659.18	77.74	659.18	79.8728	659.18	74.8775	659.18	77.1162	659.18	74.7014	659.18	74.4874	659.18	77.2056	659.18	75.1472	659.18	79.2896	659.18	77.6758	659.18	80.3401	659.18	79.5405	659.18	80.4148
682.617	88.1156	682.617	87.9246	682.617	88.0829	682.617	87.5335	682.617	87.8107	682.617	86.9765	682.617	87.3057	682.617	86.3167	682.617	86.6235	682.617	85.6547	682.617	85.8847	682.617	85.0955	682.617	85.2421	682.617	84.6737	682.617	84.7818	682.617	84.3084	682.617	84.4499	682.617	83.8269	682.617	84.0941	682.617	83.0071	682.617	83.5311	682.617	81.5859	682.617	82.5531	682.617	79.2573	682.617	80.9042	682.617	75.9487	682.617	78.3301	682.617	74.0615	682.617	75.2743	682.617	76.3723	682.617	74.9775	682.617	78.827	682.617	77.4466	682.617	80.0867	682.617	79.3895	682.617	80.2525
707.52	88.4085	707.52	88.2173	707.52	88.3199	707.52	87.7571	707.52	87.9605	707.52	87.0634	707.52	87.3611	707.52	86.212	707.52	86.5817	707.52	85.3387	707.52	85.7228	707.52	84.621	707.52	84.9291	707.52	84.1623	707.52	84.3511	707.52	83.8602	707.52	84.0286	707.52	83.4431	707.52	83.7892	707.52	82.6053	707.52	83.3089	707.52	81.0556	707.52	82.2405	707.52	78.502	707.52	80.2556	707.52	75.0917	707.52	77.1062	707.52	74.2566	707.52	73.8851	707.52	77.269	707.52	75.0831	707.52	79.7729	707.52	78.1563	707.52	81.0178	707.52	80.2119	707.52	81.1423
732.422	88.9206	732.422	88.7247	732.422	88.8493	732.422	88.2606	732.422	88.5129	732.422	87.5437	732.422	87.9068	732.422	86.6268	732.422	87.0342	732.422	85.6349	732.422	85.9597	732.422	84.7786	732.422	84.8793	732.422	84.239	732.422	84.0883	732.422	83.9533	732.422	83.7241	732.422	83.6081	732.422	83.5798	732.422	82.8355	732.422	83.2832	732.422	81.2828	732.422	82.4717	732.422	78.5037	732.422	80.7377	732.422	73.9536	732.422	77.4294	732.422	71.5595	732.422	71.8427	732.422	76.0199	732.422	72.5187	732.422	79.2412	732.422	77.4933	732.422	80.7928	732.422	80.0919	732.422	81.0655
757.324	88.9987	757.324	88.8119	757.324	88.9443	757.324	88.3546	757.324	88.6484	757.324	87.5952	757.324	88.0833	757.324	86.5472	757.324	87.2218	757.324	85.3301	757.324	86.084	757.324	84.2258	757.324	84.8154	757.324	83.5987	757.324	83.7675	757.324	83.5352	757.324	83.325	757.324	83.6529	757.324	83.3981	757.324	83.428	757.324	83.4444	757.324	82.4366	757.324	82.9655	757.324	80.3011	757.324	81.6159	757.324	76.6687	757.324	79.032	757.324	73.2484	757.324	74.7871	757.324	75.5962	757.324	71.8893	757.324	78.6185	757.324	75.707	757.324	80.1008	757.324	78.8221	757.324	80.1804
785.156	89.525	785.156	89.3223	785.156	89.4624	785.156	88.8698	785.156	89.1328	785.156	88.1792	785.156	88.5473	785.156	87.2415	785.156	87.7167	785.156	86.0521	785.156	86.6447	785.156	84.7095	785.156	85.3537	785.156	83.5473	785.156	83.9733	785.156	82.9802	785.156	82.8499	785.156	82.903	785.156	82.3557	785.156	82.6882	785.156	82.3148	785.156	81.746	785.156	82.0876	785.156	79.5934	785.156	81.0899	785.156	75.6015	785.156	78.7656	785.156	70.9113	785.156	74.155	785.156	74.6119	785.156	69.7358	785.156	78.6291	785.156	75.6472	785.156	80.5801	785.156	79.4221	785.156	80.8629
811.523	89.2577	811.523	89.0828	811.523	89.2185	811.523	88.6736	811.523	88.9611	811.523	87.9969	811.523	88.457	811.523	87.0256	811.523	87.6675	811.523	85.7708	811.523	86.5718	811.523	84.3541	811.523	85.2134	811.523	83.1081	811.523	83.7776	811.523	82.4611	811.523	82.6487	811.523	82.4059	811.523	82.1848	811.523	82.3926	811.523	82.2253	811.523	81.8223	811.523	82.1606	811.523	80.1913	811.523	81.3725	811.523	76.9151	811.523	79.2814	811.523	72.1365	811.523	75.0895	811.523	73.4445	811.523	69.7653	811.523	77.2583	811.523	73.7389	811.523	79.0251	811.523	77.5097	811.523	79.0873
840.82	88.9636	840.82	88.7906	840.82	88.9311	840.82	88.3971	840.82	88.6929	840.82	87.755	840.82	88.232	840.82	86.8359	840.82	87.5155	840.82	85.6368	840.82	86.5061	840.82	84.2233	840.82	85.1808	840.82	82.7949	840.82	83.5812	840.82	81.6977	840.82	81.9751	840.82	81.1586	840.82	80.9884	840.82	80.908	840.82	80.9071	840.82	80.3471	840.82	81.0035	840.82	78.8707	840.82	80.4244	840.82	75.7623	840.82	78.6196	840.82	70.2086	840.82	74.9967	840.82	70.6683	840.82	69.4909	840.82	75.6989	840.82	71.6262	840.82	77.9662	840.82	76.0764	840.82	78.0552
870.117	88.8667	870.117	88.6822	870.117	88.8278	870.117	88.2821	870.117	88.5743	870.117	87.6822	870.117	88.1161	870.117	86.8727	870.117	87.4432	870.117	85.7999	870.117	86.5265	870.117	84.4293	870.117	85.3593	870.117	82.9265	870.117	84.0357	870.117	81.801	870.117	82.8186	870.117	81.4326	870.117	82.0308	870.117	81.3676	870.117	81.6854	870.117	80.8316	870.117	81.3605	870.117	79.2231	870.117	80.4923	870.117	75.811	870.117	78.4859	870.117	69.4331	870.117	74.4136	870.117	70.4719	870.117	67.2657	870.117	75.6996	870.117	71.2171	870.117	77.8391	870.117	75.9842	870.117	77.8921
900.879	88.827	900.879	88.6419	900.879	88.7964	900.879	88.2314	900.879	88.5371	900.879	87.5659	900.879	88.0274	900.879	86.614	900.879	87.255	900.879	85.3631	900.879	86.2226	900.879	83.8516	900.879	84.9422	900.879	82.2943	900.879	83.4605	900.879	81.2694	900.879	82.004	900.879	81.2408	900.879	81.1498	900.879	81.641	900.879	81.2422	900.879	81.5314	900.879	81.6219	900.879	80.2607	900.879	81.4262	900.879	77.1271	900.879	80.0967	900.879	70.1427	900.879	76.9728	900.879	64.4125	900.879	70.3624	900.879	73.6417	900.879	68.3268	900.879	76.7873	900.879	74.877	900.879	77.1653
933.105	88.8316	933.105	88.6207	933.105	88.8104	933.105	88.1952	933.105	88.5552	933.105	87.5667	933.105	88.0781	933.105	86.7101	933.105	87.3876	933.105	85.5538	933.105	86.4681	933.105	84.0204	933.105	85.2677	933.105	82.1562	933.105	83.7293	933.105	80.4332	933.105	81.9347	933.105	79.8081	933.105	80.4109	933.105	80.2981	933.105	79.9774	933.105	80.6987	933.105	80.396	933.105	80.0939	933.105	80.5788	933.105	77.8766	933.105	79.748	933.105	73.085	933.105	77.27	933.105	67.494	933.105	72.3229	933.105	73.0975	933.105	70.1168	933.105	76.3388	933.105	74.725	933.105	76.7964
965.332	88.7261	965.332	88.5107	965.332	88.6934	965.332	88.0823	965.332	88.4198	965.332	87.4924	965.332	87.9345	965.332	86.7474	965.332	87.2458	965.332	85.7698	965.332	86.3103	965.332	84.4258	965.332	85.0467	965.332	82.6117	965.332	83.3897	965.332	80.4457	965.332	81.3993	965.332	78.6926	965.332	79.5435	965.332	78.4222	965.332	78.8144	965.332	79.0087	965.332	79.2699	965.332	79.0323	965.332	79.6214	965.332	77.557	965.332	78.8621	965.332	73.619	965.332	76.3877	965.332	69.828	965.332	72.3159	965.332	74.5528	965.332	72.2439	965.332	77.2915	965.332	75.6763	965.332	77.495
1,000.49	88.4823	1,000.49	88.2637	1,000.49	88.4368	1,000.49	87.8012	1,000.49	88.1354	1,000.49	87.138	1,000.49	87.6006	1,000.49	86.3086	1,000.49	86.8515	1,000.49	85.2858	1,000.49	85.8879	1,000.49	83.9578	1,000.49	84.6657	1,000.49	82.217	1,000.49	83.0926	1,000.49	80.2165	1,000.49	81.1357	1,000.49	78.7192	1,000.49	79.182	1,000.49	78.4701	1,000.49	78.3299	1,000.49	78.8103	1,000.49	78.7773	1,000.49	78.6542	1,000.49	79.1164	1,000.49	77.2219	1,000.49	78.2519	1,000.49	73.4788	1,000.49	75.3966	1,000.49	68.0378	1,000.49	69.3348	1,000.49	72.9777	1,000.49	68.4815	1,000.49	76.3224	1,000.49	74.1973	1,000.49	76.5812
1,035.64	88.0932	1,035.64	87.9082	1,035.64	88.0113	1,035.64	87.475	1,035.64	87.6545	1,035.64	86.8311	1,035.64	87.0527	1,035.64	86.0294	1,035.64	86.2814	1,035.64	85.0726	1,035.64	85.385	1,035.64	83.8568	1,035.64	84.3091	1,035.64	82.2303	1,035.64	82.9562	1,035.64	80.1586	1,035.64	81.2702	1,035.64	78.0421	1,035.64	79.2826	1,035.64	76.8686	1,035.64	77.3283	1,035.64	76.8256	1,035.64	76.3721	1,035.64	76.6996	1,035.64	76.5333	1,035.64	75.3234	1,035.64	76.1637	1,035.64	71.5357	1,035.64	73.7915	1,035.64	67.5096	1,035.64	67.5435	1,035.64	72.7886	1,035.64	66.9976	1,035.64	75.9394	1,035.64	73.8251	1,035.64	76.2792
1,072.27	87.524	1,072.27	87.3055	1,072.27	87.4464	1,072.27	86.8298	1,072.27	87.0854	1,072.27	86.1465	1,072.27	86.4903	1,072.27	85.2708	1,072.27	85.7123	1,072.27	84.2003	1,072.27	84.8073	1,072.27	82.9615	1,072.27	83.8125	1,072.27	81.5724	1,072.27	82.6486	1,072.27	79.973	1,072.27	81.1025	1,072.27	78.261	1,072.27	79.0637	1,072.27	77.1711	1,072.27	77.017	1,072.27	77.0403	1,072.27	76.0534	1,072.27	76.5492	1,072.27	76.013	1,072.27	74.4295	1,072.27	75.605	1,072.27	70.2314	1,072.27	73.8091	1,072.27	68.47	1,072.27	69.2334	1,072.27	72.8206	1,072.27	67.563	1,072.27	75.8406	1,072.27	73.9654	1,072.27	76.4191
1,108.89	86.6162	1,108.89	86.3176	1,108.89	86.5988	1,108.89	85.7404	1,108.89	86.2647	1,108.89	84.9696	1,108.89	85.6662	1,108.89	84.1096	1,108.89	84.8959	1,108.89	83.1845	1,108.89	84.0222	1,108.89	82.1187	1,108.89	83.053	1,108.89	80.841	1,108.89	81.9293	1,108.89	79.353	1,108.89	80.5025	1,108.89	77.7457	1,108.89	78.6422	1,108.89	76.4392	1,108.89	76.6959	1,108.89	75.9659	1,108.89	75.7837	1,108.89	75.5709	1,108.89	75.9859	1,108.89	73.7644	1,108.89	75.8193	1,108.89	68.9062	1,108.89	74.0274	1,108.89	63.8267	1,108.89	68.7692	1,108.89	71.1778	1,108.89	62.2967	1,108.89	74.5159	1,108.89	71.708	1,108.89	74.7838
1,148.44	86.8046	1,148.44	86.4076	1,148.44	86.817	1,148.44	85.6865	1,148.44	86.4503	1,148.44	84.7608	1,148.44	85.7598	1,148.44	83.7576	1,148.44	84.8578	1,148.44	82.7374	1,148.44	83.8737	1,148.44	81.6489	1,148.44	82.8318	1,148.44	80.3652	1,148.44	81.6572	1,148.44	78.7608	1,148.44	80.2833	1,148.44	76.8426	1,148.44	78.6202	1,148.44	75.1771	1,148.44	76.7742	1,148.44	74.7455	1,148.44	75.8041	1,148.44	74.7023	1,148.44	76.0089	1,148.44	73.0909	1,148.44	75.4483	1,148.44	67.6931	1,148.44	72.7817	1,148.44	62.1703	1,148.44	66.7268	1,148.44	71.8096	1,148.44	62.0475	1,148.44	75.0086	1,148.44	70.8066	1,148.44	74.6175
1,189.45	87.025	1,189.45	86.6295	1,189.45	87.0452	1,189.45	85.8979	1,189.45	86.6992	1,189.45	84.9205	1,189.45	86.0019	1,189.45	83.7922	1,189.45	84.9765	1,189.45	82.5462	1,189.45	83.7426	1,189.45	81.1597	1,189.45	82.5066	1,189.45	79.6577	1,189.45	81.3355	1,189.45	78.0695	1,189.45	80.0819	1,189.45	76.3952	1,189.45	78.6126	1,189.45	75.2051	1,189.45	76.9914	1,189.45	75.3242	1,189.45	75.7181	1,189.45	75.5621	1,189.45	75.6433	1,189.45	74.2601	1,189.45	75.9359	1,189.45	70.0044	1,189.45	74.6233	1,189.45	58.4923	1,189.45	69.6349	1,189.45	68.8005	1,189.45	59.6591	1,189.45	73.31	1,189.45	70.4998	1,189.45	73.739
1,230.47	87.1107	1,230.47	86.8018	1,230.47	87.0459	1,230.47	86.1136	1,230.47	86.6378	1,230.47	85.0938	1,230.47	85.8892	1,230.47	83.8238	1,230.47	84.8261	1,230.47	82.4662	1,230.47	83.5841	1,230.47	81.187	1,230.47	82.3437	1,230.47	79.8484	1,230.47	81.1512	1,230.47	78.1372	1,230.47	79.8901	1,230.47	76.0726	1,230.47	78.3635	1,230.47	74.1669	1,230.47	76.4737	1,230.47	73.4414	1,230.47	75.0674	1,230.47	74.0545	1,230.47	75.3444	1,230.47	73.8499	1,230.47	75.8643	1,230.47	70.3484	1,230.47	74.8577	1,230.47	53.286	1,230.47	70.7019	1,230.47	67.7359	1,230.47	59.9336	1,230.47	72.5128	1,230.47	69.5501	1,230.47	73.0539
1,274.41	87.1312	1,274.41	86.8564	1,274.41	87.0338	1,274.41	86.1712	1,274.41	86.5777	1,274.41	85.1302	1,274.41	85.7713	1,274.41	83.9258	1,274.41	84.7288	1,274.41	82.7254	1,274.41	83.628	1,274.41	81.5287	1,274.41	82.5145	1,274.41	80.2839	1,274.41	81.2667	1,274.41	78.933	1,274.41	79.7343	1,274.41	77.2324	1,274.41	77.8184	1,274.41	74.9948	1,274.41	75.6227	1,274.41	73.3659	1,274.41	74.0135	1,274.41	73.6939	1,274.41	74.2826	1,274.41	73.6647	1,274.41	75.0547	1,274.41	70.8617	1,274.41	74.0284	1,274.41	59.1397	1,274.41	69.2396	1,274.41	66.7017	1,274.41	49.8399	1,274.41	72.6976	1,274.41	68.9952	1,274.41	73.1052
1,319.82	86.5431	1,319.82	86.2127	1,319.82	86.4599	1,319.82	85.5614	1,319.82	85.9191	1,319.82	84.574	1,319.82	85.0401	1,319.82	83.2752	1,319.82	83.9313	1,319.82	81.8766	1,319.82	82.5982	1,319.82	80.55	1,319.82	81.161	1,319.82	79.3139	1,319.82	79.8005	1,319.82	78.1343	1,319.82	78.5128	1,319.82	76.6721	1,319.82	77.335	1,319.82	74.7839	1,319.82	76.1736	1,319.82	73.8246	1,319.82	74.8325	1,319.82	74.2174	1,319.82	74.2686	1,319.82	74.2408	1,319.82	74.7051	1,319.82	72.4801	1,319.82	74.086	1,319.82	65.9992	1,319.82	70.8225	1,319.82	59.0399	1,319.82	59.9936	1,319.82	68.6235	1,319.82	64.0637	1,319.82	69.5505
1,366.7	85.9507	1,366.7	85.6467	1,366.7	85.8867	1,366.7	85.0012	1,366.7	85.4254	1,366.7	84.0471	1,366.7	84.5791	1,366.7	82.878	1,366.7	83.4153	1,366.7	81.5784	1,366.7	82.0426	1,366.7	80.1632	1,366.7	80.6274	1,366.7	78.7469	1,366.7	79.3515	1,366.7	77.4585	1,366.7	78.178	1,366.7	76.2184	1,366.7	76.851	1,366.7	74.8761	1,366.7	75.288	1,366.7	73.6857	1,366.7	73.6273	1,366.7	73.8809	1,366.7	72.6159	1,366.7	74.4444	1,366.7	73.5324	1,366.7	73.0788	1,366.7	74.4436	1,366.7	68.566	1,366.7	72.9496	1,366.7	58.085	1,366.7	66.9776	1,366.7	64.5475	1,366.7	59.5346	1,366.7	66.5852
1,413.57	85.8057	1,413.57	85.4445	1,413.57	85.7875	1,413.57	84.6631	1,413.57	85.3605	1,413.57	83.5404	1,413.57	84.4575	1,413.57	82.2736	1,413.57	83.2015	1,413.57	80.9575	1,413.57	81.8718	1,413.57	79.5702	1,413.57	80.6005	1,413.57	78.2088	1,413.57	79.392	1,413.57	77.1685	1,413.57	78.1981	1,413.57	76.5218	1,413.57	76.7412	1,413.57	75.6079	1,413.57	75.0103	1,413.57	73.961	1,413.57	73.2936	1,413.57	73.3333	1,413.57	71.8755	1,413.57	74.011	1,413.57	72.4127	1,413.57	72.7004	1,413.57	73.2303	1,413.57	67.178	1,413.57	71.5106	1,413.57	64.5202	1,413.57	65.3777	1,413.57	68.6944	1,413.57	61.6925	1,413.57	67.9919
1,463.38	85.6478	1,463.38	85.2755	1,463.38	85.783	1,463.38	84.6472	1,463.38	85.4319	1,463.38	83.5029	1,463.38	84.5798	1,463.38	81.9872	1,463.38	83.4347	1,463.38	80.6025	1,463.38	82.1062	1,463.38	79.3134	1,463.38	80.6578	1,463.38	77.8122	1,463.38	79.294	1,463.38	76.5246	1,463.38	78.0892	1,463.38	75.588	1,463.38	76.7374	1,463.38	74.2786	1,463.38	75.1407	1,463.38	72.8325	1,463.38	73.5953	1,463.38	72.3549	1,463.38	72.3599	1,463.38	72.3473	1,463.38	72.5221	1,463.38	70.7518	1,463.38	72.8247	1,463.38	64.7741	1,463.38	70.6091	1,463.38	62.5445	1,463.38	63.8062	1,463.38	68.7727	1,463.38	63.3316	1,463.38	68.6374
1,516.11	86.4381	1,516.11	86.0809	1,516.11	86.4259	1,516.11	85.5553	1,516.11	86.0699	1,516.11	84.7761	1,516.11	85.4754	1,516.11	83.4308	1,516.11	84.5569	1,516.11	81.7755	1,516.11	83.2521	1,516.11	80.465	1,516.11	81.7582	1,516.11	79.3185	1,516.11	80.3695	1,516.11	77.744	1,516.11	79.2122	1,516.11	75.8731	1,516.11	78.1692	1,516.11	74.2605	1,516.11	76.9615	1,516.11	72.9039	1,516.11	75.595	1,516.11	72.8923	1,516.11	74.2851	1,516.11	74.1268	1,516.11	73.8953	1,516.11	73.1995	1,516.11	74.376	1,516.11	68.0205	1,516.11	72.7975	1,516.11	62.6857	1,516.11	67.1681	1,516.11	69.104	1,516.11	64.6814	1,516.11	69.3883
1,568.85	87.7459	1,568.85	87.4577	1,568.85	87.6205	1,568.85	86.8313	1,568.85	87.1498	1,568.85	85.9409	1,568.85	86.4574	1,568.85	84.8105	1,568.85	85.5361	1,568.85	83.4913	1,568.85	84.2803	1,568.85	82.0341	1,568.85	82.8308	1,568.85	80.6895	1,568.85	81.4963	1,568.85	79.4738	1,568.85	80.2056	1,568.85	77.8392	1,568.85	79.1105	1,568.85	76.163	1,568.85	78.0443	1,568.85	74.6597	1,568.85	76.516	1,568.85	74.1549	1,568.85	75.7398	1,568.85	75.4842	1,568.85	75.6604	1,568.85	75.2452	1,568.85	75.7434	1,568.85	71.1405	1,568.85	74.7502	1,568.85	63.2435	1,568.85	69.6317	1,568.85	69.5079	1,568.85	66.846	1,568.85	71.0009
1,624.51	88.0079	1,624.51	87.6218	1,624.51	87.9462	1,624.51	87.0062	1,624.51	87.2905	1,624.51	86.1725	1,624.51	86.3032	1,624.51	85.017	1,624.51	85.3834	1,624.51	83.6378	1,624.51	84.365	1,624.51	82.293	1,624.51	82.9338	1,624.51	80.9899	1,624.51	81.4563	1,624.51	79.6417	1,624.51	80.1092	1,624.51	78.3355	1,624.51	78.5784	1,624.51	77.0719	1,624.51	76.9854	1,624.51	75.2868	1,624.51	75.1043	1,624.51	74.343	1,624.51	74.1018	1,624.51	75.5344	1,624.51	75.0476	1,624.51	75.3522	1,624.51	76.0702	1,624.51	71.7597	1,624.51	74.8949	1,624.51	65.0415	1,624.51	69.2891	1,624.51	70.7426	1,624.51	68.8489	1,624.51	72.4001
1,681.64	87.1331	1,681.64	86.8797	1,681.64	87.0775	1,681.64	86.1946	1,681.64	86.6491	1,681.64	85.1892	1,681.64	85.8693	1,681.64	84.1936	1,681.64	84.8785	1,681.64	83.1094	1,681.64	83.7727	1,681.64	81.8284	1,681.64	82.5345	1,681.64	80.2925	1,681.64	80.9633	1,681.64	78.0455	1,681.64	79.2645	1,681.64	76.4445	1,681.64	77.7397	1,681.64	76.8167	1,681.64	75.7963	1,681.64	75.8002	1,681.64	73.1577	1,681.64	73.3119	1,681.64	70.8389	1,681.64	75.1057	1,681.64	72.2061	1,681.64	75.9173	1,681.64	75.0907	1,681.64	72.1323	1,681.64	74.8476	1,681.64	66.7058	1,681.64	69.3498	1,681.64	70.9967	1,681.64	67.6506	1,681.64	71.7673
1,741.7	87.2113	1,741.7	86.8167	1,741.7	87.0344	1,741.7	86.1005	1,741.7	86.672	1,741.7	85.2779	1,741.7	86.1147	1,741.7	83.9371	1,741.7	85.0632	1,741.7	82.4042	1,741.7	83.7029	1,741.7	81.2997	1,741.7	82.2342	1,741.7	79.803	1,741.7	80.9044	1,741.7	77.9178	1,741.7	79.1824	1,741.7	75.9311	1,741.7	77.0426	1,741.7	74.7859	1,741.7	75.8763	1,741.7	74.6543	1,741.7	74.9548	1,741.7	72.2085	1,741.7	73.1127	1,741.7	72.8095	1,741.7	70.9031	1,741.7	74.5671	1,741.7	73.2375	1,741.7	71.631	1,741.7	74.3327	1,741.7	63.2337	1,741.7	70.4202	1,741.7	68.1916	1,741.7	62.7171	1,741.7	70.4196
1,803.22	87.7789	1,803.22	87.2848	1,803.22	87.9555	1,803.22	86.3843	1,803.22	87.1403	1,803.22	85.0802	1,803.22	86.282	1,803.22	84.6319	1,803.22	85.6992	1,803.22	83.6571	1,803.22	84.6007	1,803.22	81.4117	1,803.22	82.8298	1,803.22	80.1126	1,803.22	80.9447	1,803.22	78.5812	1,803.22	80.4001	1,803.22	76.8517	1,803.22	79.8571	1,803.22	73.6329	1,803.22	77.6599	1,803.22	72.6211	1,803.22	73.6814	1,803.22	72.3834	1,803.22	72.5766	1,803.22	70.7817	1,803.22	75.4356	1,803.22	74.2131	1,803.22	77.0378	1,803.22	73.7362	1,803.22	76.941	1,803.22	67.0761	1,803.22	74.2653	1,803.22	70.5803	1,803.22	71.0768	1,803.22	69.5739
1,866.21	86.9299	1,866.21	86.9402	1,866.21	86.7859	1,866.21	86.2994	1,866.21	86.622	1,866.21	85.061	1,866.21	86.4779	1,866.21	84.0246	1,866.21	85.7481	1,866.21	83.4994	1,866.21	84.5295	1,866.21	81.621	1,866.21	83.4451	1,866.21	79.6307	1,866.21	80.9283	1,866.21	79.666	1,866.21	78.5573	1,866.21	79.605	1,866.21	78.0726	1,866.21	78.1488	1,866.21	75.291	1,866.21	75.0683	1,866.21	71.1074	1,866.21	73.6057	1,866.21	70.9878	1,866.21	70.7805	1,866.21	76.8531	1,866.21	70.2661	1,866.21	75.7975	1,866.21	73.6579	1,866.21	74.3955	1,866.21	67.0664	1,866.21	71.4992	1,866.21	66.8906	1,866.21	70.3508	1,866.21	69.4638
1,932.13	86.3441	1,932.13	86.184	1,932.13	85.5349	1,932.13	85.0522	1,932.13	85.7262	1,932.13	84.5941	1,932.13	85.8687	1,932.13	83.5111	1,932.13	84.5982	1,932.13	82.6577	1,932.13	82.3059	1,932.13	81.7038	1,932.13	81.1768	1,932.13	78.8603	1,932.13	79.1822	1,932.13	77.5427	1,932.13	75.9416	1,932.13	77.9124	1,932.13	76.0979	1,932.13	77.5524	1,932.13	73.0668	1,932.13	76.1589	1,932.13	72.1581	1,932.13	75.7668	1,932.13	72.7359	1,932.13	76.1868	1,932.13	73.5195	1,932.13	74.7958	1,932.13	74.2351	1,932.13	73.6001	1,932.13	75.5822	1,932.13	68.8497	1,932.13	75.2209	1,932.13	55.9151	1,932.13	67.9197	1,932.13	69.2953
1,999.51	86.4801	1,999.51	85.9054	1,999.51	86.0415	1,999.51	85.4838	1,999.51	85.4931	1,999.51	85.2427	1,999.51	84.7177	1,999.51	83.4639	1,999.51	84.295	1,999.51	81.3569	1,999.51	82.6687	1,999.51	79.1181	1,999.51	80.8988	1,999.51	75.6708	1,999.51	79.9369	1,999.51	75.2803	1,999.51	76.63	1,999.51	74.3286	1,999.51	76.9629	1,999.51	73.5226	1,999.51	74.9838	1,999.51	73.4303	1,999.51	69.8601	1,999.51	72.9428	1,999.51	73.0016	1,999.51	74.2165	1,999.51	73.1087	1,999.51	75.1111	1,999.51	74.7405	1,999.51	73.4745	1,999.51	75.8161	1,999.51	67.5535	1,999.51	75.9788	1,999.51	64.3977	1,999.51	59.027	1,999.51	68.4188
2,069.82	86.9205	2,069.82	87.3946	2,069.82	86.7358	2,069.82	87.2685	2,069.82	87.0682	2,069.82	85.8068	2,069.82	86.5943	2,069.82	84.2197	2,069.82	84.319	2,069.82	82.975	2,069.82	83.7349	2,069.82	81.8384	2,069.82	83.324	2,069.82	80.5844	2,069.82	81.2342	2,069.82	78.0651	2,069.82	79.1819	2,069.82	75.5847	2,069.82	77.5648	2,069.82	71.1642	2,069.82	77.821	2,069.82	69.0999	2,069.82	73.0869	2,069.82	73.8421	2,069.82	74.1744	2,069.82	71.6933	2,069.82	72.0902	2,069.82	71.634	2,069.82	74.7767	2,069.82	64.0341	2,069.82	75.0557	2,069.82	55.4379	2,069.82	73.3751	2,069.82	66.4336	2,069.82	66.6722	2,069.82	68.256
2,143.07	87.4143	2,143.07	87.0752	2,143.07	87.4631	2,143.07	86.4982	2,143.07	86.3621	2,143.07	85.6996	2,143.07	85.3532	2,143.07	84.2042	2,143.07	84.4042	2,143.07	80.9895	2,143.07	82.9142	2,143.07	81.2923	2,143.07	80.1019	2,143.07	80.2151	2,143.07	77.254	2,143.07	75.6454	2,143.07	73.2819	2,143.07	69.2726	2,143.07	74.2289	2,143.07	68.0352	2,143.07	71.4155	2,143.07	70.3029	2,143.07	70.3256	2,143.07	71.3138	2,143.07	73.5736	2,143.07	72.4491	2,143.07	76.4775	2,143.07	76.512	2,143.07	69.8261	2,143.07	75.3118	2,143.07	75.4858	2,143.07	76.1795	2,143.07	74.9659	2,143.07	71.7013	2,143.07	75.3424	2,143.07	70.4892
2,219.24	86.4304	2,219.24	86.0111	2,219.24	86.6589	2,219.24	84.0396	2,219.24	87.045	2,219.24	82.613	2,219.24	85.4913	2,219.24	81.6719	2,219.24	84.243	2,219.24	81.0031	2,219.24	82.498	2,219.24	77.9658	2,219.24	80.9507	2,219.24	80.001	2,219.24	78.6323	2,219.24	79.8894	2,219.24	76.5471	2,219.24	76.8254	2,219.24	76.1866	2,219.24	72.2044	2,219.24	79.2643	2,219.24	68.0002	2,219.24	75.0246	2,219.24	71.2058	2,219.24	68.8437	2,219.24	64.3412	2,219.24	74.4425	2,219.24	73.8074	2,219.24	72.7037	2,219.24	75.6721	2,219.24	76.364	2,219.24	77.1502	2,219.24	74.9495	2,219.24	76.744	2,219.24	69.7682	2,219.24	74.0774
2,296.88	87.7279	2,296.88	86.7797	2,296.88	87.558	2,296.88	85.7393	2,296.88	86.8485	2,296.88	85.1868	2,296.88	85.4024	2,296.88	84.6733	2,296.88	85.203	2,296.88	82.3726	2,296.88	85.4591	2,296.88	80.795	2,296.88	82.5975	2,296.88	80.148	2,296.88	79.039	2,296.88	77.4398	2,296.88	78.9626	2,296.88	76.566	2,296.88	77.7744	2,296.88	73.4723	2,296.88	74.3007	2,296.88	71.1626	2,296.88	75.0345	2,296.88	74.8503	2,296.88	72.9912	2,296.88	75.8732	2,296.88	71.0073	2,296.88	75.0341	2,296.88	64.2523	2,296.88	75.2478	2,296.88	64.8588	2,296.88	68.9421	2,296.88	69.8017	2,296.88	75.7967	2,296.88	67.5985	2,296.88	73.2867
2,378.91	88.3276	2,378.91	87.0511	2,378.91	87.9024	2,378.91	86.0984	2,378.91	86.9505	2,378.91	85.9352	2,378.91	86.579	2,378.91	83.6348	2,378.91	85.0554	2,378.91	82.9474	2,378.91	84.4782	2,378.91	83.8393	2,378.91	82.4091	2,378.91	81.0358	2,378.91	81.9485	2,378.91	77.0242	2,378.91	79.6574	2,378.91	77.0411	2,378.91	73.1118	2,378.91	75.7325	2,378.91	73.9197	2,378.91	69.3065	2,378.91	50.1504	2,378.91	70.0911	2,378.91	71.0743	2,378.91	68.1177	2,378.91	74.4233	2,378.91	67.6608	2,378.91	76.5019	2,378.91	73.3764	2,378.91	71.7235	2,378.91	70.5035	2,378.91	72.1251	2,378.91	57.3466	2,378.91	67.641	2,378.91	65.1319
2,462.4	86.507	2,462.4	86.2905	2,462.4	86.4966	2,462.4	86.0847	2,462.4	86.2106	2,462.4	85.7967	2,462.4	85.7615	2,462.4	84.9035	2,462.4	85.0733	2,462.4	83.4631	2,462.4	83.8163	2,462.4	82.0022	2,462.4	81.9412	2,462.4	80.1175	2,462.4	79.9971	2,462.4	77.5838	2,462.4	77.9656	2,462.4	74.5231	2,462.4	75.3207	2,462.4	73.9234	2,462.4	74.1425	2,462.4	72.0257	2,462.4	72.8683	2,462.4	71.4347	2,462.4	70.0636	2,462.4	71.6159	2,462.4	71.4422	2,462.4	70.7388	2,462.4	71.5028	2,462.4	72.5249	2,462.4	70.2518	2,462.4	69.1911	2,462.4	71.8628	2,462.4	66.2183	2,462.4	67.6625	2,462.4	66.3563
2,548.83	86.0005	2,548.83	85.9965	2,548.83	85.9614	2,548.83	85.6164	2,548.83	85.7251	2,548.83	85.2991	2,548.83	85.2633	2,548.83	84.4651	2,548.83	84.6687	2,548.83	82.9533	2,548.83	83.6369	2,548.83	80.9228	2,548.83	82.0815	2,548.83	79.4934	2,548.83	80.0397	2,548.83	77.6348	2,548.83	78.087	2,548.83	75.1338	2,548.83	75.8615	2,548.83	74.1454	2,548.83	73.4707	2,548.83	71.963	2,548.83	72.9681	2,548.83	71.5377	2,548.83	69.3452	2,548.83	72.0313	2,548.83	70.4952	2,548.83	71.186	2,548.83	70.2812	2,548.83	72.0317	2,548.83	70.7242	2,548.83	68.7805	2,548.83	71.7364	2,548.83	56.2115	2,548.83	66.2003	2,548.83	62.583
2,639.65	86.2439	2,639.65	86.3988	2,639.65	86.1182	2,639.65	86.2445	2,639.65	86.08	2,639.65	85.5827	2,639.65	85.7098	2,639.65	84.6639	2,639.65	84.9419	2,639.65	83.2995	2,639.65	83.9187	2,639.65	81.072	2,639.65	82.4911	2,639.65	78.8522	2,639.65	80.3997	2,639.65	76.9217	2,639.65	78.6714	2,639.65	74.2434	2,639.65	76.6789	2,639.65	73.3896	2,639.65	73.9828	2,639.65	71.945	2,639.65	73.1077	2,639.65	70.1879	2,639.65	70.4124	2,639.65	71.7354	2,639.65	70.7586	2,639.65	69.4474	2,639.65	70.8163	2,639.65	71.0776	2,639.65	69.7394	2,639.65	68.4678	2,639.65	72.2266	2,639.65	66.1575	2,639.65	66.0769	2,639.65	65.8679
2,731.93	85.7405	2,731.93	85.9892	2,731.93	85.5862	2,731.93	86.0808	2,731.93	85.5832	2,731.93	85.4866	2,731.93	85.3633	2,731.93	84.4641	2,731.93	84.5525	2,731.93	83.1304	2,731.93	83.5065	2,731.93	81.0766	2,731.93	81.9466	2,731.93	79.0276	2,731.93	79.6275	2,731.93	77.0402	2,731.93	77.6623	2,731.93	74.2146	2,731.93	75.9319	2,731.93	73.1218	2,731.93	73.2657	2,731.93	72.6786	2,731.93	72.4748	2,731.93	69.142	2,731.93	70.0386	2,731.93	71.6643	2,731.93	66.9856	2,731.93	70.4709	2,731.93	70.1444	2,731.93	70.7649	2,731.93	69.0827	2,731.93	68.184	2,731.93	70.2001	2,731.93	60.3327	2,731.93	65.092	2,731.93	61.4789
2,828.61	85.0388	2,828.61	85.1953	2,828.61	84.9417	2,828.61	85.4341	2,828.61	85.052	2,828.61	84.9411	2,828.61	85.0926	2,828.61	83.8883	2,828.61	84.4225	2,828.61	82.5191	2,828.61	83.2092	2,828.61	80.6857	2,828.61	81.6233	2,828.61	78.5672	2,828.61	79.561	2,828.61	76.4836	2,828.61	76.8636	2,828.61	74.433	2,828.61	74.9534	2,828.61	72.5089	2,828.61	72.5078	2,828.61	71.6341	2,828.61	71.3064	2,828.61	69.9837	2,828.61	69.6224	2,828.61	70.1092	2,828.61	68.9375	2,828.61	69.499	2,828.61	70.0317	2,828.61	70.6853	2,828.61	67.3995	2,828.61	68.1341	2,828.61	70.3613	2,828.61	64.5444	2,828.61	66.8946	2,828.61	58.3475
2,928.22	84.6961	2,928.22	85.0765	2,928.22	84.5993	2,928.22	85.2881	2,928.22	84.7391	2,928.22	85.009	2,928.22	84.754	2,928.22	84.0435	2,928.22	84.0893	2,928.22	82.5869	2,928.22	82.9058	2,928.22	80.8597	2,928.22	81.2926	2,928.22	78.3589	2,928.22	79.3082	2,928.22	76.2627	2,928.22	76.6467	2,928.22	74.5416	2,928.22	74.5983	2,928.22	72.094	2,928.22	72.0181	2,928.22	71.1575	2,928.22	70.308	2,928.22	69.1399	2,928.22	70.0108	2,928.22	70.4436	2,928.22	68.0154	2,928.22	70.2167	2,928.22	71.0266	2,928.22	70.0351	2,928.22	69.2884	2,928.22	68.0626	2,928.22	69.7659	2,928.22	58.8105	2,928.22	66.246	2,928.22	60.0621
3,030.76	84.2558	3,030.76	84.6434	3,030.76	84.1134	3,030.76	84.9232	3,030.76	84.3828	3,030.76	84.7141	3,030.76	84.2831	3,030.76	83.6717	3,030.76	83.8037	3,030.76	81.9858	3,030.76	82.3964	3,030.76	80.3208	3,030.76	80.3863	3,030.76	78.2085	3,030.76	78.5746	3,030.76	75.899	3,030.76	76.6722	3,030.76	73.9855	3,030.76	74.3397	3,030.76	71.6742	3,030.76	72.5102	3,030.76	70.7635	3,030.76	70.3292	3,030.76	69.8007	3,030.76	70.5663	3,030.76	70.3259	3,030.76	68.1908	3,030.76	70.6235	3,030.76	69.8898	3,030.76	70.3043	3,030.76	69.0665	3,030.76	68.8418	3,030.76	69.703	3,030.76	62.3581	3,030.76	66.2676	3,030.76	61.4978
3,137.7	84.879	3,137.7	85.2291	3,137.7	84.7907	3,137.7	85.5531	3,137.7	84.9457	3,137.7	85.2	3,137.7	84.78	3,137.7	84.0776	3,137.7	84.0716	3,137.7	82.3565	3,137.7	82.4554	3,137.7	80.1724	3,137.7	80.8454	3,137.7	77.9572	3,137.7	78.5028	3,137.7	76.0887	3,137.7	76.5005	3,137.7	73.597	3,137.7	74.225	3,137.7	71.5411	3,137.7	72.162	3,137.7	71.4283	3,137.7	69.9871	3,137.7	70.5376	3,137.7	69.9413	3,137.7	69.8971	3,137.7	68.0657	3,137.7	70.8183	3,137.7	69.8436	3,137.7	70.2139	3,137.7	69.7989	3,137.7	69.2623	3,137.7	69.5542	3,137.7	63.0322	3,137.7	67.3428	3,137.7	60.9085
3,249.02	84.6544	3,249.02	84.9982	3,249.02	84.6046	3,249.02	85.342	3,249.02	84.8053	3,249.02	84.87	3,249.02	84.8924	3,249.02	83.8707	3,249.02	84.1722	3,249.02	81.9416	3,249.02	82.5025	3,249.02	80.0552	3,249.02	80.6084	3,249.02	77.9959	3,249.02	78.7456	3,249.02	76.1553	3,249.02	76.1201	3,249.02	73.6897	3,249.02	74.3182	3,249.02	71.8317	3,249.02	71.8465	3,249.02	70.5855	3,249.02	70.0396	3,249.02	69.8785	3,249.02	68.962	3,249.02	69.2559	3,249.02	68.2056	3,249.02	70.4324	3,249.02	69.2553	3,249.02	69.8604	3,249.02	70.0619	3,249.02	69.6349	3,249.02	69.4454	3,249.02	59.0473	3,249.02	67.5376	3,249.02	58.1982
3,363.28	84.297	3,363.28	84.5984	3,363.28	84.3613	3,363.28	84.9463	3,363.28	84.8262	3,363.28	84.5433	3,363.28	85.0625	3,363.28	83.4136	3,363.28	84.2131	3,363.28	81.611	3,363.28	82.7528	3,363.28	79.6517	3,363.28	80.6853	3,363.28	77.4703	3,363.28	79.153	3,363.28	75.5265	3,363.28	77.1806	3,363.28	73.7261	3,363.28	74.7638	3,363.28	72.1072	3,363.28	72.6267	3,363.28	70.2866	3,363.28	70.4389	3,363.28	70.6488	3,363.28	69.3833	3,363.28	68.4553	3,363.28	70.2762	3,363.28	70.4084	3,363.28	67.4284	3,363.28	69.5978	3,363.28	69.8149	3,363.28	68.2533	3,363.28	69.5097	3,363.28	57.3384	3,363.28	66.992	3,363.28	55.1305
3,481.93	84.0563	3,481.93	84.4086	3,481.93	84.1734	3,481.93	84.7283	3,481.93	84.5131	3,481.93	84.3186	3,481.93	84.6434	3,481.93	82.9815	3,481.93	83.7035	3,481.93	81.6612	3,481.93	82.5211	3,481.93	79.4601	3,481.93	80.955	3,481.93	77.2974	3,481.93	78.6846	3,481.93	74.7499	3,481.93	76.3292	3,481.93	73.5095	3,481.93	74.2922	3,481.93	70.9157	3,481.93	72.6863	3,481.93	69.6481	3,481.93	70.703	3,481.93	69.0713	3,481.93	69.5363	3,481.93	67.905	3,481.93	69.3645	3,481.93	70.1851	3,481.93	67.9091	3,481.93	68.3876	3,481.93	69.7596	3,481.93	67.8174	3,481.93	68.8327	3,481.93	55.8622	3,481.93	66.4933	3,481.93	55.2653
3,604.98	84.6326	3,604.98	84.6754	3,604.98	84.6837	3,604.98	84.6824	3,604.98	84.7129	3,604.98	84.421	3,604.98	84.3145	3,604.98	83.3226	3,604.98	83.6821	3,604.98	81.3324	3,604.98	82.2451	3,604.98	79.932	3,604.98	80.8454	3,604.98	78.0863	3,604.98	78.6404	3,604.98	76.17	3,604.98	76.9862	3,604.98	73.2021	3,604.98	74.4486	3,604.98	70.637	3,604.98	72.5996	3,604.98	69.8739	3,604.98	70.0515	3,604.98	69.7675	3,604.98	69.1385	3,604.98	67.877	3,604.98	67.9536	3,604.98	69.7308	3,604.98	68.6631	3,604.98	68.4557	3,604.98	70.1294	3,604.98	68.4785	3,604.98	68.2118	3,604.98	52.6286	3,604.98	67.0362	3,604.98	52.2631
3,732.42	85.0856	3,732.42	85.0268	3,732.42	84.9553	3,732.42	84.9005	3,732.42	84.631	3,732.42	84.1623	3,732.42	84.6027	3,732.42	83.4319	3,732.42	83.658	3,732.42	82.2344	3,732.42	82.7808	3,732.42	79.7537	3,732.42	80.7857	3,732.42	78.0602	3,732.42	78.7784	3,732.42	76.0171	3,732.42	76.667	3,732.42	73.9381	3,732.42	74.6035	3,732.42	73.303	3,732.42	72.9756	3,732.42	72.0366	3,732.42	70.318	3,732.42	70.381	3,732.42	70.3598	3,732.42	69.3339	3,732.42	68.6981	3,732.42	70.2794	3,732.42	68.2749	3,732.42	68.6654	3,732.42	69.6672	3,732.42	68.2549	3,732.42	67.3221	3,732.42	48.3648	3,732.42	66.842	3,732.42	48.4114
3,864.26	85.6585	3,864.26	85.8583	3,864.26	85.6527	3,864.26	85.2686	3,864.26	85.7225	3,864.26	85.2152	3,864.26	85.1198	3,864.26	83.6803	3,864.26	84.1435	3,864.26	82.6746	3,864.26	82.7597	3,864.26	80.385	3,864.26	81.6353	3,864.26	78.5021	3,864.26	79.7849	3,864.26	74.9759	3,864.26	77.4138	3,864.26	73.5206	3,864.26	74.9016	3,864.26	71.1077	3,864.26	73.4314	3,864.26	69.9091	3,864.26	71.4093	3,864.26	67.7663	3,864.26	70.4773	3,864.26	70.4664	3,864.26	69.0277	3,864.26	70.725	3,864.26	67.9665	3,864.26	67.3008	3,864.26	70.2423	3,864.26	67.9187	3,864.26	67.7869	3,864.26	53.5625	3,864.26	67.2054	3,864.26	52.0916
4,000.49	86.6187	4,000.49	85.8953	4,000.49	86.6123	4,000.49	85.5538	4,000.49	86.2339	4,000.49	84.7754	4,000.49	85.1689	4,000.49	84.0687	4,000.49	84.6207	4,000.49	81.7974	4,000.49	83.4667	4,000.49	81.4352	4,000.49	82.2047	4,000.49	78.8666	4,000.49	79.8906	4,000.49	77.6379	4,000.49	78.4148	4,000.49	74.2654	4,000.49	75.4969	4,000.49	72.4592	4,000.49	73.8712	4,000.49	70.4312	4,000.49	69.6622	4,000.49	70.8887	4,000.49	69.8721	4,000.49	70.3626	4,000.49	67.8898	4,000.49	70.2358	4,000.49	71.1363	4,000.49	69.7133	4,000.49	70.9014	4,000.49	68.4417	4,000.49	68.257	4,000.49	57.6731	4,000.49	68.3111	4,000.49	53.988
4,141.11	87.0752	4,141.11	86.5657	4,141.11	86.8526	4,141.11	85.8166	4,141.11	85.8878	4,141.11	84.6556	4,141.11	85.4126	4,141.11	83.4594	4,141.11	84.8195	4,141.11	83.5187	4,141.11	84.2815	4,141.11	80.9059	4,141.11	82.0969	4,141.11	79.5185	4,141.11	81.2343	4,141.11	76.9144	4,141.11	78.1406	4,141.11	73.9449	4,141.11	75.7098	4,141.11	72.1248	4,141.11	73.7975	4,141.11	71.4805	4,141.11	72.6383	4,141.11	70.2235	4,141.11	71.3262	4,141.11	68.1668	4,141.11	70.2623	4,141.11	70.5761	4,141.11	68.4393	4,141.11	69.5134	4,141.11	70.6878	4,141.11	67.4436	4,141.11	68.7011	4,141.11	59.8753	4,141.11	67.7495	4,141.11	54.8347
4,287.6	86.0557	4,287.6	85.169	4,287.6	86.2318	4,287.6	83.9108	4,287.6	85.818	4,287.6	84.4724	4,287.6	84.84	4,287.6	84.0051	4,287.6	84.3803	4,287.6	81.9175	4,287.6	83.1982	4,287.6	81.0117	4,287.6	83.1361	4,287.6	78.1772	4,287.6	80.2697	4,287.6	74.8001	4,287.6	78.086	4,287.6	73.3714	4,287.6	75.8862	4,287.6	72.9512	4,287.6	72.8323	4,287.6	69.4837	4,287.6	70.244	4,287.6	67.8852	4,287.6	69.6845	4,287.6	70.5863	4,287.6	69.1989	4,287.6	70.5932	4,287.6	68.8478	4,287.6	69.737	4,287.6	70.0512	4,287.6	68.8142	4,287.6	69.1014	4,287.6	56.117	4,287.6	68.831	4,287.6	55.1272
4,438.48	86.2745	4,438.48	84.8308	4,438.48	86.2417	4,438.48	84.6223	4,438.48	85.0274	4,438.48	83.2602	4,438.48	84.0773	4,438.48	83.5683	4,438.48	84.1089	4,438.48	83.0906	4,438.48	84.357	4,438.48	80.8576	4,438.48	82.3362	4,438.48	78.5651	4,438.48	80.665	4,438.48	77.0395	4,438.48	78.9339	4,438.48	73.7495	4,438.48	75.4415	4,438.48	70.4761	4,438.48	72.7553	4,438.48	68.4418	4,438.48	71.0362	4,438.48	69.1217	4,438.48	69.7706	4,438.48	68.4283	4,438.48	69.5948	4,438.48	70.0788	4,438.48	68.9462	4,438.48	69.4048	4,438.48	71.1551	4,438.48	65.3086	4,438.48	69.0271	4,438.48	62.5838	4,438.48	67.0797	4,438.48	50.0319
4,595.21	85.5634	4,595.21	85.6128	4,595.21	85.3032	4,595.21	83.7474	4,595.21	84.49	4,595.21	84.6796	4,595.21	84.151	4,595.21	84.1238	4,595.21	84.6619	4,595.21	82.9877	4,595.21	83.5914	4,595.21	80.8825	4,595.21	82.8754	4,595.21	79.9741	4,595.21	81.0135	4,595.21	76.4407	4,595.21	77.2641	4,595.21	73.8393	4,595.21	75.7147	4,595.21	72.1678	4,595.21	72.5185	4,595.21	72.0913	4,595.21	71.6914	4,595.21	69.366	4,595.21	69.4129	4,595.21	68.7564	4,595.21	68.4108	4,595.21	69.7672	4,595.21	69.1279	4,595.21	70.1794	4,595.21	71.3926	4,595.21	68.5913	4,595.21	68.7465	4,595.21	53.1126	4,595.21	67.1823	4,595.21	60.089
4,756.35	85.9613	4,756.35	83.6141	4,756.35	85.8714	4,756.35	83.9759	4,756.35	84.2624	4,756.35	84.1079	4,756.35	84.082	4,756.35	85.4839	4,756.35	84.3656	4,756.35	84.1808	4,756.35	84.7958	4,756.35	82.7358	4,756.35	83.0177	4,756.35	78.8068	4,756.35	80.8083	4,756.35	76.5509	4,756.35	79.0532	4,756.35	73.7386	4,756.35	75.9189	4,756.35	72.583	4,756.35	73.6609	4,756.35	68.6876	4,756.35	71.2439	4,756.35	70.5787	4,756.35	68.8114	4,756.35	69.3424	4,756.35	68.3267	4,756.35	70.1577	4,756.35	69.5474	4,756.35	70.2307	4,756.35	70.6664	4,756.35	66.539	4,756.35	69.5113	4,756.35	58.7606	4,756.35	65.7874	4,756.35	51.5792
4,924.8	85.0576	4,924.8	84.8162	4,924.8	85.2353	4,924.8	83.6755	4,924.8	84.6825	4,924.8	84.8107	4,924.8	84.5738	4,924.8	84.3659	4,924.8	85.8175	4,924.8	83.7414	4,924.8	85.2027	4,924.8	81.115	4,924.8	83.9923	4,924.8	80.1699	4,924.8	81.7352	4,924.8	77.3792	4,924.8	78.8497	4,924.8	75.8683	4,924.8	77.2476	4,924.8	71.5195	4,924.8	74.1246	4,924.8	70.9632	4,924.8	71.1965	4,924.8	69.3673	4,924.8	71.1106	4,924.8	69.66	4,924.8	69.9703	4,924.8	70.2514	4,924.8	69.8248	4,924.8	70.5737	4,924.8	71.4822	4,924.8	65.239	4,924.8	70.1499	4,924.8	45.8624	4,924.8	68.3436	4,924.8	61.5559
5,097.66	84.8691	5,097.66	82.9434	5,097.66	84.9057	5,097.66	83.5073	5,097.66	83.1756	5,097.66	84.7217	5,097.66	83.5693	5,097.66	85.8479	5,097.66	84.4267	5,097.66	84.5252	5,097.66	84.8248	5,097.66	83.4135	5,097.66	83.7875	5,097.66	80.5785	5,097.66	82.0635	5,097.66	77.6483	5,097.66	79.8195	5,097.66	74.4242	5,097.66	77.1012	5,097.66	72.7832	5,097.66	74.8281	5,097.66	70.8614	5,097.66	73.3527	5,097.66	69.2956	5,097.66	70.3439	5,097.66	70.7556	5,097.66	69.3714	5,097.66	70.6897	5,097.66	69.0218	5,097.66	72.0035	5,097.66	70.5687	5,097.66	65.9677	5,097.66	70.6797	5,097.66	53.2747	5,097.66	64.995	5,097.66	63.1491
5,277.83	85.1909	5,277.83	84.6642	5,277.83	85.1295	5,277.83	83.9672	5,277.83	84.2472	5,277.83	85.1235	5,277.83	84.3392	5,277.83	85.0577	5,277.83	85.5364	5,277.83	84.7096	5,277.83	85.23	5,277.83	82.1909	5,277.83	84.1676	5,277.83	80.4945	5,277.83	82.2844	5,277.83	78.1549	5,277.83	79.8188	5,277.83	76.114	5,277.83	77.6482	5,277.83	72.6666	5,277.83	74.4447	5,277.83	71.1735	5,277.83	71.9708	5,277.83	69.6827	5,277.83	69.9047	5,277.83	70.5287	5,277.83	69.3834	5,277.83	70.054	5,277.83	69.8797	5,277.83	71.2415	5,277.83	69.9908	5,277.83	63.6628	5,277.83	70.1183	5,277.83	51.5657	5,277.83	64.5862	5,277.83	61.312
5,463.87	84.7217	5,463.87	83.7868	5,463.87	84.9629	5,463.87	84.2582	5,463.87	84.1637	5,463.87	84.6135	5,463.87	84.2509	5,463.87	85.2785	5,463.87	84.8955	5,463.87	84.1054	5,463.87	85.0601	5,463.87	83.0515	5,463.87	84.3289	5,463.87	81.0292	5,463.87	82.8937	5,463.87	78.6101	5,463.87	80.3088	5,463.87	76.1971	5,463.87	77.484	5,463.87	73.4002	5,463.87	75.3336	5,463.87	71.9274	5,463.87	72.9018	5,463.87	69.5733	5,463.87	71.3969	5,463.87	69.6992	5,463.87	69.2292	5,463.87	69.1823	5,463.87	70.0009	5,463.87	71.2837	5,463.87	69.6229	5,463.87	65.4221	5,463.87	70.3841	5,463.87	55.1663	5,463.87	62.6453	5,463.87	63.5629
5,657.23	84.4032	5,657.23	84.7324	5,657.23	84.5728	5,657.23	84.3074	5,657.23	84.3045	5,657.23	84.7902	5,657.23	84.4018	5,657.23	84.9459	5,657.23	84.8456	5,657.23	84.951	5,657.23	84.7779	5,657.23	83.4322	5,657.23	84.0374	5,657.23	81.1118	5,657.23	82.4147	5,657.23	78.3286	5,657.23	79.6241	5,657.23	74.9792	5,657.23	76.7779	5,657.23	72.0221	5,657.23	73.5295	5,657.23	70.938	5,657.23	71.837	5,657.23	68.3165	5,657.23	69.8397	5,657.23	69.5021	5,657.23	69.1472	5,657.23	68.8822	5,657.23	69.4306	5,657.23	69.887	5,657.23	69.5086	5,657.23	63.655	5,657.23	69.3416	5,657.23	51.1599	5,657.23	62.2346	5,657.23	64.114
5,856.45	84.7048	5,856.45	85.0234	5,856.45	84.932	5,856.45	84.9959	5,856.45	85.0015	5,856.45	84.261	5,856.45	84.1055	5,856.45	84.7833	5,856.45	84.2104	5,856.45	83.9184	5,856.45	84.3799	5,856.45	82.4258	5,856.45	83.8903	5,856.45	80.0099	5,856.45	82.2368	5,856.45	77.2321	5,856.45	79.6346	5,856.45	75.0298	5,856.45	76.7631	5,856.45	71.9563	5,856.45	73.7232	5,856.45	71.3168	5,856.45	71.9793	5,856.45	70.3139	5,856.45	69.1944	5,856.45	69.7022	5,856.45	68.5624	5,856.45	69.9678	5,856.45	69.1511	5,856.45	69.7983	5,856.45	68.9842	5,856.45	62.8147	5,856.45	70.1587	5,856.45	51.7059	5,856.45	58.9188	5,856.45	62.7581
6,062.99	84.4154	6,062.99	85.3569	6,062.99	84.4231	6,062.99	84.3543	6,062.99	85.2733	6,062.99	83.2956	6,062.99	84.5637	6,062.99	83.9797	6,062.99	84.1826	6,062.99	84.2984	6,062.99	84.2622	6,062.99	82.4533	6,062.99	83.9422	6,062.99	80.77	6,062.99	82.2786	6,062.99	77.8851	6,062.99	79.5266	6,062.99	74.6704	6,062.99	76.1785	6,062.99	73.2082	6,062.99	73.6338	6,062.99	70.8117	6,062.99	71.1996	6,062.99	70.0974	6,062.99	68.8912	6,062.99	69.789	6,062.99	67.9814	6,062.99	69.5735	6,062.99	69.7368	6,062.99	69.9559	6,062.99	68.5424	6,062.99	62.6443	6,062.99	69.3918	6,062.99	56.0384	6,062.99	59.4685	6,062.99	62.7546
6,276.86	83.7199	6,276.86	84.966	6,276.86	84.6398	6,276.86	84.1788	6,276.86	85.1365	6,276.86	83.2578	6,276.86	83.5848	6,276.86	84.0263	6,276.86	82.9417	6,276.86	84.3812	6,276.86	83.8106	6,276.86	83.482	6,276.86	83.8017	6,276.86	81.1819	6,276.86	82.095	6,276.86	77.24	6,276.86	79.6535	6,276.86	74.7356	6,276.86	76.7515	6,276.86	72.0696	6,276.86	73.8481	6,276.86	70.1985	6,276.86	71.86	6,276.86	69.3138	6,276.86	69.1129	6,276.86	69.065	6,276.86	68.6393	6,276.86	70.0162	6,276.86	68.8883	6,276.86	69.214	6,276.86	68.928	6,276.86	61.2667	6,276.86	70.4777	6,276.86	60.5154	6,276.86	59.3914	6,276.86	64.3688
6,498.05	84.3495	6,498.05	85.6783	6,498.05	84.3782	6,498.05	84.2553	6,498.05	85.435	6,498.05	83.0114	6,498.05	83.5732	6,498.05	84.5424	6,498.05	82.8422	6,498.05	84.6724	6,498.05	83.8992	6,498.05	83.0306	6,498.05	84.0981	6,498.05	80.6524	6,498.05	82.4439	6,498.05	77.1623	6,498.05	79.9313	6,498.05	74.3933	6,498.05	77.17	6,498.05	72.7018	6,498.05	74.5179	6,498.05	69.8607	6,498.05	71.3128	6,498.05	68.0878	6,498.05	68.5847	6,498.05	69.8335	6,498.05	69.5008	6,498.05	70.4046	6,498.05	68.4996	6,498.05	70.5289	6,498.05	69.3986	6,498.05	58.9319	6,498.05	69.8904	6,498.05	61.2321	6,498.05	59.3284	6,498.05	65.6806
6,726.56	84.5153	6,726.56	85.8973	6,726.56	85.1137	6,726.56	84.801	6,726.56	85.713	6,726.56	83.8307	6,726.56	84.1188	6,726.56	84.8351	6,726.56	83.6955	6,726.56	84.7913	6,726.56	84.7598	6,726.56	83.185	6,726.56	84.4337	6,726.56	80.6895	6,726.56	82.2778	6,726.56	77.9734	6,726.56	80.2255	6,726.56	75.389	6,726.56	77.4006	6,726.56	72.6336	6,726.56	74.0749	6,726.56	70.2327	6,726.56	71.8932	6,726.56	67.4212	6,726.56	69.2623	6,726.56	69.6467	6,726.56	68.8922	6,726.56	70.5471	6,726.56	69.6122	6,726.56	69.2094	6,726.56	69.5179	6,726.56	60.1089	6,726.56	70.4358	6,726.56	60.619	6,726.56	58.4991	6,726.56	65.1019
6,963.87	84.4995	6,963.87	85.6131	6,963.87	84.9883	6,963.87	84.9243	6,963.87	85.716	6,963.87	84.1425	6,963.87	84.8097	6,963.87	84.9604	6,963.87	84.3288	6,963.87	84.8792	6,963.87	85.0036	6,963.87	83.3009	6,963.87	84.0994	6,963.87	81.1936	6,963.87	82.7646	6,963.87	78.4872	6,963.87	80.5913	6,963.87	75.5588	6,963.87	77.4736	6,963.87	71.754	6,963.87	74.0353	6,963.87	69.6769	6,963.87	71.5995	6,963.87	67.3179	6,963.87	69.2812	6,963.87	68.786	6,963.87	67.4398	6,963.87	69.3979	6,963.87	69.175	6,963.87	70.2422	6,963.87	69.2777	6,963.87	61.0654	6,963.87	69.4122	6,963.87	60.4049	6,963.87	57.4057	6,963.87	63.6999
7,209.96	84.5873	7,209.96	85.4601	7,209.96	85.0865	7,209.96	85.0594	7,209.96	85.2985	7,209.96	84.4496	7,209.96	84.7366	7,209.96	84.7488	7,209.96	84.0753	7,209.96	84.7576	7,209.96	84.7706	7,209.96	83.5529	7,209.96	84.1379	7,209.96	81.341	7,209.96	82.9706	7,209.96	79.295	7,209.96	80.3108	7,209.96	75.6798	7,209.96	77.0849	7,209.96	72.3335	7,209.96	73.8744	7,209.96	69.2838	7,209.96	71.6687	7,209.96	67.4316	7,209.96	69.9381	7,209.96	68.9036	7,209.96	66.4065	7,209.96	68.7679	7,209.96	68.9354	7,209.96	68.7827	7,209.96	68.3158	7,209.96	59.4066	7,209.96	69.3957	7,209.96	61.0973	7,209.96	56.3233	7,209.96	65.2823
7,464.84	84.4398	7,464.84	84.6493	7,464.84	84.0913	7,464.84	84.6046	7,464.84	84.4557	7,464.84	83.775	7,464.84	84.5149	7,464.84	83.6677	7,464.84	83.4456	7,464.84	84.1788	7,464.84	83.9139	7,464.84	83.5265	7,464.84	84.075	7,464.84	81.4224	7,464.84	82.9247	7,464.84	78.9483	7,464.84	79.9437	7,464.84	75.3672	7,464.84	76.6253	7,464.84	72.9333	7,464.84	73.5436	7,464.84	69.9585	7,464.84	71.4013	7,464.84	68.0846	7,464.84	68.612	7,464.84	69.7858	7,464.84	66.7364	7,464.84	69.4804	7,464.84	67.8087	7,464.84	69.3128	7,464.84	68.1367	7,464.84	59.7321	7,464.84	67.7027	7,464.84	62.6822	7,464.84	59.3135	7,464.84	60.5136
7,727.05	84.2591	7,727.05	83.5215	7,727.05	83.6653	7,727.05	84.4557	7,727.05	83.529	7,727.05	83.2522	7,727.05	84.1154	7,727.05	83.2821	7,727.05	82.9271	7,727.05	84.0915	7,727.05	83.2684	7,727.05	83.5509	7,727.05	84.0653	7,727.05	81.5251	7,727.05	83.0579	7,727.05	78.4652	7,727.05	80.4585	7,727.05	75.1128	7,727.05	76.774	7,727.05	72.4108	7,727.05	73.3676	7,727.05	70.1816	7,727.05	70.9855	7,727.05	68.3121	7,727.05	66.9321	7,727.05	69.0011	7,727.05	65.7484	7,727.05	68.7226	7,727.05	67.894	7,727.05	67.7996	7,727.05	68.064	7,727.05	59.195	7,727.05	65.7498	7,727.05	60.5926	7,727.05	59.0466	7,727.05	60.2181
7,999.51	84.6669	7,999.51	83.2226	7,999.51	83.9132	7,999.51	84.7602	7,999.51	83.3923	7,999.51	83.3321	7,999.51	84.4567	7,999.51	83.2599	7,999.51	83.0529	7,999.51	84.671	7,999.51	83.5728	7,999.51	83.6278	7,999.51	84.3362	7,999.51	80.9263	7,999.51	82.8216	7,999.51	77.4881	7,999.51	80.1508	7,999.51	74.4474	7,999.51	77.0594	7,999.51	71.1504	7,999.51	73.4209	7,999.51	68.489	7,999.51	70.502	7,999.51	66.8619	7,999.51	67.4266	7,999.51	67.1996	7,999.51	66.1274	7,999.51	69.2265	7,999.51	68.4214	7,999.51	66.1679	7,999.51	68.1175	7,999.51	51.8346	7,999.51	65.1542	7,999.51	59.2108	7,999.51	56.4975	7,999.51	60.0147
8,282.23	85.5096	8,282.23	84.238	8,282.23	84.8608	8,282.23	85.0043	8,282.23	84.5792	8,282.23	83.2893	8,282.23	85.0409	8,282.23	83.064	8,282.23	83.1321	8,282.23	84.4011	8,282.23	83.6023	8,282.23	83.2213	8,282.23	84.752	8,282.23	80.1331	8,282.23	82.9819	8,282.23	77.8565	8,282.23	80.0731	8,282.23	74.2378	8,282.23	76.9682	8,282.23	70.1246	8,282.23	72.8538	8,282.23	67.6922	8,282.23	70.6422	8,282.23	66.6834	8,282.23	67.7319	8,282.23	67.0874	8,282.23	66.2724	8,282.23	68.8596	8,282.23	68.6246	8,282.23	67.1962	8,282.23	68.6238	8,282.23	52.672	8,282.23	65.1781	8,282.23	60.1849	8,282.23	56.4274	8,282.23	58.7224
8,573.73	85.8645	8,573.73	84.5963	8,573.73	85.6805	8,573.73	84.9042	8,573.73	84.891	8,573.73	83.7119	8,573.73	85.4767	8,573.73	83.2039	8,573.73	83.5172	8,573.73	84.0306	8,573.73	83.9763	8,573.73	82.7714	8,573.73	84.5041	8,573.73	80.3765	8,573.73	82.7664	8,573.73	78.0846	8,573.73	79.9999	8,573.73	73.484	8,573.73	76.7	8,573.73	71.1661	8,573.73	72.8257	8,573.73	67.5561	8,573.73	70.495	8,573.73	67.127	8,573.73	67.4842	8,573.73	67.3108	8,573.73	65.5818	8,573.73	68.1468	8,573.73	68.0219	8,573.73	66.2616	8,573.73	68.6831	8,573.73	52.8428	8,573.73	66.1524	8,573.73	59.055	8,573.73	56.8719	8,573.73	57.3374
8,876.95	85.6507	8,876.95	84.8186	8,876.95	85.6468	8,876.95	84.8262	8,876.95	84.933	8,876.95	84.0362	8,876.95	85.3275	8,876.95	83.1745	8,876.95	83.9486	8,876.95	83.3238	8,876.95	83.939	8,876.95	82.5064	8,876.95	83.8119	8,876.95	80.3825	8,876.95	82.3222	8,876.95	77.7826	8,876.95	79.7984	8,876.95	73.9025	8,876.95	76.4505	8,876.95	71.6792	8,876.95	73.4016	8,876.95	67.2899	8,876.95	70.5091	8,876.95	66.1679	8,876.95	67.5592	8,876.95	67.0643	8,876.95	65.5389	8,876.95	69.6165	8,876.95	66.8482	8,876.95	65.0332	8,876.95	68.9133	8,876.95	55.5745	8,876.95	63.898	8,876.95	59.2481	8,876.95	60.0652	8,876.95	55.735
9,188.96	85.538	9,188.96	85.2096	9,188.96	85.4399	9,188.96	84.6716	9,188.96	84.9405	9,188.96	84.2268	9,188.96	84.8954	9,188.96	82.8251	9,188.96	84.078	9,188.96	82.6305	9,188.96	82.9051	9,188.96	82.3217	9,188.96	82.8584	9,188.96	80.3488	9,188.96	82.0183	9,188.96	77.0579	9,188.96	80.23	9,188.96	73.803	9,188.96	77.0149	9,188.96	70.5258	9,188.96	72.9186	9,188.96	67.1573	9,188.96	69.8804	9,188.96	64.6171	9,188.96	66.5933	9,188.96	67.0322	9,188.96	63.8531	9,188.96	68.1812	9,188.96	66.9718	9,188.96	64.7852	9,188.96	68.8267	9,188.96	53.474	9,188.96	62.5991	9,188.96	59.7605	9,188.96	58.1566	9,188.96	55.3678
9,514.16	85.3861	9,514.16	85.4723	9,514.16	85.1363	9,514.16	84.2816	9,514.16	84.7203	9,514.16	84.7019	9,514.16	84.5233	9,514.16	82.6661	9,514.16	84.0519	9,514.16	82.2711	9,514.16	82.3197	9,514.16	81.8701	9,514.16	82.5228	9,514.16	79.7018	9,514.16	82.0009	9,514.16	77.0608	9,514.16	79.3818	9,514.16	72.7129	9,514.16	76.3563	9,514.16	68.4845	9,514.16	71.7411	9,514.16	66.2884	9,514.16	69.3402	9,514.16	61.6621	9,514.16	64.0563	9,514.16	67.2214	9,514.16	63.2777	9,514.16	66.6554	9,514.16	66.6817	9,514.16	63.8441	9,514.16	67.1982	9,514.16	52.9424	9,514.16	61.0001	9,514.16	59.9188	9,514.16	59.1312	9,514.16	54.6291
9,849.61	85.3224	9,849.61	85.5171	9,849.61	85.293	9,849.61	84.323	9,849.61	84.2903	9,849.61	85.0622	9,849.61	84.6517	9,849.61	82.7913	9,849.61	83.7896	9,849.61	82.2364	9,849.61	82.1772	9,849.61	81.8906	9,849.61	82.4744	9,849.61	78.5886	9,849.61	81.3886	9,849.61	76.9967	9,849.61	77.6514	9,849.61	71.7674	9,849.61	74.1774	9,849.61	67.3557	9,849.61	71.6006	9,849.61	65.9188	9,849.61	67.578	9,849.61	61.9648	9,849.61	65.5212	9,849.61	65.2577	9,849.61	61.8813	9,849.61	64.5337	9,849.61	64.4172	9,849.61	61.8633	9,849.61	66.557	9,849.61	55.6448	9,849.61	57.3484	9,849.61	58.9356	9,849.61	59.37	9,849.61	55.0185
10,196.8	85.5785	10,196.8	85.5015	10,196.8	85.8971	10,196.8	84.9763	10,196.8	84.3626	10,196.8	85.0109	10,196.8	84.3052	10,196.8	83.162	10,196.8	83.2046	10,196.8	82.3703	10,196.8	82.1708	10,196.8	81.6758	10,196.8	82.3308	10,196.8	78.5943	10,196.8	80.4436	10,196.8	75.5305	10,196.8	78.2244	10,196.8	72.0558	10,196.8	73.633	10,196.8	67.713	10,196.8	71.6115	10,196.8	65.999	10,196.8	65.9482	10,196.8	61.6265	10,196.8	64.8379	10,196.8	62.5068	10,196.8	58.1569	10,196.8	65.1899	10,196.8	63.2529	10,196.8	60.4126	10,196.8	66.3127	10,196.8	52.4101	10,196.8	50.6158	10,196.8	58.9446	10,196.8	59.3603	10,196.8	55.8633
10,555.7	85.8947	10,555.7	85.3165	10,555.7	85.887	10,555.7	85.0564	10,555.7	84.8526	10,555.7	84.7023	10,555.7	84.2114	10,555.7	83.3761	10,555.7	83.5894	10,555.7	82.3607	10,555.7	82.3958	10,555.7	81.4894	10,555.7	81.7987	10,555.7	78.6837	10,555.7	80.5722	10,555.7	75.1506	10,555.7	78.9123	10,555.7	72.1485	10,555.7	74.581	10,555.7	66.9904	10,555.7	71.1819	10,555.7	65.5824	10,555.7	66.8632	10,555.7	62.9028	10,555.7	63.2452	10,555.7	61.4862	10,555.7	61.3719	10,555.7	64.7871	10,555.7	63.0054	10,555.7	58.8531	10,555.7	64.9743	10,555.7	51.3237	10,555.7	53.0927	10,555.7	58.1284	10,555.7	58.9521	10,555.7	56.255
10,927.7	85.581	10,927.7	85.4639	10,927.7	85.1622	10,927.7	84.7624	10,927.7	85.2945	10,927.7	84.1713	10,927.7	84.4312	10,927.7	82.962	10,927.7	83.4684	10,927.7	81.8728	10,927.7	82.0616	10,927.7	81.2589	10,927.7	81.0592	10,927.7	78.3972	10,927.7	80.4284	10,927.7	74.7839	10,927.7	77.7327	10,927.7	70.56	10,927.7	73.7712	10,927.7	65.9982	10,927.7	70.3003	10,927.7	64.7004	10,927.7	66.1132	10,927.7	62.6003	10,927.7	63.6882	10,927.7	58.9609	10,927.7	62.3691	10,927.7	62.9215	10,927.7	62.5162	10,927.7	58.3953	10,927.7	63.9169	10,927.7	47.9823	10,927.7	40.8036	10,927.7	57.3179	10,927.7	57.6975	10,927.7	54.1275
11,313	85.3835	11,313	85.0864	11,313	85.14	11,313	84.3952	11,313	85.4195	11,313	83.8657	11,313	84.0916	11,313	82.394	11,313	83.2336	11,313	81.2298	11,313	82.0041	11,313	80.4115	11,313	80.7346	11,313	77.5653	11,313	79.864	11,313	73.3733	11,313	76.2732	11,313	69.4329	11,313	71.3624	11,313	66.3522	11,313	68.2297	11,313	63.5481	11,313	65.1851	11,313	61.4513	11,313	62.7849	11,313	51.0727	11,313	59.1485	11,313	61.1096	11,313	60.1446	11,313	58.8262	11,313	62.9257	11,313	49.9941	11,313	33.9564	11,313	55.6308	11,313	56.6837	11,313	51.3665
11,712.9	85.3018	11,712.9	84.8476	11,712.9	85.1958	11,712.9	83.7904	11,712.9	85.312	11,712.9	83.0124	11,712.9	83.7186	11,712.9	81.5524	11,712.9	82.9947	11,712.9	80.386	11,712.9	81.6368	11,712.9	79.147	11,712.9	80.1351	11,712.9	76.4602	11,712.9	78.912	11,712.9	71.9853	11,712.9	76.3033	11,712.9	68.7789	11,712.9	70.6038	11,712.9	64.984	11,712.9	67.3915	11,712.9	62.9473	11,712.9	64.5001	11,712.9	59.31	11,712.9	59.6576	11,712.9	47.2817	11,712.9	58.1502	11,712.9	58.6475	11,712.9	57.9285	11,712.9	57.9166	11,712.9	60.675	11,712.9	50.458	11,712.9	38.1076	11,712.9	51.7761	11,712.9	56.9079	11,712.9	46.5337
12,126	85.6559	12,126	85.342	12,126	85.3827	12,126	83.8034	12,126	85.0398	12,126	82.6979	12,126	83.2714	12,126	81.1638	12,126	82.2293	12,126	80.2713	12,126	81.1629	12,126	78.5162	12,126	79.18	12,126	75.6269	12,126	77.8224	12,126	71.9094	12,126	75.1898	12,126	67.4916	12,126	68.9985	12,126	64.4568	12,126	66.73	12,126	62.378	12,126	62.721	12,126	58.9482	12,126	58.6206	12,126	51.7252	12,126	57.5102	12,126	58.9804	12,126	53.2818	12,126	55.5974	12,126	58.8749	12,126	51.2342	12,126	43.7331	12,126	49.8935	12,126	57.5014	12,126	53.1705
12,553.7	86.0074	12,553.7	85.6529	12,553.7	85.856	12,553.7	84.2479	12,553.7	85.0933	12,553.7	82.9625	12,553.7	83.634	12,553.7	81.2493	12,553.7	81.7773	12,553.7	79.9188	12,553.7	80.9459	12,553.7	78.0767	12,553.7	78.5005	12,553.7	75.5871	12,553.7	76.8741	12,553.7	71.9452	12,553.7	74.6047	12,553.7	67.4919	12,553.7	69.0963	12,553.7	64.2701	12,553.7	65.795	12,553.7	62.174	12,553.7	62.6273	12,553.7	58.0401	12,553.7	58.3987	12,553.7	53.779	12,553.7	53.6946	12,553.7	58.3953	12,553.7	52.3806	12,553.7	53.2409	12,553.7	57.3202	12,553.7	49.3756	12,553.7	48.1709	12,553.7	47.2927	12,553.7	56.2346	12,553.7	53.8645
12,996.1	86.2146	12,996.1	85.6001	12,996.1	86.0617	12,996.1	84.3508	12,996.1	85.2582	12,996.1	82.5827	12,996.1	83.6777	12,996.1	80.7562	12,996.1	81.5656	12,996.1	79.2038	12,996.1	80.3553	12,996.1	77.6073	12,996.1	78.1661	12,996.1	75.0919	12,996.1	76.341	12,996.1	71.1946	12,996.1	74.5005	12,996.1	67.2654	12,996.1	69.2665	12,996.1	63.3248	12,996.1	65.3256	12,996.1	60.5272	12,996.1	62.264	12,996.1	55.4965	12,996.1	56.5202	12,996.1	54.5884	12,996.1	49.6764	12,996.1	57.3076	12,996.1	53.119	12,996.1	52.3175	12,996.1	57.3191	12,996.1	39.1187	12,996.1	48.3914	12,996.1	44.7525	12,996.1	53.4938	12,996.1	51.4514
13,454.6	86.4621	13,454.6	85.6831	13,454.6	86.1162	13,454.6	84.3433	13,454.6	85.3429	13,454.6	82.5453	13,454.6	83.6095	13,454.6	80.2068	13,454.6	81.3976	13,454.6	78.6597	13,454.6	79.3029	13,454.6	76.7797	13,454.6	77.3862	13,454.6	73.8407	13,454.6	75.3496	13,454.6	69.9516	13,454.6	72.7001	13,454.6	65.3958	13,454.6	68.024	13,454.6	60.8774	13,454.6	63.9871	13,454.6	57.9333	13,454.6	59.6112	13,454.6	52.4612	13,454.6	53.3876	13,454.6	53.5704	13,454.6	47.2599	13,454.6	54.7359	13,454.6	50.328	13,454.6	51.2646	13,454.6	55.5492	13,454.6	41.9437	13,454.6	47.7382	13,454.6	40.7522	13,454.6	52.3865	13,454.6	47.2522
13,929.2	86.6876	13,929.2	85.8228	13,929.2	86.3522	13,929.2	84.4788	13,929.2	85.4817	13,929.2	82.7974	13,929.2	83.602	13,929.2	79.7252	13,929.2	81.0931	13,929.2	78.2428	13,929.2	78.6022	13,929.2	76.0793	13,929.2	76.5785	13,929.2	72.895	13,929.2	74.1111	13,929.2	69.3033	13,929.2	71.5472	13,929.2	64.5499	13,929.2	66.3619	13,929.2	59.9164	13,929.2	61.5324	13,929.2	56.3604	13,929.2	58.9188	13,929.2	47.9535	13,929.2	54.0537	13,929.2	52.7947	13,929.2	43.9507	13,929.2	53.0837	13,929.2	48.8955	13,929.2	48.8244	13,929.2	52.0276	13,929.2	42.8808	13,929.2	47.2443	13,929.2	42.3232	13,929.2	51.1958	13,929.2	46.6602
14,419.9	86.7551	14,419.9	85.783	14,419.9	86.4401	14,419.9	84.4849	14,419.9	85.4837	14,419.9	82.6601	14,419.9	83.609	14,419.9	79.3267	14,419.9	80.9815	14,419.9	77.5296	14,419.9	78.5005	14,419.9	75.6248	14,419.9	75.9674	14,419.9	72.5468	14,419.9	73.387	14,419.9	69.1765	14,419.9	71.3172	14,419.9	64.3955	14,419.9	66.2571	14,419.9	59.0289	14,419.9	61.1591	14,419.9	56.1925	14,419.9	57.8196	14,419.9	47.1222	14,419.9	53.1427	14,419.9	51.5492	14,419.9	46.1844	14,419.9	52.0356	14,419.9	49.6983	14,419.9	45.3924	14,419.9	49.3726	14,419.9	40.0304	14,419.9	45.8892	14,419.9	46.1828	14,419.9	50.1352	14,419.9	46.8945
14,928.2	86.7305	14,928.2	85.7249	14,928.2	86.3819	14,928.2	84.2395	14,928.2	85.515	14,928.2	82.3654	14,928.2	83.5711	14,928.2	79.0234	14,928.2	80.7297	14,928.2	76.9071	14,928.2	78.1992	14,928.2	75.1015	14,928.2	75.6267	14,928.2	71.7382	14,928.2	73.1037	14,928.2	68.5162	14,928.2	70.3975	14,928.2	62.7677	14,928.2	66.1909	14,928.2	58.0841	14,928.2	59.1838	14,928.2	55.6419	14,928.2	57.1175	14,928.2	49.3993	14,928.2	51.5689	14,928.2	51.0569	14,928.2	45.7641	14,928.2	52.5386	14,928.2	48.4943	14,928.2	44.3746	14,928.2	48.089	14,928.2	43.5363	14,928.2	45.0898	14,928.2	44.3222	14,928.2	49.3478	14,928.2	46.1606
15,455.6	86.9301	15,455.6	85.9089	15,455.6	86.5474	15,455.6	84.4531	15,455.6	85.5887	15,455.6	82.5275	15,455.6	83.6524	15,455.6	79.1092	15,455.6	80.8402	15,455.6	76.887	15,455.6	78.0002	15,455.6	75.1155	15,455.6	75.5347	15,455.6	71.9512	15,455.6	73.2624	15,455.6	68.7775	15,455.6	70.6636	15,455.6	63.0057	15,455.6	66.6204	15,455.6	57.9289	15,455.6	59.1508	15,455.6	55.2245	15,455.6	58.0136	15,455.6	51.0435	15,455.6	50.8496	15,455.6	50.9647	15,455.6	51.902	15,455.6	53.0085	15,455.6	47.1969	15,455.6	44.0984	15,455.6	48.4228	15,455.6	43.9033	15,455.6	43.991	15,455.6	40.3463	15,455.6	44.519	15,455.6	44.2035
16,000.5	86.9693	16,000.5	86.1571	16,000.5	86.5828	16,000.5	84.6258	16,000.5	85.6322	16,000.5	82.836	16,000.5	83.6961	16,000.5	79.1118	16,000.5	80.9831	16,000.5	76.4042	16,000.5	77.6465	16,000.5	74.3595	16,000.5	74.352	16,000.5	71.3424	16,000.5	72.1133	16,000.5	68.2428	16,000.5	69.5665	16,000.5	62.4685	16,000.5	65.6258	16,000.5	58.24	16,000.5	57.7401	16,000.5	54.6453	16,000.5	56.955	16,000.5	52.3279	16,000.5	49.1567	16,000.5	50.0584	16,000.5	52.7184	16,000.5	51.7784	16,000.5	44.1104	16,000.5	41.9603	16,000.5	46.0562	16,000.5	46.6768	16,000.5	42.6186	16,000.5	32.1486	16,000.5	41.7377	16,000.5	41.6868
16,564.5	86.9287	16,564.5	86.1732	16,564.5	86.5729	16,564.5	84.5104	16,564.5	85.6512	16,564.5	82.5949	16,564.5	83.6972	16,564.5	78.5571	16,564.5	80.6369	16,564.5	74.7511	16,564.5	77.0987	16,564.5	72.0048	16,564.5	72.9461	16,564.5	68.6515	16,564.5	69.4804	16,564.5	65.3592	16,564.5	65.4196	16,564.5	59.1403	16,564.5	62.2333	16,564.5	54.9808	16,564.5	53.7531	16,564.5	51.4011	16,564.5	50.3139	16,564.5	50.5542	16,564.5	46.8141	16,564.5	47.6043	16,564.5	49.4281	16,564.5	49.278	16,564.5	39.3217	16,564.5	40.4934	16,564.5	38.623	16,564.5	47.0976	16,564.5	38.7246	16,564.5	28.0625	16,564.5	40.4849	16,564.5	38.8577
17,148.9	87.3307	17,148.9	86.3672	17,148.9	87.034	17,148.9	84.6646	17,148.9	86.0035	17,148.9	82.6353	17,148.9	84.0122	17,148.9	78.5283	17,148.9	80.8367	17,148.9	74.6674	17,148.9	77.3087	17,148.9	71.4305	17,148.9	73.2814	17,148.9	67.1304	17,148.9	68.3326	17,148.9	64.4073	17,148.9	64.0663	17,148.9	57.0974	17,148.9	60.5871	17,148.9	53.3413	17,148.9	54.1847	17,148.9	47.9266	17,148.9	45.8544	17,148.9	51.2156	17,148.9	48.1473	17,148.9	47.6063	17,148.9	47.643	17,148.9	44.8015	17,148.9	42.8424	17,148.9	37.687	17,148.9	34.5295	17,148.9	46.6768	17,148.9	37.4101	17,148.9	28.7728	17,148.9	42.016	17,148.9	41.3149
17,752.4	87.8249	17,752.4	86.807	17,752.4	87.4664	17,752.4	84.9169	17,752.4	86.3295	17,752.4	82.7419	17,752.4	84.1419	17,752.4	78.4436	17,752.4	80.8107	17,752.4	74.6653	17,752.4	77.1084	17,752.4	70.8423	17,752.4	72.8036	17,752.4	66.4208	17,752.4	67.4389	17,752.4	63.7399	17,752.4	63.5412	17,752.4	56.3899	17,752.4	59.4473	17,752.4	52.3226	17,752.4	54.4357	17,752.4	47.6294	17,752.4	45.7052	17,752.4	51.5098	17,752.4	49.0467	17,752.4	48.1009	17,752.4	45.0961	17,752.4	39.996	17,752.4	44.0322	17,752.4	35.0035	17,752.4	33.3927	17,752.4	48.0835	17,752.4	35.0022	17,752.4	33.8157	17,752.4	40.0448	17,752.4	38.0022
18,379.4	88.1789	18,379.4	87.1218	18,379.4	87.8494	18,379.4	85.2255	18,379.4	86.6048	18,379.4	82.8133	18,379.4	84.2257	18,379.4	78.2479	18,379.4	80.7294	18,379.4	74.3296	18,379.4	76.7973	18,379.4	70.235	18,379.4	72.3793	18,379.4	65.6972	18,379.4	67.419	18,379.4	62.6221	18,379.4	63.5696	18,379.4	56.4409	18,379.4	59.2806	18,379.4	50.0401	18,379.4	53.9492	18,379.4	48.241	18,379.4	47.4224	18,379.4	50.0831	18,379.4	48.7703	18,379.4	46.8182	18,379.4	43.4358	18,379.4	40.7497	18,379.4	42.3565	18,379.4	22.6924	18,379.4	39.0255	18,379.4	45.9132	18,379.4	34.9312	18,379.4	36.1237	18,379.4	42.3998	18,379.4	38.175
19,026.9	88.4791	19,026.9	87.2711	19,026.9	88.2035	19,026.9	85.3115	19,026.9	87.0254	19,026.9	82.8168	19,026.9	84.6133	19,026.9	78.0557	19,026.9	81.1167	19,026.9	74.2058	19,026.9	77.0241	19,026.9	70.1911	19,026.9	72.9533	19,026.9	65.4044	19,026.9	68.0743	19,026.9	62.0119	19,026.9	64.2594	19,026.9	54.5258	19,026.9	59.9548	19,026.9	49.7926	19,026.9	54.845	19,026.9	47.7475	19,026.9	48.2288	19,026.9	48.6252	19,026.9	49.7257	19,026.9	46.2893	19,026.9	43.5836	19,026.9	45.2105	19,026.9	43.5315	19,026.9	32.4906	19,026.9	38.8829	19,026.9	45.8156	19,026.9	36.0515	19,026.9	36.2866	19,026.9	34.1615	19,026.9	39.827
19,697.8	89.0368	19,697.8	87.8953	19,697.8	88.8243	19,697.8	85.9721	19,697.8	87.7356	19,697.8	83.3444	19,697.8	85.4263	19,697.8	78.6281	19,697.8	82.1629	19,697.8	75.2402	19,697.8	78.2206	19,697.8	71.5264	19,697.8	74.7587	19,697.8	67.7061	19,697.8	70.3144	19,697.8	64.1146	19,697.8	67.2131	19,697.8	55.8063	19,697.8	62.9863	19,697.8	53.3862	19,697.8	57.5107	19,697.8	50.9387	19,697.8	51.402	19,697.8	50.5657	19,697.8	52.1653	19,697.8	47.5207	19,697.8	48.0963	19,697.8	44.2139	19,697.8	46.5659	19,697.8	43.0415	19,697.8	39.6655	19,697.8	47.0174	19,697.8	23.7085	19,697.8	44.7451	19,697.8	34.7905	19,697.8	37.9721
19,999.5	89.2164	19,999.5	88.2169	19,999.5	89.196	19,999.5	86.4455	19,999.5	87.9836	19,999.5	83.9945	19,999.5	85.7336	19,999.5	79.5102	19,999.5	82.8663	19,999.5	77.048	19,999.5	79.2884	19,999.5	72.8026	19,999.5	75.8625	19,999.5	71.2932	19,999.5	72.1867	19,999.5	66.8379	19,999.5	67.4948	19,999.5	59.6574	19,999.5	63.9871	19,999.5	51.6036	19,999.5	60.9303	19,999.5	57.9763	19,999.5	54.3119	19,999.5	54.7046	19,999.5	56.3848	19,999.5	42.2141	19,999.5	58.4188	19,999.5	57.1939	19,999.5	47.7205	19,999.5	51.2027	19,999.5	48.1908	19,999.5	46.3189	19,999.5	31.2123	19,999.5	37.0574	19,999.5	45.1612	19,999.5	45.5686
