"SPL Vertical"																																																																							
"On-Axis"		"10°"		"-10°"		"20°"		"-20°"		"30°"		"-30°"		"40°"		"-40°"		"50°"		"-50°"		"60°"		"-60°"		"70°"		"-70°"		"80°"		"-80°"		"90°"		"-90°"		"100°"		"-100°"		"110°"		"-110°"		"120°"		"-120°"		"130°"		"-130°"		"140°"		"-140°"		"150°"		"-150°"		"160°"		"-160°"		"170°"		"-170°"		"180°"	
"Frequency [Hz]"	"Sound Pessure Level [dB]  / [2.83V 1m] "	"Frequency [Hz]"	"Sound Pessure Level [dB]  / [2.83V 1m] "	"Frequency [Hz]"	"Sound Pessure Level [dB]  / [2.83V 1m] "	"Frequency [Hz]"	"Sound Pessure Level [dB]  / [2.83V 1m] "	"Frequency [Hz]"	"Sound Pessure Level [dB]  / [2.83V 1m] "	"Frequency [Hz]"	"Sound Pessure Level [dB]  / [2.83V 1m] "	"Frequency [Hz]"	"Sound Pessure Level [dB]  / [2.83V 1m] "	"Frequency [Hz]"	"Sound Pessure Level [dB]  / [2.83V 1m] "	"Frequency [Hz]"	"Sound Pessure Level [dB]  / [2.83V 1m] "	"Frequency [Hz]"	"Sound Pessure Level [dB]  / [2.83V 1m] "	"Frequency [Hz]"	"Sound Pessure Level [dB]  / [2.83V 1m] "	"Frequency [Hz]"	"Sound Pessure Level [dB]  / [2.83V 1m] "	"Frequency [Hz]"	"Sound Pessure Level [dB]  / [2.83V 1m] "	"Frequency [Hz]"	"Sound Pessure Level [dB]  / [2.83V 1m] "	"Frequency [Hz]"	"Sound Pessure Level [dB]  / [2.83V 1m] "	"Frequency [Hz]"	"Sound Pessure Level [dB]  / [2.83V 1m] "	"Frequency [Hz]"	"Sound Pessure Level [dB]  / [2.83V 1m] "	"Frequency [Hz]"	"Sound Pessure Level [dB]  / [2.83V 1m] "	"Frequency [Hz]"	"Sound Pessure Level [dB]  / [2.83V 1m] "	"Frequency [Hz]"	"Sound Pessure Level [dB]  / [2.83V 1m] "	"Frequency [Hz]"	"Sound Pessure Level [dB]  / [2.83V 1m] "	"Frequency [Hz]"	"Sound Pessure Level [dB]  / [2.83V 1m] "	"Frequency [Hz]"	"Sound Pessure Level [dB]  / [2.83V 1m] "	"Frequency [Hz]"	"Sound Pessure Level [dB]  / [2.83V 1m] "	"Frequency [Hz]"	"Sound Pessure Level [dB]  / [2.83V 1m] "	"Frequency [Hz]"	"Sound Pessure Level [dB]  / [2.83V 1m] "	"Frequency [Hz]"	"Sound Pessure Level [dB]  / [2.83V 1m] "	"Frequency [Hz]"	"Sound Pessure Level [dB]  / [2.83V 1m] "	"Frequency [Hz]"	"Sound Pessure Level [dB]  / [2.83V 1m] "	"Frequency [Hz]"	"Sound Pessure Level [dB]  / [2.83V 1m] "	"Frequency [Hz]"	"Sound Pessure Level [dB]  / [2.83V 1m] "	"Frequency [Hz]"	"Sound Pessure Level [dB]  / [2.83V 1m] "	"Frequency [Hz]"	"Sound Pessure Level [dB]  / [2.83V 1m] "	"Frequency [Hz]"	"Sound Pessure Level [dB]  / [2.83V 1m] "	"Frequency [Hz]"	"Sound Pessure Level [dB]  / [2.83V 1m] "	"Frequency [Hz]"	"Sound Pessure Level [dB]  / [2.83V 1m] "
20.5078	50.8719	20.5078	49.1705	20.5078	52.4541	20.5078	47.4044	20.5078	53.8888	20.5078	45.6742	20.5078	55.1598	20.5078	44.138	20.5078	56.2552	20.5078	42.9715	20.5078	57.1645	20.5078	42.2594	20.5078	57.8769	20.5078	41.923	20.5078	58.3817	20.5078	41.7881	20.5078	58.669	20.5078	41.7015	20.5078	58.7299	20.5078	41.585	20.5078	58.558	20.5078	41.4456	20.5078	58.1497	20.5078	41.3844	20.5078	57.5048	20.5078	41.599	20.5078	56.6271	20.5078	42.3113	20.5078	55.5238	20.5078	43.5977	20.5078	54.2064	20.5078	45.3135	20.5078	52.6901	20.5078	47.2266	20.5078	50.9959	20.5078	49.1559
21.9727	58.016	21.9727	57.1951	21.9727	58.8713	21.9727	56.4515	21.9727	59.7176	21.9727	55.8219	21.9727	60.5155	21.9727	55.3291	21.9727	61.2314	21.9727	54.9781	21.9727	61.8375	21.9727	54.7579	21.9727	62.3119	21.9727	54.6474	21.9727	62.6386	21.9727	54.6236	21.9727	62.8069	21.9727	54.6669	21.9727	62.8124	21.9727	54.7647	21.9727	62.6563	21.9727	54.9116	21.9727	62.3465	21.9727	55.1088	21.9727	61.897	21.9727	55.3621	21.9727	61.3282	21.9727	55.6806	21.9727	60.6666	21.9727	56.0739	21.9727	59.9434	21.9727	56.5494	21.9727	59.1934	21.9727	57.1095	21.9727	58.4513	21.9727	57.7485
23.4375	60.4546	23.4375	59.8793	23.4375	61.0779	23.4375	59.3776	23.4375	61.7171	23.4375	58.9647	23.4375	62.3373	23.4375	58.6443	23.4375	62.9046	23.4375	58.41	23.4375	63.3889	23.4375	58.2493	23.4375	63.7649	23.4375	58.1469	23.4375	64.0137	23.4375	58.0894	23.4375	64.1229	23.4375	58.0666	23.4375	64.0874	23.4375	58.0729	23.4375	63.9095	23.4375	58.1075	23.4375	63.599	23.4375	58.1739	23.4375	63.1731	23.4375	58.2796	23.4375	62.6553	23.4375	58.4349	23.4375	62.0745	23.4375	58.6513	23.4375	61.4628	23.4375	58.9397	23.4375	60.8532	23.4375	59.3072	23.4375	60.2757	23.4375	59.755
24.9023	61.2089	24.9023	60.7524	24.9023	61.7142	24.9023	60.3606	24.9023	62.2447	24.9023	60.0402	24.9023	62.7715	24.9023	59.7892	24.9023	63.2639	24.9023	59.5998	24.9023	63.6921	24.9023	59.4606	24.9023	64.0295	24.9023	59.3604	24.9023	64.2544	24.9023	59.2897	24.9023	64.3517	24.9023	59.2422	24.9023	64.3137	24.9023	59.2153	24.9023	64.1413	24.9023	59.2101	24.9023	63.8443	24.9023	59.2316	24.9023	63.4411	24.9023	59.2875	24.9023	62.958	24.9023	59.3878	24.9023	62.426	24.9023	59.543	24.9023	61.8782	24.9023	59.7629	24.9023	61.3452	24.9023	60.054	24.9023	60.8525	24.9023	60.4185
26.3672	61.3908	26.3672	61.006	26.3672	61.8287	26.3672	60.6837	26.3672	62.3018	26.3672	60.4252	26.3672	62.7855	26.3672	60.2249	26.3672	63.2509	26.3672	60.0734	26.3672	63.6677	26.3672	59.9598	26.3672	64.007	26.3672	59.8737	26.3672	64.2433	26.3672	59.8075	26.3672	64.3573	26.3672	59.7562	26.3672	64.3369	26.3672	59.7183	26.3672	64.1796	26.3672	59.6956	26.3672	63.8934	26.3672	59.6933	26.3672	63.4971	26.3672	59.7189	26.3672	63.0193	26.3672	59.7823	26.3672	62.4956	26.3672	59.8942	26.3672	61.9636	26.3672	60.0651	26.3672	61.4574	26.3672	60.3038	26.3672	61.0029	26.3672	60.6162
27.832	62.082	27.832	61.7008	27.832	62.5214	27.832	61.3859	27.832	63.002	27.832	61.1377	27.832	63.4996	27.832	60.9499	27.832	63.9851	27.832	60.8126	27.832	64.4276	27.832	60.7151	27.832	64.7973	27.832	60.6474	27.832	65.0678	27.832	60.602	27.832	65.2188	27.832	60.5743	27.832	65.2373	27.832	60.5632	27.832	65.1198	27.832	60.5704	27.832	64.873	27.832	60.6006	27.832	64.514	27.832	60.6608	27.832	64.0693	27.832	60.7593	27.832	63.572	27.832	60.9053	27.832	63.0578	27.832	61.1073	27.832	62.5594	27.832	61.3723	27.832	62.1027	27.832	61.7044
29.2969	64.1785	29.2969	63.7976	29.2969	64.6068	29.2969	63.4744	29.2969	65.0653	29.2969	63.2123	29.2969	65.5313	29.2969	63.0093	29.2969	65.9789	29.2969	62.8593	29.2969	66.3807	29.2969	62.7546	29.2969	66.7109	29.2969	62.6875	29.2969	66.9477	29.2969	62.6517	29.2969	67.0744	29.2969	62.6425	29.2969	67.0818	29.2969	62.6578	29.2969	66.9692	29.2969	62.6977	29.2969	66.7445	29.2969	62.7641	29.2969	66.4246	29.2969	62.8604	29.2969	66.0335	29.2969	62.9913	29.2969	65.5996	29.2969	63.1615	29.2969	65.1519	29.2969	63.3758	29.2969	64.716	29.2969	63.638	29.2969	64.3114	29.2969	63.9501
30.7617	66.2575	30.7617	65.9107	30.7617	66.6369	30.7617	65.606	30.7617	67.0339	30.7617	65.3481	30.7617	67.4292	30.7617	65.1371	30.7617	67.8008	30.7617	64.9702	30.7617	68.1259	30.7617	64.8427	30.7617	68.3828	30.7617	64.7494	30.7617	68.5528	30.7617	64.686	30.7617	68.6229	30.7617	64.6491	30.7617	68.5865	30.7617	64.6371	30.7617	68.4449	30.7617	64.6498	30.7617	68.2076	30.7617	64.6887	30.7617	67.8918	30.7617	64.7564	30.7617	67.5207	30.7617	64.8567	30.7617	67.1201	30.7617	64.9935	30.7617	66.7155	30.7617	65.1709	30.7617	66.328	30.7617	65.3924	30.7617	65.973	30.7617	65.6598
32.2266	67.6058	32.2266	67.2906	32.2266	67.9441	32.2266	67.007	32.2266	68.293	32.2266	66.7592	32.2266	68.6365	32.2266	66.5485	32.2266	68.9556	32.2266	66.3734	32.2266	69.2308	32.2266	66.2312	32.2266	69.4427	32.2266	66.1186	32.2266	69.5751	32.2266	66.033	32.2266	69.6159	32.2266	65.9722	32.2266	69.5595	32.2266	65.9356	32.2266	69.4075	32.2266	65.9236	32.2266	69.1694	32.2266	65.9381	32.2266	68.8619	32.2266	65.9821	32.2266	68.5067	32.2266	66.0592	32.2266	68.1279	32.2266	66.1734	32.2266	67.7486	32.2266	66.3284	32.2266	67.3878	32.2266	66.5271	32.2266	67.0592	32.2266	66.7709
33.6914	68.3494	33.6914	68.0634	33.6914	68.6562	33.6914	67.805	33.6914	68.9731	33.6914	67.5779	33.6914	69.2865	33.6914	67.3829	33.6914	69.5799	33.6914	67.2192	33.6914	69.8352	33.6914	67.0847	33.6914	70.0347	33.6914	66.9772	33.6914	70.1624	33.6914	66.8947	33.6914	70.2065	33.6914	66.836	33.6914	70.1609	33.6914	66.8008	33.6914	70.0265	33.6914	66.79	33.6914	69.8118	33.6914	66.8057	33.6914	69.5326	33.6914	66.8505	33.6914	69.2091	33.6914	66.9277	33.6914	68.8636	33.6914	67.0404	33.6914	68.5169	33.6914	67.1914	33.6914	68.1857	33.6914	67.382	33.6914	67.8819	33.6914	67.6127
35.1563	69.1542	35.1563	68.8884	35.1563	69.4407	35.1563	68.6493	35.1563	69.7389	35.1563	68.4399	35.1563	70.0363	35.1563	68.2609	35.1563	70.3178	35.1563	68.1117	35.1563	70.5665	35.1563	67.9906	35.1563	70.7651	35.1563	67.8958	35.1563	70.8979	35.1563	67.8257	35.1563	70.9524	35.1563	67.7793	35.1563	70.922	35.1563	67.7564	35.1563	70.8068	35.1563	67.7577	35.1563	70.6146	35.1563	67.7845	35.1563	70.3603	35.1563	67.8388	35.1563	70.0636	35.1563	67.9227	35.1563	69.7457	35.1563	68.0384	35.1563	69.4263	35.1563	68.1875	35.1563	69.1208	35.1563	68.3708	35.1563	68.8395	35.1563	68.5886
36.6211	70.3521	36.6211	70.0945	36.6211	70.6292	36.6211	69.8622	36.6211	70.917	36.6211	69.6583	36.6211	71.2036	36.6211	69.484	36.6211	71.4745	36.6211	69.3389	36.6211	71.7136	36.6211	69.2217	36.6211	71.9043	36.6211	69.131	36.6211	72.0315	36.6211	69.0653	36.6211	72.0835	36.6211	69.0238	36.6211	72.0539	36.6211	69.0059	36.6211	71.943	36.6211	69.012	36.6211	71.7586	36.6211	69.0429	36.6211	71.515	36.6211	69.0998	36.6211	71.2311	36.6211	69.1844	36.6211	70.9274	36.6211	69.2982	36.6211	70.6228	36.6211	69.4424	36.6211	70.3318	36.6211	69.6181	36.6211	70.0643	36.6211	69.8256
38.0859	71.748	38.0859	71.4956	38.0859	72.0174	38.0859	71.2661	38.0859	72.2949	38.0859	71.0631	38.0859	72.5692	38.0859	70.8885	38.0859	72.8268	38.0859	70.7423	38.0859	73.0527	38.0859	70.6242	38.0859	73.232	38.0859	70.5329	38.0859	73.3511	38.0859	70.4675	38.0859	73.4	38.0859	70.4271	38.0859	73.3737	38.0859	70.4113	38.0859	73.2732	38.0859	70.4204	38.0859	73.1058	38.0859	70.4551	38.0859	72.8842	38.0859	70.5166	38.0859	72.6244	38.0859	70.6065	38.0859	72.3432	38.0859	70.7264	38.0859	72.0561	38.0859	70.8773	38.0859	71.776	38.0859	71.0595	38.0859	71.5123	38.0859	71.272
39.5508	72.8877	39.5508	72.6424	39.5508	73.1461	39.5508	72.4164	39.5508	73.4086	39.5508	72.2142	39.5508	73.664	39.5508	72.0382	39.5508	73.8995	39.5508	71.8893	39.5508	74.1011	39.5508	71.7677	39.5508	74.2552	39.5508	71.6728	39.5508	74.35	39.5508	71.6038	39.5508	74.3774	39.5508	71.56	39.5508	74.3341	39.5508	71.5407	39.5508	74.2225	39.5508	71.546	39.5508	74.0509	39.5508	71.576	39.5508	73.8319	39.5508	71.6314	39.5508	73.5811	39.5508	71.7131	39.5508	73.3139	39.5508	71.8223	39.5508	73.0445	39.5508	71.9598	39.5508	72.784	39.5508	72.1259	39.5508	72.5407	39.5508	72.3202
41.0156	74.1105	41.0156	73.871	41.0156	74.3578	41.0156	73.6457	41.0156	74.6045	41.0156	73.4392	41.0156	74.8405	41.0156	73.2545	41.0156	75.0537	41.0156	73.0933	41.0156	75.2317	41.0156	72.9564	41.0156	75.3625	41.0156	72.8443	41.0156	75.4357	41.0156	72.7569	41.0156	75.4444	41.0156	72.6942	41.0156	75.3862	41.0156	72.6565	41.0156	75.2639	41.0156	72.6439	41.0156	75.0853	41.0156	72.6573	41.0156	74.8623	41.0156	72.6977	41.0156	74.6092	41.0156	72.7663	41.0156	74.3407	41.0156	72.8646	41.0156	74.07	41.0156	72.9938	41.0156	73.8086	41.0156	73.1544	41.0156	73.5649	41.0156	73.3455
42.4805	74.9198	42.4805	74.6848	42.4805	75.16	42.4805	74.4613	42.4805	75.3974	42.4805	74.2539	42.4805	75.6222	42.4805	74.0659	42.4805	75.8234	42.4805	73.8994	42.4805	75.9895	42.4805	73.7557	42.4805	76.1094	42.4805	73.6357	42.4805	76.1736	42.4805	73.54	42.4805	76.1759	42.4805	73.4691	42.4805	76.1144	42.4805	73.4237	42.4805	75.9919	42.4805	73.4044	42.4805	75.8159	42.4805	73.4123	42.4805	75.5975	42.4805	73.4488	42.4805	75.35	42.4805	73.5152	42.4805	75.0867	42.4805	73.6129	42.4805	74.8201	42.4805	73.7427	42.4805	74.5609	42.4805	73.9047	42.4805	74.3177	42.4805	74.0974
43.9453	75.8354	43.9453	75.6189	43.9453	76.0563	43.9453	75.4129	43.9453	76.2745	43.9453	75.2216	43.9453	76.4809	43.9453	75.0481	43.9453	76.6655	43.9453	74.8945	43.9453	76.8178	43.9453	74.7623	43.9453	76.9276	43.9453	74.6523	43.9453	76.9864	43.9453	74.5652	43.9453	76.9886	43.9453	74.5017	43.9453	76.9326	43.9453	74.4622	43.9453	76.8212	43.9453	74.4475	43.9453	76.6618	43.9453	74.4585	43.9453	76.4646	43.9453	74.4963	43.9453	76.2417	43.9453	74.5618	43.9453	76.005	43.9453	74.656	43.9453	75.7651	43.9453	74.779	43.9453	75.5311	43.9453	74.9305	43.9453	75.3103	43.9453	75.1086
45.4102	76.63	45.4102	76.42	45.4102	76.8437	45.4102	76.2192	45.4102	77.0537	45.4102	76.0323	45.4102	77.2518	45.4102	75.8624	45.4102	77.4282	45.4102	75.7119	45.4102	77.573	45.4102	75.5825	45.4102	77.6767	45.4102	75.4753	45.4102	77.7311	45.4102	75.3912	45.4102	77.731	45.4102	75.3306	45.4102	77.6749	45.4102	75.2942	45.4102	77.566	45.4102	75.2825	45.4102	77.4113	45.4102	75.296	45.4102	77.2212	45.4102	75.3355	45.4102	77.0074	45.4102	75.4014	45.4102	76.7815	45.4102	75.4943	45.4102	76.5534	45.4102	75.614	45.4102	76.3313	45.4102	75.7598	45.4102	76.1218	45.4102	75.93
46.875	77.4848	46.875	77.2813	46.875	77.6908	46.875	77.0861	46.875	77.8926	46.875	76.9036	46.875	78.082	46.875	76.7372	46.875	78.2501	46.875	76.5895	46.875	78.3874	46.875	76.4623	46.875	78.4849	46.875	76.357	46.875	78.5349	46.875	76.2745	46.875	78.5327	46.875	76.2155	46.875	78.4768	46.875	76.1806	46.875	78.3703	46.875	76.1701	46.875	78.2203	46.875	76.1845	46.875	78.0368	46.875	76.2241	46.875	77.8312	46.875	76.2893	46.875	77.6145	46.875	76.3801	46.875	77.3962	46.875	76.4962	46.875	77.1839	46.875	76.6367	46.875	76.9837	46.875	76.8001
48.3398	78.3376	48.3398	78.1385	48.3398	78.5379	48.3398	77.946	48.3398	78.7327	48.3398	77.7647	48.3398	78.9144	48.3398	77.598	48.3398	79.0742	48.3398	77.4488	48.3398	79.2031	48.3398	77.3189	48.3398	79.2927	48.3398	77.2101	48.3398	79.3356	48.3398	77.1235	48.3398	79.3273	48.3398	77.0598	48.3398	79.2666	48.3398	77.0199	48.3398	79.1565	48.3398	77.0042	48.3398	79.0041	48.3398	77.0131	48.3398	78.8192	48.3398	77.047	48.3398	78.613	48.3398	77.1061	48.3398	78.3966	48.3398	77.1908	48.3398	78.1795	48.3398	77.3008	48.3398	77.9695	48.3398	77.4356	48.3398	77.7727	48.3398	77.5936
51.2695	80.0014	51.2695	79.8077	51.2695	80.1941	51.2695	79.6188	51.2695	80.3795	51.2695	79.4393	51.2695	80.55	51.2695	79.2731	51.2695	80.6977	51.2695	79.1234	51.2695	80.8145	51.2695	78.9926	51.2695	80.893	51.2695	78.8828	51.2695	80.9271	51.2695	78.7953	51.2695	80.9134	51.2695	78.7314	51.2695	80.8518	51.2695	78.6918	51.2695	80.7457	51.2695	78.6769	51.2695	80.6016	51.2695	78.6871	51.2695	80.4285	51.2695	78.7226	51.2695	80.236	51.2695	78.7833	51.2695	80.0336	51.2695	78.8691	51.2695	79.8293	51.2695	78.9792	51.2695	79.63	51.2695	79.1127	51.2695	79.4412	51.2695	79.2676
52.7344	80.8064	52.7344	80.6169	52.7344	80.9935	52.7344	80.4307	52.7344	81.1721	52.7344	80.2526	52.7344	81.3349	52.7344	80.0865	52.7344	81.4745	52.7344	79.9359	52.7344	81.5832	52.7344	79.8033	52.7344	81.6541	52.7344	79.691	52.7344	81.682	52.7344	79.6008	52.7344	81.6639	52.7344	79.534	52.7344	81.6001	52.7344	79.4915	52.7344	81.4941	52.7344	79.4741	52.7344	81.3524	52.7344	79.4819	52.7344	81.1835	52.7344	79.5154	52.7344	80.9964	52.7344	79.5744	52.7344	80.7997	52.7344	79.6585	52.7344	80.6009	52.7344	79.767	52.7344	80.4065	52.7344	79.8986	52.7344	80.2217	52.7344	80.0512
54.1992	81.5072	54.1992	81.3231	54.1992	81.6887	54.1992	81.142	54.1992	81.8612	54.1992	80.9686	54.1992	82.018	54.1992	80.8071	54.1992	82.1516	54.1992	80.6609	54.1992	82.2551	54.1992	80.5328	54.1992	82.3219	54.1992	80.425	54.1992	82.3472	54.1992	80.3394	54.1992	82.3288	54.1992	80.2771	54.1992	82.2672	54.1992	80.2392	54.1992	82.1662	54.1992	80.226	54.1992	82.0322	54.1992	80.2378	54.1992	81.8732	54.1992	80.2745	54.1992	81.6977	54.1992	80.3356	54.1992	81.5133	54.1992	80.4206	54.1992	81.3266	54.1992	80.5283	54.1992	81.1432	54.1992	80.6571	54.1992	80.9678	54.1992	80.8046
55.6641	82.14	55.6641	81.9588	55.6641	82.3177	55.6641	81.7796	55.6641	82.4856	55.6641	81.6075	55.6641	82.6371	55.6641	81.4466	55.6641	82.765	55.6641	81.3005	55.6641	82.8626	55.6641	81.1723	55.6641	82.924	55.6641	81.0644	55.6641	82.9448	55.6641	80.9787	55.6641	82.923	55.6641	80.9166	55.6641	82.8598	55.6641	80.8789	55.6641	82.759	55.6641	80.8661	55.6641	82.6271	55.6641	80.8784	55.6641	82.4719	55.6641	80.9153	55.6641	82.3013	55.6641	80.9763	55.6641	82.1227	55.6641	81.0604	55.6641	81.9421	55.6641	81.1665	55.6641	81.7647	55.6641	81.2925	55.6641	81.5948	55.6641	81.4363
58.5938	83.3075	58.5938	83.129	58.5938	83.4807	58.5938	82.9509	58.5938	83.6423	58.5938	82.7784	58.5938	83.7858	58.5938	82.6163	58.5938	83.9046	58.5938	82.4684	58.5938	83.9927	58.5938	82.3384	58.5938	84.0447	58.5938	82.2289	58.5938	84.0573	58.5938	82.142	58.5938	84.0294	58.5938	82.0794	58.5938	83.9625	58.5938	82.0418	58.5938	83.861	58.5938	82.0296	58.5938	83.7314	58.5938	82.0426	58.5938	83.5811	58.5938	82.0802	58.5938	83.4175	58.5938	82.1413	58.5938	83.2469	58.5938	82.2248	58.5938	83.0748	58.5938	82.3289	58.5938	82.9056	58.5938	82.4516	58.5938	82.743	58.5938	82.5906
60.0586	83.7896	60.0586	83.6109	60.0586	83.9623	60.0586	83.432	60.0586	84.1226	60.0586	83.2584	60.0586	84.2642	60.0586	83.0948	60.0586	84.3806	60.0586	82.9457	60.0586	84.4661	60.0586	82.8145	60.0586	84.5156	60.0586	82.7044	60.0586	84.5261	60.0586	82.6174	60.0586	84.4965	60.0586	82.5552	60.0586	84.4286	60.0586	82.5184	60.0586	84.3266	60.0586	82.5071	60.0586	84.1966	60.0586	82.521	60.0586	84.0459	60.0586	82.5589	60.0586	83.8817	60.0586	82.6197	60.0586	83.7108	60.0586	82.702	60.0586	83.5387	60.0586	82.8039	60.0586	83.3703	60.0586	82.9239	60.0586	83.2096	60.0586	83.0599
62.9883	84.6932	62.9883	84.5207	62.9883	84.8587	62.9883	84.3467	62.9883	85.0109	62.9883	84.1766	62.9883	85.1441	62.9883	84.0153	62.9883	85.2522	62.9883	83.8674	62.9883	85.33	62.9883	83.7365	62.9883	85.3731	62.9883	83.6259	62.9883	85.3789	62.9883	83.538	62.9883	85.3468	62.9883	83.4746	62.9883	85.2788	62.9883	83.4365	62.9883	85.179	62.9883	83.424	62.9883	85.0534	62.9883	83.4366	62.9883	84.9087	62.9883	83.4734	62.9883	84.7517	62.9883	83.5328	62.9883	84.5883	62.9883	83.6133	62.9883	84.4236	62.9883	83.7131	62.9883	84.262	62.9883	83.8302	62.9883	84.1072	62.9883	83.9623
64.4531	85.141	64.4531	84.9699	64.4531	85.3046	64.4531	84.7971	64.4531	85.4547	64.4531	84.6279	64.4531	85.5855	64.4531	84.4674	64.4531	85.6913	64.4531	84.3201	64.4531	85.7669	64.4531	84.19	64.4531	85.8084	64.4531	84.0804	64.4531	85.8133	64.4531	83.9938	64.4531	85.7815	64.4531	83.932	64.4531	85.7149	64.4531	83.896	64.4531	85.6178	64.4531	83.8857	64.4531	85.496	64.4531	83.9008	64.4531	85.356	64.4531	83.94	64.4531	85.2042	64.4531	84.0018	64.4531	85.046	64.4531	84.0842	64.4531	84.8862	64.4531	84.1852	64.4531	84.7287	64.4531	84.3026	64.4531	84.577	64.4531	84.434
67.3828	85.8849	67.3828	85.7156	67.3828	86.0451	67.3828	85.5429	67.3828	86.1903	67.3828	85.3726	67.3828	86.3149	67.3828	85.2099	67.3828	86.4137	67.3828	85.0597	67.3828	86.4821	67.3828	84.9266	67.3828	86.517	67.3828	84.8141	67.3828	86.5169	67.3828	84.7252	67.3828	86.4821	67.3828	84.6619	67.3828	86.4155	67.3828	84.6255	67.3828	86.3213	67.3828	84.6162	67.3828	86.2051	67.3828	84.6333	67.3828	86.0728	67.3828	84.6755	67.3828	85.9295	67.3828	84.7409	67.3828	85.7798	67.3828	84.8271	67.3828	85.6272	67.3828	84.9316	67.3828	85.475	67.3828	85.0516	67.3828	85.3263	67.3828	85.1842
68.8477	86.156	68.8477	85.988	68.8477	86.3136	68.8477	85.8156	68.8477	86.4552	68.8477	85.6443	68.8477	86.5751	68.8477	85.4798	68.8477	86.6684	68.8477	85.3272	68.8477	86.7311	68.8477	85.1909	68.8477	86.7602	68.8477	85.075	68.8477	86.7548	68.8477	84.9827	68.8477	86.7156	68.8477	84.9161	68.8477	86.6458	68.8477	84.8767	68.8477	86.55	68.8477	84.8648	68.8477	86.4338	68.8477	84.8799	68.8477	86.3028	68.8477	84.9207	68.8477	86.1618	68.8477	84.9853	68.8477	86.0149	68.8477	85.0712	68.8477	85.8651	68.8477	85.1755	68.8477	85.7153	68.8477	85.2953	68.8477	85.5684	68.8477	85.4273
71.7773	86.5897	71.7773	86.427	71.7773	86.7399	71.7773	86.2577	71.7773	86.872	71.7773	86.0874	71.7773	86.9806	71.7773	85.922	71.7773	87.0612	71.7773	85.7666	71.7773	87.1101	71.7773	85.6263	71.7773	87.1251	71.7773	85.5051	71.7773	87.1056	71.7773	85.4065	71.7773	87.0534	71.7773	85.3332	71.7773	86.9721	71.7773	85.2866	71.7773	86.8671	71.7773	85.2672	71.7773	86.7445	71.7773	85.2747	71.7773	86.6103	71.7773	85.3077	71.7773	86.4694	71.7773	85.3643	71.7773	86.3257	71.7773	85.4417	71.7773	86.1817	71.7773	85.5372	71.7773	86.0396	71.7773	85.6476	71.7773	85.9016	71.7773	85.7701
74.707	87.0538	74.707	86.8974	74.707	87.197	74.707	86.7335	74.707	87.3214	74.707	86.5677	74.707	87.4221	74.707	86.4058	74.707	87.4946	74.707	86.2529	74.707	87.5354	74.707	86.1139	74.707	87.5426	74.707	85.993	74.707	87.516	74.707	85.8937	74.707	87.4575	74.707	85.8185	74.707	87.3712	74.707	85.7689	74.707	87.2627	74.707	85.7455	74.707	87.1383	74.707	85.748	74.707	87.0042	74.707	85.775	74.707	86.8654	74.707	85.8247	74.707	86.7255	74.707	85.8947	74.707	86.587	74.707	85.9821	74.707	86.4517	74.707	86.0842	74.707	86.3214	74.707	86.1982
77.6367	87.3401	77.6367	87.1881	77.6367	87.4795	77.6367	87.0294	77.6367	87.6012	77.6367	86.8696	77.6367	87.7	77.6367	86.7142	77.6367	87.772	77.6367	86.5686	77.6367	87.814	77.6367	86.4376	77.6367	87.8246	77.6367	86.3255	77.6367	87.8041	77.6367	86.2356	77.6367	87.7546	77.6367	86.1706	77.6367	87.6803	77.6367	86.1318	77.6367	87.5865	77.6367	86.1197	77.6367	87.4788	77.6367	86.1336	77.6367	87.3625	77.6367	86.1719	77.6367	87.2413	77.6367	86.2321	77.6367	87.1177	77.6367	86.311	77.6367	86.9932	77.6367	86.4053	77.6367	86.8689	77.6367	86.5114	77.6367	86.7459	77.6367	86.6259
79.1016	87.4446	79.1016	87.29	79.1016	87.5857	79.1016	87.1278	79.1016	87.7078	79.1016	86.9641	79.1016	87.806	79.1016	86.8049	79.1016	87.8763	79.1016	86.6558	79.1016	87.916	79.1016	86.522	79.1016	87.9242	79.1016	86.4082	79.1016	87.9015	79.1016	86.3179	79.1016	87.8507	79.1016	86.2537	79.1016	87.7763	79.1016	86.2171	79.1016	87.6837	79.1016	86.2083	79.1016	87.5784	79.1016	86.2265	79.1016	87.4651	79.1016	86.2696	79.1016	87.3474	79.1016	86.3346	79.1016	87.2271	79.1016	86.4182	79.1016	87.1055	79.1016	86.5163	79.1016	86.9832	79.1016	86.6251	79.1016	86.8612	79.1016	86.7411
82.0313	87.6495	82.0313	87.4965	82.0313	87.7856	82.0313	87.3325	82.0313	87.8996	82.0313	87.1636	82.0313	87.9868	82.0313	86.9961	82.0313	88.0438	82.0313	86.8362	82.0313	88.0685	82.0313	86.6895	82.0313	88.0604	82.0313	86.5613	82.0313	88.021	82.0313	86.4559	82.0313	87.9538	82.0313	86.3767	82.0313	87.8638	82.0313	86.3256	82.0313	87.7573	82.0313	86.3035	82.0313	87.6402	82.0313	86.3097	82.0313	87.5176	82.0313	86.3423	82.0313	87.393	82.0313	86.3985	82.0313	87.2682	82.0313	86.4746	82.0313	87.1442	82.0313	86.5667	82.0313	87.0214	82.0313	86.6706	82.0313	86.9005	82.0313	86.7828
84.9609	87.7058	84.9609	87.5554	84.9609	87.8391	84.9609	87.3934	84.9609	87.9503	84.9609	87.2256	84.9609	88.035	84.9609	87.0576	84.9609	88.0895	84.9609	86.895	84.9609	88.1116	84.9609	86.7429	84.9609	88.1004	84.9609	86.6062	84.9609	88.0568	84.9609	86.4891	84.9609	87.9837	84.9609	86.3948	84.9609	87.8853	84.9609	86.3258	84.9609	87.7673	84.9609	86.2838	84.9609	87.6354	84.9609	86.2691	84.9609	87.4951	84.9609	86.2811	84.9609	87.3507	84.9609	86.3184	84.9609	87.2057	84.9609	86.3787	84.9609	87.0627	84.9609	86.4592	84.9609	86.9241	84.9609	86.5568	84.9609	86.792	84.9609	86.6687
87.8906	87.7729	87.8906	87.6235	87.8906	87.9083	87.8906	87.4663	87.8906	88.0245	87.8906	87.3074	87.8906	88.1168	87.8906	87.1527	87.8906	88.1817	87.8906	87.0078	87.8906	88.2171	87.8906	86.8778	87.8906	88.2226	87.8906	86.7668	87.8906	88.1997	87.8906	86.6777	87.8906	88.1512	87.8906	86.6129	87.8906	88.0811	87.8906	86.5732	87.8906	87.994	87.8906	86.5589	87.8906	87.8939	87.8906	86.5692	87.8906	87.7842	87.8906	86.6029	87.8906	87.6672	87.8906	86.658	87.8906	87.5447	87.8906	86.7322	87.8906	87.4185	87.8906	86.8228	87.8906	87.2908	87.8906	86.9271	87.8906	87.1643	87.8906	87.042
90.8203	87.3454	90.8203	87.1911	90.8203	87.487	90.8203	87.0309	90.8203	87.6103	90.8203	86.8724	90.8203	87.7116	90.8203	86.7239	90.8203	87.7885	90.8203	86.5934	90.8203	87.8411	90.8203	86.4883	90.8203	87.871	90.8203	86.4146	90.8203	87.8818	90.8203	86.3763	90.8203	87.8775	90.8203	86.3752	90.8203	87.8625	90.8203	86.4101	90.8203	87.8399	90.8203	86.4778	90.8203	87.811	90.8203	86.5727	90.8203	87.7754	90.8203	86.688	90.8203	87.7315	90.8203	86.8164	90.8203	87.677	90.8203	86.9506	90.8203	87.6105	90.8203	87.0842	90.8203	87.5306	90.8203	87.2122	90.8203	87.4372	90.8203	87.3306
95.2148	88.2309	95.2148	88.0893	95.2148	88.3485	95.2148	87.9294	95.2148	88.4373	95.2148	87.757	95.2148	88.4931	95.2148	87.5783	95.2148	88.5132	95.2148	87.399	95.2148	88.4967	95.2148	87.2248	95.2148	88.4445	95.2148	87.061	95.2148	88.36	95.2148	86.9127	95.2148	88.2488	95.2148	86.7843	95.2148	88.1183	95.2148	86.6798	95.2148	87.9764	95.2148	86.6027	95.2148	87.8301	95.2148	86.5557	95.2148	87.6846	95.2148	86.5401	95.2148	87.5424	95.2148	86.5561	95.2148	87.4037	95.2148	86.6021	95.2148	87.2679	95.2148	86.6749	95.2148	87.1345	95.2148	86.7699	95.2148	87.0047	95.2148	86.8816
98.1445	87.7321	98.1445	87.5823	98.1445	87.8608	98.1445	87.4179	98.1445	87.9625	98.1445	87.2466	98.1445	88.0331	98.1445	87.076	98.1445	88.0703	98.1445	86.9139	98.1445	88.0738	98.1445	86.7674	98.1445	88.0459	98.1445	86.6427	98.1445	87.9911	98.1445	86.5446	98.1445	87.9158	98.1445	86.4763	98.1445	87.8275	98.1445	86.4394	98.1445	87.7332	98.1445	86.4334	98.1445	87.6382	98.1445	86.4566	98.1445	87.5454	98.1445	86.5055	98.1445	87.4548	98.1445	86.5759	98.1445	87.3648	98.1445	86.6628	98.1445	87.2728	98.1445	86.7611	98.1445	87.1769	98.1445	86.8656	98.1445	87.0763	98.1445	86.9718
101.074	87.6195	101.074	87.4742	101.074	87.7402	101.074	87.3108	101.074	87.8309	101.074	87.1365	101.074	87.8878	101.074	86.9588	101.074	87.9088	101.074	86.7854	101.074	87.8938	101.074	86.6235	101.074	87.8456	101.074	86.4798	101.074	87.7691	101.074	86.3601	101.074	87.6716	101.074	86.2686	101.074	87.5617	101.074	86.2082	101.074	87.4477	101.074	86.1798	101.074	87.3359	101.074	86.1827	101.074	87.2299	101.074	86.2144	101.074	87.13	101.074	86.271	101.074	87.0343	101.074	86.3475	101.074	86.9395	101.074	86.4383	101.074	86.8429	101.074	86.5377	101.074	86.7431	101.074	86.6406
105.469	87.9468	105.469	87.8004	105.469	88.0683	105.469	87.636	105.469	88.1596	105.469	87.4612	105.469	88.2167	105.469	87.2844	105.469	88.2379	105.469	87.1139	105.469	88.2236	105.469	86.9577	105.469	88.1768	105.469	86.823	105.469	88.1031	105.469	86.7155	105.469	88.01	105.469	86.6393	105.469	87.9062	105.469	86.5964	105.469	87.7999	105.469	86.5865	105.469	87.6977	105.469	86.6074	105.469	87.6029	105.469	86.655	105.469	87.5159	105.469	86.724	105.469	87.4343	105.469	86.8083	105.469	87.3544	105.469	86.9018	105.469	87.2725	105.469	86.9988	105.469	87.1862	105.469	87.0946
108.398	87.6174	108.398	87.4699	108.398	87.7379	108.398	87.3021	108.398	87.8262	108.398	87.1217	108.398	87.8788	108.398	86.9373	108.398	87.8944	108.398	86.7577	108.398	87.874	108.398	86.5917	108.398	87.8212	108.398	86.4474	108.398	87.7422	108.398	86.3319	108.398	87.6453	108.398	86.25	108.398	87.5395	108.398	86.2047	108.398	87.4334	108.398	86.1959	108.398	87.3333	108.398	86.2213	108.398	87.2425	108.398	86.2762	108.398	87.1604	108.398	86.3541	108.398	87.084	108.398	86.4477	108.398	87.0088	108.398	86.5495	108.398	86.9304	108.398	86.6529	108.398	86.8455	108.398	86.7527
112.793	88.1334	112.793	87.9938	112.793	88.2423	112.793	87.8299	112.793	88.3157	112.793	87.6492	112.793	88.3504	112.793	87.4598	112.793	88.3456	112.793	87.2707	112.793	88.3032	112.793	87.0906	112.793	88.2279	112.793	86.9281	112.793	88.1272	112.793	86.7911	112.793	88.0107	112.793	86.6858	112.793	87.8891	112.793	86.6166	112.793	87.7718	112.793	86.5852	112.793	87.6656	112.793	86.5909	112.793	87.5727	112.793	86.6301	112.793	87.4915	112.793	86.6968	112.793	87.4171	112.793	86.7836	112.793	87.3438	112.793	86.8825	112.793	87.2661	112.793	86.9856	112.793	87.1806	112.793	87.0865
117.188	87.9136	117.188	87.7739	117.188	88.0216	117.188	87.609	117.188	88.0928	117.188	87.4265	117.188	88.1238	117.188	87.2349	117.188	88.1133	117.188	87.0428	117.188	88.0628	117.188	86.8592	117.188	87.9762	117.188	86.6927	117.188	87.8607	117.188	86.5511	117.188	87.7258	117.188	86.4405	117.188	87.5827	117.188	86.3654	117.188	87.4422	117.188	86.3273	117.188	87.3134	117.188	86.3254	117.188	87.2015	117.188	86.3556	117.188	87.1075	117.188	86.412	117.188	87.0282	117.188	86.4866	117.188	86.958	117.188	86.5713	117.188	86.8902	117.188	86.6584	117.188	86.8193	117.188	86.7421
120.117	88.242	120.117	88.1104	120.117	88.3426	120.117	87.9538	120.117	88.408	120.117	87.7791	120.117	88.4355	120.117	87.5943	120.117	88.425	120.117	87.4082	120.117	88.3785	120.117	87.2296	120.117	88.3009	120.117	87.0674	120.117	88.1995	120.117	86.9298	120.117	88.0833	120.117	86.8238	120.117	87.9622	120.117	86.7542	120.117	87.8449	120.117	86.7232	120.117	87.7379	120.117	86.7297	120.117	87.6441	120.117	86.7697	120.117	87.5631	120.117	86.8363	120.117	87.4914	120.117	86.9209	120.117	87.4241	120.117	87.0148	120.117	87.3557	120.117	87.1097	120.117	87.2818	120.117	87.1998
124.512	87.817	124.512	87.6779	124.512	87.9222	124.512	87.512	124.512	87.9881	124.512	87.3271	124.512	88.0116	124.512	87.1319	124.512	87.992	124.512	86.9353	124.512	87.9319	124.512	86.7462	124.512	87.8375	124.512	86.5731	124.512	87.7187	124.512	86.4238	124.512	87.5877	124.512	86.3053	124.512	87.4575	124.512	86.2229	124.512	87.3394	124.512	86.18	124.512	87.24	124.512	86.1774	124.512	87.16	124.512	86.213	124.512	87.0947	124.512	86.2817	124.512	87.0357	124.512	86.3757	124.512	86.9738	124.512	86.4857	124.512	86.9016	124.512	86.6013	124.512	86.8148	124.512	86.7134
128.906	87.8194	128.906	87.6735	128.906	87.9302	128.906	87.4996	128.906	88.0001	128.906	87.3061	128.906	88.025	128.906	87.1018	128.906	88.0036	128.906	86.8958	128.906	87.9371	128.906	86.6971	128.906	87.8302	128.906	86.5144	128.906	87.6911	128.906	86.3553	128.906	87.5308	128.906	86.226	128.906	87.3625	128.906	86.1312	128.906	87.199	128.906	86.0733	128.906	87.0509	128.906	86.0524	128.906	86.9242	128.906	86.0658	128.906	86.8197	128.906	86.1087	128.906	86.733	128.906	86.1741	128.906	86.6571	128.906	86.2542	128.906	86.5843	128.906	86.3408	128.906	86.5085	128.906	86.427
133.301	87.828	133.301	87.6834	133.301	87.9393	133.301	87.5127	133.301	88.0122	133.301	87.324	133.301	88.0434	133.301	87.1263	133.301	88.0324	133.301	86.9289	133.301	87.9814	133.301	86.7412	133.301	87.8959	133.301	86.5718	133.301	87.784	133.301	86.4283	133.301	87.6555	133.301	86.3169	133.301	87.5212	133.301	86.2416	133.301	87.3903	133.301	86.2041	133.301	87.2697	133.301	86.2034	133.301	87.1624	133.301	86.2358	133.301	87.0683	133.301	86.2955	133.301	86.9843	133.301	86.3752	133.301	86.9055	133.301	86.4666	133.301	86.8269	133.301	86.5622	133.301	86.7444	133.301	86.656
139.16	87.6092	139.16	87.4645	139.16	87.717	139.16	87.2902	139.16	87.7826	139.16	87.0956	139.16	87.8033	139.16	86.8912	139.16	87.7798	139.16	86.6879	139.16	87.7165	139.16	86.4968	139.16	87.6211	139.16	86.3284	139.16	87.5051	139.16	86.1919	139.16	87.3814	139.16	86.0942	139.16	87.2628	139.16	86.0394	139.16	87.1593	139.16	86.0285	139.16	87.0757	139.16	86.0588	139.16	87.0115	139.16	86.1244	139.16	86.9613	139.16	86.2168	139.16	86.9173	139.16	86.3262	139.16	86.871	139.16	86.4421	139.16	86.815	139.16	86.5549	139.16	86.7444	139.16	86.6573
143.555	87.6026	143.555	87.4524	143.555	87.7114	143.555	87.2682	143.555	87.7734	143.555	87.0596	143.555	87.7862	143.555	86.8372	143.555	87.7504	143.555	86.6126	143.555	87.671	143.555	86.3977	143.555	87.5564	143.555	86.204	143.555	87.4191	143.555	86.0423	143.555	87.2738	143.555	85.921	143.555	87.135	143.555	85.8461	143.555	87.0146	143.555	85.82	143.555	86.9188	143.555	85.841	143.555	86.8472	143.555	85.9035	143.555	86.7937	143.555	85.9986	143.555	86.7487	143.555	86.1148	143.555	86.7018	143.555	86.2401	143.555	86.644	143.555	86.3632	143.555	86.569	143.555	86.4748
147.949	87.5648	147.949	87.4106	147.949	87.6741	147.949	87.2196	147.949	87.7333	147.949	87.0014	147.949	87.7398	147.949	86.7673	147.949	87.6948	147.949	86.5293	147.949	87.6036	147.949	86.3002	147.949	87.4758	147.949	86.0922	147.949	87.3254	147.949	85.9167	147.949	87.1685	147.949	85.7831	147.949	87.0215	147.949	85.698	147.949	86.8968	147.949	85.6643	147.949	86.8003	147.949	85.6807	147.949	86.7303	147.949	85.7418	147.949	86.6787	147.949	85.8384	147.949	86.6344	147.949	85.9589	147.949	86.5859	147.949	86.0905	147.949	86.5238	147.949	86.2212	147.949	86.4427	147.949	86.3409
153.809	87.6249	153.809	87.4712	153.809	87.729	153.809	87.2755	153.809	87.7782	153.809	87.047	153.809	87.7696	153.809	86.7965	153.809	87.704	153.809	86.5359	153.809	87.5858	153.809	86.278	153.809	87.4246	153.809	86.0362	153.809	87.2346	153.809	85.8237	153.809	87.0345	153.809	85.6524	153.809	86.8443	153.809	85.532	153.809	86.6819	153.809	85.468	153.809	86.5581	153.809	85.4614	153.809	86.4739	153.809	85.5077	153.809	86.4203	153.809	85.5973	153.809	86.3823	153.809	85.7172	153.809	86.3433	153.809	85.8523	153.809	86.2896	153.809	85.9878	153.809	86.2129	153.809	86.111
159.668	87.7481	159.668	87.6011	159.668	87.8463	159.668	87.4126	159.668	87.8905	159.668	87.1917	159.668	87.8782	159.668	86.9487	159.668	87.81	159.668	86.6949	159.668	87.6905	159.668	86.4424	159.668	87.5281	159.668	86.2032	159.668	87.3355	159.668	85.9894	159.668	87.1285	159.668	85.8118	159.668	86.9244	159.668	85.6794	159.668	86.7394	159.668	85.5979	159.668	86.5854	159.668	85.5691	159.668	86.4672	159.668	85.5898	159.668	86.3821	159.668	85.6521	159.668	86.3207	159.668	85.7442	159.668	86.2698	159.668	85.8524	159.668	86.2159	159.668	85.9629	159.668	86.149	159.668	86.0642
165.527	87.6903	165.527	87.5452	165.527	87.7852	165.527	87.3575	165.527	87.8247	165.527	87.137	165.527	87.8067	165.527	86.8947	165.527	87.7328	165.527	86.6427	165.527	87.6094	165.527	86.3937	165.527	87.4473	165.527	86.1605	165.527	87.2615	165.527	85.9555	165.527	87.07	165.527	85.7901	165.527	86.8908	165.527	85.6733	165.527	86.7385	165.527	85.6105	165.527	86.6213	165.527	85.6028	165.527	86.5394	165.527	85.6461	165.527	86.4859	165.527	85.7313	165.527	86.4486	165.527	85.8452	165.527	86.4134	165.527	85.9727	165.527	86.3674	165.527	86.0987	165.527	86.3012	165.527	86.2109
171.387	87.5657	171.387	87.421	171.387	87.6576	171.387	87.2314	171.387	87.6914	171.387	87.0068	171.387	87.6651	171.387	86.7588	171.387	87.5807	171.387	86.4999	171.387	87.445	171.387	86.2431	171.387	87.2697	171.387	86.0018	171.387	87.0712	171.387	85.789	171.387	86.8688	171.387	85.6165	171.387	86.6822	171.387	85.4941	171.387	86.527	171.387	85.4281	171.387	86.4121	171.387	85.4201	171.387	86.3369	171.387	85.4662	171.387	86.2933	171.387	85.5567	171.387	86.2672	171.387	85.6773	171.387	86.2428	171.387	85.8114	171.387	86.2056	171.387	85.9424	171.387	86.145	171.387	86.0565
177.246	87.4263	177.246	87.2841	177.246	87.5139	177.246	87.0954	177.246	87.5419	177.246	86.8702	177.246	87.5085	177.246	86.6206	177.246	87.4163	177.246	86.3596	177.246	87.2726	177.246	86.101	177.246	87.09	177.246	85.8586	177.246	86.886	177.246	85.6459	177.246	86.6809	177.246	85.4749	177.246	86.495	177.246	85.3552	177.246	86.3442	177.246	85.2926	177.246	86.2362	177.246	85.2881	177.246	86.1693	177.246	85.337	177.246	86.1339	177.246	85.4292	177.246	86.1151	177.246	85.5503	177.246	86.0967	177.246	85.6835	177.246	86.0645	177.246	85.8124	177.246	86.0082	177.246	85.9234
183.105	87.2567	183.105	87.1073	183.105	87.3459	183.105	86.9056	183.105	87.37	183.105	86.662	183.105	87.3277	183.105	86.3888	183.105	87.222	183.105	86.1002	183.105	87.0612	183.105	85.8115	183.105	86.859	183.105	85.5392	183.105	86.635	183.105	85.2997	183.105	86.412	183.105	85.108	183.105	86.2131	183.105	84.9765	183.105	86.0565	183.105	84.9126	183.105	85.951	183.105	84.9171	183.105	85.8938	183.105	84.9837	183.105	85.8723	183.105	85.0991	183.105	85.8678	183.105	85.2456	183.105	85.8604	183.105	85.4033	183.105	85.8331	183.105	85.5533	183.105	85.7746	183.105	85.6803
188.965	87.402	188.965	87.2647	188.965	87.4759	188.965	87.0712	188.965	87.4819	188.965	86.8306	188.965	87.4189	188.965	86.5539	188.965	87.2897	188.965	86.2539	188.965	87.1025	188.965	85.9445	188.965	86.8707	188.965	85.6414	188.965	86.6137	188.965	85.3612	188.965	86.3556	188.965	85.1207	188.965	86.1215	188.965	84.936	188.965	85.9331	188.965	84.8197	188.965	85.8028	188.965	84.7784	188.965	85.7302	188.965	84.8105	188.965	85.7027	188.965	84.9054	188.965	85.6986	188.965	85.0449	188.965	85.6939	188.965	85.206	188.965	85.6675	188.965	85.3654	188.965	85.6055	188.965	85.5031
196.289	87.4189	196.289	87.2878	196.289	87.4869	196.289	87.1018	196.289	87.4867	196.289	86.8708	196.289	87.417	196.289	86.6065	196.289	87.281	196.289	86.3217	196.289	87.0875	196.289	86.0298	196.289	86.8511	196.289	85.745	196.289	86.5918	196.289	85.4816	196.289	86.3332	196.289	85.254	196.289	86.0989	196.289	85.0755	196.289	85.9091	196.289	84.9572	196.289	85.7753	196.289	84.9057	196.289	85.6986	196.289	84.921	196.289	85.6686	196.289	84.9952	196.289	85.6663	196.289	85.1131	196.289	85.6682	196.289	85.2539	196.289	85.6524	196.289	85.395	196.289	85.6037	196.289	85.5162
203.613	87.2928	203.613	87.1556	203.613	87.3588	203.613	86.9568	203.613	87.3471	203.613	86.7081	203.613	87.2555	203.613	86.4229	203.613	87.0871	203.613	86.1158	203.613	86.8514	203.613	85.8019	203.613	86.5656	203.613	85.497	203.613	86.2546	203.613	85.2167	203.613	85.9483	203.613	84.9764	203.613	85.6776	203.613	84.7898	203.613	85.467	203.613	84.6676	203.613	85.3291	203.613	84.6152	203.613	85.2617	203.613	84.6313	203.613	85.2494	203.613	84.706	203.613	85.2686	203.613	84.8224	203.613	85.293	203.613	84.9584	203.613	85.2989	203.613	85.0907	203.613	85.2698	203.613	85.1991
210.938	87.29	210.938	87.1438	210.938	87.365	210.938	86.9359	210.938	87.3621	210.938	86.6773	210.938	87.2781	210.938	86.3804	210.938	87.1144	210.938	86.0585	210.938	86.8783	210.938	85.7253	210.938	86.5841	210.938	85.3954	210.938	86.2539	210.938	85.084	210.938	85.9164	210.938	84.8072	210.938	85.6037	210.938	84.5813	210.938	85.3451	210.938	84.4209	210.938	85.16	210.938	84.3362	210.938	85.0526	210.938	84.3294	210.938	85.0112	210.938	84.3928	210.938	85.0121	210.938	84.5083	210.938	85.026	210.938	84.6507	210.938	85.0254	210.938	84.793	210.938	84.99	210.938	84.9112
218.262	87.1746	218.262	87.0374	218.262	87.2421	218.262	86.8401	218.262	87.2334	218.262	86.5946	218.262	87.1458	218.262	86.314	218.262	86.9819	218.262	86.0122	218.262	86.7503	218.262	85.7034	218.262	86.4664	218.262	85.4018	218.262	86.1523	218.262	85.1217	218.262	85.8344	218.262	84.8771	218.262	85.5403	218.262	84.6816	218.262	85.2942	218.262	84.5462	218.262	85.1122	218.262	84.4778	218.262	85.0002	218.262	84.4761	218.262	84.9522	218.262	84.5322	218.262	84.9513	218.262	84.6289	218.262	84.9728	218.262	84.7435	218.262	84.9902	218.262	84.8524	218.262	84.9818	218.262	84.9357
225.586	87.1531	225.586	87.0096	225.586	87.2162	225.586	86.7969	225.586	87.1911	225.586	86.5289	225.586	87.0745	225.586	86.2211	225.586	86.8695	225.586	85.89	225.586	86.5874	225.586	85.5521	225.586	86.2498	225.586	85.2241	225.586	85.8889	225.586	84.9227	225.586	85.5448	225.586	84.6646	225.586	85.2579	225.586	84.4669	225.586	85.0583	225.586	84.3448	225.586	84.9565	225.586	84.3089	225.586	84.9431	225.586	84.3598	225.586	84.9934	225.586	84.4851	225.586	85.0759	225.586	84.6592	225.586	85.1578	225.586	84.8488	225.586	85.2097	225.586	85.02	225.586	85.2094	225.586	85.1454
232.91	87.4209	232.91	87.2671	232.91	87.4927	232.91	87.0427	232.91	87.4732	232.91	86.7609	232.91	87.3567	232.91	86.436	232.91	87.1417	232.91	86.0827	232.91	86.8338	232.91	85.7163	232.91	86.4472	232.91	85.3516	232.91	86.0073	232.91	85.0034	232.91	85.5514	232.91	84.6868	232.91	85.1247	232.91	84.4179	232.91	84.773	232.91	84.2133	232.91	84.5304	232.91	84.0883	232.91	84.4093	232.91	84.0519	232.91	84.3964	232.91	84.1008	232.91	84.4576	232.91	84.2157	232.91	84.5478	232.91	84.3637	232.91	84.6226	232.91	84.5061	232.91	84.6482	232.91	84.6082
241.699	87.3838	241.699	87.2072	241.699	87.4827	241.699	86.9655	241.699	87.4945	241.699	86.6725	241.699	87.4126	241.699	86.3435	241.699	87.2352	241.699	85.994	241.699	86.9668	241.699	85.6388	241.699	86.6197	241.699	85.2913	241.699	86.2166	241.699	84.9635	241.699	85.79	241.699	84.6662	241.699	85.3793	241.699	84.4103	241.699	85.0238	241.699	84.2079	241.699	84.7526	241.699	84.0712	241.699	84.5776	241.699	84.0095	241.699	84.4917	241.699	84.0235	241.699	84.4722	241.699	84.1008	241.699	84.4873	241.699	84.2161	241.699	84.5028	241.699	84.3372	241.699	84.4904	241.699	84.4347
250.488	87.508	250.488	87.3089	250.488	87.623	250.488	87.0379	250.488	87.644	250.488	86.7087	250.488	87.5647	250.488	86.3369	250.488	87.3835	250.488	85.9392	250.488	87.1058	250.488	85.5335	250.488	86.7467	250.488	85.1384	250.488	86.3324	250.488	84.7718	250.488	85.9001	250.488	84.4497	250.488	85.4924	250.488	84.186	250.488	85.1474	250.488	83.9915	250.488	84.8879	250.488	83.8745	250.488	84.7165	250.488	83.839	250.488	84.6195	250.488	83.8809	250.488	84.5742	250.488	83.9853	250.488	84.5541	250.488	84.1264	250.488	84.532	250.488	84.2732	250.488	84.4846	250.488	84.398
259.277	87.6373	259.277	87.4484	259.277	87.7456	259.277	87.1897	259.277	87.7651	259.277	86.8739	259.277	87.6896	259.277	86.5151	259.277	87.5162	259.277	86.1289	259.277	87.246	259.277	85.7312	259.277	86.8864	259.277	85.3383	259.277	86.4549	259.277	84.9661	259.277	85.9829	259.277	84.6297	259.277	85.5172	259.277	84.3439	259.277	85.115	259.277	84.1229	259.277	84.8261	259.277	83.9805	259.277	84.6715	259.277	83.9274	259.277	84.633	259.277	83.9653	259.277	84.6636	259.277	84.0817	259.277	84.7094	259.277	84.2486	259.277	84.726	259.277	84.4284	259.277	84.6865	259.277	84.5835
268.066	87.2936	268.066	87.0895	268.066	87.4137	268.066	86.8124	268.066	87.4432	268.066	86.4764	268.066	87.3792	268.066	86.0993	268.066	87.2225	268.066	85.7009	268.066	86.9778	268.066	85.302	268.066	86.6544	268.066	84.9226	268.066	86.2681	268.066	84.5808	268.066	85.843	268.066	84.2901	268.066	85.4127	268.066	84.0594	268.066	85.0182	268.066	83.8938	268.066	84.7003	268.066	83.7958	268.066	84.4866	268.066	83.7671	268.066	84.3809	268.066	83.8059	268.066	84.3594	268.066	83.9032	268.066	84.3799	268.066	84.0386	268.066	84.3971	268.066	84.1824	268.066	84.3764	268.066	84.3027
276.855	87.6042	276.855	87.4697	276.855	87.6348	276.855	87.2364	276.855	87.5622	276.855	86.9143	276.855	87.3941	276.855	86.517	276.855	87.1453	276.855	86.0611	276.855	86.8358	276.855	85.5661	276.855	86.4885	276.855	85.0558	276.855	86.1247	276.855	84.559	276.855	85.7621	276.855	84.1105	276.855	85.4148	276.855	83.7477	276.855	85.0977	276.855	83.5041	276.855	84.8286	276.855	83.3977	276.855	84.626	276.855	83.4236	276.855	84.4999	276.855	83.5544	276.855	84.4433	276.855	83.748	276.855	84.4299	276.855	83.9601	276.855	84.4224	276.855	84.1521	276.855	84.386	276.855	84.2979
287.109	87.5948	287.109	87.4481	287.109	87.6403	287.109	87.2112	287.109	87.5775	287.109	86.8977	287.109	87.4047	287.109	86.5229	287.109	87.1269	287.109	86.1026	287.109	86.7582	287.109	85.6527	287.109	86.323	287.109	85.1881	287.109	85.8567	287.109	84.7231	287.109	85.4034	287.109	84.2726	287.109	85.0089	287.109	83.8561	287.109	84.7112	287.109	83.5015	287.109	84.5297	287.109	83.2475	287.109	84.4604	287.109	83.1347	287.109	84.4766	287.109	83.1862	287.109	84.5346	287.109	83.3881	287.109	84.584	287.109	83.6867	287.109	84.578	287.109	84.0091	287.109	84.4837	287.109	84.2892
297.363	87.5526	297.363	87.3741	297.363	87.6292	297.363	87.1081	297.363	87.5921	297.363	86.7707	297.363	87.4336	297.363	86.3791	297.363	87.1531	297.363	85.9518	297.363	86.7596	297.363	85.5083	297.363	86.2762	297.363	85.0688	297.363	85.7412	297.363	84.6518	297.363	85.2066	297.363	84.2716	297.363	84.73	297.363	83.9372	297.363	84.3623	297.363	83.6552	297.363	84.1364	297.363	83.4359	297.363	84.0585	297.363	83.2986	297.363	84.103	297.363	83.2693	297.363	84.2138	297.363	83.3641	297.363	84.3188	297.363	83.5696	297.363	84.3528	297.363	83.8361	297.363	84.2779	297.363	84.0934
307.617	87.6952	307.617	87.5173	307.617	87.7836	307.617	87.262	307.617	87.7727	307.617	86.9424	307.617	87.655	307.617	86.5718	307.617	87.4265	307.617	86.1632	307.617	87.0887	307.617	85.7291	307.617	86.6514	307.617	85.2835	307.617	86.1363	307.617	84.8432	307.617	85.5785	307.617	84.4293	307.617	85.0237	307.617	84.0661	307.617	84.5205	307.617	83.7783	307.617	84.1114	307.617	83.585	307.617	83.8275	307.617	83.4944	307.617	83.6835	307.617	83.4991	307.617	83.6678	307.617	83.5759	307.617	83.7364	307.617	83.69	307.617	83.8264	307.617	83.8012	307.617	83.8817	307.617	83.8731
319.336	87.6317	319.336	87.4356	319.336	87.7153	319.336	87.143	319.336	87.6754	319.336	86.7741	319.336	87.5068	319.336	86.3512	319.336	87.2106	319.336	85.897	319.336	86.7949	319.336	85.432	319.336	86.277	319.336	84.9727	319.336	85.6871	319.336	84.531	319.336	85.0721	319.336	84.1146	319.336	84.4944	319.336	83.7318	319.336	84.0204	319.336	83.3971	319.336	83.6991	319.336	83.138	319.336	83.5449	319.336	82.9922	319.336	83.5367	319.336	82.9908	319.336	83.6291	319.336	83.1315	319.336	83.7623	319.336	83.3663	319.336	83.8704	319.336	83.6176	319.336	83.8966	319.336	83.8099
329.59	87.7891	329.59	87.5825	329.59	87.8976	329.59	87.2922	329.59	87.8986	329.59	86.9364	329.59	87.7882	329.59	86.5352	329.59	87.5672	329.59	86.1079	329.59	87.2399	329.59	85.6711	329.59	86.8131	329.59	85.2386	329.59	86.2969	329.59	84.8202	329.59	85.7077	329.59	84.4223	329.59	85.074	329.59	84.0488	329.59	84.4432	329.59	83.7041	329.59	83.8832	329.59	83.3995	329.59	83.4689	329.59	83.1576	329.59	83.2483	329.59	83.0093	329.59	83.2086	329.59	82.9769	329.59	83.2771	329.59	83.0522	329.59	83.3589	329.59	83.1882	329.59	83.3813	329.59	83.3172
341.309	86.9997	341.309	86.7789	341.309	87.1106	341.309	86.4636	341.309	87.1065	341.309	86.0789	341.309	86.9921	341.309	85.6572	341.309	86.7807	341.309	85.2333	341.309	86.492	341.309	84.8375	341.309	86.1501	341.309	84.4896	341.309	85.7787	341.309	84.1956	341.309	85.3961	341.309	83.9505	341.309	85.0116	341.309	83.7435	341.309	84.628	341.309	83.5665	341.309	84.2522	341.309	83.4209	341.309	83.9101	341.309	83.3203	341.309	83.6494	341.309	83.2835	341.309	83.5153	341.309	83.3204	341.309	83.508	341.309	83.4162	341.309	83.5699	341.309	83.5297	341.309	83.6214	341.309	83.6097
353.027	87.4252	353.027	87.2127	353.027	87.4856	353.027	86.8602	353.027	87.3894	353.027	86.3863	353.027	87.1413	353.027	85.817	353.027	86.7572	353.027	85.1871	353.027	86.2667	353.027	84.5417	353.027	85.7147	353.027	83.9346	353.027	85.1586	353.027	83.4195	353.027	84.6587	353.027	83.0344	353.027	84.2602	353.027	82.7876	353.027	83.9769	353.027	82.6599	353.027	83.7886	353.027	82.6221	353.027	83.6593	353.027	82.6534	353.027	83.5632	353.027	82.7457	353.027	83.4962	353.027	82.8914	353.027	83.4631	353.027	83.0689	353.027	83.4534	353.027	83.2404	353.027	83.4339	353.027	83.3678
366.211	87.5424	366.211	87.3291	366.211	87.6161	366.211	86.9937	366.211	87.5375	366.211	86.5565	366.211	87.301	366.211	86.0387	366.211	86.9119	366.211	85.4623	366.211	86.3904	366.211	84.8508	366.211	85.7766	366.211	84.2319	366.211	85.1307	366.211	83.6377	366.211	84.5242	366.211	83.1024	366.211	84.0189	366.211	82.6554	366.211	83.646	366.211	82.318	366.211	83.4031	366.211	82.1049	366.211	83.2712	366.211	82.0301	366.211	83.2307	366.211	82.103	366.211	83.2594	366.211	82.3115	366.211	83.32	366.211	82.6081	366.211	83.3581	366.211	82.9189	366.211	83.3192	366.211	83.1711
379.395	87.8652	379.395	87.6574	379.395	87.9446	379.395	87.3381	379.395	87.8821	379.395	86.927	379.395	87.6692	379.395	86.444	379.395	87.3027	379.395	85.9073	379.395	86.7884	379.395	85.3325	379.395	86.1465	379.395	84.7337	379.395	85.4201	379.395	84.1262	379.395	84.6809	379.395	83.5288	379.395	84.021	379.395	82.9651	379.395	83.5215	379.395	82.465	379.395	83.2134	379.395	82.0672	379.395	83.0717	379.395	81.8186	379.395	83.045	379.395	81.7602	379.395	83.0819	379.395	81.8986	379.395	83.1309	379.395	82.185	379.395	83.1355	379.395	82.5289	379.395	83.0452	379.395	82.8367
392.578	87.3209	392.578	87.1354	392.578	87.3795	392.578	86.8387	392.578	87.3048	392.578	86.4552	392.578	87.0983	392.578	86.0143	392.578	86.7677	392.578	85.5449	392.578	86.3263	392.578	85.0704	392.578	85.7954	392.578	84.6054	392.578	85.2099	392.578	84.1577	392.578	84.6221	392.578	83.7304	392.578	84.0948	392.578	83.3249	392.578	83.6779	392.578	82.9445	392.578	83.3829	392.578	82.6009	392.578	83.1875	392.578	82.323	392.578	83.0669	392.578	82.1566	392.578	83.0114	392.578	82.144	392.578	83.0047	392.578	82.2862	392.578	82.9989	392.578	82.524	392.578	82.9304	392.578	82.7643
405.762	87.3603	405.762	87.106	405.762	87.4368	405.762	86.6988	405.762	87.3195	405.762	86.1716	405.762	87.004	405.762	85.5644	405.762	86.4998	405.762	84.9246	405.762	85.835	405.762	84.3059	405.762	85.0616	405.762	83.7636	405.762	84.2607	405.762	83.3436	405.762	83.5384	405.762	83.0652	405.762	83.0013	405.762	82.9133	405.762	82.7092	405.762	82.8477	405.762	82.6406	405.762	82.8259	405.762	82.7117	405.762	82.8234	405.762	82.8334	405.762	82.8386	405.762	82.9515	405.762	82.8822	405.762	83.0471	405.762	82.957	405.762	83.1136	405.762	83.045	405.762	83.1394	405.762	83.1145
420.41	87.9428	420.41	87.6511	420.41	88.0784	420.41	87.2234	420.41	88.0414	420.41	86.6824	420.41	87.82	420.41	86.0511	420.41	87.4068	420.41	85.3531	420.41	86.7996	420.41	84.6156	420.41	86.005	420.41	83.8764	420.41	85.0475	420.41	83.1899	420.41	83.9876	420.41	82.6224	420.41	82.9471	420.41	82.2303	420.41	82.1131	420.41	82.033	420.41	81.6695	420.41	82.0087	420.41	81.6679	420.41	82.1188	420.41	81.9925	420.41	82.3319	420.41	82.4634	420.41	82.6215	420.41	82.927	420.41	82.9463	420.41	83.2763	420.41	83.2404	420.41	83.4491	420.41	83.4283
435.059	87.5243	435.059	87.253	435.059	87.6415	435.059	86.8496	435.059	87.5945	435.059	86.3472	435.059	87.3835	435.059	85.7841	435.059	87.0169	435.059	85.1947	435.059	86.5097	435.059	84.6021	435.059	85.8857	435.059	84.0185	435.059	85.1805	435.059	83.4555	435.059	84.4459	435.059	82.9364	435.059	83.7508	435.059	82.5018	435.059	83.1732	435.059	82.2027	435.059	82.7826	435.059	82.0812	435.059	82.6208	435.059	82.1522	435.059	82.6878	435.059	82.3938	435.059	82.9339	435.059	82.7502	435.059	83.2617	435.059	83.1416	435.059	83.5537	435.059	83.4793	435.059	83.7116	435.059	83.6856
451.172	87.6886	451.172	87.362	451.172	87.8459	451.172	86.8852	451.172	87.8221	451.172	86.286	451.172	87.6106	451.172	85.5985	451.172	87.2081	451.172	84.8591	451.172	86.6164	451.172	84.0997	451.172	85.8491	451.172	83.345	451.172	84.9457	451.172	82.6127	451.172	83.9939	451.172	81.9211	451.172	83.1398	451.172	81.3031	451.172	82.544	451.172	80.8257	451.172	82.2799	451.172	80.5971	451.172	82.2929	451.172	80.723	451.172	82.491	451.172	81.2105	451.172	82.8164	451.172	81.9266	451.172	83.2082	451.172	82.6732	451.172	83.5562	451.172	83.2821	451.172	83.7324	451.172	83.6487
465.82	87.5543	465.82	87.2725	465.82	87.6735	465.82	86.8522	465.82	87.6167	465.82	86.3253	465.82	87.3817	465.82	85.7253	465.82	86.9743	465.82	85.0804	465.82	86.4043	465.82	84.411	465.82	85.682	465.82	83.7328	465.82	84.8219	465.82	83.0627	465.82	83.8589	465.82	82.4211	465.82	82.8786	465.82	81.8277	465.82	82.0375	465.82	81.2992	465.82	81.5161	465.82	80.8646	465.82	81.3879	465.82	80.5937	465.82	81.5608	465.82	80.5892	465.82	81.8779	465.82	80.8983	465.82	82.2112	465.82	81.4243	465.82	82.4599	465.82	81.9728	465.82	82.5339	465.82	82.3716
483.398	87.1553	483.398	86.8592	483.398	87.2797	483.398	86.4134	483.398	87.2323	483.398	85.8618	483.398	87.03	483.398	85.2617	483.398	86.6951	483.398	84.6686	483.398	86.2432	483.398	84.1194	483.398	85.6772	483.398	83.6217	483.398	84.9933	483.398	83.1547	483.398	84.1996	483.398	82.6795	483.398	83.3389	483.398	82.1527	483.398	82.503	483.398	81.5469	483.398	81.8253	483.398	80.8898	483.398	81.4531	483.398	80.3221	483.398	81.4915	483.398	80.111	483.398	81.9064	483.398	80.4622	483.398	82.4817	483.398	81.2527	483.398	82.9356	483.398	82.1272	483.398	83.0635	483.398	82.7831
499.512	87.4394	499.512	87.1138	499.512	87.5526	499.512	86.5961	499.512	87.4571	499.512	85.93	499.512	87.1753	499.512	85.1765	499.512	86.742	499.512	84.4011	499.512	86.1941	499.512	83.6611	499.512	85.5617	499.512	83.0007	499.512	84.8636	499.512	82.4538	499.512	84.1158	499.512	82.0419	499.512	83.3535	499.512	81.7584	499.512	82.6473	499.512	81.559	499.512	82.0884	499.512	81.3864	499.512	81.7417	499.512	81.2281	499.512	81.6283	499.512	81.1616	499.512	81.7499	499.512	81.3126	499.512	82.0638	499.512	81.7092	499.512	82.4241	499.512	82.1978	499.512	82.6315	499.512	82.5541
517.09	87.8186	517.09	87.4719	517.09	87.962	517.09	86.9503	517.09	87.8978	517.09	86.3042	517.09	87.6415	517.09	85.597	517.09	87.2227	517.09	84.8852	517.09	86.6747	517.09	84.2005	517.09	86.0233	517.09	83.548	517.09	85.2812	517.09	82.9234	517.09	84.4577	517.09	82.332	517.09	83.5854	517.09	81.7895	517.09	82.7468	517.09	81.3062	517.09	82.0707	517.09	80.8864	517.09	81.675	517.09	80.5682	517.09	81.6048	517.09	80.4674	517.09	81.8235	517.09	80.7174	517.09	82.2105	517.09	81.2942	517.09	82.5681	517.09	81.9728	517.09	82.6984	517.09	82.4931
536.133	87.4423	536.133	87.089	536.133	87.5175	536.133	86.4853	536.133	87.3148	536.133	85.6886	536.133	86.8632	536.133	84.7869	536.133	86.2275	536.133	83.8915	536.133	85.5126	536.133	83.1121	536.133	84.8499	536.133	82.5228	536.133	84.3405	536.133	82.1406	536.133	83.9863	536.133	81.9279	536.133	83.6879	536.133	81.8057	536.133	83.3231	536.133	81.6724	536.133	82.8376	536.133	81.4417	536.133	82.3156	536.133	81.1073	536.133	81.9941	536.133	80.8174	536.133	82.0892	536.133	80.8537	536.133	82.5132	536.133	81.3623	536.133	82.9311	536.133	82.1226	536.133	83.0546	536.133	82.7664
555.176	87.8428	555.176	87.5259	555.176	87.9166	555.176	86.9837	555.176	87.7418	555.176	86.2517	555.176	87.3193	555.176	85.3864	555.176	86.6528	555.176	84.4631	555.176	85.754	555.176	83.5656	555.176	84.6639	555.176	82.7665	555.176	83.498	555.176	82.1097	555.176	82.4876	555.176	81.6049	555.176	81.8961	555.176	81.2284	555.176	81.7482	555.176	80.9244	555.176	81.7516	555.176	80.6178	555.176	81.5947	555.176	80.2621	555.176	81.2209	555.176	79.9142	555.176	80.8955	555.176	79.7695	555.176	80.9306	555.176	80.018	555.176	81.2137	555.176	80.5762	555.176	81.3496	555.176	81.1155
574.219	88.04	574.219	87.6822	574.219	88.1491	574.219	87.0983	574.219	88.0014	574.219	86.3275	574.219	87.6025	574.219	85.424	574.219	86.9721	574.219	84.4477	574.219	86.1399	574.219	83.4538	574.219	85.1381	574.219	82.4927	574.219	84.0018	574.219	81.6298	574.219	82.8067	574.219	80.9581	574.219	81.7369	574.219	80.5563	574.219	81.0642	574.219	80.3989	574.219	80.8799	574.219	80.3408	574.219	80.9354	574.219	80.2357	574.219	80.9686	574.219	80.0863	574.219	81.0089	574.219	80.0932	574.219	81.2387	574.219	80.4607	574.219	81.6044	574.219	81.0849	574.219	81.804	574.219	81.6209
594.727	87.3929	594.727	87.0978	594.727	87.4724	594.727	86.5992	594.727	87.3419	594.727	85.9318	594.727	87.0162	594.727	85.1522	594.727	86.507	594.727	84.3277	594.727	85.8148	594.727	83.5157	594.727	84.9315	594.727	82.7461	594.727	83.8636	594.727	82.0286	594.727	82.6743	594.727	81.382	594.727	81.5316	594.727	80.8526	594.727	80.6901	594.727	80.4875	594.727	80.3289	594.727	80.2801	594.727	80.3953	594.727	80.1664	594.727	80.6953	594.727	80.1032	594.727	81.0551	594.727	80.1367	594.727	81.3565	594.727	80.3556	594.727	81.5107	594.727	80.7502	594.727	81.4529	594.727	81.172
615.234	87.9674	615.234	87.6083	615.234	88.0138	615.234	86.9767	615.234	87.7426	615.234	86.1451	615.234	87.1886	615.234	85.2112	615.234	86.4251	615.234	84.2826	615.234	85.5468	615.234	83.4451	615.234	84.6342	615.234	82.7299	615.234	83.7251	615.234	82.1114	615.234	82.8348	615.234	81.5461	615.234	82.0092	615.234	81.0134	615.234	81.3212	615.234	80.5138	615.234	80.7647	615.234	80.035	615.234	80.2289	615.234	79.5567	615.234	79.7361	615.234	79.1388	615.234	79.6312	615.234	78.9965	615.234	80.1038	615.234	79.3345	615.234	80.7127	615.234	80.0256	615.234	80.9541	615.234	80.6786
637.207	87.9099	637.207	87.4641	637.207	88.0265	637.207	86.7195	637.207	87.8139	637.207	85.7462	637.207	87.2965	637.207	84.6618	637.207	86.5162	637.207	83.6222	637.207	85.5256	637.207	82.7722	637.207	84.3888	637.207	82.1737	637.207	83.2035	637.207	81.7839	637.207	82.1332	637.207	81.5071	637.207	81.3699	637.207	81.248	637.207	80.9607	637.207	80.9266	637.207	80.7045	637.207	80.4909	637.207	80.367	637.207	79.9694	637.207	80.0208	637.207	79.5625	637.207	80.1254	637.207	79.6262	637.207	80.8751	637.207	80.3042	637.207	81.74	637.207	81.2498	637.207	82.1677	637.207	81.9742
659.18	88.4502	659.18	88.0942	659.18	88.4686	659.18	87.4163	659.18	88.1624	659.18	86.4604	659.18	87.5733	659.18	85.3002	659.18	86.7622	659.18	84.0397	659.18	85.7875	659.18	82.7989	659.18	84.6763	659.18	81.6783	659.18	83.4211	659.18	80.7468	659.18	82.0406	659.18	80.0866	659.18	80.726	659.18	79.8049	659.18	79.9161	659.18	79.8887	659.18	79.8392	659.18	80.0964	659.18	80.0468	659.18	80.1162	659.18	80.0226	659.18	79.8087	659.18	79.788	659.18	79.3773	659.18	79.8087	659.18	79.3254	659.18	80.2306	659.18	79.8347	659.18	80.5674	659.18	80.4148
682.617	88.1156	682.617	87.7692	682.617	88.099	682.617	87.1003	682.617	87.7085	682.617	86.1688	682.617	86.978	682.617	85.0522	682.617	86.0014	682.617	83.8476	682.617	84.9247	682.617	82.6706	682.617	83.8854	682.617	81.6352	682.617	82.9218	682.617	80.8183	682.617	81.9588	682.617	80.2478	682.617	80.9394	682.617	79.9138	682.617	80.0065	682.617	79.7594	682.617	79.4487	682.617	79.6601	682.617	79.2583	682.617	79.4773	682.617	79.1169	682.617	79.1957	682.617	79.023	682.617	79.0215	682.617	79.3294	682.617	79.225	682.617	79.9488	682.617	79.76	682.617	80.35	682.617	80.2525
707.52	88.4085	707.52	88.0179	707.52	88.4069	707.52	87.2739	707.52	88.0171	707.52	86.2568	707.52	87.2887	707.52	85.0943	707.52	86.3102	707.52	83.9564	707.52	85.188	707.52	82.9882	707.52	84.0091	707.52	82.1973	707.52	82.8104	707.52	81.4552	707.52	81.6086	707.52	80.6722	707.52	80.5207	707.52	79.9633	707.52	79.8392	707.52	79.5819	707.52	79.7299	707.52	79.5407	707.52	79.8843	707.52	79.5025	707.52	79.9521	707.52	79.22	707.52	80.0737	707.52	78.9118	707.52	80.6032	707.52	79.1776	707.52	81.3068	707.52	80.1419	707.52	81.5829	707.52	81.1423
732.422	88.9206	732.422	88.5241	732.422	88.9283	732.422	87.7666	732.422	88.5418	732.422	86.7002	732.422	87.7807	732.422	85.415	732.422	86.6946	732.422	84.0665	732.422	85.3729	732.422	82.8657	732.422	83.9501	732.422	81.9525	732.422	82.5811	732.422	81.2665	732.422	81.3807	732.422	80.6605	732.422	80.395	732.422	80.1156	732.422	79.6527	732.422	79.7453	732.422	79.1787	732.422	79.5506	732.422	78.9114	732.422	79.3021	732.422	78.8055	732.422	78.8258	732.422	79.0979	732.422	78.412	732.422	79.9812	732.422	78.7879	732.422	80.9831	732.422	79.9708	732.422	81.4429	732.422	81.0655
757.324	88.9987	757.324	88.6923	757.324	88.9435	757.324	88.0234	757.324	88.5184	757.324	86.9817	757.324	87.7223	757.324	85.5776	757.324	86.584	757.324	83.9118	757.324	85.1787	757.324	82.2409	757.324	83.6306	757.324	80.8934	757.324	82.1031	757.324	79.9754	757.324	80.7812	757.324	79.3172	757.324	79.8311	757.324	78.814	757.324	79.3185	757.324	78.6117	757.324	79.0927	757.324	78.8305	757.324	78.7933	757.324	79.2114	757.324	78.1876	757.324	79.3775	757.324	77.7396	757.324	79.2805	757.324	78.3534	757.324	79.2728	757.324	79.549	757.324	79.6645	757.324	80.2494	757.324	80.1804
785.156	89.525	785.156	89.2553	785.156	89.4489	785.156	88.6132	785.156	89.0501	785.156	87.5736	785.156	88.3541	785.156	86.1371	785.156	87.3945	785.156	84.3921	785.156	86.2033	785.156	82.6114	785.156	84.7906	785.156	81.2267	785.156	83.155	785.156	80.4259	785.156	81.3638	785.156	79.8907	785.156	79.702	785.156	79.2572	785.156	78.6662	785.156	78.5736	785.156	78.4093	785.156	78.2034	785.156	78.4342	785.156	78.1478	785.156	78.2468	785.156	77.9564	785.156	78.0242	785.156	77.6059	785.156	78.728	785.156	77.9904	785.156	80.2328	785.156	79.485	785.156	81.1638	785.156	80.8629
811.523	89.2577	811.523	88.9552	811.523	89.1703	811.523	88.236	811.523	88.7261	811.523	87.0809	811.523	87.9741	811.523	85.4931	811.523	86.9837	811.523	83.5338	811.523	85.825	811.523	81.4068	811.523	84.5344	811.523	79.5902	811.523	83.0915	811.523	78.695	811.523	81.4433	811.523	78.7216	811.523	79.6443	811.523	79.0161	811.523	78.1384	811.523	79.1035	811.523	77.5632	811.523	78.9207	811.523	77.6528	811.523	78.5771	811.523	77.6674	811.523	78.1216	811.523	77.6395	811.523	77.636	811.523	78.1277	811.523	77.5432	811.523	78.9697	811.523	78.2079	811.523	79.4149	811.523	79.0873
840.82	88.9636	840.82	88.6389	840.82	88.857	840.82	87.8768	840.82	88.3523	840.82	86.6815	840.82	87.5315	840.82	85.0763	840.82	86.5197	840.82	83.1321	840.82	85.4284	840.82	81.0186	840.82	84.2738	840.82	79.0908	840.82	82.9475	840.82	77.8231	840.82	81.2975	840.82	77.2904	840.82	79.3652	840.82	77.071	840.82	77.82	840.82	76.9394	840.82	77.5928	840.82	76.9911	840.82	78.0496	840.82	77.1336	840.82	77.9096	840.82	76.9735	840.82	76.8628	840.82	76.3391	840.82	76.2272	840.82	75.9357	840.82	77.313	840.82	76.8028	840.82	78.3225	840.82	78.0552
870.117	88.8667	870.117	88.5217	870.117	88.76	870.117	87.7507	870.117	88.2219	870.117	86.5974	870.117	87.3357	870.117	85.0926	870.117	86.2518	870.117	83.2389	870.117	85.1592	870.117	81.0157	870.117	84.1915	870.117	78.4392	870.117	83.3098	870.117	75.8434	870.117	82.3123	870.117	74.3419	870.117	81.0013	870.117	74.7007	870.117	79.4092	870.117	75.9258	870.117	77.9299	870.117	77.0938	870.117	76.9037	870.117	77.8198	870.117	76.0509	870.117	77.894	870.117	75.347	870.117	77.3894	870.117	75.7373	870.117	76.936	870.117	77.0507	870.117	77.2502	870.117	77.94	870.117	77.8921
900.879	88.827	900.879	88.2062	900.879	88.8724	900.879	87.087	900.879	88.3476	900.879	85.6388	900.879	87.3268	900.879	84.0958	900.879	85.9448	900.879	82.6549	900.879	84.37	900.879	81.3443	900.879	82.752	900.879	80.0191	900.879	81.2271	900.879	78.4958	900.879	80.028	900.879	76.6783	900.879	79.4113	900.879	74.8064	900.879	79.246	900.879	73.8441	900.879	79.083	900.879	74.2527	900.879	78.6586	900.879	74.8089	900.879	77.905	900.879	74.588	900.879	76.717	900.879	73.6643	900.879	75.6976	900.879	73.5895	900.879	76.3421	900.879	75.4586	900.879	77.4082	900.879	77.1653
933.105	88.8316	933.105	88.0224	933.105	88.9807	933.105	86.6916	933.105	88.4483	933.105	85.1087	933.105	87.3267	933.105	83.5892	933.105	85.8428	933.105	82.2816	933.105	84.3098	933.105	81.1176	933.105	82.9296	933.105	80.0765	933.105	81.5817	933.105	79.2679	933.105	79.9224	933.105	78.5026	933.105	77.9002	933.105	77.1682	933.105	76.704	933.105	74.9153	933.105	77.5584	933.105	73.3429	933.105	78.7263	933.105	74.7946	933.105	78.7699	933.105	76.4904	933.105	77.5616	933.105	76.7197	933.105	76.4111	933.105	75.6764	933.105	77.0574	933.105	75.3262	933.105	77.6769	933.105	76.7964
965.332	88.7261	965.332	87.8452	965.332	88.9623	965.332	86.5348	965.332	88.509	965.332	85.115	965.332	87.4826	965.332	83.8201	965.332	86.0912	965.332	82.6336	965.332	84.5256	965.332	81.3597	965.332	82.9591	965.332	79.8692	965.332	81.5278	965.332	78.3428	965.332	80.1	965.332	77.1477	965.332	78.3212	965.332	76.2031	965.332	76.2511	965.332	75.107	965.332	75.4442	965.332	74.1449	965.332	76.7513	965.332	74.334	965.332	77.9497	965.332	75.2658	965.332	77.8656	965.332	75.6321	965.332	77.0648	965.332	75.443	965.332	77.3465	965.332	76.0714	965.332	78.0361	965.332	77.495
1,000.49	88.4823	1,000.49	87.7193	1,000.49	88.7599	1,000.49	86.6685	1,000.49	88.4586	1,000.49	85.5425	1,000.49	87.5871	1,000.49	84.4358	1,000.49	86.2583	1,000.49	83.3505	1,000.49	84.7009	1,000.49	82.2439	1,000.49	83.2311	1,000.49	81.0288	1,000.49	82.0537	1,000.49	79.6951	1,000.49	80.9549	1,000.49	78.3502	1,000.49	79.4431	1,000.49	76.9684	1,000.49	77.3456	1,000.49	75.33	1,000.49	75.6752	1,000.49	74.072	1,000.49	75.8976	1,000.49	74.7658	1,000.49	77.0423	1,000.49	76.0652	1,000.49	77.6259	1,000.49	76.2245	1,000.49	77.4363	1,000.49	75.0856	1,000.49	77.6186	1,000.49	74.6489	1,000.49	77.8383	1,000.49	76.5812
1,035.64	88.0932	1,035.64	87.4672	1,035.64	88.2806	1,035.64	86.5957	1,035.64	87.9051	1,035.64	85.5905	1,035.64	87.0005	1,035.64	84.455	1,035.64	85.6686	1,035.64	83.1889	1,035.64	83.9349	1,035.64	81.8147	1,035.64	81.9143	1,035.64	80.4267	1,035.64	80.1158	1,035.64	79.4133	1,035.64	79.0473	1,035.64	79.1187	1,035.64	78.4124	1,035.64	78.908	1,035.64	77.7305	1,035.64	77.7529	1,035.64	77.1313	1,035.64	75.3352	1,035.64	76.7354	1,035.64	73.3958	1,035.64	76.3229	1,035.64	74.2104	1,035.64	75.8401	1,035.64	75.2223	1,035.64	75.4053	1,035.64	75.0347	1,035.64	75.9493	1,035.64	74.9894	1,035.64	76.8201	1,035.64	76.2792
1,072.27	87.524	1,072.27	87.0085	1,072.27	87.6761	1,072.27	86.2618	1,072.27	87.3581	1,072.27	85.3189	1,072.27	86.5207	1,072.27	84.0787	1,072.27	85.1887	1,072.27	82.4595	1,072.27	83.5405	1,072.27	80.5752	1,072.27	81.9385	1,072.27	78.8352	1,072.27	80.745	1,072.27	77.9821	1,072.27	79.8509	1,072.27	78.3721	1,072.27	78.6891	1,072.27	79.0331	1,072.27	77.0933	1,072.27	78.84	1,072.27	75.9787	1,072.27	77.4485	1,072.27	76.2103	1,072.27	75.6324	1,072.27	76.7913	1,072.27	75.4198	1,072.27	76.2204	1,072.27	76.3464	1,072.27	74.271	1,072.27	76.3949	1,072.27	74.845	1,072.27	75.8652	1,072.27	76.6188	1,072.27	76.4191
1,108.89	86.6162	1,108.89	86.2689	1,108.89	86.7957	1,108.89	85.764	1,108.89	86.6853	1,108.89	85.006	1,108.89	86.1758	1,108.89	83.901	1,108.89	85.2554	1,108.89	82.4443	1,108.89	83.925	1,108.89	80.711	1,108.89	82.1641	1,108.89	78.6578	1,108.89	80.0833	1,108.89	75.9415	1,108.89	77.9405	1,108.89	72.7589	1,108.89	75.9971	1,108.89	72.1619	1,108.89	74.8392	1,108.89	73.8002	1,108.89	75.0874	1,108.89	74.677	1,108.89	75.7116	1,108.89	74.8718	1,108.89	75.9307	1,108.89	75.2879	1,108.89	75.8523	1,108.89	75.8013	1,108.89	74.664	1,108.89	75.2653	1,108.89	73.7917	1,108.89	74.2107	1,108.89	74.9495	1,108.89	74.7838
1,148.44	86.8046	1,148.44	86.1567	1,148.44	87.0145	1,148.44	85.2981	1,148.44	86.6895	1,148.44	84.4958	1,148.44	85.8361	1,148.44	83.8018	1,148.44	84.5457	1,148.44	82.8878	1,148.44	83.0503	1,148.44	81.2808	1,148.44	81.64	1,148.44	78.7979	1,148.44	80.4282	1,148.44	76.0892	1,148.44	79.1375	1,148.44	74.7015	1,148.44	77.2337	1,148.44	74.669	1,148.44	74.8004	1,148.44	74.7606	1,148.44	73.1598	1,148.44	74.5089	1,148.44	73.4998	1,148.44	74.2012	1,148.44	75.6585	1,148.44	74.4403	1,148.44	76.7401	1,148.44	74.6085	1,148.44	75.1032	1,148.44	73.7014	1,148.44	74.1434	1,148.44	72.905	1,148.44	75.4891	1,148.44	74.6175
1,189.45	87.025	1,189.45	86.1477	1,189.45	87.3179	1,189.45	85.0858	1,189.45	86.8772	1,189.45	84.2322	1,189.45	85.8247	1,189.45	83.6305	1,189.45	84.4929	1,189.45	82.9839	1,189.45	83.1922	1,189.45	81.8936	1,189.45	81.974	1,189.45	80.1069	1,189.45	80.667	1,189.45	77.5866	1,189.45	78.9403	1,189.45	74.562	1,189.45	76.6569	1,189.45	72.0278	1,189.45	74.7737	1,189.45	71.3811	1,189.45	74.2402	1,189.45	72.3819	1,189.45	74.0404	1,189.45	74.2707	1,189.45	75.17	1,189.45	76.0359	1,189.45	76.6067	1,189.45	76.6051	1,189.45	75.3839	1,189.45	75.296	1,189.45	73.2365	1,189.45	73.0121	1,189.45	74.2697	1,189.45	73.739
1,230.47	87.1107	1,230.47	86.4917	1,230.47	87.3448	1,230.47	85.8491	1,230.47	86.954	1,230.47	85.1994	1,230.47	86.0505	1,230.47	84.3512	1,230.47	84.9324	1,230.47	83.3774	1,230.47	83.7728	1,230.47	82.4127	1,230.47	82.625	1,230.47	81.2333	1,230.47	81.5415	1,230.47	79.555	1,230.47	80.3134	1,230.47	77.7694	1,230.47	78.3601	1,230.47	76.7092	1,230.47	75.6688	1,230.47	75.617	1,230.47	73.6648	1,230.47	73.5403	1,230.47	72.4217	1,230.47	72.2824	1,230.47	74.2409	1,230.47	74.1426	1,230.47	77.0471	1,230.47	75.4442	1,230.47	76.1223	1,230.47	74.4476	1,230.47	73.9745	1,230.47	72.1267	1,230.47	74.4208	1,230.47	73.0539
1,274.41	87.1312	1,274.41	86.8479	1,274.41	87.2131	1,274.41	86.5296	1,274.41	86.7746	1,274.41	85.9984	1,274.41	85.8476	1,274.41	85.1194	1,274.41	84.6316	1,274.41	83.9629	1,274.41	83.2704	1,274.41	82.741	1,274.41	82.169	1,274.41	81.3665	1,274.41	81.4474	1,274.41	79.2501	1,274.41	80.2737	1,274.41	76.748	1,274.41	78.258	1,274.41	76.6417	1,274.41	76.9871	1,274.41	77.3834	1,274.41	76.833	1,274.41	76.1639	1,274.41	75.8661	1,274.41	73.015	1,274.41	76.65	1,274.41	73.4114	1,274.41	77.4591	1,274.41	75.8985	1,274.41	75.2352	1,274.41	75.3971	1,274.41	73.4481	1,274.41	72.6793	1,274.41	74.3157	1,274.41	73.1052
1,319.82	86.5431	1,319.82	86.8423	1,319.82	86.2693	1,319.82	86.9669	1,319.82	85.8658	1,319.82	86.5524	1,319.82	85.2171	1,319.82	85.5863	1,319.82	84.2603	1,319.82	84.239	1,319.82	83.0009	1,319.82	82.6069	1,319.82	81.7825	1,319.82	81.0399	1,319.82	81.0696	1,319.82	79.5071	1,319.82	80.3189	1,319.82	76.5532	1,319.82	78.1938	1,319.82	72.057	1,319.82	74.3729	1,319.82	73.7389	1,319.82	73.7998	1,319.82	75.456	1,319.82	74.357	1,319.82	73.296	1,319.82	72.8958	1,319.82	72.8565	1,319.82	75.2133	1,319.82	76.8194	1,319.82	75.3121	1,319.82	76.5334	1,319.82	72.8417	1,319.82	71.3507	1,319.82	72.9062	1,319.82	69.5505
1,366.7	85.9507	1,366.7	86.6839	1,366.7	85.37	1,366.7	87.1864	1,366.7	85.0189	1,366.7	86.8971	1,366.7	84.7456	1,366.7	85.6084	1,366.7	84.1461	1,366.7	83.7132	1,366.7	82.9781	1,366.7	81.8283	1,366.7	81.1834	1,366.7	80.2939	1,366.7	79.3481	1,366.7	79.4607	1,366.7	78.8607	1,366.7	78.6208	1,366.7	78.3514	1,366.7	76.426	1,366.7	75.76	1,366.7	74.6595	1,366.7	72.4952	1,366.7	75.472	1,366.7	71.9417	1,366.7	74.3095	1,366.7	73.0275	1,366.7	69.3409	1,366.7	75.5967	1,366.7	72.7845	1,366.7	75.2222	1,366.7	76.0741	1,366.7	72.3268	1,366.7	73.8014	1,366.7	70.7836	1,366.7	66.5852
1,413.57	85.8057	1,413.57	86.742	1,413.57	85.1059	1,413.57	87.3617	1,413.57	84.5121	1,413.57	87.0127	1,413.57	83.5849	1,413.57	85.5186	1,413.57	82.519	1,413.57	83.1773	1,413.57	81.4677	1,413.57	80.4937	1,413.57	79.7506	1,413.57	78.1063	1,413.57	78.6234	1,413.57	76.3346	1,413.57	79.304	1,413.57	74.4117	1,413.57	79.1768	1,413.57	71.8456	1,413.57	76.7724	1,413.57	71.3887	1,413.57	73.2675	1,413.57	74.0126	1,413.57	72.0891	1,413.57	75.1137	1,413.57	73.3559	1,413.57	72.5328	1,413.57	73.9841	1,413.57	71.5632	1,413.57	73.4383	1,413.57	74.787	1,413.57	70.7208	1,413.57	74.154	1,413.57	68.0562	1,413.57	67.9919
1,463.38	85.6478	1,463.38	86.5803	1,463.38	84.7237	1,463.38	87.323	1,463.38	83.5037	1,463.38	87.214	1,463.38	82.1601	1,463.38	85.8828	1,463.38	81.5162	1,463.38	83.6725	1,463.38	81.127	1,463.38	80.893	1,463.38	80.066	1,463.38	76.5808	1,463.38	78.3973	1,463.38	70.4908	1,463.38	77.6512	1,463.38	68.5348	1,463.38	77.8423	1,463.38	67.5924	1,463.38	76.9589	1,463.38	69.4285	1,463.38	75.4447	1,463.38	73.8377	1,463.38	73.9836	1,463.38	75.6035	1,463.38	70.5106	1,463.38	73.6373	1,463.38	72.0625	1,463.38	71.3585	1,463.38	71.0589	1,463.38	73.4955	1,463.38	65.7567	1,463.38	73.647	1,463.38	62.8492	1,463.38	68.6374
1,516.11	86.4381	1,516.11	87.638	1,516.11	84.2612	1,516.11	87.7803	1,516.11	81.712	1,516.11	87.1301	1,516.11	79.6187	1,516.11	85.4257	1,516.11	78.3792	1,516.11	82.279	1,516.11	78.1418	1,516.11	78.3863	1,516.11	78.346	1,516.11	74.2997	1,516.11	77.4757	1,516.11	67.5463	1,516.11	76.6599	1,516.11	59.4802	1,516.11	77.7009	1,516.11	58.7166	1,516.11	78.0418	1,516.11	45.2483	1,516.11	76.7006	1,516.11	67.3423	1,516.11	74.4662	1,516.11	72.2783	1,516.11	69.8147	1,516.11	70.734	1,516.11	69.7783	1,516.11	67.4817	1,516.11	69.3402	1,516.11	70.8505	1,516.11	65.7638	1,516.11	72.6831	1,516.11	64.4479	1,516.11	69.3883
1,568.85	87.7459	1,568.85	88.6681	1,568.85	85.2582	1,568.85	87.8414	1,568.85	81.8095	1,568.85	85.6024	1,568.85	78.7151	1,568.85	82.7401	1,568.85	76.8708	1,568.85	79.1609	1,568.85	76.7911	1,568.85	73.4026	1,568.85	77.8655	1,568.85	65.6645	1,568.85	77.4979	1,568.85	63.1359	1,568.85	75.2219	1,568.85	60.3268	1,568.85	75.5642	1,568.85	56.4983	1,568.85	77.308	1,568.85	65.7312	1,568.85	76.0801	1,568.85	62.9345	1,568.85	73.8543	1,568.85	64.3107	1,568.85	72.5753	1,568.85	65.3842	1,568.85	70.3214	1,568.85	63.7046	1,568.85	65.7458	1,568.85	69.5959	1,568.85	65.4283	1,568.85	73.263	1,568.85	66.1191	1,568.85	71.0009
1,624.51	88.0079	1,624.51	88.6755	1,624.51	85.9059	1,624.51	87.5708	1,624.51	83.0807	1,624.51	85.0116	1,624.51	79.6429	1,624.51	81.7519	1,624.51	77.7402	1,624.51	78.1272	1,624.51	78.3433	1,624.51	74.1058	1,624.51	78.1287	1,624.51	71.3998	1,624.51	77.4459	1,624.51	71.1458	1,624.51	76.3306	1,624.51	69.2791	1,624.51	75.4104	1,624.51	58.4852	1,624.51	76.3842	1,624.51	63.7653	1,624.51	75.6529	1,624.51	62.5894	1,624.51	72.2923	1,624.51	55.2171	1,624.51	71.6777	1,624.51	62.5508	1,624.51	68.7206	1,624.51	67.5822	1,624.51	61.9848	1,624.51	69.0221	1,624.51	63.6428	1,624.51	72.9707	1,624.51	67.2078	1,624.51	72.4001
1,681.64	87.1331	1,681.64	87.6352	1,681.64	85.9801	1,681.64	87.3343	1,681.64	83.251	1,681.64	85.4863	1,681.64	80.5041	1,681.64	81.7107	1,681.64	81.3191	1,681.64	77.2016	1,681.64	80.5872	1,681.64	75.1065	1,681.64	78.8909	1,681.64	73.7364	1,681.64	77.1669	1,681.64	70.5657	1,681.64	76.2594	1,681.64	68.5297	1,681.64	74.5927	1,681.64	64.5775	1,681.64	74.4098	1,681.64	57.0939	1,681.64	76.0364	1,681.64	67.3709	1,681.64	74.6047	1,681.64	66.4123	1,681.64	71.1217	1,681.64	60.4886	1,681.64	69.0853	1,681.64	70.7223	1,681.64	68.626	1,681.64	70.6872	1,681.64	64.4159	1,681.64	71.5877	1,681.64	69.0325	1,681.64	71.7673
1,741.7	87.2113	1,741.7	87.5764	1,741.7	85.2894	1,741.7	86.6573	1,741.7	82.1765	1,741.7	84.8515	1,741.7	79.4745	1,741.7	81.8143	1,741.7	81.0366	1,741.7	78.27	1,741.7	82.2728	1,741.7	76.4882	1,741.7	80.9647	1,741.7	74.2075	1,741.7	78.506	1,741.7	68.0182	1,741.7	76.5343	1,741.7	64.8626	1,741.7	75.1511	1,741.7	48.4287	1,741.7	74.7173	1,741.7	66.0644	1,741.7	74.4597	1,741.7	60.7386	1,741.7	74.4485	1,741.7	63.5398	1,741.7	71.8051	1,741.7	63.539	1,741.7	71.7225	1,741.7	65.9664	1,741.7	68.5383	1,741.7	70.0022	1,741.7	63.9053	1,741.7	71.1253	1,741.7	68.8056	1,741.7	70.4196
1,803.22	87.7789	1,803.22	88.0262	1,803.22	84.913	1,803.22	86.5494	1,803.22	82.2022	1,803.22	85.0571	1,803.22	80.3179	1,803.22	83.3119	1,803.22	79.6543	1,803.22	79.9107	1,803.22	82.9263	1,803.22	74.0725	1,803.22	81.7249	1,803.22	69.5108	1,803.22	78.7137	1,803.22	64.9473	1,803.22	77.3838	1,803.22	65.709	1,803.22	76.9452	1,803.22	61.2288	1,803.22	77.4278	1,803.22	63.3215	1,803.22	74.6895	1,803.22	66.9186	1,803.22	73.8676	1,803.22	65.4737	1,803.22	73.3372	1,803.22	72.8463	1,803.22	72.8053	1,803.22	71.4327	1,803.22	73.4376	1,803.22	71.0879	1,803.22	70.5326	1,803.22	68.6033	1,803.22	71.9642	1,803.22	69.5739
1,866.21	86.9299	1,866.21	87.5247	1,866.21	85.9128	1,866.21	86.8868	1,866.21	83.3554	1,866.21	83.9993	1,866.21	79.3917	1,866.21	81.7356	1,866.21	81.8337	1,866.21	79.6414	1,866.21	83.5506	1,866.21	71.1275	1,866.21	82.8842	1,866.21	71.7581	1,866.21	80.9433	1,866.21	69.1502	1,866.21	79.1392	1,866.21	65.6286	1,866.21	78.1776	1,866.21	69.8624	1,866.21	77.8755	1,866.21	72.7241	1,866.21	76.4937	1,866.21	72.0423	1,866.21	74.3442	1,866.21	60.6965	1,866.21	76.6214	1,866.21	71.4884	1,866.21	69.7131	1,866.21	68.7621	1,866.21	69.821	1,866.21	70.7013	1,866.21	69.6449	1,866.21	68.3408	1,866.21	69.8743	1,866.21	69.4638
1,932.13	86.3441	1,932.13	87.6109	1,932.13	84.6485	1,932.13	86.6435	1,932.13	82.719	1,932.13	83.705	1,932.13	79.0216	1,932.13	81.9278	1,932.13	83.5756	1,932.13	79.4561	1,932.13	85.3252	1,932.13	65.2561	1,932.13	82.0605	1,932.13	73.874	1,932.13	77.4748	1,932.13	77.7728	1,932.13	73.4013	1,932.13	77.8462	1,932.13	73.3503	1,932.13	78.0864	1,932.13	77.3996	1,932.13	79.0626	1,932.13	77.3308	1,932.13	73.56	1,932.13	73.6601	1,932.13	64.8626	1,932.13	68.3454	1,932.13	66.9066	1,932.13	72.4878	1,932.13	64.4635	1,932.13	65.2937	1,932.13	61.9129	1,932.13	67.4917	1,932.13	63.9699	1,932.13	71.2136	1,932.13	69.2953
1,999.51	86.4801	1,999.51	87.641	1,999.51	84.6594	1,999.51	85.7594	1,999.51	81.7428	1,999.51	82.3873	1,999.51	79.9294	1,999.51	81.2858	1,999.51	84.2601	1,999.51	77.2716	1,999.51	84.7382	1,999.51	66.5986	1,999.51	81.4947	1,999.51	57.7267	1,999.51	77.5378	1,999.51	75.7337	1,999.51	79.3479	1,999.51	77.156	1,999.51	78.7681	1,999.51	71.3871	1,999.51	75.5037	1,999.51	70.7333	1,999.51	69.5675	1,999.51	67.196	1,999.51	60.5053	1,999.51	70.5322	1,999.51	75.0514	1,999.51	69.2859	1,999.51	76.3663	1,999.51	63.4471	1,999.51	68.1923	1,999.51	59.8253	1,999.51	72.1953	1,999.51	71.0008	1,999.51	66.4383	1,999.51	68.4188
2,069.82	86.9205	2,069.82	87.2106	2,069.82	85.0374	2,069.82	85.2414	2,069.82	81.3745	2,069.82	82.2195	2,069.82	78.3599	2,069.82	80.4766	2,069.82	82.7951	2,069.82	76.5071	2,069.82	83.0184	2,069.82	69.7135	2,069.82	81.5395	2,069.82	42.2279	2,069.82	83.0837	2,069.82	73.7418	2,069.82	81.4109	2,069.82	69.0414	2,069.82	77.2694	2,069.82	66.8787	2,069.82	75.8287	2,069.82	72.4796	2,069.82	74.3969	2,069.82	71.9652	2,069.82	72.1303	2,069.82	59.7117	2,069.82	70.9617	2,069.82	70.2176	2,069.82	73.3294	2,069.82	69.6957	2,069.82	64.458	2,069.82	58.8634	2,069.82	69.3087	2,069.82	70.4128	2,069.82	71.0734	2,069.82	68.256
2,143.07	87.4143	2,143.07	88.2661	2,143.07	84.5391	2,143.07	86.1547	2,143.07	78.7838	2,143.07	82.042	2,143.07	76.9964	2,143.07	75.7656	2,143.07	83.8907	2,143.07	70.985	2,143.07	84.5634	2,143.07	53.0657	2,143.07	81.7108	2,143.07	78.6484	2,143.07	82.6005	2,143.07	82.7122	2,143.07	83.571	2,143.07	82.9673	2,143.07	81.6979	2,143.07	80.0304	2,143.07	75.8461	2,143.07	66.9417	2,143.07	71.6794	2,143.07	66.3707	2,143.07	78.0753	2,143.07	69.5154	2,143.07	71.418	2,143.07	72.8432	2,143.07	77.2276	2,143.07	63.0064	2,143.07	71.9002	2,143.07	62.9093	2,143.07	75.5846	2,143.07	74.2022	2,143.07	68.9158	2,143.07	70.4892
2,219.24	86.4304	2,219.24	87.8973	2,219.24	82.7699	2,219.24	86.3404	2,219.24	79.2804	2,219.24	83.5634	2,219.24	76.9553	2,219.24	78.0558	2,219.24	83.5557	2,219.24	70.4967	2,219.24	83.0917	2,219.24	54.2665	2,219.24	84.4012	2,219.24	76.8287	2,219.24	83.6818	2,219.24	80.618	2,219.24	79.6588	2,219.24	74.5531	2,219.24	79.236	2,219.24	72.0487	2,219.24	79.8149	2,219.24	75.9128	2,219.24	64.9443	2,219.24	69.3938	2,219.24	79.7627	2,219.24	71.8043	2,219.24	77.6106	2,219.24	74.9605	2,219.24	71.3888	2,219.24	67.2397	2,219.24	66.7053	2,219.24	63.9032	2,219.24	72.7494	2,219.24	66.755	2,219.24	64.344	2,219.24	74.0774
2,296.88	87.7279	2,296.88	86.2164	2,296.88	83.4469	2,296.88	84.8476	2,296.88	73.3118	2,296.88	80.7295	2,296.88	68.5809	2,296.88	71.151	2,296.88	81.8792	2,296.88	72.6552	2,296.88	85.749	2,296.88	74.253	2,296.88	85.5063	2,296.88	68.8048	2,296.88	80.9095	2,296.88	73.8258	2,296.88	71.254	2,296.88	55.3449	2,296.88	76.0765	2,296.88	72.2462	2,296.88	78.5243	2,296.88	75.6209	2,296.88	68.345	2,296.88	76.7128	2,296.88	68.9807	2,296.88	73.5323	2,296.88	76.2414	2,296.88	72.9342	2,296.88	67.4085	2,296.88	64.745	2,296.88	55.4306	2,296.88	63.5137	2,296.88	70.6151	2,296.88	68.0494	2,296.88	70.1501	2,296.88	73.2867
2,378.91	88.3276	2,378.91	86.7869	2,378.91	84.8867	2,378.91	83.7752	2,378.91	74.1815	2,378.91	75.052	2,378.91	77.4788	2,378.91	66.1904	2,378.91	83.3219	2,378.91	63.1729	2,378.91	84.4487	2,378.91	76.0365	2,378.91	85.7206	2,378.91	77.1071	2,378.91	84.5741	2,378.91	80.2891	2,378.91	79.9912	2,378.91	79.8799	2,378.91	77.1316	2,378.91	73.6033	2,378.91	77.6264	2,378.91	77.9848	2,378.91	78.3131	2,378.91	72.0636	2,378.91	64.3448	2,378.91	76.336	2,378.91	68.0437	2,378.91	63.329	2,378.91	73.1134	2,378.91	73.817	2,378.91	71.4636	2,378.91	71.0769	2,378.91	65.7289	2,378.91	65.3868	2,378.91	65.8451	2,378.91	65.1319
2,462.4	86.507	2,462.4	86.6099	2,462.4	83.8364	2,462.4	83.6873	2,462.4	73.7605	2,462.4	76.828	2,462.4	74.4838	2,462.4	57.7509	2,462.4	81.4828	2,462.4	68.225	2,462.4	84.6543	2,462.4	72.7855	2,462.4	83.6608	2,462.4	75.0981	2,462.4	79.8822	2,462.4	71.7006	2,462.4	75.859	2,462.4	70.5917	2,462.4	72.4976	2,462.4	72.5568	2,462.4	70.5458	2,462.4	70.2506	2,462.4	70.4917	2,462.4	70.5762	2,462.4	70.7436	2,462.4	70.1735	2,462.4	73.1508	2,462.4	69.9343	2,462.4	68.3778	2,462.4	69.7837	2,462.4	68.3975	2,462.4	65.035	2,462.4	59.7782	2,462.4	56.4014	2,462.4	66.4402	2,462.4	66.3563
2,548.83	86.0005	2,548.83	85.5498	2,548.83	82.7149	2,548.83	82.6789	2,548.83	71.3549	2,548.83	75.9244	2,548.83	74.8727	2,548.83	58.133	2,548.83	81.5873	2,548.83	73.2024	2,548.83	83.8122	2,548.83	75.8478	2,548.83	82.8538	2,548.83	73.8242	2,548.83	79.2062	2,548.83	74.6419	2,548.83	76.7637	2,548.83	73.0183	2,548.83	74.7289	2,548.83	71.6371	2,548.83	68.9274	2,548.83	70.2765	2,548.83	67.8509	2,548.83	68.6823	2,548.83	71.3282	2,548.83	70.9407	2,548.83	71.8506	2,548.83	69.2327	2,548.83	69.0233	2,548.83	70.1264	2,548.83	62.9419	2,548.83	65.9439	2,548.83	67.3144	2,548.83	52.7252	2,548.83	62.6757	2,548.83	62.583
2,639.65	86.2439	2,639.65	85.0864	2,639.65	83.003	2,639.65	81.7783	2,639.65	68.7945	2,639.65	74.4512	2,639.65	75.5954	2,639.65	64.2924	2,639.65	81.3031	2,639.65	74.4174	2,639.65	83.2969	2,639.65	74.9339	2,639.65	82.5486	2,639.65	73.8576	2,639.65	79.0963	2,639.65	72.8009	2,639.65	74.7431	2,639.65	71.9132	2,639.65	74.4757	2,639.65	70.8849	2,639.65	70.9831	2,639.65	72.005	2,639.65	61.7483	2,639.65	69.1853	2,639.65	70.5463	2,639.65	71.0201	2,639.65	72.3606	2,639.65	70.9487	2,639.65	66.3202	2,639.65	70.6285	2,639.65	62.6495	2,639.65	66.9969	2,639.65	68.3622	2,639.65	58.6633	2,639.65	64.9722	2,639.65	65.8679
2,731.93	85.7405	2,731.93	84.9147	2,731.93	82.9018	2,731.93	81.397	2,731.93	69.5408	2,731.93	69.4346	2,731.93	75.5706	2,731.93	71.5481	2,731.93	81.2535	2,731.93	76.8099	2,731.93	82.3694	2,731.93	77.1812	2,731.93	81.4365	2,731.93	76.6816	2,731.93	78.5529	2,731.93	74.9846	2,731.93	74.7029	2,731.93	74.6888	2,731.93	69.5693	2,731.93	73.2084	2,731.93	65.5243	2,731.93	71.9981	2,731.93	67.3671	2,731.93	70.0441	2,731.93	70.7892	2,731.93	71.6843	2,731.93	72.9015	2,731.93	71.4529	2,731.93	65.7628	2,731.93	71.1031	2,731.93	56.816	2,731.93	67.7319	2,731.93	67.0235	2,731.93	58.8373	2,731.93	66.5359	2,731.93	61.4789
2,828.61	85.0388	2,828.61	84.8414	2,828.61	82.3634	2,828.61	81.0379	2,828.61	69.9496	2,828.61	69.0604	2,828.61	75.5461	2,828.61	73.9599	2,828.61	80.4728	2,828.61	77.8645	2,828.61	82.0458	2,828.61	78.0383	2,828.61	80.3789	2,828.61	77.0432	2,828.61	79.2814	2,828.61	75.3949	2,828.61	77.5376	2,828.61	73.6729	2,828.61	68.7935	2,828.61	71.4576	2,828.61	65.081	2,828.61	71.7842	2,828.61	67.7006	2,828.61	69.8281	2,828.61	72.8807	2,828.61	70.2259	2,828.61	71.088	2,828.61	71.5241	2,828.61	62.2295	2,828.61	71.1721	2,828.61	60.8159	2,828.61	67.822	2,828.61	70.0247	2,828.61	60.562	2,828.61	64.7765	2,828.61	58.3475
2,928.22	84.6961	2,928.22	84.8901	2,928.22	81.9275	2,928.22	80.1829	2,928.22	70.3517	2,928.22	70.1726	2,928.22	76.4053	2,928.22	75.7863	2,928.22	79.5873	2,928.22	78.2057	2,928.22	81.6261	2,928.22	78.6789	2,928.22	80.6126	2,928.22	77.2065	2,928.22	79.7907	2,928.22	74.9345	2,928.22	77.4956	2,928.22	73.4119	2,928.22	63.2252	2,928.22	72.2401	2,928.22	66.4032	2,928.22	72.5961	2,928.22	70.4966	2,928.22	71.0095	2,928.22	69.9262	2,928.22	70.1147	2,928.22	71.6797	2,928.22	71.3214	2,928.22	55.2114	2,928.22	71.3289	2,928.22	61.1713	2,928.22	68.7029	2,928.22	67.8641	2,928.22	58.0544	2,928.22	64.8661	2,928.22	60.0621
3,030.76	84.2558	3,030.76	84.449	3,030.76	80.5953	3,030.76	79.2957	3,030.76	71.8156	3,030.76	71.6733	3,030.76	77.087	3,030.76	77.1043	3,030.76	79.3337	3,030.76	80.3879	3,030.76	80.9497	3,030.76	80.2132	3,030.76	81.9921	3,030.76	77.7026	3,030.76	80.548	3,030.76	76.4421	3,030.76	76.8419	3,030.76	75.26	3,030.76	68.7179	3,030.76	72.7064	3,030.76	70.6318	3,030.76	72.1394	3,030.76	69.964	3,030.76	70.4168	3,030.76	67.7739	3,030.76	69.618	3,030.76	71.715	3,030.76	71.0886	3,030.76	55.9762	3,030.76	71.5186	3,030.76	59.3578	3,030.76	69.2648	3,030.76	69.5433	3,030.76	59.5385	3,030.76	64.1073	3,030.76	61.4978
3,137.7	84.879	3,137.7	84.6394	3,137.7	79.8682	3,137.7	79.0364	3,137.7	74.4679	3,137.7	71.7103	3,137.7	76.7106	3,137.7	79.6331	3,137.7	79.2194	3,137.7	82.0235	3,137.7	80.0232	3,137.7	80.8239	3,137.7	82.4953	3,137.7	79.609	3,137.7	80.5792	3,137.7	75.7629	3,137.7	75.0752	3,137.7	73.6445	3,137.7	71.9767	3,137.7	71.5948	3,137.7	73.9106	3,137.7	71.8906	3,137.7	65.5549	3,137.7	70.8765	3,137.7	69.4824	3,137.7	70.0851	3,137.7	71.7281	3,137.7	70.8996	3,137.7	52.6902	3,137.7	71.3213	3,137.7	64.2358	3,137.7	69.2241	3,137.7	70.1768	3,137.7	61.0328	3,137.7	64.4892	3,137.7	60.9085
3,249.02	84.6544	3,249.02	83.6905	3,249.02	79.2445	3,249.02	78.1254	3,249.02	75.3789	3,249.02	74.8394	3,249.02	77.9808	3,249.02	82.1279	3,249.02	78.8811	3,249.02	82.9618	3,249.02	78.4277	3,249.02	81.7715	3,249.02	82.3472	3,249.02	78.4914	3,249.02	81.7338	3,249.02	76.4535	3,249.02	76.0282	3,249.02	75.5584	3,249.02	73.2707	3,249.02	72.7481	3,249.02	74.079	3,249.02	71.2267	3,249.02	64.2506	3,249.02	69.6606	3,249.02	69.9531	3,249.02	68.6507	3,249.02	71.8834	3,249.02	69.2816	3,249.02	50.2064	3,249.02	70.7843	3,249.02	62.659	3,249.02	67.415	3,249.02	68.7869	3,249.02	60.8204	3,249.02	65.757	3,249.02	58.1982
3,363.28	84.297	3,363.28	83.0263	3,363.28	78.7787	3,363.28	76.629	3,363.28	75.7385	3,363.28	77.5009	3,363.28	79.4054	3,363.28	82.716	3,363.28	79.0895	3,363.28	82.7916	3,363.28	78.3292	3,363.28	80.9096	3,363.28	81.7323	3,363.28	78.3795	3,363.28	81.7998	3,363.28	75.5473	3,363.28	77.4282	3,363.28	70.4072	3,363.28	74.5472	3,363.28	68.4059	3,363.28	76.0969	3,363.28	68.8835	3,363.28	63.6857	3,363.28	68.013	3,363.28	71.6741	3,363.28	65.3998	3,363.28	70.3531	3,363.28	66.7859	3,363.28	58.2808	3,363.28	68.5012	3,363.28	59.7366	3,363.28	66.1604	3,363.28	64.0134	3,363.28	55.6632	3,363.28	65.8576	3,363.28	55.1305
3,481.93	84.0563	3,481.93	82.8187	3,481.93	78.7428	3,481.93	76.1522	3,481.93	75.6692	3,481.93	79.7993	3,481.93	80.4257	3,481.93	82.2824	3,481.93	80.0888	3,481.93	82.2587	3,481.93	78.0592	3,481.93	78.7055	3,481.93	82.0093	3,481.93	75.8892	3,481.93	81.9378	3,481.93	67.4447	3,481.93	78.4186	3,481.93	71.9229	3,481.93	74.0194	3,481.93	68.3534	3,481.93	76.3171	3,481.93	67.7681	3,481.93	66.8304	3,481.93	67.0383	3,481.93	69.4782	3,481.93	64.6442	3,481.93	68.2611	3,481.93	63.2572	3,481.93	55.3529	3,481.93	66.4631	3,481.93	64.1717	3,481.93	65.073	3,481.93	61.9016	3,481.93	56.3657	3,481.93	65.8264	3,481.93	55.2653
3,604.98	84.6326	3,604.98	82.9272	3,604.98	79.7273	3,604.98	75.921	3,604.98	76.0366	3,604.98	80.7218	3,604.98	81.4599	3,604.98	82.5473	3,604.98	80.4596	3,604.98	80.3194	3,604.98	76.5785	3,604.98	77.7612	3,604.98	81.5079	3,604.98	71.9634	3,604.98	81.8295	3,604.98	74.3781	3,604.98	78.5265	3,604.98	66.698	3,604.98	75.5511	3,604.98	68.618	3,604.98	74.3326	3,604.98	65.9143	3,604.98	61.0621	3,604.98	68.6523	3,604.98	69.6086	3,604.98	65.0178	3,604.98	65.8518	3,604.98	66.0252	3,604.98	58.547	3,604.98	65.7838	3,604.98	63.9347	3,604.98	63.489	3,604.98	64.6944	3,604.98	59.4574	3,604.98	64.5087	3,604.98	52.2631
3,732.42	85.0856	3,732.42	83.0269	3,732.42	80.9063	3,732.42	76.7548	3,732.42	76.0918	3,732.42	81.731	3,732.42	82.5131	3,732.42	81.5159	3,732.42	80.0017	3,732.42	79.3014	3,732.42	74.9247	3,732.42	73.6126	3,732.42	81.0741	3,732.42	73.9079	3,732.42	82.4016	3,732.42	67.4084	3,732.42	78.5746	3,732.42	71.1502	3,732.42	74.2026	3,732.42	69.2027	3,732.42	73.1523	3,732.42	69.6199	3,732.42	60.8518	3,732.42	68.311	3,732.42	66.9809	3,732.42	66.4963	3,732.42	60.8064	3,732.42	67.3713	3,732.42	60.7726	3,732.42	67.5172	3,732.42	63.5339	3,732.42	66.5262	3,732.42	65.9393	3,732.42	61.2733	3,732.42	63.6459	3,732.42	48.4114
3,864.26	85.6585	3,864.26	83.6355	3,864.26	81.3654	3,864.26	77.3733	3,864.26	73.3414	3,864.26	82.5342	3,864.26	82.5624	3,864.26	81.3064	3,864.26	80.9975	3,864.26	77.814	3,864.26	75.0379	3,864.26	76.5657	3,864.26	79.7623	3,864.26	72.8735	3,864.26	82.3415	3,864.26	76.6103	3,864.26	80.4993	3,864.26	71.763	3,864.26	73.3573	3,864.26	71.4259	3,864.26	69.983	3,864.26	70.0013	3,864.26	66.7652	3,864.26	69.5443	3,864.26	62.2276	3,864.26	67.8029	3,864.26	63.9348	3,864.26	67.1552	3,864.26	62.3397	3,864.26	69.6541	3,864.26	65.6693	3,864.26	67.42	3,864.26	65.0224	3,864.26	64.976	3,864.26	63.2677	3,864.26	52.0916
4,000.49	86.6187	4,000.49	82.8904	4,000.49	83.1277	4,000.49	79.7267	4,000.49	73.7408	4,000.49	82.8296	4,000.49	82.6243	4,000.49	81.2612	4,000.49	81.7563	4,000.49	77.9221	4,000.49	71.455	4,000.49	76.8715	4,000.49	79.1098	4,000.49	78.0901	4,000.49	82.3918	4,000.49	73.0538	4,000.49	79.9838	4,000.49	72.751	4,000.49	75.134	4,000.49	70.2223	4,000.49	72.0538	4,000.49	70.8084	4,000.49	70.9067	4,000.49	70.6163	4,000.49	64.115	4,000.49	69.627	4,000.49	61.4589	4,000.49	69.0193	4,000.49	54.1778	4,000.49	70.3951	4,000.49	65.2737	4,000.49	69.0078	4,000.49	64.2321	4,000.49	64.2331	4,000.49	63.6739	4,000.49	53.988
4,141.11	87.0752	4,141.11	81.7277	4,141.11	83.8721	4,141.11	81.4699	4,141.11	76.6839	4,141.11	83.1093	4,141.11	82.5823	4,141.11	80.7616	4,141.11	82.7552	4,141.11	78.8249	4,141.11	71.2251	4,141.11	80.6588	4,141.11	80.5988	4,141.11	76.9282	4,141.11	82.7648	4,141.11	78.2956	4,141.11	78.0937	4,141.11	75.0147	4,141.11	67.894	4,141.11	72.5002	4,141.11	76.1957	4,141.11	70.4707	4,141.11	77.1694	4,141.11	69.3335	4,141.11	56.1236	4,141.11	67.4366	4,141.11	57.8639	4,141.11	68.6262	4,141.11	59.4168	4,141.11	71.3298	4,141.11	61.7	4,141.11	69.2619	4,141.11	62.4021	4,141.11	65.2966	4,141.11	64.5167	4,141.11	54.8347
4,287.6	86.0557	4,287.6	81.2347	4,287.6	84.8701	4,287.6	83.1686	4,287.6	74.9459	4,287.6	83.2165	4,287.6	82.7756	4,287.6	80.1934	4,287.6	83.1457	4,287.6	80.3214	4,287.6	76.4734	4,287.6	78.6299	4,287.6	79.2783	4,287.6	79.4768	4,287.6	83.3147	4,287.6	70.9173	4,287.6	76.1764	4,287.6	74.0638	4,287.6	61.3248	4,287.6	70.1464	4,287.6	75.2285	4,287.6	70.2628	4,287.6	77.7969	4,287.6	68.2211	4,287.6	66.0731	4,287.6	68.5138	4,287.6	47.201	4,287.6	63.6126	4,287.6	58.5866	4,287.6	69.8194	4,287.6	56.4877	4,287.6	67.9	4,287.6	59.5297	4,287.6	67.9044	4,287.6	64.6854	4,287.6	55.1272
4,438.48	86.2745	4,438.48	82.6513	4,438.48	85.9168	4,438.48	83.2165	4,438.48	80.652	4,438.48	83.2192	4,438.48	81.964	4,438.48	80.4495	4,438.48	83.6313	4,438.48	80.9172	4,438.48	78.3799	4,438.48	80.215	4,438.48	76.2838	4,438.48	74.6407	4,438.48	81.4499	4,438.48	77.6537	4,438.48	76.3608	4,438.48	69.1113	4,438.48	74.0857	4,438.48	69.9064	4,438.48	75.1184	4,438.48	68.527	4,438.48	73.7988	4,438.48	68.8705	4,438.48	71.6954	4,438.48	65.2674	4,438.48	65.4006	4,438.48	67.8855	4,438.48	53.5475	4,438.48	67.5785	4,438.48	56.5665	4,438.48	70.144	4,438.48	61.5892	4,438.48	64.5057	4,438.48	66.2625	4,438.48	50.0319
4,595.21	85.5634	4,595.21	82.8372	4,595.21	85.0126	4,595.21	84.1442	4,595.21	81.2998	4,595.21	82.9698	4,595.21	83.4405	4,595.21	82.4907	4,595.21	81.658	4,595.21	80.2218	4,595.21	76.9792	4,595.21	78.5853	4,595.21	72.5275	4,595.21	77.1495	4,595.21	78.5993	4,595.21	70.1641	4,595.21	78.6931	4,595.21	74.3858	4,595.21	74.9207	4,595.21	69.3596	4,595.21	71.6215	4,595.21	69.5654	4,595.21	69.8239	4,595.21	66.1543	4,595.21	68.8291	4,595.21	67.053	4,595.21	64.302	4,595.21	63.7407	4,595.21	62.3478	4,595.21	68.395	4,595.21	62.4437	4,595.21	69.0296	4,595.21	63.8536	4,595.21	68.7359	4,595.21	64.9571	4,595.21	60.089
4,756.35	85.9613	4,756.35	83.8449	4,756.35	85.7365	4,756.35	83.8868	4,756.35	80.9395	4,756.35	83.6747	4,756.35	83.6815	4,756.35	82.5901	4,756.35	81.799	4,756.35	80.3525	4,756.35	74.2024	4,756.35	78.662	4,756.35	74.7494	4,756.35	75.2297	4,756.35	78.8198	4,756.35	76.6311	4,756.35	81.0773	4,756.35	68.0567	4,756.35	74.8924	4,756.35	71.1562	4,756.35	68.0953	4,756.35	68.8091	4,756.35	71.1867	4,756.35	69.1789	4,756.35	65.8422	4,756.35	65.3852	4,756.35	64.9844	4,756.35	66.8549	4,756.35	64.4937	4,756.35	66.8554	4,756.35	59.8974	4,756.35	70.3497	4,756.35	60.0746	4,756.35	67.7739	4,756.35	59.5361	4,756.35	51.5792
4,924.8	85.0576	4,924.8	84.0706	4,924.8	85.9433	4,924.8	84.1167	4,924.8	82.7339	4,924.8	84.5166	4,924.8	84.508	4,924.8	82.7206	4,924.8	84.7314	4,924.8	81.3998	4,924.8	79.1451	4,924.8	77.9105	4,924.8	78.3342	4,924.8	77.7577	4,924.8	79.4518	4,924.8	75.5755	4,924.8	81.5045	4,924.8	74.4108	4,924.8	76.8154	4,924.8	71.2854	4,924.8	65.0607	4,924.8	70.1623	4,924.8	67.4041	4,924.8	67.0601	4,924.8	63.181	4,924.8	67.7167	4,924.8	63.1442	4,924.8	66.3911	4,924.8	67.0526	4,924.8	68.59	4,924.8	59.9013	4,924.8	69.8684	4,924.8	61.0467	4,924.8	67.7292	4,924.8	63.3469	4,924.8	61.5559
5,097.66	84.8691	5,097.66	84.1143	5,097.66	84.862	5,097.66	84.4024	5,097.66	83.6966	5,097.66	84.4805	5,097.66	83.8042	5,097.66	82.9649	5,097.66	85.4565	5,097.66	80.3951	5,097.66	82.4027	5,097.66	79.875	5,097.66	77.6196	5,097.66	76.6866	5,097.66	80.4808	5,097.66	73.8915	5,097.66	82.6814	5,097.66	72.7567	5,097.66	76.7148	5,097.66	71.1036	5,097.66	74.4776	5,097.66	69.1705	5,097.66	73.6234	5,097.66	68.359	5,097.66	54.1151	5,097.66	65.9594	5,097.66	59.2655	5,097.66	65.2899	5,097.66	67.4268	5,097.66	68.9483	5,097.66	43.4745	5,097.66	69.8089	5,097.66	61.8167	5,097.66	68.7098	5,097.66	57.9273	5,097.66	63.1491
5,277.83	85.1909	5,277.83	83.4593	5,277.83	84.2391	5,277.83	84.7579	5,277.83	84.18	5,277.83	84.9444	5,277.83	83.2465	5,277.83	82.5372	5,277.83	85.3686	5,277.83	81.8035	5,277.83	81.2716	5,277.83	79.2341	5,277.83	76.7455	5,277.83	77.3804	5,277.83	81.5627	5,277.83	77.5893	5,277.83	82.4984	5,277.83	73.3677	5,277.83	75.9428	5,277.83	72.7984	5,277.83	73.9272	5,277.83	70.7014	5,277.83	68.8103	5,277.83	69.1513	5,277.83	53.9835	5,277.83	67.3734	5,277.83	63.357	5,277.83	66.8364	5,277.83	68.2988	5,277.83	68.7907	5,277.83	52.4211	5,277.83	70.5468	5,277.83	57.3707	5,277.83	68.6218	5,277.83	57.515	5,277.83	61.312
5,463.87	84.7217	5,463.87	83.2079	5,463.87	83.2131	5,463.87	85.2858	5,463.87	84.621	5,463.87	84.4492	5,463.87	83.9111	5,463.87	83.0193	5,463.87	84.549	5,463.87	82.2473	5,463.87	81.9485	5,463.87	80.2333	5,463.87	73.153	5,463.87	78.7548	5,463.87	80.9913	5,463.87	76.0694	5,463.87	79.169	5,463.87	75.2555	5,463.87	77.3513	5,463.87	71.8396	5,463.87	73.522	5,463.87	71.7365	5,463.87	66.4983	5,463.87	69.332	5,463.87	62.8948	5,463.87	67.6904	5,463.87	58.9633	5,463.87	66.8172	5,463.87	63.6732	5,463.87	67.7429	5,463.87	52.2813	5,463.87	70.7749	5,463.87	63.1818	5,463.87	68.7213	5,463.87	58.0131	5,463.87	63.5629
5,657.23	84.4032	5,657.23	82.7341	5,657.23	82.9118	5,657.23	85.6023	5,657.23	84.1304	5,657.23	83.6226	5,657.23	83.8872	5,657.23	83.3331	5,657.23	85.2311	5,657.23	82.4553	5,657.23	83.0301	5,657.23	81.3117	5,657.23	72.3929	5,657.23	79.1456	5,657.23	81.0859	5,657.23	76.4881	5,657.23	76.8224	5,657.23	74.202	5,657.23	75.3069	5,657.23	72.465	5,657.23	70.9088	5,657.23	70.7122	5,657.23	69.5632	5,657.23	68.9031	5,657.23	68.3791	5,657.23	66.4623	5,657.23	62.6023	5,657.23	66.7613	5,657.23	63.0253	5,657.23	66.7056	5,657.23	55.0481	5,657.23	71.0974	5,657.23	58.3036	5,657.23	68.133	5,657.23	59.1271	5,657.23	64.114
5,856.45	84.7048	5,856.45	83.4467	5,856.45	82.7043	5,856.45	85.3747	5,856.45	84.3107	5,856.45	83.8362	5,856.45	83.6619	5,856.45	83.6511	5,856.45	85.3778	5,856.45	83.3652	5,856.45	84.1006	5,856.45	81.8849	5,856.45	71.9027	5,856.45	79.6301	5,856.45	78.8402	5,856.45	76.6667	5,856.45	76.8878	5,856.45	73.7369	5,856.45	75.1546	5,856.45	72.0803	5,856.45	72.7429	5,856.45	70.2934	5,856.45	72.2735	5,856.45	68.6298	5,856.45	65.9498	5,856.45	67.2852	5,856.45	62.4108	5,856.45	65.9995	5,856.45	64.4389	5,856.45	67.0509	5,856.45	45.7081	5,856.45	70.1612	5,856.45	56.0085	5,856.45	68.3301	5,856.45	54.623	5,856.45	62.7581
6,062.99	84.4154	6,062.99	83.7758	6,062.99	83.0502	6,062.99	84.9812	6,062.99	84.1305	6,062.99	83.8919	6,062.99	83.9042	6,062.99	83.5792	6,062.99	84.3334	6,062.99	83.5874	6,062.99	84.3517	6,062.99	82.1952	6,062.99	72.8922	6,062.99	79.7814	6,062.99	78.2622	6,062.99	75.7027	6,062.99	77.3684	6,062.99	74.2177	6,062.99	75.9682	6,062.99	71.2637	6,062.99	70.1456	6,062.99	70.7565	6,062.99	73.1844	6,062.99	70.0101	6,062.99	61.2935	6,062.99	67.7338	6,062.99	62.6128	6,062.99	64.8001	6,062.99	56.6254	6,062.99	65.4952	6,062.99	53.4621	6,062.99	71.2253	6,062.99	61.2833	6,062.99	67.2928	6,062.99	60.6103	6,062.99	62.7546
6,276.86	83.7199	6,276.86	84.3582	6,276.86	83.9006	6,276.86	84.4337	6,276.86	83.9753	6,276.86	84.1242	6,276.86	84.5456	6,276.86	84.1445	6,276.86	84.5438	6,276.86	83.1558	6,276.86	85.1734	6,276.86	81.957	6,276.86	73.3669	6,276.86	79.6536	6,276.86	78.0895	6,276.86	75.6232	6,276.86	80.728	6,276.86	73.6189	6,276.86	75.9694	6,276.86	71.3386	6,276.86	64.3391	6,276.86	70.5979	6,276.86	71.6434	6,276.86	70.6256	6,276.86	62.2546	6,276.86	67.4394	6,276.86	62.9339	6,276.86	65.5528	6,276.86	55.9517	6,276.86	66.4462	6,276.86	57.311	6,276.86	69.373	6,276.86	62.7707	6,276.86	67.0813	6,276.86	56.2082	6,276.86	64.3688
6,498.05	84.3495	6,498.05	84.2447	6,498.05	84.5099	6,498.05	84.0265	6,498.05	84.0406	6,498.05	84.4179	6,498.05	84.8358	6,498.05	84.3913	6,498.05	83.3102	6,498.05	83.6102	6,498.05	84.6569	6,498.05	81.1924	6,498.05	78.6711	6,498.05	79.8794	6,498.05	79.866	6,498.05	75.8257	6,498.05	80.9423	6,498.05	73.6947	6,498.05	72.4118	6,498.05	70.9581	6,498.05	66.8396	6,498.05	70.155	6,498.05	73.4552	6,498.05	69.6994	6,498.05	57.9099	6,498.05	67.4842	6,498.05	62.7669	6,498.05	65.2038	6,498.05	49.5178	6,498.05	66.299	6,498.05	52.9549	6,498.05	68.8096	6,498.05	61.5429	6,498.05	66.5584	6,498.05	55.8265	6,498.05	65.6806
6,726.56	84.5153	6,726.56	83.8077	6,726.56	85.129	6,726.56	83.9071	6,726.56	84.0154	6,726.56	84.5091	6,726.56	85.1659	6,726.56	84.5508	6,726.56	82.6382	6,726.56	83.1633	6,726.56	84.5134	6,726.56	80.2541	6,726.56	81.6744	6,726.56	78.5578	6,726.56	79.2083	6,726.56	76.165	6,726.56	78.7023	6,726.56	73.0336	6,726.56	70.8217	6,726.56	71.0971	6,726.56	73.5598	6,726.56	68.8043	6,726.56	67.709	6,726.56	69.2832	6,726.56	61.4134	6,726.56	66.6761	6,726.56	59.0692	6,726.56	65.1813	6,726.56	62.3882	6,726.56	64.2826	6,726.56	54.0018	6,726.56	67.8047	6,726.56	56.449	6,726.56	67.8921	6,726.56	50.6176	6,726.56	65.1019
6,963.87	84.4995	6,963.87	82.9325	6,963.87	85.3239	6,963.87	84.241	6,963.87	84.5047	6,963.87	85.0395	6,963.87	84.7264	6,963.87	84.5674	6,963.87	83.7133	6,963.87	82.3193	6,963.87	85.0739	6,963.87	80.7132	6,963.87	83.1105	6,963.87	78.6588	6,963.87	76.903	6,963.87	77.431	6,963.87	76.3834	6,963.87	74.4351	6,963.87	66.165	6,963.87	71.2532	6,963.87	74.2158	6,963.87	69.5718	6,963.87	66.6398	6,963.87	68.9599	6,963.87	54.3527	6,963.87	67.6675	6,963.87	54.3263	6,963.87	66.2561	6,963.87	62.2782	6,963.87	65.2189	6,963.87	47.1089	6,963.87	68.6162	6,963.87	61.6348	6,963.87	67.8547	6,963.87	58.0076	6,963.87	63.6999
7,209.96	84.5873	7,209.96	82.5688	7,209.96	85.4309	7,209.96	84.5598	7,209.96	84.6818	7,209.96	85.2726	7,209.96	83.9634	7,209.96	83.9627	7,209.96	82.9745	7,209.96	82.8201	7,209.96	84.783	7,209.96	81.3178	7,209.96	83.0174	7,209.96	79.1523	7,209.96	73.4752	7,209.96	76.7997	7,209.96	74.5947	7,209.96	73.922	7,209.96	73.1137	7,209.96	71.2193	7,209.96	73.5913	7,209.96	69.8434	7,209.96	60.1474	7,209.96	67.3437	7,209.96	59.2106	7,209.96	66.9072	7,209.96	58.6849	7,209.96	65.7131	7,209.96	57.2819	7,209.96	64.6479	7,209.96	54.066	7,209.96	68.4322	7,209.96	61.3549	7,209.96	66.048	7,209.96	49.3729	7,209.96	65.2823
7,464.84	84.4398	7,464.84	82.9074	7,464.84	85.4643	7,464.84	84.8359	7,464.84	84.8649	7,464.84	84.8004	7,464.84	83.8782	7,464.84	83.6864	7,464.84	82.8143	7,464.84	83.2937	7,464.84	83.8083	7,464.84	81.1264	7,464.84	80.8014	7,464.84	78.1996	7,464.84	70.2974	7,464.84	76.1514	7,464.84	80.6601	7,464.84	73.2365	7,464.84	75.0325	7,464.84	70.2561	7,464.84	71.0343	7,464.84	69.399	7,464.84	56.8432	7,464.84	66.9228	7,464.84	61.8648	7,464.84	65.6398	7,464.84	61.0816	7,464.84	66.1076	7,464.84	57.0888	7,464.84	63.7102	7,464.84	60.674	7,464.84	66.6218	7,464.84	57.3177	7,464.84	65.8375	7,464.84	50.4094	7,464.84	60.5136
7,727.05	84.2591	7,727.05	83.9675	7,727.05	85.7597	7,727.05	85.0448	7,727.05	84.8037	7,727.05	84.6902	7,727.05	84.1357	7,727.05	84.5875	7,727.05	82.9544	7,727.05	82.8947	7,727.05	83.2155	7,727.05	80.4586	7,727.05	80.4638	7,727.05	78.6045	7,727.05	74.1917	7,727.05	74.8015	7,727.05	82.387	7,727.05	73.79	7,727.05	74.9163	7,727.05	69.4458	7,727.05	64.1527	7,727.05	69.09	7,727.05	50.4766	7,727.05	68.1726	7,727.05	62.9921	7,727.05	66.3778	7,727.05	50.8536	7,727.05	66.6268	7,727.05	59.2589	7,727.05	64.3488	7,727.05	60.9467	7,727.05	66.135	7,727.05	56.4062	7,727.05	64.4613	7,727.05	47.3702	7,727.05	60.2181
7,999.51	84.6669	7,999.51	85.0533	7,999.51	85.5165	7,999.51	84.8653	7,999.51	84.964	7,999.51	85.1861	7,999.51	84.2826	7,999.51	84.6641	7,999.51	83.4413	7,999.51	82.6319	7,999.51	84.3965	7,999.51	81.1641	7,999.51	79.8968	7,999.51	79.4645	7,999.51	76.5346	7,999.51	75.8824	7,999.51	81.9843	7,999.51	73.4511	7,999.51	74.9341	7,999.51	69.8558	7,999.51	69.5767	7,999.51	67.907	7,999.51	66.6149	7,999.51	68.0556	7,999.51	60.2417	7,999.51	65.2459	7,999.51	54.0758	7,999.51	66.2784	7,999.51	61.1435	7,999.51	63.4221	7,999.51	56.325	7,999.51	65.832	7,999.51	57.2459	7,999.51	63.9385	7,999.51	44.1923	7,999.51	60.0147
8,282.23	85.5096	8,282.23	85.6226	8,282.23	85.6955	8,282.23	85.0454	8,282.23	85.0621	8,282.23	85.2786	8,282.23	84.9216	8,282.23	83.5327	8,282.23	83.0559	8,282.23	83.5577	8,282.23	83.5526	8,282.23	81.1182	8,282.23	80.2628	8,282.23	79.6141	8,282.23	76.1875	8,282.23	75.359	8,282.23	79.8912	8,282.23	72.3527	8,282.23	72.3041	8,282.23	70.0245	8,282.23	65.0989	8,282.23	66.4778	8,282.23	64.3055	8,282.23	66.6565	8,282.23	50.9118	8,282.23	63.2625	8,282.23	60.7106	8,282.23	66.1698	8,282.23	55.2776	8,282.23	63.6083	8,282.23	59.7895	8,282.23	64.2305	8,282.23	55.6235	8,282.23	65.2946	8,282.23	42.1592	8,282.23	58.7224
8,573.73	85.8645	8,573.73	85.5995	8,573.73	85.7592	8,573.73	85.4059	8,573.73	85.4839	8,573.73	84.5968	8,573.73	85.8796	8,573.73	83.7304	8,573.73	83.3026	8,573.73	83.5566	8,573.73	83.2297	8,573.73	81.582	8,573.73	80.9173	8,573.73	78.5557	8,573.73	73.8129	8,573.73	74.0271	8,573.73	75.7411	8,573.73	70.4078	8,573.73	71.3224	8,573.73	68.1412	8,573.73	59.1866	8,573.73	64.9436	8,573.73	58.8458	8,573.73	66.3436	8,573.73	54.8952	8,573.73	64.1124	8,573.73	64.2469	8,573.73	65.5378	8,573.73	53.0103	8,573.73	62.3587	8,573.73	60.3659	8,573.73	65.1371	8,573.73	52.3524	8,573.73	63.6544	8,573.73	50.6824	8,573.73	57.3374
8,876.95	85.6507	8,876.95	85.7502	8,876.95	85.8174	8,876.95	85.397	8,876.95	85.5505	8,876.95	84.5385	8,876.95	85.8659	8,876.95	84.3246	8,876.95	83.7494	8,876.95	83.4695	8,876.95	81.8029	8,876.95	80.9114	8,876.95	80.6347	8,876.95	77.1536	8,876.95	70.5765	8,876.95	73.5587	8,876.95	69.4544	8,876.95	70.9103	8,876.95	68.7029	8,876.95	68.279	8,876.95	53.4001	8,876.95	64.308	8,876.95	57.2005	8,876.95	65.5437	8,876.95	60.4445	8,876.95	63.5459	8,876.95	64.0592	8,876.95	64.7792	8,876.95	52.0233	8,876.95	63.8718	8,876.95	57.0953	8,876.95	65.3219	8,876.95	50.5066	8,876.95	60.9022	8,876.95	52.8997	8,876.95	55.735
9,188.96	85.538	9,188.96	85.5667	9,188.96	85.4204	9,188.96	84.7684	9,188.96	85.3624	9,188.96	84.9209	9,188.96	85.8664	9,188.96	84.5882	9,188.96	84.663	9,188.96	83.6286	9,188.96	82.1782	9,188.96	78.8135	9,188.96	80.0602	9,188.96	77.2957	9,188.96	74.7611	9,188.96	74.2516	9,188.96	74.7025	9,188.96	70.1119	9,188.96	69.8438	9,188.96	68.0174	9,188.96	65.5587	9,188.96	66.2235	9,188.96	67.0795	9,188.96	64.8396	9,188.96	58.9626	9,188.96	62.7753	9,188.96	59.088	9,188.96	63.3013	9,188.96	50.1885	9,188.96	65.9103	9,188.96	50.1242	9,188.96	65.4632	9,188.96	58.5547	9,188.96	58.9397	9,188.96	55.1487	9,188.96	55.3678
9,514.16	85.3861	9,514.16	85.1182	9,514.16	84.7633	9,514.16	84.1812	9,514.16	84.8917	9,514.16	84.7556	9,514.16	85.5208	9,514.16	85.6176	9,514.16	84.4609	9,514.16	82.3596	9,514.16	81.9104	9,514.16	79.5056	9,514.16	77.6294	9,514.16	76.7679	9,514.16	76.9768	9,514.16	74.4725	9,514.16	76.2156	9,514.16	70.8288	9,514.16	71.107	9,514.16	68.1519	9,514.16	63.1148	9,514.16	66.2141	9,514.16	68.8511	9,514.16	64.1467	9,514.16	52.0988	9,514.16	61.3709	9,514.16	56.1456	9,514.16	63.9376	9,514.16	55.1274	9,514.16	65.6348	9,514.16	48.0754	9,514.16	66.3153	9,514.16	47.5079	9,514.16	60.7802	9,514.16	52.1827	9,514.16	54.6291
9,849.61	85.3224	9,849.61	85.0948	9,849.61	84.2911	9,849.61	83.8976	9,849.61	84.6025	9,849.61	84.9379	9,849.61	85.2497	9,849.61	84.6512	9,849.61	84.2014	9,849.61	82.2472	9,849.61	81.5059	9,849.61	79.7449	9,849.61	78.4768	9,849.61	77.4055	9,849.61	77.1506	9,849.61	75.1619	9,849.61	73.2213	9,849.61	70.6572	9,849.61	72.5068	9,849.61	67.6922	9,849.61	62.5797	9,849.61	64.0348	9,849.61	65.3693	9,849.61	63.4811	9,849.61	51.9482	9,849.61	61.207	9,849.61	56.645	9,849.61	63.7592	9,849.61	55.3387	9,849.61	65.2914	9,849.61	48.8745	9,849.61	65.1817	9,849.61	40.3211	9,849.61	60.4882	9,849.61	51.9971	9,849.61	55.0185
10,196.8	85.5785	10,196.8	84.9679	10,196.8	84.3123	10,196.8	84.1197	10,196.8	84.7809	10,196.8	84.45	10,196.8	84.8146	10,196.8	82.6854	10,196.8	84.0575	10,196.8	82.289	10,196.8	82.8999	10,196.8	80.3139	10,196.8	79.6774	10,196.8	76.9297	10,196.8	76.2939	10,196.8	73.8963	10,196.8	70.3011	10,196.8	69.3385	10,196.8	71.175	10,196.8	66.2886	10,196.8	62.8266	10,196.8	62.2941	10,196.8	62.7075	10,196.8	63.3213	10,196.8	48.7228	10,196.8	61.088	10,196.8	55.3189	10,196.8	62.0169	10,196.8	55.8377	10,196.8	65.1746	10,196.8	52.233	10,196.8	64.4659	10,196.8	39.4257	10,196.8	59.3864	10,196.8	53.165	10,196.8	55.8633
10,555.7	85.8947	10,555.7	84.6813	10,555.7	85.0648	10,555.7	84.4159	10,555.7	84.7221	10,555.7	82.8827	10,555.7	84.7577	10,555.7	81.6056	10,555.7	83.0147	10,555.7	81.5128	10,555.7	81.6397	10,555.7	79.854	10,555.7	80.481	10,555.7	75.8174	10,555.7	75.8285	10,555.7	73.0684	10,555.7	72.3584	10,555.7	69.2753	10,555.7	65.0215	10,555.7	65.5725	10,555.7	55.9237	10,555.7	61.8253	10,555.7	43.4974	10,555.7	61.7944	10,555.7	50.1103	10,555.7	58.5662	10,555.7	50.2634	10,555.7	60.9078	10,555.7	50.8852	10,555.7	63.4339	10,555.7	40.0702	10,555.7	63.0977	10,555.7	49.4326	10,555.7	58.6012	10,555.7	53.7313	10,555.7	56.255
10,927.7	85.581	10,927.7	84.9177	10,927.7	85.7159	10,927.7	84.3811	10,927.7	84.3203	10,927.7	82.2378	10,927.7	84.4668	10,927.7	80.8509	10,927.7	82.7623	10,927.7	81.3114	10,927.7	82.2571	10,927.7	78.3296	10,927.7	79.8719	10,927.7	74.9672	10,927.7	77.1054	10,927.7	71.3341	10,927.7	71.5364	10,927.7	65.6771	10,927.7	66.1241	10,927.7	63.1778	10,927.7	56.159	10,927.7	60.9401	10,927.7	59.035	10,927.7	58.8794	10,927.7	46.8113	10,927.7	57.3797	10,927.7	52.4223	10,927.7	58.6088	10,927.7	52.5848	10,927.7	60.8513	10,927.7	42.4812	10,927.7	61.501	10,927.7	48.0471	10,927.7	57.3278	10,927.7	50.6075	10,927.7	54.1275
11,313	85.3835	11,313	85.2207	11,313	86.0277	11,313	84.458	11,313	84.5022	11,313	82.2043	11,313	83.937	11,313	81.214	11,313	82.7178	11,313	80.4245	11,313	82.5334	11,313	77.9658	11,313	80.0724	11,313	72.2576	11,313	76.9247	11,313	68.729	11,313	66.61	11,313	64.9325	11,313	64.1642	11,313	58.4841	11,313	61.8476	11,313	57.1676	11,313	63.1374	11,313	57.4019	11,313	35.8626	11,313	56.0212	11,313	52.6109	11,313	55.3901	11,313	49.3431	11,313	60.66	11,313	48.2342	11,313	60.366	11,313	53.6615	11,313	56.4292	11,313	48.8356	11,313	51.3665
11,712.9	85.3018	11,712.9	85.6022	11,712.9	85.5589	11,712.9	84.2828	11,712.9	84.5681	11,712.9	82.9195	11,712.9	83.4247	11,712.9	81.0326	11,712.9	82.5834	11,712.9	80.318	11,712.9	80.0327	11,712.9	76.8584	11,712.9	79.1722	11,712.9	71.0735	11,712.9	73.6882	11,712.9	66.0666	11,712.9	61.3576	11,712.9	63.8319	11,712.9	57.0113	11,712.9	59.5126	11,712.9	57.1682	11,712.9	55.9031	11,712.9	60.1241	11,712.9	54.7787	11,712.9	42.8336	11,712.9	55.7434	11,712.9	50.6458	11,712.9	54.2957	11,712.9	49.9185	11,712.9	59.429	11,712.9	53.1689	11,712.9	55.2327	11,712.9	54.7262	11,712.9	54.7599	11,712.9	35.6577	11,712.9	46.5337
12,126	85.6559	12,126	85.5037	12,126	85.0173	12,126	84.3496	12,126	84.612	12,126	82.899	12,126	82.42	12,126	81.5289	12,126	81.8888	12,126	79.3316	12,126	78.674	12,126	75.8289	12,126	77.2488	12,126	70.6799	12,126	69.8699	12,126	67.1227	12,126	61.8488	12,126	64.3768	12,126	54.04	12,126	58.7067	12,126	55.3424	12,126	58.0914	12,126	51.9292	12,126	53.5629	12,126	45.0842	12,126	55.9465	12,126	53.6029	12,126	54.1875	12,126	48.6015	12,126	55.805	12,126	53.3285	12,126	52.2049	12,126	51.432	12,126	57.6513	12,126	44.3592	12,126	53.1705
12,553.7	86.0074	12,553.7	85.2836	12,553.7	85.3543	12,553.7	84.2883	12,553.7	84.5195	12,553.7	82.9707	12,553.7	82.5072	12,553.7	81.114	12,553.7	80.6213	12,553.7	78.5146	12,553.7	77.8099	12,553.7	74.6763	12,553.7	75.7964	12,553.7	70.1177	12,553.7	68.0236	12,553.7	66.0484	12,553.7	61.7944	12,553.7	63.0057	12,553.7	44.3415	12,553.7	57.0864	12,553.7	51.6973	12,553.7	57.6524	12,553.7	55.7219	12,553.7	51.1159	12,553.7	43.3176	12,553.7	54.8666	12,553.7	51.8097	12,553.7	51.3018	12,553.7	47.2896	12,553.7	57.5837	12,553.7	49.4599	12,553.7	51.3889	12,553.7	47.5084	12,553.7	57.1671	12,553.7	42.6487	12,553.7	53.8645
12,996.1	86.2146	12,996.1	85.261	12,996.1	85.9363	12,996.1	84.251	12,996.1	84.4106	12,996.1	82.8227	12,996.1	82.7522	12,996.1	80.3668	12,996.1	80.01	12,996.1	77.4715	12,996.1	77.7776	12,996.1	73.929	12,996.1	74.5213	12,996.1	69.1662	12,996.1	68.8917	12,996.1	63.5133	12,996.1	60.1412	12,996.1	61.2121	12,996.1	43.1536	12,996.1	56.1774	12,996.1	52.2409	12,996.1	55.5733	12,996.1	56.9453	12,996.1	50.0543	12,996.1	46.2575	12,996.1	51.6579	12,996.1	50.7621	12,996.1	47.6535	12,996.1	49.1172	12,996.1	56.6579	12,996.1	45.58	12,996.1	50.6397	12,996.1	49.4587	12,996.1	56.4738	12,996.1	40.794	12,996.1	51.4514
13,454.6	86.4621	13,454.6	85.534	13,454.6	86.0243	13,454.6	84.2584	13,454.6	84.3353	13,454.6	82.3537	13,454.6	82.7431	13,454.6	78.8454	13,454.6	79.3312	13,454.6	76.6561	13,454.6	76.6568	13,454.6	72.7853	13,454.6	73.0877	13,454.6	66.6258	13,454.6	68.5312	13,454.6	61.2894	13,454.6	55.0156	13,454.6	58.3963	13,454.6	51.4796	13,454.6	56.1518	13,454.6	51.5886	13,454.6	51.1611	13,454.6	55.5561	13,454.6	50.2003	13,454.6	44.2037	13,454.6	45.1875	13,454.6	46.6362	13,454.6	49.4304	13,454.6	49.9487	13,454.6	55.0543	13,454.6	42.234	13,454.6	50.2989	13,454.6	40.7342	13,454.6	53.97	13,454.6	28.9809	13,454.6	47.2522
13,929.2	86.6876	13,929.2	85.7262	13,929.2	85.8141	13,929.2	84.357	13,929.2	84.5041	13,929.2	81.9252	13,929.2	82.5952	13,929.2	77.9105	13,929.2	79.6809	13,929.2	75.3695	13,929.2	76.1659	13,929.2	71.6437	13,929.2	71.1363	13,929.2	65.4221	13,929.2	67.0271	13,929.2	59.2452	13,929.2	56.7346	13,929.2	56.4998	13,929.2	52.8528	13,929.2	54.0074	13,929.2	50.4937	13,929.2	46.2913	13,929.2	54.321	13,929.2	48.2102	13,929.2	39.4628	13,929.2	39.7322	13,929.2	42.7939	13,929.2	49.8842	13,929.2	52.0223	13,929.2	50.765	13,929.2	45.8485	13,929.2	48.9827	13,929.2	44.6849	13,929.2	52.4954	13,929.2	42.2867	13,929.2	46.6602
14,419.9	86.7551	14,419.9	85.6555	14,419.9	85.7373	14,419.9	84.3713	14,419.9	84.3554	14,419.9	81.6011	14,419.9	82.2652	14,419.9	77.4538	14,419.9	79.4052	14,419.9	74.2758	14,419.9	75.2211	14,419.9	70.3992	14,419.9	69.9119	14,419.9	63.4857	14,419.9	63.5083	14,419.9	58.0566	14,419.9	59.2981	14,419.9	55.5105	14,419.9	52.1484	14,419.9	51.3398	14,419.9	47.3503	14,419.9	49.6729	14,419.9	56.803	14,419.9	40.5437	14,419.9	37.921	14,419.9	42.1394	14,419.9	41.0423	14,419.9	46.1763	14,419.9	49.8335	14,419.9	47.674	14,419.9	45.0925	14,419.9	48.8349	14,419.9	47.7375	14,419.9	51.5834	14,419.9	44.4869	14,419.9	46.8945
14,928.2	86.7305	14,928.2	85.7056	14,928.2	86.0866	14,928.2	84.1727	14,928.2	84.3125	14,928.2	81.4696	14,928.2	81.9736	14,928.2	77.2086	14,928.2	78.4988	14,928.2	73.3703	14,928.2	73.8521	14,928.2	69.187	14,928.2	68.7168	14,928.2	62.3371	14,928.2	64.9796	14,928.2	55.4674	14,928.2	51.5212	14,928.2	55.0114	14,928.2	52.7813	14,928.2	47.4539	14,928.2	46.619	14,928.2	46.2687	14,928.2	55.8934	14,928.2	40.1437	14,928.2	36.4058	14,928.2	41.1883	14,928.2	31.2166	14,928.2	37.811	14,928.2	48.4889	14,928.2	47.2875	14,928.2	34.9122	14,928.2	50.0397	14,928.2	42.5957	14,928.2	50.485	14,928.2	45.1705	14,928.2	46.1606
15,455.6	86.9301	15,455.6	85.8735	15,455.6	86.3096	15,455.6	84.0479	15,455.6	84.3038	15,455.6	81.1072	15,455.6	81.4239	15,455.6	76.965	15,455.6	77.2145	15,455.6	72.2389	15,455.6	72.166	15,455.6	67.0568	15,455.6	68.2563	15,455.6	60.4347	15,455.6	61.4414	15,455.6	50.622	15,455.6	52.0655	15,455.6	49.6244	15,455.6	49.7054	15,455.6	43.7477	15,455.6	44.4397	15,455.6	36.4245	15,455.6	53.4929	15,455.6	38.6295	15,455.6	43.4235	15,455.6	37.7649	15,455.6	39.7127	15,455.6	39.444	15,455.6	48.386	15,455.6	46.0489	15,455.6	39.9063	15,455.6	46.7119	15,455.6	37.3548	15,455.6	46.4024	15,455.6	41.4586	15,455.6	44.2035
16,000.5	86.9693	16,000.5	85.8636	16,000.5	86.2251	16,000.5	84.0839	16,000.5	84.2817	16,000.5	81.0122	16,000.5	81.2112	16,000.5	76.9252	16,000.5	77.0863	16,000.5	72.4141	16,000.5	72.3666	16,000.5	67.6298	16,000.5	67.2475	16,000.5	61.3172	16,000.5	59.4228	16,000.5	51.6842	16,000.5	55.2734	16,000.5	48.6528	16,000.5	50.6894	16,000.5	45.5537	16,000.5	50.4503	16,000.5	39.2478	16,000.5	56.2187	16,000.5	36.1243	16,000.5	46.3435	16,000.5	40.7082	16,000.5	46.7745	16,000.5	42.4189	16,000.5	49.6906	16,000.5	41.4391	16,000.5	41.4279	16,000.5	40.2198	16,000.5	43.9237	16,000.5	45.7974	16,000.5	33.63	16,000.5	41.6868
16,564.5	86.9287	16,564.5	86.0148	16,564.5	86.1537	16,564.5	84.2439	16,564.5	84.3003	16,564.5	81.384	16,564.5	81.5283	16,564.5	77.2108	16,564.5	78.2435	16,564.5	73.1311	16,564.5	73.7896	16,564.5	68.8989	16,564.5	66.341	16,564.5	62.6766	16,564.5	64.6431	16,564.5	53.8285	16,564.5	51.2571	16,564.5	48.7428	16,564.5	47.2579	16,564.5	46.0694	16,564.5	49.5807	16,564.5	40.0109	16,564.5	58.5034	16,564.5	37.6169	16,564.5	47.8565	16,564.5	38.9046	16,564.5	49.0647	16,564.5	39.4415	16,564.5	51.6946	16,564.5	44.9838	16,564.5	43.8134	16,564.5	39.8336	16,564.5	45.5967	16,564.5	48.386	16,564.5	15.3563	16,564.5	38.8577
17,148.9	87.3307	17,148.9	86.4883	17,148.9	86.6233	17,148.9	84.5473	17,148.9	84.4532	17,148.9	81.6942	17,148.9	81.7396	17,148.9	77.2145	17,148.9	78.4825	17,148.9	72.5744	17,148.9	73.4769	17,148.9	67.8524	17,148.9	67.1471	17,148.9	61.105	17,148.9	60.8603	17,148.9	51.896	17,148.9	53.042	17,148.9	45.9571	17,148.9	48.5181	17,148.9	42.4402	17,148.9	51.7812	17,148.9	38.0128	17,148.9	58.9306	17,148.9	31.3809	17,148.9	47.2319	17,148.9	31.9838	17,148.9	48.0509	17,148.9	38.7854	17,148.9	50.9567	17,148.9	42.8353	17,148.9	46.9916	17,148.9	35.0745	17,148.9	44.9078	17,148.9	46.1175	17,148.9	21.116	17,148.9	41.3149
17,752.4	87.8249	17,752.4	86.8976	17,752.4	87.1691	17,752.4	84.7893	17,752.4	84.8529	17,752.4	81.7276	17,752.4	81.8738	17,752.4	77.0684	17,752.4	78.4047	17,752.4	72.4214	17,752.4	73.0772	17,752.4	67.3529	17,752.4	66.941	17,752.4	60.8777	17,752.4	60.9903	17,752.4	54.0462	17,752.4	51.0909	17,752.4	47.3822	17,752.4	49.3866	17,752.4	40.0613	17,752.4	52.657	17,752.4	38.4723	17,752.4	61.0553	17,752.4	39.0732	17,752.4	47.1686	17,752.4	31.7643	17,752.4	46.7252	17,752.4	42.7446	17,752.4	49.0723	17,752.4	45.063	17,752.4	44.2885	17,752.4	26.5491	17,752.4	40.4048	17,752.4	45.5511	17,752.4	33.5116	17,752.4	38.0022
18,379.4	88.1789	18,379.4	87.3823	18,379.4	87.5002	18,379.4	85.0462	18,379.4	85.2585	18,379.4	81.645	18,379.4	82.0964	18,379.4	76.6095	18,379.4	78.0043	18,379.4	71.2766	18,379.4	72.1713	18,379.4	65.3007	18,379.4	65.215	18,379.4	59.847	18,379.4	55.6534	18,379.4	53.1927	18,379.4	55.8344	18,379.4	44.1723	18,379.4	42.6666	18,379.4	39.1913	18,379.4	53.2714	18,379.4	35.706	18,379.4	61.9253	18,379.4	39.9421	18,379.4	48.1121	18,379.4	31.7319	18,379.4	41.2231	18,379.4	44.405	18,379.4	44.5973	18,379.4	44.1918	18,379.4	40.377	18,379.4	42.7542	18,379.4	40.1277	18,379.4	43.4784	18,379.4	37.6116	18,379.4	38.175
19,026.9	88.4791	19,026.9	87.6065	19,026.9	87.694	19,026.9	85.4516	19,026.9	85.2776	19,026.9	81.7796	19,026.9	82.3189	19,026.9	76.9822	19,026.9	77.9089	19,026.9	70.9102	19,026.9	72.1803	19,026.9	65.6214	19,026.9	64.9939	19,026.9	61.2533	19,026.9	61.7474	19,026.9	53.8504	19,026.9	54.892	19,026.9	47.2452	19,026.9	44.9941	19,026.9	42.9227	19,026.9	54.81	19,026.9	33.0785	19,026.9	63.5809	19,026.9	41.5179	19,026.9	51.5013	19,026.9	34.4985	19,026.9	45.1097	19,026.9	41.4118	19,026.9	46.1363	19,026.9	31.8491	19,026.9	41.0308	19,026.9	50.2562	19,026.9	40.5475	19,026.9	37.3535	19,026.9	35.3011	19,026.9	39.827
19,697.8	89.0368	19,697.8	87.7525	19,697.8	87.9384	19,697.8	85.698	19,697.8	85.601	19,697.8	82.326	19,697.8	82.5787	19,697.8	77.1895	19,697.8	78.3369	19,697.8	70.9298	19,697.8	72.6736	19,697.8	65.9035	19,697.8	68.3139	19,697.8	62.6484	19,697.8	63.6012	19,697.8	57.1896	19,697.8	58.6123	19,697.8	47.6276	19,697.8	42.8052	19,697.8	47.1341	19,697.8	56.1961	19,697.8	40.9289	19,697.8	64.5847	19,697.8	45.8717	19,697.8	52.2874	19,697.8	42.493	19,697.8	50.0033	19,697.8	45.2883	19,697.8	48.9037	19,697.8	41.1305	19,697.8	42.5747	19,697.8	54.2243	19,697.8	33.9892	19,697.8	42.0513	19,697.8	42.083	19,697.8	37.9721
19,999.5	89.2164	19,999.5	88.0316	19,999.5	88.228	19,999.5	85.8383	19,999.5	86.5731	19,999.5	82.6821	19,999.5	82.9135	19,999.5	77.5317	19,999.5	78.8794	19,999.5	71.1229	19,999.5	74.7871	19,999.5	65.9519	19,999.5	68.8393	19,999.5	63.6981	19,999.5	65.0417	19,999.5	57.1724	19,999.5	61.5536	19,999.5	48.0903	19,999.5	43.5351	19,999.5	42.495	19,999.5	60.8738	19,999.5	51.8033	19,999.5	66.9548	19,999.5	51.512	19,999.5	51.1206	19,999.5	35.5773	19,999.5	58.6861	19,999.5	43.0418	19,999.5	56.1427	19,999.5	57.1819	19,999.5	56.4259	19,999.5	59.9919	19,999.5	39.1268	19,999.5	43.789	19,999.5	39.7215	19,999.5	45.5686
