"SPL Horizontal"																																																																							
"On-Axis"		"10°"		"-10°"		"20°"		"-20°"		"30°"		"-30°"		"40°"		"-40°"		"50°"		"-50°"		"60°"		"-60°"		"70°"		"-70°"		"80°"		"-80°"		"90°"		"-90°"		"100°"		"-100°"		"110°"		"-110°"		"120°"		"-120°"		"130°"		"-130°"		"140°"		"-140°"		"150°"		"-150°"		"160°"		"-160°"		"170°"		"-170°"		"180°"	
"Frequency [Hz]"	"Sound Pessure Level [dB]  / [2.83V 1m] "	"Frequency [Hz]"	"Sound Pessure Level [dB]  / [2.83V 1m] "	"Frequency [Hz]"	"Sound Pessure Level [dB]  / [2.83V 1m] "	"Frequency [Hz]"	"Sound Pessure Level [dB]  / [2.83V 1m] "	"Frequency [Hz]"	"Sound Pessure Level [dB]  / [2.83V 1m] "	"Frequency [Hz]"	"Sound Pessure Level [dB]  / [2.83V 1m] "	"Frequency [Hz]"	"Sound Pessure Level [dB]  / [2.83V 1m] "	"Frequency [Hz]"	"Sound Pessure Level [dB]  / [2.83V 1m] "	"Frequency [Hz]"	"Sound Pessure Level [dB]  / [2.83V 1m] "	"Frequency [Hz]"	"Sound Pessure Level [dB]  / [2.83V 1m] "	"Frequency [Hz]"	"Sound Pessure Level [dB]  / [2.83V 1m] "	"Frequency [Hz]"	"Sound Pessure Level [dB]  / [2.83V 1m] "	"Frequency [Hz]"	"Sound Pessure Level [dB]  / [2.83V 1m] "	"Frequency [Hz]"	"Sound Pessure Level [dB]  / [2.83V 1m] "	"Frequency [Hz]"	"Sound Pessure Level [dB]  / [2.83V 1m] "	"Frequency [Hz]"	"Sound Pessure Level [dB]  / [2.83V 1m] "	"Frequency [Hz]"	"Sound Pessure Level [dB]  / [2.83V 1m] "	"Frequency [Hz]"	"Sound Pessure Level [dB]  / [2.83V 1m] "	"Frequency [Hz]"	"Sound Pessure Level [dB]  / [2.83V 1m] "	"Frequency [Hz]"	"Sound Pessure Level [dB]  / [2.83V 1m] "	"Frequency [Hz]"	"Sound Pessure Level [dB]  / [2.83V 1m] "	"Frequency [Hz]"	"Sound Pessure Level [dB]  / [2.83V 1m] "	"Frequency [Hz]"	"Sound Pessure Level [dB]  / [2.83V 1m] "	"Frequency [Hz]"	"Sound Pessure Level [dB]  / [2.83V 1m] "	"Frequency [Hz]"	"Sound Pessure Level [dB]  / [2.83V 1m] "	"Frequency [Hz]"	"Sound Pessure Level [dB]  / [2.83V 1m] "	"Frequency [Hz]"	"Sound Pessure Level [dB]  / [2.83V 1m] "	"Frequency [Hz]"	"Sound Pessure Level [dB]  / [2.83V 1m] "	"Frequency [Hz]"	"Sound Pessure Level [dB]  / [2.83V 1m] "	"Frequency [Hz]"	"Sound Pessure Level [dB]  / [2.83V 1m] "	"Frequency [Hz]"	"Sound Pessure Level [dB]  / [2.83V 1m] "	"Frequency [Hz]"	"Sound Pessure Level [dB]  / [2.83V 1m] "	"Frequency [Hz]"	"Sound Pessure Level [dB]  / [2.83V 1m] "	"Frequency [Hz]"	"Sound Pessure Level [dB]  / [2.83V 1m] "	"Frequency [Hz]"	"Sound Pessure Level [dB]  / [2.83V 1m] "	"Frequency [Hz]"	"Sound Pessure Level [dB]  / [2.83V 1m] "
20.5078	53.1173	20.5078	52.8255	20.5078	53.0679	20.5078	52.166	20.5078	52.6732	20.5078	51.0776	20.5078	51.8982	20.5078	49.4662	20.5078	50.6732	20.5078	47.2875	20.5078	48.9057	20.5078	45.1809	20.5078	46.6449	20.5078	45.6758	20.5078	45.0315	20.5078	48.7892	20.5078	46.5328	20.5078	51.9864	20.5078	49.8012	20.5078	54.6208	20.5078	52.8226	20.5078	56.7385	20.5078	55.2847	20.5078	58.4395	20.5078	57.2665	20.5078	59.7952	20.5078	58.8584	20.5078	60.8506	20.5078	60.1223	20.5078	61.6329	20.5078	61.0968	20.5078	62.1584	20.5078	61.805	20.5078	62.4358	20.5078	62.2602	20.5078	62.4695
21.9727	55.7191	21.9727	55.4934	21.9727	55.6637	21.9727	54.9722	21.9727	55.3237	21.9727	54.1228	21.9727	54.6766	21.9727	52.9008	21.9727	53.6823	21.9727	51.2955	21.9727	52.2947	21.9727	49.5524	21.9727	50.5424	21.9727	48.7621	21.9727	48.8918	21.9727	50.1574	21.9727	48.8005	21.9727	52.7467	21.9727	50.856	21.9727	55.2864	21.9727	53.5509	21.9727	57.4441	21.9727	55.9887	21.9727	59.2116	21.9727	58.0182	21.9727	60.632	21.9727	59.6693	21.9727	61.7422	21.9727	60.988	21.9727	62.5673	21.9727	62.0085	21.9727	63.1222	21.9727	62.7522	21.9727	63.4156	21.9727	63.2311	21.9727	63.4516
23.4375	57.6995	23.4375	57.5016	23.4375	57.6561	23.4375	57.0533	23.4375	57.3707	23.4375	56.3379	23.4375	56.8332	23.4375	55.3414	23.4375	56.0293	23.4375	54.0933	23.4375	54.9588	23.4375	52.7996	23.4375	53.6993	23.4375	52.091	23.4375	52.5796	23.4375	52.7612	23.4375	52.3392	23.4375	54.5921	23.4375	53.474	23.4375	56.7266	23.4375	55.4327	23.4375	58.6962	23.4375	57.4893	23.4375	60.374	23.4375	59.3317	23.4375	61.7489	23.4375	60.8857	23.4375	62.8354	23.4375	62.1496	23.4375	63.6483	23.4375	63.1364	23.4375	64.1983	23.4375	63.858	23.4375	64.4921	23.4375	64.3221	23.4375	64.5331
24.9023	59.8969	24.9023	59.7318	24.9023	59.8624	24.9023	59.3636	24.9023	59.6274	24.9023	58.7864	24.9023	59.1866	24.9023	58.0016	24.9023	58.5338	24.9023	57.0429	24.9023	57.6747	24.9023	56.04	24.9023	56.6603	24.9023	55.3239	24.9023	55.6691	24.9023	55.3868	24.9023	55.1105	24.9023	56.4054	24.9023	55.4666	24.9023	57.9898	24.9023	56.7307	24.9023	59.674	24.9023	58.4104	24.9023	61.2133	24.9023	60.0887	24.9023	62.5202	24.9023	61.5793	24.9023	63.5717	24.9023	62.8231	24.9023	64.3652	24.9023	63.8074	24.9023	64.9032	24.9023	64.5332	24.9023	65.1883	24.9023	65.0038	24.9023	65.2218
26.3672	61.5209	26.3672	61.3762	26.3672	61.4894	26.3672	61.0541	26.3672	61.2813	26.3672	60.5544	26.3672	60.8941	26.3672	59.8854	26.3672	60.3279	26.3672	59.0843	26.3672	59.5951	26.3672	58.2589	26.3672	58.7463	26.3672	57.6461	26.3672	57.9221	26.3672	57.5884	26.3672	57.4099	26.3672	58.2754	26.3672	57.5609	26.3672	59.5192	26.3672	58.4646	26.3672	60.9659	26.3672	59.8331	26.3672	62.3627	26.3672	61.3119	26.3672	63.5873	26.3672	62.6874	26.3672	64.5914	26.3672	63.8659	26.3672	65.3576	26.3672	64.8131	26.3672	65.8805	26.3672	65.5179	26.3672	66.1584	26.3672	65.9773	26.3672	66.1908
27.832	62.9753	27.832	62.8464	27.832	62.9478	27.832	62.5619	27.832	62.7638	27.832	62.1256	27.832	62.4239	27.832	61.5518	27.832	61.9331	27.832	60.8818	27.832	61.31	27.832	60.2134	27.832	60.6071	27.832	59.7324	27.832	59.9443	27.832	59.6854	27.832	59.5372	27.832	60.2192	27.832	59.636	27.832	61.2325	27.832	60.3313	27.832	62.4728	27.832	61.4543	27.832	63.7197	27.832	62.737	27.832	64.8438	27.832	63.9793	27.832	65.7821	27.832	65.073	27.832	66.5058	27.832	65.9677	27.832	67.0022	27.832	66.6414	27.832	67.2654	27.832	67.0846	27.832	67.293
29.2969	64.1766	29.2969	64.0625	29.2969	64.152	29.2969	63.8127	29.2969	63.9888	29.2969	63.4355	29.2969	63.6898	29.2969	62.952	29.2969	63.2648	29.2969	62.4097	29.2969	62.7389	29.2969	61.9024	29.2969	62.1688	29.2969	61.5829	29.2969	61.6651	29.2969	61.6278	29.2969	61.4002	29.2969	62.1291	29.2969	61.5516	29.2969	63.0126	29.2969	62.1765	29.2969	64.0965	29.2969	63.1552	29.2969	65.2065	29.2969	64.2878	29.2969	66.2259	29.2969	65.4075	29.2969	67.0893	29.2969	66.4112	29.2969	67.7619	29.2969	67.2436	29.2969	68.2259	29.2969	67.8767	29.2969	68.4718	29.2969	68.2963	29.2969	68.4955
30.7617	65.7153	30.7617	65.6171	30.7617	65.6942	30.7617	65.4031	30.7617	65.5541	30.7617	65.0829	30.7617	65.2989	30.7617	64.6769	30.7617	64.9395	30.7617	64.2271	30.7617	64.5	30.7617	63.8087	30.7617	64.0288	30.7617	63.5367	30.7617	63.612	30.7617	63.5429	30.7617	63.3764	30.7617	63.9093	30.7617	63.4549	30.7617	64.6061	30.7617	63.9103	30.7617	65.5097	30.7617	64.6836	30.7617	66.4757	30.7617	65.6335	30.7617	67.3908	30.7617	66.6158	30.7617	68.1821	30.7617	67.5251	30.7617	68.8063	30.7617	68.2965	30.7617	69.2392	30.7617	68.8925	30.7617	69.4677	30.7617	69.2925	30.7617	69.4857
32.2266	66.7578	32.2266	66.6755	32.2266	66.736	32.2266	66.4938	32.2266	66.6099	32.2266	66.2245	32.2266	66.3845	32.2266	65.8907	32.2266	66.0721	32.2266	65.5342	32.2266	65.6987	32.2266	65.2233	32.2266	65.3114	32.2266	65.0526	32.2266	64.9878	32.2266	65.1211	32.2266	64.833	32.2266	65.4847	32.2266	64.95	32.2266	66.1183	32.2266	65.384	32.2266	66.9274	32.2266	66.0886	32.2266	67.7971	32.2266	66.9521	32.2266	68.6297	32.2266	67.8536	32.2266	69.3567	32.2266	68.6982	32.2266	69.9343	32.2266	69.4224	32.2266	70.336	32.2266	69.9873	32.2266	70.5463	32.2266	70.3699	32.2266	70.558
33.6914	68.125	33.6914	68.0533	33.6914	68.1062	33.6914	67.8956	33.6914	67.9971	33.6914	67.6628	33.6914	67.8031	33.6914	67.376	33.6914	67.537	33.6914	67.0713	33.6914	67.2226	33.6914	66.8053	33.6914	66.9011	33.6914	66.6542	33.6914	66.6355	33.6914	66.698	33.6914	66.5082	33.6914	66.9875	33.6914	66.5991	33.6914	67.5137	33.6914	66.9495	33.6914	68.209	33.6914	67.5342	33.6914	68.9786	33.6914	68.2725	33.6914	69.7332	33.6914	69.065	33.6914	70.4041	33.6914	69.8245	33.6914	70.9444	33.6914	70.4868	33.6914	71.3239	33.6914	71.0091	33.6914	71.525	33.6914	71.3649	33.6914	71.5389
35.1563	69.3639	35.1563	69.2986	35.1563	69.3498	35.1563	69.1584	35.1563	69.2567	35.1563	68.9538	35.1563	69.0899	35.1563	68.7043	35.1563	68.8613	35.1563	68.4419	35.1563	68.5924	35.1563	68.215	35.1563	68.3186	35.1563	68.0867	35.1563	68.0923	35.1563	68.1225	35.1563	67.9798	35.1563	68.3665	35.1563	68.047	35.1563	68.8173	35.1563	68.3321	35.1563	69.4245	35.1563	68.824	35.1563	70.1101	35.1563	69.4634	35.1563	70.7942	35.1563	70.1681	35.1563	71.4107	35.1563	70.8583	35.1563	71.9119	35.1563	71.4705	35.1563	72.2656	35.1563	71.9595	35.1563	72.4525	35.1563	72.2961	35.1563	72.463
36.6211	70.3591	36.6211	70.3056	36.6211	70.3418	36.6211	70.1858	36.6211	70.2539	36.6211	70.0102	36.6211	70.1006	36.6211	69.797	36.6211	69.8934	36.6211	69.576	36.6211	69.6529	36.6211	69.3896	36.6211	69.4116	36.6211	69.2921	36.6211	69.2165	36.6211	69.3386	36.6211	69.1258	36.6211	69.5666	36.6211	69.1965	36.6211	69.9769	36.6211	69.4626	36.6211	70.5294	36.6211	69.9163	36.6211	71.1579	36.6211	70.5084	36.6211	71.791	36.6211	71.1663	36.6211	72.3665	36.6211	71.8164	36.6211	72.8372	36.6211	72.3978	36.6211	73.1704	36.6211	72.8657	36.6211	73.3455	36.6211	73.1898	36.6211	73.3524
38.0859	71.2986	38.0859	71.2438	38.0859	71.2907	38.0859	71.1305	38.0859	71.2205	38.0859	70.9687	38.0859	71.0935	38.0859	70.7762	38.0859	70.9209	38.0859	70.5805	38.0859	70.7222	38.0859	70.4208	38.0859	70.5269	38.0859	70.3454	38.0859	70.3758	38.0859	70.4028	38.0859	70.318	38.0859	70.6255	38.0859	70.4007	38.0859	71.0143	38.0859	70.6521	38.0859	71.5346	38.0859	71.0672	38.0859	72.1276	38.0859	71.6065	38.0859	72.7278	38.0859	72.2085	38.0859	73.2768	38.0859	72.8079	38.0859	73.7288	38.0859	73.3476	38.0859	74.0511	38.0859	73.7838	38.0859	74.2234	38.0859	74.0859	38.0859	74.2353
39.5508	72.4902	39.5508	72.4481	39.5508	72.4708	39.5508	72.3483	39.5508	72.3905	39.5508	72.1996	39.5508	72.254	39.5508	72.0176	39.5508	72.0717	39.5508	71.8262	39.5508	71.8608	39.5508	71.6593	39.5508	71.648	39.5508	71.5595	39.5508	71.4704	39.5508	71.5712	39.5508	71.3737	39.5508	71.728	39.5508	71.4035	39.5508	72.0385	39.5508	71.5914	39.5508	72.4793	39.5508	71.94	39.5508	73.0017	39.5508	72.4185	39.5508	73.5456	39.5508	72.9722	39.5508	74.0529	39.5508	73.538	39.5508	74.4756	39.5508	74.0578	39.5508	74.7779	39.5508	74.485	39.5508	74.9367	39.5508	74.7859	39.5508	74.9397
41.0156	73.4385	41.0156	73.3946	41.0156	73.4326	41.0156	73.3055	41.0156	73.3769	41.0156	73.1805	41.0156	73.2755	41.0156	73.035	41.0156	73.1375	41.0156	72.8916	41.0156	72.9784	41.0156	72.7802	41.0156	72.8211	41.0156	72.7359	41.0156	72.6963	41.0156	72.7929	41.0156	72.6407	41.0156	72.9745	41.0156	72.6902	41.0156	73.2838	41.0156	72.8701	41.0156	73.6993	41.0156	73.184	41.0156	74.1801	41.0156	73.6098	41.0156	74.6756	41.0156	74.1047	41.0156	75.136	41.0156	74.616	41.0156	75.5183	41.0156	75.0919	41.0156	75.7897	41.0156	75.4885	41.0156	75.9282	41.0156	75.7726	41.0156	75.9226
42.4805	74.4596	42.4805	74.434	42.4805	74.4374	42.4805	74.3642	42.4805	74.3673	42.4805	74.2581	42.4805	74.2534	42.4805	74.129	42.4805	74.1045	42.4805	73.9962	42.4805	73.9349	42.4805	73.8856	42.4805	73.7665	42.4805	73.8285	42.4805	73.6288	42.4805	73.8571	42.4805	73.5576	42.4805	73.9959	42.4805	73.5888	42.4805	74.2532	42.4805	73.7484	42.4805	74.6152	42.4805	74.0416	42.4805	75.0478	42.4805	74.4482	42.4805	75.5046	42.4805	74.926	42.4805	75.9369	42.4805	75.4226	42.4805	76.301	42.4805	75.8862	42.4805	76.5625	42.4805	76.2725	42.4805	76.6976	42.4805	76.5486	42.4805	76.6935
43.9453	75.2886	43.9453	75.2609	43.9453	75.2735	43.9453	75.1937	43.9453	75.2158	43.9453	75.0941	43.9453	75.1194	43.9453	74.9739	43.9453	74.9922	43.9453	74.8503	43.9453	74.8471	43.9453	74.7462	43.9453	74.7031	43.9453	74.6891	43.9453	74.5853	43.9453	74.7073	43.9453	74.5236	43.9453	74.8233	43.9453	74.5484	43.9453	75.0461	43.9453	74.6822	43.9453	75.3657	43.9453	74.9315	43.9453	75.7537	43.9453	75.2817	43.9453	76.1691	43.9453	75.6993	43.9453	76.567	43.9453	76.1393	43.9453	76.9059	43.9453	76.5546	43.9453	77.1521	43.9453	76.9034	43.9453	77.2819	43.9453	77.1532	43.9453	77.2827
45.4102	76.1145	45.4102	76.0923	45.4102	76.0981	45.4102	76.0344	45.4102	76.0435	45.4102	75.9473	45.4102	75.9544	45.4102	75.8417	45.4102	75.8383	45.4102	75.7331	45.4102	75.7076	45.4102	75.6422	45.4102	75.5798	45.4102	75.5933	45.4102	75.478	45.4102	75.612	45.4102	75.4291	45.4102	75.7189	45.4102	75.46	45.4102	75.9231	45.4102	75.5907	45.4102	76.2171	45.4102	75.8269	45.4102	76.5767	45.4102	76.1557	45.4102	76.9649	45.4102	76.5469	45.4102	77.3401	45.4102	76.9593	45.4102	77.6624	45.4102	77.349	45.4102	77.8987	45.4102	77.6765	45.4102	78.0256	45.4102	77.9105	45.4102	78.03
46.875	76.8695	46.875	76.8484	46.875	76.8548	46.875	76.7942	46.875	76.805	46.875	76.7127	46.875	76.7239	46.875	76.6141	46.875	76.6192	46.875	76.5129	46.875	76.5028	46.875	76.4285	46.875	76.3915	46.875	76.3841	46.875	76.3067	46.875	76.4035	46.875	76.2732	46.875	76.5067	46.875	76.3151	46.875	76.7028	46.875	76.4496	46.875	76.9857	46.875	76.6814	46.875	77.333	46.875	76.998	46.875	77.7101	46.875	77.3715	46.875	78.0766	46.875	77.7636	46.875	78.3937	46.875	78.1333	46.875	78.6289	46.875	78.4427	46.875	78.7587	46.875	78.6617	46.875	78.7702
48.3398	77.5194	48.3398	77.4969	48.3398	77.5167	48.3398	77.4518	48.3398	77.4891	48.3398	77.3897	48.3398	77.4399	48.3398	77.3199	48.3398	77.3756	48.3398	77.2552	48.3398	77.3062	48.3398	77.2121	48.3398	77.2452	48.3398	77.2092	48.3398	77.2097	48.3398	77.2652	48.3398	77.2185	48.3398	77.3943	48.3398	77.2895	48.3398	77.602	48.3398	77.4354	48.3398	77.8812	48.3398	77.659	48.3398	78.2122	48.3398	77.9506	48.3398	78.5652	48.3398	78.2882	48.3398	78.9054	48.3398	78.6405	48.3398	79.1988	48.3398	78.9729	48.3398	79.4161	48.3398	79.2519	48.3398	79.5363	48.3398	79.45	48.3398	79.548
51.2695	79.0203	51.2695	79.0073	51.2695	79.0147	51.2695	78.9778	51.2695	78.9908	51.2695	78.9359	51.2695	78.9512	51.2695	78.8882	51.2695	78.9007	51.2695	78.8441	51.2695	78.8464	51.2695	78.8153	51.2695	78.7986	51.2695	78.8154	51.2695	78.7697	51.2695	78.8583	51.2695	78.7738	51.2695	78.9551	51.2695	78.8246	51.2695	79.1118	51.2695	78.933	51.2695	79.3255	51.2695	79.1031	51.2695	79.5833	51.2695	79.3302	51.2695	79.8634	51.2695	79.5991	51.2695	80.138	51.2695	79.8863	51.2695	80.3776	51.2695	80.163	51.2695	80.5561	51.2695	80.3998	51.2695	80.6534	51.2695	80.5712	51.2695	80.6588
52.7344	79.653	52.7344	79.6423	52.7344	79.6485	52.7344	79.618	52.7344	79.629	52.7344	79.5838	52.7344	79.5965	52.7344	79.5452	52.7344	79.5552	52.7344	79.5103	52.7344	79.5113	52.7344	79.4891	52.7344	79.4731	52.7344	79.493	52.7344	79.4512	52.7344	79.5341	52.7344	79.4577	52.7344	79.6222	52.7344	79.5043	52.7344	79.7629	52.7344	79.6009	52.7344	79.9544	52.7344	79.7517	52.7344	80.1861	52.7344	79.9537	52.7344	80.4391	52.7344	80.1945	52.7344	80.6884	52.7344	80.4537	52.7344	80.907	52.7344	80.7055	52.7344	81.0702	52.7344	80.9228	52.7344	81.159	52.7344	81.0812	52.7344	81.163
54.1992	80.2855	54.1992	80.2782	54.1992	80.2812	54.1992	80.2605	54.1992	80.2653	54.1992	80.2357	54.1992	80.2395	54.1992	80.2085	54.1992	80.2072	54.1992	80.1855	54.1992	80.1737	54.1992	80.1752	54.1992	80.146	54.1992	80.1873	54.1992	80.1331	54.1992	80.2316	54.1992	80.1453	54.1992	80.3168	54.1992	80.1927	54.1992	80.4475	54.1992	80.2837	54.1992	80.6227	54.1992	80.4227	54.1992	80.8334	54.1992	80.6072	54.1992	81.0634	54.1992	80.8271	54.1992	81.2904	54.1992	81.0646	54.1992	81.4899	54.1992	81.2963	54.1992	81.6389	54.1992	81.4973	54.1992	81.7195	54.1992	81.6447	54.1992	81.7217
55.6641	80.8821	55.6641	80.8809	55.6641	80.8749	55.6641	80.8723	55.6641	80.8595	55.6641	80.8589	55.6641	80.8373	55.6641	80.8443	55.6641	80.8111	55.6641	80.8338	55.6641	80.7852	55.6641	80.8342	55.6641	80.7655	55.6641	80.8532	55.6641	80.7593	55.6641	80.8989	55.6641	80.7751	55.6641	80.9783	55.6641	80.8213	55.6641	81.0957	55.6641	80.9053	55.6641	81.2505	55.6641	81.0309	55.6641	81.4359	55.6641	81.1967	55.6641	81.6384	55.6641	81.3944	55.6641	81.8387	55.6641	81.6088	55.6641	82.0149	55.6641	81.8195	55.6641	82.1461	55.6641	82.0039	55.6641	82.2156	55.6641	82.1407	55.6641	82.214
58.5938	81.9512	58.5938	81.9529	58.5938	81.9456	58.5938	81.951	58.5938	81.9363	58.5938	81.947	58.5938	81.9241	58.5938	81.9431	58.5938	81.9109	58.5938	81.9425	58.5938	81.8994	58.5938	81.9495	58.5938	81.8933	58.5938	81.9692	58.5938	81.8974	58.5938	82.0074	58.5938	81.9175	58.5938	82.0697	58.5938	81.9594	58.5938	82.16	58.5938	82.0285	58.5938	82.2793	58.5938	82.1283	58.5938	82.4238	58.5938	82.2584	58.5938	82.5841	58.5938	82.4136	58.5938	82.7457	58.5938	82.5829	58.5938	82.8907	58.5938	82.7504	58.5938	83.0009	58.5938	82.8976	58.5938	83.0615	58.5938	83.0067	58.5938	83.0638
60.0586	82.4175	60.0586	82.4183	60.0586	82.4148	60.0586	82.4175	60.0586	82.4103	60.0586	82.4161	60.0586	82.4046	60.0586	82.4156	60.0586	82.3988	60.0586	82.4184	60.0586	82.3947	60.0586	82.4277	60.0586	82.395	60.0586	82.4475	60.0586	82.4033	60.0586	82.4825	60.0586	82.4239	60.0586	82.5374	60.0586	82.4616	60.0586	82.616	60.0586	82.5212	60.0586	82.7194	60.0586	82.6059	60.0586	82.8451	60.0586	82.7163	60.0586	82.9855	60.0586	82.8487	60.0586	83.1281	60.0586	82.9943	60.0586	83.257	60.0586	83.1396	60.0586	83.3558	60.0586	83.2682	60.0586	83.4107	60.0586	83.3639	60.0586	83.4136
62.9883	83.2288	62.9883	83.232	62.9883	83.2277	62.9883	83.2374	62.9883	83.2287	62.9883	83.2451	62.9883	83.232	62.9883	83.2554	62.9883	83.2378	62.9883	83.2692	62.9883	83.2466	62.9883	83.2877	62.9883	83.2594	62.9883	83.313	62.9883	83.2778	62.9883	83.3479	62.9883	83.3041	62.9883	83.3955	62.9883	83.3413	62.9883	83.4587	62.9883	83.3925	62.9883	83.5391	62.9883	83.4604	62.9883	83.6357	62.9883	83.5459	62.9883	83.7439	62.9883	83.6473	62.9883	83.8549	62.9883	83.759	62.9883	83.9566	62.9883	83.8711	62.9883	84.0356	62.9883	83.9711	62.9883	84.0803	62.9883	84.0456	62.9883	84.0839
64.4531	83.6174	64.4531	83.6229	64.4531	83.6172	64.4531	83.6335	64.4531	83.6224	64.4531	83.6486	64.4531	83.6326	64.4531	83.6678	64.4531	83.6474	64.4531	83.6906	64.4531	83.6663	64.4531	83.7171	64.4531	83.6892	64.4531	83.7482	64.4531	83.7163	64.4531	83.7855	64.4531	83.7489	64.4531	83.8312	64.4531	83.7885	64.4531	83.8878	64.4531	83.8376	64.4531	83.9571	64.4531	83.8983	64.4531	84.0387	64.4531	83.9717	64.4531	84.1298	64.4531	84.057	64.4531	84.2233	64.4531	84.1501	64.4531	84.3096	64.4531	84.2435	64.4531	84.3773	64.4531	84.3268	64.4531	84.4162	64.4531	84.3888	64.4531	84.4203
67.3828	84.165	67.3828	84.1718	67.3828	84.167	67.3828	84.1866	67.3828	84.1776	67.3828	84.2085	67.3828	84.196	67.3828	84.2357	67.3828	84.2208	67.3828	84.2667	67.3828	84.2506	67.3828	84.3002	67.3828	84.2836	67.3828	84.3352	67.3828	84.3187	67.3828	84.3718	67.3828	84.3553	67.3828	84.4109	67.3828	84.3934	67.3828	84.4543	67.3828	84.4342	67.3828	84.5037	67.3828	84.4793	67.3828	84.56	67.3828	84.53	67.3828	84.6223	67.3828	84.587	67.3828	84.6869	67.3828	84.6487	67.3828	84.7475	67.3828	84.7109	67.3828	84.7961	67.3828	84.7669	67.3828	84.825	67.3828	84.8087	67.3828	84.8294
68.8477	84.3769	68.8477	84.3834	68.8477	84.3802	68.8477	84.3992	68.8477	84.3932	68.8477	84.4227	68.8477	84.4149	68.8477	84.4521	68.8477	84.4437	68.8477	84.4851	68.8477	84.4774	68.8477	84.5197	68.8477	84.5139	68.8477	84.5545	68.8477	84.5512	68.8477	84.589	68.8477	84.588	68.8477	84.6234	68.8477	84.6238	68.8477	84.6591	68.8477	84.6591	68.8477	84.698	68.8477	84.6953	68.8477	84.7415	68.8477	84.7341	68.8477	84.7897	68.8477	84.7766	68.8477	84.8403	68.8477	84.8224	68.8477	84.8886	68.8477	84.8689	68.8477	84.9281	68.8477	84.9111	68.8477	84.9525	68.8477	84.9426	68.8477	84.9574
71.7773	84.8062	71.7773	84.811	71.7773	84.8141	71.7773	84.8278	71.7773	84.8345	71.7773	84.8546	71.7773	84.8658	71.7773	84.8887	71.7773	84.9059	71.7773	84.9271	71.7773	84.9515	71.7773	84.9666	71.7773	84.9993	71.7773	85.0045	71.7773	85.0461	71.7773	85.0391	71.7773	85.0891	71.7773	85.0695	71.7773	85.1265	71.7773	85.0964	71.7773	85.1578	71.7773	85.1215	71.7773	85.1834	71.7773	85.1469	71.7773	85.205	71.7773	85.1744	71.7773	85.2246	71.7773	85.2041	71.7773	85.2436	71.7773	85.2342	71.7773	85.2621	71.7773	85.2612	71.7773	85.2782	71.7773	85.2808	71.7773	85.2887	71.7773	85.2902
74.707	85.229	74.707	85.2321	74.707	85.2399	74.707	85.2483	74.707	85.2646	74.707	85.2754	74.707	85.3014	74.707	85.3103	74.707	85.3474	74.707	85.3491	74.707	85.3987	74.707	85.3879	74.707	85.4513	74.707	85.4234	74.707	85.5009	74.707	85.4528	74.707	85.5437	74.707	85.4748	74.707	85.5769	74.707	85.4895	74.707	85.5992	74.707	85.4988	74.707	85.6106	74.707	85.5052	74.707	85.6129	74.707	85.5117	74.707	85.6089	74.707	85.5204	74.707	85.6018	74.707	85.5321	74.707	85.5941	74.707	85.5456	74.707	85.5867	74.707	85.5588	74.707	85.5792	74.707	85.5702
77.6367	85.459	77.6367	85.4716	77.6367	85.4625	77.6367	85.4989	77.6367	85.4818	77.6367	85.5382	77.6367	85.515	77.6367	85.5858	77.6367	85.5589	77.6367	85.6368	77.6367	85.6093	77.6367	85.6865	77.6367	85.6612	77.6367	85.7302	77.6367	85.7094	77.6367	85.764	77.6367	85.7495	77.6367	85.7855	77.6367	85.7778	77.6367	85.7936	77.6367	85.7922	77.6367	85.7895	77.6367	85.7927	77.6367	85.7758	77.6367	85.7811	77.6367	85.7563	77.6367	85.7611	77.6367	85.7351	77.6367	85.7378	77.6367	85.7156	77.6367	85.7158	77.6367	85.7002	77.6367	85.6988	77.6367	85.6901	77.6367	85.6888	77.6367	85.686
79.1016	85.5347	79.1016	85.5519	79.1016	85.5338	79.1016	85.5841	79.1016	85.5491	79.1016	85.6283	79.1016	85.5787	79.1016	85.6803	79.1016	85.6194	79.1016	85.7351	79.1016	85.6669	79.1016	85.7874	79.1016	85.7158	79.1016	85.832	79.1016	85.7611	79.1016	85.8645	79.1016	85.7978	79.1016	85.882	79.1016	85.822	79.1016	85.8833	79.1016	85.8315	79.1016	85.8692	79.1016	85.8259	79.1016	85.8428	79.1016	85.8073	79.1016	85.8086	79.1016	85.7795	79.1016	85.7717	79.1016	85.7479	79.1016	85.7373	79.1016	85.7183	79.1016	85.709	79.1016	85.6954	79.1016	85.6896	79.1016	85.6824	79.1016	85.6804
82.0313	85.748	82.0313	85.7727	82.0313	85.7397	82.0313	85.8121	82.0313	85.748	82.0313	85.8628	82.0313	85.7712	82.0313	85.9201	82.0313	85.8059	82.0313	85.9783	82.0313	85.8477	82.0313	86.0315	82.0313	85.8911	82.0313	86.0737	82.0313	85.9305	82.0313	86.0999	82.0313	85.9604	82.0313	86.1067	82.0313	85.9763	82.0313	86.0924	82.0313	85.9755	82.0313	86.0581	82.0313	85.9571	82.0313	86.0073	82.0313	85.9231	82.0313	85.9458	82.0313	85.878	82.0313	85.881	82.0313	85.8282	82.0313	85.8202	82.0313	85.7812	82.0313	85.77	82.0313	85.7441	82.0313	85.7353	82.0313	85.7223	82.0313	85.719
84.9609	85.8983	84.9609	85.9203	84.9609	85.8945	84.9609	85.9586	84.9609	85.9088	84.9609	86.0096	84.9609	85.9392	84.9609	86.0682	84.9609	85.9819	84.9609	86.1283	84.9609	86.032	84.9609	86.1832	84.9609	86.0833	84.9609	86.2264	84.9609	86.1295	84.9609	86.2524	84.9609	86.1645	84.9609	86.257	84.9609	86.1832	84.9609	86.2387	84.9609	86.1823	84.9609	86.1984	84.9609	86.1606	84.9609	86.1402	84.9609	86.1199	84.9609	86.0708	84.9609	86.0647	84.9609	85.9986	84.9609	86.0021	84.9609	85.9324	84.9609	85.9405	84.9609	85.8803	84.9609	85.8884	84.9609	85.848	84.9609	85.8529	84.9609	85.8387
87.8906	85.8841	87.8906	85.8999	87.8906	85.8892	87.8906	85.9349	87.8906	85.9145	87.8906	85.9856	87.8906	85.9579	87.8906	86.0467	87.8906	86.0149	87.8906	86.1118	87.8906	86.08	87.8906	86.1738	87.8906	86.1465	87.8906	86.2257	87.8906	86.2073	87.8906	86.2611	87.8906	86.2557	87.8906	86.2754	87.8906	86.286	87.8906	86.2662	87.8906	86.294	87.8906	86.2339	87.8906	86.2782	87.8906	86.1824	87.8906	86.2399	87.8906	86.1184	87.8906	86.1836	87.8906	86.0506	87.8906	86.1163	87.8906	85.9887	87.8906	86.047	87.8906	85.9416	87.8906	85.9852	87.8906	85.9158	87.8906	85.9391	87.8906	85.9149
90.8203	85.6089	90.8203	85.6125	90.8203	85.6327	90.8203	85.6421	90.8203	85.683	90.8203	85.6942	90.8203	85.7566	90.8203	85.7634	90.8203	85.8485	90.8203	85.8428	90.8203	85.952	90.8203	85.9245	90.8203	86.0594	90.8203	86.0007	90.8203	86.1624	90.8203	86.064	90.8203	86.2527	90.8203	86.1087	90.8203	86.3231	90.8203	86.1314	90.8203	86.368	90.8203	86.1316	90.8203	86.3841	90.8203	86.1122	90.8203	86.371	90.8203	86.0795	90.8203	86.3315	90.8203	86.042	90.8203	86.2717	90.8203	86.0093	90.8203	86.2003	90.8203	85.9903	90.8203	86.1276	90.8203	85.9918	90.8203	86.0636	90.8203	86.0166
95.2148	86.297	95.2148	86.324	95.2148	86.2827	95.2148	86.3619	95.2148	86.2812	95.2148	86.4071	95.2148	86.2907	95.2148	86.4546	95.2148	86.308	95.2148	86.4981	95.2148	86.3284	95.2148	86.5305	95.2148	86.3456	95.2148	86.5441	95.2148	86.353	95.2148	86.532	95.2148	86.3435	95.2148	86.4884	95.2148	86.3108	95.2148	86.4101	95.2148	86.2504	95.2148	86.2968	95.2148	86.1601	95.2148	86.1529	95.2148	86.0419	95.2148	85.9872	95.2148	85.9022	95.2148	85.8135	95.2148	85.7525	95.2148	85.6492	95.2148	85.6087	95.2148	85.513	95.2148	85.489	95.2148	85.4216	95.2148	85.4105	95.2148	85.3863
98.1445	85.9727	98.1445	85.9899	98.1445	85.9768	98.1445	86.0269	98.1445	86.0015	98.1445	86.08	98.1445	86.044	98.1445	86.1438	98.1445	86.0998	98.1445	86.2109	98.1445	86.1626	98.1445	86.273	98.1445	86.2247	98.1445	86.3214	98.1445	86.2779	98.1445	86.3478	98.1445	86.314	98.1445	86.3454	98.1445	86.3256	98.1445	86.31	98.1445	86.3073	98.1445	86.241	98.1445	86.2566	98.1445	86.1422	98.1445	86.1748	98.1445	86.0219	98.1445	86.0676	98.1445	85.893	98.1445	85.9453	98.1445	85.7714	98.1445	85.8218	98.1445	85.6735	98.1445	85.7133	98.1445	85.6134	98.1445	85.6355	98.1445	85.6002
101.074	85.9572	101.074	85.9659	101.074	85.9669	101.074	85.9917	101.074	85.9946	101.074	86.0315	101.074	86.0378	101.074	86.0805	101.074	86.0927	101.074	86.1324	101.074	86.1534	101.074	86.1794	101.074	86.2129	101.074	86.2132	101.074	86.263	101.074	86.226	101.074	86.2953	101.074	86.2109	101.074	86.3022	101.074	86.1637	101.074	86.2775	101.074	86.0837	101.074	86.2182	101.074	85.9748	101.074	86.125	101.074	85.8459	101.074	86.0031	101.074	85.7107	101.074	85.8628	101.074	85.5862	101.074	85.7189	101.074	85.49	101.074	85.5889	101.074	85.4374	101.074	85.4903	101.074	85.4372
105.469	85.8762	105.469	85.9037	105.469	85.8679	105.469	85.9483	105.469	85.8795	105.469	86.0063	105.469	85.9096	105.469	86.0721	105.469	85.9551	105.469	86.1389	105.469	86.0109	105.469	86.1988	105.469	86.0703	105.469	86.2431	105.469	86.1251	105.469	86.2637	105.469	86.1664	105.469	86.2538	105.469	86.1859	105.469	86.209	105.469	86.1764	105.469	86.1288	105.469	86.1337	105.469	86.0174	105.469	86.0573	105.469	85.8839	105.469	85.9516	105.469	85.7426	105.469	85.8259	105.469	85.611	105.469	85.6946	105.469	85.5075	105.469	85.575	105.469	85.4474	105.469	85.4851	105.469	85.4398
108.398	86.0126	108.398	86.0393	108.398	86.0019	108.398	86.0799	108.398	86.0075	108.398	86.1311	108.398	86.0286	108.398	86.1879	108.398	86.0625	108.398	86.2438	108.398	86.1047	108.398	86.291	108.398	86.1489	108.398	86.3212	108.398	86.1875	108.398	86.3261	108.398	86.2118	108.398	86.2989	108.398	86.2134	108.398	86.235	108.398	86.1853	108.398	86.1341	108.398	86.1229	108.398	86.0002	108.398	86.0258	108.398	85.8432	108.398	85.8987	108.398	85.6783	108.398	85.7518	108.398	85.5246	108.398	85.6009	108.398	85.4025	108.398	85.4652	108.398	85.3297	108.398	85.365	108.398	85.3168
112.793	86.2136	112.793	86.2418	112.793	86.199	112.793	86.283	112.793	86.1979	112.793	86.3352	112.793	86.2091	112.793	86.3945	112.793	86.2303	112.793	86.4554	112.793	86.258	112.793	86.5107	112.793	86.287	112.793	86.5515	112.793	86.3108	112.793	86.569	112.793	86.3218	112.793	86.5548	112.793	86.3122	112.793	86.503	112.793	86.2755	112.793	86.4109	112.793	86.2075	112.793	86.281	112.793	86.1082	112.793	86.1213	112.793	85.9826	112.793	85.9461	112.793	85.8418	112.793	85.7744	112.793	85.7021	112.793	85.628	112.793	85.5835	112.793	85.5269	112.793	85.5059	112.793	85.4848
117.188	86.2354	117.188	86.2083	117.188	86.2726	117.188	86.1923	117.188	86.3189	117.188	86.1873	117.188	86.3727	117.188	86.192	117.188	86.4317	117.188	86.2032	117.188	86.4927	117.188	86.2159	117.188	86.5508	117.188	86.2229	117.188	86.5997	117.188	86.216	117.188	86.6314	117.188	86.1877	117.188	86.6377	117.188	86.1319	117.188	86.6108	117.188	86.0465	117.188	86.5448	117.188	85.9344	117.188	86.4378	117.188	85.8047	117.188	86.2928	117.188	85.6726	117.188	86.1189	117.188	85.5574	117.188	85.9316	117.188	85.4799	117.188	85.7512	117.188	85.457	117.188	85.6	117.188	85.4977
120.117	86.5865	120.117	86.5526	120.117	86.6248	120.117	86.5232	120.117	86.667	120.117	86.498	120.117	86.7119	120.117	86.4754	120.117	86.7578	120.117	86.4531	120.117	86.8016	120.117	86.4271	120.117	86.8391	120.117	86.3923	120.117	86.8649	120.117	86.343	120.117	86.8722	120.117	86.2741	120.117	86.8542	120.117	86.1826	120.117	86.8043	120.117	86.0686	120.117	86.7179	120.117	85.9371	120.117	86.5935	120.117	85.7984	120.117	86.4339	120.117	85.6678	120.117	86.2475	120.117	85.5635	120.117	86.048	120.117	85.5038	120.117	85.8541	120.117	85.5023	120.117	85.6865	120.117	85.5648
124.512	86.4756	124.512	86.4967	124.512	86.4635	124.512	86.5235	124.512	86.4625	124.512	86.5519	124.512	86.4736	124.512	86.5768	124.512	86.4955	124.512	86.592	124.512	86.5247	124.512	86.5904	124.512	86.5551	124.512	86.5646	124.512	86.5781	124.512	86.5072	124.512	86.5837	124.512	86.4126	124.512	86.5616	124.512	86.2779	124.512	86.5027	124.512	86.105	124.512	86.4012	124.512	85.9017	124.512	86.2552	124.512	85.6824	124.512	86.0693	124.512	85.4679	124.512	85.8544	124.512	85.2837	124.512	85.6286	124.512	85.1549	124.512	85.4156	124.512	85.1012	124.512	85.2419	124.512	85.1316
128.906	86.2697	128.906	86.3181	128.906	86.2253	128.906	86.3691	128.906	86.1856	128.906	86.4208	128.906	86.1508	128.906	86.4696	128.906	86.1205	128.906	86.5102	128.906	86.0927	128.906	86.5351	128.906	86.0636	128.906	86.5351	128.906	86.0272	128.906	86.5003	128.906	85.9755	128.906	86.421	128.906	85.8997	128.906	86.2903	128.906	85.7921	128.906	86.1053	128.906	85.6477	128.906	85.8694	128.906	85.4667	128.906	85.5939	128.906	85.2563	128.906	85.2989	128.906	85.032	128.906	85.0124	128.906	84.817	128.906	84.7668	128.906	84.6403	128.906	84.5927	128.906	84.5309	128.906	84.5118
133.301	86.2333	133.301	86.2598	133.301	86.2149	133.301	86.2942	133.301	86.2042	133.301	86.3348	133.301	86.2	133.301	86.3783	133.301	86.2001	133.301	86.4194	133.301	86.2009	133.301	86.4506	133.301	86.197	133.301	86.4627	133.301	86.1814	133.301	86.4453	133.301	86.1458	133.301	86.389	133.301	86.0813	133.301	86.2859	133.301	85.9807	133.301	86.1325	133.301	85.84	133.301	85.9308	133.301	85.6602	133.301	85.69	133.301	85.4499	133.301	85.4278	133.301	85.2254	133.301	85.1693	133.301	85.011	133.301	84.9445	133.301	84.8357	133.301	84.7833	133.301	84.7278	133.301	84.708
139.16	85.7196	139.16	85.7288	139.16	85.7263	139.16	85.7543	139.16	85.7478	139.16	85.7952	139.16	85.783	139.16	85.8488	139.16	85.8294	139.16	85.9097	139.16	85.8832	139.16	85.9694	139.16	85.9385	139.16	86.0171	139.16	85.9869	139.16	86.041	139.16	86.0184	139.16	86.0302	139.16	86.0228	139.16	85.9768	139.16	85.9909	139.16	85.8775	139.16	85.9167	139.16	85.7355	139.16	85.7994	139.16	85.5612	139.16	85.6447	139.16	85.3722	139.16	85.4654	139.16	85.1918	139.16	85.2812	139.16	85.0455	139.16	85.1162	139.16	84.9563	139.16	84.9953	139.16	84.9386
143.555	85.6654	143.555	85.657	143.555	85.6817	143.555	85.6578	143.555	85.7054	143.555	85.6693	143.555	85.7368	143.555	85.6921	143.555	85.7766	143.555	85.7241	143.555	85.8235	143.555	85.7603	143.555	85.8744	143.555	85.7921	143.555	85.9226	143.555	85.809	143.555	85.9589	143.555	85.8003	143.555	85.9726	143.555	85.7574	143.555	85.9537	143.555	85.6764	143.555	85.895	143.555	85.5595	143.555	85.794	143.555	85.4161	143.555	85.655	143.555	85.2622	143.555	85.4893	143.555	85.1189	143.555	85.3145	143.555	85.0086	143.555	85.153	143.555	84.9506	143.555	85.0274	143.555	84.9566
147.949	85.6792	147.949	85.6669	147.949	85.6901	147.949	85.6542	147.949	85.7003	147.949	85.6432	147.949	85.7117	147.949	85.6358	147.949	85.7268	147.949	85.6322	147.949	85.7474	147.949	85.6299	147.949	85.7725	147.949	85.6231	147.949	85.7976	147.949	85.6038	147.949	85.815	147.949	85.5631	147.949	85.8142	147.949	85.494	147.949	85.7847	147.949	85.3932	147.949	85.7179	147.949	85.2635	147.949	85.6102	147.949	85.1146	147.949	85.4642	147.949	84.9621	147.949	85.2903	147.949	84.8264	147.949	85.1057	147.949	84.7284	147.949	84.9323	147.949	84.6854	147.949	84.7931	147.949	84.7072
153.809	85.924	153.809	85.9296	153.809	85.9095	153.809	85.9263	153.809	85.8867	153.809	85.915	153.809	85.8574	153.809	85.8956	153.809	85.8241	153.809	85.8667	153.809	85.7886	153.809	85.8241	153.809	85.7509	153.809	85.7618	153.809	85.7085	153.809	85.6721	153.809	85.6556	153.809	85.5478	153.809	85.5843	153.809	85.3848	153.809	85.4861	153.809	85.1838	153.809	85.3542	153.809	84.9529	153.809	85.1861	153.809	84.7081	153.809	84.9857	153.809	84.4718	153.809	84.7639	153.809	84.2699	153.809	84.5389	153.809	84.1267	153.809	84.3336	153.809	84.0597	153.809	84.1723	153.809	84.0763
159.668	85.9706	159.668	85.9665	159.668	85.9664	159.668	85.9556	159.668	85.9537	159.668	85.9399	159.668	85.9329	159.668	85.9204	159.668	85.9052	159.668	85.8956	159.668	85.8703	159.668	85.8607	159.668	85.8258	159.668	85.8074	159.668	85.7666	159.668	85.7247	159.668	85.6845	159.668	85.6015	159.668	85.5705	159.668	85.4292	159.668	85.4162	159.668	85.2046	159.668	85.217	159.668	84.9328	159.668	84.974	159.668	84.6287	159.668	84.6965	159.668	84.3169	159.668	84.4025	159.668	84.0294	159.668	84.1179	159.668	83.8007	159.668	83.874	159.668	83.6601	159.668	83.7017	159.668	83.6262
165.527	85.7299	165.527	85.7389	165.527	85.7168	165.527	85.7457	165.527	85.6998	165.527	85.7523	165.527	85.6807	165.527	85.7597	165.527	85.6623	165.527	85.7657	165.527	85.6464	165.527	85.7642	165.527	85.6321	165.527	85.7447	165.527	85.6138	165.527	85.6946	165.527	85.5822	165.527	85.6015	165.527	85.525	165.527	85.4563	165.527	85.4302	165.527	85.2564	165.527	85.2894	165.527	85.008	165.527	85.1003	165.527	84.7273	165.527	84.8692	165.527	84.4403	165.527	84.6112	165.527	84.1793	165.527	84.3504	165.527	83.9781	165.527	84.1167	165.527	83.864	165.527	83.9417	165.527	83.8521
171.387	85.2593	171.387	85.2772	171.387	85.2358	171.387	85.2943	171.387	85.2049	171.387	85.3176	171.387	85.1681	171.387	85.3531	171.387	85.1297	171.387	85.4024	171.387	85.0946	171.387	85.4609	171.387	85.0661	171.387	85.5166	171.387	85.0447	171.387	85.5529	171.387	85.0262	171.387	85.5519	171.387	85.0027	171.387	85.4992	171.387	84.9641	171.387	85.3872	171.387	84.9013	171.387	85.2182	171.387	84.8091	171.387	85.005	171.387	84.6885	171.387	84.7702	171.387	84.5482	171.387	84.5427	171.387	84.4044	171.387	84.3527	171.387	84.2785	171.387	84.2246	171.387	84.194	171.387	84.1718
177.246	84.7876	177.246	84.7323	177.246	84.8224	177.246	84.6595	177.246	84.8414	177.246	84.5794	177.246	84.854	177.246	84.5086	177.246	84.8716	177.246	84.465	177.246	84.9031	177.246	84.4621	177.246	84.9518	177.246	84.5026	177.246	85.0135	177.246	84.5762	177.246	85.0767	177.246	84.6622	177.246	85.1256	177.246	84.7359	177.246	85.1442	177.246	84.7762	177.246	85.1204	177.246	84.7707	177.246	85.0493	177.246	84.7189	177.246	84.9351	177.246	84.6315	177.246	84.7916	177.246	84.5283	177.246	84.6397	177.246	84.434	177.246	84.5037	177.246	84.3722	177.246	84.4056	177.246	84.3603
183.105	84.8836	183.105	84.8643	183.105	84.8616	183.105	84.8051	183.105	84.802	183.105	84.7124	183.105	84.7149	183.105	84.5963	183.105	84.616	183.105	84.4707	183.105	84.5255	183.105	84.3516	183.105	84.4638	183.105	84.2554	183.105	84.4458	183.105	84.1952	183.105	84.4752	183.105	84.1773	183.105	84.5424	183.105	84.1984	183.105	84.627	183.105	84.2469	183.105	84.7046	183.105	84.3063	183.105	84.7545	183.105	84.3613	183.105	84.7654	183.105	84.4024	183.105	84.7375	183.105	84.4283	183.105	84.6808	183.105	84.4455	183.105	84.6117	183.105	84.4648	183.105	84.5465	183.105	84.4966
188.965	85.3459	188.965	85.337	188.965	85.3122	188.965	85.2896	188.965	85.2347	188.965	85.2095	188.965	85.1158	188.965	85.1027	188.965	84.9625	188.965	84.9748	188.965	84.7855	188.965	84.8302	188.965	84.5986	188.965	84.6718	188.965	84.416	188.965	84.5027	188.965	84.2497	188.965	84.3269	188.965	84.1066	188.965	84.1504	188.965	83.9877	188.965	83.9816	188.965	83.8887	188.965	83.8298	188.965	83.8035	188.965	83.7033	188.965	83.7266	188.965	83.6066	188.965	83.6561	188.965	83.54	188.965	83.5934	188.965	83.5003	188.965	83.5421	188.965	83.4831	188.965	83.5054	188.965	83.4854
196.289	85.6177	196.289	85.5898	196.289	85.5995	196.289	85.5209	196.289	85.534	196.289	85.4191	196.289	85.4241	196.289	85.2945	196.289	85.2765	196.289	85.1567	196.289	85.1012	196.289	85.013	196.289	84.9091	196.289	84.8666	196.289	84.7112	196.289	84.716	196.289	84.5157	196.289	84.5571	196.289	84.3276	196.289	84.3863	196.289	84.1493	196.289	84.2039	196.289	83.9816	196.289	84.0161	196.289	83.8262	196.289	83.8347	196.289	83.6866	196.289	83.6737	196.289	83.5678	196.289	83.5441	196.289	83.4748	196.289	83.4513	196.289	83.4106	196.289	83.3945	196.289	83.3759	196.289	83.3703
203.613	85.3903	203.613	85.3302	203.613	85.3955	203.613	85.2209	203.613	85.3445	203.613	85.0717	203.613	85.2398	203.613	84.8949	203.613	85.0875	203.613	84.7039	203.613	84.8967	203.613	84.5109	203.613	84.6783	203.613	84.3243	203.613	84.4436	203.613	84.1473	203.613	84.2032	203.613	83.979	203.613	83.9661	203.613	83.8165	203.613	83.7393	203.613	83.6583	203.613	83.5292	203.613	83.5066	203.613	83.3424	203.613	83.3666	203.613	83.1861	203.613	83.2446	203.613	83.067	203.613	83.1444	203.613	82.9889	203.613	83.0662	203.613	82.9504	203.613	83.0076	203.613	82.9456	203.613	82.9668
210.938	85.4234	210.938	85.3629	210.938	85.4268	210.938	85.2476	210.938	85.3746	210.938	85.083	210.938	85.2719	210.938	84.8775	210.938	85.1267	210.938	84.6414	210.938	84.9485	210.938	84.3851	210.938	84.7465	210.938	84.1181	210.938	84.5277	210.938	83.8483	210.938	84.2958	210.938	83.5826	210.938	84.0524	210.938	83.328	210.938	83.7987	210.938	83.0937	210.938	83.5395	210.938	82.8907	210.938	83.2851	210.938	82.7293	210.938	83.0511	210.938	82.6153	210.938	82.8537	210.938	82.5465	210.938	82.7043	210.938	82.5139	210.938	82.6044	210.938	82.5061	210.938	82.5459	210.938	82.5163
218.262	85.3141	218.262	85.2692	218.262	85.3026	218.262	85.1707	218.262	85.2359	218.262	85.0246	218.262	85.119	218.262	84.8394	218.262	84.9607	218.262	84.6246	218.262	84.7722	218.262	84.3891	218.262	84.5654	218.262	84.1397	218.262	84.3503	218.262	83.8805	218.262	84.1324	218.262	83.6142	218.262	83.9124	218.262	83.3451	218.262	83.6874	218.262	83.082	218.262	83.4557	218.262	82.8397	218.262	83.2205	218.262	82.6358	218.262	82.9925	218.262	82.4846	218.262	82.7873	218.262	82.3903	218.262	82.6194	218.262	82.3466	218.262	82.4956	218.262	82.3411	218.262	82.4132	218.262	82.3638
225.586	85.2034	225.586	85.1775	225.586	85.161	225.586	85.0871	225.586	85.0514	225.586	84.9403	225.586	84.8811	225.586	84.7483	225.586	84.6619	225.586	84.5238	225.586	84.4104	225.586	84.2791	225.586	84.1462	225.586	84.0239	225.586	83.8889	225.586	83.765	225.586	83.6545	225.586	83.507	225.586	83.452	225.586	83.2552	225.586	83.2828	225.586	83.019	225.586	83.1424	225.586	82.8128	225.586	83.0248	225.586	82.6535	225.586	82.9258	225.586	82.5537	225.586	82.843	225.586	82.5142	225.586	82.7747	225.586	82.5234	225.586	82.717	225.586	82.5621	225.586	82.6645	225.586	82.6125
232.91	85.4862	232.91	85.426	232.91	85.4687	232.91	85.2935	232.91	85.3716	232.91	85.0969	232.91	85.1962	232.91	84.8473	232.91	84.9471	232.91	84.5575	232.91	84.6327	232.91	84.2411	232.91	84.265	232.91	83.9109	232.91	83.86	232.91	83.5775	232.91	83.4377	232.91	83.25	232.91	83.0216	232.91	82.9375	232.91	82.6377	232.91	82.6512	232.91	82.3124	232.91	82.4059	232.91	82.0679	232.91	82.2165	232.91	81.9158	232.91	82.0917	232.91	81.8522	232.91	82.0272	232.91	81.8568	232.91	82.0046	232.91	81.899	232.91	81.9976	232.91	81.9479	232.91	81.9825
241.699	85.5119	241.699	85.4256	241.699	85.5303	241.699	85.2758	241.699	85.4788	241.699	85.0696	241.699	85.3582	241.699	84.8164	241.699	85.1714	241.699	84.5268	241.699	84.9233	241.699	84.2118	241.699	84.6194	241.699	83.8813	241.699	84.2658	241.699	83.5437	241.699	83.8694	241.699	83.2071	241.699	83.4393	241.699	82.881	241.699	82.9905	241.699	82.579	241.699	82.548	241.699	82.3188	241.699	82.1483	241.699	82.1164	241.699	81.833	241.699	81.9782	241.699	81.634	241.699	81.8945	241.699	81.5566	241.699	81.8413	241.699	81.575	241.699	81.7911	241.699	81.6452	241.699	81.7253
250.488	85.4652	250.488	85.3937	250.488	85.4643	250.488	85.2528	250.488	85.3905	250.488	85.0468	250.488	85.2454	250.488	84.7817	250.488	85.033	250.488	84.4649	250.488	84.7598	250.488	84.1053	250.488	84.4344	250.488	83.7132	250.488	84.0669	250.488	83.3019	250.488	83.6678	250.488	82.8874	250.488	83.2478	250.488	82.4898	250.488	82.8191	250.488	82.1321	250.488	82.3984	250.488	81.8377	250.488	82.0095	250.488	81.6233	250.488	81.6833	250.488	81.4915	250.488	81.4487	250.488	81.4261	250.488	81.3188	250.488	81.3977	250.488	81.2811	250.488	81.3755	250.488	81.3019	250.488	81.3422
259.277	85.509	259.277	85.444	259.277	85.5111	259.277	85.3168	259.277	85.4507	259.277	85.1293	259.277	85.3287	259.277	84.8841	259.277	85.1464	259.277	84.5843	259.277	84.905	259.277	84.2331	259.277	84.6059	259.277	83.835	259.277	84.2511	259.277	83.3975	259.277	83.8454	259.277	82.9359	259.277	83.3988	259.277	82.476	259.277	82.9303	259.277	82.0553	259.277	82.4704	259.277	81.7157	259.277	82.0593	259.277	81.4892	259.277	81.738	259.277	81.3815	259.277	81.5322	259.277	81.3675	259.277	81.4386	259.277	81.4026	259.277	81.4248	259.277	81.4422	259.277	81.4447	259.277	81.4576
268.066	85.0541	268.066	84.9792	268.066	85.0618	268.066	84.8417	268.066	85.0008	268.066	84.6491	268.066	84.8722	268.066	84.4112	268.066	84.679	268.066	84.1378	268.066	84.425	268.066	83.8364	268.066	84.1143	268.066	83.5107	268.066	83.7512	268.066	83.1614	268.066	83.3407	268.066	82.7913	268.066	82.8922	268.066	82.4123	268.066	82.4231	268.066	82.0506	268.066	81.9645	268.066	81.7445	268.066	81.5623	268.066	81.5306	268.066	81.268	268.066	81.423	268.066	81.1173	268.066	81.4017	268.066	81.1066	268.066	81.4208	268.066	81.1904	268.066	81.4293	268.066	81.304	268.066	81.3925
276.855	85.1099	276.855	85.0735	276.855	85.0797	276.855	84.9622	276.855	84.9938	276.855	84.7712	276.855	84.8623	276.855	84.4996	276.855	84.6915	276.855	84.151	276.855	84.4821	276.855	83.7324	276.855	84.2289	276.855	83.2553	276.855	83.9231	276.855	82.736	276.855	83.5569	276.855	82.1974	276.855	83.1288	276.855	81.6718	276.855	82.6489	276.855	81.2009	276.855	82.1436	276.855	80.8299	276.855	81.656	276.855	80.5922	276.855	81.238	276.855	80.4907	276.855	80.9319	276.855	80.4925	276.855	80.7506	276.855	80.5451	276.855	80.671	276.855	80.6007	276.855	80.6474	276.855	80.6338
287.109	85.0441	287.109	85.0146	287.109	84.9825	287.109	84.8989	287.109	84.8324	287.109	84.7051	287.109	84.6052	287.109	84.4418	287.109	84.3214	287.109	84.116	287.109	84.006	287.109	83.7327	287.109	83.6791	287.109	83.2966	287.109	83.3487	287.109	82.8159	287.109	83.0069	287.109	82.3071	287.109	82.6371	287.109	81.8005	287.109	82.2272	287.109	81.3415	287.109	81.7842	287.109	80.9828	287.109	81.3443	287.109	80.7647	287.109	80.9702	287.109	80.692	287.109	80.7259	287.109	80.7259	287.109	80.6386	287.109	80.8004	287.109	80.6766	287.109	80.8512	287.109	80.7678	287.109	80.8401
297.363	84.9644	297.363	84.8565	297.363	84.9736	297.363	84.6663	297.363	84.8694	297.363	84.4091	297.363	84.6417	297.363	84.0982	297.363	84.2894	297.363	83.7434	297.363	83.8239	297.363	83.3496	297.363	83.2706	297.363	82.9172	297.363	82.6659	297.363	82.4457	297.363	82.051	297.363	81.9416	297.363	81.4644	297.363	81.4288	297.363	80.9399	297.363	80.9548	297.363	80.5102	297.363	80.5839	297.363	80.2108	297.363	80.3696	297.363	80.0699	297.363	80.3216	297.363	80.0873	297.363	80.3954	297.363	80.2211	297.363	80.5157	297.363	80.4	297.363	80.6094	297.363	80.5519	297.363	80.6273
307.617	85.0641	307.617	84.9637	307.617	85.1157	307.617	84.8139	307.617	85.1144	307.617	84.6115	307.617	85.0507	307.617	84.3518	307.617	84.9101	307.617	84.0293	307.617	84.6765	307.617	83.6377	307.617	84.3357	307.617	83.1727	307.617	83.8785	307.617	82.6359	307.617	83.3018	307.617	82.0432	307.617	82.6112	307.617	81.4354	307.617	81.8271	307.617	80.8835	307.617	80.9984	307.617	80.4733	307.617	80.2198	307.617	80.2622	307.617	79.6294	307.617	80.2353	307.617	79.3516	307.617	80.3103	307.617	79.4022	307.617	80.3844	307.617	79.6671	307.617	80.3761	307.617	79.9874	307.617	80.2428
319.336	84.8696	319.336	84.7832	319.336	84.8735	319.336	84.6158	319.336	84.7974	319.336	84.3725	319.336	84.6474	319.336	84.059	319.336	84.4299	319.336	83.6789	319.336	84.1484	319.336	83.2308	319.336	83.8024	319.336	82.7085	319.336	83.3877	319.336	82.1057	319.336	82.9009	319.336	81.4273	319.336	82.3441	319.336	80.7083	319.336	81.7319	319.336	80.0356	319.336	81.0998	319.336	79.5459	319.336	80.5129	319.336	79.3613	319.336	80.0616	319.336	79.4852	319.336	79.8271	319.336	79.7857	319.336	79.8259	319.336	80.0918	319.336	79.9861	319.336	80.2821	319.336	80.185	319.336	80.3077
329.59	85.0528	329.59	85.0149	329.59	85.0183	329.59	84.9041	329.59	84.9148	329.59	84.7226	329.59	84.7475	329.59	84.4732	329.59	84.5213	329.59	84.1558	329.59	84.2373	329.59	83.7645	329.59	83.8905	329.59	83.2866	329.59	83.4696	329.59	82.7071	329.59	82.9603	329.59	82.0191	329.59	82.353	329.59	81.2412	329.59	81.6556	329.59	80.4404	329.59	80.9101	329.59	79.7434	329.59	80.2064	329.59	79.3021	329.59	79.6715	329.59	79.1929	329.59	79.4082	329.59	79.3444	329.59	79.4158	329.59	79.593	329.59	79.5832	329.59	79.7893	329.59	79.7651	329.59	79.8509
341.309	84.4891	341.309	84.4188	341.309	84.476	341.309	84.271	341.309	84.3828	341.309	84.0579	341.309	84.2221	341.309	83.7929	341.309	84.0132	341.309	83.4854	341.309	83.7738	341.309	83.1357	341.309	83.5108	341.309	82.7338	341.309	83.2127	341.309	82.2627	341.309	82.8519	341.309	81.71	341.309	82.3964	341.309	81.0861	341.309	81.8301	341.309	80.4471	341.309	81.1757	341.309	79.9044	341.309	80.5149	341.309	79.5891	341.309	79.9841	341.309	79.5591	341.309	79.7112	341.309	79.7419	341.309	79.7179	341.309	79.9886	341.309	79.898	341.309	80.1674	341.309	80.0995	341.309	80.2071
353.027	84.5618	353.027	84.4672	353.027	84.5501	353.027	84.277	353.027	84.4263	353.027	84.0052	353.027	84.1895	353.027	83.6665	353.027	83.8443	353.027	83.2711	353.027	83.4014	353.027	82.8192	353.027	82.8771	353.027	82.2999	353.027	82.2911	353.027	81.6982	353.027	81.6601	353.027	81.011	353.027	80.9927	353.027	80.2722	353.027	80.2934	353.027	79.5762	353.027	79.5862	353.027	79.0746	353.027	78.9516	353.027	78.9016	353.027	78.5381	353.027	79.0596	353.027	78.4839	353.027	79.4039	353.027	78.777	353.027	79.746	353.027	79.241	353.027	79.9435	353.027	79.6686	353.027	79.9215
366.211	84.6506	366.211	84.4962	366.211	84.6983	366.211	84.2466	366.211	84.6355	366.211	83.9212	366.211	84.4646	366.211	83.5445	366.211	84.1926	366.211	83.1368	366.211	83.8273	366.211	82.7013	366.211	83.3715	366.211	82.213	366.211	82.8172	366.211	81.6246	366.211	82.1425	366.211	80.8912	366.211	81.3176	366.211	80.0156	366.211	80.3253	366.211	79.1068	366.211	79.2042	366.211	78.4095	366.211	78.1204	366.211	78.1793	366.211	77.4024	366.211	78.4219	366.211	77.3393	366.211	78.8818	366.211	77.8374	366.211	79.2924	366.211	78.5254	366.211	79.5007	366.211	79.1058	366.211	79.4431
379.395	85.1378	379.395	85.0568	379.395	85.1534	379.395	84.9038	379.395	85.1077	379.395	84.6697	379.395	85.0011	379.395	84.346	379.395	84.8292	379.395	83.9279	379.395	84.5828	379.395	83.4162	379.395	84.2492	379.395	82.8162	379.395	83.8132	379.395	82.1302	379.395	83.2593	379.395	81.3515	379.395	82.5723	379.395	80.4734	379.395	81.7424	379.395	79.5237	379.395	80.7787	379.395	78.6215	379.395	79.7358	379.395	77.9934	379.395	78.7515	379.395	77.8292	379.395	78.0467	379.395	78.0582	379.395	77.801	379.395	78.4001	379.395	77.9693	379.395	78.6066	379.395	78.308	379.395	78.5683
392.578	84.5569	392.578	84.5091	392.578	84.5214	392.578	84.3894	392.578	84.4027	392.578	84.214	392.578	84.2151	392.578	83.993	392.578	83.9828	392.578	83.72	392.578	83.7277	392.578	83.3683	392.578	83.4535	392.578	82.8949	392.578	83.1343	392.578	82.252	392.578	82.7176	392.578	81.4025	392.578	82.1429	392.578	80.3468	392.578	81.3671	392.578	79.1764	392.578	80.4006	392.578	78.1476	392.578	79.3616	392.578	77.6353	392.578	78.5197	392.578	77.7915	392.578	78.1825	392.578	78.3447	392.578	78.3856	392.578	78.9226	392.578	78.8416	392.578	79.3069	392.578	79.2413	392.578	79.4157
405.762	84.1577	405.762	84.0367	405.762	84.1557	405.762	83.8088	405.762	84.0284	405.762	83.5024	405.762	83.7869	405.762	83.1525	405.762	83.4564	405.762	82.7869	405.762	83.0753	405.762	82.4099	405.762	82.6845	405.762	81.9939	405.762	82.3072	405.762	81.4907	405.762	81.9244	405.762	80.8571	405.762	81.4725	405.762	80.0879	405.762	80.8708	405.762	79.2536	405.762	80.0742	405.762	78.5346	405.762	79.1463	405.762	78.1806	405.762	78.3339	405.762	78.3174	405.762	78.0018	405.762	78.7932	405.762	78.2756	405.762	79.3164	405.762	78.8683	405.762	79.657	405.762	79.4122	405.762	79.6976
420.41	84.7244	420.41	84.5786	420.41	84.7541	420.41	84.323	420.41	84.6701	420.41	83.9753	420.41	84.4794	420.41	83.5644	420.41	84.1897	420.41	83.1205	420.41	83.8035	420.41	82.6547	420.41	83.3127	420.41	82.1366	420.41	82.6965	420.41	81.4906	420.41	81.9248	420.41	80.6206	420.41	80.9642	420.41	79.4596	420.41	79.7886	420.41	78.0632	420.41	78.4063	420.41	76.7825	420.41	76.9468	420.41	76.2844	420.41	75.8276	420.41	76.8131	420.41	75.6607	420.41	77.7826	420.41	76.4683	420.41	78.6058	420.41	77.5911	420.41	79.0359	420.41	78.5047	420.41	79.0039
435.059	84.4399	435.059	84.3348	435.059	84.4435	435.059	84.1365	435.059	84.3484	435.059	83.8606	435.059	84.1723	435.059	83.5282	435.059	83.9477	435.059	83.1619	435.059	83.7133	435.059	82.7787	435.059	83.4925	435.059	82.3755	435.059	83.2683	435.059	81.9138	435.059	82.9764	435.059	81.3211	435.059	82.5231	435.059	80.5166	435.059	81.8154	435.059	79.4669	435.059	80.7917	435.059	78.2828	435.059	79.4685	435.059	77.3282	435.059	78.0441	435.059	77.0644	435.059	77.0123	435.059	77.4853	435.059	76.8682	435.059	78.1037	435.059	77.4336	435.059	78.5055	435.059	78.1122	435.059	78.5142
451.172	84.8107	451.172	84.6995	451.172	84.7949	451.172	84.47	451.172	84.6499	451.172	84.1365	451.172	84.379	451.172	83.7146	451.172	83.992	451.172	83.2147	451.172	83.5083	451.172	82.634	451.172	82.9582	451.172	81.9524	451.172	82.3742	451.172	81.1343	451.172	81.7703	451.172	80.1421	451.172	81.1207	451.172	78.9744	451.172	80.3653	451.172	77.7532	451.172	79.4542	451.172	76.837	451.172	78.4339	451.172	76.6914	451.172	77.5606	451.172	77.332	451.172	77.2684	451.172	78.2725	451.172	77.717	451.172	79.0793	451.172	78.5272	451.172	79.5469	451.172	79.2363	451.172	79.6015
465.82	85.0795	465.82	84.9532	465.82	85.0742	465.82	84.7078	465.82	84.9396	465.82	84.3711	465.82	84.691	465.82	83.9813	465.82	84.3545	465.82	83.5713	465.82	83.9611	465.82	83.1453	465.82	83.5356	465.82	82.6621	465.82	83.0785	465.82	82.0374	465.82	82.5497	465.82	81.1607	465.82	81.869	465.82	79.9154	465.82	80.9344	465.82	78.22	465.82	79.6589	465.82	76.1963	465.82	78.0459	465.82	74.6542	465.82	76.3799	465.82	74.8453	465.82	75.4394	465.82	76.223	465.82	75.7999	465.82	77.4916	465.82	76.8506	465.82	78.1901	465.82	77.7894	465.82	78.2733
483.398	84.3384	483.398	84.2102	483.398	84.3521	483.398	83.985	483.398	84.2499	483.398	83.6938	483.398	84.0455	483.398	83.3725	483.398	83.7617	483.398	83.0471	483.398	83.4235	483.398	82.7161	483.398	83.0474	483.398	82.3365	483.398	82.6318	483.398	81.8263	483.398	82.1492	483.398	81.0873	483.398	81.5436	483.398	80.0496	483.398	80.7393	483.398	78.7523	483.398	79.6732	483.398	77.4865	483.398	78.3813	483.398	76.8417	483.398	77.1756	483.398	77.153	483.398	76.6993	483.398	78.0028	483.398	77.2288	483.398	78.8235	483.398	78.1966	483.398	79.3228	483.398	79.0004	483.398	79.3921
499.512	84.9309	499.512	84.8233	499.512	84.8811	499.512	84.569	499.512	84.683	499.512	84.2029	499.512	84.3632	499.512	83.7849	499.512	83.9664	499.512	83.3801	499.512	83.5485	499.512	83.0136	499.512	83.1529	499.512	82.6313	499.512	82.7753	499.512	82.1046	499.512	82.3446	499.512	81.2744	499.512	81.739	499.512	79.9957	499.512	80.8231	499.512	78.2022	499.512	79.4898	499.512	76.1473	499.512	77.7507	499.512	74.9573	499.512	76.0216	499.512	75.6894	499.512	75.4	499.512	77.2544	499.512	76.3216	499.512	78.5173	499.512	77.708	499.512	79.1915	499.512	78.7601	499.512	79.266
517.09	85.0203	517.09	84.8804	517.09	85.0076	517.09	84.5948	517.09	84.8545	517.09	84.1905	517.09	84.5934	517.09	83.7168	517.09	84.2763	517.09	83.2382	517.09	83.9628	517.09	82.8026	517.09	83.687	517.09	82.391	517.09	83.4199	517.09	81.8921	517.09	83.0609	517.09	81.1305	517.09	82.4669	517.09	79.9202	517.09	81.4859	517.09	78.1372	517.09	79.9742	517.09	75.9852	517.09	77.8353	517.09	74.7431	517.09	75.3079	517.09	75.7217	517.09	73.9374	517.09	77.5299	517.09	75.1942	517.09	78.8938	517.09	77.2345	517.09	79.5534	517.09	78.7363	517.09	79.503
536.133	85.0747	536.133	84.8917	536.133	85.0478	536.133	84.5256	536.133	84.803	536.133	84.0275	536.133	84.3529	536.133	83.4797	536.133	83.7407	536.133	82.9869	536.133	83.0617	536.133	82.6247	536.133	82.4683	536.133	82.3625	536.133	82.0989	536.133	82.0405	536.133	81.9337	536.133	81.4271	536.133	81.7567	536.133	80.2801	536.133	81.2812	536.133	78.3763	536.133	80.2638	536.133	75.6665	536.133	78.562	536.133	73.3761	536.133	76.3708	536.133	74.3535	536.133	75.0305	536.133	76.8268	536.133	76.0187	536.133	78.6653	536.133	77.8587	536.133	79.6316	536.133	79.2049	536.133	79.7998
555.176	85.2902	555.176	85.0957	555.176	85.2918	555.176	84.7202	555.176	85.1068	555.176	84.2059	555.176	84.7547	555.176	83.6386	555.176	84.2736	555.176	83.1368	555.176	83.7258	555.176	82.7886	555.176	83.1861	555.176	82.5572	555.176	82.6999	555.176	82.2598	555.176	82.2298	555.176	81.6406	555.176	81.638	555.176	80.4293	555.176	80.7083	555.176	78.3181	555.176	79.1597	555.176	74.9164	555.176	76.6141	555.176	70.7322	555.176	72.6894	555.176	71.7074	555.176	69.8576	555.176	75.3813	555.176	73.1543	555.176	77.7236	555.176	76.4366	555.176	78.8615	555.176	78.2888	555.176	79.0389
574.219	84.9518	574.219	84.7924	574.219	84.8912	574.219	84.4168	574.219	84.6227	574.219	83.8576	574.219	84.1763	574.219	83.2009	574.219	83.6133	574.219	82.5962	574.219	83.0452	574.219	82.1937	574.219	82.6203	574.219	82.0034	574.219	82.4255	574.219	81.8353	574.219	82.3689	574.219	81.3985	574.219	82.2066	574.219	80.3948	574.219	81.671	574.219	78.5015	574.219	80.5267	574.219	75.2951	574.219	78.5322	574.219	70.9048	574.219	75.4023	574.219	71.2515	574.219	71.5526	574.219	75.1845	574.219	71.7402	574.219	77.6725	574.219	75.1574	574.219	78.7662	574.219	77.5624	574.219	78.7177
594.727	84.9414	594.727	84.6614	594.727	84.9497	594.727	84.1224	594.727	84.6782	594.727	83.3668	594.727	84.1324	594.727	82.5225	594.727	83.3703	594.727	81.8583	594.727	82.5678	594.727	81.6737	594.727	82.0343	594.727	81.9635	594.727	82.0069	594.727	82.3544	594.727	82.3512	594.727	82.4273	594.727	82.6603	594.727	81.872	594.727	82.5477	594.727	80.4114	594.727	81.7139	594.727	77.6438	594.727	79.8539	594.727	72.8493	594.727	76.5286	594.727	68.3615	594.727	71.5724	594.727	72.8236	594.727	71.0439	594.727	76.2778	594.727	74.9471	594.727	77.8586	594.727	77.2706	594.727	78.1504
615.234	85.8073	615.234	85.533	615.234	85.7909	615.234	84.9468	615.234	85.4858	615.234	84.0123	615.234	84.8731	615.234	82.7082	615.234	83.9175	615.234	81.1495	615.234	82.607	615.234	79.8725	615.234	81.099	615.234	79.7114	615.234	79.9888	615.234	80.4781	615.234	79.9994	615.234	81.1337	615.234	80.7723	615.234	81.0163	615.234	81.3568	615.234	79.7866	615.234	81.1977	615.234	77.0175	615.234	79.9864	615.234	71.6526	615.234	77.2982	615.234	66.3393	615.234	72.2335	615.234	73.102	615.234	68.4198	615.234	77.0216	615.234	74.1284	615.234	78.7479	615.234	77.5771	615.234	78.9335
637.207	86.1633	637.207	85.9849	637.207	86.1477	637.207	85.5791	637.207	85.9379	637.207	84.8898	637.207	85.4987	637.207	83.8595	637.207	84.7703	637.207	82.4748	637.207	83.6963	637.207	80.8959	637.207	82.2913	637.207	79.6864	637.207	80.7991	637.207	79.5228	637.207	79.8307	637.207	80.068	637.207	79.805	637.207	80.3515	637.207	80.1841	637.207	79.7084	637.207	80.1631	637.207	77.6282	637.207	79.2274	637.207	73.1948	637.207	76.9262	637.207	65.7261	637.207	72.4694	637.207	71.0443	637.207	67.0035	637.207	75.5367	637.207	71.7561	637.207	77.3077	637.207	75.676	637.207	77.3261
659.18	87.1438	659.18	86.9818	659.18	87.1508	659.18	86.6411	659.18	87	659.18	86.0729	659.18	86.6588	659.18	85.2062	659.18	86.0678	659.18	83.9695	659.18	85.1551	659.18	82.3792	659.18	83.8821	659.18	80.7797	659.18	82.3633	659.18	79.9918	659.18	81.0686	659.18	80.2792	659.18	80.6196	659.18	80.7027	659.18	80.8183	659.18	80.3829	659.18	80.7969	659.18	78.7837	659.18	79.8818	659.18	75.1287	659.18	77.5214	659.18	66.4941	659.18	72.634	659.18	66.0483	659.18	63.3244	659.18	73.7345	659.18	70.4762	659.18	76.3673	659.18	75.0834	659.18	76.7128
682.617	86.859	682.617	86.7394	682.617	86.8676	682.617	86.501	682.617	86.7469	682.617	86.1027	682.617	86.4641	682.617	85.4788	682.617	85.9822	682.617	84.5703	682.617	85.2663	682.617	83.4055	682.617	84.3085	682.617	82.2577	682.617	83.1987	682.617	81.6667	682.617	82.2349	682.617	81.7983	682.617	81.8326	682.617	82.0444	682.617	81.9807	682.617	81.7127	682.617	82.095	682.617	80.3228	682.617	81.543	682.617	77.3127	682.617	79.8022	682.617	71.2519	682.617	76.157	682.617	62.6019	682.617	69.019	682.617	71.316	682.617	67.832	682.617	74.7247	682.617	73.4065	682.617	75.2853
707.52	86.8278	707.52	86.7199	707.52	86.7775	707.52	86.4436	707.52	86.5751	707.52	85.972	707.52	86.2218	707.52	85.2512	707.52	85.7004	707.52	84.2141	707.52	84.9609	707.52	82.8424	707.52	83.9287	707.52	81.3247	707.52	82.5857	707.52	80.2632	707.52	81.1976	707.52	80.2214	707.52	80.4886	707.52	80.7146	707.52	80.7741	707.52	80.8162	707.52	81.2111	707.52	79.9129	707.52	80.9188	707.52	77.4867	707.52	79.4058	707.52	72.7413	707.52	76.2264	707.52	68.5177	707.52	71.1257	707.52	73.0578	707.52	70.2695	707.52	75.7746	707.52	74.1675	707.52	76.0509
732.422	86.5123	732.422	86.4349	732.422	86.472	732.422	86.2361	732.422	86.3236	732.422	85.9015	732.422	86.0689	732.422	85.3768	732.422	85.6682	732.422	84.5595	732.422	85.0297	732.422	83.3411	732.422	84.0505	732.422	81.7587	732.422	82.7045	732.422	80.3246	732.422	81.2144	732.422	79.915	732.422	80.2181	732.422	80.2946	732.422	80.1798	732.422	80.3184	732.422	80.5079	732.422	79.2248	732.422	80.3099	732.422	76.4308	732.422	78.9786	732.422	70.7849	732.422	75.8484	732.422	65.2674	732.422	69.5485	732.422	71.6474	732.422	67.1928	732.422	74.6879	732.422	72.9446	732.422	75.08
757.324	85.8975	757.324	85.7851	757.324	85.8916	757.324	85.555	757.324	85.7521	757.324	85.195	757.324	85.461	757.324	84.6792	757.324	85.0113	757.324	83.9572	757.324	84.4013	757.324	82.9684	757.324	83.6113	757.324	81.7428	757.324	82.6146	757.324	80.6047	757.324	81.4877	757.324	80.1479	757.324	80.5727	757.324	80.3873	757.324	80.2823	757.324	80.5146	757.324	80.4027	757.324	79.776	757.324	80.1891	757.324	77.6179	757.324	78.9849	757.324	73.1936	757.324	76.1916	757.324	65.194	757.324	70.6945	757.324	68.2835	757.324	63.8459	757.324	72.2523	757.324	69.8463	757.324	72.6585
785.156	85.6626	785.156	85.5421	785.156	85.5925	785.156	85.2591	785.156	85.3498	785.156	84.8453	785.156	84.996	785.156	84.2933	785.156	84.5713	785.156	83.5459	785.156	84.0299	785.156	82.5274	785.156	83.2492	785.156	81.2279	785.156	82.1079	785.156	79.8657	785.156	80.6157	785.156	78.9834	785.156	79.1656	785.156	78.8692	785.156	78.5596	785.156	78.9205	785.156	78.8436	785.156	78.3033	785.156	79.0034	785.156	76.4007	785.156	78.1944	785.156	72.6861	785.156	75.838	785.156	69.0773	785.156	71.4157	785.156	71.8507	785.156	68.9262	785.156	74.3933	785.156	72.63	785.156	74.669
811.523	85.6193	811.523	85.3913	811.523	85.6148	811.523	84.9725	811.523	85.3486	811.523	84.3973	811.523	84.8368	811.523	83.6926	811.523	84.162	811.523	82.8706	811.523	83.4338	811.523	81.9021	811.523	82.6651	811.523	80.7614	811.523	81.7174	811.523	79.6464	811.523	80.4979	811.523	79.1069	811.523	79.3172	811.523	79.3121	811.523	78.8736	811.523	79.5341	811.523	79.1552	811.523	78.993	811.523	79.2473	811.523	77.1573	811.523	78.4149	811.523	73.4099	811.523	76.2317	811.523	67.5204	811.523	72.313	811.523	68.0047	811.523	67.6483	811.523	71.0525	811.523	68.8795	811.523	71.2233
840.82	85.6545	840.82	85.4581	840.82	85.6046	840.82	85.0249	840.82	85.3095	840.82	84.3621	840.82	84.7905	840.82	83.486	840.82	84.0672	840.82	82.4307	840.82	83.1337	840.82	81.2152	840.82	81.9829	840.82	79.8384	840.82	80.6682	840.82	78.4833	840.82	79.3758	840.82	77.7987	840.82	78.4763	840.82	78.107	840.82	78.3039	840.82	78.5025	840.82	78.6125	840.82	77.9912	840.82	78.6825	840.82	75.9362	840.82	77.8757	840.82	71.6264	840.82	75.7244	840.82	66.9021	840.82	71.9823	840.82	70.5364	840.82	69.1652	840.82	73.1926	840.82	71.4133	840.82	73.3455
870.117	85.3188	870.117	85.0801	870.117	85.3362	870.117	84.6575	870.117	85.111	870.117	84.0926	870.117	84.6411	870.117	83.3861	870.117	83.9418	870.117	82.4538	870.117	83.0337	870.117	81.1823	870.117	81.9361	870.117	79.6303	870.117	80.6957	870.117	78.2794	870.117	79.4462	870.117	77.7719	870.117	78.4321	870.117	77.9161	870.117	77.8776	870.117	77.9076	870.117	77.7007	870.117	77.1182	870.117	77.4226	870.117	75.005	870.117	76.3964	870.117	70.7844	870.117	73.916	870.117	65.9124	870.117	69.3491	870.117	69.8093	870.117	67.7522	870.117	72.9495	870.117	71.7109	870.117	73.5288
900.879	85.9134	900.879	85.647	900.879	85.9064	900.879	85.1285	900.879	85.6126	900.879	84.3628	900.879	85.0421	900.879	83.3353	900.879	84.2236	900.879	82.0383	900.879	83.1872	900.879	80.4819	900.879	81.9453	900.879	78.6959	900.879	80.4822	900.879	76.9444	900.879	78.8405	900.879	76.1684	900.879	77.4541	900.879	76.8017	900.879	77.1434	900.879	77.4909	900.879	77.6665	900.879	77.0403	900.879	77.8329	900.879	74.7478	900.879	76.8621	900.879	69.6182	900.879	74.1981	900.879	65.5665	900.879	69.0323	900.879	71.0769	900.879	66.5986	900.879	73.7704	900.879	71.5414	900.879	73.8896
933.105	85.5906	933.105	85.3333	933.105	85.6243	933.105	84.8957	933.105	85.4242	933.105	84.3307	933.105	84.9971	933.105	83.6259	933.105	84.363	933.105	82.6674	933.105	83.5373	933.105	81.3092	933.105	82.4675	933.105	79.511	933.105	81.0208	933.105	77.5658	933.105	79.1605	933.105	76.3364	933.105	77.3862	933.105	76.3245	933.105	76.7523	933.105	76.544	933.105	77.0912	933.105	75.8488	933.105	77.1359	933.105	73.4402	933.105	76.0964	933.105	68.0218	933.105	73.4092	933.105	61.583	933.105	68.5183	933.105	68.9723	933.105	67.1695	933.105	72.3956	933.105	71.2689	933.105	73.0314
965.332	86.1151	965.332	85.9515	965.332	86.0474	965.332	85.5799	965.332	85.7841	965.332	85.069	965.332	85.3896	965.332	84.4588	965.332	84.9043	965.332	83.6772	965.332	84.2776	965.332	82.509	965.332	83.336	965.332	80.6395	965.332	81.8349	965.332	77.8991	965.332	79.627	965.332	75.5665	965.332	77.2475	965.332	76.3638	965.332	76.6873	965.332	77.9897	965.332	77.9552	965.332	78.3099	965.332	78.7715	965.332	76.7836	965.332	78.0929	965.332	72.3016	965.332	75.286	965.332	62.5298	965.332	69.1545	965.332	70.7405	965.332	66.1475	965.332	74.4377	965.332	72.0377	965.332	74.578
1,000.49	85.9143	1,000.49	85.6676	1,000.49	85.8955	1,000.49	85.1823	1,000.49	85.6061	1,000.49	84.5262	1,000.49	85.0546	1,000.49	83.769	1,000.49	84.2961	1,000.49	82.897	1,000.49	83.4072	1,000.49	81.7715	1,000.49	82.3551	1,000.49	80.1695	1,000.49	80.9466	1,000.49	77.9817	1,000.49	78.9961	1,000.49	76.1185	1,000.49	76.8064	1,000.49	76.6641	1,000.49	76.1117	1,000.49	78.236	1,000.49	77.5341	1,000.49	78.6711	1,000.49	78.7024	1,000.49	77.1838	1,000.49	78.2808	1,000.49	72.7431	1,000.49	75.6032	1,000.49	58.8023	1,000.49	68.8434	1,000.49	66.9849	1,000.49	55.4053	1,000.49	72.2548	1,000.49	70.0392	1,000.49	72.9438
1,035.64	85.6884	1,035.64	85.4391	1,035.64	85.6571	1,035.64	84.9668	1,035.64	85.3213	1,035.64	84.3363	1,035.64	84.7168	1,035.64	83.6145	1,035.64	83.9358	1,035.64	82.8475	1,035.64	83.0757	1,035.64	81.927	1,035.64	82.1425	1,035.64	80.4562	1,035.64	80.9396	1,035.64	77.8203	1,035.64	78.9962	1,035.64	74.0369	1,035.64	75.625	1,035.64	74.2128	1,035.64	72.0817	1,035.64	77.3952	1,035.64	74.7508	1,035.64	78.7109	1,035.64	77.6143	1,035.64	77.7826	1,035.64	78.1869	1,035.64	74.1837	1,035.64	76.52	1,035.64	65.3824	1,035.64	71.8262	1,035.64	65.3524	1,035.64	57.9551	1,035.64	71.4978	1,035.64	68.1019	1,035.64	72.2048
1,072.27	85.6485	1,072.27	85.3437	1,072.27	85.5459	1,072.27	84.752	1,072.27	85.1004	1,072.27	84.158	1,072.27	84.4687	1,072.27	83.7317	1,072.27	83.8337	1,072.27	83.3449	1,072.27	83.3496	1,072.27	82.7887	1,072.27	82.9962	1,072.27	81.8029	1,072.27	82.4451	1,072.27	79.7936	1,072.27	81.0966	1,072.27	75.718	1,072.27	78.0886	1,072.27	71.3884	1,072.27	72.2615	1,072.27	75.4264	1,072.27	70.9212	1,072.27	77.8975	1,072.27	75.6196	1,072.27	77.4665	1,072.27	77.364	1,072.27	74.2275	1,072.27	76.7149	1,072.27	67.9801	1,072.27	73.4519	1,072.27	69.6534	1,072.27	67.5092	1,072.27	73.6718	1,072.27	70.7195	1,072.27	74.0534
1,108.89	86.6528	1,108.89	86.2774	1,108.89	86.5442	1,108.89	85.3742	1,108.89	85.9586	1,108.89	83.9834	1,108.89	84.8911	1,108.89	82.4686	1,108.89	83.4692	1,108.89	81.5504	1,108.89	82.1366	1,108.89	81.4248	1,108.89	81.4921	1,108.89	81.3018	1,108.89	81.4235	1,108.89	80.2775	1,108.89	81.0401	1,108.89	77.51	1,108.89	79.4404	1,108.89	72.1818	1,108.89	75.5953	1,108.89	71.8321	1,108.89	68.9445	1,108.89	75.7366	1,108.89	72.5393	1,108.89	76.3256	1,108.89	75.947	1,108.89	73.1618	1,108.89	75.4241	1,108.89	59.9282	1,108.89	70.0049	1,108.89	71.3816	1,108.89	61.6117	1,108.89	76.276	1,108.89	73.3161	1,108.89	76.6206
1,148.44	86.6527	1,148.44	86.3317	1,148.44	86.653	1,148.44	85.6682	1,148.44	86.3619	1,148.44	84.6151	1,148.44	85.7703	1,148.44	83.1955	1,148.44	84.791	1,148.44	81.7181	1,148.44	83.4019	1,148.44	80.6624	1,148.44	81.868	1,148.44	80.041	1,148.44	80.7367	1,148.44	79.2508	1,148.44	80.1289	1,148.44	77.5298	1,148.44	79.2882	1,148.44	74.2671	1,148.44	77.3286	1,148.44	71.7896	1,148.44	74.0311	1,148.44	74.0991	1,148.44	72.7003	1,148.44	75.0935	1,148.44	74.307	1,148.44	72.4966	1,148.44	74.1144	1,148.44	62.0195	1,148.44	70.429	1,148.44	66.552	1,148.44	53.6845	1,148.44	72.3154	1,148.44	67.7373	1,148.44	72.5658
1,189.45	86.0764	1,189.45	85.8727	1,189.45	86.1045	1,189.45	85.3468	1,189.45	85.9623	1,189.45	84.4179	1,189.45	85.5059	1,189.45	83.1898	1,189.45	84.5951	1,189.45	81.7939	1,189.45	83.3	1,189.45	80.3621	1,189.45	81.9749	1,189.45	79.2024	1,189.45	80.9026	1,189.45	78.2334	1,189.45	79.9731	1,189.45	76.6606	1,189.45	78.912	1,189.45	74.185	1,189.45	77.3234	1,189.45	72.9471	1,189.45	75.0634	1,189.45	74.0722	1,189.45	74.0629	1,189.45	74.1392	1,189.45	75.1363	1,189.45	71.3216	1,189.45	75.1347	1,189.45	62.2244	1,189.45	72.4024	1,189.45	64.7568	1,189.45	62.8808	1,189.45	71.0453	1,189.45	64.4939	1,189.45	71.1924
1,230.47	86.2499	1,230.47	85.8942	1,230.47	86.3191	1,230.47	85.3751	1,230.47	86.0247	1,230.47	84.6149	1,230.47	85.4117	1,230.47	83.4269	1,230.47	84.5469	1,230.47	81.961	1,230.47	83.4002	1,230.47	80.6393	1,230.47	81.9605	1,230.47	79.6204	1,230.47	80.6048	1,230.47	78.8815	1,230.47	79.7888	1,230.47	77.858	1,230.47	79.0148	1,230.47	75.3797	1,230.47	77.3609	1,230.47	72.5137	1,230.47	74.9106	1,230.47	74.4955	1,230.47	74.0526	1,230.47	75.7173	1,230.47	75.2094	1,230.47	73.5708	1,230.47	75.3475	1,230.47	66.0965	1,230.47	72.4487	1,230.47	59.0894	1,230.47	60.6404	1,230.47	69.2021	1,230.47	65.819	1,230.47	70.5668
1,274.41	86.5462	1,274.41	86.3054	1,274.41	86.475	1,274.41	85.7229	1,274.41	86.1267	1,274.41	84.8451	1,274.41	85.5241	1,274.41	83.7286	1,274.41	84.6536	1,274.41	82.3525	1,274.41	83.5049	1,274.41	80.8713	1,274.41	82.1654	1,274.41	79.6919	1,274.41	80.8	1,274.41	78.8042	1,274.41	79.6238	1,274.41	77.4072	1,274.41	78.5423	1,274.41	74.5645	1,274.41	76.7512	1,274.41	71.9358	1,274.41	73.9817	1,274.41	74.1183	1,274.41	73.8257	1,274.41	75.651	1,274.41	75.962	1,274.41	74.3642	1,274.41	75.9887	1,274.41	68.972	1,274.41	72.6908	1,274.41	47.0044	1,274.41	62.5777	1,274.41	67.8746	1,274.41	62.8116	1,274.41	69.1709
1,319.82	85.673	1,319.82	85.4666	1,319.82	85.6049	1,319.82	84.9982	1,319.82	85.3512	1,319.82	84.3432	1,319.82	84.8682	1,319.82	83.389	1,319.82	84.0365	1,319.82	81.9436	1,319.82	82.8143	1,319.82	80.1261	1,319.82	81.2894	1,319.82	78.6501	1,319.82	79.9066	1,319.82	77.8683	1,319.82	79.1177	1,319.82	76.7736	1,319.82	78.5958	1,319.82	74.581	1,319.82	77.5205	1,319.82	71.9824	1,319.82	74.8585	1,319.82	72.6382	1,319.82	71.526	1,319.82	74.7512	1,319.82	73.2369	1,319.82	73.8965	1,319.82	74.6625	1,319.82	67.8376	1,319.82	72.5421	1,319.82	52.1474	1,319.82	63.1354	1,319.82	67.2691	1,319.82	63.3031	1,319.82	68.9629
1,366.7	85.5109	1,366.7	85.2567	1,366.7	85.414	1,366.7	84.6843	1,366.7	85.0432	1,366.7	83.9276	1,366.7	84.4408	1,366.7	83.0032	1,366.7	83.564	1,366.7	81.7651	1,366.7	82.4003	1,366.7	80.1611	1,366.7	81.0795	1,366.7	78.4622	1,366.7	79.5485	1,366.7	77.3051	1,366.7	77.7941	1,366.7	76.9419	1,366.7	76.9365	1,366.7	76.0946	1,366.7	76.5624	1,366.7	73.3044	1,366.7	74.0548	1,366.7	71.6305	1,366.7	69.8221	1,366.7	74.4241	1,366.7	72.2597	1,366.7	74.1691	1,366.7	74.7513	1,366.7	68.7979	1,366.7	73.4591	1,366.7	40.8045	1,366.7	65.4402	1,366.7	66.1933	1,366.7	61.7461	1,366.7	68.2269
1,413.57	85.4904	1,413.57	85.1444	1,413.57	85.4608	1,413.57	84.4543	1,413.57	84.952	1,413.57	83.5346	1,413.57	84.0969	1,413.57	82.5488	1,413.57	83.2541	1,413.57	81.3273	1,413.57	82.2871	1,413.57	79.8399	1,413.57	80.7369	1,413.57	78.2729	1,413.57	79.0543	1,413.57	76.9057	1,413.57	77.8092	1,413.57	76.5518	1,413.57	76.085	1,413.57	75.6486	1,413.57	74.3252	1,413.57	72.8238	1,413.57	72.7913	1,413.57	72.5718	1,413.57	70.2099	1,413.57	73.8304	1,413.57	71.0595	1,413.57	73.4395	1,413.57	73.0998	1,413.57	69.5123	1,413.57	71.7853	1,413.57	57.4474	1,413.57	65.6139	1,413.57	65.9504	1,413.57	49.6587	1,413.57	65.1182
1,463.38	85.54	1,463.38	85.2419	1,463.38	85.431	1,463.38	84.6348	1,463.38	84.9735	1,463.38	83.7373	1,463.38	84.345	1,463.38	82.5182	1,463.38	83.5528	1,463.38	81.0351	1,463.38	82.5019	1,463.38	79.2727	1,463.38	81.1656	1,463.38	77.6542	1,463.38	79.6543	1,463.38	76.4662	1,463.38	78.4547	1,463.38	74.9975	1,463.38	77.0721	1,463.38	73.4688	1,463.38	74.8918	1,463.38	72.0661	1,463.38	73.5188	1,463.38	71.3266	1,463.38	72.2287	1,463.38	72.4135	1,463.38	70.6935	1,463.38	72.0941	1,463.38	71.9853	1,463.38	67.8269	1,463.38	71.4892	1,463.38	53.2228	1,463.38	66.7037	1,463.38	62.1369	1,463.38	46.1071	1,463.38	62.0745
1,516.11	85.3817	1,516.11	85.0174	1,516.11	85.4485	1,516.11	84.5175	1,516.11	85.1278	1,516.11	83.7397	1,516.11	84.6107	1,516.11	82.5933	1,516.11	84.0023	1,516.11	81.3347	1,516.11	83.0715	1,516.11	79.7037	1,516.11	81.6699	1,516.11	77.7414	1,516.11	79.9914	1,516.11	76.6437	1,516.11	78.5458	1,516.11	75.3211	1,516.11	77.4612	1,516.11	72.3873	1,516.11	76.1375	1,516.11	69.9204	1,516.11	74.7271	1,516.11	70.2619	1,516.11	73.1624	1,516.11	72.6506	1,516.11	72.0695	1,516.11	72.8701	1,516.11	73.2874	1,516.11	68.1121	1,516.11	73.132	1,516.11	59.0197	1,516.11	68.6739	1,516.11	66.6249	1,516.11	60.9741	1,516.11	66.9069
1,568.85	85.3787	1,568.85	85.0695	1,568.85	85.2355	1,568.85	84.3733	1,568.85	84.8157	1,568.85	83.5777	1,568.85	84.1676	1,568.85	82.7544	1,568.85	83.412	1,568.85	81.6558	1,568.85	82.5787	1,568.85	80.0473	1,568.85	81.5216	1,568.85	78.253	1,568.85	80.38	1,568.85	76.8801	1,568.85	78.8545	1,568.85	76.164	1,568.85	76.8592	1,568.85	74.4588	1,568.85	75.3548	1,568.85	70.2303	1,568.85	74.2881	1,568.85	67.5561	1,568.85	73.0145	1,568.85	70.5828	1,568.85	71.9222	1,568.85	72.3321	1,568.85	72.5745	1,568.85	69.4388	1,568.85	72.1628	1,568.85	55.7196	1,568.85	66.5051	1,568.85	66.9348	1,568.85	57.6672	1,568.85	66.8884
1,624.51	85.992	1,624.51	85.8035	1,624.51	85.812	1,624.51	85.0443	1,624.51	85.5013	1,624.51	83.8396	1,624.51	84.8221	1,624.51	82.6075	1,624.51	83.6212	1,624.51	81.2905	1,624.51	82.4549	1,624.51	79.5568	1,624.51	81.2712	1,624.51	77.8682	1,624.51	79.6939	1,624.51	76.2001	1,624.51	78.0881	1,624.51	74.4734	1,624.51	76.3989	1,624.51	73.6099	1,624.51	74.9605	1,624.51	72.1176	1,624.51	73.7084	1,624.51	70.7362	1,624.51	71.6531	1,624.51	72.7405	1,624.51	70.7872	1,624.51	74.0386	1,624.51	72.5184	1,624.51	71.4897	1,624.51	72.8149	1,624.51	62.9846	1,624.51	68.1033	1,624.51	65.591	1,624.51	62.0333	1,624.51	67.0026
1,681.64	85.3216	1,681.64	85.0934	1,681.64	85.3025	1,681.64	84.6403	1,681.64	85.0568	1,681.64	83.7163	1,681.64	84.6239	1,681.64	82.3461	1,681.64	83.5442	1,681.64	81.0988	1,681.64	81.8215	1,681.64	79.6343	1,681.64	80.5645	1,681.64	77.6417	1,681.64	79.2768	1,681.64	76.2661	1,681.64	77.1556	1,681.64	74.8366	1,681.64	75.8011	1,681.64	72.8379	1,681.64	75.1723	1,681.64	72.1509	1,681.64	73.5551	1,681.64	70.7299	1,681.64	70.5965	1,681.64	71.2086	1,681.64	68.8195	1,681.64	73.9368	1,681.64	70.7257	1,681.64	71.9802	1,681.64	71.6966	1,681.64	62.9588	1,681.64	66.4717	1,681.64	65.088	1,681.64	57.4229	1,681.64	66.9925
1,741.7	85.6143	1,741.7	85.0638	1,741.7	85.4437	1,741.7	84.1194	1,741.7	84.8376	1,741.7	82.7688	1,741.7	84.0307	1,741.7	81.5491	1,741.7	82.6315	1,741.7	80.6721	1,741.7	81.4097	1,741.7	78.7829	1,741.7	80.2722	1,741.7	75.9865	1,741.7	78.0672	1,741.7	74.6757	1,741.7	76.0866	1,741.7	73.6212	1,741.7	74.991	1,741.7	70.8032	1,741.7	73.3741	1,741.7	69.0447	1,741.7	71.7919	1,741.7	68.363	1,741.7	69.8633	1,741.7	67.2619	1,741.7	67.3189	1,741.7	68.8264	1,741.7	66.271	1,741.7	67.9651	1,741.7	67.6077	1,741.7	63.0051	1,741.7	66.6488	1,741.7	68.0286	1,741.7	59.4171	1,741.7	67.038
1,803.22	85.9856	1,803.22	85.9384	1,803.22	85.7202	1,803.22	85.0621	1,803.22	85.4774	1,803.22	83.7767	1,803.22	85.0032	1,803.22	82.4663	1,803.22	83.9015	1,803.22	80.4606	1,803.22	82.1873	1,803.22	78.4195	1,803.22	80.3075	1,803.22	76.4496	1,803.22	78.8773	1,803.22	74.1202	1,803.22	77.1426	1,803.22	72.9053	1,803.22	75.681	1,803.22	71.1054	1,803.22	74.9679	1,803.22	70.6372	1,803.22	72.1689	1,803.22	70.4954	1,803.22	70.4531	1,803.22	69.6371	1,803.22	71.1164	1,803.22	70.7491	1,803.22	71.9645	1,803.22	68.7971	1,803.22	71.7945	1,803.22	60.7716	1,803.22	66.7722	1,803.22	65.9171	1,803.22	59.6143	1,803.22	65.9823
1,866.21	86.113	1,866.21	85.6633	1,866.21	86.0884	1,866.21	84.5086	1,866.21	85.6953	1,866.21	83.3708	1,866.21	84.6822	1,866.21	82.4592	1,866.21	83.7457	1,866.21	80.6937	1,866.21	82.6159	1,866.21	78.1837	1,866.21	80.4763	1,866.21	76.4773	1,866.21	77.5719	1,866.21	74.2441	1,866.21	75.2371	1,866.21	72.8295	1,866.21	74.9694	1,866.21	71.3743	1,866.21	74.084	1,866.21	67.6646	1,866.21	70.8769	1,866.21	69.0288	1,866.21	69.0517	1,866.21	69.7616	1,866.21	68.7713	1,866.21	70.065	1,866.21	71.2375	1,866.21	67.1165	1,866.21	72.1449	1,866.21	58.7722	1,866.21	65.444	1,866.21	58.2203	1,866.21	59.3085	1,866.21	62.6206
1,932.13	85.1206	1,932.13	84.7547	1,932.13	85.3896	1,932.13	84.035	1,932.13	84.9893	1,932.13	83.1621	1,932.13	83.7145	1,932.13	81.6455	1,932.13	82.915	1,932.13	79.7993	1,932.13	81.0863	1,932.13	78.556	1,932.13	78.7342	1,932.13	76.6056	1,932.13	77.7272	1,932.13	73.6527	1,932.13	74.0497	1,932.13	71.8608	1,932.13	71.6453	1,932.13	71.3526	1,932.13	72.3543	1,932.13	69.8784	1,932.13	69.9196	1,932.13	65.2055	1,932.13	69.1009	1,932.13	62.5945	1,932.13	66.4877	1,932.13	69.6435	1,932.13	66.0576	1,932.13	69.1955	1,932.13	70.3414	1,932.13	61.7684	1,932.13	70.0107	1,932.13	66.7079	1,932.13	60.7948	1,932.13	67.2314
1,999.51	85.0426	1,999.51	84.5769	1,999.51	85.2727	1,999.51	83.8669	1,999.51	84.9497	1,999.51	82.6836	1,999.51	84.3613	1,999.51	80.8909	1,999.51	83.1594	1,999.51	78.8376	1,999.51	81.3582	1,999.51	78.0371	1,999.51	79.7384	1,999.51	76.2937	1,999.51	78.4134	1,999.51	73.0393	1,999.51	76.395	1,999.51	71.9612	1,999.51	72.8816	1,999.51	69.6887	1,999.51	71.8277	1,999.51	68.7134	1,999.51	70.2444	1,999.51	69.2629	1,999.51	69.4334	1,999.51	64.6085	1,999.51	70.1082	1,999.51	66.2522	1,999.51	63.9155	1,999.51	66.8311	1,999.51	65.8426	1,999.51	64.9358	1,999.51	68.3426	1,999.51	67.9594	1,999.51	65.2263	1,999.51	65.8508
2,069.82	85.889	2,069.82	85.481	2,069.82	86.0833	2,069.82	84.6068	2,069.82	85.7907	2,069.82	83.3377	2,069.82	85.1178	2,069.82	81.746	2,069.82	84.2892	2,069.82	79.3659	2,069.82	82.808	2,069.82	77.1051	2,069.82	80.5837	2,069.82	76.0965	2,069.82	79.1074	2,069.82	73.6047	2,069.82	77.8453	2,069.82	70.8218	2,069.82	75.3396	2,069.82	70.2581	2,069.82	73.5435	2,069.82	64.8207	2,069.82	72.0244	2,069.82	65.0221	2,069.82	69.065	2,069.82	67.1188	2,069.82	68.8999	2,069.82	64.5086	2,069.82	67.2419	2,069.82	61.8184	2,069.82	65.5698	2,069.82	61.1347	2,069.82	66.0536	2,069.82	67.0865	2,069.82	65.5033	2,069.82	67.6937
2,143.07	86.3723	2,143.07	85.9386	2,143.07	86.4214	2,143.07	85.2539	2,143.07	85.8021	2,143.07	84.3008	2,143.07	84.841	2,143.07	82.6691	2,143.07	83.301	2,143.07	80.9151	2,143.07	81.5492	2,143.07	78.8097	2,143.07	80.3838	2,143.07	76.3508	2,143.07	78.1113	2,143.07	74.8009	2,143.07	75.9039	2,143.07	72.327	2,143.07	74.852	2,143.07	69.6805	2,143.07	73.057	2,143.07	66.4492	2,143.07	71.28	2,143.07	64.3217	2,143.07	69.6789	2,143.07	65.9851	2,143.07	66.5975	2,143.07	66.2846	2,143.07	63.7132	2,143.07	64.361	2,143.07	64.6898	2,143.07	56.9994	2,143.07	61.2733	2,143.07	65.0372	2,143.07	60.9183	2,143.07	67.1963
2,219.24	85.4832	2,219.24	85.164	2,219.24	85.4587	2,219.24	84.3356	2,219.24	84.9368	2,219.24	83.1759	2,219.24	83.7308	2,219.24	81.9273	2,219.24	82.1099	2,219.24	80.1205	2,219.24	81.1968	2,219.24	77.6772	2,219.24	79.509	2,219.24	75.787	2,219.24	77.203	2,219.24	73.5254	2,219.24	75.8476	2,219.24	70.1526	2,219.24	71.775	2,219.24	70.0155	2,219.24	69.315	2,219.24	68.1617	2,219.24	69.0037	2,219.24	66.6833	2,219.24	65.3259	2,219.24	66.6873	2,219.24	66.7354	2,219.24	64.9272	2,219.24	67.0569	2,219.24	65.6791	2,219.24	66.3883	2,219.24	60.8792	2,219.24	61.6079	2,219.24	66.2818	2,219.24	61.4826	2,219.24	65.5389
2,296.88	85.5911	2,296.88	84.9984	2,296.88	85.6741	2,296.88	84.1628	2,296.88	85.2079	2,296.88	82.4813	2,296.88	84.3907	2,296.88	80.6269	2,296.88	83.0848	2,296.88	79.4916	2,296.88	81.2248	2,296.88	77.5028	2,296.88	79.4444	2,296.88	74.3393	2,296.88	77.588	2,296.88	71.7469	2,296.88	75.4742	2,296.88	69.039	2,296.88	74.3791	2,296.88	69.1625	2,296.88	71.3383	2,296.88	66.3931	2,296.88	68.8813	2,296.88	59.6914	2,296.88	68.7503	2,296.88	64.4623	2,296.88	66.7153	2,296.88	64.6577	2,296.88	64.4425	2,296.88	65.0784	2,296.88	64.6046	2,296.88	51.9683	2,296.88	66.8589	2,296.88	60.9965	2,296.88	64.9288	2,296.88	68.0557
2,378.91	86.9658	2,378.91	86.5125	2,378.91	87.0097	2,378.91	85.5538	2,378.91	86.6966	2,378.91	83.8922	2,378.91	85.8068	2,378.91	81.8931	2,378.91	83.7936	2,378.91	79.6582	2,378.91	82.3004	2,378.91	77.797	2,378.91	80.7234	2,378.91	75.2394	2,378.91	78.4678	2,378.91	72.7796	2,378.91	77.2639	2,378.91	69.3409	2,378.91	74.954	2,378.91	68.0115	2,378.91	72.1893	2,378.91	67.9746	2,378.91	72.14	2,378.91	63.9261	2,378.91	69.4866	2,378.91	64.8412	2,378.91	65.391	2,378.91	60.5746	2,378.91	64.8569	2,378.91	63.5636	2,378.91	65.8804	2,378.91	48.0633	2,378.91	62.4247	2,378.91	64.5977	2,378.91	60.3466	2,378.91	67.996
2,462.4	86.7463	2,462.4	86.3875	2,462.4	86.5208	2,462.4	85.3985	2,462.4	86.0847	2,462.4	84.1358	2,462.4	85.0562	2,462.4	82.2296	2,462.4	83.5899	2,462.4	80.5145	2,462.4	81.9394	2,462.4	78.7642	2,462.4	80.0876	2,462.4	76.37	2,462.4	77.8583	2,462.4	74.3252	2,462.4	75.6234	2,462.4	71.9061	2,462.4	74.224	2,462.4	69.8319	2,462.4	71.8011	2,462.4	68.1871	2,462.4	69.8993	2,462.4	66.3624	2,462.4	67.9396	2,462.4	65.7497	2,462.4	64.8264	2,462.4	62.4993	2,462.4	66.035	2,462.4	63.6617	2,462.4	64.7205	2,462.4	57.8041	2,462.4	64.5821	2,462.4	61.7582	2,462.4	60.2762	2,462.4	66.9353
2,548.83	85.8099	2,548.83	85.3954	2,548.83	85.9613	2,548.83	84.5286	2,548.83	85.4045	2,548.83	83.322	2,548.83	84.3556	2,548.83	81.7351	2,548.83	83.3119	2,548.83	79.8019	2,548.83	81.721	2,548.83	78.1038	2,548.83	79.8941	2,548.83	75.866	2,548.83	77.576	2,548.83	74.452	2,548.83	75.5359	2,548.83	72.287	2,548.83	74.326	2,548.83	69.6246	2,548.83	71.6641	2,548.83	70.1637	2,548.83	69.7407	2,548.83	63.1779	2,548.83	67.4762	2,548.83	66.1313	2,548.83	63.7032	2,548.83	63.5032	2,548.83	63.0354	2,548.83	63.4622	2,548.83	63.0291	2,548.83	60.7585	2,548.83	64.0611	2,548.83	65.5897	2,548.83	49.6596	2,548.83	66.4791
2,639.65	86.0363	2,639.65	85.4019	2,639.65	86.1225	2,639.65	84.3625	2,639.65	85.4494	2,639.65	82.9186	2,639.65	84.5447	2,639.65	81.6711	2,639.65	83.5719	2,639.65	79.6552	2,639.65	82.2371	2,639.65	77.6869	2,639.65	80.4	2,639.65	75.6075	2,639.65	78.5115	2,639.65	73.4308	2,639.65	76.3627	2,639.65	72.046	2,639.65	74.4168	2,639.65	68.5911	2,639.65	72.3132	2,639.65	69.4188	2,639.65	70.7955	2,639.65	66.7367	2,639.65	69.3712	2,639.65	63.564	2,639.65	64.678	2,639.65	59.4441	2,639.65	66.2168	2,639.65	63.2018	2,639.65	60.4586	2,639.65	60.1724	2,639.65	63.3975	2,639.65	68.4746	2,639.65	54.6502	2,639.65	66.3477
2,731.93	86.2636	2,731.93	85.6607	2,731.93	86.2327	2,731.93	84.7382	2,731.93	85.5395	2,731.93	83.5192	2,731.93	84.5621	2,731.93	82.4369	2,731.93	83.2113	2,731.93	80.5494	2,731.93	81.9324	2,731.93	78.2495	2,731.93	80.1326	2,731.93	76.5547	2,731.93	78.657	2,731.93	74.3989	2,731.93	76.4257	2,731.93	72.3244	2,731.93	73.9697	2,731.93	69.9802	2,731.93	72.3417	2,731.93	69.353	2,731.93	69.978	2,731.93	66.9457	2,731.93	70.2125	2,731.93	65.6229	2,731.93	67.6715	2,731.93	64.5087	2,731.93	66.7887	2,731.93	58.937	2,731.93	61.1118	2,731.93	55.0275	2,731.93	59.7793	2,731.93	61.7673	2,731.93	53.9112	2,731.93	63.1821
2,828.61	85.9131	2,828.61	85.5576	2,828.61	85.8965	2,828.61	84.8017	2,828.61	85.7715	2,828.61	83.8209	2,828.61	84.8733	2,828.61	82.4006	2,828.61	83.7382	2,828.61	81.2725	2,828.61	82.5144	2,828.61	79.5204	2,828.61	80.7468	2,828.61	77.3816	2,828.61	79.0951	2,828.61	74.7833	2,828.61	77.3466	2,828.61	72.8239	2,828.61	74.8451	2,828.61	71.7526	2,828.61	72.8428	2,828.61	70.1733	2,828.61	70.5059	2,828.61	69.292	2,828.61	70.2107	2,828.61	67.8586	2,828.61	66.4661	2,828.61	66.9324	2,828.61	66.7889	2,828.61	65.9371	2,828.61	62.0822	2,828.61	52.744	2,828.61	64.4365	2,828.61	64.4044	2,828.61	51.0611	2,828.61	64.7253
2,928.22	86.0862	2,928.22	85.6642	2,928.22	85.9158	2,928.22	84.9273	2,928.22	85.7573	2,928.22	83.9074	2,928.22	84.8792	2,928.22	82.3009	2,928.22	83.6548	2,928.22	80.777	2,928.22	82.223	2,928.22	79.0408	2,928.22	81.0044	2,928.22	77.1276	2,928.22	79.1243	2,928.22	73.9532	2,928.22	77.1955	2,928.22	72.17	2,928.22	74.9119	2,928.22	70.1064	2,928.22	72.8893	2,928.22	69.119	2,928.22	70.6133	2,928.22	65.0436	2,928.22	69.9374	2,928.22	67.3393	2,928.22	66.7406	2,928.22	66.1432	2,928.22	65.3184	2,928.22	63.5342	2,928.22	63.8415	2,928.22	59.1343	2,928.22	64.6129	2,928.22	59.1129	2,928.22	56.7443	2,928.22	64.8146
3,030.76	85.8749	3,030.76	85.3776	3,030.76	85.9015	3,030.76	84.1124	3,030.76	85.1919	3,030.76	82.6292	3,030.76	84.1706	3,030.76	81.1864	3,030.76	82.8957	3,030.76	79.3353	3,030.76	81.0795	3,030.76	78.1952	3,030.76	79.3656	3,030.76	76.2816	3,030.76	77.0751	3,030.76	73.1319	3,030.76	74.878	3,030.76	71.5247	3,030.76	73.1117	3,030.76	69.4248	3,030.76	71.2295	3,030.76	67.3386	3,030.76	69.174	3,030.76	66.8573	3,030.76	67.4603	3,030.76	62.3737	3,030.76	64.8098	3,030.76	64.1715	3,030.76	65.364	3,030.76	62.2463	3,030.76	63.7925	3,030.76	61.332	3,030.76	62.1349	3,030.76	62.4208	3,030.76	57.5193	3,030.76	64.8145
3,137.7	86.1387	3,137.7	85.3804	3,137.7	86.1775	3,137.7	84.2294	3,137.7	85.3634	3,137.7	82.8144	3,137.7	84.0841	3,137.7	81.3327	3,137.7	82.831	3,137.7	79.7289	3,137.7	81.1522	3,137.7	77.5585	3,137.7	79.1151	3,137.7	75.4932	3,137.7	77.0001	3,137.7	73.444	3,137.7	74.618	3,137.7	71.2385	3,137.7	72.3913	3,137.7	69.5476	3,137.7	70.6103	3,137.7	67.533	3,137.7	67.3475	3,137.7	67.549	3,137.7	65.7284	3,137.7	61.303	3,137.7	64.8829	3,137.7	62.4717	3,137.7	64.1259	3,137.7	62.0218	3,137.7	65.3979	3,137.7	60.3173	3,137.7	62.1038	3,137.7	62.3995	3,137.7	57.5712	3,137.7	61.7431
3,249.02	85.6467	3,249.02	84.8559	3,249.02	85.5877	3,249.02	83.7775	3,249.02	84.6878	3,249.02	82.456	3,249.02	83.3012	3,249.02	80.8644	3,249.02	81.9523	3,249.02	79.2369	3,249.02	80.5353	3,249.02	77.1861	3,249.02	78.3629	3,249.02	74.9306	3,249.02	76.3134	3,249.02	73.1421	3,249.02	74.3542	3,249.02	70.779	3,249.02	72.1001	3,249.02	68.6197	3,249.02	70.1237	3,249.02	65.2025	3,249.02	67.0772	3,249.02	64.7681	3,249.02	65.2141	3,249.02	64.0415	3,249.02	63.6985	3,249.02	62.0771	3,249.02	63.5748	3,249.02	63.6099	3,249.02	62.8347	3,249.02	60.3941	3,249.02	62.8884	3,249.02	59.9026	3,249.02	59.3042	3,249.02	61.7615
3,363.28	85.341	3,363.28	84.7407	3,363.28	85.2433	3,363.28	83.7907	3,363.28	84.6761	3,363.28	82.4974	3,363.28	83.3959	3,363.28	80.4817	3,363.28	82.0548	3,363.28	78.8194	3,363.28	80.5294	3,363.28	76.9384	3,363.28	78.8024	3,363.28	74.134	3,363.28	76.802	3,363.28	71.7697	3,363.28	74.8758	3,363.28	70.0777	3,363.28	72.8403	3,363.28	67.9717	3,363.28	70.6389	3,363.28	65.0931	3,363.28	68.9081	3,363.28	63.5237	3,363.28	65.976	3,363.28	61.125	3,363.28	63.3206	3,363.28	62.0748	3,363.28	60.8217	3,363.28	60.7249	3,363.28	63.416	3,363.28	61.2755	3,363.28	62.1206	3,363.28	58.2182	3,363.28	60.7255	3,363.28	61.5775
3,481.93	84.8962	3,481.93	84.4004	3,481.93	84.6459	3,481.93	83.4671	3,481.93	84.1434	3,481.93	82.3401	3,481.93	83.1892	3,481.93	81.0594	3,481.93	82.3081	3,481.93	79.4433	3,481.93	81.2435	3,481.93	77.3865	3,481.93	79.8625	3,481.93	74.939	3,481.93	78.1054	3,481.93	73.1935	3,481.93	76.389	3,481.93	70.658	3,481.93	74.1653	3,481.93	68.6861	3,481.93	71.5532	3,481.93	65.66	3,481.93	69.7776	3,481.93	63.9931	3,481.93	65.7478	3,481.93	59.4518	3,481.93	65.5604	3,481.93	62.4976	3,481.93	60.7029	3,481.93	54.0451	3,481.93	63.5357	3,481.93	57.3523	3,481.93	58.0251	3,481.93	58.5165	3,481.93	60.0738	3,481.93	63.0539
3,604.98	84.1805	3,604.98	84.0496	3,604.98	84.2423	3,604.98	83.7021	3,604.98	83.8097	3,604.98	82.5663	3,604.98	83.5784	3,604.98	82.1339	3,604.98	83.2	3,604.98	80.8286	3,604.98	82.3715	3,604.98	79.0963	3,604.98	80.7524	3,604.98	77.1436	3,604.98	78.9802	3,604.98	74.89	3,604.98	77.2453	3,604.98	72.633	3,604.98	74.8375	3,604.98	70.4993	3,604.98	72.3999	3,604.98	66.6955	3,604.98	70.1915	3,604.98	65.1663	3,604.98	67.8842	3,604.98	63.3899	3,604.98	65.2552	3,604.98	65.1411	3,604.98	62.7374	3,604.98	62.9615	3,604.98	65.5234	3,604.98	62.7534	3,604.98	63.2603	3,604.98	57.4908	3,604.98	61.1037	3,604.98	63.6891
3,732.42	84.0715	3,732.42	84.003	3,732.42	84.0074	3,732.42	83.8429	3,732.42	84.1869	3,732.42	83.3278	3,732.42	83.7036	3,732.42	81.7805	3,732.42	82.9127	3,732.42	80.7315	3,732.42	81.6771	3,732.42	78.8842	3,732.42	80.0353	3,732.42	76.7793	3,732.42	78.1893	3,732.42	75.0566	3,732.42	75.6997	3,732.42	72.3134	3,732.42	73.4145	3,732.42	71.1006	3,732.42	71.3689	3,732.42	68.5794	3,732.42	69.6477	3,732.42	66.5086	3,732.42	66.2161	3,732.42	63.5503	3,732.42	65.0024	3,732.42	64.8865	3,732.42	60.5628	3,732.42	62.5861	3,732.42	63.3711	3,732.42	62.2029	3,732.42	61.0697	3,732.42	57.8211	3,732.42	61.9721	3,732.42	61.1153
3,864.26	84.7895	3,864.26	84.7257	3,864.26	84.7915	3,864.26	84.2199	3,864.26	84.9099	3,864.26	83.7014	3,864.26	84.2125	3,864.26	82.2813	3,864.26	82.9762	3,864.26	80.4653	3,864.26	81.6392	3,864.26	78.6444	3,864.26	80.3379	3,864.26	76.2159	3,864.26	78.4254	3,864.26	73.6629	3,864.26	76.4927	3,864.26	71.1618	3,864.26	73.6961	3,864.26	68.1322	3,864.26	71.3839	3,864.26	66.5318	3,864.26	69.6249	3,864.26	62.106	3,864.26	65.6375	3,864.26	62.524	3,864.26	65.7766	3,864.26	63.3732	3,864.26	62.1288	3,864.26	60.7111	3,864.26	63.1947	3,864.26	59.4563	3,864.26	60.4288	3,864.26	56.5011	3,864.26	62.4838	3,864.26	61.9241
4,000.49	84.9285	4,000.49	84.6485	4,000.49	85.4928	4,000.49	84.3594	4,000.49	84.9639	4,000.49	82.7943	4,000.49	84.7184	4,000.49	81.6807	4,000.49	83.6491	4,000.49	80.009	4,000.49	82.3318	4,000.49	78.7684	4,000.49	79.9712	4,000.49	76.2999	4,000.49	78.1748	4,000.49	74.0822	4,000.49	75.8056	4,000.49	72.0109	4,000.49	73.966	4,000.49	69.4986	4,000.49	71.2385	4,000.49	65.8352	4,000.49	68.7372	4,000.49	64.9107	4,000.49	66.706	4,000.49	62.5908	4,000.49	64.3958	4,000.49	63.724	4,000.49	60.213	4,000.49	61.1534	4,000.49	63.0252	4,000.49	63.2569	4,000.49	59.1709	4,000.49	57.9726	4,000.49	62.8475	4,000.49	61.1753
4,141.11	85.6093	4,141.11	85.7926	4,141.11	85.5669	4,141.11	85.2788	4,141.11	85.9844	4,141.11	84.3157	4,141.11	85.2872	4,141.11	82.2639	4,141.11	84.1722	4,141.11	80.914	4,141.11	82.0837	4,141.11	77.9944	4,141.11	80.3872	4,141.11	76.2889	4,141.11	78.4759	4,141.11	74.7534	4,141.11	76.2633	4,141.11	71.374	4,141.11	74.4125	4,141.11	69.2392	4,141.11	71.9305	4,141.11	65.8228	4,141.11	69.8596	4,141.11	63.6449	4,141.11	66.6002	4,141.11	60.5202	4,141.11	66.276	4,141.11	63.7093	4,141.11	63.7104	4,141.11	60.6823	4,141.11	63.0337	4,141.11	61.8535	4,141.11	59.822	4,141.11	56.4342	4,141.11	61.1471	4,141.11	59.8449
4,287.6	85.8823	4,287.6	85.6994	4,287.6	86.046	4,287.6	85.5838	4,287.6	85.7221	4,287.6	84.753	4,287.6	85.2622	4,287.6	83.1226	4,287.6	83.6063	4,287.6	80.7382	4,287.6	81.9616	4,287.6	79.2634	4,287.6	80.2894	4,287.6	76.5952	4,287.6	78.1909	4,287.6	74.5132	4,287.6	75.9088	4,287.6	72.5246	4,287.6	73.3454	4,287.6	70.2844	4,287.6	70.6818	4,287.6	68.1799	4,287.6	67.9125	4,287.6	63.1957	4,287.6	65.8591	4,287.6	62.5401	4,287.6	65.0004	4,287.6	60.3553	4,287.6	61.2924	4,287.6	60.1163	4,287.6	62.3359	4,287.6	59.4668	4,287.6	61.2064	4,287.6	58.4688	4,287.6	59.8979	4,287.6	61.5927
4,438.48	86.9151	4,438.48	86.9382	4,438.48	87.1584	4,438.48	86.4612	4,438.48	87.1306	4,438.48	84.6103	4,438.48	86.2323	4,438.48	82.0965	4,438.48	84.4883	4,438.48	79.2012	4,438.48	82.6264	4,438.48	76.8274	4,438.48	79.3034	4,438.48	74.1334	4,438.48	77.0185	4,438.48	70.4905	4,438.48	74.8768	4,438.48	67.6273	4,438.48	72.3361	4,438.48	67.1922	4,438.48	69.8102	4,438.48	65.7058	4,438.48	68.367	4,438.48	57.5027	4,438.48	66.0938	4,438.48	60.8259	4,438.48	63.7912	4,438.48	59.4928	4,438.48	63.0663	4,438.48	57.7246	4,438.48	60.688	4,438.48	57.3661	4,438.48	54.8394	4,438.48	54.2826	4,438.48	59.3227	4,438.48	59.4024
4,595.21	88.1604	4,595.21	87.9591	4,595.21	87.9044	4,595.21	86.7305	4,595.21	87.8405	4,595.21	85.2285	4,595.21	86.426	4,595.21	81.5743	4,595.21	84.7005	4,595.21	79.322	4,595.21	81.697	4,595.21	76.0887	4,595.21	78.8132	4,595.21	74.3089	4,595.21	75.9524	4,595.21	73.3828	4,595.21	74.1596	4,595.21	71.2742	4,595.21	71.7204	4,595.21	67.9443	4,595.21	69.9394	4,595.21	64.4122	4,595.21	68.2777	4,595.21	65.2512	4,595.21	63.9737	4,595.21	61.0534	4,595.21	62.6511	4,595.21	59.1423	4,595.21	60.9366	4,595.21	54.6503	4,595.21	59.7881	4,595.21	59.0755	4,595.21	58.3482	4,595.21	51.3518	4,595.21	61.8581	4,595.21	56.1951
4,756.35	88.8275	4,756.35	87.9357	4,756.35	89.0015	4,756.35	87.1711	4,756.35	87.7221	4,756.35	84.4752	4,756.35	86.3554	4,756.35	81.885	4,756.35	82.9676	4,756.35	78.7281	4,756.35	80.1658	4,756.35	76.3883	4,756.35	77.3533	4,756.35	74.327	4,756.35	75.2403	4,756.35	71.7055	4,756.35	73.7323	4,756.35	70.1974	4,756.35	70.7794	4,756.35	66.3045	4,756.35	69.1648	4,756.35	66.0419	4,756.35	66.6807	4,756.35	62.637	4,756.35	63.4426	4,756.35	58.3555	4,756.35	60.6962	4,756.35	55.9931	4,756.35	60.3416	4,756.35	53.7864	4,756.35	57.0045	4,756.35	59.4196	4,756.35	50.4373	4,756.35	51.2831	4,756.35	58.485	4,756.35	58.5204
4,924.8	88.2285	4,924.8	87.8373	4,924.8	88.079	4,924.8	85.5185	4,924.8	87.699	4,924.8	82.9679	4,924.8	85.7155	4,924.8	79.7818	4,924.8	83.5268	4,924.8	77.8044	4,924.8	80.5715	4,924.8	76.1251	4,924.8	77.707	4,924.8	74.7643	4,924.8	75.6591	4,924.8	72.9681	4,924.8	73.1074	4,924.8	69.3958	4,924.8	71.6071	4,924.8	68.307	4,924.8	69.218	4,924.8	67.4376	4,924.8	66.6733	4,924.8	62.9127	4,924.8	65.9299	4,924.8	64.058	4,924.8	61.9358	4,924.8	54.9898	4,924.8	60.8431	4,924.8	56.8387	4,924.8	57.243	4,924.8	60.6256	4,924.8	51.6181	4,924.8	50.1085	4,924.8	59.7648	4,924.8	52.5116
5,097.66	87.3974	5,097.66	86.4229	5,097.66	87.501	5,097.66	85.6259	5,097.66	86.4131	5,097.66	83.2852	5,097.66	84.8261	5,097.66	80.6068	5,097.66	81.6909	5,097.66	78.6029	5,097.66	79.4979	5,097.66	76.8243	5,097.66	77.7958	5,097.66	74.8028	5,097.66	75.9939	5,097.66	71.9817	5,097.66	74.7835	5,097.66	70.8859	5,097.66	71.5709	5,097.66	66.9522	5,097.66	70.5053	5,097.66	64.7573	5,097.66	67.4955	5,097.66	64.1337	5,097.66	64.9012	5,097.66	60.0277	5,097.66	61.9758	5,097.66	57.2496	5,097.66	62.4126	5,097.66	56.0783	5,097.66	56.4833	5,097.66	55.8719	5,097.66	56.2928	5,097.66	52.9224	5,097.66	59.9633	5,097.66	54.7441
5,277.83	86.4342	5,277.83	85.9789	5,277.83	86.4313	5,277.83	84.3604	5,277.83	85.8633	5,277.83	82.4047	5,277.83	84.1004	5,277.83	80.5321	5,277.83	82.2321	5,277.83	79.2142	5,277.83	80.5359	5,277.83	76.7787	5,277.83	78.6517	5,277.83	74.8604	5,277.83	76.7826	5,277.83	73.5563	5,277.83	73.5674	5,277.83	70.9074	5,277.83	71.3325	5,277.83	68.3189	5,277.83	69.6452	5,277.83	67.6191	5,277.83	66.7602	5,277.83	63.6525	5,277.83	66.3507	5,277.83	62.779	5,277.83	62.953	5,277.83	54.4528	5,277.83	59.9001	5,277.83	57.4501	5,277.83	58.9909	5,277.83	57.5535	5,277.83	54.7452	5,277.83	51.5981	5,277.83	57.8347	5,277.83	51.3569
5,463.87	85.7638	5,463.87	85.1605	5,463.87	85.9188	5,463.87	84.239	5,463.87	85.0476	5,463.87	82.3265	5,463.87	83.6349	5,463.87	80.8516	5,463.87	82.0015	5,463.87	79.5451	5,463.87	80.3862	5,463.87	77.4428	5,463.87	78.6734	5,463.87	75.4562	5,463.87	76.5749	5,463.87	73.0068	5,463.87	74.5812	5,463.87	69.9994	5,463.87	71.7769	5,463.87	66.9274	5,463.87	69.4465	5,463.87	67.1179	5,463.87	65.7056	5,463.87	64.6122	5,463.87	66.7908	5,463.87	62.2248	5,463.87	63.0043	5,463.87	56.1179	5,463.87	61.0395	5,463.87	53.87	5,463.87	53.2851	5,463.87	52.2654	5,463.87	56.2443	5,463.87	48.4769	5,463.87	56.2547	5,463.87	58.6443
5,657.23	86.4173	5,657.23	85.5877	5,657.23	85.9766	5,657.23	83.9668	5,657.23	84.75	5,657.23	82.1838	5,657.23	83.1594	5,657.23	80.8843	5,657.23	81.7612	5,657.23	79.168	5,657.23	80.7353	5,657.23	76.3422	5,657.23	78.9021	5,657.23	73.6095	5,657.23	76.4407	5,657.23	71.3771	5,657.23	74.5006	5,657.23	68.5492	5,657.23	71.7723	5,657.23	65.7828	5,657.23	70.1355	5,657.23	64.2011	5,657.23	66.5287	5,657.23	64.4569	5,657.23	64.2654	5,657.23	62.1499	5,657.23	64.4891	5,657.23	53.4772	5,657.23	61.7869	5,657.23	57.8804	5,657.23	55.8736	5,657.23	53.064	5,657.23	59.6382	5,657.23	53.9326	5,657.23	50.5165	5,657.23	56.5924
5,856.45	86.7143	5,856.45	85.1744	5,856.45	86.5409	5,856.45	83.3159	5,856.45	84.4	5,856.45	82.3904	5,856.45	82.9461	5,856.45	81.4821	5,856.45	81.8117	5,856.45	80.1999	5,856.45	81.0704	5,856.45	78.3394	5,856.45	79.3335	5,856.45	74.9763	5,856.45	76.9357	5,856.45	71.9836	5,856.45	73.9987	5,856.45	70.0159	5,856.45	71.2756	5,856.45	66.5528	5,856.45	69.1378	5,856.45	65.0148	5,856.45	66.373	5,856.45	64.1531	5,856.45	64.3013	5,856.45	63.7008	5,856.45	62.4647	5,856.45	58.4251	5,856.45	58.5952	5,856.45	57.922	5,856.45	48.1473	5,856.45	48.3237	5,856.45	56.8937	5,856.45	50.4733	5,856.45	51.1604	5,856.45	58.0333
6,062.99	86.2286	6,062.99	84.8024	6,062.99	86.0521	6,062.99	83.187	6,062.99	84.5148	6,062.99	82.8393	6,062.99	83.2094	6,062.99	82.5454	6,062.99	83.075	6,062.99	81.1165	6,062.99	82.1296	6,062.99	77.9636	6,062.99	79.8769	6,062.99	74.4849	6,062.99	76.6006	6,062.99	72.2881	6,062.99	73.5849	6,062.99	69.3268	6,062.99	70.1018	6,062.99	66.0424	6,062.99	67.9444	6,062.99	62.4283	6,062.99	64.8041	6,062.99	61.0476	6,062.99	63.0297	6,062.99	62.2931	6,062.99	61.2664	6,062.99	57.679	6,062.99	61.1705	6,062.99	59.7674	6,062.99	54.1912	6,062.99	51.8243	6,062.99	56.8253	6,062.99	49.9627	6,062.99	48.9631	6,062.99	56.285
6,276.86	86.0604	6,276.86	84.634	6,276.86	85.9332	6,276.86	83.995	6,276.86	84.4047	6,276.86	84.1353	6,276.86	84.0224	6,276.86	83.1749	6,276.86	83.8062	6,276.86	81.1224	6,276.86	82.5649	6,276.86	78.0998	6,276.86	79.9436	6,276.86	75.0887	6,276.86	76.8982	6,276.86	72.608	6,276.86	74.1369	6,276.86	70.034	6,276.86	70.3086	6,276.86	67.1854	6,276.86	67.9629	6,276.86	65.5168	6,276.86	65.8235	6,276.86	60.781	6,276.86	63.7424	6,276.86	63.8954	6,276.86	63.7396	6,276.86	60.6395	6,276.86	61.5945	6,276.86	61.6424	6,276.86	55.5728	6,276.86	51.4449	6,276.86	60.1654	6,276.86	53.4439	6,276.86	51.3164	6,276.86	56.5603
6,498.05	86.2155	6,498.05	85.1626	6,498.05	86.1304	6,498.05	84.5411	6,498.05	85.0363	6,498.05	83.8257	6,498.05	84.2134	6,498.05	82.2386	6,498.05	83.6958	6,498.05	80.1228	6,498.05	82.2233	6,498.05	77.3654	6,498.05	79.6615	6,498.05	75.0269	6,498.05	77.1791	6,498.05	73.5052	6,498.05	75.2905	6,498.05	70.6338	6,498.05	71.6106	6,498.05	68.4644	6,498.05	69.6131	6,498.05	66.0975	6,498.05	67.8531	6,498.05	64.7602	6,498.05	64.9897	6,498.05	61.298	6,498.05	64.0391	6,498.05	60.3429	6,498.05	63.8917	6,498.05	61.2948	6,498.05	58.6808	6,498.05	48.2211	6,498.05	62.041	6,498.05	52.8319	6,498.05	58.4831	6,498.05	52.9962
6,726.56	85.9813	6,726.56	85.1017	6,726.56	85.9907	6,726.56	84.3137	6,726.56	84.995	6,726.56	82.9426	6,726.56	84.3047	6,726.56	81.4833	6,726.56	82.9432	6,726.56	79.7157	6,726.56	81.4955	6,726.56	77.74	6,726.56	79.8501	6,726.56	76.1636	6,726.56	77.8856	6,726.56	74.1505	6,726.56	75.5057	6,726.56	70.6609	6,726.56	72.5986	6,726.56	68.0808	6,726.56	70.6926	6,726.56	66.4089	6,726.56	68.1497	6,726.56	64.8529	6,726.56	64.7717	6,726.56	61.9671	6,726.56	63.4608	6,726.56	58.5983	6,726.56	62.7565	6,726.56	58.4167	6,726.56	59.5286	6,726.56	54.5509	6,726.56	59.8757	6,726.56	49.2158	6,726.56	55.7445	6,726.56	54.0626
6,963.87	85.3613	6,963.87	84.82	6,963.87	85.3343	6,963.87	83.9913	6,963.87	84.6473	6,963.87	82.7995	6,963.87	83.3286	6,963.87	81.8015	6,963.87	82.3835	6,963.87	80.4	6,963.87	80.9689	6,963.87	78.0016	6,963.87	79.3808	6,963.87	75.845	6,963.87	76.9577	6,963.87	73.3871	6,963.87	74.7747	6,963.87	69.5928	6,963.87	72.0885	6,963.87	67.4791	6,963.87	68.7113	6,963.87	64.045	6,963.87	67.1105	6,963.87	64.0701	6,963.87	64.8541	6,963.87	59.7634	6,963.87	62.2169	6,963.87	60.48	6,963.87	61.4333	6,963.87	57.1259	6,963.87	58.3106	6,963.87	46.5287	6,963.87	59.5845	6,963.87	50.4397	6,963.87	56.6032	6,963.87	53.6967
7,209.96	85.4327	7,209.96	85.1867	7,209.96	85.1221	7,209.96	84.0542	7,209.96	84.511	7,209.96	82.9304	7,209.96	83.6216	7,209.96	81.6964	7,209.96	82.3357	7,209.96	79.9357	7,209.96	80.8461	7,209.96	77.4689	7,209.96	79.1582	7,209.96	74.9536	7,209.96	76.722	7,209.96	72.0254	7,209.96	74.2448	7,209.96	68.8612	7,209.96	71.6316	7,209.96	67.5426	7,209.96	68.8295	7,209.96	64.8269	7,209.96	67.0552	7,209.96	63.4391	7,209.96	62.7377	7,209.96	60.6774	7,209.96	63.114	7,209.96	59.4307	7,209.96	58.0882	7,209.96	59.7346	7,209.96	57.6547	7,209.96	53.2398	7,209.96	57.6945	7,209.96	48.6527	7,209.96	54.5764	7,209.96	51.7822
7,464.84	84.7871	7,464.84	84.6076	7,464.84	84.9697	7,464.84	83.7307	7,464.84	84.173	7,464.84	82.3143	7,464.84	83.1876	7,464.84	81.3521	7,464.84	82.0452	7,464.84	79.8869	7,464.84	81.0822	7,464.84	77.432	7,464.84	79.0922	7,464.84	75.0966	7,464.84	76.4935	7,464.84	72.6401	7,464.84	74.2395	7,464.84	69.8753	7,464.84	71.6043	7,464.84	68.3467	7,464.84	68.7365	7,464.84	65.1691	7,464.84	66.6393	7,464.84	63.5958	7,464.84	64.0754	7,464.84	60.2061	7,464.84	62.6538	7,464.84	60.2813	7,464.84	60.4705	7,464.84	58.4162	7,464.84	57.8913	7,464.84	47.2863	7,464.84	58.5022	7,464.84	49.0627	7,464.84	55.7795	7,464.84	49.6156
7,727.05	84.5831	7,727.05	84.4619	7,727.05	84.6827	7,727.05	83.6574	7,727.05	84.1725	7,727.05	82.17	7,727.05	82.8699	7,727.05	81.3972	7,727.05	81.7516	7,727.05	79.6731	7,727.05	80.8687	7,727.05	77.0607	7,727.05	78.7277	7,727.05	74.4096	7,727.05	76.0225	7,727.05	72.0095	7,727.05	73.8953	7,727.05	68.8347	7,727.05	70.784	7,727.05	66.1044	7,727.05	67.8581	7,727.05	64.0465	7,727.05	65.445	7,727.05	63.7891	7,727.05	62.6361	7,727.05	57.4741	7,727.05	63.7173	7,727.05	58.2831	7,727.05	59.8319	7,727.05	55.4263	7,727.05	57.9437	7,727.05	46.0547	7,727.05	57.1806	7,727.05	51.4382	7,727.05	51.6973	7,727.05	48.4143
7,999.51	84.7565	7,999.51	84.5237	7,999.51	84.9958	7,999.51	83.6268	7,999.51	84.5481	7,999.51	81.8102	7,999.51	83.1406	7,999.51	81.1134	7,999.51	81.7977	7,999.51	79.5815	7,999.51	80.9351	7,999.51	76.7135	7,999.51	78.8554	7,999.51	73.7858	7,999.51	75.9476	7,999.51	70.8925	7,999.51	72.8556	7,999.51	67.9795	7,999.51	70.2719	7,999.51	65.1468	7,999.51	67.6452	7,999.51	62.0796	7,999.51	64.8011	7,999.51	62.7276	7,999.51	60.0962	7,999.51	55.5136	7,999.51	60.5712	7,999.51	57.1866	7,999.51	59.6704	7,999.51	54.2847	7,999.51	58.5411	7,999.51	43.1735	7,999.51	56.7575	7,999.51	50.7174	7,999.51	50.4116	7,999.51	51.5311
8,282.23	84.8286	8,282.23	84.7803	8,282.23	85.1251	8,282.23	84.0067	8,282.23	84.9727	8,282.23	81.897	8,282.23	83.5846	8,282.23	81.3275	8,282.23	82.3142	8,282.23	79.8655	8,282.23	81.3536	8,282.23	76.8498	8,282.23	79.2819	8,282.23	73.4628	8,282.23	76.3053	8,282.23	71.5376	8,282.23	72.5815	8,282.23	67.9492	8,282.23	70.7701	8,282.23	65.2907	8,282.23	67.3187	8,282.23	61.2359	8,282.23	66.1176	8,282.23	61.0917	8,282.23	61.7487	8,282.23	56.972	8,282.23	60.1519	8,282.23	57.3555	8,282.23	58.7222	8,282.23	53.7811	8,282.23	57.316	8,282.23	45.4832	8,282.23	58.2696	8,282.23	49.3325	8,282.23	53.3336	8,282.23	45.969
8,573.73	84.7297	8,573.73	85.0456	8,573.73	85.085	8,573.73	84.2237	8,573.73	85.4915	8,573.73	82.1139	8,573.73	84.1293	8,573.73	81.6717	8,573.73	83.0064	8,573.73	79.8541	8,573.73	81.9544	8,573.73	76.7669	8,573.73	79.9991	8,573.73	73.1038	8,573.73	76.9531	8,573.73	71.536	8,573.73	73.9494	8,573.73	67.4968	8,573.73	71.6493	8,573.73	65.5015	8,573.73	68.3972	8,573.73	61.5167	8,573.73	65.9998	8,573.73	60.622	8,573.73	60.9041	8,573.73	57.0441	8,573.73	60.7195	8,573.73	58.1192	8,573.73	58.8369	8,573.73	53.4021	8,573.73	57.7877	8,573.73	43.6861	8,573.73	57.4671	8,573.73	47.8224	8,573.73	49.3533	8,573.73	46.2505
8,876.95	85.0118	8,876.95	85.0819	8,876.95	85.4647	8,876.95	84.0036	8,876.95	85.5816	8,876.95	81.9956	8,876.95	84.2924	8,876.95	81.3389	8,876.95	83.1608	8,876.95	79.5058	8,876.95	82.0458	8,876.95	76.1452	8,876.95	79.9668	8,876.95	72.5137	8,876.95	76.8315	8,876.95	70.514	8,876.95	73.7908	8,876.95	67.3575	8,876.95	71.5571	8,876.95	65.3589	8,876.95	67.698	8,876.95	60.6363	8,876.95	66.2294	8,876.95	56.7457	8,876.95	60.1777	8,876.95	58.2976	8,876.95	60.8836	8,876.95	57.1146	8,876.95	58.4369	8,876.95	49.5855	8,876.95	55.8074	8,876.95	33.8467	8,876.95	57.3112	8,876.95	46.6367	8,876.95	50.6279	8,876.95	48.5661
9,188.96	85.1359	9,188.96	85.1117	9,188.96	85.3631	9,188.96	84.0448	9,188.96	85.0433	9,188.96	82.0515	9,188.96	83.7886	9,188.96	80.919	9,188.96	82.7654	9,188.96	78.9411	9,188.96	81.3482	9,188.96	75.5733	9,188.96	79.1263	9,188.96	72.5107	9,188.96	75.9257	9,188.96	70.1429	9,188.96	72.8023	9,188.96	66.5583	9,188.96	70.1877	9,188.96	63.7024	9,188.96	66.6301	9,188.96	60.9451	9,188.96	65.3901	9,188.96	59.6897	9,188.96	59.6253	9,188.96	56.4347	9,188.96	59.8667	9,188.96	57.749	9,188.96	58.1751	9,188.96	45.6314	9,188.96	54.9452	9,188.96	42.6901	9,188.96	53.4955	9,188.96	46.2683	9,188.96	43.5233	9,188.96	50.4359
9,514.16	85.2912	9,514.16	85.2228	9,514.16	85.4073	9,514.16	84.2414	9,514.16	85.2701	9,514.16	82.2623	9,514.16	84.1873	9,514.16	80.6391	9,514.16	82.5767	9,514.16	78.3564	9,514.16	80.6342	9,514.16	75.3398	9,514.16	78.4593	9,514.16	71.9727	9,514.16	75.5307	9,514.16	69.4769	9,514.16	71.8969	9,514.16	66.0893	9,514.16	69.6594	9,514.16	62.8526	9,514.16	66.1049	9,514.16	60.8073	9,514.16	64.1749	9,514.16	57.9546	9,514.16	59.7696	9,514.16	53.4571	9,514.16	58.4001	9,514.16	54.9366	9,514.16	58.5228	9,514.16	46.262	9,514.16	54.2705	9,514.16	34.539	9,514.16	53.0822	9,514.16	50.249	9,514.16	46.2763	9,514.16	49.2511
9,849.61	85.497	9,849.61	85.3712	9,849.61	85.5816	9,849.61	84.474	9,849.61	85.4312	9,849.61	82.2165	9,849.61	84.2079	9,849.61	80.3893	9,849.61	82.1743	9,849.61	78.2154	9,849.61	80.1094	9,849.61	74.802	9,849.61	77.7653	9,849.61	71.0304	9,849.61	74.508	9,849.61	68.6705	9,849.61	71.1674	9,849.61	65.4902	9,849.61	68.8729	9,849.61	62.4908	9,849.61	65.6391	9,849.61	59.1538	9,849.61	62.6306	9,849.61	57.4648	9,849.61	59.1794	9,849.61	52.2948	9,849.61	57.9121	9,849.61	54.1323	9,849.61	57.7881	9,849.61	43.6801	9,849.61	54.6589	9,849.61	48.538	9,849.61	49.9789	9,849.61	50.4476	9,849.61	43.389	9,849.61	45.8216
10,196.8	85.958	10,196.8	85.6374	10,196.8	85.9016	10,196.8	84.8879	10,196.8	85.595	10,196.8	82.6018	10,196.8	84.5046	10,196.8	80.4579	10,196.8	82.1215	10,196.8	77.9627	10,196.8	79.8995	10,196.8	74.1043	10,196.8	77.425	10,196.8	70.2288	10,196.8	73.8172	10,196.8	68.1076	10,196.8	69.8222	10,196.8	65.1044	10,196.8	67.0254	10,196.8	61.8623	10,196.8	64.6552	10,196.8	59.0416	10,196.8	60.4021	10,196.8	56.8883	10,196.8	58.9719	10,196.8	51.2823	10,196.8	56.0621	10,196.8	55.1389	10,196.8	56.0857	10,196.8	39.7976	10,196.8	54.4826	10,196.8	44.5534	10,196.8	47.8227	10,196.8	50.4476	10,196.8	45.0682	10,196.8	46.2557
10,555.7	86.5158	10,555.7	86.0557	10,555.7	86.4205	10,555.7	85.6202	10,555.7	86.1262	10,555.7	82.925	10,555.7	85.0825	10,555.7	80.6905	10,555.7	82.3923	10,555.7	78.0588	10,555.7	80.022	10,555.7	74.2283	10,555.7	77.5053	10,555.7	70.2053	10,555.7	73.4532	10,555.7	67.4539	10,555.7	69.5172	10,555.7	64.007	10,555.7	66.688	10,555.7	61.6213	10,555.7	63.8911	10,555.7	58.9351	10,555.7	59.7483	10,555.7	54.8207	10,555.7	58.881	10,555.7	51.8087	10,555.7	53.3871	10,555.7	54.7357	10,555.7	54.657	10,555.7	45.223	10,555.7	51.0814	10,555.7	48.7248	10,555.7	51.4427	10,555.7	50.1265	10,555.7	48.1392	10,555.7	43.1362
10,927.7	87.188	10,927.7	86.5967	10,927.7	87.1343	10,927.7	85.9663	10,927.7	86.7589	10,927.7	82.748	10,927.7	85.4851	10,927.7	80.7465	10,927.7	82.8207	10,927.7	77.6916	10,927.7	80.3696	10,927.7	73.7347	10,927.7	77.456	10,927.7	69.6659	10,927.7	73.4484	10,927.7	66.9695	10,927.7	69.6568	10,927.7	64.377	10,927.7	67.0589	10,927.7	60.7832	10,927.7	65.0009	10,927.7	58.5396	10,927.7	59.9854	10,927.7	52.2159	10,927.7	59.1428	10,927.7	49.7303	10,927.7	54.3649	10,927.7	52.7608	10,927.7	53.2996	10,927.7	46.0832	10,927.7	50.3184	10,927.7	49.1627	10,927.7	50.956	10,927.7	46.2709	10,927.7	47.6574	10,927.7	45.9598
11,313	87.4065	11,313	86.9386	11,313	87.391	11,313	85.8747	11,313	87.0693	11,313	82.7454	11,313	85.3936	11,313	80.436	11,313	82.9324	11,313	76.6784	11,313	80.0288	11,313	72.6565	11,313	76.5011	11,313	68.8727	11,313	72.4321	11,313	65.9707	11,313	68.6273	11,313	63.9328	11,313	65.6327	11,313	59.9137	11,313	64.4608	11,313	58.2455	11,313	59.1009	11,313	50.1492	11,313	58.805	11,313	51.1	11,313	54.0977	11,313	51.8755	11,313	50.6949	11,313	45.0228	11,313	48.6508	11,313	49.8332	11,313	48.3794	11,313	47.4745	11,313	49.7598	11,313	43.3778
11,712.9	87.0891	11,712.9	86.796	11,712.9	87.0765	11,712.9	85.5381	11,712.9	86.7208	11,712.9	82.4241	11,712.9	84.9555	11,712.9	80.0713	11,712.9	82.3772	11,712.9	76.0856	11,712.9	79.3855	11,712.9	71.7381	11,712.9	75.5587	11,712.9	67.7325	11,712.9	71.7741	11,712.9	64.8754	11,712.9	67.6414	11,712.9	62.9475	11,712.9	64.77	11,712.9	58.3392	11,712.9	63.9732	11,712.9	58.164	11,712.9	57.7498	11,712.9	47.0442	11,712.9	58.894	11,712.9	46.2521	11,712.9	53.3497	11,712.9	49.3551	11,712.9	48.4097	11,712.9	43.2015	11,712.9	45.662	11,712.9	46.6774	11,712.9	43.3394	11,712.9	33.6983	11,712.9	49.0216	11,712.9	46.3749
12,126	87.1386	12,126	86.7346	12,126	87.0182	12,126	85.3727	12,126	86.4742	12,126	81.949	12,126	84.5219	12,126	79.359	12,126	81.7117	12,126	75.7397	12,126	78.5479	12,126	72.3731	12,126	75.4697	12,126	68.7368	12,126	71.7413	12,126	65.1162	12,126	67.2275	12,126	62.9569	12,126	63.5328	12,126	58.7977	12,126	63.1606	12,126	57.7286	12,126	56.5101	12,126	43.2828	12,126	57.5748	12,126	48.41	12,126	51.0444	12,126	49.0754	12,126	46.2819	12,126	44.9348	12,126	40.5121	12,126	43.9824	12,126	28.0654	12,126	40.5831	12,126	46.8872	12,126	43.2139
12,553.7	87.7202	12,553.7	87.1401	12,553.7	87.5686	12,553.7	85.6982	12,553.7	86.9085	12,553.7	82.2753	12,553.7	84.8894	12,553.7	79.435	12,553.7	81.9474	12,553.7	75.9949	12,553.7	78.6027	12,553.7	71.6967	12,553.7	75.5498	12,553.7	67.1286	12,553.7	71.5818	12,553.7	62.8626	12,553.7	67.3636	12,553.7	62.1915	12,553.7	63.4892	12,553.7	57.5507	12,553.7	63.179	12,553.7	57.5456	12,553.7	58.1066	12,553.7	46.3945	12,553.7	58.4182	12,553.7	51.7813	12,553.7	50.2483	12,553.7	47.5977	12,553.7	49.447	12,553.7	42.8066	12,553.7	38.4308	12,553.7	41.0482	12,553.7	41.7036	12,553.7	43.6857	12,553.7	45.1866	12,553.7	37.4083
12,996.1	88.0866	12,996.1	87.3543	12,996.1	87.9645	12,996.1	85.7551	12,996.1	87.1968	12,996.1	82.3026	12,996.1	85.0985	12,996.1	79.1506	12,996.1	82.0933	12,996.1	75.3194	12,996.1	78.5189	12,996.1	70.4372	12,996.1	74.677	12,996.1	66.7859	12,996.1	69.7497	12,996.1	62.7262	12,996.1	65.3478	12,996.1	61.0307	12,996.1	60.6466	12,996.1	58.905	12,996.1	60.613	12,996.1	56.5582	12,996.1	56.7353	12,996.1	50.686	12,996.1	56.6829	12,996.1	53.1105	12,996.1	49.9977	12,996.1	47.8112	12,996.1	49.2226	12,996.1	37.3113	12,996.1	41.0497	12,996.1	36.5555	12,996.1	35.5071	12,996.1	44.6493	12,996.1	43.6969	12,996.1	38.9669
13,454.6	88.0338	13,454.6	87.2504	13,454.6	87.8624	13,454.6	85.4716	13,454.6	86.9312	13,454.6	81.909	13,454.6	84.651	13,454.6	78.3942	13,454.6	81.4742	13,454.6	73.9215	13,454.6	77.423	13,454.6	68.8313	13,454.6	72.7235	13,454.6	66.6439	13,454.6	66.2791	13,454.6	62.1745	13,454.6	63.1882	13,454.6	60.3165	13,454.6	57.3059	13,454.6	58.1786	13,454.6	56.7642	13,454.6	56.4011	13,454.6	53.8171	13,454.6	49.5482	13,454.6	51.588	13,454.6	50.7223	13,454.6	46.6153	13,454.6	45.8601	13,454.6	44.9454	13,454.6	41.2034	13,454.6	45.8702	13,454.6	38.1204	13,454.6	39.3111	13,454.6	43.9415	13,454.6	44.8625	13,454.6	38.6934
13,929.2	87.8622	13,929.2	86.8919	13,929.2	87.7107	13,929.2	84.9498	13,929.2	86.5443	13,929.2	80.9058	13,929.2	83.9209	13,929.2	76.7833	13,929.2	80.2053	13,929.2	71.0059	13,929.2	75.777	13,929.2	64.612	13,929.2	69.3851	13,929.2	62.4166	13,929.2	64.1114	13,929.2	58.1656	13,929.2	61.3658	13,929.2	54.6593	13,929.2	56.3375	13,929.2	53.8797	13,929.2	53.062	13,929.2	51.5396	13,929.2	53.567	13,929.2	44.8738	13,929.2	46.9386	13,929.2	48.933	13,929.2	42.1376	13,929.2	43.9006	13,929.2	42.2877	13,929.2	41.4365	13,929.2	41.3942	13,929.2	26.4136	13,929.2	39.3911	13,929.2	41.3217	13,929.2	44.9583	13,929.2	41.6278
14,419.9	87.7572	14,419.9	86.6752	14,419.9	87.576	14,419.9	84.3438	14,419.9	86.2531	14,419.9	79.8141	14,419.9	83.1356	14,419.9	75.0504	14,419.9	78.8831	14,419.9	67.2225	14,419.9	73.3339	14,419.9	59.7024	14,419.9	66.1223	14,419.9	56.2768	14,419.9	56.5473	14,419.9	52.62	14,419.9	50.1222	14,419.9	45.5304	14,419.9	46.1869	14,419.9	53.2011	14,419.9	42.5201	14,419.9	37.6631	14,419.9	47.6383	14,419.9	49.2226	14,419.9	38.9382	14,419.9	47.8813	14,419.9	37.7618	14,419.9	37.6567	14,419.9	34.4787	14,419.9	41.4979	14,419.9	45.4681	14,419.9	27.4205	14,419.9	43.6752	14,419.9	41.5343	14,419.9	46.5041	14,419.9	37.6104
14,928.2	87.7541	14,928.2	86.6775	14,928.2	87.6212	14,928.2	83.8708	14,928.2	86.2218	14,928.2	78.5184	14,928.2	82.8257	14,928.2	72.4903	14,928.2	77.5945	14,928.2	61.7841	14,928.2	70.287	14,928.2	53.7438	14,928.2	54.4447	14,928.2	58.7479	14,928.2	56.4113	14,928.2	57.2555	14,928.2	54.7847	14,928.2	52.3056	14,928.2	58.0103	14,928.2	54.3177	14,928.2	51.7845	14,928.2	45.5945	14,928.2	50.252	14,928.2	51.3001	14,928.2	49.0315	14,928.2	46.7121	14,928.2	45.2081	14,928.2	40.2812	14,928.2	38.8163	14,928.2	35.0842	14,928.2	39.1302	14,928.2	35.8039	14,928.2	41.1316	14,928.2	38.7092	14,928.2	45.6903	14,928.2	41.6149
15,455.6	87.6067	15,455.6	86.5187	15,455.6	87.5082	15,455.6	83.497	15,455.6	85.992	15,455.6	77.1567	15,455.6	82.146	15,455.6	68.9698	15,455.6	75.8047	15,455.6	57.3202	15,455.6	63.0919	15,455.6	63.4743	15,455.6	59.622	15,455.6	62.2341	15,455.6	62.3499	15,455.6	60.3213	15,455.6	61.1293	15,455.6	57.1542	15,455.6	58.5792	15,455.6	53.0016	15,455.6	55.8125	15,455.6	51.3554	15,455.6	53.9288	15,455.6	51.7925	15,455.6	51.3793	15,455.6	44.3103	15,455.6	46.9034	15,455.6	37.3173	15,455.6	43.0328	15,455.6	36.6646	15,455.6	42.1389	15,455.6	43.2685	15,455.6	39.1564	15,455.6	40.042	15,455.6	48.3335	15,455.6	47.0413
16,000.5	87.1327	16,000.5	85.8113	16,000.5	87.0312	16,000.5	82.6351	16,000.5	85.3209	16,000.5	76.3112	16,000.5	80.9948	16,000.5	68.1969	16,000.5	73.4137	16,000.5	69.5492	16,000.5	61.3587	16,000.5	68.4464	16,000.5	67.2622	16,000.5	66.4703	16,000.5	67.6674	16,000.5	63.7373	16,000.5	65.7751	16,000.5	59.9138	16,000.5	62.7078	16,000.5	55.7164	16,000.5	58.6894	16,000.5	55.5879	16,000.5	58.046	16,000.5	51.8766	16,000.5	54.2896	16,000.5	48.473	16,000.5	45.2397	16,000.5	37.3102	16,000.5	46.2088	16,000.5	42.4421	16,000.5	40.5092	16,000.5	41.9116	16,000.5	44.0808	16,000.5	33.9517	16,000.5	48.026	16,000.5	46.0816
16,564.5	87.0727	16,564.5	85.7513	16,564.5	86.9204	16,564.5	82.9196	16,564.5	85.1323	16,564.5	77.4961	16,564.5	80.8366	16,564.5	70.7972	16,564.5	74.0995	16,564.5	67.2984	16,564.5	68.3541	16,564.5	64.3773	16,564.5	68.4044	16,564.5	63.0955	16,564.5	67.903	16,564.5	61.22	16,564.5	65.0618	16,564.5	57.6119	16,564.5	63.1483	16,564.5	54.1416	16,564.5	59.9826	16,564.5	50.6423	16,564.5	57.2603	16,564.5	52.2576	16,564.5	53.4864	16,564.5	45.5617	16,564.5	44.0548	16,564.5	40.2275	16,564.5	46.9362	16,564.5	42.201	16,564.5	45.1089	16,564.5	43.7882	16,564.5	46.3886	16,564.5	12.8111	16,564.5	51.6771	16,564.5	50.186
17,148.9	87.364	17,148.9	85.908	17,148.9	87.187	17,148.9	82.84	17,148.9	85.2556	17,148.9	76.7635	17,148.9	81.0556	17,148.9	69.5726	17,148.9	74.5794	17,148.9	64.0837	17,148.9	69.2498	17,148.9	62.6126	17,148.9	66.8498	17,148.9	62.1772	17,148.9	66.5704	17,148.9	61.6567	17,148.9	63.7935	17,148.9	57.9276	17,148.9	59.0042	17,148.9	55.1208	17,148.9	56.9829	17,148.9	49.3321	17,148.9	54.9229	17,148.9	51.4407	17,148.9	51.9024	17,148.9	46.831	17,148.9	37.6155	17,148.9	37.1735	17,148.9	41.6945	17,148.9	40.4992	17,148.9	42.2754	17,148.9	42.3046	17,148.9	46.7789	17,148.9	30.1672	17,148.9	50.407	17,148.9	45.8892
17,752.4	87.5628	17,752.4	86.0799	17,752.4	87.2836	17,752.4	82.554	17,752.4	85.3251	17,752.4	74.4879	17,752.4	80.709	17,752.4	64.1139	17,752.4	72.6462	17,752.4	65.3615	17,752.4	65.1825	17,752.4	67.6066	17,752.4	65.7545	17,752.4	65.7316	17,752.4	65.2428	17,752.4	64.0321	17,752.4	63.0396	17,752.4	59.0432	17,752.4	59.7219	17,752.4	56.0419	17,752.4	56.2995	17,752.4	52.7704	17,752.4	53.3238	17,752.4	51.6951	17,752.4	52.2625	17,752.4	40.5954	17,752.4	45.5995	17,752.4	35.2012	17,752.4	45.0497	17,752.4	40.8704	17,752.4	34.1021	17,752.4	42.6461	17,752.4	42.6724	17,752.4	29.8862	17,752.4	46.7697	17,752.4	44.489
18,379.4	87.1144	18,379.4	85.6022	18,379.4	86.8183	18,379.4	81.8326	18,379.4	84.6836	18,379.4	72.245	18,379.4	79.2852	18,379.4	65.4305	18,379.4	69.5304	18,379.4	70.4469	18,379.4	61.9438	18,379.4	70.4797	18,379.4	66.5524	18,379.4	67.8692	18,379.4	65.1956	18,379.4	65.5418	18,379.4	60.5103	18,379.4	61.0614	18,379.4	59.0022	18,379.4	57.4594	18,379.4	54.552	18,379.4	55.7635	18,379.4	53.5163	18,379.4	50.177	18,379.4	48.4706	18,379.4	45.7637	18,379.4	39.6825	18,379.4	29.026	18,379.4	45.1571	18,379.4	41.4099	18,379.4	35.7457	18,379.4	43.007	18,379.4	35.8993	18,379.4	34.8134	18,379.4	43.1732	18,379.4	42.9234
19,026.9	86.2394	19,026.9	84.8197	19,026.9	85.9638	19,026.9	80.6341	19,026.9	83.6554	19,026.9	71.502	19,026.9	77.1626	19,026.9	68.3747	19,026.9	64.4059	19,026.9	71.7224	19,026.9	65.3577	19,026.9	70.8066	19,026.9	67.871	19,026.9	67.8816	19,026.9	66.2972	19,026.9	64.833	19,026.9	61.3991	19,026.9	61.4428	19,026.9	59.5732	19,026.9	57.1491	19,026.9	56.0769	19,026.9	56.0951	19,026.9	53.5001	19,026.9	49.2126	19,026.9	49.7196	19,026.9	45.1474	19,026.9	22.7636	19,026.9	22.4569	19,026.9	36.6641	19,026.9	40.6642	19,026.9	47.785	19,026.9	41.2698	19,026.9	40.3125	19,026.9	37.9264	19,026.9	42.1595	19,026.9	36.1099
19,697.8	85.8002	19,697.8	84.281	19,697.8	85.1765	19,697.8	79.4733	19,697.8	82.6775	19,697.8	70.1478	19,697.8	75.7281	19,697.8	70.8	19,697.8	64.3694	19,697.8	72.8541	19,697.8	66.8159	19,697.8	71.8138	19,697.8	68.413	19,697.8	68.4749	19,697.8	66.4113	19,697.8	64.6937	19,697.8	61.6143	19,697.8	60.3462	19,697.8	57.3402	19,697.8	58.5199	19,697.8	54.0816	19,697.8	55.4651	19,697.8	53.67	19,697.8	48.8269	19,697.8	51.2135	19,697.8	49.4801	19,697.8	40.287	19,697.8	34.9704	19,697.8	35.5677	19,697.8	39.161	19,697.8	48.1689	19,697.8	39.6845	19,697.8	35.6764	19,697.8	41.2575	19,697.8	47.937	19,697.8	41.0818
19,999.5	85.3547	19,999.5	83.8056	19,999.5	84.8371	19,999.5	78.9754	19,999.5	82.0506	19,999.5	69.4723	19,999.5	74.8583	19,999.5	71.9541	19,999.5	64.8272	19,999.5	73.4607	19,999.5	66.4232	19,999.5	72.3316	19,999.5	67.3275	19,999.5	68.3277	19,999.5	65.244	19,999.5	65.1507	19,999.5	61.4887	19,999.5	59.9106	19,999.5	57.3444	19,999.5	59.6145	19,999.5	49.1553	19,999.5	55.443	19,999.5	53.1002	19,999.5	49.8807	19,999.5	55.4828	19,999.5	49.6719	19,999.5	37.7906	19,999.5	40.6675	19,999.5	41.8889	19,999.5	41.5255	19,999.5	49.9718	19,999.5	48.0335	19,999.5	45.3811	19,999.5	44.7006	19,999.5	51.4654	19,999.5	48.2304
