"SPL Vertical"																																																																							
"On-Axis"		"10°"		"-10°"		"20°"		"-20°"		"30°"		"-30°"		"40°"		"-40°"		"50°"		"-50°"		"60°"		"-60°"		"70°"		"-70°"		"80°"		"-80°"		"90°"		"-90°"		"100°"		"-100°"		"110°"		"-110°"		"120°"		"-120°"		"130°"		"-130°"		"140°"		"-140°"		"150°"		"-150°"		"160°"		"-160°"		"170°"		"-170°"		"180°"	
"Frequency [Hz]"	"Sound Pessure Level [dB]  / [2.83V 1m] "	"Frequency [Hz]"	"Sound Pessure Level [dB]  / [2.83V 1m] "	"Frequency [Hz]"	"Sound Pessure Level [dB]  / [2.83V 1m] "	"Frequency [Hz]"	"Sound Pessure Level [dB]  / [2.83V 1m] "	"Frequency [Hz]"	"Sound Pessure Level [dB]  / [2.83V 1m] "	"Frequency [Hz]"	"Sound Pessure Level [dB]  / [2.83V 1m] "	"Frequency [Hz]"	"Sound Pessure Level [dB]  / [2.83V 1m] "	"Frequency [Hz]"	"Sound Pessure Level [dB]  / [2.83V 1m] "	"Frequency [Hz]"	"Sound Pessure Level [dB]  / [2.83V 1m] "	"Frequency [Hz]"	"Sound Pessure Level [dB]  / [2.83V 1m] "	"Frequency [Hz]"	"Sound Pessure Level [dB]  / [2.83V 1m] "	"Frequency [Hz]"	"Sound Pessure Level [dB]  / [2.83V 1m] "	"Frequency [Hz]"	"Sound Pessure Level [dB]  / [2.83V 1m] "	"Frequency [Hz]"	"Sound Pessure Level [dB]  / [2.83V 1m] "	"Frequency [Hz]"	"Sound Pessure Level [dB]  / [2.83V 1m] "	"Frequency [Hz]"	"Sound Pessure Level [dB]  / [2.83V 1m] "	"Frequency [Hz]"	"Sound Pessure Level [dB]  / [2.83V 1m] "	"Frequency [Hz]"	"Sound Pessure Level [dB]  / [2.83V 1m] "	"Frequency [Hz]"	"Sound Pessure Level [dB]  / [2.83V 1m] "	"Frequency [Hz]"	"Sound Pessure Level [dB]  / [2.83V 1m] "	"Frequency [Hz]"	"Sound Pessure Level [dB]  / [2.83V 1m] "	"Frequency [Hz]"	"Sound Pessure Level [dB]  / [2.83V 1m] "	"Frequency [Hz]"	"Sound Pessure Level [dB]  / [2.83V 1m] "	"Frequency [Hz]"	"Sound Pessure Level [dB]  / [2.83V 1m] "	"Frequency [Hz]"	"Sound Pessure Level [dB]  / [2.83V 1m] "	"Frequency [Hz]"	"Sound Pessure Level [dB]  / [2.83V 1m] "	"Frequency [Hz]"	"Sound Pessure Level [dB]  / [2.83V 1m] "	"Frequency [Hz]"	"Sound Pessure Level [dB]  / [2.83V 1m] "	"Frequency [Hz]"	"Sound Pessure Level [dB]  / [2.83V 1m] "	"Frequency [Hz]"	"Sound Pessure Level [dB]  / [2.83V 1m] "	"Frequency [Hz]"	"Sound Pessure Level [dB]  / [2.83V 1m] "	"Frequency [Hz]"	"Sound Pessure Level [dB]  / [2.83V 1m] "	"Frequency [Hz]"	"Sound Pessure Level [dB]  / [2.83V 1m] "	"Frequency [Hz]"	"Sound Pessure Level [dB]  / [2.83V 1m] "	"Frequency [Hz]"	"Sound Pessure Level [dB]  / [2.83V 1m] "	"Frequency [Hz]"	"Sound Pessure Level [dB]  / [2.83V 1m] "
20.5078	44.7243	20.5078	44.4686	20.5078	44.8754	20.5078	44.1103	20.5078	44.9376	20.5078	43.6767	20.5078	44.9439	20.5078	43.239	20.5078	44.9481	20.5078	42.9359	20.5078	45.0273	20.5078	42.9679	20.5078	45.2724	20.5078	43.504	20.5078	45.759	20.5078	44.5419	20.5078	46.509	20.5078	45.9063	20.5078	47.4764	20.5078	47.3875	20.5078	48.5713	20.5078	48.8354	20.5078	49.6987	20.5078	50.1646	20.5078	50.7812	20.5078	51.3305	20.5078	51.7629	20.5078	52.3091	20.5078	52.6052	20.5078	53.0863	20.5078	53.2809	20.5078	53.6534	20.5078	53.7707	20.5078	54.0054	20.5078	54.0604	20.5078	54.1405
21.9727	48.3113	21.9727	48.1144	21.9727	48.4564	21.9727	47.8825	21.9727	48.5524	21.9727	47.6572	21.9727	48.619	21.9727	47.5113	21.9727	48.6929	21.9727	47.5444	21.9727	48.8271	21.9727	47.8555	21.9727	49.0835	21.9727	48.4917	21.9727	49.5167	21.9727	49.4159	21.9727	50.151	21.9727	50.5282	21.9727	50.9668	21.9727	51.7164	21.9727	51.908	21.9727	52.8886	21.9727	52.9032	21.9727	53.9806	21.9727	53.8848	21.9727	54.9497	21.9727	54.7977	21.9727	55.7671	21.9727	55.6005	21.9727	56.4126	21.9727	56.2623	21.9727	56.8728	21.9727	56.7607	21.9727	57.1389	21.9727	57.0793	21.9727	57.2074
23.4375	50.3727	23.4375	50.2052	23.4375	50.4624	23.4375	49.9709	23.4375	50.4768	23.4375	49.6995	23.4375	50.432	23.4375	49.4471	23.4375	50.3594	23.4375	49.3026	23.4375	50.3104	23.4375	49.3776	23.4375	50.3564	23.4375	49.7658	23.4375	50.5772	23.4375	50.4866	23.4375	51.0323	23.4375	51.4689	23.4375	51.7297	23.4375	52.5933	23.4375	52.6175	23.4375	53.7458	23.4375	53.6095	23.4375	54.8412	23.4375	54.6171	23.4375	55.8232	23.4375	55.5682	23.4375	56.6551	23.4375	56.4104	23.4375	57.3129	23.4375	57.1072	23.4375	57.7807	23.4375	57.6335	23.4375	58.0487	23.4375	57.9722	23.4375	58.1124
24.9023	51.7728	24.9023	51.64	24.9023	51.8341	24.9023	51.4451	24.9023	51.826	24.9023	51.2124	24.9023	51.7617	24.9023	50.9864	24.9023	51.6684	24.9023	50.837	24.9023	51.5903	24.9023	50.8545	24.9023	51.5904	24.9023	51.1237	24.9023	51.7417	24.9023	51.6823	24.9023	52.1053	24.9023	52.4945	24.9023	52.6999	24.9023	53.4703	24.9023	53.4891	24.9023	54.5071	24.9023	54.3973	24.9023	55.5187	24.9023	55.3391	24.9023	56.443	24.9023	56.2402	24.9023	57.2374	24.9023	57.0446	24.9023	57.8731	24.9023	57.7126	24.9023	58.3307	24.9023	58.2167	24.9023	58.5976	24.9023	58.5386	24.9023	58.6672
26.3672	53.1358	26.3672	53.0487	26.3672	53.1664	26.3672	52.9136	26.3672	53.1418	26.3672	52.7506	26.3672	53.0735	26.3672	52.5944	26.3672	52.9851	26.3672	52.4968	26.3672	52.9148	26.3672	52.5225	26.3672	52.916	26.3672	52.7353	26.3672	53.05	26.3672	53.172	26.3672	53.3688	26.3672	53.8227	26.3672	53.8914	26.3672	54.6326	26.3672	54.592	26.3672	55.5242	26.3672	55.4089	26.3672	56.4213	26.3672	56.2672	26.3672	57.2612	26.3672	57.0979	26.3672	57.9967	26.3672	57.8456	26.3672	58.594	26.3672	58.4697	26.3672	59.0292	26.3672	58.9414	26.3672	59.2867	26.3672	59.2413	26.3672	59.358
27.832	53.9504	27.832	53.8702	27.832	53.9804	27.832	53.7457	27.832	53.9636	27.832	53.5942	27.832	53.9133	27.832	53.4468	27.832	53.8539	27.832	53.3504	27.832	53.8226	27.832	53.366	27.832	53.8679	27.832	53.555	27.832	54.0424	27.832	53.9571	27.832	54.3868	27.832	54.5687	27.832	54.9119	27.832	55.3422	27.832	55.5914	27.832	56.205	27.832	56.37	27.832	57.0826	27.832	57.1816	27.832	57.9118	27.832	57.9642	27.832	58.6446	27.832	58.6671	27.832	59.2455	27.832	59.2513	27.832	59.6901	27.832	59.6887	27.832	59.962	27.832	59.9597	27.832	60.0525
29.2969	55.828	29.2969	55.7457	29.2969	55.8724	29.2969	55.6294	29.2969	55.8816	29.2969	55.4903	29.2969	55.8647	29.2969	55.3479	29.2969	55.8382	29.2969	55.232	29.2969	55.826	29.2969	55.1814	29.2969	55.8597	29.2969	55.2396	29.2969	55.974	29.2969	55.4443	29.2969	56.2001	29.2969	55.8134	29.2969	56.5548	29.2969	56.3364	29.2969	57.0326	29.2969	56.9754	29.2969	57.6046	29.2969	57.6764	29.2969	58.2256	29.2969	58.3819	29.2969	58.8443	29.2969	59.0397	29.2969	59.4117	29.2969	59.6064	29.2969	59.8862	29.2969	60.0483	29.2969	60.2352	29.2969	60.3416	29.2969	60.4351	29.2969	60.4722
30.7617	56.5257	30.7617	56.4623	30.7617	56.5664	30.7617	56.3812	30.7617	56.5863	30.7617	56.2935	30.7617	56.5932	30.7617	56.2177	30.7617	56.6017	30.7617	56.1794	30.7617	56.633	30.7617	56.2094	30.7617	56.7137	30.7617	56.339	30.7617	56.8719	30.7617	56.5926	30.7617	57.1308	30.7617	56.9785	30.7617	57.5009	30.7617	57.485	30.7617	57.9745	30.7617	58.0812	30.7617	58.5258	30.7617	58.7245	30.7617	59.1158	30.7617	59.3681	30.7617	59.7004	30.7617	59.9673	30.7617	60.2365	30.7617	60.4831	30.7617	60.6867	30.7617	60.8842	30.7617	61.0205	30.7617	61.1478	30.7617	61.2161	30.7617	61.26
32.2266	58.0067	32.2266	57.9556	32.2266	58.0385	32.2266	57.887	32.2266	58.0535	32.2266	57.8076	32.2266	58.0584	32.2266	57.7293	32.2266	58.0646	32.2266	57.6693	32.2266	58.0872	32.2266	57.6506	32.2266	58.1452	32.2266	57.6987	32.2266	58.2586	32.2266	57.8386	32.2266	58.4449	32.2266	58.0869	32.2266	58.7148	32.2266	58.4467	32.2266	59.0674	32.2266	58.9028	32.2266	59.4883	32.2266	59.4244	32.2266	59.9508	32.2266	59.9703	32.2266	60.4205	32.2266	60.4964	32.2266	60.8602	32.2266	60.9615	32.2266	61.2344	32.2266	61.3315	32.2266	61.5125	32.2266	61.5813	32.2266	61.6714	32.2266	61.6961
33.6914	59.5237	33.6914	59.4691	33.6914	59.5583	33.6914	59.3959	33.6914	59.5749	33.6914	59.309	33.6914	59.5787	33.6914	59.2174	33.6914	59.5783	33.6914	59.1349	33.6914	59.5855	33.6914	59.0803	33.6914	59.6154	33.6914	59.0761	33.6914	59.6846	33.6914	59.1461	33.6914	59.8096	33.6914	59.3098	33.6914	60.0025	33.6914	59.5761	33.6914	60.2672	33.6914	59.9388	33.6914	60.5963	33.6914	60.3748	33.6914	60.9706	33.6914	60.8486	33.6914	61.3614	33.6914	61.3183	33.6914	61.7348	33.6914	61.7431	33.6914	62.0565	33.6914	62.0875	33.6914	62.296	33.6914	62.3255	33.6914	62.4294	33.6914	62.4411
35.1563	60.4769	35.1563	60.4214	35.1563	60.5148	35.1563	60.3498	35.1563	60.5368	35.1563	60.267	35.1563	60.5473	35.1563	60.1816	35.1563	60.554	35.1563	60.1063	35.1563	60.5677	35.1563	60.0582	35.1563	60.6018	35.1563	60.0578	35.1563	60.6717	35.1563	60.1262	35.1563	60.7922	35.1563	60.281	35.1563	60.9743	35.1563	60.5306	35.1563	61.2218	35.1563	60.8697	35.1563	61.5284	35.1563	61.2781	35.1563	61.8769	35.1563	61.7236	35.1563	62.2409	35.1563	62.1674	35.1563	62.5892	35.1563	62.5708	35.1563	62.8894	35.1563	62.8999	35.1563	63.1124	35.1563	63.1289	35.1563	63.2349	35.1563	63.2422
36.6211	61.6463	36.6211	61.5903	36.6211	61.6886	36.6211	61.5214	36.6211	61.7188	36.6211	61.4434	36.6211	61.7411	36.6211	61.3633	36.6211	61.7622	36.6211	61.2916	36.6211	61.7914	36.6211	61.2425	36.6211	61.84	36.6211	61.2335	36.6211	61.9204	36.6211	61.2832	36.6211	62.0443	36.6211	61.4079	36.6211	62.2201	36.6211	61.6173	36.6211	62.4501	36.6211	61.9101	36.6211	62.7282	36.6211	62.2719	36.6211	63.0391	36.6211	62.6763	36.6211	63.3597	36.6211	63.0891	36.6211	63.6622	36.6211	63.4741	36.6211	63.9175	36.6211	63.7978	36.6211	64.0992	36.6211	64.0341	36.6211	64.1863	36.6211	64.1658
38.0859	62.7509	38.0859	62.7148	38.0859	62.7812	38.0859	62.6727	38.0859	62.8079	38.0859	62.6267	38.0859	62.8352	38.0859	62.5816	38.0859	62.869	38.0859	62.5444	38.0859	62.9165	38.0859	62.5252	38.0859	62.986	38.0859	62.5357	38.0859	63.0851	38.0859	62.589	38.0859	63.2203	38.0859	62.697	38.0859	63.3953	38.0859	62.868	38.0859	63.6091	38.0859	63.1033	38.0859	63.855	38.0859	63.3951	38.0859	64.1206	38.0859	63.7257	38.0859	64.3881	38.0859	64.0695	38.0859	64.636	38.0859	64.3967	38.0859	64.8415	38.0859	64.6781	38.0859	64.9834	38.0859	64.8893	38.0859	65.0444	38.0859	65.0138
39.5508	63.3375	39.5508	63.2477	39.5508	63.4124	39.5508	63.1428	39.5508	63.4739	39.5508	63.0245	39.5508	63.525	39.5508	62.8966	39.5508	63.5696	39.5508	62.7656	39.5508	63.6129	39.5508	62.6414	39.5508	63.6609	39.5508	62.5372	39.5508	63.7203	39.5508	62.4697	39.5508	63.7973	39.5508	62.4572	39.5508	63.8969	39.5508	62.5171	39.5508	64.0214	39.5508	62.6604	39.5508	64.1685	39.5508	62.8876	39.5508	64.3303	39.5508	63.185	39.5508	64.4933	39.5508	63.5261	39.5508	64.6394	39.5508	63.8768	39.5508	64.7477	39.5508	64.2018	39.5508	64.7981	39.5508	64.4715	39.5508	64.774	39.5508	64.6655
41.0156	64.701	41.0156	64.6271	41.0156	64.7653	41.0156	64.5439	41.0156	64.821	41.0156	64.454	41.0156	64.8705	41.0156	64.3621	41.0156	64.9174	41.0156	64.2758	41.0156	64.966	41.0156	64.2055	41.0156	65.0216	41.0156	64.1642	41.0156	65.0896	41.0156	64.1666	41.0156	65.1754	41.0156	64.2268	41.0156	65.2832	41.0156	64.3548	41.0156	65.4149	41.0156	64.5529	41.0156	65.5691	41.0156	64.813	41.0156	65.7401	41.0156	65.1157	41.0156	65.9171	41.0156	65.4337	41.0156	66.085	41.0156	65.7369	41.0156	66.226	41.0156	65.9973	41.0156	66.3216	41.0156	66.1939	41.0156	66.355	41.0156	66.3142
42.4805	66.7338	42.4805	66.715	42.4805	66.7458	42.4805	66.6893	42.4805	66.7519	42.4805	66.6576	42.4805	66.7537	42.4805	66.6218	42.4805	66.7538	42.4805	66.5853	42.4805	66.7555	42.4805	66.5532	42.4805	66.7632	42.4805	66.5327	42.4805	66.782	42.4805	66.533	42.4805	66.8176	42.4805	66.5647	42.4805	66.8754	42.4805	66.6374	42.4805	66.9594	42.4805	66.7569	42.4805	67.0711	42.4805	66.9212	42.4805	67.2078	42.4805	67.1193	42.4805	67.3619	42.4805	67.3314	42.4805	67.5209	42.4805	67.5335	42.4805	67.6683	42.4805	67.7019	42.4805	67.7863	42.4805	67.8178	42.4805	67.8579	42.4805	67.8705
43.9453	66.6462	43.9453	66.5896	43.9453	66.6868	43.9453	66.5161	43.9453	66.7132	43.9453	66.4261	43.9453	66.7282	43.9453	66.3224	43.9453	66.7352	43.9453	66.2102	43.9453	66.7389	43.9453	66.0989	43.9453	66.7447	43.9453	66.0026	43.9453	66.7589	43.9453	65.9394	43.9453	66.7882	43.9453	65.9291	43.9453	66.8392	43.9453	65.9889	43.9453	66.9166	43.9453	66.127	43.9453	67.022	43.9453	66.3378	43.9453	67.1523	43.9453	66.6018	43.9453	67.2987	43.9453	66.8892	43.9453	67.4471	43.9453	67.1671	43.9453	67.579	43.9453	67.4057	43.9453	67.6745	43.9453	67.5831	43.9453	67.7152	43.9453	67.687
45.4102	66.152	45.4102	66.047	45.4102	66.2525	45.4102	65.9393	45.4102	66.3483	45.4102	65.8322	45.4102	66.4403	45.4102	65.7313	45.4102	66.5304	45.4102	65.6441	45.4102	66.6217	45.4102	65.5807	45.4102	66.7179	45.4102	65.5534	45.4102	66.8232	45.4102	65.575	45.4102	66.9415	45.4102	65.6568	45.4102	67.0755	45.4102	65.8057	45.4102	67.2256	45.4102	66.0214	45.4102	67.3891	45.4102	66.2948	45.4102	67.5589	45.4102	66.6086	45.4102	67.7238	45.4102	66.9393	45.4102	67.8692	45.4102	67.2608	45.4102	67.9783	45.4102	67.5477	45.4102	68.0348	45.4102	67.779	45.4102	68.025	45.4102	67.9402
46.875	67.0547	46.875	66.9354	46.875	67.1807	46.875	66.8278	46.875	67.3101	46.875	66.7384	46.875	67.4411	46.875	66.6754	46.875	67.5735	46.875	66.6475	46.875	67.7083	46.875	66.6634	46.875	67.8474	46.875	66.7303	46.875	67.9933	46.875	66.8526	46.875	68.1483	46.875	67.0311	46.875	68.314	46.875	67.262	46.875	68.4904	46.875	67.5372	46.875	68.6748	46.875	67.8445	46.875	68.8614	46.875	68.1677	46.875	69.0408	46.875	68.488	46.875	69.2007	46.875	68.7853	46.875	69.3265	46.875	69.0403	46.875	69.4037	46.875	69.237	46.875	69.4193	46.875	69.3646
48.3398	69.218	48.3398	69.182	48.3398	69.251	48.3398	69.1434	48.3398	69.2812	48.3398	69.1031	48.3398	69.3095	48.3398	69.0625	48.3398	69.3371	48.3398	69.0241	48.3398	69.3657	48.3398	68.9911	48.3398	69.3977	48.3398	68.9676	48.3398	69.4356	48.3398	68.959	48.3398	69.4823	48.3398	68.971	48.3398	69.54	48.3398	69.0098	48.3398	69.6102	48.3398	69.0801	48.3398	69.6924	48.3398	69.1838	48.3398	69.7834	48.3398	69.3183	48.3398	69.8771	48.3398	69.475	48.3398	69.9641	48.3398	69.6402	48.3398	70.0329	48.3398	69.797	48.3398	70.0715	48.3398	69.9287	48.3398	70.0698	48.3398	70.022
51.2695	70.1623	51.2695	70.1126	51.2695	70.205	51.2695	70.0553	51.2695	70.2421	51.2695	69.9904	51.2695	70.2754	51.2695	69.9191	51.2695	70.3071	51.2695	69.8442	51.2695	70.3398	51.2695	69.7703	51.2695	70.3762	51.2695	69.7047	51.2695	70.4195	51.2695	69.6567	51.2695	70.4724	51.2695	69.6373	51.2695	70.5371	51.2695	69.6578	51.2695	70.6144	51.2695	69.7268	51.2695	70.703	51.2695	69.8472	51.2695	70.7983	51.2695	70.0143	51.2695	70.8928	51.2695	70.215	51.2695	70.9755	51.2695	70.4296	51.2695	71.0338	51.2695	70.6361	51.2695	71.0547	51.2695	70.8138	51.2695	71.0278	51.2695	70.9472
52.7344	70.7526	52.7344	70.6858	52.7344	70.822	52.7344	70.6223	52.7344	70.8939	52.7344	70.5637	52.7344	70.9684	52.7344	70.512	52.7344	71.0461	52.7344	70.4706	52.7344	71.1282	52.7344	70.444	52.7344	71.216	52.7344	70.438	52.7344	71.3108	52.7344	70.4595	52.7344	71.4141	52.7344	70.5158	52.7344	71.5265	52.7344	70.6128	52.7344	71.6474	52.7344	70.7533	52.7344	71.7742	52.7344	70.9353	52.7344	71.9021	52.7344	71.1505	52.7344	72.0232	52.7344	71.3848	52.7344	72.1271	52.7344	71.6199	52.7344	72.202	52.7344	71.8362	52.7344	72.236	52.7344	72.0158	52.7344	72.2192	52.7344	72.1457
54.1992	71.6348	54.1992	71.5675	54.1992	71.7056	54.1992	71.5038	54.1992	71.7801	54.1992	71.4446	54.1992	71.8588	54.1992	71.3917	54.1992	71.9425	54.1992	71.348	54.1992	72.0321	54.1992	71.3182	54.1992	72.1285	54.1992	71.3085	54.1992	72.2328	54.1992	71.3266	54.1992	72.3456	54.1992	71.3806	54.1992	72.4667	54.1992	71.4771	54.1992	72.5947	54.1992	71.6196	54.1992	72.7264	54.1992	71.8062	54.1992	72.8564	54.1992	72.0283	54.1992	72.9769	54.1992	72.2712	54.1992	73.0778	54.1992	72.5157	54.1992	73.1476	54.1992	72.7416	54.1992	73.1751	54.1992	72.9305	54.1992	73.1508	54.1992	73.0692
55.6641	72.5447	55.6641	72.4765	55.6641	72.6215	55.6641	72.4181	55.6641	72.7061	55.6641	72.3712	55.6641	72.798	55.6641	72.3382	55.6641	72.897	55.6641	72.3223	55.6641	73.0031	55.6641	72.3277	55.6641	73.1164	55.6641	72.3591	55.6641	73.237	55.6641	72.4216	55.6641	73.3648	55.6641	72.5196	55.6641	73.4991	55.6641	72.6558	55.6641	73.6383	55.6641	72.8294	55.6641	73.7793	55.6641	73.0355	55.6641	73.9173	55.6641	73.264	55.6641	74.0454	55.6641	73.5011	55.6641	74.1548	55.6641	73.7298	55.6641	74.2355	55.6641	73.9335	55.6641	74.2772	55.6641	74.0974	55.6641	74.2711	55.6641	74.2115
58.5938	74.1255	58.5938	74.0563	58.5938	74.2038	58.5938	73.9974	58.5938	74.2901	58.5938	73.9503	58.5938	74.3837	58.5938	73.917	58.5938	74.4838	58.5938	73.9	58.5938	74.5895	58.5938	73.9023	58.5938	74.7001	58.5938	73.9273	58.5938	74.8148	58.5938	73.9783	58.5938	74.9325	58.5938	74.0584	58.5938	75.052	58.5938	74.1693	58.5938	75.1713	58.5938	74.3109	58.5938	75.2876	58.5938	74.48	58.5938	75.3968	58.5938	74.6702	58.5938	75.4932	58.5938	74.8714	58.5938	75.5699	58.5938	75.0712	58.5938	75.6189	58.5938	75.2558	58.5938	75.6323	58.5938	75.412	58.5938	75.6038	58.5938	75.53
60.0586	74.8994	60.0586	74.8307	60.0586	74.9777	60.0586	74.7729	60.0586	75.0644	60.0586	74.7276	60.0586	75.1584	60.0586	74.6966	60.0586	75.2586	60.0586	74.6821	60.0586	75.3639	60.0586	74.6864	60.0586	75.4734	60.0586	74.7123	60.0586	75.5859	60.0586	74.7624	60.0586	75.7004	60.0586	74.8389	60.0586	75.8155	60.0586	74.9434	60.0586	75.9292	60.0586	75.0757	60.0586	76.0388	60.0586	75.2335	60.0586	76.1406	60.0586	75.4116	60.0586	76.229	60.0586	75.6012	60.0586	76.2977	60.0586	75.791	60.0586	76.3392	60.0586	75.9682	60.0586	76.3463	60.0586	76.1204	60.0586	76.3133	60.0586	76.2374
62.9883	76.4614	62.9883	76.4002	62.9883	76.533	62.9883	76.3502	62.9883	76.6139	62.9883	76.3121	62.9883	76.7032	62.9883	76.2871	62.9883	76.7998	62.9883	76.2761	62.9883	76.9024	62.9883	76.2807	62.9883	77.0097	62.9883	76.3027	62.9883	77.1202	62.9883	76.3444	62.9883	77.2322	62.9883	76.4079	62.9883	77.3436	62.9883	76.4955	62.9883	77.452	62.9883	76.6082	62.9883	77.5542	62.9883	76.7453	62.9883	77.6464	62.9883	76.9032	62.9883	77.7237	62.9883	77.0751	62.9883	77.7801	62.9883	77.2509	62.9883	77.8094	62.9883	77.4187	62.9883	77.8056	62.9883	77.5663	62.9883	77.7642	62.9883	77.6837
64.4531	77.1132	64.4531	77.0504	64.4531	77.1872	64.4531	76.9997	64.4531	77.2714	64.4531	76.9619	64.4531	77.3646	64.4531	76.9378	64.4531	77.4654	64.4531	76.9284	64.4531	77.5723	64.4531	76.9348	64.4531	77.6836	64.4531	76.9586	64.4531	77.7973	64.4531	77.0017	64.4531	77.9114	64.4531	77.066	64.4531	78.0235	64.4531	77.1534	64.4531	78.131	64.4531	77.265	64.4531	78.2307	64.4531	77.4	64.4531	78.3188	64.4531	77.5551	64.4531	78.3907	64.4531	77.724	64.4531	78.4413	64.4531	77.8969	64.4531	78.4647	64.4531	78.0626	64.4531	78.4557	64.4531	78.2094	64.4531	78.4103	64.4531	78.3274
67.3828	78.2022	67.3828	78.1396	67.3828	78.2772	67.3828	78.0904	67.3828	78.3636	67.3828	78.0547	67.3828	78.4599	67.3828	78.0329	67.3828	78.564	67.3828	78.0249	67.3828	78.6736	67.3828	78.0309	67.3828	78.7861	67.3828	78.0516	67.3828	78.8989	67.3828	78.0879	67.3828	79.009	67.3828	78.1414	67.3828	79.1135	67.3828	78.2139	67.3828	79.2095	67.3828	78.307	67.3828	79.2938	67.3828	78.4213	67.3828	79.3633	67.3828	78.555	67.3828	79.4146	67.3828	78.7037	67.3828	79.4437	67.3828	78.8597	67.3828	79.4469	67.3828	79.0133	67.3828	79.4205	67.3828	79.1539	67.3828	79.3624	67.3828	79.2725
68.8477	78.8405	68.8477	78.7793	68.8477	78.9127	68.8477	78.7296	68.8477	78.9946	68.8477	78.6917	68.8477	79.0849	68.8477	78.6655	68.8477	79.1815	68.8477	78.651	68.8477	79.282	68.8477	78.6481	68.8477	79.3838	68.8477	78.6574	68.8477	79.484	68.8477	78.6799	68.8477	79.5798	68.8477	78.7174	68.8477	79.6684	68.8477	78.7719	68.8477	79.7472	68.8477	78.8457	68.8477	79.8135	68.8477	78.9399	68.8477	79.8649	68.8477	79.0538	68.8477	79.8986	68.8477	79.1838	68.8477	79.9119	68.8477	79.3235	68.8477	79.9018	68.8477	79.4642	68.8477	79.8656	68.8477	79.5962	68.8477	79.8018	68.8477	79.7109
71.7773	80.164	71.7773	80.1102	71.7773	80.2278	71.7773	80.0667	71.7773	80.3004	71.7773	80.0338	71.7773	80.3803	71.7773	80.0111	71.7773	80.4655	71.7773	79.9982	71.7773	80.5536	71.7773	79.9949	71.7773	80.6416	71.7773	80.0012	71.7773	80.7269	71.7773	80.0177	71.7773	80.8067	71.7773	80.0457	71.7773	80.8782	71.7773	80.0869	71.7773	80.9393	71.7773	80.1433	71.7773	80.9879	71.7773	80.2161	71.7773	81.0226	71.7773	80.3053	71.7773	81.0415	71.7773	80.4086	71.7773	81.0429	71.7773	80.5212	71.7773	81.0252	71.7773	80.6366	71.7773	80.9866	71.7773	80.7471	71.7773	80.9264	71.7773	80.8455
74.707	80.8504	74.707	80.8126	74.707	80.9012	74.707	80.7876	74.707	80.9646	74.707	80.7745	74.707	81.0397	74.707	80.7722	74.707	81.1245	74.707	80.7797	74.707	81.2164	74.707	80.7962	74.707	81.3125	74.707	80.8218	74.707	81.4094	74.707	80.8569	74.707	81.5039	74.707	80.9032	74.707	81.593	74.707	80.9625	74.707	81.6739	74.707	81.0366	74.707	81.7445	74.707	81.126	74.707	81.8027	74.707	81.2298	74.707	81.8466	74.707	81.344	74.707	81.8738	74.707	81.4627	74.707	81.8818	74.707	81.5779	74.707	81.8678	74.707	81.6817	74.707	81.8298	74.707	81.7671
77.6367	81.3298	77.6367	81.2908	77.6367	81.3837	77.6367	81.267	77.6367	81.4514	77.6367	81.2581	77.6367	81.5307	77.6367	81.2634	77.6367	81.6192	77.6367	81.2817	77.6367	81.7137	77.6367	81.3121	77.6367	81.811	77.6367	81.3539	77.6367	81.9078	77.6367	81.4068	77.6367	82.0013	77.6367	81.471	77.6367	82.0889	77.6367	81.5465	77.6367	82.1687	77.6367	81.6333	77.6367	82.2389	77.6367	81.7301	77.6367	82.298	77.6367	81.8348	77.6367	82.3443	77.6367	81.9436	77.6367	82.3758	77.6367	82.0513	77.6367	82.3901	77.6367	82.152	77.6367	82.385	77.6367	82.2398	77.6367	82.3584	77.6367	82.3097
79.1016	81.6899	79.1016	81.6527	79.1016	81.7436	79.1016	81.6324	79.1016	81.8123	79.1016	81.6291	79.1016	81.8943	79.1016	81.6421	79.1016	81.9869	79.1016	81.6704	79.1016	82.0874	79.1016	81.7127	79.1016	82.1927	79.1016	81.768	79.1016	82.2996	79.1016	81.8349	79.1016	82.4049	79.1016	81.9124	79.1016	82.5057	79.1016	81.9996	79.1016	82.5993	79.1016	82.0953	79.1016	82.6828	79.1016	82.1982	79.1016	82.7538	79.1016	82.3061	79.1016	82.8097	79.1016	82.4161	79.1016	82.848	79.1016	82.5241	79.1016	82.8662	79.1016	82.6251	79.1016	82.8624	79.1016	82.7137	79.1016	82.8352	79.1016	82.785
82.0313	82.4461	82.0313	82.4142	82.0313	82.4963	82.0313	82.4004	82.0313	82.5639	82.0313	82.4039	82.0313	82.6469	82.0313	82.4229	82.0313	82.7426	82.0313	82.4551	82.0313	82.8475	82.0313	82.4981	82.0313	82.9576	82.0313	82.5493	82.0313	83.0683	82.0313	82.6067	82.0313	83.1753	82.0313	82.6688	82.0313	83.2742	82.0313	82.7348	82.0313	83.3611	82.0313	82.805	82.0313	83.4328	82.0313	82.8799	82.0313	83.4869	82.0313	82.96	82.0313	83.5214	82.0313	83.0455	82.0313	83.5354	82.0313	83.1348	82.0313	83.5285	82.0313	83.225	82.0313	83.5008	82.0313	83.3114	82.0313	83.4536	82.0313	83.3892
84.9609	82.5711	84.9609	82.5397	84.9609	82.6209	84.9609	82.5268	84.9609	82.6882	84.9609	82.5311	84.9609	82.7708	84.9609	82.5507	84.9609	82.8658	84.9609	82.5831	84.9609	82.9693	84.9609	82.6254	84.9609	83.0769	84.9609	82.675	84.9609	83.184	84.9609	82.7297	84.9609	83.286	84.9609	82.7881	84.9609	83.3788	84.9609	82.8498	84.9609	83.4587	84.9609	82.9152	84.9609	83.523	84.9609	82.9852	84.9609	83.5698	84.9609	83.0603	84.9609	83.598	84.9609	83.1407	84.9609	83.6072	84.9609	83.2246	84.9609	83.5974	84.9609	83.3092	84.9609	83.5693	84.9609	83.3902	84.9609	83.5238	84.9609	83.4631
87.8906	82.4752	87.8906	82.4382	87.8906	82.5314	87.8906	82.4209	87.8906	82.6055	87.8906	82.4225	87.8906	82.6953	87.8906	82.4414	87.8906	82.7974	87.8906	82.4757	87.8906	82.9077	87.8906	82.5229	87.8906	83.0219	87.8906	82.5807	87.8906	83.1352	87.8906	82.6468	87.8906	83.2431	87.8906	82.7193	87.8906	83.3414	87.8906	82.7971	87.8906	83.4265	87.8906	82.8791	87.8906	83.4958	87.8906	82.9647	87.8906	83.5474	87.8906	83.0532	87.8906	83.5805	87.8906	83.1433	87.8906	83.5946	87.8906	83.2332	87.8906	83.5898	87.8906	83.3198	87.8906	83.5667	87.8906	83.3999	87.8906	83.5261	87.8906	83.4697
90.8203	82.9825	90.8203	82.9694	90.8203	83.0169	90.8203	82.9777	90.8203	83.0714	90.8203	83.0059	90.8203	83.1435	90.8203	83.0516	90.8203	83.2299	90.8203	83.1111	90.8203	83.3264	90.8203	83.1803	90.8203	83.4281	90.8203	83.2545	90.8203	83.5302	90.8203	83.329	90.8203	83.6277	90.8203	83.4002	90.8203	83.716	90.8203	83.4652	90.8203	83.7913	90.8203	83.5229	90.8203	83.8508	90.8203	83.5735	90.8203	83.8927	90.8203	83.6187	90.8203	83.9166	90.8203	83.6607	90.8203	83.9234	90.8203	83.7017	90.8203	83.9149	90.8203	83.743	90.8203	83.8937	90.8203	83.7847	90.8203	83.8628	90.8203	83.8254
95.2148	82.4354	95.2148	82.3838	95.2148	82.5089	95.2148	82.3545	95.2148	82.6025	95.2148	82.3463	95.2148	82.7133	95.2148	82.3573	95.2148	82.8368	95.2148	82.3848	95.2148	82.9677	95.2148	82.426	95.2148	83.1001	95.2148	82.478	95.2148	83.228	95.2148	82.5384	95.2148	83.3454	95.2148	82.6056	95.2148	83.4472	95.2148	82.6784	95.2148	83.5292	95.2148	82.7565	95.2148	83.5884	95.2148	82.8398	95.2148	83.6235	95.2148	82.9282	95.2148	83.6345	95.2148	83.0211	95.2148	83.6226	95.2148	83.1169	95.2148	83.59	95.2148	83.2132	95.2148	83.5392	95.2148	83.307	95.2148	83.4731	95.2148	83.3947
98.1445	82.6277	98.1445	82.6079	98.1445	82.6723	98.1445	82.6129	98.1445	82.7398	98.1445	82.641	98.1445	82.8272	98.1445	82.6889	98.1445	82.9298	98.1445	82.7522	98.1445	83.0421	98.1445	82.8256	98.1445	83.1582	98.1445	82.9034	98.1445	83.2717	98.1445	82.9807	98.1445	83.3767	98.1445	83.0532	98.1445	83.4681	98.1445	83.1184	98.1445	83.5415	98.1445	83.1755	98.1445	83.5944	98.1445	83.2254	98.1445	83.6258	98.1445	83.2699	98.1445	83.6364	98.1445	83.3116	98.1445	83.6284	98.1445	83.3529	98.1445	83.6052	98.1445	83.3954	98.1445	83.571	98.1445	83.4397	98.1445	83.5298	98.1445	83.485
101.074	82.5976	101.074	82.572	101.074	82.6444	101.074	82.5674	101.074	82.7112	101.074	82.5819	101.074	82.7951	101.074	82.6121	101.074	82.8919	101.074	82.6539	101.074	82.9964	101.074	82.7025	101.074	83.1026	101.074	82.7534	101.074	83.2046	101.074	82.8028	101.074	83.2964	101.074	82.8478	101.074	83.3728	101.074	82.8874	101.074	83.4296	101.074	82.9219	101.074	83.4642	101.074	82.953	101.074	83.4756	101.074	82.9834	101.074	83.4648	101.074	83.0161	101.074	83.4343	101.074	83.0538	101.074	83.3885	101.074	83.0984	101.074	83.3321	101.074	83.1504	101.074	83.2706	101.074	83.2087
105.469	82.2777	105.469	82.254	105.469	82.3275	105.469	82.2568	105.469	82.4011	105.469	82.2846	105.469	82.4949	105.469	82.3344	105.469	82.6038	105.469	82.4018	105.469	82.7219	105.469	82.4812	105.469	82.8426	105.469	82.5671	105.469	82.9595	105.469	82.6539	105.469	83.0663	105.469	82.7369	105.469	83.1577	105.469	82.8123	105.469	83.2295	105.469	82.878	105.469	83.2791	105.469	82.9334	105.469	83.306	105.469	82.9793	105.469	83.3113	105.469	83.018	105.469	83.2983	105.469	83.0523	105.469	83.2714	105.469	83.0855	105.469	83.2358	105.469	83.1199	105.469	83.1964	105.469	83.157
108.398	82.1767	108.398	82.1577	108.398	82.2225	108.398	82.1662	108.398	82.2927	108.398	82.201	108.398	82.3834	108.398	82.2589	108.398	82.4893	108.398	82.3352	108.398	82.6042	108.398	82.4241	108.398	82.7216	108.398	82.519	108.398	82.8348	108.398	82.6132	108.398	82.9372	108.398	82.7007	108.398	83.0235	108.398	82.7766	108.398	83.0893	108.398	82.8377	108.398	83.1322	108.398	82.8832	108.398	83.1516	108.398	82.9142	108.398	83.1496	108.398	82.9341	108.398	83.1303	108.398	82.9476	108.398	83.0992	108.398	82.9598	108.398	83.0631	108.398	82.9756	108.398	83.0278	108.398	82.998
112.793	82.2443	112.793	82.2257	112.793	82.2872	112.793	82.2318	112.793	82.3521	112.793	82.2611	112.793	82.4352	112.793	82.3106	112.793	82.5315	112.793	82.3751	112.793	82.6349	112.793	82.4488	112.793	82.7387	112.793	82.5249	112.793	82.8362	112.793	82.5966	112.793	82.9209	112.793	82.658	112.793	82.9871	112.793	82.7049	112.793	83.0307	112.793	82.735	112.793	83.0491	112.793	82.7488	112.793	83.0425	112.793	82.7495	112.793	83.0136	112.793	82.7422	112.793	82.9675	112.793	82.7338	112.793	82.9116	112.793	82.7311	112.793	82.8542	112.793	82.74	112.793	82.8029	112.793	82.7638
117.188	82.0671	117.188	82.0463	117.188	82.1061	117.188	82.0441	117.188	82.1616	117.188	82.0586	117.188	82.2298	117.188	82.0865	117.188	82.3058	117.188	82.1227	117.188	82.3838	117.188	82.1616	117.188	82.4573	117.188	82.197	117.188	82.5197	117.188	82.2233	117.188	82.5652	117.188	82.2363	117.188	82.5885	117.188	82.2334	117.188	82.5865	117.188	82.2146	117.188	82.558	117.188	82.1823	117.188	82.5046	117.188	82.1412	117.188	82.4308	117.188	82.0981	117.188	82.344	117.188	82.0607	117.188	82.2535	117.188	82.0369	117.188	82.1693	117.188	82.0333	117.188	82.1007	117.188	82.0543
120.117	82.0689	120.117	82.0585	120.117	82.0981	120.117	82.0662	120.117	82.1451	120.117	82.0895	120.117	82.2072	120.117	82.1246	120.117	82.2803	120.117	82.1664	120.117	82.359	120.117	82.2093	120.117	82.4373	120.117	82.2476	120.117	82.5086	120.117	82.2762	120.117	82.5666	120.117	82.2912	120.117	82.6056	120.117	82.2904	120.117	82.6213	120.117	82.2739	120.117	82.6115	120.117	82.2443	120.117	82.5762	120.117	82.2066	120.117	82.5185	120.117	82.168	120.117	82.4442	120.117	82.1365	120.117	82.3612	120.117	82.1202	120.117	82.2793	120.117	82.1253	120.117	82.2079	120.117	82.1549
124.512	81.9361	124.512	81.912	124.512	81.9827	124.512	81.9104	124.512	82.0496	124.512	81.9292	124.512	82.1329	124.512	81.9643	124.512	82.2272	124.512	82.0101	124.512	82.3261	124.512	82.0597	124.512	82.4225	124.512	82.1065	124.512	82.5092	124.512	82.1445	124.512	82.5796	124.512	82.1691	124.512	82.6278	124.512	82.1779	124.512	82.6496	124.512	82.1714	124.512	82.6429	124.512	82.1525	124.512	82.6083	124.512	82.1269	124.512	82.549	124.512	82.102	124.512	82.4712	124.512	82.0856	124.512	82.3829	124.512	82.085	124.512	82.2938	124.512	82.1053	124.512	82.2131	124.512	82.1485
128.906	81.7405	128.906	81.6952	128.906	81.8087	128.906	81.6741	128.906	81.8966	128.906	81.676	128.906	81.9994	128.906	81.6979	128.906	82.1109	128.906	81.7345	128.906	82.2241	128.906	81.7789	128.906	82.3314	128.906	81.8239	128.906	82.425	128.906	81.8622	128.906	82.4974	128.906	81.8876	128.906	82.5421	128.906	81.8964	128.906	82.5541	128.906	81.8872	128.906	82.5306	128.906	81.8622	128.906	82.472	128.906	81.827	128.906	82.3821	128.906	81.7901	128.906	82.2689	128.906	81.7619	128.906	82.1434	128.906	81.7531	128.906	82.0189	128.906	81.7724	128.906	81.909	128.906	81.8247
133.301	81.7707	133.301	81.7366	133.301	81.8383	133.301	81.7359	133.301	81.9364	133.301	81.7661	133.301	82.0598	133.301	81.8218	133.301	82.2014	133.301	81.8954	133.301	82.3528	133.301	81.9781	133.301	82.5043	133.301	82.0604	133.301	82.6463	133.301	82.1334	133.301	82.769	133.301	82.1898	133.301	82.8637	133.301	82.2251	133.301	82.9233	133.301	82.2381	133.301	82.9431	133.301	82.232	133.301	82.9215	133.301	82.2137	133.301	82.8609	133.301	82.1934	133.301	82.7676	133.301	82.1832	133.301	82.652	133.301	82.1944	133.301	82.5274	133.301	82.235	133.301	82.4081	133.301	82.3075
139.16	81.6325	139.16	81.5902	139.16	81.7144	139.16	81.5891	139.16	81.8314	139.16	81.6273	139.16	81.9767	139.16	81.6997	139.16	82.1416	139.16	81.7982	139.16	82.3166	139.16	81.9125	139.16	82.4913	139.16	82.0316	139.16	82.6557	139.16	82.1448	139.16	82.8	139.16	82.2429	139.16	82.9158	139.16	82.3197	139.16	82.9964	139.16	82.3728	139.16	83.0375	139.16	82.4035	139.16	83.0381	139.16	82.4174	139.16	83.0008	139.16	82.4233	139.16	82.9319	139.16	82.4315	139.16	82.841	139.16	82.4523	139.16	82.7401	139.16	82.493	139.16	82.6418	139.16	82.557
143.555	81.4565	143.555	81.411	143.555	81.5398	143.555	81.405	143.555	81.6567	143.555	81.4367	143.555	81.8003	143.555	81.5012	143.555	81.9625	143.555	81.5906	143.555	82.1337	143.555	81.6947	143.555	82.304	143.555	81.8025	143.555	82.4632	143.555	81.9034	143.555	82.6019	143.555	81.9886	143.555	82.7113	143.555	82.052	143.555	82.7847	143.555	82.0918	143.555	82.8177	143.555	82.1103	143.555	82.809	143.555	82.1137	143.555	82.7611	143.555	82.112	143.555	82.6803	143.555	82.1165	143.555	82.5766	143.555	82.1377	143.555	82.4626	143.555	82.1832	143.555	82.3515	143.555	82.2556
147.949	81.562	147.949	81.5102	147.949	81.6517	147.949	81.4984	147.949	81.7744	147.949	81.5254	147.949	81.923	147.949	81.5864	147.949	82.0891	147.949	81.6733	147.949	82.263	147.949	81.7757	147.949	82.435	147.949	81.8823	147.949	82.5951	147.949	81.9818	147.949	82.7339	147.949	82.0655	147.949	82.843	147.949	82.1276	147.949	82.9157	147.949	82.1667	147.949	82.9476	147.949	82.1857	147.949	82.9375	147.949	82.1916	147.949	82.8879	147.949	82.1943	147.949	82.805	147.949	82.2048	147.949	82.6986	147.949	82.233	147.949	82.5811	147.949	82.2855	147.949	82.4657	147.949	82.3643
153.809	81.7693	153.809	81.6739	153.809	81.8963	153.809	81.6152	153.809	82.0475	153.809	81.5955	153.809	82.2142	153.809	81.613	153.809	82.3868	153.809	81.6617	153.809	82.556	153.809	81.7323	153.809	82.7121	153.809	81.8135	153.809	82.846	153.809	81.8933	153.809	82.9493	153.809	81.961	153.809	83.0146	153.809	82.0089	153.809	83.0363	153.809	82.0333	153.809	83.0117	153.809	82.0353	153.809	82.9413	153.809	82.0206	153.809	82.8302	153.809	81.9995	153.809	82.6878	153.809	81.985	153.809	82.5279	153.809	81.9911	153.809	82.3669	153.809	82.0294	153.809	82.2218	153.809	82.1066
159.668	81.8911	159.668	81.7924	159.668	82.0229	159.668	81.7318	159.668	82.1805	159.668	81.7108	159.668	82.3546	159.668	81.7266	159.668	82.5353	159.668	81.7723	159.668	82.7119	159.668	81.837	159.668	82.8738	159.668	81.9078	159.668	83.0105	159.668	81.9714	159.668	83.1126	159.668	82.0163	159.668	83.1716	159.668	82.0347	159.668	83.1814	159.668	82.0242	159.668	83.1388	159.668	81.9884	159.668	83.0442	159.668	81.9369	159.668	82.9029	159.668	81.8846	159.668	82.725	159.668	81.8491	159.668	82.5257	159.668	81.8478	159.668	82.324	159.668	81.8939	159.668	82.1402	159.668	81.9926
165.527	82.0107	165.527	81.9071	165.527	82.1453	165.527	81.8394	165.527	82.3041	165.527	81.8091	165.527	82.4791	165.527	81.8142	165.527	82.6612	165.527	81.8484	165.527	82.8409	165.527	81.9016	165.527	83.0083	165.527	81.9616	165.527	83.1531	165.527	82.0154	165.527	83.2657	165.527	82.0522	165.527	83.3368	165.527	82.0647	165.527	83.3591	165.527	82.051	165.527	83.3277	165.527	82.0154	165.527	83.2414	165.527	81.9683	165.527	83.1036	165.527	81.9251	165.527	82.9229	165.527	81.904	165.527	82.7138	165.527	81.9221	165.527	82.4954	165.527	81.9917	165.527	82.2893	165.527	82.1163
171.387	81.9705	171.387	81.8713	171.387	82.1062	171.387	81.8133	171.387	82.2711	171.387	81.7983	171.387	82.4569	171.387	81.8237	171.387	82.6542	171.387	81.882	171.387	82.8531	171.387	81.9617	171.387	83.0429	171.387	82.0482	171.387	83.2128	171.387	82.1267	171.387	83.3518	171.387	82.1845	171.387	83.4501	171.387	82.2135	171.387	83.4989	171.387	82.2119	171.387	83.4925	171.387	82.1847	171.387	83.4284	171.387	82.1439	171.387	83.3089	171.387	82.1068	171.387	83.142	171.387	82.0931	171.387	82.941	171.387	82.1204	171.387	82.725	171.387	82.2005	171.387	82.5158	171.387	82.3352
177.246	82.1087	177.246	81.9889	177.246	82.265	177.246	81.9121	177.246	82.4494	177.246	81.8818	177.246	82.6523	177.246	81.8967	177.246	82.8638	177.246	81.95	177.246	83.0734	177.246	82.0299	177.246	83.2704	177.246	82.1209	177.246	83.4439	177.246	82.2068	177.246	83.5833	177.246	82.2737	177.246	83.6789	177.246	82.3126	177.246	83.7225	177.246	82.321	177.246	83.709	177.246	82.3041	177.246	83.6368	177.246	82.274	177.246	83.5091	177.246	82.2476	177.246	83.3344	177.246	82.2441	177.246	83.127	177.246	82.2804	177.246	82.9058	177.246	82.3676	177.246	82.6924	177.246	82.5076
183.105	82.1694	183.105	82.019	183.105	82.349	183.105	81.9052	183.105	82.5493	183.105	81.8334	183.105	82.7616	183.105	81.8052	183.105	82.9772	183.105	81.8169	183.105	83.1871	183.105	81.8598	183.105	83.3816	183.105	81.9209	183.105	83.5509	183.105	81.9861	183.105	83.6851	183.105	82.0425	183.105	83.7747	183.105	82.0818	183.105	83.8117	183.105	82.1013	183.105	83.7908	183.105	82.105	183.105	83.7101	183.105	82.1029	183.105	83.5724	183.105	82.1088	183.105	83.3859	183.105	82.1388	183.105	83.1647	183.105	82.2071	183.105	82.9272	183.105	82.3231	183.105	82.6949	183.105	82.4883
188.965	82.3522	188.965	82.2228	188.965	82.5085	188.965	82.1272	188.965	82.6846	188.965	82.0703	188.965	82.873	188.965	82.0542	188.965	83.0661	188.965	82.0762	188.965	83.2556	188.965	82.1286	188.965	83.4323	188.965	82.1992	188.965	83.5863	188.965	82.2733	188.965	83.7075	188.965	82.3374	188.965	83.7864	188.965	82.3809	188.965	83.8148	188.965	82.399	188.965	83.7871	188.965	82.393	188.965	83.7016	188.965	82.3708	188.965	83.5616	188.965	82.3457	188.965	83.3761	188.965	82.3352	188.965	83.1608	188.965	82.3574	188.965	82.9362	188.965	82.4272	188.965	82.726	188.965	82.5514
196.289	82.5625	196.289	82.4844	196.289	82.6684	196.289	82.4367	196.289	82.7984	196.289	82.4212	196.289	82.9478	196.289	82.4377	196.289	83.1107	196.289	82.4824	196.289	83.2787	196.289	82.548	196.289	83.4419	196.289	82.6231	196.289	83.5888	196.289	82.6945	196.289	83.7073	196.289	82.7489	196.289	83.786	196.289	82.776	196.289	83.8154	196.289	82.7703	196.289	83.7891	196.289	82.733	196.289	83.7055	196.289	82.6722	196.289	83.5685	196.289	82.6028	196.289	83.3883	196.289	82.545	196.289	83.182	196.289	82.5207	196.289	82.9717	196.289	82.548	196.289	82.7823	196.289	82.6362
203.613	82.4221	203.613	82.3607	203.613	82.517	203.613	82.3353	203.613	82.6414	203.613	82.3462	203.613	82.7899	203.613	82.3914	203.613	82.955	203.613	82.4648	203.613	83.1275	203.613	82.5565	203.613	83.2959	203.613	82.6535	203.613	83.4477	203.613	82.7411	203.613	83.5702	203.613	82.8053	203.613	83.6513	203.613	82.8356	203.613	83.6816	203.613	82.8269	203.613	83.6553	203.613	82.7805	203.613	83.5712	203.613	82.705	203.613	83.4345	203.613	82.6162	203.613	83.2566	203.613	82.5354	203.613	83.0558	203.613	82.4861	203.613	82.8553	203.613	82.4883	203.613	82.6805	203.613	82.5536
210.938	82.4503	210.938	82.3751	210.938	82.5557	210.938	82.3336	210.938	82.6867	210.938	82.3273	210.938	82.8373	210.938	82.3553	210.938	82.9999	210.938	82.4129	210.938	83.1654	210.938	82.4913	210.938	83.3228	210.938	82.5784	210.938	83.4601	210.938	82.6603	210.938	83.5651	210.938	82.7233	210.938	83.6268	210.938	82.7559	210.938	83.6366	210.938	82.7515	210.938	83.5898	210.938	82.7092	210.938	83.4865	210.938	82.6355	210.938	83.3331	210.938	82.5445	210.938	83.1425	210.938	82.4572	210.938	82.9338	210.938	82.3976	210.938	82.7312	210.938	82.3878	210.938	82.56	210.938	82.4416
218.262	82.1936	218.262	82.1387	218.262	82.2892	218.262	82.1266	218.262	82.4209	218.262	82.1566	218.262	82.5819	218.262	82.2243	218.262	82.7626	218.262	82.3213	218.262	82.9514	218.262	82.4354	218.262	83.1345	218.262	82.5515	218.262	83.297	218.262	82.6537	218.262	83.424	218.262	82.7271	218.262	83.5023	218.262	82.7604	218.262	83.5217	218.262	82.7474	218.262	83.4765	218.262	82.6886	218.262	83.3674	218.262	82.5925	218.262	83.2023	218.262	82.4753	218.262	82.997	218.262	82.3603	218.262	82.7745	218.262	82.2741	218.262	82.5627	218.262	82.2415	218.262	82.3899	218.262	82.2791
225.586	82.1384	225.586	82.0873	225.586	82.2293	225.586	82.079	225.586	82.3552	225.586	82.1142	225.586	82.5096	225.586	82.1896	225.586	82.6841	225.586	82.2973	225.586	82.8676	225.586	82.424	225.586	83.0467	225.586	82.5525	225.586	83.2063	225.586	82.6645	225.586	83.3309	225.586	82.7428	225.586	83.4063	225.586	82.7746	225.586	83.4216	225.586	82.7531	225.586	83.3708	225.586	82.6796	225.586	83.2543	225.586	82.5637	225.586	83.0807	225.586	82.4236	225.586	82.8668	225.586	82.2845	225.586	82.6372	225.586	82.1756	225.586	82.4217	225.586	82.1238	225.586	82.2505	225.586	82.1474
232.91	82.0165	232.91	81.9734	232.91	82.1011	232.91	81.9735	232.91	82.2234	232.91	82.0163	232.91	82.3769	232.91	82.0975	232.91	82.5526	232.91	82.2086	232.91	82.738	232.91	82.3363	232.91	82.9184	232.91	82.4631	232.91	83.077	232.91	82.5703	232.91	83.1969	232.91	82.6401	232.91	83.263	232.91	82.6588	232.91	83.2635	232.91	82.6193	232.91	83.1922	232.91	82.5227	232.91	83.05	232.91	82.379	232.91	82.8466	232.91	82.2075	232.91	82.6015	232.91	82.0355	232.91	82.3432	232.91	81.8949	232.91	82.106	232.91	81.8169	232.91	81.9243	232.91	81.8243
241.699	81.6353	241.699	81.5799	241.699	81.74	241.699	81.5788	241.699	81.8866	241.699	81.633	241.699	82.066	241.699	81.7376	241.699	82.2672	241.699	81.8804	241.699	82.4769	241.699	82.0422	241.699	82.6795	241.699	82.1989	241.699	82.8575	241.699	82.3256	241.699	82.9928	241.699	82.4002	241.699	83.0685	241.699	82.407	241.699	83.0707	241.699	82.3392	241.699	82.9907	241.699	82.2006	241.699	82.8272	241.699	82.0063	241.699	82.589	241.699	81.7822	241.699	82.2963	241.699	81.5634	241.699	81.9813	241.699	81.3898	241.699	81.6855	241.699	81.2992	241.699	81.4526	241.699	81.3181
250.488	81.5369	250.488	81.4344	250.488	81.6833	250.488	81.3827	250.488	81.8647	250.488	81.3854	250.488	82.071	250.488	81.441	250.488	82.2903	250.488	81.5415	250.488	82.5096	250.488	81.671	250.488	82.7142	250.488	81.8068	250.488	82.8882	250.488	81.9227	250.488	83.0154	250.488	81.993	250.488	83.08	250.488	81.9971	250.488	83.0687	250.488	81.9236	250.488	82.9718	250.488	81.7731	250.488	82.7861	250.488	81.5608	250.488	82.5169	250.488	81.3168	250.488	82.1811	250.488	81.0847	250.488	81.8086	250.488	80.9146	250.488	81.4421	250.488	80.8526	250.488	81.132	250.488	80.9256
259.277	81.7732	259.277	81.6875	259.277	81.9032	259.277	81.6528	259.277	82.0685	259.277	81.6728	259.277	82.2589	259.277	81.7454	259.277	82.4624	259.277	81.8612	259.277	82.6649	259.277	82.0025	259.277	82.8511	259.277	82.1459	259.277	83.0046	259.277	82.2651	259.277	83.1099	259.277	82.3354	259.277	83.1528	259.277	82.3381	259.277	83.1229	259.277	82.2629	259.277	83.0142	259.277	82.111	259.277	82.8268	259.277	81.8967	259.277	82.5689	259.277	81.6486	259.277	82.258	259.277	81.4079	259.277	81.9224	259.277	81.2223	259.277	81.6006	259.277	81.1354	259.277	81.3373	259.277	81.1738
268.066	81.2423	268.066	81.1078	268.066	81.4305	268.066	81.041	268.066	81.6565	268.066	81.0503	268.066	81.9047	268.066	81.1343	268.066	82.16	268.066	81.2792	268.066	82.4066	268.066	81.4601	268.066	82.6278	268.066	81.645	268.066	82.8054	268.066	81.8006	268.066	82.921	268.066	81.8967	268.066	82.957	268.066	81.9096	268.066	82.8994	268.066	81.8251	268.066	82.7401	268.066	81.6412	268.066	82.4792	268.066	81.3715	268.066	82.1285	268.066	81.0486	268.066	81.7128	268.066	80.7237	268.066	81.2719	268.066	80.4602	268.066	80.8581	268.066	80.3192	268.066	80.5303	268.066	80.3408
276.855	81.2642	276.855	81.1151	276.855	81.4426	276.855	81.0051	276.855	81.6441	276.855	80.9463	276.855	81.8631	276.855	80.9499	276.855	82.0928	276.855	81.0186	276.855	82.3235	276.855	81.1407	276.855	82.5417	276.855	81.2894	276.855	82.7316	276.855	81.429	276.855	82.8758	276.855	81.5243	276.855	82.957	276.855	81.5485	276.855	82.9596	276.855	81.4885	276.855	82.8719	276.855	81.3474	276.855	82.6882	276.855	81.1449	276.855	82.4122	276.855	80.9161	276.855	82.0598	276.855	80.708	276.855	81.6615	276.855	80.5712	276.855	81.2617	276.855	80.549	276.855	80.913	276.855	80.6646
287.109	81.4573	287.109	81.3967	287.109	81.5558	287.109	81.3736	287.109	81.691	287.109	81.3876	287.109	81.8583	287.109	81.4374	287.109	82.0481	287.109	81.5182	287.109	82.2452	287.109	81.6192	287.109	82.4306	287.109	81.7216	287.109	82.5835	287.109	81.8007	287.109	82.6834	287.109	81.8297	287.109	82.7126	287.109	81.7853	287.109	82.6569	287.109	81.6526	287.109	82.5073	287.109	81.4294	287.109	82.261	287.109	81.1296	287.109	81.9246	287.109	80.7859	287.109	81.517	287.109	80.4493	287.109	81.0731	287.109	80.1829	287.109	80.6449	287.109	80.0481	287.109	80.2956	287.109	80.0848
297.363	81.1976	297.363	81.1707	297.363	81.2866	297.363	81.2024	297.363	81.4367	297.363	81.2858	297.363	81.6416	297.363	81.4097	297.363	81.8876	297.363	81.5577	297.363	82.1532	297.363	81.7078	297.363	82.4104	297.363	81.8335	297.363	82.6283	297.363	81.9074	297.363	82.7769	297.363	81.906	297.363	82.8314	297.363	81.8145	297.363	82.7753	297.363	81.6299	297.363	82.6026	297.363	81.3628	297.363	82.3194	297.363	81.0387	297.363	81.9447	297.363	80.6963	297.363	81.5104	297.363	80.3847	297.363	81.0598	297.363	80.156	297.363	80.643	297.363	80.0548	297.363	80.311	297.363	80.1066
307.617	80.9118	307.617	80.8017	307.617	81.0824	307.617	80.7681	307.617	81.2987	307.617	80.8225	307.617	81.5486	307.617	80.9647	307.617	81.8216	307.617	81.1789	307.617	82.1044	307.617	81.4342	307.617	82.3788	307.617	81.6909	307.617	82.6205	307.617	81.908	307.617	82.8011	307.617	82.0492	307.617	82.892	307.617	82.0883	307.617	82.8692	307.617	82.0111	307.617	82.7177	307.617	81.818	307.617	82.4363	307.617	81.5256	307.617	82.0409	307.617	81.1675	307.617	81.5687	307.617	80.7932	307.617	81.0777	307.617	80.4647	307.617	80.6402	307.617	80.2466	307.617	80.3282	307.617	80.1925
319.336	80.6996	319.336	80.6057	319.336	80.841	319.336	80.5717	319.336	81.022	319.336	80.6111	319.336	81.237	319.336	80.7316	319.336	81.4795	319.336	80.9263	319.336	81.7385	319.336	81.17	319.336	81.9966	319.336	81.4238	319.336	82.2301	319.336	81.6441	319.336	82.4103	319.336	81.7908	319.336	82.507	319.336	81.8327	319.336	82.492	319.336	81.7502	319.336	82.3438	319.336	81.5366	319.336	82.053	319.336	81.2019	319.336	81.628	319.336	80.7764	319.336	81.1019	319.336	80.3137	319.336	80.5364	319.336	79.8897	319.336	80.0195	319.336	79.5921	319.336	79.6487	319.336	79.499
329.59	80.7694	329.59	80.6967	329.59	80.8961	329.59	80.6843	329.59	81.0729	329.59	80.7404	329.59	81.2951	329.59	80.8694	329.59	81.553	329.59	81.0627	329.59	81.8297	329.59	81.2939	329.59	82.1016	329.59	81.5227	329.59	82.3403	329.59	81.7031	329.59	82.5152	329.59	81.7932	329.59	82.5965	329.59	81.7601	329.59	82.5577	329.59	81.5831	329.59	82.3789	329.59	81.2573	329.59	82.0506	329.59	80.7987	329.59	81.5787	329.59	80.2507	329.59	80.9904	329.59	79.689	329.59	80.3403	329.59	79.2156	329.59	79.7119	329.59	78.938	329.59	79.2093	329.59	78.9321
341.309	80.356	341.309	80.2613	341.309	80.508	341.309	80.2372	341.309	80.7082	341.309	80.2996	341.309	80.9489	341.309	80.4585	341.309	81.2197	341.309	80.705	341.309	81.5052	341.309	81.0038	341.309	81.7842	341.309	81.2993	341.309	82.0309	341.309	81.5303	341.309	82.2172	341.309	81.6445	341.309	82.3144	341.309	81.6076	341.309	82.2958	341.309	81.4053	341.309	82.1393	341.309	81.0448	341.309	81.8316	341.309	80.5555	341.309	81.3737	341.309	79.9904	341.309	80.789	341.309	79.4268	341.309	80.1317	341.309	78.9603	341.309	79.4897	341.309	78.69	341.309	78.9744	341.309	78.6894
353.027	80.3233	353.027	80.1842	353.027	80.5059	353.027	80.0959	353.027	80.7266	353.027	80.0695	353.027	80.9791	353.027	80.1174	353.027	81.253	353.027	80.2461	353.027	81.5319	353.027	80.4447	353.027	81.7931	353.027	80.6789	353.027	82.0091	353.027	80.8944	353.027	82.1498	353.027	81.0303	353.027	82.1861	353.027	81.0331	353.027	82.0923	353.027	80.8666	353.027	81.8493	353.027	80.5191	353.027	81.4485	353.027	80.0076	353.027	80.896	353.027	79.3839	353.027	80.2197	353.027	78.7366	353.027	79.476	353.027	78.1864	353.027	78.755	353.027	77.8614	353.027	78.1747	353.027	77.8531
366.211	80.2613	366.211	80.0971	366.211	80.4535	366.211	79.9754	366.211	80.6663	366.211	79.9169	366.211	80.8968	366.211	79.9404	366.211	81.1417	366.211	80.0503	366.211	81.3931	366.211	80.2254	366.211	81.6353	366.211	80.4204	366.211	81.8452	366.211	80.5775	366.211	81.9941	366.211	80.6416	366.211	82.0512	366.211	80.5703	366.211	81.9866	366.211	80.3397	366.211	81.7754	366.211	79.9463	366.211	81.401	366.211	79.4115	366.211	80.8607	366.211	78.787	366.211	80.1725	366.211	78.16	366.211	79.3852	366.211	77.6511	366.211	78.5871	366.211	77.3921	366.211	77.9048	366.211	77.4758
379.395	80.3426	379.395	80.2481	379.395	80.4973	379.395	80.2139	379.395	80.7107	379.395	80.2405	379.395	80.977	379.395	80.328	379.395	81.2841	379.395	80.4717	379.395	81.6117	379.395	80.656	379.395	81.9312	379.395	80.8497	379.395	82.2074	379.395	81.0083	379.395	82.4023	379.395	81.0809	379.395	82.4787	379.395	81.0198	379.395	82.404	379.395	80.7902	379.395	82.1545	379.395	80.379	379.395	81.7201	379.395	79.8048	379.395	81.1112	379.395	79.1272	379.395	80.3649	379.395	78.4511	379.395	79.5486	379.395	77.913	379.395	78.7586	379.395	77.6422	379.395	78.1089	379.395	77.7109
392.578	79.8966	392.578	79.7021	392.578	80.1543	392.578	79.6025	392.578	80.4495	392.578	79.6265	392.578	80.7652	392.578	79.7846	392.578	81.0902	392.578	80.0549	392.578	81.414	392.578	80.3823	392.578	81.7215	392.578	80.6928	392.578	81.9901	392.578	80.9129	392.578	82.1894	392.578	80.984	392.578	82.2834	392.578	80.8682	392.578	82.2349	392.578	80.5505	392.578	82.01	392.578	80.0419	392.578	81.5855	392.578	79.3838	392.578	80.9572	392.578	78.6517	392.578	80.1523	392.578	77.9514	392.578	79.2421	392.578	77.4041	392.578	78.3472	392.578	77.1234	392.578	77.6185	392.578	77.189
405.762	79.8869	405.762	79.6534	405.762	80.1586	405.762	79.4758	405.762	80.4618	405.762	79.3863	405.762	80.7925	405.762	79.4241	405.762	81.142	405.762	79.6101	405.762	81.4928	405.762	79.9178	405.762	81.819	405.762	80.2691	405.762	82.0894	405.762	80.5627	405.762	82.2716	405.762	80.7116	405.762	82.3346	405.762	80.665	405.762	82.2505	405.762	80.4117	405.762	81.9941	405.762	79.9732	405.762	81.5456	405.762	79.3924	405.762	80.896	405.762	78.7253	405.762	80.0605	405.762	78.0412	405.762	79.1001	405.762	77.4349	405.762	78.1433	405.762	77.037	405.762	77.3808	405.762	76.9919
420.41	80.2672	420.41	79.9825	420.41	80.6095	420.41	79.7734	420.41	80.9969	420.41	79.6609	420.41	81.4192	420.41	79.6624	420.41	81.8623	420.41	79.7827	420.41	82.303	420.41	80.0062	420.41	82.7084	420.41	80.2927	420.41	83.0394	420.41	80.5808	420.41	83.2555	420.41	80.7996	420.41	83.3201	420.41	80.8805	420.41	83.2034	420.41	80.7655	420.41	82.8847	420.41	80.4122	420.41	82.3539	420.41	79.8059	420.41	81.6118	420.41	78.9792	420.41	80.6748	420.41	78.0393	420.41	79.5854	420.41	77.1864	420.41	78.4389	420.41	76.6887	420.41	77.4141	420.41	76.7625
435.059	80.1343	435.059	79.9557	435.059	80.3613	435.059	79.8409	435.059	80.6415	435.059	79.8256	435.059	80.9865	435.059	79.9487	435.059	81.4002	435.059	80.2197	435.059	81.866	435.059	80.5967	435.059	82.3449	435.059	80.9967	435.059	82.7819	435.059	81.3285	435.059	83.1163	435.059	81.5163	435.059	83.2919	435.059	81.5061	435.059	83.262	435.059	81.2616	435.059	82.993	435.059	80.7645	435.059	82.4676	435.059	80.021	435.059	81.6871	435.059	79.0775	435.059	80.6776	435.059	78.044	435.059	79.5019	435.059	77.1146	435.059	78.2816	435.059	76.552	435.059	77.22	435.059	76.5789
451.172	80.6604	451.172	80.474	451.172	80.8693	451.172	80.3158	451.172	81.1031	451.172	80.1949	451.172	81.3708	451.172	80.1241	451.172	81.6813	451.172	80.1227	451.172	82.0321	451.172	80.208	451.172	82.4031	451.172	80.3714	451.172	82.7561	451.172	80.5574	451.172	83.0407	451.172	80.6735	451.172	83.2002	451.172	80.6215	451.172	83.1774	451.172	80.3252	451.172	82.9197	451.172	79.7439	451.172	82.3842	451.172	78.8813	451.172	81.5452	451.172	77.799	451.172	80.4056	451.172	76.6363	451.172	79.018	451.172	75.628	451.172	77.5171	451.172	75.0821	451.172	76.151	451.172	75.2532
465.82	80.7804	465.82	80.571	465.82	80.9799	465.82	80.3663	465.82	81.1836	465.82	80.2112	465.82	81.4208	465.82	80.1606	465.82	81.7151	465.82	80.2447	465.82	82.0691	465.82	80.4421	465.82	82.4584	465.82	80.6846	465.82	82.8363	465.82	80.8836	465.82	83.1448	465.82	80.9553	465.82	83.3239	465.82	80.8312	465.82	83.3184	465.82	80.4631	465.82	83.0828	465.82	79.8272	465.82	82.5852	465.82	78.9346	465.82	81.813	465.82	77.8537	465.82	80.7789	465.82	76.7413	465.82	79.5313	465.82	75.8621	465.82	78.17	465.82	75.5251	465.82	76.8713	465.82	75.8975
483.398	80.4104	483.398	80.2242	483.398	80.6245	483.398	80.0623	483.398	80.8885	483.398	79.946	483.398	81.2259	483.398	79.9147	483.398	81.6436	483.398	80.0014	483.398	82.1219	483.398	80.1977	483.398	82.6165	483.398	80.4375	483.398	83.0702	483.398	80.6162	483.398	83.4238	483.398	80.6284	483.398	83.6227	483.398	80.3932	483.398	83.6186	483.398	79.8622	483.398	83.3686	483.398	79.0216	483.398	82.8355	483.398	77.9024	483.398	81.9903	483.398	76.601	483.398	80.8202	483.398	75.3112	483.398	79.3459	483.398	74.3413	483.398	77.6579	483.398	74.0498	483.398	75.9698	483.398	74.6398
499.512	79.7317	499.512	79.68	499.512	79.8441	499.512	79.6716	499.512	80.0541	499.512	79.7161	499.512	80.3947	499.512	79.838	499.512	80.8681	499.512	80.0525	499.512	81.4355	499.512	80.343	499.512	82.0277	499.512	80.6514	499.512	82.5663	499.512	80.8903	499.512	82.9792	499.512	80.9654	499.512	83.2065	499.512	80.7962	499.512	83.2008	499.512	80.3264	499.512	82.9277	499.512	79.5297	499.512	82.3654	499.512	78.4177	499.512	81.5053	499.512	77.0621	499.512	80.3524	499.512	75.6396	499.512	78.9335	499.512	74.4799	499.512	77.3276	499.512	74.0104	499.512	75.726	499.512	74.4816
517.09	79.8255	517.09	79.8558	517.09	79.8659	517.09	79.9446	517.09	80.0161	517.09	80.1036	517.09	80.3187	517.09	80.346	517.09	80.7854	517.09	80.6648	517.09	81.3781	517.09	81.0258	517.09	82.0208	517.09	81.3719	517.09	82.6247	517.09	81.6317	517.09	83.1062	517.09	81.7262	517.09	83.3927	517.09	81.5739	517.09	83.4224	517.09	81.095	517.09	83.1436	517.09	80.2178	517.09	82.5151	517.09	78.8962	517.09	81.5091	517.09	77.1517	517.09	80.1172	517.09	75.1553	517.09	78.3646	517.09	73.3422	517.09	76.3498	517.09	72.3952	517.09	74.3263	517.09	72.7969
536.133	79.1099	536.133	79.1116	536.133	79.1291	536.133	79.1292	536.133	79.2453	536.133	79.2383	536.133	79.5586	536.133	79.5483	536.133	80.1235	536.133	80.103	536.133	80.8989	536.133	80.8175	536.133	81.7649	536.133	81.5278	536.133	82.5804	536.133	82.0777	536.133	83.2269	536.133	82.3544	536.133	83.6159	536.133	82.2801	536.133	83.681	536.133	81.7959	536.133	83.368	536.133	80.8542	536.133	82.6319	536.133	79.4252	536.133	81.4385	536.133	77.5192	536.133	79.7718	536.133	75.2449	536.133	77.6559	536.133	72.9415	536.133	75.2184	536.133	71.335	536.133	72.836	536.133	71.2754
555.176	80.199	555.176	80.1057	555.176	80.2109	555.176	79.9383	555.176	80.1961	555.176	79.7636	555.176	80.2591	555.176	79.6904	555.176	80.5101	555.176	79.8186	555.176	80.995	555.176	80.1645	555.176	81.6556	555.176	80.6286	555.176	82.36	555.176	81.0467	555.176	82.9649	555.176	81.2602	555.176	83.351	555.176	81.1476	555.176	83.4277	555.176	80.6211	555.176	83.1272	555.176	79.6146	555.176	82.3974	555.176	78.0786	555.176	81.1986	555.176	76.0023	555.176	79.505	555.176	73.5076	555.176	77.3247	555.176	71.0854	555.176	74.7653	555.176	69.7466	555.176	72.17	555.176	70.2223
574.219	80.2887	574.219	80.1751	574.219	80.3635	574.219	80.0244	574.219	80.4507	574.219	79.9061	574.219	80.6323	574.219	79.9435	574.219	80.9851	574.219	80.2354	574.219	81.5325	574.219	80.7556	574.219	82.2187	574.219	81.3498	574.219	82.9294	574.219	81.8319	574.219	83.5346	574.219	82.0569	574.219	83.919	574.219	81.9295	574.219	83.9919	574.219	81.3832	574.219	83.6871	574.219	80.3576	574.219	82.9605	574.219	78.7896	574.219	81.7859	574.219	76.6423	574.219	80.1515	574.219	74.0277	574.219	78.0674	574.219	71.5311	574.219	75.617	574.219	70.3489	574.219	73.0839	574.219	71.0627
594.727	80.1217	594.727	80.0194	594.727	80.1334	594.727	79.8244	594.727	80.1171	594.727	79.6094	594.727	80.187	594.727	79.5253	594.727	80.4763	594.727	79.7298	594.727	81.0575	594.727	80.2443	594.727	81.8736	594.727	80.9111	594.727	82.7651	594.727	81.5094	594.727	83.5564	594.727	81.8614	594.727	84.1061	594.727	81.8454	594.727	84.309	594.727	81.3696	594.727	84.084	594.727	80.3491	594.727	83.366	594.727	78.7051	594.727	82.1038	594.727	76.3985	594.727	80.2653	594.727	73.5519	594.727	77.8592	594.727	70.7614	594.727	75.0032	594.727	69.2766	594.727	72.0802	594.727	69.8679
615.234	80.7845	615.234	80.7563	615.234	80.6657	615.234	80.5717	615.234	80.4679	615.234	80.2907	615.234	80.3123	615.234	80.0517	615.234	80.3476	615.234	80.0331	615.234	80.6797	615.234	80.3321	615.234	81.2919	615.234	80.864	615.234	82.0439	615.234	81.416	615.234	82.7503	615.234	81.7668	615.234	83.2501	615.234	81.7407	615.234	83.4286	615.234	81.2019	615.234	83.2097	615.234	80.0378	615.234	82.5434	615.234	78.1644	615.234	81.3921	615.234	75.5925	615.234	79.7239	615.234	72.6843	615.234	77.5392	615.234	70.561	615.234	74.986	615.234	70.1413	615.234	72.5572	615.234	70.8975
637.207	81.0435	637.207	80.9595	637.207	80.9579	637.207	80.6841	637.207	80.787	637.207	80.282	637.207	80.6625	637.207	79.9315	637.207	80.7303	637.207	79.8773	637.207	81.0811	637.207	80.2365	637.207	81.6853	637.207	80.8582	637.207	82.4031	637.207	81.4561	637.207	83.0602	637.207	81.7902	637.207	83.5084	637.207	81.7065	637.207	83.6409	637.207	81.1041	637.207	83.386	637.207	79.9047	637.207	82.6971	637.207	78.047	637.207	81.5452	637.207	75.5418	637.207	79.9171	637.207	72.7376	637.207	77.8417	637.207	70.8272	637.207	75.4897	637.207	70.7538	637.207	73.3005	637.207	71.7186
659.18	80.7188	659.18	80.6822	659.18	80.6684	659.18	80.5458	659.18	80.5929	659.18	80.3595	659.18	80.5954	659.18	80.2464	659.18	80.7992	659.18	80.3674	659.18	81.2847	659.18	80.8066	659.18	82.0198	659.18	81.469	659.18	82.8638	659.18	82.126	659.18	83.6402	659.18	82.5369	659.18	84.1946	659.18	82.51	659.18	84.4067	659.18	81.9047	659.18	84.1842	659.18	80.6279	659.18	83.4579	659.18	78.6615	659.18	82.1786	659.18	76.1568	659.18	80.3173	659.18	73.6025	659.18	77.8916	659.18	71.7313	659.18	75.0817	659.18	70.8594	659.18	72.4809	659.18	71.0007
682.617	81.1671	682.617	81.0418	682.617	81.0418	682.617	80.6479	682.617	80.7771	682.617	80.0971	682.617	80.5646	682.617	79.6821	682.617	80.6413	682.617	79.771	682.617	81.1754	682.617	80.4358	682.617	82.1224	682.617	81.3577	682.617	83.2424	682.617	82.1814	682.617	84.2623	682.617	82.7014	682.617	84.975	682.617	82.8215	682.617	85.2418	682.617	82.4827	682.617	84.9738	682.617	81.6011	682.617	84.1236	682.617	80.0246	682.617	82.6754	682.617	77.5589	682.617	80.6286	682.617	74.2162	682.617	78.0119	682.617	71.2227	682.617	75.0731	682.617	70.7106	682.617	72.6649	682.617	71.4339
707.52	81.2773	707.52	81.1986	707.52	81.1817	707.52	80.9013	707.52	80.9722	707.52	80.4022	707.52	80.748	707.52	79.8713	707.52	80.6823	707.52	79.6486	707.52	80.9698	707.52	79.9861	707.52	81.6731	707.52	80.744	707.52	82.6414	707.52	81.5583	707.52	83.6111	707.52	82.1371	707.52	84.3378	707.52	82.3007	707.52	84.6497	707.52	81.9053	707.52	84.4487	707.52	80.7927	707.52	83.6982	707.52	78.8045	707.52	82.4054	707.52	75.958	707.52	80.6077	707.52	73.1996	707.52	78.4169	707.52	72.6162	707.52	76.2179	707.52	73.4704	707.52	74.7448	707.52	74.111
732.422	81.673	732.422	81.7016	732.422	81.3998	732.422	81.441	732.422	80.9987	732.422	80.9203	732.422	80.6659	732.422	80.316	732.422	80.641	732.422	80.0476	732.422	81.1002	732.422	80.5443	732.422	82.0163	732.422	81.6684	732.422	83.1536	732.422	82.8493	732.422	84.2211	732.422	83.6398	732.422	84.9897	732.422	83.8097	732.422	85.3075	732.422	83.2314	732.422	85.0854	732.422	81.8107	732.422	84.2817	732.422	79.4977	732.422	82.8807	732.422	76.4656	732.422	80.874	732.422	73.7906	732.422	78.3171	732.422	73.1852	732.422	75.6676	732.422	73.7082	732.422	74.1231	732.422	73.9066
757.324	81.8183	757.324	81.8409	757.324	81.447	757.324	81.4554	757.324	80.861	757.324	80.7125	757.324	80.2763	757.324	79.8832	757.324	80.0407	757.324	79.5978	757.324	80.5477	757.324	80.4145	757.324	81.8067	757.324	81.9493	757.324	83.3529	757.324	83.4105	757.324	84.7246	757.324	84.3504	757.324	85.6677	757.324	84.5969	757.324	86.0627	757.324	84.0662	757.324	85.8529	757.324	82.6947	757.324	85.0106	757.324	80.485	757.324	83.5107	757.324	77.757	757.324	81.3173	757.324	75.6675	757.324	78.4896	757.324	75.3113	757.324	75.7844	757.324	75.6514	757.324	74.9575	757.324	75.4906
785.156	81.0411	785.156	80.8912	785.156	81.074	785.156	80.6251	785.156	80.9737	785.156	80.2081	785.156	80.7519	785.156	79.6451	785.156	80.5118	785.156	79.232	785.156	80.5076	785.156	79.6659	785.156	81.018	785.156	81.0674	785.156	82.0222	785.156	82.5722	785.156	83.1752	785.156	83.5139	785.156	84.1103	785.156	83.6881	785.156	84.6001	785.156	83.0717	785.156	84.5409	785.156	81.6781	785.156	83.8956	785.156	79.5705	785.156	82.6483	785.156	77.1162	785.156	80.8201	785.156	75.4898	785.156	78.6703	785.156	75.6056	785.156	77.0812	785.156	76.3891	785.156	76.744	785.156	76.7956
811.523	80.6989	811.523	80.8545	811.523	80.5638	811.523	80.9557	811.523	80.4662	811.523	80.9223	811.523	80.4042	811.523	80.7392	811.523	80.4707	811.523	80.5865	811.523	80.8806	811.523	80.9424	811.523	81.7983	811.523	82.0668	811.523	83.1114	811.523	83.437	811.523	84.4682	811.523	84.3997	811.523	85.51	811.523	84.6267	811.523	85.9918	811.523	83.9838	811.523	85.7784	811.523	82.4195	811.523	84.8241	811.523	79.9763	811.523	83.1761	811.523	76.9475	811.523	81.0078	811.523	74.5277	811.523	78.7194	811.523	74.4426	811.523	77.0482	811.523	75.5414	811.523	76.4528	811.523	76.2325
840.82	81.712	840.82	81.9472	840.82	81.486	840.82	82.2475	840.82	81.2099	840.82	82.5466	840.82	80.9258	840.82	82.6745	840.82	80.8632	840.82	82.6644	840.82	81.4044	840.82	83.1243	840.82	82.689	840.82	84.5559	840.82	84.3416	840.82	86.2627	840.82	85.8674	840.82	87.3948	840.82	86.9537	840.82	87.5989	840.82	87.4262	840.82	86.7525	840.82	87.1716	840.82	84.8229	840.82	86.1173	840.82	81.9939	840.82	84.2473	840.82	79.0938	840.82	81.6468	840.82	77.43	840.82	78.6966	840.82	77.0209	840.82	76.5988	840.82	77.0363	840.82	76.3943	840.82	76.8748
870.117	82.6237	870.117	82.9391	870.117	82.1211	870.117	83.0254	870.117	81.4747	870.117	82.949	870.117	80.74	870.117	82.892	870.117	80.1568	870.117	83.0608	870.117	80.2733	870.117	83.7954	870.117	81.5	870.117	85.3265	870.117	83.4254	870.117	87.0963	870.117	85.3102	870.117	88.3393	870.117	86.7019	870.117	88.6838	870.117	87.3874	870.117	88.0302	870.117	87.2638	870.117	86.3967	870.117	86.3121	870.117	83.8837	870.117	84.6167	870.117	80.816	870.117	82.3899	870.117	78.4178	870.117	80.0355	870.117	78.1711	870.117	78.3155	870.117	78.6894	870.117	78.0097	870.117	78.5485
900.879	82.9144	900.879	83.4174	900.879	82.0697	900.879	83.4314	900.879	81.0404	900.879	82.8802	900.879	79.9858	900.879	81.8695	900.879	79.2184	900.879	80.9583	900.879	79.4168	900.879	81.2931	900.879	80.9933	900.879	83.1252	900.879	83.2512	900.879	85.2495	900.879	85.3239	900.879	86.8131	900.879	86.7895	900.879	87.534	900.879	87.4944	900.879	87.2973	900.879	87.4093	900.879	85.9895	900.879	86.5758	900.879	83.5358	900.879	85.0604	900.879	80.455	900.879	82.9316	900.879	79.1095	900.879	80.4262	900.879	80.0558	900.879	78.6735	900.879	80.7805	900.879	79.1428	900.879	80.3887
933.105	81.9519	933.105	82.5657	933.105	81.1389	933.105	82.9106	933.105	80.0793	933.105	82.8236	933.105	78.6313	933.105	82.1094	933.105	76.4974	933.105	80.665	933.105	73.6384	933.105	79.3057	933.105	74.2765	933.105	80.5517	933.105	79.09	933.105	83.424	933.105	82.9121	933.105	85.597	933.105	85.3226	933.105	86.6131	933.105	86.5558	933.105	86.4691	933.105	86.767	933.105	85.2427	933.105	86.0492	933.105	83.2718	933.105	84.4267	933.105	81.4924	933.105	81.8919	933.105	81.197	933.105	78.8318	933.105	81.9841	933.105	77.5371	933.105	82.2962	933.105	79.3882	933.105	81.4184
965.332	81.3321	965.332	81.7566	965.332	81.0855	965.332	82.0191	965.332	81.0979	965.332	81.8087	965.332	81.1159	965.332	80.9981	965.332	80.8132	965.332	79.7514	965.332	80.0387	965.332	78.8765	965.332	79.0374	965.332	79.6787	965.332	78.8277	965.332	81.8325	965.332	80.2798	965.332	83.9318	965.332	82.3535	965.332	85.2412	965.332	83.8686	965.332	85.4887	965.332	84.418	965.332	84.6468	965.332	83.9373	965.332	82.9635	965.332	82.4975	965.332	81.0437	965.332	80.3638	965.332	80.0219	965.332	78.5014	965.332	80.5814	965.332	78.6584	965.332	81.4391	965.332	80.2607	965.332	81.4072
1,000.49	80.5314	1,000.49	81.0732	1,000.49	80.2066	1,000.49	81.6293	1,000.49	79.9967	1,000.49	81.923	1,000.49	79.6487	1,000.49	81.7427	1,000.49	79.0027	1,000.49	80.9401	1,000.49	78.1	1,000.49	79.9502	1,000.49	77.851	1,000.49	80.6894	1,000.49	79.7	1,000.49	83.2433	1,000.49	82.5439	1,000.49	85.4595	1,000.49	84.8471	1,000.49	86.5512	1,000.49	86.165	1,000.49	86.456	1,000.49	86.444	1,000.49	85.2863	1,000.49	85.7347	1,000.49	83.2507	1,000.49	84.1218	1,000.49	81.0941	1,000.49	81.8124	1,000.49	80.7682	1,000.49	79.7179	1,000.49	81.8543	1,000.49	79.6021	1,000.49	82.4011	1,000.49	80.9321	1,000.49	82.0407
1,035.64	79.1988	1,035.64	79.8482	1,035.64	78.9901	1,035.64	80.5744	1,035.64	79.2123	1,035.64	80.871	1,035.64	79.7138	1,035.64	80.627	1,035.64	80.1205	1,035.64	79.9186	1,035.64	79.9604	1,035.64	78.5126	1,035.64	78.9945	1,035.64	77.3453	1,035.64	77.6509	1,035.64	79.6753	1,035.64	77.9779	1,035.64	82.94	1,035.64	80.5619	1,035.64	84.915	1,035.64	82.9246	1,035.64	85.5454	1,035.64	84.1196	1,035.64	85.0629	1,035.64	84.1017	1,035.64	83.7389	1,035.64	82.9346	1,035.64	82.1689	1,035.64	80.9606	1,035.64	81.5996	1,035.64	79.3408	1,035.64	82.0165	1,035.64	79.398	1,035.64	82.2158	1,035.64	80.5992	1,035.64	81.722
1,072.27	77.5791	1,072.27	78.5379	1,072.27	77.6467	1,072.27	80.053	1,072.27	78.1332	1,072.27	80.8462	1,072.27	78.6104	1,072.27	80.2382	1,072.27	78.8961	1,072.27	78.3034	1,072.27	78.9532	1,072.27	76.402	1,072.27	78.9093	1,072.27	76.7262	1,072.27	79.4712	1,072.27	78.6866	1,072.27	81.2526	1,072.27	81.0084	1,072.27	83.3179	1,072.27	82.9599	1,072.27	84.671	1,072.27	83.9502	1,072.27	85.0593	1,072.27	83.6939	1,072.27	84.602	1,072.27	82.402	1,072.27	83.515	1,072.27	80.9695	1,072.27	82.0038	1,072.27	80.7522	1,072.27	80.4151	1,072.27	81.4486	1,072.27	79.5797	1,072.27	81.6267	1,072.27	80.0357	1,072.27	81.0042
1,108.89	78.5124	1,108.89	78.1869	1,108.89	78.3999	1,108.89	78.5558	1,108.89	77.8667	1,108.89	79.7151	1,108.89	77.5165	1,108.89	79.9495	1,108.89	77.7175	1,108.89	78.3342	1,108.89	78.1464	1,108.89	75.4692	1,108.89	78.3091	1,108.89	74.624	1,108.89	78.3771	1,108.89	76.2402	1,108.89	79.226	1,108.89	78.1193	1,108.89	81.0883	1,108.89	80.0564	1,108.89	82.9999	1,108.89	81.7089	1,108.89	84.1888	1,108.89	82.2521	1,108.89	84.3092	1,108.89	81.3494	1,108.89	83.2165	1,108.89	80.1306	1,108.89	81.0656	1,108.89	80.0971	1,108.89	78.6363	1,108.89	80.2643	1,108.89	77.4488	1,108.89	80.0391	1,108.89	78.1226	1,108.89	79.3226
1,148.44	79.3744	1,148.44	78.5279	1,148.44	79.5849	1,148.44	77.972	1,148.44	79.1305	1,148.44	78.4369	1,148.44	78.5722	1,148.44	78.9456	1,148.44	78.4674	1,148.44	78.3851	1,148.44	78.7568	1,148.44	76.5992	1,148.44	78.9856	1,148.44	75.6745	1,148.44	79.2493	1,148.44	78.0744	1,148.44	80.3917	1,148.44	80.8427	1,148.44	82.2972	1,148.44	82.4871	1,148.44	83.7857	1,148.44	83.0057	1,148.44	84.3068	1,148.44	82.5617	1,148.44	83.9007	1,148.44	81.2295	1,148.44	82.7207	1,148.44	79.4639	1,148.44	80.6876	1,148.44	78.9589	1,148.44	77.6957	1,148.44	79.6941	1,148.44	75.5844	1,148.44	79.7867	1,148.44	76.7788	1,148.44	78.6859
1,189.45	80.0362	1,189.45	79.5155	1,189.45	80.0031	1,189.45	78.5704	1,189.45	79.417	1,189.45	77.9954	1,189.45	78.4376	1,189.45	78.3387	1,189.45	77.6175	1,189.45	78.3852	1,189.45	77.6924	1,189.45	77.4451	1,189.45	78.4428	1,189.45	77.0003	1,189.45	79.2192	1,189.45	79.2606	1,189.45	80.2671	1,189.45	82.0427	1,189.45	81.9393	1,189.45	83.5889	1,189.45	83.5493	1,189.45	83.7626	1,189.45	84.3768	1,189.45	82.9056	1,189.45	84.1568	1,189.45	81.3126	1,189.45	82.7701	1,189.45	79.3392	1,189.45	80.0629	1,189.45	78.8512	1,189.45	76.1802	1,189.45	79.9853	1,189.45	74.3422	1,189.45	80.3095	1,189.45	76.6458	1,189.45	79.0813
1,230.47	80.545	1,230.47	80.1473	1,230.47	80.2853	1,230.47	79.2381	1,230.47	79.5262	1,230.47	78.2398	1,230.47	78.2913	1,230.47	77.7228	1,230.47	77.1902	1,230.47	77.8941	1,230.47	77.8736	1,230.47	77.6818	1,230.47	79.5122	1,230.47	77.1106	1,230.47	80.7464	1,230.47	79.7018	1,230.47	81.8277	1,230.47	83.3041	1,230.47	83.2143	1,230.47	85.0719	1,230.47	84.4769	1,230.47	85.1165	1,230.47	84.9368	1,230.47	83.9926	1,230.47	84.2608	1,230.47	81.971	1,230.47	82.341	1,230.47	79.6754	1,230.47	79.1211	1,230.47	79.0122	1,230.47	75.2297	1,230.47	79.7429	1,230.47	74.7136	1,230.47	80.1747	1,230.47	77.3359	1,230.47	79.4226
1,274.41	80.6554	1,274.41	80.6065	1,274.41	80.4553	1,274.41	80.1578	1,274.41	79.8677	1,274.41	79.5482	1,274.41	78.6872	1,274.41	79.1884	1,274.41	77.2977	1,274.41	78.7371	1,274.41	76.8718	1,274.41	77.557	1,274.41	77.8846	1,274.41	76.3264	1,274.41	78.8969	1,274.41	78.5335	1,274.41	80.3878	1,274.41	82.1125	1,274.41	82.8098	1,274.41	84.1338	1,274.41	84.783	1,274.41	84.6032	1,274.41	85.4437	1,274.41	83.9257	1,274.41	84.6525	1,274.41	82.1271	1,274.41	82.7683	1,274.41	79.5916	1,274.41	80.0494	1,274.41	78.6652	1,274.41	76.5742	1,274.41	80.3556	1,274.41	75.1685	1,274.41	81.0649	1,274.41	77.1027	1,274.41	79.6436
1,319.82	80.9304	1,319.82	80.7533	1,319.82	81.2493	1,319.82	80.7223	1,319.82	81.4006	1,319.82	80.6548	1,319.82	80.5644	1,319.82	80.4261	1,319.82	78.167	1,319.82	79.8518	1,319.82	74.9251	1,319.82	79.1417	1,319.82	74.2468	1,319.82	78.7575	1,319.82	77.812	1,319.82	80.1138	1,319.82	81.6344	1,319.82	83.0633	1,319.82	84.2338	1,319.82	84.7313	1,319.82	85.32	1,319.82	84.5193	1,319.82	85.4038	1,319.82	83.0412	1,319.82	84.9027	1,319.82	80.5351	1,319.82	83.3515	1,319.82	78.3557	1,319.82	79.7062	1,319.82	79.2303	1,319.82	73.1874	1,319.82	79.9832	1,319.82	70.4754	1,319.82	79.9607	1,319.82	75.467	1,319.82	78.8284
1,366.7	80.5015	1,366.7	80.9881	1,366.7	80.4645	1,366.7	81.2873	1,366.7	81.0823	1,366.7	81.1431	1,366.7	81.0296	1,366.7	79.9458	1,366.7	79.2697	1,366.7	77.6797	1,366.7	76.0954	1,366.7	76.522	1,366.7	74.73	1,366.7	77.6179	1,366.7	77.47	1,366.7	80.6739	1,366.7	80.5146	1,366.7	84.2545	1,366.7	83.1795	1,366.7	86.0198	1,366.7	84.965	1,366.7	85.8144	1,366.7	85.4008	1,366.7	84.4094	1,366.7	84.2127	1,366.7	82.0166	1,366.7	81.4369	1,366.7	79.179	1,366.7	76.4703	1,366.7	79.4995	1,366.7	67.5617	1,366.7	80.7615	1,366.7	71.9358	1,366.7	80.6501	1,366.7	76.4113	1,366.7	79.069
1,413.57	81.6462	1,413.57	81.9491	1,413.57	81.4015	1,413.57	81.9439	1,413.57	81.2791	1,413.57	81.4685	1,413.57	81.3181	1,413.57	80.8868	1,413.57	80.4827	1,413.57	78.4715	1,413.57	77.9472	1,413.57	71.3129	1,413.57	76.5211	1,413.57	74.7453	1,413.57	78.6652	1,413.57	78.9445	1,413.57	82.3522	1,413.57	81.5162	1,413.57	85.457	1,413.57	84.1362	1,413.57	86.5905	1,413.57	85.2519	1,413.57	85.7737	1,413.57	84.3565	1,413.57	84.0377	1,413.57	81.5404	1,413.57	81.5095	1,413.57	78.8086	1,413.57	76.6409	1,413.57	78.4791	1,413.57	73.3351	1,413.57	80.3799	1,413.57	75.4532	1,413.57	80.3562	1,413.57	77.7545	1,413.57	79.2179
1,463.38	83.2729	1,463.38	82.6956	1,463.38	83.219	1,463.38	82.6989	1,463.38	82.4122	1,463.38	82.492	1,463.38	82.0858	1,463.38	81.7259	1,463.38	81.827	1,463.38	80.992	1,463.38	79.76	1,463.38	77.9903	1,463.38	75.2205	1,463.38	66.883	1,463.38	76.0987	1,463.38	72.8624	1,463.38	80.908	1,463.38	77.8351	1,463.38	84.4597	1,463.38	80.9883	1,463.38	86.4567	1,463.38	83.1156	1,463.38	86.4078	1,463.38	83.1941	1,463.38	84.6701	1,463.38	81.3283	1,463.38	81.8139	1,463.38	77.806	1,463.38	77.0894	1,463.38	77.7228	1,463.38	70.9652	1,463.38	79.8935	1,463.38	73.1025	1,463.38	80.1616	1,463.38	77.3457	1,463.38	79.5623
1,516.11	84.3535	1,516.11	84.1341	1,516.11	83.9974	1,516.11	83.1444	1,516.11	83.4287	1,516.11	82.1873	1,516.11	83.0112	1,516.11	82.028	1,516.11	82.4782	1,516.11	82.4411	1,516.11	80.9363	1,516.11	81.6587	1,516.11	76.6777	1,516.11	76.454	1,516.11	73.9126	1,516.11	72.0856	1,516.11	79.9449	1,516.11	76.7143	1,516.11	84.3798	1,516.11	78.797	1,516.11	87.0487	1,516.11	81.234	1,516.11	87.069	1,516.11	81.7447	1,516.11	84.5945	1,516.11	78.4578	1,516.11	81.1989	1,516.11	75.8024	1,516.11	76.801	1,516.11	76.0556	1,516.11	68.5921	1,516.11	76.661	1,516.11	72.8121	1,516.11	78.3496	1,516.11	77.4907	1,516.11	79.4537
1,568.85	85.0833	1,568.85	84.9043	1,568.85	84.6168	1,568.85	83.3278	1,568.85	83.9435	1,568.85	81.3445	1,568.85	83.1841	1,568.85	81.929	1,568.85	82.5937	1,568.85	83.3807	1,568.85	81.7336	1,568.85	82.5223	1,568.85	78.9866	1,568.85	78.0989	1,568.85	74.7831	1,568.85	75.8816	1,568.85	78.8154	1,568.85	80.4978	1,568.85	84.317	1,568.85	83.3717	1,568.85	87.1727	1,568.85	84.4276	1,568.85	87.1392	1,568.85	83.3096	1,568.85	84.6921	1,568.85	80.2092	1,568.85	79.9793	1,568.85	75.3605	1,568.85	68.9299	1,568.85	74.0344	1,568.85	70.892	1,568.85	77.0168	1,568.85	74.6553	1,568.85	79.6627	1,568.85	77.6635	1,568.85	79.7934
1,624.51	84.4583	1,624.51	84.6816	1,624.51	84.2767	1,624.51	83.7012	1,624.51	84.0543	1,624.51	80.9187	1,624.51	84.141	1,624.51	80.0509	1,624.51	84.3629	1,624.51	83.2541	1,624.51	83.8895	1,624.51	83.8406	1,624.51	81.9788	1,624.51	80.0132	1,624.51	78.4537	1,624.51	72.9163	1,624.51	78.1649	1,624.51	78.9537	1,624.51	83.5255	1,624.51	82.9121	1,624.51	87.0703	1,624.51	83.9277	1,624.51	87.5136	1,624.51	82.7817	1,624.51	85.5198	1,624.51	78.6769	1,624.51	81.5244	1,624.51	71.1213	1,624.51	72.9407	1,624.51	75.7078	1,624.51	75.2487	1,624.51	78.1219	1,624.51	77.8333	1,624.51	77.7298	1,624.51	75.5358	1,624.51	76.1939
1,681.64	82.4985	1,681.64	82.6394	1,681.64	83.3812	1,681.64	82.7289	1,681.64	84.2284	1,681.64	81.2563	1,681.64	84.7199	1,681.64	78.5668	1,681.64	84.3619	1,681.64	78.2179	1,681.64	82.9755	1,681.64	81.7168	1,681.64	80.6976	1,681.64	80.459	1,681.64	78.3716	1,681.64	76.6979	1,681.64	78.7847	1,681.64	79.0323	1,681.64	83.1738	1,681.64	82.8286	1,681.64	86.3577	1,681.64	83.4211	1,681.64	86.9996	1,681.64	81.058	1,681.64	84.8688	1,681.64	76.4177	1,681.64	79.4241	1,681.64	75.1628	1,681.64	70.0126	1,681.64	75.4263	1,681.64	73.0642	1,681.64	75.1767	1,681.64	77.6568	1,681.64	74.7443	1,681.64	76.4175	1,681.64	74.2875
1,741.7	82.465	1,741.7	81.8099	1,741.7	82.7123	1,741.7	80.1122	1,741.7	83.7045	1,741.7	79.9342	1,741.7	84.0531	1,741.7	80.0954	1,741.7	83.706	1,741.7	78.7133	1,741.7	83.1411	1,741.7	74.0917	1,741.7	82.6812	1,741.7	72.6675	1,741.7	81.3918	1,741.7	77.7949	1,741.7	79.4604	1,741.7	80.9436	1,741.7	80.9482	1,741.7	82.8903	1,741.7	85.1319	1,741.7	83.0542	1,741.7	86.0407	1,741.7	80.884	1,741.7	83.4416	1,741.7	77.4704	1,741.7	77.0842	1,741.7	63.1561	1,741.7	63.5254	1,741.7	76.9402	1,741.7	73.6926	1,741.7	77.469	1,741.7	78.3063	1,741.7	71.9332	1,741.7	77.8916	1,741.7	75.2468
1,803.22	82.652	1,803.22	81.8673	1,803.22	82.7977	1,803.22	80.5082	1,803.22	82.0453	1,803.22	80.7456	1,803.22	81.8478	1,803.22	81.2387	1,803.22	81.5596	1,803.22	76.053	1,803.22	80.9401	1,803.22	72.9066	1,803.22	80.5623	1,803.22	75.333	1,803.22	79.931	1,803.22	77.3043	1,803.22	81.2993	1,803.22	82.0962	1,803.22	83.5367	1,803.22	81.2807	1,803.22	84.7834	1,803.22	78.0006	1,803.22	84.943	1,803.22	76.5244	1,803.22	82.5622	1,803.22	72.6656	1,803.22	76.2979	1,803.22	67.5396	1,803.22	68.2738	1,803.22	75.3565	1,803.22	78.5745	1,803.22	72.4097	1,803.22	80.6584	1,803.22	71.8378	1,803.22	77.8722	1,803.22	74.5377
1,866.21	79.541	1,866.21	79.0682	1,866.21	81.0964	1,866.21	79.528	1,866.21	81.0691	1,866.21	79.0796	1,866.21	80.1469	1,866.21	79.7468	1,866.21	79.7266	1,866.21	77.6514	1,866.21	78.4166	1,866.21	72.7723	1,866.21	76.5333	1,866.21	72.3083	1,866.21	76.1963	1,866.21	77.4121	1,866.21	79.8659	1,866.21	82.0709	1,866.21	83.8475	1,866.21	81.0464	1,866.21	85.0343	1,866.21	77.4421	1,866.21	84.2896	1,866.21	68.9757	1,866.21	81.3481	1,866.21	64.0384	1,866.21	75.8647	1,866.21	74.5404	1,866.21	67.2591	1,866.21	77.6422	1,866.21	76.1843	1,866.21	75.0789	1,866.21	78.4711	1,866.21	75.2758	1,866.21	77.3275	1,866.21	75.659
1,932.13	78.0236	1,932.13	78.2103	1,932.13	79.1145	1,932.13	78.9442	1,932.13	78.3745	1,932.13	78.1386	1,932.13	77.5864	1,932.13	76.8298	1,932.13	77.7115	1,932.13	72.9858	1,932.13	75.8331	1,932.13	73.4663	1,932.13	73.3958	1,932.13	73.3941	1,932.13	75.3586	1,932.13	75.227	1,932.13	78.6708	1,932.13	79.9728	1,932.13	82.3474	1,932.13	81.1882	1,932.13	84.5474	1,932.13	81.406	1,932.13	85.0618	1,932.13	78.1465	1,932.13	83.6241	1,932.13	76.3725	1,932.13	78.3611	1,932.13	77.4791	1,932.13	69.6638	1,932.13	75.8599	1,932.13	78.1729	1,932.13	77.8053	1,932.13	80.5482	1,932.13	78.3805	1,932.13	79.872	1,932.13	77.7824
1,999.51	77.8945	1,999.51	78.8068	1,999.51	78.4559	1,999.51	78.8218	1,999.51	77.6107	1,999.51	77.2395	1,999.51	76.3438	1,999.51	73.0962	1,999.51	77.1113	1,999.51	72.1519	1,999.51	77.7966	1,999.51	75.2861	1,999.51	74.1235	1,999.51	69.7235	1,999.51	70.8723	1,999.51	70.2045	1,999.51	76.0827	1,999.51	76.1706	1,999.51	81.7549	1,999.51	75.8043	1,999.51	84.0591	1,999.51	78.8061	1,999.51	84.9473	1,999.51	75.9403	1,999.51	84.1403	1,999.51	77.3866	1,999.51	78.4278	1,999.51	76.9391	1,999.51	75.0505	1,999.51	75.2902	1,999.51	80.6898	1,999.51	77.6151	1,999.51	80.5383	1,999.51	78.5183	1,999.51	79.0403	1,999.51	77.9131
2,069.82	79.5543	2,069.82	79.9614	2,069.82	77.8744	2,069.82	76.6566	2,069.82	77.0378	2,069.82	75.3512	2,069.82	77.4088	2,069.82	72.062	2,069.82	78.7793	2,069.82	71.0155	2,069.82	79.2163	2,069.82	75.2742	2,069.82	75.507	2,069.82	72.3594	2,069.82	72.7595	2,069.82	57.151	2,069.82	73.7158	2,069.82	64.7567	2,069.82	79.6227	2,069.82	73.5209	2,069.82	84.4739	2,069.82	77.8294	2,069.82	85.5373	2,069.82	77.263	2,069.82	84.4888	2,069.82	77.8396	2,069.82	78.1931	2,069.82	77.9547	2,069.82	72.0238	2,069.82	77.8362	2,069.82	79.9271	2,069.82	77.5606	2,069.82	80.461	2,069.82	77.3812	2,069.82	80.0273	2,069.82	78.4697
2,143.07	80.7623	2,143.07	78.1709	2,143.07	80.0017	2,143.07	74.5462	2,143.07	79.6047	2,143.07	70.9431	2,143.07	80.1042	2,143.07	73.2757	2,143.07	81.2035	2,143.07	75.5252	2,143.07	79.6156	2,143.07	74.7864	2,143.07	75.3674	2,143.07	66.3797	2,143.07	76.3254	2,143.07	69.0535	2,143.07	74.977	2,143.07	69.1143	2,143.07	75.7675	2,143.07	71.8135	2,143.07	83.869	2,143.07	78.0585	2,143.07	87.0314	2,143.07	78.6949	2,143.07	85.0395	2,143.07	79.8729	2,143.07	72.6075	2,143.07	78.3131	2,143.07	76.8192	2,143.07	77.2519	2,143.07	80.2405	2,143.07	78.2966	2,143.07	80.363	2,143.07	78.8047	2,143.07	80.6695	2,143.07	79.1219
2,219.24	77.586	2,219.24	76.2097	2,219.24	77.2813	2,219.24	75.0901	2,219.24	77.8768	2,219.24	75.6351	2,219.24	78.8111	2,219.24	75.666	2,219.24	79.433	2,219.24	73.9847	2,219.24	77.8805	2,219.24	76.9557	2,219.24	76.5043	2,219.24	73.585	2,219.24	74.4038	2,219.24	73.595	2,219.24	74.4246	2,219.24	77.2077	2,219.24	67.5008	2,219.24	75.9798	2,219.24	81.9656	2,219.24	75.1065	2,219.24	87.4982	2,219.24	75.4316	2,219.24	86.054	2,219.24	76.9545	2,219.24	76.9567	2,219.24	76.1807	2,219.24	78.4459	2,219.24	78.5881	2,219.24	81.1543	2,219.24	79.6585	2,219.24	79.8149	2,219.24	78.1414	2,219.24	78.9034	2,219.24	77.2334
2,296.88	78.5299	2,296.88	73.288	2,296.88	80.4586	2,296.88	73.7852	2,296.88	80.6394	2,296.88	74.7112	2,296.88	78.0088	2,296.88	74.7802	2,296.88	77.5618	2,296.88	79.3092	2,296.88	79.1811	2,296.88	75.6186	2,296.88	78.4317	2,296.88	72.0157	2,296.88	71.7476	2,296.88	73.9919	2,296.88	65.5976	2,296.88	75.7016	2,296.88	69.1509	2,296.88	74.5966	2,296.88	80.9657	2,296.88	71.6681	2,296.88	87.1022	2,296.88	70.0621	2,296.88	86.046	2,296.88	73.2351	2,296.88	77.427	2,296.88	75.0267	2,296.88	76.4597	2,296.88	79.5503	2,296.88	78.4723	2,296.88	79.845	2,296.88	77.7348	2,296.88	78.4699	2,296.88	76.0992	2,296.88	78.8823
2,378.91	77.4811	2,378.91	77.9874	2,378.91	78.838	2,378.91	78.5774	2,378.91	80.1639	2,378.91	78.9637	2,378.91	78.2649	2,378.91	77.4573	2,378.91	75.9654	2,378.91	76.5918	2,378.91	78.1064	2,378.91	72.7109	2,378.91	78.089	2,378.91	74.7971	2,378.91	77.5998	2,378.91	73.9362	2,378.91	76.2439	2,378.91	72.8122	2,378.91	65.9655	2,378.91	73.6503	2,378.91	80.2342	2,378.91	68.8784	2,378.91	86.6326	2,378.91	64.4229	2,378.91	85.6768	2,378.91	72.1076	2,378.91	78.2198	2,378.91	73.3341	2,378.91	76.2905	2,378.91	77.0558	2,378.91	79.1994	2,378.91	78.0401	2,378.91	79.2521	2,378.91	79.4657	2,378.91	79.1947	2,378.91	79.8744
2,462.4	76.1756	2,462.4	78.194	2,462.4	78.6248	2,462.4	77.3014	2,462.4	81.0399	2,462.4	74.9302	2,462.4	80.6799	2,462.4	72.6868	2,462.4	77.8535	2,462.4	73.7522	2,462.4	76.7281	2,462.4	73.7236	2,462.4	77.6346	2,462.4	76.7825	2,462.4	75.2872	2,462.4	73.4424	2,462.4	73.3953	2,462.4	68.8536	2,462.4	72.5754	2,462.4	69.9151	2,462.4	77.8608	2,462.4	57.9716	2,462.4	83.339	2,462.4	56.6702	2,462.4	84.0513	2,462.4	64.9107	2,462.4	75.9938	2,462.4	70.4435	2,462.4	77.1344	2,462.4	73.934	2,462.4	79.742	2,462.4	77.4453	2,462.4	80.0926	2,462.4	76.6441	2,462.4	78.9882	2,462.4	77.1496
2,548.83	77.6912	2,548.83	77.4447	2,548.83	76.4701	2,548.83	75.1085	2,548.83	78.639	2,548.83	71.1404	2,548.83	79.8404	2,548.83	74.4269	2,548.83	79.379	2,548.83	77.1314	2,548.83	78.2737	2,548.83	77.8713	2,548.83	76.7446	2,548.83	75.4399	2,548.83	75.1562	2,548.83	74.5674	2,548.83	77.1533	2,548.83	73.9813	2,548.83	74.053	2,548.83	70.5337	2,548.83	76.7637	2,548.83	61.4713	2,548.83	82.6014	2,548.83	66.775	2,548.83	83.1492	2,548.83	61.4428	2,548.83	75.4713	2,548.83	66.5961	2,548.83	77.0615	2,548.83	70.4639	2,548.83	80.1609	2,548.83	76.4841	2,548.83	79.2124	2,548.83	78.1792	2,548.83	78.4063	2,548.83	77.1673
2,639.65	78.5739	2,639.65	75.7777	2,639.65	78.5101	2,639.65	73.0267	2,639.65	77.443	2,639.65	77.4823	2,639.65	78.3809	2,639.65	79.4904	2,639.65	79.3349	2,639.65	79.6015	2,639.65	78.7655	2,639.65	78.2778	2,639.65	78.6273	2,639.65	77.5668	2,639.65	77.0797	2,639.65	79.0808	2,639.65	78.979	2,639.65	73.8325	2,639.65	76.6959	2,639.65	64.3374	2,639.65	74.5616	2,639.65	64.3753	2,639.65	82.4425	2,639.65	62.7252	2,639.65	83.7002	2,639.65	65.0494	2,639.65	73.9044	2,639.65	64.5609	2,639.65	77.7501	2,639.65	67.172	2,639.65	79.9382	2,639.65	73.8419	2,639.65	77.0269	2,639.65	74.357	2,639.65	76.7134	2,639.65	76.6535
2,731.93	77.0467	2,731.93	75.3891	2,731.93	78.9002	2,731.93	78.1293	2,731.93	78.9524	2,731.93	81.0717	2,731.93	78.2351	2,731.93	80.4709	2,731.93	78.88	2,731.93	77.8553	2,731.93	79.4375	2,731.93	79.1146	2,731.93	78.8098	2,731.93	74.7273	2,731.93	76.8515	2,731.93	74.3198	2,731.93	75.3812	2,731.93	72.8461	2,731.93	74.1569	2,731.93	58.1998	2,731.93	71.7583	2,731.93	67.2799	2,731.93	83.0771	2,731.93	65.3942	2,731.93	84.4857	2,731.93	62.7032	2,731.93	71.8541	2,731.93	62.7738	2,731.93	77.3504	2,731.93	65.1081	2,731.93	77.5817	2,731.93	70.9874	2,731.93	72.5273	2,731.93	71.4343	2,731.93	69.9602	2,731.93	74.0589
2,828.61	75.9094	2,828.61	77.8167	2,828.61	77.7299	2,828.61	80.2439	2,828.61	80.2221	2,828.61	79.619	2,828.61	81.0483	2,828.61	79.4531	2,828.61	80.7508	2,828.61	79.9067	2,828.61	80.1104	2,828.61	78.45	2,828.61	79.8762	2,828.61	76.2423	2,828.61	79.6898	2,828.61	76.2571	2,828.61	77.5865	2,828.61	73.808	2,828.61	72.4599	2,828.61	67.0373	2,828.61	70.5263	2,828.61	72.4628	2,828.61	82.6673	2,828.61	72.2133	2,828.61	82.3788	2,828.61	59.0722	2,828.61	64.9371	2,828.61	66.2843	2,828.61	75.8074	2,828.61	58.7509	2,828.61	75.3526	2,828.61	67.7233	2,828.61	71.9561	2,828.61	62.6683	2,828.61	70.2877	2,828.61	72.1758
2,928.22	77.2984	2,928.22	78.8613	2,928.22	76.1188	2,928.22	79.9647	2,928.22	78.777	2,928.22	78.5006	2,928.22	80.4567	2,928.22	79.3814	2,928.22	80.5473	2,928.22	78.5236	2,928.22	80.5969	2,928.22	77.373	2,928.22	80.952	2,928.22	72.5453	2,928.22	78.7677	2,928.22	72.362	2,928.22	73.0056	2,928.22	77.2263	2,928.22	71.1301	2,928.22	67.3253	2,928.22	74.7435	2,928.22	73.9641	2,928.22	82.2944	2,928.22	74.2966	2,928.22	80.2488	2,928.22	65.097	2,928.22	69.7707	2,928.22	65.7862	2,928.22	74.8741	2,928.22	64.4723	2,928.22	74.4351	2,928.22	54.2447	2,928.22	70.3785	2,928.22	67.1674	2,928.22	69.2549	2,928.22	65.0517
3,030.76	77.1942	3,030.76	78.1215	3,030.76	75.2933	3,030.76	78.4696	3,030.76	77.1888	3,030.76	78.4717	3,030.76	79.8503	3,030.76	79.2932	3,030.76	79.4656	3,030.76	78.6329	3,030.76	79.0228	3,030.76	76.2471	3,030.76	79.9262	3,030.76	73.1171	3,030.76	78.2186	3,030.76	73.6519	3,030.76	72.964	3,030.76	76.8006	3,030.76	76.4017	3,030.76	62.149	3,030.76	77.3552	3,030.76	70.7139	3,030.76	80.5681	3,030.76	70.6925	3,030.76	80.5495	3,030.76	62.4134	3,030.76	69.0581	3,030.76	68.3256	3,030.76	72.1046	3,030.76	61.8983	3,030.76	72.2495	3,030.76	59.2925	3,030.76	67.8823	3,030.76	66.2175	3,030.76	70.7962	3,030.76	66.5382
3,137.7	76.1903	3,137.7	76.5203	3,137.7	74.4152	3,137.7	76.9611	3,137.7	74.4261	3,137.7	78.8219	3,137.7	77.8803	3,137.7	77.4962	3,137.7	79.0335	3,137.7	77.098	3,137.7	78.401	3,137.7	75.6206	3,137.7	78.9428	3,137.7	75.5367	3,137.7	77.7492	3,137.7	72.7001	3,137.7	74.5755	3,137.7	70.7693	3,137.7	77.7004	3,137.7	58.7096	3,137.7	77.5415	3,137.7	68.8985	3,137.7	77.3742	3,137.7	70.9481	3,137.7	76.8409	3,137.7	60.8072	3,137.7	59.2895	3,137.7	67.9047	3,137.7	71.2009	3,137.7	65.8464	3,137.7	70.154	3,137.7	64.4127	3,137.7	65.0627	3,137.7	66.6224	3,137.7	68.5307	3,137.7	66.646
3,249.02	74.327	3,249.02	75.1206	3,249.02	73.7175	3,249.02	76.8098	3,249.02	73.0098	3,249.02	76.1289	3,249.02	75.3541	3,249.02	75.1841	3,249.02	77.1804	3,249.02	75.2308	3,249.02	76.9273	3,249.02	73.2015	3,249.02	77.4629	3,249.02	73.8883	3,249.02	76.4786	3,249.02	60.3984	3,249.02	75.7199	3,249.02	64.4749	3,249.02	77.0817	3,249.02	60.4042	3,249.02	75.8091	3,249.02	65.2588	3,249.02	75.1515	3,249.02	67.0863	3,249.02	73.0632	3,249.02	61.474	3,249.02	61.5027	3,249.02	63.8549	3,249.02	67.9381	3,249.02	61.0868	3,249.02	67.9249	3,249.02	61.4314	3,249.02	58.1964	3,249.02	58.5528	3,249.02	64.9611	3,249.02	62.5817
3,363.28	74.9297	3,363.28	75.91	3,363.28	74.298	3,363.28	75.7706	3,363.28	72.8742	3,363.28	75.323	3,363.28	72.4028	3,363.28	75.0168	3,363.28	74.0591	3,363.28	73.4243	3,363.28	74.8399	3,363.28	72.3375	3,363.28	75.987	3,363.28	64.7811	3,363.28	76.8283	3,363.28	66.3327	3,363.28	76.4143	3,363.28	66.8094	3,363.28	77.2287	3,363.28	63.9634	3,363.28	74.3898	3,363.28	52.8993	3,363.28	71.6156	3,363.28	62.0715	3,363.28	70.8001	3,363.28	62.8669	3,363.28	67.8424	3,363.28	54.7632	3,363.28	45.963	3,363.28	61.4281	3,363.28	63.5879	3,363.28	55.2915	3,363.28	59.4654	3,363.28	50.6669	3,363.28	53.5153	3,363.28	58.6181
3,481.93	77.6512	3,481.93	79.0146	3,481.93	75.2661	3,481.93	78.9728	3,481.93	72.3225	3,481.93	78.702	3,481.93	72.6834	3,481.93	78.2223	3,481.93	75.2815	3,481.93	76.6415	3,481.93	76.9587	3,481.93	74.9964	3,481.93	78.2224	3,481.93	67.6542	3,481.93	78.7127	3,481.93	73.3304	3,481.93	79.4244	3,481.93	69.0035	3,481.93	78.9483	3,481.93	63.2843	3,481.93	75.3913	3,481.93	63.1556	3,481.93	71.8203	3,481.93	56.1426	3,481.93	62.0007	3,481.93	61.7655	3,481.93	70.9192	3,481.93	60.5093	3,481.93	69.7981	3,481.93	59.1971	3,481.93	68.1832	3,481.93	50.0013	3,481.93	69.9597	3,481.93	65.1544	3,481.93	67.7406	3,481.93	68.3228
3,604.98	79.6472	3,604.98	80.8173	3,604.98	75.9206	3,604.98	81.3006	3,604.98	70.9136	3,604.98	81.3769	3,604.98	71.731	3,604.98	80.4258	3,604.98	76.5488	3,604.98	78.2686	3,604.98	79.2781	3,604.98	73.8873	3,604.98	79.9356	3,604.98	75.5755	3,604.98	81.4118	3,604.98	75.2425	3,604.98	81.7322	3,604.98	55.9558	3,604.98	79.7073	3,604.98	60.606	3,604.98	76.397	3,604.98	63.5546	3,604.98	71.838	3,604.98	62.5165	3,604.98	67.3909	3,604.98	59.4951	3,604.98	72.7712	3,604.98	64.0845	3,604.98	72.9249	3,604.98	62.4087	3,604.98	71.2392	3,604.98	41.9635	3,604.98	73.3653	3,604.98	67.9885	3,604.98	70.9732	3,604.98	73.236
3,732.42	80.6449	3,732.42	81.8084	3,732.42	77.04	3,732.42	82.165	3,732.42	71.3084	3,732.42	81.9836	3,732.42	72.862	3,732.42	80.0769	3,732.42	76.7868	3,732.42	78.1103	3,732.42	79.3464	3,732.42	75.2084	3,732.42	79.2611	3,732.42	73.519	3,732.42	79.7769	3,732.42	69.3314	3,732.42	80.7525	3,732.42	66.9028	3,732.42	77.7265	3,732.42	56.7714	3,732.42	76.7408	3,732.42	64.962	3,732.42	76.8148	3,732.42	58.0464	3,732.42	73.1746	3,732.42	61.1604	3,732.42	74.6073	3,732.42	63.873	3,732.42	72.4065	3,732.42	62.7634	3,732.42	67.908	3,732.42	59.2585	3,732.42	74.6631	3,732.42	69.2554	3,732.42	72.2273	3,732.42	73.7261
3,864.26	80.5834	3,864.26	81.6048	3,864.26	77.5422	3,864.26	82.7095	3,864.26	71.6181	3,864.26	81.0539	3,864.26	74.1971	3,864.26	79.8091	3,864.26	77.6192	3,864.26	77.5799	3,864.26	79.1401	3,864.26	74.6684	3,864.26	79.1868	3,864.26	70.4416	3,864.26	78.4837	3,864.26	63.1375	3,864.26	81.5848	3,864.26	67.6276	3,864.26	78.5968	3,864.26	59.9677	3,864.26	77.4691	3,864.26	66.6784	3,864.26	80.1366	3,864.26	63.0169	3,864.26	73.3365	3,864.26	58.7857	3,864.26	74.3405	3,864.26	61.8019	3,864.26	69.0666	3,864.26	59.0813	3,864.26	70.8488	3,864.26	60.743	3,864.26	73.8597	3,864.26	63.5595	3,864.26	72.3675	3,864.26	73.349
4,000.49	79.4613	4,000.49	81.5134	4,000.49	76.7361	4,000.49	82.226	4,000.49	70.8085	4,000.49	79.7582	4,000.49	72.6045	4,000.49	78.4629	4,000.49	75.4946	4,000.49	74.0918	4,000.49	77.5312	4,000.49	71.3297	4,000.49	77.5348	4,000.49	60.252	4,000.49	77.3432	4,000.49	72.007	4,000.49	80.0876	4,000.49	68.2193	4,000.49	76.7262	4,000.49	63.1328	4,000.49	76.8071	4,000.49	59.7149	4,000.49	79.8167	4,000.49	63.2016	4,000.49	65.2477	4,000.49	59.6668	4,000.49	73.0197	4,000.49	61.4775	4,000.49	63.3676	4,000.49	52.5675	4,000.49	72.2561	4,000.49	44.7743	4,000.49	71.8907	4,000.49	66.3346	4,000.49	73.1794	4,000.49	64.9629
4,141.11	79.4681	4,141.11	81.5192	4,141.11	75.3729	4,141.11	80.0553	4,141.11	69.0992	4,141.11	79.0566	4,141.11	70.9579	4,141.11	76.3127	4,141.11	71.8412	4,141.11	68.8592	4,141.11	77.2038	4,141.11	68.206	4,141.11	76.4278	4,141.11	67.8372	4,141.11	76.7954	4,141.11	72.7673	4,141.11	77.1729	4,141.11	59.6974	4,141.11	70.1546	4,141.11	55.0209	4,141.11	73.0181	4,141.11	59.1102	4,141.11	78.3328	4,141.11	58.0352	4,141.11	54.6988	4,141.11	60.4241	4,141.11	63.3985	4,141.11	58.2033	4,141.11	65.8005	4,141.11	55.4797	4,141.11	70.9038	4,141.11	59.0061	4,141.11	74.0008	4,141.11	64.2044	4,141.11	71.1233	4,141.11	70.1502
4,287.6	78.6798	4,287.6	79.4821	4,287.6	73.9565	4,287.6	78.6747	4,287.6	70.3278	4,287.6	77.4353	4,287.6	69.8202	4,287.6	70.7305	4,287.6	72.4211	4,287.6	67.0778	4,287.6	75.797	4,287.6	54.0059	4,287.6	76.2962	4,287.6	62.8554	4,287.6	74.221	4,287.6	69.5954	4,287.6	72.8656	4,287.6	72.8574	4,287.6	66.2657	4,287.6	64.4675	4,287.6	71.1857	4,287.6	60.3972	4,287.6	74.3543	4,287.6	57.0295	4,287.6	66.9381	4,287.6	63.2494	4,287.6	66.3532	4,287.6	55.6284	4,287.6	69.7556	4,287.6	56.7781	4,287.6	71.8349	4,287.6	55.0213	4,287.6	73.4333	4,287.6	58.1948	4,287.6	72.3351	4,287.6	70.0938
4,438.48	77.5194	4,438.48	78.182	4,438.48	74.0886	4,438.48	77.0672	4,438.48	68.6828	4,438.48	71.9877	4,438.48	60.1007	4,438.48	68.3157	4,438.48	71.9906	4,438.48	59.4784	4,438.48	72.3697	4,438.48	61.7176	4,438.48	74.8221	4,438.48	63.8252	4,438.48	68.953	4,438.48	72.0478	4,438.48	65.5366	4,438.48	66.6441	4,438.48	73.9682	4,438.48	63.164	4,438.48	74.6001	4,438.48	58.5869	4,438.48	71.6885	4,438.48	58.543	4,438.48	65.3666	4,438.48	65.5228	4,438.48	67.6255	4,438.48	52.6604	4,438.48	69.5951	4,438.48	62.8177	4,438.48	73.4988	4,438.48	64.7915	4,438.48	74.7893	4,438.48	61.5183	4,438.48	70.7825	4,438.48	70.115
4,595.21	75.2099	4,595.21	75.4435	4,595.21	71.5363	4,595.21	73.7088	4,595.21	65.5147	4,595.21	69.6118	4,595.21	63.3809	4,595.21	60.3336	4,595.21	70.8804	4,595.21	58.3042	4,595.21	68.6581	4,595.21	60.1764	4,595.21	69.7848	4,595.21	66.2562	4,595.21	65.0156	4,595.21	67.3801	4,595.21	69.1867	4,595.21	61.0072	4,595.21	73.4504	4,595.21	62.8781	4,595.21	72.6237	4,595.21	55.2192	4,595.21	69.3488	4,595.21	56.0476	4,595.21	60.787	4,595.21	63.6815	4,595.21	64.4483	4,595.21	53.8542	4,595.21	67.2579	4,595.21	59.1042	4,595.21	70.9416	4,595.21	61.5532	4,595.21	73.396	4,595.21	61.4382	4,595.21	70.1146	4,595.21	64.8253
4,756.35	72.4201	4,756.35	71.7588	4,756.35	69.1533	4,756.35	66.7492	4,756.35	65.1431	4,756.35	63.2511	4,756.35	64.4629	4,756.35	59.0265	4,756.35	63.1344	4,756.35	62.8114	4,756.35	62.804	4,756.35	66.376	4,756.35	62.8352	4,756.35	63.0019	4,756.35	64.003	4,756.35	58.7876	4,756.35	68.915	4,756.35	67.22	4,756.35	72.5854	4,756.35	64.3037	4,756.35	70.2503	4,756.35	61.1713	4,756.35	71.079	4,756.35	53.1491	4,756.35	61.5245	4,756.35	60.0439	4,756.35	62.6798	4,756.35	51.8673	4,756.35	66.9264	4,756.35	58.5612	4,756.35	67.1082	4,756.35	59.3059	4,756.35	69.4232	4,756.35	58.628	4,756.35	67.2086	4,756.35	60.8882
4,924.8	78.284	4,924.8	77.1603	4,924.8	75.4047	4,924.8	75.659	4,924.8	70.2331	4,924.8	72.8193	4,924.8	63.0459	4,924.8	70.8132	4,924.8	59.505	4,924.8	68.098	4,924.8	62.2468	4,924.8	69.1708	4,924.8	63.3744	4,924.8	66.8289	4,924.8	66.5646	4,924.8	68.6194	4,924.8	66.9013	4,924.8	70.098	4,924.8	71.4574	4,924.8	69.7826	4,924.8	73.0597	4,924.8	64.8869	4,924.8	73.3248	4,924.8	56.9832	4,924.8	58.5413	4,924.8	59.9088	4,924.8	63.7999	4,924.8	49.3256	4,924.8	66.5131	4,924.8	49.048	4,924.8	60.3649	4,924.8	55.6017	4,924.8	62.1756	4,924.8	49.8349	4,924.8	61.1114	4,924.8	59.0645
5,097.66	82.8089	5,097.66	82.5863	5,097.66	80.7647	5,097.66	82.1213	5,097.66	74.6577	5,097.66	79.366	5,097.66	67.439	5,097.66	76.3336	5,097.66	55.1552	5,097.66	72.7511	5,097.66	64.8217	5,097.66	72.0743	5,097.66	61.2858	5,097.66	68.9037	5,097.66	66.2826	5,097.66	69.7802	5,097.66	68.5012	5,097.66	70.0373	5,097.66	68.5378	5,097.66	71.2652	5,097.66	74.8999	5,097.66	63.364	5,097.66	74.44	5,097.66	41.3933	5,097.66	55.9138	5,097.66	59.7912	5,097.66	58.7467	5,097.66	56.1077	5,097.66	68.2973	5,097.66	53.6629	5,097.66	55.4243	5,097.66	41.0752	5,097.66	51.0456	5,097.66	49.2495	5,097.66	53.5699	5,097.66	49.9128
5,277.83	85.042	5,277.83	85.1947	5,277.83	83.4853	5,277.83	84.4826	5,277.83	78.4758	5,277.83	81.9441	5,277.83	70.9784	5,277.83	78.0909	5,277.83	64.3634	5,277.83	74.8049	5,277.83	66.39	5,277.83	71.1717	5,277.83	68.7868	5,277.83	67.802	5,277.83	70.9042	5,277.83	68.3141	5,277.83	68.4122	5,277.83	70.2486	5,277.83	66.6421	5,277.83	70.7453	5,277.83	74.5771	5,277.83	65.6521	5,277.83	75.3447	5,277.83	50.2718	5,277.83	67.8172	5,277.83	60.4447	5,277.83	55.9587	5,277.83	56.9213	5,277.83	71.6976	5,277.83	63.5354	5,277.83	65.823	5,277.83	60.7407	5,277.83	68.9198	5,277.83	62.1075	5,277.83	61.7526	5,277.83	55.428
5,463.87	84.8517	5,463.87	85.1677	5,463.87	82.7446	5,463.87	84.1329	5,463.87	78.967	5,463.87	82.0546	5,463.87	71.2924	5,463.87	78.3949	5,463.87	67.5999	5,463.87	73.1506	5,463.87	67.301	5,463.87	65.2411	5,463.87	72.0292	5,463.87	68.6952	5,463.87	73.9962	5,463.87	64.9216	5,463.87	69.8827	5,463.87	73.5678	5,463.87	69.5032	5,463.87	69.0408	5,463.87	74.5399	5,463.87	63.3436	5,463.87	75.4963	5,463.87	49.3679	5,463.87	68.7888	5,463.87	56.9341	5,463.87	48.7527	5,463.87	49.9305	5,463.87	69.0075	5,463.87	59.7601	5,463.87	56.1491	5,463.87	62.4765	5,463.87	67.4868	5,463.87	63.6246	5,463.87	57.3454	5,463.87	61.474
5,657.23	84.0036	5,657.23	84.8126	5,657.23	82.1116	5,657.23	83.9014	5,657.23	77.9083	5,657.23	81.1367	5,657.23	71.4208	5,657.23	78.0007	5,657.23	69.0791	5,657.23	71.192	5,657.23	70.9415	5,657.23	65.5228	5,657.23	73.2031	5,657.23	64.7255	5,657.23	71.7913	5,657.23	69.0882	5,657.23	70.9148	5,657.23	68.7475	5,657.23	66.2619	5,657.23	66.2497	5,657.23	72.0974	5,657.23	53.0293	5,657.23	71.9559	5,657.23	48.9644	5,657.23	68.3623	5,657.23	57.7537	5,657.23	58.637	5,657.23	52.1122	5,657.23	59.9508	5,657.23	56.8624	5,657.23	66.5946	5,657.23	61.8725	5,657.23	64.1566	5,657.23	63.2622	5,657.23	59.8685	5,657.23	60.2742
5,856.45	83.9928	5,856.45	84.484	5,856.45	81.8277	5,856.45	83.2854	5,856.45	76.689	5,856.45	80.2477	5,856.45	66.4145	5,856.45	75.3183	5,856.45	66.2021	5,856.45	65.1955	5,856.45	72.2432	5,856.45	65.7204	5,856.45	74.3245	5,856.45	64.0402	5,856.45	70.4298	5,856.45	68.1536	5,856.45	70.572	5,856.45	68.1793	5,856.45	72.2784	5,856.45	66.9044	5,856.45	67.686	5,856.45	57.6512	5,856.45	68.2731	5,856.45	57.1535	5,856.45	69.5037	5,856.45	57.2866	5,856.45	61.596	5,856.45	55.3321	5,856.45	55.4155	5,856.45	48.837	5,856.45	68.0676	5,856.45	56.9423	5,856.45	61.4026	5,856.45	64.6842	5,856.45	70.4118	5,856.45	60.907
6,062.99	83.7741	6,062.99	84.1268	6,062.99	81.2677	6,062.99	83.1334	6,062.99	76.8583	6,062.99	79.4888	6,062.99	69.8255	6,062.99	73.4842	6,062.99	53.5246	6,062.99	64.684	6,062.99	67.8241	6,062.99	59.3255	6,062.99	70.5851	6,062.99	68.7993	6,062.99	68.9437	6,062.99	69.2844	6,062.99	70.8692	6,062.99	69.351	6,062.99	71.8718	6,062.99	65.6108	6,062.99	71.4244	6,062.99	59.0527	6,062.99	60.4859	6,062.99	49.604	6,062.99	68.9278	6,062.99	54.5013	6,062.99	63.1152	6,062.99	54.7726	6,062.99	61.4948	6,062.99	56.8788	6,062.99	63.2223	6,062.99	55.5494	6,062.99	65.5733	6,062.99	65.517	6,062.99	71.3727	6,062.99	66.2016
6,276.86	83.5283	6,276.86	84.5225	6,276.86	81.0725	6,276.86	82.7152	6,276.86	77.0478	6,276.86	78.2902	6,276.86	71.6376	6,276.86	71.6838	6,276.86	61.8195	6,276.86	63.6698	6,276.86	66.0563	6,276.86	65.7704	6,276.86	68.649	6,276.86	65.2412	6,276.86	68.345	6,276.86	69.2875	6,276.86	68.4412	6,276.86	64.07	6,276.86	69.2399	6,276.86	64.3036	6,276.86	70.1052	6,276.86	57.5771	6,276.86	51.4004	6,276.86	56.7088	6,276.86	67.9284	6,276.86	49.9102	6,276.86	62.4428	6,276.86	54.3799	6,276.86	58.4085	6,276.86	57.9476	6,276.86	55.2177	6,276.86	61.8382	6,276.86	64.3969	6,276.86	65.4133	6,276.86	69.5924	6,276.86	65.019
6,498.05	85.0271	6,498.05	85.9737	6,498.05	82.1387	6,498.05	83.8092	6,498.05	76.8912	6,498.05	78.5014	6,498.05	71.1797	6,498.05	69.6503	6,498.05	65.3795	6,498.05	64.1695	6,498.05	66.6393	6,498.05	69.976	6,498.05	70.327	6,498.05	70.5576	6,498.05	74.1294	6,498.05	71.0788	6,498.05	69.8018	6,498.05	68.0853	6,498.05	67.0209	6,498.05	67.1838	6,498.05	70.7094	6,498.05	62.7252	6,498.05	66.5513	6,498.05	51.0607	6,498.05	67.0786	6,498.05	53.2019	6,498.05	59.8101	6,498.05	48.8194	6,498.05	59.9533	6,498.05	53.5788	6,498.05	65.4871	6,498.05	57.696	6,498.05	53.1593	6,498.05	59.1883	6,498.05	62.29	6,498.05	61.5075
6,726.56	87.0323	6,726.56	87.1606	6,726.56	83.5123	6,726.56	84.2324	6,726.56	75.8788	6,726.56	78.3869	6,726.56	67.3875	6,726.56	68.0796	6,726.56	48.1119	6,726.56	69.679	6,726.56	61.1702	6,726.56	71.3617	6,726.56	69.8375	6,726.56	72.4792	6,726.56	74.3103	6,726.56	72.1899	6,726.56	71.3419	6,726.56	69.9997	6,726.56	68.5393	6,726.56	66.9036	6,726.56	72.1154	6,726.56	64.4331	6,726.56	71.1275	6,726.56	63.0636	6,726.56	68.1087	6,726.56	56.3527	6,726.56	60.2645	6,726.56	54.1541	6,726.56	63.0614	6,726.56	50.558	6,726.56	59.5525	6,726.56	57.6083	6,726.56	62.3985	6,726.56	60.5687	6,726.56	67.181	6,726.56	61.2933
6,963.87	87.8851	6,963.87	87.3379	6,963.87	84.6551	6,963.87	83.8382	6,963.87	75.2833	6,963.87	76.6159	6,963.87	70.845	6,963.87	70.6717	6,963.87	74.215	6,963.87	73.2889	6,963.87	68.254	6,963.87	73.8481	6,963.87	69.7201	6,963.87	73.1291	6,963.87	68.9962	6,963.87	72.5489	6,963.87	67.4642	6,963.87	70.5566	6,963.87	63.335	6,963.87	69.0042	6,963.87	68.8358	6,963.87	63.627	6,963.87	67.7111	6,963.87	65.5843	6,963.87	66.4105	6,963.87	58.774	6,963.87	55.493	6,963.87	52.7055	6,963.87	56.7276	6,963.87	56.5299	6,963.87	67.6561	6,963.87	64.202	6,963.87	67.9154	6,963.87	66.261	6,963.87	72.5645	6,963.87	68.5662
7,209.96	87.0535	7,209.96	86.0036	7,209.96	84.2973	7,209.96	82.0693	7,209.96	72.3433	7,209.96	77.0055	7,209.96	76.8799	7,209.96	76.3669	7,209.96	79.8893	7,209.96	74.1828	7,209.96	75.9832	7,209.96	72.2423	7,209.96	74.8916	7,209.96	69.4266	7,209.96	66.3476	7,209.96	69.1992	7,209.96	66.0873	7,209.96	68.686	7,209.96	66.3664	7,209.96	67.2219	7,209.96	65.6741	7,209.96	61.2885	7,209.96	66.9747	7,209.96	65.0917	7,209.96	68.6175	7,209.96	58.0699	7,209.96	60.8434	7,209.96	49.0301	7,209.96	57.5627	7,209.96	59.1535	7,209.96	70.539	7,209.96	62.1601	7,209.96	74.0679	7,209.96	68.3446	7,209.96	75.8234	7,209.96	70.3312
7,464.84	83.9521	7,464.84	82.9281	7,464.84	81.7947	7,464.84	79.8649	7,464.84	68.7104	7,464.84	78.6358	7,464.84	77.0041	7,464.84	77.0004	7,464.84	79.2243	7,464.84	72.9162	7,464.84	77.5077	7,464.84	68.5689	7,464.84	76.1776	7,464.84	63.9672	7,464.84	66.7266	7,464.84	66.5725	7,464.84	69.0537	7,464.84	68.0248	7,464.84	67.4972	7,464.84	68.1394	7,464.84	65.3894	7,464.84	58.7303	7,464.84	67.424	7,464.84	65.0072	7,464.84	70.3285	7,464.84	48.4623	7,464.84	54.839	7,464.84	55.8148	7,464.84	65.2917	7,464.84	62.5427	7,464.84	74.0022	7,464.84	64.6768	7,464.84	77.9956	7,464.84	69.2511	7,464.84	78.9773	7,464.84	72.2315
7,727.05	78.9735	7,727.05	78.3852	7,727.05	77.8235	7,727.05	80.1209	7,727.05	72.9584	7,727.05	80.6961	7,727.05	71.4726	7,727.05	78.082	7,727.05	71.8713	7,727.05	72.3226	7,727.05	75.838	7,727.05	64.8332	7,727.05	73.2735	7,727.05	65.4272	7,727.05	76.8012	7,727.05	65.2309	7,727.05	73.3076	7,727.05	64.8961	7,727.05	69.3479	7,727.05	66.1497	7,727.05	68.0203	7,727.05	58.926	7,727.05	63.84	7,727.05	62.2216	7,727.05	68.4535	7,727.05	59.5189	7,727.05	54.8826	7,727.05	57.6245	7,727.05	64.3828	7,727.05	63.763	7,727.05	76.0797	7,727.05	62.8574	7,727.05	78.6619	7,727.05	68.106	7,727.05	80.4173	7,727.05	66.7695
7,999.51	77.5156	7,999.51	79.6146	7,999.51	79.3934	7,999.51	81.4835	7,999.51	78.2022	7,999.51	79.8604	7,999.51	68.5088	7,999.51	76.2411	7,999.51	74.3368	7,999.51	70.4907	7,999.51	80.1639	7,999.51	59.0062	7,999.51	74.8027	7,999.51	55.2303	7,999.51	81.3501	7,999.51	65.7457	7,999.51	78.1288	7,999.51	64.0575	7,999.51	77.1646	7,999.51	61.0402	7,999.51	71.8129	7,999.51	60.5135	7,999.51	59.8352	7,999.51	61.0777	7,999.51	66.3341	7,999.51	59.4838	7,999.51	61.9143	7,999.51	61.256	7,999.51	66.6325	7,999.51	65.6402	7,999.51	77.8603	7,999.51	63.2328	7,999.51	76.8652	7,999.51	70.2788	7,999.51	78.592	7,999.51	68.5744
8,282.23	74.2911	8,282.23	79.3053	8,282.23	74.8466	8,282.23	80.1229	8,282.23	77.0648	8,282.23	77.9798	8,282.23	68.2078	8,282.23	73.5579	8,282.23	70.0268	8,282.23	55.3719	8,282.23	78.1228	8,282.23	60.3643	8,282.23	75.8545	8,282.23	65.838	8,282.23	79.882	8,282.23	61.6221	8,282.23	77.1028	8,282.23	65.3805	8,282.23	76.1331	8,282.23	54.2899	8,282.23	71.9554	8,282.23	60.5216	8,282.23	59.3152	8,282.23	58.7318	8,282.23	63.264	8,282.23	62.1514	8,282.23	59.4797	8,282.23	57.091	8,282.23	67.5264	8,282.23	66.8541	8,282.23	76.5832	8,282.23	59.7539	8,282.23	75.7566	8,282.23	68.6978	8,282.23	77.5065	8,282.23	69.8816
8,573.73	76.0226	8,573.73	80.2612	8,573.73	67.4976	8,573.73	80.2063	8,573.73	71.1196	8,573.73	78.3442	8,573.73	70.3458	8,573.73	70.7062	8,573.73	50.1529	8,573.73	57.1877	8,573.73	72.2631	8,573.73	66.7626	8,573.73	77.214	8,573.73	68.9997	8,573.73	77.868	8,573.73	66.4997	8,573.73	74.0479	8,573.73	65.1466	8,573.73	73.1077	8,573.73	53.5118	8,573.73	72.6365	8,573.73	56.6108	8,573.73	56.5235	8,573.73	61.5892	8,573.73	67.2284	8,573.73	58.7355	8,573.73	58.4343	8,573.73	60.811	8,573.73	66.7934	8,573.73	67.2608	8,573.73	77.3514	8,573.73	64.8168	8,573.73	73.8963	8,573.73	69.2163	8,573.73	77.3951	8,573.73	68.3537
8,876.95	77.3248	8,876.95	80.5617	8,876.95	73.6418	8,876.95	81.641	8,876.95	73.2958	8,876.95	78.7132	8,876.95	74.8784	8,876.95	66.5718	8,876.95	69.8158	8,876.95	65.7343	8,876.95	67.9171	8,876.95	69.0421	8,876.95	76.5352	8,876.95	69.1932	8,876.95	73.7423	8,876.95	64.6198	8,876.95	70.0293	8,876.95	61.8027	8,876.95	71.6036	8,876.95	54.241	8,876.95	73.7762	8,876.95	52.5446	8,876.95	58.773	8,876.95	60.8161	8,876.95	63.8656	8,876.95	55.9377	8,876.95	63.1809	8,876.95	61.2183	8,876.95	66.9142	8,876.95	68.5593	8,876.95	77.1209	8,876.95	63.6773	8,876.95	73.2466	8,876.95	69.0989	8,876.95	77.2392	8,876.95	66.782
9,188.96	78.4584	9,188.96	80.7331	9,188.96	78.7259	9,188.96	81.1272	9,188.96	76.2515	9,188.96	73.5121	9,188.96	79.1023	9,188.96	58.3791	9,188.96	80.2012	9,188.96	69.049	9,188.96	76.7978	9,188.96	68.7008	9,188.96	75.8762	9,188.96	65.788	9,188.96	68.1709	9,188.96	59.2695	9,188.96	73.0103	9,188.96	56.9231	9,188.96	71.6492	9,188.96	60.0804	9,188.96	72.4852	9,188.96	50.8269	9,188.96	62.281	9,188.96	55.3429	9,188.96	57.7872	9,188.96	66.1705	9,188.96	61.91	9,188.96	55.293	9,188.96	66.6254	9,188.96	67.3699	9,188.96	75.0772	9,188.96	60.845	9,188.96	76.0956	9,188.96	69.022	9,188.96	78.5664	9,188.96	69.303
9,514.16	77.3435	9,514.16	79.5429	9,514.16	79.2052	9,514.16	75.9649	9,514.16	75.3589	9,514.16	73.3481	9,514.16	79.9335	9,514.16	77.06	9,514.16	82.631	9,514.16	76.1724	9,514.16	82.0495	9,514.16	71.8057	9,514.16	77.0305	9,514.16	70.2859	9,514.16	66.5044	9,514.16	63.7927	9,514.16	73.0587	9,514.16	65.2491	9,514.16	70.874	9,514.16	62.9496	9,514.16	69.9207	9,514.16	59.9827	9,514.16	60.0374	9,514.16	65.5435	9,514.16	55.6388	9,514.16	68.3266	9,514.16	53.5976	9,514.16	66.2369	9,514.16	70.156	9,514.16	72.979	9,514.16	76.4011	9,514.16	69.0175	9,514.16	78.7206	9,514.16	63.9769	9,514.16	79.6223	9,514.16	64.1991
9,849.61	77.6672	9,849.61	79.7622	9,849.61	80.0974	9,849.61	80.9222	9,849.61	77.9281	9,849.61	80.857	9,849.61	79.4505	9,849.61	79.2092	9,849.61	83.2443	9,849.61	75.4546	9,849.61	83.9495	9,849.61	71.7679	9,849.61	75.3332	9,849.61	71.6664	9,849.61	68.2475	9,849.61	65.3678	9,849.61	66.6598	9,849.61	64.795	9,849.61	65.4531	9,849.61	62.4807	9,849.61	58.9772	9,849.61	62.9821	9,849.61	62.6964	9,849.61	60.8448	9,849.61	60.0294	9,849.61	68.3388	9,849.61	67.6191	9,849.61	68.5881	9,849.61	72.3061	9,849.61	72.4377	9,849.61	76.3823	9,849.61	72.6482	9,849.61	77.2347	9,849.61	68.4917	9,849.61	79.8486	9,849.61	70.6492
10,196.8	81.0883	10,196.8	81.4364	10,196.8	82.1894	10,196.8	81.4538	10,196.8	80.5892	10,196.8	80.1753	10,196.8	78.906	10,196.8	75.3419	10,196.8	83.5328	10,196.8	72.152	10,196.8	84.1492	10,196.8	70.1143	10,196.8	74.8359	10,196.8	67.945	10,196.8	73.6441	10,196.8	63.1486	10,196.8	62.5213	10,196.8	60.4192	10,196.8	61.8672	10,196.8	58.3305	10,196.8	64.4303	10,196.8	57.0992	10,196.8	52.1746	10,196.8	59.2638	10,196.8	65.6837	10,196.8	60.5369	10,196.8	68.1211	10,196.8	64.062	10,196.8	70.5178	10,196.8	70.5818	10,196.8	74.2647	10,196.8	70.1392	10,196.8	73.2152	10,196.8	69.682	10,196.8	77.9771	10,196.8	72.4996
10,555.7	82.653	10,555.7	81.7165	10,555.7	82.1971	10,555.7	82.3271	10,555.7	80.202	10,555.7	79.1046	10,555.7	75.6439	10,555.7	64.7381	10,555.7	81.1975	10,555.7	68.8353	10,555.7	81.9972	10,555.7	68.9174	10,555.7	79.9756	10,555.7	60.2511	10,555.7	74.8281	10,555.7	51.6922	10,555.7	72.6852	10,555.7	60.7845	10,555.7	66.2036	10,555.7	42.7027	10,555.7	68.8511	10,555.7	50.3852	10,555.7	65.6904	10,555.7	59.8681	10,555.7	71.7543	10,555.7	61.3298	10,555.7	64.0394	10,555.7	60.463	10,555.7	69.6315	10,555.7	64.815	10,555.7	69.8057	10,555.7	70.4861	10,555.7	70.732	10,555.7	70.7523	10,555.7	73.5461	10,555.7	70.5346
10,927.7	84.8387	10,927.7	83.3829	10,927.7	82.7482	10,927.7	83.7015	10,927.7	80.3187	10,927.7	76.7286	10,927.7	71.082	10,927.7	63.6334	10,927.7	75.5252	10,927.7	68.7902	10,927.7	78.5673	10,927.7	64.6668	10,927.7	80.3111	10,927.7	53.6123	10,927.7	77.184	10,927.7	58.5143	10,927.7	73.826	10,927.7	60.3755	10,927.7	73.0541	10,927.7	57.4573	10,927.7	71.1717	10,927.7	46.3871	10,927.7	71.4425	10,927.7	54.6706	10,927.7	73.8644	10,927.7	60.4642	10,927.7	59.4985	10,927.7	61.1107	10,927.7	70.3661	10,927.7	64.2766	10,927.7	72.811	10,927.7	72.4564	10,927.7	73.3774	10,927.7	72.0262	10,927.7	56.9505	10,927.7	69.0133
11,313	81.9939	11,313	82.7796	11,313	80.5014	11,313	83.6923	11,313	77.1058	11,313	71.3939	11,313	71.1838	11,313	72.4606	11,313	69.5039	11,313	67.6828	11,313	76.9518	11,313	62.5389	11,313	78.1276	11,313	65.6356	11,313	79.468	11,313	65.3626	11,313	74.5948	11,313	62.6519	11,313	73.7421	11,313	61.727	11,313	72.9935	11,313	51.3319	11,313	71.2701	11,313	56.3982	11,313	73.0298	11,313	51.6615	11,313	58.0005	11,313	63.132	11,313	68.9582	11,313	67.4384	11,313	67.4921	11,313	72.4696	11,313	72.3589	11,313	67.7817	11,313	62.761	11,313	63.5188
11,712.9	83.6904	11,712.9	83.8108	11,712.9	80.1052	11,712.9	81.4636	11,712.9	71.6728	11,712.9	68.3882	11,712.9	56.1205	11,712.9	75.4154	11,712.9	65.8598	11,712.9	69.3881	11,712.9	72.3005	11,712.9	64.8685	11,712.9	73.2132	11,712.9	68.6922	11,712.9	75.5141	11,712.9	65.9711	11,712.9	70.2471	11,712.9	64.3529	11,712.9	70.6052	11,712.9	59.9714	11,712.9	69.0534	11,712.9	58.0247	11,712.9	69.6575	11,712.9	53.1081	11,712.9	71.5999	11,712.9	52.049	11,712.9	61.1108	11,712.9	60.1113	11,712.9	57.9179	11,712.9	65.5965	11,712.9	50.5491	11,712.9	68.1416	11,712.9	71.0493	11,712.9	67.3579	11,712.9	65.1813	11,712.9	62.3273
12,126	79.319	12,126	80.2808	12,126	76.7495	12,126	79.5621	12,126	67.6998	12,126	73.2091	12,126	57.862	12,126	74.7992	12,126	68.3163	12,126	65.407	12,126	62.0296	12,126	65.5164	12,126	70.0917	12,126	67.1794	12,126	66.9828	12,126	62.2015	12,126	67.0764	12,126	61.5384	12,126	62.3677	12,126	56.3687	12,126	66.9928	12,126	57.6978	12,126	66.5312	12,126	53.0998	12,126	68.5077	12,126	55.5799	12,126	61.6878	12,126	56.2795	12,126	58.5675	12,126	58.2766	12,126	59.1036	12,126	60.3834	12,126	59.943	12,126	62.6768	12,126	65.2221	12,126	50.2638
12,553.7	78.9468	12,553.7	79.2547	12,553.7	78.9163	12,553.7	74.693	12,553.7	75.2372	12,553.7	76.5475	12,553.7	63.338	12,553.7	73.8841	12,553.7	70.6837	12,553.7	67.597	12,553.7	71.2322	12,553.7	62.2647	12,553.7	66.8428	12,553.7	62.2315	12,553.7	54.4965	12,553.7	62.4736	12,553.7	60.7404	12,553.7	50.7785	12,553.7	58.6899	12,553.7	53.4199	12,553.7	54.6045	12,553.7	39.6297	12,553.7	60.9882	12,553.7	56.5206	12,553.7	58.6537	12,553.7	54.7268	12,553.7	60.4365	12,553.7	56.0818	12,553.7	64.8405	12,553.7	59.9794	12,553.7	63.8251	12,553.7	63.4417	12,553.7	65.6673	12,553.7	59.6576	12,553.7	67.564	12,553.7	61.7505
12,996.1	75.6658	12,996.1	69.5757	12,996.1	79.4769	12,996.1	75.4572	12,996.1	77.3873	12,996.1	77.4915	12,996.1	60.2378	12,996.1	66.5348	12,996.1	72.4447	12,996.1	69.7329	12,996.1	72.8886	12,996.1	57.6204	12,996.1	73.0472	12,996.1	45.6827	12,996.1	67.6263	12,996.1	62.7533	12,996.1	58.0198	12,996.1	58.8679	12,996.1	59.4266	12,996.1	50.9069	12,996.1	61.3704	12,996.1	48.401	12,996.1	55.2919	12,996.1	56.7138	12,996.1	58.2332	12,996.1	56.9245	12,996.1	54.9678	12,996.1	54.9665	12,996.1	59.1713	12,996.1	61.8162	12,996.1	52.8134	12,996.1	62.3718	12,996.1	64.242	12,996.1	51.4468	12,996.1	66.631	12,996.1	64.9907
13,454.6	70.851	13,454.6	74.259	13,454.6	74.8495	13,454.6	78.467	13,454.6	75.9197	13,454.6	71.0028	13,454.6	55.4848	13,454.6	63.5855	13,454.6	68.0037	13,454.6	67.7549	13,454.6	71.4981	13,454.6	59.9279	13,454.6	73.9703	13,454.6	59.4019	13,454.6	72.7508	13,454.6	58.4532	13,454.6	61.7352	13,454.6	57.8932	13,454.6	64.6242	13,454.6	48.8983	13,454.6	63.4579	13,454.6	46.9321	13,454.6	57.3127	13,454.6	50.6841	13,454.6	55.471	13,454.6	53.7935	13,454.6	55.7349	13,454.6	53.0355	13,454.6	55.6475	13,454.6	45.1858	13,454.6	54.4984	13,454.6	52.8477	13,454.6	64.1314	13,454.6	57.617	13,454.6	62.9762	13,454.6	64.4433
13,929.2	74.9653	13,929.2	78.8012	13,929.2	69.2464	13,929.2	78.5847	13,929.2	69.2679	13,929.2	61.4605	13,929.2	65.9321	13,929.2	61.8465	13,929.2	56.2444	13,929.2	64.5071	13,929.2	67.5329	13,929.2	57.0535	13,929.2	71.4519	13,929.2	48.7262	13,929.2	71.0647	13,929.2	51.0886	13,929.2	64.1134	13,929.2	45.8703	13,929.2	62.1831	13,929.2	40.9215	13,929.2	62.0192	13,929.2	43.1342	13,929.2	59.5878	13,929.2	51.4318	13,929.2	61.5798	13,929.2	56.768	13,929.2	51.9323	13,929.2	49.66	13,929.2	50.4241	13,929.2	45.7263	13,929.2	61.8476	13,929.2	49.0239	13,929.2	57.8479	13,929.2	60.2146	13,929.2	56.7765	13,929.2	53.0206
14,419.9	76.2202	14,419.9	77.9313	14,419.9	70.918	14,419.9	78.0772	14,419.9	68.2075	14,419.9	59.4667	14,419.9	59.7781	14,419.9	64.362	14,419.9	61.3672	14,419.9	61.7274	14,419.9	70.1747	14,419.9	53.9152	14,419.9	70.9062	14,419.9	45.9972	14,419.9	66.7247	14,419.9	55.7233	14,419.9	64.1662	14,419.9	50.4384	14,419.9	59.3225	14,419.9	49.9084	14,419.9	61.3858	14,419.9	47.2	14,419.9	64.2359	14,419.9	47.1676	14,419.9	67.1599	14,419.9	53.401	14,419.9	58.888	14,419.9	47.8685	14,419.9	59.3799	14,419.9	58.1312	14,419.9	62.1084	14,419.9	48.5073	14,419.9	62.3054	14,419.9	42.628	14,419.9	54.5581	14,419.9	60.2693
14,928.2	70.0052	14,928.2	76.8958	14,928.2	67.172	14,928.2	79.3859	14,928.2	47.5249	14,928.2	67.1749	14,928.2	59.138	14,928.2	64.7822	14,928.2	64.5407	14,928.2	65.4592	14,928.2	69.5711	14,928.2	59.4559	14,928.2	72.7753	14,928.2	45.9482	14,928.2	69.6079	14,928.2	58.1126	14,928.2	60.1198	14,928.2	55.3675	14,928.2	61.2974	14,928.2	55.1491	14,928.2	62.477	14,928.2	38.8223	14,928.2	66.3966	14,928.2	56.3467	14,928.2	67.371	14,928.2	53.1289	14,928.2	61.3172	14,928.2	47.5961	14,928.2	61.122	14,928.2	62.1701	14,928.2	55.5988	14,928.2	46.162	14,928.2	44.2068	14,928.2	59.1866	14,928.2	61.4262	14,928.2	53.7975
15,455.6	78.9128	15,455.6	80.9573	15,455.6	70.2177	15,455.6	79.7671	15,455.6	56.0255	15,455.6	68.0791	15,455.6	55.2093	15,455.6	66.2774	15,455.6	71.5139	15,455.6	68.6014	15,455.6	70.2304	15,455.6	63.4219	15,455.6	71.2676	15,455.6	54.8538	15,455.6	71.1542	15,455.6	56.6755	15,455.6	64.3758	15,455.6	55.7223	15,455.6	63.9	15,455.6	56.0904	15,455.6	60.3085	15,455.6	45.2397	15,455.6	66.51	15,455.6	60.0281	15,455.6	65.6087	15,455.6	59.015	15,455.6	63.5484	15,455.6	53.5891	15,455.6	60.1923	15,455.6	58.8828	15,455.6	58.6931	15,455.6	54.5266	15,455.6	60.1012	15,455.6	59.8249	15,455.6	57.4823	15,455.6	56.4053
16,000.5	80.594	16,000.5	82.4543	16,000.5	72.5209	16,000.5	81.6592	16,000.5	64.4069	16,000.5	72.8492	16,000.5	70.8817	16,000.5	67.4151	16,000.5	71.6456	16,000.5	72.0576	16,000.5	57.4609	16,000.5	60.6687	16,000.5	72.5004	16,000.5	51.5978	16,000.5	68.1602	16,000.5	57.9576	16,000.5	68.3579	16,000.5	54.1156	16,000.5	68.61	16,000.5	58.6758	16,000.5	56.7821	16,000.5	44.5119	16,000.5	59.7341	16,000.5	60.2829	16,000.5	47.9384	16,000.5	57.1412	16,000.5	59.4957	16,000.5	60.5087	16,000.5	59.0854	16,000.5	58.3876	16,000.5	69.0148	16,000.5	64.5162	16,000.5	70.3381	16,000.5	59.8754	16,000.5	67.2947	16,000.5	62.1309
16,564.5	74.2934	16,564.5	79.4734	16,564.5	68.0015	16,564.5	76.4508	16,564.5	71.3272	16,564.5	75.2431	16,564.5	73.8507	16,564.5	69.7124	16,564.5	72.7544	16,564.5	71.5416	16,564.5	72.4448	16,564.5	60.9272	16,564.5	71.0796	16,564.5	64.6108	16,564.5	67.7503	16,564.5	58.5626	16,564.5	61.2847	16,564.5	58.7658	16,564.5	62.5524	16,564.5	56.3815	16,564.5	55.5767	16,564.5	49.677	16,564.5	50.5893	16,564.5	51.7666	16,564.5	58.9897	16,564.5	54.6967	16,564.5	57.1206	16,564.5	59.4459	16,564.5	53.0533	16,564.5	59.7991	16,564.5	71.0143	16,564.5	59.6367	16,564.5	63.1842	16,564.5	62.0015	16,564.5	64.7277	16,564.5	67.7955
17,148.9	68.4052	17,148.9	74.2997	17,148.9	66.4858	17,148.9	68.6911	17,148.9	73.0208	17,148.9	69.9215	17,148.9	75.262	17,148.9	63.0687	17,148.9	73.3789	17,148.9	69.6755	17,148.9	70.2694	17,148.9	59.3359	17,148.9	57.5086	17,148.9	58.5486	17,148.9	61.9205	17,148.9	61.9953	17,148.9	59.0002	17,148.9	55.8825	17,148.9	47.6964	17,148.9	44.6554	17,148.9	56.3552	17,148.9	50.7123	17,148.9	53.4543	17,148.9	50.0688	17,148.9	58.6534	17,148.9	48.9238	17,148.9	52.4892	17,148.9	49.0018	17,148.9	56.9116	17,148.9	64.677	17,148.9	63.4261	17,148.9	59.6934	17,148.9	71.2581	17,148.9	63.1955	17,148.9	67.5772	17,148.9	68.0072
17,752.4	71.2063	17,752.4	74.1959	17,752.4	67.339	17,752.4	70.4228	17,752.4	71.5115	17,752.4	69.9407	17,752.4	74.9562	17,752.4	64.6402	17,752.4	73.5243	17,752.4	67.3562	17,752.4	61.2398	17,752.4	59.9557	17,752.4	67.9679	17,752.4	56.3496	17,752.4	61.7776	17,752.4	58.1544	17,752.4	55.5315	17,752.4	45.8497	17,752.4	57.9192	17,752.4	52.3765	17,752.4	51.2239	17,752.4	41.9557	17,752.4	59.669	17,752.4	52.9396	17,752.4	64.4418	17,752.4	48.4221	17,752.4	52.7336	17,752.4	56.9394	17,752.4	58.8214	17,752.4	61.5968	17,752.4	67.9384	17,752.4	63.3259	17,752.4	71.2555	17,752.4	57.3292	17,752.4	66.2014	17,752.4	68.1973
18,379.4	75.0122	18,379.4	76.7688	18,379.4	69.5652	18,379.4	61.6794	18,379.4	69.6105	18,379.4	78.2747	18,379.4	66.6792	18,379.4	71.1455	18,379.4	67.7013	18,379.4	71.6401	18,379.4	65.3223	18,379.4	62.2667	18,379.4	71.1	18,379.4	51.4528	18,379.4	69.4638	18,379.4	58.3861	18,379.4	65.4118	18,379.4	57.406	18,379.4	60.255	18,379.4	51.0537	18,379.4	53.552	18,379.4	49.552	18,379.4	63.447	18,379.4	59.6217	18,379.4	62.2857	18,379.4	55.0892	18,379.4	55.5552	18,379.4	59.2738	18,379.4	60.6442	18,379.4	58.0785	18,379.4	69.2848	18,379.4	60.4602	18,379.4	69.0075	18,379.4	59.2148	18,379.4	59.932	18,379.4	59.3458
19,026.9	76.6068	19,026.9	77.8405	19,026.9	63.5862	19,026.9	68.0945	19,026.9	60.3263	19,026.9	77.24	19,026.9	64.7913	19,026.9	67.8266	19,026.9	67.5386	19,026.9	70.7802	19,026.9	72.0138	19,026.9	59.6349	19,026.9	70.076	19,026.9	64.9254	19,026.9	65.9672	19,026.9	59.0806	19,026.9	59.8903	19,026.9	57.7111	19,026.9	60.8359	19,026.9	52.7176	19,026.9	58.6645	19,026.9	48.086	19,026.9	61.5013	19,026.9	59.7144	19,026.9	57.7601	19,026.9	51.8978	19,026.9	54.9614	19,026.9	58.2645	19,026.9	60.7841	19,026.9	52.0775	19,026.9	57.0687	19,026.9	56.7289	19,026.9	65.1193	19,026.9	60.8812	19,026.9	60.3541	19,026.9	57.4805
19,697.8	76.2931	19,697.8	75.309	19,697.8	60.6559	19,697.8	59.2364	19,697.8	62.3676	19,697.8	72.8519	19,697.8	66.8035	19,697.8	60.2764	19,697.8	65.1056	19,697.8	67.0604	19,697.8	67.5134	19,697.8	59.457	19,697.8	65.0511	19,697.8	62.8053	19,697.8	63.7859	19,697.8	56.7284	19,697.8	61.7829	19,697.8	42.8106	19,697.8	50.609	19,697.8	45.0288	19,697.8	59.2624	19,697.8	47.8988	19,697.8	44.8059	19,697.8	42.9294	19,697.8	54.7011	19,697.8	50.4992	19,697.8	56.3272	19,697.8	45.9161	19,697.8	47.899	19,697.8	57.6659	19,697.8	62.1417	19,697.8	60.7351	19,697.8	62.4896	19,697.8	55.8319	19,697.8	58.7631	19,697.8	59.2246
19,999.5	73.5219	19,999.5	74.9753	19,999.5	55.723	19,999.5	54.1731	19,999.5	62.4299	19,999.5	71.8649	19,999.5	63.0835	19,999.5	62.1053	19,999.5	64.088	19,999.5	63.7968	19,999.5	66.3363	19,999.5	59.4226	19,999.5	62.0803	19,999.5	59.9492	19,999.5	61.6178	19,999.5	51.5328	19,999.5	62.1084	19,999.5	41.4764	19,999.5	33.0797	19,999.5	35.6149	19,999.5	57.714	19,999.5	48.738	19,999.5	51.9831	19,999.5	52.9047	19,999.5	48.784	19,999.5	51.6606	19,999.5	51.4619	19,999.5	44.9736	19,999.5	55.7204	19,999.5	58.4449	19,999.5	57.2339	19,999.5	57.5093	19,999.5	65.2028	19,999.5	44.6653	19,999.5	57.2495	19,999.5	51.8259
