"SPL Horizontal"																																																																							
"On-Axis"		"10°"		"-10°"		"20°"		"-20°"		"30°"		"-30°"		"40°"		"-40°"		"50°"		"-50°"		"60°"		"-60°"		"70°"		"-70°"		"80°"		"-80°"		"90°"		"-90°"		"100°"		"-100°"		"110°"		"-110°"		"120°"		"-120°"		"130°"		"-130°"		"140°"		"-140°"		"150°"		"-150°"		"160°"		"-160°"		"170°"		"-170°"		"180°"	
"Frequency [Hz]"	"Sound Pessure Level [dB]  / [2.83V 1m] "	"Frequency [Hz]"	"Sound Pessure Level [dB]  / [2.83V 1m] "	"Frequency [Hz]"	"Sound Pessure Level [dB]  / [2.83V 1m] "	"Frequency [Hz]"	"Sound Pessure Level [dB]  / [2.83V 1m] "	"Frequency [Hz]"	"Sound Pessure Level [dB]  / [2.83V 1m] "	"Frequency [Hz]"	"Sound Pessure Level [dB]  / [2.83V 1m] "	"Frequency [Hz]"	"Sound Pessure Level [dB]  / [2.83V 1m] "	"Frequency [Hz]"	"Sound Pessure Level [dB]  / [2.83V 1m] "	"Frequency [Hz]"	"Sound Pessure Level [dB]  / [2.83V 1m] "	"Frequency [Hz]"	"Sound Pessure Level [dB]  / [2.83V 1m] "	"Frequency [Hz]"	"Sound Pessure Level [dB]  / [2.83V 1m] "	"Frequency [Hz]"	"Sound Pessure Level [dB]  / [2.83V 1m] "	"Frequency [Hz]"	"Sound Pessure Level [dB]  / [2.83V 1m] "	"Frequency [Hz]"	"Sound Pessure Level [dB]  / [2.83V 1m] "	"Frequency [Hz]"	"Sound Pessure Level [dB]  / [2.83V 1m] "	"Frequency [Hz]"	"Sound Pessure Level [dB]  / [2.83V 1m] "	"Frequency [Hz]"	"Sound Pessure Level [dB]  / [2.83V 1m] "	"Frequency [Hz]"	"Sound Pessure Level [dB]  / [2.83V 1m] "	"Frequency [Hz]"	"Sound Pessure Level [dB]  / [2.83V 1m] "	"Frequency [Hz]"	"Sound Pessure Level [dB]  / [2.83V 1m] "	"Frequency [Hz]"	"Sound Pessure Level [dB]  / [2.83V 1m] "	"Frequency [Hz]"	"Sound Pessure Level [dB]  / [2.83V 1m] "	"Frequency [Hz]"	"Sound Pessure Level [dB]  / [2.83V 1m] "	"Frequency [Hz]"	"Sound Pessure Level [dB]  / [2.83V 1m] "	"Frequency [Hz]"	"Sound Pessure Level [dB]  / [2.83V 1m] "	"Frequency [Hz]"	"Sound Pessure Level [dB]  / [2.83V 1m] "	"Frequency [Hz]"	"Sound Pessure Level [dB]  / [2.83V 1m] "	"Frequency [Hz]"	"Sound Pessure Level [dB]  / [2.83V 1m] "	"Frequency [Hz]"	"Sound Pessure Level [dB]  / [2.83V 1m] "	"Frequency [Hz]"	"Sound Pessure Level [dB]  / [2.83V 1m] "	"Frequency [Hz]"	"Sound Pessure Level [dB]  / [2.83V 1m] "	"Frequency [Hz]"	"Sound Pessure Level [dB]  / [2.83V 1m] "	"Frequency [Hz]"	"Sound Pessure Level [dB]  / [2.83V 1m] "	"Frequency [Hz]"	"Sound Pessure Level [dB]  / [2.83V 1m] "	"Frequency [Hz]"	"Sound Pessure Level [dB]  / [2.83V 1m] "	"Frequency [Hz]"	"Sound Pessure Level [dB]  / [2.83V 1m] "
20.5078	44.7243	20.5078	44.5655	20.5078	44.7971	20.5078	44.3467	20.5078	44.7773	20.5078	44.122	20.5078	44.6746	20.5078	43.9843	20.5078	44.5187	20.5078	44.0619	20.5078	44.368	20.5078	44.4763	20.5078	44.3182	20.5078	45.269	20.5078	44.4929	20.5078	46.3671	20.5078	44.9979	20.5078	47.633	20.5078	45.8541	20.5078	48.9348	20.5078	46.9788	20.5078	50.1779	20.5078	48.2383	20.5078	51.3023	20.5078	49.5097	20.5078	52.271	20.5078	50.7051	20.5078	53.0596	20.5078	51.768	20.5078	53.6511	20.5078	52.6626	20.5078	54.0333	20.5078	53.3656	20.5078	54.1978	20.5078	53.8614	20.5078	54.1405
21.9727	48.3113	21.9727	48.2719	21.9727	48.3172	21.9727	48.2302	21.9727	48.2756	21.9727	48.2358	21.9727	48.189	21.9727	48.3541	21.9727	48.0788	21.9727	48.6528	21.9727	47.9906	21.9727	49.1772	21.9727	47.9976	21.9727	49.9273	21.9727	48.1927	21.9727	50.8552	21.9727	48.6568	21.9727	51.8867	21.9727	49.414	21.9727	52.9453	21.9727	50.4124	21.9727	53.9671	21.9727	51.5509	21.9727	54.9035	21.9727	52.7237	21.9727	55.718	21.9727	53.8464	21.9727	56.3833	21.9727	54.8595	21.9727	56.8783	21.9727	55.7236	21.9727	57.1873	21.9727	56.4129	21.9727	57.2991	21.9727	56.9107	21.9727	57.2074
23.4375	50.3727	23.4375	50.3275	23.4375	50.353	23.4375	50.2377	23.4375	50.2605	23.4375	50.1398	23.4375	50.0992	23.4375	50.0897	23.4375	49.8887	23.4375	50.1615	23.4375	49.6707	23.4375	50.4317	23.4375	49.518	23.4375	50.9486	23.4375	49.5348	23.4375	51.7052	23.4375	49.8292	23.4375	52.6393	23.4375	50.4573	23.4375	53.6623	23.4375	51.3807	23.4375	54.6887	23.4375	52.4884	23.4375	55.6504	23.4375	53.6549	23.4375	56.4979	23.4375	54.7795	23.4375	57.1963	23.4375	55.7944	23.4375	57.7211	23.4375	56.6569	23.4375	58.0552	23.4375	57.3404	23.4375	58.1876	23.4375	57.8287	23.4375	58.1124
24.9023	51.7728	24.9023	51.7015	24.9023	51.7818	24.9023	51.5851	24.9023	51.7225	24.9023	51.4546	24.9023	51.5992	24.9023	51.3585	24.9023	51.4285	24.9023	51.3633	24.9023	51.2449	24.9023	51.5417	24.9023	51.1063	24.9023	51.9481	24.9023	51.0951	24.9023	52.59	24.9023	51.3013	24.9023	53.4209	24.9023	51.7841	24.9023	54.361	24.9023	52.5351	24.9023	55.326	24.9023	53.4787	24.9023	56.245	24.9023	54.5103	24.9023	57.0644	24.9023	55.5333	24.9023	57.7461	24.9023	56.4754	24.9023	58.2627	24.9023	57.2869	24.9023	58.5956	24.9023	57.9353	24.9023	58.7324	24.9023	58.3995	24.9023	58.6672
26.3672	53.1358	26.3672	53.0758	26.3672	53.1469	26.3672	52.9811	26.3672	53.1041	26.3672	52.8775	26.3672	53.0113	26.3672	52.8042	26.3672	52.8829	26.3672	52.8135	26.3672	52.7473	26.3672	52.9634	26.3672	52.6503	26.3672	53.3005	26.3672	52.6546	26.3672	53.839	26.3672	52.8293	26.3672	54.5509	26.3672	53.225	26.3672	55.3759	26.3672	53.8464	26.3672	56.2421	26.3672	54.6462	26.3672	57.0825	26.3672	55.5446	26.3672	57.8429	26.3672	56.4577	26.3672	58.4823	26.3672	57.3154	26.3672	58.9707	26.3672	58.0651	26.3672	59.2872	26.3672	58.6702	26.3672	59.4184	26.3672	59.1062	26.3672	59.358
27.832	53.9504	27.832	53.8727	27.832	53.9852	27.832	53.7667	27.832	53.9723	27.832	53.6584	27.832	53.9157	27.832	53.5877	27.832	53.8292	27.832	53.6068	27.832	53.7383	27.832	53.7715	27.832	53.6832	27.832	54.1237	27.832	53.7169	27.832	54.6719	27.832	53.8973	27.832	55.3843	27.832	54.2684	27.832	56.2001	27.832	54.8383	27.832	57.0494	27.832	55.5724	27.832	57.8687	27.832	56.4048	27.832	58.6066	27.832	57.2611	27.832	59.2245	27.832	58.0747	27.832	59.6941	27.832	58.793	27.832	59.9958	27.832	59.3779	27.832	60.1171	27.832	59.8033	27.832	60.0525
29.2969	55.828	29.2969	55.7872	29.2969	55.8407	29.2969	55.7301	29.2969	55.8196	29.2969	55.6754	29.2969	55.7648	29.2969	55.6486	29.2969	55.683	29.2969	55.6816	29.2969	55.5889	29.2969	55.8078	29.2969	55.5067	29.2969	56.0546	29.2969	55.4715	29.2969	56.4337	29.2969	55.5261	29.2969	56.9351	29.2969	55.713	29.2969	57.5274	29.2969	56.0592	29.2969	58.1657	29.2969	56.5632	29.2969	58.8012	29.2969	57.1915	29.2969	59.3876	29.2969	57.8881	29.2969	59.8855	29.2969	58.5904	29.2969	60.2628	29.2969	59.2404	29.2969	60.4957	29.2969	59.7915	29.2969	60.568	29.2969	60.2095	29.2969	60.4722
30.7617	56.5257	30.7617	56.5199	30.7617	56.5152	30.7617	56.5072	30.7617	56.4851	30.7617	56.5025	30.7617	56.4375	30.7617	56.5266	30.7617	56.381	30.7617	56.6045	30.7617	56.3314	30.7617	56.7623	30.7617	56.3121	30.7617	57.0215	30.7617	56.3534	30.7617	57.3917	30.7617	56.4886	30.7617	57.8659	30.7617	56.7454	30.7617	58.42	30.7617	57.1365	30.7617	59.0176	30.7617	57.6521	30.7617	59.6162	30.7617	58.2598	30.7617	60.1736	30.7617	58.9129	30.7617	60.6519	30.7617	59.5602	30.7617	61.0195	30.7617	60.1537	30.7617	61.2524	30.7617	60.6535	30.7617	61.335	30.7617	61.0291	30.7617	61.26
32.2266	58.0067	32.2266	57.9833	32.2266	58.0165	32.2266	57.9529	32.2266	58.0097	32.2266	57.9267	32.2266	57.9874	32.2266	57.9196	32.2266	57.9551	32.2266	57.9505	32.2266	57.9231	32.2266	58.04	32.2266	57.9068	32.2266	58.2072	32.2266	57.9271	32.2266	58.4647	32.2266	58.0082	32.2266	58.8138	32.2266	58.1731	32.2266	59.2416	32.2266	58.438	32.2266	59.7222	32.2266	58.8044	32.2266	60.2209	32.2266	59.2567	32.2266	60.699	32.2266	59.7631	32.2266	61.1196	32.2266	60.2823	32.2266	61.4504	32.2266	60.7708	32.2266	61.6663	32.2266	61.1889	32.2266	61.7507	32.2266	61.5047	32.2266	61.6961
33.6914	59.5237	33.6914	59.489	33.6914	59.5423	33.6914	59.4441	33.6914	59.5422	33.6914	59.3981	33.6914	59.5238	33.6914	59.3636	33.6914	59.491	33.6914	59.3567	33.6914	59.4513	33.6914	59.3957	33.6914	59.417	33.6914	59.4991	33.6914	59.4049	33.6914	59.6809	33.6914	59.4355	33.6914	59.9468	33.6914	59.5307	33.6914	60.2899	33.6914	59.7086	33.6914	60.6907	33.6914	59.9773	33.6914	61.119	33.6914	60.3303	33.6914	61.5391	33.6914	60.7447	33.6914	61.9151	33.6914	61.1853	33.6914	62.2146	33.6914	61.6113	33.6914	62.412	33.6914	61.9831	33.6914	62.49	33.6914	62.2677	33.6914	62.4411
35.1563	60.4769	35.1563	60.4573	35.1563	60.4829	35.1563	60.4292	35.1563	60.4732	35.1563	60.4006	35.1563	60.4485	35.1563	60.3827	35.1563	60.4128	35.1563	60.3893	35.1563	60.3737	35.1563	60.4363	35.1563	60.3429	35.1563	60.5392	35.1563	60.336	35.1563	60.7101	35.1563	60.3719	35.1563	60.954	35.1563	60.4702	35.1563	61.2656	35.1563	60.6465	35.1563	61.6286	35.1563	60.9075	35.1563	62.0176	35.1563	61.2462	35.1563	62.4014	35.1563	61.641	35.1563	62.7475	35.1563	62.0592	35.1563	63.0257	35.1563	62.4624	35.1563	63.2111	35.1563	62.8133	35.1563	63.2861	35.1563	63.0807	35.1563	63.2422
36.6211	61.6463	36.6211	61.6299	36.6211	61.6535	36.6211	61.6076	36.6211	61.6501	36.6211	61.5858	36.6211	61.6375	36.6211	61.5731	36.6211	61.6194	36.6211	61.5808	36.6211	61.6023	36.6211	61.6219	36.6211	61.5954	36.6211	61.7097	36.6211	61.6109	36.6211	61.8555	36.6211	61.6626	36.6211	62.0652	36.6211	61.7648	36.6211	62.3363	36.6211	61.9287	36.6211	62.6568	36.6211	62.1596	36.6211	63.0056	36.6211	62.4526	36.6211	63.3551	36.6211	62.7916	36.6211	63.675	36.6211	63.1508	36.6211	63.9366	36.6211	63.4982	36.6211	64.1155	36.6211	63.801	36.6211	64.1947	36.6211	64.0307	36.6211	64.1658
38.0859	62.7509	38.0859	62.7333	38.0859	62.7668	38.0859	62.7173	38.0859	62.7797	38.0859	62.7079	38.0859	62.7904	38.0859	62.7122	38.0859	62.801	38.0859	62.7388	38.0859	62.8157	38.0859	62.7976	38.0859	62.8405	38.0859	62.898	38.0859	62.8829	38.0859	63.0471	38.0859	62.9517	38.0859	63.2474	38.0859	63.0556	38.0859	63.4948	38.0859	63.2021	38.0859	63.7777	38.0859	63.3946	38.0859	64.0779	38.0859	63.6305	38.0859	64.3725	38.0859	63.8995	38.0859	64.637	38.0859	64.1841	38.0859	64.8487	38.0859	64.4615	38.0859	64.989	38.0859	64.7068	38.0859	65.0456	38.0859	64.8971	38.0859	65.0138
39.5508	63.3375	39.5508	63.3075	39.5508	63.3576	39.5508	63.2711	39.5508	63.3659	39.5508	63.2333	39.5508	63.3619	39.5508	63.2009	39.5508	63.3466	39.5508	63.1825	39.5508	63.3227	39.5508	63.1874	39.5508	63.2949	39.5508	63.2252	39.5508	63.2698	39.5508	63.3039	39.5508	63.2567	39.5508	63.4274	39.5508	63.2663	39.5508	63.594	39.5508	63.3102	39.5508	63.7952	39.5508	63.3981	39.5508	64.0159	39.5508	63.5345	39.5508	64.2365	39.5508	63.7161	39.5508	64.4354	39.5508	63.9302	39.5508	64.5918	39.5508	64.1564	39.5508	64.6886	39.5508	64.37	39.5508	64.7144	39.5508	64.5463	39.5508	64.6655
41.0156	64.701	41.0156	64.7467	41.0156	64.6515	41.0156	64.7902	41.0156	64.598	41.0156	64.834	41.0156	64.5416	41.0156	64.8817	41.0156	64.4849	41.0156	64.9378	41.0156	64.4327	41.0156	65.0069	41.0156	64.3913	41.0156	65.0937	41.0156	64.3694	41.0156	65.2019	41.0156	64.3768	41.0156	65.3335	41.0156	64.4242	41.0156	65.488	41.0156	64.5209	41.0156	65.6612	41.0156	64.6725	41.0156	65.8451	41.0156	64.8779	41.0156	66.0268	41.0156	65.1283	41.0156	66.19	41.0156	65.4064	41.0156	66.3161	41.0156	65.6888	41.0156	66.3872	41.0156	65.9494	41.0156	66.389	41.0156	66.1642	41.0156	66.3142
42.4805	66.7338	42.4805	66.7175	42.4805	66.7441	42.4805	66.6961	42.4805	66.7483	42.4805	66.6717	42.4805	66.747	42.4805	66.6474	42.4805	66.742	42.4805	66.6273	42.4805	66.7358	42.4805	66.6171	42.4805	66.732	42.4805	66.6231	42.4805	66.7355	42.4805	66.6527	42.4805	66.7523	42.4805	66.7127	42.4805	66.789	42.4805	66.8081	42.4805	66.8519	42.4805	66.9399	42.4805	66.9459	42.4805	67.1038	42.4805	67.072	42.4805	67.2882	42.4805	67.2255	42.4805	67.4761	42.4805	67.3953	42.4805	67.6466	42.4805	67.5643	42.4805	67.779	42.4805	67.7124	42.4805	67.8568	42.4805	67.8196	42.4805	67.8705
43.9453	66.6462	43.9453	66.6257	43.9453	66.6528	43.9453	66.5921	43.9453	66.6456	43.9453	66.5479	43.9453	66.6261	43.9453	66.4973	43.9453	66.597	43.9453	66.4462	43.9453	66.5626	43.9453	66.4028	43.9453	66.5286	43.9453	66.3771	43.9453	66.5026	43.9453	66.3804	43.9453	66.4937	43.9453	66.4234	43.9453	66.5115	43.9453	66.5137	43.9453	66.565	43.9453	66.6528	43.9453	66.6599	43.9453	66.8338	43.9453	66.7963	43.9453	67.041	43.9453	66.967	43.9453	67.2521	43.9453	67.1572	43.9453	67.4423	43.9453	67.3461	43.9453	67.5884	43.9453	67.5109	43.9453	67.6731	43.9453	67.63	43.9453	67.687
45.4102	66.152	45.4102	66.0986	45.4102	66.2063	45.4102	66.0487	45.4102	66.26	45.4102	66.0065	45.4102	66.3128	45.4102	65.9774	45.4102	66.3652	45.4102	65.968	45.4102	66.419	45.4102	65.9862	45.4102	66.4772	45.4102	66.0401	45.4102	66.5434	45.4102	66.1366	45.4102	66.6222	45.4102	66.2798	45.4102	66.7182	45.4102	66.4691	45.4102	66.8352	45.4102	66.6973	45.4102	66.975	45.4102	66.9509	45.4102	67.1356	45.4102	67.211	45.4102	67.3108	45.4102	67.4564	45.4102	67.49	45.4102	67.6661	45.4102	67.6587	45.4102	67.8231	45.4102	67.8003	45.4102	67.9159	45.4102	67.8987	45.4102	67.9402
46.875	67.0547	46.875	67.0282	46.875	67.0953	46.875	67.0193	46.875	67.1471	46.875	67.0326	46.875	67.2081	46.875	67.0727	46.875	67.2777	46.875	67.1441	46.875	67.3563	46.875	67.2508	46.875	67.4453	46.875	67.3951	46.875	67.5473	46.875	67.5768	46.875	67.6652	46.875	67.7929	46.875	67.8022	46.875	68.0366	46.875	67.9603	46.875	68.2973	46.875	68.14	46.875	68.5612	46.875	68.3388	46.875	68.8123	46.875	68.5505	46.875	69.0339	46.875	68.7651	46.875	69.2102	46.875	68.9692	46.875	69.3286	46.875	69.1473	46.875	69.3809	46.875	69.2836	46.875	69.3646
48.3398	69.218	48.3398	69.2448	48.3398	69.1902	48.3398	69.2706	48.3398	69.1619	48.3398	69.2959	48.3398	69.1341	48.3398	69.3219	48.3398	69.1085	48.3398	69.3502	48.3398	69.0871	48.3398	69.3828	48.3398	69.0726	48.3398	69.4224	48.3398	69.0684	48.3398	69.4717	48.3398	69.078	48.3398	69.5326	48.3398	69.1051	48.3398	69.6063	48.3398	69.153	48.3398	69.6915	48.3398	69.224	48.3398	69.7844	48.3398	69.3182	48.3398	69.8783	48.3398	69.4335	48.3398	69.9636	48.3398	69.564	48.3398	70.0296	48.3398	69.7003	48.3398	70.0657	48.3398	69.8305	48.3398	70.0642	48.3398	69.9416	48.3398	70.022
51.2695	70.1623	51.2695	70.1464	51.2695	70.1722	51.2695	70.1254	51.2695	70.1762	51.2695	70.1009	51.2695	70.175	51.2695	70.0755	51.2695	70.1702	51.2695	70.0531	51.2695	70.1641	51.2695	70.0384	51.2695	70.1597	51.2695	70.0373	51.2695	70.1608	51.2695	70.0556	51.2695	70.1719	51.2695	70.0989	51.2695	70.1974	51.2695	70.1706	51.2695	70.2414	51.2695	70.2705	51.2695	70.3065	51.2695	70.3941	51.2695	70.3931	51.2695	70.5317	51.2695	70.498	51.2695	70.6699	51.2695	70.6139	51.2695	70.7931	51.2695	70.7301	51.2695	70.8868	51.2695	70.8331	51.2695	70.94	51.2695	70.9093	51.2695	70.9472
52.7344	70.7526	52.7344	70.7377	52.7344	70.772	52.7344	70.7283	52.7344	70.7956	52.7344	70.7258	52.7344	70.8239	52.7344	70.7328	52.7344	70.8578	52.7344	70.7522	52.7344	70.8986	52.7344	70.7877	52.7344	70.948	52.7344	70.8431	52.7344	71.0079	52.7344	70.9221	52.7344	71.0802	52.7344	71.0268	52.7344	71.1665	52.7344	71.1574	52.7344	71.2678	52.7344	71.3107	52.7344	71.3839	52.7344	71.4798	52.7344	71.5129	52.7344	71.654	52.7344	71.6506	52.7344	71.8199	52.7344	71.7897	52.7344	71.9632	52.7344	71.9205	52.7344	72.0708	52.7344	72.0311	52.7344	72.1332	52.7344	72.1096	52.7344	72.1457
54.1992	71.6348	54.1992	71.6177	54.1992	71.6578	54.1992	71.6075	54.1992	71.6861	54.1992	71.6061	54.1992	71.7196	54.1992	71.6158	54.1992	71.7588	54.1992	71.6398	54.1992	71.8047	54.1992	71.6814	54.1992	71.8587	54.1992	71.7439	54.1992	71.9224	54.1992	71.8304	54.1992	71.9975	54.1992	71.9423	54.1992	72.0858	54.1992	72.0791	54.1992	72.1883	54.1992	72.2369	54.1992	72.3052	54.1992	72.4087	54.1992	72.4347	54.1992	72.5837	54.1992	72.5727	54.1992	72.749	54.1992	72.7122	54.1992	72.8908	54.1992	72.8431	54.1992	72.9967	54.1992	72.9538	54.1992	73.0576	54.1992	73.0325	54.1992	73.0692
55.6641	72.5447	55.6641	72.5407	55.6641	72.5604	55.6641	72.549	55.6641	72.5873	55.6641	72.5706	55.6641	72.6254	55.6641	72.607	55.6641	72.6752	55.6641	72.66	55.6641	72.737	55.6641	72.7314	55.6641	72.8115	55.6641	72.8229	55.6641	72.8993	55.6641	72.9357	55.6641	73.0009	55.6641	73.0697	55.6641	73.1166	55.6641	73.223	55.6641	73.2459	55.6641	73.3915	55.6641	73.3872	55.6641	73.5681	55.6641	73.5376	55.6641	73.7433	55.6641	73.6918	55.6641	73.9055	55.6641	73.8424	55.6641	74.0429	55.6641	73.9799	55.6641	74.1443	55.6641	74.0938	55.6641	74.2019	55.6641	74.1738	55.6641	74.2115
58.5938	74.1255	58.5938	74.1118	58.5938	74.1509	58.5938	74.1102	58.5938	74.1877	58.5938	74.1215	58.5938	74.2356	58.5938	74.1464	58.5938	74.2942	58.5938	74.1858	58.5938	74.3633	58.5938	74.2408	58.5938	74.4426	58.5938	74.3125	58.5938	74.5315	58.5938	74.4016	58.5938	74.6293	58.5938	74.5083	58.5938	74.7353	58.5938	74.6317	58.5938	74.848	58.5938	74.769	58.5938	74.9654	58.5938	74.9157	58.5938	75.0847	58.5938	75.0648	58.5938	75.2016	58.5938	75.2073	58.5938	75.3107	58.5938	75.3334	58.5938	75.4053	58.5938	75.4337	58.5938	75.4779	58.5938	75.5006	58.5938	75.5214	58.5938	75.53
60.0586	74.8994	60.0586	74.8831	60.0586	74.9278	60.0586	74.8794	60.0586	74.9675	60.0586	74.889	60.0586	75.0181	60.0586	74.9126	60.0586	75.0789	60.0586	74.9509	60.0586	75.1491	60.0586	75.0048	60.0586	75.2282	60.0586	75.0749	60.0586	75.3155	60.0586	75.1617	60.0586	75.4099	60.0586	75.2651	60.0586	75.5107	60.0586	75.384	60.0586	75.6164	60.0586	75.5157	60.0586	75.7253	60.0586	75.6557	60.0586	75.8348	60.0586	75.7974	60.0586	75.9414	60.0586	75.9325	60.0586	76.0403	60.0586	76.0517	60.0586	76.1258	60.0586	76.1462	60.0586	76.1913	60.0586	76.2094	60.0586	76.2304	60.0586	76.2374
62.9883	76.4614	62.9883	76.4606	62.9883	76.4739	62.9883	76.4714	62.9883	76.4975	62.9883	76.4942	62.9883	76.5322	62.9883	76.5291	62.9883	76.5774	62.9883	76.5763	62.9883	76.6329	62.9883	76.6362	62.9883	76.6981	62.9883	76.7088	62.9883	76.7725	62.9883	76.7941	62.9883	76.8555	62.9883	76.8916	62.9883	76.9462	62.9883	76.9998	62.9883	77.0434	62.9883	77.1163	62.9883	77.1454	62.9883	77.237	62.9883	77.25	62.9883	77.356	62.9883	77.3539	62.9883	77.4665	62.9883	77.4528	62.9883	77.5608	62.9883	77.5413	62.9883	77.6316	62.9883	77.6133	62.9883	77.6735	62.9883	77.6625	62.9883	77.6837
64.4531	77.1132	64.4531	77.1122	64.4531	77.126	64.4531	77.1231	64.4531	77.1503	64.4531	77.146	64.4531	77.1859	64.4531	77.1811	64.4531	77.2325	64.4531	77.2283	64.4531	77.2896	64.4531	77.2877	64.4531	77.3567	64.4531	77.3594	64.4531	77.4333	64.4531	77.4432	64.4531	77.5185	64.4531	77.5384	64.4531	77.6112	64.4531	77.6437	64.4531	77.7101	64.4531	77.7569	64.4531	77.8132	64.4531	77.8743	64.4531	77.9179	64.4531	77.9906	64.4531	78.0206	64.4531	78.0995	64.4531	78.117	64.4531	78.1938	64.4531	78.2016	64.4531	78.2665	64.4531	78.2686	64.4531	78.3121	64.4531	78.3121	64.4531	78.3274
67.3828	78.2022	67.3828	78.1935	67.3828	78.2231	67.3828	78.1972	67.3828	78.256	67.3828	78.2131	67.3828	78.3005	67.3828	78.241	67.3828	78.3559	67.3828	78.2805	67.3828	78.4211	67.3828	78.3312	67.3828	78.4951	67.3828	78.3927	67.3828	78.5764	67.3828	78.4644	67.3828	78.6632	67.3828	78.5455	67.3828	78.7536	67.3828	78.635	67.3828	78.8453	67.3828	78.7312	67.3828	78.9358	67.3828	78.8313	67.3828	79.0223	67.3828	78.9319	67.3828	79.1019	67.3828	79.0284	67.3828	79.171	67.3828	79.1156	67.3828	79.2261	67.3828	79.1882	67.3828	79.2634	67.3828	79.2416	67.3828	79.2796	67.3828	79.2725
68.8477	78.8405	68.8477	78.8306	68.8477	78.8614	68.8477	78.8315	68.8477	78.893	68.8477	78.8432	68.8477	78.9348	68.8477	78.8651	68.8477	78.986	68.8477	78.8968	68.8477	79.0455	68.8477	78.9378	68.8477	79.1119	68.8477	78.9875	68.8477	79.1834	68.8477	79.0454	68.8477	79.2583	68.8477	79.1108	68.8477	79.3344	68.8477	79.1829	68.8477	79.4095	68.8477	79.2604	68.8477	79.4814	68.8477	79.3414	68.8477	79.548	68.8477	79.423	68.8477	79.6071	68.8477	79.5019	68.8477	79.6563	68.8477	79.5739	68.8477	79.6934	68.8477	79.6349	68.8477	79.7161	68.8477	79.6814	68.8477	79.7224	68.8477	79.7109
71.7773	80.164	71.7773	80.1599	71.7773	80.1787	71.7773	80.1666	71.7773	80.2034	71.7773	80.1838	71.7773	80.2372	71.7773	80.211	71.7773	80.2785	71.7773	80.2473	71.7773	80.3258	71.7773	80.2918	71.7773	80.3771	71.7773	80.3432	71.7773	80.4303	71.7773	80.4002	71.7773	80.4837	71.7773	80.4615	71.7773	80.5356	71.7773	80.5254	71.7773	80.5848	71.7773	80.59	71.7773	80.631	71.7773	80.6528	71.7773	80.6739	71.7773	80.7113	71.7773	80.7137	71.7773	80.7622	71.7773	80.7506	71.7773	80.8029	71.7773	80.784	71.7773	80.8309	71.7773	80.8125	71.7773	80.845	71.7773	80.8338	71.7773	80.8455
74.707	80.8504	74.707	80.8482	74.707	80.8638	74.707	80.8574	74.707	80.8879	74.707	80.878	74.707	80.922	74.707	80.9097	74.707	80.9651	74.707	80.9517	74.707	81.0162	74.707	81.0035	74.707	81.0739	74.707	81.064	74.707	81.1372	74.707	81.1323	74.707	81.2049	74.707	81.2071	74.707	81.2758	74.707	81.2869	74.707	81.349	74.707	81.3698	74.707	81.4231	74.707	81.4532	74.707	81.4965	74.707	81.5342	74.707	81.5672	74.707	81.6089	74.707	81.6322	74.707	81.6733	74.707	81.6883	74.707	81.7232	74.707	81.7317	74.707	81.7551	74.707	81.7589	74.707	81.7671
77.6367	81.3298	77.6367	81.3629	77.6367	81.3095	77.6367	81.408	77.6367	81.3026	77.6367	81.464	77.6367	81.3092	77.6367	81.5293	77.6367	81.3292	77.6367	81.6024	77.6367	81.3621	77.6367	81.6815	77.6367	81.4072	77.6367	81.7646	77.6367	81.4635	77.6367	81.8497	77.6367	81.5298	77.6367	81.9348	77.6367	81.6049	77.6367	82.0177	77.6367	81.6873	77.6367	82.0962	77.6367	81.7753	77.6367	82.168	77.6367	81.8667	77.6367	82.2305	77.6367	81.9591	77.6367	82.2809	77.6367	82.0492	77.6367	82.3163	77.6367	82.1334	77.6367	82.334	77.6367	82.2075	77.6367	82.3321	77.6367	82.2674	77.6367	82.3097
79.1016	81.6899	79.1016	81.7334	79.1016	81.6614	79.1016	81.7906	79.1016	81.6487	79.1016	81.8598	79.1016	81.6521	79.1016	81.939	79.1016	81.6716	79.1016	82.0261	79.1016	81.707	79.1016	82.1184	79.1016	81.7574	79.1016	82.2134	79.1016	81.8219	79.1016	82.3086	79.1016	81.8992	79.1016	82.4015	79.1016	81.9877	79.1016	82.4897	79.1016	82.0852	79.1016	82.5713	79.1016	82.1894	79.1016	82.6441	79.1016	82.297	79.1016	82.7064	79.1016	82.4042	79.1016	82.756	79.1016	82.5067	79.1016	82.7908	79.1016	82.6	79.1016	82.8085	79.1016	82.6797	79.1016	82.807	79.1016	82.7422	79.1016	82.785
82.0313	82.4461	82.0313	82.4618	82.0313	82.4464	82.0313	82.4927	82.0313	82.4628	82.0313	82.5373	82.0313	82.4949	82.0313	82.5937	82.0313	82.5418	82.0313	82.6597	82.0313	82.602	82.0313	82.7325	82.0313	82.6733	82.0313	82.8096	82.0313	82.7533	82.0313	82.8881	82.0313	82.8391	82.0313	82.9657	82.0313	82.9275	82.0313	83.0403	82.0313	83.0153	82.0313	83.1102	82.0313	83.0992	82.0313	83.1744	82.0313	83.1762	82.0313	83.2319	82.0313	83.2435	82.0313	83.2821	82.0313	83.2993	82.0313	83.324	82.0313	83.3421	82.0313	83.3567	82.0313	83.3714	82.0313	83.3788	82.0313	83.387	82.0313	83.3892
84.9609	82.5711	84.9609	82.5931	84.9609	82.5642	84.9609	82.6296	84.9609	82.5726	84.9609	82.6791	84.9609	82.5958	84.9609	82.7399	84.9609	82.6329	84.9609	82.8094	84.9609	82.6822	84.9609	82.8853	84.9609	82.7418	84.9609	82.9647	84.9609	82.8094	84.9609	83.0449	84.9609	82.8825	84.9609	83.1232	84.9609	82.9586	84.9609	83.1975	84.9609	83.0354	84.9609	83.2657	84.9609	83.1106	84.9609	83.3262	84.9609	83.1826	84.9609	83.3778	84.9609	83.2497	84.9609	83.4193	84.9609	83.3106	84.9609	83.4494	84.9609	83.3638	84.9609	83.4671	84.9609	83.4079	84.9609	83.4718	84.9609	83.4415	84.9609	83.4631
87.8906	82.4752	87.8906	82.5153	87.8906	82.4502	87.8906	82.5697	87.8906	82.4408	87.8906	82.6369	87.8906	82.4469	87.8906	82.715	87.8906	82.4677	87.8906	82.8017	87.8906	82.5023	87.8906	82.8943	87.8906	82.5495	87.8906	82.9898	87.8906	82.6077	87.8906	83.0851	87.8906	82.6753	87.8906	83.1773	87.8906	82.751	87.8906	83.2635	87.8906	82.8331	87.8906	83.3409	87.8906	82.9201	87.8906	83.407	87.8906	83.0101	87.8906	83.4598	87.8906	83.1012	87.8906	83.4974	87.8906	83.1907	87.8906	83.5179	87.8906	83.2756	87.8906	83.5204	87.8906	83.3527	87.8906	83.5042	87.8906	83.4184	87.8906	83.4697
90.8203	82.9825	90.8203	82.9659	90.8203	83.0143	90.8203	82.9652	90.8203	83.0602	90.8203	82.9803	90.8203	83.1184	90.8203	83.0106	90.8203	83.187	90.8203	83.0545	90.8203	83.2639	90.8203	83.11	90.8203	83.3467	90.8203	83.1743	90.8203	83.4328	90.8203	83.2444	90.8203	83.5197	90.8203	83.3172	90.8203	83.6042	90.8203	83.3898	90.8203	83.6831	90.8203	83.4598	90.8203	83.753	90.8203	83.5257	90.8203	83.8105	90.8203	83.5867	90.8203	83.8528	90.8203	83.6429	90.8203	83.8781	90.8203	83.6947	90.8203	83.8863	90.8203	83.7426	90.8203	83.8784	90.8203	83.7865	90.8203	83.8571	90.8203	83.8254
95.2148	82.4354	95.2148	82.43	95.2148	82.4633	95.2148	82.4464	95.2148	82.5131	95.2148	82.4829	95.2148	82.5826	95.2148	82.5365	95.2148	82.6685	95.2148	82.6036	95.2148	82.7666	95.2148	82.6804	95.2148	82.8715	95.2148	82.7626	95.2148	82.9778	95.2148	82.8467	95.2148	83.08	95.2148	82.9293	95.2148	83.1731	95.2148	83.008	95.2148	83.2533	95.2148	83.0809	95.2148	83.318	95.2148	83.1472	95.2148	83.3662	95.2148	83.2063	95.2148	83.3986	95.2148	83.2582	95.2148	83.417	95.2148	83.303	95.2148	83.4239	95.2148	83.3406	95.2148	83.4215	95.2148	83.3711	95.2148	83.4115	95.2148	83.3947
98.1445	82.6277	98.1445	82.6444	98.1445	82.6272	98.1445	82.6762	98.1445	82.643	98.1445	82.7217	98.1445	82.6746	98.1445	82.7785	98.1445	82.7208	98.1445	82.8443	98.1445	82.7794	98.1445	82.9163	98.1445	82.8477	98.1445	82.9915	98.1445	82.9225	98.1445	83.0672	98.1445	83.0004	98.1445	83.1407	98.1445	83.0781	98.1445	83.2098	98.1445	83.1528	98.1445	83.2729	98.1445	83.2224	98.1445	83.3288	98.1445	83.2855	98.1445	83.3768	98.1445	83.3412	98.1445	83.4166	98.1445	83.3888	98.1445	83.4479	98.1445	83.4277	98.1445	83.4701	98.1445	83.4572	98.1445	83.4828	98.1445	83.4765	98.1445	83.485
101.074	82.5976	101.074	82.6196	101.074	82.5879	101.074	82.653	101.074	82.591	101.074	82.6963	101.074	82.607	101.074	82.7473	101.074	82.635	101.074	82.8038	101.074	82.674	101.074	82.8631	101.074	82.7222	101.074	82.9224	101.074	82.7773	101.074	82.979	101.074	82.8368	101.074	83.0307	101.074	82.8981	101.074	83.0756	101.074	82.9586	101.074	83.1127	101.074	83.0158	101.074	83.1419	101.074	83.0677	101.074	83.164	101.074	83.1127	101.074	83.1803	101.074	83.1493	101.074	83.1923	101.074	83.1769	101.074	83.201	101.074	83.1954	101.074	83.2067	101.074	83.2055	101.074	83.2087
105.469	82.2777	105.469	82.2785	105.469	82.2928	105.469	82.2947	105.469	82.3238	105.469	82.3252	105.469	82.3702	105.469	82.3687	105.469	82.4306	105.469	82.4233	105.469	82.5033	105.469	82.4865	105.469	82.5857	105.469	82.5557	105.469	82.6747	105.469	82.6282	105.469	82.7666	105.469	82.7011	105.469	82.8577	105.469	82.7719	105.469	82.9439	105.469	82.8385	105.469	83.0215	105.469	82.8998	105.469	83.087	105.469	82.9551	105.469	83.1379	105.469	83.0049	105.469	83.1724	105.469	83.0498	105.469	83.1901	105.469	83.0903	105.469	83.1918	105.469	83.1265	105.469	83.1798	105.469	83.157
108.398	82.1767	108.398	82.1842	108.398	82.1882	108.398	82.2099	108.398	82.2184	108.398	82.2522	108.398	82.2665	108.398	82.3087	108.398	82.3308	108.398	82.3763	108.398	82.4087	108.398	82.451	108.398	82.497	108.398	82.5287	108.398	82.5918	108.398	82.605	108.398	82.6887	108.398	82.676	108.398	82.783	108.398	82.7386	108.398	82.8698	108.398	82.7909	108.398	82.9446	108.398	82.8326	108.398	83.0035	108.398	82.8653	108.398	83.0437	108.398	82.8917	108.398	83.0643	108.398	82.9155	108.398	83.0661	108.398	82.9402	108.398	83.0523	108.398	82.9678	108.398	83.0277	108.398	82.998
112.793	82.2443	112.793	82.3098	112.793	82.1933	112.793	82.3875	112.793	82.1581	112.793	82.4743	112.793	82.1394	112.793	82.5666	112.793	82.1371	112.793	82.6603	112.793	82.1502	112.793	82.7509	112.793	82.1768	112.793	82.8341	112.793	82.2148	112.793	82.9057	112.793	82.2613	112.793	82.962	112.793	82.3134	112.793	83.0004	112.793	82.3682	112.793	83.0192	112.793	82.4232	112.793	83.0184	112.793	82.4766	112.793	82.9996	112.793	82.5272	112.793	82.9657	112.793	82.5751	112.793	82.9209	112.793	82.6211	112.793	82.8696	112.793	82.6669	112.793	82.8162	112.793	82.714	112.793	82.7638
117.188	82.0671	117.188	82.1149	117.188	82.0275	117.188	82.1702	117.188	81.9966	117.188	82.2316	117.188	81.9739	117.188	82.2969	117.188	81.9584	117.188	82.3635	117.188	81.9486	117.188	82.4283	117.188	81.9426	117.188	82.4877	117.188	81.9381	117.188	82.5377	117.188	81.9332	117.188	82.5741	117.188	81.9261	117.188	82.5929	117.188	81.9159	117.188	82.5904	117.188	81.9033	117.188	82.5644	117.188	81.8903	117.188	82.5141	117.188	81.8805	117.188	82.4413	117.188	81.879	117.188	82.3505	117.188	81.8918	117.188	82.2494	117.188	81.9238	117.188	82.1474	117.188	81.9782	117.188	82.0543
120.117	82.0689	120.117	82.0287	120.117	82.1152	120.117	81.9959	120.117	82.1657	120.117	81.9713	120.117	82.2185	120.117	81.9553	120.117	82.2716	120.117	81.9476	120.117	82.3227	120.117	81.9471	120.117	82.3695	120.117	81.9524	120.117	82.4099	120.117	81.9613	120.117	82.4416	120.117	81.972	120.117	82.4629	120.117	81.9828	120.117	82.4721	120.117	81.9925	120.117	82.4682	120.117	82.0014	120.117	82.4509	120.117	82.0107	120.117	82.4204	120.117	82.023	120.117	82.3783	120.117	82.0414	120.117	82.3267	120.117	82.0688	120.117	82.2693	120.117	82.1068	120.117	82.2104	120.117	82.1549
124.512	81.9361	124.512	81.9482	124.512	81.9332	124.512	81.969	124.512	81.9392	124.512	81.9975	124.512	81.9532	124.512	82.0316	124.512	81.9739	124.512	82.0687	124.512	81.9997	124.512	82.1058	124.512	82.0288	124.512	82.1395	124.512	82.0592	124.512	82.1669	124.512	82.0891	124.512	82.1856	124.512	82.117	124.512	82.1945	124.512	82.1413	124.512	82.1937	124.512	82.161	124.512	82.1852	124.512	82.1751	124.512	82.1719	124.512	82.1829	124.512	82.1578	124.512	82.1842	124.512	82.1465	124.512	82.1796	124.512	82.1408	124.512	82.1705	124.512	82.1417	124.512	82.1591	124.512	82.1485
128.906	81.7405	128.906	81.7738	128.906	81.7165	128.906	81.8157	128.906	81.702	128.906	81.8647	128.906	81.6965	128.906	81.9189	128.906	81.6992	128.906	81.976	128.906	81.7084	128.906	82.0328	128.906	81.722	128.906	82.0859	128.906	81.7374	128.906	82.1316	128.906	81.752	128.906	82.1661	128.906	81.7632	128.906	82.186	128.906	81.7691	128.906	82.1884	128.906	81.7688	128.906	82.172	128.906	81.763	128.906	82.1367	128.906	81.754	128.906	82.0849	128.906	81.7461	128.906	82.0208	128.906	81.7446	128.906	81.951	128.906	81.7549	128.906	81.8831	128.906	81.7812	128.906	81.8247
133.301	81.7707	133.301	81.815	133.301	81.7425	133.301	81.8732	133.301	81.7315	133.301	81.9423	133.301	81.7381	133.301	82.0191	133.301	81.7615	133.301	82.0999	133.301	81.7997	133.301	82.1808	133.301	81.8498	133.301	82.2578	133.301	81.9078	133.301	82.3274	133.301	81.9696	133.301	82.3859	133.301	82.0306	133.301	82.4305	133.301	82.0869	133.301	82.4591	133.301	82.1354	133.301	82.4706	133.301	82.1743	133.301	82.4653	133.301	82.2036	133.301	82.4455	133.301	82.2252	133.301	82.4148	133.301	82.2423	133.301	82.3782	133.301	82.2594	133.301	82.3409	133.301	82.2803	133.301	82.3075
139.16	81.6325	139.16	81.6525	139.16	81.6308	139.16	81.69	139.16	81.6475	139.16	81.7434	139.16	81.6821	139.16	81.8103	139.16	81.7334	139.16	81.8878	139.16	81.7994	139.16	81.9721	139.16	81.8776	139.16	82.0594	139.16	81.9648	139.16	82.1459	139.16	82.0571	139.16	82.228	139.16	82.1503	139.16	82.3029	139.16	82.2401	139.16	82.3685	139.16	82.3224	139.16	82.4237	139.16	82.3937	139.16	82.4681	139.16	82.4517	139.16	82.5022	139.16	82.4956	139.16	82.5269	139.16	82.526	139.16	82.5435	139.16	82.5449	139.16	82.5533	139.16	82.5546	139.16	82.557
143.555	81.4565	143.555	81.4599	143.555	81.4694	143.555	81.4793	143.555	81.4982	143.555	81.514	143.555	81.5421	143.555	81.5625	143.555	81.5997	143.555	81.6227	143.555	81.6688	143.555	81.692	143.555	81.7467	143.555	81.7672	143.555	81.8302	143.555	81.8449	143.555	81.9153	143.555	81.9215	143.555	81.9979	143.555	81.9935	143.555	82.0739	143.555	82.0581	143.555	82.1394	143.555	82.1131	143.555	82.1917	143.555	82.1575	143.555	82.2296	143.555	82.1913	143.555	82.2532	143.555	82.2159	143.555	82.2646	143.555	82.2333	143.555	82.2667	143.555	82.2459	143.555	82.2629	143.555	82.2556
147.949	81.562	147.949	81.5477	147.949	81.5908	147.949	81.5483	147.949	81.6334	147.949	81.5639	147.949	81.6886	147.949	81.5937	147.949	81.7551	147.949	81.6367	147.949	81.831	147.949	81.6912	147.949	81.9139	147.949	81.7548	147.949	82.0007	147.949	81.8248	147.949	82.088	147.949	81.8979	147.949	82.1717	147.949	81.9712	147.949	82.2477	147.949	82.0417	147.949	82.3122	147.949	82.107	147.949	82.3624	147.949	82.1658	147.949	82.3964	147.949	82.2172	147.949	82.4142	147.949	82.2619	147.949	82.4172	147.949	82.3006	147.949	82.4079	147.949	82.3345	147.949	82.3893	147.949	82.3643
153.809	81.7693	153.809	81.7743	153.809	81.7711	153.809	81.7857	153.809	81.7802	153.809	81.8031	153.809	81.7972	153.809	81.8262	153.809	81.8224	153.809	81.8546	153.809	81.8555	153.809	81.8875	153.809	81.8956	153.809	81.9237	153.809	81.9409	153.809	81.9616	153.809	81.9884	153.809	81.999	153.809	82.0348	153.809	82.0335	153.809	82.0761	153.809	82.0627	153.809	82.109	153.809	82.0848	153.809	82.1311	153.809	82.0989	153.809	82.1417	153.809	82.1056	153.809	82.142	153.809	82.1066	153.809	82.1347	153.809	82.105	153.809	82.1238	153.809	82.1041	153.809	82.1135	153.809	82.1066
159.668	81.8911	159.668	81.8886	159.668	81.9015	159.668	81.8937	159.668	81.9198	159.668	81.9056	159.668	81.9457	159.668	81.9233	159.668	81.9781	159.668	81.9453	159.668	82.0154	159.668	81.9695	159.668	82.0554	159.668	81.9935	159.668	82.0949	159.668	82.015	159.668	82.1306	159.668	82.0316	159.668	82.159	159.668	82.0414	159.668	82.1768	159.668	82.0434	159.668	82.182	159.668	82.0377	159.668	82.1735	159.668	82.0259	159.668	82.1522	159.668	82.0105	159.668	82.1206	159.668	81.9954	159.668	82.0834	159.668	81.9848	159.668	82.0461	159.668	81.983	159.668	82.0143	159.668	81.9926
165.527	82.0107	165.527	82.0021	165.527	82.0256	165.527	82	165.527	82.0463	165.527	82.0045	165.527	82.0721	165.527	82.0151	165.527	82.102	165.527	82.0306	165.527	82.135	165.527	82.0493	165.527	82.1696	165.527	82.0692	165.527	82.2039	165.527	82.0875	165.527	82.2359	165.527	82.102	165.527	82.263	165.527	82.1108	165.527	82.2828	165.527	82.113	165.527	82.2928	165.527	82.1091	165.527	82.2915	165.527	82.101	165.527	82.278	165.527	82.0919	165.527	82.2533	165.527	82.0855	165.527	82.2201	165.527	82.0857	165.527	82.1827	165.527	82.0956	165.527	82.1465	165.527	82.1163
171.387	81.9705	171.387	81.9609	171.387	81.9925	171.387	81.9645	171.387	82.0251	171.387	81.9817	171.387	82.0662	171.387	82.0116	171.387	82.1136	171.387	82.0524	171.387	82.1646	171.387	82.101	171.387	82.2165	171.387	82.1535	171.387	82.2665	171.387	82.2057	171.387	82.3122	171.387	82.2532	171.387	82.3511	171.387	82.2925	171.387	82.3815	171.387	82.3213	171.387	82.4019	171.387	82.3386	171.387	82.4116	171.387	82.3454	171.387	82.4109	171.387	82.3441	171.387	82.4008	171.387	82.3383	171.387	82.3842	171.387	82.3323	171.387	82.3649	171.387	82.3304	171.387	82.3473	171.387	82.3352
177.246	82.1087	177.246	82.0937	177.246	82.1332	177.246	82.089	177.246	82.1659	177.246	82.0951	177.246	82.2055	177.246	82.1119	177.246	82.2506	177.246	82.1386	177.246	82.2995	177.246	82.1736	177.246	82.3506	177.246	82.2145	177.246	82.402	177.246	82.2583	177.246	82.4519	177.246	82.3018	177.246	82.498	177.246	82.3419	177.246	82.5382	177.246	82.3765	177.246	82.5701	177.246	82.4041	177.246	82.5915	177.246	82.425	177.246	82.6008	177.246	82.4408	177.246	82.5975	177.246	82.454	177.246	82.5828	177.246	82.468	177.246	82.5601	177.246	82.4855	177.246	82.5335	177.246	82.5076
183.105	82.1694	183.105	82.1635	183.105	82.181	183.105	82.1626	183.105	82.1991	183.105	82.166	183.105	82.2239	183.105	82.173	183.105	82.2554	183.105	82.1833	183.105	82.2931	183.105	82.1964	183.105	82.3359	183.105	82.2121	183.105	82.3821	183.105	82.2301	183.105	82.4296	183.105	82.25	183.105	82.4761	183.105	82.2715	183.105	82.5187	183.105	82.2941	183.105	82.5543	183.105	82.3176	183.105	82.58	183.105	82.3418	183.105	82.5931	183.105	82.367	183.105	82.5925	183.105	82.3938	183.105	82.5787	183.105	82.4228	183.105	82.5541	183.105	82.4545	183.105	82.5226	183.105	82.4883
188.965	82.3522	188.965	82.35	188.965	82.3631	188.965	82.3565	188.965	82.3821	188.965	82.3712	188.965	82.4078	188.965	82.3926	188.965	82.4384	188.965	82.4185	188.965	82.4719	188.965	82.4464	188.965	82.5061	188.965	82.4735	188.965	82.5388	188.965	82.4975	188.965	82.5682	188.965	82.5165	188.965	82.5929	188.965	82.5298	188.965	82.6117	188.965	82.5373	188.965	82.624	188.965	82.54	188.965	82.6292	188.965	82.5394	188.965	82.627	188.965	82.5372	188.965	82.6177	188.965	82.5354	188.965	82.6028	188.965	82.5361	188.965	82.5847	188.965	82.5411	188.965	82.5666	188.965	82.5514
196.289	82.5625	196.289	82.5613	196.289	82.5724	196.289	82.5692	196.289	82.5901	196.289	82.586	196.289	82.6145	196.289	82.6105	196.289	82.6441	196.289	82.6408	196.289	82.6774	196.289	82.6739	196.289	82.7127	196.289	82.7059	196.289	82.7479	196.289	82.7327	196.289	82.7804	196.289	82.7504	196.289	82.8076	196.289	82.7561	196.289	82.8264	196.289	82.7488	196.289	82.8342	196.289	82.7297	196.289	82.829	196.289	82.7024	196.289	82.8102	196.289	82.6722	196.289	82.7794	196.289	82.6455	196.289	82.7405	196.289	82.6281	196.289	82.6992	196.289	82.6244	196.289	82.6625	196.289	82.6362
203.613	82.4221	203.613	82.4192	203.613	82.4324	203.613	82.4236	203.613	82.4499	203.613	82.4349	203.613	82.4739	203.613	82.4522	203.613	82.5038	203.613	82.4739	203.613	82.5386	203.613	82.498	203.613	82.5771	203.613	82.5216	203.613	82.6179	203.613	82.5415	203.613	82.6591	203.613	82.5548	203.613	82.698	203.613	82.5592	203.613	82.7315	203.613	82.554	203.613	82.7554	203.613	82.5408	203.613	82.7656	203.613	82.5234	203.613	82.7593	203.613	82.5072	203.613	82.7356	203.613	82.4982	203.613	82.697	203.613	82.5016	203.613	82.6489	203.613	82.5201	203.613	82.5986	203.613	82.5536
210.938	82.4503	210.938	82.4487	210.938	82.4559	210.938	82.4507	210.938	82.4661	210.938	82.4557	210.938	82.4809	210.938	82.4631	210.938	82.5001	210.938	82.4723	210.938	82.5229	210.938	82.4824	210.938	82.5481	210.938	82.492	210.938	82.5739	210.938	82.4994	210.938	82.5982	210.938	82.5026	210.938	82.6186	210.938	82.5	210.938	82.6323	210.938	82.4908	210.938	82.637	210.938	82.4753	210.938	82.6309	210.938	82.456	210.938	82.6131	210.938	82.4365	210.938	82.5847	210.938	82.4217	210.938	82.5486	210.938	82.416	210.938	82.5092	210.938	82.4223	210.938	82.4718	210.938	82.4416
218.262	82.1936	218.262	82.1962	218.262	82.1973	218.262	82.2045	218.262	82.2075	218.262	82.2177	218.262	82.2239	218.262	82.2346	218.262	82.2459	218.262	82.2539	218.262	82.2725	218.262	82.2739	218.262	82.3022	218.262	82.2928	218.262	82.3331	218.262	82.3088	218.262	82.3628	218.262	82.3201	218.262	82.3887	218.262	82.3253	218.262	82.4078	218.262	82.3238	218.262	82.4175	218.262	82.3161	218.262	82.4162	218.262	82.3037	218.262	82.4036	218.262	82.2895	218.262	82.3814	218.262	82.2769	218.262	82.3532	218.262	82.2694	218.262	82.3238	218.262	82.2696	218.262	82.2978	218.262	82.2791
225.586	82.1384	225.586	82.1459	225.586	82.1323	225.586	82.1541	225.586	82.128	225.586	82.1625	225.586	82.1261	225.586	82.1705	225.586	82.127	225.586	82.1774	225.586	82.1308	225.586	82.1827	225.586	82.138	225.586	82.1859	225.586	82.1484	225.586	82.1865	225.586	82.1615	225.586	82.1844	225.586	82.1762	225.586	82.1799	225.586	82.1903	225.586	82.1734	225.586	82.2013	225.586	82.1657	225.586	82.2067	225.586	82.1577	225.586	82.2051	225.586	82.1505	225.586	82.1969	225.586	82.1449	225.586	82.184	225.586	82.1419	225.586	82.1696	225.586	82.1425	225.586	82.1567	225.586	82.1474
232.91	82.0165	232.91	82.0248	232.91	82.0042	232.91	82.0289	232.91	81.9888	232.91	82.0288	232.91	81.9712	232.91	82.0249	232.91	81.9528	232.91	82.0177	232.91	81.9346	232.91	82.0078	232.91	81.9177	232.91	81.9954	232.91	81.9028	232.91	81.9808	232.91	81.8904	232.91	81.9639	232.91	81.8808	232.91	81.9448	232.91	81.8736	232.91	81.9238	232.91	81.868	232.91	81.9017	232.91	81.8627	232.91	81.88	232.91	81.8565	232.91	81.8604	232.91	81.849	232.91	81.8442	232.91	81.8407	232.91	81.8326	232.91	81.8327	232.91	81.826	232.91	81.8268	232.91	81.8243
241.699	81.6353	241.699	81.6187	241.699	81.649	241.699	81.6013	241.699	81.6578	241.699	81.5847	241.699	81.6603	241.699	81.57	241.699	81.6553	241.699	81.5571	241.699	81.6426	241.699	81.5454	241.699	81.6224	241.699	81.5334	241.699	81.5954	241.699	81.5194	241.699	81.563	241.699	81.502	241.699	81.527	241.699	81.4804	241.699	81.4897	241.699	81.4547	241.699	81.4533	241.699	81.4259	241.699	81.4201	241.699	81.3961	241.699	81.3914	241.699	81.368	241.699	81.3677	241.699	81.3444	241.699	81.3487	241.699	81.3278	241.699	81.334	241.699	81.3191	241.699	81.3235	241.699	81.3181
250.488	81.5369	250.488	81.5046	250.488	81.5603	250.488	81.466	250.488	81.5722	250.488	81.4237	250.488	81.5707	250.488	81.3793	250.488	81.5551	250.488	81.3338	250.488	81.5256	250.488	81.2877	250.488	81.4838	250.488	81.2416	250.488	81.4318	250.488	81.1964	250.488	81.3726	250.488	81.1532	250.488	81.3093	250.488	81.1127	250.488	81.2448	250.488	81.0751	250.488	81.1821	250.488	81.0397	250.488	81.1237	250.488	81.0061	250.488	81.0717	250.488	80.9751	250.488	81.0271	250.488	80.9489	250.488	80.9901	250.488	80.9306	250.488	80.9606	250.488	80.9225	250.488	80.9388	250.488	80.9256
259.277	81.7732	259.277	81.7385	259.277	81.8045	259.277	81.7025	259.277	81.8295	259.277	81.6661	259.277	81.8453	259.277	81.6289	259.277	81.8495	259.277	81.5894	259.277	81.8405	259.277	81.5455	259.277	81.8177	259.277	81.4958	259.277	81.781	259.277	81.441	259.277	81.7308	259.277	81.3838	259.277	81.6681	259.277	81.3294	259.277	81.5947	259.277	81.2829	259.277	81.5138	259.277	81.248	259.277	81.4302	259.277	81.2247	259.277	81.3504	259.277	81.21	259.277	81.2809	259.277	81.1993	259.277	81.2275	259.277	81.1894	259.277	81.1928	259.277	81.1799	259.277	81.1762	259.277	81.1738
268.066	81.2423	268.066	81.1756	268.066	81.3003	268.066	81.1078	268.066	81.3426	268.066	81.0462	268.066	81.3637	268.066	80.9962	268.066	81.3598	268.066	80.9605	268.066	81.3298	268.066	80.9381	268.066	81.2743	268.066	80.9247	268.066	81.1964	268.066	80.9139	268.066	81.1008	268.066	80.8988	268.066	80.9933	268.066	80.8738	268.066	80.8795	268.066	80.8362	268.066	80.7641	268.066	80.7853	268.066	80.6507	268.066	80.7221	268.066	80.543	268.066	80.648	268.066	80.4464	268.066	80.5656	268.066	80.3694	268.066	80.48	268.066	80.3221	268.066	80.4008	268.066	80.3122	268.066	80.3408
276.855	81.2642	276.855	81.2277	276.855	81.2855	276.855	81.1687	276.855	81.2983	276.855	81.0816	276.855	81.3068	276.855	80.9653	276.855	81.3121	276.855	80.8248	276.855	81.3133	276.855	80.6714	276.855	81.3083	276.855	80.5209	276.855	81.2953	276.855	80.3897	276.855	81.2732	276.855	80.2909	276.855	81.2428	276.855	80.2305	276.855	81.2067	276.855	80.2073	276.855	81.1684	276.855	80.215	276.855	81.1295	276.855	80.2468	276.855	81.0876	276.855	80.2982	276.855	81.0364	276.855	80.3671	276.855	80.9688	276.855	80.4529	276.855	80.8813	276.855	80.5537	276.855	80.7772	276.855	80.6646
287.109	81.4573	287.109	81.4551	287.109	81.4355	287.109	81.4237	287.109	81.3959	287.109	81.36	287.109	81.3443	287.109	81.2636	287.109	81.2855	287.109	81.1378	287.109	81.2224	287.109	80.9897	287.109	81.1555	287.109	80.8302	287.109	81.0826	287.109	80.6724	287.109	80.999	287.109	80.53	287.109	80.8984	287.109	80.4142	287.109	80.7755	287.109	80.3305	287.109	80.6298	287.109	80.277	287.109	80.4699	287.109	80.2452	287.109	80.3131	287.109	80.2229	287.109	80.1813	287.109	80.1989	287.109	80.0924	287.109	80.1666	287.109	80.0524	287.109	80.1263	287.109	80.0548	287.109	80.0848
297.363	81.1976	297.363	81.1298	297.363	81.2372	297.363	81.0438	297.363	81.2417	297.363	80.9509	297.363	81.2088	297.363	80.8608	297.363	81.1412	297.363	80.7791	297.363	81.0455	297.363	80.7071	297.363	80.9309	297.363	80.6427	297.363	80.8063	297.363	80.5822	297.363	80.6783	297.363	80.5233	297.363	80.5494	297.363	80.4661	297.363	80.4194	297.363	80.4126	297.363	80.2897	297.363	80.3655	297.363	80.167	297.363	80.3253	297.363	80.0647	297.363	80.2899	297.363	79.998	297.363	80.2547	297.363	79.9763	297.363	80.2143	297.363	79.9968	297.363	80.1649	297.363	80.046	297.363	80.1066
307.617	80.9118	307.617	80.8375	307.617	80.967	307.617	80.7477	307.617	80.9994	307.617	80.6462	307.617	81.0058	307.617	80.5372	307.617	80.9851	307.617	80.4263	307.617	80.9387	307.617	80.3211	307.617	80.8715	307.617	80.2299	307.617	80.7919	307.617	80.1606	307.617	80.7103	307.617	80.1179	307.617	80.6366	307.617	80.1015	307.617	80.5766	307.617	80.1055	307.617	80.5298	307.617	80.1209	307.617	80.4894	307.617	80.1383	307.617	80.4465	307.617	80.1513	307.617	80.3952	307.617	80.1587	307.617	80.3364	307.617	80.1637	307.617	80.2775	307.617	80.1727	307.617	80.2275	307.617	80.1925
319.336	80.6996	319.336	80.6349	319.336	80.7477	319.336	80.554	319.336	80.7761	319.336	80.4543	319.336	80.7797	319.336	80.3317	319.336	80.754	319.336	80.1831	319.336	80.6965	319.336	80.0094	319.336	80.6082	319.336	79.8185	319.336	80.4944	319.336	79.6262	319.336	80.3639	319.336	79.454	319.336	80.2285	319.336	79.3233	319.336	80.1007	319.336	79.2474	319.336	79.9906	319.336	79.2256	319.336	79.9021	319.336	79.2446	319.336	79.8317	319.336	79.2856	319.336	79.77	319.336	79.3339	319.336	79.7076	319.336	79.3839	319.336	79.6396	319.336	79.4376	319.336	79.568	319.336	79.499
329.59	80.7694	329.59	80.7061	329.59	80.806	329.59	80.6157	329.59	80.8157	329.59	80.498	329.59	80.7975	329.59	80.3538	329.59	80.7504	329.59	80.1852	329.59	80.6738	329.59	79.9953	329.59	80.5688	329.59	79.7879	329.59	80.4386	329.59	79.5679	329.59	80.289	329.59	79.3438	329.59	80.128	329.59	79.1302	329.59	79.9645	329.59	78.9472	329.59	79.8062	329.59	78.8152	329.59	79.6566	329.59	78.7451	329.59	79.5153	329.59	78.7319	329.59	79.3796	329.59	78.7578	329.59	79.2488	329.59	78.8043	329.59	79.1267	329.59	78.862	329.59	79.0197	329.59	78.9321
341.309	80.356	341.309	80.3111	341.309	80.3615	341.309	80.2228	341.309	80.3337	341.309	80.0901	341.309	80.2794	341.309	79.9169	341.309	80.2047	341.309	79.7128	341.309	80.1136	341.309	79.4936	341.309	80.0085	341.309	79.2791	341.309	79.8897	341.309	79.0883	341.309	79.7577	341.309	78.933	341.309	79.6148	341.309	78.8148	341.309	79.4664	341.309	78.7267	341.309	79.3209	341.309	78.6607	341.309	79.1868	341.309	78.6132	341.309	79.07	341.309	78.586	341.309	78.9713	341.309	78.5821	341.309	78.8876	341.309	78.6012	341.309	78.8144	341.309	78.6389	341.309	78.7486	341.309	78.6894
353.027	80.3233	353.027	80.2596	353.027	80.3493	353.027	80.1601	353.027	80.3344	353.027	80.0241	353.027	80.2751	353.027	79.849	353.027	80.1699	353.027	79.6325	353.027	80.0208	353.027	79.3762	353.027	79.8333	353.027	79.0885	353.027	79.6166	353.027	78.7867	353.027	79.3814	353.027	78.4949	353.027	79.139	353.027	78.2385	353.027	78.8997	353.027	78.0368	353.027	78.6734	353.027	77.8981	353.027	78.4695	353.027	77.8184	353.027	78.2953	353.027	77.7849	353.027	78.1541	353.027	77.7817	353.027	78.0442	353.027	77.7957	353.027	77.961	353.027	77.8197	353.027	77.8988	353.027	77.8531
366.211	80.2613	366.211	80.1522	366.211	80.3217	366.211	79.9978	366.211	80.3321	366.211	79.8028	366.211	80.2935	366.211	79.5716	366.211	80.2085	366.211	79.3069	366.211	80.08	366.211	79.0107	366.211	79.9111	366.211	78.6873	366.211	79.7049	366.211	78.3467	366.211	79.4648	366.211	78.0074	366.211	79.1953	366.211	77.6954	366.211	78.9026	366.211	77.4387	366.211	78.5968	366.211	77.2594	366.211	78.2956	366.211	77.1677	366.211	78.0246	366.211	77.1582	366.211	77.8107	366.211	77.2122	366.211	77.6679	366.211	77.3018	366.211	77.5856	366.211	77.3972	366.211	77.5327	366.211	77.4758
379.395	80.3426	379.395	80.2711	379.395	80.3916	379.395	80.1746	379.395	80.4161	379.395	80.0457	379.395	80.4107	379.395	79.874	379.395	80.368	379.395	79.6488	379.395	80.2811	379.395	79.3647	379.395	80.1459	379.395	79.0277	379.395	79.9646	379.395	78.6593	379.395	79.7471	379.395	78.2968	379.395	79.5088	379.395	77.9847	379.395	79.2657	379.395	77.7593	379.395	79.0271	379.395	77.6323	379.395	78.7935	379.395	77.5865	379.395	78.5616	379.395	77.5882	379.395	78.3334	379.395	77.6069	379.395	78.12	379.395	77.6289	379.395	77.9382	379.395	77.6587	379.395	77.8011	379.395	77.7109
392.578	79.8966	392.578	79.8094	392.578	79.942	392.578	79.6798	392.578	79.947	392.578	79.5089	392.578	79.9129	392.578	79.2996	392.578	79.8395	392.578	79.0577	392.578	79.7254	392.578	78.79	392.578	79.5685	392.578	78.5043	392.578	79.3676	392.578	78.2072	392.578	79.1247	392.578	77.9049	392.578	78.8473	392.578	77.6066	392.578	78.5498	392.578	77.3293	392.578	78.2528	392.578	77.0999	392.578	77.9804	392.578	76.947	392.578	77.7533	392.578	76.8853	392.578	77.5814	392.578	76.9061	392.578	77.459	392.578	76.9828	392.578	77.367	392.578	77.0851	392.578	77.2823	392.578	77.189
405.762	79.8869	405.762	79.8367	405.762	79.8904	405.762	79.7354	405.762	79.8557	405.762	79.5811	405.762	79.7918	405.762	79.3725	405.762	79.7037	405.762	79.1066	405.762	79.5883	405.762	78.782	405.762	79.4356	405.762	78.4042	405.762	79.2336	405.762	77.9943	405.762	78.9774	405.762	77.5906	405.762	78.6752	405.762	77.24	405.762	78.3509	405.762	76.9765	405.762	78.0382	405.762	76.8043	405.762	77.7703	405.762	76.7036	405.762	77.5671	405.762	76.6557	405.762	77.4277	405.762	76.6597	405.762	77.3305	405.762	76.7241	405.762	77.2415	405.762	76.8441	405.762	77.1312	405.762	76.9919
420.41	80.2672	420.41	80.1814	420.41	80.2983	420.41	80.0508	420.41	80.2722	420.41	79.8899	420.41	80.1947	420.41	79.7102	420.41	80.077	420.41	79.5117	420.41	79.9311	420.41	79.2773	420.41	79.7633	420.41	78.9744	420.41	79.5693	420.41	78.5694	420.41	79.3343	420.41	78.0505	420.41	79.0396	420.41	77.4539	420.41	78.673	420.41	76.8799	420.41	78.239	420.41	76.4664	420.41	77.7664	420.41	76.306	420.41	77.3093	420.41	76.373	420.41	76.937	420.41	76.5504	420.41	76.7079	420.41	76.7141	420.41	76.6378	420.41	76.7886	420.41	76.6838	420.41	76.7625
435.059	80.1343	435.059	80.0215	435.059	80.2025	435.059	79.8739	435.059	80.2153	435.059	79.6977	435.059	80.1643	435.059	79.4971	435.059	80.0455	435.059	79.2765	435.059	79.8585	435.059	79.0396	435.059	79.604	435.059	78.7831	435.059	79.2826	435.059	78.4919	435.059	78.898	435.059	78.1424	435.059	78.4628	435.059	77.7193	435.059	78.0036	435.059	77.2373	435.059	77.5587	435.059	76.7586	435.059	77.1706	435.059	76.384	435.059	76.8733	435.059	76.201	435.059	76.684	435.059	76.2168	435.059	76.5975	435.059	76.3499	435.059	76.585	435.059	76.4934	435.059	76.5973	435.059	76.5789
451.172	80.6604	451.172	80.6288	451.172	80.6299	451.172	80.5241	451.172	80.5468	451.172	80.3377	451.172	80.4168	451.172	80.0683	451.172	80.243	451.172	79.7243	451.172	80.0279	451.172	79.3206	451.172	79.7734	451.172	78.8723	451.172	79.4792	451.172	78.3882	451.172	79.1407	451.172	77.8705	451.172	78.75	451.172	77.3232	451.172	78.3005	451.172	76.7648	451.172	77.7949	451.172	76.2361	451.172	77.2528	451.172	75.7922	451.172	76.7118	451.172	75.4763	451.172	76.2194	451.172	75.2953	451.172	75.8181	451.172	75.2202	451.172	75.5299	451.172	75.2128	451.172	75.3499	451.172	75.2532
465.82	80.7804	465.82	80.7093	465.82	80.7698	465.82	80.5506	465.82	80.6877	465.82	80.3053	465.82	80.5461	465.82	79.9832	465.82	80.3557	465.82	79.6023	465.82	80.1225	465.82	79.1871	465.82	79.8458	465.82	78.7631	465.82	79.517	465.82	78.3492	465.82	79.123	465.82	77.9479	465.82	78.6541	465.82	77.5434	465.82	78.1137	465.82	77.1138	465.82	77.5274	465.82	76.6588	465.82	76.9464	465.82	76.2241	465.82	76.4409	465.82	75.896	465.82	76.0785	465.82	75.7455	465.82	75.8922	465.82	75.7594	465.82	75.8551	465.82	75.8433	465.82	75.8868	465.82	75.8975
483.398	80.4104	483.398	80.3611	483.398	80.3964	483.398	80.2381	483.398	80.3267	483.398	80.0331	483.398	80.203	483.398	79.7447	483.398	80.0218	483.398	79.38	483.398	79.7771	483.398	78.9514	483.398	79.4638	483.398	78.4703	483.398	79.0791	483.398	77.9427	483.398	78.6239	483.398	77.3716	483.398	78.1044	483.398	76.7678	483.398	77.5341	483.398	76.1638	483.398	76.9357	483.398	75.6171	483.398	76.3401	483.398	75.1903	483.398	75.7835	483.398	74.9157	483.398	75.3054	483.398	74.7746	483.398	74.9445	483.398	74.7116	483.398	74.7255	483.398	74.6728	483.398	74.6393	483.398	74.6398
499.512	79.7317	499.512	79.6186	499.512	79.8035	499.512	79.4699	499.512	79.8278	499.512	79.2898	499.512	79.7977	499.512	79.0772	499.512	79.705	499.512	78.8226	499.512	79.541	499.512	78.508	499.512	79.2979	499.512	78.1131	499.512	78.9688	499.512	77.6255	499.512	78.5484	499.512	77.052	499.512	78.0363	499.512	76.4259	499.512	77.4455	499.512	75.8039	499.512	76.8131	499.512	75.2527	499.512	76.2013	499.512	74.8286	499.512	75.6754	499.512	74.5595	499.512	75.2684	499.512	74.4335	499.512	74.9679	499.512	74.405	499.512	74.7445	499.512	74.4263	499.512	74.5836	499.512	74.4816
517.09	79.8255	517.09	79.7219	517.09	79.8607	517.09	79.5348	517.09	79.8422	517.09	79.2557	517.09	79.7797	517.09	78.8883	517.09	79.6754	517.09	78.449	517.09	79.5235	517.09	77.9614	517.09	79.3101	517.09	77.4452	517.09	79.0141	517.09	76.9079	517.09	78.6119	517.09	76.343	517.09	78.0862	517.09	75.739	517.09	77.4355	517.09	75.0952	517.09	76.6815	517.09	74.436	517.09	75.8712	517.09	73.8155	517.09	75.071	517.09	73.3011	517.09	74.3506	517.09	72.9423	517.09	73.7596	517.09	72.7513	517.09	73.3122	517.09	72.7108	517.09	72.9964	517.09	72.7969
536.133	79.1099	536.133	79.0145	536.133	79.1357	536.133	78.8408	536.133	79.1018	536.133	78.5847	536.133	79.0125	536.133	78.2451	536.133	78.8637	536.133	77.8175	536.133	78.6437	536.133	77.29	536.133	78.3368	536.133	76.6472	536.133	77.9263	536.133	75.8817	536.133	77.396	536.133	75.0087	536.133	76.732	536.133	74.0798	536.133	75.9284	536.133	73.1865	536.133	74.996	536.133	72.4401	536.133	73.9795	536.133	71.9235	536.133	72.9736	536.133	71.6436	536.133	72.1157	536.133	71.5284	536.133	71.5253	536.133	71.4717	536.133	71.2351	536.133	71.3917	536.133	71.187	536.133	71.2754
555.176	80.199	555.176	80.0074	555.176	80.3064	555.176	79.7508	555.176	80.3182	555.176	79.4468	555.176	80.2357	555.176	79.1025	555.176	80.0701	555.176	78.7106	555.176	79.8362	555.176	78.2537	555.176	79.544	555.176	77.7091	555.176	79.1926	555.176	77.0537	555.176	78.7665	555.176	76.2667	555.176	78.2356	555.176	75.3337	555.176	77.5621	555.176	74.2589	555.176	76.7142	555.176	73.0869	555.176	75.6862	555.176	71.9255	555.176	74.5163	555.176	70.9388	555.176	73.2965	555.176	70.2776	555.176	72.1639	555.176	69.9887	555.176	71.2538	555.176	70.0026	555.176	70.6212	555.176	70.2223
574.219	80.2887	574.219	80.2155	574.219	80.3345	574.219	80.1	574.219	80.3528	574.219	79.9185	574.219	80.33	574.219	79.6486	574.219	80.244	574.219	79.2764	574.219	80.0725	574.219	78.7993	574.219	79.7989	574.219	78.2228	574.219	79.4166	574.219	77.5543	574.219	78.9272	574.219	76.7926	574.219	78.332	574.219	75.9242	574.219	77.6223	574.219	74.9351	574.219	76.7802	574.219	73.8444	574.219	75.8012	574.219	72.7439	574.219	74.7282	574.219	71.7971	574.219	73.6665	574.219	71.1515	574.219	72.7422	574.219	70.8449	574.219	72.0174	574.219	70.8349	574.219	71.467	574.219	71.0627
594.727	80.1217	594.727	80.0238	594.727	80.1648	594.727	79.8567	594.727	80.1694	594.727	79.6168	594.727	80.14	594.727	79.3081	594.727	80.0626	594.727	78.9306	594.727	79.9112	594.727	78.472	594.727	79.6605	594.727	77.9098	594.727	79.2964	594.727	77.2228	594.727	78.817	594.727	76.4029	594.727	78.2285	594.727	75.46	594.727	77.5364	594.727	74.4179	594.727	76.736	594.727	73.3103	594.727	75.8041	594.727	72.195	594.727	74.7069	594.727	71.1842	594.727	73.436	594.727	70.4367	594.727	72.0757	594.727	70.0374	594.727	70.8665	594.727	69.8856	594.727	70.1144	594.727	69.8679
615.234	80.7845	615.234	80.6369	615.234	80.8787	615.234	80.4466	615.234	80.9054	615.234	80.2141	615.234	80.8555	615.234	79.9295	615.234	80.7308	615.234	79.5759	615.234	80.5397	615.234	79.1319	615.234	80.2874	615.234	78.577	615.234	79.9637	615.234	77.9049	615.234	79.5397	615.234	77.1396	615.234	78.9773	615.234	76.3339	615.234	78.2478	615.234	75.5351	615.234	77.3521	615.234	74.7397	615.234	76.3305	615.234	73.8887	615.234	75.2565	615.234	72.9319	615.234	74.2085	615.234	71.9289	615.234	73.2307	615.234	71.0989	615.234	72.3239	615.234	70.7174	615.234	71.5054	615.234	70.8975
637.207	81.0435	637.207	80.9264	637.207	81.1183	637.207	80.7874	637.207	81.1327	637.207	80.6297	637.207	81.0837	637.207	80.4337	637.207	80.9777	637.207	80.1688	637.207	80.8159	637.207	79.8121	637.207	80.5888	637.207	79.3552	637.207	80.2852	637.207	78.796	637.207	79.9035	637.207	78.1225	637.207	79.4467	637.207	77.3087	637.207	78.904	637.207	76.3334	637.207	78.2402	637.207	75.215	637.207	77.4081	637.207	74.0401	637.207	76.384	637.207	72.9601	637.207	75.2098	637.207	72.1349	637.207	74.0153	637.207	71.6566	637.207	72.9738	637.207	71.5295	637.207	72.2005	637.207	71.7186
659.18	80.7188	659.18	80.6556	659.18	80.7283	659.18	80.5127	659.18	80.7101	659.18	80.2793	659.18	80.6755	659.18	79.9642	659.18	80.6169	659.18	79.5867	659.18	80.5129	659.18	79.1621	659.18	80.3368	659.18	78.6902	659.18	80.0624	659.18	78.1518	659.18	79.6686	659.18	77.5114	659.18	79.1439	659.18	76.7267	659.18	78.4902	659.18	75.7708	659.18	77.7192	659.18	74.6666	659.18	76.8395	659.18	73.5171	659.18	75.8461	659.18	72.4891	659.18	74.7308	659.18	71.7222	659.18	73.522	659.18	71.2338	659.18	72.3485	659.18	70.9776	659.18	71.4465	659.18	71.0007
682.617	81.1671	682.617	81.0217	682.617	81.2581	682.617	80.8287	682.617	81.2913	682.617	80.5979	682.617	81.2608	682.617	80.3323	682.617	81.1582	682.617	80.0219	682.617	80.9837	682.617	79.6459	682.617	80.7545	682.617	79.1807	682.617	80.4932	682.617	78.6104	682.617	80.1993	682.617	77.9358	682.617	79.8316	682.617	77.1759	682.617	79.3269	682.617	76.3493	682.617	78.6364	682.617	75.4458	682.617	77.7515	682.617	74.4326	682.617	76.7043	682.617	73.3165	682.617	75.5547	682.617	72.2192	682.617	74.3754	682.617	71.3925	682.617	73.237	682.617	71.1063	682.617	72.2134	682.617	71.4339
707.52	81.2773	707.52	81.1882	707.52	81.377	707.52	81.1043	707.52	81.4479	707.52	80.9821	707.52	81.4415	707.52	80.7806	707.52	81.3383	707.52	80.493	707.52	81.1556	707.52	80.1445	707.52	80.9259	707.52	79.7651	707.52	80.6737	707.52	79.3618	707.52	80.4056	707.52	78.9113	707.52	80.1064	707.52	78.3749	707.52	79.7361	707.52	77.7239	707.52	79.2393	707.52	76.9601	707.52	78.5779	707.52	76.1213	707.52	77.7691	707.52	75.2825	707.52	76.8893	707.52	74.558	707.52	76.0275	707.52	74.0751	707.52	75.2427	707.52	73.9223	707.52	74.5806	707.52	74.111
732.422	81.673	732.422	81.5684	732.422	81.7111	732.422	81.4157	732.422	81.6918	732.422	81.2404	732.422	81.6402	732.422	81.0439	732.422	81.5667	732.422	80.7961	732.422	81.453	732.422	80.4596	732.422	81.2705	732.422	80.0214	732.422	81.0092	732.422	79.501	732.422	80.686	732.422	78.9298	732.422	80.329	732.422	78.3209	732.422	79.9487	732.422	77.6573	732.422	79.5145	732.422	76.9191	732.422	78.9519	732.422	76.1272	732.422	78.1762	732.422	75.3521	732.422	77.1564	732.422	74.6855	732.422	75.9908	732.422	74.2027	732.422	74.9222	732.422	73.9355	732.422	74.2034	732.422	73.9066
757.324	81.8183	757.324	81.8041	757.324	81.8311	757.324	81.762	757.324	81.8628	757.324	81.6734	757.324	81.9074	757.324	81.5292	757.324	81.9302	757.324	81.3278	757.324	81.8886	757.324	81.0719	757.324	81.76	757.324	80.768	757.324	81.5536	757.324	80.4267	757.324	81.2983	757.324	80.0547	757.324	81.0148	757.324	79.635	757.324	80.6933	757.324	79.1171	757.324	80.2979	757.324	78.4522	757.324	79.7969	757.324	77.6585	757.324	79.1958	757.324	76.8365	757.324	78.5292	757.324	76.0986	757.324	77.8	757.324	75.5403	757.324	76.9758	757.324	75.2928	757.324	76.1252	757.324	75.4906
785.156	81.0411	785.156	80.9166	785.156	81.1512	785.156	80.802	785.156	81.206	785.156	80.6841	785.156	81.1804	785.156	80.5291	785.156	81.08	785.156	80.3203	785.156	80.934	785.156	80.0677	785.156	80.7695	785.156	79.7863	785.156	80.5902	785.156	79.4736	785.156	80.3794	785.156	79.1146	785.156	80.122	785.156	78.7154	785.156	79.8209	785.156	78.3224	785.156	79.5003	785.156	77.9932	785.156	79.1973	785.156	77.7338	785.156	78.922	785.156	77.4797	785.156	78.616	785.156	77.1721	785.156	78.1953	785.156	76.8578	785.156	77.6645	785.156	76.6919	785.156	77.1507	785.156	76.7956
811.523	80.6989	811.523	80.6255	811.523	80.8267	811.523	80.5864	811.523	80.9692	811.523	80.5136	811.523	81.0648	811.523	80.3433	811.523	81.0759	811.523	80.061	811.523	81.0011	811.523	79.7037	811.523	80.8515	811.523	79.3221	811.523	80.6296	811.523	78.9417	811.523	80.3391	811.523	78.5579	811.523	80.0078	811.523	78.1569	811.523	79.6787	811.523	77.7319	811.523	79.3609	811.523	77.2893	811.523	78.9979	811.523	76.8462	811.523	78.5115	811.523	76.4395	811.523	77.8943	811.523	76.1507	811.523	77.2517	811.523	76.0532	811.523	76.736	811.523	76.1094	811.523	76.4158	811.523	76.2325
840.82	81.712	840.82	81.776	840.82	81.6424	840.82	81.749	840.82	81.6354	840.82	81.5773	840.82	81.6975	840.82	81.2626	840.82	81.7737	840.82	80.854	840.82	81.7948	840.82	80.4198	840.82	81.7324	840.82	80.0185	840.82	81.6053	840.82	79.6687	840.82	81.4352	840.82	79.3291	840.82	81.2107	840.82	78.9281	840.82	80.9058	840.82	78.4389	840.82	80.5249	840.82	77.9242	840.82	80.1063	840.82	77.4881	840.82	79.661	840.82	77.1861	840.82	79.1309	840.82	76.9937	840.82	78.4732	840.82	76.863	840.82	77.7723	840.82	76.7967	840.82	77.1985	840.82	76.8748
870.117	82.6237	870.117	82.5368	870.117	82.6615	870.117	82.4278	870.117	82.6372	870.117	82.3116	870.117	82.5566	870.117	82.1695	870.117	82.4425	870.117	81.9622	870.117	82.3271	870.117	81.6603	870.117	82.2232	870.117	81.2649	870.117	82.0982	870.117	80.8173	870.117	81.9004	870.117	80.3973	870.117	81.618	870.117	80.0782	870.117	81.299	870.117	79.8465	870.117	81.0046	870.117	79.5967	870.117	80.7469	870.117	79.2421	870.117	80.4848	870.117	78.8017	870.117	80.1817	870.117	78.3869	870.117	79.8345	870.117	78.153	870.117	79.4429	870.117	78.2161	870.117	79.0006	870.117	78.5485
900.879	82.9144	900.879	83.0677	900.879	82.774	900.879	83.1451	900.879	82.7294	900.879	83.0877	900.879	82.7994	900.879	82.8784	900.879	82.9109	900.879	82.5412	900.879	82.9485	900.879	82.1361	900.879	82.8359	900.879	81.7544	900.879	82.5744	900.879	81.4691	900.879	82.2306	900.879	81.263	900.879	81.8995	900.879	81.061	900.879	81.6602	900.879	80.8338	900.879	81.5354	900.879	80.6189	900.879	81.4813	900.879	80.4607	900.879	81.4096	900.879	80.3746	900.879	81.2424	900.879	80.3562	900.879	80.9773	900.879	80.3714	900.879	80.6926	900.879	80.3757	900.879	80.4822	900.879	80.3887
933.105	81.9519	933.105	82.1099	933.105	81.8623	933.105	82.273	933.105	81.8586	933.105	82.3832	933.105	81.9126	933.105	82.4016	933.105	81.9887	933.105	82.2804	933.105	82.0477	933.105	81.9743	933.105	82.0357	933.105	81.5097	933.105	81.9047	933.105	81.0455	933.105	81.6437	933.105	80.8191	933.105	81.3158	933.105	80.9243	933.105	81.0749	933.105	81.186	933.105	81.0611	933.105	81.377	933.105	81.249	933.105	81.4328	933.105	81.4975	933.105	81.408	933.105	81.7029	933.105	81.3569	933.105	81.8122	933.105	81.3084	933.105	81.7789	933.105	81.3105	933.105	81.6123	933.105	81.4184
965.332	81.3321	965.332	81.627	965.332	81.213	965.332	82.0133	965.332	81.283	965.332	82.3406	965.332	81.499	965.332	82.472	965.332	81.778	965.332	82.3704	965.332	82.0306	965.332	82.0916	965.332	82.1775	965.332	81.7115	965.332	82.1503	965.332	81.2873	965.332	81.9216	965.332	80.8808	965.332	81.5312	965.332	80.5901	965.332	81.0766	965.332	80.5099	965.332	80.6909	965.332	80.6326	965.332	80.4955	965.332	80.8356	965.332	80.5237	965.332	80.9942	965.332	80.7085	965.332	81.076	965.332	80.964	965.332	81.1491	965.332	81.2243	965.332	81.2802	965.332	81.3996	965.332	81.4072
1,000.49	80.5314	1,000.49	80.8478	1,000.49	80.2847	1,000.49	81.1583	1,000.49	80.2743	1,000.49	81.5094	1,000.49	80.5366	1,000.49	81.863	1,000.49	80.9198	1,000.49	82.029	1,000.49	81.2551	1,000.49	81.8516	1,000.49	81.4819	1,000.49	81.3369	1,000.49	81.5873	1,000.49	80.6309	1,000.49	81.5055	1,000.49	79.9846	1,000.49	81.1845	1,000.49	79.6757	1,000.49	80.7353	1,000.49	79.7978	1,000.49	80.4074	1,000.49	80.2013	1,000.49	80.3757	1,000.49	80.6991	1,000.49	80.61	1,000.49	81.1943	1,000.49	80.9687	1,000.49	81.6333	1,000.49	81.3337	1,000.49	81.9441	1,000.49	81.6474	1,000.49	82.0747	1,000.49	81.8882	1,000.49	82.0407
1,035.64	79.1988	1,035.64	79.557	1,035.64	79.103	1,035.64	80.193	1,035.64	79.1916	1,035.64	80.9592	1,035.64	79.4576	1,035.64	81.6386	1,035.64	79.9154	1,035.64	82.0616	1,035.64	80.4752	1,035.64	82.1371	1,035.64	80.9533	1,035.64	81.8349	1,035.64	81.1955	1,035.64	81.1613	1,035.64	81.1463	1,035.64	80.1932	1,035.64	80.8004	1,035.64	79.1966	1,035.64	80.1498	1,035.64	78.6691	1,035.64	79.2754	1,035.64	78.9288	1,035.64	78.5322	1,035.64	79.707	1,035.64	78.4723	1,035.64	80.5712	1,035.64	79.1736	1,035.64	81.2564	1,035.64	80.148	1,035.64	81.6485	1,035.64	80.9792	1,035.64	81.7737	1,035.64	81.4927	1,035.64	81.722
1,072.27	77.5791	1,072.27	78.2014	1,072.27	77.5047	1,072.27	79.1931	1,072.27	77.9356	1,072.27	80.2436	1,072.27	78.6596	1,072.27	81.0807	1,072.27	79.4515	1,072.27	81.5927	1,072.27	80.184	1,072.27	81.7839	1,072.27	80.7956	1,072.27	81.6629	1,072.27	81.2224	1,072.27	81.2141	1,072.27	81.391	1,072.27	80.4393	1,072.27	81.2133	1,072.27	79.4531	1,072.27	80.5981	1,072.27	78.5969	1,072.27	79.5682	1,072.27	78.3586	1,072.27	78.4379	1,072.27	78.8521	1,072.27	77.8316	1,072.27	79.636	1,072.27	78.0866	1,072.27	80.3213	1,072.27	78.8285	1,072.27	80.8207	1,072.27	79.6818	1,072.27	81.0961	1,072.27	80.4799	1,072.27	81.0042
1,108.89	78.5124	1,108.89	78.7589	1,108.89	78.414	1,108.89	79.1402	1,108.89	78.4478	1,108.89	79.7064	1,108.89	78.5907	1,108.89	80.454	1,108.89	78.9293	1,108.89	81.1818	1,108.89	79.5286	1,108.89	81.6311	1,108.89	80.2433	1,108.89	81.6547	1,108.89	80.8523	1,108.89	81.2268	1,108.89	81.214	1,108.89	80.3803	1,108.89	81.2348	1,108.89	79.1771	1,108.89	80.8127	1,108.89	77.8087	1,108.89	79.865	1,108.89	76.7624	1,108.89	78.468	1,108.89	76.5859	1,108.89	77.0995	1,108.89	77.2534	1,108.89	76.5137	1,108.89	78.2891	1,108.89	76.7647	1,108.89	79.2336	1,108.89	77.4512	1,108.89	79.661	1,108.89	78.4141	1,108.89	79.3226
1,148.44	79.3744	1,148.44	79.5005	1,148.44	79.3208	1,148.44	79.7798	1,148.44	79.3071	1,148.44	80.2762	1,148.44	79.3831	1,148.44	80.9544	1,148.44	79.6534	1,148.44	81.6152	1,148.44	80.1392	1,148.44	82.0417	1,148.44	80.7018	1,148.44	82.1692	1,148.44	81.177	1,148.44	82.0061	1,148.44	81.5193	1,148.44	81.5044	1,148.44	81.7131	1,148.44	80.6104	1,148.44	81.643	1,148.44	79.3481	1,148.44	81.1579	1,148.44	77.8986	1,148.44	80.1558	1,148.44	76.9089	1,148.44	78.6448	1,148.44	77.0998	1,148.44	77.0217	1,148.44	77.9802	1,148.44	76.3348	1,148.44	78.642	1,148.44	77.0143	1,148.44	78.849	1,148.44	78.0587	1,148.44	78.6859
1,189.45	80.0362	1,189.45	79.8422	1,189.45	80.2486	1,189.45	79.8865	1,189.45	80.285	1,189.45	80.1721	1,189.45	80.2088	1,189.45	80.6518	1,189.45	80.2227	1,189.45	81.3369	1,189.45	80.4392	1,189.45	82.0567	1,189.45	80.8908	1,189.45	82.4515	1,189.45	81.532	1,189.45	82.2902	1,189.45	82.1407	1,189.45	81.6899	1,189.45	82.4581	1,189.45	80.9806	1,189.45	82.3732	1,189.45	80.2521	1,189.45	81.8877	1,189.45	79.305	1,189.45	81.0819	1,189.45	78.2762	1,189.45	80.1771	1,189.45	77.9075	1,189.45	79.4231	1,189.45	78.4307	1,189.45	78.9434	1,189.45	79.0365	1,189.45	78.8011	1,189.45	79.2037	1,189.45	78.9077	1,189.45	79.0813
1,230.47	80.545	1,230.47	80.4524	1,230.47	80.6172	1,230.47	80.3792	1,230.47	80.6365	1,230.47	80.5479	1,230.47	80.5855	1,230.47	81.1307	1,230.47	80.6812	1,230.47	81.9223	1,230.47	81.1257	1,230.47	82.6027	1,230.47	81.7005	1,230.47	83.0762	1,230.47	82.1315	1,230.47	83.3714	1,230.47	82.5113	1,230.47	83.363	1,230.47	82.9291	1,230.47	82.8325	1,230.47	83.1264	1,230.47	81.7938	1,230.47	82.8513	1,230.47	80.4903	1,230.47	82.1595	1,230.47	79.291	1,230.47	81.2062	1,230.47	78.6197	1,230.47	80.0104	1,230.47	78.6397	1,230.47	78.7816	1,230.47	79.1072	1,230.47	78.307	1,230.47	79.4921	1,230.47	78.8352	1,230.47	79.4226
1,274.41	80.6554	1,274.41	80.4885	1,274.41	80.8483	1,274.41	80.3603	1,274.41	80.8808	1,274.41	80.3217	1,274.41	80.5445	1,274.41	80.5934	1,274.41	80.0503	1,274.41	81.3226	1,274.41	80.0019	1,274.41	82.2927	1,274.41	80.6148	1,274.41	83.1728	1,274.41	81.5536	1,274.41	83.7721	1,274.41	82.5223	1,274.41	83.9014	1,274.41	83.2582	1,274.41	83.367	1,274.41	83.4946	1,274.41	82.2022	1,274.41	83.1905	1,274.41	80.7072	1,274.41	82.4607	1,274.41	79.3246	1,274.41	81.3865	1,274.41	78.5783	1,274.41	80.1616	1,274.41	78.7944	1,274.41	79.0899	1,274.41	79.5731	1,274.41	78.5499	1,274.41	79.997	1,274.41	78.8832	1,274.41	79.6436
1,319.82	80.9304	1,319.82	80.6776	1,319.82	81.0713	1,319.82	80.4238	1,319.82	81.1506	1,319.82	80.3352	1,319.82	81.0021	1,319.82	80.3774	1,319.82	80.4574	1,319.82	80.6286	1,319.82	79.972	1,319.82	81.2774	1,319.82	80.1481	1,319.82	82.1186	1,319.82	80.7754	1,319.82	82.8266	1,319.82	81.479	1,319.82	83.3799	1,319.82	82.3244	1,319.82	83.634	1,319.82	83.2183	1,319.82	83.2568	1,319.82	83.6448	1,319.82	82.237	1,319.82	83.3227	1,319.82	80.6926	1,319.82	82.4725	1,319.82	78.9675	1,319.82	81.3182	1,319.82	78.1246	1,319.82	79.8646	1,319.82	78.5662	1,319.82	78.5189	1,319.82	79.0934	1,319.82	78.2304	1,319.82	78.8284
1,366.7	80.5015	1,366.7	80.12	1,366.7	80.7781	1,366.7	79.9976	1,366.7	80.9025	1,366.7	80.1709	1,366.7	80.8592	1,366.7	80.1984	1,366.7	80.5027	1,366.7	80.3046	1,366.7	80.0667	1,366.7	81.0509	1,366.7	80.126	1,366.7	81.9169	1,366.7	80.6103	1,366.7	82.4074	1,366.7	81.0016	1,366.7	82.9154	1,366.7	81.5337	1,366.7	83.4314	1,366.7	82.4598	1,366.7	83.3243	1,366.7	83.1782	1,366.7	82.3572	1,366.7	83.2934	1,366.7	80.8781	1,366.7	82.9547	1,366.7	79.6944	1,366.7	82.2181	1,366.7	79.2132	1,366.7	81.0117	1,366.7	79.2178	1,366.7	79.564	1,366.7	79.3617	1,366.7	78.7738	1,366.7	79.069
1,413.57	81.6462	1,413.57	81.5376	1,413.57	81.8133	1,413.57	81.1409	1,413.57	81.8629	1,413.57	80.4616	1,413.57	81.6225	1,413.57	80.2712	1,413.57	81.4278	1,413.57	80.8952	1,413.57	81.5276	1,413.57	81.6937	1,413.57	81.7169	1,413.57	82.1444	1,413.57	81.8597	1,413.57	82.3255	1,413.57	81.9815	1,413.57	82.5654	1,413.57	82.0889	1,413.57	82.9001	1,413.57	82.3985	1,413.57	82.9164	1,413.57	82.9487	1,413.57	82.4123	1,413.57	83.2876	1,413.57	81.3287	1,413.57	83.0917	1,413.57	79.6852	1,413.57	82.5227	1,413.57	78.5583	1,413.57	81.2028	1,413.57	78.9247	1,413.57	79.3355	1,413.57	79.5596	1,413.57	78.5698	1,413.57	79.2179
1,463.38	83.2729	1,463.38	83.2947	1,463.38	83.1611	1,463.38	82.8826	1,463.38	83.1731	1,463.38	82.0449	1,463.38	83.2392	1,463.38	81.4807	1,463.38	83.0284	1,463.38	81.5903	1,463.38	82.5842	1,463.38	81.8321	1,463.38	82.477	1,463.38	81.9768	1,463.38	82.7325	1,463.38	82.2084	1,463.38	82.8783	1,463.38	82.7005	1,463.38	82.9052	1,463.38	83.1804	1,463.38	82.9561	1,463.38	83.0912	1,463.38	83.0342	1,463.38	82.4911	1,463.38	83.0693	1,463.38	81.6136	1,463.38	83.1125	1,463.38	80.4652	1,463.38	82.9613	1,463.38	79.6184	1,463.38	81.7819	1,463.38	79.3667	1,463.38	79.9513	1,463.38	79.449	1,463.38	79.3203	1,463.38	79.5623
1,516.11	84.3535	1,516.11	84.3436	1,516.11	84.4747	1,516.11	84.2438	1,516.11	84.7018	1,516.11	83.9401	1,516.11	84.827	1,516.11	83.356	1,516.11	84.7475	1,516.11	82.7462	1,516.11	84.397	1,516.11	82.6442	1,516.11	83.8704	1,516.11	82.8856	1,516.11	83.6577	1,516.11	82.9433	1,516.11	83.7431	1,516.11	83.0248	1,516.11	83.5067	1,516.11	83.3297	1,516.11	83.1608	1,516.11	83.5345	1,516.11	83.2705	1,516.11	83.3887	1,516.11	83.3273	1,516.11	82.7798	1,516.11	83.2807	1,516.11	81.6277	1,516.11	83.4075	1,516.11	80.0076	1,516.11	82.8378	1,516.11	78.9364	1,516.11	81.1105	1,516.11	79.3123	1,516.11	79.4958	1,516.11	79.4537
1,568.85	85.0833	1,568.85	84.8098	1,568.85	85.2018	1,568.85	84.7996	1,568.85	84.9426	1,568.85	84.6819	1,568.85	84.4904	1,568.85	84.0063	1,568.85	84.3977	1,568.85	83.5627	1,568.85	84.5017	1,568.85	83.6508	1,568.85	84.0236	1,568.85	83.3612	1,568.85	83.3947	1,568.85	83.0105	1,568.85	83.2052	1,568.85	83.2057	1,568.85	82.7221	1,568.85	83.187	1,568.85	82.0532	1,568.85	83.0676	1,568.85	81.9949	1,568.85	83.4213	1,568.85	82.0243	1,568.85	83.1434	1,568.85	82.1526	1,568.85	81.8228	1,568.85	82.6736	1,568.85	80.4858	1,568.85	82.1218	1,568.85	80.0348	1,568.85	80.171	1,568.85	80.1214	1,568.85	79.207	1,568.85	79.7934
1,624.51	84.4583	1,624.51	84.4339	1,624.51	84.3202	1,624.51	84.4317	1,624.51	84.1008	1,624.51	84.1509	1,624.51	84.09	1,624.51	83.7644	1,624.51	84.1027	1,624.51	83.9047	1,624.51	83.7434	1,624.51	84.1486	1,624.51	82.9793	1,624.51	83.9086	1,624.51	82.3485	1,624.51	83.6788	1,624.51	81.9878	1,624.51	83.4131	1,624.51	81.2601	1,624.51	82.8144	1,624.51	80.3289	1,624.51	82.5422	1,624.51	80.1614	1,624.51	82.3073	1,624.51	80.6555	1,624.51	81.259	1,624.51	80.9849	1,624.51	79.9677	1,624.51	80.4567	1,624.51	78.2322	1,624.51	78.8982	1,624.51	77.0846	1,624.51	76.6115	1,624.51	77.4968	1,624.51	74.4475	1,624.51	76.1939
1,681.64	82.4985	1,681.64	82.4922	1,681.64	82.5177	1,681.64	82.2891	1,681.64	82.44	1,681.64	82.5723	1,681.64	82.0938	1,681.64	83.0538	1,681.64	82.4865	1,681.64	83.2476	1,681.64	82.6783	1,681.64	83.2748	1,681.64	81.891	1,681.64	83.031	1,681.64	81.2788	1,681.64	82.4062	1,681.64	81.1585	1,681.64	81.707	1,681.64	80.3847	1,681.64	81.6237	1,681.64	79.5537	1,681.64	81.7893	1,681.64	79.2567	1,681.64	81.2972	1,681.64	78.6833	1,681.64	80.8913	1,681.64	78.9357	1,681.64	80.1998	1,681.64	79.3154	1,681.64	78.3046	1,681.64	77.7711	1,681.64	77.3521	1,681.64	76.5001	1,681.64	75.6562	1,681.64	75.9856	1,681.64	74.2875
1,741.7	82.465	1,741.7	82.5876	1,741.7	82.0678	1,741.7	82.9439	1,741.7	81.9047	1,741.7	82.966	1,741.7	82.3691	1,741.7	83.1165	1,741.7	82.159	1,741.7	83.713	1,741.7	81.2904	1,741.7	83.6211	1,741.7	80.754	1,741.7	83.1397	1,741.7	81.0186	1,741.7	82.9867	1,741.7	81.5016	1,741.7	82.3061	1,741.7	80.5365	1,741.7	81.2281	1,741.7	79.34	1,741.7	80.7933	1,741.7	77.442	1,741.7	80.2665	1,741.7	75.7922	1,741.7	79.3715	1,741.7	76.9627	1,741.7	78.6525	1,741.7	77.5276	1,741.7	77.9763	1,741.7	76.2822	1,741.7	76.9695	1,741.7	75.5457	1,741.7	76.4625	1,741.7	74.2902	1,741.7	75.2468
1,803.22	82.652	1,803.22	82.6149	1,803.22	82.2381	1,803.22	82.002	1,803.22	81.2125	1,803.22	82.2452	1,803.22	80.412	1,803.22	83.2733	1,803.22	80.9944	1,803.22	83.6153	1,803.22	81.1219	1,803.22	83.4922	1,803.22	80.6173	1,803.22	83.504	1,803.22	80.7048	1,803.22	83.6271	1,803.22	81.0902	1,803.22	82.4892	1,803.22	81.3249	1,803.22	80.4248	1,803.22	81.3332	1,803.22	80.1048	1,803.22	80.4196	1,803.22	80.0328	1,803.22	79.4303	1,803.22	79.0367	1,803.22	79.1264	1,803.22	77.7225	1,803.22	78.634	1,803.22	76.5809	1,803.22	77.8301	1,803.22	77.1068	1,803.22	76.9906	1,803.22	76.6999	1,803.22	75.376	1,803.22	74.5377
1,866.21	79.541	1,866.21	79.9931	1,866.21	80.1602	1,866.21	80.4163	1,866.21	80.0134	1,866.21	80.4173	1,866.21	78.7117	1,866.21	81.1299	1,866.21	78.6386	1,866.21	82.2371	1,866.21	79.5452	1,866.21	82.8071	1,866.21	80.3756	1,866.21	83.2393	1,866.21	81.7475	1,866.21	82.9447	1,866.21	82.3609	1,866.21	81.0759	1,866.21	82.1601	1,866.21	78.8162	1,866.21	82.3804	1,866.21	78.7675	1,866.21	81.4091	1,866.21	79.3937	1,866.21	81.0987	1,866.21	79.1537	1,866.21	81.6918	1,866.21	77.5559	1,866.21	81.5736	1,866.21	74.7841	1,866.21	80.4864	1,866.21	74.5551	1,866.21	78.8262	1,866.21	73.8762	1,866.21	77.9781	1,866.21	75.659
1,932.13	78.0236	1,932.13	78.1384	1,932.13	78.1069	1,932.13	78.1894	1,932.13	78.4266	1,932.13	77.7165	1,932.13	78.5802	1,932.13	77.0858	1,932.13	78.8336	1,932.13	78.6165	1,932.13	78.5077	1,932.13	80.3535	1,932.13	78.3731	1,932.13	81.1526	1,932.13	79.8567	1,932.13	81.3038	1,932.13	80.6184	1,932.13	80.2433	1,932.13	81.3683	1,932.13	77.7849	1,932.13	82.2074	1,932.13	78.191	1,932.13	81.0983	1,932.13	80.4104	1,932.13	80.7114	1,932.13	80.2481	1,932.13	80.4272	1,932.13	78.7962	1,932.13	80.6712	1,932.13	78.0064	1,932.13	81.9188	1,932.13	76.6851	1,932.13	81.0096	1,932.13	75.7069	1,932.13	79.2523	1,932.13	77.7824
1,999.51	77.8945	1,999.51	78.3974	1,999.51	77.9809	1,999.51	79.4136	1,999.51	77.0811	1,999.51	78.1967	1,999.51	78.2323	1,999.51	76.716	1,999.51	79.5851	1,999.51	77.0084	1,999.51	80.0722	1,999.51	78.2912	1,999.51	80.5887	1,999.51	79.3041	1,999.51	80.6832	1,999.51	79.7691	1,999.51	80.3822	1,999.51	79.4143	1,999.51	81.8614	1,999.51	78.8704	1,999.51	82.3635	1,999.51	79.8817	1,999.51	81.6996	1,999.51	79.7778	1,999.51	81.3527	1,999.51	79.9404	1,999.51	80.0362	1,999.51	79.8707	1,999.51	80.2583	1,999.51	78.0884	1,999.51	82.0869	1,999.51	77.7371	1,999.51	81.6425	1,999.51	79.2302	1,999.51	78.0456	1,999.51	77.9131
2,069.82	79.5543	2,069.82	80.687	2,069.82	79.1285	2,069.82	80.7417	2,069.82	79.4522	2,069.82	80.1342	2,069.82	79.8173	2,069.82	80.5456	2,069.82	80.8935	2,069.82	81.0486	2,069.82	81.9345	2,069.82	80.7788	2,069.82	82.0375	2,069.82	81.5626	2,069.82	81.4046	2,069.82	82.8935	2,069.82	81.7144	2,069.82	81.8996	2,069.82	83.6055	2,069.82	81.6652	2,069.82	83.658	2,069.82	81.3545	2,069.82	83.0585	2,069.82	80.1833	2,069.82	82.0233	2,069.82	81.2149	2,069.82	80.9497	2,069.82	81.7125	2,069.82	81.7904	2,069.82	79.9193	2,069.82	82.5811	2,069.82	78.4696	2,069.82	81.8848	2,069.82	77.6132	2,069.82	81.242	2,069.82	78.4697
2,143.07	80.7623	2,143.07	81.5497	2,143.07	78.3942	2,143.07	81.817	2,143.07	79.5601	2,143.07	82.4976	2,143.07	81.5429	2,143.07	81.9547	2,143.07	81.5166	2,143.07	80.0566	2,143.07	81.3499	2,143.07	80.3558	2,143.07	81.8067	2,143.07	82.3797	2,143.07	82.1045	2,143.07	84.0429	2,143.07	82.1729	2,143.07	84.276	2,143.07	83.5952	2,143.07	83.3892	2,143.07	84.4152	2,143.07	81.3426	2,143.07	84.8358	2,143.07	81.3134	2,143.07	83.7809	2,143.07	82.2823	2,143.07	81.9477	2,143.07	82.2215	2,143.07	81.9326	2,143.07	80.039	2,143.07	82.0488	2,143.07	78.4753	2,143.07	81.1964	2,143.07	79.6933	2,143.07	78.7768	2,143.07	79.1219
2,219.24	77.586	2,219.24	78.0828	2,219.24	76.8853	2,219.24	80.6158	2,219.24	77.9411	2,219.24	81.3563	2,219.24	78.9051	2,219.24	80.1721	2,219.24	77.7508	2,219.24	80.7651	2,219.24	79.1183	2,219.24	81.2164	2,219.24	80.9997	2,219.24	81.3861	2,219.24	79.6451	2,219.24	83.6205	2,219.24	80.1965	2,219.24	84.381	2,219.24	82.5108	2,219.24	83.9707	2,219.24	83.6754	2,219.24	81.3381	2,219.24	83.6195	2,219.24	81.03	2,219.24	82.7639	2,219.24	81.2516	2,219.24	82.0881	2,219.24	79.3901	2,219.24	80.933	2,219.24	79.0787	2,219.24	80.0794	2,219.24	79.6098	2,219.24	80.0067	2,219.24	76.7783	2,219.24	80.1306	2,219.24	77.2334
2,296.88	78.5299	2,296.88	77.9966	2,296.88	78.8198	2,296.88	77.3113	2,296.88	78.9089	2,296.88	79.7858	2,296.88	78.8257	2,296.88	82.1695	2,296.88	80.6067	2,296.88	82.3064	2,296.88	81.3276	2,296.88	79.9213	2,296.88	80.5954	2,296.88	80.7179	2,296.88	80.7439	2,296.88	81.6423	2,296.88	81.8668	2,296.88	81.6409	2,296.88	82.3081	2,296.88	82.421	2,296.88	83.1843	2,296.88	82.1801	2,296.88	83.4391	2,296.88	80.9526	2,296.88	83.0825	2,296.88	81.0205	2,296.88	82.048	2,296.88	81.2912	2,296.88	82.39	2,296.88	79.2471	2,296.88	82.1871	2,296.88	78.4792	2,296.88	81.3921	2,296.88	78.2984	2,296.88	80.5531	2,296.88	78.8823
2,378.91	77.4811	2,378.91	78.5064	2,378.91	75.8883	2,378.91	79.096	2,378.91	77.4145	2,378.91	80.186	2,378.91	78.4391	2,378.91	79.8085	2,378.91	79.5198	2,378.91	80.014	2,378.91	80.5026	2,378.91	80.4706	2,378.91	81.5653	2,378.91	82.0328	2,378.91	81.5801	2,378.91	83.4808	2,378.91	81.9215	2,378.91	83.9316	2,378.91	83.2431	2,378.91	84.2989	2,378.91	84.6255	2,378.91	82.7695	2,378.91	84.8603	2,378.91	82.6429	2,378.91	83.9371	2,378.91	82.831	2,378.91	82.6072	2,378.91	82.3141	2,378.91	82.1989	2,378.91	80.6654	2,378.91	82.1698	2,378.91	78.6575	2,378.91	81.1352	2,378.91	79.7207	2,378.91	79.0552	2,378.91	79.8744
2,462.4	76.1756	2,462.4	76.7418	2,462.4	76.596	2,462.4	77.8552	2,462.4	76.9099	2,462.4	78.9399	2,462.4	76.9361	2,462.4	80.2715	2,462.4	78.0641	2,462.4	80.5364	2,462.4	79.4438	2,462.4	80.0929	2,462.4	80.5992	2,462.4	80.4484	2,462.4	80.3577	2,462.4	81.8923	2,462.4	79.7168	2,462.4	83.0907	2,462.4	80.0391	2,462.4	82.9898	2,462.4	82.2108	2,462.4	81.7033	2,462.4	83.5109	2,462.4	81.1199	2,462.4	83.1482	2,462.4	81.888	2,462.4	82.2721	2,462.4	81.9614	2,462.4	81.9044	2,462.4	81.1331	2,462.4	82.0816	2,462.4	79.9245	2,462.4	81.433	2,462.4	76.54	2,462.4	80.5796	2,462.4	77.1496
2,548.83	77.6912	2,548.83	77.3965	2,548.83	78.5128	2,548.83	78.361	2,548.83	78.1709	2,548.83	79.3094	2,548.83	77.9029	2,548.83	80.6094	2,548.83	77.8212	2,548.83	80.5427	2,548.83	78.9719	2,548.83	79.9321	2,548.83	80.3897	2,548.83	79.3605	2,548.83	80.9116	2,548.83	80.5668	2,548.83	80.0128	2,548.83	81.2931	2,548.83	79.7662	2,548.83	82.0061	2,548.83	81.6115	2,548.83	81.2262	2,548.83	82.7801	2,548.83	80.2859	2,548.83	81.818	2,548.83	80.4334	2,548.83	80.0726	2,548.83	80.4578	2,548.83	80.8307	2,548.83	78.2219	2,548.83	82.0371	2,548.83	73.8933	2,548.83	80.7802	2,548.83	77.0358	2,548.83	76.857	2,548.83	77.1673
2,639.65	78.5739	2,639.65	78.3368	2,639.65	78.7413	2,639.65	78.2775	2,639.65	79.0714	2,639.65	79.276	2,639.65	79.1025	2,639.65	80.7004	2,639.65	78.6075	2,639.65	81.4987	2,639.65	79.596	2,639.65	81.0549	2,639.65	80.9622	2,639.65	80.1577	2,639.65	81.352	2,639.65	79.6504	2,639.65	80.4414	2,639.65	80.997	2,639.65	79.967	2,639.65	81.5275	2,639.65	81.6488	2,639.65	80.3904	2,639.65	82.3858	2,639.65	80.4288	2,639.65	81.9891	2,639.65	81.8747	2,639.65	80.6604	2,639.65	81.0461	2,639.65	81.2129	2,639.65	78.3575	2,639.65	81.7315	2,639.65	76.8937	2,639.65	80.6068	2,639.65	77.431	2,639.65	77.5618	2,639.65	76.6535
2,731.93	77.0467	2,731.93	76.7962	2,731.93	77.428	2,731.93	77.084	2,731.93	77.7539	2,731.93	78.2072	2,731.93	78.576	2,731.93	80.0204	2,731.93	78.1825	2,731.93	80.5211	2,731.93	79.4146	2,731.93	80.9284	2,731.93	81.2018	2,731.93	80.9791	2,731.93	82.106	2,731.93	80.1412	2,731.93	81.5362	2,731.93	80.8001	2,731.93	80.5822	2,731.93	80.4001	2,731.93	80.6442	2,731.93	78.6094	2,731.93	80.7534	2,731.93	77.8041	2,731.93	80.1572	2,731.93	79.6479	2,731.93	79.1561	2,731.93	79.7413	2,731.93	79.8002	2,731.93	77.5528	2,731.93	80.8345	2,731.93	73.4036	2,731.93	80.0281	2,731.93	72.6878	2,731.93	77.2257	2,731.93	74.0589
2,828.61	75.9094	2,828.61	76.422	2,828.61	74.9979	2,828.61	75.8946	2,828.61	76.5781	2,828.61	77.0585	2,828.61	76.9131	2,828.61	78.4275	2,828.61	77.3278	2,828.61	79.9906	2,828.61	78.7781	2,828.61	80.9477	2,828.61	80.8406	2,828.61	80.382	2,828.61	81.6414	2,828.61	79.88	2,828.61	82.0647	2,828.61	80.8002	2,828.61	81.2652	2,828.61	79.6834	2,828.61	80.575	2,828.61	76.9601	2,828.61	80.1699	2,828.61	77.2944	2,828.61	80.1646	2,828.61	79.7952	2,828.61	79.3572	2,828.61	79.2948	2,828.61	78.8197	2,828.61	75.2812	2,828.61	79.4456	2,828.61	74.6154	2,828.61	78.5823	2,828.61	74.0622	2,828.61	75.9961	2,828.61	72.1758
2,928.22	77.2984	2,928.22	77.6009	2,928.22	76.8212	2,928.22	77.1035	2,928.22	76.4714	2,928.22	77.3658	2,928.22	75.506	2,928.22	77.6784	2,928.22	76.0633	2,928.22	78.923	2,928.22	77.1602	2,928.22	80.3035	2,928.22	79.198	2,928.22	79.8157	2,928.22	80.3992	2,928.22	79.8616	2,928.22	81.495	2,928.22	80.3911	2,928.22	81.0374	2,928.22	79.6793	2,928.22	80.4288	2,928.22	77.522	2,928.22	79.8793	2,928.22	75.3355	2,928.22	78.4646	2,928.22	76.4823	2,928.22	76.9938	2,928.22	76.6072	2,928.22	75.6003	2,928.22	75.8217	2,928.22	78.0654	2,928.22	71.0736	2,928.22	77.5303	2,928.22	58.2863	2,928.22	74.4927	2,928.22	65.0517
3,030.76	77.1942	3,030.76	77.3532	3,030.76	76.6483	3,030.76	76.7609	3,030.76	76.4692	3,030.76	76.027	3,030.76	75.3563	3,030.76	76.0683	3,030.76	75.4321	3,030.76	77.456	3,030.76	75.2241	3,030.76	78.495	3,030.76	76.3517	3,030.76	77.8828	3,030.76	78.0994	3,030.76	78.0962	3,030.76	79.4832	3,030.76	78.311	3,030.76	79.5945	3,030.76	78.1994	3,030.76	78.8925	3,030.76	76.7319	3,030.76	78.106	3,030.76	74.2683	3,030.76	78.515	3,030.76	73.695	3,030.76	76.4896	3,030.76	73.1308	3,030.76	73.338	3,030.76	68.0573	3,030.76	74.522	3,030.76	55.4859	3,030.76	73.605	3,030.76	63.6558	3,030.76	69.1878	3,030.76	66.5382
3,137.7	76.1903	3,137.7	76.1573	3,137.7	76.1339	3,137.7	75.7011	3,137.7	75.8652	3,137.7	75.3238	3,137.7	75.5103	3,137.7	75.3426	3,137.7	75.509	3,137.7	76.0392	3,137.7	75.0752	3,137.7	76.706	3,137.7	75.0369	3,137.7	75.8567	3,137.7	75.7243	3,137.7	76.085	3,137.7	76.6286	3,137.7	76.7879	3,137.7	76.8378	3,137.7	76.5277	3,137.7	76.3749	3,137.7	74.6487	3,137.7	76.2395	3,137.7	71.4699	3,137.7	76.6648	3,137.7	70.9379	3,137.7	73.5215	3,137.7	71.7862	3,137.7	71.4653	3,137.7	70.5225	3,137.7	73.0155	3,137.7	65.9709	3,137.7	71.9784	3,137.7	65.6256	3,137.7	67.7252	3,137.7	66.646
3,249.02	74.327	3,249.02	74.3006	3,249.02	73.8603	3,249.02	73.5295	3,249.02	74.549	3,249.02	72.7826	3,249.02	74.5819	3,249.02	73.0439	3,249.02	74.8489	3,249.02	74.7612	3,249.02	73.8121	3,249.02	74.7941	3,249.02	74.0318	3,249.02	74.0079	3,249.02	74.9352	3,249.02	73.9691	3,249.02	75.702	3,249.02	73.9281	3,249.02	75.5034	3,249.02	73.6561	3,249.02	74.5434	3,249.02	71.8359	3,249.02	75.4177	3,249.02	69.7766	3,249.02	75.1778	3,249.02	68.6521	3,249.02	72.969	3,249.02	68.4438	3,249.02	68.5521	3,249.02	65.9797	3,249.02	68.543	3,249.02	67.9971	3,249.02	67.0269	3,249.02	63.5778	3,249.02	68.3396	3,249.02	62.5817
3,363.28	74.9297	3,363.28	74.5802	3,363.28	74.6107	3,363.28	74.3439	3,363.28	74.9285	3,363.28	74.1538	3,363.28	74.6401	3,363.28	74.2137	3,363.28	74.9458	3,363.28	73.5695	3,363.28	74.8909	3,363.28	73.2639	3,363.28	73.8537	3,363.28	72.5577	3,363.28	73.3563	3,363.28	71.1774	3,363.28	73.1804	3,363.28	69.4484	3,363.28	73.169	3,363.28	67.7774	3,363.28	71.3614	3,363.28	67.5352	3,363.28	71.0348	3,363.28	62.0332	3,363.28	70.493	3,363.28	59.031	3,363.28	66.9532	3,363.28	55.6418	3,363.28	63.1855	3,363.28	57.5142	3,363.28	61.6314	3,363.28	57.7695	3,363.28	60.9547	3,363.28	60.5699	3,363.28	60.9309	3,363.28	58.6181
3,481.93	77.6512	3,481.93	77.3306	3,481.93	77.3854	3,481.93	77.1665	3,481.93	76.8815	3,481.93	76.7521	3,481.93	76.7789	3,481.93	76.3506	3,481.93	76.7242	3,481.93	76.13	3,481.93	76.2421	3,481.93	74.8279	3,481.93	75.4782	3,481.93	73.8753	3,481.93	74.9025	3,481.93	72.5741	3,481.93	73.4295	3,481.93	70.007	3,481.93	71.1766	3,481.93	66.6263	3,481.93	69.822	3,481.93	62.2243	3,481.93	67.1262	3,481.93	57.7801	3,481.93	54.7491	3,481.93	59.8985	3,481.93	61.5263	3,481.93	67.0449	3,481.93	62.1366	3,481.93	66.8869	3,481.93	60.2786	3,481.93	64.2892	3,481.93	64.282	3,481.93	67.2525	3,481.93	65.793	3,481.93	68.3228
3,604.98	79.6472	3,604.98	79.1903	3,604.98	79.4614	3,604.98	78.4596	3,604.98	79.142	3,604.98	78.7742	3,604.98	79.0431	3,604.98	78.3953	3,604.98	78.4019	3,604.98	76.9266	3,604.98	77.4418	3,604.98	75.7374	3,604.98	76.4495	3,604.98	75.1431	3,604.98	76.1828	3,604.98	74.8412	3,604.98	75.1272	3,604.98	73.7256	3,604.98	73.1391	3,604.98	73.3162	3,604.98	70.7137	3,604.98	71.7545	3,604.98	68.2236	3,604.98	68.1762	3,604.98	70.9474	3,604.98	65.1255	3,604.98	70.9019	3,604.98	72.9494	3,604.98	68.3825	3,604.98	72.4397	3,604.98	67.4813	3,604.98	71.7782	3,604.98	71.2368	3,604.98	73.7774	3,604.98	72.5783	3,604.98	73.236
3,732.42	80.6449	3,732.42	79.6736	3,732.42	81.235	3,732.42	79.2399	3,732.42	80.4797	3,732.42	78.487	3,732.42	80.5594	3,732.42	78.0602	3,732.42	79.7471	3,732.42	77.2658	3,732.42	78.4442	3,732.42	76.2081	3,732.42	76.6384	3,732.42	74.3329	3,732.42	75.7562	3,732.42	72.7339	3,732.42	74.8435	3,732.42	72.947	3,732.42	72.1367	3,732.42	74.4349	3,732.42	70.5079	3,732.42	72.8689	3,732.42	73.2541	3,732.42	70.6224	3,732.42	73.2742	3,732.42	70.1056	3,732.42	74.5625	3,732.42	73.3485	3,732.42	70.6016	3,732.42	72.1479	3,732.42	67.5884	3,732.42	72.0606	3,732.42	72.6675	3,732.42	71.9742	3,732.42	76.0307	3,732.42	73.7261
3,864.26	80.5834	3,864.26	80.4589	3,864.26	81.3692	3,864.26	80.2274	3,864.26	80.8474	3,864.26	78.3052	3,864.26	81.1322	3,864.26	77.4091	3,864.26	80.8016	3,864.26	77.799	3,864.26	79.9295	3,864.26	76.4456	3,864.26	77.975	3,864.26	73.5515	3,864.26	77.0016	3,864.26	71.5902	3,864.26	76.0139	3,864.26	72.4025	3,864.26	73.337	3,864.26	73.5615	3,864.26	75.1653	3,864.26	72.9311	3,864.26	74.8901	3,864.26	73.2015	3,864.26	76.5068	3,864.26	73.5727	3,864.26	75.9686	3,864.26	74.2997	3,864.26	72.8957	3,864.26	74.704	3,864.26	67.7308	3,864.26	74.3643	3,864.26	73.6697	3,864.26	71.8466	3,864.26	76.7999	3,864.26	73.349
4,000.49	79.4613	4,000.49	79.5165	4,000.49	80.4463	4,000.49	79.7887	4,000.49	79.0583	4,000.49	77.771	4,000.49	80.1365	4,000.49	76.6556	4,000.49	80.804	4,000.49	78.3226	4,000.49	79.6577	4,000.49	76.3186	4,000.49	77.8406	4,000.49	74.8284	4,000.49	77.6178	4,000.49	71.9785	4,000.49	75.3662	4,000.49	72.4481	4,000.49	73.8471	4,000.49	72.2982	4,000.49	73.5174	4,000.49	74.4945	4,000.49	74.4547	4,000.49	73.448	4,000.49	75.7896	4,000.49	70.6577	4,000.49	76.9154	4,000.49	72.7705	4,000.49	74.5289	4,000.49	75.1404	4,000.49	69.4943	4,000.49	70.1667	4,000.49	73.7038	4,000.49	65.0153	4,000.49	73.2727	4,000.49	64.9629
4,141.11	79.4681	4,141.11	79.3695	4,141.11	79.4906	4,141.11	80.2077	4,141.11	79.0171	4,141.11	79.527	4,141.11	79.8687	4,141.11	77.9379	4,141.11	80.2831	4,141.11	77.6511	4,141.11	78.9359	4,141.11	75.6626	4,141.11	77.7741	4,141.11	73.3363	4,141.11	76.9731	4,141.11	72.0662	4,141.11	74.5358	4,141.11	71.8893	4,141.11	72.9066	4,141.11	72.015	4,141.11	71.8867	4,141.11	74.1784	4,141.11	72.3806	4,141.11	68.867	4,141.11	74.5478	4,141.11	66.6639	4,141.11	75.4557	4,141.11	69.3704	4,141.11	73.2546	4,141.11	74.1475	4,141.11	69.0399	4,141.11	69.5381	4,141.11	73.0544	4,141.11	71.7327	4,141.11	71.8376	4,141.11	70.1502
4,287.6	78.6798	4,287.6	78.226	4,287.6	78.2245	4,287.6	78.615	4,287.6	79.2765	4,287.6	78.7332	4,287.6	78.7726	4,287.6	77.2446	4,287.6	78.5307	4,287.6	74.375	4,287.6	76.6895	4,287.6	73.893	4,287.6	76.2945	4,287.6	73.099	4,287.6	75.85	4,287.6	71.7392	4,287.6	74.3274	4,287.6	70.9857	4,287.6	72.4296	4,287.6	71.7197	4,287.6	72.2435	4,287.6	70.4634	4,287.6	70.6547	4,287.6	71.6389	4,287.6	73.5881	4,287.6	66.2618	4,287.6	74.2279	4,287.6	68.3228	4,287.6	73.0615	4,287.6	71.9067	4,287.6	68.8544	4,287.6	69.4507	4,287.6	69.023	4,287.6	70.6542	4,287.6	69.2401	4,287.6	70.0938
4,438.48	77.5194	4,438.48	76.4399	4,438.48	77.4247	4,438.48	76.8088	4,438.48	77.732	4,438.48	76.7504	4,438.48	77.2644	4,438.48	75.8903	4,438.48	76.22	4,438.48	73.5687	4,438.48	76.4215	4,438.48	72.4133	4,438.48	75.5892	4,438.48	72.1838	4,438.48	74.5266	4,438.48	70.3775	4,438.48	74.0684	4,438.48	70.9511	4,438.48	71.795	4,438.48	70.7853	4,438.48	71.5551	4,438.48	71.201	4,438.48	71.7294	4,438.48	72.5592	4,438.48	71.0732	4,438.48	67.7404	4,438.48	72.8326	4,438.48	66.2262	4,438.48	72.8326	4,438.48	69.3598	4,438.48	70.0483	4,438.48	65.7701	4,438.48	68.0081	4,438.48	66.8926	4,438.48	71.417	4,438.48	70.115
4,595.21	75.2099	4,595.21	73.9116	4,595.21	75.8327	4,595.21	73.925	4,595.21	72.8769	4,595.21	73.1527	4,595.21	72.9873	4,595.21	72.9421	4,595.21	73.7986	4,595.21	74.0924	4,595.21	74.3744	4,595.21	71.1979	4,595.21	73.5128	4,595.21	70.0854	4,595.21	72.5157	4,595.21	66.1834	4,595.21	72.3953	4,595.21	65.9769	4,595.21	71.8156	4,595.21	68.4196	4,595.21	70.7389	4,595.21	70.9881	4,595.21	72.0923	4,595.21	69.3265	4,595.21	73.2371	4,595.21	69.9427	4,595.21	73.2202	4,595.21	64.5556	4,595.21	73.3822	4,595.21	68.6646	4,595.21	72.6837	4,595.21	65.5314	4,595.21	70.0576	4,595.21	60.2344	4,595.21	70.4002	4,595.21	64.8253
4,756.35	72.4201	4,756.35	73.4666	4,756.35	71.8708	4,756.35	73.4571	4,756.35	71.5856	4,756.35	73.393	4,756.35	71.0656	4,756.35	74.7	4,756.35	71.5594	4,756.35	75.2946	4,756.35	71.3414	4,756.35	74.0374	4,756.35	72.1247	4,756.35	70.2871	4,756.35	72.7049	4,756.35	67.4727	4,756.35	70.9683	4,756.35	65.5481	4,756.35	71.279	4,756.35	71.2033	4,756.35	70.664	4,756.35	73.0924	4,756.35	71.176	4,756.35	67.7243	4,756.35	71.6455	4,756.35	69.8455	4,756.35	71.969	4,756.35	66.3639	4,756.35	72.6201	4,756.35	68.5189	4,756.35	70.195	4,756.35	65.8314	4,756.35	69.4421	4,756.35	65.41	4,756.35	65.3305	4,756.35	60.8882
4,924.8	78.284	4,924.8	79.5221	4,924.8	77.4675	4,924.8	79.6484	4,924.8	77.8274	4,924.8	79.7607	4,924.8	77.5088	4,924.8	79.49	4,924.8	77.6823	4,924.8	78.3961	4,924.8	77.5819	4,924.8	77.4333	4,924.8	77.8382	4,924.8	73.8661	4,924.8	77.5758	4,924.8	73.2734	4,924.8	75.6476	4,924.8	73.7768	4,924.8	75.0717	4,924.8	72.0947	4,924.8	73.5517	4,924.8	71.7394	4,924.8	72.5112	4,924.8	68.556	4,924.8	71.1358	4,924.8	67.4936	4,924.8	71.0252	4,924.8	65.9391	4,924.8	70.724	4,924.8	65.4646	4,924.8	64.8402	4,924.8	63.0532	4,924.8	64.7213	4,924.8	62.3325	4,924.8	66.8304	4,924.8	59.0645
5,097.66	82.8089	5,097.66	83.3011	5,097.66	82.4515	5,097.66	82.8967	5,097.66	82.6965	5,097.66	83.1217	5,097.66	82.3915	5,097.66	82.5629	5,097.66	81.969	5,097.66	81.2926	5,097.66	82.5693	5,097.66	79.2946	5,097.66	82.4098	5,097.66	77.2955	5,097.66	81.5559	5,097.66	76.1256	5,097.66	80.1605	5,097.66	75.5345	5,097.66	78.496	5,097.66	71.8817	5,097.66	76.1233	5,097.66	68.3171	5,097.66	74.3263	5,097.66	67.8693	5,097.66	69.2902	5,097.66	62.5878	5,097.66	68.7246	5,097.66	63.3699	5,097.66	67.4934	5,097.66	54.856	5,097.66	64.5137	5,097.66	58.3502	5,097.66	64.3262	5,097.66	61.1573	5,097.66	66.959	5,097.66	49.9128
5,277.83	85.042	5,277.83	84.8868	5,277.83	84.5839	5,277.83	84.68	5,277.83	84.5527	5,277.83	84.2301	5,277.83	84.6251	5,277.83	83.6711	5,277.83	84.0081	5,277.83	82.4818	5,277.83	85.1075	5,277.83	79.5693	5,277.83	84.1241	5,277.83	78.5541	5,277.83	83.2578	5,277.83	75.5834	5,277.83	81.9361	5,277.83	71.7421	5,277.83	79.5408	5,277.83	68.6453	5,277.83	75.9866	5,277.83	55.0734	5,277.83	71.7327	5,277.83	60.4178	5,277.83	66.6341	5,277.83	55.264	5,277.83	55.1294	5,277.83	57.2888	5,277.83	57.0491	5,277.83	61.4711	5,277.83	65.1805	5,277.83	66.2368	5,277.83	66.1373	5,277.83	59.6345	5,277.83	51.2317	5,277.83	55.428
5,463.87	84.8517	5,463.87	83.999	5,463.87	85.3987	5,463.87	84.3255	5,463.87	84.8075	5,463.87	82.8757	5,463.87	85.3305	5,463.87	82.1494	5,463.87	85.6907	5,463.87	81.4926	5,463.87	85.4234	5,463.87	79.1458	5,463.87	84.3386	5,463.87	77.0935	5,463.87	83.3169	5,463.87	72.7171	5,463.87	81.5014	5,463.87	65.8274	5,463.87	79.3202	5,463.87	62.9637	5,463.87	74.6589	5,463.87	61.5851	5,463.87	68.9776	5,463.87	58.0473	5,463.87	56.0853	5,463.87	58.0542	5,463.87	67.6367	5,463.87	58.834	5,463.87	67.0632	5,463.87	57.9706	5,463.87	67.3552	5,463.87	59.3233	5,463.87	65.2357	5,463.87	60.2665	5,463.87	65.6587	5,463.87	61.474
5,657.23	84.0036	5,657.23	83.7505	5,657.23	84.5313	5,657.23	83.4154	5,657.23	84.5575	5,657.23	82.6966	5,657.23	84.5799	5,657.23	82.1234	5,657.23	84.6455	5,657.23	81.1672	5,657.23	83.4287	5,657.23	79.3676	5,657.23	83.4161	5,657.23	77.274	5,657.23	82.4848	5,657.23	73.8093	5,657.23	80.6275	5,657.23	71.0378	5,657.23	78.241	5,657.23	65.2568	5,657.23	75.7656	5,657.23	60.3399	5,657.23	72.7303	5,657.23	65.759	5,657.23	67.4514	5,657.23	60.9997	5,657.23	63.2025	5,657.23	65.8693	5,657.23	61.1946	5,657.23	59.9145	5,657.23	65.3744	5,657.23	50.4969	5,657.23	60.1197	5,657.23	63.5607	5,657.23	63.5011	5,657.23	60.2742
5,856.45	83.9928	5,856.45	84.1982	5,856.45	83.9034	5,856.45	82.8863	5,856.45	84.4453	5,856.45	82.6679	5,856.45	84.1336	5,856.45	81.9254	5,856.45	83.7926	5,856.45	80.3828	5,856.45	82.8868	5,856.45	78.6094	5,856.45	82.701	5,856.45	76.9072	5,856.45	81.4732	5,856.45	73.7709	5,856.45	80.2511	5,856.45	71.1248	5,856.45	78.345	5,856.45	59.9291	5,856.45	75.5191	5,856.45	54.0812	5,856.45	72.2657	5,856.45	68.144	5,856.45	69.5715	5,856.45	65.4219	5,856.45	61.5539	5,856.45	66.639	5,856.45	67.3092	5,856.45	66.8149	5,856.45	64.4739	5,856.45	65.6353	5,856.45	61.058	5,856.45	66.5391	5,856.45	60.051	5,856.45	60.907
6,062.99	83.7741	6,062.99	83.256	6,062.99	83.999	6,062.99	83.0837	6,062.99	83.6707	6,062.99	82.1509	6,062.99	83.5108	6,062.99	81.2666	6,062.99	83.1285	6,062.99	79.6052	6,062.99	82.6967	6,062.99	77.3185	6,062.99	82.0994	6,062.99	76.595	6,062.99	80.8688	6,062.99	73.7005	6,062.99	79.1177	6,062.99	69.156	6,062.99	77.7269	6,062.99	59.2639	6,062.99	75.025	6,062.99	60.4934	6,062.99	70.7697	6,062.99	68.3482	6,062.99	62.8927	6,062.99	68.9407	6,062.99	63.1379	6,062.99	66.4781	6,062.99	67.7895	6,062.99	66.5926	6,062.99	65.9683	6,062.99	67.5497	6,062.99	64.793	6,062.99	68.9362	6,062.99	67.3155	6,062.99	66.2016
6,276.86	83.5283	6,276.86	82.8192	6,276.86	84.0487	6,276.86	83.1324	6,276.86	83.6684	6,276.86	81.8319	6,276.86	83.4874	6,276.86	80.5434	6,276.86	83.1271	6,276.86	79.6693	6,276.86	82.5022	6,276.86	78.146	6,276.86	81.8514	6,276.86	77.1578	6,276.86	80.2813	6,276.86	76.0309	6,276.86	79.0547	6,276.86	71.0329	6,276.86	76.5834	6,276.86	66.9609	6,276.86	74.5767	6,276.86	64.6631	6,276.86	71.9312	6,276.86	64.7557	6,276.86	65.1062	6,276.86	69.8746	6,276.86	64.6649	6,276.86	63.996	6,276.86	62.31	6,276.86	67.465	6,276.86	61.385	6,276.86	68.3354	6,276.86	63.7577	6,276.86	68.2071	6,276.86	67.0982	6,276.86	65.019
6,498.05	85.0271	6,498.05	84.8787	6,498.05	85.2775	6,498.05	84.2331	6,498.05	85.2167	6,498.05	82.9617	6,498.05	84.8426	6,498.05	81.413	6,498.05	84.3692	6,498.05	80.0079	6,498.05	83.0471	6,498.05	78.9051	6,498.05	81.3993	6,498.05	77.5043	6,498.05	79.2455	6,498.05	76.1268	6,498.05	77.9113	6,498.05	72.0842	6,498.05	75.5977	6,498.05	69.7904	6,498.05	73.2324	6,498.05	68.0808	6,498.05	72.0251	6,498.05	65.616	6,498.05	70.0319	6,498.05	67.0988	6,498.05	67.9166	6,498.05	63.9057	6,498.05	61.6994	6,498.05	61.6864	6,498.05	61.1326	6,498.05	61.8199	6,498.05	59.5404	6,498.05	63.4982	6,498.05	55.8404	6,498.05	61.5075
6,726.56	87.0323	6,726.56	86.4383	6,726.56	87.2052	6,726.56	85.1196	6,726.56	87.009	6,726.56	83.9144	6,726.56	86.0803	6,726.56	81.9829	6,726.56	85.1805	6,726.56	79.7142	6,726.56	83.0566	6,726.56	77.6182	6,726.56	80.6993	6,726.56	74.9902	6,726.56	78.3481	6,726.56	73.302	6,726.56	75.8313	6,726.56	71.2454	6,726.56	74.0432	6,726.56	68.6802	6,726.56	71.5771	6,726.56	67.4378	6,726.56	71.6056	6,726.56	65.1669	6,726.56	68.3751	6,726.56	64.842	6,726.56	66.4517	6,726.56	64.7765	6,726.56	59.2533	6,726.56	58.5687	6,726.56	55.4478	6,726.56	66.3055	6,726.56	59.418	6,726.56	49.6741	6,726.56	64.1339	6,726.56	61.2933
6,963.87	87.8851	6,963.87	86.8287	6,963.87	88.2177	6,963.87	85.9822	6,963.87	87.4547	6,963.87	84.3138	6,963.87	86.4121	6,963.87	82.1995	6,963.87	84.8758	6,963.87	79.4017	6,963.87	82.1014	6,963.87	74.8285	6,963.87	79.3971	6,963.87	71.3403	6,963.87	76.4611	6,963.87	69.671	6,963.87	73.1803	6,963.87	67.6722	6,963.87	69.823	6,963.87	64.8893	6,963.87	68.2569	6,963.87	68.2436	6,963.87	67.2716	6,963.87	67.017	6,963.87	63.2213	6,963.87	68.3825	6,963.87	60.2647	6,963.87	67.6248	6,963.87	65.306	6,963.87	58.9031	6,963.87	55.4519	6,963.87	68.2979	6,963.87	63.6313	6,963.87	55.5372	6,963.87	68.0119	6,963.87	68.5662
7,209.96	87.0535	7,209.96	86.5418	7,209.96	86.789	7,209.96	85.2092	7,209.96	86.6086	7,209.96	83.5405	7,209.96	85.6054	7,209.96	80.7703	7,209.96	83.8978	7,209.96	77.1148	7,209.96	81.3058	7,209.96	68.5493	7,209.96	78.0991	7,209.96	61.6521	7,209.96	73.4721	7,209.96	60.4959	7,209.96	67.901	7,209.96	59.1164	7,209.96	63.8529	7,209.96	61.2767	7,209.96	52.1666	7,209.96	67.8779	7,209.96	50.1897	7,209.96	65.3436	7,209.96	57.4643	7,209.96	69.7039	7,209.96	55.7642	7,209.96	68.7267	7,209.96	66.9862	7,209.96	62.5528	7,209.96	61.5531	7,209.96	66.5871	7,209.96	65.2048	7,209.96	70.3562	7,209.96	68.7665	7,209.96	70.3312
7,464.84	83.9521	7,464.84	83.2046	7,464.84	84.2845	7,464.84	82.3046	7,464.84	83.7629	7,464.84	80.2498	7,464.84	83.4496	7,464.84	76.8686	7,464.84	81.4003	7,464.84	73.6561	7,464.84	79.4729	7,464.84	62.943	7,464.84	74.7036	7,464.84	65.3218	7,464.84	70.9471	7,464.84	55.2734	7,464.84	65.8316	7,464.84	56.7541	7,464.84	65.8851	7,464.84	53.0718	7,464.84	54.6352	7,464.84	54.4664	7,464.84	67.6515	7,464.84	64.9663	7,464.84	64.1046	7,464.84	66.4091	7,464.84	62.7283	7,464.84	67.7862	7,464.84	65.903	7,464.84	63.2036	7,464.84	62.499	7,464.84	70.9155	7,464.84	68.0209	7,464.84	73.7588	7,464.84	68.9129	7,464.84	72.2315
7,727.05	78.9735	7,727.05	78.8395	7,727.05	78.7432	7,727.05	78.0904	7,727.05	79.3367	7,727.05	76.5947	7,727.05	78.3137	7,727.05	74.5781	7,727.05	76.7531	7,727.05	72.1671	7,727.05	75.0592	7,727.05	66.2897	7,727.05	71.7931	7,727.05	67.4896	7,727.05	70.5837	7,727.05	61.9381	7,727.05	63.8656	7,727.05	67.1121	7,727.05	65.8857	7,727.05	56.4412	7,727.05	64.062	7,727.05	54.2609	7,727.05	69.6413	7,727.05	67.8438	7,727.05	65.3538	7,727.05	62.9318	7,727.05	62.5178	7,727.05	62.3122	7,727.05	52.635	7,727.05	62.6724	7,727.05	62.1387	7,727.05	72.229	7,727.05	65.9133	7,727.05	70.8439	7,727.05	72.9391	7,727.05	66.7695
7,999.51	77.5156	7,999.51	77.7987	7,999.51	78.1539	7,999.51	78.6357	7,999.51	78.3873	7,999.51	75.7234	7,999.51	79.6288	7,999.51	74.5871	7,999.51	76.8614	7,999.51	73.799	7,999.51	75.7879	7,999.51	72.1629	7,999.51	73.8633	7,999.51	70.2609	7,999.51	70.1086	7,999.51	65.6219	7,999.51	68.3634	7,999.51	65.5745	7,999.51	65.8001	7,999.51	63.6398	7,999.51	68.134	7,999.51	41.2229	7,999.51	70.4238	7,999.51	62.198	7,999.51	68.466	7,999.51	65.7951	7,999.51	67.4172	7,999.51	62.7516	7,999.51	63.8414	7,999.51	59.3522	7,999.51	54.5764	7,999.51	70.6061	7,999.51	57.8757	7,999.51	73.6843	7,999.51	69.4286	7,999.51	68.5744
8,282.23	74.2911	8,282.23	76.1421	8,282.23	73.7318	8,282.23	74.2617	8,282.23	76.7907	8,282.23	72.1554	8,282.23	77.4642	8,282.23	70.0932	8,282.23	75.3994	8,282.23	67.9549	8,282.23	74.764	8,282.23	67.3548	8,282.23	67.4155	8,282.23	65.1323	8,282.23	64.854	8,282.23	62.2706	8,282.23	65.1568	8,282.23	67.1981	8,282.23	68.5451	8,282.23	66.5165	8,282.23	70.6278	8,282.23	55.5749	8,282.23	71.6248	8,282.23	60.1928	8,282.23	71.2944	8,282.23	69.2859	8,282.23	71.7006	8,282.23	56.6036	8,282.23	65.7435	8,282.23	64.1885	8,282.23	65.4097	8,282.23	64.3525	8,282.23	62.3559	8,282.23	75.0988	8,282.23	65.2026	8,282.23	69.8816
8,573.73	76.0226	8,573.73	73.673	8,573.73	77.1286	8,573.73	72.8575	8,573.73	76.0962	8,573.73	67.4685	8,573.73	75.7664	8,573.73	55.8879	8,573.73	76.0897	8,573.73	56.6346	8,573.73	73.043	8,573.73	62.7969	8,573.73	70.7953	8,573.73	64.5439	8,573.73	69.3529	8,573.73	63.345	8,573.73	69.4755	8,573.73	70.5384	8,573.73	68.2658	8,573.73	66.2408	8,573.73	72.3788	8,573.73	65.924	8,573.73	72.363	8,573.73	64.4242	8,573.73	68.9506	8,573.73	70.377	8,573.73	71.8232	8,573.73	61.649	8,573.73	68.0078	8,573.73	54.4293	8,573.73	63.1138	8,573.73	67.737	8,573.73	59.9008	8,573.73	72.937	8,573.73	62.8829	8,573.73	68.3537
8,876.95	77.3248	8,876.95	75.7601	8,876.95	78.6494	8,876.95	75.0373	8,876.95	77.8871	8,876.95	74.9824	8,876.95	76.6102	8,876.95	71.6601	8,876.95	73.7629	8,876.95	69.2467	8,876.95	70.8389	8,876.95	64.424	8,876.95	64.5404	8,876.95	71.0071	8,876.95	56.7689	8,876.95	73.3344	8,876.95	65.76	8,876.95	69.7763	8,876.95	65.6579	8,876.95	67.8188	8,876.95	76.0727	8,876.95	70.6825	8,876.95	69.0766	8,876.95	64.6205	8,876.95	69.0246	8,876.95	70.922	8,876.95	70.6165	8,876.95	64.0519	8,876.95	70.7498	8,876.95	56.7536	8,876.95	66.587	8,876.95	61.4376	8,876.95	57.5514	8,876.95	73.6119	8,876.95	66.54	8,876.95	66.782
9,188.96	78.4584	9,188.96	78.3414	9,188.96	78.8297	9,188.96	78.986	9,188.96	77.6815	9,188.96	77.6069	9,188.96	75.5609	9,188.96	76.503	9,188.96	74.7708	9,188.96	74.7327	9,188.96	74.5284	9,188.96	70.5222	9,188.96	74.856	9,188.96	72.3447	9,188.96	70.8998	9,188.96	72.8806	9,188.96	66.3949	9,188.96	66.4843	9,188.96	68.7827	9,188.96	72.0816	9,188.96	76.6075	9,188.96	69.9594	9,188.96	72.2648	9,188.96	68.7671	9,188.96	73.3084	9,188.96	74.079	9,188.96	67.1311	9,188.96	66.5633	9,188.96	71.6509	9,188.96	69.1841	9,188.96	69.5377	9,188.96	61.5979	9,188.96	67.333	9,188.96	76.5492	9,188.96	63.2176	9,188.96	69.303
9,514.16	77.3435	9,514.16	77.9777	9,514.16	76.9642	9,514.16	79.5251	9,514.16	74.4504	9,514.16	78.1016	9,514.16	75.646	9,514.16	78.6934	9,514.16	78.0031	9,514.16	75.2942	9,514.16	77.4719	9,514.16	71.5118	9,514.16	76.8344	9,514.16	71.6291	9,514.16	73.3753	9,514.16	73.0524	9,514.16	67.5872	9,514.16	67.2024	9,514.16	68.8919	9,514.16	74.7213	9,514.16	76.4619	9,514.16	65.8013	9,514.16	73.2146	9,514.16	71.2298	9,514.16	75.9701	9,514.16	76.9355	9,514.16	74.5439	9,514.16	73.5052	9,514.16	75.3012	9,514.16	72.8388	9,514.16	73.364	9,514.16	64.8356	9,514.16	71.8362	9,514.16	77.4793	9,514.16	63.1019	9,514.16	64.1991
9,849.61	77.6672	9,849.61	77.4996	9,849.61	77.8318	9,849.61	78.5471	9,849.61	76.2943	9,849.61	75.9827	9,849.61	79.274	9,849.61	76.0184	9,849.61	78.7635	9,849.61	71.3226	9,849.61	76.8791	9,849.61	67.9721	9,849.61	75.0284	9,849.61	67.2094	9,849.61	74.6019	9,849.61	70.8658	9,849.61	56.5741	9,849.61	60.8145	9,849.61	62.8274	9,849.61	71.1563	9,849.61	76.9931	9,849.61	64.948	9,849.61	72.0139	9,849.61	70.6354	9,849.61	74.0805	9,849.61	75.7613	9,849.61	76.8199	9,849.61	75.2359	9,849.61	72.7077	9,849.61	75.3883	9,849.61	75.3894	9,849.61	69.2877	9,849.61	74.1412	9,849.61	77.7494	9,849.61	66.8534	9,849.61	70.6492
10,196.8	81.0883	10,196.8	79.6006	10,196.8	81.7047	10,196.8	77.2687	10,196.8	80.6224	10,196.8	73.1605	10,196.8	80.8745	10,196.8	70.3113	10,196.8	77.8185	10,196.8	69.64	10,196.8	74.532	10,196.8	59.7181	10,196.8	73.4309	10,196.8	62.996	10,196.8	75.9594	10,196.8	66.2845	10,196.8	61.7782	10,196.8	50.7857	10,196.8	59.3663	10,196.8	70.7521	10,196.8	73.2364	10,196.8	44.885	10,196.8	71.7967	10,196.8	70.8851	10,196.8	67.2518	10,196.8	73.6076	10,196.8	73.5281	10,196.8	75.5261	10,196.8	70.311	10,196.8	76.2283	10,196.8	74.1832	10,196.8	67.7871	10,196.8	71.1487	10,196.8	77.3884	10,196.8	62.9636	10,196.8	72.4996
10,555.7	82.653	10,555.7	80.9741	10,555.7	83.0887	10,555.7	77.4076	10,555.7	82.3538	10,555.7	72.1629	10,555.7	81.177	10,555.7	52.8349	10,555.7	75.918	10,555.7	68.8507	10,555.7	71.6502	10,555.7	39.4133	10,555.7	65.1671	10,555.7	43.6693	10,555.7	74.5452	10,555.7	69.5591	10,555.7	59.8618	10,555.7	62.0226	10,555.7	67.6173	10,555.7	69.6103	10,555.7	68.5495	10,555.7	55.7621	10,555.7	69.7576	10,555.7	71.9137	10,555.7	61.0136	10,555.7	71.7822	10,555.7	70.1148	10,555.7	69.9108	10,555.7	63.9175	10,555.7	73.4432	10,555.7	72.1837	10,555.7	68.0388	10,555.7	70.1738	10,555.7	74.9806	10,555.7	64.21	10,555.7	70.5346
10,927.7	84.8387	10,927.7	81.7595	10,927.7	84.8799	10,927.7	78.6551	10,927.7	84.8888	10,927.7	69.0367	10,927.7	81.8675	10,927.7	57.2308	10,927.7	75.6795	10,927.7	58.5511	10,927.7	68.1567	10,927.7	65.0989	10,927.7	65.1982	10,927.7	65.6936	10,927.7	70.2806	10,927.7	69.5973	10,927.7	62.8822	10,927.7	60.9955	10,927.7	72.2253	10,927.7	75.3085	10,927.7	68.9233	10,927.7	64.7233	10,927.7	70.2191	10,927.7	75.5457	10,927.7	58.6707	10,927.7	73.8048	10,927.7	68.8928	10,927.7	70.7906	10,927.7	62.6352	10,927.7	69.9812	10,927.7	70.8163	10,927.7	70.7607	10,927.7	72.0309	10,927.7	72.9754	10,927.7	66.5328	10,927.7	69.0133
11,313	81.9939	11,313	76.7124	11,313	82.5884	11,313	72.2743	11,313	82.3383	11,313	70.8245	11,313	77.2888	11,313	53.0423	11,313	66.7105	11,313	54.9478	11,313	73.3975	11,313	71.7011	11,313	69.8246	11,313	71.1132	11,313	58.8641	11,313	70.7201	11,313	71.9713	11,313	67.0998	11,313	75.3714	11,313	73.7916	11,313	71.4001	11,313	64.423	11,313	71.2611	11,313	73.9531	11,313	67.4589	11,313	74.0288	11,313	68.7081	11,313	71.892	11,313	53.0544	11,313	71.5233	11,313	67.9569	11,313	70.2894	11,313	71.6589	11,313	70.6685	11,313	64.3692	11,313	63.5188
11,712.9	83.6904	11,712.9	80.9076	11,712.9	83.5492	11,712.9	78.5567	11,712.9	81.8408	11,712.9	75.8091	11,712.9	77.6758	11,712.9	68.4219	11,712.9	76.8796	11,712.9	60.7147	11,712.9	77.5164	11,712.9	73.3059	11,712.9	73.1566	11,712.9	68.8806	11,712.9	69.0665	11,712.9	67.961	11,712.9	74.2472	11,712.9	47.1065	11,712.9	74.7327	11,712.9	73.9744	11,712.9	74.7088	11,712.9	61.8897	11,712.9	73.8651	11,712.9	73.9813	11,712.9	71.6128	11,712.9	68.6736	11,712.9	69.3953	11,712.9	71.4405	11,712.9	65.3221	11,712.9	70.9156	11,712.9	66.5566	11,712.9	66.0443	11,712.9	71.8023	11,712.9	69.6181	11,712.9	66.3834	11,712.9	62.3273
12,126	79.319	12,126	77.2037	12,126	78.3081	12,126	75.523	12,126	78.3544	12,126	73.7058	12,126	77.1607	12,126	67.6386	12,126	76.8941	12,126	59.8236	12,126	74.3836	12,126	71.7125	12,126	71.6264	12,126	61.7872	12,126	73.4888	12,126	69.7398	12,126	70.2777	12,126	64.177	12,126	73.7189	12,126	71.1661	12,126	75.9533	12,126	66.9221	12,126	72.546	12,126	70.591	12,126	71.9249	12,126	66.4292	12,126	62.9361	12,126	67.5513	12,126	58.0048	12,126	65.9834	12,126	55.9715	12,126	61.9109	12,126	67.7707	12,126	66.4745	12,126	68.9984	12,126	50.2638
12,553.7	78.9468	12,553.7	77.6038	12,553.7	79.6394	12,553.7	75.8035	12,553.7	78.1614	12,553.7	72.4639	12,553.7	76.209	12,553.7	67.295	12,553.7	74.5787	12,553.7	61.7766	12,553.7	72.5101	12,553.7	67.2251	12,553.7	70.8383	12,553.7	58.5155	12,553.7	74.7152	12,553.7	68.2735	12,553.7	69.5944	12,553.7	66.2859	12,553.7	73.9459	12,553.7	72.7608	12,553.7	75.9681	12,553.7	69.49	12,553.7	66.2634	12,553.7	63.7358	12,553.7	71.4033	12,553.7	59.8646	12,553.7	65.0363	12,553.7	65.7389	12,553.7	64.005	12,553.7	66.6446	12,553.7	59.878	12,553.7	63.1229	12,553.7	69.7419	12,553.7	70.5718	12,553.7	67.9245	12,553.7	61.7505
12,996.1	75.6658	12,996.1	74.8473	12,996.1	76.6122	12,996.1	73.7907	12,996.1	74.8547	12,996.1	69.5573	12,996.1	74.957	12,996.1	67.1094	12,996.1	73.0456	12,996.1	66.7535	12,996.1	73.1489	12,996.1	69.9742	12,996.1	70.0028	12,996.1	61.5967	12,996.1	75.8988	12,996.1	67.6649	12,996.1	69.0523	12,996.1	66.9521	12,996.1	71.7638	12,996.1	70.829	12,996.1	75.1634	12,996.1	68.8016	12,996.1	64.8252	12,996.1	62.0667	12,996.1	68.0834	12,996.1	61.1406	12,996.1	59.7745	12,996.1	62.0853	12,996.1	66.3184	12,996.1	62.1434	12,996.1	60.9696	12,996.1	61.9258	12,996.1	62.5163	12,996.1	70.1469	12,996.1	66.7689	12,996.1	64.9907
13,454.6	70.851	13,454.6	72.443	13,454.6	72.594	13,454.6	70.442	13,454.6	72.5117	13,454.6	68.7748	13,454.6	72.3604	13,454.6	52.8091	13,454.6	68.9142	13,454.6	67.1253	13,454.6	70.1193	13,454.6	66.2055	13,454.6	64.8813	13,454.6	56.7309	13,454.6	72.89	13,454.6	62.2446	13,454.6	66.4045	13,454.6	63.585	13,454.6	62.8723	13,454.6	65.7375	13,454.6	62.2048	13,454.6	63.3508	13,454.6	60.2646	13,454.6	62.2041	13,454.6	43.964	13,454.6	37.4201	13,454.6	54.6019	13,454.6	45.7686	13,454.6	65.8441	13,454.6	58.9261	13,454.6	60.3441	13,454.6	58.6991	13,454.6	47.1287	13,454.6	63.5682	13,454.6	45.4343	13,454.6	64.4433
13,929.2	74.9653	13,929.2	73.3613	13,929.2	75.1976	13,929.2	68.1528	13,929.2	74.7115	13,929.2	68.5037	13,929.2	70.1464	13,929.2	59.5681	13,929.2	64.8905	13,929.2	67.4854	13,929.2	65.9473	13,929.2	62.3235	13,929.2	54.2216	13,929.2	59.5655	13,929.2	71.4537	13,929.2	63.0649	13,929.2	65.879	13,929.2	57.5527	13,929.2	56.4353	13,929.2	67.6469	13,929.2	66.0229	13,929.2	60.8774	13,929.2	67.4649	13,929.2	61.3018	13,929.2	58.3764	13,929.2	43.0373	13,929.2	53.6214	13,929.2	56.1983	13,929.2	64.4054	13,929.2	56.7235	13,929.2	52.457	13,929.2	55.0933	13,929.2	53.093	13,929.2	63.4467	13,929.2	63.3354	13,929.2	53.0206
14,419.9	76.2202	14,419.9	72.4157	14,419.9	76.8036	14,419.9	69.7221	14,419.9	74.5276	14,419.9	71.9072	14,419.9	69.8215	14,419.9	62.9188	14,419.9	68.0187	14,419.9	67.9905	14,419.9	67.5999	14,419.9	65.6785	14,419.9	67.0821	14,419.9	62.477	14,419.9	75.9611	14,419.9	66.1023	14,419.9	69.2312	14,419.9	51.2235	14,419.9	65.0948	14,419.9	70.4097	14,419.9	72.1418	14,419.9	61.7343	14,419.9	69.9103	14,419.9	60.7933	14,419.9	63.6504	14,419.9	53.7962	14,419.9	61.5013	14,419.9	59.0902	14,419.9	63.0546	14,419.9	63.0255	14,419.9	64.1927	14,419.9	60.9174	14,419.9	57.4812	14,419.9	47.119	14,419.9	57.3561	14,419.9	60.2693
14,928.2	70.0052	14,928.2	69.9983	14,928.2	72.3215	14,928.2	73.2078	14,928.2	72.5757	14,928.2	75.7409	14,928.2	70.9769	14,928.2	65.9404	14,928.2	71.2067	14,928.2	69.7481	14,928.2	70.3177	14,928.2	69.1	14,928.2	70.4276	14,928.2	62.6523	14,928.2	78.7899	14,928.2	59.8424	14,928.2	72.9793	14,928.2	56.6552	14,928.2	68.9731	14,928.2	70.4687	14,928.2	76.0848	14,928.2	59.868	14,928.2	71.5438	14,928.2	60.5757	14,928.2	66.4627	14,928.2	61.4042	14,928.2	62.1261	14,928.2	52.8003	14,928.2	60.243	14,928.2	63.5862	14,928.2	58.3512	14,928.2	64.3405	14,928.2	63.5437	14,928.2	59.0242	14,928.2	67.4274	14,928.2	53.7975
15,455.6	78.9128	15,455.6	77.8704	15,455.6	78.7385	15,455.6	77.3834	15,455.6	79.7971	15,455.6	76.82	15,455.6	78.5957	15,455.6	70.9166	15,455.6	77.9861	15,455.6	73.6577	15,455.6	76.1695	15,455.6	71.189	15,455.6	75.9738	15,455.6	61.9554	15,455.6	81.8983	15,455.6	62.7475	15,455.6	74.7702	15,455.6	66.2119	15,455.6	68.1312	15,455.6	68.0209	15,455.6	77.4733	15,455.6	61.6328	15,455.6	69.8151	15,455.6	52.4054	15,455.6	64.4341	15,455.6	60.059	15,455.6	59.9223	15,455.6	50.9112	15,455.6	62.0053	15,455.6	63.5641	15,455.6	60.3637	15,455.6	64.6479	15,455.6	50.6486	15,455.6	49.649	15,455.6	58.6436	15,455.6	56.4053
16,000.5	80.594	16,000.5	80.6854	16,000.5	79.8298	16,000.5	79.7408	16,000.5	80.1056	16,000.5	76.4526	16,000.5	78.8049	16,000.5	73.4056	16,000.5	77.2722	16,000.5	74.6022	16,000.5	74.3603	16,000.5	67.7028	16,000.5	77.1136	16,000.5	62.0834	16,000.5	79.1365	16,000.5	64.5348	16,000.5	71.0072	16,000.5	68.7297	16,000.5	58.6987	16,000.5	63.5891	16,000.5	74.2206	16,000.5	67.3767	16,000.5	60.2554	16,000.5	69.7744	16,000.5	55.8094	16,000.5	55.0888	16,000.5	65.6995	16,000.5	57.7105	16,000.5	65.5377	16,000.5	64.5158	16,000.5	60.7601	16,000.5	66.7646	16,000.5	68.711	16,000.5	68.233	16,000.5	67.9675	16,000.5	62.1309
16,564.5	74.2934	16,564.5	75.9958	16,564.5	72.1589	16,564.5	76.2515	16,564.5	73.1313	16,564.5	71.6983	16,564.5	73.4779	16,564.5	69.8597	16,564.5	72.7885	16,564.5	68.5779	16,564.5	70.4027	16,564.5	60.272	16,564.5	74.5128	16,564.5	62.8305	16,564.5	73.5204	16,564.5	63.3055	16,564.5	62.2553	16,564.5	66.2089	16,564.5	61.2739	16,564.5	62.6712	16,564.5	63.6088	16,564.5	57.0494	16,564.5	61.6239	16,564.5	67.3451	16,564.5	54.6867	16,564.5	60.2237	16,564.5	57.6933	16,564.5	60.1304	16,564.5	59.9577	16,564.5	61.7951	16,564.5	63.5424	16,564.5	57.6527	16,564.5	63.1718	16,564.5	69.2832	16,564.5	68.0699	16,564.5	67.7955
17,148.9	68.4052	17,148.9	68.6813	17,148.9	72.5124	17,148.9	71.3678	17,148.9	68.5951	17,148.9	70.2915	17,148.9	66.6407	17,148.9	62.1721	17,148.9	68.2275	17,148.9	70.3219	17,148.9	64.9962	17,148.9	64.2334	17,148.9	68.9575	17,148.9	66.8324	17,148.9	55.3318	17,148.9	52.9656	17,148.9	71.9135	17,148.9	56.6195	17,148.9	64.1381	17,148.9	59.989	17,148.9	70.1278	17,148.9	64.3222	17,148.9	65.0315	17,148.9	61.3431	17,148.9	54.6488	17,148.9	54.9966	17,148.9	60.6697	17,148.9	55.2946	17,148.9	52.2274	17,148.9	64.6859	17,148.9	65.7125	17,148.9	58.1959	17,148.9	64.9372	17,148.9	70.9524	17,148.9	64.1297	17,148.9	68.0072
17,752.4	71.2063	17,752.4	65.3345	17,752.4	74.6536	17,752.4	67.5575	17,752.4	69.3688	17,752.4	71.8897	17,752.4	66.4457	17,752.4	58.5798	17,752.4	65.2386	17,752.4	75.7204	17,752.4	67.5334	17,752.4	69.3636	17,752.4	72.5565	17,752.4	70.4205	17,752.4	69.024	17,752.4	61.2906	17,752.4	76.8922	17,752.4	63.1602	17,752.4	69.7574	17,752.4	66.4852	17,752.4	72.7824	17,752.4	56.8287	17,752.4	64.9141	17,752.4	60.4494	17,752.4	67.4524	17,752.4	60.4032	17,752.4	65.3263	17,752.4	47.7172	17,752.4	56.059	17,752.4	57.1295	17,752.4	53.9228	17,752.4	63.1599	17,752.4	64.3138	17,752.4	70.1379	17,752.4	64.7348	17,752.4	68.1973
18,379.4	75.0122	18,379.4	67.737	18,379.4	75.7839	18,379.4	65.9498	18,379.4	73.5564	18,379.4	73.2318	18,379.4	69.6205	18,379.4	65.4274	18,379.4	66.4304	18,379.4	78.5819	18,379.4	68.2122	18,379.4	70.4123	18,379.4	72.4733	18,379.4	71.2273	18,379.4	77.0318	18,379.4	62.727	18,379.4	79.2282	18,379.4	65.7651	18,379.4	73.7349	18,379.4	67.0934	18,379.4	74.0213	18,379.4	58.3826	18,379.4	67.3176	18,379.4	56.0757	18,379.4	70.8979	18,379.4	63.5032	18,379.4	61.2459	18,379.4	49.5836	18,379.4	59.4262	18,379.4	65.448	18,379.4	62.7584	18,379.4	53.4294	18,379.4	52.3797	18,379.4	68.8961	18,379.4	63.7205	18,379.4	59.3458
19,026.9	76.6068	19,026.9	70.1723	19,026.9	75.605	19,026.9	65.9694	19,026.9	75.8699	19,026.9	69.0297	19,026.9	67.4692	19,026.9	66.7237	19,026.9	57.9143	19,026.9	77.1298	19,026.9	65.9922	19,026.9	68.5077	19,026.9	76.0739	19,026.9	69.61	19,026.9	77.3678	19,026.9	66.8191	19,026.9	79.9971	19,026.9	58.8557	19,026.9	75.5368	19,026.9	66.4421	19,026.9	73.6116	19,026.9	57.8277	19,026.9	63.6825	19,026.9	58.6821	19,026.9	70.0715	19,026.9	33.4969	19,026.9	57.2536	19,026.9	55.9733	19,026.9	52.5607	19,026.9	59.8503	19,026.9	53.8802	19,026.9	52.5794	19,026.9	56.0305	19,026.9	59.2365	19,026.9	65.6679	19,026.9	57.4805
19,697.8	76.2931	19,697.8	69.9973	19,697.8	75.6596	19,697.8	64.1257	19,697.8	74.7198	19,697.8	71.6553	19,697.8	65.735	19,697.8	68.5405	19,697.8	60.2484	19,697.8	77.8305	19,697.8	66.6907	19,697.8	71.3157	19,697.8	75.6024	19,697.8	66.1207	19,697.8	75.6104	19,697.8	69.1014	19,697.8	77.6982	19,697.8	55.0808	19,697.8	73.2695	19,697.8	63.7594	19,697.8	72.6569	19,697.8	56.4604	19,697.8	59.2107	19,697.8	56.9759	19,697.8	46.7223	19,697.8	23.0342	19,697.8	53.0824	19,697.8	54.3359	19,697.8	58.1328	19,697.8	61.2024	19,697.8	65.8649	19,697.8	58.413	19,697.8	55.112	19,697.8	58.4926	19,697.8	44.1797	19,697.8	59.2246
19,999.5	73.5219	19,999.5	68.1136	19,999.5	73.6668	19,999.5	65.1803	19,999.5	73.4905	19,999.5	73.7499	19,999.5	64.3708	19,999.5	71.3618	19,999.5	59.301	19,999.5	78.4959	19,999.5	66.1342	19,999.5	71.4941	19,999.5	74.9399	19,999.5	66.1771	19,999.5	74.4856	19,999.5	69.5275	19,999.5	74.874	19,999.5	59.7695	19,999.5	71.5329	19,999.5	64.0636	19,999.5	70.3915	19,999.5	58.4083	19,999.5	59.1918	19,999.5	54.3861	19,999.5	62.5457	19,999.5	53.2873	19,999.5	61.704	19,999.5	59.2918	19,999.5	59.9041	19,999.5	60.1986	19,999.5	65.1273	19,999.5	61.6475	19,999.5	55.1675	19,999.5	52.7332	19,999.5	45.9991	19,999.5	51.8259
