"SPL Vertical"																																																																							
"On-Axis"		"10°"		"-10°"		"20°"		"-20°"		"30°"		"-30°"		"40°"		"-40°"		"50°"		"-50°"		"60°"		"-60°"		"70°"		"-70°"		"80°"		"-80°"		"90°"		"-90°"		"100°"		"-100°"		"110°"		"-110°"		"120°"		"-120°"		"130°"		"-130°"		"140°"		"-140°"		"150°"		"-150°"		"160°"		"-160°"		"170°"		"-170°"		"180°"	
"Frequency [Hz]"	"Sound Pessure Level [dB]  / [2.83V 1m] "	"Frequency [Hz]"	"Sound Pessure Level [dB]  / [2.83V 1m] "	"Frequency [Hz]"	"Sound Pessure Level [dB]  / [2.83V 1m] "	"Frequency [Hz]"	"Sound Pessure Level [dB]  / [2.83V 1m] "	"Frequency [Hz]"	"Sound Pessure Level [dB]  / [2.83V 1m] "	"Frequency [Hz]"	"Sound Pessure Level [dB]  / [2.83V 1m] "	"Frequency [Hz]"	"Sound Pessure Level [dB]  / [2.83V 1m] "	"Frequency [Hz]"	"Sound Pessure Level [dB]  / [2.83V 1m] "	"Frequency [Hz]"	"Sound Pessure Level [dB]  / [2.83V 1m] "	"Frequency [Hz]"	"Sound Pessure Level [dB]  / [2.83V 1m] "	"Frequency [Hz]"	"Sound Pessure Level [dB]  / [2.83V 1m] "	"Frequency [Hz]"	"Sound Pessure Level [dB]  / [2.83V 1m] "	"Frequency [Hz]"	"Sound Pessure Level [dB]  / [2.83V 1m] "	"Frequency [Hz]"	"Sound Pessure Level [dB]  / [2.83V 1m] "	"Frequency [Hz]"	"Sound Pessure Level [dB]  / [2.83V 1m] "	"Frequency [Hz]"	"Sound Pessure Level [dB]  / [2.83V 1m] "	"Frequency [Hz]"	"Sound Pessure Level [dB]  / [2.83V 1m] "	"Frequency [Hz]"	"Sound Pessure Level [dB]  / [2.83V 1m] "	"Frequency [Hz]"	"Sound Pessure Level [dB]  / [2.83V 1m] "	"Frequency [Hz]"	"Sound Pessure Level [dB]  / [2.83V 1m] "	"Frequency [Hz]"	"Sound Pessure Level [dB]  / [2.83V 1m] "	"Frequency [Hz]"	"Sound Pessure Level [dB]  / [2.83V 1m] "	"Frequency [Hz]"	"Sound Pessure Level [dB]  / [2.83V 1m] "	"Frequency [Hz]"	"Sound Pessure Level [dB]  / [2.83V 1m] "	"Frequency [Hz]"	"Sound Pessure Level [dB]  / [2.83V 1m] "	"Frequency [Hz]"	"Sound Pessure Level [dB]  / [2.83V 1m] "	"Frequency [Hz]"	"Sound Pessure Level [dB]  / [2.83V 1m] "	"Frequency [Hz]"	"Sound Pessure Level [dB]  / [2.83V 1m] "	"Frequency [Hz]"	"Sound Pessure Level [dB]  / [2.83V 1m] "	"Frequency [Hz]"	"Sound Pessure Level [dB]  / [2.83V 1m] "	"Frequency [Hz]"	"Sound Pessure Level [dB]  / [2.83V 1m] "	"Frequency [Hz]"	"Sound Pessure Level [dB]  / [2.83V 1m] "	"Frequency [Hz]"	"Sound Pessure Level [dB]  / [2.83V 1m] "	"Frequency [Hz]"	"Sound Pessure Level [dB]  / [2.83V 1m] "	"Frequency [Hz]"	"Sound Pessure Level [dB]  / [2.83V 1m] "	"Frequency [Hz]"	"Sound Pessure Level [dB]  / [2.83V 1m] "
20.5078	71.5714	20.5078	71.3719	20.5078	71.7706	20.5078	71.1784	20.5078	71.9631	20.5078	70.996	20.5078	72.1416	20.5078	70.8293	20.5078	72.2989	20.5078	70.6822	20.5078	72.4279	20.5078	70.5576	20.5078	72.5225	20.5078	70.4579	20.5078	72.5776	20.5078	70.385	20.5078	72.59	20.5078	70.3398	20.5078	72.5587	20.5078	70.3231	20.5078	72.4854	20.5078	70.3347	20.5078	72.374	20.5078	70.3741	20.5078	72.2303	20.5078	70.4403	20.5078	72.0618	20.5078	70.5317	20.5078	71.8763	20.5078	70.6466	20.5078	71.6817	20.5078	70.7827	20.5078	71.485	20.5078	70.9376	20.5078	71.2924	20.5078	71.1086
21.2402	70.6892	21.2402	70.4474	21.2402	70.9289	21.2402	70.21	21.2402	71.1594	21.2402	69.9829	21.2402	71.373	21.2402	69.7711	21.2402	71.5619	21.2402	69.5794	21.2402	71.7182	21.2402	69.4117	21.2402	71.8347	21.2402	69.2715	21.2402	71.905	21.2402	69.1615	21.2402	71.9244	21.2402	69.0842	21.2402	71.8905	21.2402	69.0413	21.2402	71.8034	21.2402	69.0343	21.2402	71.6659	21.2402	69.0639	21.2402	71.4836	21.2402	69.1303	21.2402	71.2645	21.2402	69.2333	21.2402	71.0183	21.2402	69.3716	21.2402	70.7559	21.2402	69.5435	21.2402	70.4879	21.2402	69.746	21.2402	70.2247	21.2402	69.9749
21.9727	71.4352	21.9727	71.2103	21.9727	71.6572	21.9727	70.9884	21.9727	71.8697	21.9727	70.7751	21.9727	72.0656	21.9727	70.5752	21.9727	72.2375	21.9727	70.393	21.9727	72.3781	21.9727	70.2326	21.9727	72.4802	21.9727	70.0971	21.9727	72.538	21.9727	69.9895	21.9727	72.5471	21.9727	69.9121	21.9727	72.5055	21.9727	69.8668	21.9727	72.4138	21.9727	69.8547	21.9727	72.2753	21.9727	69.8765	21.9727	72.0961	21.9727	69.9323	21.9727	71.8846	21.9727	70.0218	21.9727	71.6505	21.9727	70.144	21.9727	71.404	21.9727	70.2971	21.9727	71.1553	21.9727	70.4789	21.9727	70.9133	21.9727	70.6859
22.7051	71.2781	22.7051	71.0272	22.7051	71.5313	22.7051	70.786	22.7051	71.779	22.7051	70.5608	22.7051	72.0127	22.7051	70.3571	22.7051	72.2235	22.7051	70.1798	22.7051	72.4027	22.7051	70.0325	22.7051	72.5422	22.7051	69.9183	22.7051	72.6352	22.7051	69.8391	22.7051	72.6765	22.7051	69.7963	22.7051	72.6637	22.7051	69.7902	22.7051	72.5969	22.7051	69.8206	22.7051	72.4794	22.7051	69.8864	22.7051	72.3171	22.7051	69.9861	22.7051	72.1181	22.7051	70.1176	22.7051	71.8918	22.7051	70.2782	22.7051	71.6481	22.7051	70.4651	22.7051	71.3967	22.7051	70.6748	22.7051	71.146	22.7051	70.9034
23.4375	70.4805	23.4375	70.1841	23.4375	70.7811	23.4375	69.9007	23.4375	71.0769	23.4375	69.6378	23.4375	71.358	23.4375	69.4025	23.4375	71.6148	23.4375	69.2006	23.4375	71.8373	23.4375	69.037	23.4375	72.0168	23.4375	68.9155	23.4375	72.1452	23.4375	68.8388	23.4375	72.217	23.4375	68.8084	23.4375	72.2285	23.4375	68.8247	23.4375	72.1794	23.4375	68.8868	23.4375	72.0719	23.4375	68.9927	23.4375	71.9115	23.4375	69.1395	23.4375	71.7057	23.4375	69.3233	23.4375	71.4637	23.4375	69.5396	23.4375	71.1954	23.4375	69.7832	23.4375	70.911	23.4375	70.0486	23.4375	70.6195	23.4375	70.3296
24.1699	70.0657	24.1699	69.7424	24.1699	70.3888	24.1699	69.4272	24.1699	70.7023	24.1699	69.1279	24.1699	70.9966	24.1699	68.8518	24.1699	71.2613	24.1699	68.6052	24.1699	71.4864	24.1699	68.394	24.1699	71.6621	24.1699	68.2235	24.1699	71.78	24.1699	68.0982	24.1699	71.8336	24.1699	68.0216	24.1699	71.8193	24.1699	67.9963	24.1699	71.7365	24.1699	68.0236	24.1699	71.5884	24.1699	68.1033	24.1699	71.3814	24.1699	68.234	24.1699	71.1247	24.1699	68.4125	24.1699	70.8295	24.1699	68.6344	24.1699	70.508	24.1699	68.8943	24.1699	70.1721	24.1699	69.1857	24.1699	69.8332	24.1699	69.5013
25.6348	69.7885	25.6348	69.3752	25.6348	70.2083	25.6348	68.9801	25.6348	70.6219	25.6348	68.6141	25.6348	71.0162	25.6348	68.2868	25.6348	71.3775	25.6348	68.0069	25.6348	71.6928	25.6348	67.7814	25.6348	71.9495	25.6348	67.6161	25.6348	72.1369	25.6348	67.5149	25.6348	72.2465	25.6348	67.48	25.6348	72.2732	25.6348	67.5117	25.6348	72.2158	25.6348	67.6084	25.6348	72.0767	25.6348	67.7668	25.6348	71.8629	25.6348	67.9821	25.6348	71.5842	25.6348	68.2484	25.6348	71.2531	25.6348	68.5588	25.6348	70.8834	25.6348	68.9056	25.6348	70.4889	25.6348	69.2811	25.6348	70.0826	25.6348	69.6766
26.3672	68.4615	26.3672	67.9128	26.3672	69.016	26.3672	67.3866	26.3672	69.5598	26.3672	66.8988	26.3672	70.0763	26.3672	66.4647	26.3672	70.5495	26.3672	66.0985	26.3672	70.9642	26.3672	65.8123	26.3672	71.3066	26.3672	65.6159	26.3672	71.5649	26.3672	65.5157	26.3672	71.7301	26.3672	65.5146	26.3672	71.7969	26.3672	65.6115	26.3672	71.7634	26.3672	65.8013	26.3672	71.6323	26.3672	66.0757	26.3672	71.41	26.3672	66.4237	26.3672	71.1061	26.3672	66.8326	26.3672	70.7326	26.3672	67.2892	26.3672	70.3029	26.3672	67.7799	26.3672	69.8308	26.3672	68.292	26.3672	69.3298	26.3672	68.8127
27.0996	67.4012	27.0996	66.6973	27.0996	68.0998	27.0996	66.0081	27.0996	68.7734	27.0996	65.355	27.0996	69.4037	27.0996	64.7593	27.0996	69.9732	27.0996	64.2423	27.0996	70.466	27.0996	63.824	27.0996	70.8675	27.0996	63.5219	27.0996	71.1658	27.0996	63.3492	27.0996	71.3516	27.0996	63.3135	27.0996	71.419	27.0996	63.4158	27.0996	71.3662	27.0996	63.6497	27.0996	71.1956	27.0996	64.0032	27.0996	70.9134	27.0996	64.4594	27.0996	70.53	27.0996	64.9989	27.0996	70.0582	27.0996	65.6016	27.0996	69.5129	27.0996	66.2476	27.0996	68.9101	27.0996	66.9184	27.0996	68.266	27.0996	67.5967
27.832	67.6525	27.832	66.8842	27.832	68.4099	27.832	66.1273	27.832	69.1359	27.832	65.4053	27.832	69.8111	27.832	64.743	27.832	70.4177	27.832	64.1657	27.832	70.9395	27.832	63.6973	27.832	71.3617	27.832	63.3587	27.832	71.6722	27.832	63.1652	27.832	71.8615	27.832	63.1249	27.832	71.924	27.832	63.2372	27.832	71.8577	27.832	63.4935	27.832	71.6652	27.832	63.8788	27.832	71.3536	27.832	64.3736	27.832	70.9337	27.832	64.9564	27.832	70.4194	27.832	65.6058	27.832	69.8269	27.832	66.3013	27.832	69.1735	27.832	67.0235	27.832	68.4769	27.832	67.7545
29.2969	70.1975	29.2969	69.5951	29.2969	70.8208	29.2969	69.0347	29.2969	71.4418	29.2969	68.5346	29.2969	72.0373	29.2969	68.1079	29.2969	72.5849	29.2969	67.7631	29.2969	73.064	29.2969	67.5035	29.2969	73.4569	29.2969	67.3291	29.2969	73.7488	29.2969	67.2381	29.2969	73.9289	29.2969	67.2283	29.2969	73.991	29.2969	67.2982	29.2969	73.9336	29.2969	67.4472	29.2969	73.7604	29.2969	67.6745	29.2969	73.4799	29.2969	67.9786	29.2969	73.1045	29.2969	68.3555	29.2969	72.6504	29.2969	68.7986	29.2969	72.1354	29.2969	69.2981	29.2969	71.5784	29.2969	69.8413	29.2969	70.9983	29.2969	70.4134
30.0293	71.5785	30.0293	71.1074	30.0293	72.0894	30.0293	70.6922	30.0293	72.6194	30.0293	70.3427	30.0293	73.1445	30.0293	70.0625	30.0293	73.6402	30.0293	69.8499	30.0293	74.083	30.0293	69.6998	30.0293	74.452	30.0293	69.6063	30.0293	74.7301	30.0293	69.5637	30.0293	74.9048	30.0293	69.5686	30.0293	74.9687	30.0293	69.6197	30.0293	74.9203	30.0293	69.7181	30.0293	74.7638	30.0293	69.8664	30.0293	74.5087	30.0293	70.0677	30.0293	74.1693	30.0293	70.3244	30.0293	73.7633	30.0293	70.6368	30.0293	73.3104	30.0293	71.0025	30.0293	72.8307	30.0293	71.4156	30.0293	72.3436	30.0293	71.8668
31.4941	75.8619	31.4941	75.5198	31.4941	76.23	31.4941	75.2129	31.4941	76.6115	31.4941	74.9462	31.4941	76.9902	31.4941	74.7215	31.4941	77.3482	31.4941	74.5379	31.4941	77.6668	31.4941	74.3932	31.4941	77.9281	31.4941	74.2843	31.4941	78.1164	31.4941	74.2089	31.4941	78.2199	31.4941	74.1652	31.4941	78.2311	31.4941	74.1532	31.4941	78.1483	31.4941	74.1739	31.4941	77.9755	31.4941	74.23	31.4941	77.7223	31.4941	74.3249	31.4941	77.4035	31.4941	74.4627	31.4941	77.037	31.4941	74.6469	31.4941	76.6432	31.4941	74.8797	31.4941	76.2419	31.4941	75.1611	31.4941	75.8516	31.4941	75.4875
32.2266	78.3639	32.2266	78.0966	32.2266	78.6501	32.2266	77.8543	32.2266	78.9464	32.2266	77.6404	32.2266	79.2408	32.2266	77.456	32.2266	79.5194	32.2266	77.3007	32.2266	79.7672	32.2266	77.1734	32.2266	79.9689	32.2266	77.0726	32.2266	80.1112	32.2266	76.9972	32.2266	80.1834	32.2266	76.9467	32.2266	80.1791	32.2266	76.9216	32.2266	80.0969	32.2266	76.9231	32.2266	79.9409	32.2266	76.9536	32.2266	79.7202	32.2266	77.0159	32.2266	79.4483	32.2266	77.1131	32.2266	79.1415	32.2266	77.2484	32.2266	78.8171	32.2266	77.4236	32.2266	78.4916	32.2266	77.639	32.2266	78.1796	32.2266	77.8927
33.6914	81.8984	33.6914	81.7082	33.6914	82.1035	33.6914	81.5365	33.6914	82.3174	33.6914	81.385	33.6914	82.5319	33.6914	81.254	33.6914	82.7362	33.6914	81.1429	33.6914	82.9183	33.6914	81.051	33.6914	83.0659	33.6914	80.9772	33.6914	83.1675	33.6914	80.921	33.6914	83.2144	33.6914	80.8821	33.6914	83.2013	33.6914	80.8611	33.6914	83.1279	33.6914	80.8586	33.6914	82.9988	33.6914	80.8762	33.6914	82.8228	33.6914	80.9155	33.6914	82.6123	33.6914	80.9785	33.6914	82.3813	33.6914	81.067	33.6914	82.1435	33.6914	81.1826	33.6914	81.9109	33.6914	81.326	33.6914	81.6931	33.6914	81.4968
34.4238	83.2803	34.4238	83.0864	34.4238	83.4862	34.4238	82.9089	34.4238	83.6979	34.4238	82.75	34.4238	83.9069	34.4238	82.6107	34.4238	84.1027	34.4238	82.4911	34.4238	84.2738	34.4238	82.3906	34.4238	84.4085	34.4238	82.3089	34.4238	84.4961	34.4238	82.2453	34.4238	84.5287	34.4238	82.1998	34.4238	84.5018	34.4238	82.1726	34.4238	84.4156	34.4238	82.1644	34.4238	84.2752	34.4238	82.1764	34.4238	84.09	34.4238	82.2101	34.4238	83.8727	34.4238	82.2671	34.4238	83.6373	34.4238	82.3493	34.4238	83.3977	34.4238	82.4583	34.4238	83.166	34.4238	82.595	34.4238	82.9513	34.4238	82.7598
35.8887	86.4964	35.8887	86.3137	35.8887	86.6848	35.8887	86.1411	35.8887	86.8735	35.8887	85.9813	35.8887	87.0554	35.8887	85.8363	35.8887	87.222	35.8887	85.7072	35.8887	87.3642	35.8887	85.5947	35.8887	87.4727	35.8887	85.4996	35.8887	87.5392	35.8887	85.4223	35.8887	87.5572	35.8887	85.3635	35.8887	87.5234	35.8887	85.324	35.8887	87.438	35.8887	85.3052	35.8887	87.3052	35.8887	85.3083	35.8887	87.1326	35.8887	85.3351	35.8887	86.9305	35.8887	85.3871	35.8887	86.7107	35.8887	85.4659	35.8887	86.4849	35.8887	85.5726	35.8887	86.264	35.8887	85.7075	35.8887	86.0567	35.8887	85.8697
37.3535	89.0097	37.3535	88.8436	37.3535	89.1801	37.3535	88.686	37.3535	89.3495	37.3535	88.5396	37.3535	89.5115	37.3535	88.4067	37.3535	89.6585	37.3535	88.2887	37.3535	89.7825	37.3535	88.1865	37.3535	89.8753	37.3535	88.101	37.3535	89.9301	37.3535	88.0326	37.3535	89.9415	37.3535	87.9822	37.3535	89.9074	37.3535	87.9502	37.3535	89.8285	37.3535	87.9376	37.3535	89.7092	37.3535	87.9454	37.3535	89.5566	37.3535	87.9743	37.3535	89.38	37.3535	88.0256	37.3535	89.1894	37.3535	88.0998	37.3535	88.9945	37.3535	88.1975	37.3535	88.8038	37.3535	88.3184	37.3535	88.6244	37.3535	88.4614
38.8184	91.1253	38.8184	90.9655	38.8184	91.2875	38.8184	90.8122	38.8184	91.4467	38.8184	90.6686	38.8184	91.5969	38.8184	90.5373	38.8184	91.7312	38.8184	90.4202	38.8184	91.8422	38.8184	90.3186	38.8184	91.9229	38.8184	90.2337	38.8184	91.9672	38.8184	90.1662	38.8184	91.9709	38.8184	90.117	38.8184	91.9325	38.8184	90.0867	38.8184	91.8534	38.8184	90.076	38.8184	91.7381	38.8184	90.0853	38.8184	91.5937	38.8184	90.1154	38.8184	91.4286	38.8184	90.1665	38.8184	91.2521	38.8184	90.239	38.8184	91.0725	38.8184	90.3327	38.8184	90.8971	38.8184	90.447	38.8184	90.7317	38.8184	90.5807
39.5508	92.074	39.5508	91.9135	39.5508	92.2358	39.5508	91.7587	39.5508	92.3937	39.5508	91.6131	39.5508	92.5415	39.5508	91.4793	39.5508	92.6725	39.5508	91.3596	39.5508	92.7796	39.5508	91.2555	39.5508	92.8561	39.5508	91.1683	39.5508	92.8961	39.5508	91.099	39.5508	92.8958	39.5508	91.0483	39.5508	92.854	39.5508	91.0169	39.5508	92.7722	39.5508	91.0054	39.5508	92.6551	39.5508	91.0142	39.5508	92.5098	39.5508	91.0437	39.5508	92.3447	39.5508	91.0943	39.5508	92.1688	39.5508	91.166	39.5508	91.9905	39.5508	91.2587	39.5508	91.8167	39.5508	91.3717	39.5508	91.6531	39.5508	91.5038
41.0156	93.9479	41.0156	93.8023	41.0156	94.0944	41.0156	93.6618	41.0156	94.2368	41.0156	93.5299	41.0156	94.3695	41.0156	93.4092	41.0156	94.4861	41.0156	93.3018	41.0156	94.5801	41.0156	93.2094	41.0156	94.6456	41.0156	93.1332	41.0156	94.6777	41.0156	93.074	41.0156	94.6732	41.0156	93.0325	41.0156	94.6315	41.0156	93.009	41.0156	94.5549	41.0156	93.0038	41.0156	94.4483	41.0156	93.0168	41.0156	94.3186	41.0156	93.0479	41.0156	94.1737	41.0156	93.0967	41.0156	94.0216	41.0156	93.1627	41.0156	93.8692	41.0156	93.2454	41.0156	93.7219	41.0156	93.3438	41.0156	93.5836	41.0156	93.457
42.4805	95.6048	42.4805	95.4444	42.4805	95.7636	42.4805	95.2872	42.4805	95.9157	42.4805	95.1371	42.4805	96.0548	42.4805	94.9975	42.4805	96.1747	42.4805	94.871	42.4805	96.2689	42.4805	94.7598	42.4805	96.3315	42.4805	94.6655	42.4805	96.3576	42.4805	94.5893	42.4805	96.3443	42.4805	94.5321	42.4805	96.291	42.4805	94.4944	42.4805	96.1998	42.4805	94.4766	42.4805	96.0755	42.4805	94.479	42.4805	95.925	42.4805	94.5016	42.4805	95.7566	42.4805	94.5448	42.4805	95.579	42.4805	94.6086	42.4805	95.4007	42.4805	94.6933	42.4805	95.2285	42.4805	94.7987	42.4805	95.0684	42.4805	94.9242
43.9453	97.3719	43.9453	97.2138	43.9453	97.5265	43.9453	97.0567	43.9453	97.6725	43.9453	96.9047	43.9453	97.8044	43.9453	96.7611	43.9453	97.9164	43.9453	96.629	43.9453	98.0026	43.9453	96.5106	43.9453	98.0579	43.9453	96.4083	43.9453	98.0779	43.9453	96.3238	43.9453	98.0603	43.9453	96.2584	43.9453	98.0047	43.9453	96.2134	43.9453	97.9133	43.9453	96.1895	43.9453	97.7904	43.9453	96.1875	43.9453	97.6424	43.9453	96.2079	43.9453	97.477	43.9453	96.2509	43.9453	97.302	43.9453	96.3165	43.9453	97.1251	43.9453	96.4044	43.9453	96.9528	43.9453	96.5138	43.9453	96.7907	43.9453	96.6433
45.4102	98.8263	45.4102	98.6746	45.4102	98.9743	45.4102	98.5236	45.4102	99.1136	45.4102	98.3773	45.4102	99.2389	45.4102	98.2391	45.4102	99.3446	45.4102	98.1119	45.4102	99.4252	45.4102	97.9983	45.4102	99.4757	45.4102	97.9004	45.4102	99.4925	45.4102	97.8198	45.4102	99.4732	45.4102	97.7579	45.4102	99.4178	45.4102	97.7158	45.4102	99.3286	45.4102	97.6942	45.4102	99.2101	45.4102	97.6936	45.4102	99.0687	45.4102	97.7142	45.4102	98.9116	45.4102	97.7562	45.4102	98.7463	45.4102	97.8193	45.4102	98.5799	45.4102	97.903	45.4102	98.4183	45.4102	98.0064	45.4102	98.2665	45.4102	98.1283
47.6074	100.906	47.6074	100.758	47.6074	101.048	47.6074	100.61	47.6074	101.18	47.6074	100.465	47.6074	101.296	47.6074	100.327	47.6074	101.392	47.6074	100.199	47.6074	101.461	47.6074	100.084	47.6074	101.5	47.6074	99.9841	47.6074	101.505	47.6074	99.9011	47.6074	101.475	47.6074	99.8362	47.6074	101.409	47.6074	99.7906	47.6074	101.312	47.6074	99.7647	47.6074	101.187	47.6074	99.7589	47.6074	101.042	47.6074	99.7732	47.6074	100.884	47.6074	99.8074	47.6074	100.721	47.6074	99.8614	47.6074	100.56	47.6074	99.9348	47.6074	100.406	47.6074	100.027	47.6074	100.264	47.6074	100.137
49.0723	102.143	49.0723	101.997	49.0723	102.283	49.0723	101.85	49.0723	102.412	49.0723	101.706	49.0723	102.526	49.0723	101.568	49.0723	102.619	49.0723	101.44	49.0723	102.687	49.0723	101.323	49.0723	102.725	49.0723	101.221	49.0723	102.729	49.0723	101.135	49.0723	102.697	49.0723	101.067	49.0723	102.632	49.0723	101.018	49.0723	102.534	49.0723	100.988	49.0723	102.409	49.0723	100.978	49.0723	102.263	49.0723	100.988	49.0723	102.103	49.0723	101.018	49.0723	101.938	49.0723	101.069	49.0723	101.774	49.0723	101.14	49.0723	101.617	49.0723	101.232	49.0723	101.472	49.0723	101.343
50.5371	103.246	50.5371	103.102	50.5371	103.385	50.5371	102.957	50.5371	103.514	50.5371	102.815	50.5371	103.628	50.5371	102.68	50.5371	103.721	50.5371	102.555	50.5371	103.79	50.5371	102.443	50.5371	103.829	50.5371	102.346	50.5371	103.836	50.5371	102.265	50.5371	103.809	50.5371	102.203	50.5371	103.748	50.5371	102.159	50.5371	103.657	50.5371	102.136	50.5371	103.54	50.5371	102.132	50.5371	103.403	50.5371	102.148	50.5371	103.253	50.5371	102.184	50.5371	103.096	50.5371	102.24	50.5371	102.939	50.5371	102.315	50.5371	102.788	50.5371	102.409	50.5371	102.648	50.5371	102.52
52.7344	104.661	52.7344	104.517	52.7344	104.799	52.7344	104.372	52.7344	104.927	52.7344	104.23	52.7344	105.038	52.7344	104.094	52.7344	105.129	52.7344	103.969	52.7344	105.194	52.7344	103.858	52.7344	105.23	52.7344	103.761	52.7344	105.234	52.7344	103.683	52.7344	105.205	52.7344	103.623	52.7344	105.144	52.7344	103.582	52.7344	105.055	52.7344	103.562	52.7344	104.941	52.7344	103.562	52.7344	104.808	52.7344	103.581	52.7344	104.664	52.7344	103.621	52.7344	104.513	52.7344	103.679	52.7344	104.363	52.7344	103.755	52.7344	104.218	52.7344	103.849	52.7344	104.082	52.7344	103.958
54.1992	105.491	54.1992	105.346	54.1992	105.629	54.1992	105.2	54.1992	105.755	54.1992	105.055	54.1992	105.864	54.1992	104.918	54.1992	105.953	54.1992	104.79	54.1992	106.015	54.1992	104.675	54.1992	106.048	54.1992	104.576	54.1992	106.049	54.1992	104.495	54.1992	106.017	54.1992	104.433	54.1992	105.954	54.1992	104.391	54.1992	105.862	54.1992	104.369	54.1992	105.747	54.1992	104.369	54.1992	105.615	54.1992	104.389	54.1992	105.471	54.1992	104.428	54.1992	105.321	54.1992	104.487	54.1992	105.172	54.1992	104.564	54.1992	105.028	54.1992	104.659	54.1992	104.893	54.1992	104.769
56.3965	106.654	56.3965	106.51	56.3965	106.791	56.3965	106.363	56.3965	106.916	56.3965	106.218	56.3965	107.023	56.3965	106.079	56.3965	107.108	56.3965	105.949	56.3965	107.167	56.3965	105.831	56.3965	107.196	56.3965	105.729	56.3965	107.193	56.3965	105.643	56.3965	107.157	56.3965	105.577	56.3965	107.091	56.3965	105.53	56.3965	106.996	56.3965	105.504	56.3965	106.877	56.3965	105.499	56.3965	106.741	56.3965	105.515	56.3965	106.594	56.3965	105.551	56.3965	106.442	56.3965	105.606	56.3965	106.29	56.3965	105.681	56.3965	106.144	56.3965	105.774	56.3965	106.007	56.3965	105.883
58.5938	107.524	58.5938	107.383	58.5938	107.657	58.5938	107.239	58.5938	107.778	58.5938	107.097	58.5938	107.882	58.5938	106.96	58.5938	107.963	58.5938	106.834	58.5938	108.019	58.5938	106.72	58.5938	108.046	58.5938	106.621	58.5938	108.043	58.5938	106.541	58.5938	108.009	58.5938	106.479	58.5938	107.946	58.5938	106.438	58.5938	107.857	58.5938	106.418	58.5938	107.747	58.5938	106.419	58.5938	107.621	58.5938	106.44	58.5938	107.484	58.5938	106.481	58.5938	107.343	58.5938	106.54	58.5938	107.202	58.5938	106.617	58.5938	107.065	58.5938	106.709	58.5938	106.936	58.5938	106.816
60.0586	107.985	60.0586	107.842	60.0586	108.119	60.0586	107.697	60.0586	108.241	60.0586	107.552	60.0586	108.344	60.0586	107.413	60.0586	108.425	60.0586	107.283	60.0586	108.48	60.0586	107.166	60.0586	108.505	60.0586	107.065	60.0586	108.5	60.0586	106.983	60.0586	108.464	60.0586	106.92	60.0586	108.398	60.0586	106.878	60.0586	108.307	60.0586	106.858	60.0586	108.194	60.0586	106.859	60.0586	108.067	60.0586	106.88	60.0586	107.93	60.0586	106.922	60.0586	107.788	60.0586	106.983	60.0586	107.647	60.0586	107.06	60.0586	107.51	60.0586	107.154	60.0586	107.381	60.0586	107.261
62.2559	108.781	62.2559	108.638	62.2559	108.916	62.2559	108.49	62.2559	109.037	62.2559	108.343	62.2559	109.14	62.2559	108.201	62.2559	109.219	62.2559	108.068	62.2559	109.272	62.2559	107.947	62.2559	109.295	62.2559	107.842	62.2559	109.286	62.2559	107.754	62.2559	109.245	62.2559	107.686	62.2559	109.176	62.2559	107.639	62.2559	109.08	62.2559	107.613	62.2559	108.963	62.2559	107.609	62.2559	108.83	62.2559	107.627	62.2559	108.688	62.2559	107.665	62.2559	108.542	62.2559	107.723	62.2559	108.397	62.2559	107.8	62.2559	108.256	62.2559	107.893	62.2559	108.123	62.2559	108.001
64.4531	109.356	64.4531	109.214	64.4531	109.488	64.4531	109.068	64.4531	109.607	64.4531	108.923	64.4531	109.706	64.4531	108.782	64.4531	109.783	64.4531	108.651	64.4531	109.833	64.4531	108.533	64.4531	109.853	64.4531	108.431	64.4531	109.844	64.4531	108.347	64.4531	109.804	64.4531	108.283	64.4531	109.737	64.4531	108.241	64.4531	109.647	64.4531	108.221	64.4531	109.536	64.4531	108.222	64.4531	109.412	64.4531	108.245	64.4531	109.28	64.4531	108.288	64.4531	109.143	64.4531	108.349	64.4531	109.006	64.4531	108.428	64.4531	108.873	64.4531	108.521	64.4531	108.746	64.4531	108.628
66.6504	109.849	66.6504	109.707	66.6504	109.98	66.6504	109.561	66.6504	110.097	66.6504	109.414	66.6504	110.193	66.6504	109.272	66.6504	110.266	66.6504	109.139	66.6504	110.312	66.6504	109.018	66.6504	110.328	66.6504	108.913	66.6504	110.314	66.6504	108.827	66.6504	110.27	66.6504	108.76	66.6504	110.199	66.6504	108.715	66.6504	110.104	66.6504	108.692	66.6504	109.991	66.6504	108.691	66.6504	109.865	66.6504	108.711	66.6504	109.732	66.6504	108.752	66.6504	109.595	66.6504	108.811	66.6504	109.459	66.6504	108.888	66.6504	109.327	66.6504	108.98	66.6504	109.201	66.6504	109.085
69.5801	110.528	69.5801	110.387	69.5801	110.658	69.5801	110.24	69.5801	110.77	69.5801	110.091	69.5801	110.861	69.5801	109.945	69.5801	110.927	69.5801	109.807	69.5801	110.965	69.5801	109.681	69.5801	110.972	69.5801	109.571	69.5801	110.949	69.5801	109.479	69.5801	110.896	69.5801	109.408	69.5801	110.817	69.5801	109.358	69.5801	110.715	69.5801	109.331	69.5801	110.595	69.5801	109.326	69.5801	110.464	69.5801	109.342	69.5801	110.327	69.5801	109.378	69.5801	110.189	69.5801	109.433	69.5801	110.053	69.5801	109.504	69.5801	109.923	69.5801	109.59	69.5801	109.802	69.5801	109.69
71.7773	110.988	71.7773	110.853	71.7773	111.112	71.7773	110.711	71.7773	111.22	71.7773	110.567	71.7773	111.308	71.7773	110.426	71.7773	111.371	71.7773	110.292	71.7773	111.407	71.7773	110.169	71.7773	111.414	71.7773	110.06	71.7773	111.391	71.7773	109.967	71.7773	111.338	71.7773	109.894	71.7773	111.26	71.7773	109.84	71.7773	111.159	71.7773	109.808	71.7773	111.041	71.7773	109.797	71.7773	110.911	71.7773	109.807	71.7773	110.775	71.7773	109.838	71.7773	110.637	71.7773	109.888	71.7773	110.502	71.7773	109.956	71.7773	110.372	71.7773	110.04	71.7773	110.25	71.7773	110.138
73.9746	111.366	73.9746	111.23	73.9746	111.493	73.9746	111.089	73.9746	111.605	73.9746	110.948	73.9746	111.697	73.9746	110.813	73.9746	111.764	73.9746	110.687	73.9746	111.805	73.9746	110.575	73.9746	111.816	73.9746	110.48	73.9746	111.797	73.9746	110.403	73.9746	111.751	73.9746	110.346	73.9746	111.679	73.9746	110.31	73.9746	111.587	73.9746	110.295	73.9746	111.481	73.9746	110.301	73.9746	111.365	73.9746	110.325	73.9746	111.244	73.9746	110.367	73.9746	111.122	73.9746	110.424	73.9746	111.003	73.9746	110.496	73.9746	110.887	73.9746	110.58	73.9746	110.777	73.9746	110.674
76.9043	111.887	76.9043	111.743	76.9043	112.019	76.9043	111.593	76.9043	112.134	76.9043	111.442	76.9043	112.226	76.9043	111.297	76.9043	112.292	76.9043	111.162	76.9043	112.329	76.9043	111.042	76.9043	112.335	76.9043	110.941	76.9043	112.31	76.9043	110.862	76.9043	112.257	76.9043	110.806	76.9043	112.18	76.9043	110.774	76.9043	112.082	76.9043	110.765	76.9043	111.971	76.9043	110.779	76.9043	111.852	76.9043	110.813	76.9043	111.73	76.9043	110.863	76.9043	111.611	76.9043	110.928	76.9043	111.495	76.9043	111.004	76.9043	111.385	76.9043	111.089	76.9043	111.28	76.9043	111.182
79.834	112.525	79.834	112.386	79.834	112.65	79.834	112.238	79.834	112.754	79.834	112.086	79.834	112.835	79.834	111.936	79.834	112.888	79.834	111.792	79.834	112.912	79.834	111.661	79.834	112.904	79.834	111.546	79.834	112.866	79.834	111.45	79.834	112.8	79.834	111.376	79.834	112.709	79.834	111.326	79.834	112.599	79.834	111.299	79.834	112.476	79.834	111.295	79.834	112.345	79.834	111.312	79.834	112.211	79.834	111.348	79.834	112.081	79.834	111.4	79.834	111.956	79.834	111.466	79.834	111.839	79.834	111.544	79.834	111.731	79.834	111.633
82.7637	112.879	82.7637	112.736	82.7637	113.009	82.7637	112.585	82.7637	113.121	82.7637	112.43	82.7637	113.21	82.7637	112.277	82.7637	113.272	82.7637	112.131	82.7637	113.305	82.7637	111.995	82.7637	113.306	82.7637	111.873	82.7637	113.275	82.7637	111.769	82.7637	113.213	82.7637	111.683	82.7637	113.123	82.7637	111.618	82.7637	113.01	82.7637	111.575	82.7637	112.878	82.7637	111.555	82.7637	112.733	82.7637	111.558	82.7637	112.582	82.7637	111.582	82.7637	112.428	82.7637	111.628	82.7637	112.277	82.7637	111.694	82.7637	112.134	82.7637	111.78	82.7637	112.001	82.7637	111.883
85.6934	112.968	85.6934	112.811	85.6934	113.113	85.6934	112.65	85.6934	113.241	85.6934	112.489	85.6934	113.348	85.6934	112.335	85.6934	113.428	85.6934	112.192	85.6934	113.479	85.6934	112.066	85.6934	113.5	85.6934	111.96	85.6934	113.489	85.6934	111.875	85.6934	113.448	85.6934	111.815	85.6934	113.381	85.6934	111.779	85.6934	113.289	85.6934	111.768	85.6934	113.179	85.6934	111.779	85.6934	113.054	85.6934	111.813	85.6934	112.919	85.6934	111.866	85.6934	112.78	85.6934	111.938	85.6934	112.639	85.6934	112.026	85.6934	112.5	85.6934	112.128	85.6934	112.367	85.6934	112.242
88.623	112.948	88.623	112.794	88.623	113.092	88.623	112.637	88.623	113.222	88.623	112.483	88.623	113.331	88.623	112.338	88.623	113.418	88.623	112.209	88.623	113.48	88.623	112.101	88.623	113.515	88.623	112.017	88.623	113.526	88.623	111.96	88.623	113.513	88.623	111.931	88.623	113.479	88.623	111.929	88.623	113.425	88.623	111.952	88.623	113.355	88.623	111.998	88.623	113.271	88.623	112.064	88.623	113.173	88.623	112.146	88.623	113.066	88.623	112.242	88.623	112.95	88.623	112.349	88.623	112.829	88.623	112.463	88.623	112.706	88.623	112.583
91.5527	112.932	91.5527	112.773	91.5527	113.077	91.5527	112.607	91.5527	113.203	91.5527	112.441	91.5527	113.307	91.5527	112.284	91.5527	113.385	91.5527	112.142	91.5527	113.437	91.5527	112.025	91.5527	113.465	91.5527	111.938	91.5527	113.472	91.5527	111.886	91.5527	113.463	91.5527	111.871	91.5527	113.441	91.5527	111.895	91.5527	113.412	91.5527	111.954	91.5527	113.378	91.5527	112.045	91.5527	113.339	91.5527	112.16	91.5527	113.293	91.5527	112.294	91.5527	113.238	91.5527	112.438	91.5527	113.169	91.5527	112.585	91.5527	113.084	91.5527	112.728	91.5527	112.981	91.5527	112.861
94.4824	113.305	94.4824	113.141	94.4824	113.448	94.4824	112.962	94.4824	113.565	94.4824	112.776	94.4824	113.652	94.4824	112.588	94.4824	113.706	94.4824	112.406	94.4824	113.724	94.4824	112.237	94.4824	113.709	94.4824	112.086	94.4824	113.66	94.4824	111.959	94.4824	113.584	94.4824	111.861	94.4824	113.485	94.4824	111.794	94.4824	113.368	94.4824	111.76	94.4824	113.241	94.4824	111.759	94.4824	113.108	94.4824	111.791	94.4824	112.973	94.4824	111.851	94.4824	112.837	94.4824	111.936	94.4824	112.7	94.4824	112.041	94.4824	112.562	94.4824	112.161	94.4824	112.425	94.4824	112.291
98.1445	112.818	98.1445	112.65	98.1445	112.965	98.1445	112.469	98.1445	113.088	98.1445	112.283	98.1445	113.18	98.1445	112.099	98.1445	113.24	98.1445	111.926	98.1445	113.267	98.1445	111.771	98.1445	113.263	98.1445	111.641	98.1445	113.23	98.1445	111.542	98.1445	113.172	98.1445	111.476	98.1445	113.097	98.1445	111.446	98.1445	113.008	98.1445	111.45	98.1445	112.912	98.1445	111.487	98.1445	112.811	98.1445	111.552	98.1445	112.707	98.1445	111.641	98.1445	112.6	98.1445	111.748	98.1445	112.488	98.1445	111.867	98.1445	112.371	98.1445	111.994	98.1445	112.249	98.1445	112.122
101.807	112.619	101.807	112.452	101.807	112.763	101.807	112.269	101.807	112.88	101.807	112.078	101.807	112.965	101.807	111.887	101.807	113.017	101.807	111.706	101.807	113.036	101.807	111.544	101.807	113.024	101.807	111.407	101.807	112.984	101.807	111.302	101.807	112.923	101.807	111.234	101.807	112.846	101.807	111.205	101.807	112.76	101.807	111.214	101.807	112.671	101.807	111.258	101.807	112.58	101.807	111.334	101.807	112.488	101.807	111.434	101.807	112.394	101.807	111.551	101.807	112.294	101.807	111.68	101.807	112.186	101.807	111.812	101.807	112.069	101.807	111.944
105.469	112.248	105.469	112.076	105.469	112.393	105.469	111.886	105.469	112.506	105.469	111.684	105.469	112.584	105.469	111.48	105.469	112.625	105.469	111.284	105.469	112.631	105.469	111.106	105.469	112.602	105.469	110.957	105.469	112.546	105.469	110.843	105.469	112.468	105.469	110.77	105.469	112.377	105.469	110.742	105.469	112.281	105.469	110.759	105.469	112.187	105.469	110.815	105.469	112.1	105.469	110.906	105.469	112.019	105.469	111.022	105.469	111.941	105.469	111.153	105.469	111.861	105.469	111.292	105.469	111.772	105.469	111.428	105.469	111.671	105.469	111.556
109.131	112.17	109.131	112.006	109.131	112.305	109.131	111.818	109.131	112.406	109.131	111.615	109.131	112.47	109.131	111.405	109.131	112.495	109.131	111.197	109.131	112.483	109.131	111.002	109.131	112.435	109.131	110.829	109.131	112.357	109.131	110.687	109.131	112.255	109.131	110.584	109.131	112.137	109.131	110.524	109.131	112.012	109.131	110.509	109.131	111.889	109.131	110.537	109.131	111.773	109.131	110.602	109.131	111.667	109.131	110.696	109.131	111.569	109.131	110.81	109.131	111.476	109.131	110.932	109.131	111.382	109.131	111.056	109.131	111.283	109.131	111.174
112.793	112.063	112.793	111.912	112.793	112.185	112.793	111.737	112.793	112.274	112.793	111.545	112.793	112.326	112.793	111.343	112.793	112.341	112.793	111.141	112.793	112.319	112.793	110.948	112.793	112.262	112.793	110.772	112.793	112.175	112.793	110.623	112.793	112.065	112.793	110.508	112.793	111.941	112.793	110.433	112.793	111.811	112.793	110.4	112.793	111.684	112.793	110.41	112.793	111.565	112.793	110.457	112.793	111.457	112.793	110.535	112.793	111.36	112.793	110.635	112.793	111.268	112.793	110.746	112.793	111.176	112.793	110.862	112.793	111.079	112.793	110.974
116.455	111.97	116.455	111.824	116.455	112.087	116.455	111.654	116.455	112.17	116.455	111.466	116.455	112.218	116.455	111.269	116.455	112.229	116.455	111.07	116.455	112.203	116.455	110.878	116.455	112.142	116.455	110.702	116.455	112.052	116.455	110.55	116.455	111.938	116.455	110.43	116.455	111.808	116.455	110.348	116.455	111.671	116.455	110.305	116.455	111.535	116.455	110.302	116.455	111.407	116.455	110.336	116.455	111.29	116.455	110.4	116.455	111.183	116.455	110.485	116.455	111.085	116.455	110.584	116.455	110.989	116.455	110.689	116.455	110.893	116.455	110.793
120.85	111.638	120.85	111.488	120.85	111.759	120.85	111.316	120.85	111.848	120.85	111.128	120.85	111.902	120.85	110.932	120.85	111.919	120.85	110.738	120.85	111.9	120.85	110.553	120.85	111.847	120.85	110.388	120.85	111.766	120.85	110.251	120.85	111.663	120.85	110.148	120.85	111.548	120.85	110.086	120.85	111.428	120.85	110.065	120.85	111.312	120.85	110.085	120.85	111.206	120.85	110.141	120.85	111.111	120.85	110.226	120.85	111.025	120.85	110.33	120.85	110.943	120.85	110.444	120.85	110.859	120.85	110.559	120.85	110.769	120.85	110.669
125.244	111.382	125.244	111.222	125.244	111.512	125.244	111.036	125.244	111.605	125.244	110.833	125.244	111.658	125.244	110.619	125.244	111.67	125.244	110.405	125.244	111.64	125.244	110.199	125.244	111.572	125.244	110.01	125.244	111.471	125.244	109.847	125.244	111.343	125.244	109.718	125.244	111.2	125.244	109.628	125.244	111.05	125.244	109.583	125.244	110.903	125.244	109.581	125.244	110.768	125.244	109.619	125.244	110.646	125.244	109.691	125.244	110.538	125.244	109.788	125.244	110.438	125.244	109.9	125.244	110.341	125.244	110.017	125.244	110.239	125.244	110.131
129.639	111.259	129.639	111.101	129.639	111.386	129.639	110.919	129.639	111.479	129.639	110.72	129.639	111.532	129.639	110.512	129.639	111.545	129.639	110.303	129.639	111.517	129.639	110.102	129.639	111.451	129.639	109.917	129.639	111.35	129.639	109.756	129.639	111.22	129.639	109.625	129.639	111.07	129.639	109.53	129.639	110.909	129.639	109.474	129.639	110.747	129.639	109.456	129.639	110.592	129.639	109.475	129.639	110.448	129.639	109.524	129.639	110.319	129.639	109.598	129.639	110.202	129.639	109.688	129.639	110.095	129.639	109.786	129.639	109.991	129.639	109.888
134.033	111.091	134.033	110.929	134.033	111.223	134.033	110.745	134.033	111.321	134.033	110.545	134.033	111.381	134.033	110.339	134.033	111.403	134.033	110.135	134.033	111.385	134.033	109.942	134.033	111.333	134.033	109.77	134.033	111.25	134.033	109.627	134.033	111.142	134.033	109.518	134.033	111.019	134.033	109.448	134.033	110.887	134.033	109.419	134.033	110.755	134.033	109.429	134.033	110.627	134.033	109.475	134.033	110.507	134.033	109.549	134.033	110.396	134.033	109.644	134.033	110.29	134.033	109.751	134.033	110.187	134.033	109.863	134.033	110.083	134.033	109.975
138.428	110.953	138.428	110.788	138.428	111.087	138.428	110.597	138.428	111.184	138.428	110.39	138.428	111.241	138.428	110.175	138.428	111.257	138.428	109.962	138.428	111.234	138.428	109.761	138.428	111.175	138.428	109.583	138.428	111.085	138.428	109.435	138.428	110.973	138.428	109.324	138.428	110.846	138.428	109.256	138.428	110.714	138.428	109.231	138.428	110.584	138.428	109.249	138.428	110.461	138.428	109.303	138.428	110.348	138.428	109.387	138.428	110.245	138.428	109.491	138.428	110.146	138.428	109.606	138.428	110.049	138.428	109.725	138.428	109.947	138.428	109.839
143.555	110.746	143.555	110.575	143.555	110.882	143.555	110.377	143.555	110.98	143.555	110.16	143.555	111.035	143.555	109.935	143.555	111.049	143.555	109.712	143.555	111.022	143.555	109.504	143.555	110.96	143.555	109.32	143.555	110.869	143.555	109.172	143.555	110.759	143.555	109.066	143.555	110.637	143.555	109.007	143.555	110.514	143.555	108.996	143.555	110.395	143.555	109.03	143.555	110.286	143.555	109.103	143.555	110.188	143.555	109.204	143.555	110.096	143.555	109.325	143.555	110.007	143.555	109.454	143.555	109.915	143.555	109.583	143.555	109.815	143.555	109.704
148.682	110.566	148.682	110.393	148.682	110.7	148.682	110.185	148.682	110.788	148.682	109.954	148.682	110.83	148.682	109.708	148.682	110.825	148.682	109.462	148.682	110.778	148.682	109.227	148.682	110.696	148.682	109.019	148.682	110.587	148.682	108.849	148.682	110.463	148.682	108.727	148.682	110.334	148.682	108.661	148.682	110.211	148.682	108.652	148.682	110.102	148.682	108.696	148.682	110.008	148.682	108.786	148.682	109.927	148.682	108.909	148.682	109.854	148.682	109.052	148.682	109.78	148.682	109.203	148.682	109.697	148.682	109.35	148.682	109.6	148.682	109.484
153.809	110.475	153.809	110.314	153.809	110.59	153.809	110.113	153.809	110.655	153.809	109.88	153.809	110.668	153.809	109.625	153.809	110.63	153.809	109.36	153.809	110.545	153.809	109.099	153.809	110.419	153.809	108.858	153.809	110.264	153.809	108.65	153.809	110.091	153.809	108.489	153.809	109.918	153.809	108.385	153.809	109.759	153.809	108.343	153.809	109.625	153.809	108.362	153.809	109.522	153.809	108.435	153.809	109.447	153.809	108.549	153.809	109.391	153.809	108.688	153.809	109.34	153.809	108.835	153.809	109.281	153.809	108.977	153.809	109.204	153.809	109.102
159.668	110.521	159.668	110.364	159.668	110.636	159.668	110.171	159.668	110.706	159.668	109.949	159.668	110.727	159.668	109.708	159.668	110.7	159.668	109.458	159.668	110.626	159.668	109.21	159.668	110.509	159.668	108.977	159.668	110.356	159.668	108.772	159.668	110.178	159.668	108.607	159.668	109.988	159.668	108.492	159.668	109.801	159.668	108.432	159.668	109.63	159.668	108.426	159.668	109.485	159.668	108.471	159.668	109.371	159.668	108.554	159.668	109.283	159.668	108.662	159.668	109.214	159.668	108.779	159.668	109.15	159.668	108.894	159.668	109.08	159.668	108.995
164.795	110.49	164.795	110.339	164.795	110.597	164.795	110.153	164.795	110.659	164.795	109.937	164.795	110.671	164.795	109.701	164.795	110.635	164.795	109.455	164.795	110.553	164.795	109.211	164.795	110.431	164.795	108.98	164.795	110.278	164.795	108.775	164.795	110.104	164.795	108.607	164.795	109.921	164.795	108.485	164.795	109.744	164.795	108.418	164.795	109.583	164.795	108.405	164.795	109.448	164.795	108.442	164.795	109.34	164.795	108.521	164.795	109.257	164.795	108.627	164.795	109.189	164.795	108.744	164.795	109.124	164.795	108.86	164.795	109.051	164.795	108.964
170.654	110.18	170.654	110.027	170.654	110.29	170.654	109.838	170.654	110.353	170.654	109.621	170.654	110.366	170.654	109.386	170.654	110.33	170.654	109.146	170.654	110.248	170.654	108.911	170.654	110.126	170.654	108.693	170.654	109.975	170.654	108.506	170.654	109.805	170.654	108.359	170.654	109.63	170.654	108.259	170.654	109.465	170.654	108.212	170.654	109.319	170.654	108.217	170.654	109.201	170.654	108.269	170.654	109.112	170.654	108.357	170.654	109.046	170.654	108.467	170.654	108.994	170.654	108.586	170.654	108.942	170.654	108.7	170.654	108.879	170.654	108.799
176.514	109.983	176.514	109.825	176.514	110.095	176.514	109.627	176.514	110.155	176.514	109.399	176.514	110.162	176.514	109.153	176.514	110.118	176.514	108.902	176.514	110.028	176.514	108.659	176.514	109.9	176.514	108.439	176.514	109.744	176.514	108.254	176.514	109.574	176.514	108.117	176.514	109.404	176.514	108.033	176.514	109.247	176.514	108.005	176.514	109.113	176.514	108.032	176.514	109.007	176.514	108.103	176.514	108.93	176.514	108.208	176.514	108.876	176.514	108.33	176.514	108.835	176.514	108.456	176.514	108.794	176.514	108.571	176.514	108.741	176.514	108.667
183.105	109.688	183.105	109.528	183.105	109.795	183.105	109.32	183.105	109.843	183.105	109.073	183.105	109.835	183.105	108.8	183.105	109.771	183.105	108.517	183.105	109.658	183.105	108.239	183.105	109.507	183.105	107.985	183.105	109.329	183.105	107.775	183.105	109.142	183.105	107.621	183.105	108.963	183.105	107.536	183.105	108.806	183.105	107.52	183.105	108.683	183.105	107.569	183.105	108.598	183.105	107.67	183.105	108.546	183.105	107.805	183.105	108.517	183.105	107.956	183.105	108.496	183.105	108.105	183.105	108.467	183.105	108.237	183.105	108.419	183.105	108.343
189.697	109.668	189.697	109.514	189.697	109.765	189.697	109.308	189.697	109.801	189.697	109.055	189.697	109.776	189.697	108.768	189.697	109.694	189.697	108.457	189.697	109.559	189.697	108.14	189.697	109.38	189.697	107.835	189.697	109.17	189.697	107.564	189.697	108.946	189.697	107.349	189.697	108.729	189.697	107.21	189.697	108.54	189.697	107.155	189.697	108.395	189.697	107.187	189.697	108.302	189.697	107.292	189.697	108.256	189.697	107.449	189.697	108.244	189.697	107.632	189.697	108.243	189.697	107.815	189.697	108.23	189.697	107.978	189.697	108.188	189.697	108.104
196.289	109.719	196.289	109.583	196.289	109.8	196.289	109.398	196.289	109.824	196.289	109.172	196.289	109.791	196.289	108.914	196.289	109.703	196.289	108.634	196.289	109.565	196.289	108.345	196.289	109.386	196.289	108.063	196.289	109.18	196.289	107.803	196.289	108.961	196.289	107.584	196.289	108.748	196.289	107.423	196.289	108.557	196.289	107.331	196.289	108.405	196.289	107.316	196.289	108.297	196.289	107.371	196.289	108.233	196.289	107.482	196.289	108.203	196.289	107.627	196.289	108.187	196.289	107.783	196.289	108.166	196.289	107.926	196.289	108.121	196.289	108.041
202.881	109.48	202.881	109.345	202.881	109.556	202.881	109.156	202.881	109.569	202.881	108.922	202.881	109.518	202.881	108.655	202.881	109.407	202.881	108.366	202.881	109.242	202.881	108.071	202.881	109.036	202.881	107.785	202.881	108.803	202.881	107.527	202.881	108.563	202.881	107.314	202.881	108.338	202.881	107.163	202.881	108.15	202.881	107.085	202.881	108.015	202.881	107.084	202.881	107.937	202.881	107.153	202.881	107.911	202.881	107.276	202.881	107.92	202.881	107.431	202.881	107.94	202.881	107.593	202.881	107.946	202.881	107.739	202.881	107.919	202.881	107.851
210.205	109.337	210.205	109.206	210.205	109.41	210.205	109.022	210.205	109.42	210.205	108.793	210.205	109.368	210.205	108.529	210.205	109.254	210.205	108.24	210.205	109.085	210.205	107.941	210.205	108.869	210.205	107.646	210.205	108.621	210.205	107.372	210.205	108.357	210.205	107.139	210.205	108.101	210.205	106.965	210.205	107.876	210.205	106.862	210.205	107.702	210.205	106.839	210.205	107.592	210.205	106.889	210.205	107.544	210.205	106.997	210.205	107.544	210.205	107.141	210.205	107.567	210.205	107.291	210.205	107.585	210.205	107.425	210.205	107.574	210.205	107.522
217.529	109.186	217.529	109.055	217.529	109.259	217.529	108.872	217.529	109.27	217.529	108.646	217.529	109.217	217.529	108.387	217.529	109.103	217.529	108.106	217.529	108.932	217.529	107.817	217.529	108.712	217.529	107.534	217.529	108.459	217.529	107.273	217.529	108.189	217.529	107.051	217.529	107.925	217.529	106.884	217.529	107.691	217.529	106.784	217.529	107.508	217.529	106.757	217.529	107.39	217.529	106.798	217.529	107.337	217.529	106.892	217.529	107.337	217.529	107.019	217.529	107.364	217.529	107.153	217.529	107.39	217.529	107.269	217.529	107.39	217.529	107.351
225.586	109.1	225.586	108.97	225.586	109.167	225.586	108.783	225.586	109.167	225.586	108.55	225.586	109.098	225.586	108.281	225.586	108.965	225.586	107.989	225.586	108.773	225.586	107.689	225.586	108.536	225.586	107.396	225.586	108.268	225.586	107.127	225.586	107.99	225.586	106.901	225.586	107.726	225.586	106.736	225.586	107.499	225.586	106.645	225.586	107.327	225.586	106.636	225.586	107.225	225.586	106.702	225.586	107.194	225.586	106.825	225.586	107.219	225.586	106.979	225.586	107.275	225.586	107.132	225.586	107.331	225.586	107.257	225.586	107.357	225.586	107.335
232.91	109.29	232.91	109.178	232.91	109.34	232.91	109.012	232.91	109.325	232.91	108.802	232.91	109.242	232.91	108.558	232.91	109.093	232.91	108.291	232.91	108.885	232.91	108.015	232.91	108.627	232.91	107.74	232.91	108.336	232.91	107.479	232.91	108.031	232.91	107.244	232.91	107.734	232.91	107.049	232.91	107.469	232.91	106.906	232.91	107.256	232.91	106.827	232.91	107.109	232.91	106.813	232.91	107.033	232.91	106.856	232.91	107.02	232.91	106.935	232.91	107.052	232.91	107.026	232.91	107.1	232.91	107.1	232.91	107.136	232.91	107.138
241.699	109.266	241.699	109.131	241.699	109.337	241.699	108.944	241.699	109.34	241.699	108.713	241.699	109.273	241.699	108.453	241.699	109.136	241.699	108.176	241.699	108.937	241.699	107.897	241.699	108.689	241.699	107.628	241.699	108.411	241.699	107.384	241.699	108.125	241.699	107.178	241.699	107.856	241.699	107.022	241.699	107.628	241.699	106.925	241.699	107.456	241.699	106.894	241.699	107.35	241.699	106.925	241.699	107.306	241.699	107.006	241.699	107.311	241.699	107.115	241.699	107.344	241.699	107.229	241.699	107.381	241.699	107.323	241.699	107.399	241.699	107.382
249.756	109.092	249.756	108.919	249.756	109.197	249.756	108.694	249.756	109.225	249.756	108.43	249.756	109.17	249.756	108.144	249.756	109.031	249.756	107.854	249.756	108.812	249.756	107.573	249.756	108.523	249.756	107.314	249.756	108.183	249.756	107.087	249.756	107.822	249.756	106.9	249.756	107.471	249.756	106.761	249.756	107.168	249.756	106.674	249.756	106.944	249.756	106.644	249.756	106.818	249.756	106.669	249.756	106.79	249.756	106.739	249.756	106.836	249.756	106.838	249.756	106.922	249.756	106.943	249.756	107.009	249.756	107.027	249.756	107.064	249.756	107.071
258.545	109.179	258.545	108.978	258.545	109.304	258.545	108.714	258.545	109.346	258.545	108.402	258.545	109.303	258.545	108.063	258.545	109.176	258.545	107.719	258.545	108.974	258.545	107.392	258.545	108.708	258.545	107.102	258.545	108.4	258.545	106.864	258.545	108.074	258.545	106.686	258.545	107.759	258.545	106.571	258.545	107.478	258.545	106.519	258.545	107.252	258.545	106.524	258.545	107.089	258.545	106.577	258.545	106.992	258.545	106.666	258.545	106.954	258.545	106.773	258.545	106.961	258.545	106.876	258.545	106.988	258.545	106.957	258.545	107.009	258.545	107.002
268.066	108.913	268.066	108.708	268.066	109.035	268.066	108.432	268.066	109.068	268.066	108.099	268.066	109.012	268.066	107.729	268.066	108.871	268.066	107.345	268.066	108.654	268.066	106.975	268.066	108.379	268.066	106.646	268.066	108.067	268.066	106.382	268.066	107.746	268.066	106.201	268.066	107.444	268.066	106.109	268.066	107.184	268.066	106.101	268.066	106.979	268.066	106.164	268.066	106.838	268.066	106.276	268.066	106.762	268.066	106.415	268.066	106.744	268.066	106.559	268.066	106.767	268.066	106.687	268.066	106.807	268.066	106.781	268.066	106.836	268.066	106.831
277.588	109.07	277.588	108.888	277.588	109.163	277.588	108.624	277.588	109.163	277.588	108.288	277.588	109.071	277.588	107.898	277.588	108.888	277.588	107.473	277.588	108.621	277.588	107.037	277.588	108.279	277.588	106.619	277.588	107.882	277.588	106.252	277.588	107.465	277.588	105.968	277.588	107.072	277.588	105.797	277.588	106.758	277.588	105.753	277.588	106.564	277.588	105.833	277.588	106.502	277.588	106.009	277.588	106.548	277.588	106.239	277.588	106.657	277.588	106.478	277.588	106.782	277.588	106.687	277.588	106.884	277.588	106.84	277.588	106.937	277.588	106.924
287.109	109.153	287.109	108.977	287.109	109.236	287.109	108.713	287.109	109.222	287.109	108.371	287.109	109.113	287.109	107.966	287.109	108.912	287.109	107.517	287.109	108.627	287.109	107.048	287.109	108.271	287.109	106.588	287.109	107.863	287.109	106.17	287.109	107.43	287.109	105.828	287.109	107.015	287.109	105.597	287.109	106.665	287.109	105.501	287.109	106.43	287.109	105.544	287.109	106.336	287.109	105.709	287.109	106.375	287.109	105.957	287.109	106.504	287.109	106.237	287.109	106.663	287.109	106.5	287.109	106.794	287.109	106.707	287.109	106.857	287.109	106.829
297.363	109.386	297.363	109.233	297.363	109.438	297.363	108.987	297.363	109.388	297.363	108.655	297.363	109.235	297.363	108.251	297.363	108.985	297.363	107.791	297.363	108.647	297.363	107.292	297.363	108.238	297.363	106.78	297.363	107.78	297.363	106.281	297.363	107.305	297.363	105.83	297.363	106.853	297.363	105.466	297.363	106.47	297.363	105.23	297.363	106.205	297.363	105.155	297.363	106.092	297.363	105.245	297.363	106.13	297.363	105.474	297.363	106.274	297.363	105.784	297.363	106.451	297.363	106.107	297.363	106.589	297.363	106.382	297.363	106.636	297.363	106.566
307.617	109.398	307.617	109.196	307.617	109.517	307.617	108.922	307.617	109.545	307.617	108.588	307.617	109.475	307.617	108.206	307.617	109.301	307.617	107.791	307.617	109.024	307.617	107.361	307.617	108.649	307.617	106.934	307.617	108.193	307.617	106.534	307.617	107.682	307.617	106.185	307.617	107.154	307.617	105.91	307.617	106.656	307.617	105.731	307.617	106.241	307.617	105.663	307.617	105.962	307.617	105.707	307.617	105.855	307.617	105.847	307.617	105.913	307.617	106.044	307.617	106.081	307.617	106.246	307.617	106.275	307.617	106.399	307.617	106.417	307.617	106.463
318.604	109.206	318.604	109.018	318.604	109.301	318.604	108.748	318.604	109.3	318.604	108.406	318.604	109.199	318.604	108.008	318.604	109	318.604	107.575	318.604	108.707	318.604	107.129	318.604	108.328	318.604	106.698	318.604	107.881	318.604	106.309	318.604	107.395	318.604	105.993	318.604	106.911	318.604	105.774	318.604	106.481	318.604	105.669	318.604	106.156	318.604	105.681	318.604	105.976	318.604	105.799	318.604	105.951	318.604	105.993	318.604	106.057	318.604	106.221	318.604	106.241	318.604	106.433	318.604	106.437	318.604	106.583	318.604	106.583	318.604	106.637
329.59	109.284	329.59	109.104	329.59	109.367	329.59	108.836	329.59	109.351	329.59	108.489	329.59	109.232	329.59	108.075	329.59	109.012	329.59	107.613	329.59	108.691	329.59	107.12	329.59	108.277	329.59	106.622	329.59	107.785	329.59	106.15	329.59	107.242	329.59	105.745	329.59	106.691	329.59	105.448	329.59	106.192	329.59	105.295	329.59	105.813	329.59	105.303	329.59	105.61	329.59	105.456	329.59	105.602	329.59	105.709	329.59	105.758	329.59	105.999	329.59	106.003	329.59	106.259	329.59	106.253	329.59	106.438	329.59	106.433	329.59	106.5
341.309	108.957	341.309	108.76	341.309	109.067	341.309	108.484	341.309	109.083	341.309	108.143	341.309	109.005	341.309	107.753	341.309	108.831	341.309	107.332	341.309	108.564	341.309	106.898	341.309	108.207	341.309	106.468	341.309	107.771	341.309	106.061	341.309	107.274	341.309	105.695	341.309	106.748	341.309	105.398	341.309	106.244	341.309	105.201	341.309	105.824	341.309	105.137	341.309	105.554	341.309	105.216	341.309	105.474	341.309	105.419	341.309	105.572	341.309	105.69	341.309	105.781	341.309	105.958	341.309	106.012	341.309	106.154	341.309	106.181	341.309	106.234
353.76	109.136	353.76	108.93	353.76	109.225	353.76	108.618	353.76	109.195	353.76	108.212	353.76	109.046	353.76	107.729	353.76	108.781	353.76	107.193	353.76	108.408	353.76	106.63	353.76	107.941	353.76	106.072	353.76	107.398	353.76	105.551	353.76	106.809	353.76	105.103	353.76	106.214	353.76	104.759	353.76	105.66	353.76	104.546	353.76	105.206	353.76	104.485	353.76	104.908	353.76	104.575	353.76	104.804	353.76	104.788	353.76	104.885	353.76	105.067	353.76	105.093	353.76	105.337	353.76	105.336	353.76	105.53	353.76	105.525	353.76	105.597
366.211	109.344	366.211	109.156	366.211	109.421	366.211	108.865	366.211	109.383	366.211	108.48	366.211	109.229	366.211	108.019	366.211	108.96	366.211	107.501	366.211	108.579	366.211	106.951	366.211	108.095	366.211	106.397	366.211	107.526	366.211	105.867	366.211	106.901	366.211	105.387	366.211	106.262	366.211	104.982	366.211	105.662	366.211	104.677	366.211	105.152	366.211	104.494	366.211	104.781	366.211	104.447	366.211	104.576	366.211	104.528	366.211	104.542	366.211	104.693	366.211	104.644	366.211	104.875	366.211	104.812	366.211	105.006	366.211	104.965	366.211	105.04
378.662	109.412	378.662	109.248	378.662	109.475	378.662	108.99	378.662	109.43	378.662	108.648	378.662	109.274	378.662	108.235	378.662	109.006	378.662	107.77	378.662	108.63	378.662	107.275	378.662	108.158	378.662	106.784	378.662	107.608	378.662	106.329	378.662	107.007	378.662	105.941	378.662	106.394	378.662	105.638	378.662	105.812	378.662	105.422	378.662	105.314	378.662	105.288	378.662	104.954	378.662	105.228	378.662	104.767	378.662	105.233	378.662	104.754	378.662	105.284	378.662	104.872	378.662	105.344	378.662	105.051	378.662	105.373	378.662	105.223	378.662	105.336
392.578	110.479	392.578	110.181	392.578	110.66	392.578	109.792	392.578	110.709	392.578	109.337	392.578	110.614	392.578	108.837	392.578	110.376	392.578	108.306	392.578	110.006	392.578	107.754	392.578	109.529	392.578	107.187	392.578	108.983	392.578	106.625	392.578	108.414	392.578	106.108	392.578	107.87	392.578	105.694	392.578	107.386	392.578	105.449	392.578	106.989	392.578	105.413	392.578	106.705	392.578	105.578	392.578	106.56	392.578	105.887	392.578	106.564	392.578	106.254	392.578	106.683	392.578	106.595	392.578	106.842	392.578	106.845	392.578	106.957	392.578	106.968
405.762	109.678	405.762	109.313	405.762	109.92	405.762	108.83	405.762	110.036	405.762	108.246	405.762	110.023	405.762	107.59	405.762	109.877	405.762	106.908	405.762	109.592	405.762	106.256	405.762	109.168	405.762	105.693	405.762	108.628	405.762	105.261	405.762	108.028	405.762	104.974	405.762	107.464	405.762	104.821	405.762	107.047	405.762	104.778	405.762	106.84	405.762	104.829	405.762	106.808	405.762	104.972	405.762	106.856	405.762	105.205	405.762	106.895	405.762	105.514	405.762	106.882	405.762	105.859	405.762	106.809	405.762	106.19	405.762	106.673	405.762	106.467
420.41	110.205	420.41	109.909	420.41	110.362	420.41	109.485	420.41	110.376	420.41	108.942	420.41	110.241	420.41	108.291	420.41	109.955	420.41	107.548	420.41	109.521	420.41	106.737	420.41	108.944	420.41	105.901	420.41	108.237	420.41	105.115	420.41	107.419	420.41	104.476	420.41	106.528	420.41	104.078	420.41	105.645	420.41	103.959	420.41	104.918	420.41	104.085	420.41	104.549	420.41	104.381	420.41	104.639	420.41	104.772	420.41	105.063	420.41	105.198	420.41	105.571	420.41	105.604	420.41	105.965	420.41	105.936	420.41	106.157	420.41	106.137
435.059	109.664	435.059	109.48	435.059	109.735	435.059	109.188	435.059	109.692	435.059	108.799	435.059	109.538	435.059	108.325	435.059	109.272	435.059	107.781	435.059	108.897	435.059	107.181	435.059	108.418	435.059	106.544	435.059	107.853	435.059	105.905	435.059	107.234	435.059	105.332	435.059	106.604	435.059	104.922	435.059	106.019	435.059	104.769	435.059	105.547	435.059	104.902	435.059	105.272	435.059	105.259	435.059	105.269	435.059	105.723	435.059	105.54	435.059	106.186	435.059	105.974	435.059	106.564	435.059	106.414	435.059	106.804	435.059	106.732	435.059	106.866
450.439	110.237	450.439	110.021	450.439	110.315	450.439	109.669	450.439	110.255	450.439	109.188	450.439	110.058	450.439	108.591	450.439	109.724	450.439	107.896	450.439	109.247	450.439	107.126	450.439	108.627	450.439	106.31	450.439	107.869	450.439	105.489	450.439	107.001	450.439	104.721	450.439	106.081	450.439	104.107	450.439	105.216	450.439	103.777	450.439	104.551	450.439	103.836	450.439	104.225	450.439	104.265	450.439	104.3	450.439	104.908	450.439	104.712	450.439	105.572	450.439	105.299	450.439	106.111	450.439	105.878	450.439	106.435	450.439	106.307	450.439	106.503
466.553	109.938	466.553	109.752	466.553	110.003	466.553	109.447	466.553	109.947	466.553	109.036	466.553	109.773	466.553	108.532	466.553	109.484	466.553	107.956	466.553	109.079	466.553	107.327	466.553	108.556	466.553	106.666	466.553	107.914	466.553	105.997	466.553	107.158	466.553	105.354	466.553	106.312	466.553	104.796	466.553	105.432	466.553	104.407	466.553	104.636	466.553	104.278	466.553	104.11	466.553	104.449	466.553	104.03	466.553	104.861	466.553	104.392	466.553	105.376	466.553	104.995	466.553	105.844	466.553	105.596	466.553	106.148	466.553	106.03	466.553	106.219
482.666	109.712	482.666	109.543	482.666	109.768	482.666	109.256	482.666	109.718	482.666	108.852	482.666	109.571	482.666	108.337	482.666	109.329	482.666	107.717	482.666	108.982	482.666	107.004	482.666	108.514	482.666	106.218	482.666	107.911	482.666	105.395	482.666	107.17	482.666	104.598	482.666	106.313	482.666	103.926	482.666	105.406	482.666	103.506	482.666	104.58	482.666	103.45	482.666	104.032	482.666	103.777	482.666	103.933	482.666	104.374	482.666	104.286	482.666	105.058	482.666	104.897	482.666	105.654	482.666	105.521	482.666	106.044	482.666	105.973	482.666	106.157
500.244	109.584	500.244	109.401	500.244	109.664	500.244	109.123	500.244	109.64	500.244	108.76	500.244	109.51	500.244	108.318	500.244	109.274	500.244	107.799	500.244	108.929	500.244	107.199	500.244	108.468	500.244	106.521	500.244	107.885	500.244	105.777	500.244	107.177	500.244	104.999	500.244	106.353	500.244	104.256	500.244	105.458	500.244	103.663	500.244	104.602	500.244	103.361	500.244	103.983	500.244	103.438	500.244	103.798	500.244	103.853	500.244	104.065	500.244	104.439	500.244	104.59	500.244	105.01	500.244	105.121	500.244	105.421	500.244	105.483	500.244	105.59
517.822	109.297	517.822	109.156	517.822	109.335	517.822	108.929	517.822	109.267	517.822	108.636	517.822	109.1	517.822	108.293	517.822	108.847	517.822	107.893	517.822	108.519	517.822	107.418	517.822	108.12	517.822	106.845	517.822	107.641	517.822	106.164	517.822	107.057	517.822	105.396	517.822	106.336	517.822	104.61	517.822	105.466	517.822	103.946	517.822	104.516	517.822	103.594	517.822	103.73	517.822	103.693	517.822	103.491	517.822	104.2	517.822	103.943	517.822	104.906	517.822	104.769	517.822	105.579	517.822	105.554	517.822	106.055	517.822	106.067	517.822	106.234
536.133	108.321	536.133	108.072	536.133	108.404	536.133	107.692	536.133	108.321	536.133	107.254	536.133	108.091	536.133	106.846	536.133	107.748	536.133	106.537	536.133	107.328	536.133	106.324	536.133	106.871	536.133	106.138	536.133	106.408	536.133	105.883	536.133	105.948	536.133	105.487	536.133	105.468	536.133	104.935	536.133	104.925	536.133	104.308	536.133	104.302	536.133	103.809	536.133	103.701	536.133	103.702	536.133	103.404	536.133	104.088	536.133	103.69	536.133	104.784	536.133	104.461	536.133	105.496	536.133	105.316	536.133	105.999	536.133	105.93	536.133	106.163
554.443	109.225	554.443	108.935	554.443	109.34	554.443	108.485	554.443	109.277	554.443	107.908	554.443	109.037	554.443	107.257	554.443	108.63	554.443	106.595	554.443	108.073	554.443	105.977	554.443	107.405	554.443	105.43	554.443	106.681	554.443	104.938	554.443	105.952	554.443	104.463	554.443	105.238	554.443	103.978	554.443	104.506	554.443	103.512	554.443	103.708	554.443	103.171	554.443	102.891	554.443	103.109	554.443	102.322	554.443	103.397	554.443	102.374	554.443	103.931	554.443	103.051	554.443	104.49	554.443	103.927	554.443	104.869	554.443	104.61	554.443	104.931
574.219	109.367	574.219	109.136	574.219	109.466	574.219	108.795	574.219	109.419	574.219	108.365	574.219	109.222	574.219	107.869	574.219	108.883	574.219	107.319	574.219	108.425	574.219	106.719	574.219	107.877	574.219	106.06	574.219	107.278	574.219	105.331	574.219	106.667	574.219	104.542	574.219	106.057	574.219	103.749	574.219	105.413	574.219	103.087	574.219	104.672	574.219	102.743	574.219	103.848	574.219	102.835	574.219	103.207	574.219	103.306	574.219	103.181	574.219	103.964	574.219	103.802	574.219	104.612	574.219	104.589	574.219	105.095	574.219	105.134	574.219	105.296
594.727	109.583	594.727	109.398	594.727	109.53	594.727	109.014	594.727	109.245	594.727	108.511	594.727	108.765	594.727	107.985	594.727	108.155	594.727	107.501	594.727	107.494	594.727	107.049	594.727	106.874	594.727	106.565	594.727	106.376	594.727	105.978	594.727	106.015	594.727	105.25	594.727	105.703	594.727	104.399	594.727	105.261	594.727	103.558	594.727	104.516	594.727	103.048	594.727	103.453	594.727	103.24	594.727	102.515	594.727	104.1	594.727	102.629	594.727	105.188	594.727	103.882	594.727	106.111	594.727	105.311	594.727	106.667	594.727	106.313	594.727	106.756
615.234	110.663	615.234	110.444	615.234	110.595	615.234	109.947	615.234	110.252	615.234	109.224	615.234	109.659	615.234	108.38	615.234	108.845	615.234	107.573	615.234	107.853	615.234	106.954	615.234	106.757	615.234	106.572	615.234	105.694	615.234	106.329	615.234	104.853	615.234	106.049	615.234	104.376	615.234	105.585	615.234	104.202	615.234	104.899	615.234	104.08	615.234	104.163	615.234	103.749	615.234	103.797	615.234	103.158	615.234	104.134	615.234	102.701	615.234	104.954	615.234	103.078	615.234	105.757	615.234	104.24	615.234	106.195	615.234	105.41	615.234	106.099
637.207	110.968	637.207	110.561	637.207	111.097	637.207	109.893	637.207	110.948	637.207	109.02	637.207	110.536	637.207	108.043	637.207	109.883	637.207	107.095	637.207	109.021	637.207	106.291	637.207	107.988	637.207	105.673	637.207	106.834	637.207	105.19	637.207	105.626	637.207	104.733	637.207	104.482	637.207	104.2	637.207	103.571	637.207	103.593	637.207	103.025	637.207	103.139	637.207	102.805	637.207	103.263	637.207	102.827	637.207	104.1	637.207	103.196	637.207	105.246	637.207	104.064	637.207	106.223	637.207	105.221	637.207	106.769	637.207	106.224	637.207	106.774
659.912	111.072	659.912	110.731	659.912	111.13	659.912	110.124	659.912	110.915	659.912	109.306	659.912	110.452	659.912	108.365	659.912	109.768	659.912	107.413	659.912	108.894	659.912	106.549	659.912	107.884	659.912	105.814	659.912	106.852	659.912	105.169	659.912	105.951	659.912	104.515	659.912	105.256	659.912	103.73	659.912	104.638	659.912	102.75	659.912	103.846	659.912	101.743	659.912	102.747	659.912	101.338	659.912	101.672	659.912	102.129	659.912	101.594	659.912	103.635	659.912	102.853	659.912	105.025	659.912	104.452	659.912	105.893	659.912	105.614	659.912	106.104
683.35	110.827	683.35	110.385	683.35	110.959	683.35	109.626	683.35	110.811	683.35	108.597	683.35	110.419	683.35	107.419	683.35	109.809	683.35	106.284	683.35	108.992	683.35	105.388	683.35	107.995	683.35	104.819	683.35	106.906	683.35	104.513	683.35	105.911	683.35	104.321	683.35	105.241	683.35	104.064	683.35	104.941	683.35	103.597	683.35	104.739	683.35	102.907	683.35	104.273	683.35	102.319	683.35	103.416	683.35	102.509	683.35	102.637	683.35	103.634	683.35	102.943	683.35	104.98	683.35	104.274	683.35	105.901	683.35	105.53	683.35	106.111
706.787	110.823	706.787	110.353	706.787	110.961	706.787	109.55	706.787	110.782	706.787	108.461	706.787	110.301	706.787	107.201	706.787	109.531	706.787	105.966	706.787	108.504	706.787	104.981	706.787	107.292	706.787	104.342	706.787	106.022	706.787	103.914	706.787	104.845	706.787	103.45	706.787	103.873	706.787	102.771	706.787	103.11	706.787	101.865	706.787	102.463	706.787	100.986	706.787	101.872	706.787	100.736	706.787	101.478	706.787	101.563	706.787	101.69	706.787	103.034	706.787	102.728	706.787	104.429	706.787	104.106	706.787	105.344	706.787	105.175	706.787	105.61
731.689	110.616	731.689	110.306	731.689	110.632	731.689	109.703	731.689	110.373	731.689	108.835	731.689	109.873	731.689	107.761	731.689	109.161	731.689	106.576	731.689	108.256	731.689	105.426	731.689	107.167	731.689	104.49	731.689	105.93	731.689	103.881	731.689	104.673	731.689	103.512	731.689	103.643	731.689	103.108	731.689	103	731.689	102.376	731.689	102.516	731.689	101.196	731.689	101.738	731.689	99.9452	731.689	100.477	731.689	99.8573	731.689	99.529	731.689	101.389	731.689	100.524	731.689	103.237	731.689	102.648	731.689	104.491	731.689	104.248	731.689	104.864
758.057	110.121	758.057	109.744	758.057	110.194	758.057	109.063	758.057	109.985	758.057	108.108	758.057	109.521	758.057	106.95	758.057	108.828	758.057	105.728	758.057	107.918	758.057	104.644	758.057	106.806	758.057	103.902	758.057	105.552	758.057	103.537	758.057	104.353	758.057	103.36	758.057	103.559	758.057	103.093	758.057	103.326	758.057	102.529	758.057	103.261	758.057	101.639	758.057	102.797	758.057	100.761	758.057	101.654	758.057	100.686	758.057	100.253	758.057	101.745	758.057	100.252	758.057	103.168	758.057	101.986	758.057	104.175	758.057	103.639	758.057	104.387
784.424	110.302	784.424	109.975	784.424	110.328	784.424	109.324	784.424	110.102	784.424	108.358	784.424	109.666	784.424	107.136	784.424	109.023	784.424	105.805	784.424	108.134	784.424	104.615	784.424	106.955	784.424	103.79	784.424	105.501	784.424	103.278	784.424	103.898	784.424	102.784	784.424	102.441	784.424	102.014	784.424	101.446	784.424	100.802	784.424	100.851	784.424	99.237	784.424	100.172	784.424	98.1262	784.424	98.9659	784.424	98.8817	784.424	97.6438	784.424	101.02	784.424	98.5544	784.424	103.035	784.424	101.371	784.424	104.272	784.424	103.554	784.424	104.497
812.256	109.308	812.256	108.948	812.256	109.433	812.256	108.322	812.256	109.361	812.256	107.418	812.256	109.112	812.256	106.258	812.256	108.667	812.256	104.908	812.256	107.979	812.256	103.513	812.256	106.991	812.256	102.309	812.256	105.635	812.256	101.517	812.256	103.887	812.256	101.131	812.256	102.076	812.256	100.841	812.256	101.196	812.256	100.216	812.256	101.47	812.256	98.9411	812.256	101.561	812.256	97.2574	812.256	100.421	812.256	97.0405	812.256	97.8122	812.256	99.2762	812.256	96.516	812.256	101.662	812.256	99.4678	812.256	103.053	812.256	102.097	812.256	103.24
840.82	109.179	840.82	108.953	840.82	109.296	840.82	108.492	840.82	109.384	840.82	107.685	840.82	109.44	840.82	106.476	840.82	109.396	840.82	104.905	840.82	109.182	840.82	103.196	840.82	108.729	840.82	101.838	840.82	107.937	840.82	101.325	840.82	106.668	840.82	101.504	840.82	104.843	840.82	101.665	840.82	102.761	840.82	101.163	840.82	101.548	840.82	99.5827	840.82	101.8	840.82	96.7915	840.82	102.095	840.82	94.4661	840.82	101.156	840.82	96.5995	840.82	98.9438	840.82	99.8358	840.82	98.5321	840.82	101.777	840.82	100.82	840.82	102.143
870.85	109.575	870.85	109.318	870.85	109.661	870.85	108.874	870.85	109.614	870.85	108.22	870.85	109.497	870.85	107.301	870.85	109.35	870.85	106.067	870.85	109.141	870.85	104.566	870.85	108.768	870.85	103.08	870.85	108.108	870.85	102.108	870.85	107.126	870.85	101.844	870.85	106.005	870.85	101.806	870.85	105.105	870.85	101.341	870.85	104.539	870.85	100.011	870.85	103.921	870.85	97.5276	870.85	102.819	870.85	94.4125	870.85	101.193	870.85	95.0466	870.85	99.7998	870.85	98.4487	870.85	99.892	870.85	100.66	870.85	100.909	870.85	101.388
901.611	110.064	901.611	109.927	901.611	109.98	901.611	109.518	901.611	109.733	901.611	108.775	901.611	109.389	901.611	107.631	901.611	108.997	901.611	106.06	901.611	108.567	901.611	104.129	901.611	108.046	901.611	102.044	901.611	107.307	901.611	100.22	901.611	106.203	901.611	99.3672	901.611	104.745	901.611	99.7785	901.611	103.385	901.611	100.539	901.611	102.85	901.611	100.628	901.611	103.003	901.611	99.4859	901.611	102.896	901.611	96.8912	901.611	101.905	901.611	95.4005	901.611	100.417	901.611	98.7233	901.611	100.424	901.611	101.599	901.611	101.889	901.611	102.575
933.105	109.923	933.105	109.783	933.105	109.732	933.105	109.31	933.105	109.27	933.105	108.545	933.105	108.649	933.105	107.516	933.105	107.998	933.105	106.213	933.105	107.411	933.105	104.628	933.105	106.864	933.105	102.807	933.105	106.199	933.105	100.919	933.105	105.256	933.105	99.3384	933.105	104.091	933.105	98.5223	933.105	103.136	933.105	98.3436	933.105	102.85	933.105	98.0286	933.105	102.937	933.105	96.9219	933.105	102.586	933.105	95.123	933.105	101.282	933.105	95.1395	933.105	99.5547	933.105	97.9947	933.105	99.603	933.105	100.446	933.105	100.975	933.105	101.452
966.064	109.656	966.064	109.289	966.064	109.636	966.064	108.501	966.064	109.303	966.064	107.323	966.064	108.764	966.064	105.876	966.064	108.151	966.064	104.386	966.064	107.546	966.064	103.129	966.064	106.897	966.064	102.229	966.064	106.035	966.064	101.475	966.064	104.789	966.064	100.495	966.064	103.117	966.064	99.2277	966.064	101.42	966.064	98.2504	966.064	100.863	966.064	97.9974	966.064	101.644	966.064	97.6879	966.064	102.229	966.064	96.1586	966.064	101.665	966.064	93.4003	966.064	100.253	966.064	95.4069	966.064	100.068	966.064	99.5343	966.064	101.268	966.064	101.434
999.756	108.746	999.756	108.158	999.756	108.89	999.756	107.21	999.756	108.611	999.756	105.993	999.756	108.077	999.756	104.526	999.756	107.536	999.756	102.762	999.756	107.129	999.756	100.682	999.756	106.772	999.756	98.4835	999.756	106.232	999.756	96.8885	999.756	105.289	999.756	96.6806	999.756	103.914	999.756	97.2671	999.756	102.566	999.756	97.6187	999.756	102.037	999.756	97.3315	999.756	102.052	999.756	96.2237	999.756	101.509	999.756	93.8137	999.756	99.9978	999.756	90.3861	999.756	98.8574	999.756	93.1774	999.756	99.761	999.756	97.7451	999.756	100.699	999.756	100.157
1,034.91	106.544	1,034.91	106.784	1,034.91	106.252	1,034.91	106.852	1,034.91	106.002	1,034.91	106.651	1,034.91	105.81	1,034.91	106.142	1,034.91	105.66	1,034.91	105.321	1,034.91	105.586	1,034.91	104.184	1,034.91	105.59	1,034.91	102.696	1,034.91	105.477	1,034.91	100.886	1,034.91	104.927	1,034.91	99.2365	1,034.91	103.809	1,034.91	98.8968	1,034.91	102.673	1,034.91	99.8036	1,034.91	102.652	1,034.91	100.594	1,034.91	103.311	1,034.91	100.576	1,034.91	103.084	1,034.91	99.4556	1,034.91	101.1	1,034.91	96.7279	1,034.91	98.0187	1,034.91	92.8897	1,034.91	98.3047	1,034.91	95.4078	1,034.91	99.81	1,034.91	98.9925
1,071.53	107.638	1,071.53	108.439	1,071.53	106.612	1,071.53	108.908	1,071.53	105.416	1,071.53	108.968	1,071.53	104.056	1,071.53	108.608	1,071.53	102.675	1,071.53	107.869	1,071.53	101.711	1,071.53	106.842	1,071.53	101.482	1,071.53	105.706	1,071.53	101.611	1,071.53	104.692	1,071.53	101.379	1,071.53	103.825	1,071.53	100.338	1,071.53	102.785	1,071.53	98.7931	1,071.53	101.422	1,071.53	98.3303	1,071.53	100.35	1,071.53	99.3829	1,071.53	100.228	1,071.53	100.121	1,071.53	100.349	1,071.53	99.2838	1,071.53	99.6193	1,071.53	96.4844	1,071.53	97.724	1,071.53	95.1423	1,071.53	96.4669	1,071.53	97.094	1,071.53	97.3139
1,109.62	109.036	1,109.62	109.823	1,109.62	107.86	1,109.62	110.214	1,109.62	106.249	1,109.62	110.19	1,109.62	104.156	1,109.62	109.757	1,109.62	101.687	1,109.62	108.925	1,109.62	99.3019	1,109.62	107.688	1,109.62	98.0881	1,109.62	106.095	1,109.62	98.4204	1,109.62	104.419	1,109.62	98.6551	1,109.62	103.185	1,109.62	97.4564	1,109.62	102.489	1,109.62	94.6625	1,109.62	101.869	1,109.62	93.9659	1,109.62	101.272	1,109.62	97.0092	1,109.62	101.032	1,109.62	98.7531	1,109.62	101.091	1,109.62	98.025	1,109.62	100.858	1,109.62	94.6143	1,109.62	99.9437	1,109.62	92.884	1,109.62	98.7249	1,109.62	96.0344	1,109.62	97.7445
1,148.44	109.892	1,148.44	110.454	1,148.44	108.932	1,148.44	110.595	1,148.44	107.644	1,148.44	110.325	1,148.44	106.115	1,148.44	109.658	1,148.44	104.422	1,148.44	108.628	1,148.44	102.557	1,148.44	107.312	1,148.44	100.424	1,148.44	105.795	1,148.44	98.0797	1,148.44	104.159	1,148.44	95.9559	1,148.44	102.583	1,148.44	94.3423	1,148.44	101.318	1,148.44	92.879	1,148.44	100.398	1,148.44	91.8587	1,148.44	99.6741	1,148.44	93.2012	1,148.44	99.2177	1,148.44	95.5752	1,148.44	99.3728	1,148.44	96.4499	1,148.44	100.065	1,148.44	94.7487	1,148.44	100.573	1,148.44	90.939	1,148.44	100.191	1,148.44	94.1183	1,148.44	98.2992
1,189.45	110.606	1,189.45	110.76	1,189.45	109.938	1,189.45	110.433	1,189.45	108.82	1,189.45	109.709	1,189.45	107.421	1,189.45	108.687	1,189.45	105.911	1,189.45	107.487	1,189.45	104.264	1,189.45	106.236	1,189.45	102.419	1,189.45	104.954	1,189.45	100.559	1,189.45	103.533	1,189.45	98.9262	1,189.45	102.057	1,189.45	97.424	1,189.45	100.952	1,189.45	95.2728	1,189.45	100.219	1,189.45	90.894	1,189.45	99.2389	1,189.45	88.3751	1,189.45	97.8935	1,189.45	94.1845	1,189.45	97.4722	1,189.45	96.6564	1,189.45	98.7466	1,189.45	96.1177	1,189.45	99.9447	1,189.45	94.2129	1,189.45	99.969	1,189.45	95.5885	1,189.45	98.4963
1,231.2	110.64	1,231.2	110.718	1,231.2	109.919	1,231.2	110.156	1,231.2	108.732	1,231.2	109.095	1,231.2	107.293	1,231.2	107.717	1,231.2	105.755	1,231.2	106.253	1,231.2	104.38	1,231.2	104.956	1,231.2	103.383	1,231.2	103.824	1,231.2	102.451	1,231.2	102.6	1,231.2	101.005	1,231.2	101.449	1,231.2	98.8299	1,231.2	100.96	1,231.2	96.1936	1,231.2	100.825	1,231.2	93.1347	1,231.2	100.282	1,231.2	91.3224	1,231.2	98.9574	1,231.2	94.8611	1,231.2	96.7873	1,231.2	97.1813	1,231.2	95.6153	1,231.2	96.5279	1,231.2	97.4484	1,231.2	94.7069	1,231.2	99.1005	1,231.2	96.6185	1,231.2	98.8971
1,274.41	110.42	1,274.41	110.705	1,274.41	109.586	1,274.41	110.31	1,274.41	108.459	1,274.41	109.359	1,274.41	107.161	1,274.41	108.05	1,274.41	105.74	1,274.41	106.406	1,274.41	104.263	1,274.41	104.445	1,274.41	102.736	1,274.41	102.515	1,274.41	101.279	1,274.41	100.849	1,274.41	100.023	1,274.41	99.027	1,274.41	98.8835	1,274.41	97.6451	1,274.41	97.752	1,274.41	98.2874	1,274.41	96.2018	1,274.41	99.5203	1,274.41	93.1687	1,274.41	99.7493	1,274.41	90.873	1,274.41	98.4767	1,274.41	93.8351	1,274.41	97.6443	1,274.41	94.8617	1,274.41	98.9886	1,274.41	93.7039	1,274.41	99.6139	1,274.41	95.2149	1,274.41	98.2979
1,319.82	110.51	1,319.82	110.846	1,319.82	109.73	1,319.82	110.386	1,319.82	108.839	1,319.82	109.133	1,319.82	107.798	1,319.82	107.418	1,319.82	106.434	1,319.82	105.587	1,319.82	104.584	1,319.82	103.796	1,319.82	102.122	1,319.82	102.149	1,319.82	99.5584	1,319.82	100.608	1,319.82	97.8127	1,319.82	98.9321	1,319.82	96.5888	1,319.82	97.643	1,319.82	94.9965	1,319.82	97.5976	1,319.82	92.9064	1,319.82	98.0561	1,319.82	89.2124	1,319.82	97.5151	1,319.82	86.649	1,319.82	95.0774	1,319.82	93.5528	1,319.82	93.3792	1,319.82	95.897	1,319.82	95.9905	1,319.82	94.5534	1,319.82	98.1166	1,319.82	95.529	1,319.82	98.0472
1,365.97	109.981	1,365.97	110.17	1,365.97	109.441	1,365.97	109.546	1,365.97	108.798	1,365.97	107.99	1,365.97	107.812	1,365.97	105.637	1,365.97	106.417	1,365.97	102.489	1,365.97	104.75	1,365.97	98.6325	1,365.97	102.599	1,365.97	95.9764	1,365.97	100.03	1,365.97	94.6677	1,365.97	97.8541	1,365.97	91.1985	1,365.97	96.2537	1,365.97	85.2483	1,365.97	94.5689	1,365.97	89.2762	1,365.97	92.6619	1,365.97	94.0663	1,365.97	91.3457	1,365.97	95.1569	1,365.97	91.0206	1,365.97	91.8128	1,365.97	92.0002	1,365.97	85.8111	1,365.97	93.5077	1,365.97	93.3252	1,365.97	93.2475	1,365.97	97.5059	1,365.97	95.3784	1,365.97	98.0717
1,414.31	108.13	1,414.31	107.929	1,414.31	108.042	1,414.31	107.175	1,414.31	107.348	1,414.31	105.767	1,414.31	106.106	1,414.31	104.578	1,414.31	105.152	1,414.31	104.101	1,414.31	104.244	1,414.31	103.145	1,414.31	102.578	1,414.31	100.296	1,414.31	101.135	1,414.31	95.8149	1,414.31	100.567	1,414.31	95.7831	1,414.31	99.6868	1,414.31	95.3017	1,414.31	97.7655	1,414.31	90.667	1,414.31	95.5614	1,414.31	92.4714	1,414.31	94.9313	1,414.31	98.2523	1,414.31	93.9911	1,414.31	98.3733	1,414.31	95.3638	1,414.31	93.551	1,414.31	97.3092	1,414.31	88.9965	1,414.31	94.8266	1,414.31	95.4271	1,414.31	95.0229	1,414.31	97.3981
1,464.11	109.918	1,464.11	109.619	1,464.11	109.373	1,464.11	108.788	1,464.11	108.151	1,464.11	107.704	1,464.11	107.219	1,464.11	106.705	1,464.11	106.659	1,464.11	106.089	1,464.11	105.563	1,464.11	105.346	1,464.11	104.248	1,464.11	103.148	1,464.11	103.246	1,464.11	98.9213	1,464.11	102.085	1,464.11	94.6512	1,464.11	100.897	1,464.11	94.9234	1,464.11	100.582	1,464.11	95.0371	1,464.11	100.812	1,464.11	94.3384	1,464.11	99.3956	1,464.11	97.8785	1,464.11	95.1585	1,464.11	98.4322	1,464.11	96.8803	1,464.11	95.7098	1,464.11	98.7422	1,464.11	90.2346	1,464.11	96.2507	1,464.11	95.6235	1,464.11	95.8431	1,464.11	98.1352
1,515.38	111.034	1,515.38	110.75	1,515.38	110.326	1,515.38	109.647	1,515.38	109.008	1,515.38	108.307	1,515.38	107.519	1,515.38	107.022	1,515.38	106.015	1,515.38	105.527	1,515.38	104.801	1,515.38	103.708	1,515.38	103.927	1,515.38	101.9	1,515.38	103.311	1,515.38	100.155	1,515.38	102.802	1,515.38	99.13	1,515.38	102.065	1,515.38	99.788	1,515.38	101.732	1,515.38	99.1204	1,515.38	101.457	1,515.38	94.4785	1,515.38	99.9739	1,515.38	91.5991	1,515.38	98.1828	1,515.38	94.2909	1,515.38	98.2397	1,515.38	96.0001	1,515.38	99.4095	1,515.38	95.1127	1,515.38	97.7556	1,515.38	96.1672	1,515.38	93.664	1,515.38	96.7819
1,568.85	111.452	1,568.85	111.287	1,568.85	110.467	1,568.85	110.424	1,568.85	108.808	1,568.85	109.451	1,568.85	107.415	1,568.85	108.056	1,568.85	106.042	1,568.85	105.441	1,568.85	104.275	1,568.85	102.095	1,568.85	102.637	1,568.85	100.124	1,568.85	101.708	1,568.85	98.8886	1,568.85	101.505	1,568.85	96.6737	1,568.85	100.433	1,568.85	97.8041	1,568.85	97.8916	1,568.85	99.2837	1,568.85	98.7609	1,568.85	98.3282	1,568.85	98.8304	1,568.85	95.8647	1,568.85	95.4725	1,568.85	96.6043	1,568.85	97.7699	1,568.85	97.8315	1,568.85	97.5847	1,568.85	95.9	1,568.85	94.7481	1,568.85	94.5046	1,568.85	95.9519	1,568.85	95.9044
1,624.51	111.277	1,624.51	111.429	1,624.51	110.184	1,624.51	110.657	1,624.51	109.079	1,624.51	109.422	1,624.51	107.959	1,624.51	107.434	1,624.51	106.12	1,624.51	103.989	1,624.51	104.143	1,624.51	100.383	1,624.51	102.855	1,624.51	99.7672	1,624.51	102.565	1,624.51	98.6542	1,624.51	103.273	1,624.51	91.9354	1,624.51	102.952	1,624.51	81.7055	1,624.51	100.043	1,624.51	94.5329	1,624.51	97.7044	1,624.51	97.76	1,624.51	98.1967	1,624.51	97.2494	1,624.51	92.4724	1,624.51	95.1938	1,624.51	93.7327	1,624.51	94.2952	1,624.51	97.6635	1,624.51	95.5708	1,624.51	94.4316	1,624.51	97.4537	1,624.51	94.5429	1,624.51	97.619
1,681.64	110.116	1,681.64	110.417	1,681.64	109.869	1,681.64	110.179	1,681.64	109.176	1,681.64	108.934	1,681.64	107.634	1,681.64	107.112	1,681.64	105.839	1,681.64	104.934	1,681.64	104.597	1,681.64	101.856	1,681.64	104.151	1,681.64	96.7346	1,681.64	103.568	1,681.64	96.9122	1,681.64	102.24	1,681.64	95.5755	1,681.64	100.72	1,681.64	88.1778	1,681.64	99.0516	1,681.64	90.0752	1,681.64	98.0672	1,681.64	94.7212	1,681.64	99.2263	1,681.64	95.3216	1,681.64	97.5161	1,681.64	95.3791	1,681.64	87.9366	1,681.64	94.2393	1,681.64	94.8313	1,681.64	93.4929	1,681.64	96.4614	1,681.64	96.7939	1,681.64	92.9794	1,681.64	95.9129
1,740.97	110.555	1,740.97	110.365	1,740.97	110.077	1,740.97	109.972	1,740.97	108.847	1,740.97	108.708	1,740.97	107.418	1,740.97	106.362	1,740.97	105.616	1,740.97	104.822	1,740.97	104.199	1,740.97	103.638	1,740.97	103.354	1,740.97	99.1823	1,740.97	102.589	1,740.97	93.3242	1,740.97	102.058	1,740.97	94.185	1,740.97	101.016	1,740.97	94.3391	1,740.97	98.3835	1,740.97	88.6554	1,740.97	96.538	1,740.97	87.3874	1,740.97	98.124	1,740.97	95.5136	1,740.97	97.0403	1,740.97	96.5632	1,740.97	94.5329	1,740.97	95.3518	1,740.97	94.5945	1,740.97	92.1928	1,740.97	96.8919	1,740.97	94.8567	1,740.97	96.9146	1,740.97	97.4625
1,802.49	110.411	1,802.49	110.262	1,802.49	109.637	1,802.49	109.317	1,802.49	108.316	1,802.49	107.979	1,802.49	106.723	1,802.49	106.508	1,802.49	104.907	1,802.49	105.194	1,802.49	103.68	1,802.49	103.124	1,802.49	102.864	1,802.49	98.4595	1,802.49	101.862	1,802.49	91.7181	1,802.49	101.154	1,802.49	93.346	1,802.49	100.569	1,802.49	96.6407	1,802.49	97.4993	1,802.49	94.9419	1,802.49	92.5101	1,802.49	83.2655	1,802.49	96.1847	1,802.49	89.7453	1,802.49	95.9901	1,802.49	92.4135	1,802.49	94.8422	1,802.49	92.8429	1,802.49	95.999	1,802.49	92.9806	1,802.49	95.1337	1,802.49	95.2419	1,802.49	95.7018	1,802.49	97.0032
1,866.21	110.308	1,866.21	110.376	1,866.21	109.391	1,866.21	109.098	1,866.21	108.342	1,866.21	107.178	1,866.21	106.876	1,866.21	105.922	1,866.21	104.749	1,866.21	105.289	1,866.21	103.274	1,866.21	103.926	1,866.21	102.357	1,866.21	100.216	1,866.21	101.65	1,866.21	94.2853	1,866.21	100.228	1,866.21	90.1485	1,866.21	99.3795	1,866.21	97.779	1,866.21	98.9235	1,866.21	98.0951	1,866.21	92.4355	1,866.21	92.529	1,866.21	95.6969	1,866.21	88.8804	1,866.21	97.4131	1,866.21	93.1981	1,866.21	89.3327	1,866.21	95.0183	1,866.21	94.974	1,866.21	93.1714	1,866.21	92.4567	1,866.21	93.9694	1,866.21	91.5152	1,866.21	94.4623
1,932.13	109.802	1,932.13	110.233	1,932.13	108.863	1,932.13	109.048	1,932.13	107.762	1,932.13	106.991	1,932.13	105.862	1,932.13	105.971	1,932.13	104.076	1,932.13	104.401	1,932.13	101.141	1,932.13	100.976	1,932.13	98.5282	1,932.13	99.3556	1,932.13	99.6165	1,932.13	98.9576	1,932.13	99.6139	1,932.13	91.5019	1,932.13	98.6572	1,932.13	93.3541	1,932.13	98.7098	1,932.13	96.8545	1,932.13	96.2356	1,932.13	93.9712	1,932.13	89.2881	1,932.13	90.4598	1,932.13	95.605	1,932.13	94.7616	1,932.13	92.092	1,932.13	96.6274	1,932.13	93.6348	1,932.13	94.0811	1,932.13	96.1222	1,932.13	90.7896	1,932.13	93.1859	1,932.13	89.7371
2,000.24	110.426	2,000.24	109.789	2,000.24	109.419	2,000.24	108.143	2,000.24	106.782	2,000.24	106.731	2,000.24	103.776	2,000.24	105.703	2,000.24	101.769	2,000.24	103.216	2,000.24	100.062	2,000.24	99.0081	2,000.24	101.001	2,000.24	98.3629	2,000.24	100.359	2,000.24	99.2677	2,000.24	98.7879	2,000.24	94.5907	2,000.24	98.1207	2,000.24	87.2206	2,000.24	97.1908	2,000.24	93.9713	2,000.24	96.7525	2,000.24	94.6773	2,000.24	93.2663	2,000.24	90.9609	2,000.24	92.2431	2,000.24	91.4193	2,000.24	91.7674	2,000.24	93.9701	2,000.24	92.7394	2,000.24	92.9091	2,000.24	97.262	2,000.24	91.4613	2,000.24	96.2205	2,000.24	92.8544
2,070.56	110.89	2,070.56	109.996	2,070.56	110.123	2,070.56	108.973	2,070.56	107.226	2,070.56	108.202	2,070.56	103.539	2,070.56	106.002	2,070.56	102.115	2,070.56	102.52	2,070.56	101.461	2,070.56	98.624	2,070.56	100.307	2,070.56	97.7123	2,070.56	99.1678	2,070.56	99.705	2,070.56	99.6761	2,070.56	97.2896	2,070.56	100.624	2,070.56	87.8882	2,070.56	99.3694	2,070.56	86.9031	2,070.56	97.2276	2,070.56	93.5052	2,070.56	95.409	2,070.56	95.4959	2,070.56	93.1166	2,070.56	94.7182	2,070.56	93.4341	2,070.56	92.2713	2,070.56	92.4563	2,070.56	88.0762	2,070.56	95.6614	2,070.56	88.6389	2,070.56	97.3304	2,070.56	94.2305
2,143.8	110.233	2,143.8	110.432	2,143.8	108.898	2,143.8	109.723	2,143.8	106.226	2,143.8	108.412	2,143.8	101.868	2,143.8	105.193	2,143.8	99.1235	2,143.8	100.276	2,143.8	99.7216	2,143.8	98.4928	2,143.8	100.356	2,143.8	93.5131	2,143.8	101.516	2,143.8	96.9942	2,143.8	101.039	2,143.8	99.7733	2,143.8	99.3958	2,143.8	96.8975	2,143.8	97.943	2,143.8	91.9844	2,143.8	97.9877	2,143.8	91.4508	2,143.8	99.415	2,143.8	92.6268	2,143.8	95.2742	2,143.8	95.5233	2,143.8	90.9943	2,143.8	96.0408	2,143.8	89.8188	2,143.8	92.5979	2,143.8	95.6909	2,143.8	81.619	2,143.8	97.3904	2,143.8	90.869
2,219.24	110.19	2,219.24	110.604	2,219.24	108.727	2,219.24	108.974	2,219.24	104.818	2,219.24	104.695	2,219.24	99.5257	2,219.24	101.207	2,219.24	100.77	2,219.24	98.9106	2,219.24	100.243	2,219.24	97.0289	2,219.24	101.466	2,219.24	95.3747	2,219.24	101.649	2,219.24	89.6004	2,219.24	100.081	2,219.24	94.714	2,219.24	99.1668	2,219.24	92.3902	2,219.24	97.0158	2,219.24	69.2175	2,219.24	92.8046	2,219.24	84.3757	2,219.24	96.8213	2,219.24	87.0558	2,219.24	88.473	2,219.24	91.3105	2,219.24	88.9127	2,219.24	93.9363	2,219.24	81.5445	2,219.24	87.9441	2,219.24	92.8755	2,219.24	79.1859	2,219.24	97.1977	2,219.24	93.0944
2,297.61	110.392	2,297.61	109.153	2,297.61	108.847	2,297.61	107.294	2,297.61	104.035	2,297.61	104.633	2,297.61	99.8981	2,297.61	99.9298	2,297.61	100.379	2,297.61	98.6931	2,297.61	103.21	2,297.61	97.5497	2,297.61	104.148	2,297.61	91.3783	2,297.61	102.264	2,297.61	83.9185	2,297.61	99.475	2,297.61	87.9666	2,297.61	99.3739	2,297.61	90.9402	2,297.61	98.0798	2,297.61	87.9722	2,297.61	91.2162	2,297.61	80.588	2,297.61	92.3077	2,297.61	87.6309	2,297.61	89.2834	2,297.61	94.7369	2,297.61	87.7468	2,297.61	93.9226	2,297.61	86.0591	2,297.61	87.7529	2,297.61	83.9909	2,297.61	84.5288	2,297.61	90.5356	2,297.61	90.2281
2,378.17	110.992	2,378.17	110.459	2,378.17	109.158	2,378.17	107.723	2,378.17	104.286	2,378.17	104.016	2,378.17	98.5662	2,378.17	101.354	2,378.17	101.569	2,378.17	96.3541	2,378.17	103.363	2,378.17	94.9914	2,378.17	103.474	2,378.17	95.0556	2,378.17	102.494	2,378.17	88.9203	2,378.17	101.129	2,378.17	88.716	2,378.17	100.637	2,378.17	92.3782	2,378.17	98.6192	2,378.17	91.0609	2,378.17	90.5558	2,378.17	90.7244	2,378.17	92.9683	2,378.17	87.5999	2,378.17	92.423	2,378.17	86.4669	2,378.17	83.8542	2,378.17	88.5319	2,378.17	91.8559	2,378.17	86.207	2,378.17	74.2105	2,378.17	82.025	2,378.17	86.5901	2,378.17	85.7283
2,462.4	110	2,462.4	109.432	2,462.4	108.656	2,462.4	107.473	2,462.4	103.629	2,462.4	103.461	2,462.4	98.3936	2,462.4	97.1394	2,462.4	103.636	2,462.4	90.3593	2,462.4	104.574	2,462.4	86.1563	2,462.4	103.582	2,462.4	90.9464	2,462.4	101.371	2,462.4	94.5414	2,462.4	98.0039	2,462.4	92.9729	2,462.4	98.7705	2,462.4	90.6435	2,462.4	97.3484	2,462.4	90.9216	2,462.4	89.0297	2,462.4	90.3387	2,462.4	93.3107	2,462.4	90.3729	2,462.4	91.7606	2,462.4	90.0956	2,462.4	92.9242	2,462.4	89.3729	2,462.4	91.3216	2,462.4	87.6443	2,462.4	83.5703	2,462.4	85.2016	2,462.4	89.9267	2,462.4	88.6721
2,548.83	109.046	2,548.83	108.926	2,548.83	107.233	2,548.83	107.074	2,548.83	100.763	2,548.83	101.776	2,548.83	97.3578	2,548.83	91.0423	2,548.83	103.939	2,548.83	88.8782	2,548.83	104.699	2,548.83	94.8052	2,548.83	103.111	2,548.83	94.6078	2,548.83	101.269	2,548.83	90.7826	2,548.83	100.618	2,548.83	91.6845	2,548.83	99.6232	2,548.83	92.7498	2,548.83	94.4269	2,548.83	92.6462	2,548.83	80.9168	2,548.83	91.6903	2,548.83	90.5342	2,548.83	90.2144	2,548.83	93.3258	2,548.83	90.5388	2,548.83	92.4275	2,548.83	89.8025	2,548.83	91.0496	2,548.83	86.3156	2,548.83	81.2754	2,548.83	78.4046	2,548.83	89.8921	2,548.83	85.1905
2,638.92	109.227	2,638.92	108.899	2,638.92	106.719	2,638.92	105.744	2,638.92	99.0731	2,638.92	99.1411	2,638.92	97.6931	2,638.92	85.8515	2,638.92	104.666	2,638.92	91.1751	2,638.92	105.287	2,638.92	95.6712	2,638.92	102.987	2,638.92	96.6691	2,638.92	100.114	2,638.92	96.153	2,638.92	98.7928	2,638.92	95.862	2,638.92	97.4711	2,638.92	93.4651	2,638.92	93.5143	2,638.92	89.3904	2,638.92	92.1055	2,638.92	91.607	2,638.92	89.6481	2,638.92	91.493	2,638.92	91.4895	2,638.92	90.4148	2,638.92	91.8968	2,638.92	91.1257	2,638.92	92.1905	2,638.92	87.2145	2,638.92	75.2308	2,638.92	76.2843	2,638.92	91.6463	2,638.92	89.0919
2,731.93	108.83	2,731.93	108.486	2,731.93	106.108	2,731.93	105.563	2,731.93	96.1393	2,731.93	99.1046	2,731.93	98.3249	2,731.93	69.7366	2,731.93	104.648	2,731.93	94.3303	2,731.93	105.534	2,731.93	95.3901	2,731.93	103.689	2,731.93	94.1671	2,731.93	100.516	2,731.93	92.6694	2,731.93	95.814	2,731.93	90.4853	2,731.93	93.1697	2,731.93	90.3514	2,731.93	94.4651	2,731.93	90.2181	2,731.93	91.4417	2,731.93	88.7534	2,731.93	92.4838	2,731.93	89.3566	2,731.93	92.8428	2,731.93	91.0783	2,731.93	89.3032	2,731.93	91.3104	2,731.93	90.9772	2,731.93	86.2386	2,731.93	74.8533	2,731.93	76.3682	2,731.93	91.5792	2,731.93	87.321
2,828.61	108.798	2,828.61	108.388	2,828.61	105.93	2,828.61	105.274	2,828.61	94.7542	2,828.61	98.2454	2,828.61	99.456	2,828.61	85.4004	2,828.61	105.372	2,828.61	95.0527	2,828.61	105.904	2,828.61	96.3768	2,828.61	104.32	2,828.61	95.3226	2,828.61	101.736	2,828.61	93.1369	2,828.61	96.0922	2,828.61	91.281	2,828.61	92.9509	2,828.61	92.7172	2,828.61	95.0744	2,828.61	92.4979	2,828.61	89.4451	2,828.61	90.5387	2,828.61	90.3001	2,828.61	91.005	2,828.61	92.9594	2,828.61	91.3839	2,828.61	89.927	2,828.61	91.4276	2,828.61	90.2633	2,828.61	86.2711	2,828.61	75.1667	2,828.61	69.4416	2,828.61	91.1433	2,828.61	85.7825
2,928.22	108.336	2,928.22	108.152	2,928.22	105.281	2,928.22	104.991	2,928.22	92.7192	2,928.22	96.7812	2,928.22	100.282	2,928.22	92.7215	2,928.22	105.435	2,928.22	96.7452	2,928.22	105.996	2,928.22	97.0425	2,928.22	104.581	2,928.22	95.0765	2,928.22	101.163	2,928.22	95.3153	2,928.22	94.4253	2,928.22	95.627	2,928.22	92.6504	2,928.22	92.8447	2,928.22	93.3614	2,928.22	89.9019	2,928.22	88.3939	2,928.22	89.1462	2,928.22	85.1964	2,928.22	88.2207	2,928.22	93.2383	2,928.22	88.8626	2,928.22	90.2379	2,928.22	90.4695	2,928.22	91.2276	2,928.22	86.2862	2,928.22	78.4228	2,928.22	75.594	2,928.22	88.5588	2,928.22	80.1409
3,031.49	107.723	3,031.49	107.698	3,031.49	104.292	3,031.49	104.407	3,031.49	92.6367	3,031.49	97.788	3,031.49	101.144	3,031.49	93.6484	3,031.49	105.806	3,031.49	95.2558	3,031.49	106.002	3,031.49	95.8316	3,031.49	104.116	3,031.49	95.7285	3,031.49	100.226	3,031.49	95.4392	3,031.49	94.9656	3,031.49	92.2253	3,031.49	94.5111	3,031.49	90.0688	3,031.49	92.1637	3,031.49	90.789	3,031.49	74.3099	3,031.49	89.3877	3,031.49	82.1222	3,031.49	88.9754	3,031.49	89.9516	3,031.49	88.0685	3,031.49	90.1411	3,031.49	89.3341	3,031.49	89.7351	3,031.49	86.7781	3,031.49	81.2883	3,031.49	70.7093	3,031.49	88.1031	3,031.49	79.0221
3,138.43	107.818	3,138.43	107.739	3,138.43	104.108	3,138.43	104.371	3,138.43	94.1696	3,138.43	97.4356	3,138.43	101.962	3,138.43	94.1864	3,138.43	105.53	3,138.43	96.9118	3,138.43	105.434	3,138.43	98.2006	3,138.43	103.139	3,138.43	96.9898	3,138.43	98.7993	3,138.43	94.2528	3,138.43	93.8596	3,138.43	93.3308	3,138.43	93.6389	3,138.43	93.4031	3,138.43	92.2345	3,138.43	92.1657	3,138.43	85.0211	3,138.43	90.7756	3,138.43	77.3367	3,138.43	91.2056	3,138.43	88.0202	3,138.43	90.1496	3,138.43	86.9391	3,138.43	89.8258	3,138.43	88.931	3,138.43	87.5195	3,138.43	84.2239	3,138.43	76.3575	3,138.43	86.1769	3,138.43	78.9055
3,249.02	107.247	3,249.02	107.016	3,249.02	103.619	3,249.02	104.109	3,249.02	95.1267	3,249.02	98.4604	3,249.02	102.665	3,249.02	96.4875	3,249.02	105.419	3,249.02	98.7046	3,249.02	104.897	3,249.02	98.933	3,249.02	102.882	3,249.02	97.5075	3,249.02	98.2955	3,249.02	96.8018	3,249.02	89.9847	3,249.02	95.6109	3,249.02	91.789	3,249.02	93.3922	3,249.02	91.4918	3,249.02	91.7485	3,249.02	80.7695	3,249.02	90.71	3,249.02	71.6683	3,249.02	90.6763	3,249.02	87.6142	3,249.02	90.4892	3,249.02	86.7068	3,249.02	90.7302	3,249.02	88.6265	3,249.02	87.9899	3,249.02	83.7478	3,249.02	76.5097	3,249.02	85.5998	3,249.02	80.0903
3,363.28	106.619	3,363.28	107.139	3,363.28	102.923	3,363.28	104.032	3,363.28	97.3386	3,363.28	97.7865	3,363.28	102.581	3,363.28	97.1993	3,363.28	105.04	3,363.28	100.361	3,363.28	104.31	3,363.28	100.553	3,363.28	102.302	3,363.28	98.6114	3,363.28	98.4242	3,363.28	97.5049	3,363.28	92.3549	3,363.28	93.2594	3,363.28	92.5276	3,363.28	90.7276	3,363.28	91.2766	3,363.28	92.2012	3,363.28	75.7552	3,363.28	89.6436	3,363.28	79.3569	3,363.28	90.1491	3,363.28	87.7464	3,363.28	90.6549	3,363.28	87.6573	3,363.28	90.0443	3,363.28	88.1735	3,363.28	87.3091	3,363.28	81.4019	3,363.28	79.08	3,363.28	85.7292	3,363.28	75.6835
3,481.93	106.554	3,481.93	107.318	3,481.93	102.045	3,481.93	104.367	3,481.93	98.8391	3,481.93	98.4135	3,481.93	102.149	3,481.93	98.5176	3,481.93	104.197	3,481.93	101.075	3,481.93	103.771	3,481.93	100.265	3,481.93	100.96	3,481.93	98.3013	3,481.93	97.7654	3,481.93	95.6005	3,481.93	94.6826	3,481.93	93.0174	3,481.93	90.5081	3,481.93	92.1708	3,481.93	85.5553	3,481.93	91.0007	3,481.93	83.3496	3,481.93	88.8726	3,481.93	84.184	3,481.93	90.4421	3,481.93	87.5754	3,481.93	91.2131	3,481.93	88.054	3,481.93	90.0311	3,481.93	85.463	3,481.93	86.7936	3,481.93	81.7697	3,481.93	75.8123	3,481.93	85.2771	3,481.93	72.5766
3,604.98	106.915	3,604.98	107.809	3,604.98	102.037	3,604.98	104.146	3,604.98	100.821	3,604.98	98.4876	3,604.98	102.609	3,604.98	99.6824	3,604.98	103.392	3,604.98	100.625	3,604.98	103.009	3,604.98	100.315	3,604.98	100.883	3,604.98	97.1817	3,604.98	96.9449	3,604.98	94.3306	3,604.98	93.7594	3,604.98	93.1666	3,604.98	89.9238	3,604.98	89.7472	3,604.98	75.6446	3,604.98	89.2914	3,604.98	86.5081	3,604.98	87.8035	3,604.98	85.5972	3,604.98	88.4546	3,604.98	86.6907	3,604.98	91.5475	3,604.98	87.1429	3,604.98	90.5073	3,604.98	82.665	3,604.98	87.5375	3,604.98	82.8173	3,604.98	75.6574	3,604.98	83.8094	3,604.98	78.2107
3,732.42	107.326	3,732.42	108.178	3,732.42	101.128	3,732.42	104.359	3,732.42	102.237	3,732.42	99.5915	3,732.42	103.924	3,732.42	100.775	3,732.42	102.391	3,732.42	101.243	3,732.42	101.838	3,732.42	98.8391	3,732.42	100.576	3,732.42	97.3604	3,732.42	96.0418	3,732.42	95.2834	3,732.42	91.0837	3,732.42	91.0542	3,732.42	86.1976	3,732.42	89.3541	3,732.42	82.1269	3,732.42	89.185	3,732.42	88.6037	3,732.42	85.8449	3,732.42	86.5147	3,732.42	82.7839	3,732.42	86.7412	3,732.42	88.4127	3,732.42	85.9121	3,732.42	89.9137	3,732.42	80.8469	3,732.42	87.6891	3,732.42	81.8962	3,732.42	76.987	3,732.42	84.8304	3,732.42	75.4611
3,863.53	107.962	3,863.53	108.372	3,863.53	101.61	3,863.53	104.302	3,863.53	102.754	3,863.53	99.9543	3,863.53	104.915	3,863.53	101.69	3,863.53	101.709	3,863.53	100.898	3,863.53	100.03	3,863.53	99.3658	3,863.53	99.8339	3,863.53	96.4594	3,863.53	96.2568	3,863.53	91.1436	3,863.53	93.0816	3,863.53	91.4252	3,863.53	91.2807	3,863.53	87.9443	3,863.53	86.9186	3,863.53	87.0778	3,863.53	87.6018	3,863.53	87.1144	3,863.53	86.8861	3,863.53	82.5613	3,863.53	86.9842	3,863.53	86.7143	3,863.53	85.1199	3,863.53	86.7059	3,863.53	76.3479	3,863.53	85.6381	3,863.53	85.1673	3,863.53	76.7308	3,863.53	85.0849	3,863.53	75.2585
3,999.76	108.407	3,999.76	108.814	3,999.76	102.616	3,999.76	104.413	3,999.76	102.415	3,999.76	100.346	3,999.76	104.864	3,999.76	101.799	3,999.76	102.414	3,999.76	100.798	3,999.76	98.9366	3,999.76	98.623	3,999.76	99.6866	3,999.76	95.9517	3,999.76	97.4426	3,999.76	96.1523	3,999.76	91.7148	3,999.76	92.7184	3,999.76	91.6752	3,999.76	89.1492	3,999.76	81.8586	3,999.76	88.9995	3,999.76	90.602	3,999.76	86.9361	3,999.76	87.0482	3,999.76	85.2219	3,999.76	85.9823	3,999.76	84.7872	3,999.76	82.4803	3,999.76	86.8796	3,999.76	74.7264	3,999.76	86.6063	3,999.76	84.2274	3,999.76	81.1621	3,999.76	82.1037	3,999.76	71.1849
4,141.11	109.069	4,141.11	109.146	4,141.11	103.111	4,141.11	103.384	4,141.11	103.114	4,141.11	102.231	4,141.11	104.813	4,141.11	101.653	4,141.11	101.814	4,141.11	100.392	4,141.11	98.7224	4,141.11	100.053	4,141.11	99.9468	4,141.11	98.4039	4,141.11	97.7804	4,141.11	94.4533	4,141.11	91.7199	4,141.11	90.0136	4,141.11	88.8249	4,141.11	89.9422	4,141.11	84.4846	4,141.11	87.4976	4,141.11	93.0345	4,141.11	88.4062	4,141.11	86.6206	4,141.11	86.5228	4,141.11	81.4358	4,141.11	84.4793	4,141.11	69.3038	4,141.11	86.3884	4,141.11	76.5136	4,141.11	86.4213	4,141.11	83.3201	4,141.11	80.331	4,141.11	81.4092	4,141.11	73.6858
4,286.87	109.598	4,286.87	108.559	4,286.87	104.02	4,286.87	103.629	4,286.87	104.38	4,286.87	102.753	4,286.87	106.029	4,286.87	101.802	4,286.87	100.925	4,286.87	102.603	4,286.87	98.1354	4,286.87	100.691	4,286.87	100.362	4,286.87	97.2208	4,286.87	97.9375	4,286.87	94.4257	4,286.87	93.2983	4,286.87	93.4414	4,286.87	93.3553	4,286.87	89.0448	4,286.87	88.5167	4,286.87	86.2101	4,286.87	91.8135	4,286.87	87.3953	4,286.87	89.0522	4,286.87	86.8077	4,286.87	82.9318	4,286.87	85.1979	4,286.87	76.5553	4,286.87	82.7261	4,286.87	76.461	4,286.87	83.6334	4,286.87	82.0486	4,286.87	80.1236	4,286.87	78.9066	4,286.87	69.4064
4,438.48	109.834	4,438.48	108.739	4,438.48	105.435	4,438.48	104.691	4,438.48	104.586	4,438.48	102.64	4,438.48	106.111	4,438.48	102.994	4,438.48	102.43	4,438.48	102.406	4,438.48	94.2735	4,438.48	98.516	4,438.48	98.1919	4,438.48	96.3313	4,438.48	96.0566	4,438.48	92.1326	4,438.48	93.2815	4,438.48	88.5607	4,438.48	95.668	4,438.48	88.3945	4,438.48	90.2443	4,438.48	87.0567	4,438.48	92.8203	4,438.48	85.5443	4,438.48	90.3022	4,438.48	87.3259	4,438.48	87.6703	4,438.48	86.2834	4,438.48	80.1778	4,438.48	83.9061	4,438.48	72.7663	4,438.48	84.5782	4,438.48	84.2973	4,438.48	82.4956	4,438.48	83.8507	4,438.48	76.437
4,594.48	109.591	4,594.48	107.797	4,594.48	106.52	4,594.48	103.858	4,594.48	104.255	4,594.48	104.102	4,594.48	106.404	4,594.48	104.084	4,594.48	103.143	4,594.48	101.537	4,594.48	92.0803	4,594.48	98.5778	4,594.48	96.1413	4,594.48	93.904	4,594.48	95.8647	4,594.48	91.2503	4,594.48	95.3051	4,594.48	91.2298	4,594.48	94.4534	4,594.48	85.9661	4,594.48	91.2497	4,594.48	86.5838	4,594.48	90.6048	4,594.48	85.1043	4,594.48	87.4182	4,594.48	87.177	4,594.48	84.2765	4,594.48	87.3327	4,594.48	76.3177	4,594.48	83.0742	4,594.48	74.1759	4,594.48	83.0055	4,594.48	83.6757	4,594.48	81.9221	4,594.48	85.2435	4,594.48	82.1567
4,757.08	108.855	4,757.08	107.589	4,757.08	107.26	4,757.08	105.899	4,757.08	106.948	4,757.08	105.617	4,757.08	106.904	4,757.08	103.732	4,757.08	101.827	4,757.08	99.7101	4,757.08	96.4229	4,757.08	94.2104	4,757.08	96.8671	4,757.08	92.59	4,757.08	97.4604	4,757.08	89.9976	4,757.08	97.799	4,757.08	88.1621	4,757.08	94.7775	4,757.08	88.1683	4,757.08	89.8603	4,757.08	86.2458	4,757.08	82.1536	4,757.08	87.3061	4,757.08	84.0498	4,757.08	87.4364	4,757.08	82.2909	4,757.08	88.5905	4,757.08	79.5266	4,757.08	88.188	4,757.08	71.2322	4,757.08	86.1775	4,757.08	80.8898	4,757.08	83.9495	4,757.08	78.3811	4,757.08	80.2545
4,924.8	109.141	4,924.8	108.574	4,924.8	107.195	4,924.8	106.904	4,924.8	107.295	4,924.8	105.303	4,924.8	106.584	4,924.8	103.521	4,924.8	102.673	4,924.8	99.069	4,924.8	98.5046	4,924.8	96.3382	4,924.8	98.855	4,924.8	94.151	4,924.8	100.809	4,924.8	94.4146	4,924.8	98.3869	4,924.8	92.6386	4,924.8	96.3789	4,924.8	89.423	4,924.8	90.4652	4,924.8	87.3734	4,924.8	74.9811	4,924.8	88.1124	4,924.8	84.0494	4,924.8	89.5477	4,924.8	80.7226	4,924.8	88.9237	4,924.8	83.3135	4,924.8	89.2099	4,924.8	69.212	4,924.8	88.2862	4,924.8	80.6383	4,924.8	83.11	4,924.8	80.136	4,924.8	77.8489
5,098.39	108.512	5,098.39	108.923	5,098.39	106.726	5,098.39	106.869	5,098.39	106.781	5,098.39	104.969	5,098.39	106.744	5,098.39	103.582	5,098.39	104.142	5,098.39	99.5533	5,098.39	99.2911	5,098.39	97.8143	5,098.39	100.55	5,098.39	97.192	5,098.39	101.784	5,098.39	94.6656	5,098.39	96.0606	5,098.39	89.4147	5,098.39	94.9931	5,098.39	90.225	5,098.39	89.0618	5,098.39	85.542	5,098.39	77.5486	5,098.39	85.602	5,098.39	80.9049	5,098.39	87.2101	5,098.39	83.7421	5,098.39	86.4373	5,098.39	80.8116	5,098.39	87.8513	5,098.39	72.5404	5,098.39	89.0915	5,098.39	81.6912	5,098.39	86.192	5,098.39	85.5294	5,098.39	79.0819
5,277.83	108.994	5,277.83	109.483	5,277.83	107.286	5,277.83	106.086	5,277.83	108.084	5,277.83	104.946	5,277.83	107.302	5,277.83	103.359	5,277.83	102.93	5,277.83	99.9836	5,277.83	97.8177	5,277.83	98.3317	5,277.83	100.685	5,277.83	93.3273	5,277.83	100.823	5,277.83	92.3328	5,277.83	96.3905	5,277.83	89.845	5,277.83	93.6452	5,277.83	89.0147	5,277.83	89.6157	5,277.83	85.582	5,277.83	71.5838	5,277.83	85.5262	5,277.83	82.6998	5,277.83	86.935	5,277.83	83.8622	5,277.83	84.7082	5,277.83	73.2282	5,277.83	85.0606	5,277.83	69.8816	5,277.83	86.0408	5,277.83	83.6815	5,277.83	85.4025	5,277.83	83.5603	5,277.83	82.4623
5,463.87	109.161	5,463.87	109.684	5,463.87	106.9	5,463.87	105.964	5,463.87	108.253	5,463.87	105.409	5,463.87	106.459	5,463.87	102.344	5,463.87	101.066	5,463.87	100.86	5,463.87	97.8964	5,463.87	96.4684	5,463.87	100.25	5,463.87	96.2711	5,463.87	99.5041	5,463.87	93.2323	5,463.87	95.3712	5,463.87	89.0122	5,463.87	90.9742	5,463.87	90.1306	5,463.87	84.0717	5,463.87	86.5518	5,463.87	81.4945	5,463.87	86.3946	5,463.87	87.1268	5,463.87	88.7518	5,463.87	75.6317	5,463.87	82.719	5,463.87	71.6936	5,463.87	86.5255	5,463.87	73.791	5,463.87	87.4077	5,463.87	85.6241	5,463.87	85.1102	5,463.87	83.8069	5,463.87	78.5814
5,656.49	109.624	5,656.49	110.017	5,656.49	106.095	5,656.49	106.091	5,656.49	107.522	5,656.49	105.888	5,656.49	106.675	5,656.49	102.1	5,656.49	102.926	5,656.49	101.683	5,656.49	97.6299	5,656.49	98.6068	5,656.49	97.7448	5,656.49	97.6196	5,656.49	96.9723	5,656.49	94.4232	5,656.49	94.8025	5,656.49	92.2847	5,656.49	86.0681	5,656.49	89.8487	5,656.49	81.1701	5,656.49	87.5726	5,656.49	87.1599	5,656.49	84.3278	5,656.49	87.3206	5,656.49	88.5407	5,656.49	79.1811	5,656.49	84.5897	5,656.49	81.1573	5,656.49	81.8788	5,656.49	75.0396	5,656.49	86.1962	5,656.49	81.0798	5,656.49	85.4917	5,656.49	79.9305	5,656.49	72.5824
5,856.45	110.683	5,856.45	109.599	5,856.45	107.134	5,856.45	106.064	5,856.45	107.408	5,856.45	105.921	5,856.45	107.459	5,856.45	102.749	5,856.45	104.276	5,856.45	102.108	5,856.45	98.6623	5,856.45	98.7886	5,856.45	96.7778	5,856.45	98.4166	5,856.45	96.7373	5,856.45	90.3044	5,856.45	95.7594	5,856.45	89.6416	5,856.45	89.1239	5,856.45	86.9161	5,856.45	87.7814	5,856.45	84.4027	5,856.45	89.3618	5,856.45	81.1263	5,856.45	84.8211	5,856.45	85.2771	5,856.45	76.6488	5,856.45	85.12	5,856.45	81.4624	5,856.45	75.8023	5,856.45	79.0126	5,856.45	87.085	5,856.45	66.3272	5,856.45	80.1429	5,856.45	79.2884	5,856.45	81.1965
6,062.99	110.834	6,062.99	109.26	6,062.99	108.11	6,062.99	106.808	6,062.99	107.033	6,062.99	106.143	6,062.99	107.029	6,062.99	103.494	6,062.99	104.914	6,062.99	102.109	6,062.99	99.8403	6,062.99	98.7418	6,062.99	94.8799	6,062.99	95.4929	6,062.99	95.699	6,062.99	91.0184	6,062.99	96.5003	6,062.99	88.978	6,062.99	93.1122	6,062.99	85.9036	6,062.99	91.0003	6,062.99	87.7645	6,062.99	88.0478	6,062.99	83.0768	6,062.99	86.0218	6,062.99	85.4626	6,062.99	79.2694	6,062.99	84.2164	6,062.99	82.5871	6,062.99	81.1279	6,062.99	64.8809	6,062.99	86.1864	6,062.99	79.0778	6,062.99	84.8964	6,062.99	79.3853	6,062.99	81.4243
6,276.86	110.416	6,276.86	109.573	6,276.86	108.779	6,276.86	107.715	6,276.86	106.962	6,276.86	106.412	6,276.86	106.259	6,276.86	103.325	6,276.86	103.852	6,276.86	101.614	6,276.86	99.8999	6,276.86	97.5757	6,276.86	94.7925	6,276.86	95.247	6,276.86	96.6241	6,276.86	91.8422	6,276.86	94.4939	6,276.86	90.6587	6,276.86	91.3085	6,276.86	87.3223	6,276.86	92.168	6,276.86	86.4938	6,276.86	88.2993	6,276.86	84.9355	6,276.86	82.3728	6,276.86	83.6642	6,276.86	81.0933	6,276.86	83.8758	6,276.86	85.2127	6,276.86	81.1892	6,276.86	60.5574	6,276.86	87.8694	6,276.86	76.3843	6,276.86	85.0955	6,276.86	72.5671	6,276.86	80.4744
6,498.05	110.698	6,498.05	109.591	6,498.05	109.448	6,498.05	107.513	6,498.05	108.335	6,498.05	105.939	6,498.05	106.464	6,498.05	103.079	6,498.05	103.459	6,498.05	101.244	6,498.05	99.8002	6,498.05	96.6468	6,498.05	96.3101	6,498.05	96.4422	6,498.05	97.2756	6,498.05	92.9343	6,498.05	90.0544	6,498.05	90.2024	6,498.05	90.551	6,498.05	86.7985	6,498.05	91.3112	6,498.05	85.5425	6,498.05	87.0738	6,498.05	82.6587	6,498.05	71.9442	6,498.05	80.8339	6,498.05	73.0852	6,498.05	74.0623	6,498.05	82.0265	6,498.05	81.4106	6,498.05	72.5224	6,498.05	86.1345	6,498.05	74.5056	6,498.05	84.9499	6,498.05	75.5432	6,498.05	80.9651
6,727.29	110.865	6,727.29	109.662	6,727.29	109.82	6,727.29	107.67	6,727.29	108.632	6,727.29	105.756	6,727.29	106.826	6,727.29	102.674	6,727.29	104.389	6,727.29	100.221	6,727.29	100.138	6,727.29	96.7377	6,727.29	98.3848	6,727.29	95.1146	6,727.29	94.1841	6,727.29	91.2769	6,727.29	90.7149	6,727.29	88.4191	6,727.29	88.7544	6,727.29	85.1137	6,727.29	89.9056	6,727.29	84.4981	6,727.29	85.3688	6,727.29	84.4338	6,727.29	70.5541	6,727.29	84.9659	6,727.29	70.0366	6,727.29	74.6729	6,727.29	83.0775	6,727.29	82.3296	6,727.29	72.9554	6,727.29	85.1893	6,727.29	64.6492	6,727.29	82.5224	6,727.29	77.8262	6,727.29	79.0355
6,964.6	110.589	6,964.6	109.529	6,964.6	109.616	6,964.6	107.735	6,964.6	108.294	6,964.6	106.12	6,964.6	106.582	6,964.6	102.625	6,964.6	104.105	6,964.6	99.7795	6,964.6	100.52	6,964.6	96.5456	6,964.6	98.5162	6,964.6	94.0882	6,964.6	92.9351	6,964.6	89.2793	6,964.6	96.6702	6,964.6	89.606	6,964.6	87.0432	6,964.6	86.675	6,964.6	84.8012	6,964.6	84.8452	6,964.6	82.7074	6,964.6	81.9046	6,964.6	66.9327	6,964.6	85.9032	6,964.6	70.6673	6,964.6	82.8164	6,964.6	83.0223	6,964.6	80.3201	6,964.6	79.308	6,964.6	86.2551	6,964.6	74.9564	6,964.6	83.8533	6,964.6	72.3397	6,964.6	80.5209
7,209.96	110.34	7,209.96	109.303	7,209.96	109.679	7,209.96	107.839	7,209.96	108.717	7,209.96	106.37	7,209.96	106.978	7,209.96	102.816	7,209.96	104.149	7,209.96	99.9981	7,209.96	100.107	7,209.96	95.7483	7,209.96	96.2612	7,209.96	93.8395	7,209.96	94.64	7,209.96	90.7073	7,209.96	98.256	7,209.96	88.4121	7,209.96	89.3586	7,209.96	85.2398	7,209.96	79.2354	7,209.96	86.5034	7,209.96	77.0527	7,209.96	83.1402	7,209.96	76.1695	7,209.96	85.2157	7,209.96	79.1331	7,209.96	83.4568	7,209.96	80.8611	7,209.96	79.1353	7,209.96	77.0521	7,209.96	84.5337	7,209.96	70.6229	7,209.96	83.9197	7,209.96	76.0406	7,209.96	79.784
7,464.11	110.181	7,464.11	109.203	7,464.11	109.604	7,464.11	107.88	7,464.11	108.534	7,464.11	106.379	7,464.11	106.808	7,464.11	103.104	7,464.11	104.286	7,464.11	99.6519	7,464.11	98.5174	7,464.11	95.7294	7,464.11	92.5663	7,464.11	94.1385	7,464.11	96.8025	7,464.11	91.0246	7,464.11	98.579	7,464.11	89.0207	7,464.11	91.5231	7,464.11	86.0575	7,464.11	79.3791	7,464.11	85.566	7,464.11	74.3634	7,464.11	82.6001	7,464.11	82.6659	7,464.11	81.9163	7,464.11	81.7052	7,464.11	82.1162	7,464.11	79.1879	7,464.11	79.9801	7,464.11	67.6748	7,464.11	86.2811	7,464.11	71.6718	7,464.11	84.5545	7,464.11	71.8497	7,464.11	81.2594
7,727.78	110.281	7,727.78	109.33	7,727.78	109.743	7,727.78	108.012	7,727.78	108.703	7,727.78	106.576	7,727.78	106.828	7,727.78	102.977	7,727.78	103.119	7,727.78	99.5408	7,727.78	97.881	7,727.78	95.8175	7,727.78	93.5292	7,727.78	93.5585	7,727.78	99.063	7,727.78	88.4838	7,727.78	97.479	7,727.78	88.8059	7,727.78	91.2862	7,727.78	84.7398	7,727.78	83.8678	7,727.78	83.4145	7,727.78	81.3125	7,727.78	81.7223	7,727.78	85.3483	7,727.78	81.9724	7,727.78	84.6139	7,727.78	79.6427	7,727.78	72.2888	7,727.78	79.8711	7,727.78	75.3892	7,727.78	83.4831	7,727.78	76.9312	7,727.78	84.2057	7,727.78	74.8567	7,727.78	78.6057
8,000.24	110.937	8,000.24	109.943	8,000.24	110.079	8,000.24	108.62	8,000.24	108.752	8,000.24	106.841	8,000.24	106.303	8,000.24	102.812	8,000.24	103.273	8,000.24	99.6926	8,000.24	97.2157	8,000.24	95.9296	8,000.24	96.5885	8,000.24	93.5426	8,000.24	97.2736	8,000.24	89.9228	8,000.24	92.3996	8,000.24	88.0353	8,000.24	88.9854	8,000.24	84.0829	8,000.24	82.0544	8,000.24	84.0518	8,000.24	84.8738	8,000.24	83.0516	8,000.24	85.6415	8,000.24	83.5023	8,000.24	82.5894	8,000.24	81.833	8,000.24	74.4699	8,000.24	81.8337	8,000.24	77.4149	8,000.24	82.9607	8,000.24	74.3839	8,000.24	84.95	8,000.24	75.6862	8,000.24	78.062
8,282.23	111.502	8,282.23	110.252	8,282.23	110.741	8,282.23	108.757	8,282.23	109.036	8,282.23	106.158	8,282.23	106.782	8,282.23	102.295	8,282.23	103.052	8,282.23	98.3399	8,282.23	97.1499	8,282.23	95.0596	8,282.23	95.6952	8,282.23	92.0513	8,282.23	93.2613	8,282.23	88.2555	8,282.23	89.8271	8,282.23	84.8866	8,282.23	85.1165	8,282.23	83.6614	8,282.23	75.7591	8,282.23	83.5591	8,282.23	82.0934	8,282.23	81.8158	8,282.23	84.2235	8,282.23	80.5745	8,282.23	75.6313	8,282.23	77.6419	8,282.23	69.0416	8,282.23	80.1064	8,282.23	76.8669	8,282.23	81.8446	8,282.23	76.0233	8,282.23	81.3775	8,282.23	75.7989	8,282.23	78.495
8,574.46	111.831	8,574.46	110.522	8,574.46	111.184	8,574.46	108.814	8,574.46	109.309	8,574.46	105.978	8,574.46	106.014	8,574.46	101.887	8,574.46	102.454	8,574.46	97.7808	8,574.46	96.5439	8,574.46	95.1958	8,574.46	93.7421	8,574.46	91.8391	8,574.46	83.8908	8,574.46	87.8955	8,574.46	84.9825	8,574.46	84.804	8,574.46	84.1242	8,574.46	82.452	8,574.46	80.3928	8,574.46	81.7388	8,574.46	84.9917	8,574.46	79.4765	8,574.46	85.2936	8,574.46	80.9392	8,574.46	77.4602	8,574.46	78.293	8,574.46	73.4838	8,574.46	78.3877	8,574.46	72.1689	8,574.46	76.3123	8,574.46	78.5766	8,574.46	82.6821	8,574.46	77.3446	8,574.46	79.1947
8,876.22	111.854	8,876.22	110.674	8,876.22	111.516	8,876.22	109.112	8,876.22	109.659	8,876.22	106.315	8,876.22	106.189	8,876.22	101.396	8,876.22	102.11	8,876.22	97.9024	8,876.22	95.8848	8,876.22	95.3167	8,876.22	91.0984	8,876.22	92.1988	8,876.22	87.7909	8,876.22	89.3442	8,876.22	93.4677	8,876.22	85.37	8,876.22	88.047	8,876.22	81.628	8,876.22	75.3702	8,876.22	80.788	8,876.22	83.422	8,876.22	79.2786	8,876.22	82.2839	8,876.22	79.1498	8,876.22	75.6631	8,876.22	81.0835	8,876.22	73.4203	8,876.22	78.9284	8,876.22	72.512	8,876.22	81.8493	8,876.22	77.8163	8,876.22	82.838	8,876.22	73.9924	8,876.22	78.7566
9,189.7	111.883	9,189.7	110.788	9,189.7	111.672	9,189.7	109.302	9,189.7	109.836	9,189.7	106.039	9,189.7	106.323	9,189.7	101.063	9,189.7	101.875	9,189.7	98.3556	9,189.7	96.8019	9,189.7	94.6686	9,189.7	92.2672	9,189.7	91.7913	9,189.7	92.8314	9,189.7	88.3502	9,189.7	94.6962	9,189.7	85.4517	9,189.7	89.2122	9,189.7	82.7905	9,189.7	76.9397	9,189.7	81.0079	9,189.7	76.9384	9,189.7	80.3144	9,189.7	77.5364	9,189.7	79.6887	9,189.7	75.1104	9,189.7	82.8401	9,189.7	66.3973	9,189.7	80.2917	9,189.7	72.4483	9,189.7	82.1391	9,189.7	78.453	9,189.7	80.2637	9,189.7	77.1926	9,189.7	78.8289
9,513.43	112.048	9,513.43	111.109	9,513.43	111.68	9,513.43	109.557	9,513.43	109.896	9,513.43	105.817	9,513.43	106.414	9,513.43	102.264	9,513.43	102.024	9,513.43	98.1951	9,513.43	97.4224	9,513.43	95.1822	9,513.43	94.917	9,513.43	92.2059	9,513.43	95.3448	9,513.43	91.9654	9,513.43	95.2407	9,513.43	88.2934	9,513.43	87.7511	9,513.43	84.8642	9,513.43	79.2173	9,513.43	82.6303	9,513.43	75.6847	9,513.43	81.6354	9,513.43	79.9135	9,513.43	78.5279	9,513.43	70.5303	9,513.43	82.7144	9,513.43	71.7122	9,513.43	82.6282	9,513.43	70.7968	9,513.43	82.7	9,513.43	77.7349	9,513.43	78.9546	9,513.43	77.3332	9,513.43	77.2506
9,848.88	112.42	9,848.88	111.697	9,848.88	111.847	9,848.88	109.575	9,848.88	110.083	9,848.88	105.938	9,848.88	106.575	9,848.88	102.509	9,848.88	102.128	9,848.88	99.0642	9,848.88	97.969	9,848.88	96.8772	9,848.88	95.4715	9,848.88	94.0269	9,848.88	94.9594	9,848.88	91.9595	9,848.88	93.6359	9,848.88	87.9415	9,848.88	84.5047	9,848.88	84.1968	9,848.88	83.1605	9,848.88	82.4006	9,848.88	78.6506	9,848.88	80.435	9,848.88	72.0174	9,848.88	81.0875	9,848.88	75.8022	9,848.88	82.062	9,848.88	74.1852	9,848.88	84.434	9,848.88	73.2257	9,848.88	81.8024	9,848.88	76.9538	9,848.88	79.3695	9,848.88	74.5077	9,848.88	77.0343
10,196.8	112.969	10,196.8	112.26	10,196.8	112.29	10,196.8	109.713	10,196.8	110.465	10,196.8	105.858	10,196.8	107	10,196.8	102.435	10,196.8	101.829	10,196.8	100.114	10,196.8	99.0433	10,196.8	97.2091	10,196.8	94.8412	10,196.8	93.9244	10,196.8	93.9981	10,196.8	91.4957	10,196.8	93.5727	10,196.8	89.2433	10,196.8	87.0576	10,196.8	85.562	10,196.8	77.5068	10,196.8	83.1213	10,196.8	80.4261	10,196.8	81.2023	10,196.8	75.3045	10,196.8	83.2519	10,196.8	72.865	10,196.8	83.7279	10,196.8	75.8386	10,196.8	84.766	10,196.8	72.9656	10,196.8	82.4364	10,196.8	77.1587	10,196.8	80.9394	10,196.8	78.2672	10,196.8	77.3133
10,556.4	113.382	10,556.4	112.573	10,556.4	112.413	10,556.4	109.816	10,556.4	110.41	10,556.4	105.679	10,556.4	106.905	10,556.4	103.292	10,556.4	102.666	10,556.4	99.5944	10,556.4	100.024	10,556.4	98.8037	10,556.4	93.9725	10,556.4	95.7659	10,556.4	95.0515	10,556.4	93.6316	10,556.4	92.3237	10,556.4	89.396	10,556.4	89.015	10,556.4	86.6937	10,556.4	87.1904	10,556.4	83.3983	10,556.4	87.2578	10,556.4	81.6089	10,556.4	67.5665	10,556.4	82.182	10,556.4	72.6127	10,556.4	85.0288	10,556.4	79.2376	10,556.4	84.6683	10,556.4	71.9175	10,556.4	82.7149	10,556.4	74.9752	10,556.4	82.1092	10,556.4	78.6317	10,556.4	77.1295
10,928.5	113.697	10,928.5	112.592	10,928.5	113.023	10,928.5	109.756	10,928.5	110.661	10,928.5	106.345	10,928.5	107.174	10,928.5	102.945	10,928.5	103.157	10,928.5	100.792	10,928.5	101.803	10,928.5	99.4677	10,928.5	97.4988	10,928.5	96.4905	10,928.5	94.6697	10,928.5	92.2228	10,928.5	87.2798	10,928.5	88.5843	10,928.5	90.1761	10,928.5	86.4969	10,928.5	87.921	10,928.5	82.6242	10,928.5	90.8374	10,928.5	81.7499	10,928.5	75.8101	10,928.5	82.1035	10,928.5	55.4855	10,928.5	83.9355	10,928.5	77.9642	10,928.5	84.5461	10,928.5	66.0491	10,928.5	84.7353	10,928.5	74.5568	10,928.5	82.8448	10,928.5	78.9202	10,928.5	77.7468
11,313.7	113.883	11,313.7	112.826	11,313.7	113.47	11,313.7	110.324	11,313.7	111.111	11,313.7	107.413	11,313.7	107.586	11,313.7	103.99	11,313.7	104.259	11,313.7	101.976	11,313.7	103.106	11,313.7	100.57	11,313.7	98.4433	11,313.7	96.4859	11,313.7	94.6535	11,313.7	93.6399	11,313.7	88.7667	11,313.7	89.2089	11,313.7	89.1935	11,313.7	86.8675	11,313.7	86.9026	11,313.7	81.7408	11,313.7	91.8745	11,313.7	82.3869	11,313.7	71.4496	11,313.7	83.8644	11,313.7	72.9734	11,313.7	84.6642	11,313.7	65.3692	11,313.7	86.0294	11,313.7	69.9249	11,313.7	86.4499	11,313.7	75.9548	11,313.7	83.1323	11,313.7	77.838	11,313.7	75.8659
11,712.9	113.948	11,712.9	112.982	11,712.9	113.275	11,712.9	110.601	11,712.9	111.056	11,712.9	107.512	11,712.9	108.134	11,712.9	104.642	11,712.9	105.579	11,712.9	102.739	11,712.9	104.333	11,712.9	100.939	11,712.9	97.1885	11,712.9	96.0735	11,712.9	97.1883	11,712.9	92.7405	11,712.9	90.5585	11,712.9	87.0642	11,712.9	91.2966	11,712.9	85.6637	11,712.9	85.6056	11,712.9	82.4532	11,712.9	91.9067	11,712.9	79.3913	11,712.9	72.1908	11,712.9	82.4615	11,712.9	67.3464	11,712.9	84.6975	11,712.9	68.5235	11,712.9	85.5187	11,712.9	73.6407	11,712.9	86.6433	11,712.9	75.6684	11,712.9	82.2066	11,712.9	78.7909	11,712.9	76.34
12,126	114.11	12,126	113.187	12,126	113.052	12,126	110.706	12,126	110.8	12,126	107.916	12,126	107.972	12,126	105.54	12,126	105.504	12,126	103.93	12,126	103.664	12,126	100.888	12,126	95.847	12,126	95.6407	12,126	98.1691	12,126	92.3076	12,126	88.0657	12,126	88.5129	12,126	90.4579	12,126	85.836	12,126	88.3069	12,126	83.2138	12,126	92.0431	12,126	77.9388	12,126	79.9986	12,126	83.7467	12,126	68.1299	12,126	84.4859	12,126	72.8703	12,126	85.4104	12,126	73.8297	12,126	85.9504	12,126	76.0599	12,126	81.3251	12,126	77.4031	12,126	78.5967
12,553.7	114.429	12,553.7	112.963	12,553.7	113.42	12,553.7	110.735	12,553.7	110.939	12,553.7	107.901	12,553.7	107.907	12,553.7	106.641	12,553.7	105.64	12,553.7	104.035	12,553.7	101.42	12,553.7	100.654	12,553.7	97.5006	12,553.7	94.4681	12,553.7	96.2929	12,553.7	92.1727	12,553.7	87.5778	12,553.7	88.9669	12,553.7	89.609	12,553.7	85.3147	12,553.7	88.4958	12,553.7	82.7813	12,553.7	91.1608	12,553.7	80.0203	12,553.7	80.2527	12,553.7	82.9804	12,553.7	74.7638	12,553.7	84.2639	12,553.7	74.8425	12,553.7	86.1694	12,553.7	79.7885	12,553.7	85.8698	12,553.7	75.8368	12,553.7	81.5857	12,553.7	78.6305	12,553.7	81.042
12,996.1	114.812	12,996.1	112.885	12,996.1	113.936	12,996.1	110.994	12,996.1	110.96	12,996.1	107.859	12,996.1	107.737	12,996.1	107.086	12,996.1	105.311	12,996.1	104.132	12,996.1	101.501	12,996.1	100.311	12,996.1	99.633	12,996.1	94.8085	12,996.1	93.9568	12,996.1	91.5212	12,996.1	82.4701	12,996.1	88.6717	12,996.1	88.2898	12,996.1	85.6013	12,996.1	90.9758	12,996.1	81.662	12,996.1	92.316	12,996.1	80.5129	12,996.1	82.3102	12,996.1	81.3602	12,996.1	74.8019	12,996.1	83.1663	12,996.1	63.4913	12,996.1	85.3015	12,996.1	77.8249	12,996.1	85.354	12,996.1	76.9113	12,996.1	80.8749	12,996.1	76.4635	12,996.1	81.8631
13,454.6	114.923	13,454.6	113.283	13,454.6	114.085	13,454.6	111.12	13,454.6	111.084	13,454.6	108.036	13,454.6	108.035	13,454.6	107.074	13,454.6	106.204	13,454.6	103.855	13,454.6	103.644	13,454.6	99.9789	13,454.6	100.049	13,454.6	94.6244	13,454.6	94.2051	13,454.6	92.715	13,454.6	85.4749	13,454.6	87.899	13,454.6	91.3521	13,454.6	85.6151	13,454.6	92.0246	13,454.6	80.6663	13,454.6	94.7894	13,454.6	81.0265	13,454.6	80.8763	13,454.6	80.7018	13,454.6	76.1361	13,454.6	83.6016	13,454.6	69.1557	13,454.6	84.5852	13,454.6	82.3367	13,454.6	86.1434	13,454.6	78.0511	13,454.6	82.6313	13,454.6	74.0045	13,454.6	82.261
13,928.5	114.827	13,928.5	113.378	13,928.5	113.716	13,928.5	111.211	13,928.5	110.796	13,928.5	108.413	13,928.5	108.533	13,928.5	107.362	13,928.5	107.334	13,928.5	103.659	13,928.5	103.023	13,928.5	100.267	13,928.5	100.792	13,928.5	95.1885	13,928.5	92.6634	13,928.5	91.0954	13,928.5	87.1162	13,928.5	86.778	13,928.5	90.3818	13,928.5	84.2477	13,928.5	94.6817	13,928.5	78.8399	13,928.5	96.542	13,928.5	80.1114	13,928.5	79.9318	13,928.5	80.054	13,928.5	67.7782	13,928.5	81.5956	13,928.5	67.5164	13,928.5	84.2121	13,928.5	83.2342	13,928.5	85.9612	13,928.5	81.7469	13,928.5	83.9627	13,928.5	73.9369	13,928.5	82.7174
14,419.9	114.452	14,419.9	113.08	14,419.9	113.36	14,419.9	111.18	14,419.9	110.72	14,419.9	109.156	14,419.9	108.937	14,419.9	107.662	14,419.9	106.838	14,419.9	104.721	14,419.9	104.377	14,419.9	100.474	14,419.9	100.572	14,419.9	94.6057	14,419.9	93.1088	14,419.9	92.8708	14,419.9	84.5293	14,419.9	87.3973	14,419.9	86.9338	14,419.9	86.4209	14,419.9	95.9413	14,419.9	79.5646	14,419.9	97.0598	14,419.9	81.0314	14,419.9	85.4158	14,419.9	80.5633	14,419.9	72.9233	14,419.9	80.126	14,419.9	74.2604	14,419.9	84.3971	14,419.9	85.2436	14,419.9	85.373	14,419.9	85.0176	14,419.9	84.1631	14,419.9	77.1021	14,419.9	82.6194
14,928.2	114.034	14,928.2	112.734	14,928.2	113.223	14,928.2	111.076	14,928.2	110.493	14,928.2	109.676	14,928.2	108.751	14,928.2	107.836	14,928.2	106.544	14,928.2	104.671	14,928.2	103.135	14,928.2	100.454	14,928.2	100.259	14,928.2	94.0535	14,928.2	93.1922	14,928.2	91.0468	14,928.2	88.0945	14,928.2	86.4579	14,928.2	86.3726	14,928.2	85.0339	14,928.2	94.3799	14,928.2	78.5864	14,928.2	95.9643	14,928.2	79.7959	14,928.2	86.4453	14,928.2	80.7612	14,928.2	74.2532	14,928.2	81.9905	14,928.2	78.1037	14,928.2	85.5894	14,928.2	84.8417	14,928.2	84.4644	14,928.2	83.5482	14,928.2	81.965	14,928.2	78.3755	14,928.2	81.8389
15,454.8	114.006	15,454.8	112.737	15,454.8	113.181	15,454.8	110.949	15,454.8	110.295	15,454.8	110.109	15,454.8	108.431	15,454.8	107.558	15,454.8	105.933	15,454.8	104.614	15,454.8	104.107	15,454.8	100.29	15,454.8	100.19	15,454.8	93.7837	15,454.8	93.0692	15,454.8	91.6334	15,454.8	87.6491	15,454.8	85.7943	15,454.8	85.1347	15,454.8	83.5277	15,454.8	94.8045	15,454.8	77.5254	15,454.8	96.3522	15,454.8	79.9774	15,454.8	87.4511	15,454.8	78.7019	15,454.8	73.7219	15,454.8	82.5934	15,454.8	78.2535	15,454.8	85.4743	15,454.8	83.6552	15,454.8	83.4448	15,454.8	79.0767	15,454.8	83.2593	15,454.8	82.5664	15,454.8	83.7154
15,999.8	113.913	15,999.8	113.023	15,999.8	112.747	15,999.8	111.426	15,999.8	109.884	15,999.8	110.407	15,999.8	108.297	15,999.8	107.457	15,999.8	106.446	15,999.8	103.807	15,999.8	102.47	15,999.8	100.086	15,999.8	98.7049	15,999.8	93.1405	15,999.8	90.9132	15,999.8	90.6698	15,999.8	84.9762	15,999.8	85.2869	15,999.8	82.508	15,999.8	83.555	15,999.8	94.9655	15,999.8	78.7893	15,999.8	95.6776	15,999.8	77.5631	15,999.8	87.4767	15,999.8	79.0286	15,999.8	78.1107	15,999.8	83.0159	15,999.8	77.1611	15,999.8	85.8811	15,999.8	80.8783	15,999.8	81.0482	15,999.8	76.3242	15,999.8	83.9948	15,999.8	82.6475	15,999.8	83.6144
16,564.5	113.605	16,564.5	112.922	16,564.5	112.043	16,564.5	111.765	16,564.5	109.421	16,564.5	110.393	16,564.5	108.219	16,564.5	107.686	16,564.5	106.032	16,564.5	103.844	16,564.5	102.733	16,564.5	99.8396	16,564.5	97.7326	16,564.5	93.324	16,564.5	87.6343	16,564.5	90.5347	16,564.5	86.5346	16,564.5	84.3975	16,564.5	81.0045	16,564.5	84.4129	16,564.5	96.0133	16,564.5	76.7232	16,564.5	94.6563	16,564.5	80.1263	16,564.5	88.7368	16,564.5	74.3467	16,564.5	81.0296	16,564.5	82.9891	16,564.5	77.16	16,564.5	85.5197	16,564.5	82.4827	16,564.5	76.4639	16,564.5	77.2919	16,564.5	84.1104	16,564.5	84.6679	16,564.5	85.6333
17,148.2	113.25	17,148.2	112.893	17,148.2	111.413	17,148.2	112.227	17,148.2	109.376	17,148.2	110.715	17,148.2	108.555	17,148.2	108.076	17,148.2	106.019	17,148.2	104.123	17,148.2	102.131	17,148.2	99.8772	17,148.2	96.5143	17,148.2	93.8715	17,148.2	84.4286	17,148.2	90.7305	17,148.2	85.7159	17,148.2	82.7959	17,148.2	77.908	17,148.2	83.7145	17,148.2	96.5084	17,148.2	76.2447	17,148.2	94.7197	17,148.2	79.3798	17,148.2	89.6016	17,148.2	61.1196	17,148.2	83.7264	17,148.2	82.2703	17,148.2	78.5458	17,148.2	84.6532	17,148.2	83.3666	17,148.2	69.1637	17,148.2	77.6155	17,148.2	85.7094	17,148.2	85.6095	17,148.2	86.2714
17,753.2	113.291	17,753.2	113.086	17,753.2	111.592	17,753.2	112.588	17,753.2	110.441	17,753.2	110.773	17,753.2	109.249	17,753.2	108.011	17,753.2	106.296	17,753.2	104.174	17,753.2	102.272	17,753.2	99.5979	17,753.2	91.5156	17,753.2	93.6324	17,753.2	89.1359	17,753.2	91.1629	17,753.2	86.9003	17,753.2	81.4296	17,753.2	81.4161	17,753.2	83.9002	17,753.2	96.9193	17,753.2	79.16	17,753.2	94.0351	17,753.2	77.9987	17,753.2	89.9992	17,753.2	74.9009	17,753.2	85.0898	17,753.2	81.3394	17,753.2	78.2688	17,753.2	84.0923	17,753.2	83.5781	17,753.2	70.5956	17,753.2	78.5828	17,753.2	87.578	17,753.2	86.4765	17,753.2	86.4119
18,379.4	112.815	18,379.4	112.682	18,379.4	111.969	18,379.4	112.133	18,379.4	111.318	18,379.4	110.155	18,379.4	109.431	18,379.4	107.244	18,379.4	105.845	18,379.4	103.472	18,379.4	100.845	18,379.4	98.2469	18,379.4	92.0942	18,379.4	92.6368	18,379.4	88.1094	18,379.4	89.9788	18,379.4	86.5541	18,379.4	78.4279	18,379.4	83.457	18,379.4	81.7827	18,379.4	96.605	18,379.4	81.6924	18,379.4	92.4411	18,379.4	75.9366	18,379.4	88.6986	18,379.4	77.8439	18,379.4	86.1232	18,379.4	81.0447	18,379.4	77.4686	18,379.4	83.5699	18,379.4	81.2723	18,379.4	79.4383	18,379.4	79.5585	18,379.4	88.9081	18,379.4	87.3983	18,379.4	86.0409
19,027.6	112.733	19,027.6	111.718	19,027.6	112.391	19,027.6	110.522	19,027.6	110.804	19,027.6	108.527	19,027.6	107.854	19,027.6	105.925	19,027.6	104.027	19,027.6	101.706	19,027.6	98.2761	19,027.6	96.3946	19,027.6	87.2055	19,027.6	91.2777	19,027.6	85.2125	19,027.6	88.3086	19,027.6	85.1391	19,027.6	71.4484	19,027.6	83.7621	19,027.6	77.4033	19,027.6	95.4457	19,027.6	82.1814	19,027.6	90.0028	19,027.6	78.575	19,027.6	86.3666	19,027.6	80.6835	19,027.6	85.7678	19,027.6	78.8714	19,027.6	79.2164	19,027.6	81.924	19,027.6	76.2899	19,027.6	84.7243	19,027.6	76.949	19,027.6	89.7952	19,027.6	86.7221	19,027.6	87.1614
19,698.5	112.861	19,698.5	111.01	19,698.5	112.1	19,698.5	109.442	19,698.5	109.63	19,698.5	107.567	19,698.5	106.243	19,698.5	104.767	19,698.5	102.468	19,698.5	99.8115	19,698.5	95.8208	19,698.5	95.0129	19,698.5	90.1594	19,698.5	89.3228	19,698.5	82.0479	19,698.5	86.6832	19,698.5	84.2285	19,698.5	78.1983	19,698.5	85.2492	19,698.5	75.8159	19,698.5	94.865	19,698.5	82.4407	19,698.5	89.0003	19,698.5	79.927	19,698.5	84.4189	19,698.5	82.068	19,698.5	85.1468	19,698.5	76.1029	19,698.5	81.1032	19,698.5	78.6388	19,698.5	71.5037	19,698.5	85.6895	19,698.5	77.8469	19,698.5	88.8663	19,698.5	86.9683	19,698.5	87.4892
19,999.5	112.359	19,999.5	110.067	19,999.5	111.494	19,999.5	108.869	19,999.5	108.454	19,999.5	106.702	19,999.5	105.323	19,999.5	104.293	19,999.5	100.366	19,999.5	98.6802	19,999.5	95.9242	19,999.5	94.0673	19,999.5	88.1031	19,999.5	88.7257	19,999.5	73.0672	19,999.5	85.8268	19,999.5	83.3657	19,999.5	79.8893	19,999.5	76.111	19,999.5	75.6018	19,999.5	94.2136	19,999.5	83.235	19,999.5	86.8975	19,999.5	79.6384	19,999.5	86.1877	19,999.5	80.3214	19,999.5	84.5935	19,999.5	79.3971	19,999.5	85.5846	19,999.5	77.939	19,999.5	68.3324	19,999.5	87.4728	19,999.5	80.0847	19,999.5	88.2221	19,999.5	86.4982	19,999.5	88.6235
