"SPL Horizontal"																																																																							
"On-Axis"		"10°"		"-10°"		"20°"		"-20°"		"30°"		"-30°"		"40°"		"-40°"		"50°"		"-50°"		"60°"		"-60°"		"70°"		"-70°"		"80°"		"-80°"		"90°"		"-90°"		"100°"		"-100°"		"110°"		"-110°"		"120°"		"-120°"		"130°"		"-130°"		"140°"		"-140°"		"150°"		"-150°"		"160°"		"-160°"		"170°"		"-170°"		"180°"	
"Frequency [Hz]"	"Sound Pessure Level [dB]  / [2.83V 1m] "	"Frequency [Hz]"	"Sound Pessure Level [dB]  / [2.83V 1m] "	"Frequency [Hz]"	"Sound Pessure Level [dB]  / [2.83V 1m] "	"Frequency [Hz]"	"Sound Pessure Level [dB]  / [2.83V 1m] "	"Frequency [Hz]"	"Sound Pessure Level [dB]  / [2.83V 1m] "	"Frequency [Hz]"	"Sound Pessure Level [dB]  / [2.83V 1m] "	"Frequency [Hz]"	"Sound Pessure Level [dB]  / [2.83V 1m] "	"Frequency [Hz]"	"Sound Pessure Level [dB]  / [2.83V 1m] "	"Frequency [Hz]"	"Sound Pessure Level [dB]  / [2.83V 1m] "	"Frequency [Hz]"	"Sound Pessure Level [dB]  / [2.83V 1m] "	"Frequency [Hz]"	"Sound Pessure Level [dB]  / [2.83V 1m] "	"Frequency [Hz]"	"Sound Pessure Level [dB]  / [2.83V 1m] "	"Frequency [Hz]"	"Sound Pessure Level [dB]  / [2.83V 1m] "	"Frequency [Hz]"	"Sound Pessure Level [dB]  / [2.83V 1m] "	"Frequency [Hz]"	"Sound Pessure Level [dB]  / [2.83V 1m] "	"Frequency [Hz]"	"Sound Pessure Level [dB]  / [2.83V 1m] "	"Frequency [Hz]"	"Sound Pessure Level [dB]  / [2.83V 1m] "	"Frequency [Hz]"	"Sound Pessure Level [dB]  / [2.83V 1m] "	"Frequency [Hz]"	"Sound Pessure Level [dB]  / [2.83V 1m] "	"Frequency [Hz]"	"Sound Pessure Level [dB]  / [2.83V 1m] "	"Frequency [Hz]"	"Sound Pessure Level [dB]  / [2.83V 1m] "	"Frequency [Hz]"	"Sound Pessure Level [dB]  / [2.83V 1m] "	"Frequency [Hz]"	"Sound Pessure Level [dB]  / [2.83V 1m] "	"Frequency [Hz]"	"Sound Pessure Level [dB]  / [2.83V 1m] "	"Frequency [Hz]"	"Sound Pessure Level [dB]  / [2.83V 1m] "	"Frequency [Hz]"	"Sound Pessure Level [dB]  / [2.83V 1m] "	"Frequency [Hz]"	"Sound Pessure Level [dB]  / [2.83V 1m] "	"Frequency [Hz]"	"Sound Pessure Level [dB]  / [2.83V 1m] "	"Frequency [Hz]"	"Sound Pessure Level [dB]  / [2.83V 1m] "	"Frequency [Hz]"	"Sound Pessure Level [dB]  / [2.83V 1m] "	"Frequency [Hz]"	"Sound Pessure Level [dB]  / [2.83V 1m] "	"Frequency [Hz]"	"Sound Pessure Level [dB]  / [2.83V 1m] "	"Frequency [Hz]"	"Sound Pessure Level [dB]  / [2.83V 1m] "	"Frequency [Hz]"	"Sound Pessure Level [dB]  / [2.83V 1m] "	"Frequency [Hz]"	"Sound Pessure Level [dB]  / [2.83V 1m] "	"Frequency [Hz]"	"Sound Pessure Level [dB]  / [2.83V 1m] "
20.5078	71.5714	20.5078	71.5494	20.5078	71.5883	20.5078	71.5222	20.5078	71.6003	20.5078	71.4897	20.5078	71.6077	20.5078	71.452	20.5078	71.6104	20.5078	71.4093	20.5078	71.6087	20.5078	71.3624	20.5078	71.6025	20.5078	71.3121	20.5078	71.5916	20.5078	71.2598	20.5078	71.5757	20.5078	71.2075	20.5078	71.5542	20.5078	71.1573	20.5078	71.5263	20.5078	71.1117	20.5078	71.4912	20.5078	71.0733	20.5078	71.4485	20.5078	71.0449	20.5078	71.3982	20.5078	71.0287	20.5078	71.3416	20.5078	71.0267	20.5078	71.2808	20.5078	71.0397	20.5078	71.2191	20.5078	71.0675	20.5078	71.1603	20.5078	71.1086
21.2402	70.6892	21.2402	70.6815	21.2402	70.6896	21.2402	70.666	21.2402	70.6829	21.2402	70.6423	21.2402	70.6696	21.2402	70.6103	21.2402	70.6498	21.2402	70.5697	21.2402	70.6242	21.2402	70.5206	21.2402	70.593	21.2402	70.4635	21.2402	70.5567	21.2402	70.3996	21.2402	70.5158	21.2402	70.3304	21.2402	70.4704	21.2402	70.2583	21.2402	70.4206	21.2402	70.1862	21.2402	70.3663	21.2402	70.1178	21.2402	70.3077	21.2402	70.0567	21.2402	70.2455	21.2402	70.007	21.2402	70.1816	21.2402	69.9719	21.2402	70.1185	21.2402	69.9543	21.2402	70.0602	21.2402	69.9554	21.2402	70.011	21.2402	69.9749
21.9727	71.4352	21.9727	71.4237	21.9727	71.4375	21.9727	71.4032	21.9727	71.4302	21.9727	71.3744	21.9727	71.4132	21.9727	71.3376	21.9727	71.3864	21.9727	71.2937	21.9727	71.3502	21.9727	71.2436	21.9727	71.305	21.9727	71.1883	21.9727	71.252	21.9727	71.1292	21.9727	71.1924	21.9727	71.0678	21.9727	71.128	21.9727	71.0056	21.9727	71.0607	21.9727	70.944	21.9727	70.9924	21.9727	70.8848	21.9727	70.9255	21.9727	70.8295	21.9727	70.8623	21.9727	70.7803	21.9727	70.8054	21.9727	70.7393	21.9727	70.7572	21.9727	70.7086	21.9727	70.72	21.9727	70.6903	21.9727	70.6959	21.9727	70.6859
22.7051	71.2781	22.7051	71.2485	22.7051	71.3028	22.7051	71.2145	22.7051	71.3223	22.7051	71.1767	22.7051	71.3363	22.7051	71.1356	22.7051	71.3447	22.7051	71.0922	22.7051	71.3475	22.7051	71.0472	22.7051	71.3447	22.7051	71.0017	22.7051	71.3363	22.7051	70.9569	22.7051	71.3224	22.7051	70.9142	22.7051	71.3028	22.7051	70.8752	22.7051	71.2773	22.7051	70.842	22.7051	71.2458	22.7051	70.8165	22.7051	71.2081	22.7051	70.8009	22.7051	71.1645	22.7051	70.797	22.7051	71.1155	22.7051	70.8056	22.7051	71.0625	22.7051	70.827	22.7051	71.0077	22.7051	70.8603	22.7051	70.9536	22.7051	70.9034
23.4375	70.4805	23.4375	70.4512	23.4375	70.5077	23.4375	70.42	23.4375	70.5331	23.4375	70.3869	23.4375	70.5566	23.4375	70.3523	23.4375	70.5784	23.4375	70.3165	23.4375	70.5987	23.4375	70.2801	23.4375	70.6173	23.4375	70.244	23.4375	70.6339	23.4375	70.2091	23.4375	70.6475	23.4375	70.177	23.4375	70.6568	23.4375	70.1497	23.4375	70.6601	23.4375	70.1295	23.4375	70.6553	23.4375	70.1189	23.4375	70.6402	23.4375	70.1203	23.4375	70.6134	23.4375	70.1356	23.4375	70.5743	23.4375	70.1657	23.4375	70.5235	23.4375	70.2097	23.4375	70.4633	23.4375	70.2656	23.4375	70.3971	23.4375	70.3296
24.1699	70.0657	24.1699	70.0469	24.1699	70.0769	24.1699	70.0207	24.1699	70.0805	24.1699	69.9876	24.1699	70.0766	24.1699	69.9481	24.1699	70.0656	24.1699	69.9031	24.1699	70.0479	24.1699	69.8535	24.1699	70.0241	24.1699	69.8007	24.1699	69.9948	24.1699	69.7461	24.1699	69.9605	24.1699	69.6914	24.1699	69.9216	24.1699	69.6384	24.1699	69.8786	24.1699	69.5892	24.1699	69.8318	24.1699	69.5458	24.1699	69.7818	24.1699	69.5103	24.1699	69.7297	24.1699	69.4846	24.1699	69.6768	24.1699	69.4702	24.1699	69.625	24.1699	69.4681	24.1699	69.5768	24.1699	69.4787	24.1699	69.5347	24.1699	69.5013
25.6348	69.7885	25.6348	69.7883	25.6348	69.789	25.6348	69.7877	25.6348	69.7898	25.6348	69.7864	25.6348	69.7912	25.6348	69.7838	25.6348	69.7931	25.6348	69.7792	25.6348	69.7955	25.6348	69.7723	25.6348	69.798	25.6348	69.7625	25.6348	69.8004	25.6348	69.7501	25.6348	69.8022	25.6348	69.7353	25.6348	69.8026	25.6348	69.7187	25.6348	69.8007	25.6348	69.7014	25.6348	69.7957	25.6348	69.6849	25.6348	69.7868	25.6348	69.6705	25.6348	69.7737	25.6348	69.6601	25.6348	69.7567	25.6348	69.6549	25.6348	69.7367	25.6348	69.6558	25.6348	69.7153	25.6348	69.6632	25.6348	69.6945	25.6348	69.6766
26.3672	68.4615	26.3672	68.4474	26.3672	68.4805	26.3672	68.4383	26.3672	68.5044	26.3672	68.4341	26.3672	68.5329	26.3672	68.4344	26.3672	68.5657	26.3672	68.4389	26.3672	68.6023	26.3672	68.4472	26.3672	68.6421	26.3672	68.4589	26.3672	68.6842	26.3672	68.4738	26.3672	68.7274	26.3672	68.4918	26.3672	68.7702	26.3672	68.5131	26.3672	68.8105	26.3672	68.5382	26.3672	68.846	26.3672	68.5674	26.3672	68.8741	26.3672	68.6011	26.3672	68.8926	26.3672	68.6393	26.3672	68.8997	26.3672	68.6813	26.3672	68.8946	26.3672	68.7258	26.3672	68.8773	26.3672	68.7705	26.3672	68.8492	26.3672	68.8127
27.0996	67.4012	27.0996	67.395	27.0996	67.4113	27.0996	67.3928	27.0996	67.4249	27.0996	67.3948	27.0996	67.4417	27.0996	67.401	27.0996	67.4613	27.0996	67.4111	27.0996	67.4831	27.0996	67.4246	27.0996	67.5066	27.0996	67.4409	27.0996	67.531	27.0996	67.459	27.0996	67.5554	27.0996	67.4779	27.0996	67.5787	27.0996	67.4963	27.0996	67.5994	27.0996	67.5133	27.0996	67.6163	27.0996	67.5284	27.0996	67.6283	27.0996	67.5413	27.0996	67.6345	27.0996	67.5526	27.0996	67.6348	27.0996	67.5629	27.0996	67.6299	27.0996	67.5734	27.0996	67.6208	27.0996	67.5846	27.0996	67.6092	27.0996	67.5967
27.832	67.6525	27.832	67.6718	27.832	67.6378	27.832	67.6953	27.832	67.6277	27.832	67.7226	27.832	67.622	27.832	67.7527	27.832	67.6203	27.832	67.7845	27.832	67.6218	27.832	67.8166	27.832	67.6258	27.832	67.8473	27.832	67.6316	27.832	67.875	27.832	67.638	27.832	67.8976	27.832	67.6445	27.832	67.9134	27.832	67.6504	27.832	67.9206	27.832	67.6557	27.832	67.9184	27.832	67.6606	27.832	67.9062	27.832	67.6663	27.832	67.8848	27.832	67.6741	27.832	67.856	27.832	67.6857	27.832	67.8226	27.832	67.7026	27.832	67.7877	27.832	67.7257	27.832	67.7545
29.2969	70.1975	29.2969	70.2145	29.2969	70.1848	29.2969	70.2351	29.2969	70.1766	29.2969	70.2585	29.2969	70.1733	29.2969	70.2838	29.2969	70.1749	29.2969	70.3098	29.2969	70.1812	29.2969	70.3355	29.2969	70.1919	29.2969	70.3598	29.2969	70.2065	29.2969	70.3816	29.2969	70.2246	29.2969	70.4002	29.2969	70.2453	29.2969	70.4149	29.2969	70.268	29.2969	70.4256	29.2969	70.2915	29.2969	70.4323	29.2969	70.3151	29.2969	70.4352	29.2969	70.3375	29.2969	70.435	29.2969	70.3581	29.2969	70.4324	29.2969	70.3761	29.2969	70.4277	29.2969	70.3912	29.2969	70.4214	29.2969	70.4035	29.2969	70.4134
30.0293	71.5785	30.0293	71.5812	30.0293	71.5793	30.0293	71.5872	30.0293	71.5838	30.0293	71.5965	30.0293	71.5921	30.0293	71.6086	30.0293	71.6043	30.0293	71.6233	30.0293	71.6203	30.0293	71.6403	30.0293	71.64	30.0293	71.659	30.0293	71.663	30.0293	71.6789	30.0293	71.689	30.0293	71.6998	30.0293	71.7172	30.0293	71.721	30.0293	71.7467	30.0293	71.7424	30.0293	71.7761	30.0293	71.7637	30.0293	71.8041	30.0293	71.7846	30.0293	71.8291	30.0293	71.8048	30.0293	71.8494	30.0293	71.824	30.0293	71.8638	30.0293	71.8415	30.0293	71.8714	30.0293	71.8561	30.0293	71.8723	30.0293	71.8668
31.4941	75.8619	31.4941	75.8665	31.4941	75.8529	31.4941	75.8665	31.4941	75.8396	31.4941	75.8621	31.4941	75.8221	31.4941	75.8532	31.4941	75.8006	31.4941	75.8399	31.4941	75.7754	31.4941	75.8226	31.4941	75.7466	31.4941	75.8017	31.4941	75.7147	31.4941	75.7775	31.4941	75.6803	31.4941	75.7505	31.4941	75.6442	31.4941	75.7213	31.4941	75.6075	31.4941	75.6903	31.4941	75.5719	31.4941	75.6582	31.4941	75.539	31.4941	75.6254	31.4941	75.5109	31.4941	75.5928	31.4941	75.4893	31.4941	75.5613	31.4941	75.4756	31.4941	75.5322	31.4941	75.4708	31.4941	75.5071	31.4941	75.475	31.4941	75.4875
32.2266	78.3639	32.2266	78.3608	32.2266	78.3608	32.2266	78.3516	32.2266	78.3515	32.2266	78.3364	32.2266	78.3362	32.2266	78.3155	32.2266	78.3152	32.2266	78.2891	32.2266	78.2888	32.2266	78.258	32.2266	78.2575	32.2266	78.2227	32.2266	78.222	32.2266	78.1843	32.2266	78.1832	32.2266	78.1438	32.2266	78.1421	32.2266	78.1026	32.2266	78.1	32.2266	78.0618	32.2266	78.0583	32.2266	78.0229	32.2266	78.0185	32.2266	77.9871	32.2266	77.9821	32.2266	77.9558	32.2266	77.9506	32.2266	77.9298	32.2266	77.925	32.2266	77.9102	32.2266	77.9065	32.2266	77.8976	32.2266	77.8956	32.2266	77.8927
33.6914	81.8984	33.6914	81.8975	33.6914	81.8929	33.6914	81.8903	33.6914	81.8811	33.6914	81.8768	33.6914	81.8633	33.6914	81.8574	33.6914	81.8401	33.6914	81.8326	33.6914	81.8121	33.6914	81.8029	33.6914	81.7803	33.6914	81.7692	33.6914	81.7458	33.6914	81.7324	33.6914	81.7099	33.6914	81.694	33.6914	81.6742	33.6914	81.6554	33.6914	81.6398	33.6914	81.6183	33.6914	81.6082	33.6914	81.5843	33.6914	81.58	33.6914	81.555	33.6914	81.556	33.6914	81.5314	33.6914	81.5362	33.6914	81.5139	33.6914	81.5205	33.6914	81.5027	33.6914	81.5087	33.6914	81.4972	33.6914	81.5008	33.6914	81.4968
34.4238	83.2803	34.4238	83.2818	34.4238	83.2708	34.4238	83.2751	34.4238	83.2537	34.4238	83.2605	34.4238	83.2295	34.4238	83.238	34.4238	83.1988	34.4238	83.2082	34.4238	83.1625	34.4238	83.1718	34.4238	83.1219	34.4238	83.1297	34.4238	83.0782	34.4238	83.0834	34.4238	83.0329	34.4238	83.0343	34.4238	82.9876	34.4238	82.9844	34.4238	82.9438	34.4238	82.9357	34.4238	82.9031	34.4238	82.8903	34.4238	82.8666	34.4238	82.8501	34.4238	82.835	34.4238	82.8166	34.4238	82.8087	34.4238	82.7908	34.4238	82.788	34.4238	82.7729	34.4238	82.7729	34.4238	82.7628	34.4238	82.7634	34.4238	82.7598
35.8887	86.4964	35.8887	86.4926	35.8887	86.4916	35.8887	86.4802	35.8887	86.4783	35.8887	86.4593	35.8887	86.457	35.8887	86.4303	35.8887	86.4281	35.8887	86.3937	35.8887	86.3923	35.8887	86.3503	35.8887	86.3505	35.8887	86.3012	35.8887	86.3037	35.8887	86.2477	35.8887	86.2533	35.8887	86.1915	35.8887	86.2005	35.8887	86.1343	35.8887	86.147	35.8887	86.0782	35.8887	86.0943	35.8887	86.0254	35.8887	86.044	35.8887	85.9778	35.8887	85.9977	35.8887	85.9374	35.8887	85.9568	35.8887	85.9055	35.8887	85.9225	35.8887	85.8833	35.8887	85.8959	35.8887	85.8713	35.8887	85.8781	35.8887	85.8697
37.3535	89.0097	37.3535	89.0035	37.3535	89.0079	37.3535	88.9894	37.3535	88.9982	37.3535	88.9678	37.3535	88.9808	37.3535	88.9391	37.3535	88.9561	37.3535	88.9041	37.3535	88.925	37.3535	88.8638	37.3535	88.8881	37.3535	88.8192	37.3535	88.8465	37.3535	88.7717	37.3535	88.8015	37.3535	88.7228	37.3535	88.7544	37.3535	88.6741	37.3535	88.7067	37.3535	88.6272	37.3535	88.6598	37.3535	88.5838	37.3535	88.6153	37.3535	88.5453	37.3535	88.5745	37.3535	88.513	37.3535	88.5385	37.3535	88.4879	37.3535	88.5084	37.3535	88.4707	37.3535	88.4852	37.3535	88.4619	37.3535	88.4693	37.3535	88.4614
38.8184	91.1253	38.8184	91.1172	38.8184	91.1251	38.8184	91.1008	38.8184	91.1167	38.8184	91.0765	38.8184	91.1003	38.8184	91.045	38.8184	91.0766	38.8184	91.0069	38.8184	91.0463	38.8184	90.9636	38.8184	91.0102	38.8184	90.9162	38.8184	90.9696	38.8184	90.8664	38.8184	90.9256	38.8184	90.8158	38.8184	90.8796	38.8184	90.7663	38.8184	90.8332	38.8184	90.7197	38.8184	90.7876	38.8184	90.6776	38.8184	90.7442	38.8184	90.6415	38.8184	90.704	38.8184	90.6128	38.8184	90.668	38.8184	90.5921	38.8184	90.6371	38.8184	90.58	38.8184	90.6118	38.8184	90.5763	38.8184	90.5927	38.8184	90.5807
39.5508	92.074	39.5508	92.0672	39.5508	92.0721	39.5508	92.0516	39.5508	92.0617	39.5508	92.0277	39.5508	92.0431	39.5508	91.9961	39.5508	92.0172	39.5508	91.9575	39.5508	91.9846	39.5508	91.9132	39.5508	91.9464	39.5508	91.8645	39.5508	91.9037	39.5508	91.8131	39.5508	91.858	39.5508	91.7607	39.5508	91.8103	39.5508	91.7091	39.5508	91.7623	39.5508	91.6601	39.5508	91.7152	39.5508	91.6155	39.5508	91.6703	39.5508	91.5767	39.5508	91.6287	39.5508	91.5451	39.5508	91.5915	39.5508	91.5216	39.5508	91.5596	39.5508	91.5068	39.5508	91.5338	39.5508	91.5009	39.5508	91.5149	39.5508	91.5038
41.0156	93.9479	41.0156	93.9372	41.0156	93.9499	41.0156	93.9184	41.0156	93.9434	41.0156	93.8919	41.0156	93.9287	41.0156	93.8586	41.0156	93.9062	41.0156	93.8199	41.0156	93.8768	41.0156	93.7771	41.0156	93.8417	41.0156	93.7318	41.0156	93.8022	41.0156	93.6857	41.0156	93.7596	41.0156	93.6407	41.0156	93.7157	41.0156	93.5983	41.0156	93.6719	41.0156	93.56	41.0156	93.6297	41.0156	93.5268	41.0156	93.5905	41.0156	93.4996	41.0156	93.5554	41.0156	93.4787	41.0156	93.525	41.0156	93.4642	41.0156	93.4999	41.0156	93.4559	41.0156	93.4802	41.0156	93.4536	41.0156	93.4658	41.0156	93.457
42.4805	95.6048	42.4805	95.5945	42.4805	95.6042	42.4805	95.5738	42.4805	95.5931	42.4805	95.5429	42.4805	95.5718	42.4805	95.5027	42.4805	95.5411	42.4805	95.4544	42.4805	95.5022	42.4805	95.3994	42.4805	95.4562	42.4805	95.3395	42.4805	95.4047	42.4805	95.2767	42.4805	95.3494	42.4805	95.2132	42.4805	95.2919	42.4805	95.1514	42.4805	95.2341	42.4805	95.0935	42.4805	95.1775	42.4805	95.0417	42.4805	95.1239	42.4805	94.9977	42.4805	95.0743	42.4805	94.9629	42.4805	95.0302	42.4805	94.938	42.4805	94.9923	42.4805	94.9234	42.4805	94.9616	42.4805	94.919	42.4805	94.9386	42.4805	94.9242
43.9453	97.3719	43.9453	97.3675	43.9453	97.3651	43.9453	97.3521	43.9453	97.3476	43.9453	97.326	43.9453	97.3199	43.9453	97.2897	43.9453	97.2829	43.9453	97.2442	43.9453	97.2376	43.9453	97.1908	43.9453	97.1856	43.9453	97.1311	43.9453	97.1284	43.9453	97.0669	43.9453	97.0677	43.9453	97.0003	43.9453	97.0054	43.9453	96.9338	43.9453	96.9435	43.9453	96.8696	43.9453	96.8838	43.9453	96.8102	43.9453	96.8281	43.9453	96.7577	43.9453	96.7778	43.9453	96.7139	43.9453	96.7342	43.9453	96.68	43.9453	96.6982	43.9453	96.6569	43.9453	96.6706	43.9453	96.6448	43.9453	96.6522	43.9453	96.6433
45.4102	98.8263	45.4102	98.822	45.4102	98.8198	45.4102	98.807	45.4102	98.8028	45.4102	98.7816	45.4102	98.7758	45.4102	98.7466	45.4102	98.7399	45.4102	98.7029	45.4102	98.6959	45.4102	98.6518	45.4102	98.6455	45.4102	98.5949	45.4102	98.5901	45.4102	98.5341	45.4102	98.5315	45.4102	98.4712	45.4102	98.4715	45.4102	98.4085	45.4102	98.412	45.4102	98.3481	45.4102	98.3547	45.4102	98.292	45.4102	98.3014	45.4102	98.2421	45.4102	98.2534	45.4102	98.2	45.4102	98.2119	45.4102	98.167	45.4102	98.178	45.4102	98.1439	45.4102	98.1523	45.4102	98.131	45.4102	98.1356	45.4102	98.1283
47.6074	100.906	47.6074	100.902	47.6074	100.897	47.6074	100.887	47.6074	100.877	47.6074	100.86	47.6074	100.845	47.6074	100.822	47.6074	100.804	47.6074	100.775	47.6074	100.753	47.6074	100.721	47.6074	100.695	47.6074	100.659	47.6074	100.631	47.6074	100.594	47.6074	100.564	47.6074	100.527	47.6074	100.496	47.6074	100.459	47.6074	100.428	47.6074	100.394	47.6074	100.365	47.6074	100.333	47.6074	100.306	47.6074	100.278	47.6074	100.255	47.6074	100.231	47.6074	100.211	47.6074	100.193	47.6074	100.177	47.6074	100.164	47.6074	100.153	47.6074	100.145	47.6074	100.14	47.6074	100.137
49.0723	102.143	49.0723	102.138	49.0723	102.135	49.0723	102.121	49.0723	102.116	49.0723	102.092	49.0723	102.085	49.0723	102.053	49.0723	102.044	49.0723	102.005	49.0723	101.993	49.0723	101.948	49.0723	101.935	49.0723	101.886	49.0723	101.87	49.0723	101.819	49.0723	101.801	49.0723	101.749	49.0723	101.73	49.0723	101.68	49.0723	101.659	49.0723	101.612	49.0723	101.592	49.0723	101.549	49.0723	101.529	49.0723	101.491	49.0723	101.474	49.0723	101.442	49.0723	101.426	49.0723	101.401	49.0723	101.389	49.0723	101.37	49.0723	101.362	49.0723	101.351	49.0723	101.347	49.0723	101.343
50.5371	103.246	50.5371	103.238	50.5371	103.242	50.5371	103.219	50.5371	103.227	50.5371	103.19	50.5371	103.201	50.5371	103.15	50.5371	103.165	50.5371	103.102	50.5371	103.12	50.5371	103.047	50.5371	103.067	50.5371	102.987	50.5371	103.009	50.5371	102.923	50.5371	102.947	50.5371	102.859	50.5371	102.883	50.5371	102.795	50.5371	102.82	50.5371	102.735	50.5371	102.759	50.5371	102.679	50.5371	102.702	50.5371	102.631	50.5371	102.651	50.5371	102.59	50.5371	102.607	50.5371	102.558	50.5371	102.572	50.5371	102.535	50.5371	102.545	50.5371	102.523	50.5371	102.528	50.5371	102.52
52.7344	104.661	52.7344	104.652	52.7344	104.659	52.7344	104.631	52.7344	104.645	52.7344	104.599	52.7344	104.62	52.7344	104.557	52.7344	104.585	52.7344	104.507	52.7344	104.542	52.7344	104.45	52.7344	104.491	52.7344	104.388	52.7344	104.434	52.7344	104.324	52.7344	104.374	52.7344	104.259	52.7344	104.313	52.7344	104.197	52.7344	104.252	52.7344	104.139	52.7344	104.193	52.7344	104.087	52.7344	104.139	52.7344	104.043	52.7344	104.091	52.7344	104.008	52.7344	104.048	52.7344	103.981	52.7344	104.014	52.7344	103.964	52.7344	103.987	52.7344	103.957	52.7344	103.968	52.7344	103.958
54.1992	105.491	54.1992	105.483	54.1992	105.486	54.1992	105.463	54.1992	105.47	54.1992	105.432	54.1992	105.442	54.1992	105.39	54.1992	105.404	54.1992	105.339	54.1992	105.358	54.1992	105.282	54.1992	105.303	54.1992	105.219	54.1992	105.244	54.1992	105.153	54.1992	105.182	54.1992	105.087	54.1992	105.118	54.1992	105.023	54.1992	105.056	54.1992	104.963	54.1992	104.997	54.1992	104.909	54.1992	104.942	54.1992	104.863	54.1992	104.894	54.1992	104.826	54.1992	104.853	54.1992	104.798	54.1992	104.819	54.1992	104.779	54.1992	104.794	54.1992	104.769	54.1992	104.777	54.1992	104.769
56.3965	106.654	56.3965	106.647	56.3965	106.649	56.3965	106.627	56.3965	106.632	56.3965	106.595	56.3965	106.602	56.3965	106.553	56.3965	106.562	56.3965	106.501	56.3965	106.512	56.3965	106.442	56.3965	106.454	56.3965	106.377	56.3965	106.391	56.3965	106.309	56.3965	106.323	56.3965	106.241	56.3965	106.255	56.3965	106.173	56.3965	106.187	56.3965	106.11	56.3965	106.122	56.3965	106.052	56.3965	106.063	56.3965	106.001	56.3965	106.01	56.3965	105.959	56.3965	105.966	56.3965	105.925	56.3965	105.93	56.3965	105.901	56.3965	105.905	56.3965	105.887	56.3965	105.889	56.3965	105.883
58.5938	107.524	58.5938	107.515	58.5938	107.521	58.5938	107.494	58.5938	107.505	58.5938	107.461	58.5938	107.477	58.5938	107.418	58.5938	107.439	58.5938	107.366	58.5938	107.392	58.5938	107.308	58.5938	107.338	58.5938	107.245	58.5938	107.278	58.5938	107.18	58.5938	107.215	58.5938	107.116	58.5938	107.151	58.5938	107.054	58.5938	107.089	58.5938	106.997	58.5938	107.031	58.5938	106.946	58.5938	106.978	58.5938	106.903	58.5938	106.932	58.5938	106.869	58.5938	106.893	58.5938	106.843	58.5938	106.862	58.5938	106.826	58.5938	106.839	58.5938	106.817	58.5938	106.823	58.5938	106.816
60.0586	107.985	60.0586	107.975	60.0586	107.981	60.0586	107.953	60.0586	107.965	60.0586	107.919	60.0586	107.937	60.0586	107.874	60.0586	107.897	60.0586	107.821	60.0586	107.849	60.0586	107.76	60.0586	107.792	60.0586	107.694	60.0586	107.731	60.0586	107.627	60.0586	107.666	60.0586	107.559	60.0586	107.601	60.0586	107.495	60.0586	107.538	60.0586	107.437	60.0586	107.479	60.0586	107.385	60.0586	107.426	60.0586	107.342	60.0586	107.379	60.0586	107.308	60.0586	107.341	60.0586	107.283	60.0586	107.309	60.0586	107.267	60.0586	107.286	60.0586	107.26	60.0586	107.27	60.0586	107.261
62.2559	108.781	62.2559	108.773	62.2559	108.777	62.2559	108.751	62.2559	108.759	62.2559	108.718	62.2559	108.728	62.2559	108.673	62.2559	108.686	62.2559	108.619	62.2559	108.634	62.2559	108.558	62.2559	108.573	62.2559	108.492	62.2559	108.507	62.2559	108.423	62.2559	108.437	62.2559	108.354	62.2559	108.365	62.2559	108.287	62.2559	108.296	62.2559	108.224	62.2559	108.23	62.2559	108.167	62.2559	108.17	62.2559	108.118	62.2559	108.118	62.2559	108.077	62.2559	108.075	62.2559	108.045	62.2559	108.042	62.2559	108.021	62.2559	108.019	62.2559	108.007	62.2559	108.005	62.2559	108.001
64.4531	109.356	64.4531	109.347	64.4531	109.351	64.4531	109.325	64.4531	109.334	64.4531	109.291	64.4531	109.304	64.4531	109.247	64.4531	109.263	64.4531	109.194	64.4531	109.212	64.4531	109.134	64.4531	109.153	64.4531	109.07	64.4531	109.089	64.4531	109.005	64.4531	109.021	64.4531	108.94	64.4531	108.953	64.4531	108.878	64.4531	108.887	64.4531	108.822	64.4531	108.826	64.4531	108.771	64.4531	108.772	64.4531	108.729	64.4531	108.725	64.4531	108.694	64.4531	108.688	64.4531	108.666	64.4531	108.66	64.4531	108.646	64.4531	108.641	64.4531	108.634	64.4531	108.63	64.4531	108.628
66.6504	109.849	66.6504	109.837	66.6504	109.846	66.6504	109.813	66.6504	109.83	66.6504	109.776	66.6504	109.8	66.6504	109.728	66.6504	109.758	66.6504	109.67	66.6504	109.706	66.6504	109.606	66.6504	109.645	66.6504	109.538	66.6504	109.578	66.6504	109.469	66.6504	109.507	66.6504	109.4	66.6504	109.436	66.6504	109.335	66.6504	109.367	66.6504	109.276	66.6504	109.303	66.6504	109.224	66.6504	109.245	66.6504	109.181	66.6504	109.195	66.6504	109.145	66.6504	109.155	66.6504	109.118	66.6504	109.124	66.6504	109.099	66.6504	109.102	66.6504	109.088	66.6504	109.089	66.6504	109.085
69.5801	110.528	69.5801	110.518	69.5801	110.524	69.5801	110.492	69.5801	110.504	69.5801	110.453	69.5801	110.47	69.5801	110.402	69.5801	110.423	69.5801	110.34	69.5801	110.365	69.5801	110.272	69.5801	110.297	69.5801	110.198	69.5801	110.223	69.5801	110.123	69.5801	110.144	69.5801	110.049	69.5801	110.066	69.5801	109.98	69.5801	109.989	69.5801	109.916	69.5801	109.917	69.5801	109.859	69.5801	109.853	69.5801	109.811	69.5801	109.799	69.5801	109.771	69.5801	109.755	69.5801	109.739	69.5801	109.722	69.5801	109.715	69.5801	109.701	69.5801	109.698	69.5801	109.691	69.5801	109.69
71.7773	110.988	71.7773	110.968	71.7773	110.994	71.7773	110.932	71.7773	110.984	71.7773	110.884	71.7773	110.96	71.7773	110.824	71.7773	110.923	71.7773	110.754	71.7773	110.873	71.7773	110.677	71.7773	110.813	71.7773	110.597	71.7773	110.745	71.7773	110.517	71.7773	110.672	71.7773	110.439	71.7773	110.596	71.7773	110.367	71.7773	110.519	71.7773	110.303	71.7773	110.446	71.7773	110.248	71.7773	110.376	71.7773	110.205	71.7773	110.314	71.7773	110.171	71.7773	110.26	71.7773	110.149	71.7773	110.215	71.7773	110.136	71.7773	110.179	71.7773	110.132	71.7773	110.154	71.7773	110.138
73.9746	111.366	73.9746	111.343	73.9746	111.375	73.9746	111.307	73.9746	111.37	73.9746	111.257	73.9746	111.353	73.9746	111.196	73.9746	111.323	73.9746	111.127	73.9746	111.284	73.9746	111.052	73.9746	111.237	73.9746	110.974	73.9746	111.185	73.9746	110.897	73.9746	111.129	73.9746	110.825	73.9746	111.072	73.9746	110.761	73.9746	111.016	73.9746	110.708	73.9746	110.962	73.9746	110.667	73.9746	110.91	73.9746	110.64	73.9746	110.862	73.9746	110.626	73.9746	110.817	73.9746	110.624	73.9746	110.776	73.9746	110.633	73.9746	110.738	73.9746	110.65	73.9746	110.704	73.9746	110.674
76.9043	111.887	76.9043	111.882	76.9043	111.877	76.9043	111.861	76.9043	111.852	76.9043	111.827	76.9043	111.814	76.9043	111.779	76.9043	111.764	76.9043	111.721	76.9043	111.705	76.9043	111.655	76.9043	111.64	76.9043	111.584	76.9043	111.571	76.9043	111.512	76.9043	111.503	76.9043	111.441	76.9043	111.438	76.9043	111.375	76.9043	111.38	76.9043	111.317	76.9043	111.329	76.9043	111.269	76.9043	111.288	76.9043	111.231	76.9043	111.255	76.9043	111.204	76.9043	111.23	76.9043	111.188	76.9043	111.212	76.9043	111.18	76.9043	111.199	76.9043	111.178	76.9043	111.189	76.9043	111.182
79.834	112.525	79.834	112.523	79.834	112.51	79.834	112.503	79.834	112.478	79.834	112.467	79.834	112.428	79.834	112.417	79.834	112.364	79.834	112.355	79.834	112.287	79.834	112.285	79.834	112.201	79.834	112.209	79.834	112.109	79.834	112.13	79.834	112.015	79.834	112.053	79.834	111.924	79.834	111.979	79.834	111.84	79.834	111.91	79.834	111.766	79.834	111.849	79.834	111.706	79.834	111.796	79.834	111.66	79.834	111.751	79.834	111.63	79.834	111.713	79.834	111.614	79.834	111.681	79.834	111.611	79.834	111.654	79.834	111.618	79.834	111.633
82.7637	112.879	82.7637	112.859	82.7637	112.882	82.7637	112.823	82.7637	112.868	82.7637	112.771	82.7637	112.837	82.7637	112.706	82.7637	112.79	82.7637	112.63	82.7637	112.729	82.7637	112.547	82.7637	112.656	82.7637	112.459	82.7637	112.574	82.7637	112.369	82.7637	112.485	82.7637	112.282	82.7637	112.393	82.7637	112.2	82.7637	112.3	82.7637	112.125	82.7637	112.212	82.7637	112.06	82.7637	112.129	82.7637	112.004	82.7637	112.056	82.7637	111.959	82.7637	111.995	82.7637	111.925	82.7637	111.947	82.7637	111.9	82.7637	111.912	82.7637	111.886	82.7637	111.891	82.7637	111.883
85.6934	112.968	85.6934	112.939	85.6934	112.982	85.6934	112.897	85.6934	112.982	85.6934	112.843	85.6934	112.967	85.6934	112.779	85.6934	112.94	85.6934	112.707	85.6934	112.901	85.6934	112.631	85.6934	112.853	85.6934	112.554	85.6934	112.797	85.6934	112.479	85.6934	112.736	85.6934	112.409	85.6934	112.672	85.6934	112.347	85.6934	112.609	85.6934	112.295	85.6934	112.547	85.6934	112.255	85.6934	112.488	85.6934	112.227	85.6934	112.433	85.6934	112.21	85.6934	112.384	85.6934	112.205	85.6934	112.34	85.6934	112.209	85.6934	112.302	85.6934	112.222	85.6934	112.269	85.6934	112.242
88.623	112.948	88.623	112.911	88.623	112.973	88.623	112.864	88.623	112.986	88.623	112.809	88.623	112.988	88.623	112.749	88.623	112.978	88.623	112.686	88.623	112.96	88.623	112.625	88.623	112.935	88.623	112.569	88.623	112.905	88.623	112.521	88.623	112.873	88.623	112.484	88.623	112.839	88.623	112.459	88.623	112.806	88.623	112.447	88.623	112.775	88.623	112.446	88.623	112.746	88.623	112.456	88.623	112.718	88.623	112.474	88.623	112.691	88.623	112.498	88.623	112.665	88.623	112.525	88.623	112.639	88.623	112.554	88.623	112.611	88.623	112.583
91.5527	112.932	91.5527	112.9	91.5527	112.948	91.5527	112.853	91.5527	112.948	91.5527	112.792	91.5527	112.935	91.5527	112.722	91.5527	112.913	91.5527	112.647	91.5527	112.884	91.5527	112.574	91.5527	112.854	91.5527	112.51	91.5527	112.827	91.5527	112.461	91.5527	112.808	91.5527	112.433	91.5527	112.798	91.5527	112.429	91.5527	112.799	91.5527	112.449	91.5527	112.81	91.5527	112.491	91.5527	112.83	91.5527	112.551	91.5527	112.853	91.5527	112.621	91.5527	112.875	91.5527	112.694	91.5527	112.891	91.5527	112.762	91.5527	112.896	91.5527	112.819	91.5527	112.887	91.5527	112.861
94.4824	113.305	94.4824	113.294	94.4824	113.293	94.4824	113.262	94.4824	113.26	94.4824	113.208	94.4824	113.208	94.4824	113.135	94.4824	113.139	94.4824	113.045	94.4824	113.057	94.4824	112.943	94.4824	112.966	94.4824	112.834	94.4824	112.871	94.4824	112.724	94.4824	112.775	94.4824	112.617	94.4824	112.684	94.4824	112.52	94.4824	112.6	94.4824	112.437	94.4824	112.527	94.4824	112.371	94.4824	112.466	94.4824	112.324	94.4824	112.417	94.4824	112.294	94.4824	112.378	94.4824	112.279	94.4824	112.347	94.4824	112.275	94.4824	112.324	94.4824	112.28	94.4824	112.305	94.4824	112.291
98.1445	112.818	98.1445	112.8	98.1445	112.815	98.1445	112.764	98.1445	112.792	98.1445	112.71	98.1445	112.751	98.1445	112.641	98.1445	112.695	98.1445	112.562	98.1445	112.627	98.1445	112.477	98.1445	112.551	98.1445	112.392	98.1445	112.472	98.1445	112.312	98.1445	112.395	98.1445	112.241	98.1445	112.323	98.1445	112.185	98.1445	112.262	98.1445	112.143	98.1445	112.212	98.1445	112.117	98.1445	112.175	98.1445	112.105	98.1445	112.15	98.1445	112.103	98.1445	112.135	98.1445	112.106	98.1445	112.128	98.1445	112.113	98.1445	112.125	98.1445	112.118	98.1445	112.124	98.1445	112.122
101.807	112.619	101.807	112.598	101.807	112.616	101.807	112.556	101.807	112.593	101.807	112.494	101.807	112.55	101.807	112.414	101.807	112.492	101.807	112.321	101.807	112.422	101.807	112.221	101.807	112.346	101.807	112.12	101.807	112.269	101.807	112.025	101.807	112.197	101.807	111.942	101.807	112.135	101.807	111.876	101.807	112.084	101.807	111.831	101.807	112.047	101.807	111.809	101.807	112.023	101.807	111.808	101.807	112.008	101.807	111.824	101.807	111.999	101.807	111.851	101.807	111.991	101.807	111.883	101.807	111.981	101.807	111.915	101.807	111.966	101.807	111.944
105.469	112.248	105.469	112.227	105.469	112.243	105.469	112.181	105.469	112.213	105.469	112.113	105.469	112.161	105.469	112.025	105.469	112.09	105.469	111.922	105.469	112.005	105.469	111.811	105.469	111.914	105.469	111.698	105.469	111.822	105.469	111.591	105.469	111.738	105.469	111.497	105.469	111.668	105.469	111.424	105.469	111.616	105.469	111.375	105.469	111.585	105.469	111.354	105.469	111.572	105.469	111.359	105.469	111.573	105.469	111.386	105.469	111.581	105.469	111.427	105.469	111.589	105.469	111.474	105.469	111.59	105.469	111.519	105.469	111.58	105.469	111.556
109.131	112.17	109.131	112.148	109.131	112.163	109.131	112.099	109.131	112.128	109.131	112.025	109.131	112.066	109.131	111.93	109.131	111.981	109.131	111.817	109.131	111.878	109.131	111.695	109.131	111.762	109.131	111.569	109.131	111.64	109.131	111.447	109.131	111.521	109.131	111.336	109.131	111.412	109.131	111.243	109.131	111.321	109.131	111.173	109.131	111.252	109.131	111.127	109.131	111.206	109.131	111.105	109.131	111.183	109.131	111.104	109.131	111.175	109.131	111.117	109.131	111.177	109.131	111.137	109.131	111.181	109.131	111.158	109.131	111.181	109.131	111.174
112.793	112.063	112.793	112.035	112.793	112.062	112.793	111.978	112.793	112.033	112.793	111.896	112.793	111.976	112.793	111.792	112.793	111.895	112.793	111.67	112.793	111.794	112.793	111.536	112.793	111.678	112.793	111.399	112.793	111.554	112.793	111.266	112.793	111.431	112.793	111.145	112.793	111.314	112.793	111.043	112.793	111.213	112.793	110.965	112.793	111.131	112.793	110.916	112.793	111.071	112.793	110.892	112.793	111.032	112.793	110.891	112.793	111.011	112.793	110.906	112.793	111.001	112.793	110.929	112.793	110.995	112.793	110.954	112.793	110.987	112.793	110.974
116.455	111.97	116.455	111.933	116.455	111.978	116.455	111.867	116.455	111.957	116.455	111.775	116.455	111.909	116.455	111.66	116.455	111.837	116.455	111.526	116.455	111.746	116.455	111.38	116.455	111.639	116.455	111.228	116.455	111.523	116.455	111.08	116.455	111.406	116.455	110.942	116.455	111.292	116.455	110.825	116.455	111.19	116.455	110.735	116.455	111.102	116.455	110.675	116.455	111.031	116.455	110.647	116.455	110.976	116.455	110.647	116.455	110.934	116.455	110.669	116.455	110.899	116.455	110.706	116.455	110.867	116.455	110.75	116.455	110.832	116.455	110.793
120.85	111.638	120.85	111.621	120.85	111.627	120.85	111.578	120.85	111.59	120.85	111.509	120.85	111.53	120.85	111.417	120.85	111.449	120.85	111.306	120.85	111.353	120.85	111.181	120.85	111.247	120.85	111.047	120.85	111.138	120.85	110.913	120.85	111.034	120.85	110.787	120.85	110.941	120.85	110.678	120.85	110.864	120.85	110.592	120.85	110.808	120.85	110.536	120.85	110.772	120.85	110.51	120.85	110.752	120.85	110.513	120.85	110.742	120.85	110.539	120.85	110.735	120.85	110.58	120.85	110.723	120.85	110.626	120.85	110.702	120.85	110.669
125.244	111.382	125.244	111.37	125.244	111.365	125.244	111.328	125.244	111.317	125.244	111.259	125.244	111.241	125.244	111.165	125.244	111.139	125.244	111.051	125.244	111.017	125.244	110.922	125.244	110.879	125.244	110.785	125.244	110.734	125.244	110.645	125.244	110.589	125.244	110.512	125.244	110.454	125.244	110.391	125.244	110.338	125.244	110.29	125.244	110.245	125.244	110.212	125.244	110.18	125.244	110.159	125.244	110.142	125.244	110.129	125.244	110.126	125.244	110.118	125.244	110.124	125.244	110.119	125.244	110.128	125.244	110.126	125.244	110.132	125.244	110.131
129.639	111.259	129.639	111.239	129.639	111.248	129.639	111.19	129.639	111.206	129.639	111.114	129.639	111.134	129.639	111.014	129.639	111.036	129.639	110.895	129.639	110.913	129.639	110.763	129.639	110.774	129.639	110.622	129.639	110.623	129.639	110.481	129.639	110.469	129.639	110.347	129.639	110.321	129.639	110.225	129.639	110.187	129.639	110.122	129.639	110.074	129.639	110.041	129.639	109.987	129.639	109.982	129.639	109.927	129.639	109.943	129.639	109.892	129.639	109.919	129.639	109.877	129.639	109.905	129.639	109.875	129.639	109.896	129.639	109.881	129.639	109.888
134.033	111.091	134.033	111.068	134.033	111.085	134.033	111.017	134.033	111.049	134.033	110.94	134.033	110.985	134.033	110.841	134.033	110.895	134.033	110.725	134.033	110.784	134.033	110.598	134.033	110.658	134.033	110.467	134.033	110.524	134.033	110.339	134.033	110.39	134.033	110.221	134.033	110.264	134.033	110.121	134.033	110.155	134.033	110.042	134.033	110.069	134.033	109.988	134.033	110.009	134.033	109.957	134.033	109.974	134.033	109.946	134.033	109.96	134.033	109.949	134.033	109.96	134.033	109.959	134.033	109.967	134.033	109.969	134.033	109.973	134.033	109.975
138.428	110.953	138.428	110.924	138.428	110.951	138.428	110.866	138.428	110.919	138.428	110.782	138.428	110.857	138.428	110.675	138.428	110.77	138.428	110.551	138.428	110.66	138.428	110.417	138.428	110.535	138.428	110.28	138.428	110.402	138.428	110.148	138.428	110.267	138.428	110.028	138.428	110.141	138.428	109.929	138.428	110.032	138.428	109.853	138.428	109.944	138.428	109.805	138.428	109.883	138.428	109.782	138.428	109.847	138.428	109.78	138.428	109.832	138.428	109.793	138.428	109.832	138.428	109.811	138.428	109.837	138.428	109.829	138.428	109.842	138.428	109.839
143.555	110.746	143.555	110.709	143.555	110.749	143.555	110.642	143.555	110.721	143.555	110.546	143.555	110.661	143.555	110.427	143.555	110.575	143.555	110.292	143.555	110.467	143.555	110.148	143.555	110.344	143.555	110.004	143.555	110.213	143.555	109.87	143.555	110.084	143.555	109.755	143.555	109.964	143.555	109.667	143.555	109.862	143.555	109.608	143.555	109.782	143.555	109.58	143.555	109.728	143.555	109.58	143.555	109.699	143.555	109.599	143.555	109.69	143.555	109.63	143.555	109.694	143.555	109.662	143.555	109.702	143.555	109.689	143.555	109.708	143.555	109.704
148.682	110.566	148.682	110.532	148.682	110.563	148.682	110.462	148.682	110.523	148.682	110.357	148.682	110.449	148.682	110.224	148.682	110.347	148.682	110.069	148.682	110.225	148.682	109.901	148.682	110.089	148.682	109.731	148.682	109.951	148.682	109.571	148.682	109.82	148.682	109.433	148.682	109.706	148.682	109.326	148.682	109.615	148.682	109.257	148.682	109.551	148.682	109.229	148.682	109.514	148.682	109.239	148.682	109.5	148.682	109.277	148.682	109.5	148.682	109.332	148.682	109.508	148.682	109.392	148.682	109.512	148.682	109.445	148.682	109.506	148.682	109.484
153.809	110.475	153.809	110.449	153.809	110.459	153.809	110.381	153.809	110.401	153.809	110.274	153.809	110.303	153.809	110.132	153.809	110.17	153.809	109.963	153.809	110.009	153.809	109.774	153.809	109.831	153.809	109.576	153.809	109.647	153.809	109.382	153.809	109.472	153.809	109.205	153.809	109.321	153.809	109.058	153.809	109.203	153.809	108.95	153.809	109.126	153.809	108.889	153.809	109.089	153.809	108.873	153.809	109.083	153.809	108.895	153.809	109.097	153.809	108.943	153.809	109.117	153.809	109.002	153.809	109.129	153.809	109.059	153.809	109.126	153.809	109.102
159.668	110.521	159.668	110.495	159.668	110.505	159.668	110.43	159.668	110.449	159.668	110.328	159.668	110.353	159.668	110.193	159.668	110.22	159.668	110.033	159.668	110.057	159.668	109.855	159.668	109.871	159.668	109.668	159.668	109.673	159.668	109.482	159.668	109.475	159.668	109.309	159.668	109.292	159.668	109.159	159.668	109.139	159.668	109.041	159.668	109.026	159.668	108.96	159.668	108.957	159.668	108.918	159.668	108.93	159.668	108.908	159.668	108.935	159.668	108.924	159.668	108.957	159.668	108.951	159.668	108.981	159.668	108.978	159.668	108.996	159.668	108.995
164.795	110.49	164.795	110.459	164.795	110.479	164.795	110.389	164.795	110.428	164.795	110.282	164.795	110.338	164.795	110.143	164.795	110.211	164.795	109.979	164.795	110.053	164.795	109.799	164.795	109.871	164.795	109.611	164.795	109.674	164.795	109.429	164.795	109.476	164.795	109.262	164.795	109.289	164.795	109.12	164.795	109.128	164.795	109.012	164.795	109.005	164.795	108.94	164.795	108.925	164.795	108.905	164.795	108.889	164.795	108.899	164.795	108.888	164.795	108.913	164.795	108.908	164.795	108.936	164.795	108.935	164.795	108.956	164.795	108.957	164.795	108.964
170.654	110.18	170.654	110.15	170.654	110.168	170.654	110.079	170.654	110.115	170.654	109.971	170.654	110.023	170.654	109.831	170.654	109.897	170.654	109.666	170.654	109.742	170.654	109.485	170.654	109.568	170.654	109.301	170.654	109.384	170.654	109.124	170.654	109.202	170.654	108.968	170.654	109.034	170.654	108.843	170.654	108.892	170.654	108.755	170.654	108.787	170.654	108.706	170.654	108.722	170.654	108.693	170.654	108.696	170.654	108.707	170.654	108.703	170.654	108.737	170.654	108.729	170.654	108.769	170.654	108.762	170.654	108.792	170.654	108.788	170.654	108.799
176.514	109.983	176.514	109.963	176.514	109.957	176.514	109.898	176.514	109.888	176.514	109.791	176.514	109.777	176.514	109.648	176.514	109.631	176.514	109.477	176.514	109.46	176.514	109.289	176.514	109.273	176.514	109.095	176.514	109.085	176.514	108.91	176.514	108.908	176.514	108.746	176.514	108.757	176.514	108.616	176.514	108.642	176.514	108.528	176.514	108.569	176.514	108.484	176.514	108.538	176.514	108.48	176.514	108.543	176.514	108.507	176.514	108.572	176.514	108.553	176.514	108.611	176.514	108.603	176.514	108.647	176.514	108.644	176.514	108.668	176.514	108.667
183.105	109.688	183.105	109.668	183.105	109.658	183.105	109.599	183.105	109.578	183.105	109.485	183.105	109.451	183.105	109.331	183.105	109.284	183.105	109.145	183.105	109.085	183.105	108.941	183.105	108.868	183.105	108.731	183.105	108.646	183.105	108.531	183.105	108.439	183.105	108.359	183.105	108.265	183.105	108.229	183.105	108.14	183.105	108.147	183.105	108.071	183.105	108.117	183.105	108.058	183.105	108.13	183.105	108.09	183.105	108.174	183.105	108.152	183.105	108.232	183.105	108.223	183.105	108.288	183.105	108.286	183.105	108.328	183.105	108.329	183.105	108.343
189.697	109.668	189.697	109.645	189.697	109.638	189.697	109.571	189.697	109.553	189.697	109.448	189.697	109.414	189.697	109.283	189.697	109.227	189.697	109.084	189.697	108.997	189.697	108.861	189.697	108.737	189.697	108.627	189.697	108.462	189.697	108.398	189.697	108.194	189.697	108.193	189.697	107.958	189.697	108.028	189.697	107.779	189.697	107.918	189.697	107.675	189.697	107.868	189.697	107.65	189.697	107.873	189.697	107.693	189.697	107.92	189.697	107.784	189.697	107.988	189.697	107.893	189.697	108.054	189.697	107.995	189.697	108.097	189.697	108.069	189.697	108.104
196.289	109.719	196.289	109.683	196.289	109.705	196.289	109.6	196.289	109.64	196.289	109.476	196.289	109.524	196.289	109.317	196.289	109.359	196.289	109.13	196.289	109.151	196.289	108.927	196.289	108.908	196.289	108.719	196.289	108.642	196.289	108.519	196.289	108.372	196.289	108.34	196.289	108.118	196.289	108.194	196.289	107.905	196.289	108.09	196.289	107.753	196.289	108.029	196.289	107.675	196.289	108.008	196.289	107.67	196.289	108.016	196.289	107.723	196.289	108.04	196.289	107.81	196.289	108.061	196.289	107.905	196.289	108.065	196.289	107.986	196.289	108.041
202.881	109.48	202.881	109.42	202.881	109.484	202.881	109.307	202.881	109.43	202.881	109.145	202.881	109.322	202.881	108.943	202.881	109.162	202.881	108.711	202.881	108.958	202.881	108.464	202.881	108.719	202.881	108.22	202.881	108.46	202.881	107.996	202.881	108.197	202.881	107.81	202.881	107.954	202.881	107.677	202.881	107.753	202.881	107.603	202.881	107.613	202.881	107.585	202.881	107.545	202.881	107.614	202.881	107.545	202.881	107.673	202.881	107.596	202.881	107.744	202.881	107.675	202.881	107.806	202.881	107.757	202.881	107.845	202.881	107.819	202.881	107.851
210.205	109.337	210.205	109.295	210.205	109.323	210.205	109.198	210.205	109.254	210.205	109.049	210.205	109.133	210.205	108.851	210.205	108.964	210.205	108.611	210.205	108.753	210.205	108.342	210.205	108.51	210.205	108.058	210.205	108.248	210.205	107.778	210.205	107.984	210.205	107.527	210.205	107.739	210.205	107.328	210.205	107.534	210.205	107.199	210.205	107.388	210.205	107.148	210.205	107.311	210.205	107.168	210.205	107.301	210.205	107.237	210.205	107.34	210.205	107.331	210.205	107.405	210.205	107.422	210.205	107.47	210.205	107.49	210.205	107.513	210.205	107.522
217.529	109.186	217.529	109.15	217.529	109.168	217.529	109.062	217.529	109.095	217.529	108.924	217.529	108.97	217.529	108.744	217.529	108.795	217.529	108.526	217.529	108.579	217.529	108.282	217.529	108.331	217.529	108.021	217.529	108.064	217.529	107.76	217.529	107.796	217.529	107.517	217.529	107.548	217.529	107.311	217.529	107.343	217.529	107.16	217.529	107.2	217.529	107.076	217.529	107.128	217.529	107.061	217.529	107.124	217.529	107.102	217.529	107.168	217.529	107.176	217.529	107.236	217.529	107.256	217.529	107.301	217.529	107.32	217.529	107.344	217.529	107.351
225.586	109.1	225.586	109.076	225.586	109.064	225.586	108.994	225.586	108.968	225.586	108.859	225.586	108.814	225.586	108.677	225.586	108.608	225.586	108.457	225.586	108.358	225.586	108.21	225.586	108.078	225.586	107.949	225.586	107.785	225.586	107.69	225.586	107.5	225.586	107.449	225.586	107.249	225.586	107.243	225.586	107.058	225.586	107.091	225.586	106.946	225.586	107.004	225.586	106.918	225.586	106.987	225.586	106.965	225.586	107.031	225.586	107.06	225.586	107.117	225.586	107.171	225.586	107.213	225.586	107.267	225.586	107.293	225.586	107.326	225.586	107.335
232.91	109.29	232.91	109.258	232.91	109.26	232.91	109.168	232.91	109.166	232.91	109.027	232.91	109.009	232.91	108.844	232.91	108.791	232.91	108.628	232.91	108.52	232.91	108.391	232.91	108.207	232.91	108.146	232.91	107.865	232.91	107.907	232.91	107.515	232.91	107.686	232.91	107.182	232.91	107.494	232.91	106.897	232.91	107.339	232.91	106.692	232.91	107.228	232.91	106.588	232.91	107.163	232.91	106.589	232.91	107.139	232.91	106.675	232.91	107.146	232.91	106.809	232.91	107.163	232.91	106.95	232.91	107.167	232.91	107.066	232.91	107.138
241.699	109.266	241.699	109.202	241.699	109.264	241.699	109.078	241.699	109.195	241.699	108.903	241.699	109.059	241.699	108.687	241.699	108.864	241.699	108.444	241.699	108.618	241.699	108.189	241.699	108.336	241.699	107.935	241.699	108.038	241.699	107.699	241.699	107.745	241.699	107.493	241.699	107.483	241.699	107.328	241.699	107.272	241.699	107.214	241.699	107.129	241.699	107.157	241.699	107.059	241.699	107.155	241.699	107.058	241.699	107.197	241.699	107.11	241.699	107.264	241.699	107.192	241.699	107.33	241.699	107.279	241.699	107.374	241.699	107.347	241.699	107.382
249.756	109.092	249.756	109.018	249.756	109.091	249.756	108.875	249.756	109.013	249.756	108.672	249.756	108.859	249.756	108.421	249.756	108.631	249.756	108.14	249.756	108.338	249.756	107.848	249.756	107.994	249.756	107.571	249.756	107.621	249.756	107.326	249.756	107.251	249.756	107.125	249.756	106.921	249.756	106.972	249.756	106.672	249.756	106.864	249.756	106.532	249.756	106.8	249.756	106.509	249.756	106.781	249.756	106.584	249.756	106.807	249.756	106.717	249.756	106.872	249.756	106.863	249.756	106.956	249.756	106.985	249.756	107.031	249.756	107.058	249.756	107.071
258.545	109.179	258.545	109.089	258.545	109.195	258.545	108.928	258.545	109.137	258.545	108.703	258.545	109.004	258.545	108.423	258.545	108.799	258.545	108.104	258.545	108.526	258.545	107.767	258.545	108.195	258.545	107.445	258.545	107.823	258.545	107.169	258.545	107.434	258.545	106.967	258.545	107.062	258.545	106.852	258.545	106.744	258.545	106.816	258.545	106.519	258.545	106.835	258.545	106.412	258.545	106.883	258.545	106.421	258.545	106.938	258.545	106.519	258.545	106.988	258.545	106.663	258.545	107.023	258.545	106.81	258.545	107.031	258.545	106.928	258.545	107.002
268.066	108.913	268.066	108.797	268.066	108.947	268.066	108.606	268.066	108.897	268.066	108.345	268.066	108.762	268.066	108.029	268.066	108.544	268.066	107.676	268.066	108.249	268.066	107.313	268.066	107.888	268.066	106.974	268.066	107.483	268.066	106.695	268.066	107.064	268.066	106.504	268.066	106.672	268.066	106.412	268.066	106.352	268.066	106.412	268.066	106.14	268.066	106.48	268.066	106.054	268.066	106.588	268.066	106.086	268.066	106.707	268.066	106.208	268.066	106.81	268.066	106.379	268.066	106.874	268.066	106.56	268.066	106.884	268.066	106.719	268.066	106.831
277.588	109.07	277.588	109.033	277.588	109.034	277.588	108.91	277.588	108.936	277.588	108.691	277.588	108.788	277.588	108.37	277.588	108.594	277.588	107.953	277.588	108.356	277.588	107.457	277.588	108.074	277.588	106.919	277.588	107.753	277.588	106.4	277.588	107.404	277.588	105.973	277.588	107.058	277.588	105.708	277.588	106.759	277.588	105.632	277.588	106.557	277.588	105.722	277.588	106.483	277.588	105.924	277.588	106.53	277.588	106.177	277.588	106.652	277.588	106.432	277.588	106.792	277.588	106.655	277.588	106.901	277.588	106.824	277.588	106.949	277.588	106.924
287.109	109.153	287.109	109.15	287.109	109.067	287.109	109.056	287.109	108.896	287.109	108.869	287.109	108.649	287.109	108.592	287.109	108.337	287.109	108.23	287.109	107.975	287.109	107.793	287.109	107.579	287.109	107.308	287.109	107.167	287.109	106.818	287.109	106.763	287.109	106.382	287.109	106.397	287.109	106.065	287.109	106.109	287.109	105.91	287.109	105.943	287.109	105.917	287.109	105.922	287.109	106.047	287.109	106.037	287.109	106.245	287.109	106.241	287.109	106.459	287.109	106.469	287.109	106.647	287.109	106.665	287.109	106.777	287.109	106.791	287.109	106.829
297.363	109.386	297.363	109.3	297.363	109.372	297.363	109.133	297.363	109.247	297.363	108.898	297.363	109.002	297.363	108.607	297.363	108.638	297.363	108.265	297.363	108.165	297.363	107.876	297.363	107.601	297.363	107.448	297.363	106.976	297.363	107	297.363	106.332	297.363	106.567	297.363	105.725	297.363	106.207	297.363	105.23	297.363	105.977	297.363	104.931	297.363	105.91	297.363	104.885	297.363	105.99	297.363	105.08	297.363	106.161	297.363	105.43	297.363	106.354	297.363	105.825	297.363	106.51	297.363	106.176	297.363	106.589	297.363	106.429	297.363	106.566
307.617	109.398	307.617	109.287	307.617	109.436	307.617	109.106	307.617	109.398	307.617	108.854	307.617	109.275	307.617	108.534	307.617	109.06	307.617	108.15	307.617	108.747	307.617	107.717	307.617	108.339	307.617	107.258	307.617	107.845	307.617	106.812	307.617	107.285	307.617	106.421	307.617	106.695	307.617	106.128	307.617	106.125	307.617	105.96	307.617	105.648	307.617	105.921	307.617	105.343	307.617	105.995	307.617	105.266	307.617	106.143	307.617	105.408	307.617	106.313	307.617	105.693	307.617	106.452	307.617	106.017	307.617	106.513	307.617	106.292	307.617	106.463
318.604	109.206	318.604	109.135	318.604	109.2	318.604	108.983	318.604	109.118	318.604	108.75	318.604	108.96	318.604	108.433	318.604	108.727	318.604	108.035	318.604	108.416	318.604	107.568	318.604	108.029	318.604	107.053	318.604	107.577	318.604	106.533	318.604	107.08	318.604	106.067	318.604	106.578	318.604	105.723	318.604	106.128	318.604	105.548	318.604	105.8	318.604	105.553	318.604	105.649	318.604	105.702	318.604	105.688	318.604	105.939	318.604	105.877	318.604	106.201	318.604	106.137	318.604	106.433	318.604	106.388	318.604	106.588	318.604	106.567	318.604	106.637
329.59	109.284	329.59	109.229	329.59	109.253	329.59	109.088	329.59	109.139	329.59	108.858	329.59	108.944	329.59	108.538	329.59	108.669	329.59	108.131	329.59	108.315	329.59	107.646	329.59	107.884	329.59	107.102	329.59	107.379	329.59	106.541	329.59	106.816	329.59	106.027	329.59	106.228	329.59	105.638	329.59	105.676	329.59	105.44	329.59	105.251	329.59	105.45	329.59	105.046	329.59	105.626	329.59	105.099	329.59	105.892	329.59	105.361	329.59	106.167	329.59	105.726	329.59	106.388	329.59	106.082	329.59	106.508	329.59	106.354	329.59	106.5
341.309	108.957	341.309	108.934	341.309	108.899	341.309	108.827	341.309	108.762	341.309	108.635	341.309	108.551	341.309	108.358	341.309	108.274	341.309	107.992	341.309	107.937	341.309	107.541	341.309	107.549	341.309	107.015	341.309	107.116	341.309	106.446	341.309	106.647	341.309	105.895	341.309	106.161	341.309	105.443	341.309	105.698	341.309	105.169	341.309	105.326	341.309	105.108	341.309	105.122	341.309	105.237	341.309	105.133	341.309	105.487	341.309	105.332	341.309	105.776	341.309	105.629	341.309	106.03	341.309	105.923	341.309	106.194	341.309	106.139	341.309	106.234
353.76	109.136	353.76	109.072	353.76	109.109	353.76	108.924	353.76	108.985	353.76	108.697	353.76	108.758	353.76	108.393	353.76	108.428	353.76	108.01	353.76	107.993	353.76	107.547	353.76	107.462	353.76	107.009	353.76	106.844	353.76	106.422	353.76	106.159	353.76	105.837	353.76	105.442	353.76	105.335	353.76	104.753	353.76	104.997	353.76	104.193	353.76	104.868	353.76	103.882	353.76	104.93	353.76	103.891	353.76	105.117	353.76	104.179	353.76	105.346	353.76	104.614	353.76	105.541	353.76	105.053	353.76	105.639	353.76	105.398	353.76	105.597
366.211	109.344	366.211	109.228	366.211	109.365	366.211	109.023	366.211	109.287	366.211	108.738	366.211	109.11	366.211	108.383	366.211	108.833	366.211	107.965	366.211	108.459	366.211	107.488	366.211	107.989	366.211	106.953	366.211	107.429	366.211	106.371	366.211	106.79	366.211	105.773	366.211	106.087	366.211	105.226	366.211	105.351	366.211	104.82	366.211	104.642	366.211	104.623	366.211	104.066	366.211	104.632	366.211	103.75	366.211	104.777	366.211	103.762	366.211	104.96	366.211	104.041	366.211	105.101	366.211	104.433	366.211	105.139	366.211	104.795	366.211	105.04
378.662	109.412	378.662	109.347	378.662	109.4	378.662	109.201	378.662	109.308	378.662	108.973	378.662	109.135	378.662	108.657	378.662	108.879	378.662	108.247	378.662	108.54	378.662	107.746	378.662	108.124	378.662	107.165	378.662	107.643	378.662	106.544	378.662	107.118	378.662	105.953	378.662	106.581	378.662	105.48	378.662	106.068	378.662	105.196	378.662	105.616	378.662	105.107	378.662	105.259	378.662	105.154	378.662	105.023	378.662	105.258	378.662	104.923	378.662	105.355	378.662	104.949	378.662	105.411	378.662	105.063	378.662	105.407	378.662	105.21	378.662	105.336
392.578	110.479	392.578	110.356	392.578	110.497	392.578	110.135	392.578	110.409	392.578	109.826	392.578	110.217	392.578	109.444	392.578	109.925	392.578	109.009	392.578	109.544	392.578	108.543	392.578	109.089	392.578	108.067	392.578	108.574	392.578	107.593	392.578	108.018	392.578	107.126	392.578	107.449	392.578	106.678	392.578	106.92	392.578	106.288	392.578	106.51	392.578	106.03	392.578	106.297	392.578	105.974	392.578	106.298	392.578	106.122	392.578	106.451	392.578	106.391	392.578	106.66	392.578	106.668	392.578	106.843	392.578	106.872	392.578	106.954	392.578	106.968
405.762	109.678	405.762	109.551	405.762	109.652	405.762	109.278	405.762	109.471	405.762	108.876	405.762	109.139	405.762	108.37	405.762	108.663	405.762	107.79	405.762	108.06	405.762	107.175	405.762	107.368	405.762	106.579	405.762	106.656	405.762	106.08	405.762	106.031	405.762	105.763	405.762	105.602	405.762	105.678	405.762	105.413	405.762	105.789	405.762	105.416	405.762	105.997	405.762	105.522	405.762	106.204	405.762	105.671	405.762	106.36	405.762	105.839	405.762	106.46	405.762	106.021	405.762	106.511	405.762	106.203	405.762	106.516	405.762	106.359	405.762	106.467
420.41	110.205	420.41	110.093	420.41	110.17	420.41	109.826	420.41	109.995	420.41	109.394	420.41	109.68	420.41	108.786	420.41	109.22	420.41	107.992	420.41	108.604	420.41	107.015	420.41	107.815	420.41	105.881	420.41	106.835	420.41	104.691	420.41	105.661	420.41	103.672	420.41	104.349	420.41	103.147	420.41	103.108	420.41	103.275	420.41	102.369	420.41	103.855	420.41	102.491	420.41	104.562	420.41	103.279	420.41	105.188	420.41	104.241	420.41	105.658	420.41	105.062	420.41	105.966	420.41	105.642	420.41	106.124	420.41	105.988	420.41	106.137
435.059	109.664	435.059	109.587	435.059	109.653	435.059	109.419	435.059	109.552	435.059	109.147	435.059	109.352	435.059	108.746	435.059	109.04	435.059	108.184	435.059	108.603	435.059	107.433	435.059	108.023	435.059	106.481	435.059	107.283	435.059	105.374	435.059	106.374	435.059	104.271	435.059	105.329	435.059	103.49	435.059	104.272	435.059	103.357	435.059	103.481	435.059	103.864	435.059	103.288	435.059	104.687	435.059	103.749	435.059	105.519	435.059	104.568	435.059	106.197	435.059	105.418	435.059	106.658	435.059	106.121	435.059	106.883	435.059	106.61	435.059	106.866
450.439	110.237	450.439	110.176	450.439	110.207	450.439	110.016	450.439	110.085	450.439	109.744	450.439	109.866	450.439	109.345	450.439	109.534	450.439	108.795	450.439	109.07	450.439	108.06	450.439	108.455	450.439	107.102	450.439	107.673	450.439	105.891	450.439	106.711	450.439	104.47	450.439	105.572	450.439	103.086	450.439	104.32	450.439	102.311	450.439	103.176	450.439	102.598	450.439	102.575	450.439	103.609	450.439	102.846	450.439	104.723	450.439	103.748	450.439	105.619	450.439	104.782	450.439	106.211	450.439	105.641	450.439	106.501	450.439	106.219	450.439	106.503
466.553	109.938	466.553	109.88	466.553	109.919	466.553	109.74	466.553	109.822	466.553	109.509	466.553	109.644	466.553	109.174	466.553	109.37	466.553	108.715	466.553	108.984	466.553	108.108	466.553	108.46	466.553	107.326	466.553	107.771	466.553	106.355	466.553	106.893	466.553	105.236	466.553	105.822	466.553	104.119	466.553	104.611	466.553	103.296	466.553	103.455	466.553	103.076	466.553	102.747	466.553	103.493	466.553	102.837	466.553	104.274	466.553	103.59	466.553	105.1	466.553	104.553	466.553	105.761	466.553	105.392	466.553	106.149	466.553	105.963	466.553	106.219
482.666	109.712	482.666	109.656	482.666	109.696	482.666	109.526	482.666	109.605	482.666	109.315	482.666	109.432	482.666	109.004	482.666	109.162	482.666	108.565	482.666	108.778	482.666	107.954	482.666	108.252	482.666	107.117	482.666	107.556	482.666	106.001	482.666	106.662	482.666	104.603	482.666	105.557	482.666	103.098	482.666	104.27	482.666	102.051	482.666	102.967	482.666	102.129	482.666	102.077	482.666	103.117	482.666	102.113	482.666	104.275	482.666	103.007	482.666	105.21	482.666	104.171	482.666	105.834	482.666	105.168	482.666	106.149	482.666	105.838	482.666	106.157
500.244	109.584	500.244	109.533	500.244	109.571	500.244	109.412	500.244	109.498	500.244	109.218	500.244	109.363	500.244	108.944	500.244	109.155	500.244	108.573	500.244	108.848	500.244	108.073	500.244	108.407	500.244	107.397	500.244	107.79	500.244	106.495	500.244	106.955	500.244	105.345	500.244	105.875	500.244	104.027	500.244	104.575	500.244	102.85	500.244	103.211	500.244	102.348	500.244	102.183	500.244	102.763	500.244	101.983	500.244	103.685	500.244	102.625	500.244	104.608	500.244	103.621	500.244	105.277	500.244	104.551	500.244	105.609	500.244	105.229	500.244	105.59
517.822	109.297	517.822	109.247	517.822	109.291	517.822	109.132	517.822	109.232	517.822	108.94	517.822	109.118	517.822	108.652	517.822	108.936	517.822	108.241	517.822	108.668	517.822	107.668	517.822	108.284	517.822	106.882	517.822	107.744	517.822	105.841	517.822	107	517.822	104.561	517.822	106.006	517.822	103.233	517.822	104.752	517.822	102.342	517.822	103.36	517.822	102.396	517.822	102.27	517.822	103.243	517.822	102.133	517.822	104.314	517.822	102.988	517.822	105.241	517.822	104.178	517.822	105.89	517.822	105.204	517.822	106.226	517.822	105.898	517.822	106.234
536.133	108.321	536.133	108.288	536.133	108.261	536.133	108.171	536.133	108.113	536.133	107.987	536.133	107.893	536.133	107.745	536.133	107.617	536.133	107.436	536.133	107.282	536.133	107.01	536.133	106.856	536.133	106.376	536.133	106.287	536.133	105.411	536.133	105.51	536.133	103.996	536.133	104.467	536.133	102.138	536.133	103.151	536.133	100.376	536.133	101.736	536.133	100.123	536.133	100.804	536.133	101.587	536.133	101.08	536.133	103.361	536.133	102.355	536.133	104.747	536.133	103.818	536.133	105.655	536.133	105.009	536.133	106.117	536.133	105.796	536.133	106.163
554.443	109.225	554.443	109.128	554.443	109.253	554.443	108.965	554.443	109.209	554.443	108.733	554.443	109.088	554.443	108.42	554.443	108.886	554.443	107.999	554.443	108.586	554.443	107.435	554.443	108.16	554.443	106.679	554.443	107.557	554.443	105.661	554.443	106.707	554.443	104.284	554.443	105.521	554.443	102.435	554.443	103.891	554.443	100.151	554.443	101.732	554.443	98.3653	554.443	99.2765	554.443	99.0187	554.443	98.0275	554.443	101.207	554.443	99.4023	554.443	103.117	554.443	101.598	554.443	104.337	554.443	103.324	554.443	104.915	554.443	104.414	554.443	104.931
574.219	109.367	574.219	109.303	574.219	109.394	574.219	109.213	574.219	109.383	574.219	109.108	574.219	109.344	574.219	108.978	574.219	109.273	574.219	108.779	574.219	109.149	574.219	108.435	574.219	108.923	574.219	107.855	574.219	108.531	574.219	106.947	574.219	107.897	574.219	105.614	574.219	106.931	574.219	103.773	574.219	105.539	574.219	101.449	574.219	103.668	574.219	99.3033	574.219	101.545	574.219	99.1947	574.219	100.248	574.219	101.089	574.219	100.907	574.219	103.073	574.219	102.526	574.219	104.448	574.219	103.953	574.219	105.168	574.219	104.885	574.219	105.296
594.727	109.583	594.727	109.461	594.727	109.628	594.727	109.288	594.727	109.597	594.727	109.107	594.727	109.51	594.727	108.964	594.727	109.403	594.727	108.866	594.727	109.3	594.727	108.746	594.727	109.183	594.727	108.473	594.727	108.969	594.727	107.887	594.727	108.527	594.727	106.841	594.727	107.706	594.727	105.224	594.727	106.348	594.727	103.052	594.727	104.29	594.727	100.869	594.727	101.543	594.727	100.363	594.727	99.4366	594.727	102.006	594.727	100.624	594.727	104.054	594.727	103.188	594.727	105.612	594.727	105.156	594.727	106.517	594.727	106.319	594.727	106.756
615.234	110.663	615.234	110.563	615.234	110.626	615.234	110.347	615.234	110.469	615.234	110.067	615.234	110.24	615.234	109.792	615.234	110.002	615.234	109.561	615.234	109.801	615.234	109.344	615.234	109.635	615.234	109.033	615.234	109.447	615.234	108.472	615.234	109.131	615.234	107.5	615.234	108.548	615.234	105.961	615.234	107.531	615.234	103.749	615.234	105.905	615.234	101.086	615.234	103.553	615.234	99.6148	615.234	100.893	615.234	101.033	615.234	100.133	615.234	103.298	615.234	102.06	615.234	104.991	615.234	104.169	615.234	105.919	615.234	105.53	615.234	106.099
637.207	110.968	637.207	110.8	637.207	110.951	637.207	110.487	637.207	110.749	637.207	110.108	637.207	110.415	637.207	109.768	637.207	110.048	637.207	109.558	637.207	109.762	637.207	109.49	637.207	109.608	637.207	109.444	637.207	109.52	637.207	109.202	637.207	109.35	637.207	108.524	637.207	108.938	637.207	107.198	637.207	108.132	637.207	105.074	637.207	106.774	637.207	102.287	637.207	104.723	637.207	100.392	637.207	102.2	637.207	101.569	637.207	101.02	637.207	103.847	637.207	102.651	637.207	105.587	637.207	104.792	637.207	106.562	637.207	106.202	637.207	106.774
659.912	111.072	659.912	110.855	659.912	111.092	659.912	110.457	659.912	110.925	659.912	109.941	659.912	110.597	659.912	109.414	659.912	110.161	659.912	108.994	659.912	109.701	659.912	108.737	659.912	109.307	659.912	108.58	659.912	108.996	659.912	108.352	659.912	108.678	659.912	107.833	659.912	108.193	659.912	106.81	659.912	107.369	659.912	105.133	659.912	106.029	659.912	102.909	659.912	104.006	659.912	101.169	659.912	101.422	659.912	101.621	659.912	99.9928	659.912	103.412	659.912	101.632	659.912	104.995	659.912	103.946	659.912	105.921	659.912	105.474	659.912	106.104
683.35	110.827	683.35	110.664	683.35	110.779	683.35	110.293	683.35	110.529	683.35	109.747	683.35	110.105	683.35	109.105	683.35	109.562	683.35	108.505	683.35	108.999	683.35	108.078	683.35	108.53	683.35	107.842	683.35	108.216	683.35	107.635	683.35	107.973	683.35	107.195	683.35	107.608	683.35	106.279	683.35	106.919	683.35	104.733	683.35	105.747	683.35	102.687	683.35	104.001	683.35	101.213	683.35	101.842	683.35	101.89	683.35	100.519	683.35	103.733	683.35	101.649	683.35	105.263	683.35	103.76	683.35	106.075	683.35	105.345	683.35	106.111
706.787	110.823	706.787	110.622	706.787	110.773	706.787	110.196	706.787	110.467	706.787	109.601	706.787	109.938	706.787	108.927	706.787	109.264	706.787	108.292	706.787	108.578	706.787	107.792	706.787	108.02	706.787	107.424	706.787	107.658	706.787	107.057	706.787	107.414	706.787	106.473	706.787	107.09	706.787	105.399	706.787	106.423	706.787	103.515	706.787	105.127	706.787	100.619	706.787	102.918	706.787	98.2146	706.787	99.8224	706.787	100.04	706.787	98.1018	706.787	102.96	706.787	100.299	706.787	104.827	706.787	102.968	706.787	105.659	706.787	104.733	706.787	105.61
731.689	110.616	731.689	110.45	731.689	110.516	731.689	110.025	731.689	110.169	731.689	109.383	731.689	109.62	731.689	108.605	731.689	108.943	731.689	107.813	731.689	108.253	731.689	107.17	731.689	107.679	731.689	106.791	731.689	107.3	731.689	106.593	731.689	107.066	731.689	106.272	731.689	106.804	731.689	105.456	731.689	106.281	731.689	103.824	731.689	105.242	731.689	101.18	731.689	103.406	731.689	98.3038	731.689	100.571	731.689	98.6647	731.689	97.9171	731.689	101.386	731.689	99.2536	731.689	103.526	731.689	102.152	731.689	104.674	731.689	104.062	731.689	104.864
758.057	110.121	758.057	109.913	758.057	110.089	758.057	109.455	758.057	109.815	758.057	108.765	758.057	109.285	758.057	107.951	758.057	108.513	758.057	107.219	758.057	107.633	758.057	106.776	758.057	106.943	758.057	106.632	758.057	106.691	758.057	106.552	758.057	106.735	758.057	106.222	758.057	106.689	758.057	105.367	758.057	106.24	758.057	103.742	758.057	105.177	758.057	101.139	758.057	103.276	758.057	98.1959	758.057	100.301	758.057	98.4829	758.057	97.1877	758.057	101.27	758.057	98.3239	758.057	103.344	758.057	101.427	758.057	104.343	758.057	103.471	758.057	104.387
784.424	110.302	784.424	110.108	784.424	110.185	784.424	109.591	784.424	109.785	784.424	108.765	784.424	109.135	784.424	107.701	784.424	108.26	784.424	106.59	784.424	107.207	784.424	105.752	784.424	106.134	784.424	105.431	784.424	105.372	784.424	105.473	784.424	105.158	784.424	105.394	784.424	105.216	784.424	104.698	784.424	104.996	784.424	102.971	784.424	104.115	784.424	99.8239	784.424	102.362	784.424	95.7274	784.424	99.5458	784.424	96.5182	784.424	96.1646	784.424	100.384	784.424	96.9771	784.424	103.013	784.424	100.785	784.424	104.352	784.424	103.37	784.424	104.497
812.256	109.308	812.256	109.097	812.256	109.271	812.256	108.669	812.256	108.937	812.256	108.022	812.256	108.288	812.256	107.142	812.256	107.368	812.256	106.082	812.256	106.311	812.256	105.079	812.256	105.305	812.256	104.468	812.256	104.544	812.256	104.281	812.256	104.17	812.256	104.154	812.256	104.126	812.256	103.688	812.256	104.062	812.256	102.526	812.256	103.495	812.256	100.129	812.256	101.966	812.256	95.4976	812.256	99.055	812.256	92.421	812.256	95.2956	812.256	98.2334	812.256	96.066	812.256	101.765	812.256	99.6448	812.256	103.217	812.256	102.067	812.256	103.24
840.82	109.179	840.82	109.031	840.82	109.095	840.82	108.563	840.82	108.827	840.82	107.714	840.82	108.337	840.82	106.496	840.82	107.515	840.82	105.045	840.82	106.271	840.82	103.722	840.82	104.711	840.82	103.133	840.82	103.346	840.82	103.502	840.82	102.894	840.82	104.152	840.82	103.277	840.82	104.301	840.82	103.705	840.82	103.533	840.82	103.56	840.82	101.59	840.82	102.405	840.82	97.9889	840.82	99.6769	840.82	92.208	840.82	94.76	840.82	94.0692	840.82	94.0295	840.82	99.0512	840.82	98.7483	840.82	101.469	840.82	101.335	840.82	102.143
870.85	109.575	870.85	109.365	870.85	109.543	870.85	108.919	870.85	109.257	870.85	108.231	870.85	108.719	870.85	107.276	870.85	107.958	870.85	106.023	870.85	106.998	870.85	104.515	870.85	105.831	870.85	103.115	870.85	104.508	870.85	102.57	870.85	103.392	870.85	102.982	870.85	103.068	870.85	103.444	870.85	103.354	870.85	103.214	870.85	103.381	870.85	101.95	870.85	102.542	870.85	99.5293	870.85	100.524	870.85	96.5834	870.85	97.1151	870.85	96.3971	870.85	94.1606	870.85	99.0267	870.85	96.851	870.85	100.989	870.85	100.031	870.85	101.388
901.611	110.064	901.611	109.893	901.611	109.98	901.611	109.466	901.611	109.628	901.611	108.763	901.611	109.006	901.611	107.772	901.611	108.131	901.611	106.514	901.611	107.041	901.611	105.031	901.611	105.807	901.611	103.489	901.611	104.554	901.611	102.471	901.611	103.518	901.611	102.475	901.611	103.01	901.611	102.754	901.611	103.009	901.611	102.207	901.611	102.939	901.611	100.212	901.611	102.134	901.611	96.683	901.611	100.038	901.611	94.4979	901.611	96.1557	901.611	97.2398	901.611	94.0275	901.611	100.253	901.611	98.4015	901.611	102.081	901.611	101.49	901.611	102.575
933.105	109.923	933.105	109.747	933.105	109.877	933.105	109.359	933.105	109.593	933.105	108.716	933.105	109.072	933.105	107.729	933.105	108.288	933.105	106.366	933.105	107.166	933.105	104.792	933.105	105.684	933.105	103.406	933.105	104.084	933.105	102.65	933.105	102.974	933.105	102.652	933.105	102.762	933.105	102.966	933.105	103.066	933.105	102.764	933.105	103.231	933.105	101.219	933.105	102.711	933.105	97.3925	933.105	100.926	933.105	91.0954	933.105	97.0396	933.105	94.5526	933.105	92.4986	933.105	98.9088	933.105	96.7476	933.105	100.974	933.105	100.251	933.105	101.452
966.064	109.656	966.064	109.515	966.064	109.563	966.064	109.116	966.064	109.24	966.064	108.448	966.064	108.66	966.064	107.51	966.064	107.803	966.064	106.278	966.064	106.688	966.064	104.731	966.064	105.334	966.064	103.033	966.064	103.727	966.064	101.777	966.064	102.071	966.064	101.532	966.064	101.2	966.064	101.85	966.064	101.532	966.064	101.876	966.064	102.008	966.064	100.993	966.064	101.668	966.064	98.5432	966.064	100.043	966.064	93.8941	966.064	96.853	966.064	94.167	966.064	94.1044	966.064	98.9145	966.064	96.9062	966.064	101.175	966.064	100.013	966.064	101.434
999.756	108.746	999.756	108.495	999.756	108.742	999.756	108.072	999.756	108.41	999.756	107.442	999.756	107.766	999.756	106.441	999.756	106.851	999.756	104.917	999.756	105.63	999.756	102.888	999.756	103.997	999.756	100.72	999.756	101.96	999.756	99.3227	999.756	99.9748	999.756	99.5335	999.756	99.1751	999.756	100.649	999.756	99.8828	999.756	101.353	999.756	100.76	999.756	100.808	999.756	100.671	999.756	98.3816	999.756	98.9238	999.756	93.8592	999.756	94.8732	999.756	93.7937	999.756	91.7717	999.756	97.7392	999.756	96.0006	999.756	99.7825	999.756	99.0178	999.756	100.157
1,034.91	106.544	1,034.91	106.391	1,034.91	106.435	1,034.91	106.041	1,034.91	105.988	1,034.91	105.484	1,034.91	105.196	1,034.91	104.663	1,034.91	104.103	1,034.91	103.502	1,034.91	102.769	1,034.91	101.852	1,034.91	101.249	1,034.91	99.4646	1,034.91	99.523	1,034.91	96.2205	1,034.91	97.3774	1,034.91	93.4582	1,034.91	94.77	1,034.91	93.5671	1,034.91	93.2321	1,034.91	94.3237	1,034.91	93.9894	1,034.91	94.1616	1,034.91	94.3785	1,034.91	93.2457	1,034.91	92.6876	1,034.91	91.9124	1,034.91	88.2805	1,034.91	92.7469	1,034.91	87.9978	1,034.91	96.2529	1,034.91	93.8433	1,034.91	98.5932	1,034.91	97.4596	1,034.91	98.9925
1,071.53	107.638	1,071.53	107.494	1,071.53	107.552	1,071.53	107.19	1,071.53	107.198	1,071.53	106.723	1,071.53	106.634	1,071.53	105.99	1,071.53	105.927	1,071.53	104.893	1,071.53	105.009	1,071.53	103.444	1,071.53	103.719	1,071.53	101.726	1,071.53	102.035	1,071.53	99.8199	1,071.53	100.147	1,071.53	98.0887	1,071.53	98.2184	1,071.53	97.4467	1,071.53	96.4963	1,071.53	97.5404	1,071.53	95.7852	1,071.53	96.5105	1,071.53	95.7286	1,071.53	92.5446	1,071.53	94.5667	1,071.53	82.6574	1,071.53	90.6211	1,071.53	89.7919	1,071.53	74.7353	1,071.53	94.897	1,071.53	88.9839	1,071.53	97.0839	1,071.53	95.196	1,071.53	97.3139
1,109.62	109.036	1,109.62	108.823	1,109.62	108.964	1,109.62	108.321	1,109.62	108.632	1,109.62	107.593	1,109.62	108.056	1,109.62	106.705	1,109.62	107.284	1,109.62	105.628	1,109.62	106.363	1,109.62	104.304	1,109.62	105.242	1,109.62	102.814	1,109.62	103.795	1,109.62	101.331	1,109.62	101.992	1,109.62	100.024	1,109.62	100.063	1,109.62	99.2965	1,109.62	98.6728	1,109.62	99.1935	1,109.62	98.4449	1,109.62	98.4613	1,109.62	98.6963	1,109.62	95.4611	1,109.62	98.1021	1,109.62	87.185	1,109.62	95.4204	1,109.62	86.7761	1,109.62	87.2915	1,109.62	94.3321	1,109.62	86.5805	1,109.62	97.2599	1,109.62	95.3354	1,109.62	97.7445
1,148.44	109.892	1,148.44	109.558	1,148.44	109.891	1,148.44	108.962	1,148.44	109.57	1,148.44	108.211	1,148.44	108.973	1,148.44	107.316	1,148.44	108.16	1,148.44	106.202	1,148.44	107.211	1,148.44	104.841	1,148.44	106.126	1,148.44	103.267	1,148.44	104.772	1,148.44	101.551	1,148.44	103.029	1,148.44	100.131	1,148.44	101.075	1,148.44	99.7211	1,148.44	99.6305	1,148.44	99.8019	1,148.44	99.4043	1,148.44	99.0765	1,148.44	99.7573	1,148.44	96.5349	1,148.44	99.318	1,148.44	90.3969	1,148.44	96.8813	1,148.44	87.5369	1,148.44	90.1694	1,148.44	95.3298	1,148.44	86.6929	1,148.44	98.2763	1,148.44	95.384	1,148.44	98.2992
1,189.45	110.606	1,189.45	110.236	1,189.45	110.63	1,189.45	109.597	1,189.45	110.294	1,189.45	108.737	1,189.45	109.658	1,189.45	107.678	1,189.45	108.772	1,189.45	106.454	1,189.45	107.67	1,189.45	105.024	1,189.45	106.41	1,189.45	103.219	1,189.45	104.982	1,189.45	101.041	1,189.45	103.249	1,189.45	99.3347	1,189.45	101.224	1,189.45	99.1554	1,189.45	99.779	1,189.45	99.6486	1,189.45	100.061	1,189.45	99.501	1,189.45	100.812	1,189.45	97.6407	1,189.45	100.362	1,189.45	91.7591	1,189.45	97.7469	1,189.45	84.559	1,189.45	90.6724	1,189.45	95.332	1,189.45	86.6454	1,189.45	98.4262	1,189.45	95.7188	1,189.45	98.4963
1,231.2	110.64	1,231.2	110.312	1,231.2	110.588	1,231.2	109.56	1,231.2	110.231	1,231.2	108.467	1,231.2	109.604	1,231.2	107.263	1,231.2	108.712	1,231.2	106.09	1,231.2	107.576	1,231.2	104.799	1,231.2	106.25	1,231.2	103.157	1,231.2	104.78	1,231.2	101.191	1,231.2	103.192	1,231.2	99.3945	1,231.2	101.573	1,231.2	98.6589	1,231.2	100.21	1,231.2	99.028	1,231.2	99.6518	1,231.2	99.0404	1,231.2	99.9223	1,231.2	97.1644	1,231.2	99.88	1,231.2	91.2844	1,231.2	98.0405	1,231.2	84.0882	1,231.2	91.8617	1,231.2	94.5618	1,231.2	86.8989	1,231.2	98.2488	1,231.2	96.3624	1,231.2	98.8971
1,274.41	110.42	1,274.41	110.117	1,274.41	110.33	1,274.41	109.42	1,274.41	109.873	1,274.41	108.387	1,274.41	109.105	1,274.41	107.171	1,274.41	108.135	1,274.41	105.988	1,274.41	107.067	1,274.41	104.9	1,274.41	105.903	1,274.41	103.582	1,274.41	104.53	1,274.41	101.648	1,274.41	102.83	1,274.41	99.3401	1,274.41	100.852	1,274.41	98.1341	1,274.41	99.11	1,274.41	98.9433	1,274.41	98.8786	1,274.41	99.8874	1,274.41	100.13	1,274.41	98.8732	1,274.41	100.833	1,274.41	93.5629	1,274.41	99.5001	1,274.41	78.2381	1,274.41	94.5425	1,274.41	94.8241	1,274.41	84.2242	1,274.41	98.2411	1,274.41	94.8442	1,274.41	98.2979
1,319.82	110.51	1,319.82	110.103	1,319.82	110.471	1,319.82	109.299	1,319.82	109.923	1,319.82	108.185	1,319.82	108.864	1,319.82	106.88	1,319.82	107.519	1,319.82	105.484	1,319.82	106.244	1,319.82	104.119	1,319.82	105.093	1,319.82	102.785	1,319.82	103.805	1,319.82	101.07	1,319.82	102.29	1,319.82	98.519	1,319.82	100.577	1,319.82	96.5831	1,319.82	98.6887	1,319.82	97.8638	1,319.82	97.7332	1,319.82	99.3101	1,319.82	98.7703	1,319.82	99.1063	1,319.82	99.6883	1,319.82	96.3545	1,319.82	98.759	1,319.82	86.2646	1,319.82	94.4394	1,319.82	90.8352	1,319.82	84.3151	1,319.82	97.2801	1,319.82	94.5614	1,319.82	98.0472
1,365.97	109.981	1,365.97	109.657	1,365.97	109.815	1,365.97	108.825	1,365.97	109.328	1,365.97	107.594	1,365.97	108.562	1,365.97	106.002	1,365.97	107.351	1,365.97	104.112	1,365.97	105.654	1,365.97	102.347	1,365.97	103.853	1,365.97	101.055	1,365.97	102.38	1,365.97	99.8153	1,365.97	101.05	1,365.97	98.0423	1,365.97	99.5949	1,365.97	95.9007	1,365.97	98.244	1,365.97	95.5041	1,365.97	97.0751	1,365.97	97.5685	1,365.97	96.3793	1,365.97	98.2801	1,365.97	96.6774	1,365.97	95.4748	1,365.97	96.3779	1,365.97	86.8542	1,365.97	93.2869	1,365.97	93.1412	1,365.97	87.228	1,365.97	97.7102	1,365.97	94.416	1,365.97	98.0717
1,414.31	108.13	1,414.31	107.944	1,414.31	108.109	1,414.31	107.442	1,414.31	107.921	1,414.31	106.616	1,414.31	107.422	1,414.31	105.505	1,414.31	106.486	1,414.31	104.18	1,414.31	105.176	1,414.31	102.788	1,414.31	103.653	1,414.31	101.368	1,414.31	102.111	1,414.31	99.8843	1,414.31	100.546	1,414.31	98.2571	1,414.31	98.5693	1,414.31	96.4251	1,414.31	96.5272	1,414.31	95.3269	1,414.31	95.566	1,414.31	95.5687	1,414.31	95.3779	1,414.31	94.9563	1,414.31	95.4137	1,414.31	90.4209	1,414.31	94.2423	1,414.31	86.6569	1,414.31	89.1782	1,414.31	94.7062	1,414.31	89.4081	1,414.31	97.3501	1,414.31	95.3044	1,414.31	97.3981
1,464.11	109.918	1,464.11	109.618	1,464.11	109.894	1,464.11	108.942	1,464.11	109.471	1,464.11	107.996	1,464.11	108.548	1,464.11	107.022	1,464.11	107.365	1,464.11	105.981	1,464.11	106.27	1,464.11	104.682	1,464.11	105.15	1,464.11	103.329	1,464.11	103.794	1,464.11	102.204	1,464.11	102.332	1,464.11	100.808	1,464.11	100.644	1,464.11	98.5262	1,464.11	98.2862	1,464.11	96.6866	1,464.11	96.6261	1,464.11	97.4383	1,464.11	98.0315	1,464.11	97.5373	1,464.11	99.0088	1,464.11	93.9918	1,464.11	97.2433	1,464.11	84.7435	1,464.11	91.1988	1,464.11	93.0133	1,464.11	82.5616	1,464.11	97.3803	1,464.11	95.089	1,464.11	98.1352
1,515.38	111.034	1,515.38	110.596	1,515.38	110.979	1,515.38	109.965	1,515.38	110.426	1,515.38	109.167	1,515.38	109.573	1,515.38	108.012	1,515.38	108.395	1,515.38	106.691	1,515.38	106.924	1,515.38	105.443	1,515.38	105.371	1,515.38	104.076	1,515.38	103.903	1,515.38	102.505	1,515.38	102.675	1,515.38	101.141	1,515.38	101.735	1,515.38	99.7113	1,515.38	100.341	1,515.38	98.0844	1,515.38	98.3061	1,515.38	98.6335	1,515.38	98.478	1,515.38	99.4094	1,515.38	99.7828	1,515.38	97.0801	1,515.38	98.977	1,515.38	89.2579	1,515.38	95.2736	1,515.38	88.1299	1,515.38	82.8629	1,515.38	95.2949	1,515.38	92.6662	1,515.38	96.7819
1,568.85	111.452	1,568.85	111.193	1,568.85	111.286	1,568.85	110.544	1,568.85	110.562	1,568.85	109.586	1,568.85	109.344	1,568.85	108.482	1,568.85	107.955	1,568.85	107.172	1,568.85	106.508	1,568.85	105.673	1,568.85	105.115	1,568.85	104.537	1,568.85	104.076	1,568.85	103.566	1,568.85	102.859	1,568.85	101.803	1,568.85	100.843	1,568.85	100.085	1,568.85	99.0869	1,568.85	99.5024	1,568.85	97.9652	1,568.85	99.6637	1,568.85	98.0044	1,568.85	100.232	1,568.85	100.15	1,568.85	98.5881	1,568.85	100.042	1,568.85	91.526	1,568.85	96.088	1,568.85	83.9086	1,568.85	83.427	1,568.85	94.2358	1,568.85	91.1371	1,568.85	95.9044
1,624.51	111.277	1,624.51	111.108	1,624.51	111.032	1,624.51	110.341	1,624.51	110.57	1,624.51	109.249	1,624.51	109.545	1,624.51	108.077	1,624.51	107.875	1,624.51	106.643	1,624.51	106.251	1,624.51	105.04	1,624.51	104.925	1,624.51	104.061	1,624.51	103.602	1,624.51	103.561	1,624.51	102.054	1,624.51	101.883	1,624.51	99.5752	1,624.51	99.0079	1,624.51	97.1319	1,624.51	98.6478	1,624.51	96.217	1,624.51	100.72	1,624.51	96.1111	1,624.51	101.352	1,624.51	98.7788	1,624.51	99.0494	1,624.51	99.9434	1,624.51	91.0589	1,624.51	97.0953	1,624.51	87.9491	1,624.51	83.665	1,624.51	96.3382	1,624.51	93.3009	1,624.51	97.619
1,681.64	110.116	1,681.64	109.774	1,681.64	109.991	1,681.64	109.298	1,681.64	109.391	1,681.64	108.45	1,681.64	108.766	1,681.64	107.03	1,681.64	107.982	1,681.64	105.688	1,681.64	106.449	1,681.64	104.698	1,681.64	104.16	1,681.64	103.148	1,681.64	102.122	1,681.64	101.453	1,681.64	100.503	1,681.64	100.221	1,681.64	98.5797	1,681.64	97.5104	1,681.64	97.3737	1,681.64	95.866	1,681.64	96.9686	1,681.64	98.9287	1,681.64	94.9589	1,681.64	99.9704	1,681.64	97.0229	1,681.64	98.2142	1,681.64	99.2739	1,681.64	90.3153	1,681.64	96.5359	1,681.64	90.6101	1,681.64	82.6662	1,681.64	96.6164	1,681.64	90.9702	1,681.64	95.9129
1,740.97	110.555	1,740.97	110.388	1,740.97	110.386	1,740.97	109.581	1,740.97	109.881	1,740.97	108.157	1,740.97	108.811	1,740.97	106.693	1,740.97	107.268	1,740.97	105.339	1,740.97	105.93	1,740.97	103.79	1,740.97	104.892	1,740.97	102.401	1,740.97	103.365	1,740.97	101.154	1,740.97	101.329	1,740.97	99.4007	1,740.97	99.4648	1,740.97	97.1915	1,740.97	97.7017	1,740.97	93.2581	1,740.97	95.8255	1,740.97	94.1717	1,740.97	94.6569	1,740.97	98.9271	1,740.97	95.2607	1,740.97	98.4877	1,740.97	96.7291	1,740.97	91.9464	1,740.97	95.5992	1,740.97	85.1824	1,740.97	86.6738	1,740.97	95.5751	1,740.97	92.9283	1,740.97	97.4625
1,802.49	110.411	1,802.49	110.076	1,802.49	110.239	1,802.49	109.477	1,802.49	109.301	1,802.49	108.463	1,802.49	108.283	1,802.49	106.89	1,802.49	107.692	1,802.49	105.045	1,802.49	106.315	1,802.49	103.705	1,802.49	103.659	1,802.49	102.421	1,802.49	101.983	1,802.49	100.514	1,802.49	101.593	1,802.49	99.1608	1,802.49	100.297	1,802.49	98.4967	1,802.49	98.7497	1,802.49	95.6685	1,802.49	96.6848	1,802.49	89.882	1,802.49	93.6653	1,802.49	96.1528	1,802.49	96.3915	1,802.49	98.2096	1,802.49	98.3103	1,802.49	94.3358	1,802.49	97.7101	1,802.49	75.2255	1,802.49	92.8701	1,802.49	94.9551	1,802.49	89.2891	1,802.49	97.0032
1,866.21	110.308	1,866.21	109.976	1,866.21	110.123	1,866.21	109.179	1,866.21	109.464	1,866.21	108.372	1,866.21	108.028	1,866.21	107.371	1,866.21	106.351	1,866.21	105.699	1,866.21	105.666	1,866.21	103.721	1,866.21	104.896	1,866.21	102.493	1,866.21	102.847	1,866.21	101.874	1,866.21	101.397	1,866.21	100.68	1,866.21	101.009	1,866.21	99.274	1,866.21	99.1184	1,866.21	97.9032	1,866.21	97.0265	1,866.21	94.1446	1,866.21	95.1876	1,866.21	93.0911	1,866.21	95.9765	1,866.21	98.2966	1,866.21	97.9554	1,866.21	97.2763	1,866.21	97.0309	1,866.21	76.6561	1,866.21	92.7935	1,866.21	94.6303	1,866.21	79.2535	1,866.21	94.4623
1,932.13	109.802	1,932.13	109.559	1,932.13	109.378	1,932.13	108.963	1,932.13	108.388	1,932.13	108.146	1,932.13	107.785	1,932.13	106.804	1,932.13	107.388	1,932.13	105.047	1,932.13	105.919	1,932.13	103.665	1,932.13	103.746	1,932.13	102.53	1,932.13	102.213	1,932.13	101.227	1,932.13	100.538	1,932.13	100.371	1,932.13	98.7083	1,932.13	100.088	1,932.13	97.2964	1,932.13	98.0982	1,932.13	94.706	1,932.13	94.6749	1,932.13	92.3018	1,932.13	96.2171	1,932.13	94.1186	1,932.13	98.0489	1,932.13	98.2068	1,932.13	94.5111	1,932.13	98.6235	1,932.13	81.2953	1,932.13	91.7087	1,932.13	90.2495	1,932.13	80.0666	1,932.13	89.7371
2,000.24	110.426	2,000.24	109.913	2,000.24	110.37	2,000.24	108.952	2,000.24	110.101	2,000.24	108.009	2,000.24	109.196	2,000.24	106.788	2,000.24	107.768	2,000.24	105.473	2,000.24	106.603	2,000.24	103.765	2,000.24	105.058	2,000.24	101.68	2,000.24	102.664	2,000.24	100.102	2,000.24	100.798	2,000.24	97.6298	2,000.24	99.8932	2,000.24	96.5886	2,000.24	98.3828	2,000.24	96.8401	2,000.24	96.0954	2,000.24	93.736	2,000.24	93.6978	2,000.24	94.7599	2,000.24	92.4856	2,000.24	96.2313	2,000.24	95.2261	2,000.24	91.0778	2,000.24	97.1847	2,000.24	74.5117	2,000.24	92.7797	2,000.24	90.2574	2,000.24	80.9147	2,000.24	92.8544
2,070.56	110.89	2,070.56	110.495	2,070.56	110.891	2,070.56	109.77	2,070.56	110.418	2,070.56	108.938	2,070.56	109.385	2,070.56	108.021	2,070.56	108.436	2,070.56	106.586	2,070.56	107.428	2,070.56	104.416	2,070.56	105.556	2,070.56	102.704	2,070.56	103.482	2,070.56	101.569	2,070.56	102.055	2,070.56	99.1994	2,070.56	100.87	2,070.56	96.592	2,070.56	99.8101	2,070.56	96.8607	2,070.56	98.3547	2,070.56	94.2884	2,070.56	95.0035	2,070.56	94.6148	2,070.56	89.6288	2,070.56	96.715	2,070.56	94.7007	2,070.56	94.858	2,070.56	96.8346	2,070.56	82.961	2,070.56	93.5762	2,070.56	93.3645	2,070.56	78.12	2,070.56	94.2305
2,143.8	110.233	2,143.8	109.934	2,143.8	109.87	2,143.8	109.55	2,143.8	109.212	2,143.8	108.843	2,143.8	108.962	2,143.8	107.88	2,143.8	107.809	2,143.8	106.732	2,143.8	105.901	2,143.8	105.313	2,143.8	104.916	2,143.8	103.34	2,143.8	103.174	2,143.8	101.733	2,143.8	100.205	2,143.8	100.606	2,143.8	99.1783	2,143.8	98.6294	2,143.8	98.3545	2,143.8	97.7073	2,143.8	96.8525	2,143.8	94.6352	2,143.8	94.0623	2,143.8	93.3331	2,143.8	91.6981	2,143.8	97.8936	2,143.8	91.9387	2,143.8	97.7191	2,143.8	95.2725	2,143.8	89.9826	2,143.8	94.6957	2,143.8	84.0458	2,143.8	76.94	2,143.8	90.869
2,219.24	110.19	2,219.24	109.811	2,219.24	109.891	2,219.24	108.751	2,219.24	109.014	2,219.24	108.045	2,219.24	107.736	2,219.24	107.455	2,219.24	107.053	2,219.24	105.782	2,219.24	106.583	2,219.24	103.135	2,219.24	105.093	2,219.24	101.3	2,219.24	102.952	2,219.24	100.852	2,219.24	100.089	2,219.24	100.577	2,219.24	97.8428	2,219.24	98.9675	2,219.24	97.7643	2,219.24	97.5408	2,219.24	95.7249	2,219.24	96.7227	2,219.24	93.2145	2,219.24	93.3163	2,219.24	92.3792	2,219.24	96.5307	2,219.24	92.6375	2,219.24	95.1193	2,219.24	94.5685	2,219.24	84.2882	2,219.24	92.3914	2,219.24	92.0739	2,219.24	80.4024	2,219.24	93.0944
2,297.61	110.392	2,297.61	110.139	2,297.61	110.482	2,297.61	109.672	2,297.61	110.006	2,297.61	108.714	2,297.61	109.333	2,297.61	107.445	2,297.61	108.506	2,297.61	105.975	2,297.61	106.566	2,297.61	104.067	2,297.61	104.504	2,297.61	101.506	2,297.61	103.308	2,297.61	99.5141	2,297.61	101.591	2,297.61	99.3767	2,297.61	99.6125	2,297.61	96.5965	2,297.61	98.2045	2,297.61	93.8911	2,297.61	95.9579	2,297.61	94.3361	2,297.61	94.861	2,297.61	91.8304	2,297.61	92.2181	2,297.61	95.4432	2,297.61	89.3312	2,297.61	97.1035	2,297.61	93.4783	2,297.61	88.4444	2,297.61	93.5886	2,297.61	90.715	2,297.61	80.7593	2,297.61	90.2281
2,378.17	110.992	2,378.17	110.617	2,378.17	111	2,378.17	110.133	2,378.17	110.205	2,378.17	109.125	2,378.17	109.189	2,378.17	107.835	2,378.17	108.306	2,378.17	106.659	2,378.17	107.29	2,378.17	105.367	2,378.17	105.653	2,378.17	103.204	2,378.17	102.969	2,378.17	99.8591	2,378.17	100.24	2,378.17	97.458	2,378.17	98.8574	2,378.17	95.3846	2,378.17	98.3914	2,378.17	93.7944	2,378.17	95.5584	2,378.17	96.7514	2,378.17	92.3524	2,378.17	94.9109	2,378.17	94.644	2,378.17	93.1668	2,378.17	94.4502	2,378.17	94.6998	2,378.17	95.254	2,378.17	87.0581	2,378.17	93.1147	2,378.17	84.4945	2,378.17	79.3776	2,378.17	85.7283
2,462.4	110	2,462.4	109.861	2,462.4	109.642	2,462.4	109.476	2,462.4	109.262	2,462.4	108.764	2,462.4	108.702	2,462.4	107.454	2,462.4	107.578	2,462.4	106.049	2,462.4	106.065	2,462.4	104.586	2,462.4	104.101	2,462.4	102.734	2,462.4	102.405	2,462.4	100.334	2,462.4	100.081	2,462.4	98.5605	2,462.4	96.6571	2,462.4	97.869	2,462.4	95.4311	2,462.4	95.557	2,462.4	93.9781	2,462.4	95.8674	2,462.4	91.9712	2,462.4	94.2544	2,462.4	92.9071	2,462.4	93.0091	2,462.4	91.3823	2,462.4	94.963	2,462.4	93.57	2,462.4	91.1453	2,462.4	93.9434	2,462.4	90.0781	2,462.4	85.3998	2,462.4	88.6721
2,548.83	109.046	2,548.83	109.103	2,548.83	108.996	2,548.83	108.852	2,548.83	108.727	2,548.83	107.883	2,548.83	108.003	2,548.83	106.533	2,548.83	106.984	2,548.83	105.034	2,548.83	105.581	2,548.83	103.448	2,548.83	103.917	2,548.83	101.548	2,548.83	101.727	2,548.83	98.7089	2,548.83	99.408	2,548.83	97.0356	2,548.83	96.7621	2,548.83	96.6663	2,548.83	94.9403	2,548.83	93.6962	2,548.83	93.4119	2,548.83	94.0569	2,548.83	88.6332	2,548.83	95.7143	2,548.83	90.0467	2,548.83	93.3043	2,548.83	90.2006	2,548.83	94.1635	2,548.83	93.1046	2,548.83	87.3329	2,548.83	93.5796	2,548.83	86.2287	2,548.83	88.974	2,548.83	85.1905
2,638.92	109.227	2,638.92	109.162	2,638.92	109.054	2,638.92	108.735	2,638.92	108.657	2,638.92	107.974	2,638.92	108.145	2,638.92	106.781	2,638.92	107.188	2,638.92	104.902	2,638.92	105.633	2,638.92	103.022	2,638.92	103.724	2,638.92	101.426	2,638.92	101.847	2,638.92	99.0204	2,638.92	99.9701	2,638.92	95.9962	2,638.92	97.4535	2,638.92	94.7604	2,638.92	95.2555	2,638.92	92.8366	2,638.92	93.8463	2,638.92	90.7109	2,638.92	90.8522	2,638.92	93.8204	2,638.92	90.5197	2,638.92	95.1103	2,638.92	90.4721	2,638.92	94.4605	2,638.92	90.982	2,638.92	90.1614	2,638.92	92.3484	2,638.92	84.6578	2,638.92	84.4644	2,638.92	89.0919
2,731.93	108.83	2,731.93	108.829	2,731.93	108.693	2,731.93	108.459	2,731.93	108.197	2,731.93	107.415	2,731.93	107.58	2,731.93	106.418	2,731.93	106.757	2,731.93	105.167	2,731.93	105.482	2,731.93	102.97	2,731.93	103.431	2,731.93	100.829	2,731.93	101.058	2,731.93	98.6497	2,731.93	99.1435	2,731.93	96.1409	2,731.93	97.0216	2,731.93	94.4268	2,731.93	94.5034	2,731.93	91.0243	2,731.93	92.6362	2,731.93	88.1048	2,731.93	90.8322	2,731.93	90.9899	2,731.93	91.0931	2,731.93	92.4683	2,731.93	90.8837	2,731.93	94.3954	2,731.93	90.316	2,731.93	90.9775	2,731.93	91.0613	2,731.93	86.4625	2,731.93	82.8093	2,731.93	87.321
2,828.61	108.798	2,828.61	108.697	2,828.61	108.55	2,828.61	108.406	2,828.61	108.283	2,828.61	107.61	2,828.61	107.81	2,828.61	106.236	2,828.61	106.839	2,828.61	104.364	2,828.61	105.565	2,828.61	102.167	2,828.61	103.498	2,828.61	100.428	2,828.61	100.968	2,828.61	98.5051	2,828.61	98.6732	2,828.61	94.9281	2,828.61	95.795	2,828.61	93.5788	2,828.61	93.0407	2,828.61	92.81	2,828.61	92.5939	2,828.61	89.5775	2,828.61	90.642	2,828.61	91.1222	2,828.61	90.9353	2,828.61	92.1024	2,828.61	90.6187	2,828.61	91.8992	2,828.61	87.4382	2,828.61	89.6857	2,828.61	89.9263	2,828.61	85.0182	2,828.61	81.4862	2,828.61	85.7825
2,928.22	108.336	2,928.22	108.176	2,928.22	108.261	2,928.22	107.924	2,928.22	107.959	2,928.22	107.361	2,928.22	107.589	2,928.22	106.172	2,928.22	106.627	2,928.22	104.335	2,928.22	104.98	2,928.22	102.181	2,928.22	102.887	2,928.22	99.7382	2,928.22	100.426	2,928.22	97.5688	2,928.22	98.1672	2,928.22	95.0259	2,928.22	95.6062	2,928.22	92.9315	2,928.22	92.7903	2,928.22	92.2853	2,928.22	92.5215	2,928.22	89.5102	2,928.22	90.4223	2,928.22	88.7429	2,928.22	89.0358	2,928.22	88.0105	2,928.22	91.0579	2,928.22	91.4539	2,928.22	89.5416	2,928.22	88.3941	2,928.22	90.5026	2,928.22	85.3484	2,928.22	84.1456	2,928.22	80.1409
3,031.49	107.723	3,031.49	107.661	3,031.49	107.637	3,031.49	107.431	3,031.49	107.439	3,031.49	106.77	3,031.49	107.069	3,031.49	105.604	3,031.49	105.898	3,031.49	103.749	3,031.49	104.049	3,031.49	101.152	3,031.49	102.251	3,031.49	98.4238	3,031.49	100.095	3,031.49	96.4598	3,031.49	96.8567	3,031.49	94.1685	3,031.49	94.4944	3,031.49	92.4709	3,031.49	92.6852	3,031.49	91.9287	3,031.49	91.9594	3,031.49	90.1684	3,031.49	90.4966	3,031.49	90.6633	3,031.49	88.781	3,031.49	88.1341	3,031.49	91.1022	3,031.49	89.8265	3,031.49	89.784	3,031.49	87.8869	3,031.49	90.1487	3,031.49	83.5023	3,031.49	85.2503	3,031.49	79.0221
3,138.43	107.818	3,138.43	107.827	3,138.43	107.801	3,138.43	107.558	3,138.43	107.564	3,138.43	106.845	3,138.43	107.004	3,138.43	105.383	3,138.43	106.026	3,138.43	103.249	3,138.43	104.319	3,138.43	100.676	3,138.43	102.172	3,138.43	97.8983	3,138.43	99.7078	3,138.43	95.2994	3,138.43	96.7545	3,138.43	92.687	3,138.43	94.798	3,138.43	90.0923	3,138.43	91.6733	3,138.43	89.1402	3,138.43	88.8927	3,138.43	85.3187	3,138.43	89.2057	3,138.43	89.1881	3,138.43	87.4638	3,138.43	90.1378	3,138.43	90.0706	3,138.43	89.2975	3,138.43	89.7209	3,138.43	86.7331	3,138.43	90.4802	3,138.43	72.4446	3,138.43	87.5028	3,138.43	78.9055
3,249.02	107.247	3,249.02	107.321	3,249.02	107.124	3,249.02	107.136	3,249.02	106.892	3,249.02	106.351	3,249.02	106.298	3,249.02	104.809	3,249.02	105.327	3,249.02	102.705	3,249.02	103.582	3,249.02	99.9998	3,249.02	101.237	3,249.02	96.7522	3,249.02	98.7726	3,249.02	94.1696	3,249.02	96.1429	3,249.02	93.0969	3,249.02	93.7786	3,249.02	90.4616	3,249.02	91.2582	3,249.02	88.9002	3,249.02	88.317	3,249.02	86.4777	3,249.02	87.8602	3,249.02	86.9836	3,249.02	85.4411	3,249.02	89.5234	3,249.02	88.8672	3,249.02	89.2541	3,249.02	88.8572	3,249.02	87.969	3,249.02	90.2455	3,249.02	80.9362	3,249.02	85.8808	3,249.02	80.0903
3,363.28	106.619	3,363.28	106.918	3,363.28	106.689	3,363.28	106.847	3,363.28	106.676	3,363.28	105.823	3,363.28	106.133	3,363.28	104.427	3,363.28	104.615	3,363.28	102.282	3,363.28	102.605	3,363.28	99.7248	3,363.28	100.61	3,363.28	96.9696	3,363.28	98.5363	3,363.28	94.6288	3,363.28	95.5043	3,363.28	92.4402	3,363.28	92.9519	3,363.28	89.7195	3,363.28	91.7649	3,363.28	88.5452	3,363.28	89.4328	3,363.28	88.2471	3,363.28	88.7045	3,363.28	87.3494	3,363.28	87.3815	3,363.28	89.315	3,363.28	87.881	3,363.28	89.35	3,363.28	88.144	3,363.28	88.9695	3,363.28	87.8578	3,363.28	80.0102	3,363.28	85.1932	3,363.28	75.6835
3,481.93	106.554	3,481.93	106.726	3,481.93	106.492	3,481.93	106.729	3,481.93	106.782	3,481.93	106.253	3,481.93	106.439	3,481.93	104.285	3,481.93	105.155	3,481.93	101.806	3,481.93	102.984	3,481.93	99.7435	3,481.93	100.485	3,481.93	98.0437	3,481.93	98.4694	3,481.93	95.8971	3,481.93	96.1196	3,481.93	93.2787	3,481.93	93.6899	3,481.93	91.0631	3,481.93	91.2751	3,481.93	87.7539	3,481.93	90.3655	3,481.93	87.4955	3,481.93	89.4229	3,481.93	88.9215	3,481.93	87.8286	3,481.93	88.6348	3,481.93	89.0216	3,481.93	88.5546	3,481.93	88.0698	3,481.93	87.9421	3,481.93	87.8121	3,481.93	77.2879	3,481.93	87.1984	3,481.93	72.5766
3,604.98	106.915	3,604.98	106.788	3,604.98	107.103	3,604.98	106.476	3,604.98	107.037	3,604.98	105.556	3,604.98	106.373	3,604.98	103.951	3,604.98	105.302	3,604.98	101.95	3,604.98	103.559	3,604.98	100.089	3,604.98	101.131	3,604.98	97.8676	3,604.98	98.5409	3,604.98	94.8233	3,604.98	96.8004	3,604.98	94.0904	3,604.98	93.9806	3,604.98	92.8155	3,604.98	91.1281	3,604.98	89.9257	3,604.98	89.9241	3,604.98	87.2507	3,604.98	89.0562	3,604.98	89.3336	3,604.98	87.4077	3,604.98	90.8722	3,604.98	89.2428	3,604.98	89.0914	3,604.98	89.9474	3,604.98	88.2602	3,604.98	89.4781	3,604.98	80.048	3,604.98	88.2625	3,604.98	78.2107
3,732.42	107.326	3,732.42	107.42	3,732.42	107.438	3,732.42	107.005	3,732.42	107.301	3,732.42	105.566	3,732.42	106.82	3,732.42	104.068	3,732.42	105.384	3,732.42	101.982	3,732.42	103.374	3,732.42	99.0878	3,732.42	101.236	3,732.42	96.1026	3,732.42	98.8008	3,732.42	93.5241	3,732.42	96.3309	3,732.42	92.1541	3,732.42	94.4526	3,732.42	91.3049	3,732.42	92.1196	3,732.42	88.4379	3,732.42	89.3478	3,732.42	87.6576	3,732.42	88.3711	3,732.42	86.1378	3,732.42	86.5833	3,732.42	89.2646	3,732.42	88.8626	3,732.42	87.0095	3,732.42	90.273	3,732.42	87.2375	3,732.42	88.8914	3,732.42	73.3742	3,732.42	87.3324	3,732.42	75.4611
3,863.53	107.962	3,863.53	107.983	3,863.53	107.859	3,863.53	107.503	3,863.53	107.765	3,863.53	106.524	3,863.53	107.023	3,863.53	104.94	3,863.53	105.478	3,863.53	102.545	3,863.53	103.7	3,863.53	99.7299	3,863.53	101.329	3,863.53	97.6871	3,863.53	98.8653	3,863.53	95.4073	3,863.53	96.3986	3,863.53	91.4751	3,863.53	94.8007	3,863.53	90.2249	3,863.53	92.5929	3,863.53	88.1667	3,863.53	90.1902	3,863.53	88.7597	3,863.53	89.5694	3,863.53	88.2519	3,863.53	88.4842	3,863.53	89.1883	3,863.53	89.0019	3,863.53	88.0405	3,863.53	90.588	3,863.53	88.621	3,863.53	88.5212	3,863.53	76.3845	3,863.53	88.1019	3,863.53	75.2585
3,999.76	108.407	3,999.76	107.973	3,999.76	108.388	3,999.76	107.437	3,999.76	107.971	3,999.76	106.545	3,999.76	106.886	3,999.76	104.4	3,999.76	105.586	3,999.76	102.456	3,999.76	103.661	3,999.76	100.687	3,999.76	101.401	3,999.76	98.0651	3,999.76	98.6577	3,999.76	95.1559	3,999.76	95.9256	3,999.76	92.3539	3,999.76	93.3694	3,999.76	89.7294	3,999.76	91.0012	3,999.76	89.3942	3,999.76	89.4045	3,999.76	88.7683	3,999.76	88.1074	3,999.76	89.6074	3,999.76	87.8176	3,999.76	89.5268	3,999.76	88.8798	3,999.76	88.9831	3,999.76	90.4607	3,999.76	89.6332	3,999.76	89.3034	3,999.76	77.9064	3,999.76	88.5012	3,999.76	71.1849
4,141.11	109.069	4,141.11	108.606	4,141.11	109.155	4,141.11	108.426	4,141.11	108.231	4,141.11	106.906	4,141.11	107.323	4,141.11	104.999	4,141.11	105.85	4,141.11	103.35	4,141.11	103.96	4,141.11	100.877	4,141.11	101.936	4,141.11	97.6555	4,141.11	99.1472	4,141.11	95.1188	4,141.11	96.3056	4,141.11	93.3174	4,141.11	93.6779	4,141.11	91.2007	4,141.11	92.2539	4,141.11	87.8769	4,141.11	89.2657	4,141.11	88.5557	4,141.11	86.6695	4,141.11	87.8019	4,141.11	87.028	4,141.11	90.1397	4,141.11	83.9232	4,141.11	87.7644	4,141.11	89.4902	4,141.11	87.5813	4,141.11	87.9826	4,141.11	78.5275	4,141.11	87.4678	4,141.11	73.6858
4,286.87	109.598	4,286.87	109.723	4,286.87	109.242	4,286.87	108.799	4,286.87	109.026	4,286.87	107.454	4,286.87	108.356	4,286.87	105.823	4,286.87	106.524	4,286.87	103.058	4,286.87	104.518	4,286.87	99.5287	4,286.87	102.439	4,286.87	96.9344	4,286.87	100.217	4,286.87	94.4512	4,286.87	96.7484	4,286.87	92.8634	4,286.87	93.9437	4,286.87	92.5941	4,286.87	91.345	4,286.87	88.6788	4,286.87	89.8546	4,286.87	89.0786	4,286.87	87.3856	4,286.87	89.179	4,286.87	88.8892	4,286.87	90.3443	4,286.87	88.4874	4,286.87	89.2033	4,286.87	89.883	4,286.87	87.7843	4,286.87	88.2905	4,286.87	69.3627	4,286.87	85.9112	4,286.87	69.4064
4,438.48	109.834	4,438.48	109.694	4,438.48	109.615	4,438.48	108.919	4,438.48	109.402	4,438.48	108.15	4,438.48	108.03	4,438.48	106.533	4,438.48	106.996	4,438.48	104.739	4,438.48	105.725	4,438.48	103.195	4,438.48	103.547	4,438.48	100.928	4,438.48	100.9	4,438.48	97.3165	4,438.48	98.5617	4,438.48	94.5241	4,438.48	95.4193	4,438.48	90.3788	4,438.48	93.5943	4,438.48	89.6776	4,438.48	91.5398	4,438.48	88.6833	4,438.48	89.5523	4,438.48	89.0966	4,438.48	88.9491	4,438.48	90.4891	4,438.48	88.3552	4,438.48	90.1828	4,438.48	88.7058	4,438.48	87.6664	4,438.48	90.1218	4,438.48	74.594	4,438.48	87.6536	4,438.48	76.437
4,594.48	109.591	4,594.48	109.037	4,594.48	110.043	4,594.48	108.86	4,594.48	109.259	4,594.48	107.501	4,594.48	108.55	4,594.48	106.273	4,594.48	107.809	4,594.48	105.138	4,594.48	106.433	4,594.48	103.273	4,594.48	104.617	4,594.48	100.022	4,594.48	101.875	4,594.48	96.9787	4,594.48	98.8473	4,594.48	95.2619	4,594.48	96.2682	4,594.48	93.1069	4,594.48	94.0374	4,594.48	89.7959	4,594.48	92.2158	4,594.48	91.4978	4,594.48	90.1926	4,594.48	89.6339	4,594.48	90.9955	4,594.48	91.4938	4,594.48	87.4318	4,594.48	90.0574	4,594.48	90.9073	4,594.48	88.2377	4,594.48	89.831	4,594.48	75.3192	4,594.48	87.9471	4,594.48	82.1567
4,757.08	108.855	4,757.08	108.77	4,757.08	108.584	4,757.08	107.834	4,757.08	108.247	4,757.08	107.026	4,757.08	107.588	4,757.08	106.292	4,757.08	106.557	4,757.08	104.477	4,757.08	105.186	4,757.08	101.338	4,757.08	103.134	4,757.08	98.5751	4,757.08	100.289	4,757.08	96.0849	4,757.08	97.6014	4,757.08	93.3562	4,757.08	95.4932	4,757.08	91.4231	4,757.08	93.0531	4,757.08	89.8492	4,757.08	91.5612	4,757.08	89.8222	4,757.08	89.5675	4,757.08	88.9906	4,757.08	90.2182	4,757.08	89.2806	4,757.08	89.6607	4,757.08	88.8205	4,757.08	90.1974	4,757.08	86.4654	4,757.08	89.2475	4,757.08	77.5982	4,757.08	86.415	4,757.08	80.2545
4,924.8	109.141	4,924.8	108.389	4,924.8	108.77	4,924.8	107.389	4,924.8	108.132	4,924.8	106.969	4,924.8	107.207	4,924.8	105.536	4,924.8	106.351	4,924.8	102.34	4,924.8	105.09	4,924.8	99.2421	4,924.8	102.777	4,924.8	96.4978	4,924.8	99.7807	4,924.8	93.3849	4,924.8	97.3078	4,924.8	89.8591	4,924.8	93.8595	4,924.8	89.285	4,924.8	90.9351	4,924.8	89.6158	4,924.8	89.8727	4,924.8	87.7378	4,924.8	88.0762	4,924.8	86.4859	4,924.8	88.2093	4,924.8	88.6353	4,924.8	89.1712	4,924.8	89.4944	4,924.8	90.6696	4,924.8	84.8608	4,924.8	89.8866	4,924.8	76.7749	4,924.8	86.1361	4,924.8	77.8489
5,098.39	108.512	5,098.39	107.493	5,098.39	108.957	5,098.39	106.987	5,098.39	107.846	5,098.39	105.97	5,098.39	107.413	5,098.39	104.091	5,098.39	106.906	5,098.39	102.553	5,098.39	105.007	5,098.39	100.281	5,098.39	102.509	5,098.39	97.2804	5,098.39	100.047	5,098.39	93.0963	5,098.39	96.7152	5,098.39	92.4681	5,098.39	94.3514	5,098.39	90.8088	5,098.39	91.8251	5,098.39	85.9533	5,098.39	89.801	5,098.39	87.619	5,098.39	89.0595	5,098.39	87.7401	5,098.39	87.6208	5,098.39	88.7635	5,098.39	86.26	5,098.39	89.7534	5,098.39	90.4171	5,098.39	87.3863	5,098.39	89.3775	5,098.39	76.6906	5,098.39	87.5791	5,098.39	79.0819
5,277.83	108.994	5,277.83	108.534	5,277.83	108.512	5,277.83	107.155	5,277.83	108.005	5,277.83	106.368	5,277.83	107.093	5,277.83	105.271	5,277.83	106.114	5,277.83	102.646	5,277.83	104.553	5,277.83	99.3313	5,277.83	102.141	5,277.83	96.4974	5,277.83	99.3324	5,277.83	94.603	5,277.83	96.5787	5,277.83	92.1972	5,277.83	93.9279	5,277.83	89.101	5,277.83	91.8239	5,277.83	88.5639	5,277.83	89.9628	5,277.83	86.5699	5,277.83	87.9504	5,277.83	85.9506	5,277.83	85.546	5,277.83	87.9212	5,277.83	84.1076	5,277.83	90.5422	5,277.83	90.1295	5,277.83	87.0779	5,277.83	89.8951	5,277.83	77.3411	5,277.83	86.6557	5,277.83	82.4623
5,463.87	109.161	5,463.87	108.055	5,463.87	109.155	5,463.87	107.419	5,463.87	108.003	5,463.87	106.297	5,463.87	107.269	5,463.87	104.258	5,463.87	106.174	5,463.87	102.035	5,463.87	104.61	5,463.87	99.5965	5,463.87	102.541	5,463.87	97.4851	5,463.87	99.8137	5,463.87	95.6348	5,463.87	96.1506	5,463.87	92.486	5,463.87	94.0932	5,463.87	91.132	5,463.87	91.1382	5,463.87	90.7591	5,463.87	89.6887	5,463.87	88.4734	5,463.87	88.6213	5,463.87	85.601	5,463.87	87.668	5,463.87	85.8559	5,463.87	82.7242	5,463.87	88.5712	5,463.87	89.7499	5,463.87	86.5477	5,463.87	86.9333	5,463.87	77.5797	5,463.87	87.1736	5,463.87	78.5814
5,656.49	109.624	5,656.49	108.664	5,656.49	109.354	5,656.49	107.406	5,656.49	108.169	5,656.49	106.354	5,656.49	107.269	5,656.49	104.847	5,656.49	105.958	5,656.49	102.985	5,656.49	103.77	5,656.49	100.696	5,656.49	101.459	5,656.49	97.748	5,656.49	98.9708	5,656.49	92.6676	5,656.49	95.2947	5,656.49	92.7689	5,656.49	92.5979	5,656.49	88.9896	5,656.49	89.8756	5,656.49	87.6947	5,656.49	86.575	5,656.49	86.8714	5,656.49	86.9113	5,656.49	84.7778	5,656.49	87.1471	5,656.49	84.7366	5,656.49	87.805	5,656.49	89.2844	5,656.49	88.8429	5,656.49	86.5229	5,656.49	84.6748	5,656.49	74.8172	5,656.49	85.8403	5,656.49	72.5824
5,856.45	110.683	5,856.45	109.793	5,856.45	110.397	5,856.45	108.652	5,856.45	109.292	5,856.45	107.552	5,856.45	107.801	5,856.45	105.619	5,856.45	106.211	5,856.45	102.99	5,856.45	104.051	5,856.45	100.44	5,856.45	101.446	5,856.45	96.7304	5,856.45	99.1036	5,856.45	93.2876	5,856.45	95.6209	5,856.45	90.8035	5,856.45	91.9621	5,856.45	87.7824	5,856.45	90.5082	5,856.45	86.9	5,856.45	87.4419	5,856.45	86.298	5,856.45	86.3426	5,856.45	84.9957	5,856.45	85.4347	5,856.45	84.7633	5,856.45	84.6473	5,856.45	89.0593	5,856.45	88.4597	5,856.45	85.9055	5,856.45	85.094	5,856.45	69.4704	5,856.45	81.5661	5,856.45	81.1965
6,062.99	110.834	6,062.99	109.933	6,062.99	110.882	6,062.99	108.677	6,062.99	109.78	6,062.99	107.339	6,062.99	108.278	6,062.99	105.385	6,062.99	107.026	6,062.99	103.245	6,062.99	104.855	6,062.99	100.326	6,062.99	102.544	6,062.99	98.0936	6,062.99	100.143	6,062.99	94.652	6,062.99	96.6955	6,062.99	92.1366	6,062.99	93.9566	6,062.99	88.6766	6,062.99	89.8958	6,062.99	88.0843	6,062.99	87.1192	6,062.99	87.6833	6,062.99	88.4535	6,062.99	83.7491	6,062.99	86.4026	6,062.99	85.9268	6,062.99	84.2868	6,062.99	87.4443	6,062.99	88.5526	6,062.99	85.1726	6,062.99	86.2259	6,062.99	50.7518	6,062.99	82.4959	6,062.99	81.4243
6,276.86	110.416	6,276.86	109.709	6,276.86	110.466	6,276.86	108.777	6,276.86	109.827	6,276.86	107.502	6,276.86	108.629	6,276.86	106.027	6,276.86	107.28	6,276.86	103.841	6,276.86	105.414	6,276.86	101.739	6,276.86	103.333	6,276.86	98.4659	6,276.86	100.492	6,276.86	95.4645	6,276.86	97.7368	6,276.86	93.3849	6,276.86	94.7333	6,276.86	90.565	6,276.86	92.3496	6,276.86	86.7794	6,276.86	89.6628	6,276.86	87.0731	6,276.86	89.2911	6,276.86	85.4073	6,276.86	86.8156	6,276.86	87.0894	6,276.86	85.3477	6,276.86	89.0584	6,276.86	88.1384	6,276.86	82.9399	6,276.86	87.8463	6,276.86	70.8938	6,276.86	78.0078	6,276.86	80.4744
6,498.05	110.698	6,498.05	110.09	6,498.05	110.806	6,498.05	109.22	6,498.05	109.95	6,498.05	108.04	6,498.05	108.716	6,498.05	106.542	6,498.05	107.461	6,498.05	104.564	6,498.05	105.86	6,498.05	101.936	6,498.05	103.962	6,498.05	99.1396	6,498.05	101.955	6,498.05	96.2384	6,498.05	98.6185	6,498.05	91.7978	6,498.05	95.263	6,498.05	89.2903	6,498.05	92.387	6,498.05	88.4098	6,498.05	89.9163	6,498.05	88.3954	6,498.05	89.0047	6,498.05	84.2537	6,498.05	86.8229	6,498.05	87.3429	6,498.05	83.236	6,498.05	87.7259	6,498.05	87.9512	6,498.05	82.6899	6,498.05	87.5933	6,498.05	49.3722	6,498.05	81.7281	6,498.05	80.9651
6,727.29	110.865	6,727.29	110.424	6,727.29	110.775	6,727.29	109.398	6,727.29	110.17	6,727.29	107.962	6,727.29	108.998	6,727.29	106.726	6,727.29	107.709	6,727.29	104.616	6,727.29	106.241	6,727.29	102.37	6,727.29	104.167	6,727.29	99.143	6,727.29	101.299	6,727.29	95.8363	6,727.29	98.4492	6,727.29	93.3899	6,727.29	96.0525	6,727.29	91.185	6,727.29	92.9895	6,727.29	88.8602	6,727.29	90.3671	6,727.29	88.6838	6,727.29	87.951	6,727.29	84.482	6,727.29	86.9822	6,727.29	87.7681	6,727.29	86.3615	6,727.29	89.1649	6,727.29	88.5988	6,727.29	82.0948	6,727.29	88.2599	6,727.29	70.2451	6,727.29	80.5588	6,727.29	79.0355
6,964.6	110.589	6,964.6	110.106	6,964.6	110.799	6,964.6	109.114	6,964.6	110.239	6,964.6	107.872	6,964.6	108.991	6,964.6	106.459	6,964.6	107.708	6,964.6	104.672	6,964.6	106.128	6,964.6	102.49	6,964.6	103.928	6,964.6	99.4728	6,964.6	101.869	6,964.6	96.1433	6,964.6	98.4363	6,964.6	93.4428	6,964.6	95.0455	6,964.6	90.386	6,964.6	92.0147	6,964.6	87.2409	6,964.6	87.5121	6,964.6	87.8568	6,964.6	87.6955	6,964.6	85.9899	6,964.6	86.197	6,964.6	84.821	6,964.6	87.4721	6,964.6	88.8929	6,964.6	87.2596	6,964.6	80.2096	6,964.6	86.906	6,964.6	68.9339	6,964.6	77.5921	6,964.6	80.5209
7,209.96	110.34	7,209.96	110.2	7,209.96	110.286	7,209.96	108.992	7,209.96	110.029	7,209.96	107.666	7,209.96	108.567	7,209.96	106.389	7,209.96	107.338	7,209.96	104.621	7,209.96	105.67	7,209.96	102.215	7,209.96	103.761	7,209.96	99.0196	7,209.96	101.059	7,209.96	96.2022	7,209.96	97.5641	7,209.96	92.7329	7,209.96	94.4086	7,209.96	89.3473	7,209.96	91.2834	7,209.96	86.9388	7,209.96	88.9055	7,209.96	87.2234	7,209.96	86.5901	7,209.96	85.2316	7,209.96	84.4657	7,209.96	86.1159	7,209.96	86.5179	7,209.96	87.2248	7,209.96	86.9834	7,209.96	78.7186	7,209.96	86.3907	7,209.96	67.2439	7,209.96	76.5931	7,209.96	79.784
7,464.11	110.181	7,464.11	109.932	7,464.11	110.221	7,464.11	108.989	7,464.11	109.881	7,464.11	107.836	7,464.11	108.635	7,464.11	106.259	7,464.11	107.302	7,464.11	104.062	7,464.11	105.612	7,464.11	101.728	7,464.11	103.519	7,464.11	98.8453	7,464.11	100.782	7,464.11	95.6468	7,464.11	97.1434	7,464.11	91.9415	7,464.11	93.5062	7,464.11	89.8674	7,464.11	90.5937	7,464.11	84.5123	7,464.11	86.6601	7,464.11	85.7435	7,464.11	85.6569	7,464.11	84.6796	7,464.11	83.6273	7,464.11	85.7718	7,464.11	86.5149	7,464.11	86.3307	7,464.11	85.6529	7,464.11	73.5261	7,464.11	85.8934	7,464.11	67.0097	7,464.11	79.0383	7,464.11	81.2594
7,727.78	110.281	7,727.78	110.18	7,727.78	110.312	7,727.78	109.131	7,727.78	110.037	7,727.78	107.855	7,727.78	108.467	7,727.78	106.07	7,727.78	107.287	7,727.78	104.007	7,727.78	105.429	7,727.78	101.608	7,727.78	103.393	7,727.78	98.1056	7,727.78	100.533	7,727.78	94.71	7,727.78	97.0628	7,727.78	91.2064	7,727.78	93.3414	7,727.78	89.4666	7,727.78	90.3397	7,727.78	85.2826	7,727.78	87.3141	7,727.78	83.7617	7,727.78	85.3262	7,727.78	82.1675	7,727.78	81.6695	7,727.78	86.2386	7,727.78	85.2486	7,727.78	85.2412	7,727.78	84.2238	7,727.78	71.8193	7,727.78	84.2686	7,727.78	68.2785	7,727.78	77.3118	7,727.78	78.6057
8,000.24	110.937	8,000.24	110.808	8,000.24	110.999	8,000.24	109.753	8,000.24	110.661	8,000.24	108.341	8,000.24	109.463	8,000.24	106.618	8,000.24	107.996	8,000.24	104.58	8,000.24	105.859	8,000.24	101.649	8,000.24	103.617	8,000.24	97.8546	8,000.24	100.919	8,000.24	94.81	8,000.24	97.1109	8,000.24	91.4822	8,000.24	93.6422	8,000.24	89.3618	8,000.24	88.7608	8,000.24	85.5768	8,000.24	86.8577	8,000.24	85.4638	8,000.24	84.7189	8,000.24	80.835	8,000.24	81.4712	8,000.24	86.3307	8,000.24	84.0187	8,000.24	84.6829	8,000.24	83.9303	8,000.24	74.4815	8,000.24	83.8264	8,000.24	64.6511	8,000.24	80.347	8,000.24	78.062
8,282.23	111.502	8,282.23	111.4	8,282.23	111.692	8,282.23	110.378	8,282.23	111.328	8,282.23	109.058	8,282.23	109.891	8,282.23	107.248	8,282.23	108.586	8,282.23	105.375	8,282.23	106.691	8,282.23	102.914	8,282.23	104.231	8,282.23	98.6943	8,282.23	101.111	8,282.23	94.9089	8,282.23	97.8239	8,282.23	90.8612	8,282.23	94.269	8,282.23	87.7327	8,282.23	90.7273	8,282.23	85.6391	8,282.23	89.6333	8,282.23	85.2339	8,282.23	84.3979	8,282.23	85.7649	8,282.23	82.1405	8,282.23	87.3501	8,282.23	85.0557	8,282.23	85.6371	8,282.23	85.781	8,282.23	70.0837	8,282.23	84.8744	8,282.23	74.0137	8,282.23	79.2525	8,282.23	78.495
8,574.46	111.831	8,574.46	111.64	8,574.46	111.831	8,574.46	110.645	8,574.46	111.57	8,574.46	109.25	8,574.46	110.383	8,574.46	107.298	8,574.46	108.799	8,574.46	105.333	8,574.46	106.925	8,574.46	102.448	8,574.46	104.569	8,574.46	98.2447	8,574.46	101.404	8,574.46	95.606	8,574.46	97.613	8,574.46	91.6992	8,574.46	94.3252	8,574.46	87.9748	8,574.46	91.0713	8,574.46	86.3687	8,574.46	89.3519	8,574.46	83.4476	8,574.46	85.0714	8,574.46	86.5375	8,574.46	83.2002	8,574.46	87.4401	8,574.46	86.3666	8,574.46	83.7661	8,574.46	86.5134	8,574.46	73.3531	8,574.46	84.9692	8,574.46	71.1113	8,574.46	77.3097	8,574.46	79.1947
8,876.22	111.854	8,876.22	111.494	8,876.22	111.881	8,876.22	110.687	8,876.22	111.546	8,876.22	109.123	8,876.22	110.246	8,876.22	107.127	8,876.22	108.572	8,876.22	104.751	8,876.22	106.833	8,876.22	101.695	8,876.22	104.337	8,876.22	98.1089	8,876.22	101.259	8,876.22	95.0156	8,876.22	97.5416	8,876.22	91.2074	8,876.22	93.8419	8,876.22	87.8558	8,876.22	91.1566	8,876.22	86.1187	8,876.22	89.2899	8,876.22	84.7097	8,876.22	84.2191	8,876.22	84.6708	8,876.22	84.0795	8,876.22	87.6087	8,876.22	85.0923	8,876.22	84.1488	8,876.22	86.7942	8,876.22	67.476	8,876.22	84.9024	8,876.22	73.7744	8,876.22	77.3873	8,876.22	78.7566
9,189.7	111.883	9,189.7	111.423	9,189.7	111.945	9,189.7	110.602	9,189.7	111.52	9,189.7	108.864	9,189.7	110.146	9,189.7	106.844	9,189.7	108.285	9,189.7	104.074	9,189.7	106.19	9,189.7	101.47	9,189.7	103.229	9,189.7	98.4672	9,189.7	100.533	9,189.7	95.6456	9,189.7	97.0703	9,189.7	92.3081	9,189.7	93.9835	9,189.7	87.4822	9,189.7	90.7137	9,189.7	86.1395	9,189.7	89.8483	9,189.7	82.4604	9,189.7	84.7244	9,189.7	85.2548	9,189.7	82.8926	9,189.7	86.1862	9,189.7	85.2644	9,189.7	82.3079	9,189.7	85.5917	9,189.7	67.4304	9,189.7	83.897	9,189.7	65.8966	9,189.7	78.9379	9,189.7	78.8289
9,513.43	112.048	9,513.43	111.55	9,513.43	112.131	9,513.43	110.66	9,513.43	111.521	9,513.43	108.765	9,513.43	110.157	9,513.43	106.566	9,513.43	108.244	9,513.43	103.855	9,513.43	105.829	9,513.43	101.607	9,513.43	102.932	9,513.43	97.7993	9,513.43	100.536	9,513.43	93.3311	9,513.43	97.3598	9,513.43	91.6095	9,513.43	93.6287	9,513.43	87.6996	9,513.43	89.4507	9,513.43	85.9441	9,513.43	88.3544	9,513.43	83.85	9,513.43	83.0638	9,513.43	84.643	9,513.43	81.1337	9,513.43	86.4981	9,513.43	84.6031	9,513.43	82.8706	9,513.43	83.8038	9,513.43	70.7958	9,513.43	82.4972	9,513.43	76.5256	9,513.43	79.1919	9,513.43	77.2506
9,848.88	112.42	9,848.88	111.853	9,848.88	112.402	9,848.88	110.852	9,848.88	111.742	9,848.88	108.938	9,848.88	110.332	9,848.88	106.653	9,848.88	108.328	9,848.88	103.783	9,848.88	105.757	9,848.88	101.376	9,848.88	103.198	9,848.88	97.2475	9,848.88	100.563	9,848.88	93.7864	9,848.88	97.0682	9,848.88	90.3163	9,848.88	92.554	9,848.88	86.0297	9,848.88	89.591	9,848.88	85.2341	9,848.88	86.3571	9,848.88	81.1687	9,848.88	80.7698	9,848.88	82.555	9,848.88	79.5622	9,848.88	84.969	9,848.88	83.6588	9,848.88	81.3164	9,848.88	81.6218	9,848.88	72.7232	9,848.88	79.2022	9,848.88	75.3434	9,848.88	77.8527	9,848.88	77.0343
10,196.8	112.969	10,196.8	112.318	10,196.8	112.916	10,196.8	111.191	10,196.8	112.236	10,196.8	109.242	10,196.8	110.65	10,196.8	106.719	10,196.8	108.528	10,196.8	103.902	10,196.8	105.783	10,196.8	101.13	10,196.8	103.378	10,196.8	96.818	10,196.8	99.8294	10,196.8	93.9171	10,196.8	95.7243	10,196.8	90.2059	10,196.8	91.7635	10,196.8	85.7835	10,196.8	89.1484	10,196.8	85.2915	10,196.8	85.8135	10,196.8	80.9305	10,196.8	79.6215	10,196.8	81.7643	10,196.8	76.472	10,196.8	83.4495	10,196.8	81.7367	10,196.8	81.2565	10,196.8	82.4303	10,196.8	76.4493	10,196.8	79.6795	10,196.8	73.0907	10,196.8	68.889	10,196.8	77.3133
10,556.4	113.382	10,556.4	112.77	10,556.4	113.383	10,556.4	111.427	10,556.4	112.526	10,556.4	109.351	10,556.4	110.848	10,556.4	106.375	10,556.4	108.495	10,556.4	104.179	10,556.4	105.692	10,556.4	100.631	10,556.4	102.992	10,556.4	96.8574	10,556.4	99.0586	10,556.4	93.1628	10,556.4	96.0992	10,556.4	90.4241	10,556.4	93.1536	10,556.4	86.4335	10,556.4	89.244	10,556.4	86.0648	10,556.4	85.6758	10,556.4	76.5339	10,556.4	80.4662	10,556.4	81.6117	10,556.4	78.2707	10,556.4	82.1492	10,556.4	80.9155	10,556.4	77.8919	10,556.4	81.303	10,556.4	76.5134	10,556.4	78.7005	10,556.4	74.4226	10,556.4	74.568	10,556.4	77.1295
10,928.5	113.697	10,928.5	112.948	10,928.5	113.664	10,928.5	111.512	10,928.5	112.665	10,928.5	109.246	10,928.5	110.839	10,928.5	106.327	10,928.5	108.316	10,928.5	103.804	10,928.5	105.648	10,928.5	99.9781	10,928.5	102.186	10,928.5	96.4625	10,928.5	98.3781	10,928.5	92.3877	10,928.5	96.3122	10,928.5	91.2229	10,928.5	92.7416	10,928.5	87.2016	10,928.5	89.4124	10,928.5	84.122	10,928.5	83.7865	10,928.5	77.1505	10,928.5	78.9461	10,928.5	79.8195	10,928.5	79.2258	10,928.5	82.7089	10,928.5	79.7142	10,928.5	74.2237	10,928.5	81.1081	10,928.5	75.7529	10,928.5	78.5927	10,928.5	75.1666	10,928.5	72.3725	10,928.5	77.7468
11,313.7	113.883	11,313.7	112.964	11,313.7	113.806	11,313.7	111.568	11,313.7	112.787	11,313.7	108.892	11,313.7	110.932	11,313.7	106.135	11,313.7	108.278	11,313.7	102.661	11,313.7	105.417	11,313.7	99.3277	11,313.7	101.543	11,313.7	95.9904	11,313.7	98.8571	11,313.7	93.5667	11,313.7	96.0971	11,313.7	89.1624	11,313.7	92.4834	11,313.7	83.7237	11,313.7	90.1689	11,313.7	82.784	11,313.7	84.4846	11,313.7	79.2397	11,313.7	78.0775	11,313.7	77.9841	11,313.7	75.0869	11,313.7	82.6685	11,313.7	77.5186	11,313.7	72.7409	11,313.7	81.4844	11,313.7	76.1498	11,313.7	78.4319	11,313.7	76.1888	11,313.7	60.2101	11,313.7	75.8659
11,712.9	113.948	11,712.9	112.913	11,712.9	114.022	11,712.9	111.384	11,712.9	112.892	11,712.9	108.449	11,712.9	111.033	11,712.9	105.676	11,712.9	108.356	11,712.9	102.022	11,712.9	105.64	11,712.9	99.2325	11,712.9	102.602	11,712.9	96.1319	11,712.9	99.8826	11,712.9	92.6433	11,712.9	96.2227	11,712.9	89.3333	11,712.9	92.7697	11,712.9	87.0024	11,712.9	89.2784	11,712.9	83.1224	11,712.9	84.5832	11,712.9	78.4877	11,712.9	80.2248	11,712.9	80.7204	11,712.9	78.2046	11,712.9	81.4428	11,712.9	76.6349	11,712.9	75.2138	11,712.9	80.7181	11,712.9	75.7227	11,712.9	75.4877	11,712.9	75.1104	11,712.9	74.2181	11,712.9	76.34
12,126	114.11	12,126	113.259	12,126	114.004	12,126	111.7	12,126	112.798	12,126	109.109	12,126	110.763	12,126	106.336	12,126	108.049	12,126	103.345	12,126	105.128	12,126	100.626	12,126	102.209	12,126	96.6919	12,126	97.8193	12,126	91.7826	12,126	95.163	12,126	91.1377	12,126	92.4298	12,126	87.1538	12,126	86.9327	12,126	83.0992	12,126	80.9484	12,126	73.225	12,126	83.0025	12,126	82.8436	12,126	79.8799	12,126	81.1617	12,126	77.8233	12,126	79.832	12,126	79.7477	12,126	78.2854	12,126	72.2743	12,126	76.938	12,126	77.6937	12,126	78.5967
12,553.7	114.429	12,553.7	113.59	12,553.7	114.303	12,553.7	112.208	12,553.7	113.291	12,553.7	109.68	12,553.7	111.332	12,553.7	107.16	12,553.7	109.061	12,553.7	104.447	12,553.7	105.566	12,553.7	101.057	12,553.7	102.926	12,553.7	97.0129	12,553.7	97.8452	12,553.7	94.3919	12,553.7	96.4571	12,553.7	90.3561	12,553.7	93.0041	12,553.7	86.8134	12,553.7	89.1307	12,553.7	84.3205	12,553.7	84.7473	12,553.7	75.5718	12,553.7	83.7724	12,553.7	80.2772	12,553.7	77.3073	12,553.7	81.9844	12,553.7	76.573	12,553.7	79.4119	12,553.7	78.9491	12,553.7	80.8344	12,553.7	72.6036	12,553.7	76.2588	12,553.7	76.4547	12,553.7	81.042
12,996.1	114.812	12,996.1	113.858	12,996.1	114.801	12,996.1	112.397	12,996.1	113.596	12,996.1	109.811	12,996.1	111.751	12,996.1	107.176	12,996.1	109.599	12,996.1	103.953	12,996.1	106.355	12,996.1	100.626	12,996.1	103.495	12,996.1	97.8572	12,996.1	99.4327	12,996.1	93.6589	12,996.1	97.3527	12,996.1	90.888	12,996.1	93.2518	12,996.1	88.8585	12,996.1	88.2846	12,996.1	85.4415	12,996.1	85.8834	12,996.1	74.2484	12,996.1	84.0467	12,996.1	82.8315	12,996.1	81.6535	12,996.1	82.5224	12,996.1	73.9055	12,996.1	80.4305	12,996.1	80.0431	12,996.1	80.4409	12,996.1	71.9545	12,996.1	78.3153	12,996.1	67.472	12,996.1	81.8631
13,454.6	114.923	13,454.6	114.019	13,454.6	115.001	13,454.6	112.462	13,454.6	113.799	13,454.6	109.852	13,454.6	111.923	13,454.6	106.786	13,454.6	109.536	13,454.6	104.045	13,454.6	106.241	13,454.6	101.845	13,454.6	103.094	13,454.6	98.0443	13,454.6	100.034	13,454.6	94.4007	13,454.6	96.8411	13,454.6	90.4532	13,454.6	92.1853	13,454.6	88.424	13,454.6	88.0192	13,454.6	82.9852	13,454.6	86.5905	13,454.6	68.6922	13,454.6	84.5107	13,454.6	80.961	13,454.6	79.719	13,454.6	81.6334	13,454.6	76.7162	13,454.6	80.8398	13,454.6	83.6652	13,454.6	80.6531	13,454.6	73.4214	13,454.6	80.4286	13,454.6	67.7516	13,454.6	82.261
13,928.5	114.827	13,928.5	114.083	13,928.5	114.772	13,928.5	112.424	13,928.5	113.63	13,928.5	109.952	13,928.5	111.907	13,928.5	107.097	13,928.5	109.644	13,928.5	104.726	13,928.5	106.7	13,928.5	102.683	13,928.5	104.221	13,928.5	98.4097	13,928.5	100.915	13,928.5	96.2913	13,928.5	98.171	13,928.5	89.3658	13,928.5	93.1459	13,928.5	88.3346	13,928.5	90.6353	13,928.5	83.0764	13,928.5	89.4383	13,928.5	77.5701	13,928.5	86.1514	13,928.5	79.5252	13,928.5	77.7321	13,928.5	80.481	13,928.5	80.8158	13,928.5	81.3837	13,928.5	83.5729	13,928.5	80.9201	13,928.5	73.0744	13,928.5	80.5104	13,928.5	65.3176	13,928.5	82.7174
14,419.9	114.452	14,419.9	113.735	14,419.9	114.515	14,419.9	112.371	14,419.9	113.573	14,419.9	110.122	14,419.9	112.331	14,419.9	107.6	14,419.9	110.629	14,419.9	105.456	14,419.9	108.033	14,419.9	103.508	14,419.9	105.857	14,419.9	100.092	14,419.9	102.979	14,419.9	97.7121	14,419.9	99.7632	14,419.9	89.6563	14,419.9	95.0129	14,419.9	91.303	14,419.9	92.1249	14,419.9	83.9325	14,419.9	90.94	14,419.9	77.8445	14,419.9	87.0434	14,419.9	81.579	14,419.9	77.8691	14,419.9	82.1049	14,419.9	82.5738	14,419.9	83.0145	14,419.9	84.1771	14,419.9	82.7508	14,419.9	76.5854	14,419.9	83.4221	14,419.9	63.0337	14,419.9	82.6194
14,928.2	114.034	14,928.2	113.659	14,928.2	114.266	14,928.2	112.817	14,928.2	113.786	14,928.2	110.923	14,928.2	113.115	14,928.2	108.326	14,928.2	111.552	14,928.2	106.93	14,928.2	109.094	14,928.2	104.071	14,928.2	106.847	14,928.2	101.081	14,928.2	103.72	14,928.2	98.5071	14,928.2	100.337	14,928.2	90.7829	14,928.2	95.4546	14,928.2	92.3875	14,928.2	91.8865	14,928.2	81.3418	14,928.2	92.1615	14,928.2	80.6233	14,928.2	87.1713	14,928.2	79.7863	14,928.2	80.6491	14,928.2	80.8764	14,928.2	83.7614	14,928.2	83.7042	14,928.2	85.439	14,928.2	80.8658	14,928.2	78.7423	14,928.2	84.3111	14,928.2	66.7891	14,928.2	81.8389
15,454.8	114.006	15,454.8	114.009	15,454.8	114.287	15,454.8	113.47	15,454.8	114.145	15,454.8	111.675	15,454.8	113.804	15,454.8	108.88	15,454.8	112.241	15,454.8	107.621	15,454.8	109.7	15,454.8	104.562	15,454.8	107.279	15,454.8	101.162	15,454.8	104.359	15,454.8	100.276	15,454.8	100.957	15,454.8	88.7059	15,454.8	94.9092	15,454.8	92.3991	15,454.8	91.4791	15,454.8	78.3813	15,454.8	93.7736	15,454.8	83.955	15,454.8	85.7764	15,454.8	80.3505	15,454.8	81.3908	15,454.8	82.6252	15,454.8	85.368	15,454.8	83.214	15,454.8	85.5166	15,454.8	81.2509	15,454.8	79.4381	15,454.8	85.5986	15,454.8	70.5112	15,454.8	83.7154
15,999.8	113.913	15,999.8	114.099	15,999.8	114.108	15,999.8	113.658	15,999.8	114.315	15,999.8	111.534	15,999.8	114.275	15,999.8	108.825	15,999.8	112.746	15,999.8	107.118	15,999.8	109.882	15,999.8	104.33	15,999.8	107.79	15,999.8	101.574	15,999.8	104.396	15,999.8	100.186	15,999.8	100.552	15,999.8	86.6361	15,999.8	93.8686	15,999.8	93.3349	15,999.8	91.3702	15,999.8	65.31	15,999.8	93.6023	15,999.8	85.0692	15,999.8	82.3011	15,999.8	78.2901	15,999.8	81.4233	15,999.8	82.7057	15,999.8	86.7327	15,999.8	84.0708	15,999.8	85.3273	15,999.8	84.4008	15,999.8	79.7096	15,999.8	86.002	15,999.8	78.0111	15,999.8	83.6144
16,564.5	113.605	16,564.5	113.814	16,564.5	113.903	16,564.5	113.314	16,564.5	114.575	16,564.5	111.031	16,564.5	114.86	16,564.5	108.092	16,564.5	113.234	16,564.5	106.632	16,564.5	110.246	16,564.5	103.883	16,564.5	108.12	16,564.5	100.98	16,564.5	104.249	16,564.5	99.8678	16,564.5	100.691	16,564.5	84.1863	16,564.5	95.2603	16,564.5	93.2984	16,564.5	91.0797	16,564.5	76.8396	16,564.5	93.9904	16,564.5	85.2451	16,564.5	80.505	16,564.5	79.1064	16,564.5	83.4836	16,564.5	83.2398	16,564.5	87.6916	16,564.5	84.8411	16,564.5	86.2166	16,564.5	86.8513	16,564.5	81.6686	16,564.5	88.1593	16,564.5	78.2815	16,564.5	85.6333
17,148.2	113.25	17,148.2	113.407	17,148.2	113.875	17,148.2	112.841	17,148.2	115.411	17,148.2	110.455	17,148.2	115.937	17,148.2	107.374	17,148.2	114.258	17,148.2	105.748	17,148.2	110.802	17,148.2	103.087	17,148.2	108.636	17,148.2	100.611	17,148.2	104.606	17,148.2	100.165	17,148.2	101.32	17,148.2	81.0125	17,148.2	94.5366	17,148.2	92.4144	17,148.2	90.7612	17,148.2	82.8331	17,148.2	94.869	17,148.2	87.6472	17,148.2	79.005	17,148.2	80.0508	17,148.2	85.2124	17,148.2	83.7245	17,148.2	89.0446	17,148.2	86.6989	17,148.2	87.0664	17,148.2	88.3972	17,148.2	82.5487	17,148.2	90.688	17,148.2	80.1833	17,148.2	86.2714
17,753.2	113.291	17,753.2	112.808	17,753.2	114.303	17,753.2	111.742	17,753.2	116.387	17,753.2	109.028	17,753.2	116.764	17,753.2	105.999	17,753.2	114.758	17,753.2	104.037	17,753.2	110.975	17,753.2	102.274	17,753.2	108.516	17,753.2	100.237	17,753.2	104.379	17,753.2	99.7922	17,753.2	101.042	17,753.2	84.3289	17,753.2	94.193	17,753.2	91.4681	17,753.2	90.453	17,753.2	86.7752	17,753.2	95.4979	17,753.2	88.7238	17,753.2	77.6496	17,753.2	79.0565	17,753.2	87.7195	17,753.2	81.3981	17,753.2	90.0692	17,753.2	86.7449	17,753.2	87.0288	17,753.2	89.823	17,753.2	82.8917	17,753.2	92.5863	17,753.2	78.2789	17,753.2	86.4119
18,379.4	112.815	18,379.4	111.389	18,379.4	113.928	18,379.4	109.73	18,379.4	116.552	18,379.4	107.499	18,379.4	116.573	18,379.4	104.512	18,379.4	114.255	18,379.4	102.567	18,379.4	110.319	18,379.4	101.297	18,379.4	107.769	18,379.4	98.9396	18,379.4	103.318	18,379.4	99.0308	18,379.4	101.004	18,379.4	87.6773	18,379.4	95.2241	18,379.4	90.4656	18,379.4	88.8992	18,379.4	89.0735	18,379.4	95.3564	18,379.4	89.9043	18,379.4	81.4072	18,379.4	75.2335	18,379.4	90.0612	18,379.4	76.1765	18,379.4	88.8901	18,379.4	85.9529	18,379.4	85.98	18,379.4	90.5386	18,379.4	80.7029	18,379.4	94.3233	18,379.4	79.5021	18,379.4	86.0409
19,027.6	112.733	19,027.6	111.152	19,027.6	113.513	19,027.6	109.614	19,027.6	116.336	19,027.6	107.618	19,027.6	115.927	19,027.6	104.631	19,027.6	113.389	19,027.6	102.594	19,027.6	109.296	19,027.6	101.667	19,027.6	106.407	19,027.6	98.9701	19,027.6	101.785	19,027.6	98.9527	19,027.6	99.921	19,027.6	90.8237	19,027.6	94.2247	19,027.6	90	19,027.6	89.3011	19,027.6	91.5965	19,027.6	94.7086	19,027.6	90.733	19,027.6	84.433	19,027.6	78.4465	19,027.6	91.2699	19,027.6	78.2868	19,027.6	86.3765	19,027.6	85.5378	19,027.6	85.0215	19,027.6	91.2396	19,027.6	78.7774	19,027.6	95.0265	19,027.6	82.0564	19,027.6	87.1614
19,698.5	112.861	19,698.5	110.651	19,698.5	113.222	19,698.5	108.816	19,698.5	115.618	19,698.5	106.614	19,698.5	114.118	19,698.5	103.647	19,698.5	111.095	19,698.5	101.881	19,698.5	106.307	19,698.5	100.385	19,698.5	102.345	19,698.5	97.6296	19,698.5	98.1439	19,698.5	97.7647	19,698.5	95.82	19,698.5	90.9521	19,698.5	91.8657	19,698.5	88.5611	19,698.5	87.869	19,698.5	91.923	19,698.5	92.1817	19,698.5	90.5349	19,698.5	84.8282	19,698.5	79.1453	19,698.5	90.6119	19,698.5	78.7745	19,698.5	85.5671	19,698.5	81.5816	19,698.5	83.5656	19,698.5	89.9311	19,698.5	78.9399	19,698.5	95.276	19,698.5	84.3811	19,698.5	87.4892
19,999.5	112.359	19,999.5	110.042	19,999.5	112.598	19,999.5	108.66	19,999.5	114.922	19,999.5	105.981	19,999.5	113.013	19,999.5	103.125	19,999.5	109.618	19,999.5	102.062	19,999.5	104.561	19,999.5	100.084	19,999.5	100.167	19,999.5	97.0076	19,999.5	96.3927	19,999.5	97.6132	19,999.5	93.9588	19,999.5	90.386	19,999.5	91.2132	19,999.5	89.1185	19,999.5	87.8807	19,999.5	92.1714	19,999.5	90.1766	19,999.5	89.083	19,999.5	86.9295	19,999.5	78.8266	19,999.5	88.3181	19,999.5	80.2359	19,999.5	88.0036	19,999.5	81.0582	19,999.5	84.4069	19,999.5	89.9254	19,999.5	81.794	19,999.5	95.4195	19,999.5	82.1798	19,999.5	88.6235
