"CEA2034"													
"On Axis"		"Listening Window"		"Early Reflections"		"Sound Power"		"Sound Power DI"		"Early Reflections DI"		"DI offset"	
"Frequency [Hz]"	"Sound Pessure Level [dB]  /  [	0.2	V at 	1	m]"	"Frequency [Hz]"	"Sound Pessure Level [dB]  /  [	0.2	V at 	1	m]"	"Frequency [Hz]"	"Sound Pessure Level [dB]  /  [	0.2	V at 	1	m]"	"Frequency [Hz]"	"Sound Pessure Level [dB]  /  [	0.2	V at 	1	m]"	"Frequency [Hz]"	"Sound Pessure Level [dB]  /  [	0.2	V at 	1	m]"	"Frequency [Hz]"	"Sound Pessure Level [dB]  /  [	0.2	V at 	1	m]"	"Frequency [Hz]"	"Sound Pessure Level [dB]  /  [	0.2	V at 	1	m]"
20.5078	31.0145	20.5078	31.227	20.5078	33.58	20.5078	36.0589	20.5078	36.1324	20.5078	38.6112	20.5078	40.9643
21.2402	7.49966	21.2402	17.3371	21.2402	25.0006	21.2402	26.4553	21.2402	31.8461	21.2402	33.3008	21.2402	40.9643
21.9727	32.531	21.9727	32.5092	21.9727	32.1228	21.9727	32.025	21.9727	41.4485	21.9727	41.3507	21.9727	40.9643
22.7051	37.5606	22.7051	37.5596	22.7051	37.4753	22.7051	37.7672	22.7051	40.7566	22.7051	41.0486	22.7051	40.9643
23.4375	36.0554	23.4375	36.0594	23.4375	35.9818	23.4375	36.3349	23.4375	40.6887	23.4375	41.0419	23.4375	40.9643
24.1699	38.6653	24.1699	38.6749	24.1699	38.5121	24.1699	38.5115	24.1699	41.1277	24.1699	41.1271	24.1699	40.9643
25.6348	42.0403	25.6348	42.044	25.6348	41.9025	25.6348	42.1995	25.6348	40.8088	25.6348	41.1058	25.6348	40.9643
26.3672	46.2883	26.3672	46.2866	26.3672	46.1676	26.3672	46.4797	26.3672	40.7712	26.3672	41.0832	26.3672	40.9643
27.0996	46.9926	27.0996	46.993	27.0996	46.8513	27.0996	47.0972	27.0996	40.8601	27.0996	41.106	27.0996	40.9643
27.832	49.6278	27.832	49.6283	27.832	49.536	27.832	49.8317	27.832	40.7609	27.832	41.0566	27.832	40.9643
29.2969	52.4338	29.2969	52.4396	29.2969	52.4011	29.2969	52.7631	29.2969	40.6407	29.2969	41.0028	29.2969	40.9643
30.0293	54.6001	30.0293	54.6073	30.0293	54.5701	30.0293	54.948	30.0293	40.6235	30.0293	41.0014	30.0293	40.9643
31.4941	56.709	31.4941	56.7043	31.4941	56.5881	31.4941	56.8163	31.4941	40.8523	31.4941	41.0804	31.4941	40.9643
32.2266	58.9527	32.2266	58.9503	32.2266	58.8553	32.2266	59.066	32.2266	40.8485	32.2266	41.0592	32.2266	40.9643
33.6914	61.5352	33.6914	61.5285	33.6914	61.4073	33.6914	61.5797	33.6914	40.9131	33.6914	41.0855	33.6914	40.9643
34.4238	63.1512	34.4238	63.1458	34.4238	63.0406	34.4238	63.2303	34.4238	40.8797	34.4238	41.0694	34.4238	40.9643
35.8887	66.2039	35.8887	66.1987	35.8887	66.0934	35.8887	66.2321	35.8887	40.9309	35.8887	41.0696	35.8887	40.9643
37.3535	68.9653	37.3535	68.9567	37.3535	68.8308	37.3535	68.9233	37.3535	40.9977	37.3535	41.0902	37.3535	40.9643
38.8184	71.7264	38.8184	71.7179	38.8184	71.5955	38.8184	71.6706	38.8184	41.0116	38.8184	41.0867	38.8184	40.9643
39.5508	72.9539	39.5508	72.9447	39.5508	72.8197	39.5508	72.8785	39.5508	41.0305	39.5508	41.0893	39.5508	40.9643
41.0156	75.0284	41.0156	75.0194	41.0156	74.8941	41.0156	74.9466	41.0156	41.0371	41.0156	41.0896	41.0156	40.9643
42.4805	76.3603	42.4805	76.3491	42.4805	76.2105	42.4805	76.23	42.4805	41.0833	42.4805	41.1029	42.4805	40.9643
43.9453	77.2814	43.9453	77.269	43.9453	77.1217	43.9453	77.1117	43.9453	41.1216	43.9453	41.1116	43.9453	40.9643
45.4102	77.808	45.4102	77.7946	45.4102	77.6408	45.4102	77.6086	45.4102	41.1503	45.4102	41.1181	45.4102	40.9643
47.6074	77.9805	47.6074	77.9657	47.6074	77.8034	47.6074	77.7434	47.6074	41.1866	47.6074	41.1266	47.6074	40.9643
49.0723	77.9446	49.0723	77.9291	49.0723	77.763	49.0723	77.6891	49.0723	41.2043	49.0723	41.1304	49.0723	40.9643
50.5371	77.8312	50.5371	77.8149	50.5371	77.6441	50.5371	77.5592	50.5371	41.22	50.5371	41.1351	50.5371	40.9643
52.7344	77.6748	52.7344	77.6578	52.7344	77.4825	52.7344	77.3815	52.7344	41.2405	52.7344	41.1395	52.7344	40.9643
54.1992	77.5687	54.1992	77.5513	54.1992	77.374	54.1992	77.2648	54.1992	41.2508	54.1992	41.1416	54.1992	40.9643
56.3965	77.4359	56.3965	77.418	56.3965	77.2393	56.3965	77.1246	56.3965	41.2577	56.3965	41.143	56.3965	40.9643
58.5938	77.3197	58.5938	77.302	58.5938	77.13	58.5938	77.0247	58.5938	41.2416	58.5938	41.1363	58.5938	40.9643
60.0586	77.2435	60.0586	77.2243	60.0586	77.0416	60.0586	76.9135	60.0586	41.2751	60.0586	41.147	60.0586	40.9643
62.2559	77.1864	62.2559	77.1655	62.2559	76.9663	62.2559	76.8024	62.2559	41.3273	62.2559	41.1634	62.2559	40.9643
64.4531	77.151	64.4531	77.1295	64.4531	76.9268	64.4531	76.7536	64.4531	41.3402	64.4531	41.167	64.4531	40.9643
66.6504	77.1578	66.6504	77.1349	66.6504	76.9234	66.6504	76.7323	66.6504	41.3669	66.6504	41.1758	66.6504	40.9643
69.5801	77.2242	69.5801	77.2012	69.5801	76.9884	69.5801	76.7906	69.5801	41.3749	69.5801	41.177	69.5801	40.9643
71.7773	77.1695	71.7773	77.1474	71.7773	76.9452	71.7773	76.7632	71.7773	41.3485	71.7773	41.1665	71.7773	40.9643
73.9746	77.2448	73.9746	77.2216	73.9746	77.0131	73.9746	76.821	73.9746	41.3649	73.9746	41.1728	73.9746	40.9643
76.9043	77.2332	76.9043	77.2098	76.9043	77.0006	76.9043	76.8072	76.9043	41.3668	76.9043	41.1734	76.9043	40.9643
79.834	77.3375	79.834	77.3124	79.834	77.1014	79.834	76.9169	79.834	41.3598	79.834	41.1753	79.834	40.9643
82.7637	77.6505	82.7637	77.6214	82.7637	77.3694	82.7637	77.091	82.7637	41.4947	82.7637	41.2163	82.7637	40.9643
85.6934	77.8207	85.6934	77.7886	85.6934	77.5052	85.6934	77.1491	85.6934	41.6038	85.6934	41.2477	85.6934	40.9643
88.623	77.4955	88.623	77.4779	88.623	77.3086	88.623	77.1681	88.623	41.274	88.623	41.1336	88.623	40.9643
91.5527	77.4594	91.5527	77.4352	91.5527	77.2589	91.5527	77.1572	91.5527	41.2423	91.5527	41.1406	91.5527	40.9643
94.4824	78.0853	94.4824	78.0513	94.4824	77.7853	94.4824	77.5147	94.4824	41.5009	94.4824	41.2303	94.4824	40.9643
98.1445	78.1954	98.1445	78.1637	98.1445	77.896	98.1445	77.5887	98.1445	41.5393	98.1445	41.232	98.1445	40.9643
101.807	78.3435	101.807	78.3117	101.807	78.0544	101.807	77.7819	101.807	41.4941	101.807	41.2215	101.807	40.9643
105.469	78.4808	105.469	78.4487	105.469	78.193	105.469	77.9286	105.469	41.4844	105.469	41.22	105.469	40.9643
109.131	78.6986	109.131	78.6656	109.131	78.4071	109.131	78.1326	109.131	41.4972	109.131	41.2228	109.131	40.9643
112.793	78.9037	112.793	78.8691	112.793	78.6024	112.793	78.3216	112.793	41.5117	112.793	41.2309	112.793	40.9643
116.455	79.1141	116.455	79.0775	116.455	78.7965	116.455	78.4951	116.455	41.5467	116.455	41.2453	116.455	40.9643
120.85	79.3103	120.85	79.2718	120.85	78.9826	120.85	78.6713	120.85	41.5648	120.85	41.2535	120.85	40.9643
125.244	79.4198	125.244	79.3804	125.244	79.09	125.244	78.7863	125.244	41.5583	125.244	41.2547	125.244	40.9643
129.639	79.6458	129.639	79.6054	129.639	79.3017	129.639	78.971	129.639	41.5987	129.639	41.268	129.639	40.9643
134.033	79.7532	134.033	79.7126	134.033	79.4125	134.033	79.0937	134.033	41.5832	134.033	41.2644	134.033	40.9643
138.428	79.9452	138.428	79.9021	138.428	79.5916	138.428	79.271	138.428	41.5954	138.428	41.2747	138.428	40.9643
143.555	80.1757	143.555	80.1288	143.555	79.7972	143.555	79.4581	143.555	41.635	143.555	41.2958	143.555	40.9643
148.682	80.344	148.682	80.2949	148.682	79.9475	148.682	79.5841	148.682	41.6751	148.682	41.3116	148.682	40.9643
153.809	80.6434	153.809	80.5923	153.809	80.2203	153.809	79.7932	153.809	41.7634	153.809	41.3363	153.809	40.9643
159.668	80.7527	159.668	80.7013	159.668	80.3344	159.668	79.9294	159.668	41.7362	159.668	41.3312	159.668	40.9643
164.795	80.8986	164.795	80.8467	164.795	80.4732	164.795	80.0499	164.795	41.7611	164.795	41.3377	164.795	40.9643
170.654	80.8618	170.654	80.8073	170.654	80.4377	170.654	80.0535	170.654	41.7181	170.654	41.3339	170.654	40.9643
176.514	80.9687	176.514	80.9101	176.514	80.5185	176.514	80.1166	176.514	41.7578	176.514	41.356	176.514	40.9643
183.105	81.0779	183.105	81.0152	183.105	80.5885	183.105	80.1297	183.105	41.8498	183.105	41.3909	183.105	40.9643
189.697	81.2037	189.697	81.14	189.697	80.7031	189.697	80.2127	189.697	41.8916	189.697	41.4012	189.697	40.9643
196.289	81.2198	196.289	81.1526	196.289	80.7154	196.289	80.2541	196.289	41.8628	196.289	41.4015	196.289	40.9643
202.881	81.3132	202.881	81.24	202.881	80.7632	202.881	80.2441	202.881	41.9602	202.881	41.4411	202.881	40.9643
210.205	81.3541	210.205	81.2798	210.205	80.7934	210.205	80.2643	210.205	41.9798	210.205	41.4507	210.205	40.9643
217.529	81.3272	217.529	81.2461	217.529	80.7338	217.529	80.2076	217.529	42.0028	217.529	41.4766	217.529	40.9643
225.586	81.4945	225.586	81.4069	225.586	80.8395	225.586	80.2083	225.586	42.1628	225.586	41.5316	225.586	40.9643
232.91	81.6631	232.91	81.5709	232.91	80.9513	232.91	80.216	232.91	42.3191	232.91	41.5838	232.91	40.9643
241.699	81.6952	241.699	81.6066	241.699	80.9818	241.699	80.1756	241.699	42.3953	241.699	41.5891	241.699	40.9643
249.756	81.7756	249.756	81.6844	249.756	81.036	249.756	80.2015	249.756	42.4472	249.756	41.6127	249.756	40.9643
258.545	81.8602	258.545	81.7706	258.545	81.1359	258.545	80.3097	258.545	42.4252	258.545	41.599	258.545	40.9643
268.066	81.6495	268.066	81.5594	268.066	80.9182	268.066	80.0861	268.066	42.4376	268.066	41.6054	268.066	40.9643
277.588	81.8501	277.588	81.7445	277.588	81.0542	277.588	80.2561	277.588	42.4527	277.588	41.6546	277.588	40.9643
287.109	81.9619	287.109	81.8637	287.109	81.165	287.109	80.2407	287.109	42.5873	287.109	41.6629	287.109	40.9643
297.363	81.8516	297.363	81.7501	297.363	81.0425	297.363	80.0786	297.363	42.6357	297.363	41.6719	297.363	40.9643
307.617	81.8351	307.617	81.7291	307.617	80.9994	307.617	80.0447	307.617	42.6487	307.617	41.694	307.617	40.9643
318.604	81.8972	318.604	81.7881	318.604	80.9979	318.604	79.8916	318.604	42.8607	318.604	41.7545	318.604	40.9643
329.59	81.7277	329.59	81.6307	329.59	80.8898	329.59	79.8008	329.59	42.7942	329.59	41.7051	329.59	40.9643
341.309	81.4312	341.309	81.3302	341.309	80.5858	341.309	79.5452	341.309	42.7493	341.309	41.7086	341.309	40.9643
353.76	81.5905	353.76	81.4838	353.76	80.6882	353.76	79.5163	353.76	42.9318	353.76	41.7599	353.76	40.9643
366.211	81.8204	366.211	81.703	366.211	80.8271	366.211	79.5409	366.211	43.1263	366.211	41.8401	366.211	40.9643
378.662	81.9353	378.662	81.8413	378.662	81.037	378.662	79.6575	378.662	43.1481	378.662	41.7686	378.662	40.9643
392.578	81.4178	392.578	81.3468	392.578	80.6687	392.578	79.3653	392.578	42.9458	392.578	41.6423	392.578	40.9643
405.762	81.3172	405.762	81.2173	405.762	80.4576	405.762	79.2142	405.762	42.9674	405.762	41.724	405.762	40.9643
420.41	81.3684	420.41	81.3247	420.41	80.7119	420.41	79.3074	420.41	42.9815	420.41	41.577	420.41	40.9643
435.059	80.8074	435.059	80.7361	435.059	80.1815	435.059	79.0965	435.059	42.6039	435.059	41.5189	435.059	40.9643
450.439	81.105	450.439	80.9677	450.439	80.1986	450.439	79.1073	450.439	42.8246	450.439	41.7333	450.439	40.9643
466.553	81.0591	466.553	80.914	466.553	80.0848	466.553	78.9977	466.553	42.8807	466.553	41.7935	466.553	40.9643
482.666	81.2039	482.666	81.0509	482.666	80.0746	482.666	78.7609	482.666	43.2543	482.666	41.9406	482.666	40.9643
500.244	80.8726	500.244	80.7196	500.244	79.8062	500.244	78.459	500.244	43.2248	500.244	41.8776	500.244	40.9643
517.822	80.663	517.822	80.468	517.822	79.3015	517.822	77.9911	517.822	43.4412	517.822	42.1307	517.822	40.9643
536.133	81.0198	536.133	80.8428	536.133	79.5313	536.133	77.7307	536.133	44.0763	536.133	42.2758	536.133	40.9643
554.443	80.5204	554.443	80.3819	554.443	79.3595	554.443	77.5256	554.443	43.8205	554.443	41.9867	554.443	40.9643
574.219	80.6598	574.219	80.4891	574.219	79.3475	574.219	77.445	574.219	44.0084	574.219	42.1059	574.219	40.9643
594.727	80.8607	594.727	80.67	594.727	79.3824	594.727	77.3189	594.727	44.3154	594.727	42.2519	594.727	40.9643
615.234	80.8292	615.234	80.7175	615.234	79.6569	615.234	77.5232	615.234	44.1585	615.234	42.0248	615.234	40.9643
637.207	80.3286	637.207	80.2504	637.207	79.4413	637.207	77.577	637.207	43.6377	637.207	41.7733	637.207	40.9643
659.912	79.8393	659.912	79.7496	659.912	79.1775	659.912	77.6404	659.912	43.0735	659.912	41.5364	659.912	40.9643
683.35	80.4436	683.35	80.2741	683.35	79.5519	683.35	77.9357	683.35	43.3027	683.35	41.6864	683.35	40.9643
706.787	80.7537	706.787	80.5186	706.787	79.6579	706.787	78.148	706.787	43.335	706.787	41.825	706.787	40.9643
731.689	78.5173	731.689	78.2762	731.689	77.574	731.689	77.016	731.689	42.2245	731.689	41.6664	731.689	40.9643
758.057	74.9691	758.057	74.5862	758.057	73.2574	758.057	73.5199	758.057	42.0306	758.057	42.2931	758.057	40.9643
784.424	79.8133	784.424	79.4484	784.424	77.5967	784.424	75.6675	784.424	44.7451	784.424	42.8159	784.424	40.9643
812.256	80.7227	812.256	80.3611	812.256	78.4784	812.256	76.4505	812.256	44.8749	812.256	42.8469	812.256	40.9643
840.82	81.7124	840.82	81.3115	840.82	79.2116	840.82	76.9181	840.82	45.3577	840.82	43.0642	840.82	40.9643
870.85	82.3982	870.85	82.0356	870.85	79.8108	870.85	77.221	870.85	45.7789	870.85	43.1891	870.85	40.9643
901.611	82.7883	901.611	82.446	901.611	80.3326	901.611	77.5627	901.611	45.8476	901.611	43.0777	901.611	40.9643
933.105	83.4058	933.105	83.0674	933.105	80.8595	933.105	77.9263	933.105	46.1054	933.105	43.1721	933.105	40.9643
966.064	83.8977	966.064	83.5923	966.064	81.3741	966.064	78.2832	966.064	46.2734	966.064	43.1825	966.064	40.9643
999.756	83.4772	999.756	83.2696	999.756	81.2053	999.756	78.2787	999.756	45.9552	999.756	43.0286	999.756	40.9643
1,034.91	83.0917	1,034.91	82.8914	1,034.91	81.1809	1,034.91	78.2709	1,034.91	45.5848	1,034.91	42.6748	1,034.91	40.9643
1,071.53	83.0308	1,071.53	82.6755	1,071.53	80.9316	1,071.53	78.004	1,071.53	45.6358	1,071.53	42.7082	1,071.53	40.9643
1,109.62	83.2351	1,109.62	82.845	1,109.62	80.8981	1,109.62	77.917	1,109.62	45.8923	1,109.62	42.9112	1,109.62	40.9643
1,148.44	82.905	1,148.44	82.4851	1,148.44	80.4006	1,148.44	77.3539	1,148.44	46.0955	1,148.44	43.0488	1,148.44	40.9643
1,189.45	82.8976	1,189.45	82.4275	1,189.45	80.2929	1,189.45	77.2972	1,189.45	46.0946	1,189.45	43.0989	1,189.45	40.9643
1,231.2	83.1513	1,231.2	82.6623	1,231.2	80.3242	1,231.2	77.3238	1,231.2	46.3028	1,231.2	43.3024	1,231.2	40.9643
1,274.41	84.5519	1,274.41	84.0354	1,274.41	81.4042	1,274.41	78.0607	1,274.41	46.9389	1,274.41	43.5955	1,274.41	40.9643
1,319.82	84.2221	1,319.82	83.824	1,319.82	81.4405	1,319.82	78.0556	1,319.82	46.7327	1,319.82	43.3478	1,319.82	40.9643
1,365.97	84.2616	1,365.97	83.8098	1,365.97	81.4401	1,365.97	78.0132	1,365.97	46.7608	1,365.97	43.3339	1,365.97	40.9643
1,414.31	83.8398	1,414.31	83.3133	1,414.31	80.7983	1,414.31	77.3416	1,414.31	46.936	1,414.31	43.4793	1,414.31	40.9643
1,464.11	83.148	1,464.11	82.6652	1,464.11	80.1925	1,464.11	76.7119	1,464.11	46.9176	1,464.11	43.437	1,464.11	40.9643
1,515.38	82.5973	1,515.38	82.104	1,515.38	79.6773	1,515.38	76.0478	1,515.38	47.0204	1,515.38	43.3909	1,515.38	40.9643
1,568.85	81.8183	1,568.85	81.3137	1,568.85	79.0056	1,568.85	75.5153	1,568.85	46.7627	1,568.85	43.2723	1,568.85	40.9643
1,624.51	80.661	1,624.51	80.1922	1,624.51	78.13	1,624.51	74.9051	1,624.51	46.2514	1,624.51	43.0265	1,624.51	40.9643
1,681.64	79.6496	1,681.64	79.098	1,681.64	77.4021	1,681.64	74.3062	1,681.64	45.7561	1,681.64	42.6601	1,681.64	40.9643
1,740.97	79.2893	1,740.97	78.7603	1,740.97	76.8895	1,740.97	73.5804	1,740.97	46.1441	1,740.97	42.835	1,740.97	40.9643
1,802.49	80.2502	1,802.49	79.6387	1,802.49	77.0558	1,802.49	73.0562	1,802.49	47.5468	1,802.49	43.5472	1,802.49	40.9643
1,866.21	80.7005	1,866.21	80.0334	1,866.21	77.1088	1,866.21	72.7753	1,866.21	48.2224	1,866.21	43.8889	1,866.21	40.9643
1,932.13	80.4114	1,932.13	79.8109	1,932.13	76.8102	1,932.13	72.5795	1,932.13	48.1956	1,932.13	43.965	1,932.13	40.9643
2,000.24	81.2519	2,000.24	80.5492	2,000.24	77.2303	2,000.24	73.1446	2,000.24	48.3689	2,000.24	44.2831	2,000.24	40.9643
2,070.56	82.4415	2,070.56	81.6058	2,070.56	78.04	2,070.56	73.8853	2,070.56	48.6848	2,070.56	44.5301	2,070.56	40.9643
2,143.8	82.408	2,143.8	81.6139	2,143.8	78.0002	2,143.8	74.0083	2,143.8	48.5699	2,143.8	44.5779	2,143.8	40.9643
2,219.24	82.0774	2,219.24	81.2089	2,219.24	77.6967	2,219.24	74.0754	2,219.24	48.0977	2,219.24	44.4764	2,219.24	40.9643
2,297.61	82.9626	2,297.61	81.9546	2,297.61	78.3744	2,297.61	74.7852	2,297.61	48.1337	2,297.61	44.5444	2,297.61	40.9643
2,378.17	83.3428	2,378.17	82.3773	2,378.17	78.8194	2,378.17	75.1327	2,378.17	48.2089	2,378.17	44.5222	2,378.17	40.9643
2,462.4	82.85	2,462.4	81.9111	2,462.4	78.3984	2,462.4	74.8245	2,462.4	48.0509	2,462.4	44.477	2,462.4	40.9643
2,548.83	82.3563	2,548.83	81.3689	2,548.83	77.9916	2,548.83	74.3696	2,548.83	47.9635	2,548.83	44.3415	2,548.83	40.9643
2,638.92	81.6321	2,638.92	80.8314	2,638.92	77.5054	2,638.92	73.9168	2,638.92	47.8789	2,638.92	44.2902	2,638.92	40.9643
2,731.93	81.1007	2,731.93	80.3805	2,731.93	77.0873	2,731.93	73.522	2,731.93	47.8228	2,731.93	44.2575	2,731.93	40.9643
2,828.61	81.4597	2,828.61	80.5422	2,828.61	77.2156	2,828.61	73.4604	2,828.61	48.0461	2,828.61	44.2909	2,828.61	40.9643
2,928.22	81.5155	2,928.22	80.5976	2,928.22	77.3972	2,928.22	73.6753	2,928.22	47.8866	2,928.22	44.1647	2,928.22	40.9643
3,031.49	80.9379	3,031.49	80.2373	3,031.49	77.1418	3,031.49	73.6778	3,031.49	47.5238	3,031.49	44.0598	3,031.49	40.9643
3,138.43	81.1407	3,138.43	80.4349	3,138.43	77.4184	3,138.43	74.0483	3,138.43	47.3509	3,138.43	43.9808	3,138.43	40.9643
3,249.02	80.7841	3,249.02	80.2199	3,249.02	77.4345	3,249.02	74.1905	3,249.02	46.9936	3,249.02	43.7496	3,249.02	40.9643
3,363.28	79.9886	3,363.28	79.7895	3,363.28	77.2585	3,363.28	74.0798	3,363.28	46.6739	3,363.28	43.4953	3,363.28	40.9643
3,481.93	80.6194	3,481.93	80.3211	3,481.93	77.8706	3,481.93	74.3998	3,481.93	46.8857	3,481.93	43.4148	3,481.93	40.9643
3,604.98	80.7769	3,604.98	80.5451	3,604.98	78.18	3,604.98	74.5462	3,604.98	46.9631	3,604.98	43.3294	3,604.98	40.9643
3,732.42	81.115	3,732.42	80.8685	3,732.42	78.4124	3,732.42	74.5772	3,732.42	47.2555	3,732.42	43.4204	3,732.42	40.9643
3,863.53	81.866	3,863.53	81.432	3,863.53	78.6999	3,863.53	74.7051	3,863.53	47.6912	3,863.53	43.6964	3,863.53	40.9643
3,999.76	81.9847	3,999.76	81.4758	3,999.76	78.6357	3,999.76	74.6762	3,999.76	47.7639	3,999.76	43.8044	3,999.76	40.9643
4,141.11	81.9431	4,141.11	81.2404	4,141.11	78.3625	4,141.11	74.3667	4,141.11	47.838	4,141.11	43.8422	4,141.11	40.9643
4,286.87	81.8357	4,286.87	81.3069	4,286.87	78.3151	4,286.87	74.3688	4,286.87	47.9024	4,286.87	43.9561	4,286.87	40.9643
4,438.48	81.3488	4,438.48	80.9975	4,438.48	77.9495	4,438.48	73.9412	4,438.48	48.0206	4,438.48	44.0123	4,438.48	40.9643
4,594.48	81.4021	4,594.48	81.0862	4,594.48	77.6974	4,594.48	73.6591	4,594.48	48.3913	4,594.48	44.353	4,594.48	40.9643
4,757.08	81.1437	4,757.08	81.0268	4,757.08	77.6219	4,757.08	73.5773	4,757.08	48.4137	4,757.08	44.3692	4,757.08	40.9643
4,924.8	81.0604	4,924.8	80.8877	4,924.8	77.4758	4,924.8	73.4686	4,924.8	48.3834	4,924.8	44.3762	4,924.8	40.9643
5,098.39	80.618	5,098.39	80.6421	5,098.39	77.313	5,098.39	73.4326	5,098.39	48.1738	5,098.39	44.2934	5,098.39	40.9643
5,277.83	80.2527	5,277.83	80.4464	5,277.83	77.311	5,277.83	73.3177	5,277.83	48.093	5,277.83	44.0997	5,277.83	40.9643
5,463.87	81.4861	5,463.87	81.342	5,463.87	78.152	5,463.87	73.9175	5,463.87	48.3888	5,463.87	44.1542	5,463.87	40.9643
5,656.49	81.5926	5,656.49	81.4351	5,656.49	78.3905	5,656.49	74.1723	5,656.49	48.2271	5,656.49	44.0089	5,656.49	40.9643
5,856.45	81.7246	5,856.45	81.6202	5,856.45	78.6372	5,856.45	74.3803	5,856.45	48.2042	5,856.45	43.9472	5,856.45	40.9643
6,062.99	82.1643	6,062.99	81.6505	6,062.99	78.6126	6,062.99	74.2393	6,062.99	48.3755	6,062.99	44.0022	6,062.99	40.9643
6,276.86	82.5389	6,276.86	81.9	6,276.86	78.7556	6,276.86	74.2741	6,276.86	48.5902	6,276.86	44.1087	6,276.86	40.9643
6,498.05	82.5389	6,498.05	81.9232	6,498.05	78.8284	6,498.05	74.3807	6,498.05	48.5068	6,498.05	44.0591	6,498.05	40.9643
6,727.29	82.6242	6,727.29	82.1143	6,727.29	79.0436	6,727.29	74.6328	6,727.29	48.4458	6,727.29	44.0349	6,727.29	40.9643
6,964.6	82.6315	6,964.6	82.198	6,964.6	79.2304	6,964.6	74.9022	6,964.6	48.26	6,964.6	43.9319	6,964.6	40.9643
7,209.96	82.4716	7,209.96	82.0306	7,209.96	79.121	7,209.96	74.868	7,209.96	48.1269	7,209.96	43.8738	7,209.96	40.9643
7,464.11	82.04	7,464.11	81.587	7,464.11	78.7651	7,464.11	74.5978	7,464.11	47.9535	7,464.11	43.7861	7,464.11	40.9643
7,727.78	81.2385	7,727.78	81.0159	7,727.78	78.3267	7,727.78	74.1762	7,727.78	47.804	7,727.78	43.6535	7,727.78	40.9643
8,000.24	81.1356	8,000.24	80.9059	8,000.24	78.1717	8,000.24	73.8402	8,000.24	48.03	8,000.24	43.6985	8,000.24	40.9643
8,282.23	81.3571	8,282.23	80.9307	8,282.23	78.094	8,282.23	73.6386	8,282.23	48.2564	8,282.23	43.801	8,282.23	40.9643
8,574.46	80.9526	8,574.46	80.785	8,574.46	78.1321	8,574.46	73.7485	8,574.46	48.0007	8,574.46	43.6171	8,574.46	40.9643
8,876.22	80.7731	8,876.22	80.5968	8,876.22	77.9902	8,876.22	73.5031	8,876.22	48.058	8,876.22	43.5709	8,876.22	40.9643
9,189.7	79.8552	9,189.7	79.7213	9,189.7	77.1452	9,189.7	72.6767	9,189.7	48.0089	9,189.7	43.5404	9,189.7	40.9643
9,513.43	78.8586	9,513.43	78.8449	9,513.43	76.2217	9,513.43	71.8256	9,513.43	47.9836	9,513.43	43.5875	9,513.43	40.9643
9,848.88	78.3095	9,848.88	78.2904	9,848.88	75.5067	9,848.88	71.087	9,848.88	48.1677	9,848.88	43.748	9,848.88	40.9643
10,196.8	77.9887	10,196.8	77.9356	10,196.8	75.1449	10,196.8	70.6727	10,196.8	48.2272	10,196.8	43.755	10,196.8	40.9643
10,556.4	79.0142	10,556.4	78.9584	10,556.4	76.1979	10,556.4	71.7012	10,556.4	48.2215	10,556.4	43.7247	10,556.4	40.9643
10,928.5	80.2227	10,928.5	80.0066	10,928.5	77.1966	10,928.5	72.6533	10,928.5	48.3176	10,928.5	43.7743	10,928.5	40.9643
11,313.7	80.2947	11,313.7	80.0525	11,313.7	77.2649	11,313.7	72.7821	11,313.7	48.2346	11,313.7	43.7518	11,313.7	40.9643
11,712.9	80.0528	11,712.9	80.2151	11,712.9	77.376	11,712.9	73.0158	11,712.9	48.1635	11,712.9	43.8033	11,712.9	40.9643
12,126	80.2979	12,126	80.3525	12,126	77.4525	12,126	73.0816	12,126	48.2351	12,126	43.8643	12,126	40.9643
12,553.7	80.3706	12,553.7	80.3813	12,553.7	77.5053	12,553.7	73.0394	12,553.7	48.3061	12,553.7	43.8403	12,553.7	40.9643
12,996.1	79.991	12,996.1	80.0102	12,996.1	77.1182	12,996.1	72.6617	12,996.1	48.3127	12,996.1	43.8562	12,996.1	40.9643
13,454.6	79.3272	13,454.6	79.4035	13,454.6	76.5421	13,454.6	72.0803	13,454.6	48.2875	13,454.6	43.8256	13,454.6	40.9643
13,928.5	80.202	13,928.5	79.8816	13,928.5	76.886	13,928.5	72.3195	13,928.5	48.5263	13,928.5	43.9598	13,928.5	40.9643
14,419.9	78.9822	14,419.9	78.4034	14,419.9	75.3011	14,419.9	70.6931	14,419.9	48.6745	14,419.9	44.0666	14,419.9	40.9643
14,928.2	78.5582	14,928.2	78.0939	14,928.2	74.8296	14,928.2	70.1824	14,928.2	48.8758	14,928.2	44.2286	14,928.2	40.9643
15,454.8	77.8698	15,454.8	77.2576	15,454.8	73.8997	15,454.8	69.1638	15,454.8	49.058	15,454.8	44.3222	15,454.8	40.9643
15,999.8	77.6795	15,999.8	77.1862	15,999.8	73.9603	15,999.8	69.1666	15,999.8	48.9839	15,999.8	44.1902	15,999.8	40.9643
16,564.5	80.3679	16,564.5	79.8327	16,564.5	76.4482	16,564.5	71.6207	16,564.5	49.1763	16,564.5	44.3488	16,564.5	40.9643
17,148.2	81.6522	17,148.2	80.9855	17,148.2	77.4615	17,148.2	72.5102	17,148.2	49.4396	17,148.2	44.4883	17,148.2	40.9643
17,753.2	81.9539	17,753.2	81.1603	17,753.2	77.4929	17,753.2	72.3878	17,753.2	49.7368	17,753.2	44.6317	17,753.2	40.9643
18,379.4	80.6493	18,379.4	79.6138	18,379.4	75.8367	18,379.4	70.7179	18,379.4	49.8603	18,379.4	44.7414	18,379.4	40.9643
19,027.6	78.2508	19,027.6	77.1243	19,027.6	73.2809	19,027.6	68.1432	19,027.6	49.9455	19,027.6	44.8077	19,027.6	40.9643
19,698.5	76.4554	19,698.5	75.5123	19,698.5	71.7847	19,698.5	66.6578	19,698.5	49.8187	19,698.5	44.6918	19,698.5	40.9643
19,999.5	74.7387	19,999.5	73.9571	19,999.5	70.3647	19,999.5	65.3133	19,999.5	49.6081	19,999.5	44.5566	19,999.5	40.9643
