"Early Reflections"											
"Floor Bounce"		"Ceiling Bounce"		"Front Wall Bounce"		"Side Wall Bounce"		"Rear Wall Bounce"		"Total Early Reflection"	
"Frequency [Hz]"	"Sound Pessure Level [dB]   /  [ 	0.2	V at 	1	m]"	"Frequency [Hz]"	"Sound Pessure Level [dB]   /  [ 	0.2	V at 	1	m]"	"Frequency [Hz]"	"Sound Pessure Level [dB]   /  [ 	0.2	V at 	1	m]"	"Frequency [Hz]"	"Sound Pessure Level [dB]   /  [ 	0.2	V at 	1	m]"	"Frequency [Hz]"	"Sound Pessure Level [dB]   /  [ 	0.2	V at 	1	m]"	"Frequency [Hz]"	"Sound Pessure Level [dB]   /  [ 	0.2	V at 	1	m]"
20.5078	31.7854	20.5078	33.3124	20.5078	31.2554	20.5078	33.1152	20.5078	37.8998	20.5078	33.58
21.2402	16.3338	21.2402	16.9935	21.2402	18.2792	21.2402	26.85	21.2402	29.4303	21.2402	25.0006
21.9727	35.4963	21.9727	26.8554	21.9727	32.4713	21.9727	31.8868	21.9727	29.1943	21.9727	32.1228
22.7051	39.6607	22.7051	34.5593	22.7051	37.541	22.7051	37.3545	22.7051	36.9733	22.7051	37.4753
23.4375	38.4273	23.4375	32.5347	23.4375	36.0382	23.4375	35.8345	23.4375	35.389	23.4375	35.9818
24.1699	40.542	24.1699	36.2011	24.1699	38.6616	24.1699	38.5229	24.1699	37.1264	24.1699	38.5121
25.6348	44.2072	25.6348	38.757	25.6348	42.0265	25.6348	41.8307	25.6348	40.9463	25.6348	41.9025
26.3672	48.1516	26.3672	43.8275	26.3672	46.2705	26.3672	46.0812	26.3672	45.4474	26.3672	46.1676
27.0996	48.8805	27.0996	44.3485	27.0996	46.9779	27.0996	46.7964	27.0996	45.9643	27.0996	46.8513
27.832	51.3584	27.832	47.3685	27.832	49.6147	27.832	49.4777	27.832	48.9482	27.832	49.536
29.2969	54.0875	29.2969	50.3148	29.2969	52.4284	29.2969	52.3619	29.2969	52.0495	29.2969	52.4011
30.0293	56.2479	30.0293	52.5236	30.0293	54.5964	30.0293	54.5361	30.0293	54.1894	30.0293	54.5701
31.4941	58.2873	31.4941	54.6502	31.4941	56.6911	31.4941	56.5218	31.4941	56.0114	31.4941	56.5881
32.2266	60.4244	32.2266	57.0364	32.2266	58.939	32.2266	58.81	32.2266	58.3794	32.2266	58.8553
33.6914	62.9703	33.6914	59.6477	33.6914	61.5166	33.6914	61.3493	33.6914	60.875	33.6914	61.4073
34.4238	64.5376	34.4238	61.3313	34.4238	63.1348	34.4238	62.9881	34.4238	62.5965	34.4238	63.0406
35.8887	67.4952	35.8887	64.5078	35.8887	66.1889	35.8887	66.0521	35.8887	65.6575	35.8887	66.0934
37.3535	70.2025	37.3535	67.3126	37.3535	68.9466	37.3535	68.7832	37.3535	68.3577	37.3535	68.8308
38.8184	72.8971	38.8184	70.1534	38.8184	71.7085	38.8184	71.5543	38.8184	71.1523	38.8184	71.5955
39.5508	74.0906	39.5508	71.4239	39.5508	72.9355	39.5508	72.7785	39.5508	72.3784	39.5508	72.8197
41.0156	76.1314	41.0156	73.5443	41.0156	75.0106	41.0156	74.8551	41.0156	74.4555	41.0156	74.8941
42.4805	77.4333	42.4805	74.8773	42.4805	76.3401	42.4805	76.1691	42.4805	75.7529	42.4805	76.2105
43.9453	78.3095	43.9453	75.8391	43.9453	77.2602	43.9453	77.0806	43.9453	76.6494	43.9453	77.1217
45.4102	78.8003	45.4102	76.3992	45.4102	77.7859	45.4102	77.5999	45.4102	77.1573	45.4102	77.6408
47.6074	78.9288	47.6074	76.6091	47.6074	77.9571	47.6074	77.7618	47.6074	77.3084	47.6074	77.8034
49.0723	78.8666	49.0723	76.5979	49.0723	77.9206	49.0723	77.7213	49.0723	77.2643	49.0723	77.763
50.5371	78.7353	50.5371	76.4945	50.5371	77.8064	50.5371	77.6017	50.5371	77.1401	50.5371	77.6441
52.7344	78.5463	52.7344	76.3672	52.7344	77.6494	52.7344	77.44	52.7344	76.9763	52.7344	77.4825
54.1992	78.4249	54.1992	76.2744	54.1992	77.543	54.1992	77.332	54.1992	76.8648	54.1992	77.374
56.3965	78.2688	56.3965	76.162	56.3965	77.4099	56.3965	77.1971	56.3965	76.7382	56.3965	77.2393
58.5938	78.1259	58.5938	76.083	58.5938	77.2942	58.5938	77.0879	58.5938	76.6666	58.5938	77.13
60.0586	78.0371	60.0586	76.0051	60.0586	77.2162	60.0586	76.9966	60.0586	76.5516	60.0586	77.0416
62.2559	77.9681	62.2559	75.9339	62.2559	77.1571	62.2559	76.9204	62.2559	76.4231	62.2559	76.9663
64.4531	77.9138	64.4531	75.9118	64.4531	77.1212	64.4531	76.8809	64.4531	76.3792	64.4531	76.9268
66.6504	77.9013	66.6504	75.9257	66.6504	77.1265	66.6504	76.8747	66.6504	76.359	66.6504	76.9234
69.5801	77.9585	69.5801	76.0047	69.5801	77.1928	69.5801	76.9399	69.5801	76.4184	69.5801	76.9884
71.7773	77.8903	71.7773	75.9699	71.7773	77.1394	71.7773	76.8997	71.7773	76.4203	71.7773	76.9452
73.9746	77.9574	73.9746	76.0454	73.9746	77.2134	73.9746	76.9649	73.9746	76.4748	73.9746	77.0131
76.9043	77.9365	76.9043	76.042	76.9043	77.2016	76.9043	76.9517	76.9043	76.4672	76.9043	77.0006
79.834	78.022	79.834	76.142	79.834	77.3041	79.834	77.0471	79.834	76.6051	79.834	77.1014
82.7637	78.2918	82.7637	76.4725	82.7637	77.6124	82.7637	77.3096	82.7637	76.7211	82.7637	77.3694
85.6934	78.431	85.6934	76.6479	85.6934	77.7792	85.6934	77.4423	85.6934	76.7351	85.6934	77.5052
88.623	78.1949	88.623	76.3428	88.623	77.4712	88.623	77.2784	88.623	76.8852	88.623	77.3086
91.5527	78.111	91.5527	76.3443	91.5527	77.4273	91.5527	77.1991	91.5527	76.9268	91.5527	77.2589
94.4824	78.7118	94.4824	76.8704	94.4824	78.0415	94.4824	77.7074	94.4824	77.1788	94.4824	77.7853
98.1445	78.8183	98.1445	76.9963	98.1445	78.1544	98.1445	77.8318	98.1445	77.2226	98.1445	77.896
101.807	78.9661	101.807	77.153	101.807	78.3024	101.807	77.9861	101.807	77.4435	101.807	78.0544
105.469	79.0944	105.469	77.2968	105.469	78.4394	105.469	78.1236	105.469	77.6006	105.469	78.193
109.131	79.2867	109.131	77.5437	109.131	78.6562	109.131	78.3345	109.131	77.8188	109.131	78.4071
112.793	79.4991	112.793	77.7206	112.793	78.8594	112.793	78.5251	112.793	78.0032	112.793	78.6024
116.455	79.7069	116.455	77.9123	116.455	79.0673	116.455	78.7137	116.455	78.1604	116.455	78.7965
120.85	79.8835	120.85	78.1155	120.85	79.2614	120.85	78.8941	120.85	78.3429	120.85	78.9826
125.244	79.997	125.244	78.2103	125.244	79.3698	125.244	78.997	125.244	78.4676	125.244	79.09
129.639	80.2179	129.639	78.4168	129.639	79.5947	129.639	79.2087	129.639	78.6326	129.639	79.3017
134.033	80.3203	134.033	78.5343	134.033	79.7018	134.033	79.3185	134.033	78.7632	134.033	79.4125
138.428	80.5229	138.428	78.6956	138.428	79.8906	138.428	79.4873	138.428	78.9369	138.428	79.5916
143.555	80.7714	143.555	78.86	143.555	80.1164	143.555	79.6798	143.555	79.1101	143.555	79.7972
148.682	80.9126	148.682	79.0179	148.682	80.2823	148.682	79.826	148.682	79.236	148.682	79.9475
153.809	81.1829	153.809	79.3156	153.809	80.5796	153.809	80.0984	153.809	79.416	153.809	80.2203
159.668	81.3009	159.668	79.4175	159.668	80.6884	159.668	80.2088	159.668	79.5661	159.668	80.3344
164.795	81.4518	164.795	79.5327	164.795	80.8338	164.795	80.3501	164.795	79.6806	164.795	80.4732
170.654	81.3883	170.654	79.5454	170.654	80.7938	170.654	80.2988	170.654	79.7141	170.654	80.4377
176.514	81.4988	176.514	79.6056	176.514	80.8957	176.514	80.3638	176.514	79.7676	176.514	80.5185
183.105	81.6012	183.105	79.6562	183.105	80.9999	183.105	80.423	183.105	79.7448	183.105	80.5885
189.697	81.7082	189.697	79.7937	189.697	81.1247	189.697	80.5382	189.697	79.8139	189.697	80.7031
196.289	81.6944	196.289	79.843	196.289	81.1366	196.289	80.5344	196.289	79.8931	196.289	80.7154
202.881	81.768	202.881	79.8849	202.881	81.2229	202.881	80.5612	202.881	79.8683	202.881	80.7632
210.205	81.8115	210.205	79.9193	210.205	81.2623	210.205	80.5851	210.205	79.8688	210.205	80.7934
217.529	81.7874	217.529	79.8415	217.529	81.227	217.529	80.4947	217.529	79.8142	217.529	80.7338
225.586	81.9146	225.586	79.9585	225.586	81.3867	225.586	80.5774	225.586	79.7863	225.586	80.8395
232.91	82.1	232.91	80.0264	232.91	81.5496	232.91	80.6686	232.91	79.7284	232.91	80.9513
241.699	82.1769	241.699	80.0697	241.699	81.5856	241.699	80.7153	241.699	79.5734	241.699	80.9818
249.756	82.2793	249.756	79.9946	249.756	81.6633	249.756	80.7707	249.756	79.5893	249.756	81.036
258.545	82.3453	258.545	80.1457	258.545	81.7498	258.545	80.8766	258.545	79.7192	258.545	81.1359
268.066	82.2083	268.066	79.8002	268.066	81.5382	268.066	80.6623	268.066	79.454	268.066	80.9182
277.588	82.2221	277.588	80.1119	277.588	81.7209	277.588	80.7419	277.588	79.6907	277.588	81.0542
287.109	82.2603	287.109	80.3516	287.109	81.8422	287.109	80.8717	287.109	79.6645	287.109	81.165
297.363	82.2674	297.363	80.1998	297.363	81.7264	297.363	80.7147	297.363	79.4619	297.363	81.0425
307.617	82.3438	307.617	79.9479	307.617	81.7044	307.617	80.6524	307.617	79.4306	307.617	80.9994
318.604	82.3213	318.604	80.0359	318.604	81.7632	318.604	80.6435	318.604	79.1529	318.604	80.9979
329.59	82.2152	329.59	79.8904	329.59	81.6082	329.59	80.5823	329.59	79.0643	329.59	80.8898
341.309	81.9136	341.309	79.5527	341.309	81.307	341.309	80.2666	341.309	78.8387	341.309	80.5858
353.76	82.0056	353.76	79.6278	353.76	81.4604	353.76	80.3648	353.76	78.8002	353.76	80.6882
366.211	82.2368	366.211	79.6897	366.211	81.6773	366.211	80.4389	366.211	78.8029	366.211	80.8271
378.662	82.4683	378.662	79.9383	378.662	81.8196	378.662	80.7122	378.662	78.9083	378.662	81.037
392.578	81.983	392.578	79.7097	392.578	81.3295	392.578	80.45	392.578	78.6279	392.578	80.6687
405.762	81.866	405.762	79.4405	405.762	81.1933	405.762	80.137	405.762	78.466	405.762	80.4576
420.41	82.142	420.41	79.603	420.41	81.3129	420.41	80.5787	420.41	78.4187	420.41	80.7119
435.059	81.3226	435.059	79.1201	435.059	80.7213	435.059	80.1131	435.059	78.3743	435.059	80.1815
450.439	81.5578	450.439	78.8323	450.439	80.9389	450.439	79.9399	450.439	78.4048	450.439	80.1986
466.553	81.526	466.553	78.6915	466.553	80.8823	466.553	79.7279	466.553	78.3688	466.553	80.0848
482.666	81.666	482.666	78.838	482.666	81.0158	482.666	79.5712	482.666	77.8944	482.666	80.0746
500.244	81.4046	500.244	78.6868	500.244	80.6835	500.244	79.3294	500.244	77.6353	500.244	79.8062
517.822	81.0026	517.822	77.9235	517.822	80.4264	517.822	78.6453	517.822	76.8609	517.822	79.3015
536.133	81.3605	536.133	77.8286	536.133	80.8077	536.133	78.829	536.133	76.5297	536.133	79.5313
554.443	81.0857	554.443	77.8009	554.443	80.3522	554.443	78.9311	554.443	76.5803	554.443	79.3595
574.219	81.0939	574.219	77.5926	574.219	80.4544	574.219	78.8596	574.219	76.4586	574.219	79.3475
594.727	81.1228	594.727	77.8692	594.727	80.6314	594.727	78.7632	594.727	76.0723	594.727	79.3824
615.234	81.343	615.234	78.1929	615.234	80.6959	615.234	79.3094	615.234	76.066	615.234	79.6569
637.207	80.8141	637.207	77.72	637.207	80.2417	637.207	79.392	637.207	76.6096	637.207	79.4413
659.912	80.4965	659.912	76.7466	659.912	79.7391	659.912	79.3171	659.912	77.2573	659.912	79.1775
683.35	81.2243	683.35	75.9872	683.35	80.2422	683.35	79.5533	683.35	77.923	683.35	79.5519
706.787	81.9443	706.787	75.1162	706.787	80.4631	706.787	79.345	706.787	78.1829	706.787	79.6579
731.689	81.3225	731.689	71.2797	731.689	78.1783	731.689	76.6995	731.689	75.7324	731.689	77.574
758.057	75.3199	758.057	75.1473	758.057	74.4632	758.057	71.2091	758.057	68.7426	758.057	73.2574
784.424	78.466	784.424	77.8043	784.424	79.3816	784.424	76.363	784.424	73.2521	784.424	77.5967
812.256	79.718	812.256	77.7659	812.256	80.2945	812.256	77.3527	812.256	74.1687	812.256	78.4784
840.82	80.1727	840.82	77.9536	840.82	81.2474	840.82	78.0899	840.82	74.8595	840.82	79.2116
870.85	80.6834	870.85	78.1095	870.85	81.9804	870.85	78.6624	870.85	75.4229	870.85	79.8108
901.611	81.0313	901.611	79.3898	901.611	82.3959	901.611	79.2267	901.611	75.7843	901.611	80.3326
933.105	81.7847	933.105	79.5194	933.105	83.0199	933.105	79.7236	933.105	75.5052	933.105	80.8595
966.064	82.4371	966.064	79.7436	966.064	83.5533	966.064	80.2862	966.064	75.4194	966.064	81.3741
999.756	82.1551	999.756	79.2391	999.756	83.2593	999.756	80.4944	999.756	74.4669	999.756	81.2053
1,034.91	81.8747	1,034.91	78.9888	1,034.91	82.8765	1,034.91	80.9427	1,034.91	75.7544	1,034.91	81.1809
1,071.53	82.0731	1,071.53	79.5366	1,071.53	82.6092	1,071.53	80.3438	1,071.53	75.6432	1,071.53	80.9316
1,109.62	82.2451	1,109.62	79.51	1,109.62	82.7733	1,109.62	79.9833	1,109.62	75.4152	1,109.62	80.8981
1,148.44	81.8572	1,148.44	78.6533	1,148.44	82.4142	1,148.44	79.3372	1,148.44	74.8763	1,148.44	80.4006
1,189.45	81.7994	1,189.45	78.3613	1,189.45	82.3482	1,189.45	79.2226	1,189.45	74.4486	1,189.45	80.2929
1,231.2	81.3257	1,231.2	78.9444	1,231.2	82.5825	1,231.2	79.0843	1,231.2	74.2911	1,231.2	80.3242
1,274.41	81.2534	1,274.41	80.3345	1,274.41	83.964	1,274.41	80.0719	1,274.41	75.5455	1,274.41	81.4042
1,319.82	81.934	1,319.82	80.3915	1,319.82	83.7622	1,319.82	80.2757	1,319.82	75.0459	1,319.82	81.4405
1,365.97	82.5039	1,365.97	80.0417	1,365.97	83.7291	1,365.97	80.1891	1,365.97	74.7211	1,365.97	81.4401
1,414.31	82.6579	1,414.31	78.6656	1,414.31	83.1964	1,414.31	79.1527	1,414.31	73.4719	1,414.31	80.7983
1,464.11	82.5807	1,464.11	76.637	1,464.11	82.5679	1,464.11	78.4884	1,464.11	73.394	1,464.11	80.1925
1,515.38	82.5345	1,515.38	74.944	1,515.38	82.006	1,515.38	77.9079	1,515.38	72.5333	1,515.38	79.6773
1,568.85	82.9333	1,568.85	72.859	1,568.85	81.1654	1,568.85	76.6908	1,568.85	71.0632	1,568.85	79.0056
1,624.51	82.6784	1,624.51	72.4711	1,624.51	80.0092	1,624.51	75.503	1,624.51	69.1977	1,624.51	78.13
1,681.64	82.1954	1,681.64	74.5053	1,681.64	78.9079	1,681.64	74.4566	1,681.64	69.0502	1,681.64	77.4021
1,740.97	81.292	1,740.97	73.5263	1,740.97	78.6028	1,740.97	74.3541	1,740.97	67.9893	1,740.97	76.8895
1,802.49	80.2739	1,802.49	69.9525	1,802.49	79.5595	1,802.49	74.9993	1,802.49	68.6662	1,802.49	77.0558
1,866.21	79.5065	1,866.21	64.5788	1,866.21	79.9695	1,866.21	75.3327	1,866.21	68.893	1,866.21	77.1088
1,932.13	78.5195	1,932.13	64.1617	1,932.13	79.7798	1,932.13	75.2708	1,932.13	69.0729	1,932.13	76.8102
2,000.24	77.1362	2,000.24	67.3438	2,000.24	80.5313	2,000.24	75.8442	2,000.24	69.6166	2,000.24	77.2303
2,070.56	76.8695	2,070.56	68.863	2,070.56	81.5868	2,070.56	76.5269	2,070.56	69.7729	2,070.56	78.04
2,143.8	76.1358	2,143.8	70.5306	2,143.8	81.6362	2,143.8	76.3799	2,143.8	69.8013	2,143.8	78.0002
2,219.24	76.0701	2,219.24	73.3663	2,219.24	81.2199	2,219.24	75.9344	2,219.24	69.0653	2,219.24	77.6967
2,297.61	76.3434	2,297.61	73.3447	2,297.61	82.0056	2,297.61	76.5535	2,297.61	70.1506	2,297.61	78.3744
2,378.17	76.5402	2,378.17	74.5861	2,378.17	82.3897	2,378.17	77.131	2,378.17	69.9314	2,378.17	78.8194
2,462.4	76.9841	2,462.4	75.6663	2,462.4	81.892	2,462.4	76.3251	2,462.4	69.456	2,462.4	78.3984
2,548.83	76.8696	2,548.83	75.9853	2,548.83	81.4086	2,548.83	75.7967	2,548.83	69.0838	2,548.83	77.9916
2,638.92	76.8293	2,638.92	76.0345	2,638.92	80.7822	2,638.92	75.3106	2,638.92	68.4802	2,638.92	77.5054
2,731.93	77.223	2,731.93	75.9421	2,731.93	80.2283	2,731.93	74.7261	2,731.93	67.9546	2,731.93	77.0873
2,828.61	77.9425	2,828.61	75.0536	2,828.61	80.4306	2,828.61	74.6976	2,828.61	67.9318	2,828.61	77.2156
2,928.22	78.6834	2,928.22	74.7735	2,928.22	80.5161	2,928.22	74.8848	2,928.22	68.238	2,928.22	77.3972
3,031.49	79.3353	3,031.49	74.5153	3,031.49	80.0116	3,031.49	74.4988	3,031.49	68.3286	3,031.49	77.1418
3,138.43	79.7889	3,138.43	74.926	3,138.43	80.1967	3,138.43	74.836	3,138.43	67.9877	3,138.43	77.4184
3,249.02	79.7376	3,249.02	75.935	3,249.02	79.9673	3,249.02	75.1055	3,249.02	68.5279	3,249.02	77.4345
3,363.28	79.7883	3,363.28	77.0174	3,363.28	79.3353	3,363.28	75.1378	3,363.28	68.0718	3,363.28	77.2585
3,481.93	79.8368	3,481.93	77.5752	3,481.93	80.0251	3,481.93	76.0746	3,481.93	68.7838	3,481.93	77.8706
3,604.98	79.8265	3,604.98	77.7778	3,604.98	80.3718	3,604.98	76.5833	3,604.98	69.0119	3,604.98	78.18
3,732.42	79.7344	3,732.42	77.6813	3,732.42	80.868	3,732.42	76.7184	3,732.42	68.4918	3,732.42	78.4124
3,863.53	79.4747	3,863.53	77.3875	3,863.53	81.523	3,863.53	76.8655	3,863.53	67.5877	3,863.53	78.6999
3,999.76	79.4615	3,999.76	77.0251	3,999.76	81.5722	3,999.76	76.6268	3,999.76	67.6734	3,999.76	78.6357
4,141.11	78.7714	4,141.11	76.6258	4,141.11	81.4565	4,141.11	76.2908	4,141.11	66.891	4,141.11	78.3625
4,286.87	78.6923	4,286.87	76.2888	4,286.87	81.4513	4,286.87	76.2374	4,286.87	67.285	4,286.87	78.3151
4,438.48	78.4448	4,438.48	75.0209	4,438.48	81.0903	4,438.48	76.0435	4,438.48	66.8716	4,438.48	77.9495
4,594.48	77.643	4,594.48	74.4483	4,594.48	81.0518	4,594.48	75.641	4,594.48	66.6336	4,594.48	77.6974
4,757.08	78.1113	4,757.08	74.3232	4,757.08	80.8367	4,757.08	75.627	4,757.08	66.7691	4,757.08	77.6219
4,924.8	77.9629	4,924.8	74.8132	4,924.8	80.7101	4,924.8	75.3077	4,924.8	65.8787	4,924.8	77.4758
5,098.39	77.8306	5,098.39	74.7137	5,098.39	80.398	5,098.39	75.4197	5,098.39	66.7215	5,098.39	77.313
5,277.83	78.2012	5,277.83	74.2596	5,277.83	80.2589	5,277.83	75.6257	5,277.83	66.4745	5,277.83	77.311
5,463.87	78.3848	5,463.87	73.7428	5,463.87	81.3871	5,463.87	76.4393	5,463.87	67.583	5,463.87	78.152
5,656.49	78.236	5,656.49	74.6247	5,656.49	81.5264	5,656.49	76.9498	5,656.49	67.7087	5,656.49	78.3905
5,856.45	78.4373	5,856.45	75.5564	5,856.45	81.6624	5,856.45	77.3093	5,856.45	67.7672	5,856.45	78.6372
6,062.99	78.7745	6,062.99	75.8822	6,062.99	81.6704	6,062.99	77.0208	6,062.99	66.8725	6,062.99	78.6126
6,276.86	78.7358	6,276.86	75.3102	6,276.86	81.9399	6,276.86	77.1548	6,276.86	66.2204	6,276.86	78.7556
6,498.05	78.8098	6,498.05	74.9489	6,498.05	81.9477	6,498.05	77.44	6,498.05	66.2309	6,498.05	78.8284
6,727.29	79.3336	6,727.29	75.5902	6,727.29	82.0426	6,727.29	77.6722	6,727.29	66.8886	6,727.29	79.0436
6,964.6	79.8856	6,964.6	76.3707	6,964.6	82.0531	6,964.6	77.883	6,964.6	67.8356	6,964.6	79.2304
7,209.96	80.2085	7,209.96	76.2436	7,209.96	81.7943	7,209.96	77.8292	7,209.96	67.7296	7,209.96	79.121
7,464.11	80.2942	7,464.11	75.7792	7,464.11	81.3772	7,464.11	77.3657	7,464.11	67.1514	7,464.11	78.7651
7,727.78	79.8792	7,727.78	75.6301	7,727.78	80.8565	7,727.78	76.9892	7,727.78	66.8914	7,727.78	78.3267
8,000.24	79.4591	8,000.24	75.1537	8,000.24	80.8591	8,000.24	76.799	8,000.24	65.9625	8,000.24	78.1717
8,282.23	79.0402	8,282.23	74.2124	8,282.23	80.9424	8,282.23	76.7722	8,282.23	65.8421	8,282.23	78.094
8,574.46	79.315	8,574.46	73.6544	8,574.46	80.7232	8,574.46	77.211	8,574.46	66.159	8,574.46	78.1321
8,876.22	79.2229	8,876.22	73.5709	8,876.22	80.5791	8,876.22	77.0428	8,876.22	65.9011	8,876.22	77.9902
9,189.7	78.6129	9,189.7	73.2994	9,189.7	79.6894	9,189.7	76.0622	9,189.7	65.1156	9,189.7	77.1452
9,513.43	77.6028	9,513.43	73.1921	9,513.43	78.7924	9,513.43	75.0021	9,513.43	63.9896	9,513.43	76.2217
9,848.88	76.3663	9,848.88	72.8198	9,848.88	78.2385	9,848.88	74.2228	9,848.88	62.6821	9,848.88	75.5067
10,196.8	75.4668	10,196.8	71.7486	10,196.8	77.9499	10,196.8	74.1202	10,196.8	61.9829	10,196.8	75.1449
10,556.4	76.0821	10,556.4	71.7637	10,556.4	79.075	10,556.4	75.3689	10,556.4	63.4398	10,556.4	76.1979
10,928.5	77.0588	10,928.5	72.1389	10,928.5	80.1602	10,928.5	76.3093	10,928.5	64.3203	10,928.5	77.1966
11,313.7	77.4783	11,313.7	72.4275	11,313.7	80.1382	11,313.7	76.3614	11,313.7	64.9761	11,313.7	77.2649
11,712.9	77.8327	11,712.9	72.8154	11,712.9	80.1971	11,712.9	76.4273	11,712.9	65.083	11,712.9	77.376
12,126	77.8525	12,126	72.72	12,126	80.331	12,126	76.4562	12,126	64.9882	12,126	77.4525
12,553.7	77.8587	12,553.7	72.7677	12,553.7	80.3631	12,553.7	76.5616	12,553.7	65.1366	12,553.7	77.5053
12,996.1	77.6066	12,996.1	71.9006	12,996.1	79.9309	12,996.1	76.2506	12,996.1	64.7582	12,996.1	77.1182
13,454.6	77.257	13,454.6	71.7907	13,454.6	79.2907	13,454.6	75.6299	13,454.6	64.1252	13,454.6	76.5421
13,928.5	77.9605	13,928.5	71.7612	13,928.5	79.799	13,928.5	75.5797	13,928.5	63.6947	13,928.5	76.886
14,419.9	75.0017	14,419.9	71.701	14,419.9	78.4109	14,419.9	74.0133	14,419.9	61.725	14,419.9	75.3011
14,928.2	73.8671	14,928.2	71.5004	14,928.2	78.1217	14,928.2	73.3655	14,928.2	61.0466	14,928.2	74.8296
15,454.8	74.1482	15,454.8	69.6443	15,454.8	77.1882	15,454.8	72.1425	15,454.8	59.0587	15,454.8	73.8997
15,999.8	75.1001	15,999.8	68.2962	15,999.8	77.1491	15,999.8	72.1583	15,999.8	58.9186	15,999.8	73.9603
16,564.5	77.2032	16,564.5	71.1207	16,564.5	79.8227	16,564.5	74.4019	16,564.5	60.8865	16,564.5	76.4482
17,148.2	78.5447	17,148.2	71.4299	17,148.2	80.9132	17,148.2	75.118	17,148.2	61.4204	17,148.2	77.4615
17,753.2	78.7819	17,753.2	70.9167	17,753.2	81.0888	17,753.2	74.6769	17,753.2	60.0127	17,753.2	77.4929
18,379.4	76.8908	18,379.4	69.7665	18,379.4	79.5408	18,379.4	72.7974	18,379.4	57.3324	18,379.4	75.8367
19,027.6	74.2518	19,027.6	66.8806	19,027.6	77.0447	19,027.6	70.1417	19,027.6	55.9102	19,027.6	73.2809
19,698.5	72.2101	19,698.5	64.1886	19,698.5	75.485	19,698.5	69.3424	19,698.5	54.7972	19,698.5	71.7847
19,999.5	70.2908	19,999.5	62.2281	19,999.5	73.9536	19,999.5	68.512	19,999.5	53.9042	19,999.5	70.3647
