"Horizontal Reflections"							
"Front"		"Side"		"Rear"		"Total Horizontal Reflection"	
"Frequency [Hz]"	"Sound Pessure Level [dB]   /  [	0.2	V at 	1	m]"	"Frequency [Hz]"	"Sound Pessure Level [dB]   /  [	0.2	V at 	1	m]"	"Frequency [Hz]"	"Sound Pessure Level [dB]   /  [	0.2	V at 	1	m]"	"Frequency [Hz]"	"Sound Pessure Level [dB]   /  [	0.2	V at 	1	m]"
20.5078	31.2554	20.5078	33.1152	20.5078	38.7804	20.5078	36.8253
21.2402	18.2792	21.2402	26.85	21.2402	29.4685	21.2402	27.8857
21.9727	32.4713	21.9727	31.8868	21.9727	27.2218	21.9727	30.2152
22.7051	37.541	22.7051	37.3545	22.7051	36.7259	22.7051	37.0738
23.4375	36.0382	23.4375	35.8345	23.4375	35.1427	23.4375	35.5269
24.1699	38.6616	24.1699	38.5229	24.1699	36.3631	24.1699	37.5511
25.6348	42.0265	25.6348	41.8307	25.6348	40.5455	25.6348	41.2447
26.3672	46.2705	26.3672	46.0812	26.3672	45.187	26.3672	45.6738
27.0996	46.9779	27.0996	46.7964	27.0996	45.5913	27.0996	46.2433
27.832	49.6147	27.832	49.4777	27.832	48.7288	27.832	49.128
29.2969	52.4284	29.2969	52.3619	29.2969	51.9203	29.2969	52.1482
30.0293	54.5964	30.0293	54.5361	30.0293	54.0431	30.0293	54.2954
31.4941	56.6911	31.4941	56.5218	31.4941	55.8059	31.4941	56.195
32.2266	58.939	32.2266	58.81	32.2266	58.2073	32.2266	58.5296
33.6914	61.5166	33.6914	61.3493	33.6914	60.6902	33.6914	61.0496
34.4238	63.1348	34.4238	62.9881	34.4238	62.4468	34.4238	62.7416
35.8887	66.1889	35.8887	66.0521	35.8887	65.5047	35.8887	65.8005
37.3535	68.9466	37.3535	68.7832	37.3535	68.1958	37.3535	68.5176
38.8184	71.7085	38.8184	71.5543	38.8184	71.0004	38.8184	71.3032
39.5508	72.9355	39.5508	72.7785	39.5508	72.2281	39.5508	72.5297
41.0156	75.0106	41.0156	74.8551	41.0156	74.3037	41.0156	74.6055
42.4805	76.3401	42.4805	76.1691	42.4805	75.5973	42.4805	75.9128
43.9453	77.2602	43.9453	77.0806	43.9453	76.4885	43.9453	76.8162
45.4102	77.7859	45.4102	77.5999	45.4102	76.9921	45.4102	77.3293
47.6074	77.9571	47.6074	77.7618	47.6074	77.1402	47.6074	77.4864
49.0723	77.9206	49.0723	77.7213	49.0723	77.0953	49.0723	77.4447
50.5371	77.8064	50.5371	77.6017	50.5371	76.97	50.5371	77.3234
52.7344	77.6494	52.7344	77.44	52.7344	76.806	52.7344	77.1616
54.1992	77.543	54.1992	77.332	54.1992	76.6935	54.1992	77.0518
56.3965	77.4099	56.3965	77.1971	56.3965	76.5709	56.3965	76.9233
58.5938	77.2942	58.5938	77.0879	58.5938	76.5155	58.5938	76.8389
60.0586	77.2162	60.0586	76.9966	60.0586	76.3922	60.0586	76.7348
62.2559	77.1571	62.2559	76.9204	62.2559	76.2423	62.2559	76.6266
64.4531	77.1212	64.4531	76.8809	64.4531	76.197	64.4531	76.5852
66.6504	77.1265	66.6504	76.8747	66.6504	76.1724	66.6504	76.5726
69.5801	77.1928	69.5801	76.9399	69.5801	76.2293	69.5801	76.6341
71.7773	77.1394	71.7773	76.8997	71.7773	76.2487	71.7773	76.6197
73.9746	77.2134	73.9746	76.9649	73.9746	76.3001	73.9746	76.6802
76.9043	77.2016	76.9043	76.9517	76.9043	76.2956	76.9043	76.6715
79.834	77.3041	79.834	77.0471	79.834	76.4547	79.834	76.7994
82.7637	77.6124	82.7637	77.3096	82.7637	76.5098	82.7637	76.9723
85.6934	77.7792	85.6934	77.4423	85.6934	76.4715	85.6934	77.0325
88.623	77.4712	88.623	77.2784	88.623	76.7456	88.623	77.046
91.5527	77.4273	91.5527	77.1991	91.5527	76.8499	91.5527	77.0656
94.4824	78.0415	94.4824	77.7074	94.4824	77.0029	94.4824	77.4226
98.1445	78.1544	98.1445	77.8318	98.1445	77.0055	98.1445	77.4864
101.807	78.3024	101.807	77.9861	101.807	77.2583	101.807	77.6861
105.469	78.4394	105.469	78.1236	105.469	77.4243	105.469	77.8372
109.131	78.6562	109.131	78.3345	109.131	77.6471	109.131	78.0551
112.793	78.8594	112.793	78.5251	112.793	77.8315	112.793	78.2455
116.455	79.0673	116.455	78.7137	116.455	77.9779	116.455	78.4183
120.85	79.2614	120.85	78.8941	120.85	78.1645	120.85	78.6047
125.244	79.3698	125.244	78.997	125.244	78.3003	125.244	78.7246
129.639	79.5947	129.639	79.2087	129.639	78.4446	129.639	78.9072
134.033	79.7018	134.033	79.3185	134.033	78.586	134.033	79.0314
138.428	79.8906	138.428	79.4873	138.428	78.7665	138.428	79.2103
143.555	80.1164	143.555	79.6798	143.555	78.9379	143.555	79.4003
148.682	80.2823	148.682	79.826	148.682	79.0576	148.682	79.5386
153.809	80.5796	153.809	80.0984	153.809	79.198	153.809	79.7549
159.668	80.6884	159.668	80.2088	159.668	79.3672	159.668	79.8923
164.795	80.8338	164.795	80.3501	164.795	79.4701	164.795	80.0167
170.654	80.7938	170.654	80.2988	170.654	79.5484	170.654	80.0288
176.514	80.8957	176.514	80.3638	176.514	79.6037	176.514	80.0978
183.105	80.9999	183.105	80.423	183.105	79.5504	183.105	80.1151
189.697	81.1247	189.697	80.5382	189.697	79.5998	189.697	80.2022
196.289	81.1366	196.289	80.5344	196.289	79.7256	196.289	80.2622
202.881	81.2229	202.881	80.5612	202.881	79.6888	202.881	80.2738
210.205	81.2623	210.205	80.5851	210.205	79.6809	210.205	80.2868
217.529	81.227	217.529	80.4947	217.529	79.6571	217.529	80.2404
225.586	81.3867	225.586	80.5774	225.586	79.5929	225.586	80.2752
232.91	81.5496	232.91	80.6686	232.91	79.4721	232.91	80.2906
241.699	81.5856	241.699	80.7153	241.699	79.2034	241.699	80.1993
249.756	81.6633	249.756	80.7707	249.756	79.2024	249.756	80.2372
258.545	81.7498	258.545	80.8766	258.545	79.338	258.545	80.3502
268.066	81.5382	268.066	80.6623	268.066	79.0474	268.066	80.1049
277.588	81.7209	277.588	80.7419	277.588	79.4131	277.588	80.3326
287.109	81.8422	287.109	80.8717	287.109	79.2928	287.109	80.355
297.363	81.7264	297.363	80.7147	297.363	79.0699	297.363	80.1822
307.617	81.7044	307.617	80.6524	307.617	79.0531	307.617	80.1498
318.604	81.7632	318.604	80.6435	318.604	78.6395	318.604	79.9991
329.59	81.6082	329.59	80.5823	329.59	78.4813	329.59	79.8734
341.309	81.307	341.309	80.2666	341.309	78.3139	341.309	79.6192
353.76	81.4604	353.76	80.3648	353.76	78.2099	353.76	79.6557
366.211	81.6773	366.211	80.4389	366.211	78.244	366.211	79.7574
378.662	81.8196	378.662	80.7122	378.662	78.07	378.662	79.8287
392.578	81.3295	392.578	80.45	392.578	77.6383	392.578	79.4378
405.762	81.1933	405.762	80.137	405.762	77.6822	405.762	79.305
420.41	81.3129	420.41	80.5787	420.41	76.9191	420.41	79.2432
435.059	80.7213	435.059	80.1131	435.059	77.2463	435.059	79.0017
450.439	80.9389	450.439	79.9399	450.439	77.7262	450.439	79.1802
466.553	80.8823	466.553	79.7279	466.553	77.8978	466.553	79.1614
482.666	81.0158	482.666	79.5712	482.666	77.3372	482.666	78.9388
500.244	80.6835	500.244	79.3294	500.244	76.8842	500.244	78.5924
517.822	80.4264	517.822	78.6453	517.822	76.5327	517.822	78.1649
536.133	80.8077	536.133	78.829	536.133	75.8733	536.133	78.1317
554.443	80.3522	554.443	78.9311	554.443	75.1154	554.443	77.7774
574.219	80.4544	574.219	78.8596	574.219	74.8624	574.219	77.7174
594.727	80.6314	594.727	78.7632	594.727	74.3908	594.727	77.6257
615.234	80.6959	615.234	79.3094	615.234	73.4259	615.234	77.6443
637.207	80.2417	637.207	79.392	637.207	73.7451	637.207	77.5745
659.912	79.7391	659.912	79.3171	659.912	74.648	659.912	77.5919
683.35	80.2422	683.35	79.5533	683.35	75.492	683.35	78.0831
706.787	80.4631	706.787	79.345	706.787	76.166	706.787	78.2834
731.689	78.1783	731.689	76.6995	731.689	73.797	731.689	75.8462
758.057	74.4632	758.057	71.2091	758.057	67.1469	758.057	70.7334
784.424	79.3816	784.424	76.363	784.424	71.9073	784.424	75.6907
812.256	80.2945	812.256	77.3527	812.256	73.072	812.256	76.6853
840.82	81.2474	840.82	78.0899	840.82	73.4512	840.82	77.4422
870.85	81.9804	870.85	78.6624	870.85	73.8495	870.85	78.0549
901.611	82.3959	901.611	79.2267	901.611	73.4902	901.611	78.3755
933.105	83.0199	933.105	79.7236	933.105	73.5626	933.105	78.8664
966.064	83.5533	966.064	80.2862	966.064	73.532	966.064	79.3268
999.756	83.2593	999.756	80.4944	999.756	73.1184	999.756	79.1977
1,034.91	82.8765	1,034.91	80.9427	1,034.91	73.5993	1,034.91	79.2588
1,071.53	82.6092	1,071.53	80.3438	1,071.53	73.2711	1,071.53	78.8498
1,109.62	82.7733	1,109.62	79.9833	1,109.62	72.9306	1,109.62	78.7424
1,148.44	82.4142	1,148.44	79.3372	1,148.44	72.1807	1,148.44	78.2261
1,189.45	82.3482	1,189.45	79.2226	1,189.45	72.3394	1,189.45	78.173
1,231.2	82.5825	1,231.2	79.0843	1,231.2	71.8561	1,231.2	78.1842
1,274.41	83.964	1,274.41	80.0719	1,274.41	73.2395	1,274.41	79.4353
1,319.82	83.7622	1,319.82	80.2757	1,319.82	72.5596	1,319.82	79.3122
1,365.97	83.7291	1,365.97	80.1891	1,365.97	72.4729	1,365.97	79.2546
1,414.31	83.1964	1,414.31	79.1527	1,414.31	71.1577	1,414.31	78.4718
1,464.11	82.5679	1,464.11	78.4884	1,464.11	70.6141	1,464.11	77.8401
1,515.38	82.006	1,515.38	77.9079	1,515.38	70.1191	1,515.38	77.2789
1,568.85	81.1654	1,568.85	76.6908	1,568.85	68.6535	1,568.85	76.2599
1,624.51	80.0092	1,624.51	75.503	1,624.51	67.1589	1,624.51	75.064
1,681.64	78.9079	1,681.64	74.4566	1,681.64	66.6192	1,681.64	74.0304
1,740.97	78.6028	1,740.97	74.3541	1,740.97	67.0336	1,740.97	73.8616
1,802.49	79.5595	1,802.49	74.9993	1,802.49	67.9966	1,802.49	74.7245
1,866.21	79.9695	1,866.21	75.3327	1,866.21	67.9087	1,866.21	75.0587
1,932.13	79.7798	1,932.13	75.2708	1,932.13	67.5952	1,932.13	74.8948
2,000.24	80.5313	2,000.24	75.8442	2,000.24	68.0934	2,000.24	75.5686
2,070.56	81.5868	2,070.56	76.5269	2,070.56	68.1232	2,070.56	76.4277
2,143.8	81.6362	2,143.8	76.3799	2,143.8	68.11	2,143.8	76.4174
2,219.24	81.2199	2,219.24	75.9344	2,219.24	67.7331	2,219.24	75.9961
2,297.61	82.0056	2,297.61	76.5535	2,297.61	68.327	2,297.61	76.7219
2,378.17	82.3897	2,378.17	77.131	2,378.17	68.1654	2,378.17	77.1196
2,462.4	81.892	2,462.4	76.3251	2,462.4	67.4876	2,462.4	76.5261
2,548.83	81.4086	2,548.83	75.7967	2,548.83	67.313	2,548.83	76.0519
2,638.92	80.7822	2,638.92	75.3106	2,638.92	66.4053	2,638.92	75.4437
2,731.93	80.2283	2,731.93	74.7261	2,731.93	66.0951	2,731.93	74.898
2,828.61	80.4306	2,828.61	74.6976	2,828.61	65.9268	2,828.61	75.0148
2,928.22	80.5161	2,928.22	74.8848	2,928.22	66.6222	2,928.22	75.1689
3,031.49	80.0116	3,031.49	74.4988	3,031.49	66.219	3,031.49	74.7031
3,138.43	80.1967	3,138.43	74.836	3,138.43	65.9997	3,138.43	74.9003
3,249.02	79.9673	3,249.02	75.1055	3,249.02	66.458	3,249.02	74.862
3,363.28	79.3353	3,363.28	75.1378	3,363.28	66.1059	3,363.28	74.4568
3,481.93	80.0251	3,481.93	76.0746	3,481.93	66.5576	3,481.93	75.2109
3,604.98	80.3718	3,604.98	76.5833	3,604.98	66.4	3,604.98	75.5792
3,732.42	80.868	3,732.42	76.7184	3,732.42	66.3291	3,732.42	75.9174
3,863.53	81.523	3,863.53	76.8655	3,863.53	66.0216	3,863.53	76.3569
3,999.76	81.5722	3,999.76	76.6268	3,999.76	65.7081	3,999.76	76.3009
4,141.11	81.4565	4,141.11	76.2908	4,141.11	65.0379	4,141.11	76.096
4,286.87	81.4513	4,286.87	76.2374	4,286.87	65.155	4,286.87	76.082
4,438.48	81.0903	4,438.48	76.0435	4,438.48	64.5171	4,438.48	75.7584
4,594.48	81.0518	4,594.48	75.641	4,594.48	64.4089	4,594.48	75.6123
4,757.08	80.8367	4,757.08	75.627	4,757.08	64.31	4,757.08	75.459
4,924.8	80.7101	4,924.8	75.3077	4,924.8	64.2059	4,924.8	75.2786
5,098.39	80.398	5,098.39	75.4197	5,098.39	64.2658	5,098.39	75.1049
5,277.83	80.2589	5,277.83	75.6257	5,277.83	63.9692	5,277.83	75.0651
5,463.87	81.3871	5,463.87	76.4393	5,463.87	65.0217	5,463.87	76.0932
5,656.49	81.5264	5,656.49	76.9498	5,656.49	65.1191	5,656.49	76.3459
5,856.45	81.6624	5,856.45	77.3093	5,856.45	65.2217	5,856.45	76.5531
6,062.99	81.6704	6,062.99	77.0208	6,062.99	64.2311	6,062.99	76.4297
6,276.86	81.9399	6,276.86	77.1548	6,276.86	63.7515	6,276.86	76.6345
6,498.05	81.9477	6,498.05	77.44	6,498.05	63.8657	6,498.05	76.7339
6,727.29	82.0426	6,727.29	77.6722	6,727.29	64.3791	6,727.29	76.886
6,964.6	82.0531	6,964.6	77.883	6,964.6	64.9836	6,964.6	76.9827
7,209.96	81.7943	7,209.96	77.8292	7,209.96	64.7041	7,209.96	76.7944
7,464.11	81.3772	7,464.11	77.3657	7,464.11	64.3306	7,464.11	76.3624
7,727.78	80.8565	7,727.78	76.9892	7,727.78	63.546	7,727.78	75.8844
8,000.24	80.8591	8,000.24	76.799	8,000.24	62.7569	8,000.24	75.7962
8,282.23	80.9424	8,282.23	76.7722	8,282.23	62.3706	8,282.23	75.8295
8,574.46	80.7232	8,574.46	77.211	8,574.46	62.6268	8,574.46	75.8601
8,876.22	80.5791	8,876.22	77.0428	8,876.22	62.2061	8,876.22	75.7002
9,189.7	79.6894	9,189.7	76.0622	9,189.7	61.3347	9,189.7	74.7767
9,513.43	78.7924	9,513.43	75.0021	9,513.43	60.2612	9,513.43	73.8153
9,848.88	78.2385	9,848.88	74.2228	9,848.88	59.1165	9,848.88	73.1674
10,196.8	77.9499	10,196.8	74.1202	10,196.8	58.2734	10,196.8	72.9349
10,556.4	79.075	10,556.4	75.3689	10,556.4	59.413	10,556.4	74.1058
10,928.5	80.1602	10,928.5	76.3093	10,928.5	60.383	10,928.5	75.1357
11,313.7	80.1382	11,313.7	76.3614	11,313.7	60.8099	11,313.7	75.1491
11,712.9	80.1971	11,712.9	76.4273	11,712.9	60.7914	11,712.9	75.2091
12,126	80.331	12,126	76.4562	12,126	60.8059	12,126	75.3024
12,553.7	80.3631	12,553.7	76.5616	12,553.7	60.7261	12,553.7	75.3592
12,996.1	79.9309	12,996.1	76.2506	12,996.1	60.1984	12,996.1	74.9701
13,454.6	79.2907	13,454.6	75.6299	13,454.6	59.5151	13,454.6	74.3364
13,928.5	79.799	13,928.5	75.5797	13,928.5	59.0824	13,928.5	74.6286
14,419.9	78.4109	14,419.9	74.0133	14,419.9	57.035	14,419.9	73.1705
14,928.2	78.1217	14,928.2	73.3655	14,928.2	56.1683	14,928.2	72.7565
15,454.8	77.1882	15,454.8	72.1425	15,454.8	54.2307	15,454.8	71.722
15,999.8	77.1491	15,999.8	72.1583	15,999.8	54.0691	15,999.8	71.6986
16,564.5	79.8227	16,564.5	74.4019	16,564.5	56.2119	16,564.5	74.2392
17,148.2	80.9132	17,148.2	75.118	17,148.2	56.3852	17,148.2	75.2179
17,753.2	81.0888	17,753.2	74.6769	17,753.2	54.8691	17,753.2	75.2245
18,379.4	79.5408	18,379.4	72.7974	18,379.4	52.5389	18,379.4	73.5942
19,027.6	77.0447	19,027.6	70.1417	19,027.6	50.908	19,027.6	71.0657
19,698.5	75.485	19,698.5	69.3424	19,698.5	49.9203	19,698.5	69.6917
19,999.5	73.9536	19,999.5	68.512	19,999.5	49.081	19,999.5	68.355
