"SPL Vertical"																																																																							
"On-Axis"		"10°"		"-10°"		"20°"		"-20°"		"30°"		"-30°"		"40°"		"-40°"		"50°"		"-50°"		"60°"		"-60°"		"70°"		"-70°"		"80°"		"-80°"		"90°"		"-90°"		"100°"		"-100°"		"110°"		"-110°"		"120°"		"-120°"		"130°"		"-130°"		"140°"		"-140°"		"150°"		"-150°"		"160°"		"-160°"		"170°"		"-170°"		"180°"	
"Frequency [Hz]"	"Sound Pessure Level [dB]    /  [	0.2	V at 	1	m]"	"Frequency [Hz]"	"Sound Pessure Level [dB]    /  [	0.2	V at 	1	m]"	"Frequency [Hz]"	"Sound Pessure Level [dB]    /  [	0.2	V at 	1	m]"	"Frequency [Hz]"	"Sound Pessure Level [dB]    /  [	0.2	V at 	1	m]"	"Frequency [Hz]"	"Sound Pessure Level [dB]    /  [	0.2	V at 	1	m]"	"Frequency [Hz]"	"Sound Pessure Level [dB]    /  [	0.2	V at 	1	m]"	"Frequency [Hz]"	"Sound Pessure Level [dB]    /  [	0.2	V at 	1	m]"	"Frequency [Hz]"	"Sound Pessure Level [dB]    /  [	0.2	V at 	1	m]"	"Frequency [Hz]"	"Sound Pessure Level [dB]    /  [	0.2	V at 	1	m]"	"Frequency [Hz]"	"Sound Pessure Level [dB]    /  [	0.2	V at 	1	m]"	"Frequency [Hz]"	"Sound Pessure Level [dB]    /  [	0.2	V at 	1	m]"	"Frequency [Hz]"	"Sound Pessure Level [dB]    /  [	0.2	V at 	1	m]"	"Frequency [Hz]"	"Sound Pessure Level [dB]    /  [	0.2	V at 	1	m]"	"Frequency [Hz]"	"Sound Pessure Level [dB]    /  [	0.2	V at 	1	m]"	"Frequency [Hz]"	"Sound Pessure Level [dB]    /  [	0.2	V at 	1	m]"	"Frequency [Hz]"	"Sound Pessure Level [dB]    /  [	0.2	V at 	1	m]"	"Frequency [Hz]"	"Sound Pessure Level [dB]    /  [	0.2	V at 	1	m]"	"Frequency [Hz]"	"Sound Pessure Level [dB]    /  [	0.2	V at 	1	m]"	"Frequency [Hz]"	"Sound Pessure Level [dB]    /  [	0.2	V at 	1	m]"	"Frequency [Hz]"	"Sound Pessure Level [dB]    /  [	0.2	V at 	1	m]"	"Frequency [Hz]"	"Sound Pessure Level [dB]    /  [	0.2	V at 	1	m]"	"Frequency [Hz]"	"Sound Pessure Level [dB]    /  [	0.2	V at 	1	m]"	"Frequency [Hz]"	"Sound Pessure Level [dB]    /  [	0.2	V at 	1	m]"	"Frequency [Hz]"	"Sound Pessure Level [dB]    /  [	0.2	V at 	1	m]"	"Frequency [Hz]"	"Sound Pessure Level [dB]    /  [	0.2	V at 	1	m]"	"Frequency [Hz]"	"Sound Pessure Level [dB]    /  [	0.2	V at 	1	m]"	"Frequency [Hz]"	"Sound Pessure Level [dB]    /  [	0.2	V at 	1	m]"	"Frequency [Hz]"	"Sound Pessure Level [dB]    /  [	0.2	V at 	1	m]"	"Frequency [Hz]"	"Sound Pessure Level [dB]    /  [	0.2	V at 	1	m]"	"Frequency [Hz]"	"Sound Pessure Level [dB]    /  [	0.2	V at 	1	m]"	"Frequency [Hz]"	"Sound Pessure Level [dB]    /  [	0.2	V at 	1	m]"	"Frequency [Hz]"	"Sound Pessure Level [dB]    /  [	0.2	V at 	1	m]"	"Frequency [Hz]"	"Sound Pessure Level [dB]    /  [	0.2	V at 	1	m]"	"Frequency [Hz]"	"Sound Pessure Level [dB]    /  [	0.2	V at 	1	m]"	"Frequency [Hz]"	"Sound Pessure Level [dB]    /  [	0.2	V at 	1	m]"	"Frequency [Hz]"	"Sound Pessure Level [dB]    /  [	0.2	V at 	1	m]"
20.5078	31.0145	20.5078	31.1666	20.5078	31.0854	20.5078	31.5141	20.5078	31.3597	20.5078	32.0075	20.5078	31.7648	20.5078	32.6003	20.5078	32.1918	20.5078	33.2602	20.5078	32.518	20.5078	33.9688	20.5078	32.6161	20.5078	34.7161	20.5078	32.3507	20.5078	35.4948	20.5078	31.565	20.5078	36.2957	20.5078	30.093	20.5078	37.1058	20.5078	28.0266	20.5078	37.9077	20.5078	27.174	20.5078	38.6796	20.5078	29.8063	20.5078	39.3952	20.5078	33.2727	20.5078	40.0232	20.5078	36.0357	20.5078	40.5263	20.5078	38.0452	20.5078	40.8613	20.5078	39.4391	20.5078	40.9791	20.5078	40.3355	20.5078	40.8246
21.2402	7.49966	21.2402	6.30172	21.2402	10.8681	21.2402	8.93566	21.2402	13.8566	21.2402	12.0769	21.2402	16.2012	21.2402	14.6696	21.2402	17.9915	21.2402	16.802	21.2402	19.2657	21.2402	18.6296	21.2402	19.9829	21.2402	20.2592	21.2402	20.0147	21.2402	21.7566	21.2402	19.0892	21.2402	23.1576	21.2402	16.5469	21.2402	24.4764	21.2402	9.80013	21.2402	25.7114	21.2402	4.90768	21.2402	26.8498	21.2402	17.4675	21.2402	27.8718	21.2402	22.6398	21.2402	28.7533	21.2402	25.7686	21.2402	29.4666	21.2402	27.8084	21.2402	29.9799	21.2402	29.1221	21.2402	30.2559	21.2402	29.8967	21.2402	30.248
21.9727	32.531	21.9727	31.462	21.9727	33.5641	21.9727	30.3606	21.9727	34.5499	21.9727	29.2217	21.9727	35.4691	21.9727	28.0306	21.9727	36.2954	21.9727	26.7612	21.9727	36.9961	21.9727	25.3721	21.9727	37.5334	21.9727	23.8002	21.9727	37.866	21.9727	21.9483	21.9727	37.9503	21.9727	19.6602	21.9727	37.7412	21.9727	16.6766	21.9727	37.1909	21.9727	12.6461	21.9727	36.2476	21.9727	8.74111	21.9727	34.8515	21.9727	10.768	21.9727	32.9282	21.9727	14.3829	21.9727	30.3815	21.9727	16.6703	21.9727	27.0957	21.9727	17.7351	21.9727	23.0434	21.9727	17.7598	21.9727	18.9976	21.9727	17.3944
22.7051	37.5606	22.7051	36.8787	22.7051	38.2601	22.7051	36.2251	22.7051	38.9614	22.7051	35.6081	22.7051	39.6432	22.7051	35.0356	22.7051	40.278	22.7051	34.5181	22.7051	40.8331	22.7051	34.0705	22.7051	41.2731	22.7051	33.7123	22.7051	41.5619	22.7051	33.4662	22.7051	41.6671	22.7051	33.3533	22.7051	41.5638	22.7051	33.3883	22.7051	41.2416	22.7051	33.5733	22.7051	40.7136	22.7051	33.896	22.7051	40.0265	22.7051	34.3303	22.7051	39.2668	22.7051	34.8396	22.7051	38.5468	22.7051	35.3808	22.7051	37.9566	22.7051	35.9095	22.7051	37.5122	22.7051	36.388	22.7051	37.1536	22.7051	36.7977
23.4375	36.0554	23.4375	35.2484	23.4375	36.8672	23.4375	34.4667	23.4375	37.6612	23.4375	33.7298	23.4375	38.4121	23.4375	33.0585	23.4375	39.0914	23.4375	32.4756	23.4375	39.6686	23.4375	32.0058	23.4375	40.1119	23.4375	31.6736	23.4375	40.3907	23.4375	31.4986	23.4375	40.4776	23.4375	31.4907	23.4375	40.3521	23.4375	31.6463	23.4375	40.0052	23.4375	31.9479	23.4375	39.4465	23.4375	32.3659	23.4375	38.7144	23.4375	32.8628	23.4375	37.8854	23.4375	33.396	23.4375	37.0699	23.4375	33.9223	23.4375	36.3783	23.4375	34.4039	23.4375	35.8623	23.4375	34.817	23.4375	35.4864	23.4375	35.1642
24.1699	38.6653	24.1699	38.0884	24.1699	39.2737	24.1699	37.5511	24.1699	39.8996	24.1699	37.0558	24.1699	40.523	24.1699	36.6006	24.1699	41.1183	24.1699	36.1797	24.1699	41.6553	24.1699	35.7847	24.1699	42.1015	24.1699	35.4047	24.1699	42.4235	24.1699	35.0283	24.1699	42.5894	24.1699	34.6442	24.1699	42.5703	24.1699	34.2441	24.1699	42.3421	24.1699	33.8255	24.1699	41.8872	24.1699	33.3975	24.1699	41.1967	24.1699	32.9887	24.1699	40.2743	24.1699	32.6567	24.1699	39.1413	24.1699	32.4916	24.1699	37.8441	24.1699	32.6029	24.1699	36.4626	24.1699	33.0801	24.1699	35.1138	24.1699	33.9415
25.6348	42.0403	25.6348	41.3146	25.6348	42.773	25.6348	40.609	25.6348	43.4963	25.6348	39.9344	25.6348	44.1904	25.6348	39.2999	25.6348	44.8324	25.6348	38.7141	25.6348	45.397	25.6348	38.1853	25.6348	45.8577	25.6348	37.7228	25.6348	46.1884	25.6348	37.3358	25.6348	46.3656	25.6348	37.0345	25.6348	46.3698	25.6348	36.8285	25.6348	46.188	25.6348	36.7276	25.6348	45.8147	25.6348	36.7408	25.6348	45.2545	25.6348	36.8776	25.6348	44.5234	25.6348	37.1475	25.6348	43.6499	25.6348	37.56	25.6348	42.6752	25.6348	38.1219	25.6348	41.6509	25.6348	38.8329	25.6348	40.6343	25.6348	39.68
26.3672	46.2883	26.3672	45.7032	26.3672	46.8994	26.3672	45.1554	26.3672	47.5214	26.3672	44.6524	26.3672	48.1349	26.3672	44.1991	26.3672	48.7165	26.3672	43.7986	26.3672	49.2398	26.3672	43.4527	26.3672	49.6768	26.3672	43.1625	26.3672	49.9997	26.3672	42.9294	26.3672	50.1836	26.3672	42.7546	26.3672	50.2081	26.3672	42.6403	26.3672	50.0602	26.3672	42.59	26.3672	49.7364	26.3672	42.6086	26.3672	49.2444	26.3672	42.7034	26.3672	48.6049	26.3672	42.8839	26.3672	47.852	26.3672	43.1613	26.3672	47.031	26.3672	43.5469	26.3672	46.194	26.3672	44.049	26.3672	45.3924	26.3672	44.6682
27.0996	46.9926	27.0996	46.3884	27.0996	47.6163	27.0996	45.8135	27.0996	48.2459	27.0996	45.2745	27.0996	48.8638	27.0996	44.7756	27.0996	49.4486	27.0996	44.3192	27.0996	49.9755	27.0996	43.9072	27.0996	50.4176	27.0996	43.5409	27.0996	50.7479	27.0996	43.2224	27.0996	50.9406	27.0996	42.9548	27.0996	50.9736	27.0996	42.7432	27.0996	50.8306	27.0996	42.5954	27.0996	50.5027	27.0996	42.5235	27.0996	49.9911	27.0996	42.5441	27.0996	49.3089	27.0996	42.6786	27.0996	48.4828	27.0996	42.9503	27.0996	47.5545	27.0996	43.3798	27.0996	46.5783	27.0996	43.9769	27.0996	45.617	27.0996	44.733
27.832	49.6278	27.832	49.086	27.832	50.195	27.832	48.5802	27.832	50.7732	27.832	48.118	27.832	51.3443	27.832	47.7044	27.832	51.8867	27.832	47.3421	27.832	52.3762	27.832	47.0328	27.832	52.7874	27.832	46.777	27.832	53.095	27.832	46.5752	27.832	53.2761	27.832	46.4278	27.832	53.3121	27.832	46.3361	27.832	53.1906	27.832	46.3022	27.832	52.9075	27.832	46.3297	27.832	52.4687	27.832	46.4244	27.832	51.8914	27.832	46.5945	27.832	51.205	27.832	46.8515	27.832	50.4499	27.832	47.2077	27.832	49.6741	27.832	47.6734	27.832	48.9268	27.832	48.2504
29.2969	52.4338	29.2969	51.9192	29.2969	52.9741	29.2969	51.441	29.2969	53.5266	29.2969	51.0068	29.2969	54.074	29.2969	50.6218	29.2969	54.5962	29.2969	50.2894	29.2969	55.0709	29.2969	50.0116	29.2969	55.4743	29.2969	49.7893	29.2969	55.7835	29.2969	49.6235	29.2969	55.9772	29.2969	49.5147	29.2969	56.0388	29.2969	49.4645	29.2969	55.9572	29.2969	49.4752	29.2969	55.7294	29.2969	49.5504	29.2969	55.3611	29.2969	49.695	29.2969	54.8682	29.2969	49.915	29.2969	54.2763	29.2969	50.2164	29.2969	53.6193	29.2969	50.604	29.2969	52.9357	29.2969	51.0793	29.2969	52.264	29.2969	51.6372
30.0293	54.6001	30.0293	54.0939	30.0293	55.1342	30.0293	53.6251	30.0293	55.6837	30.0293	53.2003	30.0293	56.2324	30.0293	52.8241	30.0293	56.7609	30.0293	52.4991	30.0293	57.2468	30.0293	52.2269	30.0293	57.6658	30.0293	52.0078	30.0293	57.9935	30.0293	51.8422	30.0293	58.2068	30.0293	51.7298	30.0293	58.2862	30.0293	51.6712	30.0293	58.2181	30.0293	51.6678	30.0293	57.9962	30.0293	51.7229	30.0293	57.6235	30.0293	51.8418	30.0293	57.1142	30.0293	52.033	30.0293	56.4938	30.0293	52.3067	30.0293	55.7987	30.0293	52.6739	30.0293	55.073	30.0293	53.1419	30.0293	54.3631	30.0293	53.7097
31.4941	56.709	31.4941	56.2149	31.4941	57.2266	31.4941	55.754	31.4941	57.7545	31.4941	55.3331	31.4941	58.2762	31.4941	54.9566	31.4941	58.7718	31.4941	54.627	31.4941	59.2189	31.4941	54.3456	31.4941	59.5934	31.4941	54.1128	31.4941	59.8716	31.4941	53.9289	31.4941	60.0318	31.4941	53.794	31.4941	60.0566	31.4941	53.709	31.4941	59.9348	31.4941	53.6759	31.4941	59.6635	31.4941	53.6982	31.4941	59.2498	31.4941	53.7816	31.4941	58.7119	31.4941	53.934	31.4941	58.0793	31.4941	54.1653	31.4941	57.3908	31.4941	54.4855	31.4941	56.6904	31.4941	54.9025	31.4941	56.0209	31.4941	55.4174
32.2266	58.9527	32.2266	58.4922	32.2266	59.4352	32.2266	58.0628	32.2266	59.9278	32.2266	57.6709	32.2266	60.415	32.2266	57.3207	32.2266	60.8785	32.2266	57.0149	32.2266	61.2973	32.2266	56.755	32.2266	61.649	32.2266	56.5417	32.2266	61.911	32.2266	56.3755	32.2266	62.0631	32.2266	56.2571	32.2266	62.0889	32.2266	56.1873	32.2266	61.9781	32.2266	56.1681	32.2266	61.7288	32.2266	56.2024	32.2266	61.3484	32.2266	56.2946	32.2266	60.8549	32.2266	56.4506	32.2266	60.2762	32.2266	56.6778	32.2266	59.6482	32.2266	56.9835	32.2266	59.0105	32.2266	57.3736	32.2266	58.4006	32.2266	57.8486
33.6914	61.5352	33.6914	61.0836	33.6914	62.0072	33.6914	60.6614	33.6914	62.4878	33.6914	60.2751	33.6914	62.962	33.6914	59.9292	33.6914	63.4119	33.6914	59.6266	33.6914	63.8168	33.6914	59.3691	33.6914	64.1548	33.6914	59.1578	33.6914	64.4038	33.6914	58.9932	33.6914	64.5437	33.6914	58.8757	33.6914	64.5585	33.6914	58.8057	33.6914	64.4382	33.6914	58.784	33.6914	64.1808	33.6914	58.8124	33.6914	63.7941	33.6914	58.8941	33.6914	63.2964	33.6914	59.0342	33.6914	62.7165	33.6914	59.2401	33.6914	62.0913	33.6914	59.5207	33.6914	61.4617	33.6914	59.8843	33.6914	60.8661	33.6914	60.3345
34.4238	63.1512	34.4238	62.7152	34.4238	63.6071	34.4238	62.3077	34.4238	64.0715	34.4238	61.935	34.4238	64.53	34.4238	61.6018	34.4238	64.9654	34.4238	61.3109	34.4238	65.3579	34.4238	61.0646	34.4238	65.6868	34.4238	60.8643	34.4238	65.9311	34.4238	60.7109	34.4238	66.0722	34.4238	60.6054	34.4238	66.0952	34.4238	60.5486	34.4238	65.9911	34.4238	60.5419	34.4238	65.7587	34.4238	60.5871	34.4238	65.4056	34.4238	60.6871	34.4238	64.949	34.4238	60.846	34.4238	64.4148	34.4238	61.0691	34.4238	63.836	34.4238	61.3624	34.4238	63.2484	34.4238	61.7305	34.4238	62.6854	34.4238	62.1738
35.8887	66.2039	35.8887	65.7973	35.8887	66.6292	35.8887	65.4174	35.8887	67.0622	35.8887	65.0701	35.8887	67.4894	35.8887	64.7598	35.8887	67.8943	35.8887	64.4891	35.8887	68.258	35.8887	64.2601	35.8887	68.5606	35.8887	64.074	35.8887	68.7818	35.8887	63.9315	35.8887	68.9038	35.8887	63.8333	35.8887	68.9124	35.8887	63.78	35.8887	68.7996	35.8887	63.7722	35.8887	68.5652	35.8887	63.8112	35.8887	68.2181	35.8887	63.899	35.8887	67.7766	35.8887	64.0385	35.8887	67.2678	35.8887	64.2343	35.8887	66.7245	35.8887	64.4917	35.8887	66.1813	35.8887	64.816	35.8887	65.6688	35.8887	65.2095
37.3535	68.9653	37.3535	68.5722	37.3535	69.3749	37.3535	68.2034	37.3535	69.7903	37.3535	67.8649	37.3535	70.1983	37.3535	67.561	37.3535	70.583	37.3535	67.2947	37.3535	70.9262	37.3535	67.0682	37.3535	71.2084	37.3535	66.8829	37.3535	71.4104	37.3535	66.7401	37.3535	71.5148	37.3535	66.6403	37.3535	71.5085	37.3535	66.5842	37.3535	71.3841	37.3535	66.5723	37.3535	71.1424	37.3535	66.6055	37.3535	70.7932	37.3535	66.685	37.3535	70.3558	37.3535	66.8131	37.3535	69.8578	37.3535	66.9935	37.3535	69.3323	37.3535	67.2311	37.3535	68.8127	37.3535	67.5313	37.3535	68.3278	37.3535	67.8973
38.8184	71.7264	38.8184	71.353	38.8184	72.1147	38.8184	71.0023	38.8184	72.5081	38.8184	70.68	38.8184	72.8939	38.8184	70.3904	38.8184	73.2571	38.8184	70.1365	38.8184	73.5806	38.8184	69.9206	38.8184	73.8459	38.8184	69.7443	38.8184	74.0348	38.8184	69.6088	38.8184	74.1311	38.8184	69.5147	38.8184	74.1225	38.8184	69.4627	38.8184	74.0024	38.8184	69.4531	38.8184	73.7719	38.8184	69.4865	38.8184	73.4407	38.8184	69.5639	38.8184	73.0274	38.8184	69.6873	38.8184	72.5582	38.8184	69.8598	38.8184	72.064	38.8184	70.0857	38.8184	71.5759	38.8184	70.3698	38.8184	71.1202	38.8184	70.7151
39.5508	72.9539	39.5508	72.5906	39.5508	73.3315	39.5508	72.2494	39.5508	73.7137	39.5508	71.9358	39.5508	74.0881	39.5508	71.6542	39.5508	74.4398	39.5508	71.4075	39.5508	74.752	39.5508	71.198	39.5508	75.0066	39.5508	71.0275	39.5508	75.1856	39.5508	70.8969	39.5508	75.2732	39.5508	70.8071	39.5508	75.2575	39.5508	70.7585	39.5508	75.1327	39.5508	70.7511	39.5508	74.9004	39.5508	70.7852	39.5508	74.5713	39.5508	70.861	39.5508	74.1648	39.5508	70.9797	39.5508	73.7074	39.5508	71.1438	39.5508	73.2301	39.5508	71.357	39.5508	72.7628	39.5508	71.6239	39.5508	72.3303	39.5508	71.9483
41.0156	75.0284	41.0156	74.6763	41.0156	75.3946	41.0156	74.3455	41.0156	75.7654	41.0156	74.0415	41.0156	76.129	41.0156	73.7683	41.0156	76.4713	41.0156	73.5286	41.0156	76.7758	41.0156	73.3246	41.0156	77.0252	41.0156	73.1576	41.0156	77.2022	41.0156	73.0287	41.0156	77.2911	41.0156	72.9384	41.0156	77.2801	41.0156	72.8871	41.0156	77.1629	41.0156	72.875	41.0156	76.9404	41.0156	72.9027	41.0156	76.622	41.0156	72.9709	41.0156	76.2256	41.0156	73.0818	41.0156	75.7766	41.0156	73.2384	41.0156	75.3052	41.0156	73.4455	41.0156	74.8413	41.0156	73.7082	41.0156	74.4105	41.0156	74.0301
42.4805	76.3603	42.4805	76.0127	42.4805	76.7193	42.4805	75.6841	42.4805	77.0805	42.4805	75.3801	42.4805	77.4323	42.4805	75.1049	42.4805	77.7606	42.4805	74.8619	42.4805	78.0498	42.4805	74.6534	42.4805	78.2831	42.4805	74.4814	42.4805	78.444	42.4805	74.3471	42.4805	78.518	42.4805	74.2517	42.4805	78.4943	42.4805	74.196	42.4805	78.368	42.4805	74.1805	42.4805	78.1412	42.4805	74.206	42.4805	77.8242	42.4805	74.2735	42.4805	77.4355	42.4805	74.3844	42.4805	76.9999	42.4805	74.5413	42.4805	76.5458	42.4805	74.7472	42.4805	76.1005	42.4805	75.0058	42.4805	75.6867	42.4805	75.3194
43.9453	77.2814	43.9453	76.9457	43.9453	77.6271	43.9453	76.6272	43.9453	77.9735	43.9453	76.3314	43.9453	78.3094	43.9453	76.0626	43.9453	78.6214	43.9453	75.8243	43.9453	78.8944	43.9453	75.6189	43.9453	79.1123	43.9453	75.4484	43.9453	79.2592	43.9453	75.3143	43.9453	79.3214	43.9453	75.2177	43.9453	79.2889	43.9453	75.1594	43.9453	79.1572	43.9453	75.14	43.9453	78.9292	43.9453	75.1601	43.9453	78.6155	43.9453	75.2206	43.9453	78.2347	43.9453	75.323	43.9453	77.8114	43.9453	75.4692	43.9453	77.3731	43.9453	75.6625	43.9453	76.9461	43.9453	75.9062	43.9453	76.5514	43.9453	76.2027
45.4102	77.808	45.4102	77.4819	45.4102	78.1428	45.4102	77.1716	45.4102	78.4774	45.4102	76.8826	45.4102	78.8009	45.4102	76.6193	45.4102	79.1002	45.4102	76.385	45.4102	79.3606	45.4102	76.1822	45.4102	79.5667	45.4102	76.0131	45.4102	79.7031	45.4102	75.8791	45.4102	79.7566	45.4102	75.7813	45.4102	79.7177	45.4102	75.7206	45.4102	79.5824	45.4102	75.6978	45.4102	79.354	45.4102	75.7133	45.4102	79.0433	45.4102	75.7682	45.4102	78.669	45.4102	75.8635	45.4102	78.2553	45.4102	76.0015	45.4102	77.8292	45.4102	76.185	45.4102	77.416	45.4102	76.4173	45.4102	77.0357	45.4102	76.701
47.6074	77.9805	47.6074	77.6656	47.6074	78.3024	47.6074	77.3646	47.6074	78.6226	47.6074	77.0831	47.6074	78.9304	47.6074	76.8256	47.6074	79.2133	47.6074	76.5955	47.6074	79.4572	47.6074	76.3956	47.6074	79.6472	47.6074	76.2281	47.6074	79.7688	47.6074	76.0946	47.6074	79.8096	47.6074	75.9965	47.6074	79.761	47.6074	75.9345	47.6074	79.6199	47.6074	75.9095	47.6074	79.3903	47.6074	75.9219	47.6074	79.0836	47.6074	75.9722	47.6074	78.7189	47.6074	76.0614	47.6074	78.3199	47.6074	76.191	47.6074	77.9126	47.6074	76.3633	47.6074	77.5206	47.6074	76.5813	47.6074	77.1619	47.6074	76.8474
49.0723	77.9446	49.0723	77.6366	49.0723	78.2587	49.0723	77.3415	49.0723	78.5702	49.0723	77.065	49.0723	78.8687	49.0723	76.8115	49.0723	79.142	49.0723	76.5846	49.0723	79.3763	49.0723	76.3871	49.0723	79.5572	49.0723	76.2211	49.0723	79.6707	49.0723	76.0886	49.0723	79.705	49.0723	75.9907	49.0723	79.6518	49.0723	75.9284	49.0723	79.5086	49.0723	75.9024	49.0723	79.2796	49.0723	75.913	49.0723	78.9767	49.0723	75.9608	49.0723	78.6185	49.0723	76.0463	49.0723	78.2287	49.0723	76.1709	49.0723	77.8325	49.0723	76.3368	49.0723	77.4526	49.0723	76.5466	49.0723	77.106	49.0723	76.8028
50.5371	77.8312	50.5371	77.5272	50.5371	78.1403	50.5371	77.2351	50.5371	78.4459	50.5371	76.9606	50.5371	78.7379	50.5371	76.7082	50.5371	79.0043	50.5371	76.4814	50.5371	79.2317	50.5371	76.2834	50.5371	79.4061	50.5371	76.1164	50.5371	79.514	50.5371	75.9824	50.5371	79.5439	50.5371	75.8829	50.5371	79.488	50.5371	75.819	50.5371	79.344	50.5371	75.7914	50.5371	79.1164	50.5371	75.8007	50.5371	78.817	50.5371	75.8472	50.5371	78.4641	50.5371	75.9317	50.5371	78.0809	50.5371	76.0552	50.5371	77.6918	50.5371	76.2195	50.5371	77.3188	50.5371	76.4269	50.5371	76.9782	50.5371	76.6797
52.7344	77.6748	52.7344	77.3792	52.7344	77.9743	52.7344	77.0943	52.7344	78.2692	52.7344	76.8256	52.7344	78.5496	52.7344	76.5778	52.7344	78.8039	52.7344	76.3546	52.7344	79.0193	52.7344	76.159	52.7344	79.1824	52.7344	75.9938	52.7344	79.2803	52.7344	75.8607	52.7344	79.3022	52.7344	75.7615	52.7344	79.241	52.7344	75.6972	52.7344	79.095	52.7344	75.6687	52.7344	78.8692	52.7344	75.6763	52.7344	78.5753	52.7344	75.7205	52.7344	78.2319	52.7344	75.8015	52.7344	77.8613	52.7344	75.9203	52.7344	77.4871	52.7344	76.0782	52.7344	77.1296	52.7344	76.2771	52.7344	76.8041	52.7344	76.5189
54.1992	77.5687	54.1992	77.277	54.1992	77.8636	54.1992	76.9954	54.1992	78.1534	54.1992	76.7294	54.1992	78.4284	54.1992	76.4837	54.1992	78.6771	54.1992	76.262	54.1992	78.8869	54.1992	76.0676	54.1992	79.0448	54.1992	75.9028	54.1992	79.1382	54.1992	75.7697	54.1992	79.1566	54.1992	75.67	54.1992	79.0933	54.1992	75.6046	54.1992	78.9468	54.1992	75.5745	54.1992	78.722	54.1992	75.58	54.1992	78.4309	54.1992	75.6216	54.1992	78.0915	54.1992	75.6998	54.1992	77.7258	54.1992	75.8154	54.1992	77.3568	54.1992	75.9699	54.1992	77.0046	54.1992	76.1652	54.1992	76.6839	54.1992	76.4031
56.3965	77.4359	56.3965	77.1502	56.3965	77.7239	56.3965	76.8735	56.3965	78.006	56.3965	76.6115	56.3965	78.2727	56.3965	76.369	56.3965	78.5129	56.3965	76.1499	56.3965	78.7145	56.3965	75.9574	56.3965	78.865	56.3965	75.7943	56.3965	78.9525	56.3965	75.6626	56.3965	78.9672	56.3965	75.5641	56.3965	78.9029	56.3965	75.5001	56.3965	78.7584	56.3965	75.4713	56.3965	78.5389	56.3965	75.4783	56.3965	78.2563	56.3965	75.5213	56.3965	77.9279	56.3965	75.6006	56.3965	77.5751	56.3965	75.7167	56.3965	77.2194	56.3965	75.8704	56.3965	76.8795	56.3965	76.0632	56.3965	76.5692	56.3965	76.2961
58.5938	77.3197	58.5938	77.0421	58.5938	77.5992	58.5938	76.7731	58.5938	77.8725	58.5938	76.5185	58.5938	78.1301	58.5938	76.2831	58.5938	78.3615	58.5938	76.071	58.5938	78.555	58.5938	75.8856	58.5938	78.6988	58.5938	75.7294	58.5938	78.7817	58.5938	75.6049	58.5938	78.7947	58.5938	75.5136	58.5938	78.7325	58.5938	75.4568	58.5938	78.5948	58.5938	75.4353	58.5938	78.3871	58.5938	75.4495	58.5938	78.1214	58.5938	75.4995	58.5938	77.8141	58.5938	75.5851	58.5938	77.485	58.5938	75.706	58.5938	77.1533	58.5938	75.8623	58.5938	76.8352	58.5938	76.0538	58.5938	76.5421	58.5938	76.2807
60.0586	77.2435	60.0586	76.9675	60.0586	77.5202	60.0586	76.699	60.0586	77.7895	60.0586	76.444	60.0586	78.0419	60.0586	76.2073	60.0586	78.2668	60.0586	75.9933	60.0586	78.4527	60.0586	75.8055	60.0586	78.5877	60.0586	75.647	60.0586	78.6609	60.0586	75.52	60.0586	78.6635	60.0586	75.4265	60.0586	78.5906	60.0586	75.3676	60.0586	78.4425	60.0586	75.344	60.0586	78.2258	60.0586	75.3558	60.0586	77.9531	60.0586	75.4026	60.0586	77.6424	60.0586	75.4839	60.0586	77.3137	60.0586	75.599	60.0586	76.9866	60.0586	75.7473	60.0586	76.6767	60.0586	75.929	60.0586	76.3944	60.0586	76.1446
62.2559	77.1864	62.2559	76.9108	62.2559	77.4609	62.2559	76.6412	62.2559	77.7264	62.2559	76.3833	62.2559	77.9735	62.2559	76.1423	62.2559	78.1918	62.2559	75.9224	62.2559	78.3699	62.2559	75.7273	62.2559	78.4963	62.2559	75.56	62.2559	78.5602	62.2559	75.4232	62.2559	78.5532	62.2559	75.3188	62.2559	78.4705	62.2559	75.2482	62.2559	78.3124	62.2559	75.2123	62.2559	78.0855	62.2559	75.2115	62.2559	77.8024	62.2559	75.246	62.2559	77.4811	62.2559	75.3156	62.2559	77.1422	62.2559	75.4204	62.2559	76.8058	62.2559	75.5605	62.2559	76.4885	62.2559	75.7368	62.2559	76.2014	62.2559	75.9503
64.4531	77.151	64.4531	76.88	64.4531	77.42	64.4531	76.614	64.4531	77.6792	64.4531	76.3588	64.4531	77.9196	64.4531	76.1195	64.4531	78.1308	64.4531	75.9005	64.4531	78.3022	64.4531	75.7055	64.4531	78.4225	64.4531	75.5376	64.4531	78.4816	64.4531	75.3995	64.4531	78.4714	64.4531	75.2931	64.4531	78.3876	64.4531	75.22	64.4531	78.2307	64.4531	75.1814	64.4531	78.0071	64.4531	75.1777	64.4531	77.7291	64.4531	75.2093	64.4531	77.4139	64.4531	75.2764	64.4531	77.0812	64.4531	75.379	64.4531	76.7505	64.4531	75.5175	64.4531	76.4376	64.4531	75.6925	64.4531	76.1537	64.4531	75.9046
66.6504	77.1578	66.6504	76.8908	66.6504	77.4216	66.6504	76.6275	66.6504	77.6745	66.6504	76.3738	66.6504	77.9076	66.6504	76.1347	66.6504	78.1108	66.6504	75.9147	66.6504	78.2736	66.6504	75.7177	66.6504	78.3852	66.6504	75.547	66.6504	78.436	66.6504	75.4054	66.6504	78.4182	66.6504	75.2952	66.6504	78.3282	66.6504	75.2181	66.6504	78.167	66.6504	75.1755	66.6504	77.9415	66.6504	75.1682	66.6504	77.6646	66.6504	75.1968	66.6504	77.3532	66.6504	75.2613	66.6504	77.0268	66.6504	75.3617	66.6504	76.7037	66.6504	75.498	66.6504	76.3988	66.6504	75.6702	66.6504	76.1218	66.6504	75.8783
69.5801	77.2242	69.5801	76.9601	69.5801	77.4851	69.5801	76.6996	69.5801	77.735	69.5801	76.4485	69.5801	77.965	69.5801	76.2118	69.5801	78.165	69.5801	75.9939	69.5801	78.3245	69.5801	75.7985	69.5801	78.4326	69.5801	75.6288	69.5801	78.4798	69.5801	75.4876	69.5801	78.4586	69.5801	75.3771	69.5801	78.3653	69.5801	75.299	69.5801	78.2014	69.5801	75.2546	69.5801	77.974	69.5801	75.2449	69.5801	77.6962	69.5801	75.2704	69.5801	77.3853	69.5801	75.3311	69.5801	77.0606	69.5801	75.4271	69.5801	76.7404	69.5801	75.5586	69.5801	76.4393	69.5801	75.7256	69.5801	76.1669	69.5801	75.9284
71.7773	77.1695	71.7773	76.909	71.7773	77.4264	71.7773	76.6519	71.7773	77.6718	71.7773	76.4044	71.7773	77.8969	71.7773	76.1719	71.7773	78.092	71.7773	75.9589	71.7773	78.2467	71.7773	75.7696	71.7773	78.3511	71.7773	75.6073	71.7773	78.3961	71.7773	75.4748	71.7773	78.3751	71.7773	75.3744	71.7773	78.2851	71.7773	75.3075	71.7773	78.1281	71.7773	75.275	71.7773	77.9117	71.7773	75.2772	71.7773	77.6485	71.7773	75.3139	71.7773	77.3554	71.7773	75.3842	71.7773	77.0505	71.7773	75.4871	71.7773	76.7503	71.7773	75.6217	71.7773	76.4679	71.7773	75.7874	71.7773	76.2111	71.7773	75.9839
73.9746	77.2448	73.9746	76.9856	73.9746	77.4996	73.9746	76.7292	73.9746	77.7424	73.9746	76.4817	73.9746	77.9642	73.9746	76.2485	73.9746	78.1556	73.9746	76.0345	73.9746	78.3063	73.9746	75.8436	73.9746	78.4065	73.9746	75.6796	73.9746	78.4473	73.9746	75.5453	73.9746	78.4222	73.9746	75.443	73.9746	78.3286	73.9746	75.3741	73.9746	78.1686	73.9746	75.3397	73.9746	77.9499	73.9746	75.34	73.9746	77.6854	73.9746	75.3745	73.9746	77.3921	73.9746	75.4425	73.9746	77.088	73.9746	75.543	73.9746	76.7896	73.9746	75.6749	73.9746	76.5096	73.9746	75.8378	73.9746	76.2556	73.9746	76.0313
76.9043	77.2332	76.9043	76.9762	76.9043	77.4855	76.9043	76.7216	76.9043	77.7253	76.9043	76.4757	76.9043	77.9436	76.9043	76.2439	76.9043	78.1311	76.9043	76.0311	76.9043	78.2777	76.9043	75.8416	76.9043	78.374	76.9043	75.6788	76.9043	78.4114	76.9043	75.5457	76.9043	78.384	76.9043	75.4445	76.9043	78.2896	76.9043	75.3768	76.9043	78.1308	76.9043	75.3435	76.9043	77.9153	76.9043	75.3447	76.9043	77.6561	76.9043	75.3801	76.9043	77.3693	76.9043	75.4488	76.9043	77.0723	76.9043	75.5497	76.9043	76.7807	76.9043	75.6816	76.9043	76.5065	76.9043	75.8437	76.9043	76.2569	76.9043	76.0356
79.834	77.3375	79.834	77.0823	79.834	77.5858	79.834	76.8276	79.834	77.8194	79.834	76.58	79.834	78.0298	79.834	76.3459	79.834	78.2081	79.834	76.1308	79.834	78.3452	79.834	75.9399	79.834	78.4325	79.834	75.7777	79.834	78.463	79.834	75.6478	79.834	78.432	79.834	75.5532	79.834	78.3385	79.834	75.4957	79.834	78.1863	79.834	75.4762	79.834	77.9841	79.834	75.4942	79.834	77.7446	79.834	75.5485	79.834	77.4831	79.834	75.6365	79.834	77.2147	79.834	75.7551	79.834	76.952	79.834	75.9006	79.834	76.703	79.834	76.07	79.834	76.4721	79.834	76.2609
82.7637	77.6505	82.7637	77.4059	82.7637	77.8863	82.7637	77.1592	82.7637	78.1057	82.7637	76.9162	82.7637	78.3005	82.7637	76.6825	82.7637	78.4619	82.7637	76.4629	82.7637	78.5806	82.7637	76.2618	82.7637	78.6478	82.7637	76.0832	82.7637	78.656	82.7637	75.9304	82.7637	78.6001	82.7637	75.8065	82.7637	78.4789	82.7637	75.7138	82.7637	78.2962	82.7637	75.6542	82.7637	78.0609	82.7637	75.6289	82.7637	77.7872	82.7637	75.6384	82.7637	77.4922	82.7637	75.6828	82.7637	77.1933	82.7637	75.7615	82.7637	76.9055	82.7637	75.8735	82.7637	76.6397	82.7637	76.018	82.7637	76.4017	82.7637	76.1942
85.6934	77.8207	85.6934	77.5823	85.6934	78.0483	85.6934	77.3395	85.6934	78.2577	85.6934	77.0981	85.6934	78.4407	85.6934	76.8632	85.6934	78.5883	85.6934	76.6393	85.6934	78.6912	85.6934	76.4304	85.6934	78.7402	85.6934	76.2403	85.6934	78.7275	85.6934	76.0722	85.6934	78.6477	85.6934	75.9289	85.6934	78.4996	85.6934	75.8129	85.6934	78.2869	85.6934	75.7262	85.6934	78.0197	85.6934	75.6705	85.6934	77.7132	85.6934	75.647	85.6934	77.3869	85.6934	75.6566	85.6934	77.0612	85.6934	75.7003	85.6934	76.7543	85.6934	75.7792	85.6934	76.4793	85.6934	75.8947	85.6934	76.2433	85.6934	76.0487
88.623	77.4955	88.623	77.2424	88.623	77.7452	88.623	76.9934	88.623	77.9834	88.623	76.7549	88.623	78.2015	88.623	76.5327	88.623	78.3902	88.623	76.3317	88.623	78.5402	88.623	76.1558	88.623	78.6428	88.623	76.0084	88.623	78.6907	88.623	75.8916	88.623	78.6789	88.623	75.807	88.623	78.6058	88.623	75.7556	88.623	78.4737	88.623	75.7378	88.623	78.2893	88.623	75.7536	88.623	78.0629	88.623	75.8027	88.623	77.8074	88.623	75.8847	88.623	77.5366	88.623	75.9987	88.623	77.2633	88.623	76.1439	88.623	76.998	88.623	76.3186	88.623	76.7488	88.623	76.5211
91.5527	77.4594	91.5527	77.2168	91.5527	77.6959	91.5527	76.9759	91.5527	77.9185	91.5527	76.7438	91.5527	78.1186	91.5527	76.5273	91.5527	78.2881	91.5527	76.3327	91.5527	78.4187	91.5527	76.1653	91.5527	78.5035	91.5527	76.0298	91.5527	78.5373	91.5527	75.9299	91.5527	78.5177	91.5527	75.868	91.5527	78.446	91.5527	75.8456	91.5527	78.3277	91.5527	75.8624	91.5527	78.172	91.5527	75.9172	91.5527	77.9904	91.5527	76.007	91.5527	77.7943	91.5527	76.1278	91.5527	77.593	91.5527	76.2743	91.5527	77.3923	91.5527	76.4402	91.5527	77.1943	91.5527	76.6196	91.5527	76.9992	91.5527	76.8071
94.4824	78.0853	94.4824	77.8367	94.4824	78.321	94.4824	77.5828	94.4824	78.536	94.4824	77.3307	94.4824	78.7221	94.4824	77.0875	94.4824	78.8708	94.4824	76.8596	94.4824	78.9739	94.4824	76.6532	94.4824	79.024	94.4824	76.474	94.4824	79.0155	94.4824	76.3267	94.4824	78.9457	94.4824	76.2155	94.4824	78.8163	94.4824	76.143	94.4824	78.634	94.4824	76.1107	94.4824	78.4106	94.4824	76.1183	94.4824	78.1617	94.4824	76.1639	94.4824	77.9039	94.4824	76.2441	94.4824	77.6517	94.4824	76.3539	94.4824	77.4145	94.4824	76.488	94.4824	77.1959	94.4824	76.6416	94.4824	76.9955	94.4824	76.8111
98.1445	78.1954	98.1445	77.9504	98.1445	78.4286	98.1445	77.7007	98.1445	78.6423	98.1445	77.4529	98.1445	78.8282	98.1445	77.213	98.1445	78.9778	98.1445	76.9865	98.1445	79.0822	98.1445	76.7785	98.1445	79.1336	98.1445	76.5932	98.1445	79.1256	98.1445	76.4348	98.1445	79.0545	98.1445	76.3063	98.1445	78.9207	98.1445	76.2105	98.1445	78.7295	98.1445	76.1491	98.1445	78.4911	98.1445	76.1233	98.1445	78.2201	98.1445	76.1336	98.1445	77.9331	98.1445	76.1795	98.1445	77.6462	98.1445	76.2599	98.1445	77.372	98.1445	76.373	98.1445	77.1188	98.1445	76.517	98.1445	76.8909	98.1445	76.69
101.807	78.3435	101.807	78.0987	101.807	78.5767	101.807	77.8495	101.807	78.7903	101.807	77.6029	101.807	78.9761	101.807	77.3653	101.807	79.1256	101.807	77.1428	101.807	79.2305	101.807	76.9406	101.807	79.2832	101.807	76.7638	101.807	79.2782	101.807	76.6164	101.807	79.2124	101.807	76.5017	101.807	79.087	101.807	76.4221	101.807	78.9081	101.807	76.3792	101.807	78.6861	101.807	76.3733	101.807	78.4356	101.807	76.4037	101.807	78.1719	101.807	76.4687	101.807	77.9093	101.807	76.5657	101.807	77.6581	101.807	76.6913	101.807	77.4242	101.807	76.8423	101.807	77.2099	101.807	77.0157
105.469	78.4808	105.469	78.2383	105.469	78.7111	105.469	77.9909	105.469	78.9216	105.469	77.7456	105.469	79.1043	105.469	77.5088	105.469	79.2509	105.469	77.2866	105.469	79.3537	105.469	77.0847	105.469	79.4054	105.469	76.9082	105.469	79.4008	105.469	76.7614	105.469	79.3375	105.469	76.6479	105.469	79.2171	105.469	76.5704	105.469	79.0455	105.469	76.5306	105.469	78.8333	105.469	76.5289	105.469	78.5941	105.469	76.5646	105.469	78.3421	105.469	76.636	105.469	78.0901	105.469	76.7399	105.469	77.847	105.469	76.8726	105.469	77.6178	105.469	77.0298	105.469	77.4045	105.469	77.208
109.131	78.6986	109.131	78.4624	109.131	78.9219	109.131	78.2207	109.131	79.1242	109.131	77.981	109.131	79.2973	109.131	77.7498	109.131	79.433	109.131	77.5336	109.131	79.5234	109.131	77.338	109.131	79.5618	109.131	77.1681	109.131	79.5436	109.131	77.0281	109.131	79.4673	109.131	76.9213	109.131	79.3358	109.131	76.85	109.131	79.1569	109.131	76.8153	109.131	78.9427	109.131	76.8171	109.131	78.7081	109.131	76.8541	109.131	78.4679	109.131	76.9237	109.131	78.2342	109.131	77.0223	109.131	78.0142	109.131	77.1453	109.131	77.8102	109.131	77.2885	109.131	77.6219	109.131	77.448
112.793	78.9037	112.793	78.6626	112.793	79.1307	112.793	78.4153	112.793	79.3357	112.793	78.1695	112.793	79.5101	112.793	77.9322	112.793	79.6458	112.793	77.71	112.793	79.735	112.793	77.5093	112.793	79.7711	112.793	77.3352	112.793	79.7495	112.793	77.1925	112.793	79.6693	112.793	77.0844	112.793	79.5336	112.793	77.0135	112.793	79.3507	112.793	76.9807	112.793	79.1332	112.793	76.9858	112.793	78.8965	112.793	77.0271	112.793	78.6557	112.793	77.1016	112.793	78.4227	112.793	77.205	112.793	78.2042	112.793	77.3324	112.793	78.0019	112.793	77.4788	112.793	77.8145	112.793	77.6402
116.455	79.1141	116.455	78.8715	116.455	79.3415	116.455	78.6216	116.455	79.5457	116.455	78.3719	116.455	79.7183	116.455	78.1297	116.455	79.8513	116.455	77.9018	116.455	79.9368	116.455	77.6945	116.455	79.9684	116.455	77.5134	116.455	79.9417	116.455	77.3634	116.455	79.8557	116.455	77.2481	116.455	79.7136	116.455	77.1702	116.455	79.524	116.455	77.1311	116.455	79.2996	116.455	77.1308	116.455	79.0562	116.455	77.1676	116.455	78.8091	116.455	77.2388	116.455	78.5706	116.455	77.3401	116.455	78.3475	116.455	77.4664	116.455	78.1415	116.455	77.6128	116.455	77.9514	116.455	77.7752
120.85	79.3103	120.85	79.071	120.85	79.533	120.85	78.823	120.85	79.7308	120.85	78.5743	120.85	79.8956	120.85	78.3326	120.85	80.0192	120.85	78.105	120.85	80.0945	120.85	77.8982	120.85	80.1153	120.85	77.7182	120.85	80.0781	120.85	77.5701	120.85	79.9827	120.85	77.4575	120.85	79.8337	120.85	77.383	120.85	79.6408	120.85	77.3476	120.85	79.4177	120.85	77.3507	120.85	79.1806	120.85	77.3904	120.85	78.9447	120.85	77.4632	120.85	78.7208	120.85	77.5642	120.85	78.514	120.85	77.6881	120.85	78.324	120.85	77.8292	120.85	78.148	120.85	77.9832
125.244	79.4198	125.244	79.1778	125.244	79.6445	125.244	78.9268	125.244	79.8437	125.244	78.6748	125.244	80.0093	125.244	78.4297	125.244	80.1331	125.244	78.1993	125.244	80.2078	125.244	77.9908	125.244	80.2273	125.244	77.811	125.244	80.1882	125.244	77.6654	125.244	80.0906	125.244	77.5585	125.244	79.9395	125.244	77.4927	125.244	79.745	125.244	77.4688	125.244	79.5221	125.244	77.4855	125.244	79.288	125.244	77.5392	125.244	79.0585	125.244	77.6248	125.244	78.8446	125.244	77.7358	125.244	78.6505	125.244	77.8654	125.244	78.4743	125.244	78.0069	125.244	78.3111	125.244	78.156
129.639	79.6458	129.639	79.4038	129.639	79.8694	129.639	79.1512	129.639	80.0669	129.639	78.8957	129.639	80.2302	129.639	78.6449	129.639	80.3518	129.639	78.4063	129.639	80.4244	129.639	78.1872	129.639	80.4423	129.639	77.9944	129.639	80.4018	129.639	77.8341	129.639	80.3029	129.639	77.7115	129.639	80.1499	129.639	77.6303	129.639	79.9521	129.639	77.5925	129.639	79.7236	129.639	77.5975	129.639	79.4807	129.639	77.6428	129.639	79.2394	129.639	77.7235	129.639	79.0113	129.639	77.8332	129.639	78.8019	129.639	77.9646	129.639	78.6109	129.639	78.1113	129.639	78.4344	129.639	78.2684
134.033	79.7532	134.033	79.5126	134.033	79.9755	134.033	79.2616	134.033	80.1713	134.033	79.008	134.033	80.3328	134.033	78.7596	134.033	80.4524	134.033	78.5238	134.033	80.5234	134.033	78.3078	134.033	80.5405	134.033	78.118	134.033	80.501	134.033	77.9601	134.033	80.4057	134.033	77.8389	134.033	80.2596	134.033	77.7578	134.033	80.0726	134.033	77.7188	134.033	79.8579	134.033	77.7219	134.033	79.6304	134.033	77.7655	134.033	79.4031	134.033	77.846	134.033	79.1848	134.033	77.9582	134.033	78.9788	134.033	78.0958	134.033	78.7843	134.033	78.252	134.033	78.5988	134.033	78.421
138.428	79.9452	138.428	79.6983	138.428	80.1727	138.428	79.4406	138.428	80.3724	138.428	79.1802	138.428	80.536	138.428	78.9256	138.428	80.6558	138.428	78.6845	138.428	80.7249	138.428	78.4644	138.428	80.7381	138.428	78.2721	138.428	80.6931	138.428	78.1135	138.428	80.5914	138.428	77.9934	138.428	80.4393	138.428	77.9152	138.428	80.2478	138.428	77.8808	138.428	80.0319	138.428	77.8903	138.428	79.8072	138.428	77.9415	138.428	79.5867	138.428	78.0307	138.428	79.3776	138.428	78.152	138.428	79.1811	138.428	78.2981	138.428	78.9941	138.428	78.4613	138.428	78.8125	138.428	78.6344
143.555	80.1757	143.555	79.9174	143.555	80.4123	143.555	79.6464	143.555	80.6184	143.555	79.3718	143.555	80.7855	143.555	79.1026	143.555	80.9055	143.555	78.8478	143.555	80.9716	143.555	78.6159	143.555	80.9784	143.555	78.4147	143.555	80.9238	143.555	78.2508	143.555	80.8096	143.555	78.1297	143.555	80.6429	143.555	78.0549	143.555	80.4365	143.555	78.0276	143.555	80.2071	143.555	78.0471	143.555	79.9728	143.555	78.1101	143.555	79.7481	143.555	78.2109	143.555	79.5409	143.555	78.3421	143.555	79.3513	143.555	78.4948	143.555	79.1739	143.555	78.6601	143.555	79.0018	143.555	78.8306
148.682	80.344	148.682	80.0898	148.682	80.5739	148.682	79.8198	148.682	80.7709	148.682	79.543	148.682	80.9272	148.682	79.2686	148.682	81.0355	148.682	79.006	148.682	81.0895	148.682	78.7644	148.682	81.085	148.682	78.5525	148.682	81.0206	148.682	78.3784	148.682	80.8992	148.682	78.2485	148.682	80.7285	148.682	78.1674	148.682	80.5217	148.682	78.1371	148.682	80.2954	148.682	78.1567	148.682	80.0669	148.682	78.2224	148.682	79.8499	148.682	78.3277	148.682	79.6508	148.682	78.4637	148.682	79.4686	148.682	78.6207	148.682	79.2972	148.682	78.7886	148.682	79.1291	148.682	78.9596
153.809	80.6434	153.809	80.3948	153.809	80.8655	153.809	80.1281	153.809	81.053	153.809	79.8516	153.809	81.1982	153.809	79.5742	153.809	81.294	153.809	79.3047	153.809	81.3342	153.809	79.0521	153.809	81.3146	153.809	78.8249	153.809	81.2337	153.809	78.6314	153.809	81.0943	153.809	78.4788	153.809	80.9045	153.809	78.3726	153.809	80.6778	153.809	78.3164	153.809	80.4318	153.809	78.3107	153.809	80.185	153.809	78.3533	153.809	79.9519	153.809	78.4386	153.809	79.7399	153.809	78.5586	153.809	79.5483	153.809	78.7036	153.809	79.3708	153.809	78.8638	153.809	79.1998	153.809	79.0308
159.668	80.7527	159.668	80.5014	159.668	80.9778	159.668	80.2323	159.668	81.1682	159.668	79.9541	159.668	81.3162	159.668	79.6757	159.668	81.4146	159.668	79.4063	159.668	81.4571	159.668	79.1549	159.668	81.4397	159.668	78.9305	159.668	81.3615	159.668	78.7412	159.668	81.226	159.668	78.5945	159.668	81.0423	159.668	78.4959	159.668	80.8247	159.668	78.4487	159.668	80.5912	159.668	78.4533	159.668	80.3596	159.668	78.5072	159.668	80.1425	159.668	78.6046	159.668	79.9447	159.668	78.7372	159.668	79.7632	159.668	78.8947	159.668	79.5902	159.668	79.0665	159.668	79.4181	159.668	79.243
164.795	80.8986	164.795	80.6428	164.795	81.1267	164.795	80.3682	164.795	81.319	164.795	80.0836	164.795	81.4676	164.795	79.7983	164.795	81.5652	164.795	79.5213	164.795	81.6059	164.795	79.2619	164.795	81.5857	164.795	79.0293	164.795	81.5037	164.795	78.8317	164.795	81.3636	164.795	78.6767	164.795	81.1743	164.795	78.5702	164.795	80.9503	164.795	78.5161	164.795	80.7097	164.795	78.5152	164.795	80.4706	164.795	78.5656	164.795	80.246	164.795	78.6617	164.795	80.041	164.795	78.7952	164.795	79.8527	164.795	78.9556	164.795	79.6732	164.795	79.1318	164.795	79.4948	164.795	79.3138
170.654	80.8618	170.654	80.615	170.654	81.081	170.654	80.3495	170.654	81.2644	170.654	80.0744	170.654	81.4042	170.654	79.7993	170.654	81.4934	170.654	79.5339	170.654	81.5265	170.654	79.2879	170.654	81.5003	170.654	79.0708	170.654	81.4151	170.654	78.8914	170.654	81.2761	170.654	78.757	170.654	81.094	170.654	78.673	170.654	80.8851	170.654	78.6422	170.654	80.6683	170.654	78.6642	170.654	80.4613	170.654	78.735	170.654	80.2748	170.654	78.8477	170.654	80.1102	170.654	78.9922	170.654	79.9605	170.654	79.157	170.654	79.8147	170.654	79.3302	170.654	79.6632	170.654	79.5012
176.514	80.9687	176.514	80.7152	176.514	81.1922	176.514	80.441	176.514	81.3772	176.514	80.1558	176.514	81.5156	176.514	79.8698	176.514	81.6006	176.514	79.5933	176.514	81.6265	176.514	79.3373	176.514	81.5904	176.514	79.112	176.514	81.4933	176.514	78.9272	176.514	81.341	176.514	78.7912	176.514	81.1462	176.514	78.7098	176.514	80.9269	176.514	78.6857	176.514	80.7045	176.514	78.7178	176.514	80.498	176.514	78.8009	176.514	80.3185	176.514	78.9263	176.514	80.166	176.514	79.0822	176.514	80.0309	176.514	79.2555	176.514	79.8991	176.514	79.4327	176.514	79.7585	176.514	79.6027
183.105	81.0779	183.105	80.8206	183.105	81.3022	183.105	80.5391	183.105	81.4851	183.105	80.2425	183.105	81.619	183.105	79.9408	183.105	81.697	183.105	79.6444	183.105	81.7139	183.105	79.3642	183.105	81.6668	183.105	79.1118	183.105	81.5568	183.105	78.8983	183.105	81.3904	183.105	78.7341	183.105	81.1805	183.105	78.6277	183.105	80.9461	183.105	78.584	183.105	80.7095	183.105	78.6036	183.105	80.4904	183.105	78.6818	183.105	80.3001	183.105	78.8094	183.105	80.1381	183.105	78.9731	183.105	79.9937	183.105	79.1578	183.105	79.852	183.105	79.3483	183.105	79.7002	183.105	79.5318
189.697	81.2037	189.697	80.9506	189.697	81.4229	189.697	80.6725	189.697	81.5997	189.697	80.3786	189.697	81.7264	189.697	80.0787	189.697	81.7961	189.697	79.7825	189.697	81.8038	189.697	79.5005	189.697	81.7468	189.697	79.2432	189.697	81.6269	189.697	79.0209	189.697	81.451	189.697	78.8436	189.697	81.233	189.697	78.7199	189.697	80.9927	189.697	78.6557	189.697	80.7523	189.697	78.6536	189.697	80.5313	189.697	78.7113	189.697	80.3393	189.697	78.822	189.697	80.1741	189.697	78.9743	189.697	80.0239	189.697	79.1539	189.697	79.8739	189.697	79.3456	189.697	79.7124	189.697	79.5351
196.289	81.2198	196.289	80.9731	196.289	81.4312	196.289	80.7006	196.289	81.5983	196.289	80.4123	196.289	81.7134	196.289	80.1188	196.289	81.7697	196.289	79.8313	196.289	81.7626	196.289	79.5609	196.289	81.6906	196.289	79.3189	196.289	81.557	196.289	79.116	196.289	81.3717	196.289	78.9617	196.289	81.1518	196.289	78.8635	196.289	80.9206	196.289	78.8256	196.289	80.7029	196.289	78.8483	196.289	80.5177	196.289	78.9274	196.289	80.3713	196.289	79.0543	196.289	80.2555	196.289	79.2163	196.289	80.1528	196.289	79.3983	196.289	80.0437	196.289	79.5844	196.289	79.9144	196.289	79.76
202.881	81.3132	202.881	81.0629	202.881	81.5235	202.881	80.7827	202.881	81.6849	202.881	80.4831	202.881	81.789	202.881	80.1757	202.881	81.8289	202.881	79.8726	202.881	81.7998	202.881	79.5865	202.881	81.7002	202.881	79.3307	202.881	81.5337	202.881	79.1177	202.881	81.3114	202.881	78.9588	202.881	81.0534	202.881	78.8621	202.881	80.7876	202.881	78.8318	202.881	80.5447	202.881	78.8663	202.881	80.3496	202.881	78.9585	202.881	80.2113	202.881	79.0963	202.881	80.12	202.881	79.2638	202.881	80.0527	202.881	79.4431	202.881	79.9835	202.881	79.6167	202.881	79.8922	202.881	79.7695
210.205	81.3541	210.205	81.1052	210.205	81.5638	210.205	80.8263	210.205	81.7257	210.205	80.5267	210.205	81.8319	210.205	80.2169	210.205	81.8755	210.205	79.908	210.205	81.8513	210.205	79.6119	210.205	81.7573	210.205	79.3416	210.205	81.5966	210.205	79.1105	210.205	81.3795	210.205	78.9316	210.205	81.1254	210.205	78.8158	210.205	80.8618	210.205	78.77	210.205	80.6191	210.205	78.795	210.205	80.4217	210.205	78.8852	210.205	80.2784	210.205	79.0284	210.205	80.1792	210.205	79.2074	210.205	80.1006	210.205	79.4027	210.205	80.017	210.205	79.5949	210.205	79.9087	210.205	79.7672
217.529	81.3272	217.529	81.069	217.529	81.5428	217.529	80.7787	217.529	81.7065	217.529	80.4671	217.529	81.8096	217.529	80.1462	217.529	81.8451	217.529	79.8285	217.529	81.808	217.529	79.5276	217.529	81.6974	217.529	79.2576	217.529	81.518	217.529	79.0326	217.529	81.2832	217.529	78.8659	217.529	81.0163	217.529	78.7677	217.529	80.7494	217.529	78.7436	217.529	80.5168	217.529	78.7929	217.529	80.3437	217.529	78.9077	217.529	80.2352	217.529	79.0737	217.529	80.1748	217.529	79.2722	217.529	80.1323	217.529	79.4819	217.529	80.077	217.529	79.6821	217.529	79.9874	217.529	79.8547
225.586	81.4945	225.586	81.2373	225.586	81.7037	225.586	80.9425	225.586	81.855	225.586	80.621	225.586	81.9393	225.586	80.2845	225.586	81.9487	225.586	79.946	225.586	81.8775	225.586	79.6196	225.586	81.724	225.586	79.3207	225.586	81.4932	225.586	79.066	225.586	81.2004	225.586	78.8715	225.586	80.8742	225.586	78.7508	225.586	80.5552	225.586	78.7121	225.586	80.2885	225.586	78.7556	225.586	80.1074	225.586	78.8722	225.586	80.0178	225.586	79.045	225.586	79.9957	225.586	79.2512	225.586	79.9994	225.586	79.4655	225.586	79.988	225.586	79.6635	225.586	79.9333	225.586	79.8241
232.91	81.6631	232.91	81.3931	232.91	81.8819	232.91	81.082	232.91	82.0395	232.91	80.7407	232.91	82.1263	232.91	80.3804	232.91	82.1335	232.91	80.0137	232.91	82.0537	232.91	79.6548	232.91	81.8831	232.91	79.3202	232.91	81.6238	232.91	79.0285	232.91	81.2884	232.91	78.7994	232.91	80.9045	232.91	78.6504	232.91	80.5164	232.91	78.5933	232.91	80.1792	232.91	78.63	232.91	79.941	232.91	78.7506	232.91	79.8205	232.91	78.9342	232.91	79.7962	232.91	79.1527	232.91	79.8195	232.91	79.3755	232.91	79.8375	232.91	79.5736	232.91	79.8117	232.91	79.7237
241.699	81.6952	241.699	81.419	241.699	81.9247	241.699	81.1068	241.699	82.0973	241.699	80.769	241.699	82.2023	241.699	80.4159	241.699	82.23	241.699	80.058	241.699	82.1715	241.699	79.7063	241.699	82.0203	241.699	79.3731	241.699	81.7748	241.699	79.0721	241.699	81.4417	241.699	78.8188	241.699	81.0406	241.699	78.6288	241.699	80.6069	241.699	78.5148	241.699	80.1905	241.699	78.4829	241.699	79.8434	241.699	78.5294	241.699	79.6007	241.699	78.64	241.699	79.4632	241.699	78.7917	241.699	79.3997	241.699	78.9578	241.699	79.3645	241.699	79.1123	241.699	79.3176	241.699	79.2354
249.756	81.7756	249.756	81.4806	249.756	82.0179	249.756	81.1428	249.756	82.1976	249.756	80.7727	249.756	82.3057	249.756	80.3814	249.756	82.3335	249.756	79.9809	249.756	82.2736	249.756	79.585	249.756	82.1213	249.756	79.2091	249.756	81.8768	249.756	78.8712	249.756	81.5485	249.756	78.5908	249.756	81.157	249.756	78.3868	249.756	80.7379	249.756	78.2732	249.756	80.338	249.756	78.2555	249.756	80.004	249.756	78.3273	249.756	79.7638	249.756	78.4705	249.756	79.6139	249.756	78.6596	249.756	79.5231	249.756	78.866	249.756	79.4497	249.756	79.0632	249.756	79.3588	249.756	79.231
258.545	81.8602	258.545	81.5755	258.545	82.0943	258.545	81.2502	258.545	82.2677	258.545	80.8945	258.545	82.3712	258.545	80.5187	258.545	82.3958	258.545	80.1336	258.545	82.3341	258.545	79.7507	258.545	82.1809	258.545	79.3836	258.545	81.9364	258.545	79.0482	258.545	81.6088	258.545	78.7628	258.545	81.2191	258.545	78.547	258.545	80.8035	258.545	78.4173	258.545	80.4101	258.545	78.383	258.545	80.086	258.545	78.4416	258.545	79.8585	258.545	78.5777	258.545	79.7218	258.545	78.7661	258.545	79.6418	258.545	78.9766	258.545	79.5748	258.545	79.1803	258.545	79.4851	258.545	79.3541
268.066	81.6495	268.066	81.3369	268.066	81.9099	268.066	80.9828	268.066	82.108	268.066	80.5983	268.066	82.2344	268.066	80.1951	268.066	82.2806	268.066	79.7854	268.066	82.239	268.066	79.382	268.066	82.1043	268.066	78.9992	268.066	81.8755	268.066	78.6528	268.066	81.5594	268.066	78.3603	268.066	81.1744	268.066	78.1396	268.066	80.7533	268.066	78.0061	268.066	80.3409	268.066	77.9683	268.066	79.9831	268.066	78.0238	268.066	79.7094	268.066	78.1587	268.066	79.5198	268.066	78.3493	268.066	79.3871	268.066	78.5673	268.066	79.2726	268.066	78.7854	268.066	79.1433	268.066	78.9814
277.588	81.8501	277.588	81.5873	277.588	82.0521	277.588	81.2714	277.588	82.1868	277.588	80.9109	277.588	82.2481	277.588	80.5162	277.588	82.2311	277.588	80.1001	277.588	82.1329	277.588	79.6792	277.588	81.9536	277.588	79.275	277.588	81.6997	277.588	78.9134	277.588	81.3861	277.588	78.6227	277.588	81.0393	277.588	78.429	277.588	80.696	277.588	78.3491	277.588	80.3965	277.588	78.3844	277.588	80.1712	277.588	78.5192	277.588	80.0277	277.588	78.725	277.588	79.9482	277.588	78.9676	277.588	79.8988	277.588	79.2143	277.588	79.8439	277.588	79.4385	277.588	79.7565	277.588	79.622
287.109	81.9619	287.109	81.7256	287.109	82.1403	287.109	81.4392	287.109	82.252	287.109	81.1098	287.109	82.2881	287.109	80.7435	287.109	82.2406	287.109	80.3463	287.109	82.1039	287.109	79.9265	287.109	81.8768	287.109	79.497	287.109	81.5663	287.109	79.078	287.109	81.1928	287.109	78.6987	287.109	80.7931	287.109	78.3953	287.109	80.4188	287.109	78.2035	287.109	80.1232	287.109	78.1469	287.109	79.9378	287.109	78.2257	287.109	79.8551	287.109	78.4154	287.109	79.833	287.109	78.6755	287.109	79.8178	287.109	78.9625	287.109	79.766	287.109	79.2384	287.109	79.6536	287.109	79.475
297.363	81.8516	297.363	81.5753	297.363	82.0745	297.363	81.2599	297.363	82.2289	297.363	80.9181	297.363	82.2998	297.363	80.5596	297.363	82.2732	297.363	80.1911	297.363	82.1373	297.363	79.8171	297.363	81.8844	297.363	79.4423	297.363	81.5161	297.363	79.0746	297.363	81.0504	297.363	78.7287	297.363	80.5319	297.363	78.4278	297.363	80.0367	297.363	78.202	297.363	79.6571	297.363	78.0811	297.363	79.458	297.363	78.0843	297.363	79.4323	297.363	78.2109	297.363	79.5044	297.363	78.4376	297.363	79.5784	297.363	78.7246	297.363	79.5832	297.363	79.0251	297.363	79.487	297.363	79.2924
307.617	81.8351	307.617	81.5167	307.617	82.0932	307.617	81.1517	307.617	82.2777	307.617	80.7553	307.617	82.3763	307.617	80.3429	307.617	82.3766	307.617	79.9302	307.617	82.2668	307.617	79.5329	307.617	82.0364	307.617	79.1664	307.617	81.6797	307.617	78.8465	307.617	81.2022	307.617	78.5894	307.617	80.6315	307.617	78.4113	307.617	80.0298	307.617	78.3255	307.617	79.4957	307.617	78.3383	307.617	79.1373	307.617	78.4448	307.617	79.0108	307.617	78.6264	307.617	79.0786	307.617	78.8528	307.617	79.2377	307.617	79.0861	307.617	79.3842	307.617	79.2863	307.617	79.452	307.617	79.417
318.604	81.8972	318.604	81.6074	318.604	82.1252	318.604	81.2661	318.604	82.2807	318.604	80.8825	318.604	82.3528	318.604	80.4658	318.604	82.33	318.604	80.025	318.604	82.2013	318.604	79.5709	318.604	81.9568	318.604	79.1182	318.604	81.5912	318.604	78.6881	318.604	81.109	318.604	78.3096	318.604	80.5341	318.604	78.0173	318.604	79.9199	318.604	77.8438	318.604	79.3526	318.604	77.8074	318.604	78.9312	318.604	77.9024	318.604	78.7185	318.604	78.0975	318.604	78.6995	318.604	78.3448	318.604	78.7927	318.604	78.593	318.604	78.9023	318.604	78.7972	318.604	78.9578	318.604	78.9244
329.59	81.7277	329.59	81.4268	329.59	81.9725	329.59	81.0813	329.59	82.1491	329.59	80.7021	329.59	82.2457	329.59	80.2987	329.59	82.2502	329.59	79.8793	329.59	82.1509	329.59	79.4519	329.59	81.9372	329.59	79.0261	329.59	81.6017	329.59	78.6164	329.59	81.1462	329.59	78.2447	329.59	80.5897	329.59	77.9401	329.59	79.9788	329.59	77.7346	329.59	79.3933	329.59	77.6522	329.59	78.93	329.59	77.6974	329.59	78.659	329.59	77.8497	329.59	78.5785	329.59	78.068	329.59	78.6176	329.59	78.303	329.59	78.6838	329.59	78.5084	329.59	78.7061	329.59	78.6491
341.309	81.4312	341.309	81.1256	341.309	81.6774	341.309	80.7724	341.309	81.8522	341.309	80.3835	341.309	81.9445	341.309	79.9693	341.309	81.9436	341.309	79.5401	341.309	81.8401	341.309	79.1058	341.309	81.626	341.309	78.6789	341.309	81.2983	341.309	78.277	341.309	80.8629	341.309	77.9247	341.309	80.3429	341.309	77.6521	341.309	79.7861	341.309	77.4892	341.309	79.2657	341.309	77.4541	341.309	78.8627	341.309	77.5437	341.309	78.629	341.309	77.7308	341.309	78.5563	341.309	77.9718	341.309	78.5826	341.309	78.2185	341.309	78.6302	341.309	78.429	341.309	78.6382	341.309	78.5735
353.76	81.5905	353.76	81.2885	353.76	81.8242	353.76	80.9297	353.76	81.9776	353.76	80.5252	353.76	82.0395	353.76	80.0845	353.76	81.9993	353.76	79.6164	353.76	81.8477	353.76	79.13	353.76	81.5778	353.76	78.6376	353.76	81.1884	353.76	78.1596	353.76	80.6906	353.76	77.7268	353.76	80.1163	353.76	77.3803	353.76	79.527	353.76	77.1631	353.76	79.0096	353.76	77.1035	353.76	78.6476	353.76	77.1995	353.76	78.4752	353.76	77.4163	353.76	78.455	353.76	77.6986	353.76	78.5058	353.76	77.9898	353.76	78.5483	353.76	78.2437	353.76	78.5304	353.76	78.4292
366.211	81.8204	366.211	81.4983	366.211	82.0663	366.211	81.1124	366.211	82.2225	366.211	80.6741	366.211	82.2756	366.211	80.1929	366.211	82.2121	366.211	79.6769	366.211	82.0186	366.211	79.135	366.211	81.6832	366.211	78.5811	366.211	81.2002	366.211	78.0393	366.211	80.5796	366.211	77.5492	366.211	79.8645	366.211	77.165	366.211	79.1502	366.211	76.943	366.211	78.5825	366.211	76.9182	366.211	78.2946	366.211	77.0836	366.211	78.305	366.211	77.3903	366.211	78.4995	366.211	77.7696	366.211	78.7225	366.211	78.155	366.211	78.863	366.211	78.4927	366.211	78.8713	366.211	78.7417
378.662	81.9353	378.662	81.612	378.662	82.201	378.662	81.2431	378.662	82.3951	378.662	80.8376	378.662	82.5026	378.662	80.4002	378.662	82.5064	378.662	79.9314	378.662	82.3872	378.662	79.4291	378.662	82.1232	378.662	78.8936	378.662	81.6916	378.662	78.334	378.662	81.075	378.662	77.7781	378.662	80.2765	378.662	77.279	378.662	79.3496	378.662	76.9128	378.662	78.4391	378.662	76.7553	378.662	77.7844	378.662	76.8417	378.662	77.5843	378.662	77.1395	378.662	77.7982	378.662	77.5623	378.662	78.1852	378.662	78.0076	378.662	78.517	378.662	78.3846	378.662	78.6733	378.662	78.6227
392.578	81.4178	392.578	81.12	392.578	81.6757	392.578	80.795	392.578	81.8788	392.578	80.451	392.578	82.0114	392.578	80.0898	392.578	82.0568	392.578	79.7074	392.578	81.9973	392.578	79.2958	392.578	81.8124	392.578	78.8475	392.578	81.4797	392.578	78.3626	392.578	80.9773	392.578	77.8558	392.578	80.2931	392.578	77.3636	392.578	79.4425	392.578	76.9463	392.578	78.4994	392.578	76.6754	392.578	77.6278	392.578	76.6034	392.578	77.053	392.578	76.7299	392.578	76.9078	392.578	76.9939	392.578	77.0973	392.578	77.2991	392.578	77.3941	392.578	77.5488	392.578	77.6129	392.578	77.6673
405.762	81.3172	405.762	80.9935	405.762	81.5868	405.762	80.6326	405.762	81.7856	405.762	80.2484	405.762	81.8986	405.762	79.8486	405.762	81.9128	405.762	79.4336	405.762	81.8156	405.762	78.9978	405.762	81.594	405.762	78.5361	405.762	81.235	405.762	78.0517	405.762	80.7283	405.762	77.5656	405.762	80.0761	405.762	77.1233	405.762	79.3087	405.762	76.7921	405.762	78.5075	405.762	76.6397	405.762	77.8155	405.762	76.698	405.762	77.395	405.762	76.937	405.762	77.3163	405.762	77.2753	405.762	77.4916	405.762	77.615	405.762	77.7486	405.762	77.8717	405.762	77.9404	405.762	77.988
420.41	81.3684	420.41	81.0129	420.41	81.6916	420.41	80.6456	420.41	81.9634	420.41	80.2842	420.41	82.1674	420.41	79.9367	420.41	82.2889	420.41	79.5974	420.41	82.3111	420.41	79.2474	420.41	82.2118	420.41	78.8611	420.41	81.9612	420.41	78.4163	420.41	81.5212	420.41	77.9052	420.41	80.8496	420.41	77.3465	420.41	79.9102	420.41	76.7954	420.41	78.699	420.41	76.3431	420.41	77.3061	420.41	76.0892	420.41	76.0176	420.41	76.0813	420.41	75.2998	420.41	76.269	420.41	75.3651	420.41	76.5229	420.41	75.8751	420.41	76.6959	420.41	76.384	420.41	76.67
435.059	80.8074	435.059	80.498	435.059	81.0594	435.059	80.1519	435.059	81.2409	435.059	79.7929	435.059	81.3468	435.059	79.4416	435.059	81.3788	435.059	79.1076	435.059	81.3427	435.059	78.7864	435.059	81.2449	435.059	78.4626	435.059	81.0882	435.059	78.1183	435.059	80.867	435.059	77.7447	435.059	80.564	435.059	77.3498	435.059	80.1505	435.059	76.9627	435.059	79.5943	435.059	76.6277	435.059	78.8759	435.059	76.3864	435.059	78.0174	435.059	76.2518	435.059	77.1165	435.059	76.1934	435.059	76.3543	435.059	76.1483	435.059	75.911	435.059	76.0592	435.059	75.8141	435.059	75.9198
450.439	81.105	450.439	80.7208	450.439	81.3878	450.439	80.2602	450.439	81.5542	450.439	79.7587	450.439	81.5981	450.439	79.2578	450.439	81.5208	450.439	78.7965	450.439	81.3299	450.439	78.4002	450.439	81.0405	450.439	78.0734	450.439	80.6766	450.439	77.8029	450.439	80.2713	450.439	77.569	450.439	79.8603	450.439	77.3579	450.439	79.4679	450.439	77.1677	450.439	79.0919	450.439	77.0072	450.439	78.7035	450.439	76.8862	450.439	78.2718	450.439	76.8055	450.439	77.7968	450.439	76.7518	450.439	77.3287	450.439	76.7061	450.439	76.9506	450.439	76.6627	450.439	76.7254	450.439	76.649
466.553	81.0591	466.553	80.6774	466.553	81.344	466.553	80.2203	466.553	81.5166	466.553	79.7143	466.553	81.5677	466.553	79.1869	466.553	81.4932	466.553	78.6634	466.553	81.2938	466.553	78.1638	466.553	80.9758	466.553	77.7037	466.553	80.5548	466.553	77.2984	466.553	80.0621	466.553	76.9688	466.553	79.5495	466.553	76.7414	466.553	79.0831	466.553	76.6411	466.553	78.7175	466.553	76.6751	466.553	78.4653	466.553	76.8225	466.553	78.2934	466.553	77.0368	466.553	78.1547	466.553	77.2629	466.553	78.0234	466.553	77.4574	466.553	77.9013	466.553	77.6021	466.553	77.7977	466.553	77.7064
482.666	81.2039	482.666	80.8389	482.666	81.4805	482.666	80.404	482.666	81.6525	482.666	79.9167	482.666	81.7077	482.666	79.3891	482.666	81.6376	482.666	78.8249	482.666	81.4362	482.666	78.2216	482.666	81.1004	482.666	77.5783	482.666	80.6344	482.666	76.9105	482.666	80.058	482.666	76.2673	482.666	79.4208	482.666	75.7432	482.666	78.8096	482.666	75.4594	482.666	78.3287	482.666	75.4974	482.666	78.0459	482.666	75.8311	482.666	77.9473	482.666	76.3377	482.666	77.9578	482.666	76.8747	482.666	77.9993	482.666	77.3388	482.666	78.0222	482.666	77.6801	482.666	77.996	482.666	77.8922
500.244	80.8726	500.244	80.4752	500.244	81.1829	500.244	80.0258	500.244	81.3806	500.244	79.5616	500.244	81.4499	500.244	79.1097	500.244	81.383	500.244	78.674	500.244	81.1761	500.244	78.2324	500.244	80.8281	500.244	77.7476	500.244	80.343	500.244	77.1872	500.244	79.7401	500.244	76.5479	500.244	79.0685	500.244	75.879	500.244	78.4186	500.244	75.3003	500.244	77.9047	500.244	74.98	500.244	77.6047	500.244	75.0354	500.244	77.505	500.244	75.4277	500.244	77.5204	500.244	75.9905	500.244	77.5601	500.244	76.5519	500.244	77.5639	500.244	77.0066	500.244	77.4941	500.244	77.3178
517.822	80.663	517.822	80.2551	517.822	80.9393	517.822	79.7351	517.822	81.0717	517.822	79.1339	517.822	81.053	517.822	78.4956	517.822	80.8807	517.822	77.8742	517.822	80.558	517.822	77.3211	517.822	80.0993	517.822	76.8657	517.822	79.538	517.822	76.5049	517.822	78.9358	517.822	76.2121	517.822	78.38	517.822	75.963	517.822	77.9518	517.822	75.7589	517.822	77.6721	517.822	75.6343	517.822	77.4889	517.822	75.6377	517.822	77.3318	517.822	75.7924	517.822	77.1764	517.822	76.0664	517.822	77.0488	517.822	76.3819	517.822	76.9732	517.822	76.6549	517.822	76.9232	517.822	76.8344
536.133	81.0198	536.133	80.583	536.133	81.3128	536.133	80.0176	536.133	81.4497	536.133	79.3438	536.133	81.4189	536.133	78.5879	536.133	81.2089	536.133	77.7827	536.133	80.8078	536.133	76.9639	536.133	80.207	536.133	76.1664	536.133	79.4109	536.133	75.4238	536.133	78.4609	536.133	74.7785	536.133	77.473	536.133	74.3022	536.133	76.6623	536.133	74.1018	536.133	76.2588	536.133	74.2715	536.133	76.3122	536.133	74.8034	536.133	76.6553	536.133	75.5637	536.133	77.0869	536.133	76.3704	536.133	77.4847	536.133	77.0757	536.133	77.7828	536.133	77.59	536.133	77.9285	536.133	77.8742
554.443	80.5204	554.443	80.083	554.443	80.8514	554.443	79.5603	554.443	81.0602	554.443	78.9802	554.443	81.1343	554.443	78.3741	554.443	81.0622	554.443	77.7695	554.443	80.8316	554.443	77.1765	554.443	80.4277	554.443	76.5771	554.443	79.8343	554.443	75.9264	554.443	79.0401	554.443	75.1702	554.443	78.0594	554.443	74.2831	554.443	76.9738	554.443	73.3327	554.443	75.9845	554.443	72.5668	554.443	75.377	554.443	72.3812	554.443	75.2968	554.443	72.9445	554.443	75.5903	554.443	73.9471	554.443	75.984	554.443	74.9623	554.443	76.2831	554.443	75.7459	554.443	76.3825	554.443	76.2176
574.219	80.6598	574.219	80.2313	574.219	80.9556	574.219	79.6801	574.219	81.1149	574.219	79.0249	574.219	81.1381	574.219	78.297	574.219	81.028	574.219	77.5419	574.219	80.7881	574.219	76.8123	574.219	80.4169	574.219	76.1482	574.219	79.9025	574.219	75.5519	574.219	79.2172	574.219	74.9813	574.219	78.32	574.219	74.3789	574.219	77.1821	574.219	73.7304	574.219	75.869	574.219	73.1369	574.219	74.705	574.219	72.8474	574.219	74.2746	574.219	73.1061	574.219	74.7499	574.219	73.867	574.219	75.5708	574.219	74.8188	574.219	76.198	574.219	75.6647	574.219	76.4247	574.219	76.2308
594.727	80.8607	594.727	80.4834	594.727	81.0998	594.727	79.977	594.727	81.1991	594.727	79.3561	594.727	81.1637	594.727	78.6373	594.727	81.0032	594.727	77.8374	594.727	80.7271	594.727	76.9744	594.727	80.3392	594.727	76.0682	594.727	79.8311	594.727	75.1384	594.727	79.1774	594.727	74.1997	594.727	78.337	594.727	73.2685	594.727	77.271	594.727	72.4022	594.727	75.9951	594.727	71.7734	594.727	74.6966	594.727	71.6741	594.727	73.8506	594.727	72.2653	594.727	73.9043	594.727	73.3219	594.727	74.6239	594.727	74.4401	594.727	75.3959	594.727	75.3223	594.727	75.8348	594.727	75.8108
615.234	80.8292	615.234	80.4217	615.234	81.1334	615.234	79.9316	615.234	81.3201	615.234	79.3829	615.234	81.3835	615.234	78.7955	615.234	81.3252	615.234	78.1764	615.234	81.1511	615.234	77.5123	615.234	80.8646	615.234	76.7681	615.234	80.458	615.234	75.8901	615.234	79.9065	615.234	74.8112	615.234	79.1695	615.234	73.4591	615.234	78.2006	615.234	71.7933	615.234	76.9695	615.234	69.9748	615.234	75.5131	615.234	68.8125	615.234	74.0613	615.234	69.4324	615.234	73.1794	615.234	71.2542	615.234	73.3324	615.234	73.0267	615.234	74.0966	615.234	74.2494	615.234	74.722	615.234	74.8129
637.207	80.3286	637.207	79.8916	637.207	80.638	637.207	79.3592	637.207	80.8079	637.207	78.7791	637.207	80.848	637.207	78.204	637.207	80.7863	637.207	77.6783	637.207	80.6587	637.207	77.2218	637.207	80.492	637.207	76.8165	637.207	80.2848	637.207	76.4015	637.207	79.9964	637.207	75.8779	637.207	79.5526	637.207	75.1182	637.207	78.8659	637.207	73.9749	637.207	77.8612	637.207	72.2991	637.207	76.5153	637.207	70.0733	637.207	74.9497	637.207	68.0882	637.207	73.6071	637.207	68.4159	637.207	73.12	637.207	70.5215	637.207	73.4127	637.207	72.3844	637.207	73.7089	637.207	73.442
659.912	79.8393	659.912	79.2488	659.912	80.2644	659.912	78.5433	659.912	80.5011	659.912	77.8051	659.912	80.5506	659.912	77.1427	659.912	80.4371	659.912	76.6597	659.912	80.2099	659.912	76.4049	659.912	79.9393	659.912	76.3411	659.912	79.7001	659.912	76.3595	659.912	79.535	659.912	76.3185	659.912	79.4136	659.912	76.0714	659.912	79.2219	659.912	75.4763	659.912	78.7936	659.912	74.4041	659.912	77.9662	659.912	72.7885	659.912	76.668	659.912	70.8753	659.912	75.1073	659.912	69.8203	659.912	73.9679	659.912	70.7019	659.912	73.745	659.912	72.3134	659.912	73.8304	659.912	73.4439
683.35	80.4436	683.35	79.7437	683.35	80.9414	683.35	78.8713	683.35	81.2239	683.35	77.8775	683.35	81.2915	683.35	76.8397	683.35	81.1563	683.35	75.8649	683.35	80.8396	683.35	75.0768	683.35	80.3764	683.35	74.5784	683.35	79.83	683.35	74.395	683.35	79.3176	683.35	74.436	683.35	78.9976	683.35	74.5135	683.35	78.9438	683.35	74.4057	683.35	78.9948	683.35	73.9249	683.35	78.829	683.35	72.9947	683.35	78.1961	683.35	71.8486	683.35	77.1096	683.35	71.3296	683.35	75.9836	683.35	72.1364	683.35	75.356	683.35	73.5291	683.35	75.095	683.35	74.5915
706.787	80.7537	706.787	79.8952	706.787	81.392	706.787	78.8296	706.787	81.8091	706.787	77.5903	706.787	82.0114	706.787	76.2479	706.787	82.0092	706.787	74.932	706.787	81.8133	706.787	73.8309	706.787	81.4345	706.787	73.1157	706.787	80.8931	706.787	72.8089	706.787	80.2482	706.787	72.7523	706.787	79.6316	706.787	72.7078	706.787	79.2072	706.787	72.4465	706.787	78.9926	706.787	71.7822	706.787	78.7663	706.787	70.6471	706.787	78.2766	706.787	69.4274	706.787	77.5154	706.787	69.4467	706.787	76.7849	706.787	71.2515	706.787	76.3299	706.787	73.4106	706.787	75.8917	706.787	75.0013
731.689	78.5173	731.689	77.155	731.689	79.6864	731.689	75.6559	731.689	80.6362	731.689	74.1006	731.689	81.3642	731.689	72.5686	731.689	81.8784	731.689	71.1024	731.689	82.1844	731.689	69.6964	731.689	82.2782	731.689	68.3553	731.689	82.1495	731.689	67.2424	731.689	81.7993	731.689	66.7455	731.689	81.2704	731.689	67.034	731.689	80.658	731.689	67.5919	731.689	80.0475	731.689	67.6305	731.689	79.4203	731.689	66.336	731.689	78.7099	731.689	62.0582	731.689	77.9831	731.689	50.0172	731.689	77.4027	731.689	65.1743	731.689	76.8862	731.689	71.1338	731.689	76.0194	731.689	74.2999
758.057	74.9691	758.057	75.2333	758.057	74.7348	758.057	75.3771	758.057	74.7666	758.057	75.3755	758.057	75.2001	758.057	75.2833	758.057	75.9149	758.057	75.1592	758.057	76.6557	758.057	74.9948	758.057	77.2312	758.057	74.7084	758.057	77.5815	758.057	74.2271	758.057	77.7573	758.057	73.6169	758.057	77.837	758.057	73.171	758.057	77.7829	758.057	73.1949	758.057	77.3882	758.057	73.5226	758.057	76.4496	758.057	73.6002	758.057	75.0512	758.057	72.9144	758.057	73.6953	758.057	71.0029	758.057	72.7123	758.057	67.1109	758.057	71.5386	758.057	60.8163	758.057	69.1843	758.057	64.4168
784.424	79.8133	784.424	79.7928	784.424	79.5527	784.424	79.4877	784.424	79.0661	784.424	78.9545	784.424	78.447	784.424	78.3168	784.424	77.7915	784.424	77.7341	784.424	77.1357	784.424	77.3019	784.424	76.4249	784.424	76.9616	784.424	75.6047	784.424	76.5627	784.424	74.8438	784.424	76.0295	784.424	74.591	784.424	75.483	784.424	74.883	784.424	75.1799	784.424	74.9539	784.424	75.179	784.424	74.037	784.424	75.1552	784.424	71.8749	784.424	74.6705	784.424	69.5042	784.424	73.4036	784.424	69.245	784.424	71.2261	784.424	69.7435	784.424	68.714	784.424	69.1728	784.424	68.0318
812.256	80.7227	812.256	80.6566	812.256	80.5146	812.256	80.2542	812.256	80.1324	812.256	79.5107	812.256	79.6941	812.256	78.5298	812.256	79.2863	812.256	77.5905	812.256	78.8895	812.256	77.046	812.256	78.3441	812.256	76.9271	812.256	77.4096	812.256	76.8496	812.256	75.9239	812.256	76.4403	812.256	74.2654	812.256	75.635	812.256	73.8661	812.256	74.7893	812.256	74.8632	812.256	74.4856	812.256	75.4376	812.256	74.7296	812.256	74.6081	812.256	74.8917	812.256	72.2034	812.256	74.5092	812.256	69.5115	812.256	73.5392	812.256	69.6138	812.256	72.3577	812.256	70.8031	812.256	71.5112
840.82	81.7124	840.82	81.5741	840.82	81.4824	840.82	81.062	840.82	80.9214	840.82	80.191	840.82	80.1324	840.82	79.021	840.82	79.3168	840.82	77.7486	840.82	78.7137	840.82	76.8043	840.82	78.3733	840.82	76.5753	840.82	78.0119	840.82	76.8186	840.82	77.1837	840.82	76.9132	840.82	75.5684	840.82	76.4535	840.82	73.5777	840.82	75.3943	840.82	73.189	840.82	74.1713	840.82	74.3336	840.82	73.637	840.82	74.7439	840.82	73.9267	840.82	73.8522	840.82	74.2457	840.82	72.402	840.82	74.1159	840.82	71.8256	840.82	73.5949	840.82	72.2702	840.82	72.9369
870.85	82.3982	870.85	82.3127	870.85	82.1323	870.85	81.8524	870.85	81.5391	870.85	80.9848	870.85	80.6681	870.85	79.6718	870.85	79.6362	870.85	77.9169	870.85	78.6461	870.85	75.9658	870.85	77.8687	870.85	74.7007	870.85	77.2119	870.85	74.9837	870.85	76.3248	870.85	76.04	870.85	74.9804	870.85	76.7936	870.85	73.7451	870.85	76.8562	870.85	73.8592	870.85	76.1982	870.85	74.679	870.85	75.007	870.85	74.7667	870.85	73.8292	870.85	73.9215	870.85	73.4975	870.85	73.1939	870.85	74.1246	870.85	73.7634	870.85	74.9236	870.85	74.7934	870.85	75.2382
901.611	82.7883	901.611	82.7034	901.611	82.5286	901.611	82.2993	901.611	81.9205	901.611	81.6005	901.611	81.0111	901.611	80.6122	901.611	79.9377	901.611	79.3251	901.611	78.9505	901.611	77.7766	901.611	78.2898	901.611	76.2077	901.611	77.884	901.611	75.1939	901.611	77.2795	901.611	75.1429	901.611	75.9446	901.611	75.6206	901.611	73.7418	901.611	75.9672	901.611	72.2606	901.611	75.8566	901.611	73.2891	901.611	75.2061	901.611	74.2225	901.611	74.1091	901.611	73.6779	901.611	73.0617	901.611	72.7368	901.611	73.0602	901.611	73.5383	901.611	74.1385	901.611	74.8273	901.611	75.0221
933.105	83.4058	933.105	83.248	933.105	83.2115	933.105	82.7502	933.105	82.6656	933.105	81.9286	933.105	81.7928	933.105	80.8019	933.105	80.6679	933.105	79.4079	933.105	79.4559	933.105	77.8561	933.105	78.4018	933.105	76.3905	933.105	77.6365	933.105	75.3534	933.105	76.9372	933.105	74.9544	933.105	75.8772	933.105	75.0969	933.105	74.3393	933.105	75.4611	933.105	73.2132	933.105	75.6534	933.105	73.5266	933.105	75.3369	933.105	74.0518	933.105	74.3561	933.105	73.5008	933.105	73.0351	933.105	72.1291	933.105	72.593	933.105	72.081	933.105	73.4575	933.105	73.4725	933.105	74.0813
966.064	83.8977	966.064	83.6579	966.064	83.7939	966.064	83.101	966.064	83.3219	966.064	82.2467	966.064	82.4705	966.064	81.0962	966.064	81.2812	966.064	79.6398	966.064	79.9194	966.064	77.9273	966.064	78.6894	966.064	76.2324	966.064	77.793	966.064	75.1112	966.064	76.9876	966.064	74.8561	966.064	75.7262	966.064	75.0826	966.064	73.7148	966.064	75.3454	966.064	72.1666	966.064	75.4367	966.064	73.1867	966.064	75.1824	966.064	74.5324	966.064	74.369	966.064	74.3	966.064	73.0073	966.064	72.8033	966.064	72.0736	966.064	72.5196	966.064	72.8261	966.064	73.6856	966.064	73.876
999.756	83.4772	999.756	83.2578	999.756	83.3527	999.756	82.7091	999.756	82.8989	999.756	81.8503	999.756	82.1664	999.756	80.6716	999.756	81.2431	999.756	79.1314	999.756	80.2624	999.756	77.2583	999.756	79.3966	999.756	75.4585	999.756	78.751	999.756	74.6432	999.756	78.1598	999.756	74.9475	999.756	77.1698	999.756	75.4256	999.756	75.3752	999.756	75.6095	999.756	73.3565	999.756	75.6187	999.756	73.3672	999.756	75.4852	999.756	74.3769	999.756	74.8306	999.756	74.0531	999.756	73.2739	999.756	72.4223	999.756	71.4608	999.756	71.7225	999.756	71.602	999.756	72.6309	999.756	72.7194
1,034.91	83.0917	1,034.91	82.7988	1,034.91	83.0832	1,034.91	82.2223	1,034.91	82.7218	1,034.91	81.3762	1,034.91	81.9392	1,034.91	80.2824	1,034.91	80.7375	1,034.91	78.9311	1,034.91	79.3246	1,034.91	77.2248	1,034.91	78.1963	1,034.91	74.9981	1,034.91	77.7815	1,034.91	72.324	1,034.91	77.7546	1,034.91	70.6076	1,034.91	77.3049	1,034.91	71.6571	1,034.91	75.8435	1,034.91	73.7269	1,034.91	73.8341	1,034.91	75.383	1,034.91	74.1234	1,034.91	76.3632	1,034.91	75.8921	1,034.91	76.5336	1,034.91	76.0914	1,034.91	75.7637	1,034.91	74.3083	1,034.91	74.3146	1,034.91	72.7696	1,034.91	73.5451	1,034.91	73.5993	1,034.91	73.9237
1,071.53	83.0308	1,071.53	82.7281	1,071.53	83.065	1,071.53	82.1926	1,071.53	82.7787	1,071.53	81.4553	1,071.53	82.133	1,071.53	80.5608	1,071.53	81.1565	1,071.53	79.5215	1,071.53	80.0059	1,071.53	78.2144	1,071.53	79.0091	1,071.53	76.3538	1,071.53	78.4831	1,071.53	73.6823	1,071.53	78.2438	1,071.53	70.8528	1,071.53	77.6566	1,071.53	70.4314	1,071.53	76.2444	1,071.53	71.7279	1,071.53	74.2346	1,071.53	72.5347	1,071.53	73.1658	1,071.53	72.812	1,071.53	73.6893	1,071.53	72.9452	1,071.53	74.0389	1,071.53	72.8488	1,071.53	73.4189	1,071.53	72.4946	1,071.53	72.7481	1,071.53	72.5741	1,071.53	73.0242	1,071.53	73.0911
1,109.62	83.2351	1,109.62	82.9185	1,109.62	83.2491	1,109.62	82.3284	1,109.62	82.9426	1,109.62	81.4997	1,109.62	82.3062	1,109.62	80.4903	1,109.62	81.3386	1,109.62	79.4143	1,109.62	80.0943	1,109.62	78.3668	1,109.62	78.7956	1,109.62	77.236	1,109.62	77.8483	1,109.62	75.7294	1,109.62	77.3802	1,109.62	73.7791	1,109.62	76.8683	1,109.62	72.1636	1,109.62	75.6525	1,109.62	71.9456	1,109.62	73.5648	1,109.62	72.517	1,109.62	72.4098	1,109.62	73.0534	1,109.62	73.8882	1,109.62	73.3995	1,109.62	74.6305	1,109.62	73.358	1,109.62	73.0737	1,109.62	72.8426	1,109.62	71.0367	1,109.62	72.5087	1,109.62	71.8802	1,109.62	72.6059
1,148.44	82.905	1,148.44	82.4374	1,148.44	82.9933	1,148.44	81.6655	1,148.44	82.669	1,148.44	80.7098	1,148.44	81.92	1,148.44	79.67	1,148.44	80.7775	1,148.44	78.5713	1,148.44	79.3932	1,148.44	77.4323	1,148.44	78.1496	1,148.44	76.3199	1,148.44	77.4827	1,148.44	75.2126	1,148.44	77.1227	1,148.44	73.9603	1,148.44	76.2046	1,148.44	72.7067	1,148.44	74.4157	1,148.44	72.1083	1,148.44	73.0266	1,148.44	72.2408	1,148.44	73.4926	1,148.44	72.2971	1,148.44	74.3687	1,148.44	71.8498	1,148.44	74.3048	1,148.44	71.1501	1,148.44	72.7726	1,148.44	70.7217	1,148.44	70.7576	1,148.44	70.8492	1,148.44	70.7131	1,148.44	71.105
1,189.45	82.8976	1,189.45	82.4623	1,189.45	82.9145	1,189.45	81.6427	1,189.45	82.548	1,189.45	80.5655	1,189.45	81.847	1,189.45	79.3935	1,189.45	80.8348	1,189.45	78.2366	1,189.45	79.5408	1,189.45	77.1696	1,189.45	78.1551	1,189.45	76.2686	1,189.45	77.1551	1,189.45	75.4192	1,189.45	76.7193	1,189.45	74.307	1,189.45	76.1714	1,189.45	73.0456	1,189.45	74.9395	1,189.45	72.6716	1,189.45	73.0576	1,189.45	73.3986	1,189.45	71.2398	1,189.45	73.8612	1,189.45	72.0185	1,189.45	73.3351	1,189.45	73.7181	1,189.45	72.1385	1,189.45	73.0248	1,189.45	71.3178	1,189.45	70.6866	1,189.45	71.3882	1,189.45	70.7115	1,189.45	71.4969
1,231.2	83.1513	1,231.2	83.0205	1,231.2	82.8392	1,231.2	82.4176	1,231.2	82.1938	1,231.2	81.4163	1,231.2	81.3251	1,231.2	80.1664	1,231.2	80.2402	1,231.2	78.809	1,231.2	78.8229	1,231.2	77.4308	1,231.2	77.1117	1,231.2	76.2015	1,231.2	76.1023	1,231.2	75.3465	1,231.2	76.6026	1,231.2	74.6936	1,231.2	76.788	1,231.2	73.947	1,231.2	75.1465	1,231.2	73.6057	1,231.2	72.2372	1,231.2	74.3098	1,231.2	72.5832	1,231.2	75.2087	1,231.2	74.4563	1,231.2	75.2043	1,231.2	74.8462	1,231.2	73.897	1,231.2	73.3576	1,231.2	71.8392	1,231.2	71.2832	1,231.2	71.2439	1,231.2	71.792	1,231.2	72.0755
1,274.41	84.5519	1,274.41	84.6678	1,274.41	83.8458	1,274.41	84.1754	1,274.41	82.6457	1,274.41	83.167	1,274.41	81.1053	1,274.41	81.8081	1,274.41	79.42	1,274.41	80.1957	1,274.41	77.6661	1,274.41	78.3106	1,274.41	75.7139	1,274.41	76.4281	1,274.41	74.1549	1,274.41	75.3472	1,274.41	74.5328	1,274.41	74.8117	1,274.41	75.133	1,274.41	73.6032	1,274.41	73.9756	1,274.41	72.2191	1,274.41	71.5414	1,274.41	73.3868	1,274.41	70.498	1,274.41	75.4418	1,274.41	70.4374	1,274.41	76.0034	1,274.41	70.7822	1,274.41	74.7324	1,274.41	70.3637	1,274.41	72.3218	1,274.41	67.5538	1,274.41	71.0021	1,274.41	68.3538	1,274.41	70.5763
1,319.82	84.2221	1,319.82	84.3132	1,319.82	83.7352	1,319.82	83.9582	1,319.82	82.9102	1,319.82	83.1239	1,319.82	81.873	1,319.82	81.866	1,319.82	80.7531	1,319.82	80.2847	1,319.82	79.4851	1,319.82	78.3156	1,319.82	77.7324	1,319.82	75.8106	1,319.82	75.192	1,319.82	73.5993	1,319.82	72.8193	1,319.82	73.3748	1,319.82	72.4853	1,319.82	73.6538	1,319.82	72.2174	1,319.82	72.9139	1,319.82	70.3219	1,319.82	72.4268	1,319.82	69.1348	1,319.82	74.0196	1,319.82	71.1324	1,319.82	75.4247	1,319.82	72.9268	1,319.82	74.9165	1,319.82	72.7104	1,319.82	72.2255	1,319.82	69.0251	1,319.82	69.2802	1,319.82	66.3762	1,319.82	68.7199
1,365.97	84.2616	1,365.97	84.2211	1,365.97	83.9363	1,365.97	83.7138	1,365.97	83.3354	1,365.97	82.7016	1,365.97	82.5135	1,365.97	81.3333	1,365.97	81.4625	1,365.97	79.9173	1,365.97	80.063	1,365.97	78.3787	1,365.97	78.0414	1,365.97	75.9205	1,365.97	75.1214	1,365.97	71.99	1,365.97	72.2982	1,365.97	70.4277	1,365.97	72.2551	1,365.97	72.4952	1,365.97	72.525	1,365.97	72.8397	1,365.97	69.878	1,365.97	71.6499	1,365.97	67.3954	1,365.97	72.4501	1,365.97	72.7267	1,365.97	74.8154	1,365.97	74.6551	1,365.97	75.496	1,365.97	73.928	1,365.97	73.8897	1,365.97	71.3449	1,365.97	70.7361	1,365.97	68.5293	1,365.97	68.7061
1,414.31	83.8398	1,414.31	83.6178	1,414.31	83.7796	1,414.31	83.0211	1,414.31	83.3936	1,414.31	81.8654	1,414.31	82.6852	1,414.31	80.1539	1,414.31	81.7377	1,414.31	78.3407	1,414.31	80.5344	1,414.31	76.8827	1,414.31	78.8702	1,414.31	75.1539	1,414.31	76.5485	1,414.31	72.0024	1,414.31	74.1814	1,414.31	67.2083	1,414.31	73.6061	1,414.31	66.601	1,414.31	74.0122	1,414.31	69.3456	1,414.31	72.7197	1,414.31	70.3199	1,414.31	67.611	1,414.31	70.7767	1,414.31	69.1284	1,414.31	72.5222	1,414.31	73.7713	1,414.31	73.9075	1,414.31	74.4546	1,414.31	73.6208	1,414.31	72.766	1,414.31	72.0479	1,414.31	70.8476	1,414.31	70.7334
1,464.11	83.148	1,464.11	82.4513	1,464.11	83.4679	1,464.11	81.5845	1,464.11	83.2597	1,464.11	80.4379	1,464.11	82.6171	1,464.11	78.6355	1,464.11	81.7315	1,464.11	76.0902	1,464.11	80.645	1,464.11	73.912	1,464.11	79.119	1,464.11	73.2104	1,464.11	76.7799	1,464.11	72.2504	1,464.11	73.865	1,464.11	69.2914	1,464.11	72.7622	1,464.11	64.6063	1,464.11	74.1439	1,464.11	64.9812	1,464.11	74.7339	1,464.11	66.4951	1,464.11	72.2893	1,464.11	67.8331	1,464.11	66.1474	1,464.11	70.4008	1,464.11	71.3723	1,464.11	71.7829	1,464.11	73.3443	1,464.11	71.0909	1,464.11	71.376	1,464.11	69.679	1,464.11	70.1157	1,464.11	70.0072
1,515.38	82.5973	1,515.38	81.3559	1,515.38	83.2912	1,515.38	79.9463	1,515.38	83.2795	1,515.38	78.598	1,515.38	82.6315	1,515.38	76.9877	1,515.38	81.5123	1,515.38	74.5727	1,515.38	80.1373	1,515.38	71.7658	1,515.38	78.6122	1,515.38	70.5731	1,515.38	76.6329	1,515.38	70.3983	1,515.38	73.7983	1,515.38	69.0813	1,515.38	71.0139	1,515.38	66.4301	1,515.38	70.9184	1,515.38	65.1722	1,515.38	71.987	1,515.38	64.6742	1,515.38	71.4228	1,515.38	61.8456	1,515.38	68.7954	1,515.38	65.6986	1,515.38	70.6351	1,515.38	69.5937	1,515.38	72.2122	1,515.38	69.5372	1,515.38	69.4759	1,515.38	66.7019	1,515.38	66.2715	1,515.38	65.8654
1,568.85	81.8183	1,568.85	80.4236	1,568.85	82.8371	1,568.85	78.7818	1,568.85	83.3233	1,568.85	77.0007	1,568.85	83.1533	1,568.85	75.0697	1,568.85	82.2481	1,568.85	72.4789	1,568.85	80.7318	1,568.85	69.0926	1,568.85	78.9809	1,568.85	67.3694	1,568.85	77.1436	1,568.85	68.689	1,568.85	74.8914	1,568.85	68.99	1,568.85	72.3994	1,568.85	67.7356	1,568.85	71.4479	1,568.85	68.6706	1,568.85	72.2967	1,568.85	69.4886	1,568.85	72.2343	1,568.85	66.456	1,568.85	70.6032	1,568.85	58.6908	1,568.85	71.5194	1,568.85	66.109	1,568.85	72.6893	1,568.85	67.8746	1,568.85	70.2868	1,568.85	64.7203	1,568.85	65.6969	1,568.85	62.8673
1,624.51	80.661	1,624.51	79.2978	1,624.51	81.8799	1,624.51	77.6917	1,624.51	82.7564	1,624.51	75.6848	1,624.51	82.9775	1,624.51	73.7021	1,624.51	82.2714	1,624.51	72.372	1,624.51	80.6213	1,624.51	70.8899	1,624.51	78.5042	1,624.51	68.0783	1,624.51	76.6984	1,624.51	68.4932	1,624.51	75.364	1,624.51	70.2624	1,624.51	74.3744	1,624.51	68.2231	1,624.51	73.9125	1,624.51	66.1513	1,624.51	73.7178	1,624.51	69.9996	1,624.51	73.2064	1,624.51	70.9386	1,624.51	70.2658	1,624.51	67.2829	1,624.51	70.083	1,624.51	63.1511	1,624.51	72.453	1,624.51	65.3641	1,624.51	69.0229	1,624.51	62.6589	1,624.51	61.3138	1,624.51	56.2864
1,681.64	79.6496	1,681.64	78.3734	1,681.64	80.7222	1,681.64	76.9356	1,681.64	81.7532	1,681.64	75.6664	1,681.64	82.4913	1,681.64	74.8488	1,681.64	82.3082	1,681.64	74.5179	1,681.64	80.7458	1,681.64	74.1187	1,681.64	77.8233	1,681.64	72.2527	1,681.64	74.6467	1,681.64	69.227	1,681.64	73.3538	1,681.64	69.5234	1,681.64	73.4132	1,681.64	69.4531	1,681.64	73.2309	1,681.64	66.8922	1,681.64	72.7104	1,681.64	67.8283	1,681.64	72.8448	1,681.64	69.9587	1,681.64	71.1312	1,681.64	68.7784	1,681.64	68.5443	1,681.64	64.5942	1,681.64	70.674	1,681.64	63.6358	1,681.64	67.7759	1,681.64	63.6636	1,681.64	61.1699	1,681.64	60.6241
1,740.97	79.2893	1,740.97	77.422	1,740.97	80.5628	1,740.97	75.5762	1,740.97	81.2603	1,740.97	74.5788	1,740.97	81.5003	1,740.97	73.9683	1,740.97	81.1061	1,740.97	73.3443	1,740.97	79.6898	1,740.97	73.2293	1,740.97	76.8641	1,740.97	72.8306	1,740.97	72.5745	1,740.97	71.2349	1,740.97	69.0872	1,740.97	69.2242	1,740.97	68.8395	1,740.97	68.2674	1,740.97	69.1123	1,740.97	67.4836	1,740.97	68.6826	1,740.97	66.8581	1,740.97	69.32	1,740.97	67.7402	1,740.97	69.1561	1,740.97	68.5832	1,740.97	68.7001	1,740.97	67.4237	1,740.97	69.8761	1,740.97	63.3415	1,740.97	67.9388	1,740.97	55.7325	1,740.97	61.7822	1,740.97	53.0398
1,802.49	80.2502	1,802.49	78.2069	1,802.49	81.1228	1,802.49	74.7363	1,802.49	81.0944	1,802.49	70.7284	1,802.49	80.3841	1,802.49	69.6568	1,802.49	79.118	1,802.49	70.1327	1,802.49	77.0743	1,802.49	70.053	1,802.49	73.6744	1,802.49	69.6988	1,802.49	68.6374	1,802.49	69.5319	1,802.49	64.2886	1,802.49	69.2246	1,802.49	63.4321	1,802.49	68.3503	1,802.49	63.8308	1,802.49	67.3306	1,802.49	63.9473	1,802.49	66.5562	1,802.49	63.0138	1,802.49	65.8302	1,802.49	62.7337	1,802.49	65.3049	1,802.49	64.8901	1,802.49	63.7355	1,802.49	66.6197	1,802.49	58.0344	1,802.49	65.5304	1,802.49	56.1725	1,802.49	63.0122	1,802.49	61.5937
1,866.21	80.7005	1,866.21	78.6317	1,866.21	81.4261	1,866.21	74.3948	1,866.21	81.0753	1,866.21	65.4979	1,866.21	79.5686	1,866.21	54.9235	1,866.21	76.9144	1,866.21	65.0571	1,866.21	73.7851	1,866.21	67.0715	1,866.21	70.738	1,866.21	67.6902	1,866.21	66.6914	1,866.21	68.1912	1,866.21	63.5904	1,866.21	68.6071	1,866.21	63.8211	1,866.21	68.6843	1,866.21	62.9778	1,866.21	68.6919	1,866.21	62.664	1,866.21	68.0429	1,866.21	61.8063	1,866.21	65.9047	1,866.21	59.7768	1,866.21	63.4322	1,866.21	60.052	1,866.21	61.0632	1,866.21	62.3993	1,866.21	51.817	1,866.21	64.5256	1,866.21	57.8098	1,866.21	64.4567	1,866.21	62.8517
1,932.13	80.4114	1,932.13	78.6863	1,932.13	80.8762	1,932.13	75.8341	1,932.13	80.1833	1,932.13	71.8262	1,932.13	78.5228	1,932.13	65.5096	1,932.13	75.7817	1,932.13	60.2074	1,932.13	72.4356	1,932.13	65.0741	1,932.13	71.0481	1,932.13	67.4297	1,932.13	69.7949	1,932.13	68.1864	1,932.13	66.3027	1,932.13	68.1145	1,932.13	65.5512	1,932.13	67.5065	1,932.13	66.5162	1,932.13	66.726	1,932.13	65.7804	1,932.13	66.4515	1,932.13	63.9513	1,932.13	65.875	1,932.13	61.1095	1,932.13	62.7968	1,932.13	61.1109	1,932.13	56.3205	1,932.13	61.3583	1,932.13	57.1314	1,932.13	62.8181	1,932.13	59.1705	1,932.13	65.0151	1,932.13	63.426
2,000.24	81.2519	2,000.24	80.0568	2,000.24	81.1029	2,000.24	77.6782	2,000.24	79.3672	2,000.24	73.6436	2,000.24	76.4241	2,000.24	66.7872	2,000.24	73.9463	2,000.24	65.3617	2,000.24	73.1884	2,000.24	69.0662	2,000.24	73.4989	2,000.24	69.7388	2,000.24	72.7647	2,000.24	68.572	2,000.24	69.5387	2,000.24	67.2429	2,000.24	67.6021	2,000.24	66.7058	2,000.24	68.6639	2,000.24	65.9771	2,000.24	68.6384	2,000.24	65.6524	2,000.24	67.9808	2,000.24	66.7025	2,000.24	64.8282	2,000.24	66.0024	2,000.24	63.3459	2,000.24	59.8869	2,000.24	58.4257	2,000.24	56.1863	2,000.24	59.093	2,000.24	62.9676	2,000.24	65.9961	2,000.24	65.4496
2,070.56	82.4415	2,070.56	81.563	2,070.56	81.7776	2,070.56	79.0115	2,070.56	79.3662	2,070.56	74.3568	2,070.56	75.5423	2,070.56	68.2932	2,070.56	73.7391	2,070.56	68.2238	2,070.56	74.4502	2,070.56	69.8662	2,070.56	74.8724	2,070.56	69.9722	2,070.56	74.3717	2,070.56	69.4494	2,070.56	71.888	2,070.56	68.863	2,070.56	68.1538	2,070.56	68.7887	2,070.56	67.8203	2,070.56	68.4389	2,070.56	67.9073	2,070.56	66.1211	2,070.56	68.2728	2,070.56	63.8298	2,070.56	65.974	2,070.56	64.8276	2,070.56	61.6816	2,070.56	63.6604	2,070.56	55.5059	2,070.56	60.7464	2,070.56	62.6171	2,070.56	62.0774	2,070.56	68.301	2,070.56	66.32
2,143.8	82.408	2,143.8	81.5549	2,143.8	81.5142	2,143.8	78.6145	2,143.8	78.721	2,143.8	73.3827	2,143.8	73.7955	2,143.8	69.7279	2,143.8	73.9396	2,143.8	70.7377	2,143.8	76.7514	2,143.8	71.0225	2,143.8	76.8976	2,143.8	70.6017	2,143.8	75.463	2,143.8	70.1738	2,143.8	73.1439	2,143.8	69.6784	2,143.8	69.1625	2,143.8	69.3515	2,143.8	67.3978	2,143.8	69.0493	2,143.8	67.8943	2,143.8	67.3917	2,143.8	66.528	2,143.8	66.5072	2,143.8	65.5195	2,143.8	67.1114	2,143.8	58.9942	2,143.8	64.0317	2,143.8	57.8043	2,143.8	62.4875	2,143.8	60.4023	2,143.8	65.3824	2,143.8	67.7308	2,143.8	65.9301
2,219.24	82.0774	2,219.24	81.0633	2,219.24	81.2744	2,219.24	78.4021	2,219.24	78.4545	2,219.24	75.4678	2,219.24	73.8591	2,219.24	74.392	2,219.24	74.3139	2,219.24	73.3639	2,219.24	77.8526	2,219.24	72.0241	2,219.24	78.6198	2,219.24	71.5516	2,219.24	76.6851	2,219.24	71.8428	2,219.24	73.3962	2,219.24	71.629	2,219.24	71.0906	2,219.24	69.558	2,219.24	68.7175	2,219.24	68.2749	2,219.24	68.6642	2,219.24	68.9298	2,219.24	69.3928	2,219.24	67.4554	2,219.24	65.2846	2,219.24	66.412	2,219.24	58.8385	2,219.24	65.4941	2,219.24	53.0202	2,219.24	59.7473	2,219.24	59.8521	2,219.24	64.9913	2,219.24	65.2376	2,219.24	65.5458
2,297.61	82.9626	2,297.61	81.425	2,297.61	82.0916	2,297.61	78.5906	2,297.61	78.3379	2,297.61	76.456	2,297.61	73.7887	2,297.61	74.9499	2,297.61	75.6974	2,297.61	72.8303	2,297.61	78.2007	2,297.61	71.5698	2,297.61	79.3766	2,297.61	71.4477	2,297.61	78.8721	2,297.61	71.5081	2,297.61	75.9485	2,297.61	71.6969	2,297.61	70.6757	2,297.61	71.2223	2,297.61	69.2681	2,297.61	69.5664	2,297.61	69.682	2,297.61	67.6052	2,297.61	71.4803	2,297.61	68.2316	2,297.61	70.3235	2,297.61	69.0348	2,297.61	52.8671	2,297.61	66.6328	2,297.61	54.7905	2,297.61	64.1131	2,297.61	63.2773	2,297.61	65.4608	2,297.61	67.7358	2,297.61	65.4606
2,378.17	83.3428	2,378.17	82.0831	2,378.17	82.5708	2,378.17	79.8186	2,378.17	78.7424	2,378.17	76.9732	2,378.17	73.1586	2,378.17	74.2057	2,378.17	75.9876	2,378.17	74.2752	2,378.17	78.3787	2,378.17	75.2042	2,378.17	79.0288	2,378.17	74.5228	2,378.17	78.4513	2,378.17	72.3181	2,378.17	76.0007	2,378.17	69.466	2,378.17	71.4584	2,378.17	67.9187	2,378.17	69.9182	2,378.17	68.2765	2,378.17	70.1872	2,378.17	68.1804	2,378.17	70.88	2,378.17	65.7665	2,378.17	71.9953	2,378.17	66.3721	2,378.17	61.6228	2,378.17	67.3926	2,378.17	54.086	2,378.17	63.9007	2,378.17	63.8594	2,378.17	66.6434	2,378.17	68.3886	2,378.17	67.6032
2,462.4	82.85	2,462.4	82.1943	2,462.4	81.7497	2,462.4	79.5509	2,462.4	78.8337	2,462.4	77.1574	2,462.4	74.8764	2,462.4	76.7519	2,462.4	76.2965	2,462.4	75.663	2,462.4	78.7164	2,462.4	74.2202	2,462.4	79.0746	2,462.4	73.2927	2,462.4	78.0991	2,462.4	72.566	2,462.4	75.7278	2,462.4	71.619	2,462.4	70.7526	2,462.4	69.6238	2,462.4	67.9504	2,462.4	68.8025	2,462.4	70.686	2,462.4	68.8673	2,462.4	71.7909	2,462.4	67.209	2,462.4	69.6575	2,462.4	67.7559	2,462.4	63.9754	2,462.4	67.2622	2,462.4	56.4504	2,462.4	64.423	2,462.4	60.8129	2,462.4	66.1489	2,462.4	66.5498	2,462.4	66.0225
2,548.83	82.3563	2,548.83	80.6621	2,548.83	81.7264	2,548.83	78.8514	2,548.83	78.019	2,548.83	78.3297	2,548.83	74.8168	2,548.83	77.3576	2,548.83	77.1784	2,548.83	75.7192	2,548.83	78.6253	2,548.83	74.36	2,548.83	78.5757	2,548.83	72.8479	2,548.83	77.3018	2,548.83	70.5582	2,548.83	74.8088	2,548.83	68.9708	2,548.83	71.15	2,548.83	68.3054	2,548.83	67.0445	2,548.83	67.5212	2,548.83	65.7714	2,548.83	67.4996	2,548.83	69.3332	2,548.83	66.1279	2,548.83	69.9485	2,548.83	66.3943	2,548.83	61.9941	2,548.83	66.6701	2,548.83	56.9156	2,548.83	63.2046	2,548.83	61.544	2,548.83	64.6718	2,548.83	67.0815	2,548.83	65.3832
2,638.92	81.6321	2,638.92	80.5106	2,638.92	81.4382	2,638.92	79.4086	2,638.92	78.4771	2,638.92	78.2954	2,638.92	74.384	2,638.92	77.1097	2,638.92	76.6928	2,638.92	76.0066	2,638.92	78.1024	2,638.92	74.6408	2,638.92	77.9498	2,638.92	73.0592	2,638.92	76.8854	2,638.92	71.2769	2,638.92	73.198	2,638.92	69.9272	2,638.92	65.8894	2,638.92	68.8732	2,638.92	63.741	2,638.92	66.5852	2,638.92	63.8903	2,638.92	65.7938	2,638.92	66.1253	2,638.92	65.2901	2,638.92	68.154	2,638.92	65.0535	2,638.92	63.0864	2,638.92	66.2264	2,638.92	45.1379	2,638.92	63.6092	2,638.92	60.776	2,638.92	64.2061	2,638.92	65.9852	2,638.92	63.5892
2,731.93	81.1007	2,731.93	80.8031	2,731.93	80.9455	2,731.93	79.6963	2,731.93	79.0451	2,731.93	78.1162	2,731.93	75.2076	2,731.93	77.2136	2,731.93	76.5173	2,731.93	76.118	2,731.93	78.0968	2,731.93	73.8556	2,731.93	77.3308	2,731.93	71.2952	2,731.93	76.4881	2,731.93	69.4	2,731.93	74.2164	2,731.93	67.568	2,731.93	66.9149	2,731.93	66.3647	2,731.93	57.9203	2,731.93	65.5523	2,731.93	62.9567	2,731.93	64.8585	2,731.93	66.7352	2,731.93	63.7814	2,731.93	65.8297	2,731.93	62.8001	2,731.93	57.9384	2,731.93	64.9286	2,731.93	48.1041	2,731.93	63.2878	2,731.93	63.278	2,731.93	64.1352	2,731.93	64.3754	2,731.93	63.8022
2,828.61	81.4597	2,828.61	80.9161	2,828.61	80.9073	2,828.61	79.5824	2,828.61	79.6168	2,828.61	78.6909	2,828.61	77.0215	2,828.61	77.139	2,828.61	76.52	2,828.61	74.469	2,828.61	78.0535	2,828.61	72.1259	2,828.61	77.1369	2,828.61	69.7424	2,828.61	75.0566	2,828.61	67.0208	2,828.61	73.2619	2,828.61	66.2501	2,828.61	69.7689	2,828.61	66.6596	2,828.61	62.0288	2,828.61	66.2412	2,828.61	60.5507	2,828.61	65.3082	2,828.61	66.3753	2,828.61	64.4855	2,828.61	66.719	2,828.61	63.4224	2,828.61	56.508	2,828.61	64.053	2,828.61	55.9293	2,828.61	63.3649	2,828.61	63.3639	2,828.61	64.1067	2,828.61	63.7006	2,828.61	64.4192
2,928.22	81.5155	2,928.22	80.3969	2,928.22	81.2988	2,928.22	79.7758	2,928.22	79.9262	2,928.22	79.2339	2,928.22	78.3193	2,928.22	77.1186	2,928.22	77.4287	2,928.22	74.1013	2,928.22	77.8137	2,928.22	71.0819	2,928.22	76.8401	2,928.22	69.848	2,928.22	74.0123	2,928.22	70.3557	2,928.22	72.4743	2,928.22	69.9847	2,928.22	72.1329	2,928.22	68.9279	2,928.22	68.2528	2,928.22	66.6997	2,928.22	59.3884	2,928.22	65.06	2,928.22	64.598	2,928.22	64.2336	2,928.22	64.0604	2,928.22	62.5786	2,928.22	59.3544	2,928.22	64.0624	2,928.22	60.2832	2,928.22	61.8253	2,928.22	64.195	2,928.22	61.8849	2,928.22	63.4157	2,928.22	65.0343
3,031.49	80.9379	3,031.49	80.4835	3,031.49	81.3641	3,031.49	80.1137	3,031.49	80.5283	3,031.49	78.8819	3,031.49	78.8882	3,031.49	76.7625	3,031.49	78.2655	3,031.49	73.4336	3,031.49	78.5246	3,031.49	71.8616	3,031.49	77.6455	3,031.49	72.7579	3,031.49	74.9666	3,031.49	71.5811	3,031.49	72.6389	3,031.49	68.3164	3,031.49	72.1929	3,031.49	67.5473	3,031.49	69.3517	3,031.49	68.0469	3,031.49	58.9562	3,031.49	67.5133	3,031.49	61.8338	3,031.49	66.2808	3,031.49	62.4824	3,031.49	64.2522	3,031.49	60.0291	3,031.49	64.2934	3,031.49	59.4621	3,031.49	64.241	3,031.49	62.2794	3,031.49	62.2986	3,031.49	63.8669	3,031.49	65.1626
3,138.43	81.1407	3,138.43	81.053	3,138.43	81.3004	3,138.43	80.544	3,138.43	81.1043	3,138.43	78.7836	3,138.43	79.5529	3,138.43	75.7067	3,138.43	78.2347	3,138.43	74.5669	3,138.43	78.8493	3,138.43	74.383	3,138.43	78.5306	3,138.43	72.4777	3,138.43	76.3339	3,138.43	71.5372	3,138.43	73.3239	3,138.43	71.1153	3,138.43	72.1019	3,138.43	69.8121	3,138.43	70.8165	3,138.43	68.3268	3,138.43	64.4565	3,138.43	66.9608	3,138.43	59.6219	3,138.43	67.2542	3,138.43	63.1251	3,138.43	65.7022	3,138.43	63.0281	3,138.43	65.3334	3,138.43	58.2415	3,138.43	64.5778	3,138.43	61.4779	3,138.43	62.779	3,138.43	64.7804	3,138.43	64.177
3,249.02	80.7841	3,249.02	80.7444	3,249.02	81.2478	3,249.02	80.9581	3,249.02	80.9129	3,249.02	79.0516	3,249.02	79.7119	3,249.02	76.3745	3,249.02	78.1583	3,249.02	76.0615	3,249.02	77.9033	3,249.02	75.2999	3,249.02	77.7062	3,249.02	74.126	3,249.02	76.3067	3,249.02	73.6283	3,249.02	74.0326	3,249.02	72.5833	3,249.02	71.6041	3,249.02	70.5615	3,249.02	70.6552	3,249.02	69.2366	3,249.02	65.2432	3,249.02	67.5274	3,249.02	61.7189	3,249.02	66.6814	3,249.02	61.7355	3,249.02	66.1479	3,249.02	59.6563	3,249.02	65.5137	3,249.02	56.5516	3,249.02	64.1605	3,249.02	61.8638	3,249.02	63.4076	3,249.02	65.451	3,249.02	65.1154
3,363.28	79.9886	3,363.28	81.3953	3,363.28	80.751	3,363.28	81.1649	3,363.28	81.1912	3,363.28	78.6035	3,363.28	79.7393	3,363.28	77.7999	3,363.28	77.7813	3,363.28	77.1575	3,363.28	77.8404	3,363.28	75.881	3,363.28	77.8636	3,363.28	74.7094	3,363.28	76.0773	3,363.28	71.9663	3,363.28	73.1947	3,363.28	68.7032	3,363.28	69.8958	3,363.28	67.8395	3,363.28	70.2625	3,363.28	68.1209	3,363.28	67.8889	3,363.28	67.7027	3,363.28	61.9443	3,363.28	66.5201	3,363.28	63.7731	3,363.28	65.683	3,363.28	56.7614	3,363.28	65.8938	3,363.28	50.852	3,363.28	65.0119	3,363.28	60.8853	3,363.28	62.8826	3,363.28	64.925	3,363.28	64.0582
3,481.93	80.6194	3,481.93	81.9307	3,481.93	80.3754	3,481.93	80.5384	3,481.93	81.3901	3,481.93	78.9362	3,481.93	79.8368	3,481.93	78.4954	3,481.93	77.3957	3,481.93	77.6454	3,481.93	77.4098	3,481.93	76.3122	3,481.93	77.6272	3,481.93	72.8713	3,481.93	76.2229	3,481.93	70.3018	3,481.93	73.3024	3,481.93	70.2085	3,481.93	69.2404	3,481.93	68.8294	3,481.93	67.0694	3,481.93	67.4424	3,481.93	64.7031	3,481.93	66.3118	3,481.93	60.2194	3,481.93	65.9078	3,481.93	63.4989	3,481.93	65.4555	3,481.93	52.8964	3,481.93	65.9278	3,481.93	54.1657	3,481.93	65.2172	3,481.93	60.4205	3,481.93	62.4675	3,481.93	63.0367	3,481.93	63.8368
3,604.98	80.7769	3,604.98	81.9242	3,604.98	80.0875	3,604.98	80.9655	3,604.98	81.398	3,604.98	79.4603	3,604.98	80.0347	3,604.98	78.7889	3,604.98	76.9438	3,604.98	78.2605	3,604.98	76.8162	3,604.98	75.704	3,604.98	77.0226	3,604.98	72.6964	3,604.98	75.7764	3,604.98	71.2467	3,604.98	72.3349	3,604.98	68.7605	3,604.98	66.7434	3,604.98	66.9367	3,604.98	67.302	3,604.98	66.7197	3,604.98	64.8259	3,604.98	65.8309	3,604.98	43.5845	3,604.98	64.3568	3,604.98	61.292	3,604.98	64.5351	3,604.98	57.7651	3,604.98	64.4387	3,604.98	56.5594	3,604.98	63.9169	3,604.98	60.6635	3,604.98	62.4809	3,604.98	63.1106	3,604.98	63.3889
3,732.42	81.115	3,732.42	82.0099	3,732.42	79.3205	3,732.42	80.4944	3,732.42	81.1181	3,732.42	79.6335	3,732.42	80.2646	3,732.42	79.6253	3,732.42	76.6797	3,732.42	77.6408	3,732.42	77.2053	3,732.42	74.1622	3,732.42	76.6315	3,732.42	71.6088	3,732.42	74.2951	3,732.42	69.0798	3,732.42	72.3791	3,732.42	67.7107	3,732.42	64.277	3,732.42	67.278	3,732.42	65.1141	3,732.42	66.9638	3,732.42	67.3304	3,732.42	65.9356	3,732.42	57.082	3,732.42	65.0618	3,732.42	51.7128	3,732.42	63.2404	3,732.42	57.6361	3,732.42	64.5963	3,732.42	57.7228	3,732.42	63.0446	3,732.42	60.4223	3,732.42	60.3886	3,732.42	62.4465	3,732.42	61.6847
3,863.53	81.866	3,863.53	82.0089	3,863.53	79.9426	3,863.53	80.3576	3,863.53	80.7455	3,863.53	80.06	3,863.53	80.3564	3,863.53	79.625	3,863.53	75.8592	3,863.53	76.8721	3,863.53	76.3301	3,863.53	73.8012	3,863.53	77.4008	3,863.53	70.9361	3,863.53	74.2046	3,863.53	70.5834	3,863.53	70.9689	3,863.53	70.4187	3,863.53	66.5003	3,863.53	67.6949	3,863.53	62.0579	3,863.53	66.6581	3,863.53	67.0457	3,863.53	65.9113	3,863.53	60.5976	3,863.53	64.4005	3,863.53	56.4256	3,863.53	64.7749	3,863.53	56.1207	3,863.53	64.5503	3,863.53	55.6392	3,863.53	64.4159	3,863.53	57.5202	3,863.53	59.307	3,863.53	61.6858	3,863.53	61.4332
3,999.76	81.9847	3,999.76	81.9746	3,999.76	80.0561	3,999.76	80.6661	3,999.76	80.7668	3,999.76	80.8742	3,999.76	80.3056	3,999.76	79.3943	3,999.76	75.8448	3,999.76	76.3057	3,999.76	75.325	3,999.76	73.3309	3,999.76	77.567	3,999.76	73.0333	3,999.76	75.0308	3,999.76	73.0907	3,999.76	70.192	3,999.76	70.1291	3,999.76	67.0217	3,999.76	68.4375	3,999.76	38.7905	3,999.76	67.4776	3,999.76	64.8963	3,999.76	66.4793	3,999.76	55.8644	3,999.76	64.403	3,999.76	60.3942	3,999.76	63.5344	3,999.76	51.239	3,999.76	64.98	3,999.76	60.4912	3,999.76	63.7386	3,999.76	60.2365	3,999.76	60.9942	3,999.76	59.9598	3,999.76	61.778
4,141.11	81.9431	4,141.11	80.8809	4,141.11	79.8281	4,141.11	80.8419	4,141.11	79.8685	4,141.11	81.2005	4,141.11	79.9134	4,141.11	78.4306	4,141.11	74.9189	4,141.11	75.3507	4,141.11	74.7316	4,141.11	75.3135	4,141.11	77.7071	4,141.11	73.446	4,141.11	75.461	4,141.11	68.8371	4,141.11	68.9606	4,141.11	68.1648	4,141.11	66.4178	4,141.11	66.8122	4,141.11	64.7519	4,141.11	66.1469	4,141.11	60.8698	4,141.11	64.7647	4,141.11	57.9378	4,141.11	64.3659	4,141.11	56.5501	4,141.11	61.8511	4,141.11	57.2309	4,141.11	64.3228	4,141.11	58.7227	4,141.11	62.8945	4,141.11	56.6024	4,141.11	60.8374	4,141.11	60.4769	4,141.11	61.4513
4,286.87	81.8357	4,286.87	81.0453	4,286.87	80.4545	4,286.87	81.1515	4,286.87	79.3915	4,286.87	80.4941	4,286.87	79.8597	4,286.87	77.7485	4,286.87	75.8265	4,286.87	76.1036	4,286.87	73.1306	4,286.87	74.3659	4,286.87	77.7661	4,286.87	71.2391	4,286.87	76.3348	4,286.87	71.1708	4,286.87	71.4317	4,286.87	69.1805	4,286.87	70.9051	4,286.87	65.6268	4,286.87	67.2771	4,286.87	65.6842	4,286.87	60.4026	4,286.87	64.0612	4,286.87	55.2233	4,286.87	63.008	4,286.87	56.4638	4,286.87	61.8231	4,286.87	56.7984	4,286.87	62.7502	4,286.87	50.3545	4,286.87	63.4344	4,286.87	52.8207	4,286.87	60.0305	4,286.87	60.555	4,286.87	60.3096
4,438.48	81.3488	4,438.48	80.7379	4,438.48	80.5729	4,438.48	81.9369	4,438.48	79.0225	4,438.48	79.87	4,438.48	79.4048	4,438.48	76.0526	4,438.48	76.3005	4,438.48	75.4454	4,438.48	71.4848	4,438.48	73.0089	4,438.48	75.9422	4,438.48	70.8878	4,438.48	75.8614	4,438.48	64.8621	4,438.48	72.285	4,438.48	63.5837	4,438.48	69.2427	4,438.48	64.8593	4,438.48	68.3444	4,438.48	63.5934	4,438.48	59.7536	4,438.48	62.4803	4,438.48	57.8538	4,438.48	61.939	4,438.48	60.1445	4,438.48	60.4332	4,438.48	51.824	4,438.48	60.3067	4,438.48	46.2942	4,438.48	61.8049	4,438.48	52.0494	4,438.48	56.2723	4,438.48	59.1442	4,438.48	59.8272
4,594.48	81.4021	4,594.48	81.3618	4,594.48	81.0405	4,594.48	81.6517	4,594.48	78.4305	4,594.48	78.8519	4,594.48	78.326	4,594.48	76.3378	4,594.48	75.6423	4,594.48	74.2464	4,594.48	71.3376	4,594.48	71.4412	4,594.48	74.8486	4,594.48	67.978	4,594.48	74.7107	4,594.48	70.0167	4,594.48	73.2427	4,594.48	68.5345	4,594.48	70.0243	4,594.48	64.6533	4,594.48	67.3046	4,594.48	66.1858	4,594.48	66.9527	4,594.48	64.3238	4,594.48	57.9869	4,594.48	62.7836	4,594.48	56.904	4,594.48	61.5055	4,594.48	54.8845	4,594.48	61.1297	4,594.48	46.9558	4,594.48	61.5911	4,594.48	56.5829	4,594.48	57.4022	4,594.48	59.2481	4,594.48	57.4642
4,757.08	81.1437	4,757.08	81.8973	4,757.08	81.3527	4,757.08	81.5615	4,757.08	79.4826	4,757.08	77.6301	4,757.08	78.4669	4,757.08	76.346	4,757.08	75.4623	4,757.08	74.2937	4,757.08	70.1501	4,757.08	70.4886	4,757.08	74.7996	4,757.08	70.7758	4,757.08	74.1084	4,757.08	68.9722	4,757.08	71.2248	4,757.08	66.4061	4,757.08	70.4155	4,757.08	66.2394	4,757.08	67.4798	4,757.08	65.8975	4,757.08	69.1297	4,757.08	64.8293	4,757.08	60.3392	4,757.08	64.187	4,757.08	36.3142	4,757.08	62.5482	4,757.08	52.0513	4,757.08	61.2047	4,757.08	55.9231	4,757.08	62.9258	4,757.08	53.8625	4,757.08	56.2469	4,757.08	61.4804	4,757.08	59.9692
4,924.8	81.0604	4,924.8	81.8288	4,924.8	81.0521	4,924.8	80.4544	4,924.8	78.7267	4,924.8	77.64	4,924.8	78.2069	4,924.8	76.8937	4,924.8	76.7131	4,924.8	73.3205	4,924.8	69.3163	4,924.8	73.1148	4,924.8	74.5831	4,924.8	71.6637	4,924.8	75.469	4,924.8	71.5471	4,924.8	72.3716	4,924.8	68.7043	4,924.8	69.89	4,924.8	65.6759	4,924.8	66.0245	4,924.8	65.5941	4,924.8	68.6921	4,924.8	63.9277	4,924.8	56.8043	4,924.8	64.0044	4,924.8	45.5606	4,924.8	62.7476	4,924.8	51.2693	4,924.8	61.8094	4,924.8	56.4596	4,924.8	62.3377	4,924.8	56.5473	4,924.8	55.2662	4,924.8	56.6306	4,924.8	58.2105
5,098.39	80.618	5,098.39	81.5653	5,098.39	81.2328	5,098.39	79.6731	5,098.39	78.9652	5,098.39	77.8159	5,098.39	76.9333	5,098.39	76.6797	5,098.39	77.3152	5,098.39	73.7186	5,098.39	71.0277	5,098.39	72.7227	5,098.39	73.5292	5,098.39	72.0904	5,098.39	77.1725	5,098.39	69.3201	5,098.39	74.0554	5,098.39	63.9872	5,098.39	70.6498	5,098.39	64.6969	5,098.39	66.2222	5,098.39	62.574	5,098.39	67.8917	5,098.39	61.6677	5,098.39	55.7181	5,098.39	61.8586	5,098.39	55.9206	5,098.39	60.143	5,098.39	45.4415	5,098.39	61.4894	5,098.39	55.2837	5,098.39	60.1498	5,098.39	52.8103	5,098.39	52.7249	5,098.39	59.812	5,098.39	55.8552
5,277.83	80.2527	5,277.83	81.2041	5,277.83	80.8803	5,277.83	79.3655	5,277.83	80.137	5,277.83	78.4617	5,277.83	76.9615	5,277.83	75.5002	5,277.83	76.5688	5,277.83	74.2543	5,277.83	72.4525	5,277.83	72.5243	5,277.83	71.4337	5,277.83	68.7766	5,277.83	76.7862	5,277.83	67.1542	5,277.83	73.0868	5,277.83	64.7916	5,277.83	67.5709	5,277.83	64.6179	5,277.83	66.9172	5,277.83	60.9112	5,277.83	65.5239	5,277.83	62.4459	5,277.83	55.521	5,277.83	61.5172	5,277.83	55.9232	5,277.83	59.1158	5,277.83	48.7842	5,277.83	60.4216	5,277.83	56.2465	5,277.83	60.5341	5,277.83	51.5552	5,277.83	49.6865	5,277.83	60.2802	5,277.83	57.7096
5,463.87	81.4861	5,463.87	81.7217	5,463.87	80.5617	5,463.87	80.0842	5,463.87	80.0818	5,463.87	78.6554	5,463.87	77.5965	5,463.87	75.1663	5,463.87	76.7599	5,463.87	74.5673	5,463.87	73.5518	5,463.87	69.7967	5,463.87	70.7686	5,463.87	69.4039	5,463.87	76.49	5,463.87	66.906	5,463.87	72.7543	5,463.87	67.7467	5,463.87	62.8997	5,463.87	66.1596	5,463.87	64.55	5,463.87	62.6271	5,463.87	64.8237	5,463.87	64.0178	5,463.87	57.5124	5,463.87	62.0682	5,463.87	54.6235	5,463.87	60.6927	5,463.87	41.274	5,463.87	61.1137	5,463.87	57.0575	5,463.87	61.2499	5,463.87	45.9829	5,463.87	55.8144	5,463.87	59.4734	5,463.87	54.0593
5,656.49	81.5926	5,656.49	81.3396	5,656.49	80.8451	5,656.49	80.6475	5,656.49	79.6436	5,656.49	78.1499	5,656.49	77.5514	5,656.49	76.0738	5,656.49	77.0616	5,656.49	75.1802	5,656.49	74.1539	5,656.49	71.3226	5,656.49	68.0057	5,656.49	71.4478	5,656.49	75.0005	5,656.49	69.6409	5,656.49	72.6724	5,656.49	69.3741	5,656.49	66.0302	5,656.49	66.7807	5,656.49	64.2575	5,656.49	64.3631	5,656.49	61.2475	5,656.49	65.3128	5,656.49	54.5378	5,656.49	62.6982	5,656.49	60.6185	5,656.49	62.6397	5,656.49	38.6579	5,656.49	62.1038	5,656.49	54.268	5,656.49	63.1778	5,656.49	49.0857	5,656.49	57.0588	5,656.49	60.7242	5,656.49	55.9811
5,856.45	81.7246	5,856.45	81.9717	5,856.45	80.9005	5,856.45	80.2123	5,856.45	79.923	5,856.45	77.5853	5,856.45	77.9006	5,856.45	77.4	5,856.45	76.9396	5,856.45	74.8021	5,856.45	74.5053	5,856.45	73.554	5,856.45	68.5893	5,856.45	72.87	5,856.45	73.683	5,856.45	68.6477	5,856.45	73.3411	5,856.45	69.0798	5,856.45	67.7306	5,856.45	65.9815	5,856.45	66.1995	5,856.45	64.1965	5,856.45	57.2629	5,856.45	64.3229	5,856.45	54.419	5,856.45	61.9789	5,856.45	59.8963	5,856.45	63.0489	5,856.45	42.0044	5,856.45	60.8345	5,856.45	57.2349	5,856.45	62.2576	5,856.45	51.1378	5,856.45	58.0365	5,856.45	59.0336	5,856.45	58.2369
6,062.99	82.1643	6,062.99	81.6271	6,062.99	81.5329	6,062.99	79.4745	6,062.99	80.0533	6,062.99	78.3164	6,062.99	78.2858	6,062.99	77.4457	6,062.99	77.6057	6,062.99	74.9421	6,062.99	75.4622	6,062.99	74.6976	6,062.99	70.7699	6,062.99	70.6331	6,062.99	73.7641	6,062.99	67.788	6,062.99	72.8758	6,062.99	65.5854	6,062.99	65.4901	6,062.99	62.2183	6,062.99	64.2547	6,062.99	63.616	6,062.99	59.2897	6,062.99	61.0062	6,062.99	60.6595	6,062.99	61.1132	6,062.99	52.7661	6,062.99	62.0349	6,062.99	50.7678	6,062.99	60.1984	6,062.99	56.1097	6,062.99	61.212	6,062.99	45.338	6,062.99	57.9088	6,062.99	55.7138	6,062.99	56.0922
6,276.86	82.5389	6,276.86	81.5047	6,276.86	81.9964	6,276.86	79.4619	6,276.86	80.0942	6,276.86	78.8676	6,276.86	78.0638	6,276.86	76.9675	6,276.86	77.6351	6,276.86	75.1933	6,276.86	75.5154	6,276.86	72.8069	6,276.86	71.6116	6,276.86	68.9179	6,276.86	72.7909	6,276.86	67.0446	6,276.86	71.1555	6,276.86	64.8192	6,276.86	67.3813	6,276.86	64.425	6,276.86	61.707	6,276.86	63.0066	6,276.86	57.1387	6,276.86	62.7979	6,276.86	58.8463	6,276.86	60.8588	6,276.86	46.2971	6,276.86	61.3563	6,276.86	53.9457	6,276.86	60.8241	6,276.86	53.9197	6,276.86	61.703	6,276.86	49.675	6,276.86	55.9988	6,276.86	54.192	6,276.86	52.048
6,498.05	82.5389	6,498.05	81.2941	6,498.05	82.3181	6,498.05	80.6014	6,498.05	80.787	6,498.05	79.3649	6,498.05	78.1499	6,498.05	76.4358	6,498.05	76.3254	6,498.05	75.5835	6,498.05	74.7069	6,498.05	71.3277	6,498.05	71.2113	6,498.05	70.4393	6,498.05	71.8664	6,498.05	69.4697	6,498.05	69.301	6,498.05	66.1719	6,498.05	64.9727	6,498.05	63.7107	6,498.05	62.3354	6,498.05	62.0086	6,498.05	52.0064	6,498.05	62.7082	6,498.05	49.9261	6,498.05	62.7556	6,498.05	50.2948	6,498.05	61.5713	6,498.05	49.0035	6,498.05	61.7148	6,498.05	53.6262	6,498.05	63.003	6,498.05	51.1834	6,498.05	57.256	6,498.05	57.7684	6,498.05	53.5691
6,727.29	82.6242	6,727.29	81.6861	6,727.29	82.9363	6,727.29	81.4851	6,727.29	81.2322	6,727.29	78.7756	6,727.29	78.7163	6,727.29	77.2752	6,727.29	76.9989	6,727.29	75.6187	6,727.29	75.1647	6,727.29	72.7455	6,727.29	69.6457	6,727.29	71.5978	6,727.29	69.8011	6,727.29	68.9923	6,727.29	69.6277	6,727.29	67.4285	6,727.29	65.0537	6,727.29	64.528	6,727.29	58.6049	6,727.29	63.0095	6,727.29	53.4055	6,727.29	62.6573	6,727.29	41.4955	6,727.29	62.4392	6,727.29	55.7464	6,727.29	62.7814	6,727.29	54.8364	6,727.29	61.0726	6,727.29	54.988	6,727.29	63.2272	6,727.29	49.2578	6,727.29	58.177	6,727.29	57.3317	6,727.29	54.4092
6,964.6	82.6315	6,964.6	82.2205	6,964.6	83.0774	6,964.6	81.2218	6,964.6	81.7419	6,964.6	78.6755	6,964.6	79.2333	6,964.6	78.4255	6,964.6	77.7117	6,964.6	75.6176	6,964.6	76.6265	6,964.6	73.8076	6,964.6	71.0848	6,964.6	70.8553	6,964.6	67.5823	6,964.6	68.1839	6,964.6	72.2759	6,964.6	66.2736	6,964.6	70.3314	6,964.6	62.9027	6,964.6	61.7249	6,964.6	62.452	6,964.6	62.5009	6,964.6	60.6737	6,964.6	50.1387	6,964.6	61.6212	6,964.6	53.2084	6,964.6	61.772	6,964.6	55.1573	6,964.6	60.1945	6,964.6	54.9038	6,964.6	62.946	6,964.6	43.5774	6,964.6	57.3225	6,964.6	56.4819	6,964.6	53.2056
7,209.96	82.4716	7,209.96	82.2866	7,209.96	83.2028	7,209.96	80.6064	7,209.96	82.3191	7,209.96	79.9833	7,209.96	79.4449	7,209.96	78.6095	7,209.96	77.4958	7,209.96	75.427	7,209.96	76.4764	7,209.96	72.7486	7,209.96	72.2096	7,209.96	68.4826	7,209.96	68.6758	7,209.96	67.3953	7,209.96	73.3274	7,209.96	62.6224	7,209.96	71.9036	7,209.96	62.7538	7,209.96	60.892	7,209.96	63.6288	7,209.96	63.9493	7,209.96	61.4606	7,209.96	55.4634	7,209.96	61.1737	7,209.96	48.3717	7,209.96	60.7585	7,209.96	52.9062	7,209.96	60.0256	7,209.96	53.4557	7,209.96	61.9105	7,209.96	48.3656	7,209.96	56.8837	7,209.96	53.4904	7,209.96	48.2406
7,464.11	82.04	7,464.11	81.8698	7,464.11	82.6006	7,464.11	81.0764	7,464.11	82.1657	7,464.11	80.4953	7,464.11	80.0083	7,464.11	78.0873	7,464.11	77.4961	7,464.11	75.4156	7,464.11	76.1163	7,464.11	71.5641	7,464.11	71.3481	7,464.11	70.0557	7,464.11	68.4941	7,464.11	66.6159	7,464.11	72.2463	7,464.11	64.7012	7,464.11	71.1005	7,464.11	64.1618	7,464.11	65.0826	7,464.11	60.467	7,464.11	63.9866	7,464.11	62.5297	7,464.11	58.646	7,464.11	61.5223	7,464.11	47.9211	7,464.11	61.7953	7,464.11	48.1649	7,464.11	60.5263	7,464.11	49.2147	7,464.11	63.6417	7,464.11	48.8712	7,464.11	58.6001	7,464.11	53.8488	7,464.11	46.6147
7,727.78	81.2385	7,727.78	81.6182	7,727.78	81.4436	7,727.78	81.1904	7,727.78	81.567	7,727.78	80.0137	7,727.78	79.7596	7,727.78	77.6306	7,727.78	77.3002	7,727.78	75.7534	7,727.78	75.791	7,727.78	71.497	7,727.78	69.5916	7,727.78	70.1091	7,727.78	64.4138	7,727.78	67.4172	7,727.78	69.7269	7,727.78	66.4675	7,727.78	69.4277	7,727.78	64.7062	7,727.78	65.9525	7,727.78	60.3949	7,727.78	61.9893	7,727.78	60.4055	7,727.78	53.1788	7,727.78	61.3785	7,727.78	46.5651	7,727.78	61.6318	7,727.78	44.1542	7,727.78	60.7292	7,727.78	53.5325	7,727.78	62.5934	7,727.78	47.5174	7,727.78	57.1934	7,727.78	51.3626	7,727.78	48.5245
8,000.24	81.1356	8,000.24	81.3997	8,000.24	80.7038	8,000.24	80.6379	8,000.24	81.0558	8,000.24	78.981	8,000.24	79.5191	8,000.24	77.6386	8,000.24	76.7972	8,000.24	74.5511	8,000.24	75.0573	8,000.24	70.6862	8,000.24	69.0505	8,000.24	70.736	8,000.24	62.1808	8,000.24	66.7716	8,000.24	65.8426	8,000.24	64.6117	8,000.24	64.5918	8,000.24	62.3394	8,000.24	64.8335	8,000.24	59.885	8,000.24	59.7641	8,000.24	58.3915	8,000.24	52.9813	8,000.24	57.5291	8,000.24	52.1172	8,000.24	59.4132	8,000.24	44.4979	8,000.24	59.9881	8,000.24	55.4208	8,000.24	60.9414	8,000.24	46.4084	8,000.24	57.2875	8,000.24	48.9726	8,000.24	46.1501
8,282.23	81.3571	8,282.23	81.1709	8,282.23	80.5887	8,282.23	80.6656	8,282.23	80.2941	8,282.23	78.989	8,282.23	79.4928	8,282.23	76.5866	8,282.23	76.4867	8,282.23	71.5839	8,282.23	73.0743	8,282.23	72.8248	8,282.23	69.2191	8,282.23	68.5494	8,282.23	56.8794	8,282.23	64.0858	8,282.23	60.2832	8,282.23	61.5861	8,282.23	61.531	8,282.23	59.6982	8,282.23	63.006	8,282.23	59.9138	8,282.23	62.2917	8,282.23	58.2528	8,282.23	56.3495	8,282.23	57.2126	8,282.23	54.1867	8,282.23	58.4859	8,282.23	39.7791	8,282.23	58.4328	8,282.23	52.296	8,282.23	61.6973	8,282.23	44.0732	8,282.23	58.9222	8,282.23	51.5695	8,282.23	50.0001
8,574.46	80.9526	8,574.46	81.0556	8,574.46	80.9327	8,574.46	80.558	8,574.46	80.5719	8,574.46	78.2741	8,574.46	79.6459	8,574.46	74.4673	8,574.46	76.9882	8,574.46	74.2748	8,574.46	72.8579	8,574.46	71.7202	8,574.46	69.4014	8,574.46	66.93	8,574.46	61.6484	8,574.46	66.8744	8,574.46	48.5115	8,574.46	61.6539	8,574.46	60.4229	8,574.46	62.1751	8,574.46	61.9759	8,574.46	57.6743	8,574.46	64.5311	8,574.46	56.5052	8,574.46	57.602	8,574.46	57.4354	8,574.46	50.7528	8,574.46	56.6158	8,574.46	40.4332	8,574.46	57.0125	8,574.46	48.4044	8,574.46	61.7931	8,574.46	38.7591	8,574.46	58.534	8,574.46	52.6732	8,574.46	49.2456
8,876.22	80.7731	8,876.22	80.856	8,876.22	80.4509	8,876.22	79.9054	8,876.22	80.4867	8,876.22	77.0489	8,876.22	79.605	8,876.22	75.2368	8,876.22	76.7835	8,876.22	74.0386	8,876.22	72.4809	8,876.22	69.7904	8,876.22	68.8425	8,876.22	69.0142	8,876.22	62.4606	8,876.22	63.12	8,876.22	59.3481	8,876.22	60.8143	8,876.22	60.2566	8,876.22	58.7701	8,876.22	60.8552	8,876.22	55.3785	8,876.22	64.2075	8,876.22	54.507	8,876.22	59.5153	8,876.22	54.6297	8,876.22	44.0748	8,876.22	52.2801	8,876.22	47.4664	8,876.22	56.3969	8,876.22	45.3328	8,876.22	58.8601	8,876.22	42.0268	8,876.22	53.8883	8,876.22	50.2489	8,876.22	47.3404
9,189.7	79.8552	9,189.7	79.9953	9,189.7	79.661	9,189.7	79.295	9,189.7	79.6317	9,189.7	76.7889	9,189.7	79.1264	9,189.7	75.4366	9,189.7	76.4669	9,189.7	72.2731	9,189.7	72.0865	9,189.7	70.8937	9,189.7	67.8866	9,189.7	66.099	9,189.7	61.6641	9,189.7	61.1587	9,189.7	59.4819	9,189.7	60.005	9,189.7	56.7203	9,189.7	56.5873	9,189.7	56.5761	9,189.7	57.0323	9,189.7	63.0607	9,189.7	54.9782	9,189.7	58.1419	9,189.7	54.8831	9,189.7	41.261	9,189.7	54.3087	9,189.7	43.4333	9,189.7	56.0586	9,189.7	43.8222	9,189.7	58.1131	9,189.7	24.3734	9,189.7	54.4567	9,189.7	47.8707	9,189.7	44.5052
9,513.43	78.8586	9,513.43	79.2095	9,513.43	78.8301	9,513.43	78.2435	9,513.43	78.4578	9,513.43	76.6257	9,513.43	77.9555	9,513.43	75.5436	9,513.43	76.0401	9,513.43	72.8909	9,513.43	73.0807	9,513.43	68.6144	9,513.43	67.5615	9,513.43	65.0112	9,513.43	63.1316	9,513.43	63.2297	9,513.43	58.6153	9,513.43	60.1672	9,513.43	55.512	9,513.43	58.359	9,513.43	48.1924	9,513.43	55.6236	9,513.43	60.7012	9,513.43	55.69	9,513.43	50.0051	9,513.43	53.3177	9,513.43	44.9146	9,513.43	55.3976	9,513.43	48.2442	9,513.43	56.1559	9,513.43	49.1172	9,513.43	58.0002	9,513.43	38.7299	9,513.43	54.0814	9,513.43	43.8004	9,513.43	45.4599
9,848.88	78.3095	9,848.88	78.9697	9,848.88	77.8991	9,848.88	77.2931	9,848.88	77.419	9,848.88	75.9977	9,848.88	76.4257	9,848.88	75.5757	9,848.88	74.8905	9,848.88	72.4276	9,848.88	72.8744	9,848.88	65.8333	9,848.88	68.125	9,848.88	64.6322	9,848.88	62.7964	9,848.88	61.5415	9,848.88	57.2568	9,848.88	59.2014	9,848.88	51.5112	9,848.88	57.6785	9,848.88	50.2221	9,848.88	53.7403	9,848.88	60.7378	9,848.88	55.1852	9,848.88	52.8348	9,848.88	52.1747	9,848.88	47.069	9,848.88	54.0955	9,848.88	42.2962	9,848.88	54.6651	9,848.88	42.1669	9,848.88	57.6373	9,848.88	30.8288	9,848.88	53.6123	9,848.88	44.0094	9,848.88	44.2299
10,196.8	77.9887	10,196.8	78.5599	10,196.8	77.0856	10,196.8	76.3559	10,196.8	76.5732	10,196.8	75.6032	10,196.8	75.4148	10,196.8	74.51	10,196.8	74.0508	10,196.8	70.705	10,196.8	72.3098	10,196.8	66.8677	10,196.8	66.0151	10,196.8	64.5356	10,196.8	62.6166	10,196.8	61.0185	10,196.8	59.2596	10,196.8	59.8238	10,196.8	50.529	10,196.8	55.7491	10,196.8	40.3249	10,196.8	54.0592	10,196.8	59.7514	10,196.8	53.9694	10,196.8	56.2391	10,196.8	51.8125	10,196.8	41.0508	10,196.8	54.1026	10,196.8	46.4678	10,196.8	54.5048	10,196.8	45.0326	10,196.8	56.4699	10,196.8	41.7803	10,196.8	52.1337	10,196.8	41.0444	10,196.8	44.8411
10,556.4	79.0142	10,556.4	78.7751	10,556.4	78.2567	10,556.4	77.0595	10,556.4	77.2936	10,556.4	76.5651	10,556.4	75.7618	10,556.4	74.1437	10,556.4	74.8291	10,556.4	71.069	10,556.4	73.0706	10,556.4	67.9755	10,556.4	68.3621	10,556.4	65.2414	10,556.4	63.9076	10,556.4	61.8706	10,556.4	57.9066	10,556.4	58.9168	10,556.4	52.6289	10,556.4	54.7622	10,556.4	39.646	10,556.4	54.5343	10,556.4	56.5996	10,556.4	52.9267	10,556.4	55.1293	10,556.4	52.8474	10,556.4	29.9177	10,556.4	53.884	10,556.4	46.7567	10,556.4	55.0333	10,556.4	48.2268	10,556.4	56.7738	10,556.4	41.591	10,556.4	52.7282	10,556.4	48.4742	10,556.4	45.0171
10,928.5	80.2227	10,928.5	78.9151	10,928.5	79.8752	10,928.5	77.9727	10,928.5	78.4308	10,928.5	77.5103	10,928.5	76.7928	10,928.5	74.6333	10,928.5	75.434	10,928.5	71.2284	10,928.5	73.8086	10,928.5	68.3001	10,928.5	70.2641	10,928.5	66.6431	10,928.5	64.9134	10,928.5	63.2244	10,928.5	55.7476	10,928.5	60.2773	10,928.5	51.3907	10,928.5	57.2647	10,928.5	39.0867	10,928.5	54.3489	10,928.5	54.0375	10,928.5	52.632	10,928.5	55.9132	10,928.5	53.4857	10,928.5	47.2344	10,928.5	54.9753	10,928.5	32.8286	10,928.5	55.5302	10,928.5	50.5738	10,928.5	57.0037	10,928.5	44.0296	10,928.5	54.1907	10,928.5	50.249	10,928.5	47.8186
11,313.7	80.2947	11,313.7	78.9128	11,313.7	80.4314	11,313.7	78.9594	11,313.7	78.867	11,313.7	77.6551	11,313.7	77.2764	11,313.7	74.8724	11,313.7	75.7303	11,313.7	71.0507	11,313.7	73.8385	11,313.7	69.5527	11,313.7	69.6155	11,313.7	66.8313	11,313.7	66.1607	11,313.7	61.3347	11,313.7	58.7126	11,313.7	58.6718	11,313.7	49.7321	11,313.7	55.167	11,313.7	47.8545	11,313.7	51.2034	11,313.7	49.8272	11,313.7	53.9002	11,313.7	54.7696	11,313.7	53.1147	11,313.7	45.4345	11,313.7	54.5799	11,313.7	34.4839	11,313.7	55.0717	11,313.7	47.2389	11,313.7	56.716	11,313.7	40.347	11,313.7	54.1794	11,313.7	50.1135	11,313.7	46.6335
11,712.9	80.0528	11,712.9	79.6565	11,712.9	80.8203	11,712.9	79.7913	11,712.9	79.5021	11,712.9	78.3234	11,712.9	77.2555	11,712.9	75.1388	11,712.9	76.0002	11,712.9	72.2538	11,712.9	74.6803	11,712.9	68.9842	11,712.9	70.6192	11,712.9	65.0821	11,712.9	67.4288	11,712.9	62.1208	11,712.9	58.4274	11,712.9	58.6413	11,712.9	53.2495	11,712.9	56.4812	11,712.9	47.1908	11,712.9	54.2042	11,712.9	44.275	11,712.9	52.5457	11,712.9	48.6875	11,712.9	52.9018	11,712.9	45.1743	11,712.9	55.4816	11,712.9	32.9411	11,712.9	55.4016	11,712.9	41.9722	11,712.9	57.2054	11,712.9	39.4192	11,712.9	55.389	11,712.9	50.1992	11,712.9	48.1546
12,126	80.2979	12,126	80.1207	12,126	80.7128	12,126	79.8411	12,126	79.5146	12,126	77.8987	12,126	77.0957	12,126	75.0777	12,126	76.264	12,126	72.2845	12,126	75.0676	12,126	68.4543	12,126	72.3089	12,126	65.6749	12,126	68.891	12,126	59.9316	12,126	61.1154	12,126	56.7779	12,126	47.5159	12,126	53.6011	12,126	38.5485	12,126	51.919	12,126	46.8915	12,126	50.7618	12,126	50.3635	12,126	51.1337	12,126	30.1852	12,126	54.7826	12,126	45.3757	12,126	54.6928	12,126	42.5918	12,126	56.0172	12,126	44.2854	12,126	54.3325	12,126	48.5607	12,126	45.4728
12,553.7	80.3706	12,553.7	79.9906	12,553.7	80.8552	12,553.7	79.2479	12,553.7	79.3215	12,553.7	77.1613	12,553.7	77.4132	12,553.7	75.3175	12,553.7	76.291	12,553.7	72.1207	12,553.7	74.0513	12,553.7	68.0782	12,553.7	71.4092	12,553.7	62.5666	12,553.7	68.8247	12,553.7	60.5726	12,553.7	60.2341	12,553.7	57.8616	12,553.7	47.2823	12,553.7	55.0823	12,553.7	45.3655	12,553.7	53.0845	12,553.7	47.2411	12,553.7	51.549	12,553.7	50.9899	12,553.7	51.6763	12,553.7	46.1572	12,553.7	54.0332	12,553.7	42.7796	12,553.7	54.6483	12,553.7	41.4056	12,553.7	56.2508	12,553.7	46.8581	12,553.7	55.4415	12,553.7	51.4193	12,553.7	43.8317
12,996.1	79.991	12,996.1	79.9829	12,996.1	80.5521	12,996.1	78.7619	12,996.1	79.1426	12,996.1	76.5636	12,996.1	77.4238	12,996.1	74.4138	12,996.1	75.5088	12,996.1	71.6227	12,996.1	74.1373	12,996.1	66.3457	12,996.1	71.7288	12,996.1	63.8273	12,996.1	67.5963	12,996.1	59.2058	12,996.1	54.8564	12,996.1	56.705	12,996.1	44.2551	12,996.1	53.2632	12,996.1	50.598	12,996.1	51.7572	12,996.1	49.1302	12,996.1	49.4334	12,996.1	51.9046	12,996.1	51.9669	12,996.1	47.7663	12,996.1	53.7842	12,996.1	45.6951	12,996.1	53.4484	12,996.1	35.9128	12,996.1	55.0406	12,996.1	32.5699	12,996.1	54.4053	12,996.1	51.6894	12,996.1	45.8237
13,454.6	79.3272	13,454.6	79.8176	13,454.6	79.7353	13,454.6	78.3583	13,454.6	79.0997	13,454.6	76.5392	13,454.6	77.1363	13,454.6	74.3787	13,454.6	74.2373	13,454.6	70.9074	13,454.6	72.5196	13,454.6	67.4652	13,454.6	69.7702	13,454.6	63.4362	13,454.6	65.7459	13,454.6	59.9682	13,454.6	58.0119	13,454.6	58.0412	13,454.6	48.4279	13,454.6	53.4854	13,454.6	48.0979	13,454.6	52.9786	13,454.6	54.9391	13,454.6	49.571	13,454.6	54.1412	13,454.6	52.3479	13,454.6	42.3489	13,454.6	52.9601	13,454.6	46.1742	13,454.6	51.2744	13,454.6	47.355	13,454.6	51.8431	13,454.6	34.9552	13,454.6	52.3251	13,454.6	48.6392	13,454.6	45.1475
13,928.5	80.202	13,928.5	80.3128	13,928.5	79.9992	13,928.5	78.5615	13,928.5	79.674	13,928.5	76.9952	13,928.5	77.9545	13,928.5	74.4236	13,928.5	75.1014	13,928.5	70.7676	13,928.5	73.5379	13,928.5	67.3059	13,928.5	70.2178	13,928.5	62.4935	13,928.5	66.7169	13,928.5	59.4109	13,928.5	58.5785	13,928.5	54.4788	13,928.5	44.4757	13,928.5	53.2806	13,928.5	40.9695	13,928.5	51.1586	13,928.5	53.7039	13,928.5	49.5683	13,928.5	49.887	13,928.5	52.0245	13,928.5	38.94	13,928.5	52.0459	13,928.5	40.2241	13,928.5	49.9743	13,928.5	44.0171	13,928.5	50.8448	13,928.5	44.9104	13,928.5	52.254	13,928.5	46.2457	13,928.5	40.546
14,419.9	78.9822	14,419.9	78.98	14,419.9	77.676	14,419.9	77.6714	14,419.9	76.5595	14,419.9	76.6706	14,419.9	75.1634	14,419.9	74.2773	14,419.9	72.2493	14,419.9	71.1433	14,419.9	68.2366	14,419.9	66.6247	14,419.9	65.9467	14,419.9	62.8878	14,419.9	64.2451	14,419.9	58.2538	14,419.9	52.0756	14,419.9	55.7812	14,419.9	43.9498	14,419.9	52.6397	14,419.9	50.6251	14,419.9	49.9644	14,419.9	45.5693	14,419.9	47.5018	14,419.9	36.2707	14,419.9	50.3234	14,419.9	42.5809	14,419.9	51.1541	14,419.9	30.116	14,419.9	48.2647	14,419.9	48.051	14,419.9	51.4798	14,419.9	42.2079	14,419.9	53.5233	14,419.9	48.8434	14,419.9	30.1279
14,928.2	78.5582	14,928.2	78.6274	14,928.2	77.2552	14,928.2	77.5257	14,928.2	75.6896	14,928.2	76.5349	14,928.2	73.8419	14,928.2	74.1317	14,928.2	70.7192	14,928.2	70.9759	14,928.2	67.4915	14,928.2	65.9858	14,928.2	62.9829	14,928.2	62.145	14,928.2	58.1181	14,928.2	58.4056	14,928.2	51.2908	14,928.2	55.0093	14,928.2	46.0592	14,928.2	51.9444	14,928.2	49.4704	14,928.2	49.288	14,928.2	22.8992	14,928.2	45.77	14,928.2	45.7032	14,928.2	48.7446	14,928.2	40.8654	14,928.2	51.1547	14,928.2	40.6359	14,928.2	49.6803	14,928.2	44.4483	14,928.2	49.2804	14,928.2	39.5497	14,928.2	52.3854	14,928.2	47.2691	14,928.2	31.3339
15,454.8	77.8698	15,454.8	77.9922	15,454.8	76.9269	15,454.8	76.3087	15,454.8	76.1024	15,454.8	74.8174	15,454.8	73.9716	15,454.8	72.2561	15,454.8	70.8839	15,454.8	69.2296	15,454.8	68.3098	15,454.8	63.9	15,454.8	63.5344	15,454.8	60.39	15,454.8	61.1433	15,454.8	56.2563	15,454.8	53.0563	15,454.8	53.5428	15,454.8	47.4988	15,454.8	48.905	15,454.8	47.5172	15,454.8	45.4114	15,454.8	36.9868	15,454.8	44.22	15,454.8	47.5398	15,454.8	45.158	15,454.8	35.8727	15,454.8	49.8375	15,454.8	37.9065	15,454.8	46.9705	15,454.8	43.0073	15,454.8	44.4766	15,454.8	29.9877	15,454.8	49.9136	15,454.8	45.2936	15,454.8	37.8094
15,999.8	77.6795	15,999.8	77.4535	15,999.8	77.1693	15,999.8	75.8284	15,999.8	76.6857	15,999.8	73.8227	15,999.8	75.0955	15,999.8	71.2927	15,999.8	72.5853	15,999.8	66.8637	15,999.8	69.7903	15,999.8	62.88	15,999.8	64.4589	15,999.8	57.4135	15,999.8	62.1317	15,999.8	54.3254	15,999.8	51.6538	15,999.8	48.5384	15,999.8	51.9873	15,999.8	45.7174	15,999.8	49.9697	15,999.8	43.589	15,999.8	46.0869	15,999.8	39.6333	15,999.8	42.502	15,999.8	42.5707	15,999.8	34.3751	15,999.8	45.9801	15,999.8	41.6268	15,999.8	44.8159	15,999.8	43.7819	15,999.8	39.0288	15,999.8	38.0238	15,999.8	48.3994	15,999.8	40.7289	15,999.8	34.4515
16,564.5	80.3679	16,564.5	80.1644	16,564.5	79.549	16,564.5	78.6931	16,564.5	78.6985	16,564.5	76.9213	16,564.5	76.978	16,564.5	74.2542	16,564.5	75.2618	16,564.5	69.6867	16,564.5	71.458	16,564.5	64.6171	16,564.5	66.0785	16,564.5	59.5634	16,564.5	61.2822	16,564.5	55.8981	16,564.5	57.2978	16,564.5	52.3582	16,564.5	52.0234	16,564.5	46.1217	16,564.5	53.5944	16,564.5	43.0533	16,564.5	51.5075	16,564.5	41.4983	16,564.5	45.0222	16,564.5	43.9792	16,564.5	33.1716	16,564.5	49.0543	16,564.5	39.5013	16,564.5	48.2108	16,564.5	46.6845	16,564.5	42.781	16,564.5	41.4527	16,564.5	50.8022	16,564.5	46.4677	16,564.5	42.6571
17,148.2	81.6522	17,148.2	81.3986	17,148.2	81.0541	17,148.2	79.0724	17,148.2	80.2423	17,148.2	77.7249	17,148.2	78.2479	17,148.2	74.3423	17,148.2	76.2368	17,148.2	70.8704	17,148.2	71.8355	17,148.2	63.6173	17,148.2	67.3912	17,148.2	59.0805	17,148.2	61.2485	17,148.2	56.015	17,148.2	59.3722	17,148.2	52.2136	17,148.2	51.8838	17,148.2	46.4565	17,148.2	54.8021	17,148.2	46.1092	17,148.2	55.1367	17,148.2	41.74	17,148.2	50.5632	17,148.2	39.7314	17,148.2	39.6449	17,148.2	50.0713	17,148.2	45.5389	17,148.2	49.7175	17,148.2	46.7422	17,148.2	40.2923	17,148.2	38.6304	17,148.2	49.2706	17,148.2	47.7071	17,148.2	44.533
17,753.2	81.9539	17,753.2	81.5033	17,753.2	81.2978	17,753.2	78.938	17,753.2	80.7318	17,753.2	77.2062	17,753.2	78.5178	17,753.2	74.0015	17,753.2	75.704	17,753.2	69.7333	17,753.2	71.8038	17,753.2	64.012	17,753.2	66.5276	17,753.2	58.7167	17,753.2	62.6003	17,753.2	56.1607	17,753.2	56.1196	17,753.2	50.679	17,753.2	51.2494	17,753.2	44.8218	17,753.2	52.929	17,753.2	43.8685	17,753.2	54.7537	17,753.2	43.1808	17,753.2	47.7772	17,753.2	41.7226	17,753.2	41.308	17,753.2	49.8953	17,753.2	47.6984	17,753.2	47.9736	17,753.2	29.3904	17,753.2	26.5807	17,753.2	42.5829	17,753.2	46.2556	17,753.2	47.4228	17,753.2	44.6069
18,379.4	80.6493	18,379.4	80.0575	18,379.4	79.6533	18,379.4	77.9625	18,379.4	78.8069	18,379.4	75.9644	18,379.4	76.4939	18,379.4	73.1937	18,379.4	74.156	18,379.4	67.5171	18,379.4	69.8173	18,379.4	62.836	18,379.4	65.3483	18,379.4	58.9628	18,379.4	57.8502	18,379.4	53.7974	18,379.4	56.304	18,379.4	51.8005	18,379.4	47.757	18,379.4	42.485	18,379.4	54.6488	18,379.4	41.3884	18,379.4	55.7081	18,379.4	43.4284	18,379.4	47.5137	18,379.4	38.8131	18,379.4	47.1764	18,379.4	48.8333	18,379.4	48.8793	18,379.4	46.212	18,379.4	34.5365	18,379.4	39.7241	18,379.4	42.9825	18,379.4	39.1672	18,379.4	40.5167	18,379.4	44.4135
19,027.6	78.2508	19,027.6	77.3666	19,027.6	77.4176	19,027.6	75.3115	19,027.6	76.1397	19,027.6	73.2472	19,027.6	73.6821	19,027.6	70.49	19,027.6	71.8742	19,027.6	63.6265	19,027.6	67.4781	19,027.6	60.526	19,027.6	64.1793	19,027.6	56.0558	19,027.6	57.5785	19,027.6	48.7066	19,027.6	57.8265	19,027.6	47.3222	19,027.6	41.5597	19,027.6	38.9572	19,027.6	51.7215	19,027.6	39.7796	19,027.6	54.2385	19,027.6	40.1657	19,027.6	40.3382	19,027.6	37.6387	19,027.6	43.3364	19,027.6	43.983	19,027.6	44.7529	19,027.6	41.5573	19,027.6	26.4461	19,027.6	35.1017	19,027.6	35.7434	19,027.6	23.8779	19,027.6	38.7317	19,027.6	44.4579
19,698.5	76.4554	19,698.5	75.2232	19,698.5	75.9583	19,698.5	73.3019	19,698.5	74.3587	19,698.5	70.864	19,698.5	71.544	19,698.5	67.8462	19,698.5	69.2184	19,698.5	60.3127	19,698.5	64.4788	19,698.5	58.4847	19,698.5	62.1779	19,698.5	53.1309	19,698.5	56.5771	19,698.5	44.2904	19,698.5	53.5953	19,698.5	44.245	19,698.5	35.5174	19,698.5	36.229	19,698.5	51.4679	19,698.5	40.4241	19,698.5	52.3187	19,698.5	34.8687	19,698.5	39.966	19,698.5	35.965	19,698.5	42.2618	19,698.5	39.1164	19,698.5	40.8567	19,698.5	40.9269	19,698.5	35.2003	19,698.5	33.6668	19,698.5	37.7207	19,698.5	38.6523	19,698.5	38.8091	19,698.5	40.5988
19,999.5	74.7387	19,999.5	73.5646	19,999.5	74.3397	19,999.5	71.636	19,999.5	72.5231	19,999.5	69.4647	19,999.5	69.7216	19,999.5	65.7412	19,999.5	66.8313	19,999.5	58.9674	19,999.5	62.6941	19,999.5	56.7389	19,999.5	60.592	19,999.5	50.1479	19,999.5	53.9175	19,999.5	45.7433	19,999.5	45.4078	19,999.5	45.2348	19,999.5	45.7286	19,999.5	38.4287	19,999.5	49.8973	19,999.5	39.1981	19,999.5	51.6812	19,999.5	32.0484	19,999.5	26.2363	19,999.5	36.6984	19,999.5	40.6758	19,999.5	37.7145	19,999.5	42.1986	19,999.5	41.4977	19,999.5	39.6234	19,999.5	39.7091	19,999.5	35.1933	19,999.5	37.2459	19,999.5	42.8631	19,999.5	31.7287
