"SPL Horizontal"																																																																							
"On-Axis"		"10°"		"-10°"		"20°"		"-20°"		"30°"		"-30°"		"40°"		"-40°"		"50°"		"-50°"		"60°"		"-60°"		"70°"		"-70°"		"80°"		"-80°"		"90°"		"-90°"		"100°"		"-100°"		"110°"		"-110°"		"120°"		"-120°"		"130°"		"-130°"		"140°"		"-140°"		"150°"		"-150°"		"160°"		"-160°"		"170°"		"-170°"		"180°"	
"Frequency [Hz]"	"Sound Pessure Level [dB]    /  [	0.2	V at 	1	m]"	"Frequency [Hz]"	"Sound Pessure Level [dB]    /  [	0.2	V at 	1	m]"	"Frequency [Hz]"	"Sound Pessure Level [dB]    /  [	0.2	V at 	1	m]"	"Frequency [Hz]"	"Sound Pessure Level [dB]    /  [	0.2	V at 	1	m]"	"Frequency [Hz]"	"Sound Pessure Level [dB]    /  [	0.2	V at 	1	m]"	"Frequency [Hz]"	"Sound Pessure Level [dB]    /  [	0.2	V at 	1	m]"	"Frequency [Hz]"	"Sound Pessure Level [dB]    /  [	0.2	V at 	1	m]"	"Frequency [Hz]"	"Sound Pessure Level [dB]    /  [	0.2	V at 	1	m]"	"Frequency [Hz]"	"Sound Pessure Level [dB]    /  [	0.2	V at 	1	m]"	"Frequency [Hz]"	"Sound Pessure Level [dB]    /  [	0.2	V at 	1	m]"	"Frequency [Hz]"	"Sound Pessure Level [dB]    /  [	0.2	V at 	1	m]"	"Frequency [Hz]"	"Sound Pessure Level [dB]    /  [	0.2	V at 	1	m]"	"Frequency [Hz]"	"Sound Pessure Level [dB]    /  [	0.2	V at 	1	m]"	"Frequency [Hz]"	"Sound Pessure Level [dB]    /  [	0.2	V at 	1	m]"	"Frequency [Hz]"	"Sound Pessure Level [dB]    /  [	0.2	V at 	1	m]"	"Frequency [Hz]"	"Sound Pessure Level [dB]    /  [	0.2	V at 	1	m]"	"Frequency [Hz]"	"Sound Pessure Level [dB]    /  [	0.2	V at 	1	m]"	"Frequency [Hz]"	"Sound Pessure Level [dB]    /  [	0.2	V at 	1	m]"	"Frequency [Hz]"	"Sound Pessure Level [dB]    /  [	0.2	V at 	1	m]"	"Frequency [Hz]"	"Sound Pessure Level [dB]    /  [	0.2	V at 	1	m]"	"Frequency [Hz]"	"Sound Pessure Level [dB]    /  [	0.2	V at 	1	m]"	"Frequency [Hz]"	"Sound Pessure Level [dB]    /  [	0.2	V at 	1	m]"	"Frequency [Hz]"	"Sound Pessure Level [dB]    /  [	0.2	V at 	1	m]"	"Frequency [Hz]"	"Sound Pessure Level [dB]    /  [	0.2	V at 	1	m]"	"Frequency [Hz]"	"Sound Pessure Level [dB]    /  [	0.2	V at 	1	m]"	"Frequency [Hz]"	"Sound Pessure Level [dB]    /  [	0.2	V at 	1	m]"	"Frequency [Hz]"	"Sound Pessure Level [dB]    /  [	0.2	V at 	1	m]"	"Frequency [Hz]"	"Sound Pessure Level [dB]    /  [	0.2	V at 	1	m]"	"Frequency [Hz]"	"Sound Pessure Level [dB]    /  [	0.2	V at 	1	m]"	"Frequency [Hz]"	"Sound Pessure Level [dB]    /  [	0.2	V at 	1	m]"	"Frequency [Hz]"	"Sound Pessure Level [dB]    /  [	0.2	V at 	1	m]"	"Frequency [Hz]"	"Sound Pessure Level [dB]    /  [	0.2	V at 	1	m]"	"Frequency [Hz]"	"Sound Pessure Level [dB]    /  [	0.2	V at 	1	m]"	"Frequency [Hz]"	"Sound Pessure Level [dB]    /  [	0.2	V at 	1	m]"	"Frequency [Hz]"	"Sound Pessure Level [dB]    /  [	0.2	V at 	1	m]"	"Frequency [Hz]"	"Sound Pessure Level [dB]    /  [	0.2	V at 	1	m]"
20.5078	31.0145	20.5078	31.9767	20.5078	29.9355	20.5078	32.8539	20.5078	28.6912	20.5078	33.6656	20.5078	27.2143	20.5078	34.4234	20.5078	25.432	20.5078	35.1346	20.5078	23.3732	20.5078	35.8054	20.5078	21.6698	20.5078	36.4422	20.5078	22.0859	20.5078	37.0523	20.5078	24.709	20.5078	37.6425	20.5078	27.7451	20.5078	38.218	20.5078	30.4772	20.5078	38.7795	20.5078	32.8292	20.5078	39.3212	20.5078	34.8351	20.5078	39.8288	20.5078	36.527	20.5078	40.2788	20.5078	37.9252	20.5078	40.6395	20.5078	39.0428	20.5078	40.8746	20.5078	39.8903	20.5078	40.9473	20.5078	40.4791	20.5078	40.8246
21.2402	7.49966	21.2402	15.9996	21.2402	4.55999	21.2402	20.0913	21.2402	15.2758	21.2402	22.7371	21.2402	19.96	21.2402	24.6223	21.2402	22.9678	21.2402	26.005	21.2402	25.1424	21.2402	26.9979	21.2402	26.7925	21.2402	27.6464	21.2402	28.0653	21.2402	27.955	21.2402	29.0479	21.2402	27.8954	21.2402	29.8069	21.2402	27.408	21.2402	30.4031	21.2402	26.4064	21.2402	30.8911	21.2402	24.8256	21.2402	31.3064	21.2402	22.9226	21.2402	31.6508	21.2402	22.1886	21.2402	31.8878	21.2402	23.9858	21.2402	31.9512	21.2402	26.5858	21.2402	31.7595	21.2402	28.729	21.2402	31.2237	21.2402	30.248
21.9727	32.531	21.9727	32.8495	21.9727	32.1551	21.9727	33.1071	21.9727	31.7263	21.9727	33.3001	21.9727	31.2515	21.9727	33.4231	21.9727	30.741	21.9727	33.4679	21.9727	30.2088	21.9727	33.4219	21.9727	29.6713	21.9727	33.267	21.9727	29.1443	21.9727	32.977	21.9727	28.6369	21.9727	32.5149	21.9727	28.1473	21.9727	31.8285	21.9727	27.662	21.9727	30.8448	21.9727	27.1609	21.9727	29.4585	21.9727	26.6235	21.9727	27.5061	21.9727	26.0272	21.9727	24.6936	21.9727	25.3308	21.9727	20.344	21.9727	24.4405	21.9727	11.981	21.9727	23.1629	21.9727	8.37904	21.9727	21.1149	21.9727	17.3944
22.7051	37.5606	22.7051	37.7767	22.7051	37.3229	22.7051	37.9744	22.7051	37.0594	22.7051	38.1554	22.7051	36.7666	22.7051	38.3184	22.7051	36.4429	22.7051	38.4587	22.7051	36.0904	22.7051	38.5683	22.7051	35.7158	22.7051	38.6363	22.7051	35.333	22.7051	38.6502	22.7051	34.9654	22.7051	38.5989	22.7051	34.6496	22.7051	38.4756	22.7051	34.4358	22.7051	38.2831	22.7051	34.3787	22.7051	38.037	22.7051	34.5142	22.7051	37.7671	22.7051	34.8326	22.7051	37.5105	22.7051	35.2739	22.7051	37.2962	22.7051	35.7525	22.7051	37.128	22.7051	36.1914	22.7051	36.9776	22.7051	36.5432	22.7051	36.7977
23.4375	36.0554	23.4375	36.3657	23.4375	35.7125	23.4375	36.6412	23.4375	35.339	23.4375	36.8784	23.4375	34.9384	23.4375	37.0715	23.4375	34.5184	23.4375	37.2129	23.4375	34.0946	23.4375	37.2929	23.4375	33.6931	23.4375	37.3005	23.4375	33.3524	23.4375	37.2251	23.4375	33.1188	23.4375	37.0589	23.4375	33.0348	23.4375	36.8006	23.4375	33.1221	23.4375	36.4618	23.4375	33.368	23.4375	36.073	23.4375	33.7261	23.4375	35.6868	23.4375	34.1316	23.4375	35.3682	23.4375	34.5193	23.4375	35.1702	23.4375	34.8367	23.4375	35.1026	23.4375	35.0516	23.4375	35.1242	23.4375	35.155	23.4375	35.1642
24.1699	38.6653	24.1699	38.7635	24.1699	38.5637	24.1699	38.8592	24.1699	38.4563	24.1699	38.9509	24.1699	38.3389	24.1699	39.0347	24.1699	38.2064	24.1699	39.1038	24.1699	38.053	24.1699	39.1478	24.1699	37.8722	24.1699	39.1528	24.1699	37.6562	24.1699	39.1013	24.1699	37.396	24.1699	38.9728	24.1699	37.0821	24.1699	38.7464	24.1699	36.7052	24.1699	38.4033	24.1699	36.2608	24.1699	37.9312	24.1699	35.7538	24.1699	37.3301	24.1699	35.2049	24.1699	36.6188	24.1699	34.6566	24.1699	35.8413	24.1699	34.1755	24.1699	35.0708	24.1699	33.8464	24.1699	34.4042	24.1699	33.752	24.1699	33.9415
25.6348	42.0403	25.6348	42.0843	25.6348	41.9897	25.6348	42.1207	25.6348	41.9317	25.6348	42.1469	25.6348	41.8645	25.6348	42.1587	25.6348	41.7857	25.6348	42.1498	25.6348	41.6926	25.6348	42.1125	25.6348	41.5833	25.6348	42.0387	25.6348	41.4568	25.6348	41.9203	25.6348	41.3135	25.6348	41.7511	25.6348	41.1553	25.6348	41.5288	25.6348	40.9848	25.6348	41.2568	25.6348	40.8046	25.6348	40.9467	25.6348	40.6165	25.6348	40.6188	25.6348	40.4227	25.6348	40.3011	25.6348	40.2269	25.6348	40.025	25.6348	40.0374	25.6348	39.8191	25.6348	39.8689	25.6348	39.7025	25.6348	39.742	25.6348	39.68
26.3672	46.2883	26.3672	46.2635	26.3672	46.3044	26.3672	46.2299	26.3672	46.3115	26.3672	46.1865	26.3672	46.3079	26.3672	46.1316	26.3672	46.2918	26.3672	46.0636	26.3672	46.2605	26.3672	45.9806	26.3672	46.2118	26.3672	45.8807	26.3672	46.1438	26.3672	45.7627	26.3672	46.0559	26.3672	45.626	26.3672	45.9485	26.3672	45.472	26.3672	45.8231	26.3672	45.3045	26.3672	45.6821	26.3672	45.1313	26.3672	45.5285	26.3672	44.9634	26.3672	45.3661	26.3672	44.8153	26.3672	45.1999	26.3672	44.7021	26.3672	45.0368	26.3672	44.6363	26.3672	44.8859	26.3672	44.625	26.3672	44.7589	26.3672	44.6682
27.0996	46.9926	27.0996	46.9844	27.0996	46.9939	27.0996	46.969	27.0996	46.9877	27.0996	46.9451	27.0996	46.9723	27.0996	46.9103	27.0996	46.9452	27.0996	46.8613	27.0996	46.9032	27.0996	46.7935	27.0996	46.8426	27.0996	46.7018	27.0996	46.7597	27.0996	46.5808	27.0996	46.6509	27.0996	46.426	27.0996	46.5133	27.0996	46.235	27.0996	46.3451	27.0996	46.0094	27.0996	46.1467	27.0996	45.7566	27.0996	45.9212	27.0996	45.4903	27.0996	45.6759	27.0996	45.2309	27.0996	45.4231	27.0996	45.0033	27.0996	45.1805	27.0996	44.8325	27.0996	44.9698	27.0996	44.7388	27.0996	44.814	27.0996	44.733
27.832	49.6278	27.832	49.6209	27.832	49.6284	27.832	49.607	27.832	49.6227	27.832	49.5855	27.832	49.6103	27.832	49.5551	27.832	49.5902	27.832	49.514	27.832	49.5611	27.832	49.4605	27.832	49.521	27.832	49.3924	27.832	49.4677	27.832	49.3076	27.832	49.3989	27.832	49.2049	27.832	49.3126	27.832	49.0843	27.832	49.2079	27.832	48.948	27.832	49.0853	27.832	48.8011	27.832	48.9473	27.832	48.6513	27.832	48.7993	27.832	48.5095	27.832	48.6492	27.832	48.3878	27.832	48.5075	27.832	48.2984	27.832	48.3863	27.832	48.2507	27.832	48.2974	27.832	48.2504
29.2969	52.4338	29.2969	52.4227	29.2969	52.4422	29.2969	52.4087	29.2969	52.4483	29.2969	52.3909	29.2969	52.4517	29.2969	52.3682	29.2969	52.4518	29.2969	52.3392	29.2969	52.4475	29.2969	52.3024	29.2969	52.4372	29.2969	52.2559	29.2969	52.4192	29.2969	52.1983	29.2969	52.3914	29.2969	52.1289	29.2969	52.3519	29.2969	52.0482	29.2969	52.2992	29.2969	51.9587	29.2969	52.2329	29.2969	51.8652	29.2969	52.1533	29.2969	51.775	29.2969	52.0629	29.2969	51.6964	29.2969	51.9655	29.2969	51.6381	29.2969	51.8668	29.2969	51.6069	29.2969	51.7741	29.2969	51.6066	29.2969	51.6951	29.2969	51.6372
30.0293	54.6001	30.0293	54.5844	30.0293	54.6141	30.0293	54.567	30.0293	54.6262	30.0293	54.547	30.0293	54.6356	30.0293	54.5234	30.0293	54.6409	30.0293	54.4945	30.0293	54.6403	30.0293	54.4585	30.0293	54.6316	30.0293	54.4131	30.0293	54.6121	30.0293	54.3567	30.0293	54.5791	30.0293	54.288	30.0293	54.5302	30.0293	54.2072	30.0293	54.4637	30.0293	54.1163	30.0293	54.3795	30.0293	54.0193	30.0293	54.2794	30.0293	53.9223	30.0293	54.1676	30.0293	53.8331	30.0293	54.0509	30.0293	53.7603	30.0293	53.9376	30.0293	53.7117	30.0293	53.8373	30.0293	53.6938	30.0293	53.7589	30.0293	53.7097
31.4941	56.709	31.4941	56.6838	31.4941	56.7254	31.4941	56.6493	31.4941	56.7327	31.4941	56.6053	31.4941	56.7305	31.4941	56.551	31.4941	56.718	31.4941	56.4858	31.4941	56.6937	31.4941	56.4089	31.4941	56.6561	31.4941	56.3202	31.4941	56.6034	31.4941	56.2196	31.4941	56.5338	31.4941	56.1083	31.4941	56.4462	31.4941	55.9887	31.4941	56.3406	31.4941	55.8648	31.4941	56.2187	31.4941	55.7423	31.4941	56.0843	31.4941	55.6281	31.4941	55.9433	31.4941	55.5299	31.4941	55.8032	31.4941	55.4547	31.4941	55.6726	31.4941	55.4086	31.4941	55.5602	31.4941	55.3956	31.4941	55.4733	31.4941	55.4174
32.2266	58.9527	32.2266	58.9407	32.2266	58.958	32.2266	58.9218	32.2266	58.9564	32.2266	58.8958	32.2266	58.9476	32.2266	58.8621	32.2266	58.931	32.2266	58.8203	32.2266	58.9057	32.2266	58.7694	32.2266	58.8705	32.2266	58.7084	32.2266	58.8237	32.2266	58.6365	32.2266	58.7641	32.2266	58.5531	32.2266	58.6903	32.2266	58.4584	32.2266	58.6021	32.2266	58.3543	32.2266	58.5006	32.2266	58.2443	32.2266	58.3883	32.2266	58.134	32.2266	58.2701	32.2266	58.031	32.2266	58.1524	32.2266	57.9437	32.2266	58.0432	32.2266	57.8803	32.2266	57.9512	32.2266	57.8474	32.2266	57.8843	32.2266	57.8486
33.6914	61.5352	33.6914	61.516	33.6914	61.5451	33.6914	61.4876	33.6914	61.5456	33.6914	61.4499	33.6914	61.5362	33.6914	61.4026	33.6914	61.5162	33.6914	61.3455	33.6914	61.4846	33.6914	61.2784	33.6914	61.4405	33.6914	61.2011	33.6914	61.3828	33.6914	61.1138	33.6914	61.3108	33.6914	61.0172	33.6914	61.2244	33.6914	60.9127	33.6914	61.1242	33.6914	60.8028	33.6914	61.0123	33.6914	60.6916	33.6914	60.8921	33.6914	60.5843	33.6914	60.7683	33.6914	60.4875	33.6914	60.6474	33.6914	60.4082	33.6914	60.5365	33.6914	60.3531	33.6914	60.443	33.6914	60.3276	33.6914	60.3739	33.6914	60.3345
34.4238	63.1512	34.4238	63.1331	34.4238	63.1611	34.4238	63.1069	34.4238	63.1626	34.4238	63.0725	34.4238	63.1553	34.4238	63.0297	34.4238	63.1386	34.4238	62.9784	34.4238	63.112	34.4238	62.9185	34.4238	63.0746	34.4238	62.85	34.4238	63.026	34.4238	62.7734	34.4238	62.966	34.4238	62.6897	34.4238	62.8946	34.4238	62.6009	34.4238	62.8129	34.4238	62.5097	34.4238	62.7225	34.4238	62.42	34.4238	62.6263	34.4238	62.3366	34.4238	62.5279	34.4238	62.2645	34.4238	62.432	34.4238	62.2086	34.4238	62.3437	34.4238	62.1733	34.4238	62.2682	34.4238	62.1613	34.4238	62.2103	34.4238	62.1738
35.8887	66.2039	35.8887	66.1908	35.8887	66.2095	35.8887	66.1703	35.8887	66.2075	35.8887	66.1421	35.8887	66.1975	35.8887	66.106	35.8887	66.1789	35.8887	66.0617	35.8887	66.151	35.8887	66.0089	35.8887	66.1132	35.8887	65.9472	35.8887	66.0644	35.8887	65.8765	35.8887	66.0042	35.8887	65.7972	35.8887	65.9324	35.8887	65.7104	35.8887	65.8495	35.8887	65.6182	35.8887	65.7572	35.8887	65.5241	35.8887	65.6583	35.8887	65.4326	35.8887	65.5568	35.8887	65.3494	35.8887	65.4581	35.8887	65.2805	35.8887	65.3682	35.8887	65.2316	35.8887	65.2933	35.8887	65.2071	35.8887	65.239	35.8887	65.2095
37.3535	68.9653	37.3535	68.9494	37.3535	68.9719	37.3535	68.9241	37.3535	68.969	37.3535	68.8895	37.3535	68.9564	37.3535	68.8452	37.3535	68.9337	37.3535	68.7914	37.3535	68.9006	37.3535	68.728	37.3535	68.8564	37.3535	68.6553	37.3535	68.8009	37.3535	68.5738	37.3535	68.7339	37.3535	68.4846	37.3535	68.6554	37.3535	68.3895	37.3535	68.5666	37.3535	68.2913	37.3535	68.469	37.3535	68.1937	37.3535	68.3658	37.3535	68.1014	37.3535	68.2607	37.3535	68.0199	37.3535	68.159	37.3535	67.9544	37.3535	68.0663	37.3535	67.91	37.3535	67.9885	37.3535	67.8903	37.3535	67.9308	37.3535	67.8973
38.8184	71.7264	38.8184	71.7134	38.8184	71.7305	38.8184	71.6914	38.8184	71.7256	38.8184	71.6605	38.8184	71.7116	38.8184	71.6205	38.8184	71.6883	38.8184	71.5715	38.8184	71.6553	38.8184	71.5133	38.8184	71.6124	38.8184	71.4462	38.8184	71.5593	38.8184	71.3707	38.8184	71.4959	38.8184	71.2875	38.8184	71.4224	38.8184	71.1982	38.8184	71.3395	38.8184	71.1051	38.8184	71.2488	38.8184	71.0117	38.8184	71.1526	38.8184	70.9224	38.8184	71.0545	38.8184	70.8425	38.8184	70.9593	38.8184	70.7773	38.8184	70.8723	38.8184	70.732	38.8184	70.7992	38.8184	70.7106	38.8184	70.7454	38.8184	70.7151
39.5508	72.9539	39.5508	72.9423	39.5508	72.9563	39.5508	72.9215	39.5508	72.9494	39.5508	72.8917	39.5508	72.9331	39.5508	72.8529	39.5508	72.9072	39.5508	72.8052	39.5508	72.8713	39.5508	72.7487	39.5508	72.8252	39.5508	72.6837	39.5508	72.7689	39.5508	72.6108	39.5508	72.7022	39.5508	72.5307	39.5508	72.6257	39.5508	72.4449	39.5508	72.5404	39.5508	72.3552	39.5508	72.4481	39.5508	72.2646	39.5508	72.3518	39.5508	72.177	39.5508	72.2552	39.5508	72.0969	39.5508	72.1634	39.5508	72.0295	39.5508	72.0817	39.5508	71.9797	39.5508	72.0157	39.5508	71.9518	39.5508	71.9701	39.5508	71.9483
41.0156	75.0284	41.0156	75.0212	41.0156	75.0267	41.0156	75.005	41.0156	75.0161	41.0156	74.9798	41.0156	74.9965	41.0156	74.9452	41.0156	74.9677	41.0156	74.9009	41.0156	74.9294	41.0156	74.8467	41.0156	74.8816	41.0156	74.7824	41.0156	74.8242	41.0156	74.708	41.0156	74.7576	41.0156	74.6243	41.0156	74.6825	41.0156	74.5329	41.0156	74.6002	41.0156	74.4364	41.0156	74.5125	41.0156	74.339	41.0156	74.4221	41.0156	74.2459	41.0156	74.332	41.0156	74.163	41.0156	74.2461	41.0156	74.0961	41.0156	74.1686	41.0156	74.0499	41.0156	74.1039	41.0156	74.0275	41.0156	74.0564	41.0156	74.0301
42.4805	76.3603	42.4805	76.3483	42.4805	76.3621	42.4805	76.3263	42.4805	76.3538	42.4805	76.2943	42.4805	76.3353	42.4805	76.2523	42.4805	76.3063	42.4805	76.2004	42.4805	76.2669	42.4805	76.1387	42.4805	76.217	42.4805	76.0678	42.4805	76.1566	42.4805	75.9884	42.4805	76.0863	42.4805	75.9017	42.4805	76.0066	42.4805	75.8096	42.4805	75.9189	42.4805	75.7148	42.4805	75.8251	42.4805	75.6206	42.4805	75.7282	42.4805	75.5315	42.4805	75.6317	42.4805	75.4522	42.4805	75.5403	42.4805	75.3875	42.4805	75.4587	42.4805	75.3418	42.4805	75.392	42.4805	75.3185	42.4805	75.3444	42.4805	75.3194
43.9453	77.2814	43.9453	77.2697	43.9453	77.2826	43.9453	77.2473	43.9453	77.273	43.9453	77.2144	43.9453	77.2525	43.9453	77.171	43.9453	77.2212	43.9453	77.1172	43.9453	77.179	43.9453	77.0533	43.9453	77.1259	43.9453	76.9798	43.9453	77.0621	43.9453	76.8975	43.9453	76.9883	43.9453	76.8075	43.9453	76.9053	43.9453	76.7119	43.9453	76.8145	43.9453	76.6134	43.9453	76.7181	43.9453	76.5157	43.9453	76.6188	43.9453	76.4232	43.9453	76.5205	43.9453	76.3408	43.9453	76.4274	43.9453	76.2737	43.9453	76.3444	43.9453	76.2263	43.9453	76.2765	43.9453	76.202	43.9453	76.2281	43.9453	76.2027
45.4102	77.808	45.4102	77.7982	45.4102	77.8067	45.4102	77.7774	45.4102	77.7943	45.4102	77.7456	45.4102	77.7707	45.4102	77.703	45.4102	77.7359	45.4102	77.6496	45.4102	77.6898	45.4102	77.5857	45.4102	77.6326	45.4102	77.5118	45.4102	77.5646	45.4102	77.4288	45.4102	77.4864	45.4102	77.3378	45.4102	77.3992	45.4102	77.2409	45.4102	77.3045	45.4102	77.1407	45.4102	77.2048	45.4102	77.0408	45.4102	77.1031	45.4102	76.9455	45.4102	77.0036	45.4102	76.8596	45.4102	76.9107	45.4102	76.7881	45.4102	76.8296	45.4102	76.7357	45.4102	76.765	45.4102	76.706	45.4102	76.7211	45.4102	76.701
47.6074	77.9805	47.6074	77.9676	47.6074	77.9817	47.6074	77.943	47.6074	77.9711	47.6074	77.9069	47.6074	77.9486	47.6074	77.8595	47.6074	77.9142	47.6074	77.8011	47.6074	77.8679	47.6074	77.7322	47.6074	77.8099	47.6074	77.6535	47.6074	77.7405	47.6074	77.5662	47.6074	77.6606	47.6074	77.4718	47.6074	77.5712	47.6074	77.3725	47.6074	77.4741	47.6074	77.2712	47.6074	77.3717	47.6074	77.1714	47.6074	77.2673	47.6074	77.0773	47.6074	77.1649	47.6074	76.9936	47.6074	77.0692	47.6074	76.925	47.6074	76.9851	47.6074	76.8757	47.6074	76.9175	47.6074	76.8492	47.6074	76.8706	47.6074	76.8474
49.0723	77.9446	49.0723	77.93	49.0723	77.9472	49.0723	77.9035	49.0723	77.9376	49.0723	77.8653	49.0723	77.9157	49.0723	77.8156	49.0723	77.8816	49.0723	77.7549	49.0723	77.8354	49.0723	77.6837	49.0723	77.7772	49.0723	77.6029	49.0723	77.7075	49.0723	77.5137	49.0723	77.6271	49.0723	77.4178	49.0723	77.5372	49.0723	77.3175	49.0723	77.4396	49.0723	77.2156	49.0723	77.3367	49.0723	77.1158	49.0723	77.2317	49.0723	77.0224	49.0723	77.1286	49.0723	76.94	49.0723	77.0319	49.0723	76.8732	49.0723	76.9466	49.0723	76.8262	49.0723	76.8773	49.0723	76.8021	49.0723	76.8284	49.0723	76.8028
50.5371	77.8312	50.5371	77.816	50.5371	77.834	50.5371	77.7885	50.5371	77.8242	50.5371	77.7489	50.5371	77.8018	50.5371	77.6976	50.5371	77.7669	50.5371	77.6349	50.5371	77.7195	50.5371	77.5617	50.5371	77.6599	50.5371	77.4788	50.5371	77.5887	50.5371	77.3877	50.5371	77.5067	50.5371	77.2902	50.5371	77.4154	50.5371	77.1887	50.5371	77.3164	50.5371	77.0864	50.5371	77.2126	50.5371	76.9868	50.5371	77.107	50.5371	76.8942	50.5371	77.0037	50.5371	76.8129	50.5371	76.9073	50.5371	76.7475	50.5371	76.8225	50.5371	76.7018	50.5371	76.7538	50.5371	76.6786	50.5371	76.7053	50.5371	76.6797
52.7344	77.6748	52.7344	77.6595	52.7344	77.6774	52.7344	77.6315	52.7344	77.667	52.7344	77.5912	52.7344	77.6437	52.7344	77.5388	52.7344	77.6075	52.7344	77.4751	52.7344	77.5586	52.7344	77.4006	52.7344	77.4975	52.7344	77.3166	52.7344	77.4248	52.7344	77.2246	52.7344	77.3414	52.7344	77.1264	52.7344	77.2488	52.7344	77.0247	52.7344	77.149	52.7344	76.9225	52.7344	77.0447	52.7344	76.8235	52.7344	76.9392	52.7344	76.7316	52.7344	76.8365	52.7344	76.6513	52.7344	76.7411	52.7344	76.5867	52.7344	76.6576	52.7344	76.5415	52.7344	76.5905	52.7344	76.5183	52.7344	76.5434	52.7344	76.5189
54.1992	77.5687	54.1992	77.5524	54.1992	77.5721	54.1992	77.5233	54.1992	77.5624	54.1992	77.4818	54.1992	77.5396	54.1992	77.4282	54.1992	77.5039	54.1992	77.3631	54.1992	77.4555	54.1992	77.2873	54.1992	77.3947	54.1992	77.202	54.1992	77.3222	54.1992	77.1087	54.1992	77.239	54.1992	77.0094	54.1992	77.1465	54.1992	76.9067	54.1992	77.0467	54.1992	76.8035	54.1992	76.9421	54.1992	76.7037	54.1992	76.836	54.1992	76.6113	54.1992	76.7323	54.1992	76.5307	54.1992	76.6352	54.1992	76.4664	54.1992	76.5496	54.1992	76.422	54.1992	76.4799	54.1992	76.4004	54.1992	76.4301	54.1992	76.4031
56.3965	77.4359	56.3965	77.4184	56.3965	77.4403	56.3965	77.3879	56.3965	77.4315	56.3965	77.345	56.3965	77.4093	56.3965	77.2901	56.3965	77.3738	56.3965	77.2239	56.3965	77.3253	56.3965	77.1474	56.3965	77.2641	56.3965	77.062	56.3965	77.191	56.3965	76.9695	56.3965	77.1071	56.3965	76.8719	56.3965	77.0139	56.3965	76.772	56.3965	76.9138	56.3965	76.6729	56.3965	76.8096	56.3965	76.578	56.3965	76.7049	56.3965	76.4912	56.3965	76.6038	56.3965	76.4162	56.3965	76.5106	56.3965	76.3565	56.3965	76.4298	56.3965	76.3152	56.3965	76.3651	56.3965	76.2946	56.3965	76.3199	56.3965	76.2961
58.5938	77.3197	58.5938	77.3005	58.5938	77.326	58.5938	77.2687	58.5938	77.3192	58.5938	77.2249	58.5938	77.2992	58.5938	77.1697	58.5938	77.266	58.5938	77.1041	58.5938	77.2201	58.5938	77.0294	58.5938	77.1619	58.5938	76.9471	58.5938	77.0923	58.5938	76.8592	58.5938	77.0128	58.5938	76.7683	58.5938	76.9251	58.5938	76.6772	58.5938	76.8316	58.5938	76.5888	58.5938	76.7354	58.5938	76.5065	58.5938	76.6399	58.5938	76.4332	58.5938	76.5491	58.5938	76.3716	58.5938	76.4668	58.5938	76.3241	58.5938	76.3964	58.5938	76.2924	58.5938	76.3407	58.5938	76.2776	58.5938	76.3018	58.5938	76.2807
60.0586	77.2435	60.0586	77.2217	60.0586	77.2515	60.0586	77.1863	60.0586	77.2455	60.0586	77.1381	60.0586	77.2255	60.0586	77.0777	60.0586	77.1916	60.0586	77.0061	60.0586	77.1441	60.0586	76.9249	60.0586	77.0839	60.0586	76.8357	60.0586	77.0117	60.0586	76.7409	60.0586	76.9291	60.0586	76.6433	60.0586	76.8378	60.0586	76.5458	60.0586	76.7404	60.0586	76.452	60.0586	76.6398	60.0586	76.3653	60.0586	76.5395	60.0586	76.2889	60.0586	76.4432	60.0586	76.2259	60.0586	76.3549	60.0586	76.1785	60.0586	76.2782	60.0586	76.1485	60.0586	76.2162	60.0586	76.1371	60.0586	76.1712	60.0586	76.1446
62.2559	77.1864	62.2559	77.1651	62.2559	77.1929	62.2559	77.1293	62.2559	77.1845	62.2559	77.0795	62.2559	77.1612	62.2559	77.0164	62.2559	77.1231	62.2559	76.941	62.2559	77.0705	62.2559	76.8544	62.2559	77.0041	62.2559	76.7585	62.2559	76.9248	62.2559	76.6554	62.2559	76.834	62.2559	76.5476	62.2559	76.7334	62.2559	76.4384	62.2559	76.6254	62.2559	76.3312	62.2559	76.5133	62.2559	76.23	62.2559	76.4006	62.2559	76.1388	62.2559	76.2915	62.2559	76.0615	62.2559	76.1907	62.2559	76.0015	62.2559	76.1025	62.2559	75.9618	62.2559	76.031	62.2559	75.9444	62.2559	75.9795	62.2559	75.9503
64.4531	77.151	64.4531	77.1276	64.4531	77.1594	64.4531	77.0894	64.4531	77.1525	64.4531	77.0371	64.4531	77.1305	64.4531	76.9712	64.4531	77.0934	64.4531	76.8929	64.4531	77.0416	64.4531	76.8036	64.4531	76.9757	64.4531	76.7049	64.4531	76.8966	64.4531	76.5992	64.4531	76.8057	64.4531	76.4893	64.4531	76.7049	64.4531	76.3784	64.4531	76.5964	64.4531	76.2704	64.4531	76.4834	64.4531	76.1691	64.4531	76.3696	64.4531	76.0788	64.4531	76.2591	64.4531	76.0032	64.4531	76.1564	64.4531	75.9457	64.4531	76.066	64.4531	75.9091	64.4531	75.9918	64.4531	75.8951	64.4531	75.9372	64.4531	75.9046
66.6504	77.1578	66.6504	77.1336	66.6504	77.1662	66.6504	77.0939	66.6504	77.1585	66.6504	77.0392	66.6504	77.1349	66.6504	76.9703	66.6504	77.0956	66.6504	76.8884	66.6504	77.0411	66.6504	76.795	66.6504	76.9719	66.6504	76.6921	66.6504	76.8894	66.6504	76.5822	66.6504	76.7948	66.6504	76.4684	66.6504	76.6904	66.6504	76.3542	66.6504	76.5786	66.6504	76.2436	66.6504	76.4627	66.6504	76.1407	66.6504	76.3466	66.6504	76.0496	66.6504	76.2345	66.6504	75.9741	66.6504	76.1309	66.6504	75.9172	66.6504	76.04	66.6504	75.8815	66.6504	75.9658	66.6504	75.8683	66.6504	75.9111	66.6504	75.8783
69.5801	77.2242	69.5801	77.1974	69.5801	77.235	69.5801	77.1551	69.5801	77.2298	69.5801	77.0978	69.5801	77.2085	69.5801	77.0264	69.5801	77.1713	69.5801	76.9419	69.5801	77.1186	69.5801	76.846	69.5801	77.0511	69.5801	76.7407	69.5801	76.9697	69.5801	76.6286	69.5801	76.8759	69.5801	76.5127	69.5801	76.7717	69.5801	76.3967	69.5801	76.6594	69.5801	76.2847	69.5801	76.5422	69.5801	76.1807	69.5801	76.4239	69.5801	76.0892	69.5801	76.3086	69.5801	76.0139	69.5801	76.201	69.5801	75.9582	69.5801	76.1054	69.5801	75.9245	69.5801	76.0259	69.5801	75.9144	69.5801	75.9661	69.5801	75.9284
71.7773	77.1695	71.7773	77.1405	71.7773	77.1832	71.7773	77.0965	71.7773	77.1815	71.7773	77.0382	71.7773	77.1647	71.7773	76.9663	71.7773	77.1328	71.7773	76.8821	71.7773	77.0865	71.7773	76.7873	71.7773	77.0265	71.7773	76.6842	71.7773	76.9538	71.7773	76.5754	71.7773	76.8698	71.7773	76.4644	71.7773	76.7763	71.7773	76.355	71.7773	76.6754	71.7773	76.2514	71.7773	76.5699	71.7773	76.1581	71.7773	76.4628	71.7773	76.079	71.7773	76.3577	71.7773	76.0177	71.7773	76.2582	71.7773	75.9766	71.7773	76.1679	71.7773	75.9572	71.7773	76.0902	71.7773	75.9598	71.7773	76.028	71.7773	75.9839
73.9746	77.2448	73.9746	77.2188	73.9746	77.2548	73.9746	77.1773	73.9746	77.2489	73.9746	77.1207	73.9746	77.2272	73.9746	77.0501	73.9746	77.1902	73.9746	76.9666	73.9746	77.1386	73.9746	76.872	73.9746	77.0733	73.9746	76.7686	73.9746	76.9957	73.9746	76.6591	73.9746	76.9074	73.9746	76.5469	73.9746	76.8104	73.9746	76.4357	73.9746	76.7071	73.9746	76.3297	73.9746	76.6004	73.9746	76.2332	73.9746	76.4934	73.9746	76.1502	73.9746	76.3893	73.9746	76.0844	73.9746	76.2918	73.9746	76.0385	73.9746	76.2042	73.9746	76.0141	73.9746	76.1297	73.9746	76.0119	73.9746	76.0712	73.9746	76.0313
76.9043	77.2332	76.9043	77.2045	76.9043	77.2458	76.9043	77.1601	76.9043	77.2422	76.9043	77.1007	76.9043	77.2225	76.9043	77.0273	76.9043	77.1873	76.9043	76.9413	76.9043	77.137	76.9043	76.8448	76.9043	77.0729	76.9043	76.74	76.9043	76.9962	76.9043	76.6301	76.9043	76.9087	76.9043	76.5184	76.9043	76.8124	76.9043	76.4089	76.9043	76.7099	76.9043	76.3057	76.9043	76.6039	76.9043	76.213	76.9043	76.4977	76.9043	76.1346	76.9043	76.3946	76.9043	76.0736	76.9043	76.2978	76.9043	76.0324	76.9043	76.2107	76.9043	76.0123	76.9043	76.1362	76.9043	76.0136	76.9043	76.0771	76.9043	76.0356
79.834	77.3375	79.834	77.3156	79.834	77.3424	79.834	77.2771	79.834	77.3304	79.834	77.2229	79.834	77.3018	79.834	77.1542	79.834	77.2574	79.834	77.0729	79.834	77.1983	79.834	76.9811	79.834	77.1264	79.834	76.882	79.834	77.0437	79.834	76.7788	79.834	76.9531	79.834	76.6756	79.834	76.8577	79.834	76.5765	79.834	76.7609	79.834	76.4856	79.834	76.6665	79.834	76.4068	79.834	76.5776	79.834	76.3427	79.834	76.4972	79.834	76.2949	79.834	76.4271	79.834	76.264	79.834	76.3683	79.834	76.2489	79.834	76.3211	79.834	76.2484	79.834	76.2853	79.834	76.2609
82.7637	77.6505	82.7637	77.6296	82.7637	77.6522	82.7637	77.5897	82.7637	77.6345	82.7637	77.5317	82.7637	77.5974	82.7637	77.4567	82.7637	77.5415	82.7637	77.3661	82.7637	77.4676	82.7637	77.262	82.7637	77.3771	82.7637	77.1469	82.7637	77.2718	82.7637	77.0237	82.7637	77.1543	82.7637	76.8961	82.7637	77.0277	82.7637	76.7682	82.7637	76.896	82.7637	76.6441	82.7637	76.7638	82.7637	76.5284	82.7637	76.6358	82.7637	76.4251	82.7637	76.5172	82.7637	76.3378	82.7637	76.4124	82.7637	76.2694	82.7637	76.3255	82.7637	76.2219	82.7637	76.2591	82.7637	76.1966	82.7637	76.2151	82.7637	76.1942
85.6934	77.8207	85.6934	77.7966	85.6934	77.8238	85.6934	77.7519	85.6934	77.8058	85.6934	77.6874	85.6934	77.7664	85.6934	77.604	85.6934	77.706	85.6934	77.5027	85.6934	77.6248	85.6934	77.3854	85.6934	77.5239	85.6934	77.2541	85.6934	77.4046	85.6934	77.1117	85.6934	77.2689	85.6934	76.9615	85.6934	77.1199	85.6934	76.8077	85.6934	76.9614	85.6934	76.6551	85.6934	76.7984	85.6934	76.5087	85.6934	76.6369	85.6934	76.3742	85.6934	76.4833	85.6934	76.2569	85.6934	76.3445	85.6934	76.1618	85.6934	76.227	85.6934	76.0933	85.6934	76.1362	85.6934	76.0548	85.6934	76.076	85.6934	76.0487
88.623	77.4955	88.623	77.4662	88.623	77.5124	88.623	77.4252	88.623	77.5165	88.623	77.3734	88.623	77.5075	88.623	77.312	88.623	77.4853	88.623	77.2423	88.623	77.4501	88.623	77.1659	88.623	77.4024	88.623	77.0845	88.623	77.3428	88.623	77.0001	88.623	77.2726	88.623	76.915	88.623	77.1933	88.623	76.8315	88.623	77.107	88.623	76.7521	88.623	77.016	88.623	76.6796	88.623	76.9235	88.623	76.6165	88.623	76.8326	88.623	76.5654	88.623	76.7469	88.623	76.5287	88.623	76.6699	88.623	76.5083	88.623	76.6049	88.623	76.5056	88.623	76.5546	88.623	76.5211
91.5527	77.4594	91.5527	77.4239	91.5527	77.4783	91.5527	77.3724	91.5527	77.4806	91.5527	77.3063	91.5527	77.4672	91.5527	77.228	91.5527	77.4394	91.5527	77.1406	91.5527	77.3994	91.5527	77.0481	91.5527	77.3496	91.5527	76.9552	91.5527	77.2932	91.5527	76.8671	91.5527	77.2333	91.5527	76.7893	91.5527	77.1732	91.5527	76.7263	91.5527	77.1159	91.5527	76.6818	91.5527	77.0635	91.5527	76.6577	91.5527	77.0173	91.5527	76.6535	91.5527	76.9771	91.5527	76.6669	91.5527	76.9419	91.5527	76.6937	91.5527	76.9095	91.5527	76.7291	91.5527	76.8775	91.5527	76.7682	91.5527	76.8437	91.5527	76.8071
94.4824	78.0853	94.4824	78.0579	94.4824	78.0903	94.4824	78.0087	94.4824	78.0731	94.4824	77.9387	94.4824	78.0343	94.4824	77.8496	94.4824	77.9751	94.4824	77.7439	94.4824	77.8974	94.4824	77.625	94.4824	77.8037	94.4824	77.4971	94.4824	77.6974	94.4824	77.3653	94.4824	77.5828	94.4824	77.2357	94.4824	77.4646	94.4824	77.1143	94.4824	77.3478	94.4824	77.0072	94.4824	77.2375	94.4824	76.919	94.4824	77.1378	94.4824	76.8529	94.4824	77.0515	94.4824	76.8095	94.4824	76.9796	94.4824	76.7872	94.4824	76.9215	94.4824	76.7825	94.4824	76.8754	94.4824	76.7916	94.4824	76.8391	94.4824	76.8111
98.1445	78.1954	98.1445	78.168	98.1445	78.2021	98.1445	78.1202	98.1445	78.1877	98.1445	78.0531	98.1445	78.1526	98.1445	77.968	98.1445	78.0973	98.1445	77.8668	98.1445	78.0227	98.1445	77.7518	98.1445	77.9305	98.1445	77.6262	98.1445	77.8227	98.1445	77.4935	98.1445	77.702	98.1445	77.3581	98.1445	77.5718	98.1445	77.2245	98.1445	77.4362	98.1445	77.0975	98.1445	77.2997	98.1445	76.9819	98.1445	77.1674	98.1445	76.8817	98.1445	77.0441	98.1445	76.8001	98.1445	76.9345	98.1445	76.7392	98.1445	76.8421	98.1445	76.7003	98.1445	76.7697	98.1445	76.6839	98.1445	76.7187	98.1445	76.69
101.807	78.3435	101.807	78.315	101.807	78.3511	101.807	78.2661	101.807	78.3376	101.807	78.1979	101.807	78.3035	101.807	78.112	101.807	78.2497	101.807	78.0108	101.807	78.1777	101.807	77.8972	101.807	78.0897	101.807	77.7749	101.807	77.9884	101.807	77.6483	101.807	77.8771	101.807	77.5222	101.807	77.7598	101.807	77.4016	101.807	77.6407	101.807	77.2914	101.807	77.524	101.807	77.1958	101.807	77.4139	101.807	77.1179	101.807	77.3136	101.807	77.0596	101.807	77.2255	101.807	77.0212	101.807	77.1512	101.807	77.002	101.807	77.0913	101.807	77.0006	101.807	77.0461	101.807	77.0157
105.469	78.4808	105.469	78.4455	105.469	78.4949	105.469	78.3897	105.469	78.4879	105.469	78.3144	105.469	78.4601	105.469	78.2214	105.469	78.4127	105.469	78.1133	105.469	78.3471	105.469	77.9934	105.469	78.2654	105.469	77.8658	105.469	78.1703	105.469	77.7355	105.469	78.0651	105.469	77.608	105.469	77.9537	105.469	77.489	105.469	77.8401	105.469	77.3839	105.469	77.7285	105.469	77.2972	105.469	77.6227	105.469	77.2317	105.469	77.5256	105.469	77.1885	105.469	77.4392	105.469	77.167	105.469	77.3643	105.469	77.1649	105.469	77.3009	105.469	77.1794	105.469	77.2488	105.469	77.208
109.131	78.6986	109.131	78.6698	109.131	78.7058	109.131	78.62	109.131	78.6913	109.131	78.5502	109.131	78.6558	109.131	78.4624	109.131	78.6004	109.131	78.3591	109.131	78.527	109.131	78.2437	109.131	78.438	109.131	78.1203	109.131	78.3367	109.131	77.9939	109.131	78.2268	109.131	77.8698	109.131	78.1126	109.131	77.7537	109.131	77.9989	109.131	77.6508	109.131	77.8901	109.131	77.5654	109.131	77.7902	109.131	77.5	109.131	77.7019	109.131	77.4555	109.131	77.6268	109.131	77.4306	109.131	77.5649	109.131	77.423	109.131	77.5153	109.131	77.4296	109.131	77.4766	109.131	77.448
112.793	78.9037	112.793	78.8771	112.793	78.9076	112.793	78.8286	112.793	78.8889	112.793	78.7597	112.793	78.848	112.793	78.6722	112.793	78.7864	112.793	78.5692	112.793	78.7058	112.793	78.4541	112.793	78.6091	112.793	78.3315	112.793	78.4999	112.793	78.2063	112.793	78.3825	112.793	78.084	112.793	78.2619	112.793	77.9702	112.793	78.1433	112.793	77.8696	112.793	78.0319	112.793	77.7859	112.793	77.932	112.793	77.7212	112.793	77.8467	112.793	77.6755	112.793	77.7776	112.793	77.6472	112.793	77.7242	112.793	77.6337	112.793	77.6849	112.793	77.632	112.793	77.6576	112.793	77.6402
116.455	79.1141	116.455	79.085	116.455	79.1193	116.455	79.0329	116.455	79.1005	116.455	78.9593	116.455	79.058	116.455	78.8665	116.455	78.993	116.455	78.7577	116.455	78.9076	116.455	78.6367	116.455	78.8043	116.455	78.5081	116.455	78.6871	116.455	78.3775	116.455	78.5604	116.455	78.2505	116.455	78.4297	116.455	78.1326	116.455	78.3008	116.455	78.0287	116.455	78.1795	116.455	77.9424	116.455	78.0711	116.455	77.8752	116.455	77.9793	116.455	77.8268	116.455	77.9061	116.455	77.7953	116.455	77.8512	116.455	77.7778	116.455	77.8129	116.455	77.7716	116.455	77.7884	116.455	77.7752
120.85	79.3103	120.85	79.2734	120.85	79.3222	120.85	79.2122	120.85	79.3089	120.85	79.1286	120.85	79.271	120.85	79.0249	120.85	79.2097	120.85	78.9047	120.85	79.1272	120.85	78.7725	120.85	79.0263	120.85	78.634	120.85	78.9108	120.85	78.4955	120.85	78.7855	120.85	78.3637	120.85	78.6558	120.85	78.2452	120.85	78.5277	120.85	78.1452	120.85	78.4071	120.85	78.0673	120.85	78.2991	120.85	78.0123	120.85	78.2073	120.85	77.9787	120.85	78.1334	120.85	77.963	120.85	78.0767	120.85	77.9609	120.85	78.035	120.85	77.9685	120.85	78.0048	120.85	77.9832
125.244	79.4198	125.244	79.3774	125.244	79.4364	125.244	79.31	125.244	79.4275	125.244	79.2191	125.244	79.3938	125.244	79.1074	125.244	79.3369	125.244	78.9784	125.244	79.259	125.244	78.8371	125.244	79.1635	125.244	78.6896	125.244	79.0544	125.244	78.5433	125.244	78.9364	125.244	78.4061	125.244	78.8151	125.244	78.2859	125.244	78.6961	125.244	78.1892	125.244	78.5849	125.244	78.1201	125.244	78.4857	125.244	78.0797	125.244	78.4013	125.244	78.0655	125.244	78.3321	125.244	78.0721	125.244	78.2763	125.244	78.0932	125.244	78.2308	125.244	78.1226	125.244	78.1917	125.244	78.156
129.639	79.6458	129.639	79.6029	129.639	79.6624	129.639	79.5344	129.639	79.653	129.639	79.4414	129.639	79.6185	129.639	79.3261	129.639	79.5604	129.639	79.1917	129.639	79.4811	129.639	79.0423	129.639	79.3837	129.639	78.8838	129.639	79.2724	129.639	78.723	129.639	79.1517	129.639	78.5682	129.639	79.0273	129.639	78.4279	129.639	78.9045	129.639	78.3105	129.639	78.7884	129.639	78.2225	129.639	78.683	129.639	78.1672	129.639	78.5903	129.639	78.1443	129.639	78.5103	129.639	78.1498	129.639	78.441	129.639	78.177	129.639	78.3793	129.639	78.2187	129.639	78.3223	129.639	78.2684
134.033	79.7532	134.033	79.7244	134.033	79.7557	134.033	79.67	134.033	79.7321	134.033	79.5915	134.033	79.6833	134.033	79.4913	134.033	79.611	134.033	79.3728	134.033	79.5181	134.033	79.2404	134.033	79.4082	134.033	79.0997	134.033	79.286	134.033	78.9571	134.033	79.157	134.033	78.8194	134.033	79.0273	134.033	78.6938	134.033	78.9033	134.033	78.5864	134.033	78.7906	134.033	78.5017	134.033	78.6934	134.033	78.4418	134.033	78.6141	134.033	78.4059	134.033	78.5524	134.033	78.3908	134.033	78.506	134.033	78.3916	134.033	78.4709	134.033	78.403	134.033	78.4435	134.033	78.421
138.428	79.9452	138.428	79.9138	138.428	79.9486	138.428	79.8557	138.428	79.9238	138.428	79.7728	138.428	79.8716	138.428	79.6682	138.428	79.7937	138.428	79.5463	138.428	79.6927	138.428	79.4123	138.428	79.5726	138.428	79.2725	138.428	79.4385	138.428	79.1343	138.428	79.2969	138.428	79.0048	138.428	79.155	138.428	78.8908	138.428	79.0207	138.428	78.7976	138.428	78.9013	138.428	78.7277	138.428	78.8027	138.428	78.6809	138.428	78.7285	138.428	78.6538	138.428	78.6786	138.428	78.6411	138.428	78.65	138.428	78.6367	138.428	78.6373	138.428	78.6354	138.428	78.6339	138.428	78.6344
143.555	80.1757	143.555	80.1314	143.555	80.1894	143.555	80.0575	143.555	80.1728	143.555	79.956	143.555	80.127	143.555	79.8298	143.555	80.0541	143.555	79.6838	143.555	79.9571	143.555	79.5241	143.555	79.8405	143.555	79.3585	143.555	79.7095	143.555	79.1961	143.555	79.5708	143.555	79.0467	143.555	79.4316	143.555	78.9196	143.555	79.2994	143.555	78.8223	143.555	79.1811	143.555	78.7584	143.555	79.082	143.555	78.7277	143.555	79.0045	143.555	78.725	143.555	78.9479	143.555	78.7424	143.555	78.9084	143.555	78.7707	143.555	78.88	143.555	78.8018	143.555	78.8558	143.555	78.8306
148.682	80.344	148.682	80.3012	148.682	80.3552	148.682	80.2275	148.682	80.3348	148.682	80.125	148.682	80.2839	148.682	79.9966	148.682	80.2047	148.682	79.8471	148.682	80.1005	148.682	79.6825	148.682	79.9758	148.682	79.5107	148.682	79.8367	148.682	79.341	148.682	79.6903	148.682	79.1835	148.682	79.5448	148.682	79.0484	148.682	79.4085	148.682	78.9439	148.682	79.2888	148.682	78.8749	148.682	79.1911	148.682	78.8417	148.682	79.1175	148.682	78.8394	148.682	79.0663	148.682	78.8597	148.682	79.0322	148.682	78.8923	148.682	79.0079	148.682	78.9277	148.682	78.9855	148.682	78.9596
153.809	80.6434	153.809	80.5999	153.809	80.6543	153.809	80.5244	153.809	80.6327	153.809	80.4186	153.809	80.5794	153.809	80.2852	153.809	80.4965	153.809	80.1282	153.809	80.3867	153.809	79.9533	153.809	80.2542	153.809	79.7678	153.809	80.1045	153.809	79.5807	153.809	79.9446	153.809	79.4024	153.809	79.7824	153.809	79.2436	153.809	79.6265	153.809	79.1135	153.809	79.4849	153.809	79.0189	153.809	79.364	153.809	78.9616	153.809	79.267	153.809	78.9389	153.809	79.1935	153.809	78.9434	153.809	79.1395	153.809	78.9659	153.809	79.0986	153.809	78.9972	153.809	79.064	153.809	79.0308
159.668	80.7527	159.668	80.7163	159.668	80.7562	159.668	80.6478	159.668	80.727	159.668	80.5488	159.668	80.6663	159.668	80.4224	159.668	80.5762	159.668	80.2727	159.668	80.46	159.668	80.1058	159.668	80.3225	159.668	79.929	159.668	80.1698	159.668	79.7517	159.668	80.0094	159.668	79.584	159.668	79.8501	159.668	79.4363	159.668	79.7009	159.668	79.3174	159.668	79.5703	159.668	79.2329	159.668	79.4644	159.668	79.1841	159.668	79.3858	159.668	79.167	159.668	79.3328	159.668	79.1737	159.668	79.2998	159.668	79.1944	159.668	79.2789	159.668	79.2197	159.668	79.262	159.668	79.243
164.795	80.8986	164.795	80.8616	164.795	80.9024	164.795	80.7924	164.795	80.8731	164.795	80.6931	164.795	80.8115	164.795	80.5668	164.795	80.7197	164.795	80.418	164.795	80.6007	164.795	80.2527	164.795	80.4591	164.795	80.0782	164.795	80.3008	164.795	79.9035	164.795	80.1332	164.795	79.7379	164.795	79.965	164.795	79.591	164.795	79.8056	164.795	79.4705	164.795	79.6637	164.795	79.3811	164.795	79.5464	164.795	79.3237	164.795	79.4574	164.795	79.2945	164.795	79.3961	164.795	79.2868	164.795	79.3584	164.795	79.292	164.795	79.337	164.795	79.3027	164.795	79.3242	164.795	79.3138
170.654	80.8618	170.654	80.8187	170.654	80.87	170.654	80.7417	170.654	80.8434	170.654	80.6331	170.654	80.7833	170.654	80.4968	170.654	80.6924	170.654	80.3384	170.654	80.5747	170.654	80.1654	170.654	80.4358	170.654	79.9869	170.654	80.2827	170.654	79.814	170.654	80.1241	170.654	79.6582	170.654	79.9698	170.654	79.5302	170.654	79.8295	170.654	79.4378	170.654	79.7118	170.654	79.3843	170.654	79.6225	170.654	79.3675	170.654	79.5633	170.654	79.3797	170.654	79.531	170.654	79.4099	170.654	79.5182	170.654	79.4463	170.654	79.5152	170.654	79.4789	170.654	79.5121	170.654	79.5012
176.514	80.9687	176.514	80.9253	176.514	80.9745	176.514	80.8454	176.514	80.9433	176.514	80.731	176.514	80.8767	176.514	80.586	176.514	80.7775	176.514	80.416	176.514	80.6502	176.514	80.2289	176.514	80.5013	176.514	80.0348	176.514	80.3386	176.514	79.846	176.514	80.1721	176.514	79.6761	176.514	80.0127	176.514	79.5382	176.514	79.8715	176.514	79.4421	176.514	79.7577	176.514	79.3925	176.514	79.677	176.514	79.3868	176.514	79.63	176.514	79.4159	176.514	79.6113	176.514	79.4659	176.514	79.611	176.514	79.5216	176.514	79.617	176.514	79.5701	176.514	79.6171	176.514	79.6027
183.105	81.0779	183.105	81.0443	183.105	81.0717	183.105	80.9718	183.105	81.0257	183.105	80.8627	183.105	80.9413	183.105	80.7207	183.105	80.8211	183.105	80.551	183.105	80.6698	183.105	80.3609	183.105	80.4938	183.105	80.1601	183.105	80.3021	183.105	79.9601	183.105	80.1063	183.105	79.7743	183.105	79.9194	183.105	79.6161	183.105	79.7553	183.105	79.4967	183.105	79.6256	183.105	79.4225	183.105	79.5378	183.105	79.3933	183.105	79.4924	183.105	79.4015	183.105	79.4827	183.105	79.4342	183.105	79.4961	183.105	79.4757	183.105	79.5175	183.105	79.5116	183.105	79.5327	183.105	79.5318
189.697	81.2037	189.697	81.1634	189.697	81.2036	189.697	81.0844	189.697	81.1623	189.697	80.9697	189.697	81.0806	189.697	80.8239	189.697	80.9603	189.697	80.6531	189.697	80.8052	189.697	80.4652	189.697	80.6209	189.697	80.2703	189.697	80.4155	189.697	80.0797	189.697	80.2	189.697	79.9057	189.697	79.9876	189.697	79.7594	189.697	79.7933	189.697	79.649	189.697	79.6316	189.697	79.5777	189.697	79.5136	189.697	79.5426	189.697	79.4443	189.697	79.5349	189.697	79.421	189.697	79.5422	189.697	79.4333	189.697	79.5511	189.697	79.4664	189.697	79.5508	189.697	79.5046	189.697	79.5351
196.289	81.2198	196.289	81.1625	196.289	81.2342	196.289	81.0641	196.289	81.2053	196.289	80.928	196.289	81.1343	196.289	80.7597	196.289	81.0239	196.289	80.5671	196.289	80.8786	196.289	80.3607	196.289	80.7048	196.289	80.1533	196.289	80.5116	196.289	79.9598	196.289	80.3105	196.289	79.7952	196.289	80.1153	196.289	79.6719	196.289	79.9406	196.289	79.5974	196.289	79.8001	196.289	79.5717	196.289	79.7032	196.289	79.5871	196.289	79.6533	196.289	79.6294	196.289	79.6455	196.289	79.6819	196.289	79.6681	196.289	79.7283	196.289	79.7052	196.289	79.7563	196.289	79.7403	196.289	79.76
202.881	81.3132	202.881	81.2522	202.881	81.3276	202.881	81.146	202.881	81.2958	202.881	80.9974	202.881	81.2191	202.881	80.8112	202.881	81.1004	202.881	80.5952	202.881	80.9443	202.881	80.3602	202.881	80.7576	202.881	80.1206	202.881	80.5499	202.881	79.8943	202.881	80.3334	202.881	79.7003	202.881	80.1233	202.881	79.5559	202.881	79.936	202.881	79.4725	202.881	79.7871	202.881	79.4516	202.881	79.6876	202.881	79.4839	202.881	79.6407	202.881	79.5515	202.881	79.6403	202.881	79.6321	202.881	79.6721	202.881	79.7046	202.881	79.7166	202.881	79.7532	202.881	79.7544	202.881	79.7695
210.205	81.3541	210.205	81.2936	210.205	81.3674	210.205	81.1864	210.205	81.3342	210.205	81.0345	210.205	81.2566	210.205	80.842	210.205	81.138	210.205	80.6154	210.205	80.9834	210.205	80.365	210.205	80.7999	210.205	80.1053	210.205	80.5972	210.205	79.8549	210.205	80.3874	210.205	79.6352	210.205	80.1849	210.205	79.4673	210.205	80.0051	210.205	79.3667	210.205	79.862	210.205	79.3384	210.205	79.7648	210.205	79.3743	210.205	79.7156	210.205	79.4553	210.205	79.7079	210.205	79.5563	210.205	79.7276	210.205	79.653	210.205	79.756	210.205	79.7266	210.205	79.7742	210.205	79.7672
217.529	81.3272	217.529	81.2761	217.529	81.3269	217.529	81.174	217.529	81.2761	217.529	81.023	217.529	81.1776	217.529	80.8271	217.529	81.0355	217.529	80.5935	217.529	80.8565	217.529	80.3331	217.529	80.6501	217.529	80.0612	217.529	80.4289	217.529	79.7983	217.529	80.2089	217.529	79.5681	217.529	80.0083	217.529	79.3945	217.529	79.8452	217.529	79.2955	217.529	79.7338	217.529	79.2777	217.529	79.6807	217.529	79.333	217.529	79.6817	217.529	79.4404	217.529	79.7227	217.529	79.5716	217.529	79.7823	217.529	79.6983	217.529	79.8371	217.529	79.7974	217.529	79.866	217.529	79.8547
225.586	81.4945	225.586	81.4547	225.586	81.4794	225.586	81.3606	225.586	81.4095	225.586	81.2144	225.586	81.2864	225.586	81.0199	225.586	81.1133	225.586	80.7834	225.586	80.8957	225.586	80.5152	225.586	80.6429	225.586	80.2304	225.586	80.3686	225.586	79.9495	225.586	80.0917	225.586	79.6977	225.586	79.8357	225.586	79.5012	225.586	79.6261	225.586	79.3809	225.586	79.4849	225.586	79.3457	225.586	79.424	225.586	79.3881	225.586	79.4402	225.586	79.4853	225.586	79.515	225.586	79.606	225.586	79.6197	225.586	79.7183	225.586	79.7228	225.586	79.7964	225.586	79.7971	225.586	79.8241
232.91	81.6631	232.91	81.6152	232.91	81.6533	232.91	81.5113	232.91	81.5847	232.91	81.3538	232.91	81.457	232.91	81.1463	232.91	81.2713	232.91	80.8945	232.91	81.0306	232.91	80.6076	232.91	80.7422	232.91	80.2999	232.91	80.4183	232.91	79.9918	232.91	80.0789	232.91	79.7097	232.91	79.7517	232.91	79.4827	232.91	79.4704	232.91	79.3363	232.91	79.2685	232.91	79.2834	232.91	79.1692	232.91	79.3177	232.91	79.175	232.91	79.4144	232.91	79.266	232.91	79.5371	232.91	79.4051	232.91	79.6481	232.91	79.5502	232.91	79.7166	232.91	79.6647	232.91	79.7237
241.699	81.6952	241.699	81.6169	241.699	81.7174	241.699	81.4832	241.699	81.6833	241.699	81.2952	241.699	81.5928	241.699	81.0558	241.699	81.4464	241.699	80.77	241.699	81.2453	241.699	80.4469	241.699	80.9925	241.699	80.101	241.699	80.6944	241.699	79.754	241.699	80.3619	241.699	79.4339	241.699	80.013	241.699	79.1721	241.699	79.673	241.699	78.9956	241.699	79.3733	241.699	78.9173	241.699	79.1453	241.699	78.9294	241.699	79.0109	241.699	79.0046	241.699	78.973	241.699	79.1049	241.699	79.0126	241.699	79.1929	241.699	79.0948	241.699	79.2408	241.699	79.1801	241.699	79.2354
249.756	81.7756	249.756	81.7214	249.756	81.7728	249.756	81.61	249.756	81.7134	249.756	81.442	249.756	81.5981	249.756	81.2186	249.756	81.4286	249.756	80.943	249.756	81.2077	249.756	80.6214	249.756	80.9407	249.756	80.265	249.756	80.6362	249.756	79.8919	249.756	80.308	249.756	79.5285	249.756	79.9759	249.756	79.2083	249.756	79.6654	249.756	78.9659	249.756	79.4046	249.756	78.8265	249.756	79.2179	249.756	78.7954	249.756	79.1172	249.756	78.8538	249.756	79.0962	249.756	78.9647	249.756	79.1307	249.756	79.0859	249.756	79.1863	249.756	79.1819	249.756	79.2285	249.756	79.231
258.545	81.8602	258.545	81.7998	258.545	81.8645	258.545	81.6833	258.545	81.8127	258.545	81.512	258.545	81.7056	258.545	81.2877	258.545	81.5442	258.545	81.0148	258.545	81.3311	258.545	80.7006	258.545	81.0705	258.545	80.3576	258.545	80.7699	258.545	80.0045	258.545	80.4416	258.545	79.667	258.545	80.1038	258.545	79.376	258.545	79.7814	258.545	79.1614	258.545	79.5037	258.545	79.0427	258.545	79.2981	258.545	79.0207	258.545	79.1817	258.545	79.0748	258.545	79.1529	258.545	79.1699	258.545	79.1904	258.545	79.2671	258.545	79.2598	258.545	79.3346	258.545	79.324	258.545	79.3541
268.066	81.6495	268.066	81.5889	268.066	81.6534	268.066	81.4713	268.066	81.6012	268.066	81.2975	268.066	81.4944	268.066	81.0697	268.066	81.3346	268.066	80.7927	268.066	81.1244	268.066	80.4745	268.066	80.8672	268.066	80.1286	268.066	80.5691	268.066	79.7749	268.066	80.2393	268.066	79.4401	268.066	79.8927	268.066	79.1546	268.066	79.551	268.066	78.9463	268.066	79.2419	268.066	78.8306	268.066	78.995	268.066	78.8038	268.066	78.8339	268.066	78.8421	268.066	78.7664	268.066	78.91	268.066	78.78	268.066	78.9715	268.066	78.8445	268.066	78.9993	268.066	78.9227	268.066	78.9814
277.588	81.8501	277.588	81.8094	277.588	81.8248	277.588	81.702	277.588	81.7357	277.588	81.528	277.588	81.5861	277.588	81.289	277.588	81.382	277.588	80.9885	277.588	81.1325	277.588	80.6339	277.588	80.8506	277.588	80.2386	277.588	80.5541	277.588	79.8248	277.588	80.2641	277.588	79.4257	277.588	80.0042	277.588	79.0842	277.588	79.7957	277.588	78.845	277.588	79.6536	277.588	78.7394	277.588	79.5818	277.588	78.771	277.588	79.5718	277.588	78.9113	277.588	79.6039	277.588	79.112	277.588	79.6513	277.588	79.3215	277.588	79.6856	277.588	79.4995	277.588	79.6818	277.588	79.622
287.109	81.9619	287.109	81.9132	287.109	81.9502	287.109	81.8067	287.109	81.8752	287.109	81.6446	287.109	81.7343	287.109	81.4291	287.109	81.5264	287.109	81.1632	287.109	81.2525	287.109	80.8517	287.109	80.9189	287.109	80.5035	287.109	80.539	287.109	80.1337	287.109	80.1366	287.109	79.7658	287.109	79.7466	287.109	79.4317	287.109	79.4127	287.109	79.1677	287.109	79.1771	287.109	79.0049	287.109	79.0648	287.109	78.9567	287.109	79.0718	287.109	79.0111	287.109	79.1645	287.109	79.1338	287.109	79.2934	287.109	79.2792	287.109	79.4097	287.109	79.4036	287.109	79.4766	287.109	79.475
297.363	81.8516	297.363	81.7869	297.363	81.8528	297.363	81.6607	297.363	81.7883	297.363	81.4756	297.363	81.656	297.363	81.2355	297.363	81.4535	297.363	80.9469	297.363	81.1794	297.363	80.62	297.363	80.8344	297.363	80.2707	297.363	80.4247	297.363	79.9216	297.363	79.9655	297.363	79.6014	297.363	79.4863	297.363	79.3415	297.363	79.0337	297.363	79.168	297.363	78.6677	297.363	79.0924	297.363	78.4454	297.363	79.1054	297.363	78.3953	297.363	79.178	297.363	78.5005	297.363	79.27	297.363	78.7053	297.363	79.3401	297.363	78.9412	297.363	79.3545	297.363	79.1495	297.363	79.2924
307.617	81.8351	307.617	81.7454	307.617	81.858	307.617	81.5896	307.617	81.8133	307.617	81.3691	307.617	81.7001	307.617	81.0865	307.617	81.5181	307.617	80.7471	307.617	81.2673	307.617	80.3611	307.617	80.9497	307.617	79.9469	307.617	80.5712	307.617	79.534	307.617	80.1449	307.617	79.1638	307.617	79.6948	307.617	78.8845	307.617	79.2596	307.617	78.7365	307.617	78.8917	307.617	78.7343	307.617	78.6465	307.617	78.8555	307.617	78.5614	307.617	79.0475	307.617	78.635	307.617	79.2469	307.617	78.8235	307.617	79.3973	307.617	79.059	307.617	79.4598	307.617	79.2739	307.617	79.417
318.604	81.8972	318.604	81.8062	318.604	81.9201	318.604	81.6455	318.604	81.8755	318.604	81.4133	318.604	81.763	318.604	81.1082	318.604	81.5818	318.604	80.7307	318.604	81.3309	318.604	80.2861	318.604	81.0108	318.604	79.788	318.604	80.6256	318.604	79.2638	318.604	80.1862	318.604	78.7587	318.604	79.7143	318.604	78.3354	318.604	79.2466	318.604	78.0593	318.604	78.8343	318.604	77.9718	318.604	78.5344	318.604	78.0641	318.604	78.3882	318.604	78.2783	318.604	78.3989	318.604	78.5336	318.604	78.5252	318.604	78.7559	318.604	78.6988	318.604	78.8941	318.604	78.8496	318.604	78.9244
329.59	81.7277	329.59	81.6765	329.59	81.719	329.59	81.5615	329.59	81.6529	329.59	81.3781	329.59	81.5312	329.59	81.1212	329.59	81.3545	329.59	80.7864	329.59	81.1227	329.59	80.3719	329.59	80.8363	329.59	79.8829	329.59	80.497	329.59	79.3371	329.59	80.1116	329.59	78.7724	329.59	79.6946	329.59	78.2518	329.59	79.2729	329.59	77.8567	329.59	78.8865	329.59	77.6583	329.59	78.583	329.59	77.6773	329.59	78.4022	329.59	77.8661	329.59	78.3559	329.59	78.1343	329.59	78.417	329.59	78.391	329.59	78.5282	329.59	78.5725	329.59	78.6238	329.59	78.6491
341.309	81.4312	341.309	81.4117	341.309	81.3881	341.309	81.3322	341.309	81.2795	341.309	81.1939	341.309	81.1024	341.309	80.9967	341.309	80.8553	341.309	80.7392	341.309	80.5385	341.309	80.4201	341.309	80.1563	341.309	80.0405	341.309	79.7194	341.309	79.6083	341.309	79.2488	341.309	79.144	341.309	78.7793	341.309	78.6854	341.309	78.3599	341.309	78.2885	341.309	78.0475	341.309	78.0154	341.309	77.8874	341.309	77.9085	341.309	77.8908	341.309	77.9645	341.309	78.0244	341.309	78.1314	341.309	78.2233	341.309	78.3325	341.309	78.4159	341.309	78.4961	341.309	78.5441	341.309	78.5735
353.76	81.5905	353.76	81.4903	353.76	81.6242	353.76	81.3287	353.76	81.5859	353.76	81.1105	353.76	81.47	353.76	80.8403	353.76	81.2705	353.76	80.5236	353.76	80.982	353.76	80.1668	353.76	80.6008	353.76	79.7801	353.76	80.1277	353.76	79.3795	353.76	79.572	353.76	78.9895	353.76	78.9595	353.76	78.6438	353.76	78.3402	353.76	78.3805	353.76	77.7935	353.76	78.2302	353.76	77.4147	353.76	78.2004	353.76	77.2747	353.76	78.2668	353.76	77.3739	353.76	78.3789	353.76	77.637	353.76	78.476	353.76	77.9565	353.76	78.5046	353.76	78.2396	353.76	78.4292
366.211	81.8204	366.211	81.6839	366.211	81.8831	366.211	81.4699	366.211	81.8734	366.211	81.174	366.211	81.7904	366.211	80.7919	366.211	81.6307	366.211	80.3226	366.211	81.3892	366.211	79.7722	366.211	81.0603	366.211	79.1615	366.211	80.6407	366.211	78.5343	366.211	80.1337	366.211	77.9652	366.211	79.5562	366.211	77.5515	366.211	78.9476	366.211	77.3774	366.211	78.3771	366.211	77.4626	366.211	77.9381	366.211	77.743	366.211	77.7166	366.211	78.1076	366.211	77.7408	366.211	78.4495	366.211	77.9577	366.211	78.6923	366.211	78.2627	366.211	78.794	366.211	78.5499	366.211	78.7417
378.662	81.9353	378.662	81.8673	378.662	81.946	378.662	81.7373	378.662	81.9008	378.662	81.5381	378.662	81.7981	378.662	81.2598	378.662	81.6328	378.662	80.8908	378.662	81.397	378.662	80.42	378.662	81.0807	378.662	79.8412	378.662	80.6749	378.662	79.1616	378.662	80.1759	378.662	78.4165	378.662	79.5929	378.662	77.6894	378.662	78.9588	378.662	77.1205	378.662	78.3425	378.662	76.8641	378.662	77.85	378.662	76.9817	378.662	77.592	378.662	77.3787	378.662	77.6163	378.662	77.8726	378.662	77.8627	378.662	78.3008	378.662	78.1975	378.662	78.5642	378.662	78.4834	378.662	78.6227
392.578	81.4178	392.578	81.3781	392.578	81.414	392.578	81.2925	392.578	81.367	392.578	81.1557	392.578	81.2751	392.578	80.9594	392.578	81.1339	392.578	80.6915	392.578	80.9358	392.578	80.3384	392.578	80.6705	392.578	79.8868	392.578	80.3263	392.578	79.3306	392.578	79.8931	392.578	78.6806	392.578	79.3695	392.578	77.9798	392.578	78.7714	392.578	77.3185	392.578	78.1452	392.578	76.8302	392.578	77.5765	392.578	76.6337	392.578	77.1762	392.578	76.7426	392.578	77.0271	392.578	77.0431	392.578	77.1185	392.578	77.3728	392.578	77.3434	392.578	77.6027	392.578	77.5626	392.578	77.6673
405.762	81.3172	405.762	81.2645	405.762	81.3071	405.762	81.1512	405.762	81.2323	405.762	80.9784	405.762	81.0916	405.762	80.7451	405.762	80.8844	405.762	80.447	405.762	80.61	405.762	80.0773	405.762	80.2678	405.762	79.629	405.762	79.8578	405.762	79.1007	405.762	79.3838	405.762	78.5068	405.762	78.8594	405.762	77.8901	405.762	78.3164	405.762	77.3339	405.762	77.8126	405.762	76.9512	405.762	77.4285	405.762	76.8342	405.762	77.2401	405.762	76.9841	405.762	77.2711	405.762	77.2997	405.762	77.4668	405.762	77.6402	405.762	77.7196	405.762	77.8908	405.762	77.9194	405.762	77.988
420.41	81.3684	420.41	81.2971	420.41	81.4131	420.41	81.1964	420.41	81.43	420.41	81.059	420.41	81.4133	420.41	80.8732	420.41	81.3515	420.41	80.6214	420.41	81.2268	420.41	80.2818	420.41	81.0158	420.41	79.8299	420.41	80.6906	420.41	79.2443	420.41	80.2226	420.41	78.5165	420.41	79.5872	420.41	77.6685	420.41	78.7739	420.41	76.783	420.41	77.8076	420.41	76.0284	420.41	76.7857	420.41	75.6187	420.41	75.9172	420.41	75.6534	420.41	75.4705	420.41	76.0006	420.41	75.5501	420.41	76.407	420.41	75.9632	420.41	76.6657	420.41	76.4069	420.41	76.67
435.059	80.8074	435.059	80.7914	435.059	80.7771	435.059	80.7314	435.059	80.7046	435.059	80.6331	435.059	80.5994	435.059	80.5011	435.059	80.4734	435.059	80.334	435.059	80.3342	435.059	80.1215	435.059	80.1795	435.059	79.8456	435.059	79.9938	435.059	79.484	435.059	79.7506	435.059	79.0179	435.059	79.4193	435.059	78.4412	435.059	78.9745	435.059	77.7745	435.059	78.4083	435.059	77.0787	435.059	77.7444	435.059	76.4593	435.059	77.053	435.059	76.0324	435.059	76.4495	435.059	75.8491	435.059	76.05	435.059	75.8476	435.059	75.8893	435.059	75.9031	435.059	75.8881	435.059	75.9198
450.439	81.105	450.439	80.9851	450.439	81.135	450.439	80.7868	450.439	81.0727	450.439	80.5308	450.439	80.9254	450.439	80.2437	450.439	80.7082	450.439	79.953	450.439	80.4418	450.439	79.679	450.439	80.1479	450.439	79.4273	450.439	79.8428	450.439	79.1861	450.439	79.5322	450.439	78.9316	450.439	79.2096	450.439	78.6386	450.439	78.8603	450.439	78.2945	450.439	78.4718	450.439	77.909	450.439	78.0455	450.439	77.5186	450.439	77.6067	450.439	77.1758	450.439	77.205	450.439	76.9239	450.439	76.8971	450.439	76.7709	450.439	76.7151	450.439	76.6897	450.439	76.6465	450.439	76.649
466.553	81.0591	466.553	80.9439	466.553	81.0801	466.553	80.7344	466.553	81.0135	466.553	80.4387	466.553	80.8712	466.553	80.0737	466.553	80.6674	466.553	79.6644	466.553	80.4165	466.553	79.2419	466.553	80.1298	466.553	78.8384	466.553	79.8134	466.553	78.4808	466.553	79.4692	466.553	78.1859	466.553	79.0976	466.553	77.9597	466.553	78.7041	466.553	77.8016	466.553	78.3058	466.553	77.7085	466.553	77.9363	466.553	77.6752	466.553	77.6424	466.553	77.6901	466.553	77.4671	466.553	77.7308	466.553	77.4252	466.553	77.7656	466.553	77.4893	466.553	77.7633	466.553	77.6027	466.553	77.7064
482.666	81.2039	482.666	81.139	482.666	81.1722	482.666	80.9761	482.666	81.047	482.666	80.7154	482.666	80.8343	482.666	80.3584	482.666	80.5424	482.666	79.9077	482.666	80.1815	482.666	79.3694	482.666	79.7633	482.666	78.7563	482.666	79.3007	482.666	78.0959	482.666	78.8086	482.666	77.4396	482.666	78.308	482.666	76.8702	482.666	77.8313	482.666	76.4903	482.666	77.4262	482.666	76.3792	482.666	77.1504	482.666	76.5372	482.666	77.0504	482.666	76.8769	482.666	77.1309	482.666	77.2726	482.666	77.3414	482.666	77.6144	482.666	77.5947	482.666	77.8314	482.666	77.801	482.666	77.8922
500.244	80.8726	500.244	80.7746	500.244	80.8712	500.244	80.582	500.244	80.7714	500.244	80.3029	500.244	80.5811	500.244	79.9456	500.244	80.3147	500.244	79.5159	500.244	79.99	500.244	79.0162	500.244	79.6239	500.244	78.448	500.244	79.2264	500.244	77.8196	500.244	78.7981	500.244	77.1598	500.244	78.3327	500.244	76.5354	500.244	77.8279	500.244	76.0581	500.244	77.3029	500.244	75.8507	500.244	76.8163	500.244	75.9642	500.244	76.4669	500.244	76.3215	500.244	76.352	500.244	76.7621	500.244	76.4917	500.244	77.1317	500.244	76.7951	500.244	77.3299	500.244	77.114	500.244	77.3178
517.822	80.663	517.822	80.5865	517.822	80.6184	517.822	80.3896	517.822	80.4521	517.822	80.0736	517.822	80.1655	517.822	79.6417	517.822	79.7655	517.822	79.1023	517.822	79.2697	517.822	78.4735	517.822	78.7123	517.822	77.7881	517.822	78.1464	517.822	77.0982	517.822	77.6371	517.822	76.4744	517.822	77.2399	517.822	75.9956	517.822	76.9751	517.822	75.7251	517.822	76.82	517.822	75.683	517.822	76.7302	517.822	75.835	517.822	76.6722	517.822	76.1053	517.822	76.6411	517.822	76.4036	517.822	76.6509	517.822	76.6512	517.822	76.7078	517.822	76.7985	517.822	76.7865	517.822	76.8344
536.133	81.0198	536.133	80.9281	536.133	81.0055	536.133	80.733	536.133	80.8778	536.133	80.4323	536.133	80.6252	536.133	80.0174	536.133	80.2318	536.133	79.4732	536.133	79.6781	536.133	78.7786	536.133	78.9427	536.133	77.9123	536.133	78.0094	536.133	76.8664	536.133	76.8843	536.133	75.683	536.133	75.6376	536.133	74.5286	536.133	74.4804	536.133	73.766	536.133	73.801	536.133	73.7787	536.133	73.9146	536.133	74.5213	536.133	74.6802	536.133	75.5632	536.133	75.678	536.133	76.5386	536.133	76.597	536.133	77.2775	536.133	77.2971	536.133	77.7256	536.133	77.7285	536.133	77.8742
554.443	80.5204	554.443	80.4238	554.443	80.5303	554.443	80.2395	554.443	80.456	554.443	79.9662	554.443	80.3019	554.443	79.5995	554.443	80.0724	554.443	79.129	554.443	79.7684	554.443	78.5369	554.443	79.3828	554.443	77.8012	554.443	78.8971	554.443	76.9046	554.443	78.28	554.443	75.8575	554.443	77.4914	554.443	74.7449	554.443	76.4977	554.443	73.7926	554.443	75.312	554.443	73.35	554.443	74.0863	554.443	73.6099	554.443	73.2299	554.443	74.3582	554.443	73.223	554.443	75.2077	554.443	73.9952	554.443	75.8823	554.443	74.9922	554.443	76.2409	554.443	75.7896	554.443	76.2176
574.219	80.6598	574.219	80.5451	574.219	80.6672	574.219	80.3332	574.219	80.5616	574.219	80.039	574.219	80.3402	574.219	79.6797	574.219	80.0024	574.219	79.2665	574.219	79.5492	574.219	78.7916	574.219	78.9836	574.219	78.2168	574.219	78.3106	574.219	77.4709	574.219	77.5368	574.219	76.4627	574.219	76.671	574.219	75.1193	574.219	75.7332	574.219	73.4985	574.219	74.7824	574.219	72.0858	574.219	73.9675	574.219	71.8803	574.219	73.5438	574.219	73.0143	574.219	73.7131	574.219	74.4603	574.219	74.3767	574.219	75.5579	574.219	75.2013	574.219	76.1442	574.219	75.8814	574.219	76.2308
594.727	80.8607	594.727	80.7349	594.727	80.8686	594.727	80.4925	594.727	80.7571	594.727	80.1346	594.727	80.5244	594.727	79.6644	594.727	80.1685	594.727	79.0892	594.727	79.6877	594.727	78.4222	594.727	79.0794	594.727	77.6776	594.727	78.3399	594.727	76.8589	594.727	77.4619	594.727	75.9469	594.727	76.4343	594.727	74.9126	594.727	75.2498	594.727	73.7872	594.727	73.9408	594.727	72.8125	594.727	72.6813	594.727	72.5002	594.727	71.9207	594.727	73.117	594.727	72.1458	594.727	74.2123	594.727	73.1867	594.727	75.195	594.727	74.4007	594.727	75.7609	594.727	75.3376	594.727	75.8108
615.234	80.8292	615.234	80.7401	615.234	80.8515	615.234	80.5804	615.234	80.8082	615.234	80.3431	615.234	80.6965	615.234	80.0149	615.234	80.5062	615.234	79.5733	615.234	80.2168	615.234	78.9839	615.234	79.7958	615.234	78.1988	615.234	79.2003	615.234	77.1542	615.234	78.3768	615.234	75.769	615.234	77.2611	615.234	73.9576	615.234	75.7772	615.234	71.725	615.234	73.852	615.234	69.6124	615.234	71.5337	615.234	69.2328	615.234	69.5075	615.234	70.8368	615.234	69.4386	615.234	72.7102	615.234	71.1697	615.234	74.0556	615.234	72.9868	615.234	74.7542	615.234	74.2288	615.234	74.8129
637.207	80.3286	637.207	80.2372	637.207	80.3737	637.207	80.1058	637.207	80.37	637.207	79.9407	637.207	80.3178	637.207	79.741	637.207	80.2154	637.207	79.4905	637.207	80.0517	637.207	79.1547	637.207	79.8025	637.207	78.6809	637.207	79.4308	637.207	78.0011	637.207	78.8891	637.207	77.0295	637.207	78.1211	637.207	75.6558	637.207	77.0585	637.207	73.7401	637.207	75.6203	637.207	71.1856	637.207	73.7375	637.207	68.5191	637.207	71.513	637.207	68.1257	637.207	69.7631	637.207	70.2039	637.207	69.9243	637.207	72.1701	637.207	71.4346	637.207	73.2551	637.207	72.7927	637.207	73.442
659.912	79.8393	659.912	79.757	659.912	79.8604	659.912	79.6285	659.912	79.827	659.912	79.4854	659.912	79.7639	659.912	79.3581	659.912	79.7022	659.912	79.2527	659.912	79.6599	659.912	79.132	659.912	79.6245	659.912	78.9162	659.912	79.545	659.912	78.4973	659.912	79.3393	659.912	77.7554	659.912	78.9095	659.912	76.5683	659.912	78.154	659.912	74.8278	659.912	76.9777	659.912	72.5322	659.912	75.3159	659.912	70.215	659.912	73.2487	659.912	69.5053	659.912	71.3756	659.912	70.7592	659.912	70.926	659.912	72.2777	659.912	71.8801	659.912	73.2233	659.912	72.9444	659.912	73.4439
683.35	80.4436	683.35	80.3444	683.35	80.4262	683.35	80.1542	683.35	80.2951	683.35	79.9226	683.35	80.0839	683.35	79.7113	683.35	79.8543	683.35	79.5667	683.35	79.677	683.35	79.4836	683.35	79.592	683.35	79.3872	683.35	79.5687	683.35	79.1498	683.35	79.5044	683.35	78.6227	683.35	79.261	683.35	77.6553	683.35	78.7021	683.35	76.1043	683.35	77.7085	683.35	73.8877	683.35	76.1912	683.35	71.3484	683.35	74.1828	683.35	70.2	683.35	72.2314	683.35	71.4827	683.35	71.7316	683.35	73.2282	683.35	72.8326	683.35	74.3228	683.35	74.0421	683.35	74.5915
706.787	80.7537	706.787	80.533	706.787	80.8109	706.787	80.1639	706.787	80.7092	706.787	79.6916	706.787	80.4724	706.787	79.2108	706.787	80.1492	706.787	78.8673	706.787	79.8151	706.787	78.7915	706.787	79.5516	706.787	78.9709	706.787	79.3959	706.787	79.2123	706.787	79.2958	706.787	79.2522	706.787	79.1177	706.787	78.8625	706.787	78.6966	706.787	77.873	706.787	77.8781	706.787	76.1807	706.787	76.5494	706.787	73.9123	706.787	74.7382	706.787	72.0847	706.787	72.959	706.787	72.3284	706.787	72.4348	706.787	73.7347	706.787	73.357	706.787	74.7615	706.787	74.4635	706.787	75.0013
731.689	78.5173	731.689	78.3579	731.689	78.4903	731.689	78.0232	731.689	78.2866	731.689	77.5534	731.689	77.9369	731.689	77.0262	731.689	77.5017	731.689	76.5528	731.689	77.0813	731.689	76.236	731.689	76.7957	731.689	76.0975	731.689	76.7059	731.689	76.0369	731.689	76.7366	731.689	75.8652	731.689	76.7012	731.689	75.3616	731.689	76.391	731.689	74.3095	731.689	75.6266	731.689	72.5576	731.689	74.2695	731.689	70.4008	731.689	72.3155	731.689	69.6128	731.689	70.4118	731.689	71.218	731.689	70.3272	731.689	73.0976	731.689	71.9762	731.689	74.165	731.689	73.5328	731.689	74.2999
758.057	74.9691	758.057	74.8188	758.057	74.8521	758.057	74.3974	758.057	74.4757	758.057	73.6996	758.057	73.8628	758.057	72.7249	758.057	73.062	758.057	71.5099	758.057	72.1548	758.057	70.2191	758.057	71.2679	758.057	69.2554	758.057	70.5902	758.057	69.0405	758.057	70.3136	758.057	69.3951	758.057	70.4114	758.057	69.6733	758.057	70.5327	758.057	69.3606	758.057	70.2195	758.057	68.1471	758.057	69.0848	758.057	65.7919	758.057	66.7863	758.057	62.3392	758.057	63.0269	758.057	60.3026	758.057	59.2198	758.057	62.1977	758.057	60.683	758.057	64.0245	758.057	63.2993	758.057	64.4168
784.424	79.8133	784.424	79.682	784.424	79.7216	784.424	79.3244	784.424	79.4063	784.424	78.7347	784.424	78.8665	784.424	77.9137	784.424	78.1136	784.424	76.8947	784.424	77.1988	784.424	75.7968	784.424	76.2467	784.424	74.8667	784.424	75.4562	784.424	74.3583	784.424	74.9975	784.424	74.2367	784.424	74.8505	784.424	74.1535	784.424	74.794	784.424	73.7277	784.424	74.5486	784.424	72.6833	784.424	73.8667	784.424	70.8627	784.424	72.5363	784.424	68.4909	784.424	70.4023	784.424	67.0005	784.424	67.6735	784.424	67.5044	784.424	66.0037	784.424	68.253	784.424	66.8322	784.424	68.0318
812.256	80.7227	812.256	80.5636	812.256	80.6553	812.256	80.1887	812.256	80.3583	812.256	79.6158	812.256	79.8362	812.256	78.8691	812.256	79.1046	812.256	77.9832	812.256	78.2001	812.256	77.0166	812.256	77.205	812.256	76.0801	812.256	76.2731	812.256	75.3367	812.256	75.5934	812.256	74.8791	812.256	75.2407	812.256	74.5604	812.256	75.0694	812.256	74.067	812.256	74.8232	812.256	73.1759	812.256	74.2935	812.256	71.9667	812.256	73.3854	812.256	70.939	812.256	72.1874	812.256	70.6688	812.256	71.1228	812.256	71.0389	812.256	70.799	812.256	71.4561	812.256	71.1561	812.256	71.5112
840.82	81.7124	840.82	81.5289	840.82	81.651	840.82	81.1072	840.82	81.3403	840.82	80.4596	840.82	80.7834	840.82	79.6133	840.82	80.0026	840.82	78.6221	840.82	79.0547	840.82	77.5739	840.82	78.0429	840.82	76.5845	840.82	77.1133	840.82	75.7578	840.82	76.4141	840.82	75.1065	840.82	75.9962	840.82	74.49	840.82	75.7306	840.82	73.6523	840.82	75.3736	840.82	72.3747	840.82	74.7244	840.82	70.7975	840.82	73.7365	840.82	69.9419	840.82	72.5977	840.82	70.699	840.82	71.8053	840.82	72.0111	840.82	71.8454	840.82	72.8348	840.82	72.4574	840.82	72.9369
870.85	82.3982	870.85	82.2475	870.85	82.3353	870.85	81.872	870.85	82.0619	870.85	81.2548	870.85	81.5705	870.85	80.3799	870.85	80.8452	870.85	79.2575	870.85	79.8768	870.85	77.9783	870.85	78.7034	870.85	76.7701	870.85	77.4638	870.85	75.8952	870.85	76.4014	870.85	75.3155	870.85	75.7006	870.85	74.6195	870.85	75.2554	870.85	73.3748	870.85	74.7237	870.85	71.4741	870.85	73.8156	870.85	69.8226	870.85	72.6377	870.85	70.3412	870.85	72.0926	870.85	72.2492	870.85	72.9156	870.85	73.8706	870.85	74.194	870.85	74.853	870.85	75.031	870.85	75.2382
901.611	82.7883	901.611	82.6849	901.611	82.6926	901.611	82.3756	901.611	82.3953	901.611	81.8469	901.611	81.8872	901.611	81.0857	901.611	81.155	901.611	80.0951	901.611	80.1911	901.611	78.9218	901.611	79.0256	901.611	77.6999	901.611	77.7979	901.611	76.6717	901.611	76.795	901.611	76.0319	901.611	76.2072	901.611	75.5961	901.611	75.7565	901.611	74.7801	901.611	74.8718	901.611	72.855	901.611	73.0565	901.611	68.9878	901.611	70.0816	901.611	64.902	901.611	67.5807	901.611	69.0329	901.611	69.545	901.611	72.7522	901.611	72.5342	901.611	74.5543	901.611	74.3645	901.611	75.0221
933.105	83.4058	933.105	83.1632	933.105	83.448	933.105	82.7315	933.105	83.2725	933.105	82.1134	933.105	82.8546	933.105	81.3032	933.105	82.1602	933.105	80.2968	933.105	81.1509	933.105	79.1225	933.105	79.8125	933.105	77.8976	933.105	78.2315	933.105	76.8788	933.105	76.729	933.105	76.3159	933.105	75.8164	933.105	76.0635	933.105	75.5639	933.105	75.5643	933.105	75.3096	933.105	74.2223	933.105	74.273	933.105	71.5827	933.105	71.775	933.105	68.2561	933.105	67.4438	933.105	68.9451	933.105	66.5583	933.105	71.9687	933.105	70.6042	933.105	73.7261	933.105	73.1229	933.105	74.0813
966.064	83.8977	966.064	83.6718	966.064	83.9491	966.064	83.2628	966.064	83.819	966.064	82.6522	966.064	83.4803	966.064	81.8174	966.064	82.8862	966.064	80.738	966.064	81.975	966.064	79.4177	966.064	80.6826	966.064	77.9626	966.064	79.0025	966.064	76.72	966.064	77.1762	966.064	76.133	966.064	75.9134	966.064	76.0233	966.064	75.6825	966.064	75.5816	966.064	75.7221	966.064	74.0452	966.064	75.0071	966.064	70.8216	966.064	72.763	966.064	66.8338	966.064	67.8829	966.064	68.6609	966.064	63.0098	966.064	71.9572	966.064	69.1078	966.064	73.6278	966.064	72.6137	966.064	73.876
999.756	83.4772	999.756	83.3923	999.756	83.4562	999.756	83.1921	999.756	83.3298	999.756	82.8421	999.756	83.0894	999.756	82.2633	999.756	82.6975	999.756	81.331	999.756	82.0632	999.756	79.9073	999.756	81.0412	999.756	77.9506	999.756	79.4797	999.756	75.8691	999.756	77.3803	999.756	74.8869	999.756	75.3651	999.756	75.3002	999.756	74.7389	999.756	75.6225	999.756	75.212	999.756	74.763	999.756	75.2526	999.756	72.0395	999.756	73.9939	999.756	66.7358	999.756	70.7476	999.756	65.3113	999.756	65.0308	999.756	70.0018	999.756	66.6501	999.756	72.3656	999.756	71.0449	999.756	72.7194
1,034.91	83.0917	1,034.91	83.0207	1,034.91	83.0429	1,034.91	82.8381	1,034.91	82.8895	1,034.91	82.5596	1,034.91	82.6655	1,034.91	82.1766	1,034.91	82.3925	1,034.91	81.626	1,034.91	82.0342	1,034.91	80.7868	1,034.91	81.4633	1,034.91	79.5191	1,034.91	80.4773	1,034.91	77.7926	1,034.91	78.8933	1,034.91	76.0288	1,034.91	76.8222	1,034.91	75.2114	1,034.91	75.2065	1,034.91	75.2417	1,034.91	74.9667	1,034.91	74.6778	1,034.91	74.9496	1,034.91	72.4444	1,034.91	73.7401	1,034.91	68.4939	1,034.91	70.3833	1,034.91	68.343	1,034.91	64.644	1,034.91	71.7603	1,034.91	67.9655	1,034.91	73.6756	1,034.91	72.3079	1,034.91	73.9237
1,071.53	83.0308	1,071.53	82.8487	1,071.53	82.9672	1,071.53	82.4636	1,071.53	82.6706	1,071.53	81.9739	1,071.53	82.201	1,071.53	81.4862	1,071.53	81.655	1,071.53	81.0058	1,071.53	81.1197	1,071.53	80.369	1,071.53	80.5807	1,071.53	79.3185	1,071.53	79.8728	1,071.53	77.6764	1,071.53	78.7723	1,071.53	75.6814	1,071.53	77.2133	1,071.53	74.447	1,071.53	75.6273	1,071.53	74.4516	1,071.53	74.837	1,071.53	74.0384	1,071.53	74.5743	1,071.53	71.5927	1,071.53	73.5556	1,071.53	66.2954	1,071.53	70.648	1,071.53	67.7705	1,071.53	64.8385	1,071.53	72.1324	1,071.53	65.6437	1,071.53	73.6136	1,071.53	70.7152	1,071.53	73.0911
1,109.62	83.2351	1,109.62	82.9831	1,109.62	83.235	1,109.62	82.4915	1,109.62	82.9847	1,109.62	81.8045	1,109.62	82.5002	1,109.62	81.0148	1,109.62	81.828	1,109.62	80.2361	1,109.62	81.0629	1,109.62	79.4934	1,109.62	80.3099	1,109.62	78.6293	1,109.62	79.5322	1,109.62	77.4016	1,109.62	78.4569	1,109.62	75.8068	1,109.62	76.8201	1,109.62	74.5073	1,109.62	74.9901	1,109.62	74.1921	1,109.62	74.2525	1,109.62	73.9269	1,109.62	74.4059	1,109.62	72.1928	1,109.62	73.6849	1,109.62	67.3195	1,109.62	70.9264	1,109.62	63.065	1,109.62	64.8454	1,109.62	70.1404	1,109.62	63.037	1,109.62	72.9205	1,109.62	69.5701	1,109.62	72.6059
1,148.44	82.905	1,148.44	82.6349	1,148.44	82.901	1,148.44	82.1066	1,148.44	82.6375	1,148.44	81.3677	1,148.44	82.1429	1,148.44	80.4852	1,148.44	81.4481	1,148.44	79.5324	1,148.44	80.6026	1,148.44	78.5692	1,148.44	79.6863	1,148.44	77.5979	1,148.44	78.7571	1,148.44	76.5308	1,148.44	77.7684	1,148.44	75.2678	1,148.44	76.5967	1,148.44	73.94	1,148.44	75.256	1,148.44	72.9725	1,148.44	74.184	1,148.44	72.176	1,148.44	73.7052	1,148.44	70.2066	1,148.44	72.8734	1,148.44	65.0757	1,148.44	70.1166	1,148.44	62.6592	1,148.44	63.2689	1,148.44	68.7952	1,148.44	62.6072	1,148.44	71.1609	1,148.44	68.8109	1,148.44	71.105
1,189.45	82.8976	1,189.45	82.5761	1,189.45	82.9034	1,189.45	81.9658	1,189.45	82.6122	1,189.45	81.1507	1,189.45	82.068	1,189.45	80.2572	1,189.45	81.3297	1,189.45	79.3924	1,189.45	80.482	1,189.45	78.5423	1,189.45	79.6276	1,189.45	77.5259	1,189.45	78.7777	1,189.45	76.1129	1,189.45	77.733	1,189.45	74.3754	1,189.45	76.2381	1,189.45	73.2827	1,189.45	74.544	1,189.45	73.5497	1,189.45	73.856	1,189.45	73.6459	1,189.45	74.2625	1,189.45	71.9588	1,189.45	74.1124	1,189.45	66.8277	1,189.45	72.2213	1,189.45	57.8024	1,189.45	67.0627	1,189.45	67.3379	1,189.45	60.9806	1,189.45	71.0098	1,189.45	68.7854	1,189.45	71.4969
1,231.2	83.1513	1,231.2	82.8779	1,231.2	83.1132	1,231.2	82.3138	1,231.2	82.7608	1,231.2	81.4976	1,231.2	82.1192	1,231.2	80.4972	1,231.2	81.2492	1,231.2	79.4216	1,231.2	80.2566	1,231.2	78.3632	1,231.2	79.2962	1,231.2	77.2366	1,231.2	78.457	1,231.2	75.7517	1,231.2	77.526	1,231.2	73.7858	1,231.2	76.0791	1,231.2	72.2593	1,231.2	74.133	1,231.2	72.4731	1,231.2	73.0443	1,231.2	72.8585	1,231.2	73.4601	1,231.2	71.3294	1,231.2	73.4021	1,231.2	65.4767	1,231.2	71.2548	1,231.2	57.2295	1,231.2	64.4557	1,231.2	68.7568	1,231.2	60.5294	1,231.2	71.9016	1,231.2	69.4849	1,231.2	72.0755
1,274.41	84.5519	1,274.41	84.3085	1,274.41	84.4812	1,274.41	83.7287	1,274.41	84.1219	1,274.41	82.8028	1,274.41	83.4888	1,274.41	81.5643	1,274.41	82.5703	1,274.41	80.1831	1,274.41	81.3679	1,274.41	79.0197	1,274.41	80.0413	1,274.41	78.258	1,274.41	78.9928	1,274.41	77.4522	1,274.41	78.3656	1,274.41	75.9606	1,274.41	77.5354	1,274.41	73.8405	1,274.41	75.7966	1,274.41	73.107	1,274.41	73.666	1,274.41	74.3989	1,274.41	73.7842	1,274.41	74.798	1,274.41	74.9415	1,274.41	72.4523	1,274.41	74.2471	1,274.41	63.4956	1,274.41	70.2957	1,274.41	63.4685	1,274.41	56.5624	1,274.41	70.4921	1,274.41	65.1904	1,274.41	70.5763
1,319.82	84.2221	1,319.82	83.9801	1,319.82	84.2151	1,319.82	83.5284	1,319.82	83.9346	1,319.82	82.8825	1,319.82	83.4101	1,319.82	82.0094	1,319.82	82.6928	1,319.82	80.8415	1,319.82	81.7467	1,319.82	79.4186	1,319.82	80.4562	1,319.82	78.0949	1,319.82	78.8928	1,319.82	77.2164	1,319.82	77.5374	1,319.82	76.3217	1,319.82	76.5856	1,319.82	74.5859	1,319.82	75.2888	1,319.82	72.3446	1,319.82	73.2188	1,319.82	72.265	1,319.82	72.3088	1,319.82	73.1858	1,319.82	73.622	1,319.82	71.9487	1,319.82	73.8471	1,319.82	66.2727	1,319.82	71.1264	1,319.82	59.7188	1,319.82	62.633	1,319.82	67.9947	1,319.82	63.1811	1,319.82	68.7199
1,365.97	84.2616	1,365.97	84.009	1,365.97	84.2178	1,365.97	83.4957	1,365.97	83.8722	1,365.97	82.7794	1,365.97	83.2671	1,365.97	81.9082	1,365.97	82.4804	1,365.97	80.8618	1,365.97	81.5384	1,365.97	79.5877	1,365.97	80.3627	1,365.97	78.2037	1,365.97	78.8929	1,365.97	77.0563	1,365.97	77.3065	1,365.97	76.1776	1,365.97	76.0285	1,365.97	75.0215	1,365.97	75.0972	1,365.97	73.3277	1,365.97	73.8337	1,365.97	72.1319	1,365.97	72.2109	1,365.97	72.3298	1,365.97	71.97	1,365.97	71.9713	1,365.97	72.3185	1,365.97	69.052	1,365.97	70.824	1,365.97	65.0245	1,365.97	66.873	1,365.97	67.7552	1,365.97	66.2745	1,365.97	68.7061
1,414.31	83.8398	1,414.31	83.508	1,414.31	83.8219	1,414.31	82.8529	1,414.31	83.4333	1,414.31	81.929	1,414.31	82.6614	1,414.31	80.8332	1,414.31	81.5584	1,414.31	79.7173	1,414.31	80.2874	1,414.31	78.6672	1,414.31	79.077	1,414.31	77.4528	1,414.31	78.006	1,414.31	75.6818	1,414.31	76.7823	1,414.31	73.6352	1,414.31	75.0234	1,414.31	73.0489	1,414.31	73.1232	1,414.31	73.5221	1,414.31	72.3605	1,414.31	72.6352	1,414.31	72.0834	1,414.31	69.0285	1,414.31	70.9828	1,414.31	62.1668	1,414.31	68.9333	1,414.31	65.3352	1,414.31	65.1263	1,414.31	69.4251	1,414.31	62.8395	1,414.31	70.9777	1,414.31	68.1303	1,414.31	70.7334
1,464.11	83.148	1,464.11	82.8499	1,464.11	83.1261	1,464.11	82.2515	1,464.11	82.7913	1,464.11	81.366	1,464.11	82.1686	1,464.11	80.184	1,464.11	81.275	1,464.11	78.7523	1,464.11	80.0905	1,464.11	77.3092	1,464.11	78.5916	1,464.11	76.208	1,464.11	77.0026	1,464.11	75.2984	1,464.11	75.8625	1,464.11	73.7383	1,464.11	75.0346	1,464.11	71.2612	1,464.11	73.4823	1,464.11	70.7136	1,464.11	70.926	1,464.11	72.1817	1,464.11	69.9485	1,464.11	71.7754	1,464.11	70.9974	1,464.11	67.7687	1,464.11	70.7005	1,464.11	50.472	1,464.11	67.1286	1,464.11	65.0916	1,464.11	49.8059	1,464.11	69.9539	1,464.11	65.0762	1,464.11	70.0072
1,515.38	82.5973	1,515.38	82.264	1,515.38	82.5938	1,515.38	81.6608	1,515.38	82.2408	1,515.38	80.8243	1,515.38	81.5822	1,515.38	79.702	1,515.38	80.687	1,515.38	78.2341	1,515.38	79.5875	1,515.38	76.538	1,515.38	78.2164	1,515.38	75.1059	1,515.38	76.5889	1,515.38	74.4036	1,515.38	75.1509	1,515.38	73.6746	1,515.38	74.2477	1,515.38	71.5736	1,515.38	73.0693	1,515.38	69.0677	1,515.38	70.8013	1,515.38	70.3892	1,515.38	69.3476	1,515.38	71.5776	1,515.38	70.8075	1,515.38	69.9274	1,515.38	71.5368	1,515.38	63.6524	1,515.38	69.4482	1,515.38	55.4318	1,515.38	61.3414	1,515.38	65.1313	1,515.38	58.1119	1,515.38	65.8654
1,568.85	81.8183	1,568.85	81.4864	1,568.85	81.7984	1,568.85	80.8494	1,568.85	81.3897	1,568.85	79.9257	1,568.85	80.5592	1,568.85	78.6924	1,568.85	79.3653	1,568.85	77.2003	1,568.85	78.052	1,568.85	75.6172	1,568.85	76.7867	1,568.85	74.1066	1,568.85	75.4342	1,568.85	72.9762	1,568.85	74.0312	1,568.85	72.284	1,568.85	72.8928	1,568.85	70.8881	1,568.85	71.7722	1,568.85	68.2484	1,568.85	69.9798	1,568.85	67.8203	1,568.85	67.8679	1,568.85	69.5883	1,568.85	68.0844	1,568.85	68.8082	1,568.85	69.6621	1,568.85	63.2397	1,568.85	68.6339	1,568.85	43.7273	1,568.85	61.4856	1,568.85	61.1998	1,568.85	55.6879	1,568.85	62.8673
1,624.51	80.661	1,624.51	80.3854	1,624.51	80.5884	1,624.51	79.7512	1,624.51	80.1781	1,624.51	78.7253	1,624.51	79.4487	1,624.51	77.418	1,624.51	78.3205	1,624.51	76.137	1,624.51	76.7539	1,624.51	75.0285	1,624.51	75.0255	1,624.51	73.8047	1,624.51	73.5077	1,624.51	72.1837	1,624.51	72.2753	1,624.51	70.4303	1,624.51	71.2946	1,624.51	68.8857	1,624.51	70.126	1,624.51	67.3899	1,624.51	68.2256	1,624.51	67.2539	1,624.51	66.6007	1,624.51	68.8317	1,624.51	66.8456	1,624.51	68.4521	1,624.51	67.4382	1,624.51	63.9748	1,624.51	66.3391	1,624.51	48.4552	1,624.51	61.7285	1,624.51	55.8789	1,624.51	42.5071	1,624.51	56.2864
1,681.64	79.6496	1,681.64	79.1836	1,681.64	79.6618	1,681.64	78.4025	1,681.64	79.1897	1,681.64	77.3892	1,681.64	78.4337	1,681.64	76.1755	1,681.64	77.5396	1,681.64	74.7731	1,681.64	76.2857	1,681.64	73.1899	1,681.64	74.5359	1,681.64	71.684	1,681.64	72.6788	1,681.64	70.996	1,681.64	71.205	1,681.64	71.0502	1,681.64	70.0931	1,681.64	70.3051	1,681.64	69.0598	1,681.64	67.582	1,681.64	67.6103	1,681.64	65.205	1,681.64	65.6492	1,681.64	66.2245	1,681.64	66.174	1,681.64	65.8595	1,681.64	67.3533	1,681.64	61.961	1,681.64	65.7958	1,681.64	54.1171	1,681.64	60.7781	1,681.64	61.1221	1,681.64	50.5009	1,681.64	60.6241
1,740.97	79.2893	1,740.97	78.8604	1,740.97	79.313	1,740.97	78.0788	1,740.97	78.9418	1,740.97	77.1208	1,740.97	78.2007	1,740.97	76.0449	1,740.97	77.2431	1,740.97	74.6261	1,740.97	76.2532	1,740.97	72.6871	1,740.97	75.1273	1,740.97	70.4672	1,740.97	73.6101	1,740.97	68.8387	1,740.97	71.8193	1,740.97	68.7686	1,740.97	70.4726	1,740.97	68.9584	1,740.97	70.1224	1,740.97	67.6531	1,740.97	69.8378	1,740.97	65.8441	1,740.97	68.2584	1,740.97	66.7425	1,740.97	66.7317	1,740.97	66.738	1,740.97	67.8564	1,740.97	62.6197	1,740.97	68.1333	1,740.97	53.1006	1,740.97	65.2208	1,740.97	55.5932	1,740.97	56.5082	1,740.97	53.0398
1,802.49	80.2502	1,802.49	79.8826	1,802.49	80.2349	1,802.49	79.117	1,802.49	79.8667	1,802.49	78.0125	1,802.49	79.1281	1,802.49	76.6487	1,802.49	78.0176	1,802.49	75.1211	1,802.49	76.6755	1,802.49	73.5826	1,802.49	75.3682	1,802.49	71.9558	1,802.49	74.1425	1,802.49	69.9618	1,802.49	72.7359	1,802.49	68.4615	1,802.49	71.3376	1,802.49	68.3623	1,802.49	70.5706	1,802.49	67.8989	1,802.49	69.731	1,802.49	67.392	1,802.49	68.1733	1,802.49	68.6064	1,802.49	67.9257	1,802.49	68.842	1,802.49	69.3294	1,802.49	66.4508	1,802.49	69.383	1,802.49	60.5903	1,802.49	67.08	1,802.49	59.7108	1,802.49	62.7399	1,802.49	61.5937
1,866.21	80.7005	1,866.21	80.3722	1,866.21	80.6295	1,866.21	79.6492	1,866.21	80.1585	1,866.21	78.5513	1,866.21	79.318	1,866.21	77.2108	1,866.21	78.1679	1,866.21	75.8135	1,866.21	76.8116	1,866.21	74.4054	1,866.21	75.3722	1,866.21	72.9553	1,866.21	73.8927	1,866.21	71.4334	1,866.21	72.2764	1,866.21	70.0192	1,866.21	70.522	1,866.21	69.2491	1,866.21	69.3989	1,866.21	68.2738	1,866.21	69.1942	1,866.21	66.6112	1,866.21	68.1868	1,866.21	67.8075	1,866.21	67.0232	1,866.21	69.1777	1,866.21	68.5762	1,866.21	67.6637	1,866.21	68.9656	1,866.21	63.6999	1,866.21	66.5079	1,866.21	62.3927	1,866.21	62.9962	1,866.21	62.8517
1,932.13	80.4114	1,932.13	80.1099	1,932.13	80.3887	1,932.13	79.4035	1,932.13	80.0746	1,932.13	78.3136	1,932.13	79.3858	1,932.13	77.0365	1,932.13	78.2151	1,932.13	75.7313	1,932.13	76.7264	1,932.13	74.3032	1,932.13	75.3315	1,932.13	72.7267	1,932.13	73.9739	1,932.13	71.3365	1,932.13	72.2736	1,932.13	70.2761	1,932.13	70.5599	1,932.13	69.4303	1,932.13	69.3266	1,932.13	68.5811	1,932.13	68.2377	1,932.13	67.2706	1,932.13	67.0572	1,932.13	67.2964	1,932.13	66.2805	1,932.13	68.2939	1,932.13	67.3377	1,932.13	66.6866	1,932.13	68.1607	1,932.13	63.4238	1,932.13	65.9761	1,932.13	64.3459	1,932.13	61.7197	1,932.13	63.426
2,000.24	81.2519	2,000.24	80.7936	2,000.24	81.2867	2,000.24	79.9079	2,000.24	80.958	2,000.24	78.7014	2,000.24	80.2699	2,000.24	77.2776	2,000.24	79.2257	2,000.24	75.6744	2,000.24	77.9075	2,000.24	73.9518	2,000.24	76.4	2,000.24	72.1856	2,000.24	74.8272	2,000.24	70.4555	2,000.24	73.3753	2,000.24	69.4596	2,000.24	71.7977	2,000.24	69.2209	2,000.24	69.937	2,000.24	67.9539	2,000.24	68.9225	2,000.24	66.344	2,000.24	68.3491	2,000.24	67.3843	2,000.24	67.4193	2,000.24	67.736	2,000.24	68.5149	2,000.24	65.4473	2,000.24	69.3396	2,000.24	63.6983	2,000.24	67.8344	2,000.24	65.307	2,000.24	65.6515	2,000.24	65.4496
2,070.56	82.4415	2,070.56	81.9561	2,070.56	82.4203	2,070.56	81.0282	2,070.56	81.9003	2,070.56	79.8046	2,070.56	80.9553	2,070.56	78.4096	2,070.56	79.7271	2,070.56	76.8729	2,070.56	78.316	2,070.56	75.1488	2,070.56	76.7873	2,070.56	73.2491	2,070.56	75.1578	2,070.56	71.2314	2,070.56	73.4304	2,070.56	69.1444	2,070.56	72.0341	2,070.56	68.2253	2,070.56	71.079	2,070.56	68.0546	2,070.56	69.8565	2,070.56	66.3616	2,070.56	68.5411	2,070.56	67.3344	2,070.56	67.6631	2,070.56	68.8818	2,070.56	68.0896	2,070.56	66.009	2,070.56	68.5606	2,070.56	60.7704	2,070.56	66.2396	2,070.56	64.387	2,070.56	64.9384	2,070.56	66.32
2,143.8	82.408	2,143.8	82.028	2,143.8	82.3806	2,143.8	81.2436	2,143.8	81.9123	2,143.8	80.1653	2,143.8	80.8389	2,143.8	78.8548	2,143.8	79.3061	2,143.8	77.3787	2,143.8	77.7216	2,143.8	75.8084	2,143.8	75.8595	2,143.8	74.0052	2,143.8	73.7116	2,143.8	72.1307	2,143.8	72.2956	2,143.8	70.8192	2,143.8	71.0261	2,143.8	69.6204	2,143.8	69.3814	2,143.8	68.3508	2,143.8	68.6484	2,143.8	67.4592	2,143.8	67.0333	2,143.8	67.3722	2,143.8	66.438	2,143.8	68.8666	2,143.8	68.854	2,143.8	68.1491	2,143.8	68.6978	2,143.8	64.4402	2,143.8	65.5426	2,143.8	65.9477	2,143.8	63.4077	2,143.8	65.9301
2,219.24	82.0774	2,219.24	81.6277	2,219.24	81.9584	2,219.24	80.7175	2,219.24	81.4447	2,219.24	79.4994	2,219.24	80.67	2,219.24	77.8202	2,219.24	79.3871	2,219.24	75.9473	2,219.24	77.4632	2,219.24	74.8678	2,219.24	75.5474	2,219.24	73.9169	2,219.24	74.1193	2,219.24	71.9608	2,219.24	72.294	2,219.24	70.4023	2,219.24	69.8382	2,219.24	70.0668	2,219.24	68.1706	2,219.24	69.0185	2,219.24	68.2739	2,219.24	67.2218	2,219.24	67.5522	2,219.24	67.4957	2,219.24	64.3298	2,219.24	68.7865	2,219.24	67.6695	2,219.24	67.0773	2,219.24	68.918	2,219.24	63.907	2,219.24	64.9174	2,219.24	66.2507	2,219.24	62.4366	2,219.24	65.5458
2,297.61	82.9626	2,297.61	82.2975	2,297.61	83.0025	2,297.61	81.1597	2,297.61	82.4363	2,297.61	79.8407	2,297.61	81.5054	2,297.61	78.3183	2,297.61	80.476	2,297.61	76.215	2,297.61	79.0507	2,297.61	73.6956	2,297.61	76.8516	2,297.61	71.8961	2,297.61	74.5707	2,297.61	71.0096	2,297.61	73.4159	2,297.61	69.4764	2,297.61	72.7134	2,297.61	67.7632	2,297.61	71.0194	2,297.61	68.0797	2,297.61	68.9038	2,297.61	67.0145	2,297.61	68.8226	2,297.61	65.6694	2,297.61	67.3741	2,297.61	69.5625	2,297.61	65.8947	2,297.61	68.7987	2,297.61	69.1286	2,297.61	63.0303	2,297.61	68.3052	2,297.61	66.0465	2,297.61	63.182	2,297.61	65.4606
2,378.17	83.3428	2,378.17	82.8728	2,378.17	83.2828	2,378.17	81.9412	2,378.17	82.5608	2,378.17	80.6174	2,378.17	81.429	2,378.17	79.0855	2,378.17	80.4574	2,378.17	77.4806	2,378.17	79.3524	2,378.17	75.7821	2,378.17	77.4131	2,378.17	73.8708	2,378.17	74.9475	2,378.17	71.5602	2,378.17	72.8669	2,378.17	69.9177	2,378.17	71.4486	2,378.17	68.9975	2,378.17	70.4199	2,378.17	67.4141	2,378.17	69.2673	2,378.17	67.0379	2,378.17	68.5542	2,378.17	66.0341	2,378.17	67.6392	2,378.17	66.3479	2,378.17	67.205	2,378.17	66.7891	2,378.17	69.1591	2,378.17	62.4338	2,378.17	68.4475	2,378.17	65.734	2,378.17	66.9697	2,378.17	67.6032
2,462.4	82.85	2,462.4	82.4288	2,462.4	82.7396	2,462.4	81.4562	2,462.4	82.0847	2,462.4	80.1714	2,462.4	80.8312	2,462.4	78.7509	2,462.4	79.2768	2,462.4	77.1225	2,462.4	77.685	2,462.4	75.3963	2,462.4	75.9641	2,462.4	73.8375	2,462.4	74.2056	2,462.4	72.4807	2,462.4	72.2502	2,462.4	71.061	2,462.4	69.8674	2,462.4	69.3053	2,462.4	68.1564	2,462.4	68.5659	2,462.4	67.033	2,462.4	68.2605	2,462.4	66.6348	2,462.4	67.2338	2,462.4	66.3215	2,462.4	68.0804	2,462.4	64.6637	2,462.4	67.4442	2,462.4	67.0421	2,462.4	63.8481	2,462.4	66.7236	2,462.4	64.7039	2,462.4	62.6495	2,462.4	66.0225
2,548.83	82.3563	2,548.83	81.8445	2,548.83	82.3348	2,548.83	80.7862	2,548.83	81.7659	2,548.83	79.2676	2,548.83	80.7019	2,548.83	77.6123	2,548.83	79.3004	2,548.83	75.9058	2,548.83	77.7615	2,548.83	74.0975	2,548.83	76.0356	2,548.83	72.4969	2,548.83	74.048	2,548.83	70.9708	2,548.83	72.2757	2,548.83	69.6592	2,548.83	70.6428	2,548.83	68.5449	2,548.83	68.7881	2,548.83	66.8506	2,548.83	67.5778	2,548.83	66.3214	2,548.83	66.1215	2,548.83	65.6726	2,548.83	65.8794	2,548.83	67.0927	2,548.83	66.2609	2,548.83	68.1902	2,548.83	66.8773	2,548.83	65.3526	2,548.83	67.4898	2,548.83	66.5286	2,548.83	63.925	2,548.83	65.3832
2,638.92	81.6321	2,638.92	81.1397	2,638.92	81.6748	2,638.92	80.187	2,638.92	81.1988	2,638.92	78.7382	2,638.92	80.1909	2,638.92	77.0897	2,638.92	78.7688	2,638.92	75.4695	2,638.92	77.1614	2,638.92	73.5572	2,638.92	75.5417	2,638.92	71.5752	2,638.92	74.0061	2,638.92	69.9348	2,638.92	72.5672	2,638.92	68.2527	2,638.92	70.8525	2,638.92	66.961	2,638.92	68.9407	2,638.92	65.7789	2,638.92	67.5732	2,638.92	64.7101	2,638.92	66.5515	2,638.92	64.5471	2,638.92	65.7894	2,638.92	65.7199	2,638.92	65.4628	2,638.92	65.8575	2,638.92	66.8282	2,638.92	61.8503	2,638.92	66.4296	2,638.92	61.7011	2,638.92	63.3184	2,638.92	63.5892
2,731.93	81.1007	2,731.93	80.6313	2,731.93	81.0559	2,731.93	79.7208	2,731.93	80.5227	2,731.93	78.338	2,731.93	79.5904	2,731.93	76.7547	2,731.93	78.1134	2,731.93	75.2185	2,731.93	76.305	2,731.93	73.4403	2,731.93	74.6683	2,731.93	71.6095	2,731.93	72.9024	2,731.93	69.9814	2,731.93	71.2952	2,731.93	67.9218	2,731.93	70.0581	2,731.93	66.6846	2,731.93	67.7696	2,731.93	65.6552	2,731.93	66.4296	2,731.93	64.5866	2,731.93	65.5544	2,731.93	64.608	2,731.93	64.2569	2,731.93	65.3662	2,731.93	65.9855	2,731.93	66.486	2,731.93	66.66	2,731.93	63.712	2,731.93	66.2348	2,731.93	64.8711	2,731.93	62.3721	2,731.93	63.8022
2,828.61	81.4597	2,828.61	80.9097	2,828.61	81.3673	2,828.61	79.7745	2,828.61	80.7114	2,828.61	78.3361	2,828.61	79.6283	2,828.61	76.6881	2,828.61	78.2021	2,828.61	74.9254	2,828.61	76.4081	2,828.61	73.2269	2,828.61	74.6448	2,828.61	71.426	2,828.61	73.0539	2,828.61	69.989	2,828.61	71.1963	2,828.61	68.3078	2,828.61	69.5877	2,828.61	66.0266	2,828.61	68.3065	2,828.61	65.746	2,828.61	66.4977	2,828.61	64.8944	2,828.61	65.9086	2,828.61	65.0311	2,828.61	65.0976	2,828.61	65.5161	2,828.61	63.7753	2,828.61	65.3813	2,828.61	66.0747	2,828.61	62.7335	2,828.61	66.1031	2,828.61	62.0915	2,828.61	63.6576	2,828.61	64.4192
2,928.22	81.5155	2,928.22	80.989	2,928.22	81.4288	2,928.22	79.9259	2,928.22	80.7622	2,928.22	78.5662	2,928.22	79.6695	2,928.22	76.9381	2,928.22	78.2829	2,928.22	75.1585	2,928.22	76.6046	2,928.22	73.6519	2,928.22	74.781	2,928.22	72.0908	2,928.22	72.9125	2,928.22	70.3923	2,928.22	71.0402	2,928.22	68.9085	2,928.22	69.5568	2,928.22	67.1548	2,928.22	68.2137	2,928.22	66.0399	2,928.22	66.889	2,928.22	65.8107	2,928.22	66.3412	2,928.22	65.5322	2,928.22	65.5223	2,928.22	66.4653	2,928.22	65.2714	2,928.22	67.1177	2,928.22	65.3199	2,928.22	65.3146	2,928.22	66.6956	2,928.22	65.6346	2,928.22	65.0926	2,928.22	65.0343
3,031.49	80.9379	3,031.49	80.477	3,031.49	80.9143	3,031.49	79.3894	3,031.49	80.3866	3,031.49	78.0029	3,031.49	79.2115	3,031.49	76.5651	3,031.49	77.7511	3,031.49	74.8076	3,031.49	76.2868	3,031.49	72.8706	3,031.49	74.4954	3,031.49	71.3036	3,031.49	72.7276	3,031.49	70.0412	3,031.49	71.5234	3,031.49	68.6968	3,031.49	69.8794	3,031.49	67.1868	3,031.49	67.9712	3,031.49	65.8122	3,031.49	66.2164	3,031.49	64.9467	3,031.49	65.0499	3,031.49	65.0911	3,031.49	65.3109	3,031.49	66.3083	3,031.49	63.6288	3,031.49	66.9472	3,031.49	64.8987	3,031.49	64.4762	3,031.49	66.2802	3,031.49	63.2531	3,031.49	64.6325	3,031.49	65.1626
3,138.43	81.1407	3,138.43	80.6799	3,138.43	81.0329	3,138.43	79.6368	3,138.43	80.4351	3,138.43	78.4012	3,138.43	79.3895	3,138.43	76.968	3,138.43	78.126	3,138.43	75.2268	3,138.43	76.6554	3,138.43	73.2815	3,138.43	74.9973	3,138.43	71.2462	3,138.43	73.2032	3,138.43	69.6914	3,138.43	71.3852	3,138.43	68.1523	3,138.43	69.8785	3,138.43	66.5387	3,138.43	68.3512	3,138.43	65.338	3,138.43	66.6661	3,138.43	63.9225	3,138.43	65.3366	3,138.43	63.7437	3,138.43	64.1113	3,138.43	64.4371	3,138.43	64.8778	3,138.43	66.4069	3,138.43	65.1108	3,138.43	64.6651	3,138.43	66.381	3,138.43	64.5459	3,138.43	64.672	3,138.43	64.177
3,249.02	80.7841	3,249.02	80.3484	3,249.02	80.7162	3,249.02	79.4384	3,249.02	80.2327	3,249.02	78.339	3,249.02	79.3997	3,249.02	77.095	3,249.02	78.1712	3,249.02	75.6517	3,249.02	76.7584	3,249.02	74.0301	3,249.02	75.3237	3,249.02	72.0741	3,249.02	73.499	3,249.02	70.112	3,249.02	71.7222	3,249.02	68.726	3,249.02	70.2818	3,249.02	67.2458	3,249.02	68.5559	3,249.02	66.2798	3,249.02	66.9066	3,249.02	65.1331	3,249.02	65.8291	3,249.02	64.2109	3,249.02	65.2042	3,249.02	65.1087	3,249.02	64.2789	3,249.02	66.3922	3,249.02	65.275	3,249.02	65.507	3,249.02	67.1052	3,249.02	63.5288	3,249.02	65.3442	3,249.02	65.1154
3,363.28	79.9886	3,363.28	79.5562	3,363.28	80.0151	3,363.28	78.8776	3,363.28	79.6279	3,363.28	77.9761	3,363.28	78.9496	3,363.28	76.9069	3,363.28	77.9512	3,363.28	75.7578	3,363.28	76.8435	3,363.28	74.3302	3,363.28	75.4013	3,363.28	72.4354	3,363.28	73.6903	3,363.28	70.3779	3,363.28	71.8686	3,363.28	68.6952	3,363.28	69.6818	3,363.28	67.2219	3,363.28	67.9355	3,363.28	66.1446	3,363.28	66.4669	3,363.28	65.5309	3,363.28	65.6628	3,363.28	65.2216	3,363.28	65.1698	3,363.28	64.9959	3,363.28	64.4007	3,363.28	65.8686	3,363.28	63.8078	3,363.28	64.7309	3,363.28	65.6102	3,363.28	64.4023	3,363.28	64.4772	3,363.28	64.0582
3,481.93	80.6194	3,481.93	80.2737	3,481.93	80.5767	3,481.93	79.554	3,481.93	80.3271	3,481.93	78.7786	3,481.93	79.7536	3,481.93	77.7713	3,481.93	79.0022	3,481.93	76.4133	3,481.93	77.9987	3,481.93	74.6817	3,481.93	76.636	3,481.93	72.7304	3,481.93	75.0929	3,481.93	70.8169	3,481.93	73.0547	3,481.93	68.8387	3,481.93	71.0035	3,481.93	67.016	3,481.93	69.2149	3,481.93	65.9662	3,481.93	67.3086	3,481.93	65.0522	3,481.93	66.5459	3,481.93	64.6554	3,481.93	66.034	3,481.93	64.7963	3,481.93	65.2657	3,481.93	65.6779	3,481.93	65.289	3,481.93	64.6419	3,481.93	66.1082	3,481.93	63.3653	3,481.93	65.2572	3,481.93	63.8368
3,604.98	80.7769	3,604.98	80.5958	3,604.98	80.8061	3,604.98	80.1726	3,604.98	80.5377	3,604.98	79.5688	3,604.98	80.0044	3,604.98	78.596	3,604.98	79.4992	3,604.98	77.2322	3,604.98	78.4318	3,604.98	75.6905	3,604.98	76.7823	3,604.98	73.6089	3,604.98	74.8678	3,604.98	71.1727	3,604.98	72.9699	3,604.98	69.4863	3,604.98	71.0818	3,604.98	67.3403	3,604.98	68.9886	3,604.98	65.7004	3,604.98	67.0426	3,604.98	64.6918	3,604.98	65.6762	3,604.98	64.0906	3,604.98	65.55	3,604.98	65.6872	3,604.98	65.274	3,604.98	66.0717	3,604.98	64.5127	3,604.98	64.1527	3,604.98	65.9026	3,604.98	60.6183	3,604.98	64.0374	3,604.98	63.3889
3,732.42	81.115	3,732.42	81.0033	3,732.42	81.159	3,732.42	80.7659	3,732.42	81.0452	3,732.42	80.0458	3,732.42	80.8445	3,732.42	78.8035	3,732.42	79.9834	3,732.42	77.1471	3,732.42	78.669	3,732.42	75.349	3,732.42	76.9829	3,732.42	73.4166	3,732.42	74.8467	3,732.42	71.0361	3,732.42	72.8702	3,732.42	69.0956	3,732.42	70.6463	3,732.42	67.6791	3,732.42	69.0857	3,732.42	66.5534	3,732.42	67.6768	3,732.42	65.7322	3,732.42	65.7206	3,732.42	64.0692	3,732.42	63.9916	3,732.42	65.1313	3,732.42	64.0962	3,732.42	66.2513	3,732.42	64.8959	3,732.42	63.9323	3,732.42	66.1341	3,732.42	61.5793	3,732.42	63.7472	3,732.42	61.6847
3,863.53	81.866	3,863.53	81.725	3,863.53	81.8145	3,863.53	81.3693	3,863.53	81.7938	3,863.53	80.5065	3,863.53	81.4348	3,863.53	79.2033	3,863.53	80.3323	3,863.53	77.3556	3,863.53	78.9685	3,863.53	74.9189	3,863.53	77.0633	3,863.53	72.9073	3,863.53	74.8928	3,863.53	70.6223	3,863.53	72.4641	3,863.53	68.0804	3,863.53	69.7294	3,863.53	66.9632	3,863.53	68.0384	3,863.53	65.5402	3,863.53	67.0349	3,863.53	64.9683	3,863.53	66.4282	3,863.53	64.3837	3,863.53	65.0782	3,863.53	63.9714	3,863.53	64.4911	3,863.53	65.5132	3,863.53	66.1486	3,863.53	65.4301	3,863.53	66.4181	3,863.53	63.4337	3,863.53	63.5653	3,863.53	61.4332
3,999.76	81.9847	3,999.76	81.797	3,999.76	82.0169	3,999.76	81.3127	3,999.76	81.8994	3,999.76	80.4328	3,999.76	81.3491	3,999.76	78.9848	3,999.76	80.4088	3,999.76	77.0431	3,999.76	78.8095	3,999.76	74.6541	3,999.76	76.7359	3,999.76	71.9608	3,999.76	74.3355	3,999.76	69.6903	3,999.76	71.9677	3,999.76	67.9496	3,999.76	69.9187	3,999.76	66.2159	3,999.76	67.416	3,999.76	65.5302	3,999.76	65.383	3,999.76	64.8447	3,999.76	64.6468	3,999.76	64.5885	3,999.76	65.0249	3,999.76	64.4796	3,999.76	65.0482	3,999.76	65.8307	3,999.76	64.8756	3,999.76	64.9415	3,999.76	65.6675	3,999.76	62.5205	3,999.76	64.6494	3,999.76	61.778
4,141.11	81.9431	4,141.11	81.68	4,141.11	81.9989	4,141.11	81.2836	4,141.11	81.6292	4,141.11	80.3753	4,141.11	81.0682	4,141.11	78.8603	4,141.11	79.8954	4,141.11	76.8536	4,141.11	78.2628	4,141.11	74.869	4,141.11	76.2736	4,141.11	72.2931	4,141.11	73.7618	4,141.11	69.406	4,141.11	71.1772	4,141.11	67.8568	4,141.11	68.5498	4,141.11	65.3221	4,141.11	67.8289	4,141.11	63.8971	4,141.11	65.8016	4,141.11	64.7889	4,141.11	63.2244	4,141.11	63.2091	4,141.11	63.3596	4,141.11	64.0353	4,141.11	65.0437	4,141.11	65.2496	4,141.11	64.9715	4,141.11	63.9298	4,141.11	64.8621	4,141.11	60.3354	4,141.11	63.0365	4,141.11	61.4513
4,286.87	81.8357	4,286.87	81.6301	4,286.87	81.78	4,286.87	81.3492	4,286.87	81.6882	4,286.87	80.3985	4,286.87	81.3157	4,286.87	78.5824	4,286.87	80.1771	4,286.87	76.1248	4,286.87	78.7274	4,286.87	73.1459	4,286.87	76.4976	4,286.87	71.2827	4,286.87	73.9406	4,286.87	69.699	4,286.87	71.9791	4,286.87	67.2851	4,286.87	69.836	4,286.87	67.0355	4,286.87	66.5834	4,286.87	63.9688	4,286.87	65.8621	4,286.87	63.7126	4,286.87	64.6141	4,286.87	64.2143	4,286.87	62.8074	4,286.87	64.533	4,286.87	62.1716	4,286.87	65.3414	4,286.87	64.9151	4,286.87	64.2426	4,286.87	64.9737	4,286.87	60.1923	4,286.87	64.1614	4,286.87	60.3096
4,438.48	81.3488	4,438.48	81.3114	4,438.48	81.3863	4,438.48	80.9529	4,438.48	81.4524	4,438.48	80.1128	4,438.48	80.9203	4,438.48	78.658	4,438.48	79.7599	4,438.48	76.7522	4,438.48	77.8689	4,438.48	74.5204	4,438.48	75.6734	4,438.48	71.9338	4,438.48	73.4526	4,438.48	69.8013	4,438.48	71.1297	4,438.48	67.8292	4,438.48	68.7912	4,438.48	64.8529	4,438.48	67.6031	4,438.48	63.8224	4,438.48	65.3495	4,438.48	61.7798	4,438.48	62.4525	4,438.48	62.3768	4,438.48	63.2037	4,438.48	62.8559	4,438.48	61.8085	4,438.48	64.0871	4,438.48	63.6232	4,438.48	64.5469	4,438.48	64.1222	4,438.48	61.2714	4,438.48	63.6899	4,438.48	59.8272
4,594.48	81.4021	4,594.48	81.3152	4,594.48	81.5268	4,594.48	81.0048	4,594.48	81.2497	4,594.48	79.7375	4,594.48	80.889	4,594.48	77.8992	4,594.48	79.7821	4,594.48	75.5994	4,594.48	77.8969	4,594.48	73.1947	4,594.48	75.6461	4,594.48	70.9465	4,594.48	73.3252	4,594.48	68.5931	4,594.48	71.1779	4,594.48	66.9559	4,594.48	69.1908	4,594.48	65.7864	4,594.48	67.1371	4,594.48	63.0475	4,594.48	65.9946	4,594.48	63.4614	4,594.48	63.4852	4,594.48	62.3815	4,594.48	63.6799	4,594.48	63.8422	4,594.48	60.9835	4,594.48	64.5321	4,594.48	62.132	4,594.48	62.8841	4,594.48	64.2072	4,594.48	55.6401	4,594.48	63.1301	4,594.48	57.4642
4,757.08	81.1437	4,757.08	80.9765	4,757.08	81.1484	4,757.08	80.6281	4,757.08	81.2277	4,757.08	79.8858	4,757.08	80.6996	4,757.08	78.0151	4,757.08	79.3918	4,757.08	75.8835	4,757.08	77.5209	4,757.08	73.87	4,757.08	75.5683	4,757.08	72.0123	4,757.08	73.1971	4,757.08	70.0991	4,757.08	70.9368	4,757.08	66.9973	4,757.08	69.1674	4,757.08	64.9939	4,757.08	66.3434	4,757.08	62.0485	4,757.08	65.397	4,757.08	60.5389	4,757.08	63.0948	4,757.08	60.5046	4,757.08	61.7897	4,757.08	62.434	4,757.08	62.8515	4,757.08	64.1297	4,757.08	62.747	4,757.08	65.6766	4,757.08	64.3563	4,757.08	59.9241	4,757.08	64.9222	4,757.08	59.9692
4,924.8	81.0604	4,924.8	81.0782	4,924.8	81.1416	4,924.8	80.6641	4,924.8	80.9364	4,924.8	79.5179	4,924.8	80.349	4,924.8	77.9079	4,924.8	79.1799	4,924.8	75.671	4,924.8	77.2711	4,924.8	73.1532	4,924.8	75.2867	4,924.8	70.6825	4,924.8	73.1826	4,924.8	67.8893	4,924.8	70.6135	4,924.8	66.0987	4,924.8	68.3754	4,924.8	65.2635	4,924.8	67.2082	4,924.8	64.8355	4,924.8	65.3015	4,924.8	62.9732	4,924.8	63.5256	4,924.8	62.4022	4,924.8	62.4935	4,924.8	63.0016	4,924.8	60.457	4,924.8	64.634	4,924.8	62.8102	4,924.8	63.9166	4,924.8	63.967	4,924.8	57.5105	4,924.8	63.3906	4,924.8	58.2105
5,098.39	80.618	5,098.39	80.5389	5,098.39	80.718	5,098.39	80.2116	5,098.39	80.8117	5,098.39	79.2071	5,098.39	80.4865	5,098.39	77.1113	5,098.39	79.2579	5,098.39	75.2309	5,098.39	77.7464	5,098.39	73.6612	5,098.39	75.9035	5,098.39	71.3874	5,098.39	73.3973	5,098.39	69.6333	5,098.39	71.0553	5,098.39	67.3026	5,098.39	69.2133	5,098.39	65.1858	5,098.39	66.6759	5,098.39	62.3005	5,098.39	65.2503	5,098.39	61.4783	5,098.39	63.0492	5,098.39	59.8599	5,098.39	61.7079	5,098.39	62.7536	5,098.39	62.3648	5,098.39	64.3333	5,098.39	63.2391	5,098.39	64.7678	5,098.39	65.485	5,098.39	55.6391	5,098.39	63.8628	5,098.39	55.8552
5,277.83	80.2527	5,277.83	80.5019	5,277.83	80.1974	5,277.83	80.3473	5,277.83	80.5813	5,277.83	79.7591	5,277.83	80.1223	5,277.83	78.1408	5,277.83	79.1102	5,277.83	76.1421	5,277.83	77.5038	5,277.83	73.9805	5,277.83	75.5187	5,277.83	71.8651	5,277.83	73.7001	5,277.83	69.0803	5,277.83	71.345	5,277.83	66.9119	5,277.83	68.9325	5,277.83	64.8616	5,277.83	66.8184	5,277.83	63.1416	5,277.83	64.1237	5,277.83	61.482	5,277.83	63.3119	5,277.83	60.2287	5,277.83	61.957	5,277.83	61.4455	5,277.83	61.0476	5,277.83	63.8702	5,277.83	61.6646	5,277.83	64.771	5,277.83	63.5648	5,277.83	58.2282	5,277.83	64.5744	5,277.83	57.7096
5,463.87	81.4861	5,463.87	81.7351	5,463.87	81.5518	5,463.87	81.6448	5,463.87	81.5553	5,463.87	80.4175	5,463.87	81.1843	5,463.87	78.4344	5,463.87	80.2316	5,463.87	76.4372	5,463.87	78.7539	5,463.87	74.2983	5,463.87	76.8376	5,463.87	71.8976	5,463.87	74.539	5,463.87	70.2547	5,463.87	72.1702	5,463.87	68.2738	5,463.87	70.0948	5,463.87	66.2176	5,463.87	67.8506	5,463.87	65.0739	5,463.87	66.1107	5,463.87	63.657	5,463.87	63.743	5,463.87	61.6101	5,463.87	62.6615	5,463.87	61.9385	5,463.87	61.9848	5,463.87	64.4497	5,463.87	63.4477	5,463.87	65.4984	5,463.87	65.0241	5,463.87	56.1331	5,463.87	63.703	5,463.87	54.0593
5,656.49	81.5926	5,656.49	81.8944	5,656.49	81.4625	5,656.49	81.658	5,656.49	81.8616	5,656.49	80.6785	5,656.49	81.4261	5,656.49	78.8755	5,656.49	80.439	5,656.49	77.3717	5,656.49	78.9855	5,656.49	75.7126	5,656.49	77.0422	5,656.49	73.6505	5,656.49	75.0995	5,656.49	70.9634	5,656.49	72.5412	5,656.49	68.9227	5,656.49	69.7778	5,656.49	66.1888	5,656.49	67.7821	5,656.49	63.1445	5,656.49	66.0684	5,656.49	62.416	5,656.49	64.9481	5,656.49	61.3925	5,656.49	63.3307	5,656.49	61.8583	5,656.49	62.8396	5,656.49	64.5456	5,656.49	61.4915	5,656.49	66.4238	5,656.49	64.8525	5,656.49	60.8528	5,656.49	64.7856	5,656.49	55.9811
5,856.45	81.7246	5,856.45	81.8855	5,856.45	81.9655	5,856.45	81.7967	5,856.45	81.9172	5,856.45	80.6729	5,856.45	81.5414	5,856.45	79.5515	5,856.45	80.7427	5,856.45	78.0675	5,856.45	79.2965	5,856.45	75.8617	5,856.45	77.7259	5,856.45	72.7535	5,856.45	75.4199	5,856.45	70.146	5,856.45	72.6442	5,856.45	67.7429	5,856.45	70.5413	5,856.45	66.3328	5,856.45	68.4182	5,856.45	65.2146	5,856.45	66.3398	5,856.45	63.8222	5,856.45	64.4832	5,856.45	62.4825	5,856.45	62.6834	5,856.45	62.3556	5,856.45	62.6777	5,856.45	63.7945	5,856.45	62.9768	5,856.45	65.014	5,856.45	63.867	5,856.45	59.8128	5,856.45	64.8456	5,856.45	58.2369
6,062.99	82.1643	6,062.99	82.1372	6,062.99	82.0344	6,062.99	81.5645	6,062.99	81.7659	6,062.99	80.6102	6,062.99	81.1987	6,062.99	79.3039	6,062.99	80.521	6,062.99	77.6915	6,062.99	79.1406	6,062.99	75.471	6,062.99	77.3059	6,062.99	72.7793	6,062.99	74.9632	6,062.99	69.946	6,062.99	71.9365	6,062.99	68.0022	6,062.99	68.9659	6,062.99	65.6188	6,062.99	67.3654	6,062.99	64.2651	6,062.99	65.0637	6,062.99	62.426	6,062.99	63.1649	6,062.99	62.7656	6,062.99	61.6791	6,062.99	61.5609	6,062.99	60.3669	6,062.99	63.3743	6,062.99	61.7639	6,062.99	64.832	6,062.99	61.6079	6,062.99	57.9844	6,062.99	63.5353	6,062.99	56.0922
6,276.86	82.5389	6,276.86	82.25	6,276.86	82.5313	6,276.86	81.5476	6,276.86	82.16	6,276.86	80.5158	6,276.86	81.6996	6,276.86	79.4468	6,276.86	80.8501	6,276.86	77.7542	6,276.86	79.5027	6,276.86	75.115	6,276.86	77.5276	6,276.86	72.1482	6,276.86	74.9575	6,276.86	69.6505	6,276.86	71.734	6,276.86	66.9756	6,276.86	68.7046	6,276.86	64.9985	6,276.86	66.293	6,276.86	63.1339	6,276.86	64.2206	6,276.86	61.5857	6,276.86	62.7264	6,276.86	60.5652	6,276.86	62.545	6,276.86	62.298	6,276.86	63.1818	6,276.86	62.5325	6,276.86	62.2044	6,276.86	64.1018	6,276.86	62.7073	6,276.86	56.3633	6,276.86	63.0865	6,276.86	52.048
6,498.05	82.5389	6,498.05	82.1685	6,498.05	82.4672	6,498.05	81.3755	6,498.05	82.278	6,498.05	80.7068	6,498.05	81.8064	6,498.05	79.753	6,498.05	81.223	6,498.05	77.989	6,498.05	79.9245	6,498.05	75.4091	6,498.05	77.7218	6,498.05	72.5599	6,498.05	74.9086	6,498.05	69.3953	6,498.05	71.7009	6,498.05	66.4245	6,498.05	69.0189	6,498.05	63.8907	6,498.05	66.7909	6,498.05	63.47	6,498.05	64.4112	6,498.05	62.1551	6,498.05	63.5132	6,498.05	61.8031	6,498.05	61.5969	6,498.05	61.5533	6,498.05	60.7257	6,498.05	63.5044	6,498.05	62.4394	6,498.05	64.8039	6,498.05	62.9494	6,498.05	55.6073	6,498.05	64.2399	6,498.05	53.5691
6,727.29	82.6242	6,727.29	82.2496	6,727.29	82.5128	6,727.29	81.7218	6,727.29	82.0064	6,727.29	81.3625	6,727.29	81.6712	6,727.29	80.4559	6,727.29	81.2462	6,727.29	78.3166	6,727.29	80.0097	6,727.29	75.3706	6,727.29	77.9849	6,727.29	72.4825	6,727.29	74.9963	6,727.29	69.7352	6,727.29	72.2152	6,727.29	67.1733	6,727.29	69.6203	6,727.29	64.7467	6,727.29	66.8134	6,727.29	63.6802	6,727.29	64.5854	6,727.29	62.7138	6,727.29	63.3614	6,727.29	63.2437	6,727.29	61.5729	6,727.29	63.0934	6,727.29	63.1049	6,727.29	63.7159	6,727.29	62.5935	6,727.29	65.1014	6,727.29	63.8652	6,727.29	56.9438	6,727.29	63.8552	6,727.29	54.4092
6,964.6	82.6315	6,964.6	82.15	6,964.6	82.5489	6,964.6	81.7452	6,964.6	82.0396	6,964.6	81.4069	6,964.6	81.7089	6,964.6	80.4998	6,964.6	81.5001	6,964.6	78.3205	6,964.6	80.3928	6,964.6	75.3911	6,964.6	78.0446	6,964.6	72.9599	6,964.6	75.3112	6,964.6	70.9995	6,964.6	72.7101	6,964.6	68.6881	6,964.6	70.2627	6,964.6	65.6553	6,964.6	67.7385	6,964.6	64.332	6,964.6	65.6363	6,964.6	61.8417	6,964.6	64.6739	6,964.6	62.6465	6,964.6	62.336	6,964.6	62.2938	6,964.6	62.5875	6,964.6	64.4394	6,964.6	62.4168	6,964.6	65.5115	6,964.6	64.1959	6,964.6	57.085	6,964.6	64.6181	6,964.6	53.2056
7,209.96	82.4716	7,209.96	81.7698	7,209.96	82.5256	7,209.96	81.3647	7,209.96	81.5833	7,209.96	81.2693	7,209.96	81.3798	7,209.96	80.5944	7,209.96	81.3036	7,209.96	78.3499	7,209.96	80.1	7,209.96	75.7032	7,209.96	77.9568	7,209.96	73.2177	7,209.96	75.3915	7,209.96	70.6795	7,209.96	72.8565	7,209.96	68.221	7,209.96	70.4456	7,209.96	64.9675	7,209.96	68.2159	7,209.96	63.5744	7,209.96	65.1629	7,209.96	61.9726	7,209.96	64.4121	7,209.96	63.5076	7,209.96	62.3612	7,209.96	61.823	7,209.96	62.9529	7,209.96	63.6076	7,209.96	63.0951	7,209.96	63.2828	7,209.96	63.5504	7,209.96	54.4767	7,209.96	63.4315	7,209.96	48.2406
7,464.11	82.04	7,464.11	81.1499	7,464.11	81.8804	7,464.11	80.9332	7,464.11	81.0924	7,464.11	81.1768	7,464.11	81.2402	7,464.11	80.1041	7,464.11	81.0221	7,464.11	77.6128	7,464.11	79.5549	7,464.11	75.2833	7,464.11	77.3864	7,464.11	72.8045	7,464.11	75.2422	7,464.11	69.9057	7,464.11	72.4192	7,464.11	67.7434	7,464.11	69.8116	7,464.11	65.6305	7,464.11	68.0898	7,464.11	63.9488	7,464.11	65.2931	7,464.11	61.6865	7,464.11	62.7937	7,464.11	62.7373	7,464.11	61.0815	7,464.11	62.3351	7,464.11	62.7903	7,464.11	63.7381	7,464.11	62.3388	7,464.11	62.388	7,464.11	63.3926	7,464.11	52.8296	7,464.11	62.1216	7,464.11	46.6147
7,727.78	81.2385	7,727.78	80.5141	7,727.78	81.2275	7,727.78	80.5761	7,727.78	80.6914	7,727.78	80.8801	7,727.78	80.8091	7,727.78	79.5705	7,727.78	80.4983	7,727.78	77.3037	7,727.78	79.1975	7,727.78	75.3222	7,727.78	77.1178	7,727.78	72.728	7,727.78	74.6391	7,727.78	69.8477	7,727.78	72.3731	7,727.78	67.7045	7,727.78	69.3946	7,727.78	64.6746	7,727.78	66.6964	7,727.78	62.5421	7,727.78	64.009	7,727.78	60.136	7,727.78	62.0369	7,727.78	61.5799	7,727.78	59.8102	7,727.78	61.2416	7,727.78	60.4975	7,727.78	63.0593	7,727.78	59.8186	7,727.78	63.009	7,727.78	62.954	7,727.78	52.5693	7,727.78	62.526	7,727.78	48.5245
8,000.24	81.1356	8,000.24	80.3722	8,000.24	81.3232	8,000.24	80.801	8,000.24	80.7761	8,000.24	80.7677	8,000.24	80.7741	8,000.24	79.1843	8,000.24	80.3139	8,000.24	77.1934	8,000.24	79.074	8,000.24	75.1139	8,000.24	77.0669	8,000.24	72.5885	8,000.24	74.712	8,000.24	69.6981	8,000.24	71.6201	8,000.24	66.4606	8,000.24	68.6763	8,000.24	64.7606	8,000.24	65.9285	8,000.24	62.7411	8,000.24	63.6358	8,000.24	59.3367	8,000.24	62.1054	8,000.24	59.4385	8,000.24	59.3634	8,000.24	59.2138	8,000.24	59.862	8,000.24	62.6252	8,000.24	58.6896	8,000.24	61.0692	8,000.24	61.8094	8,000.24	49.9603	8,000.24	61.5058	8,000.24	46.1501
8,282.23	81.3571	8,282.23	80.6614	8,282.23	81.2872	8,282.23	80.8487	8,282.23	80.8118	8,282.23	80.6465	8,282.23	80.928	8,282.23	79.2099	8,282.23	80.342	8,282.23	77.2396	8,282.23	79.0374	8,282.23	74.7393	8,282.23	77.1511	8,282.23	71.928	8,282.23	74.9562	8,282.23	69.1522	8,282.23	71.5053	8,282.23	66.4252	8,282.23	68.4673	8,282.23	63.2119	8,282.23	66.2686	8,282.23	60.8013	8,282.23	63.1147	8,282.23	60.0019	8,282.23	61.1226	8,282.23	58.8815	8,282.23	58.7872	8,282.23	58.6545	8,282.23	59.6567	8,282.23	61.6235	8,282.23	57.9117	8,282.23	61.3441	8,282.23	60.7783	8,282.23	50.5123	8,282.23	61.6791	8,282.23	50.0001
8,574.46	80.9526	8,574.46	80.311	8,574.46	81.0783	8,574.46	80.6615	8,574.46	80.7821	8,574.46	80.2632	8,574.46	80.9432	8,574.46	79.1621	8,574.46	80.5267	8,574.46	77.7506	8,574.46	79.4577	8,574.46	75.6798	8,574.46	78.0543	8,574.46	72.9778	8,574.46	75.5817	8,574.46	69.8252	8,574.46	72.1683	8,574.46	66.5787	8,574.46	68.8964	8,574.46	63.751	8,574.46	66.3695	8,574.46	61.3743	8,574.46	63.6896	8,574.46	60.2199	8,574.46	60.6071	8,574.46	59.3839	8,574.46	60.0963	8,574.46	58.4367	8,574.46	59.9288	8,574.46	61.1182	8,574.46	59.6075	8,574.46	61.4916	8,574.46	60.8202	8,574.46	51.0658	8,574.46	60.9903	8,574.46	49.2456
8,876.22	80.7731	8,876.22	80.4219	8,876.22	81.1308	8,876.22	80.6532	8,876.22	80.5808	8,876.22	79.8579	8,876.22	80.5349	8,876.22	79.0866	8,876.22	80.2121	8,876.22	77.777	8,876.22	79.3432	8,876.22	75.7737	8,876.22	78.0537	8,876.22	72.2398	8,876.22	75.1835	8,876.22	68.9483	8,876.22	71.7492	8,876.22	65.9494	8,876.22	68.8565	8,876.22	63.0619	8,876.22	66.0271	8,876.22	60.0721	8,876.22	63.6939	8,876.22	59.0421	8,876.22	60.7432	8,876.22	58.6051	8,876.22	59.8525	8,876.22	58.1423	8,876.22	58.0702	8,876.22	61.2661	8,876.22	59.9375	8,876.22	60.6646	8,876.22	60.3224	8,876.22	47.263	8,876.22	59.6417	8,876.22	47.3404
9,189.7	79.8552	9,189.7	79.8968	9,189.7	79.9136	9,189.7	79.6226	9,189.7	79.8146	9,189.7	79.0307	9,189.7	79.6276	9,189.7	78.4897	9,189.7	78.9138	9,189.7	77.2757	9,189.7	78.7157	9,189.7	74.38	9,189.7	76.7053	9,189.7	71.0421	9,189.7	73.4802	9,189.7	68.5066	9,189.7	70.4973	9,189.7	65.4986	9,189.7	67.9011	9,189.7	62.1812	9,189.7	65.0973	9,189.7	59.2018	9,189.7	62.7169	9,189.7	58.7129	9,189.7	60.7564	9,189.7	56.8267	9,189.7	59.346	9,189.7	55.9792	9,189.7	56.1607	9,189.7	60.0259	9,189.7	58.4977	9,189.7	59.695	9,189.7	59.3239	9,189.7	50.3825	9,189.7	59.0848	9,189.7	44.5052
9,513.43	78.8586	9,513.43	79.043	9,513.43	78.813	9,513.43	78.6551	9,513.43	79.1676	9,513.43	78.1121	9,513.43	78.8199	9,513.43	77.7084	9,513.43	78.3193	9,513.43	75.9126	9,513.43	77.6476	9,513.43	72.4937	9,513.43	75.3072	9,513.43	69.7183	9,513.43	72.4005	9,513.43	67.0903	9,513.43	69.4014	9,513.43	64.2282	9,513.43	66.844	9,513.43	61.8872	9,513.43	64.3269	9,513.43	58.8904	9,513.43	61.782	9,513.43	57.9864	9,513.43	60.0917	9,513.43	55.2357	9,513.43	58.4505	9,513.43	52.1075	9,513.43	55.2227	9,513.43	57.8907	9,513.43	54.5674	9,513.43	58.8414	9,513.43	57.4837	9,513.43	50.735	9,513.43	57.7838	9,513.43	45.4599
9,848.88	78.3095	9,848.88	78.5396	9,848.88	78.3651	9,848.88	78.1012	9,848.88	78.6272	9,848.88	77.605	9,848.88	78.0402	9,848.88	77.1134	9,848.88	77.6704	9,848.88	74.9317	9,848.88	76.7446	9,848.88	71.4824	9,848.88	74.7139	9,848.88	68.1494	9,848.88	71.8364	9,848.88	65.4279	9,848.88	68.5367	9,848.88	62.7648	9,848.88	65.619	9,848.88	60.2065	9,848.88	63.1836	9,848.88	57.8059	9,848.88	60.3059	9,848.88	56.8085	9,848.88	58.6492	9,848.88	54.9863	9,848.88	58.0716	9,848.88	53.1155	9,848.88	56.3951	9,848.88	55.899	9,848.88	54.6706	9,848.88	58.0778	9,848.88	56.2814	9,848.88	47.9382	9,848.88	57.0883	9,848.88	44.2299
10,196.8	77.9887	10,196.8	78.2838	10,196.8	78.166	10,196.8	77.7399	10,196.8	78.1606	10,196.8	77.5164	10,196.8	77.7388	10,196.8	77.1123	10,196.8	77.6979	10,196.8	74.5039	10,196.8	76.6311	10,196.8	71.373	10,196.8	74.5177	10,196.8	68.4819	10,196.8	71.6624	10,196.8	65.4689	10,196.8	68.0944	10,196.8	61.3706	10,196.8	65.2303	10,196.8	59.3315	10,196.8	61.7481	10,196.8	56.8633	10,196.8	59.144	10,196.8	56.4492	10,196.8	57.0755	10,196.8	55.4398	10,196.8	56.9334	10,196.8	52.7086	10,196.8	54.6074	10,196.8	55.2624	10,196.8	54.3025	10,196.8	57.3817	10,196.8	56.1536	10,196.8	45.5213	10,196.8	56.995	10,196.8	44.8411
10,556.4	79.0142	10,556.4	79.4469	10,556.4	79.1109	10,556.4	78.6118	10,556.4	79.4804	10,556.4	78.7508	10,556.4	79.0378	10,556.4	77.8416	10,556.4	78.8163	10,556.4	75.8125	10,556.4	77.8742	10,556.4	73.0104	10,556.4	75.9318	10,556.4	70.8434	10,556.4	73.2452	10,556.4	67.8028	10,556.4	69.7246	10,556.4	63.1575	10,556.4	66.5543	10,556.4	60.952	10,556.4	62.7344	10,556.4	58.1374	10,556.4	60.2806	10,556.4	57.3572	10,556.4	58.0224	10,556.4	55.8771	10,556.4	57.3204	10,556.4	52.6206	10,556.4	55.2095	10,556.4	56.6594	10,556.4	54.0573	10,556.4	57.7224	10,556.4	56.7933	10,556.4	48.4754	10,556.4	58.1734	10,556.4	45.0171
10,928.5	80.2227	10,928.5	80.469	10,928.5	80.2598	10,928.5	79.5528	10,928.5	80.6559	10,928.5	79.6432	10,928.5	80.2057	10,928.5	78.5692	10,928.5	79.8636	10,928.5	76.7435	10,928.5	78.6841	10,928.5	74.0495	10,928.5	77.199	10,928.5	71.4246	10,928.5	74.5306	10,928.5	67.9072	10,928.5	70.5047	10,928.5	64.4662	10,928.5	67.2061	10,928.5	61.4135	10,928.5	64.5785	10,928.5	58.8683	10,928.5	61.7663	10,928.5	56.9938	10,928.5	59.7522	10,928.5	56.1597	10,928.5	58.5364	10,928.5	50.5812	10,928.5	56.0801	10,928.5	56.5695	10,928.5	54.8053	10,928.5	58.7364	10,928.5	57.4008	10,928.5	49.6606	10,928.5	59.4171	10,928.5	47.8186
11,313.7	80.2947	11,313.7	80.2238	11,313.7	80.3091	11,313.7	79.6019	11,313.7	80.4833	11,313.7	79.6822	11,313.7	80.2937	11,313.7	78.1713	11,313.7	80.0396	11,313.7	76.4451	11,313.7	79.0406	11,313.7	74.1103	11,313.7	77.6529	11,313.7	70.1384	11,313.7	74.9313	11,313.7	66.745	11,313.7	70.6539	11,313.7	63.5447	11,313.7	68.5289	11,313.7	61.1667	11,313.7	65.2118	11,313.7	58.4858	11,313.7	62.7939	11,313.7	58.2631	11,313.7	59.8402	11,313.7	54.8527	11,313.7	59.7061	11,313.7	50.9072	11,313.7	56.433	11,313.7	54.4613	11,313.7	53.5962	11,313.7	58.6498	11,313.7	56.4639	11,313.7	50.1305	11,313.7	59.9952	11,313.7	46.6335
11,712.9	80.0528	11,712.9	79.7232	11,712.9	80.5861	11,712.9	80.1211	11,712.9	80.4311	11,712.9	79.7223	11,712.9	80.6422	11,712.9	77.9021	11,712.9	80.074	11,712.9	76.8237	11,712.9	79.3116	11,712.9	74.0346	11,712.9	77.7348	11,712.9	70.3966	11,712.9	74.5779	11,712.9	67.8518	11,712.9	70.7797	11,712.9	62.8746	11,712.9	68.8457	11,712.9	61.1582	11,712.9	65.049	11,712.9	58.5261	11,712.9	62.916	11,712.9	58.2439	11,712.9	60.7133	11,712.9	51.4664	11,712.9	58.703	11,712.9	51.2336	11,712.9	55.361	11,712.9	54.6012	11,712.9	52.4628	11,712.9	58.408	11,712.9	57.102	11,712.9	50.4723	11,712.9	59.8583	11,712.9	48.1546
12,126	80.2979	12,126	80.0655	12,126	80.5887	12,126	80.2752	12,126	80.6495	12,126	79.5585	12,126	80.7661	12,126	78.2854	12,126	79.9671	12,126	77.1664	12,126	79.3922	12,126	73.8813	12,126	77.2622	12,126	71.0842	12,126	74.5677	12,126	67.978	12,126	70.4671	12,126	64.3458	12,126	68.2644	12,126	62.2759	12,126	65.2805	12,126	59.926	12,126	62.5408	12,126	58.2964	12,126	61.0305	12,126	50.5486	12,126	58.7284	12,126	51.2301	12,126	54.7162	12,126	54.3178	12,126	49.7267	12,126	57.709	12,126	56.9528	12,126	49.4281	12,126	59.0494	12,126	45.4728
12,553.7	80.3706	12,553.7	80.2297	12,553.7	80.4332	12,553.7	80.4767	12,553.7	80.5645	12,553.7	79.3059	12,553.7	80.9865	12,553.7	78.5711	12,553.7	80.1642	12,553.7	76.6912	12,553.7	79.4666	12,553.7	73.8777	12,553.7	77.4875	12,553.7	70.271	12,553.7	75.2383	12,553.7	67.3337	12,553.7	70.8543	12,553.7	63.937	12,553.7	68.6274	12,553.7	61.6297	12,553.7	64.8983	12,553.7	60.0466	12,553.7	62.1052	12,553.7	58.0744	12,553.7	61.2944	12,553.7	50.5252	12,553.7	59.163	12,553.7	48.9529	12,553.7	53.2735	12,553.7	54.1488	12,553.7	50.632	12,553.7	57.4051	12,553.7	57.3184	12,553.7	45.9293	12,553.7	58.8468	12,553.7	43.8317
12,996.1	79.991	12,996.1	79.5242	12,996.1	80.4359	12,996.1	79.7831	12,996.1	80.307	12,996.1	78.3536	12,996.1	80.7216	12,996.1	78.1366	12,996.1	79.9292	12,996.1	75.7126	12,996.1	79.3266	12,996.1	73.7717	12,996.1	77.2004	12,996.1	69.7775	12,996.1	74.9773	12,996.1	67.4366	12,996.1	70.9855	12,996.1	63.4886	12,996.1	68.262	12,996.1	60.4134	12,996.1	64.712	12,996.1	59.6961	12,996.1	61.4368	12,996.1	56.3779	12,996.1	60.9181	12,996.1	46.4306	12,996.1	58.8618	12,996.1	47.7638	12,996.1	49.8944	12,996.1	52.2161	12,996.1	50.0161	12,996.1	55.8443	12,996.1	57.566	12,996.1	40.558	12,996.1	58.1774	12,996.1	45.8237
13,454.6	79.3272	13,454.6	79.0248	13,454.6	79.7308	13,454.6	78.7084	13,454.6	79.8105	13,454.6	77.6114	13,454.6	80.3058	13,454.6	76.7806	13,454.6	79.681	13,454.6	74.2261	13,454.6	78.9457	13,454.6	72.2904	13,454.6	76.873	13,454.6	69.4519	13,454.6	74.7928	13,454.6	65.8971	13,454.6	70.6597	13,454.6	62.2626	13,454.6	67.8101	13,454.6	58.5203	13,454.6	65.06	13,454.6	56.554	13,454.6	60.8139	13,454.6	54.2891	13,454.6	61.2142	13,454.6	46.0362	13,454.6	57.3169	13,454.6	49.5543	13,454.6	48.7886	13,454.6	49.662	13,454.6	50.1082	13,454.6	54.1449	13,454.6	56.764	13,454.6	31.0547	13,454.6	55.9552	13,454.6	45.1475
13,928.5	80.202	13,928.5	79.7895	13,928.5	80.2204	13,928.5	79.0535	13,928.5	80.2796	13,928.5	78.4252	13,928.5	80.2713	13,928.5	76.9131	13,928.5	79.5066	13,928.5	74.7868	13,928.5	78.6737	13,928.5	73.0881	13,928.5	76.667	13,928.5	69.3601	13,928.5	74.7001	13,928.5	65.7561	13,928.5	70.2205	13,928.5	62.7576	13,928.5	67.0976	13,928.5	58.3287	13,928.5	64.0037	13,928.5	58.5195	13,928.5	60.402	13,928.5	54.9116	13,928.5	60.8894	13,928.5	48.1891	13,928.5	57.1254	13,928.5	51.0625	13,928.5	52.4217	13,928.5	50.0588	13,928.5	48.696	13,928.5	51.9611	13,928.5	54.8909	13,928.5	25.5136	13,928.5	54.656	13,928.5	40.546
14,419.9	78.9822	14,419.9	78.0172	14,419.9	79.2926	14,419.9	77.1705	14,419.9	79.1878	14,419.9	76.0555	14,419.9	79.1744	14,419.9	74.0637	14,419.9	78.6902	14,419.9	72.4774	14,419.9	77.4742	14,419.9	69.5508	14,419.9	75.7434	14,419.9	64.99	14,419.9	73.0971	14,419.9	61.6749	14,419.9	68.6567	14,419.9	58.9069	14,419.9	65.6637	14,419.9	54.9733	14,419.9	62.3042	14,419.9	55.0109	14,419.9	58.4528	14,419.9	48.8193	14,419.9	59.0391	14,419.9	46.5693	14,419.9	54.9723	14,419.9	46.796	14,419.9	52.3458	14,419.9	44.751	14,419.9	44.5331	14,419.9	50.8871	14,419.9	51.7782	14,419.9	37.5205	14,419.9	54.9322	14,419.9	30.1279
14,928.2	78.5582	14,928.2	77.8565	14,928.2	78.8885	14,928.2	77.3268	14,928.2	78.6957	14,928.2	76.3313	14,928.2	78.6301	14,928.2	74.3178	14,928.2	77.7756	14,928.2	72.6999	14,928.2	76.6056	14,928.2	69.3208	14,928.2	74.5784	14,928.2	67.2558	14,928.2	71.7807	14,928.2	63.3726	14,928.2	67.7135	14,928.2	59.5698	14,928.2	64.6396	14,928.2	56.3871	14,928.2	60.7495	14,928.2	55.3466	14,928.2	57.5617	14,928.2	50.6317	14,928.2	57.5972	14,928.2	48.578	14,928.2	52.9827	14,928.2	43.2829	14,928.2	50.3258	14,928.2	42.5012	14,928.2	37.8367	14,928.2	49.6024	14,928.2	50.7841	14,928.2	38.6857	14,928.2	52.4547	14,928.2	31.3339
15,454.8	77.8698	15,454.8	77.246	15,454.8	77.7781	15,454.8	76.788	15,454.8	77.5064	15,454.8	75.4725	15,454.8	77.2295	15,454.8	74.2622	15,454.8	76.127	15,454.8	72.0619	15,454.8	75.0837	15,454.8	69.5015	15,454.8	72.5317	15,454.8	66.4085	15,454.8	70.3278	15,454.8	62.4033	15,454.8	66.0867	15,454.8	57.8115	15,454.8	62.5653	15,454.8	55.3058	15,454.8	58.2583	15,454.8	54.5087	15,454.8	55.7926	15,454.8	49.9799	15,454.8	55.8942	15,454.8	47.0945	15,454.8	50.465	15,454.8	42.4555	15,454.8	48.623	15,454.8	36.9511	15,454.8	39.5888	15,454.8	46.3652	15,454.8	47.3031	15,454.8	39.3761	15,454.8	49.3424	15,454.8	37.8094
15,999.8	77.6795	15,999.8	77.0332	15,999.8	78.0167	15,999.8	76.6494	15,999.8	77.4687	15,999.8	75.4909	15,999.8	77.2563	15,999.8	74.432	15,999.8	76.4135	15,999.8	71.607	15,999.8	75.1783	15,999.8	69.2588	15,999.8	72.4944	15,999.8	65.6148	15,999.8	70.2979	15,999.8	61.9669	15,999.8	65.1824	15,999.8	57.8906	15,999.8	62.3571	15,999.8	55.3644	15,999.8	57.7157	15,999.8	54.759	15,999.8	55.9098	15,999.8	49.3022	15,999.8	55.2479	15,999.8	46.2134	15,999.8	52.4069	15,999.8	44.0175	15,999.8	48.4869	15,999.8	39.0603	15,999.8	43.7525	15,999.8	42.8142	15,999.8	45.4446	15,999.8	39.8604	15,999.8	47.7165	15,999.8	34.4515
16,564.5	80.3679	16,564.5	79.9431	16,564.5	80.4248	16,564.5	79.5107	16,564.5	79.9901	16,564.5	78.6872	16,564.5	79.5975	16,564.5	76.9994	16,564.5	78.2604	16,564.5	74.9357	16,564.5	77.2186	16,564.5	71.9658	16,564.5	74.3062	16,564.5	69.2518	16,564.5	72.0003	16,564.5	65.1157	16,564.5	66.4166	16,564.5	61.6781	16,564.5	63.4028	16,564.5	58.3266	16,564.5	60.4125	16,564.5	57.3409	16,564.5	57.4528	16,564.5	51.535	16,564.5	57.6491	16,564.5	49.1126	16,564.5	52.2497	16,564.5	48.4233	16,564.5	48.2001	16,564.5	43.6487	16,564.5	46.9769	16,564.5	46.5169	16,564.5	48.0016	16,564.5	46.2456	16,564.5	47.1692	16,564.5	42.6571
17,148.2	81.6522	17,148.2	81.3331	17,148.2	81.4668	17,148.2	81.2425	17,148.2	80.3792	17,148.2	80.3779	17,148.2	79.5457	17,148.2	78.8074	17,148.2	78.3458	17,148.2	76.7612	17,148.2	76.9356	17,148.2	73.9934	17,148.2	73.8955	17,148.2	71.1154	17,148.2	71.0897	17,148.2	66.692	17,148.2	65.7486	17,148.2	63.0313	17,148.2	63.2686	17,148.2	59.3887	17,148.2	60.0027	17,148.2	58.41	17,148.2	55.603	17,148.2	50.7215	17,148.2	55.4892	17,148.2	48.9907	17,148.2	51.7895	17,148.2	48.3964	17,148.2	48.992	17,148.2	43.7003	17,148.2	49.7716	17,148.2	48.3243	17,148.2	48.1474	17,148.2	45.096	17,148.2	46.4648	17,148.2	44.533
17,753.2	81.9539	17,753.2	81.7445	17,753.2	81.5777	17,753.2	81.7926	17,753.2	79.9939	17,753.2	81.0309	17,753.2	78.5518	17,753.2	79.6321	17,753.2	76.6351	17,753.2	77.5399	17,753.2	74.7093	17,753.2	74.5777	17,753.2	71.1861	17,753.2	71.5067	17,753.2	67.9615	17,753.2	66.6034	17,753.2	63.9062	17,753.2	62.9253	17,753.2	60.0804	17,753.2	59.4016	17,753.2	56.8922	17,753.2	57.7696	17,753.2	52.3806	17,753.2	50.2307	17,753.2	49.6151	17,753.2	49.731	17,753.2	47.3864	17,753.2	47.2452	17,753.2	46.1036	17,753.2	45.2124	17,753.2	49.2596	17,753.2	46.7413	17,753.2	45.2514	17,753.2	46.6027	17,753.2	37.7854	17,753.2	44.6069
18,379.4	80.6493	18,379.4	80.3146	18,379.4	79.9914	18,379.4	80.2325	18,379.4	78.1426	18,379.4	79.5996	18,379.4	76.4771	18,379.4	78.1984	18,379.4	74.1449	18,379.4	76.0721	18,379.4	71.451	18,379.4	73.2701	18,379.4	66.8329	18,379.4	70.1969	18,379.4	64.8948	18,379.4	65.607	18,379.4	58.6353	18,379.4	61.002	18,379.4	55.2637	18,379.4	58.1179	18,379.4	51.9735	18,379.4	56.2554	18,379.4	48.4994	18,379.4	50.9222	18,379.4	44.7687	18,379.4	49.5119	18,379.4	42.6174	18,379.4	44.6994	18,379.4	41.5563	18,379.4	45.2451	18,379.4	46.6346	18,379.4	46.1798	18,379.4	42.7854	18,379.4	44.2813	18,379.4	41.8121	18,379.4	44.4135
19,027.6	78.2508	19,027.6	77.5981	19,027.6	77.7595	19,027.6	77.0386	19,027.6	76.5425	19,027.6	76.0256	19,027.6	75.4004	19,027.6	74.4162	19,027.6	73.4481	19,027.6	71.8711	19,027.6	71.2413	19,027.6	69.0259	19,027.6	68.2243	19,027.6	65.5476	19,027.6	65.9563	19,027.6	60.8843	19,027.6	61.6646	19,027.6	57.1454	19,027.6	57.9499	19,027.6	53.7628	19,027.6	54.5059	19,027.6	52.0678	19,027.6	51.0211	19,027.6	47.5594	19,027.6	49.0174	19,027.6	43.9276	19,027.6	44.7168	19,027.6	36.9189	19,027.6	45.4458	19,027.6	41.526	19,027.6	46.8889	19,027.6	43.1743	19,027.6	39.5258	19,027.6	40.5789	19,027.6	44.6387	19,027.6	44.4579
19,698.5	76.4554	19,698.5	75.288	19,698.5	76.5378	19,698.5	74.1967	19,698.5	76.1619	19,698.5	72.5888	19,698.5	75.8768	19,698.5	70.4433	19,698.5	74.4708	19,698.5	67.6804	19,698.5	72.7553	19,698.5	64.2779	19,698.5	70.1523	19,698.5	60.585	19,698.5	67.3113	19,698.5	55.0727	19,698.5	63.5643	19,698.5	51.7422	19,698.5	58.7191	19,698.5	46.522	19,698.5	55.8432	19,698.5	46.8614	19,698.5	50.3421	19,698.5	39.9862	19,698.5	50.3678	19,698.5	32.5557	19,698.5	47.1215	19,698.5	38.489	19,698.5	43.7422	19,698.5	40.9148	19,698.5	47.5716	19,698.5	43.5941	19,698.5	40.0321	19,698.5	41.9079	19,698.5	47.2892	19,698.5	40.5988
19,999.5	74.7387	19,999.5	73.2534	19,999.5	75.23	19,999.5	71.9622	19,999.5	75.2422	19,999.5	69.8401	19,999.5	74.9002	19,999.5	67.5082	19,999.5	74.1944	19,999.5	64.469	19,999.5	72.3909	19,999.5	61.2013	19,999.5	69.8547	19,999.5	57.636	19,999.5	66.9513	19,999.5	51.4656	19,999.5	63.5825	19,999.5	50.0415	19,999.5	58.0255	19,999.5	42.6482	19,999.5	54.6534	19,999.5	44.7528	19,999.5	51.3187	19,999.5	30.7284	19,999.5	49.6239	19,999.5	32.6554	19,999.5	47.3334	19,999.5	40.0087	19,999.5	43.0649	19,999.5	35.2386	19,999.5	47.1126	19,999.5	42.8402	19,999.5	41.1898	19,999.5	41.3803	19,999.5	46.5103	19,999.5	31.7287
