"SPL Vertical"																																																																							
"On-Axis"		"10°"		"-10°"		"20°"		"-20°"		"30°"		"-30°"		"40°"		"-40°"		"50°"		"-50°"		"60°"		"-60°"		"70°"		"-70°"		"80°"		"-80°"		"90°"		"-90°"		"100°"		"-100°"		"110°"		"-110°"		"120°"		"-120°"		"130°"		"-130°"		"140°"		"-140°"		"150°"		"-150°"		"160°"		"-160°"		"170°"		"-170°"		"180°"	
"Frequency [Hz]"	"Sound Pessure Level [dB]  / [2.83V 1m] "	"Frequency [Hz]"	"Sound Pessure Level [dB]  / [2.83V 1m] "	"Frequency [Hz]"	"Sound Pessure Level [dB]  / [2.83V 1m] "	"Frequency [Hz]"	"Sound Pessure Level [dB]  / [2.83V 1m] "	"Frequency [Hz]"	"Sound Pessure Level [dB]  / [2.83V 1m] "	"Frequency [Hz]"	"Sound Pessure Level [dB]  / [2.83V 1m] "	"Frequency [Hz]"	"Sound Pessure Level [dB]  / [2.83V 1m] "	"Frequency [Hz]"	"Sound Pessure Level [dB]  / [2.83V 1m] "	"Frequency [Hz]"	"Sound Pessure Level [dB]  / [2.83V 1m] "	"Frequency [Hz]"	"Sound Pessure Level [dB]  / [2.83V 1m] "	"Frequency [Hz]"	"Sound Pessure Level [dB]  / [2.83V 1m] "	"Frequency [Hz]"	"Sound Pessure Level [dB]  / [2.83V 1m] "	"Frequency [Hz]"	"Sound Pessure Level [dB]  / [2.83V 1m] "	"Frequency [Hz]"	"Sound Pessure Level [dB]  / [2.83V 1m] "	"Frequency [Hz]"	"Sound Pessure Level [dB]  / [2.83V 1m] "	"Frequency [Hz]"	"Sound Pessure Level [dB]  / [2.83V 1m] "	"Frequency [Hz]"	"Sound Pessure Level [dB]  / [2.83V 1m] "	"Frequency [Hz]"	"Sound Pessure Level [dB]  / [2.83V 1m] "	"Frequency [Hz]"	"Sound Pessure Level [dB]  / [2.83V 1m] "	"Frequency [Hz]"	"Sound Pessure Level [dB]  / [2.83V 1m] "	"Frequency [Hz]"	"Sound Pessure Level [dB]  / [2.83V 1m] "	"Frequency [Hz]"	"Sound Pessure Level [dB]  / [2.83V 1m] "	"Frequency [Hz]"	"Sound Pessure Level [dB]  / [2.83V 1m] "	"Frequency [Hz]"	"Sound Pessure Level [dB]  / [2.83V 1m] "	"Frequency [Hz]"	"Sound Pessure Level [dB]  / [2.83V 1m] "	"Frequency [Hz]"	"Sound Pessure Level [dB]  / [2.83V 1m] "	"Frequency [Hz]"	"Sound Pessure Level [dB]  / [2.83V 1m] "	"Frequency [Hz]"	"Sound Pessure Level [dB]  / [2.83V 1m] "	"Frequency [Hz]"	"Sound Pessure Level [dB]  / [2.83V 1m] "	"Frequency [Hz]"	"Sound Pessure Level [dB]  / [2.83V 1m] "	"Frequency [Hz]"	"Sound Pessure Level [dB]  / [2.83V 1m] "	"Frequency [Hz]"	"Sound Pessure Level [dB]  / [2.83V 1m] "	"Frequency [Hz]"	"Sound Pessure Level [dB]  / [2.83V 1m] "	"Frequency [Hz]"	"Sound Pessure Level [dB]  / [2.83V 1m] "	"Frequency [Hz]"	"Sound Pessure Level [dB]  / [2.83V 1m] "	"Frequency [Hz]"	"Sound Pessure Level [dB]  / [2.83V 1m] "
20.5078	53.8526	20.5078	53.4236	20.5078	54.1182	20.5078	52.8708	20.5078	54.1969	20.5078	52.2683	20.5078	54.0738	20.5078	51.7506	20.5078	53.7467	20.5078	51.5199	20.5078	53.2478	20.5078	51.7726	20.5078	52.6969	20.5078	52.553	20.5078	52.3795	20.5078	53.7149	20.5078	52.7002	20.5078	55.0491	20.5078	53.8153	20.5078	56.3981	20.5078	55.4213	20.5078	57.6735	20.5078	57.1117	20.5078	58.8322	20.5078	58.6483	20.5078	59.8531	20.5078	59.9382	20.5078	60.7242	20.5078	60.958	20.5078	61.4362	20.5078	61.7113	20.5078	61.9789	20.5078	62.2107	20.5078	62.3412	20.5078	62.4718	20.5078	62.5102
23.4375	57.183	23.4375	56.8361	23.4375	57.412	23.4375	56.4183	23.4375	57.4968	23.4375	56.0087	23.4375	57.4269	23.4375	55.7272	23.4375	57.2127	23.4375	55.7189	23.4375	56.9053	23.4375	56.0925	23.4375	56.6315	23.4375	56.8482	23.4375	56.6169	23.4375	57.8803	23.4375	57.1031	23.4375	59.0493	23.4375	58.14	23.4375	60.2422	23.4375	59.5232	23.4375	61.3866	23.4375	60.984	23.4375	62.4408	23.4375	62.3395	23.4375	63.3804	23.4375	63.4998	23.4375	64.1893	23.4375	64.431	23.4375	64.8548	23.4375	65.1259	23.4375	65.3646	23.4375	65.5896	23.4375	65.7063	23.4375	65.8323	23.4375	65.8667
26.3672	61.1646	26.3672	60.9617	26.3672	61.3177	26.3672	60.7466	26.3672	61.3995	26.3672	60.5735	26.3672	61.4054	26.3672	60.5103	26.3672	61.3517	26.3672	60.6248	26.3672	61.285	26.3672	60.9628	26.3672	61.2914	26.3672	61.527	26.3672	61.488	26.3672	62.2766	26.3672	61.9769	26.3672	63.1465	26.3672	62.7757	26.3672	64.0698	26.3672	63.7966	26.3672	64.9912	26.3672	64.9018	26.3672	65.8692	26.3672	65.9684	26.3672	66.6734	26.3672	66.9137	26.3672	67.3811	26.3672	67.6922	26.3672	67.9735	26.3672	68.2824	26.3672	68.4344	26.3672	68.6783	26.3672	68.7486	26.3672	68.8823	26.3672	68.9021
29.2969	65.1499	29.2969	65.0221	29.2969	65.2616	29.2969	64.9036	29.2969	65.3424	29.2969	64.8292	29.2969	65.3901	29.2969	64.8386	29.2969	65.4182	29.2969	64.9698	29.2969	65.4597	29.2969	65.2487	29.2969	65.5683	29.2969	65.6811	29.2969	65.8102	29.2969	66.2498	29.2969	66.2405	29.2969	66.9211	29.2969	66.8717	29.2969	67.6533	29.2969	67.6608	29.2969	68.4058	29.2969	68.5272	29.2969	69.1425	29.2969	69.3848	29.2969	69.8334	29.2969	70.1642	29.2969	70.4534	29.2969	70.8184	29.2969	70.9811	29.2969	71.3204	29.2969	71.3979	29.2969	71.6576	29.2969	71.6871	29.2969	71.8275	29.2969	71.8344
32.2266	68.8778	32.2266	68.7891	32.2266	68.968	32.2266	68.7178	32.2266	69.0506	32.2266	68.6854	32.2266	69.1253	32.2266	68.716	32.2266	69.2021	32.2266	68.8324	32.2266	69.3027	32.2266	69.0519	32.2266	69.46	32.2266	69.3814	32.2266	69.7118	32.2266	69.815	32.2266	70.0886	32.2266	70.3356	32.2266	70.5983	32.2266	70.9176	32.2266	71.2178	32.2266	71.5321	32.2266	71.8985	32.2266	72.1497	32.2266	72.5815	32.2266	72.7429	32.2266	73.2122	32.2266	73.2865	32.2266	73.7485	32.2266	73.7584	32.2266	74.162	32.2266	74.1385	32.2266	74.4372	32.2266	74.4094	32.2266	74.5681	32.2266	74.5565
35.1563	72.3567	35.1563	72.2804	35.1563	72.4439	35.1563	72.2255	35.1563	72.5358	35.1563	72.2058	35.1563	72.6321	35.1563	72.2365	35.1563	72.7389	35.1563	72.3324	35.1563	72.8694	35.1563	72.5053	35.1563	73.0429	35.1563	72.7611	35.1563	73.2816	35.1563	73.0983	35.1563	73.6034	35.1563	73.5079	35.1563	74.0143	35.1563	73.9742	35.1563	74.5017	35.1563	74.4768	35.1563	75.0357	35.1563	74.9929	35.1563	75.5758	35.1563	75.4988	35.1563	76.0801	35.1563	75.9718	35.1563	76.5124	35.1563	76.3901	35.1563	76.8461	35.1563	76.7339	35.1563	77.0642	35.1563	76.9858	35.1563	77.1593	35.1563	77.1312
38.0859	75.3519	38.0859	75.2889	38.0859	75.4319	38.0859	75.2496	38.0859	75.5248	38.0859	75.2427	38.0859	75.6305	38.0859	75.2779	38.0859	75.7526	38.0859	75.3646	38.0859	75.8991	38.0859	75.5104	38.0859	76.0813	38.0859	75.7199	38.0859	76.312	38.0859	75.9932	38.0859	76.6012	38.0859	76.3253	38.0859	76.9516	38.0859	76.7064	38.0859	77.3545	38.0859	77.1225	38.0859	77.7894	38.0859	77.5563	38.0859	78.2274	38.0859	77.9886	38.0859	78.6365	38.0859	78.3994	38.0859	78.9871	38.0859	78.769	38.0859	79.256	38.0859	79.0784	38.0859	79.4272	38.0859	79.3109	38.0859	79.493	38.0859	79.4525
41.0156	77.8807	41.0156	77.8179	41.0156	77.9617	41.0156	77.7778	41.0156	78.0585	41.0156	77.7657	41.0156	78.17	41.0156	77.7875	41.0156	78.2977	41.0156	77.8491	41.0156	78.4453	41.0156	77.9556	41.0156	78.6182	41.0156	78.1105	41.0156	78.8228	41.0156	78.315	41.0156	79.0643	41.0156	78.5672	41.0156	79.3436	41.0156	78.8617	41.0156	79.6556	41.0156	79.1897	41.0156	79.9874	41.0156	79.5391	41.0156	80.3195	41.0156	79.8952	41.0156	80.6288	41.0156	80.2412	41.0156	80.8924	41.0156	80.5597	41.0156	81.0907	41.0156	80.8335	41.0156	81.2097	41.0156	81.0467	41.0156	81.2419	41.0156	81.186
43.9453	79.4981	43.9453	79.4352	43.9453	79.58	43.9453	79.3943	43.9453	79.6787	43.9453	79.3788	43.9453	79.7933	43.9453	79.3928	43.9453	79.9237	43.9453	79.4404	43.9453	80.0714	43.9453	79.5251	43.9453	80.2389	43.9453	79.6498	43.9453	80.4289	43.9453	79.8159	43.9453	80.644	43.9453	80.0227	43.9453	80.8839	43.9453	80.267	43.9453	81.1445	43.9453	80.5425	43.9453	81.4164	43.9453	80.8403	43.9453	81.6851	43.9453	81.1484	43.9453	81.933	43.9453	81.4525	43.9453	82.1416	43.9453	81.7373	43.9453	82.2944	43.9453	81.9869	43.9453	82.3793	43.9453	82.1866	43.9453	82.3894	43.9453	82.3237
46.875	80.6042	46.875	80.5382	46.875	80.6895	46.875	80.4937	46.875	80.7921	46.875	80.4729	46.875	80.9106	46.875	80.4786	46.875	81.0439	46.875	80.5131	46.875	81.1914	46.875	80.5788	46.875	81.3533	46.875	80.6778	46.875	81.5298	46.875	80.811	46.875	81.721	46.875	80.9785	46.875	81.9258	46.875	81.1783	46.875	82.1407	46.875	81.4063	46.875	82.3587	46.875	81.6561	46.875	82.5692	46.875	81.9185	46.875	82.7592	46.875	82.1821	46.875	82.9145	46.875	82.4337	46.875	83.022	46.875	82.6596	46.875	83.072	46.875	82.8463	46.875	83.0589	46.875	82.9822
49.8047	81.2726	49.8047	81.205	49.8047	81.36	49.8047	81.1587	49.8047	81.4654	49.8047	81.1352	49.8047	81.5871	49.8047	81.1358	49.8047	81.7231	49.8047	81.1619	49.8047	81.8715	49.8047	81.2148	49.8047	82.0305	49.8047	81.2956	49.8047	82.1987	49.8047	81.405	49.8047	82.3741	49.8047	81.5431	49.8047	82.5547	49.8047	81.7088	49.8047	82.7367	49.8047	81.8996	49.8047	82.9145	49.8047	82.1108	49.8047	83.0804	49.8047	82.3358	49.8047	83.2245	49.8047	82.5656	49.8047	83.3363	49.8047	82.7893	49.8047	83.4059	49.8047	82.9949	49.8047	83.4259	49.8047	83.1707	49.8047	83.3924	49.8047	83.3059
52.7344	81.7443	52.7344	81.6769	52.7344	81.8312	52.7344	81.6301	52.7344	81.9359	52.7344	81.6047	52.7344	82.0564	52.7344	81.6012	52.7344	82.1902	52.7344	81.6202	52.7344	82.3344	52.7344	81.6619	52.7344	82.486	52.7344	81.727	52.7344	82.642	52.7344	81.8156	52.7344	82.7997	52.7344	81.9279	52.7344	82.9561	52.7344	82.0633	52.7344	83.1077	52.7344	82.2203	52.7344	83.2499	52.7344	82.3959	52.7344	83.3771	52.7344	82.5854	52.7344	83.4822	52.7344	82.782	52.7344	83.5576	52.7344	82.9771	52.7344	83.5961	52.7344	83.1606	52.7344	83.5925	52.7344	83.3224	52.7344	83.5444	52.7344	83.4528
55.6641	82.1015	55.6641	82.0327	55.6641	82.1893	55.6641	81.9838	55.6641	82.2947	55.6641	81.955	55.6641	82.4154	55.6641	81.9464	55.6641	82.5485	55.6641	81.9578	55.6641	82.6903	55.6641	81.9889	55.6641	82.837	55.6641	82.0396	55.6641	82.9847	55.6641	82.1101	55.6641	83.1296	55.6641	82.2005	55.6641	83.268	55.6641	82.3105	55.6641	83.3964	55.6641	82.4396	55.6641	83.5107	55.6641	82.5861	55.6641	83.6066	55.6641	82.7469	55.6641	83.6789	55.6641	82.9173	55.6641	83.7224	55.6641	83.0904	55.6641	83.7323	55.6641	83.258	55.6641	83.7055	55.6641	83.4113	55.6641	83.6411	55.6641	83.5414
58.5938	82.4234	58.5938	82.3513	58.5938	82.5144	58.5938	82.2986	58.5938	82.6225	58.5938	82.2655	58.5938	82.7454	58.5938	82.2514	58.5938	82.8795	58.5938	82.2557	58.5938	83.0207	58.5938	82.2777	58.5938	83.1643	58.5938	82.3169	58.5938	83.3055	58.5938	82.373	58.5938	83.4398	58.5938	82.446	58.5938	83.563	58.5938	82.5359	58.5938	83.6712	58.5938	82.6426	58.5938	83.761	58.5938	82.7655	58.5938	83.829	58.5938	82.9028	58.5938	83.8719	58.5938	83.0511	58.5938	83.8865	58.5938	83.2056	58.5938	83.8704	58.5938	83.3596	58.5938	83.8223	58.5938	83.5056	58.5938	83.7431	58.5938	83.6358
61.5234	82.6718	61.5234	82.5962	61.5234	82.7652	61.5234	82.5393	61.5234	82.8747	61.5234	82.5007	61.5234	82.9977	61.5234	82.48	61.5234	83.1303	61.5234	82.4761	61.5234	83.2679	61.5234	82.4879	61.5234	83.4054	61.5234	82.5147	61.5234	83.5374	61.5234	82.5559	61.5234	83.6588	61.5234	82.6114	61.5234	83.7651	61.5234	82.6814	61.5234	83.8526	61.5234	82.7663	61.5234	83.9183	61.5234	82.866	61.5234	83.9597	61.5234	82.9801	61.5234	83.975	61.5234	83.1067	61.5234	83.9628	61.5234	83.2424	61.5234	83.9228	61.5234	83.3824	61.5234	83.8554	61.5234	83.5204	61.5234	83.7629	61.5234	83.6494
64.4531	82.9311	64.4531	82.852	64.4531	83.0268	64.4531	82.7903	64.4531	83.1374	64.4531	82.7457	64.4531	83.26	64.4531	82.7173	64.4531	83.3907	64.4531	82.7041	64.4531	83.5245	64.4531	82.7046	64.4531	83.6559	64.4531	82.7179	64.4531	83.7791	64.4531	82.7434	64.4531	83.8887	64.4531	82.7808	64.4531	83.9799	64.4531	82.8308	64.4531	84.0489	64.4531	82.8941	64.4531	84.0928	64.4531	82.9716	64.4531	84.11	64.4531	83.0641	64.4531	84.0997	64.4531	83.1709	64.4531	84.0621	64.4531	83.2905	64.4531	83.9986	64.4531	83.4191	64.4531	83.9113	64.4531	83.5518	64.4531	83.8043	64.4531	83.6824
67.3828	83.2204	67.3828	83.1383	67.3828	83.3174	67.3828	83.0718	67.3828	83.4276	67.3828	83.0207	67.3828	83.548	67.3828	82.9841	67.3828	83.6744	67.3828	82.9606	67.3828	83.8019	67.3828	82.949	67.3828	83.9246	67.3828	82.9482	67.3828	84.0367	67.3828	82.9575	67.3828	84.1324	67.3828	82.9769	67.3828	84.2069	67.3828	83.0072	67.3828	84.2564	67.3828	83.0498	67.3828	84.2786	67.3828	83.1063	67.3828	84.2723	67.3828	83.1782	67.3828	84.2381	67.3828	83.2663	67.3828	84.1775	67.3828	83.3699	67.3828	84.0934	67.3828	83.4869	67.3828	83.9895	67.3828	83.6132	67.3828	83.8708	67.3828	83.7433
70.3125	83.4603	70.3125	83.3764	70.3125	83.5602	70.3125	83.3093	70.3125	83.674	70.3125	83.2588	70.3125	83.7984	70.3125	83.2237	70.3125	83.929	70.3125	83.2028	70.3125	84.0602	70.3125	83.1944	70.3125	84.1858	70.3125	83.1969	70.3125	84.2995	70.3125	83.2096	70.3125	84.3955	70.3125	83.2319	70.3125	84.4689	70.3125	83.2644	70.3125	84.5158	70.3125	83.308	70.3125	84.5343	70.3125	83.3642	70.3125	84.5237	70.3125	83.4344	70.3125	84.485	70.3125	83.5197	70.3125	84.4203	70.3125	83.6196	70.3125	84.333	70.3125	83.7326	70.3125	84.2273	70.3125	83.8552	70.3125	84.1085	70.3125	83.9824
73.2422	83.7059	73.2422	83.6233	73.2422	83.8043	73.2422	83.5574	73.2422	83.9164	73.2422	83.5081	73.2422	84.0388	73.2422	83.4743	73.2422	84.1671	73.2422	83.4544	73.2422	84.2957	73.2422	83.4467	73.2422	84.4186	73.2422	83.4493	73.2422	84.5296	73.2422	83.4609	73.2422	84.6227	73.2422	83.4808	73.2422	84.6927	73.2422	83.509	73.2422	84.7357	73.2422	83.5463	73.2422	84.7491	73.2422	83.5943	73.2422	84.7323	73.2422	83.6547	73.2422	84.6864	73.2422	83.7292	73.2422	84.6142	73.2422	83.8186	73.2422	84.5198	73.2422	83.9221	73.2422	84.4086	73.2422	84.0377	73.2422	84.2868	73.2422	84.161
76.1719	84.0214	76.1719	83.9374	76.1719	84.12	76.1719	83.869	76.1719	84.231	76.1719	83.816	76.1719	84.3509	76.1719	83.7773	76.1719	84.4752	76.1719	83.7514	76.1719	84.5982	76.1719	83.7361	76.1719	84.7137	76.1719	83.7296	76.1719	84.8154	76.1719	83.7303	76.1719	84.8972	76.1719	83.7375	76.1719	84.9539	76.1719	83.7513	76.1719	84.9817	76.1719	83.7728	76.1719	84.9784	76.1719	83.8038	76.1719	84.9439	76.1719	83.847	76.1719	84.88	76.1719	83.9049	76.1719	84.7907	76.1719	83.9795	76.1719	84.6811	76.1719	84.0714	76.1719	84.558	76.1719	84.1795	76.1719	84.4287	76.1719	84.3003
79.1016	84.2277	79.1016	84.1427	79.1016	84.3274	79.1016	84.0734	79.1016	84.4396	79.1016	84.0196	79.1016	84.5607	79.1016	83.9803	79.1016	84.6863	79.1016	83.9538	79.1016	84.8108	79.1016	83.9379	79.1016	84.928	79.1016	83.9307	79.1016	85.0314	79.1016	83.9304	79.1016	85.115	79.1016	83.9362	79.1016	85.1731	79.1016	83.948	79.1016	85.2016	79.1016	83.9671	79.1016	85.1979	79.1016	83.9954	79.1016	85.1616	79.1016	84.0358	79.1016	85.0945	79.1016	84.0913	79.1016	85.0005	79.1016	84.1642	79.1016	84.8854	79.1016	84.2557	79.1016	84.7563	79.1016	84.3649	79.1016	84.6214	79.1016	84.4886
82.0313	84.5518	82.0313	84.4639	82.0313	84.6509	82.0313	84.3886	82.0313	84.759	82.0313	84.326	82.0313	84.8727	82.0313	84.2753	82.0313	84.9874	82.0313	84.2353	82.0313	85.0981	82.0313	84.2041	82.0313	85.1989	82.0313	84.18	82.0313	85.2838	82.0313	84.1615	82.0313	85.3473	82.0313	84.1481	82.0313	85.3841	82.0313	84.1401	82.0313	85.3907	82.0313	84.1387	82.0313	85.3648	82.0313	84.1465	82.0313	85.3068	82.0313	84.167	82.0313	85.2191	82.0313	84.2038	82.0313	85.1064	82.0313	84.2603	82.0313	84.9756	82.0313	84.3387	82.0313	84.8349	82.0313	84.439	82.0313	84.6931	82.0313	84.5588
84.9609	84.8023	84.9609	84.7103	84.9609	84.903	84.9609	84.6283	84.9609	85.0097	84.9609	84.5569	84.9609	85.1188	84.9609	84.4953	84.9609	85.2256	84.9609	84.4421	84.9609	85.3248	84.9609	84.3958	84.9609	85.4105	84.9609	84.3544	84.9609	85.4768	84.9609	84.3168	84.9609	85.5182	84.9609	84.2822	84.9609	85.5301	84.9609	84.2511	84.9609	85.5095	84.9609	84.2254	84.9609	85.455	84.9609	84.2082	84.9609	85.3681	84.9609	84.2037	84.9609	85.2525	84.9609	84.2168	84.9609	85.1144	84.9609	84.2523	84.9609	84.9622	84.9609	84.3137	84.9609	84.8055	84.9609	84.4025	84.9609	84.6542	84.9609	84.5175
87.8906	84.844	87.8906	84.7525	87.8906	84.9468	87.8906	84.6737	87.8906	85.0583	87.8906	84.6076	87.8906	85.1748	87.8906	84.5534	87.8906	85.2915	87.8906	84.5096	87.8906	85.403	87.8906	84.4739	87.8906	85.503	87.8906	84.4445	87.8906	85.5853	87.8906	84.4194	87.8906	85.6438	87.8906	84.3979	87.8906	85.6733	87.8906	84.3801	87.8906	85.6698	87.8906	84.3676	87.8906	85.6315	87.8906	84.3633	87.8906	85.559	87.8906	84.3713	87.8906	85.4553	87.8906	84.3963	87.8906	85.3261	87.8906	84.4427	87.8906	85.1796	87.8906	84.5139	87.8906	85.0252	87.8906	84.6111	87.8906	84.873	87.8906	84.7324
90.8203	84.8208	90.8203	84.7286	90.8203	84.9271	90.8203	84.6521	90.8203	85.0448	90.8203	84.5917	90.8203	85.1699	90.8203	84.5466	90.8203	85.2977	90.8203	84.5151	90.8203	85.4227	90.8203	84.495	90.8203	85.5386	90.8203	84.4838	90.8203	85.6392	90.8203	84.4794	90.8203	85.7183	90.8203	84.4803	90.8203	85.7701	90.8203	84.4861	90.8203	85.7903	90.8203	84.4975	90.8203	85.776	90.8203	84.5168	90.8203	85.7267	90.8203	84.547	90.8203	85.6446	90.8203	84.5922	90.8203	85.5341	90.8203	84.6558	90.8203	85.4026	90.8203	84.7406	90.8203	85.2588	90.8203	84.8469	90.8203	85.1124	90.8203	84.9725
93.75	85.3307	93.75	85.2426	93.75	85.4239	93.75	85.1615	93.75	85.5197	93.75	85.0883	93.75	85.6148	93.75	85.0232	93.75	85.7055	93.75	84.9656	93.75	85.7878	93.75	84.9143	93.75	85.8573	93.75	84.868	93.75	85.9096	93.75	84.8255	93.75	85.9402	93.75	84.7863	93.75	85.9452	93.75	84.7507	93.75	85.9215	93.75	84.7204	93.75	85.8676	93.75	84.6982	93.75	85.7837	93.75	84.6882	93.75	85.6729	93.75	84.6952	93.75	85.5404	93.75	84.7239	93.75	85.394	93.75	84.7782	93.75	85.2433	93.75	84.8599	93.75	85.0982	93.75	84.968
96.6797	85.4049	96.6797	85.3009	96.6797	85.5146	96.6797	85.2049	96.6797	85.6271	96.6797	85.1179	96.6797	85.7385	96.6797	85.04	96.6797	85.8443	96.6797	84.9705	96.6797	85.9398	96.6797	84.9078	96.6797	86.0197	96.6797	84.8505	96.6797	86.0787	96.6797	84.7974	96.6797	86.1119	96.6797	84.7479	96.6797	86.1147	96.6797	84.7026	96.6797	86.0837	96.6797	84.6636	96.6797	86.0171	96.6797	84.6344	96.6797	85.9156	96.6797	84.62	96.6797	85.7826	96.6797	84.6261	96.6797	85.6245	96.6797	84.6585	96.6797	85.4504	96.6797	84.7217	96.6797	85.2715	96.6797	84.8178	96.6797	85.0995	96.6797	84.9454
102.539	85.7133	102.539	85.6083	102.539	85.8218	102.539	85.5097	102.539	85.9303	102.539	85.4193	102.539	86.0346	102.539	85.3378	102.539	86.1304	102.539	85.265	102.539	86.213	102.539	85.1998	102.539	86.2779	102.539	85.1407	102.539	86.3211	102.539	85.0864	102.539	86.3384	102.539	85.0361	102.539	86.3267	102.539	84.9899	102.539	86.2837	102.539	84.9496	102.539	86.2085	102.539	84.9182	102.539	86.1023	102.539	84.9002	102.539	85.969	102.539	84.9008	102.539	85.8147	102.539	84.9257	102.539	85.6481	102.539	84.9792	102.539	85.4795	102.539	85.0638	102.539	85.3198	102.539	85.1787
105.469	85.7937	105.469	85.6867	105.469	85.9027	105.469	85.5848	105.469	86.0099	105.469	85.4902	105.469	86.111	105.469	85.4039	105.469	86.2019	105.469	85.326	105.469	86.278	105.469	85.2557	105.469	86.3353	105.469	85.1917	105.469	86.3699	105.469	85.1328	105.469	86.3785	105.469	85.0781	105.469	86.3581	105.469	85.0279	105.469	86.307	105.469	84.9838	105.469	86.2248	105.469	84.9486	105.469	86.113	105.469	84.9268	105.469	85.9754	105.469	84.9235	105.469	85.8183	105.469	84.9443	105.469	85.6506	105.469	84.9938	105.469	85.4823	105.469	85.0744	105.469	85.3242	105.469	85.1859
108.398	85.9464	108.398	85.8381	108.398	86.0554	108.398	85.7336	108.398	86.1609	108.398	85.6356	108.398	86.2588	108.398	85.5455	108.398	86.3447	108.398	85.4637	108.398	86.4147	108.398	85.3896	108.398	86.4649	108.398	85.3224	108.398	86.492	108.398	85.2608	108.398	86.4931	108.398	85.2042	108.398	86.466	108.398	85.1526	108.398	86.4092	108.398	85.1075	108.398	86.3228	108.398	85.0715	108.398	86.2085	108.398	85.0488	108.398	86.0701	108.398	85.0444	108.398	85.914	108.398	85.0634	108.398	85.7485	108.398	85.1102	108.398	85.5836	108.398	85.1876	108.398	85.4294	108.398	85.2952
111.328	86.0926	111.328	85.9815	111.328	86.203	111.328	85.8734	111.328	86.3086	111.328	85.7708	111.328	86.4051	111.328	85.6756	111.328	86.4883	111.328	85.5883	111.328	86.5541	111.328	85.5087	111.328	86.599	111.328	85.436	111.328	86.6199	111.328	85.3692	111.328	86.6142	111.328	85.3077	111.328	86.58	111.328	85.2518	111.328	86.5164	111.328	85.2029	111.328	86.4236	111.328	85.1638	111.328	86.3035	111.328	85.1384	111.328	86.1603	111.328	85.1317	111.328	86.0004	111.328	85.1488	111.328	85.8323	111.328	85.1941	111.328	85.6658	111.328	85.2702	111.328	85.511	111.328	85.377
117.188	86.2801	117.188	86.1666	117.188	86.3908	117.188	86.0547	117.188	86.494	117.188	85.9479	117.188	86.5853	117.188	85.8484	117.188	86.6602	117.188	85.7576	117.188	86.7154	117.188	85.6755	117.188	86.7478	117.188	85.6013	117.188	86.7554	117.188	85.5339	117.188	86.7367	117.188	85.4724	117.188	86.6908	117.188	85.4168	117.188	86.6178	117.188	85.3681	117.188	86.5187	117.188	85.3285	117.188	86.3959	117.188	85.3018	117.188	86.2535	117.188	85.2923	117.188	86.0977	117.188	85.305	117.188	85.9364	117.188	85.3441	117.188	85.7787	117.188	85.4122	117.188	85.6338	117.188	85.5097
120.117	86.4354	120.117	86.32	120.117	86.5454	120.117	86.2039	120.117	86.6453	120.117	86.0909	120.117	86.7305	120.117	85.9839	120.117	86.7969	120.117	85.8848	120.117	86.841	120.117	85.7942	120.117	86.8603	120.117	85.7117	120.117	86.853	120.117	85.6366	120.117	86.8182	120.117	85.5682	120.117	86.7559	120.117	85.5063	120.117	86.667	120.117	85.4519	120.117	86.5535	120.117	85.4067	120.117	86.4188	120.117	85.374	120.117	86.268	120.117	85.3579	120.117	86.1077	120.117	85.3628	120.117	85.9462	120.117	85.3929	120.117	85.7922	120.117	85.4513	120.117	85.6541	120.117	85.5389
125.977	86.4644	125.977	86.3447	125.977	86.5764	125.977	86.2215	125.977	86.6761	125.977	86.0985	125.977	86.7594	125.977	85.9787	125.977	86.8226	125.977	85.8641	125.977	86.8628	125.977	85.7558	125.977	86.8776	125.977	85.6544	125.977	86.8657	125.977	85.5602	125.977	86.8262	125.977	85.4737	125.977	86.759	125.977	85.3958	125.977	86.6646	125.977	85.3286	125.977	86.5444	125.977	85.2745	125.977	86.4013	125.977	85.2372	125.977	86.24	125.977	85.2208	125.977	86.0669	125.977	85.2296	125.977	85.8908	125.977	85.2673	125.977	85.721	125.977	85.3363	125.977	85.5672	125.977	85.4371
128.906	86.4651	128.906	86.3418	128.906	86.5787	128.906	86.2133	128.906	86.6779	128.906	86.0835	128.906	86.7581	128.906	85.9553	128.906	86.8153	128.906	85.8304	128.906	86.8463	128.906	85.7098	128.906	86.8489	128.906	85.5937	128.906	86.8218	128.906	85.4824	128.906	86.7647	128.906	85.3764	128.906	86.6778	128.906	85.2774	128.906	86.5626	128.906	85.1878	128.906	86.4212	128.906	85.1116	128.906	86.2571	128.906	85.0534	128.906	86.0755	128.906	85.0188	128.906	85.8838	128.906	85.0132	128.906	85.6911	128.906	85.0412	128.906	85.5075	128.906	85.1058	128.906	85.3434	128.906	85.2075
134.766	86.1327	134.766	85.9981	134.766	86.2605	134.766	85.8621	134.766	86.3757	134.766	85.7295	134.766	86.4732	134.766	85.6041	134.766	86.5486	134.766	85.4879	134.766	86.5987	134.766	85.3821	134.766	86.6214	134.766	85.2863	134.766	86.6156	134.766	85.2001	134.766	86.5811	134.766	85.1232	134.766	86.5184	134.766	85.0558	134.766	86.4284	134.766	84.9993	134.766	86.3126	134.766	84.9562	134.766	86.1735	134.766	84.9302	134.766	86.015	134.766	84.9254	134.766	85.843	134.766	84.9462	134.766	85.6652	134.766	84.9962	134.766	85.4909	134.766	85.0775	134.766	85.3296	134.766	85.1897
137.695	86.0966	137.695	85.9532	137.695	86.2314	137.695	85.8077	137.695	86.3516	137.695	85.666	137.695	86.4515	137.695	85.5326	137.695	86.5268	137.695	85.411	137.695	86.5746	137.695	85.3027	137.695	86.5934	137.695	85.2083	137.695	86.5832	137.695	85.1276	137.695	86.5449	137.695	85.06	137.695	86.4803	137.695	85.0056	137.695	86.3914	137.695	84.965	137.695	86.2804	137.695	84.9397	137.695	86.1502	137.695	84.9319	137.695	86.004	137.695	84.9444	137.695	85.8466	137.695	84.9799	137.695	85.6841	137.695	85.0405	137.695	85.5237	137.695	85.1272	137.695	85.373	137.695	85.2391
143.555	86.1354	143.555	85.9751	143.555	86.2817	143.555	85.8082	143.555	86.4071	143.555	85.6418	143.555	86.5057	143.555	85.4822	143.555	86.573	143.555	85.3342	143.555	86.6065	143.555	85.2011	143.555	86.605	143.555	85.0847	143.555	86.5694	143.555	84.9856	143.555	86.502	143.555	84.9039	143.555	86.4061	143.555	84.8398	143.555	86.2858	143.555	84.7934	143.555	86.1456	143.555	84.7656	143.555	85.9904	143.555	84.7573	143.555	85.8251	143.555	84.7701	143.555	85.6554	143.555	84.8051	143.555	85.4873	143.555	84.8636	143.555	85.3269	143.555	84.9461	143.555	85.1803	143.555	85.0522
149.414	86.0328	149.414	85.8645	149.414	86.1821	149.414	85.6844	149.414	86.3059	149.414	85.5003	149.414	86.3991	149.414	85.3193	149.414	86.4582	149.414	85.1477	149.414	86.4816	149.414	84.9902	149.414	86.4693	149.414	84.8504	149.414	86.423	149.414	84.7304	149.414	86.3453	149.414	84.6315	149.414	86.2398	149.414	84.5545	149.414	86.1103	149.414	84.5001	149.414	85.961	149.414	84.4688	149.414	85.7959	149.414	84.4611	149.414	85.6201	149.414	84.4776	149.414	85.439	149.414	84.5187	149.414	85.2592	149.414	84.5847	149.414	85.0872	149.414	84.6758	149.414	84.9296	149.414	84.7913
155.273	86.0525	155.273	85.8825	155.273	86.1976	155.273	85.6948	155.273	86.3116	155.273	85.497	155.273	86.39	155.273	85.2967	155.273	86.4299	155.273	85.1009	155.273	86.4306	155.273	84.9157	155.273	86.3934	155.273	84.7463	155.273	86.3215	155.273	84.597	155.273	86.2196	155.273	84.471	155.273	86.0933	155.273	84.3712	155.273	85.9481	155.273	84.2996	155.273	85.7889	155.273	84.2575	155.273	85.6196	155.273	84.2454	155.273	85.4437	155.273	84.2632	155.273	85.2645	155.273	84.3098	155.273	85.0862	155.273	84.3841	155.273	84.9138	155.273	84.4843	155.273	84.7528	155.273	84.6082
158.203	86.0472	158.203	85.87	158.203	86.1984	158.203	85.6743	158.203	86.3174	158.203	85.4681	158.203	86.399	158.203	85.2592	158.203	86.4402	158.203	85.0549	158.203	86.4398	158.203	84.8617	158.203	86.3991	158.203	84.6851	158.203	86.3214	158.203	84.5297	158.203	86.2119	158.203	84.3993	158.203	86.0769	158.203	84.2971	158.203	85.9233	158.203	84.2252	158.203	85.7569	158.203	84.185	158.203	85.5824	158.203	84.1768	158.203	85.4036	158.203	84.1998	158.203	85.2235	158.203	84.2525	158.203	85.0455	158.203	84.3327	158.203	84.8736	158.203	84.438	158.203	84.7121	158.203	84.5656
164.063	86.191	164.063	86.0112	164.063	86.34	164.063	85.8078	164.063	86.4516	164.063	85.5886	164.063	86.5206	164.063	85.3613	164.063	86.5436	164.063	85.1333	164.063	86.5194	164.063	84.9116	164.063	86.4489	164.063	84.7027	164.063	86.3361	164.063	84.513	164.063	86.1871	164.063	84.3484	164.063	86.0104	164.063	84.2144	164.063	85.8157	164.063	84.1153	164.063	85.6122	164.063	84.0537	164.063	85.4082	164.063	84.0303	164.063	85.2095	164.063	84.0436	164.063	85.0199	164.063	84.09	164.063	84.8414	164.063	84.1654	164.063	84.6752	164.063	84.2651	164.063	84.5226	164.063	84.3852
169.922	85.5356	169.922	85.38	169.922	85.6672	169.922	85.2071	169.922	85.769	169.922	85.0238	169.922	85.8362	169.922	84.8364	169.922	85.866	169.922	84.6506	169.922	85.8572	169.922	84.4711	169.922	85.8107	169.922	84.3022	169.922	85.7291	169.922	84.1475	169.922	85.6163	169.922	84.0109	169.922	85.4776	169.922	83.8962	169.922	85.3185	169.922	83.807	169.922	85.1448	169.922	83.7461	169.922	84.9622	169.922	83.715	169.922	84.7761	169.922	83.7138	169.922	84.5921	169.922	83.7415	169.922	84.4158	169.922	83.7963	169.922	84.2523	169.922	83.8763	169.922	84.106	169.922	83.98
175.781	85.4583	175.781	85.2905	175.781	85.5951	175.781	85.1002	175.781	85.6937	175.781	84.8968	175.781	85.7495	175.781	84.6902	175.781	85.7601	175.781	84.4896	175.781	85.7263	175.781	84.3032	175.781	85.6519	175.781	84.1381	175.781	85.5436	175.781	84.0001	175.781	85.4111	175.781	83.8935	175.781	85.265	175.781	83.8211	175.781	85.1159	175.781	83.7837	175.781	84.9722	175.781	83.78	175.781	84.8385	175.781	83.8064	175.781	84.7158	175.781	83.8577	175.781	84.6024	175.781	83.9277	175.781	84.4958	175.781	84.0104	175.781	84.3934	175.781	84.101	175.781	84.2936	175.781	84.196
181.641	85.3672	181.641	85.17	181.641	85.5295	181.641	84.9462	181.641	85.6499	181.641	84.7051	181.641	85.723	181.641	84.4566	181.641	85.7459	181.641	84.2105	181.641	85.7178	181.641	83.9764	181.641	85.6407	181.641	83.7631	181.641	85.5197	181.641	83.579	181.641	85.3625	181.641	83.4313	181.641	85.1795	181.641	83.325	181.641	84.9818	181.641	83.2628	181.641	84.7807	181.641	83.2438	181.641	84.5853	181.641	83.2639	181.641	84.4017	181.641	83.316	181.641	84.2331	181.641	83.3919	181.641	84.08	181.641	83.4839	181.641	83.9411	181.641	83.5864	181.641	83.8142	181.641	83.6965
190.43	85.154	190.43	84.9567	190.43	85.3112	190.43	84.7278	190.43	85.4212	190.43	84.4766	190.43	85.4787	190.43	84.2125	190.43	85.4808	190.43	83.9447	190.43	85.4278	190.43	83.6825	190.43	85.3228	190.43	83.4353	190.43	85.1726	190.43	83.2126	190.43	84.987	190.43	83.0242	190.43	84.7782	190.43	82.8793	190.43	84.5591	190.43	82.7841	190.43	84.3415	190.43	82.7411	190.43	84.1345	190.43	82.7475	190.43	83.9432	190.43	82.7957	190.43	83.7692	190.43	82.8753	190.43	83.6116	190.43	82.9758	190.43	83.4677	190.43	83.0885	190.43	83.3344	190.43	83.2084
196.289	85.0837	196.289	84.8906	196.289	85.2322	196.289	84.6624	196.289	85.329	196.289	84.4097	196.289	85.3698	196.289	84.1441	196.289	85.3532	196.289	83.8772	196.289	85.2812	196.289	83.6199	196.289	85.1595	196.289	83.3828	196.289	84.9969	196.289	83.1755	196.289	84.8051	196.289	83.0063	196.289	84.5972	196.289	82.8818	196.289	84.386	196.289	82.8053	196.289	84.1816	196.289	82.776	196.289	83.9906	196.289	82.7886	196.289	83.8163	196.289	82.8346	196.289	83.659	196.289	82.9038	196.289	83.5182	196.289	82.9871	196.289	83.3924	196.289	83.0785	196.289	83.2792	196.289	83.1755
202.148	85.0651	202.148	84.8568	202.148	85.219	202.148	84.6032	202.148	85.3121	202.148	84.3154	202.148	85.3411	202.148	84.0065	202.148	85.3056	202.148	83.691	202.148	85.2089	202.148	83.3845	202.148	85.058	202.148	83.1026	202.148	84.8641	202.148	82.8607	202.148	84.6415	202.148	82.6719	202.148	84.4069	202.148	82.5452	202.148	84.1764	202.148	82.4832	202.148	83.9625	202.148	82.4813	202.148	83.7722	202.148	82.5284	202.148	83.6066	202.148	82.6095	202.148	83.4632	202.148	82.7092	202.148	83.3376	202.148	82.815	202.148	83.2253	202.148	82.9196	202.148	83.1214	202.148	83.021
210.938	84.9772	210.938	84.7725	210.938	85.1233	210.938	84.5152	210.938	85.2069	210.938	84.2124	210.938	85.2256	210.938	83.8731	210.938	85.1798	210.938	83.5081	210.938	85.0729	210.938	83.1311	210.938	84.9125	210.938	82.7591	210.938	84.7106	210.938	82.4126	210.938	84.4835	210.938	82.1145	210.938	84.2496	210.938	81.8869	210.938	84.0256	210.938	81.7457	210.938	83.8217	210.938	81.6969	210.938	83.6391	210.938	81.7336	210.938	83.4709	210.938	81.8396	210.938	83.3067	210.938	81.9938	210.938	83.1374	210.938	82.1766	210.938	82.9583	210.938	82.3729	210.938	82.7691	210.938	82.5725
216.797	84.7633	216.797	84.5856	216.797	84.8858	216.797	84.3596	216.797	84.9475	216.797	84.0929	216.797	84.9446	216.797	83.7941	216.797	84.8763	216.797	83.4729	216.797	84.7455	216.797	83.1405	216.797	84.5604	216.797	82.8114	216.797	84.3352	216.797	82.503	216.797	84.0904	216.797	82.2356	216.797	83.8502	216.797	82.0293	216.797	83.6375	216.797	81.9003	216.797	83.4668	216.797	81.8559	216.797	83.339	216.797	81.892	216.797	83.2423	216.797	81.9945	216.797	83.1578	216.797	82.1432	216.797	83.0674	216.797	82.317	216.797	82.9585	216.797	82.4974	216.797	82.8259	216.797	82.6703
225.586	84.7923	225.586	84.6041	225.586	84.9149	225.586	84.3585	225.586	84.9645	225.586	84.0642	225.586	84.9356	225.586	83.7311	225.586	84.8253	225.586	83.37	225.586	84.6347	225.586	82.9945	225.586	84.3711	225.586	82.6223	225.586	84.0505	225.586	82.2757	225.586	83.6994	225.586	81.9808	225.586	83.3545	225.586	81.7638	225.586	83.0563	225.586	81.6437	225.586	82.8374	225.586	81.6261	225.586	82.7091	225.586	81.6999	225.586	82.6575	225.586	81.8406	225.586	82.6513	225.586	82.0177	225.586	82.6554	225.586	82.2013	225.586	82.6418	225.586	82.3678	225.586	82.5928	225.586	82.5011
234.375	84.8234	234.375	84.6133	234.375	84.9742	234.375	84.3524	234.375	85.057	234.375	84.049	234.375	85.0635	234.375	83.7106	234.375	84.9872	234.375	83.345	234.375	84.8237	234.375	82.9618	234.375	84.573	234.375	82.5742	234.375	84.2413	234.375	82.201	234.375	83.8451	234.375	81.8668	234.375	83.4133	234.375	81.5992	234.375	82.9874	234.375	81.4223	234.375	82.6149	234.375	81.348	234.375	82.3344	234.375	81.3709	234.375	82.1609	234.375	81.4684	234.375	82.0799	234.375	81.608	234.375	82.0569	234.375	81.7563	234.375	82.0521	234.375	81.886	234.375	82.0332	234.375	81.9802
240.234	84.5121	240.234	84.2877	240.234	84.6793	240.234	84.0164	240.234	84.7792	240.234	83.7079	240.234	84.8027	240.234	83.3711	240.234	84.7427	240.234	83.0142	240.234	84.595	240.234	82.6461	240.234	84.3598	240.234	82.2791	240.234	84.0441	240.234	81.9302	240.234	83.6643	240.234	81.6222	240.234	83.2487	240.234	81.3805	240.234	82.8368	240.234	81.227	240.234	82.4729	240.234	81.1715	240.234	82.1929	240.234	81.2069	240.234	82.0118	240.234	81.31	240.234	81.9183	240.234	81.4489	240.234	81.8827	240.234	81.5916	240.234	81.8697	240.234	81.7133	240.234	81.8489	240.234	81.7999
249.023	84.4869	249.023	84.2062	249.023	84.6982	249.023	83.8664	249.023	84.8306	249.023	83.4781	249.023	84.8766	249.023	83.0523	249.023	84.8299	249.023	82.5999	249.023	84.6871	249.023	82.1337	249.023	84.4475	249.023	81.6701	249.023	84.1153	249.023	81.2321	249.023	83.7024	249.023	80.849	249.023	83.2307	249.023	80.5534	249.023	82.7346	249.023	80.3716	249.023	82.2584	249.023	80.3131	249.023	81.8475	249.023	80.3641	249.023	81.5343	249.023	80.4913	249.023	81.3271	249.023	80.6534	249.023	81.2084	249.023	80.8129	249.023	81.1444	249.023	80.9444	249.023	81.0978	249.023	81.0376
257.813	84.4955	257.813	84.2564	257.813	84.6722	257.813	83.9632	257.813	84.7789	257.813	83.6236	257.813	84.8084	257.813	83.2448	257.813	84.7554	257.813	82.8339	257.813	84.6165	257.813	82.3993	257.813	84.3913	257.813	81.954	257.813	84.0844	257.813	81.5179	257.813	83.7077	257.813	81.12	257.813	83.2832	257.813	80.7952	257.813	82.8437	257.813	80.5768	257.813	82.4291	257.813	80.4839	257.813	82.0776	257.813	80.5117	257.813	81.8128	257.813	80.6326	257.813	81.6356	257.813	80.8056	257.813	81.5255	257.813	80.9898	257.813	81.4508	257.813	81.1549	257.813	81.379	257.813	81.2848
266.602	83.986	266.602	83.6929	266.602	84.2126	266.602	83.3432	266.602	84.3638	266.602	82.9471	266.602	84.4327	266.602	82.5148	266.602	84.4135	266.602	82.056	266.602	84.3027	266.602	81.581	266.602	84.0986	266.602	81.1039	266.602	83.8028	266.602	80.6459	266.602	83.4228	266.602	80.2382	266.602	82.9745	266.602	79.9188	266.602	82.4855	266.602	79.7236	266.602	81.9956	266.602	79.6702	266.602	81.5513	266.602	79.7471	266.602	81.1941	266.602	79.9159	266.602	80.9453	266.602	80.1248	266.602	80.7977	266.602	80.3264	266.602	80.7194	266.602	80.4884	266.602	80.6667	266.602	80.5989
278.32	83.9489	278.32	83.7644	278.32	84.0571	278.32	83.5062	278.32	84.0872	278.32	83.1776	278.32	84.039	278.32	82.7827	278.32	83.9148	278.32	82.3278	278.32	83.7204	278.32	81.8246	278.32	83.4661	278.32	81.2935	278.32	83.1672	278.32	80.7678	278.32	82.8439	278.32	80.294	278.32	82.518	278.32	79.9254	278.32	82.2084	278.32	79.7054	278.32	81.9262	278.32	79.6486	278.32	81.673	278.32	79.7317	278.32	81.445	278.32	79.9047	278.32	81.2394	278.32	80.1126	278.32	81.0571	278.32	80.3132	278.32	80.8997	278.32	80.4858	278.32	80.7622	278.32	80.6306
287.109	83.9428	287.109	83.7618	287.109	84.0523	287.109	83.5142	287.109	84.0838	287.109	83.202	287.109	84.0311	287.109	82.8243	287.109	83.8899	287.109	82.3792	287.109	83.66	287.109	81.8677	287.109	83.3477	287.109	81.3	287.109	82.9691	287.109	80.7025	287.109	82.5521	287.109	80.1239	287.109	82.1363	287.109	79.6342	287.109	81.7653	287.109	79.3076	287.109	81.4715	287.109	79.1901	287.109	81.2627	287.109	79.2722	287.109	81.1209	287.109	79.4948	287.109	81.0155	287.109	79.7812	287.109	80.9189	287.109	80.0684	287.109	80.8126	287.109	80.3199	287.109	80.6846	287.109	80.5239
295.898	83.9217	295.898	83.697	295.898	84.0784	295.898	83.4139	295.898	84.156	295.898	83.0779	295.898	84.1436	295.898	82.6886	295.898	84.0331	295.898	82.2403	295.898	83.8204	295.898	81.7261	295.898	83.5077	295.898	81.1439	295.898	83.1073	295.898	80.5059	295.898	82.6455	295.898	79.8487	295.898	82.1656	295.898	79.2405	295.898	81.7229	295.898	78.7748	295.898	81.3673	295.898	78.5374	295.898	81.1208	295.898	78.5586	295.898	80.966	295.898	78.7922	295.898	80.8596	295.898	79.1466	295.898	80.756	295.898	79.5331	295.898	80.6223	295.898	79.8928	295.898	80.4393	295.898	80.1973
307.617	83.6985	307.617	83.5044	307.617	83.8317	307.617	83.2631	307.617	83.8897	307.617	82.9842	307.617	83.8598	307.617	82.6706	307.617	83.7323	307.617	82.3177	307.617	83.5008	307.617	81.9164	307.617	83.1641	307.617	81.4593	307.617	82.7287	307.617	80.9478	307.617	82.2136	307.617	80.4014	307.617	81.6567	307.617	79.8633	307.617	81.1168	307.617	79.3997	307.617	80.663	307.617	79.0836	307.617	80.3491	307.617	78.9629	307.617	80.1849	307.617	79.0326	307.617	80.1334	307.617	79.2365	307.617	80.1331	307.617	79.4975	307.617	80.1258	307.617	79.7482	307.617	80.0704	307.617	79.9454
319.336	83.5368	319.336	83.3227	319.336	83.6864	319.336	83.061	319.336	83.7543	319.336	82.7647	319.336	83.7256	319.336	82.4392	319.336	83.5884	319.336	82.0806	319.336	83.3346	319.336	81.6784	319.336	82.9604	319.336	81.222	319.336	82.4689	319.336	80.7089	319.336	81.8742	319.336	80.1539	319.336	81.2084	319.336	79.5951	319.336	80.5256	319.336	79.0935	319.336	79.8986	319.336	78.7183	319.336	79.3995	319.336	78.5174	319.336	79.0711	319.336	78.4888	319.336	78.9092	319.336	78.5806	319.336	78.8699	319.336	78.7192	319.336	78.8928	319.336	78.8413	319.336	78.9204	319.336	78.9103
331.055	83.0669	331.055	82.8038	331.055	83.2747	331.055	82.5094	331.055	83.4068	331.055	82.2048	331.055	83.4486	331.055	81.9007	331.055	83.3921	331.055	81.5927	331.055	83.2339	331.055	81.2628	331.055	82.9749	331.055	80.8888	331.055	82.6192	331.055	80.4548	331.055	82.1749	331.055	79.962	331.055	81.6547	331.055	79.435	331.055	81.0773	331.055	78.9235	331.055	80.4678	331.055	78.4922	331.055	79.8589	331.055	78.1967	331.055	79.2927	331.055	78.0538	331.055	78.8177	331.055	78.0322	331.055	78.4748	331.055	78.0719	331.055	78.2745	331.055	78.1188	331.055	78.1854	331.055	78.1505
342.773	83.0828	342.773	82.673	342.773	83.3596	342.773	82.1621	342.773	83.486	342.773	81.5984	342.773	83.4565	342.773	81.0417	342.773	83.2745	342.773	80.5486	342.773	82.9538	342.773	80.1516	342.773	82.5216	342.773	79.8478	342.773	82.0227	342.773	79.6065	342.773	81.5211	342.773	79.391	342.773	81.0863	342.773	79.1766	342.773	80.7631	342.773	78.9582	342.773	80.5417	342.773	78.7475	342.773	80.3622	342.773	78.5643	342.773	80.1527	342.773	78.4272	342.773	79.8707	342.773	78.3483	342.773	79.5202	342.773	78.3357	342.773	79.1459	342.773	78.3995	342.773	78.8084	342.773	78.5544
354.492	84.8207	354.492	84.4878	354.492	85.0127	354.492	84.0237	354.492	85.0571	354.492	83.4421	354.492	84.9481	354.492	82.763	354.492	84.6809	354.492	82.0148	354.492	84.2516	354.492	81.2379	354.492	83.6605	354.492	80.4875	354.492	82.9205	354.492	79.8339	354.492	82.074	354.492	79.3515	354.492	81.2175	354.492	79.0955	354.492	80.5117	354.492	79.0752	354.492	80.1223	354.492	79.2485	354.492	80.0953	354.492	79.5424	354.492	80.3112	354.492	79.8827	354.492	80.594	354.492	80.2129	354.492	80.8202	354.492	80.4984	354.492	80.9409	354.492	80.7224	354.492	80.9547	354.492	80.8772
366.211	84.6387	366.211	84.3713	366.211	84.7917	366.211	83.9975	366.211	84.8233	366.211	83.5248	366.211	84.7279	366.211	82.9597	366.211	84.5007	366.211	82.3078	366.211	84.1385	366.211	81.5776	366.211	83.64	366.211	80.7882	366.211	83.0101	366.211	79.9805	366.211	82.2691	366.211	79.2289	366.211	81.4667	366.211	78.6394	366.211	80.6939	366.211	78.3148	366.211	80.0707	366.211	78.294	366.211	79.69	366.211	78.5192	366.211	79.5564	366.211	78.873	366.211	79.5909	366.211	79.2409	366.211	79.6954	366.211	79.5458	366.211	79.799	366.211	79.7511	366.211	79.8601	366.211	79.8514
377.93	84.5506	377.93	84.2928	377.93	84.7092	377.93	83.9479	377.93	84.7574	377.93	83.5269	377.93	84.6861	377.93	83.0358	377.93	84.4868	377.93	82.4744	377.93	84.1512	377.93	81.8385	377.93	83.6712	377.93	81.1291	377.93	83.0442	377.93	80.3661	377.93	82.2852	377.93	79.6049	377.93	81.4502	377.93	78.9471	377.93	80.6608	377.93	78.521	377.93	80.091	377.93	78.4171	377.93	79.8669	377.93	78.6194	377.93	79.9533	377.93	79.0157	377.93	80.1882	377.93	79.4725	377.93	80.4143	377.93	79.8924	377.93	80.5459	377.93	80.224	377.93	80.5568	377.93	80.4477
392.578	83.7714	392.578	83.5341	392.578	83.9381	392.578	83.2356	392.578	84.0233	392.578	82.8827	392.578	84.0155	392.578	82.4769	392.578	83.903	392.578	82.0139	392.578	83.6735	392.578	81.4861	392.578	83.314	392.578	80.8889	392.578	82.813	392.578	80.2314	392.578	82.1656	392.578	79.5484	392.578	81.3871	392.578	78.9104	392.578	80.5352	392.578	78.4184	392.578	79.7303	392.578	78.1674	392.578	79.1367	392.578	78.1879	392.578	78.8711	392.578	78.42	392.578	78.9069	392.578	78.7523	392.578	79.1031	392.578	79.0779	392.578	79.3128	392.578	79.3233	392.578	79.4424	392.578	79.4493
407.227	83.134	407.227	82.8572	407.227	83.3296	407.227	82.5112	407.227	83.4313	407.227	82.1036	407.227	83.4275	407.227	81.6343	407.227	83.3077	407.227	81.0952	407.227	83.0625	407.227	80.4768	407.227	82.6821	407.227	79.7807	407.227	82.1581	407.227	79.0391	407.227	81.4901	407.227	78.3341	407.227	80.7035	407.227	77.8018	407.227	79.8787	407.227	77.5854	407.227	79.1751	407.227	77.7383	407.227	78.7888	407.227	78.1754	407.227	78.8118	407.227	78.7397	407.227	79.1395	407.227	79.2925	407.227	79.5685	407.227	79.7464	407.227	79.9351	407.227	80.0548	407.227	80.1538	407.227	80.1944
421.875	83.4701	421.875	83.101	421.875	83.7688	421.875	82.6966	421.875	83.9712	421.875	82.2887	421.875	84.0629	421.875	81.8894	421.875	84.039	421.875	81.4787	421.875	83.8994	421.875	81.0094	421.875	83.6434	421.875	80.4255	421.875	83.2644	421.875	79.6847	421.875	82.7472	421.875	78.7833	421.875	82.0701	421.875	77.791	421.875	81.2178	421.875	76.8979	421.875	80.2104	421.875	76.4061	421.875	79.1577	421.875	76.5282	421.875	78.3106	421.875	77.1508	421.875	77.9704	421.875	77.9514	421.875	78.1868	421.875	78.658	421.875	78.6727	421.875	79.119	421.875	79.0966	421.875	79.2676
436.523	83.6427	436.523	83.4439	436.523	83.7236	436.523	83.147	436.523	83.6767	436.523	82.7782	436.523	83.5038	436.523	82.36	436.523	83.2168	436.523	81.902	436.523	82.838	436.523	81.3964	436.523	82.3985	436.523	80.8267	436.523	81.9361	436.523	80.184	436.523	81.488	436.523	79.4903	436.523	81.0774	436.523	78.8185	436.523	80.6982	436.523	78.2955	436.523	80.3138	436.523	78.0552	436.523	79.8847	436.523	78.1426	436.523	79.4159	436.523	78.4648	436.523	78.9946	436.523	78.8533	436.523	78.761	436.523	79.156	436.523	78.7893	436.523	79.281	436.523	78.9964	436.523	79.2079
451.172	83.8318	451.172	83.6486	451.172	83.8932	451.172	83.3766	451.172	83.8122	451.172	83.0518	451.172	83.5817	451.172	82.6971	451.172	83.2062	451.172	82.3074	451.172	82.6998	451.172	81.8487	451.172	82.0863	451.172	81.2743	451.172	81.4031	451.172	80.5479	451.172	80.7057	451.172	79.6698	451.172	80.0629	451.172	78.7073	451.172	79.5277	451.172	77.8281	451.172	79.0962	451.172	77.2801	451.172	78.7104	451.172	77.2299	451.172	78.3273	451.172	77.5864	451.172	77.9955	451.172	78.082	451.172	77.8476	451.172	78.4768	451.172	77.9679	451.172	78.6407	451.172	78.2675	451.172	78.5472
465.82	83.675	465.82	83.4647	465.82	83.7743	465.82	83.1774	465.82	83.7376	465.82	82.8458	465.82	83.5506	465.82	82.4853	465.82	83.207	465.82	82.0823	465.82	82.7048	465.82	81.5993	465.82	82.047	465.82	80.9942	465.82	81.2493	465.82	80.2435	465.82	80.3645	465.82	79.3678	465.82	79.5185	465.82	78.4588	465.82	78.908	465.82	77.6964	465.82	78.6735	465.82	77.2939	465.82	78.7416	465.82	77.3365	465.82	78.8908	465.82	77.6893	465.82	78.9526	465.82	78.1214	465.82	78.8978	465.82	78.4621	465.82	78.7992	465.82	78.6485	465.82	78.7361	465.82	78.7112
483.398	83.3753	483.398	83.0562	483.398	83.5687	483.398	82.6624	483.398	83.6145	483.398	82.2658	483.398	83.5115	483.398	81.926	483.398	83.2682	483.398	81.6472	483.398	82.893	483.398	81.3673	483.398	82.39	483.398	80.9929	483.398	81.7579	483.398	80.4434	483.398	80.9979	483.398	79.6807	483.398	80.1303	483.398	78.731	483.398	79.2172	483.398	77.7212	483.398	78.3724	483.398	76.9092	483.398	77.7337	483.398	76.588	483.398	77.4	483.398	76.8173	483.398	77.3812	483.398	77.3489	483.398	77.5997	483.398	77.8808	483.398	77.9233	483.398	78.2306	483.398	78.208	483.398	78.3347
500.977	83.3544	500.977	82.9256	500.977	83.6367	500.977	82.3975	500.977	83.7548	500.977	81.8502	500.977	83.7072	500.977	81.3698	500.977	83.4971	500.977	80.9954	500.977	83.1275	500.977	80.6858	500.977	82.6001	500.977	80.3451	500.977	81.9184	500.977	79.8813	500.977	81.1012	500.977	79.2486	500.977	80.2136	500.977	78.4741	500.977	79.3986	500.977	77.6835	500.977	78.8419	500.977	77.1037	500.977	78.6301	500.977	76.9548	500.977	78.6687	500.977	77.2543	500.977	78.7983	500.977	77.7978	500.977	78.9244	500.977	78.347	500.977	79.0175	500.977	78.7579	500.977	79.0542	500.977	78.9859
518.555	82.9974	518.555	82.5748	518.555	83.237	518.555	82.0079	518.555	83.2941	518.555	81.3911	518.555	83.191	518.555	80.8631	518.555	82.9609	518.555	80.5349	518.555	82.639	518.555	80.3989	518.555	82.2507	518.555	80.3315	518.555	81.7994	518.555	80.1889	518.555	81.2593	518.555	79.8824	518.555	80.5819	518.555	79.3999	518.555	79.7173	518.555	78.8115	518.555	78.6595	518.555	78.2727	518.555	77.5431	518.555	77.987	518.555	76.7594	518.555	78.0761	518.555	76.7642	518.555	78.4626	518.555	77.4757	518.555	78.9295	518.555	78.3593	518.555	79.2641	518.555	79.0203	518.555	79.3207
536.133	83.4981	536.133	83.1183	536.133	83.557	536.133	82.4215	536.133	83.3157	536.133	81.4646	536.133	82.8025	536.133	80.402	536.133	82.0434	536.133	79.5049	536.133	81.0647	536.133	79.0351	536.133	79.9288	536.133	79.0016	536.133	78.8216	536.133	79.1607	536.133	78.1194	536.133	79.2632	536.133	78.1264	536.133	79.1895	536.133	78.6151	536.133	78.9477	536.133	79.0467	536.133	78.6459	536.133	79.0591	536.133	78.4508	536.133	78.5864	536.133	78.4897	536.133	77.8813	536.133	78.7388	536.133	77.493	536.133	79.0257	536.133	77.7772	536.133	79.1438	536.133	78.4225	536.133	78.9484
553.711	84.0258	553.711	83.7602	553.711	84.0511	553.711	83.23	553.711	83.8684	553.711	82.4312	553.711	83.5062	553.711	81.3985	553.711	82.9751	553.711	80.2351	553.711	82.2577	553.711	79.1293	553.711	81.3119	553.711	78.2938	553.711	80.0949	553.711	77.8096	553.711	78.6256	553.711	77.5617	553.711	77.1329	553.711	77.3802	553.711	76.1765	553.711	77.1899	553.711	76.1422	553.711	77.0412	553.711	76.5786	553.711	77.0462	553.711	76.8608	553.711	77.258	553.711	76.8115	553.711	77.5878	553.711	76.6538	553.711	77.8529	553.711	76.742	553.711	77.8879	553.711	77.1542	553.711	77.6254
574.219	84.069	574.219	83.8114	574.219	84.098	574.219	83.323	574.219	83.9155	574.219	82.6265	574.219	83.5436	574.219	81.7786	574.219	83.0015	574.219	80.8685	574.219	82.3	574.219	79.9915	574.219	81.4422	574.219	79.1994	574.219	80.4263	574.219	78.4734	574.219	79.2558	574.219	77.7592	574.219	77.9693	574.219	77.0423	574.219	76.6999	574.219	76.4158	574.219	75.7089	574.219	76.0801	574.219	75.2528	574.219	76.1968	574.219	75.3389	574.219	76.6897	574.219	75.7591	574.219	77.2903	574.219	76.3215	574.219	77.7488	574.219	76.9137	574.219	77.9325	574.219	77.4452	574.219	77.8152
594.727	83.7177	594.727	83.5809	594.727	83.631	594.727	83.2122	594.727	83.3418	594.727	82.6166	594.727	82.8839	594.727	81.8181	594.727	82.3015	594.727	80.8713	594.727	81.6418	594.727	79.8673	594.727	80.9442	594.727	78.9123	594.727	80.2232	594.727	78.0723	594.727	79.4524	594.727	77.3333	594.727	78.5625	594.727	76.641	594.727	77.4883	594.727	76.0018	594.727	76.3036	594.727	75.5627	594.727	75.4201	594.727	75.5564	594.727	75.4035	594.727	76.0546	594.727	76.1604	594.727	76.8326	594.727	77.074	594.727	77.5759	594.727	77.7744	594.727	78.0836	594.727	78.1786	594.727	78.2848
615.234	83.8038	615.234	83.6733	615.234	83.6705	615.234	83.2617	615.234	83.3012	615.234	82.5697	615.234	82.7295	615.234	81.6307	615.234	81.9906	615.234	80.532	615.234	81.1183	615.234	79.4255	615.234	80.1502	615.234	78.4838	615.234	79.1468	615.234	77.7857	615.234	78.2076	615.234	77.2505	615.234	77.4374	615.234	76.7257	615.234	76.8503	615.234	76.1347	615.234	76.3323	615.234	75.5809	615.234	75.7718	615.234	75.3525	615.234	75.2522	615.234	75.6769	615.234	75.0932	615.234	76.3975	615.234	75.5227	615.234	77.1198	615.234	76.3264	615.234	77.5425	615.234	77.0907	615.234	77.5344
638.672	84.3463	638.672	84.0091	638.672	84.3967	638.672	83.4077	638.672	84.1525	638.672	82.5775	638.672	83.624	638.672	81.5736	638.672	82.8412	638.672	80.4848	638.672	81.8564	638.672	79.44	638.672	80.7531	638.672	78.5659	638.672	79.6589	638.672	77.8959	638.672	78.7197	638.672	77.3273	638.672	77.9854	638.672	76.7108	638.672	77.2938	638.672	75.9987	638.672	76.3494	638.672	75.378	638.672	75.0267	638.672	75.2692	638.672	73.9128	638.672	75.9058	638.672	74.274	638.672	76.9579	638.672	75.8364	638.672	77.9309	638.672	77.3307	638.672	78.5388	638.672	78.2847	638.672	78.6726
659.18	84.5383	659.18	84.3523	659.18	84.3747	659.18	83.8175	659.18	83.8893	659.18	82.972	659.18	83.129	659.18	81.905	659.18	82.1489	659.18	80.773	659.18	81.0075	659.18	79.7844	659.18	79.7849	659.18	79.0947	659.18	78.6251	659.18	78.6695	659.18	77.7445	659.18	78.303	659.18	77.2841	659.18	77.7748	659.18	77.0974	659.18	76.9753	659.18	76.8213	659.18	76.0019	659.18	76.1621	659.18	75.2759	659.18	75.1366	659.18	75.3443	659.18	74.3217	659.18	76.138	659.18	74.5686	659.18	77.0262	659.18	75.6943	659.18	77.5349	659.18	76.8217	659.18	77.4764
682.617	85.8459	682.617	85.7284	682.617	85.6699	682.617	85.3133	682.617	85.2305	682.617	84.6125	682.617	84.5755	682.617	83.6417	682.617	83.7444	682.617	82.4282	682.617	82.7456	682.617	81.0592	682.617	81.5732	682.617	79.7508	682.617	80.2766	682.617	78.8069	682.617	79.0567	682.617	78.3309	682.617	78.2483	682.617	78.0716	682.617	77.9878	682.617	77.7271	682.617	77.9583	682.617	77.2577	682.617	77.7267	682.617	76.9859	682.617	77.1566	682.617	77.354	682.617	76.6329	682.617	78.3008	682.617	76.9079	682.617	79.2882	682.617	78.018	682.617	79.8731	682.617	79.1808	682.617	79.851
706.055	86.411	706.055	86.1197	706.055	86.327	706.055	85.4668	706.055	85.8949	706.055	84.5152	706.055	85.168	706.055	83.3758	706.055	84.2041	706.055	82.1808	706.055	83.0414	706.055	81.0319	706.055	81.7032	706.055	79.9775	706.055	80.2516	706.055	79.0507	706.055	78.8734	706.055	78.2926	706.055	77.8638	706.055	77.6944	706.055	77.3408	706.055	77.1675	706.055	77.034	706.055	76.6767	706.055	76.6019	706.055	76.4665	706.055	76.0801	706.055	76.9945	706.055	76.0993	706.055	78.236	706.055	77.1964	706.055	79.5599	706.055	78.7869	706.055	80.4325	706.055	80.0456	706.055	80.6169
732.422	85.1737	732.422	85.0882	732.422	84.9163	732.422	84.6569	732.422	84.365	732.422	83.9222	732.422	83.6044	732.422	82.9614	732.422	82.7173	732.422	81.8577	732.422	81.7277	732.422	80.6757	732.422	80.5857	732.422	79.4879	732.422	79.2429	732.422	78.4431	732.422	77.7847	732.422	77.7263	732.422	76.5264	732.422	77.3304	732.422	75.7982	732.422	76.9734	732.422	75.4273	732.422	76.3604	732.422	74.8604	732.422	75.523	732.422	73.8724	732.422	75.1274	732.422	73.214	732.422	75.9073	732.422	74.1689	732.422	77.2791	732.422	76.0997	732.422	78.2612	732.422	77.6798	732.422	78.4266
758.789	84.9036	758.789	84.9262	758.789	84.5478	758.789	84.5826	758.789	83.9581	758.789	83.9036	758.789	83.273	758.789	82.9638	758.789	82.5846	758.789	81.8341	758.789	81.8535	758.789	80.5317	758.789	80.9326	758.789	79.0525	758.789	79.6809	758.789	77.5335	758.789	78.0929	758.789	76.4011	758.789	76.5067	758.789	76.029	758.789	75.7129	758.789	76.1161	758.789	75.9643	758.789	76.0743	758.789	76.3069	758.789	75.7239	758.789	75.8958	758.789	75.4961	758.789	74.739	758.789	76.0182	758.789	74.2372	758.789	77.0796	758.789	75.5792	758.789	77.9131	758.789	77.2106	758.789	78.0252
785.156	84.8523	785.156	85.0394	785.156	84.2992	785.156	84.7418	785.156	83.5501	785.156	83.9409	785.156	82.7682	785.156	82.7901	785.156	82.0428	785.156	81.6548	785.156	81.3441	785.156	80.8681	785.156	80.5278	785.156	80.3073	785.156	79.3957	785.156	79.5575	785.156	77.822	785.156	78.3797	785.156	75.9898	785.156	76.923	785.156	74.6649	785.156	75.7511	785.156	74.421	785.156	75.2869	785.156	74.4572	785.156	75.1953	785.156	73.8618	785.156	75.1596	785.156	72.6548	785.156	75.561	785.156	72.5097	785.156	76.6564	785.156	74.6675	785.156	77.7207	785.156	76.8974	785.156	77.9322
811.523	84.8512	811.523	85.2611	811.523	84.112	811.523	85.1287	811.523	83.2955	811.523	84.3232	811.523	82.6176	811.523	82.8649	811.523	82.1644	811.523	81.0984	811.523	81.8328	811.523	79.7851	811.523	81.363	811.523	79.3301	811.523	80.4467	811.523	79.1685	811.523	78.8649	811.523	78.7274	811.523	76.7759	811.523	77.9222	811.523	75.3586	811.523	77.0026	811.523	75.5355	811.523	76.2721	811.523	75.605	811.523	75.8114	811.523	73.9944	811.523	75.6641	811.523	70.5437	811.523	76.1021	811.523	70.3403	811.523	77.0406	811.523	74.0486	811.523	77.7818	811.523	76.5666	811.523	77.7246
840.82	85.0382	840.82	85.6427	840.82	84.121	840.82	85.7199	840.82	83.1281	840.82	85.1067	840.82	82.2776	840.82	83.7236	840.82	81.7266	840.82	81.6891	840.82	81.5269	840.82	79.661	840.82	81.5654	840.82	78.7975	840.82	81.5501	840.82	79.0282	840.82	81.106	840.82	79.2466	840.82	79.8369	840.82	78.9649	840.82	77.3003	840.82	78.2387	840.82	73.8408	840.82	77.2927	840.82	73.9484	840.82	76.3244	840.82	76.0447	840.82	75.5933	840.82	75.8846	840.82	75.6266	840.82	72.8014	840.82	76.4736	840.82	70.0142	840.82	77.1427	840.82	73.9678	840.82	76.5869
870.117	85.1359	870.117	85.5501	870.117	84.4615	870.117	85.6004	870.117	83.667	870.117	85.1883	870.117	82.8691	870.117	84.1728	870.117	82.0831	870.117	82.3572	870.117	81.2721	870.117	79.5114	870.117	80.4793	870.117	75.7469	870.117	79.8995	870.117	73.8873	870.117	79.7461	870.117	75.9404	870.117	79.8841	870.117	77.8902	870.117	79.7587	870.117	78.6745	870.117	78.7687	870.117	78.3988	870.117	76.7736	870.117	77.2839	870.117	75.3854	870.117	76.0388	870.117	75.9868	870.117	76.002	870.117	75.8105	870.117	76.8418	870.117	73.4716	870.117	76.8607	870.117	72.2168	870.117	75.0885
902.344	85.3014	902.344	85.6553	902.344	84.7164	902.344	85.6563	902.344	84.0542	902.344	85.2314	902.344	83.4221	902.344	84.3354	902.344	82.8478	902.344	82.9401	902.344	82.322	902.344	81.0275	902.344	81.7911	902.344	78.5953	902.344	81.1299	902.344	75.8813	902.344	80.2269	902.344	74.2681	902.344	79.1102	902.344	75.2292	902.344	77.8714	902.344	76.9635	902.344	76.4468	902.344	77.8659	902.344	75.3395	902.344	77.4155	902.344	76.4033	902.344	75.4006	902.344	78.2118	902.344	72.8398	902.344	78.2965	902.344	73.2273	902.344	75.9502	902.344	74.338	902.344	72.5851	902.344	73.3543
931.641	85.9216	931.641	86.0161	931.641	85.4393	931.641	85.602	931.641	84.7908	931.641	84.7005	931.641	84.1677	931.641	83.4781	931.641	83.5883	931.641	82.1812	931.641	82.8937	931.641	80.8848	931.641	81.859	931.641	79.2454	931.641	80.4105	931.641	76.5682	931.641	79.1474	931.641	72.2829	931.641	79.2312	931.641	71.5374	931.641	79.9705	931.641	75.9899	931.641	79.5051	931.641	78.6054	931.641	76.1723	931.641	79.1795	931.641	70.281	931.641	77.9401	931.641	76.6444	931.641	75.2605	931.641	79.816	931.641	72.9932	931.641	79.4106	931.641	72.6107	931.641	76.4624	931.641	73.2469
966.797	86.2906	966.797	86.7806	966.797	85.4228	966.797	86.5984	966.797	84.5757	966.797	85.6215	966.797	83.9926	966.797	83.8635	966.797	83.7029	966.797	81.5518	966.797	83.6648	966.797	79.5046	966.797	83.5472	966.797	78.7836	966.797	82.6673	966.797	78.5473	966.797	80.3174	966.797	76.9757	966.797	76.8272	966.797	72.5114	966.797	77.5694	966.797	70.6699	966.797	80.2723	966.797	76.7346	966.797	80.1489	966.797	79.7136	966.797	75.431	966.797	80.3546	966.797	72.6896	966.797	79.3127	966.797	79.3982	966.797	77.5887	966.797	81.2604	966.797	77.3576	966.797	80.6333	966.797	78.9219
999.023	85.8145	999.023	86.0589	999.023	85.3503	999.023	85.9499	999.023	84.8168	999.023	85.4111	999.023	84.2629	999.023	84.3453	999.023	83.6765	999.023	82.5845	999.023	83.2198	999.023	80.1156	999.023	83.0383	999.023	77.9708	999.023	82.6654	999.023	77.6364	999.023	81.2773	999.023	77.4279	999.023	78.3238	999.023	75.2596	999.023	76.2007	999.023	69.9899	999.023	78.7315	999.023	71.1338	999.023	79.859	999.023	76.7863	999.023	76.8592	999.023	79.4505	999.023	66.0179	999.023	80.2099	999.023	74.9152	999.023	80.2009	999.023	79.0912	999.023	80.4384	999.023	80.4538	999.023	80.7431
1,034.18	86.1171	1,034.18	86.2099	1,034.18	85.8792	1,034.18	86.0009	1,034.18	85.6193	1,034.18	85.4711	1,034.18	85.2119	1,034.18	84.6666	1,034.18	84.4188	1,034.18	83.4993	1,034.18	83.3476	1,034.18	81.6897	1,034.18	82.6189	1,034.18	78.9649	1,034.18	82.3688	1,034.18	75.4827	1,034.18	81.6839	1,034.18	72.2362	1,034.18	79.7769	1,034.18	69.6097	1,034.18	77.7083	1,034.18	67.9307	1,034.18	79.2048	1,034.18	71.4125	1,034.18	80.9549	1,034.18	75.4699	1,034.18	80.0037	1,034.18	77.4592	1,034.18	76.0262	1,034.18	77.7781	1,034.18	72.8899	1,034.18	77.6428	1,034.18	75.1113	1,034.18	78.0283	1,034.18	77.2126	1,034.18	78.1719
1,072.27	85.9597	1,072.27	85.9702	1,072.27	85.8637	1,072.27	85.6797	1,072.27	85.8857	1,072.27	85.0786	1,072.27	85.8444	1,072.27	84.269	1,072.27	85.3792	1,072.27	83.2766	1,072.27	84.4177	1,072.27	81.98	1,072.27	83.2449	1,072.27	80.3356	1,072.27	82.0952	1,072.27	78.6976	1,072.27	80.589	1,072.27	77.5424	1,072.27	78.1258	1,072.27	76.4853	1,072.27	76.1924	1,072.27	74.5702	1,072.27	77.8951	1,072.27	72.4678	1,072.27	79.0332	1,072.27	74.0468	1,072.27	77.3283	1,072.27	76.3661	1,072.27	74.7359	1,072.27	77.043	1,072.27	74.7289	1,072.27	76.8237	1,072.27	73.7403	1,072.27	76.7281	1,072.27	74.1336	1,072.27	76.1055
1,110.35	85.4578	1,110.35	85.7063	1,110.35	85.5031	1,110.35	85.8299	1,110.35	85.8106	1,110.35	85.4131	1,110.35	85.9296	1,110.35	84.3086	1,110.35	85.4607	1,110.35	82.7247	1,110.35	84.3405	1,110.35	81.1954	1,110.35	82.9988	1,110.35	80.1601	1,110.35	82.0698	1,110.35	79.4806	1,110.35	81.2393	1,110.35	78.6279	1,110.35	79.3052	1,110.35	77.0724	1,110.35	75.662	1,110.35	74.7789	1,110.35	76.2469	1,110.35	73.7059	1,110.35	79.4962	1,110.35	74.995	1,110.35	79.4254	1,110.35	75.724	1,110.35	76.8434	1,110.35	74.8478	1,110.35	75.7779	1,110.35	73.5266	1,110.35	75.3448	1,110.35	73.7232	1,110.35	74.1042	1,110.35	74.013
1,148.44	85.2481	1,148.44	85.1912	1,148.44	85.4914	1,148.44	85.0254	1,148.44	85.8862	1,148.44	84.5317	1,148.44	86.0425	1,148.44	83.6246	1,148.44	85.6428	1,148.44	82.2465	1,148.44	84.6518	1,148.44	80.4505	1,148.44	83.3626	1,148.44	78.8193	1,148.44	82.1114	1,148.44	78.2626	1,148.44	80.5581	1,148.44	78.2427	1,148.44	77.6801	1,148.44	77.6041	1,148.44	73.7529	1,148.44	76.1291	1,148.44	76.3884	1,148.44	75.0456	1,148.44	79.0361	1,148.44	75.7698	1,148.44	77.9448	1,148.44	76.6181	1,148.44	75.1762	1,148.44	76.3879	1,148.44	75.82	1,148.44	75.702	1,148.44	75.0702	1,148.44	75.2122	1,148.44	72.5838	1,148.44	73.8083
1,189.45	85.5242	1,189.45	85.1293	1,189.45	85.9895	1,189.45	84.6766	1,189.45	86.5215	1,189.45	84.1149	1,189.45	86.8415	1,189.45	83.3538	1,189.45	86.5457	1,189.45	82.1413	1,189.45	85.3364	1,189.45	80.2971	1,189.45	83.4146	1,189.45	78.2455	1,189.45	81.9086	1,189.45	77.2305	1,189.45	81.2411	1,189.45	77.0198	1,189.45	79.7958	1,189.45	76.1266	1,189.45	75.7012	1,189.45	74.6564	1,189.45	72.8416	1,189.45	75.0721	1,189.45	77.0955	1,189.45	77.1057	1,189.45	76.9304	1,189.45	78.201	1,189.45	74.6965	1,189.45	77.5853	1,189.45	76.4401	1,189.45	75.3494	1,189.45	76.4661	1,189.45	72.7526	1,189.45	73.4758	1,189.45	71.4161
1,230.47	85.7158	1,230.47	85.292	1,230.47	86.2306	1,230.47	84.6887	1,230.47	86.8064	1,230.47	83.9128	1,230.47	86.9457	1,230.47	83.0438	1,230.47	86.2695	1,230.47	81.7522	1,230.47	84.722	1,230.47	79.4336	1,230.47	82.6433	1,230.47	76.0435	1,230.47	80.9002	1,230.47	73.9162	1,230.47	79.8515	1,230.47	73.9862	1,230.47	78.3736	1,230.47	73.1487	1,230.47	74.9773	1,230.47	71.8881	1,230.47	73.3259	1,230.47	74.1854	1,230.47	77.2049	1,230.47	77.1634	1,230.47	77.3136	1,230.47	78.1789	1,230.47	72.7612	1,230.47	77.0233	1,230.47	74.5108	1,230.47	74.3725	1,230.47	77.4448	1,230.47	72.3157	1,230.47	76.2927	1,230.47	73.1537
1,274.41	86.0643	1,274.41	85.8838	1,274.41	86.34	1,274.41	85.1861	1,274.41	86.7764	1,274.41	83.8587	1,274.41	86.8663	1,274.41	82.592	1,274.41	86.2436	1,274.41	81.6447	1,274.41	84.7601	1,274.41	80.0565	1,274.41	82.6325	1,274.41	76.9921	1,274.41	80.8456	1,274.41	73.8977	1,274.41	79.9785	1,274.41	74.1426	1,274.41	78.6499	1,274.41	73.7308	1,274.41	75.1701	1,274.41	68.4428	1,274.41	71.7932	1,274.41	66.2282	1,274.41	75.0416	1,274.41	75.2317	1,274.41	75.4415	1,274.41	77.7584	1,274.41	71.9343	1,274.41	77.1539	1,274.41	73.8369	1,274.41	74.9965	1,274.41	77.3689	1,274.41	74.0418	1,274.41	77.4909	1,274.41	75.5339
1,318.36	85.81	1,318.36	86.007	1,318.36	86.1682	1,318.36	85.93	1,318.36	86.9208	1,318.36	84.9784	1,318.36	87.3609	1,318.36	83.3776	1,318.36	87.012	1,318.36	81.909	1,318.36	85.5183	1,318.36	80.3472	1,318.36	82.7903	1,318.36	77.0862	1,318.36	79.6438	1,318.36	70.8809	1,318.36	78.1201	1,318.36	71.7702	1,318.36	77.4281	1,318.36	75.3455	1,318.36	74.3841	1,318.36	74.5502	1,318.36	69.7925	1,318.36	68.2305	1,318.36	75.7482	1,318.36	71.8262	1,318.36	77.5968	1,318.36	76.615	1,318.36	74.664	1,318.36	77.1953	1,318.36	72.1502	1,318.36	75.6578	1,318.36	76.249	1,318.36	75.1302	1,318.36	77.5827	1,318.36	76.5532
1,365.23	85.1528	1,365.23	85.1	1,365.23	85.8855	1,365.23	85.2006	1,365.23	86.5928	1,365.23	84.4586	1,365.23	86.6944	1,365.23	82.6671	1,365.23	86.016	1,365.23	80.8138	1,365.23	84.4583	1,365.23	80.036	1,365.23	81.9736	1,365.23	78.8956	1,365.23	78.9395	1,365.23	75.3876	1,365.23	77.3571	1,365.23	68.5457	1,365.23	77.5739	1,365.23	70.964	1,365.23	76.2651	1,365.23	72.2613	1,365.23	68.3561	1,365.23	68.3873	1,365.23	72.1909	1,365.23	70.9578	1,365.23	75.8356	1,365.23	75.6791	1,365.23	71.6051	1,365.23	75.9763	1,365.23	72.3293	1,365.23	72.8765	1,365.23	74.0931	1,365.23	70.4883	1,365.23	72.6561	1,365.23	71.3889
1,415.04	85.1208	1,415.04	84.6594	1,415.04	85.897	1,415.04	84.3494	1,415.04	86.4122	1,415.04	83.5956	1,415.04	86.2434	1,415.04	82.1758	1,415.04	85.3577	1,415.04	80.4641	1,415.04	83.805	1,415.04	79.3479	1,415.04	81.5182	1,415.04	78.6935	1,415.04	78.2885	1,415.04	77.3072	1,415.04	75.3824	1,415.04	75.2178	1,415.04	76.0859	1,415.04	74.1194	1,415.04	76.5389	1,415.04	73.0368	1,415.04	72.6196	1,415.04	67.858	1,415.04	68.0709	1,415.04	68.2179	1,415.04	73.2637	1,415.04	74.2502	1,415.04	69.7898	1,415.04	74.6467	1,415.04	71.4691	1,415.04	71.586	1,415.04	73.8837	1,415.04	67.9531	1,415.04	72.1469	1,415.04	69.1007
1,464.84	85.3597	1,464.84	84.5898	1,464.84	86.1037	1,464.84	83.9837	1,464.84	86.1867	1,464.84	83.2213	1,464.84	85.5837	1,464.84	82.1048	1,464.84	84.607	1,464.84	80.4338	1,464.84	83.1887	1,464.84	78.2993	1,464.84	81.307	1,464.84	76.4081	1,464.84	78.9329	1,464.84	74.899	1,464.84	75.5638	1,464.84	73.7634	1,464.84	74.2179	1,464.84	74.1261	1,464.84	76.114	1,464.84	74.2242	1,464.84	74.465	1,464.84	70.8371	1,464.84	66.3342	1,464.84	66.1754	1,464.84	74.922	1,464.84	72.3584	1,464.84	72.8342	1,464.84	74.2384	1,464.84	67.41	1,464.84	73.042	1,464.84	74.1525	1,464.84	70.1883	1,464.84	72.7263	1,464.84	69.4611
1,514.65	85.4981	1,514.65	84.3716	1,514.65	86.3148	1,514.65	83.4563	1,514.65	86.2433	1,514.65	82.4285	1,514.65	85.367	1,514.65	81.0315	1,514.65	83.814	1,514.65	79.5608	1,514.65	81.8479	1,514.65	78.1607	1,514.65	80.1181	1,514.65	76.1895	1,514.65	78.0842	1,514.65	73.3056	1,514.65	74.7995	1,514.65	72.3166	1,514.65	71.8983	1,514.65	74.4299	1,514.65	73.2084	1,514.65	75.1322	1,514.65	73.0365	1,514.65	72.6572	1,514.65	68.1353	1,514.65	68.5181	1,514.65	73.425	1,514.65	70.304	1,514.65	71.3941	1,514.65	71.7089	1,514.65	66.0938	1,514.65	70.0375	1,514.65	71.8124	1,514.65	67.0021	1,514.65	70.7436	1,514.65	67.3761
1,570.31	85.8789	1,570.31	84.7865	1,570.31	86.4148	1,570.31	83.5653	1,570.31	85.994	1,570.31	82.5401	1,570.31	84.3167	1,570.31	81.0746	1,570.31	81.9853	1,570.31	78.6509	1,570.31	80.0566	1,570.31	76.4623	1,570.31	79.1072	1,570.31	75.4467	1,570.31	78.703	1,570.31	73.3657	1,570.31	77.0935	1,570.31	67.9898	1,570.31	74.8818	1,570.31	68.7932	1,570.31	75.3179	1,570.31	72.0814	1,570.31	73.5494	1,570.31	70.8059	1,570.31	67.9652	1,570.31	68.29	1,570.31	73.5405	1,570.31	71.7602	1,570.31	67.3016	1,570.31	73.7573	1,570.31	69.2523	1,570.31	72.5201	1,570.31	73.4334	1,570.31	69.5816	1,570.31	72.6184	1,570.31	69.6504
1,623.05	85.1345	1,623.05	84.3488	1,623.05	85.7042	1,623.05	83.4307	1,623.05	85.4341	1,623.05	81.9533	1,623.05	84.3789	1,623.05	80.4809	1,623.05	82.9067	1,623.05	79.5459	1,623.05	80.978	1,623.05	77.8228	1,623.05	79.1788	1,623.05	74.2169	1,623.05	78.7906	1,623.05	72.119	1,623.05	78.3438	1,623.05	71.2819	1,623.05	76.7339	1,623.05	67.9273	1,623.05	77.18	1,623.05	67.8741	1,623.05	77.7255	1,623.05	68.7156	1,623.05	70.7497	1,623.05	67.8833	1,623.05	69.8121	1,623.05	71.4165	1,623.05	71.5996	1,623.05	74.2143	1,623.05	54.8451	1,623.05	73.9025	1,623.05	70.6859	1,623.05	71.5967	1,623.05	72.1867	1,623.05	70.8788
1,681.64	85.0512	1,681.64	83.9789	1,681.64	85.2122	1,681.64	82.5679	1,681.64	84.3929	1,681.64	81.4527	1,681.64	82.6996	1,681.64	79.7181	1,681.64	81.6155	1,681.64	76.8117	1,681.64	80.9596	1,681.64	76.7164	1,681.64	78.7556	1,681.64	76.1732	1,681.64	77.0508	1,681.64	71.1549	1,681.64	77.8428	1,681.64	67.8241	1,681.64	76.6363	1,681.64	68.244	1,681.64	74.6957	1,681.64	64.6739	1,681.64	77.5237	1,681.64	63.4313	1,681.64	76.1605	1,681.64	68.7465	1,681.64	73.3252	1,681.64	71.7816	1,681.64	74.3436	1,681.64	72.1774	1,681.64	62.1584	1,681.64	71.0488	1,681.64	69.2182	1,681.64	70.1732	1,681.64	71.4598	1,681.64	70.5981
1,740.23	85.1901	1,740.23	84.502	1,740.23	84.517	1,740.23	83.05	1,740.23	82.1094	1,740.23	81.6016	1,740.23	79.414	1,740.23	80.281	1,740.23	80.4894	1,740.23	77.4255	1,740.23	81.5726	1,740.23	72.225	1,740.23	80.5532	1,740.23	70.6428	1,740.23	77.9524	1,740.23	68.663	1,740.23	76.5599	1,740.23	64.4909	1,740.23	76.4476	1,740.23	63.9767	1,740.23	75.4542	1,740.23	66.405	1,740.23	75.887	1,740.23	61.4266	1,740.23	74.9455	1,740.23	64.6675	1,740.23	74.189	1,740.23	69.8072	1,740.23	75.021	1,740.23	69.9848	1,740.23	69.0636	1,740.23	68.262	1,740.23	64.6447	1,740.23	67.5204	1,740.23	70.715	1,740.23	70.0655
1,801.76	85.9081	1,801.76	85.9824	1,801.76	83.8823	1,801.76	84.6006	1,801.76	78.8782	1,801.76	82.3235	1,801.76	74.9084	1,801.76	79.5947	1,801.76	80.124	1,801.76	75.401	1,801.76	82.0286	1,801.76	71.1785	1,801.76	81.171	1,801.76	70.8142	1,801.76	78.7726	1,801.76	69.5951	1,801.76	77.1312	1,801.76	68.1495	1,801.76	76.6491	1,801.76	70.2362	1,801.76	75.6816	1,801.76	70.2023	1,801.76	75.184	1,801.76	61.6142	1,801.76	73.8926	1,801.76	64.8703	1,801.76	72.9228	1,801.76	68.6618	1,801.76	71.8944	1,801.76	66.2613	1,801.76	67.5989	1,801.76	64.5177	1,801.76	64.3376	1,801.76	65.9262	1,801.76	68.8345	1,801.76	68.3913
1,866.21	85.5226	1,866.21	86.0561	1,866.21	82.9695	1,866.21	84.9372	1,866.21	75.315	1,866.21	81.3481	1,866.21	74.6829	1,866.21	75.0611	1,866.21	81.9176	1,866.21	70.5148	1,866.21	83.2848	1,866.21	67.9093	1,866.21	81.8411	1,866.21	70.9607	1,866.21	78.9261	1,866.21	73.9067	1,866.21	76.8721	1,866.21	73.8158	1,866.21	76.1947	1,866.21	75.2848	1,866.21	75.1609	1,866.21	75.6926	1,866.21	75.4666	1,866.21	70.4355	1,866.21	75.7113	1,866.21	62.0654	1,866.21	74.419	1,866.21	68.7151	1,866.21	72.5363	1,866.21	61.77	1,866.21	65.2957	1,866.21	66.7962	1,866.21	61.6905	1,866.21	68.0879	1,866.21	69.5081	1,866.21	68.6456
1,930.66	84.627	1,930.66	86.5633	1,930.66	80.7921	1,930.66	85.8218	1,930.66	72.0572	1,930.66	81.6214	1,930.66	74.5347	1,930.66	72.685	1,930.66	82.2232	1,930.66	61.7681	1,930.66	83.9337	1,930.66	68.3176	1,930.66	82.6065	1,930.66	72.0658	1,930.66	79.5091	1,930.66	73.5712	1,930.66	76.2942	1,930.66	72.5385	1,930.66	74.4577	1,930.66	71.4759	1,930.66	75.0948	1,930.66	73.0534	1,930.66	75.4211	1,930.66	71.4151	1,930.66	73.2594	1,930.66	61.0638	1,930.66	74.7931	1,930.66	65.5939	1,930.66	73.2967	1,930.66	60.8001	1,930.66	67.2671	1,930.66	65.0652	1,930.66	44.7901	1,930.66	70.1743	1,930.66	64.596	1,930.66	67.5941
2,000.98	85.7298	2,000.98	87.0123	2,000.98	80.8421	2,000.98	85.4231	2,000.98	73.9965	2,000.98	81.2264	2,000.98	78.6988	2,000.98	74.9298	2,000.98	82.4633	2,000.98	68.9579	2,000.98	83.6518	2,000.98	72.4634	2,000.98	82.4248	2,000.98	75.1651	2,000.98	78.8719	2,000.98	74.5312	2,000.98	74.5917	2,000.98	73.0548	2,000.98	72.1374	2,000.98	72.6938	2,000.98	73.1115	2,000.98	72.6711	2,000.98	75.4246	2,000.98	72.2539	2,000.98	72.9912	2,000.98	69.8767	2,000.98	73.0536	2,000.98	65.8622	2,000.98	69.5107	2,000.98	63.468	2,000.98	64.7045	2,000.98	64.4814	2,000.98	56.5477	2,000.98	68.5507	2,000.98	67.6499	2,000.98	70.3751
2,071.29	86.1778	2,071.29	87.2397	2,071.29	82.4811	2,071.29	85.8989	2,071.29	78.1791	2,071.29	82.6005	2,071.29	80.0068	2,071.29	78.2156	2,071.29	82.2891	2,071.29	75.4183	2,071.29	82.7425	2,071.29	76.1678	2,071.29	81.3497	2,071.29	77.0427	2,071.29	78.2848	2,071.29	74.5262	2,071.29	74.2628	2,071.29	69.5752	2,071.29	72.2396	2,071.29	69.8993	2,071.29	71.6332	2,071.29	69.0577	2,071.29	72.2052	2,071.29	66.3436	2,071.29	71.9687	2,071.29	69.0875	2,071.29	72.4271	2,071.29	69.1133	2,071.29	69.5213	2,071.29	67.7155	2,071.29	52.383	2,071.29	69.8354	2,071.29	54.1022	2,071.29	71.7589	2,071.29	68.1921	2,071.29	69.0404
2,144.53	85.3956	2,144.53	87.0738	2,144.53	82.772	2,144.53	86.1042	2,144.53	81.5267	2,144.53	83.1484	2,144.53	81.5657	2,144.53	79.9577	2,144.53	82.3317	2,144.53	77.7618	2,144.53	82.2045	2,144.53	77.4401	2,144.53	80.9153	2,144.53	76.9579	2,144.53	78.7679	2,144.53	74.7164	2,144.53	75.0624	2,144.53	71.3839	2,144.53	70.9576	2,144.53	70.9912	2,144.53	70.5183	2,144.53	72.5626	2,144.53	71.6148	2,144.53	69.418	2,144.53	71.6515	2,144.53	68.7807	2,144.53	70.6336	2,144.53	69.5905	2,144.53	69.257	2,144.53	68.3274	2,144.53	50.987	2,144.53	69.9897	2,144.53	59.5816	2,144.53	72.0861	2,144.53	66.8955	2,144.53	69.1777
2,217.77	84.378	2,217.77	86.1929	2,217.77	82.3509	2,217.77	86.0479	2,217.77	83.2619	2,217.77	84.4288	2,217.77	83.1505	2,217.77	81.5578	2,217.77	82.2375	2,217.77	79.0283	2,217.77	81.9153	2,217.77	76.8098	2,217.77	80.7327	2,217.77	73.108	2,217.77	78.4615	2,217.77	72.6344	2,217.77	75.289	2,217.77	74.4706	2,217.77	68.879	2,217.77	73.7768	2,217.77	65.9418	2,217.77	71.793	2,217.77	71.4737	2,217.77	69.9942	2,217.77	71.2826	2,217.77	67.2056	2,217.77	69.8729	2,217.77	68.7064	2,217.77	67.1562	2,217.77	69.0175	2,217.77	57.1626	2,217.77	71.0957	2,217.77	53.7517	2,217.77	72.5235	2,217.77	66.8811	2,217.77	69.6159
2,296.88	85.096	2,296.88	86.1036	2,296.88	83.5496	2,296.88	85.8445	2,296.88	83.6854	2,296.88	84.2517	2,296.88	83.4759	2,296.88	81.5548	2,296.88	81.978	2,296.88	78.6965	2,296.88	81.3279	2,296.88	75.2537	2,296.88	80.7077	2,296.88	75.4342	2,296.88	78.5136	2,296.88	75.6016	2,296.88	75.1322	2,296.88	71.9398	2,296.88	70.2677	2,296.88	72.9841	2,296.88	66.3016	2,296.88	72.6352	2,296.88	68.6031	2,296.88	69.6485	2,296.88	67.9398	2,296.88	67.9465	2,296.88	67.799	2,296.88	65.6282	2,296.88	62.9891	2,296.88	70.5911	2,296.88	63.0499	2,296.88	69.8745	2,296.88	61.5604	2,296.88	71.8788	2,296.88	65.8711	2,296.88	68.9969
2,378.91	85.1346	2,378.91	86.605	2,378.91	84.6403	2,378.91	85.9638	2,378.91	84.9906	2,378.91	83.9655	2,378.91	83.5838	2,378.91	82.2498	2,378.91	81.361	2,378.91	79.8816	2,378.91	80.2585	2,378.91	77.9556	2,378.91	79.6893	2,378.91	77.2717	2,378.91	78.8366	2,378.91	75.9033	2,378.91	75.6047	2,378.91	71.9455	2,378.91	70.0064	2,378.91	68.8914	2,378.91	71.7914	2,378.91	70.5208	2,378.91	70.8189	2,378.91	67.2268	2,378.91	69.1351	2,378.91	69.5219	2,378.91	67.9321	2,378.91	70.5951	2,378.91	66.5051	2,378.91	68.9663	2,378.91	61.7327	2,378.91	69.5517	2,378.91	59.3645	2,378.91	71.3535	2,378.91	63.2361	2,378.91	69.9527
2,460.94	84.2782	2,460.94	85.7769	2,460.94	84.5531	2,460.94	86.1538	2,460.94	85.778	2,460.94	84.6646	2,460.94	84.381	2,460.94	81.4398	2,460.94	80.7792	2,460.94	79.2399	2,460.94	79.3471	2,460.94	77.0573	2,460.94	79.273	2,460.94	75.2421	2,460.94	77.7388	2,460.94	75.6732	2,460.94	73.8896	2,460.94	73.8613	2,460.94	68.1612	2,460.94	71.3348	2,460.94	71.8872	2,460.94	71.0354	2,460.94	71.5086	2,460.94	68.2414	2,460.94	70.9897	2,460.94	67.9548	2,460.94	68.5841	2,460.94	69.125	2,460.94	67.7727	2,460.94	69.9721	2,460.94	58.58	2,460.94	70.5935	2,460.94	55.7353	2,460.94	70.6286	2,460.94	68.4345	2,460.94	70.5354
2,548.83	83.8265	2,548.83	85.1607	2,548.83	84.0186	2,548.83	85.528	2,548.83	85.3656	2,548.83	84.226	2,548.83	84.3114	2,548.83	81.3496	2,548.83	80.5232	2,548.83	78.9391	2,548.83	78.2917	2,548.83	77.8916	2,548.83	78.8262	2,548.83	76.5461	2,548.83	77.9477	2,548.83	74.4606	2,548.83	75.2229	2,548.83	72.535	2,548.83	70.5758	2,548.83	71.263	2,548.83	71.2534	2,548.83	71.7746	2,548.83	68.392	2,548.83	69.3383	2,548.83	69.9474	2,548.83	66.9447	2,548.83	64.9815	2,548.83	69.6038	2,548.83	63.0992	2,548.83	68.3572	2,548.83	63.0837	2,548.83	69.6959	2,548.83	62.5774	2,548.83	71.1699	2,548.83	66.9953	2,548.83	68.5635
2,639.65	84.0862	2,639.65	84.8844	2,639.65	84.4381	2,639.65	85.2399	2,639.65	84.9831	2,639.65	83.5951	2,639.65	84.0624	2,639.65	81.0637	2,639.65	80.7297	2,639.65	79.9723	2,639.65	77.7635	2,639.65	78.9047	2,639.65	78.3945	2,639.65	76.7675	2,639.65	77.483	2,639.65	74.307	2,639.65	73.9153	2,639.65	72.335	2,639.65	66.3517	2,639.65	69.6824	2,639.65	69.5467	2,639.65	69.1611	2,639.65	70.6415	2,639.65	68.1635	2,639.65	68.2028	2,639.65	66.5358	2,639.65	67.7484	2,639.65	68.1843	2,639.65	61.154	2,639.65	68.7833	2,639.65	62.5694	2,639.65	67.5231	2,639.65	62.7066	2,639.65	70.5339	2,639.65	66.8755	2,639.65	70.2641
2,733.4	83.6852	2,733.4	85.0301	2,733.4	84.6362	2,733.4	85.2186	2,733.4	85.6078	2,733.4	83.2366	2,733.4	84.1008	2,733.4	81.1348	2,733.4	81.0989	2,733.4	80.2583	2,733.4	79.6075	2,733.4	78.0631	2,733.4	78.6911	2,733.4	75.4109	2,733.4	76.887	2,733.4	73.3734	2,733.4	74.3294	2,733.4	70.8551	2,733.4	68.7782	2,733.4	68.0291	2,733.4	62.7127	2,733.4	67.3135	2,733.4	67.8976	2,733.4	67.8023	2,733.4	69.5183	2,733.4	63.8552	2,733.4	64.4633	2,733.4	68.6873	2,733.4	63.2578	2,733.4	68.5287	2,733.4	64.2135	2,733.4	67.8848	2,733.4	59.4503	2,733.4	68.8983	2,733.4	66.3364	2,733.4	69.6049
2,827.15	84.1087	2,827.15	85.2211	2,827.15	84.5944	2,827.15	85.1969	2,827.15	85.6455	2,827.15	83.1986	2,827.15	84.3526	2,827.15	81.5728	2,827.15	80.4889	2,827.15	80.1254	2,827.15	80.0038	2,827.15	78.1157	2,827.15	80.3964	2,827.15	75.4309	2,827.15	77.8738	2,827.15	72.6615	2,827.15	74.4744	2,827.15	72.3436	2,827.15	69.5337	2,827.15	70.5519	2,827.15	66.81	2,827.15	68.765	2,827.15	60.3449	2,827.15	67.3771	2,827.15	68.2747	2,827.15	65.2952	2,827.15	63.7933	2,827.15	67.9653	2,827.15	60.9483	2,827.15	69.1446	2,827.15	64.4017	2,827.15	67.6922	2,827.15	60.4589	2,827.15	68.3275	2,827.15	66.6793	2,827.15	69.397
2,926.76	83.8972	2,926.76	84.839	2,926.76	84.544	2,926.76	84.8056	2,926.76	85.6571	2,926.76	83.3714	2,926.76	84.813	2,926.76	82.1149	2,926.76	81.1612	2,926.76	80.0944	2,926.76	79.6888	2,926.76	77.4272	2,926.76	81.0495	2,926.76	75.3206	2,926.76	79.3251	2,926.76	73.114	2,926.76	74.9629	2,926.76	71.1536	2,926.76	68.2664	2,926.76	68.3334	2,926.76	66.1708	2,926.76	66.6516	2,926.76	67.0021	2,926.76	66.6101	2,926.76	65.9323	2,926.76	60.862	2,926.76	64.7817	2,926.76	67.1383	2,926.76	63.7056	2,926.76	68.6452	2,926.76	65.4682	2,926.76	68.0859	2,926.76	57.4792	2,926.76	68.4361	2,926.76	64.3722	2,926.76	67.8482
3,032.23	83.9707	3,032.23	84.8367	3,032.23	84.3328	3,032.23	84.5264	3,032.23	85.4417	3,032.23	83.4586	3,032.23	84.9131	3,032.23	82.5641	3,032.23	81.724	3,032.23	79.413	3,032.23	79.5887	3,032.23	76.9892	3,032.23	81.0061	3,032.23	75.7763	3,032.23	80.0228	3,032.23	71.1955	3,032.23	76.1066	3,032.23	69.1468	3,032.23	70.9889	3,032.23	69.5998	3,032.23	67.2242	3,032.23	68.0579	3,032.23	66.2068	3,032.23	67.9034	3,032.23	67.0606	3,032.23	64.0542	3,032.23	59.794	3,032.23	65.2861	3,032.23	62.0346	3,032.23	67.1477	3,032.23	66.0273	3,032.23	67.7382	3,032.23	61.7456	3,032.23	66.9143	3,032.23	63.2898	3,032.23	67.3392
3,137.7	84.3753	3,137.7	85.0026	3,137.7	84.3848	3,137.7	84.3188	3,137.7	84.9935	3,137.7	83.5895	3,137.7	84.5546	3,137.7	81.9902	3,137.7	82.1841	3,137.7	79.3421	3,137.7	80.1416	3,137.7	77.2616	3,137.7	81.0406	3,137.7	73.6297	3,137.7	80.2115	3,137.7	73.8502	3,137.7	76.6432	3,137.7	72.5972	3,137.7	72.9554	3,137.7	69.2708	3,137.7	69.5111	3,137.7	66.7093	3,137.7	66.7306	3,137.7	67.0627	3,137.7	67.1524	3,137.7	62.5267	3,137.7	60.2818	3,137.7	64.9507	3,137.7	59.7236	3,137.7	65.9852	3,137.7	66.3528	3,137.7	66.4424	3,137.7	61.4588	3,137.7	67.9488	3,137.7	60.6373	3,137.7	67.1033
3,249.02	84.4488	3,249.02	84.5664	3,249.02	84.2452	3,249.02	84.3704	3,249.02	84.9616	3,249.02	84.0108	3,249.02	84.5197	3,249.02	81.4137	3,249.02	82.4122	3,249.02	78.9669	3,249.02	80.395	3,249.02	76.6076	3,249.02	81.1372	3,249.02	75.2007	3,249.02	80.4877	3,249.02	72.3394	3,249.02	76.9549	3,249.02	67.3921	3,249.02	74.0133	3,249.02	67.7464	3,249.02	69.5461	3,249.02	66.2211	3,249.02	66.3504	3,249.02	65.9973	3,249.02	65.5072	3,249.02	64.1532	3,249.02	56.4547	3,249.02	63.0345	3,249.02	58.1897	3,249.02	66.5204	3,249.02	64.3955	3,249.02	66.4293	3,249.02	58.3869	3,249.02	67.497	3,249.02	61.7183	3,249.02	68.0049
3,363.28	84.5469	3,363.28	84.4844	3,363.28	84.1053	3,363.28	84.9985	3,363.28	84.3727	3,363.28	83.8818	3,363.28	84.505	3,363.28	81.2899	3,363.28	82.623	3,363.28	79.1485	3,363.28	80.6389	3,363.28	77.2544	3,363.28	80.904	3,363.28	75.0554	3,363.28	79.2435	3,363.28	72.2792	3,363.28	75.8201	3,363.28	72.8281	3,363.28	73.9874	3,363.28	71.1477	3,363.28	69.6159	3,363.28	67.0034	3,363.28	63.4135	3,363.28	67.1459	3,363.28	64.2046	3,363.28	65.7617	3,363.28	61.4014	3,363.28	64.9213	3,363.28	53.2201	3,363.28	67.0847	3,363.28	63.9006	3,363.28	65.8242	3,363.28	59.1136	3,363.28	66.6474	3,363.28	60.6623	3,363.28	67.2481
3,483.4	84.7782	3,483.4	84.8193	3,483.4	84.4236	3,483.4	84.8836	3,483.4	83.883	3,483.4	83.423	3,483.4	84.2887	3,483.4	80.9964	3,483.4	82.7373	3,483.4	79.4044	3,483.4	80.3137	3,483.4	78.0953	3,483.4	80.0113	3,483.4	75.8319	3,483.4	78.1158	3,483.4	74.8287	3,483.4	74.6735	3,483.4	70.8125	3,483.4	70.9404	3,483.4	67.5029	3,483.4	66.2477	3,483.4	66.7736	3,483.4	64.2508	3,483.4	65.9688	3,483.4	65.1884	3,483.4	64.9188	3,483.4	60.8488	3,483.4	64.4813	3,483.4	52.4185	3,483.4	67.0187	3,483.4	63.4454	3,483.4	66.3083	3,483.4	58.6205	3,483.4	66.2472	3,483.4	57.669	3,483.4	66.8771
3,606.45	84.9828	3,606.45	85.0561	3,606.45	84.4981	3,606.45	85.0592	3,606.45	83.4739	3,606.45	83.0683	3,606.45	83.4235	3,606.45	81.0837	3,606.45	82.4619	3,606.45	79.8279	3,606.45	79.6825	3,606.45	77.8837	3,606.45	79.1904	3,606.45	76.1557	3,606.45	77.2953	3,606.45	71.236	3,606.45	72.2129	3,606.45	70.2659	3,606.45	70.1043	3,606.45	69.4931	3,606.45	64.4727	3,606.45	66.7811	3,606.45	58.8657	3,606.45	65.3644	3,606.45	63.1066	3,606.45	65.2125	3,606.45	62.4811	3,606.45	64.2084	3,606.45	57.074	3,606.45	67.0246	3,606.45	63.3149	3,606.45	67.1784	3,606.45	58.0139	3,606.45	66.3872	3,606.45	58.6051	3,606.45	67.107
3,732.42	84.6542	3,732.42	84.7188	3,732.42	84.3459	3,732.42	85.0094	3,732.42	83.1278	3,732.42	82.9203	3,732.42	83.3997	3,732.42	81.3592	3,732.42	82.0918	3,732.42	79.5937	3,732.42	79.4831	3,732.42	78.3236	3,732.42	79.1543	3,732.42	74.6685	3,732.42	76.3187	3,732.42	73.6315	3,732.42	72.9256	3,732.42	70.9738	3,732.42	67.3947	3,732.42	67.6207	3,732.42	54.4669	3,732.42	65.9373	3,732.42	50.0824	3,732.42	64.9175	3,732.42	64.0177	3,732.42	63.8865	3,732.42	62.663	3,732.42	63.1868	3,732.42	51.9084	3,732.42	66.9214	3,732.42	63.9308	3,732.42	64.8608	3,732.42	60.6977	3,732.42	65.9327	3,732.42	57.1505	3,732.42	65.3272
3,864.26	84.934	3,864.26	85.1396	3,864.26	85.0058	3,864.26	84.4221	3,864.26	83.0633	3,864.26	82.8821	3,864.26	83.1545	3,864.26	81.4941	3,864.26	82.0058	3,864.26	79.0634	3,864.26	79.0748	3,864.26	76.9492	3,864.26	77.8423	3,864.26	75.3043	3,864.26	75.1555	3,864.26	71.1747	3,864.26	73.7325	3,864.26	67.7371	3,864.26	68.3491	3,864.26	66.788	3,864.26	63.9311	3,864.26	65.4124	3,864.26	39.377	3,864.26	64.4315	3,864.26	60.6856	3,864.26	63.3957	3,864.26	57.2773	3,864.26	60.9997	3,864.26	53.523	3,864.26	65.3086	3,864.26	63.5945	3,864.26	64.7458	3,864.26	59.972	3,864.26	64.6795	3,864.26	57.3614	3,864.26	65.3654
3,999.02	85.1759	3,999.02	85.3528	3,999.02	84.856	3,999.02	84.5127	3,999.02	83.2295	3,999.02	83.0512	3,999.02	82.5577	3,999.02	80.9957	3,999.02	81.7066	3,999.02	79.0819	3,999.02	78.2281	3,999.02	76.5962	3,999.02	77.6648	3,999.02	73.4868	3,999.02	75.7428	3,999.02	71.3689	3,999.02	70.9646	3,999.02	72.3405	3,999.02	67.8287	3,999.02	68.859	3,999.02	64.4696	3,999.02	65.4399	3,999.02	61.3439	3,999.02	64.8572	3,999.02	61.5029	3,999.02	64.8966	3,999.02	59.4381	3,999.02	59.5271	3,999.02	53.339	3,999.02	65.4985	3,999.02	64.3505	3,999.02	63.4587	3,999.02	59.2372	3,999.02	63.7402	3,999.02	53.0324	3,999.02	66.0039
4,139.65	84.9195	4,139.65	84.7878	4,139.65	84.9852	4,139.65	84.3001	4,139.65	82.993	4,139.65	83.2653	4,139.65	82.5971	4,139.65	80.8154	4,139.65	81.3121	4,139.65	78.2031	4,139.65	76.3151	4,139.65	75.4766	4,139.65	77.3217	4,139.65	74.5633	4,139.65	75.4912	4,139.65	72.6437	4,139.65	69.9433	4,139.65	66.3202	4,139.65	64.5067	4,139.65	65.9465	4,139.65	67.1384	4,139.65	65.452	4,139.65	64.0952	4,139.65	64.8471	4,139.65	62.738	4,139.65	64.7015	4,139.65	58.6257	4,139.65	59.5708	4,139.65	42.6975	4,139.65	64.6895	4,139.65	60.2702	4,139.65	63.9648	4,139.65	52.4288	4,139.65	64.4183	4,139.65	53.7452	4,139.65	65.9355
4,286.13	85.2494	4,286.13	85.1408	4,286.13	85.3564	4,286.13	84.3675	4,286.13	83.5811	4,286.13	82.8217	4,286.13	82.0159	4,286.13	80.8371	4,286.13	80.3877	4,286.13	77.5352	4,286.13	76.1421	4,286.13	76.5363	4,286.13	77.2254	4,286.13	74.825	4,286.13	75.1351	4,286.13	71.6582	4,286.13	72.3559	4,286.13	72.8788	4,286.13	69.9087	4,286.13	67.7031	4,286.13	65.1704	4,286.13	64.8566	4,286.13	64.3272	4,286.13	64.5046	4,286.13	63.3547	4,286.13	65.3269	4,286.13	59.3799	4,286.13	60.9275	4,286.13	53.609	4,286.13	64.8002	4,286.13	55.0574	4,286.13	64.0914	4,286.13	54.2384	4,286.13	64.0019	4,286.13	55.7664	4,286.13	63.6679
4,438.48	84.9654	4,438.48	84.7878	4,438.48	85.2937	4,438.48	84.241	4,438.48	83.925	4,438.48	82.9039	4,438.48	82.0949	4,438.48	80.3267	4,438.48	81.4172	4,438.48	77.5091	4,438.48	76.3355	4,438.48	76.6812	4,438.48	74.4223	4,438.48	73.8099	4,438.48	75.4276	4,438.48	71.4902	4,438.48	72.8038	4,438.48	65.2744	4,438.48	71.3657	4,438.48	65.9237	4,438.48	68.2799	4,438.48	62.8864	4,438.48	64.5032	4,438.48	61.5553	4,438.48	62.6811	4,438.48	64.7062	4,438.48	47.8073	4,438.48	61.6948	4,438.48	57.0726	4,438.48	62.6969	4,438.48	57.8477	4,438.48	62.5887	4,438.48	47.8078	4,438.48	64.9696	4,438.48	56.6491	4,438.48	64.3583
4,593.75	85.0346	4,593.75	84.6435	4,593.75	85.2692	4,593.75	83.8479	4,593.75	83.9828	4,593.75	83.0702	4,593.75	82.1234	4,593.75	79.7927	4,593.75	80.4538	4,593.75	78.1293	4,593.75	75.2022	4,593.75	75.598	4,593.75	72.873	4,593.75	72.8547	4,593.75	74.9169	4,593.75	72.4042	4,593.75	74.8797	4,593.75	71.2905	4,593.75	71.6983	4,593.75	66.5884	4,593.75	66.8397	4,593.75	65.072	4,593.75	64.4963	4,593.75	61.6201	4,593.75	52.3514	4,593.75	62.7286	4,593.75	57.2134	4,593.75	61.2009	4,593.75	42.0787	4,593.75	62.5211	4,593.75	59.8631	4,593.75	62.625	4,593.75	55.247	4,593.75	63.9482	4,593.75	53.5213	4,593.75	61.6502
4,757.81	85.0909	4,757.81	84.7154	4,757.81	85.3375	4,757.81	84.2489	4,757.81	84.6161	4,757.81	82.7062	4,757.81	81.952	4,757.81	80.383	4,757.81	80.8933	4,757.81	78.2172	4,757.81	77.7768	4,757.81	75.2089	4,757.81	72.568	4,757.81	74.6615	4,757.81	76.8363	4,757.81	71.9151	4,757.81	75.0117	4,757.81	68.3949	4,757.81	72.1843	4,757.81	68.2665	4,757.81	68.5799	4,757.81	65.1174	4,757.81	65.4003	4,757.81	61.5238	4,757.81	55.0535	4,757.81	62.5781	4,757.81	58.0389	4,757.81	60.9474	4,757.81	59.8457	4,757.81	61.5216	4,757.81	55.825	4,757.81	62.8021	4,757.81	57.148	4,757.81	65.8861	4,757.81	56.6421	4,757.81	64.0225
4,924.8	85.325	4,924.8	84.2048	4,924.8	85.3651	4,924.8	84.1422	4,924.8	84.6482	4,924.8	82.3133	4,924.8	82.4941	4,924.8	80.7972	4,924.8	81.2638	4,924.8	77.3889	4,924.8	78.5853	4,924.8	76.2664	4,924.8	75.2547	4,924.8	73.3137	4,924.8	78.2392	4,924.8	72.0423	4,924.8	75.5059	4,924.8	68.5098	4,924.8	71.8159	4,924.8	65.895	4,924.8	68.8789	4,924.8	64.7172	4,924.8	64.3237	4,924.8	62.1253	4,924.8	55.42	4,924.8	63.3386	4,924.8	56.7273	4,924.8	60.4545	4,924.8	59.9172	4,924.8	62.0445	4,924.8	44.734	4,924.8	61.4795	4,924.8	57.1926	4,924.8	62.7626	4,924.8	55.8419	4,924.8	62.931
5,097.66	84.9612	5,097.66	84.0411	5,097.66	84.9911	5,097.66	83.8149	5,097.66	84.3203	5,097.66	82.4049	5,097.66	82.169	5,097.66	80.5775	5,097.66	80.457	5,097.66	77.8413	5,097.66	78.875	5,097.66	76.025	5,097.66	76.4135	5,097.66	72.4327	5,097.66	79.029	5,097.66	71.9624	5,097.66	75.924	5,097.66	69.8453	5,097.66	69.4244	5,097.66	68.7651	5,097.66	70.2645	5,097.66	64.5997	5,097.66	64.6977	5,097.66	62.9329	5,097.66	45.9127	5,097.66	63.8369	5,097.66	51.6462	5,097.66	61.1295	5,097.66	58.1488	5,097.66	61.208	5,097.66	52.6521	5,097.66	60.7332	5,097.66	58.7839	5,097.66	65.0303	5,097.66	54.9545	5,097.66	62.2169
5,279.3	84.3768	5,279.3	83.8179	5,279.3	84.9291	5,279.3	83.5391	5,279.3	84.0868	5,279.3	81.9654	5,279.3	81.5477	5,279.3	79.9142	5,279.3	79.4017	5,279.3	78.2704	5,279.3	78.189	5,279.3	75.5058	5,279.3	74.5168	5,279.3	74.7195	5,279.3	77.5193	5,279.3	71.922	5,279.3	74.3068	5,279.3	68.0976	5,279.3	65.9428	5,279.3	66.7591	5,279.3	71.5106	5,279.3	64.598	5,279.3	64.6048	5,279.3	62.2123	5,279.3	50.7585	5,279.3	60.3112	5,279.3	51.2902	5,279.3	61.0953	5,279.3	58.8661	5,279.3	59.9553	5,279.3	44.2597	5,279.3	61.4429	5,279.3	58.2306	5,279.3	63.3342	5,279.3	56.3072	5,279.3	62.4214
5,463.87	84.6016	5,463.87	84.079	5,463.87	84.4265	5,463.87	82.9812	5,463.87	83.8212	5,463.87	81.5445	5,463.87	81.2125	5,463.87	80.233	5,463.87	79.1733	5,463.87	77.4038	5,463.87	77.784	5,463.87	75.8678	5,463.87	73.3486	5,463.87	73.1718	5,463.87	75.4428	5,463.87	69.9073	5,463.87	72.2054	5,463.87	69.0709	5,463.87	67.2212	5,463.87	65.6896	5,463.87	70.3712	5,463.87	63.0692	5,463.87	64.1852	5,463.87	61.4588	5,463.87	54.1346	5,463.87	60.6078	5,463.87	37.5991	5,463.87	60.5577	5,463.87	62.056	5,463.87	59.2637	5,463.87	51.9901	5,463.87	59.9367	5,463.87	57.2212	5,463.87	63.3258	5,463.87	54.5258	5,463.87	61.8173
5,657.23	84.2549	5,657.23	83.5656	5,657.23	83.8271	5,657.23	82.949	5,657.23	83.0293	5,657.23	81.7743	5,657.23	80.9119	5,657.23	79.758	5,657.23	79.4154	5,657.23	77.6357	5,657.23	77.8634	5,657.23	75.8722	5,657.23	72.6793	5,657.23	72.2906	5,657.23	72.9909	5,657.23	70.8326	5,657.23	73.0042	5,657.23	68.9075	5,657.23	66.9326	5,657.23	66.5698	5,657.23	68.7749	5,657.23	63.9775	5,657.23	63.4917	5,657.23	61.1987	5,657.23	55.4912	5,657.23	59.759	5,657.23	42.6706	5,657.23	59.9246	5,657.23	61.433	5,657.23	58.6376	5,657.23	51.0801	5,657.23	60.7527	5,657.23	56.6611	5,657.23	62.8465	5,657.23	52.4096	5,657.23	60.4091
5,856.45	84.4197	5,856.45	83.9639	5,856.45	84.0166	5,856.45	82.7698	5,856.45	82.8262	5,856.45	81.6122	5,856.45	80.8081	5,856.45	78.7699	5,856.45	78.9022	5,856.45	78.0955	5,856.45	78.5847	5,856.45	75.6932	5,856.45	73.8404	5,856.45	74.128	5,856.45	70.1876	5,856.45	71.4374	5,856.45	71.3698	5,856.45	67.8602	5,856.45	68.8728	5,856.45	64.6478	5,856.45	67.6587	5,856.45	64.0637	5,856.45	61.112	5,856.45	60.1058	5,856.45	51.6916	5,856.45	59.4395	5,856.45	44.6758	5,856.45	60.3601	5,856.45	57.4963	5,856.45	58.9425	5,856.45	47.5774	5,856.45	60.7603	5,856.45	53.1826	5,856.45	62.8792	5,856.45	53.0983	5,856.45	60.0207
6,061.52	85.0015	6,061.52	83.8491	6,061.52	84.199	6,061.52	83.004	6,061.52	82.4405	6,061.52	80.8919	6,061.52	80.5505	6,061.52	79.0294	6,061.52	79.589	6,061.52	77.3786	6,061.52	78.2199	6,061.52	76.0933	6,061.52	73.0724	6,061.52	72.6939	6,061.52	70.3808	6,061.52	69.5417	6,061.52	69.4425	6,061.52	67.1418	6,061.52	67.6418	6,061.52	65.018	6,061.52	67.7896	6,061.52	62.4996	6,061.52	61.0465	6,061.52	60.0726	6,061.52	49.5452	6,061.52	58.9303	6,061.52	46.6486	6,061.52	57.8154	6,061.52	56.8171	6,061.52	57.2932	6,061.52	46.0846	6,061.52	59.4441	6,061.52	52.1913	6,061.52	62.1934	6,061.52	53.3037	6,061.52	60.2619
6,275.39	85.2522	6,275.39	83.9054	6,275.39	84.5056	6,275.39	82.8983	6,275.39	82.8054	6,275.39	80.6461	6,275.39	80.5718	6,275.39	78.9076	6,275.39	78.9117	6,275.39	76.6633	6,275.39	77.8719	6,275.39	75.5587	6,275.39	73.0068	6,275.39	70.7699	6,275.39	70.62	6,275.39	70.3035	6,275.39	69.5229	6,275.39	65.6067	6,275.39	61.5948	6,275.39	64.6503	6,275.39	64.791	6,275.39	62.4996	6,275.39	60.414	6,275.39	59.6297	6,275.39	44.9754	6,275.39	58.3059	6,275.39	41.8659	6,275.39	57.8617	6,275.39	56.8844	6,275.39	56.4445	6,275.39	23.0579	6,275.39	58.6809	6,275.39	54.3849	6,275.39	62.2416	6,275.39	54.3796	6,275.39	60.3375
6,498.05	84.6092	6,498.05	83.5024	6,498.05	84.3365	6,498.05	82.5354	6,498.05	82.4991	6,498.05	80.6087	6,498.05	80.4617	6,498.05	78.6569	6,498.05	78.4622	6,498.05	77.0007	6,498.05	76.8056	6,498.05	73.874	6,498.05	72.1388	6,498.05	71.8868	6,498.05	69.692	6,498.05	69.5225	6,498.05	67.1853	6,498.05	65.9002	6,498.05	63.6775	6,498.05	64.1663	6,498.05	66.9951	6,498.05	61.6062	6,498.05	62.784	6,498.05	61.0378	6,498.05	53.367	6,498.05	58.2075	6,498.05	47.5852	6,498.05	58.7768	6,498.05	56.5935	6,498.05	55.3697	6,498.05	29.7663	6,498.05	56.7777	6,498.05	51.8567	6,498.05	62.4364	6,498.05	56.4569	6,498.05	59.124
6,726.56	84.6364	6,726.56	83.8236	6,726.56	84.287	6,726.56	82.2642	6,726.56	82.2054	6,726.56	80.4627	6,726.56	80.73	6,726.56	79.0089	6,726.56	78.5831	6,726.56	76.6867	6,726.56	75.4275	6,726.56	73.3294	6,726.56	72.4469	6,726.56	70.854	6,726.56	67.6649	6,726.56	68.6651	6,726.56	68.4152	6,726.56	66.1097	6,726.56	65.4484	6,726.56	62.6317	6,726.56	64.5197	6,726.56	61.3016	6,726.56	60.465	6,726.56	58.4541	6,726.56	52.8162	6,726.56	56.353	6,726.56	54.1081	6,726.56	58.9915	6,726.56	54.6967	6,726.56	53.2621	6,726.56	45.7837	6,726.56	58.4724	6,726.56	52.6278	6,726.56	61.0426	6,726.56	56.696	6,726.56	57.5268
6,963.87	84.6879	6,963.87	83.6372	6,963.87	83.9655	6,963.87	81.8985	6,963.87	82.4821	6,963.87	80.5248	6,963.87	80.826	6,963.87	79.0872	6,963.87	79.7043	6,963.87	75.6011	6,963.87	77.605	6,963.87	73.6583	6,963.87	74.6286	6,963.87	70.8	6,963.87	67.5042	6,963.87	69.9104	6,963.87	70.3878	6,963.87	66.0129	6,963.87	68.2261	6,963.87	63.8192	6,963.87	60.0665	6,963.87	61.7256	6,963.87	60.9682	6,963.87	60.3756	6,963.87	51.2191	6,963.87	55.6365	6,963.87	52.6244	6,963.87	58.5236	6,963.87	38.4091	6,963.87	54.667	6,963.87	47.4831	6,963.87	58.5523	6,963.87	53.2397	6,963.87	58.5322	6,963.87	51.6242	6,963.87	58.7911
7,209.96	84.3148	7,209.96	83.3615	7,209.96	83.7793	7,209.96	81.6667	7,209.96	82.5776	7,209.96	80.5777	7,209.96	80.808	7,209.96	78.4356	7,209.96	79.1673	7,209.96	75.8364	7,209.96	76.9869	7,209.96	73.5092	7,209.96	74.4029	7,209.96	70.9327	7,209.96	70.8812	7,209.96	67.2601	7,209.96	72.8828	7,209.96	64.9088	7,209.96	68.5936	7,209.96	62.2966	7,209.96	58.8294	7,209.96	61.0585	7,209.96	57.8819	7,209.96	57.3511	7,209.96	50.3012	7,209.96	55.3133	7,209.96	54.7906	7,209.96	58.6652	7,209.96	54.1894	7,209.96	53.5751	7,209.96	50.6719	7,209.96	57.2094	7,209.96	52.6873	7,209.96	57.3026	7,209.96	39.9335	7,209.96	58.0532
7,464.84	84.5267	7,464.84	83.4904	7,464.84	83.4052	7,464.84	81.3983	7,464.84	82.1232	7,464.84	80.4019	7,464.84	80.5909	7,464.84	78.1507	7,464.84	78.4386	7,464.84	75.8726	7,464.84	75.9911	7,464.84	72.9615	7,464.84	74.5066	7,464.84	69.8111	7,464.84	73.3477	7,464.84	68.2566	7,464.84	73.5871	7,464.84	65.1268	7,464.84	67.0714	7,464.84	62.4345	7,464.84	56.984	7,464.84	60.9296	7,464.84	53.1406	7,464.84	56.521	7,464.84	45.6243	7,464.84	53.8449	7,464.84	53.2661	7,464.84	57.8173	7,464.84	56.675	7,464.84	52.1804	7,464.84	36.6548	7,464.84	55.6782	7,464.84	53.583	7,464.84	57.6915	7,464.84	45.7744	7,464.84	58.3023
7,728.52	84.4812	7,728.52	83.2694	7,728.52	83.2452	7,728.52	81.5378	7,728.52	82.2365	7,728.52	80.4186	7,728.52	80.8355	7,728.52	78.5453	7,728.52	78.9249	7,728.52	76.1415	7,728.52	76.8745	7,728.52	73.4296	7,728.52	76.7929	7,728.52	70.6684	7,728.52	73.3577	7,728.52	67.8897	7,728.52	71.5134	7,728.52	64.8783	7,728.52	65.3321	7,728.52	60.9687	7,728.52	63.7558	7,728.52	61.5155	7,728.52	59.5844	7,728.52	56.9873	7,728.52	41.1148	7,728.52	56.9757	7,728.52	54.213	7,728.52	58.5236	7,728.52	54.0232	7,728.52	54.8713	7,728.52	43.1852	7,728.52	55.9984	7,728.52	52.2046	7,728.52	58.551	7,728.52	36.2726	7,728.52	57.8179
8,000.98	84.7498	8,000.98	83.496	8,000.98	83.2056	8,000.98	82.1021	8,000.98	82.3301	8,000.98	80.4818	8,000.98	80.851	8,000.98	79.0681	8,000.98	78.0447	8,000.98	76.1973	8,000.98	77.8167	8,000.98	74.3139	8,000.98	77.7565	8,000.98	70.715	8,000.98	70.3617	8,000.98	68.7931	8,000.98	67.0448	8,000.98	65.2634	8,000.98	63.7602	8,000.98	61.5819	8,000.98	63.3413	8,000.98	60.884	8,000.98	61.5644	8,000.98	58.0294	8,000.98	39.5818	8,000.98	55.1365	8,000.98	52.3453	8,000.98	57.7306	8,000.98	36.9052	8,000.98	54.3507	8,000.98	41.3763	8,000.98	56.2249	8,000.98	52.0774	8,000.98	58.1723	8,000.98	44.251	8,000.98	57.6486
8,282.23	85.096	8,282.23	83.9015	8,282.23	83.5701	8,282.23	82.2637	8,282.23	82.395	8,282.23	80.681	8,282.23	81.127	8,282.23	78.5242	8,282.23	78.2113	8,282.23	76.9748	8,282.23	77.3525	8,282.23	73.7269	8,282.23	77.3622	8,282.23	71.1248	8,282.23	67.321	8,282.23	67.7798	8,282.23	64.8137	8,282.23	64.4688	8,282.23	65.4419	8,282.23	60.5614	8,282.23	60.3705	8,282.23	59.0206	8,282.23	61.8333	8,282.23	55.5831	8,282.23	50.6818	8,282.23	52.7429	8,282.23	45.1348	8,282.23	56.1692	8,282.23	52.5517	8,282.23	54.2626	8,282.23	49.2955	8,282.23	55.3788	8,282.23	54.1291	8,282.23	58.2327	8,282.23	43.1715	8,282.23	59.2276
8,575.2	85.086	8,575.2	83.8507	8,575.2	83.8831	8,575.2	82.4795	8,575.2	82.8235	8,575.2	80.5543	8,575.2	80.9439	8,575.2	78.7267	8,575.2	78.961	8,575.2	76.5721	8,575.2	77.9403	8,575.2	73.571	8,575.2	77.0737	8,575.2	70.8114	8,575.2	66.361	8,575.2	67.7497	8,575.2	70.2555	8,575.2	64.2601	8,575.2	63.0875	8,575.2	60.7179	8,575.2	56.3809	8,575.2	59.4387	8,575.2	59.5177	8,575.2	54.4813	8,575.2	51.6167	8,575.2	52.6169	8,575.2	53.2767	8,575.2	56.4125	8,575.2	51.1406	8,575.2	54.3128	8,575.2	41.2485	8,575.2	55.0271	8,575.2	52.6969	8,575.2	57.4503	8,575.2	42.5222	8,575.2	58.588
8,876.95	84.4264	8,876.95	83.4653	8,876.95	83.7442	8,876.95	82.4741	8,876.95	82.8249	8,876.95	80.3162	8,876.95	81.0043	8,876.95	78.4579	8,876.95	79.2875	8,876.95	76.0627	8,876.95	77.9986	8,876.95	73.1671	8,876.95	75.3627	8,876.95	70.7916	8,876.95	71.6378	8,876.95	66.8849	8,876.95	72.4129	8,876.95	63.939	8,876.95	61.0406	8,876.95	60.5667	8,876.95	54.3323	8,876.95	58.0804	8,876.95	57.6977	8,876.95	51.9144	8,876.95	51.2224	8,876.95	52.1105	8,876.95	47.384	8,876.95	54.8983	8,876.95	48.9654	8,876.95	54.773	8,876.95	46.3034	8,876.95	55.3193	8,876.95	52.7219	8,876.95	57.8235	8,876.95	36.0827	8,876.95	59.0685
9,190.43	83.5611	9,190.43	83.2821	9,190.43	83.2481	9,190.43	82.0775	9,190.43	82.3649	9,190.43	80.2868	9,190.43	80.8067	9,190.43	78.0839	9,190.43	79.0465	9,190.43	75.9071	9,190.43	75.9659	9,190.43	72.2216	9,190.43	71.5947	9,190.43	70.5599	9,190.43	73.1296	9,190.43	67.1196	9,190.43	72.4774	9,190.43	63.4431	9,190.43	59.9169	9,190.43	59.8022	9,190.43	58.5149	9,190.43	58.1199	9,190.43	58.4846	9,190.43	53.5552	9,190.43	39.8243	9,190.43	49.82	9,190.43	49.3503	9,190.43	55.0923	9,190.43	52.784	9,190.43	55.3233	9,190.43	46.5948	9,190.43	53.8061	9,190.43	53.1707	9,190.43	58.1432	9,190.43	35.9201	9,190.43	58.5198
9,512.7	83.17	9,512.7	83.0606	9,512.7	82.9602	9,512.7	81.6718	9,512.7	82.0779	9,512.7	79.722	9,512.7	80.3141	9,512.7	77.8697	9,512.7	78.5497	9,512.7	74.9274	9,512.7	75.2224	9,512.7	72.6464	9,512.7	71.4272	9,512.7	70.0593	9,512.7	73.1075	9,512.7	66.1025	9,512.7	69.9863	9,512.7	61.4609	9,512.7	61.1094	9,512.7	59.2278	9,512.7	57.2732	9,512.7	57.0395	9,512.7	51.1318	9,512.7	53.3458	9,512.7	45.7747	9,512.7	51.0216	9,512.7	48.6337	9,512.7	55.2532	9,512.7	53.5877	9,512.7	54.7491	9,512.7	51.9008	9,512.7	49.5628	9,512.7	53.8304	9,512.7	57.8179	9,512.7	45.1237	9,512.7	58.8846
9,849.61	82.1699	9,849.61	82.3075	9,849.61	82.0909	9,849.61	80.7613	9,849.61	81.2198	9,849.61	78.7328	9,849.61	79.3777	9,849.61	76.2298	9,849.61	77.2414	9,849.61	75.029	9,849.61	74.6032	9,849.61	71.6565	9,849.61	71.9744	9,849.61	69.0487	9,849.61	70.4248	9,849.61	64.0928	9,849.61	67.9623	9,849.61	61.2076	9,849.61	59.981	9,849.61	55.932	9,849.61	58.1439	9,849.61	55.3486	9,849.61	56.7056	9,849.61	51.2134	9,849.61	42.8325	9,849.61	50.9776	9,849.61	45.1757	9,849.61	55.1221	9,849.61	49.6491	9,849.61	51.199	9,849.61	42.8177	9,849.61	47.2541	9,849.61	53.1807	9,849.61	57.4925	9,849.61	47.3569	9,849.61	58.2425
10,195.3	80.6648	10,195.3	80.9059	10,195.3	80.5724	10,195.3	79.2939	10,195.3	79.3744	10,195.3	77.1166	10,195.3	77.6632	10,195.3	74.5416	10,195.3	75.4407	10,195.3	73.8221	10,195.3	72.9	10,195.3	70.2279	10,195.3	69.8305	10,195.3	66.1793	10,195.3	67.7142	10,195.3	61.996	10,195.3	65.4031	10,195.3	59.3516	10,195.3	53.8772	10,195.3	55.1143	10,195.3	52.0535	10,195.3	52.2096	10,195.3	52.7882	10,195.3	49.9897	10,195.3	35.0087	10,195.3	48.4123	10,195.3	48.4721	10,195.3	52.8505	10,195.3	44.7334	10,195.3	50.0182	10,195.3	46.1082	10,195.3	43.8241	10,195.3	53.0626	10,195.3	54.3637	10,195.3	42.3772	10,195.3	55.8699
10,555.7	80.0715	10,555.7	80.095	10,555.7	80.1049	10,555.7	78.8565	10,555.7	78.8383	10,555.7	76.386	10,555.7	77.1303	10,555.7	73.6007	10,555.7	74.8405	10,555.7	72.5646	10,555.7	72.712	10,555.7	69.0663	10,555.7	68.4233	10,555.7	64.9757	10,555.7	67.9607	10,555.7	60.991	10,555.7	63.9047	10,555.7	57.7145	10,555.7	41.2253	10,555.7	54.9091	10,555.7	53.061	10,555.7	50.353	10,555.7	41.8633	10,555.7	49.8796	10,555.7	42.6689	10,555.7	47.2311	10,555.7	43.4661	10,555.7	50.2682	10,555.7	35.738	10,555.7	47.1054	10,555.7	47.3424	10,555.7	42.3905	10,555.7	50.0167	10,555.7	54.8848	10,555.7	44.6344	10,555.7	53.3163
10,927.7	81.9168	10,927.7	81.5837	10,927.7	82.2022	10,927.7	80.8444	10,927.7	80.9231	10,927.7	78.2849	10,927.7	79.0919	10,927.7	75.8687	10,927.7	76.4135	10,927.7	73.7976	10,927.7	74.3504	10,927.7	70.6265	10,927.7	68.5824	10,927.7	66.261	10,927.7	68.7232	10,927.7	62.7554	10,927.7	62.5391	10,927.7	59.2296	10,927.7	56.9453	10,927.7	56.4985	10,927.7	57.314	10,927.7	51.0269	10,927.7	52.8549	10,927.7	52.3316	10,927.7	45.0824	10,927.7	46.3902	10,927.7	48.4305	10,927.7	50.9091	10,927.7	42.8405	10,927.7	49.2252	10,927.7	50.2392	10,927.7	47.412	10,927.7	50.873	10,927.7	56.1637	10,927.7	48.624	10,927.7	54.9099
11,314.5	82.1299	11,314.5	81.978	11,314.5	82.4079	11,314.5	81.4827	11,314.5	81.5512	11,314.5	78.5968	11,314.5	79.6124	11,314.5	76.464	11,314.5	77.0058	11,314.5	73.601	11,314.5	74.7206	11,314.5	70.4556	11,314.5	68.7372	11,314.5	67.1756	11,314.5	68.2344	11,314.5	61.6748	11,314.5	64.1353	11,314.5	58.8276	11,314.5	55.1996	11,314.5	55.9478	11,314.5	56.6528	11,314.5	49.7004	11,314.5	56.2525	11,314.5	51.7356	11,314.5	43.3497	11,314.5	46.2716	11,314.5	45.1287	11,314.5	51.5479	11,314.5	48.2753	11,314.5	48.2604	11,314.5	51.3674	11,314.5	49.268	11,314.5	53.1702	11,314.5	56.135	11,314.5	49.9422	11,314.5	57.6617
11,712.9	81.4525	11,712.9	81.7408	11,712.9	81.7035	11,712.9	81.4174	11,712.9	81.2921	11,712.9	78.6761	11,712.9	79.1233	11,712.9	76.1865	11,712.9	77.2642	11,712.9	73.2738	11,712.9	74.9542	11,712.9	69.74	11,712.9	68.6966	11,712.9	66.8396	11,712.9	67.9874	11,712.9	61.0905	11,712.9	64.4434	11,712.9	58.4983	11,712.9	53.4451	11,712.9	54.325	11,712.9	53.4232	11,712.9	51.1707	11,712.9	56.2617	11,712.9	50.12	11,712.9	39.3412	11,712.9	45.8886	11,712.9	46.8002	11,712.9	50.0059	11,712.9	46.689	11,712.9	44.535	11,712.9	52.6088	11,712.9	48.2117	11,712.9	51.4959	11,712.9	54.1788	11,712.9	53.4993	11,712.9	56.8043
12,126	81.9824	12,126	82.1691	12,126	81.8467	12,126	81.4961	12,126	80.9634	12,126	78.9751	12,126	79.053	12,126	75.7137	12,126	77.3564	12,126	73.6007	12,126	74.5217	12,126	68.9229	12,126	69.903	12,126	66.6394	12,126	68.5301	12,126	60.5827	12,126	61.5342	12,126	57.9568	12,126	55.2791	12,126	54.392	12,126	55.833	12,126	50.4019	12,126	48.9744	12,126	49.7266	12,126	45.0413	12,126	47.2431	12,126	50.0356	12,126	49.8973	12,126	47.3668	12,126	45.1059	12,126	50.59	12,126	46.5915	12,126	52.0098	12,126	53.1808	12,126	53.652	12,126	55.1815
12,553.7	82.7796	12,553.7	82.363	12,553.7	82.9357	12,553.7	81.4812	12,553.7	81.6688	12,553.7	79.3257	12,553.7	79.7155	12,553.7	75.351	12,553.7	77.227	12,553.7	73.6812	12,553.7	73.5489	12,553.7	68.4369	12,553.7	71.0035	12,553.7	66.3301	12,553.7	67.3953	12,553.7	60.6645	12,553.7	55.8493	12,553.7	57.7864	12,553.7	56.2606	12,553.7	54.4024	12,553.7	54.1425	12,553.7	48.6039	12,553.7	50.181	12,553.7	50.2885	12,553.7	41.5971	12,553.7	48.1908	12,553.7	48.7526	12,553.7	49.6372	12,553.7	44.0982	12,553.7	40.1531	12,553.7	49.0507	12,553.7	46.3422	12,553.7	49.539	12,553.7	52.5691	12,553.7	53.161	12,553.7	55.2702
12,996.1	82.6344	12,996.1	82.2789	12,996.1	82.9813	12,996.1	81.1337	12,996.1	81.7752	12,996.1	78.9246	12,996.1	79.623	12,996.1	74.8441	12,996.1	76.6721	12,996.1	72.6345	12,996.1	73.0924	12,996.1	68.5172	12,996.1	69.8328	12,996.1	65.5189	12,996.1	66.6459	12,996.1	59.2109	12,996.1	52.3523	12,996.1	57.3947	12,996.1	55.7118	12,996.1	52.8627	12,996.1	53.6906	12,996.1	46.2244	12,996.1	51.1812	12,996.1	51.2781	12,996.1	41.3619	12,996.1	46.0041	12,996.1	46.0542	12,996.1	48.5953	12,996.1	43.0308	12,996.1	37.1712	12,996.1	48.1135	12,996.1	40.1314	12,996.1	43.6687	12,996.1	46.6542	12,996.1	50.6777	12,996.1	52.4865
13,453.1	82.8392	13,453.1	82.7268	13,453.1	82.9344	13,453.1	81.4843	13,453.1	81.9949	13,453.1	78.8082	13,453.1	79.794	13,453.1	74.7011	13,453.1	76.1901	13,453.1	72.0385	13,453.1	72.6605	13,453.1	68.4661	13,453.1	69.7219	13,453.1	63.8532	13,453.1	65.1062	13,453.1	57.6921	13,453.1	54.6651	13,453.1	57.24	13,453.1	54.1531	13,453.1	52.2034	13,453.1	51.1956	13,453.1	48.1088	13,453.1	53.105	13,453.1	50.8294	13,453.1	36.5918	13,453.1	42.4993	13,453.1	46.1458	13,453.1	47.7821	13,453.1	42.9894	13,453.1	32.4043	13,453.1	50.6408	13,453.1	35.5162	13,453.1	47.2306	13,453.1	42.6075	13,453.1	50.2494	13,453.1	50.0123
13,927.7	83.4554	13,927.7	83.2702	13,927.7	83.378	13,927.7	82.1327	13,927.7	82.5227	13,927.7	79.3866	13,927.7	80.4796	13,927.7	75.2236	13,927.7	76.508	13,927.7	72.2838	13,927.7	73.4375	13,927.7	67.3815	13,927.7	70.0805	13,927.7	63.5845	13,927.7	62.382	13,927.7	58.2775	13,927.7	59.206	13,927.7	56.358	13,927.7	50.6936	13,927.7	50.8998	13,927.7	46.4252	13,927.7	48.3434	13,927.7	54.5252	13,927.7	48.5806	13,927.7	40.207	13,927.7	32.372	13,927.7	50.1609	13,927.7	46.4111	13,927.7	44.9663	13,927.7	35.9814	13,927.7	52.0446	13,927.7	42.5783	13,927.7	49.4687	13,927.7	42.1131	13,927.7	50.4535	13,927.7	44.1569
14,419.9	83.4457	14,419.9	82.9578	14,419.9	83.3435	14,419.9	82.0472	14,419.9	82.3702	14,419.9	79.5621	14,419.9	80.3574	14,419.9	75.1031	14,419.9	75.9261	14,419.9	72.1661	14,419.9	72.5816	14,419.9	65.9715	14,419.9	68.9091	14,419.9	62.6261	14,419.9	65.7699	14,419.9	59.2027	14,419.9	58.6945	14,419.9	54.9506	14,419.9	53.0459	14,419.9	50.68	14,419.9	51.7757	14,419.9	47.9495	14,419.9	53.7741	14,419.9	45.3649	14,419.9	41.9567	14,419.9	30.6614	14,419.9	50.2759	14,419.9	44.5367	14,419.9	49.4398	14,419.9	38.6163	14,419.9	47.2793	14,419.9	46.6649	14,419.9	42.1559	14,419.9	46.4591	14,419.9	47.5456	14,419.9	41.0682
14,929.7	83.4498	14,929.7	82.468	14,929.7	83.3676	14,929.7	81.3734	14,929.7	82.3867	14,929.7	78.4915	14,929.7	80.1354	14,929.7	73.4648	14,929.7	76.1562	14,929.7	69.9832	14,929.7	73.0469	14,929.7	64.4073	14,929.7	70.0674	14,929.7	60.5658	14,929.7	64.5916	14,929.7	57.2511	14,929.7	58.3858	14,929.7	52.7613	14,929.7	52.1871	14,929.7	49.1315	14,929.7	50.3696	14,929.7	44.125	14,929.7	50.9424	14,929.7	43.2242	14,929.7	49.5965	14,929.7	31.7099	14,929.7	50.8391	14,929.7	43.2254	14,929.7	49.0043	14,929.7	32.3345	14,929.7	34.2432	14,929.7	44.2758	14,929.7	40.0506	14,929.7	49.2857	14,929.7	49.7648	14,929.7	48.7228
15,454.1	83.2207	15,454.1	82.3787	15,454.1	82.9224	15,454.1	81.2233	15,454.1	81.683	15,454.1	77.6821	15,454.1	79.1458	15,454.1	73.0414	15,454.1	75.4313	15,454.1	69.2951	15,454.1	71.7166	15,454.1	64.1237	15,454.1	66.1998	15,454.1	61.5119	15,454.1	61.347	15,454.1	56.6654	15,454.1	55.2522	15,454.1	51.6464	15,454.1	50.2153	15,454.1	47.1494	15,454.1	47.1409	15,454.1	46.0389	15,454.1	53.1561	15,454.1	42.0235	15,454.1	49.4977	15,454.1	27.5205	15,454.1	44.9493	15,454.1	42.3293	15,454.1	42.6626	15,454.1	35.3144	15,454.1	45.5341	15,454.1	44.4488	15,454.1	46.7453	15,454.1	53.2362	15,454.1	44.906	15,454.1	52.2896
15,999	82.6241	15,999	81.8685	15,999	82.2351	15,999	80.7811	15,999	81.1269	15,999	77.1744	15,999	78.0958	15,999	72.6487	15,999	74.2755	15,999	68.607	15,999	69.8673	15,999	64.1215	15,999	65.0007	15,999	59.9214	15,999	60.7013	15,999	56.5089	15,999	54.6701	15,999	50.0208	15,999	44.6026	15,999	46.2788	15,999	44.4614	15,999	43.1027	15,999	54.3396	15,999	37.357	15,999	51.2032	15,999	23.8548	15,999	45.4361	15,999	36.7823	15,999	47.0784	15,999	39.756	15,999	46.6157	15,999	45.7686	15,999	44.3318	15,999	49.7922	15,999	43.9382	15,999	51.0812
16,564.5	82.3965	16,564.5	81.8368	16,564.5	81.7645	16,564.5	80.9245	16,564.5	80.438	16,564.5	77.4942	16,564.5	76.9259	16,564.5	73.1674	16,564.5	72.598	16,564.5	68.3477	16,564.5	68.2123	16,564.5	64.1916	16,564.5	62.7025	16,564.5	59.0435	16,564.5	58.5707	16,564.5	56.4081	16,564.5	57.3104	16,564.5	49.5047	16,564.5	42.8927	16,564.5	46.7298	16,564.5	39.5752	16,564.5	43.2509	16,564.5	57.451	16,564.5	35.1352	16,564.5	52.0255	16,564.5	36.9467	16,564.5	48.8336	16,564.5	33.529	16,564.5	48.3784	16,564.5	38.5415	16,564.5	44.7467	16,564.5	48.7647	16,564.5	47.158	16,564.5	50.5721	16,564.5	34.7909	16,564.5	51.8096
17,147.5	82.7834	17,147.5	81.7841	17,147.5	82.157	17,147.5	80.3622	17,147.5	80.8302	17,147.5	76.4415	17,147.5	77.7538	17,147.5	71.1034	17,147.5	74.2483	17,147.5	65.2076	17,147.5	69.42	17,147.5	60.0599	17,147.5	61.9405	17,147.5	52.3908	17,147.5	62.6351	17,147.5	52.9538	17,147.5	53.2469	17,147.5	40.9249	17,147.5	51.1909	17,147.5	44.2783	17,147.5	46.4422	17,147.5	40.5604	17,147.5	59.1881	17,147.5	31.1973	17,147.5	52.5561	17,147.5	36.9982	17,147.5	47.2473	17,147.5	32.749	17,147.5	46.8089	17,147.5	38.1604	17,147.5	36.2742	17,147.5	48.3336	17,147.5	50.2029	17,147.5	47.1041	17,147.5	48.8743	17,147.5	55.0696
17,753.9	85.9679	17,753.9	84.3085	17,753.9	85.8394	17,753.9	81.3504	17,753.9	85.061	17,753.9	75.0417	17,753.9	82.8493	17,753.9	67.3885	17,753.9	79	17,753.9	61.4262	17,753.9	74.9792	17,753.9	58.2398	17,753.9	70.013	17,753.9	55.6363	17,753.9	62.3568	17,753.9	51.8969	17,753.9	63.0811	17,753.9	48.9707	17,753.9	43.6472	17,753.9	39.1482	17,753.9	48.1891	17,753.9	27.6807	17,753.9	59.77	17,753.9	34.5286	17,753.9	48.1435	17,753.9	40.2273	17,753.9	54.24	17,753.9	39.3463	17,753.9	50.4454	17,753.9	44.9477	17,753.9	46.8397	17,753.9	47.4351	17,753.9	53.7759	17,753.9	53.029	17,753.9	56.8474	17,753.9	59.1175
18,377.9	88.1691	18,377.9	86.2865	18,377.9	88.7414	18,377.9	83.6557	18,377.9	88.3231	18,377.9	77.3375	18,377.9	85.9734	18,377.9	72.5567	18,377.9	81.8036	18,377.9	69.9001	18,377.9	76.6527	18,377.9	67.81	18,377.9	70.5179	18,377.9	64.4985	18,377.9	69.761	18,377.9	58.0998	18,377.9	64.9715	18,377.9	55.5689	18,377.9	49.8331	18,377.9	41.4031	18,377.9	53.0759	18,377.9	42.257	18,377.9	60.2141	18,377.9	42.7016	18,377.9	54.8805	18,377.9	40.6826	18,377.9	57.162	18,377.9	41.8861	18,377.9	58.0363	18,377.9	48.8959	18,377.9	53.0019	18,377.9	47.592	18,377.9	57.6435	18,377.9	63.0715	18,377.9	62.178	18,377.9	61.361
19,028.3	90.7372	19,028.3	89.2348	19,028.3	91.4177	19,028.3	87.6002	19,028.3	90.5465	19,028.3	83.2616	19,028.3	87.5473	19,028.3	79.0926	19,028.3	83.1506	19,028.3	74.5704	19,028.3	77.1677	19,028.3	72.6838	19,028.3	70.3067	19,028.3	68.3692	19,028.3	67.7005	19,028.3	63.0473	19,028.3	66.2799	19,028.3	58.8514	19,028.3	53.8471	19,028.3	48.7215	19,028.3	56.5985	19,028.3	45.899	19,028.3	57.6125	19,028.3	47.8054	19,028.3	61.3338	19,028.3	52.0816	19,028.3	61.0462	19,028.3	44.7039	19,028.3	61.5799	19,028.3	50.9128	19,028.3	54.8267	19,028.3	61.0793	19,028.3	59.1455	19,028.3	68.4562	19,028.3	62.4349	19,028.3	68.7563
19,699.2	92.1354	19,699.2	90.6379	19,699.2	92.6989	19,699.2	88.8859	19,699.2	91.2897	19,699.2	84.791	19,699.2	88.1295	19,699.2	81.2003	19,699.2	82.9349	19,699.2	74.8915	19,699.2	76.7415	19,699.2	74.5211	19,699.2	67.864	19,699.2	70.2143	19,699.2	68.3572	19,699.2	64.6159	19,699.2	66.9041	19,699.2	61.1902	19,699.2	58.2722	19,699.2	53.2468	19,699.2	57.0814	19,699.2	49.075	19,699.2	61.1392	19,699.2	52.8244	19,699.2	63.5442	19,699.2	55.4582	19,699.2	61.2968	19,699.2	48.6781	19,699.2	62.0134	19,699.2	55.1796	19,699.2	54.9716	19,699.2	64.336	19,699.2	61.0753	19,699.2	70.5145	19,699.2	63.3208	19,699.2	72.0052
19,998	91.9196	19,998	90.6491	19,998	92.7687	19,998	88.8742	19,998	91.0588	19,998	84.908	19,998	87.6777	19,998	81.6251	19,998	82.4852	19,998	75.1069	19,998	74.3716	19,998	74.6769	19,998	70.0008	19,998	69.3198	19,998	68.2638	19,998	65.404	19,998	63.609	19,998	61.9072	19,998	59.4513	19,998	55.5477	19,998	60.0693	19,998	51.8291	19,998	65.4337	19,998	48.1206	19,998	65.5921	19,998	55.0576	19,998	62.6736	19,998	55.5447	19,998	56.6785	19,998	50.3556	19,998	57.8796	19,998	65.1083	19,998	61.5938	19,998	71.3038	19,998	62.1191	19,998	71.7016
