"SPL Horizontal"																																																																							
"On-Axis"		"10°"		"-10°"		"20°"		"-20°"		"30°"		"-30°"		"40°"		"-40°"		"50°"		"-50°"		"60°"		"-60°"		"70°"		"-70°"		"80°"		"-80°"		"90°"		"-90°"		"100°"		"-100°"		"110°"		"-110°"		"120°"		"-120°"		"130°"		"-130°"		"140°"		"-140°"		"150°"		"-150°"		"160°"		"-160°"		"170°"		"-170°"		"180°"	
"Frequency [Hz]"	"Sound Pessure Level [dB]  / [2.83V 1m] "	"Frequency [Hz]"	"Sound Pessure Level [dB]  / [2.83V 1m] "	"Frequency [Hz]"	"Sound Pessure Level [dB]  / [2.83V 1m] "	"Frequency [Hz]"	"Sound Pessure Level [dB]  / [2.83V 1m] "	"Frequency [Hz]"	"Sound Pessure Level [dB]  / [2.83V 1m] "	"Frequency [Hz]"	"Sound Pessure Level [dB]  / [2.83V 1m] "	"Frequency [Hz]"	"Sound Pessure Level [dB]  / [2.83V 1m] "	"Frequency [Hz]"	"Sound Pessure Level [dB]  / [2.83V 1m] "	"Frequency [Hz]"	"Sound Pessure Level [dB]  / [2.83V 1m] "	"Frequency [Hz]"	"Sound Pessure Level [dB]  / [2.83V 1m] "	"Frequency [Hz]"	"Sound Pessure Level [dB]  / [2.83V 1m] "	"Frequency [Hz]"	"Sound Pessure Level [dB]  / [2.83V 1m] "	"Frequency [Hz]"	"Sound Pessure Level [dB]  / [2.83V 1m] "	"Frequency [Hz]"	"Sound Pessure Level [dB]  / [2.83V 1m] "	"Frequency [Hz]"	"Sound Pessure Level [dB]  / [2.83V 1m] "	"Frequency [Hz]"	"Sound Pessure Level [dB]  / [2.83V 1m] "	"Frequency [Hz]"	"Sound Pessure Level [dB]  / [2.83V 1m] "	"Frequency [Hz]"	"Sound Pessure Level [dB]  / [2.83V 1m] "	"Frequency [Hz]"	"Sound Pessure Level [dB]  / [2.83V 1m] "	"Frequency [Hz]"	"Sound Pessure Level [dB]  / [2.83V 1m] "	"Frequency [Hz]"	"Sound Pessure Level [dB]  / [2.83V 1m] "	"Frequency [Hz]"	"Sound Pessure Level [dB]  / [2.83V 1m] "	"Frequency [Hz]"	"Sound Pessure Level [dB]  / [2.83V 1m] "	"Frequency [Hz]"	"Sound Pessure Level [dB]  / [2.83V 1m] "	"Frequency [Hz]"	"Sound Pessure Level [dB]  / [2.83V 1m] "	"Frequency [Hz]"	"Sound Pessure Level [dB]  / [2.83V 1m] "	"Frequency [Hz]"	"Sound Pessure Level [dB]  / [2.83V 1m] "	"Frequency [Hz]"	"Sound Pessure Level [dB]  / [2.83V 1m] "	"Frequency [Hz]"	"Sound Pessure Level [dB]  / [2.83V 1m] "	"Frequency [Hz]"	"Sound Pessure Level [dB]  / [2.83V 1m] "	"Frequency [Hz]"	"Sound Pessure Level [dB]  / [2.83V 1m] "	"Frequency [Hz]"	"Sound Pessure Level [dB]  / [2.83V 1m] "	"Frequency [Hz]"	"Sound Pessure Level [dB]  / [2.83V 1m] "	"Frequency [Hz]"	"Sound Pessure Level [dB]  / [2.83V 1m] "	"Frequency [Hz]"	"Sound Pessure Level [dB]  / [2.83V 1m] "	"Frequency [Hz]"	"Sound Pessure Level [dB]  / [2.83V 1m] "
20.5078	53.8526	20.5078	53.7068	20.5078	53.8185	20.5078	53.3875	20.5078	53.6083	20.5078	52.9208	20.5078	53.2398	20.5078	52.3765	20.5078	52.7593	20.5078	51.9098	20.5078	52.2737	20.5078	51.7822	20.5078	51.9843	20.5078	52.2487	20.5078	52.1537	20.5078	53.3252	20.5078	52.9273	20.5078	54.7678	20.5078	54.1839	20.5078	56.3019	20.5078	55.6578	20.5078	57.7553	20.5078	57.1317	20.5078	59.047	20.5078	58.4852	20.5078	60.1444	20.5078	59.6639	20.5078	61.036	20.5078	60.646	20.5078	61.7187	20.5078	61.4236	20.5078	62.1917	20.5078	61.994	20.5078	62.4555	20.5078	62.3563	20.5078	62.5102
23.4375	57.183	23.4375	57.0733	23.4375	57.1565	23.4375	56.8419	23.4375	56.9969	23.4375	56.5291	23.4375	56.7267	23.4375	56.2175	23.4375	56.3997	23.4375	56.0474	23.4375	56.1196	23.4375	56.1963	23.4375	56.0472	23.4375	56.7861	23.4375	56.3546	23.4375	57.785	23.4375	57.113	23.4375	59.0323	23.4375	58.2304	23.4375	60.3519	23.4375	59.5262	23.4375	61.6191	23.4375	60.8393	23.4375	62.7628	23.4375	62.067	23.4375	63.7466	23.4375	63.1538	23.4375	64.5523	23.4375	64.0719	23.4375	65.1709	23.4375	64.8077	23.4375	65.5976	23.4375	65.3542	23.4375	65.8299	23.4375	65.7079	23.4375	65.8667
26.3672	61.1646	26.3672	61.1213	26.3672	61.1433	26.3672	61.0271	26.3672	61.0609	26.3672	60.9153	26.3672	60.9395	26.3672	60.8426	26.3672	60.8227	26.3672	60.8864	26.3672	60.7787	26.3672	61.1284	26.3672	60.8926	26.3672	61.6207	26.3672	61.2401	26.3672	62.3556	26.3672	61.8499	26.3672	63.2676	26.3672	62.6841	26.3672	64.2656	26.3672	63.6579	26.3672	65.2649	26.3672	64.6773	26.3672	66.2015	26.3672	65.6651	26.3672	67.0319	26.3672	66.5665	26.3672	67.7282	26.3672	67.3458	26.3672	68.2724	26.3672	67.9806	26.3672	68.6535	26.3672	68.4568	26.3672	68.8645	26.3672	68.7656	26.3672	68.9021
29.2969	65.1499	29.2969	65.1328	29.2969	65.1414	29.2969	65.0999	29.2969	65.1099	29.2969	65.0745	29.2969	65.0714	29.2969	65.0927	29.2969	65.055	29.2969	65.1999	29.2969	65.1021	29.2969	65.4417	29.2969	65.2607	29.2969	65.8478	29.2969	65.5719	29.2969	66.4189	29.2969	66.0542	29.2969	67.1233	29.2969	66.6931	29.2969	67.9082	29.2969	67.4448	29.2969	68.7153	29.2969	68.2513	29.2969	69.492	29.2969	69.0551	29.2969	70.1966	29.2969	69.8078	29.2969	70.7983	29.2969	70.4726	29.2969	71.2751	29.2969	71.023	29.2969	71.6123	29.2969	71.4407	29.2969	71.8003	29.2969	71.7135	29.2969	71.8344
32.2266	68.8778	32.2266	68.8812	32.2266	68.8705	32.2266	68.8872	32.2266	68.861	32.2266	68.9111	32.2266	68.8596	32.2266	68.975	32.2266	68.885	32.2266	69.1059	32.2266	68.9627	32.2266	69.3303	32.2266	69.1214	32.2266	69.6665	32.2266	69.3862	32.2266	70.1176	32.2266	69.7706	32.2266	70.668	32.2266	70.2696	32.2266	71.2869	32.2266	70.8598	32.2266	71.9349	32.2266	71.5044	32.2266	72.5714	32.2266	72.1613	32.2266	73.1599	32.2266	72.7905	32.2266	73.6701	32.2266	73.3575	32.2266	74.0789	32.2266	73.835	32.2266	74.3695	32.2266	74.2025	32.2266	74.5306	32.2266	74.4458	32.2266	74.5565
35.1563	72.3567	35.1563	72.3652	35.1563	72.3556	35.1563	72.3851	35.1563	72.363	35.1563	72.4259	35.1563	72.3858	35.1563	72.5015	35.1563	72.4358	35.1563	72.6285	35.1563	72.5286	35.1563	72.8235	35.1563	72.6816	35.1563	73.0985	35.1563	72.9103	35.1563	73.4572	35.1563	73.2235	35.1563	73.8921	35.1563	73.6201	35.1563	74.3844	35.1563	74.0868	35.1563	74.9074	35.1563	74.6003	35.1563	75.4301	35.1563	75.1308	35.1563	75.9219	35.1563	75.6469	35.1563	76.3555	35.1563	76.1187	35.1563	76.7078	35.1563	76.5207	35.1563	76.9617	35.1563	76.8324	35.1563	77.105	35.1563	77.039	35.1563	77.1312
38.0859	75.3519	38.0859	75.3628	38.0859	75.356	38.0859	75.3914	38.0859	75.3757	38.0859	75.4436	38.0859	75.4153	38.0859	75.5282	38.0859	75.4817	38.0859	75.6553	38.0859	75.5844	38.0859	75.8349	38.0859	75.7338	38.0859	76.0744	38.0859	75.939	38.0859	76.3763	38.0859	76.2055	38.0859	76.7358	38.0859	76.533	38.0859	77.1407	38.0859	76.9136	38.0859	77.572	38.0859	77.3319	38.0859	78.0064	38.0859	77.7668	38.0859	78.4191	38.0859	78.1942	38.0859	78.7865	38.0859	78.5893	38.0859	79.0876	38.0859	78.9294	38.0859	79.3059	38.0859	79.1955	38.0859	79.4297	38.0859	79.373	38.0859	79.4525
41.0156	77.8807	41.0156	77.8965	41.0156	77.8818	41.0156	77.9308	41.0156	77.9001	41.0156	77.9869	41.0156	77.9378	41.0156	78.0697	41.0156	77.9988	41.0156	78.1848	41.0156	78.0884	41.0156	78.3378	41.0156	78.2125	41.0156	78.533	41.0156	78.3768	41.0156	78.7719	41.0156	78.5851	41.0156	79.0521	41.0156	78.8379	41.0156	79.366	41.0156	79.1313	41.0156	79.7012	41.0156	79.4559	41.0156	80.0414	41.0156	79.7977	41.0156	80.3675	41.0156	80.1386	41.0156	80.6601	41.0156	80.459	41.0156	80.9012	41.0156	80.7394	41.0156	81.0758	41.0156	80.9625	41.0156	81.1727	41.0156	81.1145	41.0156	81.186
43.9453	79.4981	43.9453	79.5169	43.9453	79.4971	43.9453	79.5544	43.9453	79.5141	43.9453	79.6122	43.9453	79.5505	43.9453	79.6931	43.9453	79.6087	43.9453	79.8004	43.9453	79.6918	43.9453	79.9371	43.9453	79.8035	43.9453	80.106	43.9453	79.9472	43.9453	80.3079	43.9453	80.1254	43.9453	80.5412	43.9453	80.3384	43.9453	80.8009	43.9453	80.5837	43.9453	81.0782	43.9453	80.8545	43.9453	81.3605	43.9453	81.1403	43.9453	81.6329	43.9453	81.427	43.9453	81.879	43.9453	81.6984	43.9453	82.083	43.9453	81.9377	43.9453	82.2312	43.9453	82.1295	43.9453	82.3135	43.9453	82.2611	43.9453	82.3237
46.875	80.6042	46.875	80.6237	46.875	80.603	46.875	80.6616	46.875	80.6201	46.875	80.7187	46.875	80.6563	46.875	80.796	46.875	80.7126	46.875	80.8949	46.875	80.7905	46.875	81.0168	46.875	80.8918	46.875	81.1627	46.875	81.018	46.875	81.333	46.875	81.1703	46.875	81.5262	46.875	81.3486	46.875	81.7388	46.875	81.5507	46.875	81.9645	46.875	81.7722	46.875	82.1942	46.875	82.0054	46.875	82.4162	46.875	82.2397	46.875	82.6175	46.875	82.4624	46.875	82.785	46.875	82.66	46.875	82.907	46.875	82.8192	46.875	82.9745	46.875	82.9292	46.875	82.9822
49.8047	81.2726	49.8047	81.2902	49.8047	81.2739	49.8047	81.3265	49.8047	81.2939	49.8047	81.3814	49.8047	81.3328	49.8047	81.455	49.8047	81.3907	49.8047	81.5473	49.8047	81.4676	49.8047	81.6581	49.8047	81.5636	49.8047	81.7875	49.8047	81.6791	49.8047	81.9347	49.8047	81.8137	49.8047	82.0984	49.8047	81.967	49.8047	82.2759	49.8047	82.137	49.8047	82.4625	49.8047	82.3204	49.8047	82.6514	49.8047	82.5115	49.8047	82.834	49.8047	82.7026	49.8047	83.0001	49.8047	82.884	49.8047	83.1389	49.8047	83.0448	49.8047	83.2408	49.8047	83.1745	49.8047	83.298	49.8047	83.2637	49.8047	83.3059
52.7344	81.7443	52.7344	81.7614	52.7344	81.7457	52.7344	81.7967	52.7344	81.7656	52.7344	81.8495	52.7344	81.8035	52.7344	81.919	52.7344	81.8589	52.7344	82.0043	52.7344	81.931	52.7344	82.1043	52.7344	82.0188	52.7344	82.2179	52.7344	82.1216	52.7344	82.344	52.7344	82.2384	52.7344	82.4812	52.7344	82.3681	52.7344	82.627	52.7344	82.5092	52.7344	82.7783	52.7344	82.6589	52.7344	82.9302	52.7344	82.8133	52.7344	83.0763	52.7344	82.9669	52.7344	83.209	52.7344	83.1125	52.7344	83.32	52.7344	83.2417	52.7344	83.4014	52.7344	83.3462	52.7344	83.447	52.7344	83.4184	52.7344	83.4528
55.6641	82.1015	55.6641	82.1183	55.6641	82.1027	55.6641	82.1525	55.6641	82.1219	55.6641	82.2032	55.6641	82.1583	55.6641	82.2689	55.6641	82.211	55.6641	82.3479	55.6641	82.2786	55.6641	82.4385	55.6641	82.3593	55.6641	82.539	55.6641	82.4518	55.6641	82.6478	55.6641	82.5543	55.6641	82.7631	55.6641	82.6654	55.6641	82.8833	55.6641	82.7835	55.6641	83.0058	55.6641	82.9065	55.6641	83.1273	55.6641	83.0316	55.6641	83.2434	55.6641	83.1548	55.6641	83.3484	55.6641	83.2708	55.6641	83.4362	55.6641	83.3736	55.6641	83.5007	55.6641	83.4566	55.6641	83.5368	55.6641	83.514	55.6641	83.5414
58.5938	82.4234	58.5938	82.4359	58.5938	82.4286	58.5938	82.4655	58.5938	82.4513	58.5938	82.5111	58.5938	82.4904	58.5938	82.5708	58.5938	82.5444	58.5938	82.6425	58.5938	82.6113	58.5938	82.7239	58.5938	82.6888	58.5938	82.8127	58.5938	82.7746	58.5938	82.907	58.5938	82.8665	58.5938	83.0048	58.5938	82.9625	58.5938	83.1045	58.5938	83.061	58.5938	83.2041	58.5938	83.1604	58.5938	83.3016	58.5938	83.2585	58.5938	83.3937	58.5938	83.3529	58.5938	83.4769	58.5938	83.4403	58.5938	83.5467	58.5938	83.5165	58.5938	83.5987	58.5938	83.5771	58.5938	83.6292	58.5938	83.6179	58.5938	83.6358
61.5234	82.6718	61.5234	82.6834	61.5234	82.6767	61.5234	82.7111	61.5234	82.698	61.5234	82.7533	61.5234	82.7345	61.5234	82.808	61.5234	82.7844	61.5234	82.8728	61.5234	82.8455	61.5234	82.945	61.5234	82.915	61.5234	83.022	61.5234	82.9902	61.5234	83.1013	61.5234	83.0687	61.5234	83.1812	61.5234	83.1484	61.5234	83.26	61.5234	83.2274	61.5234	83.3364	61.5234	83.3045	61.5234	83.4091	61.5234	83.3785	61.5234	83.4764	61.5234	83.4479	61.5234	83.5363	61.5234	83.511	61.5234	83.5861	61.5234	83.5653	61.5234	83.623	61.5234	83.6082	61.5234	83.6447	61.5234	83.6369	61.5234	83.6494
64.4531	82.9311	64.4531	82.9416	64.4531	82.9358	64.4531	82.9668	64.4531	82.9556	64.4531	83.0052	64.4531	82.9893	64.4531	83.0544	64.4531	83.0349	64.4531	83.1119	64.4531	83.0898	64.4531	83.1746	64.4531	83.1511	64.4531	83.2396	64.4531	83.2159	64.4531	83.3045	64.4531	83.2813	64.4531	83.367	64.4531	83.3452	64.4531	83.4258	64.4531	83.4057	64.4531	83.4802	64.4531	83.4619	64.4531	83.5295	64.4531	83.5131	64.4531	83.5734	64.4531	83.5589	64.4531	83.6114	64.4531	83.599	64.4531	83.6424	64.4531	83.6325	64.4531	83.6654	64.4531	83.6584	64.4531	83.679	64.4531	83.6754	64.4531	83.6824
67.3828	83.2204	67.3828	83.2264	67.3828	83.2278	67.3828	83.2451	67.3828	83.2482	67.3828	83.2751	67.3828	83.2803	67.3828	83.3142	67.3828	83.3223	67.3828	83.3596	67.3828	83.3713	67.3828	83.4085	67.3828	83.4243	67.3828	83.4578	67.3828	83.4784	67.3828	83.5052	67.3828	83.5305	67.3828	83.5488	67.3828	83.5784	67.3828	83.5874	67.3828	83.6205	67.3828	83.6208	67.3828	83.656	67.3828	83.6492	67.3828	83.6847	67.3828	83.6735	67.3828	83.7071	67.3828	83.6942	67.3828	83.724	67.3828	83.7117	67.3828	83.7358	67.3828	83.726	67.3828	83.7429	67.3828	83.7367	67.3828	83.7454	67.3828	83.7433
70.3125	83.4603	70.3125	83.4628	70.3125	83.4721	70.3125	83.4789	70.3125	83.4976	70.3125	83.5072	70.3125	83.5356	70.3125	83.5452	70.3125	83.5837	70.3125	83.5903	70.3125	83.6389	70.3125	83.6391	70.3125	83.6978	70.3125	83.6886	70.3125	83.757	70.3125	83.7361	70.3125	83.8131	70.3125	83.7795	70.3125	83.8634	70.3125	83.8177	70.3125	83.9062	70.3125	83.8504	70.3125	83.9403	70.3125	83.878	70.3125	83.9656	70.3125	83.9016	70.3125	83.9829	70.3125	83.922	70.3125	83.993	70.3125	83.9402	70.3125	83.9971	70.3125	83.9565	70.3125	83.9963	70.3125	83.9707	70.3125	83.9911	70.3125	83.9824
73.2422	83.7059	73.2422	83.708	73.2422	83.718	73.2422	83.7236	73.2422	83.7438	73.2422	83.751	73.2422	83.7821	73.2422	83.7879	73.2422	83.8306	73.2422	83.8313	73.2422	83.8863	73.2422	83.8779	73.2422	83.9458	73.2422	83.9244	73.2422	84.0052	73.2422	83.9679	73.2422	84.0611	73.2422	84.0063	73.2422	84.1102	73.2422	84.0383	73.2422	84.1501	73.2422	84.0636	73.2422	84.1797	73.2422	84.083	73.2422	84.1984	73.2422	84.0979	73.2422	84.207	73.2422	84.1103	73.2422	84.207	73.2422	84.1218	73.2422	84.2004	73.2422	84.1338	73.2422	84.1893	73.2422	84.1469	73.2422	84.1756	73.2422	84.161
76.1719	84.0214	76.1719	84.0225	76.1719	84.033	76.1719	84.0356	76.1719	84.0569	76.1719	84.0593	76.1719	84.0917	76.1719	84.0911	76.1719	84.1351	76.1719	84.1281	76.1719	84.184	76.1719	84.1669	76.1719	84.2349	76.1719	84.2042	76.1719	84.2841	76.1719	84.237	76.1719	84.3278	76.1719	84.2631	76.1719	84.3631	76.1719	84.2811	76.1719	84.3878	76.1719	84.2911	76.1719	84.4008	76.1719	84.2942	76.1719	84.4023	76.1719	84.2924	76.1719	84.3938	76.1719	84.2884	76.1719	84.3778	76.1719	84.2851	76.1719	84.3575	76.1719	84.285	76.1719	84.3359	76.1719	84.2898	76.1719	84.3161	76.1719	84.3003
79.1016	84.2277	79.1016	84.2276	79.1016	84.2405	79.1016	84.2396	79.1016	84.2654	79.1016	84.262	79.1016	84.3013	79.1016	84.2927	79.1016	84.3459	79.1016	84.3287	79.1016	84.3962	79.1016	84.3667	79.1016	84.4485	79.1016	84.4034	79.1016	84.4991	79.1016	84.4356	79.1016	84.5441	79.1016	84.461	79.1016	84.5801	79.1016	84.4781	79.1016	84.6048	79.1016	84.4868	79.1016	84.6167	79.1016	84.488	79.1016	84.616	79.1016	84.484	79.1016	84.6041	79.1016	84.4778	79.1016	84.5837	79.1016	84.4726	79.1016	84.5583	79.1016	84.4714	79.1016	84.5318	79.1016	84.4764	79.1016	84.5076	79.1016	84.4886
82.0313	84.5518	82.0313	84.5638	82.0313	84.549	82.0313	84.5843	82.0313	84.5555	82.0313	84.6114	82.0313	84.5706	82.0313	84.6427	82.0313	84.5927	82.0313	84.6755	82.0313	84.6195	82.0313	84.7064	82.0313	84.6479	82.0313	84.7322	82.0313	84.6747	82.0313	84.7499	82.0313	84.6966	82.0313	84.7574	82.0313	84.7108	82.0313	84.7532	82.0313	84.7152	82.0313	84.7376	82.0313	84.7089	82.0313	84.7121	82.0313	84.6924	82.0313	84.6797	82.0313	84.6677	82.0313	84.6443	82.0313	84.6384	82.0313	84.6105	82.0313	84.6086	82.0313	84.5828	82.0313	84.5828	82.0313	84.5648	82.0313	84.5652	82.0313	84.5588
84.9609	84.8023	84.9609	84.8183	84.9609	84.7928	84.9609	84.84	84.9609	84.79	84.9609	84.8656	84.9609	84.7929	84.9609	84.8928	84.9609	84.8001	84.9609	84.9185	84.9609	84.8093	84.9609	84.9394	84.9609	84.8176	84.9609	84.9519	84.9609	84.8222	84.9609	84.9531	84.9609	84.8201	84.9609	84.9405	84.9609	84.8089	84.9609	84.913	84.9609	84.787	84.9609	84.8711	84.9609	84.7545	84.9609	84.8169	84.9609	84.7129	84.9609	84.7544	84.9609	84.6652	84.9609	84.689	84.9609	84.6163	84.9609	84.6269	84.9609	84.5717	84.9609	84.5744	84.9609	84.5373	84.9609	84.5367	84.9609	84.5181	84.9609	84.5175
87.8906	84.844	87.8906	84.8418	87.8906	84.8551	87.8906	84.8481	87.8906	84.8742	87.8906	84.8617	87.8906	84.9	87.8906	84.8809	87.8906	84.9301	87.8906	84.9027	87.8906	84.9618	87.8906	84.924	87.8906	84.9917	87.8906	84.9415	87.8906	85.0162	87.8906	84.9517	87.8906	85.032	87.8906	84.9522	87.8906	85.0364	87.8906	84.9413	87.8906	85.0275	87.8906	84.9192	87.8906	85.0049	87.8906	84.8874	87.8906	84.9699	87.8906	84.8492	87.8906	84.9254	87.8906	84.8092	87.8906	84.8758	87.8906	84.7728	87.8906	84.8264	87.8906	84.7453	87.8906	84.7829	87.8906	84.7309	87.8906	84.7503	87.8906	84.7324
90.8203	84.8208	90.8203	84.8085	90.8203	84.8446	90.8203	84.8078	90.8203	84.8789	90.8203	84.8181	90.8203	84.9219	90.8203	84.8378	90.8203	84.9711	90.8203	84.8646	90.8203	85.0235	90.8203	84.8954	90.8203	85.0754	90.8203	84.9269	90.8203	85.1228	90.8203	84.9556	90.8203	85.162	90.8203	84.9782	90.8203	85.1896	90.8203	84.9928	90.8203	85.2032	90.8203	84.9981	90.8203	85.2015	90.8203	84.9948	90.8203	85.185	90.8203	84.985	90.8203	85.1559	90.8203	84.9722	90.8203	85.1178	90.8203	84.9607	90.8203	85.0754	90.8203	84.9547	90.8203	85.034	90.8203	84.958	90.8203	84.9985	90.8203	84.9725
93.75	85.3307	93.75	85.3271	93.75	85.337	93.75	85.3255	93.75	85.3464	93.75	85.3247	93.75	85.3587	93.75	85.3234	93.75	85.3731	93.75	85.3199	93.75	85.3882	93.75	85.3126	93.75	85.4018	93.75	85.2997	93.75	85.4111	93.75	85.2796	93.75	85.4131	93.75	85.2513	93.75	85.4048	93.75	85.2145	93.75	85.384	93.75	85.1702	93.75	85.3496	93.75	85.1208	93.75	85.3021	93.75	85.0701	93.75	85.2437	93.75	85.0228	93.75	85.1786	93.75	84.9845	93.75	85.1123	93.75	84.9603	93.75	85.0512	93.75	84.9541	93.75	85.0014	93.75	84.968
96.6797	85.4049	96.6797	85.4171	96.6797	85.3968	96.6797	85.4327	96.6797	85.3927	96.6797	85.4507	96.6797	85.3922	96.6797	85.4691	96.6797	85.3939	96.6797	85.4853	96.6797	85.3962	96.6797	85.4964	96.6797	85.3965	96.6797	85.4991	96.6797	85.3921	96.6797	85.49	96.6797	85.3802	96.6797	85.4666	96.6797	85.358	96.6797	85.4273	96.6797	85.324	96.6797	85.3724	96.6797	85.2777	96.6797	85.304	96.6797	85.2206	96.6797	85.2266	96.6797	85.1564	96.6797	85.1464	96.6797	85.0903	96.6797	85.0711	96.6797	85.0294	96.6797	85.0083	96.6797	84.9809	96.6797	84.9649	96.6797	84.9513	96.6797	84.9454
102.539	85.7133	102.539	85.7162	102.539	85.7098	102.539	85.7182	102.539	85.706	102.539	85.7184	102.539	85.7019	102.539	85.716	102.539	85.6971	102.539	85.7098	102.539	85.691	102.539	85.698	102.539	85.6823	102.539	85.679	102.539	85.6693	102.539	85.6512	102.539	85.6502	102.539	85.6131	102.539	85.6229	102.539	85.5646	102.539	85.5862	102.539	85.5064	102.539	85.5393	102.539	85.441	102.539	85.4832	102.539	85.3725	102.539	85.4203	102.539	85.3062	102.539	85.3547	102.539	85.2484	102.539	85.2918	102.539	85.2051	102.539	85.2377	102.539	85.1809	102.539	85.1985	102.539	85.1787
105.469	85.7937	105.469	85.7944	105.469	85.7914	105.469	85.7932	105.469	85.7878	105.469	85.7892	105.469	85.7832	105.469	85.7817	105.469	85.7772	105.469	85.7694	105.469	85.7693	105.469	85.751	105.469	85.7583	105.469	85.7249	105.469	85.7425	105.469	85.6896	105.469	85.72	105.469	85.6442	105.469	85.6887	105.469	85.5885	105.469	85.647	105.469	85.5237	105.469	85.5946	105.469	85.4525	105.469	85.532	105.469	85.3793	105.469	85.4619	105.469	85.3097	105.469	85.3887	105.469	85.2501	105.469	85.3181	105.469	85.2067	105.469	85.2567	105.469	85.1844	105.469	85.2109	105.469	85.1859
108.398	85.9464	108.398	85.9517	108.398	85.938	108.398	85.9534	108.398	85.9267	108.398	85.9514	108.398	85.9127	108.398	85.9449	108.398	85.896	108.398	85.9333	108.398	85.8764	108.398	85.9152	108.398	85.8534	108.398	85.8893	108.398	85.826	108.398	85.8542	108.398	85.793	108.398	85.8088	108.398	85.753	108.398	85.7528	108.398	85.705	108.398	85.6869	108.398	85.649	108.398	85.6135	108.398	85.5861	108.398	85.5365	108.398	85.5189	108.398	85.4613	108.398	85.4518	108.398	85.3939	108.398	85.3901	108.398	85.3407	108.398	85.34	108.398	85.3067	108.398	85.3069	108.398	85.2952
111.328	86.0926	111.328	86.0933	111.328	86.0875	111.328	86.0899	111.328	86.0778	111.328	86.0823	111.328	86.0634	111.328	86.0703	111.328	86.0441	111.328	86.0536	111.328	86.0198	111.328	86.031	111.328	85.9901	111.328	86.0013	111.328	85.9543	111.328	85.9631	111.328	85.9117	111.328	85.9151	111.328	85.8617	111.328	85.8569	111.328	85.8041	111.328	85.7892	111.328	85.7394	111.328	85.714	111.328	85.6693	111.328	85.635	111.328	85.597	111.328	85.5574	111.328	85.5269	111.328	85.4871	111.328	85.4645	111.328	85.4304	111.328	85.4155	111.328	85.3924	111.328	85.3851	111.328	85.377
117.188	86.2801	117.188	86.2607	117.188	86.2927	117.188	86.2352	117.188	86.2978	117.188	86.2046	117.188	86.2953	117.188	86.1699	117.188	86.2848	117.188	86.1315	117.188	86.2664	117.188	86.0898	117.188	86.2399	117.188	86.0443	117.188	86.205	117.188	85.9944	117.188	86.161	117.188	85.9394	117.188	86.1076	117.188	85.8791	117.188	86.0447	117.188	85.814	117.188	85.9728	117.188	85.746	117.188	85.8937	117.188	85.6781	117.188	85.8105	117.188	85.615	117.188	85.7276	117.188	85.5618	117.188	85.6506	117.188	85.5238	117.188	85.5852	117.188	85.5055	117.188	85.5369	117.188	85.5097
120.117	86.4354	120.117	86.3959	120.117	86.4645	120.117	86.3472	120.117	86.4826	120.117	86.2906	120.117	86.4895	120.117	86.2277	120.117	86.4853	120.117	86.1603	120.117	86.4701	120.117	86.0897	120.117	86.4438	120.117	86.017	120.117	86.4066	120.117	85.9432	120.117	86.3581	120.117	85.8688	120.117	86.2981	120.117	85.7947	120.117	86.2266	120.117	85.7225	120.117	86.1443	120.117	85.6544	120.117	86.0527	120.117	85.5937	120.117	85.9547	120.117	85.5444	120.117	85.8544	120.117	85.511	120.117	85.757	120.117	85.4974	120.117	85.6683	120.117	85.5064	120.117	85.594	120.117	85.5389
125.977	86.4644	125.977	86.4587	125.977	86.4581	125.977	86.4404	125.977	86.4403	125.977	86.4096	125.977	86.412	125.977	86.3666	125.977	86.3745	125.977	86.3118	125.977	86.329	125.977	86.246	125.977	86.2762	125.977	86.1701	125.977	86.217	125.977	86.0852	125.977	86.1517	125.977	85.9931	125.977	86.0804	125.977	85.8963	125.977	86.0036	125.977	85.798	125.977	85.9217	125.977	85.7024	125.977	85.8364	125.977	85.6141	125.977	85.7499	125.977	85.5383	125.977	85.6656	125.977	85.4797	125.977	85.5875	125.977	85.4421	125.977	85.5205	125.977	85.4277	125.977	85.469	125.977	85.4371
128.906	86.4651	128.906	86.466	128.906	86.4506	128.906	86.4531	128.906	86.4228	128.906	86.4267	128.906	86.3823	128.906	86.3868	128.906	86.33	128.906	86.3337	128.906	86.2668	128.906	86.2676	128.906	86.1939	128.906	86.1884	128.906	86.1121	128.906	86.0967	128.906	86.0225	128.906	85.9935	128.906	85.926	128.906	85.8808	128.906	85.8242	128.906	85.7617	128.906	85.7188	128.906	85.6408	128.906	85.6129	128.906	85.5238	128.906	85.5099	128.906	85.4173	128.906	85.4144	128.906	85.3275	128.906	85.3315	128.906	85.2603	128.906	85.2664	128.906	85.2196	128.906	85.2238	128.906	85.2075
134.766	86.1327	134.766	86.1316	134.766	86.1217	134.766	86.1193	134.766	86.0983	134.766	86.0972	134.766	86.0629	134.766	86.0668	134.766	86.0162	134.766	86.0295	134.766	85.9597	134.766	85.9862	134.766	85.8948	134.766	85.9371	134.766	85.8229	134.766	85.8819	134.766	85.7455	134.766	85.8198	134.766	85.6639	134.766	85.7505	134.766	85.5799	134.766	85.674	134.766	85.4958	134.766	85.5917	134.766	85.4143	134.766	85.5062	134.766	85.3389	134.766	85.4216	134.766	85.2738	134.766	85.3426	134.766	85.2231	134.766	85.2745	134.766	85.1905	134.766	85.2223	134.766	85.179	134.766	85.1897
137.695	86.0966	137.695	86.0854	137.695	86.093	137.695	86.0611	137.695	86.0744	137.695	86.0258	137.695	86.041	137.695	85.982	137.695	85.9942	137.695	85.9324	137.695	85.9359	137.695	85.8793	137.695	85.8682	137.695	85.8244	137.695	85.7936	137.695	85.7683	137.695	85.7145	137.695	85.7113	137.695	85.6334	137.695	85.6529	137.695	85.5528	137.695	85.5931	137.695	85.4753	137.695	85.532	137.695	85.4038	137.695	85.4705	137.695	85.3411	137.695	85.4104	137.695	85.2902	137.695	85.3542	137.695	85.2533	137.695	85.305	137.695	85.2321	137.695	85.2657	137.695	85.2275	137.695	85.2391
143.555	86.1354	143.555	86.1014	143.555	86.1487	143.555	86.0481	143.555	86.1411	143.555	85.9781	143.555	86.1133	143.555	85.8949	143.555	86.067	143.555	85.8023	143.555	86.0045	143.555	85.7049	143.555	85.9283	143.555	85.6066	143.555	85.8413	143.555	85.5113	143.555	85.7466	143.555	85.4219	143.555	85.6471	143.555	85.3404	143.555	85.5461	143.555	85.2684	143.555	85.4471	143.555	85.2063	143.555	85.3537	143.555	85.1546	143.555	85.2692	143.555	85.1131	143.555	85.1968	143.555	85.0819	143.555	85.1384	143.555	85.0609	143.555	85.095	143.555	85.0508	143.555	85.0666	143.555	85.0522
149.414	86.0328	149.414	86.0045	149.414	86.0368	149.414	85.9527	149.414	86.0169	149.414	85.8796	149.414	85.9747	149.414	85.7886	149.414	85.9131	149.414	85.6837	149.414	85.8354	149.414	85.5698	149.414	85.7452	149.414	85.4519	149.414	85.6462	149.414	85.3345	149.414	85.5417	149.414	85.2221	149.414	85.435	149.414	85.1185	149.414	85.3288	149.414	85.0264	149.414	85.226	149.414	84.9482	149.414	85.1293	149.414	84.8849	149.414	85.0414	149.414	84.837	149.414	84.9647	149.414	84.8044	149.414	84.9007	149.414	84.7863	149.414	84.8504	149.414	84.7821	149.414	84.814	149.414	84.7913
155.273	86.0525	155.273	86.0243	155.273	86.0514	155.273	85.9678	155.273	86.0211	155.273	85.8855	155.273	85.9632	155.273	85.7812	155.273	85.8806	155.273	85.6596	155.273	85.7773	155.273	85.5261	155.273	85.6579	155.273	85.3867	155.273	85.5279	155.273	85.2474	155.273	85.3929	155.273	85.1141	155.273	85.2584	155.273	84.9918	155.273	85.1296	155.273	84.8845	155.273	85.0109	155.273	84.7948	155.273	84.9058	155.273	84.7238	155.273	84.8166	155.273	84.6711	155.273	84.7444	155.273	84.6352	155.273	84.6888	155.273	84.6139	155.273	84.6487	155.273	84.6053	155.273	84.6224	155.273	84.6082
158.203	86.0472	158.203	86.0143	158.203	86.0493	158.203	85.952	158.203	86.0207	158.203	85.863	158.203	85.9629	158.203	85.7512	158.203	85.8785	158.203	85.6215	158.203	85.7716	158.203	85.4797	158.203	85.6469	158.203	85.3323	158.203	85.5103	158.203	85.1857	158.203	85.3677	158.203	85.0465	158.203	85.2255	158.203	84.9201	158.203	85.0897	158.203	84.8112	158.203	84.9657	158.203	84.7226	158.203	84.8574	158.203	84.6551	158.203	84.7675	158.203	84.6078	158.203	84.6966	158.203	84.5782	158.203	84.6434	158.203	84.5632	158.203	84.6057	158.203	84.5596	158.203	84.5805	158.203	84.5656
164.063	86.191	164.063	86.169	164.063	86.1768	164.063	86.1113	164.063	86.1272	164.063	86.02	164.063	86.0441	164.063	85.8981	164.063	85.9309	164.063	85.7505	164.063	85.7921	164.063	85.5829	164.063	85.6332	164.063	85.4026	164.063	85.4609	164.063	85.2176	164.063	85.2828	164.063	85.0366	164.063	85.1069	164.063	84.8684	164.063	84.9414	164.063	84.7208	164.063	84.7935	164.063	84.5995	164.063	84.669	164.063	84.5075	164.063	84.5705	164.063	84.4441	164.063	84.4979	164.063	84.4057	164.063	84.448	164.063	84.3868	164.063	84.4159	164.063	84.3814	164.063	84.3962	164.063	84.3852
169.922	85.5356	169.922	85.512	169.922	85.5323	169.922	85.4634	169.922	85.5013	169.922	85.3927	169.922	85.4429	169.922	85.3035	169.922	85.3586	169.922	85.2001	169.922	85.2502	169.922	85.0871	169.922	85.1209	169.922	84.9686	169.922	84.9742	169.922	84.8487	169.922	84.815	169.922	84.7305	169.922	84.6491	169.922	84.6166	169.922	84.484	169.922	84.509	169.922	84.3281	169.922	84.4089	169.922	84.1902	169.922	84.3168	169.922	84.0782	169.922	84.2328	169.922	83.9977	169.922	84.1565	169.922	83.9506	169.922	84.0881	169.922	83.9353	169.922	84.0284	169.922	83.9471	169.922	83.98
175.781	85.4583	175.781	85.4058	175.781	85.4722	175.781	85.3153	175.781	85.4489	175.781	85.19	175.781	85.3919	175.781	85.0357	175.781	85.3061	175.781	84.8605	175.781	85.198	175.781	84.6751	175.781	85.0747	175.781	84.4918	175.781	84.9434	175.781	84.3235	175.781	84.8115	175.781	84.1822	175.781	84.6856	175.781	84.0768	175.781	84.5714	175.781	84.012	175.781	84.4734	175.781	83.9869	175.781	84.3942	175.781	83.9952	175.781	84.3343	175.781	84.0274	175.781	84.292	175.781	84.0723	175.781	84.2631	175.781	84.1198	175.781	84.2418	175.781	84.1622	175.781	84.2213	175.781	84.196
181.641	85.3672	181.641	85.3518	181.641	85.3405	181.641	85.2938	181.641	85.2737	181.641	85.1947	181.641	85.1706	181.641	85.0577	181.641	85.0365	181.641	84.8885	181.641	84.8782	181.641	84.695	181.641	84.7036	181.641	84.4875	181.641	84.5217	181.641	84.2786	181.641	84.3418	181.641	84.0824	181.641	84.1734	181.641	83.9123	181.641	84.0249	181.641	83.7792	181.641	83.9033	181.641	83.6888	181.641	83.8123	181.641	83.6404	181.641	83.7523	181.641	83.6271	181.641	83.7194	181.641	83.6376	181.641	83.7064	181.641	83.6593	181.641	83.7041	181.641	83.6813	181.641	83.7031	181.641	83.6965
190.43	85.154	190.43	85.1318	190.43	85.1304	190.43	85.0665	190.43	85.0601	190.43	84.9625	190.43	84.944	190.43	84.8248	190.43	84.7858	190.43	84.6598	190.43	84.5913	190.43	84.4743	190.43	84.3694	190.43	84.276	190.43	84.1314	190.43	84.074	190.43	83.8909	190.43	83.8778	190.43	83.6629	190.43	83.698	190.43	83.4623	190.43	83.5442	190.43	83.3015	190.43	83.4236	190.43	83.1883	190.43	83.3388	190.43	83.124	190.43	83.2866	190.43	83.1032	190.43	83.2586	190.43	83.1145	190.43	83.2432	190.43	83.1442	190.43	83.2292	190.43	83.1788	190.43	83.2084
196.289	85.0837	196.289	85.026	196.289	85.0898	196.289	84.92	196.289	85.0437	196.289	84.7714	196.289	84.9471	196.289	84.5883	196.289	84.8041	196.289	84.3809	196.289	84.6212	196.289	84.1613	196.289	84.4074	196.289	83.9426	196.289	84.174	196.289	83.7378	196.289	83.9341	196.289	83.5587	196.289	83.7025	196.289	83.414	196.289	83.494	196.289	83.3083	196.289	83.3218	196.289	83.241	196.289	83.1952	196.289	83.2067	196.289	83.1177	196.289	83.1959	196.289	83.0854	196.289	83.1972	196.289	83.0887	196.289	83.1992	196.289	83.1138	196.289	83.1934	196.289	83.1466	196.289	83.1755
202.148	85.0651	202.148	84.9937	202.148	85.0768	202.148	84.8653	202.148	85.0288	202.148	84.6848	202.148	84.9233	202.148	84.4601	202.148	84.7649	202.148	84.2021	202.148	84.5612	202.148	83.9249	202.148	84.3226	202.148	83.6455	202.148	84.0626	202.148	83.3831	202.148	83.7976	202.148	83.1564	202.148	83.5459	202.148	82.9814	202.148	83.3257	202.148	82.8673	202.148	83.152	202.148	82.8146	202.148	83.0337	202.148	82.8146	202.148	82.9705	202.148	82.8517	202.148	82.9537	202.148	82.9068	202.148	82.9676	202.148	82.9618	202.148	82.994	202.148	83.0026	202.148	83.016	202.148	83.021
210.938	84.9772	210.938	84.9186	210.938	84.9745	210.938	84.7992	210.938	84.9119	210.938	84.6215	210.938	84.7922	210.938	84.3902	210.938	84.6202	210.938	84.1134	210.938	84.4024	210.938	83.8028	210.938	84.1478	210.938	83.4747	210.938	83.868	210.938	83.1502	210.938	83.5779	210.938	82.8534	210.938	83.2949	210.938	82.6085	210.938	83.0381	210.938	82.4344	210.938	82.8255	210.938	82.3392	210.938	82.6702	210.938	82.3175	210.938	82.5765	210.938	82.3515	210.938	82.538	210.938	82.4163	210.938	82.539	210.938	82.4866	210.938	82.5584	210.938	82.5425	210.938	82.575	210.938	82.5725
216.797	84.7633	216.797	84.7099	216.797	84.7555	216.797	84.5957	216.797	84.688	216.797	84.4229	216.797	84.5645	216.797	84.1967	216.797	84.3905	216.797	83.925	216.797	84.1743	216.797	83.6205	216.797	83.9267	216.797	83.3003	216.797	83.6617	216.797	82.987	216.797	83.396	216.797	82.7063	216.797	83.148	216.797	82.4835	216.797	82.9356	216.797	82.3376	216.797	82.7734	216.797	82.2753	216.797	82.6688	216.797	82.2883	216.797	82.6199	216.797	82.356	216.797	82.6157	216.797	82.4513	216.797	82.6381	216.797	82.5477	216.797	82.6667	216.797	82.6247	216.797	82.6821	216.797	82.6703
225.586	84.7923	225.586	84.7649	225.586	84.7482	225.586	84.6666	225.586	84.6333	225.586	84.4992	225.586	84.4497	225.586	84.2663	225.586	84.2021	225.586	83.9744	225.586	83.8986	225.586	83.6338	225.586	83.552	225.586	83.2609	225.586	83.1818	225.586	82.8799	225.586	82.8149	225.586	82.5225	225.586	82.4847	225.586	82.2254	225.586	82.2259	225.586	82.0216	225.586	82.0658	225.586	81.9303	225.586	82.0143	225.586	81.9477	225.586	82.0588	225.586	82.0478	225.586	82.1676	225.586	82.1908	225.586	82.3001	225.586	82.3351	225.586	82.4175	225.586	82.4462	225.586	82.4903	225.586	82.5011
234.375	84.8234	234.375	84.7624	234.375	84.8179	234.375	84.6386	234.375	84.7424	234.375	84.4567	234.375	84.5942	234.375	84.2222	234.375	84.3718	234.375	83.9424	234.375	84.0754	234.375	83.6267	234.375	83.7088	234.375	83.2883	234.375	83.2818	234.375	82.9445	234.375	82.8137	234.375	82.6172	234.375	82.3368	234.375	82.3314	234.375	81.897	234.375	82.1107	234.375	81.5482	234.375	81.9707	234.375	81.3368	234.375	81.9126	234.375	81.2808	234.375	81.9206	234.375	81.3597	234.375	81.9651	234.375	81.5226	234.375	82.0103	234.375	81.71	234.375	82.0231	234.375	81.8726	234.375	81.9802
240.234	84.5121	240.234	84.4114	240.234	84.5446	240.234	84.2449	240.234	84.5075	240.234	84.0162	240.234	84.3995	240.234	83.7312	240.234	84.2202	240.234	83.3991	240.234	83.9699	240.234	83.0336	240.234	83.6514	240.234	82.6545	240.234	83.272	240.234	82.2879	240.234	82.8464	240.234	81.9645	240.234	82.4001	240.234	81.7147	240.234	81.9713	240.234	81.5603	240.234	81.6082	240.234	81.5067	240.234	81.3577	240.234	81.5389	240.234	81.247	240.234	81.6255	240.234	81.2702	240.234	81.7273	240.234	81.3887	240.234	81.8071	240.234	81.5484	240.234	81.8365	240.234	81.6978	240.234	81.7999
249.023	84.4869	249.023	84.4083	249.023	84.4948	249.023	84.2583	249.023	84.4329	249.023	84.0364	249.023	84.3018	249.023	83.7438	249.023	84.1017	249.023	83.3843	249.023	83.8326	249.023	82.9657	249.023	83.495	249.023	82.5029	249.023	83.0924	249.023	82.0202	249.023	82.6339	249.023	81.553	249.023	82.1392	249.023	81.1462	249.023	81.6423	249.023	80.8448	249.023	81.193	249.023	80.679	249.023	80.8478	249.023	80.6493	249.023	80.6507	249.023	80.7235	249.023	80.6097	249.023	80.8487	249.023	80.6893	249.023	80.969	249.023	80.8271	249.023	81.0403	249.023	80.959	249.023	81.0376
257.813	84.4955	257.813	84.4235	257.813	84.4994	257.813	84.2824	257.813	84.4371	257.813	84.0718	257.813	84.3108	257.813	83.7931	257.813	84.123	257.813	83.4505	257.813	83.8764	257.813	83.0533	257.813	83.5747	257.813	82.6178	257.813	83.2229	257.813	82.17	257.813	82.8292	257.813	81.7465	257.813	82.4082	257.813	81.39	257.813	81.9834	257.813	81.1391	257.813	81.5892	257.813	81.0139	257.813	81.2671	257.813	81.0055	257.813	81.0547	257.813	81.0782	257.813	80.9686	257.813	81.1825	257.813	80.9943	257.813	81.2712	257.813	81.0897	257.813	81.3102	257.813	81.2019	257.813	81.2848
266.602	83.986	266.602	83.9048	266.602	83.9956	266.602	83.7511	266.602	83.9337	266.602	83.5238	266.602	83.8006	266.602	83.2222	266.602	83.5965	266.602	82.8471	266.602	83.3223	266.602	82.4036	266.602	82.9803	266.602	81.9052	266.602	82.5761	266.602	81.3787	266.602	82.121	266.602	80.8681	266.602	81.6351	266.602	80.4333	266.602	81.1512	266.602	80.1355	266.602	80.7148	266.602	80.0111	266.602	80.3776	266.602	80.05	266.602	80.1808	266.602	80.1976	266.602	80.1356	266.602	80.3805	266.602	80.2134	266.602	80.5329	266.602	80.3574	266.602	80.6115	266.602	80.5035	266.602	80.5989
278.32	83.9489	278.32	83.9324	278.32	83.8918	278.32	83.8379	278.32	83.7672	278.32	83.6622	278.32	83.5828	278.32	83.403	278.32	83.3476	278.32	83.0599	278.32	83.0712	278.32	82.6347	278.32	82.7633	278.32	82.1353	278.32	82.4331	278.32	81.5798	278.32	82.0906	278.32	81.0025	278.32	81.748	278.32	80.4589	278.32	81.422	278.32	80.021	278.32	81.1339	278.32	79.7568	278.32	80.9072	278.32	79.697	278.32	80.759	278.32	79.8141	278.32	80.6908	278.32	80.0366	278.32	80.6828	278.32	80.2837	278.32	80.6978	278.32	80.4928	278.32	80.6925	278.32	80.6306
287.109	83.9428	287.109	83.9202	287.109	83.8926	287.109	83.8284	287.109	83.7656	287.109	83.6688	287.109	83.5592	287.109	83.4399	287.109	83.2744	287.109	83.1377	287.109	82.9175	287.109	82.7579	287.109	82.502	287.109	82.2995	287.109	82.0493	287.109	81.7709	287.109	81.5889	287.109	81.1977	287.109	81.1562	287.109	80.6302	287.109	80.7884	287.109	80.1428	287.109	80.5167	287.109	79.8161	287.109	80.3579	287.109	79.6991	287.109	80.3089	287.109	79.7765	287.109	80.3455	287.109	79.9765	287.109	80.4285	287.109	80.21	287.109	80.5124	287.109	80.4058	287.109	80.5547	287.109	80.5239
295.898	83.9217	295.898	83.851	295.898	83.9207	295.898	83.7172	295.898	83.8388	295.898	83.527	295.898	83.6661	295.898	83.2854	295.898	83.3926	295.898	82.9945	295.898	83.0104	295.898	82.6537	295.898	82.5167	295.898	82.2609	295.898	81.9184	295.898	81.8166	295.898	81.241	295.898	81.3303	295.898	80.5374	295.898	80.8283	295.898	79.8935	295.898	80.359	295.898	79.4157	295.898	79.9881	295.898	79.1871	295.898	79.7747	295.898	79.2155	295.898	79.7375	295.898	79.4268	295.898	79.8382	295.898	79.7107	295.898	79.9993	295.898	79.97	295.898	80.1392	295.898	80.1417	295.898	80.1973
307.617	83.6985	307.617	83.5828	307.617	83.7445	307.617	83.3963	307.617	83.7224	307.617	83.1394	307.617	83.6324	307.617	82.8151	307.617	83.4715	307.617	82.4291	307.617	83.2332	307.617	81.9913	307.617	82.9074	307.617	81.5171	307.617	82.4836	307.617	81.0288	307.617	81.9559	307.617	80.5573	307.617	81.3322	307.617	80.1413	307.617	80.6465	307.617	79.8226	307.617	79.9716	307.617	79.6339	307.617	79.4196	307.617	79.5842	307.617	79.105	307.617	79.6504	307.617	79.073	307.617	79.7809	307.617	79.2599	307.617	79.9111	307.617	79.5385	307.617	79.9803	307.617	79.7907	307.617	79.9454
319.336	83.5368	319.336	83.4507	319.336	83.5451	319.336	83.2841	319.336	83.4809	319.336	83.0363	319.336	83.3517	319.336	82.7082	319.336	83.1659	319.336	82.301	319.336	82.9297	319.336	81.8171	319.336	82.645	319.336	81.2614	319.336	82.3074	319.336	80.6459	319.336	81.9075	319.336	79.9971	319.336	81.436	319.336	79.3645	319.336	80.8921	319.336	78.8228	319.336	80.2953	319.336	78.4558	319.336	79.6967	319.336	78.3149	319.336	79.1793	319.336	78.3801	319.336	78.8316	319.336	78.5649	319.336	78.6954	319.336	78.7626	319.336	78.7299	319.336	78.8904	319.336	78.8354	319.336	78.9103
331.055	83.0669	331.055	83.0442	331.055	83.023	331.055	82.955	331.055	82.9156	331.055	82.8009	331.055	82.7519	331.055	82.5822	331.055	82.542	331.055	82.2963	331.055	82.2971	331.055	81.9366	331.055	82.0257	331.055	81.4939	331.055	81.7308	331.055	80.9606	331.055	81.409	331.055	80.3379	331.055	81.0524	331.055	79.6462	331.055	80.6541	331.055	78.9377	331.055	80.215	331.055	78.3021	331.055	79.7514	331.055	77.8465	331.055	79.2981	331.055	77.6399	331.055	78.9019	331.055	77.6614	331.055	78.6015	331.055	77.8154	331.055	78.4028	331.055	77.9981	331.055	78.2712	331.055	78.1505
342.773	83.0828	342.773	82.9612	342.773	83.0297	342.773	82.6836	342.773	82.7956	342.773	82.2836	342.773	82.3862	342.773	81.8137	342.773	81.8219	342.773	81.3438	342.773	81.1447	342.773	80.9483	342.773	80.4252	342.773	80.6789	342.773	79.7622	342.773	80.5382	342.773	79.2603	342.773	80.4781	342.773	78.9823	342.773	80.4257	342.773	78.9114	342.773	80.3159	342.773	78.9655	342.773	80.1108	342.773	79.048	342.773	79.8078	342.773	79.088	342.773	79.4393	342.773	79.0524	342.773	79.0669	342.773	78.943	342.773	78.7635	342.773	78.789	342.773	78.5868	342.773	78.6397	342.773	78.5544
354.492	84.8207	354.492	84.6417	354.492	84.8419	354.492	84.3035	354.492	84.7028	354.492	83.8019	354.492	84.3979	354.492	83.1325	354.492	83.9193	354.492	82.2964	354.492	83.2602	354.492	81.314	354.492	82.4203	354.492	80.2488	354.492	81.4165	354.492	79.243	354.492	80.3055	354.492	78.5247	354.492	79.2163	354.492	78.3019	354.492	78.3674	354.492	78.5771	354.492	77.9867	354.492	79.1423	354.492	78.1283	354.492	79.7646	354.492	78.6216	354.492	80.2986	354.492	79.2373	354.492	80.6822	354.492	79.8207	354.492	80.9011	354.492	80.3012	354.492	80.9622	354.492	80.6553	354.492	80.8772
366.211	84.6387	366.211	84.5189	366.211	84.6579	366.211	84.2894	366.211	84.5787	366.211	83.9348	366.211	84.3965	366.211	83.4352	366.211	84.1014	366.211	82.77	366.211	83.6801	366.211	81.9239	366.211	83.118	366.211	80.8992	366.211	82.4034	366.211	79.7411	366.211	81.5349	366.211	78.5809	366.211	80.5359	366.211	77.6701	366.211	79.4809	366.211	77.292	366.211	78.5275	366.211	77.5106	366.211	77.9037	366.211	78.0972	366.211	77.7768	366.211	78.7643	366.211	78.0943	366.211	79.3302	366.211	78.6341	366.211	79.7143	366.211	79.1816	366.211	79.8895	366.211	79.6074	366.211	79.8514
377.93	84.5506	377.93	84.431	377.93	84.5824	377.93	84.2236	377.93	84.5204	377.93	83.9217	377.93	84.3547	377.93	83.512	377.93	84.0737	377.93	82.9761	377.93	83.6665	377.93	82.2935	377.93	83.1261	377.93	81.449	377.93	82.4539	377.93	80.4469	377.93	81.6678	377.93	79.3414	377.93	80.8145	377.93	78.2882	377.93	79.9854	377.93	77.5701	377.93	79.318	377.93	77.4562	377.93	78.9544	377.93	77.9239	377.93	78.9519	377.93	78.6751	377.93	79.2349	377.93	79.418	377.93	79.6504	377.93	79.9922	377.93	80.0528	377.93	80.3381	377.93	80.3399	377.93	80.4477
392.578	83.7714	392.578	83.7119	392.578	83.763	392.578	83.5766	392.578	83.6856	392.578	83.3503	392.578	83.53	392.578	83.0122	392.578	83.2802	392.578	82.5388	392.578	82.9167	392.578	81.9073	392.578	82.4198	392.578	81.1026	392.578	81.7751	392.578	80.1295	392.578	80.9815	392.578	79.0395	392.578	80.0671	392.578	77.973	392.578	79.1139	392.578	77.1821	392.578	78.2818	392.578	76.9216	392.578	77.7797	392.578	77.2139	392.578	77.7331	392.578	77.8216	392.578	78.0627	392.578	78.4744	392.578	78.5563	392.578	79.0053	392.578	79.0198	392.578	79.3389	392.578	79.336	392.578	79.4493
407.227	83.134	407.227	83.1103	407.227	83.0865	407.227	83.0106	407.227	82.9668	407.227	82.8227	407.227	82.7686	407.227	82.5265	407.227	82.4795	407.227	82.0936	407.227	82.0799	407.227	81.4908	407.227	81.5447	407.227	80.6864	407.227	80.8473	407.227	79.663	407.227	79.9717	407.227	78.4494	407.227	78.9412	407.227	77.1895	407.227	77.8732	407.227	76.2327	407.227	77.0453	407.227	76.0251	407.227	76.8174	407.227	76.6331	407.227	77.2846	407.227	77.6463	407.227	78.1417	407.227	78.6557	407.227	79.0185	407.227	79.4573	407.227	79.7003	407.227	79.9778	407.227	80.1008	407.227	80.1944
421.875	83.4701	421.875	83.3963	421.875	83.5182	421.875	83.3019	421.875	83.5306	421.875	83.1839	421.875	83.4926	421.875	83.0273	421.875	83.3839	421.875	82.8024	421.875	83.1778	421.875	82.465	421.875	82.8412	421.875	81.9597	421.875	82.3352	421.875	81.2262	421.875	81.6177	421.875	80.2088	421.875	80.6493	421.875	78.883	421.875	79.4118	421.875	77.3374	421.875	77.9638	421.875	75.9663	421.875	76.5742	421.875	75.5174	421.875	75.8265	421.875	76.2396	421.875	76.1481	421.875	77.4411	421.875	77.1576	421.875	78.4811	421.875	78.2098	421.875	79.1102	421.875	78.9548	421.875	79.2676
436.523	83.6427	436.523	83.5604	436.523	83.6503	436.523	83.3989	436.523	83.5843	436.523	83.1508	436.523	83.4421	436.523	82.8063	436.523	83.2166	436.523	82.3548	436.523	82.8953	436.523	81.7872	436.523	82.4599	436.523	81.0992	436.523	81.8872	436.523	80.2969	436.523	81.1523	436.523	79.4082	436.523	80.2393	436.523	78.5024	436.523	79.1665	436.523	77.7129	436.523	78.0394	436.523	77.2276	436.523	77.1179	436.523	77.1887	436.523	76.7578	436.523	77.5601	436.523	77.0775	436.523	78.1409	436.523	77.7876	436.523	78.7056	436.523	78.5079	436.523	79.0924	436.523	79.0104	436.523	79.2079
451.172	83.8318	451.172	83.8202	451.172	83.7968	451.172	83.7573	451.172	83.7181	451.172	83.6341	451.172	83.5953	451.172	83.4335	451.172	83.4218	451.172	83.1278	451.172	83.1806	451.172	82.6782	451.172	82.8437	451.172	82.0377	451.172	82.3729	451.172	81.1558	451.172	81.7238	451.172	79.9884	451.172	80.8516	451.172	78.5286	451.172	79.7226	451.172	76.8983	451.172	78.3477	451.172	75.5454	451.172	76.8725	451.172	75.2004	451.172	75.7289	451.172	75.9614	451.172	75.5102	451.172	77.0963	451.172	76.2281	451.172	78.0226	451.172	77.2603	451.172	78.5233	451.172	78.1038	451.172	78.5472
465.82	83.675	465.82	83.5703	465.82	83.7268	465.82	83.4157	465.82	83.7188	465.82	83.2095	465.82	83.6394	465.82	82.9421	465.82	83.4706	465.82	82.5942	465.82	83.1884	465.82	82.1368	465.82	82.7658	465.82	81.5357	465.82	82.1764	465.82	80.7586	465.82	81.401	465.82	79.7912	465.82	80.4372	465.82	78.671	465.82	79.3217	465.82	77.5517	465.82	78.1714	465.82	76.7507	465.82	77.2237	465.82	76.5886	465.82	76.7698	465.82	77.0287	465.82	76.9082	465.82	77.7084	465.82	77.4273	465.82	78.3025	465.82	78.0228	465.82	78.6525	465.82	78.4859	465.82	78.7112
483.398	83.3753	483.398	83.4096	483.398	83.2666	483.398	83.3628	483.398	83.101	483.398	83.2335	483.398	82.9034	483.398	83.016	483.398	82.6938	483.398	82.6927	483.398	82.4709	483.398	82.2302	483.398	82.2022	483.398	81.5806	483.398	81.8276	483.398	80.6871	483.398	81.2722	483.398	79.4942	483.398	80.4628	483.398	77.9755	483.398	79.3479	483.398	76.2231	483.398	77.9481	483.398	74.6674	483.398	76.4886	483.398	74.1414	483.398	75.5603	483.398	74.8973	483.398	75.7133	483.398	76.1646	483.398	76.6178	483.398	77.2896	483.398	77.5642	483.398	78.0342	483.398	78.1736	483.398	78.3347
500.977	83.3544	500.977	83.3172	500.977	83.3448	500.977	83.2511	500.977	83.2729	500.977	83.1642	500.977	83.1332	500.977	83.0443	500.977	82.9294	500.977	82.855	500.977	82.666	500.977	82.5407	500.977	82.3358	500.977	82.0367	500.977	81.9093	500.977	81.2779	500.977	81.3329	500.977	80.2087	500.977	80.5378	500.977	78.8073	500.977	79.4613	500.977	77.1679	500.977	78.0963	500.977	75.7085	500.977	76.6157	500.977	75.2337	500.977	75.5658	500.977	75.9971	500.977	75.6091	500.977	77.2383	500.977	76.5767	500.977	78.2862	500.977	77.7226	500.977	78.8887	500.977	78.581	500.977	78.9859
518.555	82.9974	518.555	82.9165	518.555	83.0158	518.555	82.7903	518.555	82.9719	518.555	82.6457	518.555	82.8769	518.555	82.5001	518.555	82.7402	518.555	82.3425	518.555	82.5567	518.555	82.1272	518.555	82.3019	518.555	81.7831	518.555	81.9331	518.555	81.2274	518.555	81.3939	518.555	80.3778	518.555	80.6192	518.555	79.1689	518.555	79.5451	518.555	77.61	518.555	78.1436	518.555	75.9766	518.555	76.5448	518.555	75.1081	518.555	75.3161	518.555	75.7183	518.555	75.347	518.555	77.1233	518.555	76.5317	518.555	78.3908	518.555	77.9045	518.555	79.1517	518.555	78.8921	518.555	79.3207
536.133	83.4981	536.133	83.3654	536.133	83.5081	536.133	83.1354	536.133	83.4016	536.133	82.862	536.133	83.2034	536.133	82.6027	536.133	82.9383	536.133	82.3776	536.133	82.6127	536.133	82.1424	536.133	82.2068	536.133	81.7981	536.133	81.677	536.133	81.221	536.133	80.9621	536.133	80.2861	536.133	79.9899	536.133	78.882	536.133	78.685	536.133	76.9616	536.133	77.0105	536.133	74.8117	536.133	75.1457	536.133	73.7006	536.133	73.918	536.133	74.7088	536.133	74.3952	536.133	76.5125	536.133	75.9805	536.133	77.9505	536.133	77.5055	536.133	78.764	536.133	78.5236	536.133	78.9484
553.711	84.0258	553.711	83.8798	553.711	83.9976	553.711	83.5753	553.711	83.8124	553.711	83.159	553.711	83.5169	553.711	82.6975	553.711	83.1737	553.711	82.2497	553.711	82.8348	553.711	81.8276	553.711	82.5076	553.711	81.373	553.711	82.1385	553.711	80.7692	553.711	81.6235	553.711	79.8724	553.711	80.8323	553.711	78.5372	553.711	79.6224	553.711	76.6606	553.711	77.8479	553.711	74.403	553.711	75.4267	553.711	72.8939	553.711	72.804	553.711	73.5954	553.711	72.017	553.711	75.358	553.711	73.7381	553.711	76.7847	553.711	75.7089	553.711	77.545	553.711	77.0249	553.711	77.6254
574.219	84.069	574.219	83.9352	574.219	84.0375	574.219	83.6554	574.219	83.85	574.219	83.2741	574.219	83.5424	574.219	82.8498	574.219	83.1701	574.219	82.4315	574.219	82.7876	574.219	82.028	574.219	82.4195	574.219	81.5894	574.219	82.037	574.219	81.0135	574.219	81.5587	574.219	80.1671	574.219	80.872	574.219	78.9011	574.219	79.8553	574.219	77.0608	574.219	78.3978	574.219	74.5851	574.219	76.4648	574.219	72.1767	574.219	74.3924	574.219	72.2203	574.219	73.4585	574.219	74.4012	574.219	74.4973	574.219	76.3667	574.219	76.1479	574.219	77.5055	574.219	77.3435	574.219	77.8152
594.727	83.7177	594.727	83.5626	594.727	83.6729	594.727	83.218	594.727	83.4468	594.727	82.7287	594.727	83.0849	594.727	82.1772	594.727	82.6558	594.727	81.6685	594.727	82.2375	594.727	81.2785	594.727	81.8835	594.727	80.988	594.727	81.5824	594.727	80.6694	594.727	81.2431	594.727	80.1398	594.727	80.7179	594.727	79.2231	594.727	79.8345	594.727	77.8015	594.727	78.4147	594.727	75.9559	594.727	76.3269	594.727	74.4078	594.727	73.8483	594.727	74.4793	594.727	72.7755	594.727	75.8861	594.727	74.3366	594.727	77.2904	594.727	76.3641	594.727	78.1289	594.727	77.7142	594.727	78.2848
615.234	83.8038	615.234	83.6305	615.234	83.7911	615.234	83.2917	615.234	83.5954	615.234	82.8275	615.234	83.2455	615.234	82.2901	615.234	82.7947	615.234	81.7251	615.234	82.3069	615.234	81.1443	615.234	81.8259	615.234	80.5069	615.234	81.3411	615.234	79.7255	615.234	80.7768	615.234	78.6902	615.234	80.0124	615.234	77.291	615.234	78.9142	615.234	75.4547	615.234	77.3664	615.234	73.3312	615.234	75.3529	615.234	71.9148	615.234	73.3126	615.234	72.6483	615.234	72.6832	615.234	74.5992	615.234	74.0245	615.234	76.2932	615.234	75.7865	615.234	77.2912	615.234	77.0244	615.234	77.5344
638.672	84.3463	638.672	84.1977	638.672	84.2683	638.672	83.8236	638.672	83.9797	638.672	83.2524	638.672	83.5147	638.672	82.5581	638.672	82.9353	638.672	81.8604	638.672	82.3306	638.672	81.268	638.672	81.7827	638.672	80.7748	638.672	81.3036	638.672	80.2155	638.672	80.7979	638.672	79.3286	638.672	80.0928	638.672	77.8196	638.672	78.9883	638.672	75.3681	638.672	77.2792	638.672	71.8658	638.672	74.8221	638.672	69.8864	638.672	72.1915	638.672	72.637	638.672	72.1595	638.672	75.5973	638.672	74.6499	638.672	77.4718	638.672	76.854	638.672	78.4468	638.672	78.1688	638.672	78.6726
659.18	84.5383	659.18	84.3954	659.18	84.4951	659.18	84.0783	659.18	84.2725	659.18	83.6254	659.18	83.8968	659.18	83.1122	659.18	83.4234	659.18	82.6412	659.18	82.9406	659.18	82.2843	659.18	82.539	659.18	82.0007	659.18	82.2384	659.18	81.6188	659.18	81.9368	659.18	80.8971	659.18	81.4406	659.18	79.5685	659.18	80.5215	659.18	77.2973	659.18	78.9223	659.18	73.518	659.18	76.297	659.18	67.7166	659.18	72.2082	659.18	68.3291	659.18	68.4987	659.18	73.1815	659.18	71.4616	659.18	75.9232	659.18	74.8612	659.18	77.2247	659.18	76.7479	659.18	77.4764
682.617	85.8459	682.617	85.6611	682.617	85.8056	682.617	85.2624	682.617	85.5368	682.617	84.6818	682.617	85.0483	682.617	84.0002	682.617	84.3861	682.617	83.3626	682.617	83.6668	682.617	82.9265	682.617	83.0755	682.617	82.7261	682.617	82.7538	682.617	82.5978	682.617	82.6387	682.617	82.2675	682.617	82.4701	682.617	81.4569	682.617	81.9418	682.617	79.8948	682.617	80.7744	682.617	77.2873	682.617	78.6869	682.617	73.707	682.617	75.476	682.617	72.5684	682.617	72.6196	682.617	75.591	682.617	74.375	682.617	78.1773	682.617	77.3341	682.617	79.5437	682.617	79.1515	682.617	79.851
706.055	86.411	706.055	86.2057	706.055	86.3258	706.055	85.7115	706.055	85.955	706.055	84.9446	706.055	85.3115	706.055	83.9651	706.055	84.4335	706.055	82.9344	706.055	83.4285	706.055	82.1435	706.055	82.5233	706.055	81.8237	706.055	81.9918	706.055	81.8277	706.055	81.8652	706.055	81.7084	706.055	81.8118	706.055	81.0218	706.055	81.3917	706.055	79.3645	706.055	80.2206	706.055	76.1844	706.055	77.8903	706.055	70.9071	706.055	73.8981	706.055	70.9436	706.055	70.4444	706.055	76.0275	706.055	74.1572	706.055	78.9885	706.055	77.7868	706.055	80.3793	706.055	79.8038	706.055	80.6169
732.422	85.1737	732.422	85.0353	732.422	85.0812	732.422	84.6588	732.422	84.7541	732.422	84.038	732.422	84.1848	732.422	83.2004	732.422	83.3878	732.422	82.2521	732.422	82.4446	732.422	81.3961	732.422	81.5487	732.422	80.8312	732.422	80.9571	732.422	80.5403	732.422	80.7569	732.422	80.2485	732.422	80.7027	732.422	79.5894	732.422	80.3864	732.422	78.1805	732.422	79.4168	732.422	75.4958	732.422	77.3733	732.422	70.5867	732.422	73.581	732.422	66.8643	732.422	67.8566	732.422	72.6156	732.422	70.4737	732.422	76.3251	732.422	75.132	732.422	78.0622	732.422	77.5389	732.422	78.4266
758.789	84.9036	758.789	84.6951	758.789	84.8412	758.789	84.2208	758.789	84.4997	758.789	83.4784	758.789	83.8665	758.789	82.4665	758.789	82.9283	758.789	81.2484	758.789	81.7125	758.789	80.1005	758.789	80.4116	758.789	79.5262	758.789	79.5113	758.789	79.6665	758.789	79.4277	758.789	79.9383	758.789	79.8166	758.789	79.659	758.789	79.9479	758.789	78.3322	758.789	79.284	758.789	75.3956	758.789	77.3964	758.789	69.8892	758.789	73.6548	758.789	67.5695	758.789	67.8714	758.789	73.2158	758.789	70.1525	758.789	76.3968	758.789	74.728	758.789	77.8178	758.789	77.0987	758.789	78.0252
785.156	84.8523	785.156	84.6691	785.156	84.7937	785.156	84.2364	785.156	84.4989	785.156	83.5411	785.156	83.9657	785.156	82.5742	785.156	83.1757	785.156	81.3749	785.156	82.1058	785.156	80.1303	785.156	80.7999	785.156	79.2323	785.156	79.5188	785.156	78.9515	785.156	78.7583	785.156	78.9636	785.156	78.6758	785.156	78.6277	785.156	78.7043	785.156	77.3825	785.156	78.1449	785.156	74.578	785.156	76.4305	785.156	68.6024	785.156	72.7068	785.156	62.8672	785.156	64.6151	785.156	71.7976	785.156	67.5608	785.156	75.8466	785.156	73.9628	785.156	77.6279	785.156	76.8534	785.156	77.9322
811.523	84.8512	811.523	84.7092	811.523	84.8311	811.523	84.3875	811.523	84.6148	811.523	83.8168	811.523	84.1386	811.523	82.9018	811.523	83.3385	811.523	81.5778	811.523	82.177	811.523	79.9468	811.523	80.6933	811.523	78.548	811.523	79.1457	811.523	78.1911	811.523	78.164	811.523	78.6722	811.523	78.1815	811.523	78.9403	811.523	78.6008	811.523	78.2216	811.523	78.5194	811.523	75.8647	811.523	77.2846	811.523	70.3307	811.523	74.084	811.523	57.7196	811.523	66.3148	811.523	71.0505	811.523	64.8451	811.523	75.6565	811.523	73.1885	811.523	77.4964	811.523	76.4859	811.523	77.7246
840.82	85.0382	840.82	84.9063	840.82	84.9624	840.82	84.5643	840.82	84.6945	840.82	84.0177	840.82	84.2485	840.82	83.2526	840.82	83.613	840.82	82.2125	840.82	82.7365	840.82	80.8333	840.82	81.5489	840.82	79.2144	840.82	80.0619	840.82	77.9309	840.82	78.6048	840.82	77.7001	840.82	77.905	840.82	78.0589	840.82	78.112	840.82	77.9136	840.82	78.3072	840.82	76.4681	840.82	77.5918	840.82	72.6692	840.82	75.225	840.82	61.4175	840.82	69.4761	840.82	66.456	840.82	53.6949	840.82	73.5977	840.82	70.7335	840.82	76.153	840.82	75.1281	840.82	76.5869
870.117	85.1359	870.117	84.9826	870.117	85.0818	870.117	84.6172	870.117	84.8173	870.117	84.0208	870.117	84.3427	870.117	83.1698	870.117	83.6602	870.117	82.0539	870.117	82.7561	870.117	80.7043	870.117	81.6008	870.117	79.2652	870.117	80.2141	870.117	78.097	870.117	78.8354	870.117	77.6118	870.117	78.0066	870.117	77.6701	870.117	77.9662	870.117	77.5715	870.117	78.0897	870.117	76.5856	870.117	77.5537	870.117	73.8915	870.117	75.6957	870.117	67.4846	870.117	71.6251	870.117	62.8158	870.117	64.6036	870.117	71.5709	870.117	68.686	870.117	74.6742	870.117	73.3204	870.117	75.0885
902.344	85.3014	902.344	85.1035	902.344	85.2496	902.344	84.6786	902.344	84.9488	902.344	84.0657	902.344	84.4182	902.344	83.3009	902.344	83.6878	902.344	82.3887	902.344	82.7935	902.344	81.2763	902.344	81.7675	902.344	79.8824	902.344	80.6115	902.344	78.2689	902.344	79.3043	902.344	76.962	902.344	77.964	902.344	76.6367	902.344	77.0627	902.344	76.7838	902.344	76.8917	902.344	76.2209	902.344	76.746	902.344	73.9979	902.344	75.6159	902.344	68.6434	902.344	72.5659	902.344	60.6002	902.344	66.0902	902.344	69.2003	902.344	65.754	902.344	72.7737	902.344	71.3722	902.344	73.3543
931.641	85.9216	931.641	85.7743	931.641	85.8372	931.641	85.343	931.641	85.5286	931.641	84.5597	931.641	84.9483	931.641	83.3879	931.641	84.0287	931.641	81.9186	931.641	82.7764	931.641	80.5077	931.641	81.4034	931.641	79.6636	931.641	80.3361	931.641	79.378	931.641	79.7961	931.641	79.0301	931.641	79.4422	931.641	78.1135	931.641	78.7865	931.641	76.5566	931.641	77.5899	931.641	74.754	931.641	75.9113	931.641	73.1659	931.641	74.0693	931.641	71.5479	931.641	72.4437	931.641	70.0136	931.641	71.3915	931.641	70.5627	931.641	71.5668	931.641	72.4224	931.641	72.6825	931.641	73.2469
966.797	86.2906	966.797	86.1638	966.797	86.2868	966.797	85.9126	966.797	86.1052	966.797	85.449	966.797	85.6944	966.797	84.5947	966.797	84.9807	966.797	83.1534	966.797	83.8264	966.797	81.0624	966.797	82.0527	966.797	78.8621	966.797	79.7144	966.797	78.1006	966.797	77.9436	966.797	78.7867	966.797	78.1111	966.797	79.0867	966.797	78.6643	966.797	77.9368	966.797	77.9811	966.797	74.4368	966.797	75.2702	966.797	65.4907	966.797	69.1364	966.797	67.1157	966.797	66.8778	966.797	74.1258	966.797	73.687	966.797	77.0097	966.797	77.0258	966.797	78.4038	966.797	78.5505	966.797	78.9219
999.023	85.8145	999.023	85.701	999.023	85.7594	999.023	85.4605	999.023	85.5934	999.023	85.1708	999.023	85.3709	999.023	84.7525	999.023	85.0169	999.023	83.8944	999.023	84.3096	999.023	82.1695	999.023	82.939	999.023	79.2548	999.023	80.5771	999.023	76.2927	999.023	77.3871	999.023	77.2017	999.023	76.3751	999.023	79.2849	999.023	78.53	999.023	79.8212	999.023	79.9011	999.023	78.374	999.023	79.3293	999.023	73.9659	999.023	76.026	999.023	63.2811	999.023	66.0333	999.023	73.2684	999.023	70.1805	999.023	78.3664	999.023	77.037	999.023	80.3924	999.023	79.7591	999.023	80.7431
1,034.18	86.1171	1,034.18	85.8909	1,034.18	86.0225	1,034.18	85.4472	1,034.18	85.6236	1,034.18	84.9589	1,034.18	85.0363	1,034.18	84.5071	1,034.18	84.4001	1,034.18	83.9354	1,034.18	83.7217	1,034.18	82.8933	1,034.18	82.7605	1,034.18	80.9628	1,034.18	81.0928	1,034.18	77.848	1,034.18	78.2663	1,034.18	74.9276	1,034.18	74.828	1,034.18	76.137	1,034.18	75.3439	1,034.18	78.1947	1,034.18	77.9137	1,034.18	78.5223	1,034.18	78.7133	1,034.18	76.4966	1,034.18	77.1289	1,034.18	70.1579	1,034.18	71.8734	1,034.18	64.5441	1,034.18	60.8462	1,034.18	74.3831	1,034.18	72.6512	1,034.18	77.5741	1,034.18	76.8124	1,034.18	78.1719
1,072.27	85.9597	1,072.27	85.7717	1,072.27	85.8776	1,072.27	85.3452	1,072.27	85.5028	1,072.27	84.7393	1,072.27	84.8575	1,072.27	84.0419	1,072.27	84.052	1,072.27	83.2571	1,072.27	83.2235	1,072.27	82.1889	1,072.27	82.3494	1,072.27	80.5114	1,072.27	81.1487	1,072.27	77.9988	1,072.27	79.1914	1,072.27	75.3647	1,072.27	76.2613	1,072.27	75.2477	1,072.27	74.0721	1,072.27	76.6736	1,072.27	75.2203	1,072.27	76.8345	1,072.27	76.3874	1,072.27	74.5795	1,072.27	75.534	1,072.27	67.4413	1,072.27	71.6247	1,072.27	61.6108	1,072.27	60.5784	1,072.27	72.4221	1,072.27	68.8987	1,072.27	75.6009	1,072.27	74.3231	1,072.27	76.1055
1,110.35	85.4578	1,110.35	85.2188	1,110.35	85.3953	1,110.35	84.7118	1,110.35	85.0288	1,110.35	84.0137	1,110.35	84.393	1,110.35	83.2021	1,110.35	83.5812	1,110.35	82.2798	1,110.35	82.7061	1,110.35	81.1795	1,110.35	81.7756	1,110.35	79.8009	1,110.35	80.6146	1,110.35	78.0222	1,110.35	78.9518	1,110.35	76.0041	1,110.35	76.6812	1,110.35	75.0035	1,110.35	74.5772	1,110.35	75.6617	1,110.35	74.3535	1,110.35	76.0588	1,110.35	75.191	1,110.35	74.7813	1,110.35	75.1418	1,110.35	70.7239	1,110.35	72.9914	1,110.35	57.7487	1,110.35	65.6103	1,110.35	65.9669	1,110.35	62.4188	1,110.35	72.3639	1,110.35	72.0385	1,110.35	74.013
1,148.44	85.2481	1,148.44	84.9942	1,148.44	85.2357	1,148.44	84.441	1,148.44	84.9496	1,148.44	83.5906	1,148.44	84.381	1,148.44	82.5679	1,148.44	83.6013	1,148.44	81.5371	1,148.44	82.7397	1,148.44	80.4749	1,148.44	81.8258	1,148.44	79.1339	1,148.44	80.6937	1,148.44	77.2988	1,148.44	79.0996	1,148.44	75.2861	1,148.44	76.971	1,148.44	74.3547	1,148.44	74.871	1,148.44	74.599	1,148.44	74.1046	1,148.44	74.2526	1,148.44	74.423	1,148.44	71.933	1,148.44	73.9971	1,148.44	65.2169	1,148.44	71.178	1,148.44	57.422	1,148.44	61.3459	1,148.44	69.7202	1,148.44	64.2954	1,148.44	73.2317	1,148.44	71.7343	1,148.44	73.8083
1,189.45	85.5242	1,189.45	85.1912	1,189.45	85.4938	1,189.45	84.5877	1,189.45	85.147	1,189.45	83.875	1,189.45	84.6349	1,189.45	83.1695	1,189.45	84.0605	1,189.45	82.4329	1,189.45	83.3721	1,189.45	81.4305	1,189.45	82.4369	1,189.45	79.8141	1,189.45	81.1295	1,189.45	77.4109	1,189.45	79.334	1,189.45	75.0311	1,189.45	77.1217	1,189.45	74.4295	1,189.45	75.5114	1,189.45	74.7869	1,189.45	75.6606	1,189.45	74.5377	1,189.45	76.0177	1,189.45	73.1552	1,189.45	75.0136	1,189.45	69.5992	1,189.45	71.8963	1,189.45	58.2445	1,189.45	64.7849	1,189.45	65.2154	1,189.45	57.7179	1,189.45	70.8673	1,189.45	68.2923	1,189.45	71.4161
1,230.47	85.7158	1,230.47	85.3572	1,230.47	85.6417	1,230.47	84.6128	1,230.47	85.1761	1,230.47	83.6064	1,230.47	84.4222	1,230.47	82.5627	1,230.47	83.5256	1,230.47	81.7206	1,230.47	82.6888	1,230.47	80.9316	1,230.47	81.9654	1,230.47	79.5869	1,230.47	81.0174	1,230.47	77.1581	1,230.47	79.4214	1,230.47	74.2188	1,230.47	77.2424	1,230.47	73.8402	1,230.47	75.6656	1,230.47	75.2577	1,230.47	75.6998	1,230.47	75.498	1,230.47	75.989	1,230.47	73.7276	1,230.47	75.206	1,230.47	68.8922	1,230.47	72.502	1,230.47	57.7303	1,230.47	66.2262	1,230.47	67.9499	1,230.47	63.5661	1,230.47	72.4222	1,230.47	70.6888	1,230.47	73.1537
1,274.41	86.0643	1,274.41	85.7926	1,274.41	85.8531	1,274.41	84.9574	1,274.41	85.212	1,274.41	83.597	1,274.41	84.1354	1,274.41	82.1172	1,274.41	82.7097	1,274.41	81.1804	1,274.41	81.4425	1,274.41	80.7028	1,274.41	80.8847	1,274.41	79.8337	1,274.41	80.4817	1,274.41	77.9045	1,274.41	79.1584	1,274.41	74.773	1,274.41	76.3052	1,274.41	72.5488	1,274.41	73.1506	1,274.41	73.9947	1,274.41	73.6831	1,274.41	75.1987	1,274.41	75.3211	1,274.41	74.0863	1,274.41	75.3519	1,274.41	69.2782	1,274.41	72.6714	1,274.41	53.2726	1,274.41	64.5619	1,274.41	69.3776	1,274.41	68.7531	1,274.41	74.1736	1,274.41	74.1855	1,274.41	75.5339
1,318.36	85.81	1,318.36	85.4502	1,318.36	85.8193	1,318.36	84.855	1,318.36	85.3313	1,318.36	83.8986	1,318.36	84.3693	1,318.36	82.3961	1,318.36	83.0335	1,318.36	80.6094	1,318.36	81.4206	1,318.36	79.4298	1,318.36	79.9607	1,318.36	78.9544	1,318.36	79.184	1,318.36	78.0148	1,318.36	78.3391	1,318.36	75.7095	1,318.36	76.2258	1,318.36	72.262	1,318.36	72.7805	1,318.36	71.7234	1,318.36	71.5835	1,318.36	73.7224	1,318.36	73.6698	1,318.36	73.8354	1,318.36	74.4551	1,318.36	70.4877	1,318.36	72.1451	1,318.36	53.0114	1,318.36	61.5164	1,318.36	70.0735	1,318.36	67.3877	1,318.36	75.4547	1,318.36	74.5177	1,318.36	76.5532
1,365.23	85.1528	1,365.23	85.0255	1,365.23	85.0902	1,365.23	84.7152	1,365.23	84.7642	1,365.23	84.0845	1,365.23	84.1494	1,365.23	82.9508	1,365.23	83.2294	1,365.23	81.3759	1,365.23	81.9479	1,365.23	79.9273	1,365.23	80.4465	1,365.23	78.9917	1,365.23	79.146	1,365.23	77.8194	1,365.23	77.9862	1,365.23	75.5643	1,365.23	76.3043	1,365.23	72.6357	1,365.23	73.9058	1,365.23	72.0136	1,365.23	72	1,365.23	73.3632	1,365.23	72.3789	1,365.23	73.6361	1,365.23	73.2063	1,365.23	71.3979	1,365.23	72.031	1,365.23	63.0064	1,365.23	66.8766	1,365.23	63.3641	1,365.23	60.2915	1,365.23	70.4488	1,365.23	68.6642	1,365.23	71.3889
1,415.04	85.1208	1,415.04	84.8793	1,415.04	85.0216	1,415.04	84.2674	1,415.04	84.645	1,415.04	83.3942	1,415.04	83.9895	1,415.04	82.3349	1,415.04	83.0058	1,415.04	81.0041	1,415.04	81.6256	1,415.04	79.4731	1,415.04	79.9837	1,415.04	78.0367	1,415.04	78.6777	1,415.04	76.5224	1,415.04	77.8228	1,415.04	74.5217	1,415.04	76.3258	1,415.04	72.6826	1,415.04	73.5476	1,415.04	72.1168	1,415.04	71.3731	1,415.04	71.9586	1,415.04	71.3179	1,415.04	71.5618	1,415.04	71.6674	1,415.04	70.0225	1,415.04	72.0076	1,415.04	64.669	1,415.04	70.1182	1,415.04	57.4001	1,415.04	60.252	1,415.04	66.8303	1,415.04	65.4251	1,415.04	69.1007
1,464.84	85.3597	1,464.84	84.8978	1,464.84	85.3904	1,464.84	84.2801	1,464.84	84.9088	1,464.84	83.4313	1,464.84	84.133	1,464.84	82.106	1,464.84	83.103	1,464.84	80.4804	1,464.84	81.7072	1,464.84	78.9841	1,464.84	80.1505	1,464.84	77.6346	1,464.84	78.8292	1,464.84	76.2578	1,464.84	77.7041	1,464.84	74.6398	1,464.84	76.2516	1,464.84	72.6923	1,464.84	73.8861	1,464.84	71.63	1,464.84	71.1232	1,464.84	71.8248	1,464.84	71.8415	1,464.84	71.6466	1,464.84	72.8935	1,464.84	70.269	1,464.84	71.0478	1,464.84	65.6643	1,464.84	65.7225	1,464.84	57.0267	1,464.84	51.8214	1,464.84	68.2534	1,464.84	64.4357	1,464.84	69.4611
1,514.65	85.4981	1,514.65	85.2339	1,514.65	85.417	1,514.65	84.629	1,514.65	85.0534	1,514.65	83.714	1,514.65	84.3643	1,514.65	82.3472	1,514.65	83.2984	1,514.65	80.5182	1,514.65	81.985	1,514.65	78.793	1,514.65	80.5222	1,514.65	77.6771	1,514.65	78.9195	1,514.65	76.4924	1,514.65	77.4767	1,514.65	74.4072	1,514.65	76.392	1,514.65	71.818	1,514.65	74.9772	1,514.65	70.4156	1,514.65	72.2641	1,514.65	70.2099	1,514.65	69.5653	1,514.65	70.1065	1,514.65	70.486	1,514.65	69.3548	1,514.65	71.2367	1,514.65	65.4523	1,514.65	69.4565	1,514.65	53.4023	1,514.65	63.805	1,514.65	65.9821	1,514.65	62.9775	1,514.65	67.3761
1,570.31	85.8789	1,570.31	85.8856	1,570.31	85.7368	1,570.31	85.3403	1,570.31	85.4896	1,570.31	84.1741	1,570.31	84.8255	1,570.31	82.7806	1,570.31	83.7475	1,570.31	81.322	1,570.31	82.3972	1,570.31	79.6438	1,570.31	80.6489	1,570.31	78.2057	1,570.31	78.8411	1,570.31	76.9819	1,570.31	77.4869	1,570.31	74.6109	1,570.31	75.5365	1,570.31	71.9602	1,570.31	72.8967	1,570.31	71.8399	1,570.31	72.6398	1,570.31	70.9774	1,570.31	72.0745	1,570.31	69.392	1,570.31	69.548	1,570.31	68.9715	1,570.31	69.9696	1,570.31	66.9747	1,570.31	69.9532	1,570.31	65.4735	1,570.31	66.1669	1,570.31	67.9785	1,570.31	67.9212	1,570.31	69.6504
1,623.05	85.1345	1,623.05	84.8615	1,623.05	85.2026	1,623.05	84.6246	1,623.05	84.771	1,623.05	84.0566	1,623.05	83.9209	1,623.05	82.797	1,623.05	82.9194	1,623.05	81.0207	1,623.05	81.7809	1,623.05	79.0967	1,623.05	80.1851	1,623.05	77.6237	1,623.05	78.3828	1,623.05	76.7374	1,623.05	77.1533	1,623.05	74.4205	1,623.05	75.4419	1,623.05	69.6015	1,623.05	71.0804	1,623.05	70.2037	1,623.05	67.674	1,623.05	71.5185	1,623.05	70.8983	1,623.05	69.3073	1,623.05	70.0325	1,623.05	67.3382	1,623.05	67.0345	1,623.05	64.9186	1,623.05	66.9363	1,623.05	65.7638	1,623.05	64.815	1,623.05	69.6566	1,623.05	69.052	1,623.05	70.8788
1,681.64	85.0512	1,681.64	84.7674	1,681.64	84.8403	1,681.64	84.0426	1,681.64	84.2736	1,681.64	83.0482	1,681.64	83.5225	1,681.64	81.8639	1,681.64	82.6211	1,681.64	80.3155	1,681.64	81.3131	1,681.64	78.174	1,681.64	79.1652	1,681.64	76.3296	1,681.64	76.5502	1,681.64	76.1434	1,681.64	75.6553	1,681.64	75.3928	1,681.64	75.8469	1,681.64	71.7047	1,681.64	74.031	1,681.64	67.6552	1,681.64	69.5719	1,681.64	70.5459	1,681.64	69.0236	1,681.64	70.3314	1,681.64	70.3827	1,681.64	67.0108	1,681.64	68.2731	1,681.64	61.8674	1,681.64	63.8938	1,681.64	64.2421	1,681.64	59.9414	1,681.64	70.356	1,681.64	66.2331	1,681.64	70.5981
1,740.23	85.1901	1,740.23	84.7234	1,740.23	85.2174	1,740.23	83.9957	1,740.23	84.7525	1,740.23	82.9566	1,740.23	83.9705	1,740.23	81.5422	1,740.23	82.9278	1,740.23	79.9072	1,740.23	81.5813	1,740.23	78.0028	1,740.23	79.9263	1,740.23	75.718	1,740.23	77.878	1,740.23	74.3217	1,740.23	75.9746	1,740.23	73.8215	1,740.23	75.3787	1,740.23	71.9524	1,740.23	74.2641	1,740.23	69.0555	1,740.23	71.0631	1,740.23	68.7051	1,740.23	68.9553	1,740.23	68.5162	1,740.23	69.4398	1,740.23	68.3752	1,740.23	68.3123	1,740.23	66.2797	1,740.23	66.9051	1,740.23	60.7854	1,740.23	61.8132	1,740.23	69.2149	1,740.23	64.3762	1,740.23	70.0655
1,801.76	85.9081	1,801.76	85.8053	1,801.76	85.4018	1,801.76	84.8086	1,801.76	84.9324	1,801.76	83.5351	1,801.76	84.3108	1,801.76	82.4951	1,801.76	83.1513	1,801.76	81.2319	1,801.76	81.7681	1,801.76	79.1215	1,801.76	80.2401	1,801.76	76.4858	1,801.76	78.1251	1,801.76	74.9889	1,801.76	76.1784	1,801.76	73.9503	1,801.76	75.2122	1,801.76	71.4748	1,801.76	73.6057	1,801.76	69.51	1,801.76	71.7218	1,801.76	69.7777	1,801.76	70.6562	1,801.76	68.0843	1,801.76	69.0064	1,801.76	65.4499	1,801.76	68.8641	1,801.76	65.9104	1,801.76	66.9981	1,801.76	62.8939	1,801.76	61.4708	1,801.76	65.476	1,801.76	66.6849	1,801.76	68.3913
1,866.21	85.5226	1,866.21	84.731	1,866.21	85.7193	1,866.21	84.2067	1,866.21	84.877	1,866.21	83.5621	1,866.21	83.6236	1,866.21	82.2378	1,866.21	82.3852	1,866.21	80.8626	1,866.21	80.8816	1,866.21	79.635	1,866.21	79.2501	1,866.21	77.6308	1,866.21	77.5102	1,866.21	75.4362	1,866.21	75.4225	1,866.21	73.9754	1,866.21	74.1655	1,866.21	71.3217	1,866.21	72.9336	1,866.21	69.5153	1,866.21	70.1231	1,866.21	70.9994	1,866.21	69.6909	1,866.21	70.4147	1,866.21	68.4518	1,866.21	68.4813	1,866.21	66.5703	1,866.21	65.5508	1,866.21	69.0319	1,866.21	63.2999	1,866.21	63.8672	1,866.21	66.4074	1,866.21	64.662	1,866.21	68.6456
1,930.66	84.627	1,930.66	84.4784	1,930.66	84.283	1,930.66	83.5189	1,930.66	83.8821	1,930.66	82.238	1,930.66	82.9888	1,930.66	81.1001	1,930.66	81.2308	1,930.66	79.8213	1,930.66	79.5808	1,930.66	77.8495	1,930.66	78.5569	1,930.66	75.2792	1,930.66	76.7831	1,930.66	73.9068	1,930.66	74.2207	1,930.66	73.9127	1,930.66	72.7772	1,930.66	71.6151	1,930.66	71.3431	1,930.66	68.3158	1,930.66	68.3071	1,930.66	70.2973	1,930.66	67.5354	1,930.66	68.2362	1,930.66	66.0502	1,930.66	65.9846	1,930.66	61.0583	1,930.66	66.3704	1,930.66	63.1136	1,930.66	63.4105	1,930.66	66.9898	1,930.66	68.6376	1,930.66	64.9333	1,930.66	67.5941
2,000.98	85.7298	2,000.98	85.2063	2,000.98	85.6749	2,000.98	84.286	2,000.98	85.0287	2,000.98	83.0319	2,000.98	84.1146	2,000.98	81.215	2,000.98	83.0887	2,000.98	79.0105	2,000.98	81.5415	2,000.98	77.351	2,000.98	79.5615	2,000.98	75.7709	2,000.98	77.7912	2,000.98	73.1824	2,000.98	75.7701	2,000.98	71.2456	2,000.98	74.0559	2,000.98	69.9328	2,000.98	73.4652	2,000.98	66.9928	2,000.98	70.8413	2,000.98	66.0584	2,000.98	67.6949	2,000.98	66.6622	2,000.98	69.2529	2,000.98	65.7491	2,000.98	68.4195	2,000.98	63.1001	2,000.98	65.5449	2,000.98	61.7872	2,000.98	59.3374	2,000.98	68.3829	2,000.98	67.5562	2,000.98	70.3751
2,071.29	86.1778	2,071.29	85.6821	2,071.29	86.222	2,071.29	84.9053	2,071.29	85.5555	2,071.29	83.811	2,071.29	84.3453	2,071.29	82.2577	2,071.29	83.0013	2,071.29	80.4863	2,071.29	81.3104	2,071.29	78.7251	2,071.29	79.4001	2,071.29	76.3996	2,071.29	77.9988	2,071.29	73.6583	2,071.29	76.3135	2,071.29	72.271	2,071.29	74.0503	2,071.29	71.5383	2,071.29	72.4291	2,071.29	68.913	2,071.29	70.7488	2,071.29	67.3911	2,071.29	68.9904	2,071.29	66.926	2,071.29	68.7797	2,071.29	65.8626	2,071.29	67.0265	2,071.29	66.3503	2,071.29	65.109	2,071.29	58.7537	2,071.29	63.1491	2,071.29	66.3154	2,071.29	62.1282	2,071.29	69.0404
2,144.53	85.3956	2,144.53	85.3011	2,144.53	85.1097	2,144.53	84.6644	2,144.53	84.4672	2,144.53	83.3606	2,144.53	83.1173	2,144.53	81.8323	2,144.53	81.363	2,144.53	80.6416	2,144.53	79.818	2,144.53	79.0868	2,144.53	78.1567	2,144.53	76.9124	2,144.53	76.3758	2,144.53	74.8945	2,144.53	74.4398	2,144.53	73.8198	2,144.53	72.0039	2,144.53	72.1227	2,144.53	71.4279	2,144.53	68.8658	2,144.53	70.2507	2,144.53	67.7933	2,144.53	66.2234	2,144.53	67.521	2,144.53	66.7663	2,144.53	68.0296	2,144.53	66.7013	2,144.53	65.1947	2,144.53	66.1654	2,144.53	63.8649	2,144.53	58.7805	2,144.53	67.7791	2,144.53	66.7067	2,144.53	69.1777
2,217.77	84.378	2,217.77	83.9271	2,217.77	84.4909	2,217.77	83.2805	2,217.77	83.7585	2,217.77	81.9557	2,217.77	82.5816	2,217.77	80.3789	2,217.77	81.2011	2,217.77	79.0548	2,217.77	79.1043	2,217.77	77.2971	2,217.77	77.0563	2,217.77	75.5409	2,217.77	75.6627	2,217.77	74.1381	2,217.77	73.8485	2,217.77	72.101	2,217.77	71.6478	2,217.77	71.0626	2,217.77	69.8324	2,217.77	70.3512	2,217.77	68.38	2,217.77	68.5704	2,217.77	67.2759	2,217.77	68.3066	2,217.77	66.8797	2,217.77	67.6125	2,217.77	66.8118	2,217.77	65.0708	2,217.77	67.555	2,217.77	52.4019	2,217.77	62.8221	2,217.77	66.9326	2,217.77	61.618	2,217.77	69.6159
2,296.88	85.096	2,296.88	84.7465	2,296.88	84.7676	2,296.88	83.7325	2,296.88	84.2101	2,296.88	82.2739	2,296.88	83.4058	2,296.88	80.7695	2,296.88	81.8018	2,296.88	79.1642	2,296.88	79.6861	2,296.88	77.1355	2,296.88	77.7534	2,296.88	74.7553	2,296.88	76.0042	2,296.88	72.3877	2,296.88	74.0219	2,296.88	70.854	2,296.88	71.627	2,296.88	69.6466	2,296.88	70.6095	2,296.88	68.9513	2,296.88	69.9759	2,296.88	67.6458	2,296.88	69.0495	2,296.88	65.5832	2,296.88	68.7119	2,296.88	66.3775	2,296.88	65.5555	2,296.88	66.5952	2,296.88	65.0727	2,296.88	61.8784	2,296.88	66.7315	2,296.88	67.8058	2,296.88	62.6031	2,296.88	68.9969
2,378.91	85.1346	2,378.91	84.931	2,378.91	84.8824	2,378.91	84.049	2,378.91	84.3386	2,378.91	82.661	2,378.91	83.082	2,378.91	81.1586	2,378.91	81.0714	2,378.91	79.7391	2,378.91	79.3392	2,378.91	78.0415	2,378.91	78.1563	2,378.91	76.0022	2,378.91	76.4086	2,378.91	74.2538	2,378.91	74.5886	2,378.91	72.0794	2,378.91	73.585	2,378.91	70.0606	2,378.91	72.1026	2,378.91	67.0999	2,378.91	70.1144	2,378.91	65.1645	2,378.91	67.6494	2,378.91	67.4465	2,378.91	67.2454	2,378.91	66.9446	2,378.91	67.5635	2,378.91	67.9885	2,378.91	67.7058	2,378.91	60.1193	2,378.91	62.8631	2,378.91	66.122	2,378.91	66.9331	2,378.91	69.9527
2,460.94	84.2782	2,460.94	83.8704	2,460.94	84.1148	2,460.94	83.0885	2,460.94	83.3107	2,460.94	81.9714	2,460.94	82.0819	2,460.94	80.4982	2,460.94	80.7645	2,460.94	78.8987	2,460.94	79	2,460.94	77.5574	2,460.94	76.8558	2,460.94	76.0814	2,460.94	75.1583	2,460.94	74.1937	2,460.94	74.2861	2,460.94	72.3124	2,460.94	72.3028	2,460.94	70.149	2,460.94	69.9364	2,460.94	69.1539	2,460.94	68.7542	2,460.94	67.4558	2,460.94	66.9605	2,460.94	65.599	2,460.94	66.6361	2,460.94	65.3874	2,460.94	65.3441	2,460.94	68.1569	2,460.94	66.427	2,460.94	63.6712	2,460.94	65.4791	2,460.94	69.7931	2,460.94	61.4694	2,460.94	70.5354
2,548.83	83.8265	2,548.83	83.2102	2,548.83	83.6682	2,548.83	82.055	2,548.83	82.8386	2,548.83	80.8186	2,548.83	81.621	2,548.83	79.6045	2,548.83	80.014	2,548.83	77.9107	2,548.83	78.4546	2,548.83	75.7875	2,548.83	77.1036	2,548.83	74.408	2,548.83	75.2734	2,548.83	72.9714	2,548.83	73.7195	2,548.83	70.8974	2,548.83	72.0398	2,548.83	70.6851	2,548.83	69.1638	2,548.83	68.5803	2,548.83	68.7727	2,548.83	65.9072	2,548.83	66.0115	2,548.83	67.5347	2,548.83	65.9516	2,548.83	66.3816	2,548.83	66.4682	2,548.83	67.1891	2,548.83	65.7957	2,548.83	61.6874	2,548.83	64.6941	2,548.83	65.0806	2,548.83	64.5293	2,548.83	68.5635
2,639.65	84.0862	2,639.65	83.5866	2,639.65	83.7984	2,639.65	82.5278	2,639.65	82.989	2,639.65	81.1615	2,639.65	81.8207	2,639.65	79.7123	2,639.65	80.3065	2,639.65	78.5324	2,639.65	78.8437	2,639.65	77.0219	2,639.65	77.29	2,639.65	74.6404	2,639.65	75.3631	2,639.65	73.006	2,639.65	73.5147	2,639.65	71.2147	2,639.65	72.3502	2,639.65	68.4749	2,639.65	69.7091	2,639.65	68.7291	2,639.65	67.7292	2,639.65	64.5649	2,639.65	67.1469	2,639.65	62.6506	2,639.65	63.1348	2,639.65	63.2552	2,639.65	65.8652	2,639.65	65.6851	2,639.65	64.7843	2,639.65	63.0044	2,639.65	65.8138	2,639.65	68.086	2,639.65	62.1306	2,639.65	70.2641
2,733.4	83.6852	2,733.4	83.371	2,733.4	83.5662	2,733.4	82.5787	2,733.4	82.9294	2,733.4	81.2963	2,733.4	81.5277	2,733.4	79.6633	2,733.4	79.9549	2,733.4	78.0234	2,733.4	78.3272	2,733.4	76.6758	2,733.4	76.782	2,733.4	75.0975	2,733.4	75.0993	2,733.4	73.0311	2,733.4	73.195	2,733.4	71.1604	2,733.4	71.9842	2,733.4	69.3774	2,733.4	70.1921	2,733.4	67.941	2,733.4	67.6382	2,733.4	65.0671	2,733.4	66.7957	2,733.4	64.1751	2,733.4	60.2493	2,733.4	63.3127	2,733.4	60.2477	2,733.4	64.2904	2,733.4	62.0312	2,733.4	60.8605	2,733.4	63.7436	2,733.4	66.26	2,733.4	61.9544	2,733.4	69.6049
2,827.15	84.1087	2,827.15	83.7375	2,827.15	83.859	2,827.15	82.7987	2,827.15	83.0342	2,827.15	81.3365	2,827.15	81.8666	2,827.15	79.8046	2,827.15	80.4592	2,827.15	78.3074	2,827.15	78.856	2,827.15	76.7811	2,827.15	77.2479	2,827.15	74.9101	2,827.15	75.5847	2,827.15	72.9503	2,827.15	73.6053	2,827.15	71.7198	2,827.15	72.164	2,827.15	68.9722	2,827.15	70.9909	2,827.15	67.9023	2,827.15	68.6194	2,827.15	66.5585	2,827.15	67.5212	2,827.15	60.2691	2,827.15	65.4404	2,827.15	61.5076	2,827.15	63.3248	2,827.15	63.4696	2,827.15	60.4169	2,827.15	63.9688	2,827.15	64.2264	2,827.15	68.1128	2,827.15	59.788	2,827.15	69.397
2,926.76	83.8972	2,926.76	83.4854	2,926.76	83.7482	2,926.76	82.5683	2,926.76	83.0138	2,926.76	81.3405	2,926.76	81.8403	2,926.76	80.1682	2,926.76	80.4734	2,926.76	78.6119	2,926.76	79.1385	2,926.76	76.8956	2,926.76	77.6253	2,926.76	75.3265	2,926.76	75.6689	2,926.76	73.5233	2,926.76	73.8673	2,926.76	71.9558	2,926.76	72.1927	2,926.76	69.6975	2,926.76	70.4333	2,926.76	67.831	2,926.76	68.0791	2,926.76	67.5793	2,926.76	66.9934	2,926.76	64.3416	2,926.76	62.2131	2,926.76	62.6013	2,926.76	64.5724	2,926.76	61.3964	2,926.76	62.8608	2,926.76	60.9387	2,926.76	63.7319	2,926.76	65.2595	2,926.76	60.7009	2,926.76	67.8482
3,032.23	83.9707	3,032.23	83.4088	3,032.23	83.881	3,032.23	82.4516	3,032.23	83.2232	3,032.23	81.1857	3,032.23	82.1786	3,032.23	79.9243	3,032.23	80.8329	3,032.23	78.2542	3,032.23	79.3721	3,032.23	76.1541	3,032.23	77.5395	3,032.23	74.4474	3,032.23	76.0386	3,032.23	72.8096	3,032.23	74.5708	3,032.23	70.8179	3,032.23	71.9242	3,032.23	69.4324	3,032.23	70.1042	3,032.23	67.2345	3,032.23	67.5603	3,032.23	67.2473	3,032.23	66.7764	3,032.23	64.9887	3,032.23	64.7838	3,032.23	64.2405	3,032.23	64.7603	3,032.23	63.1324	3,032.23	62.4454	3,032.23	63.3591	3,032.23	64.2042	3,032.23	65.7612	3,032.23	60.106	3,032.23	67.3392
3,137.7	84.3753	3,137.7	83.8872	3,137.7	84.2174	3,137.7	82.8876	3,137.7	83.5195	3,137.7	81.6141	3,137.7	82.5186	3,137.7	80.1346	3,137.7	81.1349	3,137.7	78.615	3,137.7	79.7747	3,137.7	76.7867	3,137.7	78.2619	3,137.7	74.6453	3,137.7	76.389	3,137.7	72.8147	3,137.7	74.6745	3,137.7	70.8941	3,137.7	72.7766	3,137.7	68.7557	3,137.7	71.0815	3,137.7	66.5528	3,137.7	69.107	3,137.7	64.2265	3,137.7	67.2988	3,137.7	62.1402	3,137.7	64.6838	3,137.7	65.6913	3,137.7	62.5276	3,137.7	60.9496	3,137.7	62.7167	3,137.7	60.7543	3,137.7	63.4208	3,137.7	61.5669	3,137.7	61.1691	3,137.7	67.1033
3,249.02	84.4488	3,249.02	84.0264	3,249.02	84.2379	3,249.02	82.9077	3,249.02	83.5862	3,249.02	81.6604	3,249.02	82.4489	3,249.02	80.0489	3,249.02	81.0796	3,249.02	78.3425	3,249.02	79.529	3,249.02	76.9933	3,249.02	77.8483	3,249.02	75.2017	3,249.02	75.8276	3,249.02	73.026	3,249.02	73.8382	3,249.02	70.9055	3,249.02	72.3567	3,249.02	68.9647	3,249.02	70.6989	3,249.02	67.0986	3,249.02	68.5534	3,249.02	65.7197	3,249.02	66.7798	3,249.02	62.1386	3,249.02	62.7913	3,249.02	62.9499	3,249.02	64.0814	3,249.02	61.504	3,249.02	62.3873	3,249.02	62.0256	3,249.02	63.3533	3,249.02	64.5186	3,249.02	60.5658	3,249.02	68.0049
3,363.28	84.5469	3,363.28	84.0877	3,363.28	84.4086	3,363.28	82.9579	3,363.28	83.6501	3,363.28	81.7413	3,363.28	82.3761	3,363.28	80.2564	3,363.28	80.9624	3,363.28	78.3754	3,363.28	79.0883	3,363.28	76.3455	3,363.28	77.1486	3,363.28	74.4965	3,363.28	75.3804	3,363.28	72.461	3,363.28	73.1431	3,363.28	70.5288	3,363.28	70.7884	3,363.28	68.3568	3,363.28	69.2823	3,363.28	66.6586	3,363.28	67.3092	3,363.28	65.8138	3,363.28	65.0196	3,363.28	60.2215	3,363.28	64.4228	3,363.28	62.1264	3,363.28	61.246	3,363.28	60.7428	3,363.28	62.4528	3,363.28	62.7804	3,363.28	61.841	3,363.28	63.9909	3,363.28	61.9199	3,363.28	67.2481
3,483.4	84.7782	3,483.4	84.2886	3,483.4	84.8343	3,483.4	83.185	3,483.4	83.8704	3,483.4	81.6414	3,483.4	82.6052	3,483.4	80.1638	3,483.4	81.1502	3,483.4	78.0842	3,483.4	79.826	3,483.4	75.9587	3,483.4	77.8776	3,483.4	73.6112	3,483.4	75.523	3,483.4	71.6506	3,483.4	73.7729	3,483.4	69.7192	3,483.4	72.1629	3,483.4	68.1942	3,483.4	70.0607	3,483.4	65.7534	3,483.4	68.5394	3,483.4	63.5719	3,483.4	66.8119	3,483.4	60.7425	3,483.4	64.8326	3,483.4	61.4509	3,483.4	62.7251	3,483.4	58.099	3,483.4	62.3925	3,483.4	61.7993	3,483.4	60.4698	3,483.4	60.7498	3,483.4	62.0525	3,483.4	66.8771
3,606.45	84.9828	3,606.45	84.403	3,606.45	84.6381	3,606.45	83.3861	3,606.45	83.7856	3,606.45	82.1272	3,606.45	82.5051	3,606.45	80.0796	3,606.45	80.8154	3,606.45	78.7963	3,606.45	78.8658	3,606.45	76.5393	3,606.45	76.9035	3,606.45	73.8664	3,606.45	74.8608	3,606.45	71.8628	3,606.45	72.8591	3,606.45	69.8427	3,606.45	71.2209	3,606.45	67.6572	3,606.45	68.8373	3,606.45	66.4	3,606.45	67.6201	3,606.45	64.7336	3,606.45	65.0103	3,606.45	61.9596	3,606.45	63.4968	3,606.45	60.1264	3,606.45	61.4385	3,606.45	59.9333	3,606.45	61.1025	3,606.45	59.0065	3,606.45	59.6666	3,606.45	62.2712	3,606.45	58.2514	3,606.45	67.107
3,732.42	84.6542	3,732.42	84.2206	3,732.42	84.4202	3,732.42	82.9975	3,732.42	83.7597	3,732.42	81.5021	3,732.42	82.2247	3,732.42	79.9932	3,732.42	80.6648	3,732.42	77.6998	3,732.42	78.9988	3,732.42	75.6682	3,732.42	77.24	3,732.42	74.2251	3,732.42	75.0884	3,732.42	71.7146	3,732.42	73.2929	3,732.42	70.5665	3,732.42	70.8331	3,732.42	68.1685	3,732.42	68.6901	3,732.42	66.6815	3,732.42	67.1969	3,732.42	65.364	3,732.42	65.252	3,732.42	63.5917	3,732.42	63.853	3,732.42	61.7352	3,732.42	62.5266	3,732.42	59.2584	3,732.42	61.4895	3,732.42	58.7098	3,732.42	56.7317	3,732.42	61.0276	3,732.42	54.2565	3,732.42	65.3272
3,864.26	84.934	3,864.26	84.4537	3,864.26	84.9677	3,864.26	83.4399	3,864.26	83.6605	3,864.26	81.4591	3,864.26	82.4965	3,864.26	79.6841	3,864.26	80.9479	3,864.26	78.0829	3,864.26	79.4361	3,864.26	76.1782	3,864.26	77.6021	3,864.26	73.9856	3,864.26	75.2255	3,864.26	72.1758	3,864.26	72.8488	3,864.26	70.6945	3,864.26	71.5872	3,864.26	69.2906	3,864.26	69.9623	3,864.26	67.0467	3,864.26	67.2728	3,864.26	65.0431	3,864.26	67.1793	3,864.26	63.1482	3,864.26	64.7609	3,864.26	61.1468	3,864.26	61.8444	3,864.26	59.1073	3,864.26	61.5657	3,864.26	61.481	3,864.26	59.6145	3,864.26	60.0073	3,864.26	57.47	3,864.26	65.3654
3,999.02	85.1759	3,999.02	84.6844	3,999.02	84.6439	3,999.02	83.646	3,999.02	83.9322	3,999.02	82.6359	3,999.02	82.7996	3,999.02	80.5276	3,999.02	81.1864	3,999.02	78.8212	3,999.02	79.1909	3,999.02	76.7319	3,999.02	77.4494	3,999.02	74.5532	3,999.02	75.6578	3,999.02	71.7924	3,999.02	73.7261	3,999.02	70.7844	3,999.02	71.1432	3,999.02	68.8457	3,999.02	69.7667	3,999.02	67.5779	3,999.02	67.7802	3,999.02	64.8434	3,999.02	65.4896	3,999.02	63.6437	3,999.02	62.8737	3,999.02	63.3394	3,999.02	63.851	3,999.02	58.9011	3,999.02	61.5465	3,999.02	59.7906	3,999.02	57.6434	3,999.02	61.4957	3,999.02	56.8856	3,999.02	66.0039
4,139.65	84.9195	4,139.65	84.3911	4,139.65	84.5999	4,139.65	83.1871	4,139.65	83.8232	4,139.65	81.9969	4,139.65	82.6924	4,139.65	81.1035	4,139.65	81.3161	4,139.65	79.0132	4,139.65	79.5473	4,139.65	77.3062	4,139.65	77.8233	4,139.65	75.6143	4,139.65	75.6179	4,139.65	73.6776	4,139.65	73.7285	4,139.65	71.4535	4,139.65	71.7003	4,139.65	69.1257	4,139.65	69.874	4,139.65	66.7811	4,139.65	67.4424	4,139.65	65.1731	4,139.65	66.0334	4,139.65	63.3768	4,139.65	64.14	4,139.65	63.8616	4,139.65	61.9255	4,139.65	57.8904	4,139.65	62.7855	4,139.65	61.5046	4,139.65	58.6508	4,139.65	55.993	4,139.65	55.9091	4,139.65	65.9355
4,286.13	85.2494	4,286.13	84.8413	4,286.13	85.3531	4,286.13	84.1722	4,286.13	84.1827	4,286.13	82.6663	4,286.13	83.4329	4,286.13	80.9337	4,286.13	82.4573	4,286.13	79.6605	4,286.13	80.6882	4,286.13	77.006	4,286.13	78.4322	4,286.13	74.7172	4,286.13	76.4555	4,286.13	73.0628	4,286.13	74.4234	4,286.13	71.0239	4,286.13	72.5376	4,286.13	69.1822	4,286.13	70.4244	4,286.13	67.6046	4,286.13	68.308	4,286.13	65.9662	4,286.13	67.3379	4,286.13	62.6668	4,286.13	64.5617	4,286.13	63.5742	4,286.13	62.4028	4,286.13	58.9641	4,286.13	62.7055	4,286.13	62.2051	4,286.13	57.6092	4,286.13	59.9249	4,286.13	58.2512	4,286.13	63.6679
4,438.48	84.9654	4,438.48	84.8189	4,438.48	84.4799	4,438.48	83.9882	4,438.48	84.3632	4,438.48	83.5763	4,438.48	83.2909	4,438.48	82.2366	4,438.48	81.7829	4,438.48	79.7496	4,438.48	79.8875	4,438.48	77.8406	4,438.48	78.2957	4,438.48	75.8752	4,438.48	75.8309	4,438.48	73.013	4,438.48	74.2027	4,438.48	71.389	4,438.48	71.7028	4,438.48	68.8971	4,438.48	69.2413	4,438.48	67.2811	4,438.48	67.7505	4,438.48	65.4497	4,438.48	65.9715	4,438.48	62.3912	4,438.48	64.9473	4,438.48	59.9654	4,438.48	61.2619	4,438.48	55.8463	4,438.48	60.7541	4,438.48	60.2183	4,438.48	56.8408	4,438.48	56.4384	4,438.48	58.0513	4,438.48	64.3583
4,593.75	85.0346	4,593.75	84.4653	4,593.75	85.2894	4,593.75	84.0454	4,593.75	84.3141	4,593.75	82.3404	4,593.75	83.6825	4,593.75	80.5539	4,593.75	82.4059	4,593.75	78.498	4,593.75	80.8715	4,593.75	76.2556	4,593.75	78.0915	4,593.75	73.7732	4,593.75	75.9054	4,593.75	72.0678	4,593.75	73.7455	4,593.75	69.2903	4,593.75	72.1711	4,593.75	68.2253	4,593.75	70.1047	4,593.75	67.1481	4,593.75	68.0489	4,593.75	66.2399	4,593.75	67.3766	4,593.75	66.1032	4,593.75	63.6893	4,593.75	60.8907	4,593.75	62.6138	4,593.75	59.53	4,593.75	60.4653	4,593.75	59.5341	4,593.75	55.9981	4,593.75	55.2535	4,593.75	59.4876	4,593.75	61.6502
4,757.81	85.0909	4,757.81	85.0796	4,757.81	84.72	4,757.81	84.1191	4,757.81	84.7052	4,757.81	83.2053	4,757.81	83.4681	4,757.81	81.3491	4,757.81	82.3056	4,757.81	79.5256	4,757.81	79.7546	4,757.81	77.0237	4,757.81	78.0632	4,757.81	75.1753	4,757.81	75.7524	4,757.81	73.3044	4,757.81	73.9526	4,757.81	71.4328	4,757.81	71.6138	4,757.81	69.2087	4,757.81	69.8713	4,757.81	66.4027	4,757.81	68.2538	4,757.81	65.3044	4,757.81	65.4621	4,757.81	61.3907	4,757.81	64.9399	4,757.81	60.7003	4,757.81	64.0196	4,757.81	60.1753	4,757.81	61.6069	4,757.81	55.9472	4,757.81	52.3988	4,757.81	57.8853	4,757.81	58.0187	4,757.81	64.0225
4,924.8	85.325	4,924.8	84.9459	4,924.8	85.16	4,924.8	84.4947	4,924.8	84.3442	4,924.8	82.7694	4,924.8	83.7121	4,924.8	80.952	4,924.8	81.7529	4,924.8	78.3248	4,924.8	79.9934	4,924.8	76.5601	4,924.8	77.8026	4,924.8	73.613	4,924.8	75.7315	4,924.8	71.8206	4,924.8	73.4981	4,924.8	69.8344	4,924.8	71.4253	4,924.8	68.5937	4,924.8	69.6031	4,924.8	66.5786	4,924.8	67.7287	4,924.8	64.9337	4,924.8	67.4096	4,924.8	63.1334	4,924.8	64.2184	4,924.8	62.1385	4,924.8	63.376	4,924.8	60.8542	4,924.8	60.5775	4,924.8	59.1711	4,924.8	55.3949	4,924.8	56.4668	4,924.8	56.5144	4,924.8	62.931
5,097.66	84.9612	5,097.66	84.8168	5,097.66	84.8238	5,097.66	83.6625	5,097.66	84.5092	5,097.66	82.304	5,097.66	83.2891	5,097.66	79.7878	5,097.66	81.8637	5,097.66	78.1423	5,097.66	79.4877	5,097.66	76.059	5,097.66	77.375	5,097.66	73.8806	5,097.66	75.4619	5,097.66	72.6738	5,097.66	73.7392	5,097.66	70.2661	5,097.66	71.8636	5,097.66	69.2375	5,097.66	69.1358	5,097.66	66.3318	5,097.66	67.3975	5,097.66	64.2763	5,097.66	65.3996	5,097.66	62.8423	5,097.66	63.1356	5,097.66	58.6075	5,097.66	63.1805	5,097.66	61.9879	5,097.66	62.5958	5,097.66	53.0606	5,097.66	54.0489	5,097.66	59.8589	5,097.66	58.7537	5,097.66	62.2169
5,279.3	84.3768	5,279.3	83.9578	5,279.3	84.2991	5,279.3	83.7102	5,279.3	83.4243	5,279.3	82.2886	5,279.3	82.5978	5,279.3	80.6363	5,279.3	80.5511	5,279.3	78.6882	5,279.3	78.9937	5,279.3	77.2037	5,279.3	77.1941	5,279.3	75.2486	5,279.3	75.6166	5,279.3	72.7001	5,279.3	73.4789	5,279.3	70.435	5,279.3	71.0717	5,279.3	68.1106	5,279.3	69.8021	5,279.3	65.2233	5,279.3	66.9461	5,279.3	63.9986	5,279.3	65.1482	5,279.3	61.1677	5,279.3	63.0227	5,279.3	61.4478	5,279.3	61.6271	5,279.3	59.5337	5,279.3	60.8636	5,279.3	47.0075	5,279.3	57.7473	5,279.3	54.9591	5,279.3	54.8203	5,279.3	62.4214
5,463.87	84.6016	5,463.87	84.5651	5,463.87	84.3785	5,463.87	83.6712	5,463.87	84.0817	5,463.87	82.1031	5,463.87	82.9691	5,463.87	80.4023	5,463.87	81.5359	5,463.87	78.6732	5,463.87	79.6057	5,463.87	76.1177	5,463.87	77.8883	5,463.87	73.9457	5,463.87	75.8912	5,463.87	72.1894	5,463.87	73.1581	5,463.87	69.0811	5,463.87	71.3635	5,463.87	68.2626	5,463.87	69.1014	5,463.87	66.5892	5,463.87	66.5621	5,463.87	64.4312	5,463.87	64.3377	5,463.87	62.0935	5,463.87	63.2355	5,463.87	61.7834	5,463.87	62.1546	5,463.87	59.3057	5,463.87	61.6372	5,463.87	55.4975	5,463.87	55.3395	5,463.87	55.6427	5,463.87	56.8295	5,463.87	61.8173
5,657.23	84.2549	5,657.23	83.9393	5,657.23	84.3027	5,657.23	83.4771	5,657.23	83.758	5,657.23	82.0087	5,657.23	82.7772	5,657.23	80.5878	5,657.23	81.2194	5,657.23	78.6629	5,657.23	79.6148	5,657.23	77.0499	5,657.23	77.69	5,657.23	74.9792	5,657.23	75.4214	5,657.23	72.6039	5,657.23	73.1211	5,657.23	70.7549	5,657.23	70.6556	5,657.23	68.3674	5,657.23	68.2402	5,657.23	66.0923	5,657.23	66.6585	5,657.23	63.7352	5,657.23	64.8306	5,657.23	61.3555	5,657.23	63.1035	5,657.23	60.1049	5,657.23	62.7895	5,657.23	61.0717	5,657.23	61.3549	5,657.23	46.914	5,657.23	59.0688	5,657.23	53.6202	5,657.23	55.5048	5,657.23	60.4091
5,856.45	84.4197	5,856.45	84.4059	5,856.45	84.3094	5,856.45	83.6455	5,856.45	84.2002	5,856.45	82.5452	5,856.45	83.0868	5,856.45	81.1848	5,856.45	81.7913	5,856.45	79.4771	5,856.45	80.0813	5,856.45	76.9949	5,856.45	77.8331	5,856.45	74.106	5,856.45	75.6373	5,856.45	71.8165	5,856.45	72.6606	5,856.45	68.4935	5,856.45	71.2354	5,856.45	67.1679	5,856.45	68.8745	5,856.45	65.4793	5,856.45	66.7687	5,856.45	64.9042	5,856.45	64.6204	5,856.45	60.3186	5,856.45	62.4964	5,856.45	59.8393	5,856.45	62.8541	5,856.45	60.6958	5,856.45	59.8072	5,856.45	50.0861	5,856.45	55.2562	5,856.45	55.8702	5,856.45	52.7698	5,856.45	60.0207
6,061.52	85.0015	6,061.52	84.7719	6,061.52	85.1293	6,061.52	84.4844	6,061.52	84.5289	6,061.52	83.1181	6,061.52	83.5858	6,061.52	81.5133	6,061.52	82.03	6,061.52	79.065	6,061.52	80.3253	6,061.52	76.5586	6,061.52	78.1561	6,061.52	73.9108	6,061.52	75.6022	6,061.52	71.5053	6,061.52	73.0375	6,061.52	70.186	6,061.52	70.9178	6,061.52	68.3597	6,061.52	68.9918	6,061.52	66.1891	6,061.52	67.1058	6,061.52	64.6615	6,061.52	64.5114	6,061.52	63.5789	6,061.52	62.8147	6,061.52	60.7583	6,061.52	62.3306	6,061.52	60.3716	6,061.52	60.7745	6,061.52	50.963	6,061.52	58.0471	6,061.52	53.6693	6,061.52	54.8508	6,061.52	60.2619
6,275.39	85.2522	6,275.39	85.2104	6,275.39	85.1722	6,275.39	84.4851	6,275.39	85.0413	6,275.39	83.2981	6,275.39	84.0023	6,275.39	81.6038	6,275.39	82.8881	6,275.39	79.6018	6,275.39	80.9904	6,275.39	77.4191	6,275.39	78.4595	6,275.39	74.9405	6,275.39	76.1741	6,275.39	72.8868	6,275.39	73.3443	6,275.39	70.7763	6,275.39	71.5046	6,275.39	68.1086	6,275.39	68.9154	6,275.39	66.5421	6,275.39	67.1594	6,275.39	64.3735	6,275.39	65.227	6,275.39	63.2517	6,275.39	63.3381	6,275.39	61.967	6,275.39	62.4644	6,275.39	61.0756	6,275.39	60.8336	6,275.39	54.051	6,275.39	57.9936	6,275.39	53.473	6,275.39	55.6685	6,275.39	60.3375
6,498.05	84.6092	6,498.05	84.8501	6,498.05	84.9256	6,498.05	84.5685	6,498.05	84.8618	6,498.05	83.5234	6,498.05	84.1316	6,498.05	82.1302	6,498.05	83.0536	6,498.05	79.989	6,498.05	81.1927	6,498.05	77.7174	6,498.05	78.8123	6,498.05	75.3775	6,498.05	76.8092	6,498.05	73.5285	6,498.05	74.3805	6,498.05	71.2122	6,498.05	72.364	6,498.05	68.3814	6,498.05	69.7131	6,498.05	66.0218	6,498.05	67.8651	6,498.05	64.1336	6,498.05	65.5319	6,498.05	62.7994	6,498.05	64.4433	6,498.05	62.671	6,498.05	63.529	6,498.05	61.0547	6,498.05	59.313	6,498.05	50.4074	6,498.05	58.6161	6,498.05	50.5378	6,498.05	57.1105	6,498.05	59.124
6,726.56	84.6364	6,726.56	84.7888	6,726.56	84.7847	6,726.56	84.669	6,726.56	84.702	6,726.56	83.7608	6,726.56	84.0179	6,726.56	82.3185	6,726.56	82.8031	6,726.56	80.0325	6,726.56	80.8374	6,726.56	77.3697	6,726.56	78.4908	6,726.56	75.1402	6,726.56	76.4471	6,726.56	72.8751	6,726.56	74.0511	6,726.56	70.6713	6,726.56	71.8914	6,726.56	68.5222	6,726.56	69.2311	6,726.56	66.3776	6,726.56	67.1563	6,726.56	64.53	6,726.56	65.5819	6,726.56	60.8008	6,726.56	64.0437	6,726.56	63.0058	6,726.56	63.1935	6,726.56	61.1304	6,726.56	60.3531	6,726.56	40.9365	6,726.56	59.4132	6,726.56	57.6473	6,726.56	57.2669	6,726.56	57.5268
6,963.87	84.6879	6,963.87	84.7969	6,963.87	84.8785	6,963.87	84.6926	6,963.87	84.653	6,963.87	83.7099	6,963.87	83.9357	6,963.87	82.0274	6,963.87	82.8211	6,963.87	79.926	6,963.87	80.928	6,963.87	77.4193	6,963.87	78.7242	6,963.87	75.1505	6,963.87	76.5349	6,963.87	72.9003	6,963.87	74.1665	6,963.87	71.1142	6,963.87	71.882	6,963.87	69.0915	6,963.87	69.6991	6,963.87	67.0458	6,963.87	67.558	6,963.87	64.2379	6,963.87	65.1856	6,963.87	62.0549	6,963.87	63.5279	6,963.87	62.9147	6,963.87	62.4545	6,963.87	58.9617	6,963.87	61.3009	6,963.87	52.4136	6,963.87	59.6106	6,963.87	56.8152	6,963.87	55.9928	6,963.87	58.7911
7,209.96	84.3148	7,209.96	84.4953	7,209.96	84.4885	7,209.96	84.2117	7,209.96	84.4194	7,209.96	83.3588	7,209.96	83.9183	7,209.96	81.797	7,209.96	82.846	7,209.96	79.7669	7,209.96	80.7504	7,209.96	77.3918	7,209.96	78.6055	7,209.96	75.2187	7,209.96	76.6691	7,209.96	72.8323	7,209.96	73.8187	7,209.96	70.0833	7,209.96	71.4147	7,209.96	68.0708	7,209.96	69.1134	7,209.96	66.127	7,209.96	66.98	7,209.96	63.1842	7,209.96	64.747	7,209.96	63.4816	7,209.96	63.5039	7,209.96	62.2532	7,209.96	62.0874	7,209.96	57.0208	7,209.96	61.8736	7,209.96	53.424	7,209.96	59.2414	7,209.96	54.7672	7,209.96	52.1923	7,209.96	58.0532
7,464.84	84.5267	7,464.84	84.3277	7,464.84	84.5132	7,464.84	84.0442	7,464.84	84.2882	7,464.84	83.3746	7,464.84	84.0134	7,464.84	81.5027	7,464.84	82.8705	7,464.84	79.2972	7,464.84	81.004	7,464.84	76.9141	7,464.84	78.7179	7,464.84	74.6524	7,464.84	76.527	7,464.84	71.5978	7,464.84	73.4318	7,464.84	69.1664	7,464.84	70.7759	7,464.84	67.0257	7,464.84	68.2378	7,464.84	65.3703	7,464.84	66.2759	7,464.84	62.2973	7,464.84	64.6601	7,464.84	62.4443	7,464.84	63.9794	7,464.84	60.8506	7,464.84	60.3048	7,464.84	58.4442	7,464.84	60.5106	7,464.84	51.3226	7,464.84	59.4523	7,464.84	53.6689	7,464.84	52.007	7,464.84	58.3023
7,728.52	84.4812	7,728.52	84.2847	7,728.52	84.6596	7,728.52	84.243	7,728.52	84.6109	7,728.52	83.6362	7,728.52	84.623	7,728.52	81.5863	7,728.52	83.3744	7,728.52	79.7042	7,728.52	81.4832	7,728.52	77.2203	7,728.52	79.2434	7,728.52	74.8707	7,728.52	76.7457	7,728.52	71.7507	7,728.52	73.4806	7,728.52	69.1387	7,728.52	71.0301	7,728.52	67.0879	7,728.52	68.976	7,728.52	64.4687	7,728.52	66.533	7,728.52	62.8667	7,728.52	64.3373	7,728.52	62.6774	7,728.52	63.6723	7,728.52	61.1691	7,728.52	62.7753	7,728.52	57.2417	7,728.52	59.7341	7,728.52	51.7028	7,728.52	57.9116	7,728.52	50.508	7,728.52	51.3465	7,728.52	57.8179
8,000.98	84.7498	8,000.98	84.7492	8,000.98	84.9548	8,000.98	84.9398	8,000.98	84.9166	8,000.98	84.3262	8,000.98	84.8554	8,000.98	82.6872	8,000.98	83.5069	8,000.98	80.9778	8,000.98	81.7707	8,000.98	78.0456	8,000.98	79.5582	8,000.98	75.1464	8,000.98	76.8132	8,000.98	72.4558	8,000.98	73.7422	8,000.98	69.8702	8,000.98	71.1932	8,000.98	67.3789	8,000.98	68.8614	8,000.98	65.2907	8,000.98	66.5945	8,000.98	62.8954	8,000.98	64.2498	8,000.98	62.7435	8,000.98	62.2908	8,000.98	60.5533	8,000.98	61.8537	8,000.98	57.5141	8,000.98	60.7131	8,000.98	54.3315	8,000.98	59.9683	8,000.98	48.6259	8,000.98	49.0702	8,000.98	57.6486
8,282.23	85.096	8,282.23	85.1346	8,282.23	85.0686	8,282.23	85.6589	8,282.23	85.2238	8,282.23	85.0691	8,282.23	85.2994	8,282.23	83.5365	8,282.23	84.18	8,282.23	81.4763	8,282.23	82.4918	8,282.23	78.4184	8,282.23	79.8068	8,282.23	75.474	8,282.23	76.9159	8,282.23	72.5843	8,282.23	74.0972	8,282.23	69.7993	8,282.23	71.3551	8,282.23	67.971	8,282.23	69.1447	8,282.23	66.1025	8,282.23	66.5061	8,282.23	63.6412	8,282.23	65.4294	8,282.23	63.1942	8,282.23	63.3098	8,282.23	60.7444	8,282.23	61.1597	8,282.23	57.0137	8,282.23	59.6722	8,282.23	55.8424	8,282.23	58.9351	8,282.23	46.8873	8,282.23	51.4723	8,282.23	59.2276
8,575.2	85.086	8,575.2	85.2582	8,575.2	84.8502	8,575.2	85.8233	8,575.2	85.2759	8,575.2	85.3549	8,575.2	85.497	8,575.2	83.7605	8,575.2	84.2676	8,575.2	81.5001	8,575.2	82.6212	8,575.2	78.4312	8,575.2	79.8937	8,575.2	76.0562	8,575.2	77.0721	8,575.2	73.3933	8,575.2	74.3641	8,575.2	70.6719	8,575.2	71.4395	8,575.2	69.0501	8,575.2	69.3615	8,575.2	66.0913	8,575.2	66.9113	8,575.2	64.5722	8,575.2	65.9072	8,575.2	63.6334	8,575.2	64.4186	8,575.2	61.2431	8,575.2	62.0149	8,575.2	55.9494	8,575.2	61.0153	8,575.2	53.5909	8,575.2	58.4486	8,575.2	48.4467	8,575.2	50.959	8,575.2	58.588
8,876.95	84.4264	8,876.95	84.6603	8,876.95	84.3502	8,876.95	85.3983	8,876.95	84.914	8,876.95	84.9679	8,876.95	85.0667	8,876.95	83.5648	8,876.95	84.0067	8,876.95	81.3598	8,876.95	82.4	8,876.95	78.2715	8,876.95	79.5027	8,876.95	76.0182	8,876.95	77.1867	8,876.95	73.9119	8,876.95	74.4935	8,876.95	70.6897	8,876.95	71.9529	8,876.95	68.5545	8,876.95	69.6024	8,876.95	65.6513	8,876.95	67.2599	8,876.95	64.1935	8,876.95	66.0358	8,876.95	63.3309	8,876.95	63.3084	8,876.95	61.0294	8,876.95	61.9841	8,876.95	56.5022	8,876.95	60.3115	8,876.95	54.6017	8,876.95	58.2255	8,876.95	47.3356	8,876.95	49.4026	8,876.95	59.0685
9,190.43	83.5611	9,190.43	83.7762	9,190.43	83.7318	9,190.43	84.6502	9,190.43	84.2863	9,190.43	84.3457	9,190.43	84.3962	9,190.43	83.1524	9,190.43	83.8286	9,190.43	80.7877	9,190.43	81.7996	9,190.43	77.9923	9,190.43	79.1729	9,190.43	75.2468	9,190.43	76.8517	9,190.43	72.8893	9,190.43	74.0008	9,190.43	69.5902	9,190.43	71.2697	9,190.43	67.3323	9,190.43	68.9685	9,190.43	65.4106	9,190.43	66.2994	9,190.43	63.6821	9,190.43	65.1358	9,190.43	61.8679	9,190.43	61.6532	9,190.43	59.0692	9,190.43	60.9765	9,190.43	55.7179	9,190.43	58.3714	9,190.43	54.4729	9,190.43	56.6668	9,190.43	44.5598	9,190.43	44.5856	9,190.43	58.5198
9,512.7	83.17	9,512.7	83.5026	9,512.7	83.0707	9,512.7	84.1418	9,512.7	83.8023	9,512.7	83.9426	9,512.7	83.9474	9,512.7	82.5599	9,512.7	83.3394	9,512.7	79.9942	9,512.7	81.0869	9,512.7	77.2803	9,512.7	78.593	9,512.7	74.761	9,512.7	76.1191	9,512.7	71.4695	9,512.7	73.1248	9,512.7	68.7563	9,512.7	69.8973	9,512.7	66.7754	9,512.7	67.9404	9,512.7	63.8898	9,512.7	65.4213	9,512.7	62.1455	9,512.7	64.1795	9,512.7	60.586	9,512.7	60.7373	9,512.7	57.3509	9,512.7	59.1729	9,512.7	55.0075	9,512.7	57.6139	9,512.7	50.6123	9,512.7	55.3492	9,512.7	46.0501	9,512.7	35.7045	9,512.7	58.8846
9,849.61	82.1699	9,849.61	82.625	9,849.61	82.0918	9,849.61	83.1282	9,849.61	82.7736	9,849.61	83.2047	9,849.61	82.8389	9,849.61	81.4011	9,849.61	82.1867	9,849.61	79.1068	9,849.61	79.9171	9,849.61	76.4752	9,849.61	77.6771	9,849.61	73.8182	9,849.61	74.9565	9,849.61	70.907	9,849.61	71.6697	9,849.61	67.6197	9,849.61	68.7312	9,849.61	65.5039	9,849.61	66.2775	9,849.61	63.2029	9,849.61	63.9273	9,849.61	60.7907	9,849.61	63.235	9,849.61	59.0501	9,849.61	58.7359	9,849.61	57.3968	9,849.61	58.5219	9,849.61	54.3602	9,849.61	55.311	9,849.61	51.1563	9,849.61	51.6721	9,849.61	42.8783	9,849.61	43.4608	9,849.61	58.2425
10,195.3	80.6648	10,195.3	81.0937	10,195.3	80.7735	10,195.3	81.7179	10,195.3	81.2399	10,195.3	81.7646	10,195.3	81.45	10,195.3	79.8449	10,195.3	80.6857	10,195.3	77.8428	10,195.3	78.3747	10,195.3	74.9603	10,195.3	75.9412	10,195.3	71.8203	10,195.3	72.76	10,195.3	69.1053	10,195.3	69.8946	10,195.3	66.4547	10,195.3	67.305	10,195.3	63.9309	10,195.3	64.8205	10,195.3	62.3496	10,195.3	62.3584	10,195.3	59.6522	10,195.3	61.3979	10,195.3	57.0872	10,195.3	57.1586	10,195.3	54.6314	10,195.3	56.021	10,195.3	52.4711	10,195.3	52.1544	10,195.3	48.0715	10,195.3	47.4538	10,195.3	42.1269	10,195.3	45.6368	10,195.3	55.8699
10,555.7	80.0715	10,555.7	80.7274	10,555.7	80.2068	10,555.7	81.1839	10,555.7	80.8594	10,555.7	81.2417	10,555.7	81.0943	10,555.7	79.3807	10,555.7	80.1397	10,555.7	77.5511	10,555.7	78.104	10,555.7	74.2257	10,555.7	75.8536	10,555.7	71.4984	10,555.7	72.5488	10,555.7	68.4287	10,555.7	70.1766	10,555.7	66.0076	10,555.7	67.0486	10,555.7	63.7694	10,555.7	64.2925	10,555.7	61.6323	10,555.7	61.7698	10,555.7	59.3479	10,555.7	60.6218	10,555.7	56.508	10,555.7	57.4552	10,555.7	52.8754	10,555.7	55.6466	10,555.7	50.4059	10,555.7	50.9929	10,555.7	46.3588	10,555.7	47.5949	10,555.7	41.4905	10,555.7	43.8525	10,555.7	53.3163
10,927.7	81.9168	10,927.7	82.4417	10,927.7	82.0525	10,927.7	82.7077	10,927.7	82.3477	10,927.7	82.9345	10,927.7	82.6927	10,927.7	80.9575	10,927.7	81.7654	10,927.7	79.1804	10,927.7	80.301	10,927.7	75.9859	10,927.7	77.6196	10,927.7	73.5202	10,927.7	74.5927	10,927.7	70.6804	10,927.7	72.3104	10,927.7	67.9067	10,927.7	69.4358	10,927.7	65.6699	10,927.7	66.3957	10,927.7	63.1857	10,927.7	63.9283	10,927.7	61.0283	10,927.7	62.7916	10,927.7	58.1618	10,927.7	58.5085	10,927.7	54.2177	10,927.7	56.6394	10,927.7	51.2098	10,927.7	52.0334	10,927.7	48.7022	10,927.7	49.2637	10,927.7	41.301	10,927.7	47.5755	10,927.7	54.9099
11,314.5	82.1299	11,314.5	82.5002	11,314.5	82.2006	11,314.5	82.9042	11,314.5	82.4875	11,314.5	82.8247	11,314.5	82.7797	11,314.5	81.1135	11,314.5	81.825	11,314.5	78.9764	11,314.5	80.3268	11,314.5	75.847	11,314.5	77.2363	11,314.5	73.1827	11,314.5	74.5288	11,314.5	70.4485	11,314.5	72.0556	11,314.5	67.5749	11,314.5	69.035	11,314.5	64.7885	11,314.5	65.962	11,314.5	63.0046	11,314.5	63.8046	11,314.5	60.7049	11,314.5	62.7843	11,314.5	57.4458	11,314.5	58.2966	11,314.5	54.3633	11,314.5	55.0873	11,314.5	51.2233	11,314.5	49.4007	11,314.5	49.9963	11,314.5	47.1056	11,314.5	45.6684	11,314.5	50.1176	11,314.5	57.6617
11,712.9	81.4525	11,712.9	82.021	11,712.9	81.7541	11,712.9	82.5105	11,712.9	82.4059	11,712.9	82.4407	11,712.9	82.7555	11,712.9	81.0426	11,712.9	81.6962	11,712.9	78.2211	11,712.9	79.7035	11,712.9	75.1801	11,712.9	76.9166	11,712.9	72.5975	11,712.9	74.0901	11,712.9	69.5014	11,712.9	71.0159	11,712.9	66.6545	11,712.9	68.1432	11,712.9	63.2912	11,712.9	64.9156	11,712.9	61.837	11,712.9	62.7701	11,712.9	60.2752	11,712.9	62.1448	11,712.9	57.0592	11,712.9	57.7078	11,712.9	52.741	11,712.9	53.137	11,712.9	49.6037	11,712.9	46.1694	11,712.9	47.6451	11,712.9	46.2856	11,712.9	49.1812	11,712.9	45.5627	11,712.9	56.8043
12,126	81.9824	12,126	82.267	12,126	82.3484	12,126	82.7827	12,126	82.9175	12,126	82.6456	12,126	83.2494	12,126	81.0455	12,126	82.1736	12,126	78.1462	12,126	80.0321	12,126	75.7195	12,126	77.6467	12,126	72.2274	12,126	74.1363	12,126	69.4119	12,126	70.9555	12,126	66.8883	12,126	68.9093	12,126	63.491	12,126	64.7496	12,126	61.7939	12,126	63.1247	12,126	60.1331	12,126	62.031	12,126	57.301	12,126	56.9317	12,126	50.1007	12,126	52.4537	12,126	49.1515	12,126	40.1835	12,126	45.1745	12,126	44.4215	12,126	50.25	12,126	48.7404	12,126	55.1815
12,553.7	82.7796	12,553.7	82.7583	12,553.7	82.942	12,553.7	83.2741	12,553.7	83.3319	12,553.7	82.8768	12,553.7	83.5298	12,553.7	81.4605	12,553.7	82.639	12,553.7	78.8411	12,553.7	80.3436	12,553.7	75.8851	12,553.7	78.2344	12,553.7	72.1035	12,553.7	74.3788	12,553.7	69.5654	12,553.7	71.3607	12,553.7	67.2254	12,553.7	69.6379	12,553.7	63.7643	12,553.7	65.5285	12,553.7	61.6791	12,553.7	63.6842	12,553.7	60.0136	12,553.7	61.9653	12,553.7	56.0642	12,553.7	57.0227	12,553.7	50.6608	12,553.7	52.6024	12,553.7	47.4305	12,553.7	45.5524	12,553.7	46.8568	12,553.7	41.9287	12,553.7	48.1719	12,553.7	49.7155	12,553.7	55.2702
12,996.1	82.6344	12,996.1	82.5874	12,996.1	82.7047	12,996.1	82.8536	12,996.1	83.2323	12,996.1	82.5867	12,996.1	83.2567	12,996.1	80.8028	12,996.1	82.3036	12,996.1	78.3253	12,996.1	79.8742	12,996.1	74.7463	12,996.1	77.4969	12,996.1	71.5418	12,996.1	73.8763	12,996.1	68.1069	12,996.1	70.7763	12,996.1	66.2287	12,996.1	68.6029	12,996.1	62.8172	12,996.1	64.338	12,996.1	61.1294	12,996.1	63.0386	12,996.1	58.8438	12,996.1	60.3651	12,996.1	54.8123	12,996.1	56.1708	12,996.1	48.8811	12,996.1	50.4662	12,996.1	47.902	12,996.1	46.5498	12,996.1	43.8434	12,996.1	43.3617	12,996.1	44.4153	12,996.1	48.8735	12,996.1	52.4865
13,453.1	82.8392	13,453.1	82.8	13,453.1	82.7928	13,453.1	83.1967	13,453.1	83.3211	13,453.1	82.9398	13,453.1	83.4188	13,453.1	80.7019	13,453.1	82.4972	13,453.1	78.2079	13,453.1	80.1162	13,453.1	74.7927	13,453.1	77.21	13,453.1	71.2399	13,453.1	73.726	13,453.1	67.6026	13,453.1	70.139	13,453.1	65.7812	13,453.1	67.844	13,453.1	62.2808	13,453.1	63.9647	13,453.1	60.4252	13,453.1	62.5847	13,453.1	58.1177	13,453.1	59.6688	13,453.1	53.7034	13,453.1	56.1221	13,453.1	46.9224	13,453.1	51.273	13,453.1	47.5035	13,453.1	45.2778	13,453.1	35.377	13,453.1	34.655	13,453.1	44.7701	13,453.1	48.7328	13,453.1	50.0123
13,927.7	83.4554	13,927.7	83.2819	13,927.7	83.2985	13,927.7	83.5862	13,927.7	83.6664	13,927.7	83.383	13,927.7	83.7329	13,927.7	81.1392	13,927.7	82.7813	13,927.7	78.6288	13,927.7	80.3332	13,927.7	75.5434	13,927.7	77.4698	13,927.7	71.6652	13,927.7	74.4648	13,927.7	68.0502	13,927.7	70.3374	13,927.7	66.2197	13,927.7	67.9319	13,927.7	62.7589	13,927.7	64.3448	13,927.7	60.7343	13,927.7	62.5904	13,927.7	58.3955	13,927.7	59.8644	13,927.7	54.4835	13,927.7	56.068	13,927.7	46.0861	13,927.7	48.8235	13,927.7	51.1871	13,927.7	48.9669	13,927.7	45.8387	13,927.7	42.7778	13,927.7	43.4332	13,927.7	49.0669	13,927.7	44.1569
14,419.9	83.4457	14,419.9	83.3829	14,419.9	83.1804	14,419.9	83.5478	14,419.9	83.1995	14,419.9	83.3388	14,419.9	83.0133	14,419.9	80.9605	14,419.9	81.8887	14,419.9	78.4692	14,419.9	79.3794	14,419.9	75.3998	14,419.9	76.9122	14,419.9	71.6719	14,419.9	73.0048	14,419.9	68.0298	14,419.9	69.0652	14,419.9	66.2448	14,419.9	66.9176	14,419.9	63.1101	14,419.9	63.2602	14,419.9	60.6764	14,419.9	61.7636	14,419.9	57.2642	14,419.9	58.2554	14,419.9	54.2337	14,419.9	54.9634	14,419.9	46.4273	14,419.9	44.3118	14,419.9	50.2705	14,419.9	50.501	14,419.9	50.1541	14,419.9	47.1578	14,419.9	42.2226	14,419.9	49.9882	14,419.9	41.0682
14,929.7	83.4498	14,929.7	83.4464	14,929.7	83.2389	14,929.7	83.5744	14,929.7	83.2131	14,929.7	83.0934	14,929.7	82.7506	14,929.7	80.8481	14,929.7	81.3481	14,929.7	78.0349	14,929.7	78.6248	14,929.7	74.6738	14,929.7	76.101	14,929.7	71.1532	14,929.7	71.9557	14,929.7	67.5101	14,929.7	67.9926	14,929.7	65.2269	14,929.7	66.251	14,929.7	61.8177	14,929.7	62.1575	14,929.7	59.6776	14,929.7	61.3315	14,929.7	57.3446	14,929.7	56.4059	14,929.7	54.1132	14,929.7	52.1041	14,929.7	44.6697	14,929.7	44.3928	14,929.7	49.8348	14,929.7	54.5401	14,929.7	48.5989	14,929.7	51.2588	14,929.7	39.5931	14,929.7	50.4424	14,929.7	48.7228
15,454.1	83.2207	15,454.1	82.7454	15,454.1	83.4796	15,454.1	82.2863	15,454.1	83.7779	15,454.1	81.4999	15,454.1	83.6282	15,454.1	78.7901	15,454.1	82.2994	15,454.1	75.7653	15,454.1	79.3003	15,454.1	72.1265	15,454.1	76.8772	15,454.1	69.0443	15,454.1	73.1982	15,454.1	64.903	15,454.1	68.898	15,454.1	62.5683	15,454.1	67.1933	15,454.1	59.3018	15,454.1	63.4996	15,454.1	56.7577	15,454.1	62.2343	15,454.1	54.6699	15,454.1	56.7101	15,454.1	50.6133	15,454.1	52.126	15,454.1	42.8724	15,454.1	43.8499	15,454.1	50.3631	15,454.1	55.4352	15,454.1	51.4608	15,454.1	52.6459	15,454.1	44.4039	15,454.1	51.4531	15,454.1	52.2896
15,999	82.6241	15,999	82.3564	15,999	82.5896	15,999	82.1329	15,999	82.5537	15,999	81.2009	15,999	82.2914	15,999	78.1024	15,999	80.8303	15,999	75.3506	15,999	78.0024	15,999	72.1752	15,999	75.2923	15,999	68.4397	15,999	72.0366	15,999	63.5845	15,999	67.3705	15,999	62.7237	15,999	65.1413	15,999	59.0015	15,999	62.3262	15,999	57.7718	15,999	60.6628	15,999	54.2456	15,999	52.6039	15,999	50.0129	15,999	49.5394	15,999	42.1589	15,999	46.1812	15,999	50.3778	15,999	53.0269	15,999	52.8942	15,999	50.6448	15,999	41.2968	15,999	48.2566	15,999	51.0812
16,564.5	82.3965	16,564.5	82.2364	16,564.5	82.1477	16,564.5	82.3089	16,564.5	81.8275	16,564.5	81.3523	16,564.5	81.108	16,564.5	78.6019	16,564.5	79.4011	16,564.5	75.2803	16,564.5	76.3611	16,564.5	72.4774	16,564.5	73.283	16,564.5	68.505	16,564.5	69.6748	16,564.5	64.0971	16,564.5	65.1997	16,564.5	62.8632	16,564.5	62.7634	16,564.5	58.7365	16,564.5	60.4408	16,564.5	57.624	16,564.5	58.099	16,564.5	55.7337	16,564.5	45.7363	16,564.5	51.0684	16,564.5	45.8105	16,564.5	43.238	16,564.5	47.061	16,564.5	50.497	16,564.5	53.5936	16,564.5	52.9778	16,564.5	49.4705	16,564.5	46.7674	16,564.5	53.6706	16,564.5	51.8096
17,147.5	82.7834	17,147.5	82.4355	17,147.5	82.4547	17,147.5	82.5941	17,147.5	82.2128	17,147.5	81.5892	17,147.5	81.2589	17,147.5	78.6108	17,147.5	79.0399	17,147.5	75.2025	17,147.5	75.684	17,147.5	72.2522	17,147.5	72.9526	17,147.5	69.0628	17,147.5	69.3707	17,147.5	63.2034	17,147.5	64.5176	17,147.5	62.3565	17,147.5	61.341	17,147.5	58.7767	17,147.5	61.127	17,147.5	57.4346	17,147.5	57.7235	17,147.5	55.5851	17,147.5	24.313	17,147.5	52.1422	17,147.5	47.0078	17,147.5	39.3075	17,147.5	51.0435	17,147.5	52.6354	17,147.5	55.6983	17,147.5	51.4102	17,147.5	52.3553	17,147.5	43.9883	17,147.5	57.4206	17,147.5	55.0696
17,753.9	85.9679	17,753.9	85.4407	17,753.9	85.9949	17,753.9	84.7625	17,753.9	86.126	17,753.9	83.278	17,753.9	85.3659	17,753.9	79.2873	17,753.9	83.326	17,753.9	76.6019	17,753.9	80.0081	17,753.9	71.7585	17,753.9	77.7574	17,753.9	69.2194	17,753.9	74.1093	17,753.9	60.1249	17,753.9	69.8431	17,753.9	61.9628	17,753.9	64.4991	17,753.9	59.0371	17,753.9	66.0191	17,753.9	58.9684	17,753.9	62.135	17,753.9	53.7974	17,753.9	43.4908	17,753.9	52.5299	17,753.9	53.8571	17,753.9	46.9462	17,753.9	55.7082	17,753.9	49.6474	17,753.9	58.2725	17,753.9	55.6646	17,753.9	55.1268	17,753.9	54.298	17,753.9	60.3872	17,753.9	59.1175
18,377.9	88.1691	18,377.9	88.5775	18,377.9	88.3158	18,377.9	87.6027	18,377.9	88.2514	18,377.9	85.5696	18,377.9	87.4546	18,377.9	81.9596	18,377.9	85.1659	18,377.9	78.8814	18,377.9	81.8634	18,377.9	75.9188	18,377.9	79.143	18,377.9	71.9235	18,377.9	75.6338	18,377.9	68.0063	18,377.9	71.7772	18,377.9	65.9031	18,377.9	64.4929	18,377.9	61.7556	18,377.9	68.4842	18,377.9	65.6251	18,377.9	62.9982	18,377.9	58.1081	18,377.9	55.4652	18,377.9	57.2229	18,377.9	59.1675	18,377.9	51.3995	18,377.9	57.7306	18,377.9	52.3216	18,377.9	55.6829	18,377.9	59.8987	18,377.9	54.0291	18,377.9	58.11	18,377.9	60.235	18,377.9	61.361
19,028.3	90.7372	19,028.3	91.8053	19,028.3	90.9355	19,028.3	91.5597	19,028.3	90.7667	19,028.3	89.8079	19,028.3	89.2776	19,028.3	86.3508	19,028.3	86.0515	19,028.3	82.9848	19,028.3	82.249	19,028.3	80.6514	19,028.3	80.3179	19,028.3	77.2381	19,028.3	77.1084	19,028.3	73.8312	19,028.3	75.0609	19,028.3	68.8078	19,028.3	60.1456	19,028.3	68.3411	19,028.3	70.2616	19,028.3	69.5997	19,028.3	60.6106	19,028.3	61.8325	19,028.3	64.6308	19,028.3	60.5021	19,028.3	63.9597	19,028.3	52.3527	19,028.3	62.8686	19,028.3	46.1316	19,028.3	62.868	19,028.3	60.5268	19,028.3	61.2181	19,028.3	52.9775	19,028.3	67.9844	19,028.3	68.7563
19,699.2	92.1354	19,699.2	92.5942	19,699.2	92.6345	19,699.2	91.8857	19,699.2	93.8147	19,699.2	89.5695	19,699.2	93.1472	19,699.2	85.4465	19,699.2	90.4921	19,699.2	81.6414	19,699.2	87.0659	19,699.2	79.2005	19,699.2	85.414	19,699.2	76.005	19,699.2	81.9208	19,699.2	73.3595	19,699.2	80.1748	19,699.2	65.5786	19,699.2	66.4763	19,699.2	67.0469	19,699.2	74.645	19,699.2	69.1905	19,699.2	61.6962	19,699.2	61.6741	19,699.2	69.0481	19,699.2	60.8586	19,699.2	68.4931	19,699.2	57.3371	19,699.2	66.5826	19,699.2	58.9293	19,699.2	65.2278	19,699.2	59.7241	19,699.2	64.2726	19,699.2	62.1439	19,699.2	71.233	19,699.2	72.0052
19,998	91.9196	19,998	92.345	19,998	92.4762	19,998	91.0832	19,998	93.9051	19,998	88.6022	19,998	93.5378	19,998	84.0266	19,998	91.1269	19,998	79.7402	19,998	87.5029	19,998	78.3791	19,998	85.6305	19,998	74.3742	19,998	82.1615	19,998	72.8171	19,998	80.4277	19,998	62.4538	19,998	68.0585	19,998	65.28	19,998	74.9044	19,998	66.8854	19,998	61.4643	19,998	57.3052	19,998	68.5157	19,998	66.2401	19,998	70.1094	19,998	64.4245	19,998	69.4585	19,998	60.236	19,998	60.2291	19,998	63.6572	19,998	66.4245	19,998	62.4852	19,998	70.3647	19,998	71.7016
