"SPL Horizontal"																																																																							
"On-Axis"		"10°"		"-10°"		"20°"		"-20°"		"30°"		"-30°"		"40°"		"-40°"		"50°"		"-50°"		"60°"		"-60°"		"70°"		"-70°"		"80°"		"-80°"		"90°"		"-90°"		"100°"		"-100°"		"110°"		"-110°"		"120°"		"-120°"		"130°"		"-130°"		"140°"		"-140°"		"150°"		"-150°"		"160°"		"-160°"		"170°"		"-170°"		"180°"	
"Frequency [Hz]"	"Sound Pessure Level [dB]  / [2.83V 1m] "	"Frequency [Hz]"	"Sound Pessure Level [dB]  / [2.83V 1m] "	"Frequency [Hz]"	"Sound Pessure Level [dB]  / [2.83V 1m] "	"Frequency [Hz]"	"Sound Pessure Level [dB]  / [2.83V 1m] "	"Frequency [Hz]"	"Sound Pessure Level [dB]  / [2.83V 1m] "	"Frequency [Hz]"	"Sound Pessure Level [dB]  / [2.83V 1m] "	"Frequency [Hz]"	"Sound Pessure Level [dB]  / [2.83V 1m] "	"Frequency [Hz]"	"Sound Pessure Level [dB]  / [2.83V 1m] "	"Frequency [Hz]"	"Sound Pessure Level [dB]  / [2.83V 1m] "	"Frequency [Hz]"	"Sound Pessure Level [dB]  / [2.83V 1m] "	"Frequency [Hz]"	"Sound Pessure Level [dB]  / [2.83V 1m] "	"Frequency [Hz]"	"Sound Pessure Level [dB]  / [2.83V 1m] "	"Frequency [Hz]"	"Sound Pessure Level [dB]  / [2.83V 1m] "	"Frequency [Hz]"	"Sound Pessure Level [dB]  / [2.83V 1m] "	"Frequency [Hz]"	"Sound Pessure Level [dB]  / [2.83V 1m] "	"Frequency [Hz]"	"Sound Pessure Level [dB]  / [2.83V 1m] "	"Frequency [Hz]"	"Sound Pessure Level [dB]  / [2.83V 1m] "	"Frequency [Hz]"	"Sound Pessure Level [dB]  / [2.83V 1m] "	"Frequency [Hz]"	"Sound Pessure Level [dB]  / [2.83V 1m] "	"Frequency [Hz]"	"Sound Pessure Level [dB]  / [2.83V 1m] "	"Frequency [Hz]"	"Sound Pessure Level [dB]  / [2.83V 1m] "	"Frequency [Hz]"	"Sound Pessure Level [dB]  / [2.83V 1m] "	"Frequency [Hz]"	"Sound Pessure Level [dB]  / [2.83V 1m] "	"Frequency [Hz]"	"Sound Pessure Level [dB]  / [2.83V 1m] "	"Frequency [Hz]"	"Sound Pessure Level [dB]  / [2.83V 1m] "	"Frequency [Hz]"	"Sound Pessure Level [dB]  / [2.83V 1m] "	"Frequency [Hz]"	"Sound Pessure Level [dB]  / [2.83V 1m] "	"Frequency [Hz]"	"Sound Pessure Level [dB]  / [2.83V 1m] "	"Frequency [Hz]"	"Sound Pessure Level [dB]  / [2.83V 1m] "	"Frequency [Hz]"	"Sound Pessure Level [dB]  / [2.83V 1m] "	"Frequency [Hz]"	"Sound Pessure Level [dB]  / [2.83V 1m] "	"Frequency [Hz]"	"Sound Pessure Level [dB]  / [2.83V 1m] "	"Frequency [Hz]"	"Sound Pessure Level [dB]  / [2.83V 1m] "	"Frequency [Hz]"	"Sound Pessure Level [dB]  / [2.83V 1m] "	"Frequency [Hz]"	"Sound Pessure Level [dB]  / [2.83V 1m] "	"Frequency [Hz]"	"Sound Pessure Level [dB]  / [2.83V 1m] "
20.5078	50.7704	20.5078	50.947	20.5078	50.6185	20.5078	51.1656	20.5078	50.4977	20.5078	51.4605	20.5078	50.4432	20.5078	51.8724	20.5078	50.5187	20.5078	52.4343	20.5078	50.8038	20.5078	53.1572	20.5078	51.3618	20.5078	54.0238	20.5078	52.202	20.5078	54.9941	20.5078	53.2701	20.5078	56.0175	20.5078	54.4747	20.5078	57.0448	20.5078	55.723	20.5078	58.0336	20.5078	56.9404	20.5078	58.9494	20.5078	58.0735	20.5078	59.7644	20.5078	59.0851	20.5078	60.4558	20.5078	59.9492	20.5078	61.0046	20.5078	60.6478	20.5078	61.3949	20.5078	61.1686	20.5078	61.6139	20.5078	61.5043	20.5078	61.6522
21.9727	53.1893	21.9727	53.255	21.9727	53.1148	21.9727	53.3186	21.9727	53.0401	21.9727	53.4016	21.9727	52.9902	21.9727	53.5381	21.9727	53.0059	21.9727	53.7696	21.9727	53.1391	21.9727	54.1351	21.9727	53.44	21.9727	54.6567	21.9727	53.9383	21.9727	55.3295	21.9727	54.6277	21.9727	56.1209	21.9727	55.4668	21.9727	56.9812	21.9727	56.3942	21.9727	57.8563	21.9727	57.3459	21.9727	58.6973	21.9727	58.2661	21.9727	59.4638	21.9727	59.1109	21.9727	60.1241	21.9727	59.847	21.9727	60.6541	21.9727	60.4498	21.9727	61.0359	21.9727	60.9016	21.9727	61.2569	21.9727	61.1903	21.9727	61.3094
23.4375	53.9429	23.4375	53.9874	23.4375	53.8945	23.4375	54.0405	23.4375	53.849	23.4375	54.1325	23.4375	53.8336	23.4375	54.3083	23.4375	53.8945	23.4375	54.6172	23.4375	54.0899	23.4375	55.0969	23.4375	54.4736	23.4375	55.7566	23.4375	55.0713	23.4375	56.5709	23.4375	55.8662	23.4375	57.4888	23.4375	56.8045	23.4375	58.4509	23.4375	57.8165	23.4375	59.4016	23.4375	58.8357	23.4375	60.2958	23.4375	59.8082	23.4375	61.0983	23.4375	60.693	23.4375	61.7823	23.4375	61.4601	23.4375	62.3269	23.4375	62.087	23.4375	62.7162	23.4375	62.5573	23.4375	62.9388	23.4375	62.8597	23.4375	62.9875
24.9023	55.3509	24.9023	55.3961	24.9023	55.3207	24.9023	55.4682	24.9023	55.3111	24.9023	55.5944	24.9023	55.3446	24.9023	55.8124	24.9023	55.4587	24.9023	56.1609	24.9023	55.699	24.9023	56.666	24.9023	56.1044	24.9023	57.329	24.9023	56.6919	24.9023	58.1242	24.9023	57.4458	24.9023	59.0063	24.9023	58.3231	24.9023	59.9238	24.9023	59.2673	24.9023	60.8283	24.9023	60.2221	24.9023	61.6787	24.9023	61.1394	24.9023	62.4422	24.9023	61.9808	24.9023	63.0924	24.9023	62.7163	24.9023	63.6087	24.9023	63.3228	24.9023	63.9751	24.9023	63.7827	24.9023	64.18	24.9023	64.0833	24.9023	64.2167
26.3672	58.1856	26.3672	58.2135	26.3672	58.1677	26.3672	58.2607	26.3672	58.1624	26.3672	58.3469	26.3672	58.1841	26.3672	58.5	26.3672	58.2578	26.3672	58.7504	26.3672	58.416	26.3672	59.1232	26.3672	58.6916	26.3672	59.6284	26.3672	59.1077	26.3672	60.2559	26.3672	59.6677	26.3672	60.977	26.3672	60.352	26.3672	61.7516	26.3672	61.1229	26.3672	62.5361	26.3672	61.9338	26.3672	63.2899	26.3672	62.7383	26.3672	63.9773	26.3672	63.495	26.3672	64.5691	26.3672	64.1696	26.3672	65.0416	26.3672	64.7344	26.3672	65.3767	26.3672	65.1684	26.3672	65.5615	26.3672	65.4564	26.3672	65.5887
27.832	60.1513	27.832	60.1902	27.832	60.1241	27.832	60.247	27.832	60.1121	27.832	60.3368	27.832	60.1286	27.832	60.4816	27.832	60.1956	27.832	60.7067	27.832	60.3413	27.832	61.0341	27.832	60.594	27.832	61.4755	27.832	60.9736	27.832	62.0273	27.832	61.484	27.832	62.6694	27.832	62.1095	27.832	63.3692	27.832	62.8179	27.832	64.0886	27.832	63.5678	27.832	64.7889	27.832	64.3163	27.832	65.435	27.832	65.024	27.832	65.9966	27.832	65.6572	27.832	66.4489	27.832	66.1884	27.832	66.7727	27.832	66.5963	27.832	66.9543	27.832	66.8653	27.832	66.9859
29.2969	62.0513	29.2969	62.0783	29.2969	62.0362	29.2969	62.1226	29.2969	62.0361	29.2969	62.197	29.2969	62.0621	29.2969	62.3204	29.2969	62.1324	29.2969	62.5151	29.2969	62.2704	29.2969	62.8013	29.2969	62.4996	29.2969	63.1915	29.2969	62.8378	29.2969	63.6852	29.2969	63.2903	29.2969	64.2669	29.2969	63.8468	29.2969	64.909	29.2969	64.482	29.2969	65.5768	29.2969	65.1614	29.2969	66.2335	29.2969	65.8465	29.2969	66.8444	29.2969	66.5003	29.2969	67.3791	29.2969	67.0898	29.2969	67.8123	29.2969	67.5872	29.2969	68.1242	29.2969	67.9703	29.2969	68.301	29.2969	68.2228	29.2969	68.3344
30.7617	64.0567	30.7617	64.0728	30.7617	64.05	30.7617	64.1026	30.7617	64.0547	30.7617	64.1569	30.7617	64.0789	30.7617	64.2511	30.7617	64.1369	30.7617	64.4038	30.7617	64.247	30.7617	64.6332	30.7617	64.429	30.7617	64.952	30.7617	64.6993	30.7617	65.3633	30.7617	65.0665	30.7617	65.8579	30.7617	65.527	30.7617	66.415	30.7617	66.0644	30.7617	67.0051	30.7617	66.6516	30.7617	67.5949	30.7617	67.2557	30.7617	68.1512	30.7617	67.8421	30.7617	68.6432	30.7617	68.3784	30.7617	69.0449	30.7617	68.8359	30.7617	69.3357	30.7617	69.1913	30.7617	69.5007	30.7617	69.427	30.7617	69.5318
32.2266	65.5883	32.2266	65.6049	32.2266	65.5837	32.2266	65.6374	32.2266	65.5931	32.2266	65.6946	32.2266	65.6237	32.2266	65.7896	32.2266	65.6876	32.2266	65.9384	32.2266	65.8003	32.2266	66.1562	32.2266	65.9786	32.2266	66.4544	32.2266	66.2363	32.2266	66.8362	32.2266	66.5807	32.2266	67.2944	32.2266	67.0091	32.2266	67.8113	32.2266	67.5076	32.2266	68.3613	32.2266	68.0531	32.2266	68.914	32.2266	68.616	32.2266	69.4381	32.2266	69.1648	32.2266	69.9042	32.2266	69.6685	32.2266	70.2866	32.2266	70.0997	32.2266	70.5648	32.2266	70.4352	32.2266	70.7238	32.2266	70.6575	32.2266	70.7553
33.6914	67.321	33.6914	67.3359	33.6914	67.3188	33.6914	67.3664	33.6914	67.3308	33.6914	67.4198	33.6914	67.363	33.6914	67.507	33.6914	67.4254	33.6914	67.6411	33.6914	67.5307	33.6914	67.8354	33.6914	67.6925	33.6914	68.1001	33.6914	67.9229	33.6914	68.4389	33.6914	68.2285	33.6914	68.8472	33.6914	68.6083	33.6914	69.3112	33.6914	69.0522	33.6914	69.809	33.6914	69.5413	33.6914	70.3137	33.6914	70.0505	33.6914	70.7963	33.6914	70.5512	33.6914	71.2286	33.6914	71.0146	33.6914	71.5854	33.6914	71.414	33.6914	71.8461	33.6914	71.7265	33.6914	71.9957	33.6914	71.9343	33.6914	72.0257
35.1562	68.9307	35.1562	68.9427	35.1562	68.9327	35.1562	68.9714	35.1562	68.9498	35.1562	69.0228	35.1562	68.9866	35.1562	69.106	35.1562	69.0511	35.1562	69.2318	35.1562	69.1535	35.1562	69.4109	35.1562	69.3049	35.1562	69.6518	35.1562	69.5155	35.1562	69.9583	35.1562	69.7914	35.1562	70.3269	35.1562	70.1327	35.1562	70.7466	35.1562	70.5317	35.1562	71.199	35.1562	70.9731	35.1562	71.6604	35.1562	71.4353	35.1562	72.1046	35.1562	71.8927	35.1562	72.505	35.1562	72.3185	35.1562	72.8375	35.1562	72.6872	35.1562	73.0819	35.1562	72.9765	35.1562	73.2232	35.1562	73.1689	35.1562	73.2528
36.6211	70.3899	36.6211	70.4024	36.6211	70.391	36.6211	70.4308	36.6211	70.4065	36.6211	70.4799	36.6211	70.4405	36.6211	70.5575	36.6211	70.4994	36.6211	70.6725	36.6211	70.5918	36.6211	70.8344	36.6211	70.7273	36.6211	71.0507	36.6211	70.9145	36.6211	71.3253	36.6211	71.1593	36.6211	71.6562	36.6211	71.4626	36.6211	72.0344	36.6211	71.8189	36.6211	72.4446	36.6211	72.216	36.6211	72.8656	36.6211	72.6353	36.6211	73.2731	36.6211	73.0542	36.6211	73.6422	36.6211	73.4477	36.6211	73.9494	36.6211	73.7914	36.6211	74.175	36.6211	74.0636	36.6211	74.3041	36.6211	74.2466	36.6211	74.3285
38.0859	71.7313	38.0859	71.7476	38.0859	71.7309	38.0859	71.7814	38.0859	71.747	38.0859	71.837	38.0859	71.783	38.0859	71.9203	38.0859	71.8441	38.0859	72.0385	38.0859	71.9373	38.0859	72.1989	38.0859	72.0702	38.0859	72.4076	38.0859	72.2498	38.0859	72.6672	38.0859	72.4808	38.0859	72.9759	38.0859	72.7639	38.0859	73.326	38.0859	73.0946	38.0859	73.7039	38.0859	73.4621	38.0859	74.0915	38.0859	73.8504	38.0859	74.4668	38.0859	74.2392	38.0859	74.807	38.0859	74.6059	38.0859	75.0904	38.0859	74.9276	38.0859	75.2981	38.0859	75.1836	38.0859	75.4161	38.0859	75.357	38.0859	75.4362
39.5508	73.0005	39.5508	73.0149	39.5508	73.0031	39.5508	73.0476	39.5508	73.0231	39.5508	73.1019	39.5508	73.063	39.5508	73.1826	39.5508	73.1271	39.5508	73.2954	39.5508	73.2207	39.5508	73.446	39.5508	73.3499	39.5508	73.6393	39.5508	73.52	39.5508	73.8775	39.5508	73.7349	39.5508	74.1591	39.5508	73.995	39.5508	74.4779	39.5508	74.2967	39.5508	74.8225	39.5508	74.6311	39.5508	75.177	39.5508	74.9843	39.5508	75.522	39.5508	75.3386	39.5508	75.8367	39.5508	75.6734	39.5508	76.1005	39.5508	75.9676	39.5508	76.2955	39.5508	76.2016	39.5508	76.408	39.5508	76.3594	39.5508	76.4298
41.0156	74.2172	41.0156	74.2326	41.0156	74.2198	41.0156	74.267	41.0156	74.2409	41.0156	74.3229	41.0156	74.2825	41.0156	74.4036	41.0156	74.3477	41.0156	74.5136	41.0156	74.4407	41.0156	74.6571	41.0156	74.566	41.0156	74.8377	41.0156	74.7277	41.0156	75.0571	41.0156	74.9285	41.0156	75.3142	41.0156	75.1688	41.0156	75.6038	41.0156	75.4452	41.0156	75.9165	41.0156	75.7503	41.0156	76.2387	41.0156	76.0722	41.0156	76.5534	41.0156	76.3951	41.0156	76.8417	41.0156	76.7007	41.0156	77.0846	41.0156	76.9697	41.0156	77.2651	41.0156	77.1838	41.0156	77.37	41.0156	77.3279	41.0156	77.3915
42.4805	74.9413	42.4805	74.9485	42.4805	74.9491	42.4805	74.9717	42.4805	74.9721	42.4805	75.0133	42.4805	75.0118	42.4805	75.0764	42.4805	75.0708	42.4805	75.165	42.4805	75.1527	42.4805	75.2833	42.4805	75.2615	42.4805	75.4349	42.4805	75.4011	42.4805	75.6219	42.4805	75.5744	42.4805	75.844	42.4805	75.7822	42.4805	76.0974	42.4805	76.0225	42.4805	76.3745	42.4805	76.2894	42.4805	76.6636	42.4805	76.5726	42.4805	76.9492	42.4805	76.8584	42.4805	77.214	42.4805	77.1301	42.4805	77.4399	42.4805	77.3696	42.4805	77.6105	42.4805	77.5598	42.4805	77.7127	42.4805	77.6861	42.4805	77.7385
43.9453	75.3212	43.9453	75.3359	43.9453	75.3235	43.9453	75.3682	43.9453	75.3432	43.9453	75.4198	43.9453	75.3813	43.9453	75.4928	43.9453	75.4399	43.9453	75.59	43.9453	75.5216	43.9453	75.7144	43.9453	75.6293	43.9453	75.8681	43.9453	75.7657	43.9453	76.0523	43.9453	75.9327	43.9453	76.2662	43.9453	76.1305	43.9453	76.506	43.9453	76.357	43.9453	76.7647	43.9453	76.6071	43.9453	77.0318	43.9453	76.872	43.9453	77.2936	43.9453	77.1398	43.9453	77.5344	43.9453	77.3956	43.9453	77.7377	43.9453	77.6233	43.9453	77.8886	43.9453	77.8069	43.9453	77.975	43.9453	77.9325	43.9453	77.9901
45.4102	75.8483	45.4102	75.8648	45.4102	75.8483	45.4102	75.8981	45.4102	75.865	45.4102	75.9493	45.4102	75.8996	45.4102	76.0201	45.4102	75.9536	45.4102	76.1125	45.4102	76.0292	45.4102	76.2286	45.4102	76.1286	45.4102	76.3704	45.4102	76.2542	45.4102	76.5387	45.4102	76.4073	45.4102	76.7329	45.4102	76.5882	45.4102	76.9499	45.4102	76.7951	45.4102	77.184	45.4102	77.0234	45.4102	77.4259	45.4102	77.2657	45.4102	77.6636	45.4102	77.5112	45.4102	77.8828	45.4102	77.7464	45.4102	78.0684	45.4102	77.9566	45.4102	78.2061	45.4102	78.1266	45.4102	78.2848	45.4102	78.2435	45.4102	78.2977
46.875	76.2087	46.875	76.2265	46.875	76.2083	46.875	76.2617	46.875	76.2254	46.875	76.3152	46.875	76.2608	46.875	76.3882	46.875	76.3158	46.875	76.4819	46.875	76.3919	46.875	76.5979	46.875	76.4909	46.875	76.7373	46.875	76.6142	46.875	76.9005	46.875	76.7629	46.875	77.0865	46.875	76.9368	46.875	77.2924	46.875	77.1339	46.875	77.5127	46.875	77.3503	46.875	77.7393	46.875	77.5788	46.875	77.9613	46.875	77.8098	46.875	78.1657	46.875	78.031	46.875	78.3384	46.875	78.2286	46.875	78.4665	46.875	78.3887	46.875	78.5394	46.875	78.499	46.875	78.5506
48.3398	76.5314	48.3398	76.5494	48.3398	76.5314	48.3398	76.5855	48.3398	76.5496	48.3398	76.6399	48.3398	76.5866	48.3398	76.7134	48.3398	76.6432	48.3398	76.8066	48.3398	76.7201	48.3398	76.9202	48.3398	76.8185	48.3398	77.0547	48.3398	76.9392	48.3398	77.21	48.3398	77.0824	48.3398	77.3848	48.3398	77.2477	48.3398	77.5766	48.3398	77.4329	48.3398	77.7806	48.3398	77.6344	48.3398	77.9895	48.3398	77.8459	48.3398	78.1938	48.3398	78.0589	48.3398	78.3819	48.3398	78.2623	48.3398	78.5412	48.3398	78.4438	48.3398	78.6596	48.3398	78.5907	48.3398	78.7274	48.3398	78.6916	48.3398	78.7385
51.2695	77.0291	51.2695	77.0452	51.2695	77.0316	51.2695	77.0797	51.2695	77.0529	51.2695	77.1325	51.2695	77.0928	51.2695	77.2032	51.2695	77.1514	51.2695	77.2918	51.2695	77.2287	51.2695	77.3977	51.2695	77.3243	51.2695	77.5206	51.2695	77.4381	51.2695	77.6595	51.2695	77.5694	51.2695	77.8131	51.2695	77.717	51.2695	77.979	51.2695	77.879	51.2695	78.1534	51.2695	78.0521	51.2695	78.331	51.2695	78.2316	51.2695	78.5043	51.2695	78.4106	51.2695	78.664	51.2695	78.5807	51.2695	78.7999	51.2695	78.7317	51.2695	78.9018	51.2695	78.8534	51.2695	78.9614	51.2695	78.9362	51.2695	78.9732
52.7344	77.2392	52.7344	77.2543	52.7344	77.2432	52.7344	77.2883	52.7344	77.2662	52.7344	77.3407	52.7344	77.3081	52.7344	77.4112	52.7344	77.3685	52.7344	77.4991	52.7344	77.4469	52.7344	77.6035	52.7344	77.5425	52.7344	77.7235	52.7344	77.6546	52.7344	77.8579	52.7344	77.782	52.7344	78.0051	52.7344	77.9234	52.7344	78.1625	52.7344	78.0766	52.7344	78.3267	52.7344	78.2386	52.7344	78.4927	52.7344	78.4052	52.7344	78.6537	52.7344	78.5704	52.7344	78.8015	52.7344	78.7266	52.7344	78.9269	52.7344	78.8652	52.7344	79.0208	52.7344	78.9766	52.7344	79.0755	52.7344	79.0525	52.7344	79.0864
54.1992	77.4731	54.1992	77.4897	54.1992	77.4757	54.1992	77.525	54.1992	77.4972	54.1992	77.5785	54.1992	77.5375	54.1992	77.6493	54.1992	77.5957	54.1992	77.7362	54.1992	77.6711	54.1992	77.838	54.1992	77.7624	54.1992	77.9531	54.1992	77.8686	54.1992	78.0801	54.1992	77.988	54.1992	78.2168	54.1992	78.1191	54.1992	78.361	54.1992	78.2598	54.1992	78.5094	54.1992	78.4074	54.1992	78.6577	54.1992	78.5581	54.1992	78.8004	54.1992	78.707	54.1992	78.9304	54.1992	78.8477	54.1992	79.04	54.1992	78.9726	54.1992	79.1213	54.1992	79.0735	54.1992	79.1678	54.1992	79.1429	54.1992	79.1753
55.6641	77.6265	55.6641	77.6452	55.6641	77.6263	55.6641	77.6822	55.6641	77.6447	55.6641	77.7364	55.6641	77.6813	55.6641	77.8068	55.6641	77.7353	55.6641	77.8919	55.6641	77.8056	55.6641	77.9899	55.6641	77.8908	55.6641	78.0992	55.6641	77.9896	55.6641	78.2179	55.6641	78.1003	55.6641	78.3439	55.6641	78.2211	55.6641	78.4749	55.6641	78.35	55.6641	78.6082	55.6641	78.4845	55.6641	78.7401	55.6641	78.6215	55.6641	78.8659	55.6641	78.7565	55.6641	78.9797	55.6641	78.8842	55.6641	79.0749	55.6641	78.9979	55.6641	79.1446	55.6641	79.0905	55.6641	79.1832	55.6641	79.1552	55.6641	79.1869
58.5938	78.0856	58.5938	78.1002	58.5938	78.088	58.5938	78.1311	58.5938	78.1072	58.5938	78.1775	58.5938	78.1428	58.5938	78.238	58.5938	78.1936	58.5938	78.3107	58.5938	78.2583	58.5938	78.3939	58.5938	78.3353	58.5938	78.4856	58.5938	78.4225	58.5938	78.5837	58.5938	78.5182	58.5938	78.6866	58.5938	78.6204	58.5938	78.7922	58.5938	78.7272	58.5938	78.8985	58.5938	78.8363	58.5938	79.0032	58.5938	78.9452	58.5938	79.103	58.5938	79.0509	58.5938	79.1939	58.5938	79.1492	58.5938	79.2709	58.5938	79.2354	58.5938	79.3289	58.5938	79.3041	58.5938	79.3632	58.5938	79.3505	58.5938	79.3707
60.0586	78.15	60.0586	78.1611	60.0586	78.1558	60.0586	78.1887	60.0586	78.1783	60.0586	78.2316	60.0586	78.2168	60.0586	78.2884	60.0586	78.2699	60.0586	78.3573	60.0586	78.3358	60.0586	78.436	60.0586	78.4127	60.0586	78.5225	60.0586	78.4982	60.0586	78.6144	60.0586	78.59	60.0586	78.7099	60.0586	78.6861	60.0586	78.8071	60.0586	78.7843	60.0586	78.904	60.0586	78.8825	60.0586	78.9986	60.0586	78.9786	60.0586	79.0884	60.0586	79.0701	60.0586	79.17	60.0586	79.1538	60.0586	79.2394	60.0586	79.226	60.0586	79.2923	60.0586	79.2827	60.0586	79.3248	60.0586	79.3198	60.0586	79.3342
62.9883	78.5206	62.9883	78.5349	62.9883	78.5228	62.9883	78.5652	62.9883	78.5414	62.9883	78.6102	62.9883	78.5754	62.9883	78.6682	62.9883	78.6235	62.9883	78.7368	62.9883	78.6836	62.9883	78.8135	62.9883	78.7534	62.9883	78.8956	62.9883	78.8304	62.9883	78.9804	62.9883	78.912	62.9883	79.0655	62.9883	78.9961	62.9883	79.1491	62.9883	79.0805	62.9883	79.2293	62.9883	79.1633	62.9883	79.3046	62.9883	79.2432	62.9883	79.3736	62.9883	79.3183	62.9883	79.4341	62.9883	79.3867	62.9883	79.4837	62.9883	79.4461	62.9883	79.5199	62.9883	79.4937	62.9883	79.54	62.9883	79.5265	62.9883	79.5423
64.4531	78.6413	64.4531	78.6552	64.4531	78.6441	64.4531	78.6854	64.4531	78.6635	64.4531	78.7303	64.4531	78.6986	64.4531	78.7882	64.4531	78.7477	64.4531	78.8564	64.4531	78.8086	64.4531	78.9323	64.4531	78.8789	64.4531	79.0129	64.4531	78.9558	64.4531	79.0955	64.4531	79.0365	64.4531	79.1774	64.4531	79.1185	64.4531	79.2568	64.4531	79.1996	64.4531	79.3318	64.4531	79.2778	64.4531	79.4012	64.4531	79.3517	64.4531	79.4638	64.4531	79.4199	64.4531	79.5182	64.4531	79.481	64.4531	79.5625	64.4531	79.5332	64.4531	79.5948	64.4531	79.5745	64.4531	79.6129	64.4531	79.6025	64.4531	79.6156
67.3828	78.9088	67.3828	78.9217	67.3828	78.9127	67.3828	78.9507	67.3828	78.9329	67.3828	78.9943	67.3828	78.9686	67.3828	79.0506	67.3828	79.0179	67.3828	79.1166	67.3828	79.0784	67.3828	79.1894	67.3828	79.1473	67.3828	79.2658	67.3828	79.2215	67.3828	79.3425	67.3828	79.298	67.3828	79.4168	67.3828	79.3737	67.3828	79.4864	67.3828	79.4463	67.3828	79.5497	67.3828	79.5137	67.3828	79.6058	67.3828	79.5746	67.3828	79.6542	67.3828	79.6281	67.3828	79.6944	67.3828	79.6736	67.3828	79.7263	67.3828	79.7106	67.3828	79.7491	67.3828	79.7386	67.3828	79.7621	67.3828	79.7569	67.3828	79.7648
68.8477	79.081	68.8477	79.0931	68.8477	79.0853	68.8477	79.121	68.8477	79.1058	68.8477	79.1633	68.8477	79.1413	68.8477	79.2178	68.8477	79.1901	68.8477	79.2819	68.8477	79.2497	68.8477	79.3521	68.8477	79.317	68.8477	79.4254	68.8477	79.389	68.8477	79.4982	68.8477	79.4624	68.8477	79.5679	68.8477	79.5342	68.8477	79.6321	68.8477	79.6018	68.8477	79.6892	68.8477	79.6633	68.8477	79.7385	68.8477	79.7174	68.8477	79.7799	68.8477	79.7634	68.8477	79.8134	68.8477	79.8012	68.8477	79.8393	68.8477	79.831	68.8477	79.8578	68.8477	79.8526	68.8477	79.8686	68.8477	79.8661	68.8477	79.8715
71.7773	79.4275	71.7773	79.4354	71.7773	79.4361	71.7773	79.4593	71.7773	79.4609	71.7773	79.4978	71.7773	79.5007	71.7773	79.5485	71.7773	79.5534	71.7773	79.6087	71.7773	79.6162	71.7773	79.6749	71.7773	79.6859	71.7773	79.7436	71.7773	79.7589	71.7773	79.8114	71.7773	79.8314	71.7773	79.8752	71.7773	79.9002	71.7773	79.9325	71.7773	79.9622	71.7773	79.9818	71.7773	80.0153	71.7773	80.0226	71.7773	80.0583	71.7773	80.0553	71.7773	80.0911	71.7773	80.0808	71.7773	80.1141	71.7773	80.1005	71.7773	80.1286	71.7773	80.1156	71.7773	80.1358	71.7773	80.1267	71.7773	80.1373	71.7773	80.134
74.707	79.8749	74.707	79.8802	74.707	79.8843	74.707	79.8996	74.707	79.9078	74.707	79.9317	74.707	79.9443	74.707	79.9743	74.707	79.9917	74.707	80.0246	74.707	80.0472	74.707	80.0792	74.707	80.1075	74.707	80.1345	74.707	80.169	74.707	80.187	74.707	80.2278	74.707	80.2337	74.707	80.2806	74.707	80.2722	74.707	80.3246	74.707	80.3013	74.707	80.3577	74.707	80.321	74.707	80.3792	74.707	80.3325	74.707	80.3896	74.707	80.3382	74.707	80.3904	74.707	80.3409	74.707	80.3844	74.707	80.3432	74.707	80.3745	74.707	80.3472	74.707	80.3636	74.707	80.3541
77.6367	80.2719	77.6367	80.2819	77.6367	80.2754	77.6367	80.3047	77.6367	80.2923	77.6367	80.3387	77.6367	80.3213	77.6367	80.3815	77.6367	80.3607	77.6367	80.4302	77.6367	80.4077	77.6367	80.4811	77.6367	80.4589	77.6367	80.5306	77.6367	80.5107	77.6367	80.5751	77.6367	80.5592	77.6367	80.6113	77.6367	80.601	77.6367	80.6371	77.6367	80.6332	77.6367	80.6513	77.6367	80.6539	77.6367	80.6543	77.6367	80.6626	77.6367	80.6479	77.6367	80.6605	77.6367	80.6355	77.6367	80.6499	77.6367	80.6208	77.6367	80.6346	77.6367	80.6078	77.6367	80.6186	77.6367	80.5999	77.6367	80.6058	77.6367	80.5991
79.1016	80.4061	79.1016	80.4166	79.1016	80.4092	79.1016	80.44	79.1016	80.4258	79.1016	80.4746	79.1016	80.4547	79.1016	80.518	79.1016	80.4939	79.1016	80.5671	79.1016	80.5408	79.1016	80.6183	79.1016	80.5919	79.1016	80.6677	79.1016	80.6434	79.1016	80.7116	79.1016	80.6915	79.1016	80.7467	79.1016	80.7323	79.1016	80.7708	79.1016	80.7631	79.1016	80.7827	79.1016	80.7819	79.1016	80.7827	79.1016	80.7882	79.1016	80.773	79.1016	80.7832	79.1016	80.7568	79.1016	80.7695	79.1016	80.7386	79.1016	80.7512	79.1016	80.7226	79.1016	80.7327	79.1016	80.7127	79.1016	80.7183	79.1016	80.7111
82.0312	80.6661	82.0312	80.6775	82.0312	80.6685	82.0312	80.7018	82.0312	80.6842	82.0312	80.7374	82.0312	80.7123	82.0312	80.7818	82.0312	80.7507	82.0312	80.8319	82.0312	80.7966	82.0312	80.8838	82.0312	80.8464	82.0312	80.9335	82.0312	80.8963	82.0312	80.977	82.0312	80.9422	82.0312	81.0106	82.0312	80.9804	82.0312	81.0318	82.0312	81.0077	82.0312	81.0393	82.0312	81.0223	82.0312	81.0336	82.0312	81.0237	82.0312	81.0167	82.0312	81.0132	82.0312	80.9928	82.0312	80.994	82.0312	80.9667	82.0312	80.9705	82.0312	80.9438	82.0312	80.948	82.0312	80.9287	82.0312	80.9313	82.0312	80.9244
84.9609	80.9626	84.9609	80.9729	84.9609	80.9658	84.9609	80.9962	84.9609	80.9824	84.9609	81.0308	84.9609	81.0112	84.9609	81.0742	84.9609	81.05	84.9609	81.1232	84.9609	81.0961	84.9609	81.1738	84.9609	81.1457	84.9609	81.2218	84.9609	81.1949	84.9609	81.2631	84.9609	81.2395	84.9609	81.2938	84.9609	81.2755	84.9609	81.3112	84.9609	81.2996	84.9609	81.3139	84.9609	81.3098	84.9609	81.3025	84.9609	81.3056	84.9609	81.2795	84.9609	81.2885	84.9609	81.2493	84.9609	81.262	84.9609	81.2176	84.9609	81.2311	84.9609	81.1906	84.9609	81.2017	84.9609	81.1735	84.9609	81.1798	84.9609	81.1696
87.8906	81.2741	87.8906	81.2814	87.8906	81.2788	87.8906	81.3	87.8906	81.2953	87.8906	81.3285	87.8906	81.3225	87.8906	81.3646	87.8906	81.3585	87.8906	81.4054	87.8906	81.4007	87.8906	81.4473	87.8906	81.4456	87.8906	81.4863	87.8906	81.4893	87.8906	81.5182	87.8906	81.5276	87.8906	81.5396	87.8906	81.5564	87.8906	81.5475	87.8906	81.5723	87.8906	81.5407	87.8906	81.5732	87.8906	81.5199	87.8906	81.5584	87.8906	81.4879	87.8906	81.5298	87.8906	81.4496	87.8906	81.4911	87.8906	81.4114	87.8906	81.4481	87.8906	81.3802	87.8906	81.4077	87.8906	81.3621	87.8906	81.3768	87.8906	81.3607
90.8203	81.7005	90.8203	81.7087	90.8203	81.7021	90.8203	81.7259	90.8203	81.7134	90.8203	81.7506	90.8203	81.7337	90.8203	81.7807	90.8203	81.7614	90.8203	81.8131	90.8203	81.7938	90.8203	81.8445	90.8203	81.8279	90.8203	81.8709	90.8203	81.8598	90.8203	81.8887	90.8203	81.8855	90.8203	81.8942	90.8203	81.9008	90.8203	81.8853	90.8203	81.9024	90.8203	81.8609	90.8203	81.8883	90.8203	81.8223	90.8203	81.8582	90.8203	81.7729	90.8203	81.8142	90.8203	81.7185	90.8203	81.7608	90.8203	81.6665	90.8203	81.7047	90.8203	81.6248	90.8203	81.6537	90.8203	81.6001	90.8203	81.6157	90.8203	81.5969
95.2148	82.0602	95.2148	82.0803	95.2148	82.0482	95.2148	82.1077	95.2148	82.0443	95.2148	82.1409	95.2148	82.0476	95.2148	82.1776	95.2148	82.0566	95.2148	82.2145	95.2148	82.0691	95.2148	82.2477	95.2148	82.0821	95.2148	82.2728	95.2148	82.0923	95.2148	82.2853	95.2148	82.096	95.2148	82.2812	95.2148	82.0897	95.2148	82.2575	95.2148	82.0706	95.2148	82.2132	95.2148	82.0373	95.2148	82.1496	95.2148	81.9905	95.2148	82.0706	95.2148	81.9331	95.2148	81.9834	95.2148	81.8707	95.2148	81.8969	95.2148	81.8114	95.2148	81.8212	95.2148	81.7639	95.2148	81.7657	95.2148	81.7371	95.2148	81.7369
98.1445	82.1948	98.1445	82.199	98.1445	82.2004	98.1445	82.2125	98.1445	82.215	98.1445	82.2345	98.1445	82.2375	98.1445	82.2631	98.1445	82.2659	98.1445	82.2956	98.1445	82.2975	98.1445	82.3284	98.1445	82.3289	98.1445	82.3574	98.1445	82.3564	98.1445	82.378	98.1445	82.3758	98.1445	82.386	98.1445	82.3833	98.1445	82.3782	98.1445	82.3759	98.1445	82.3528	98.1445	82.3518	98.1445	82.3103	98.1445	82.3113	98.1445	82.2541	98.1445	82.2572	98.1445	82.1902	98.1445	82.195	98.1445	82.1267	98.1445	82.1322	98.1445	82.073	98.1445	82.0778	98.1445	82.0375	98.1445	82.0403	98.1445	82.026
101.074	82.461	101.074	82.4652	101.074	82.4637	101.074	82.4759	101.074	82.473	101.074	82.4924	101.074	82.488	101.074	82.5132	101.074	82.5074	101.074	82.536	101.074	82.529	101.074	82.558	101.074	82.5501	101.074	82.5755	101.074	82.5671	101.074	82.5846	101.074	82.5764	101.074	82.5816	101.074	82.5743	101.074	82.5634	101.074	82.5575	101.074	82.5283	101.074	82.5245	101.074	82.4769	101.074	82.4754	101.074	82.4124	101.074	82.4131	101.074	82.3408	101.074	82.3432	101.074	82.2707	101.074	82.2738	101.074	82.2114	101.074	82.2143	101.074	82.172	101.074	82.1737	101.074	82.1587
105.469	82.8182	105.469	82.8138	105.469	82.8273	105.469	82.8137	105.469	82.8411	105.469	82.8171	105.469	82.8588	105.469	82.8223	105.469	82.8791	105.469	82.8271	105.469	82.8998	105.469	82.8286	105.469	82.918	105.469	82.8235	105.469	82.93	105.469	82.808	105.469	82.9316	105.469	82.7789	105.469	82.9187	105.469	82.734	105.469	82.8878	105.469	82.6728	105.469	82.8368	105.469	82.5975	105.469	82.7659	105.469	82.5132	105.469	82.6781	105.469	82.4279	105.469	82.5794	105.469	82.3517	105.469	82.479	105.469	82.2953	105.469	82.3877	105.469	82.268	105.469	82.3167	105.469	82.2751
108.398	83.1491	108.398	83.1538	108.398	83.1491	108.398	83.1626	108.398	83.154	108.398	83.1744	108.398	83.1634	108.398	83.1876	108.398	83.1762	108.398	83.1998	108.398	83.1907	108.398	83.208	108.398	83.2043	108.398	83.2086	108.398	83.2137	108.398	83.1981	108.398	83.2153	108.398	83.1731	108.398	83.205	108.398	83.1316	108.398	83.1796	108.398	83.0732	108.398	83.137	108.398	83.0001	108.398	83.0771	108.398	82.9174	108.398	83.0023	108.398	82.8329	108.398	82.9182	108.398	82.7564	108.398	82.8327	108.398	82.698	108.398	82.7557	108.398	82.6662	108.398	82.6974	108.398	82.666
112.793	83.4957	112.793	83.4993	112.793	83.4954	112.793	83.5059	112.793	83.4985	112.793	83.5148	112.793	83.5045	112.793	83.5246	112.793	83.5126	112.793	83.5334	112.793	83.521	112.793	83.5385	112.793	83.5275	112.793	83.5365	112.793	83.5289	112.793	83.5239	112.793	83.5216	112.793	83.4971	112.793	83.5021	112.793	83.4535	112.793	83.4671	112.793	83.3923	112.793	83.415	112.793	83.3151	112.793	83.3459	112.793	83.2264	112.793	83.2631	112.793	83.1338	112.793	83.1725	112.793	83.0474	112.793	83.0831	112.793	82.978	112.793	83.0055	112.793	82.9353	112.793	82.9503	112.793	82.9256
117.188	83.7635	117.188	83.7657	117.188	83.7637	117.188	83.7693	117.188	83.7666	117.188	83.7736	117.188	83.7723	117.188	83.7772	117.188	83.7805	117.188	83.7781	117.188	83.7899	117.188	83.774	117.188	83.7983	117.188	83.7618	117.188	83.8023	117.188	83.7381	117.188	83.7978	117.188	83.7	117.188	83.7804	117.188	83.6452	117.188	83.7459	117.188	83.5737	117.188	83.6918	117.188	83.4876	117.188	83.6176	117.188	83.3923	117.188	83.5261	117.188	83.2963	117.188	83.4236	117.188	83.2102	117.188	83.3196	117.188	83.1454	117.188	83.2258	117.188	83.1115	117.188	83.1542	117.188	83.1143
120.117	83.9001	120.117	83.901	120.117	83.9002	120.117	83.9023	120.117	83.9015	120.117	83.9036	120.117	83.9044	120.117	83.904	120.117	83.9089	120.117	83.9024	120.117	83.9143	120.117	83.8966	120.117	83.9191	120.117	83.8841	120.117	83.9206	120.117	83.8618	120.117	83.9152	120.117	83.8267	120.117	83.8989	120.117	83.7765	120.117	83.8677	120.117	83.7108	120.117	83.8189	120.117	83.6316	120.117	83.7519	120.117	83.5439	120.117	83.6688	120.117	83.4554	120.117	83.5752	120.117	83.3762	120.117	83.4798	120.117	83.3167	120.117	83.3932	120.117	83.286	120.117	83.3267	120.117	83.2893
124.512	84.2496	124.512	84.2475	124.512	84.2487	124.512	84.2422	124.512	84.2449	124.512	84.2338	124.512	84.2389	124.512	84.2224	124.512	84.231	124.512	84.2074	124.512	84.2215	124.512	84.1877	124.512	84.2099	124.512	84.1617	124.512	84.1946	124.512	84.1267	124.512	84.1735	124.512	84.0806	124.512	84.1433	124.512	84.0215	124.512	84.1012	124.512	83.9492	124.512	84.0447	124.512	83.8657	124.512	83.9735	124.512	83.776	124.512	83.8894	124.512	83.6874	124.512	83.7974	124.512	83.6093	124.512	83.7053	124.512	83.5513	124.512	83.6226	124.512	83.5214	124.512	83.5595	124.512	83.5242
128.906	84.4322	128.906	84.4327	128.906	84.4281	128.906	84.4295	128.906	84.4207	128.906	84.4227	128.906	84.4106	128.906	84.412	128.906	84.3981	128.906	84.3971	128.906	84.3832	128.906	84.3766	128.906	84.3653	128.906	84.3486	128.906	84.3428	128.906	84.3105	128.906	84.3132	128.906	84.2598	128.906	84.2735	128.906	84.1944	128.906	84.221	128.906	84.114	128.906	84.1537	128.906	84.0206	128.906	84.0719	128.906	83.9191	128.906	83.9781	128.906	83.8175	128.906	83.8784	128.906	83.7259	128.906	83.7812	128.906	83.6547	128.906	83.697	128.906	83.6132	128.906	83.6361	128.906	83.6067
133.301	84.5486	133.301	84.5586	133.301	84.5337	133.301	84.5633	133.301	84.5148	133.301	84.5624	133.301	84.493	133.301	84.5558	133.301	84.4692	133.301	84.5429	133.301	84.4442	133.301	84.5226	133.301	84.4179	133.301	84.4931	133.301	84.3891	133.301	84.4521	133.301	84.3555	133.301	84.3971	133.301	84.314	133.301	84.3264	133.301	84.2617	133.301	84.2399	133.301	84.1962	133.301	84.1399	133.301	84.1173	133.301	84.0316	133.301	84.0276	133.301	83.9231	133.301	83.9326	133.301	83.8245	133.301	83.8409	133.301	83.7465	133.301	83.7626	133.301	83.6982	133.301	83.7079	133.301	83.6851
139.16	84.7459	139.16	84.7509	139.16	84.7333	139.16	84.7484	139.16	84.7131	139.16	84.739	139.16	84.6863	139.16	84.7236	139.16	84.654	139.16	84.7022	139.16	84.6172	139.16	84.6744	139.16	84.5765	139.16	84.6387	139.16	84.5317	139.16	84.5928	139.16	84.4816	139.16	84.5341	139.16	84.4243	139.16	84.4606	139.16	84.3577	139.16	84.3718	139.16	84.2806	139.16	84.2695	139.16	84.1935	139.16	84.1586	139.16	84.0993	139.16	84.0468	139.16	84.0039	139.16	83.9439	139.16	83.9154	139.16	83.8602	139.16	83.8434	139.16	83.8046	139.16	83.797	139.16	83.7831
143.555	84.8524	143.555	84.851	143.555	84.8439	143.555	84.8402	143.555	84.8257	143.555	84.821	143.555	84.7986	143.555	84.7945	143.555	84.764	143.555	84.7616	143.555	84.7232	143.555	84.7222	143.555	84.6769	143.555	84.6755	143.555	84.6255	143.555	84.6195	143.555	84.5679	143.555	84.5523	143.555	84.5027	143.555	84.4718	143.555	84.4281	143.555	84.3779	143.555	84.3431	143.555	84.2724	143.555	84.2482	143.555	84.1602	143.555	84.1467	143.555	84.049	143.555	84.0444	143.555	83.9483	143.555	83.9496	143.555	83.8681	143.555	83.8717	143.555	83.8171	143.555	83.8197	143.555	83.8005
147.949	84.9844	147.949	84.9803	147.949	84.9757	147.949	84.9637	147.949	84.9542	147.949	84.9358	147.949	84.9213	147.949	84.8982	147.949	84.8785	147.949	84.8521	147.949	84.8276	147.949	84.7982	147.949	84.7699	147.949	84.7362	147.949	84.7059	147.949	84.6651	147.949	84.6353	147.949	84.5833	147.949	84.5567	147.949	84.4896	147.949	84.4688	147.949	84.3839	147.949	84.371	147.949	84.2686	147.949	84.2642	147.949	84.1487	147.949	84.152	147.949	84.0319	147.949	84.0406	147.949	83.9276	147.949	83.9385	147.949	83.8455	147.949	83.8552	147.949	83.794	147.949	83.7996	147.949	83.7782
153.809	85.0519	153.809	85.0476	153.809	85.0426	153.809	85.0305	153.809	85.0195	153.809	85.0019	153.809	84.9836	153.809	84.9633	153.809	84.9362	153.809	84.9159	153.809	84.879	153.809	84.86	153.809	84.8135	153.809	84.7949	153.809	84.7404	153.809	84.719	153.809	84.66	153.809	84.6306	153.809	84.5714	153.809	84.5283	153.809	84.4739	153.809	84.4126	153.809	84.3673	153.809	84.2866	153.809	84.2529	153.809	84.156	153.809	84.1346	153.809	84.0294	153.809	84.0187	153.809	83.917	153.809	83.9138	153.809	83.8286	153.809	83.8292	153.809	83.7726	153.809	83.7738	153.809	83.754
159.668	85.1616	159.668	85.1486	159.668	85.1609	159.668	85.1232	159.668	85.1464	159.668	85.0874	159.668	85.1186	159.668	85.0434	159.668	85.0788	159.668	84.993	159.668	85.0286	159.668	84.9373	159.668	84.9691	159.668	84.8758	159.668	84.9006	159.668	84.8066	159.668	84.8227	159.668	84.7274	159.668	84.7346	159.668	84.6358	159.668	84.6355	159.668	84.5313	159.668	84.5258	159.668	84.4157	159.668	84.4077	159.668	84.2943	159.668	84.286	159.668	84.1748	159.668	84.1678	159.668	84.0672	159.668	84.0621	159.668	83.9815	159.668	83.9783	159.668	83.926	159.668	83.9246	159.668	83.9064
165.527	85.3074	165.527	85.2915	165.527	85.3083	165.527	85.2616	165.527	85.2944	165.527	85.2199	165.527	85.2672	165.527	85.1695	165.527	85.2289	165.527	85.1131	165.527	85.182	165.527	85.0528	165.527	85.1285	165.527	84.9895	165.527	85.0692	165.527	84.9226	165.527	85.0037	165.527	84.8506	165.527	84.9308	165.527	84.7718	165.527	84.849	165.527	84.6854	165.527	84.7577	165.527	84.5929	165.527	84.6583	165.527	84.498	165.527	84.5547	165.527	84.4068	165.527	84.4531	165.527	84.3265	165.527	84.3613	165.527	84.2644	165.527	84.2875	165.527	84.2267	165.527	84.2381	165.527	84.2174
171.387	85.3616	171.387	85.3403	171.387	85.3633	171.387	85.3006	171.387	85.3458	171.387	85.2455	171.387	85.3111	171.387	85.1792	171.387	85.2627	171.387	85.106	171.387	85.2041	171.387	85.0295	171.387	85.139	171.387	84.952	171.387	85.0697	171.387	84.8742	171.387	84.9969	171.387	84.7953	171.387	84.9203	171.387	84.7143	171.387	84.8389	171.387	84.6307	171.387	84.7519	171.387	84.5459	171.387	84.6602	171.387	84.4632	171.387	84.5667	171.387	84.3878	171.387	84.4762	171.387	84.3253	171.387	84.3949	171.387	84.2806	171.387	84.3285	171.387	84.2575	171.387	84.2818	171.387	84.2577
177.246	85.4241	177.246	85.4122	177.246	85.4112	177.246	85.3755	177.246	85.3755	177.246	85.3161	177.246	85.3206	177.246	85.2376	177.246	85.2518	177.246	85.1448	177.246	85.1743	177.246	85.0422	177.246	85.0929	177.246	84.9339	177.246	85.0109	177.246	84.8229	177.246	84.9294	177.246	84.7111	177.246	84.8477	177.246	84.5999	177.246	84.7639	177.246	84.491	177.246	84.6759	177.246	84.3876	177.246	84.5833	177.246	84.2941	177.246	84.4878	177.246	84.2159	177.246	84.3931	177.246	84.1579	177.246	84.3048	177.246	84.1235	177.246	84.2284	177.246	84.1143	177.246	84.1688	177.246	84.1299
183.105	85.3829	183.105	85.3814	183.105	85.3538	183.105	85.3498	183.105	85.296	183.105	85.2905	183.105	85.2133	183.105	85.2077	183.105	85.1114	183.105	85.1064	183.105	84.997	183.105	84.9916	183.105	84.8771	183.105	84.8677	183.105	84.7574	183.105	84.7384	183.105	84.6422	183.105	84.6062	183.105	84.5333	183.105	84.4734	183.105	84.4309	183.105	84.3432	183.105	84.3344	183.105	84.22	183.105	84.2433	183.105	84.1095	183.105	84.158	183.105	84.0177	183.105	84.0803	183.105	83.9493	183.105	84.0126	183.105	83.9064	183.105	83.9573	183.105	83.8884	183.105	83.9166	183.105	83.8928
188.965	85.419	188.965	85.4207	188.965	85.3839	188.965	85.3904	188.965	85.3161	188.965	85.3306	188.965	85.2183	188.965	85.2455	188.965	85.0949	188.965	85.1395	188.965	84.9514	188.965	85.0174	188.965	84.7942	188.965	84.8832	188.965	84.6297	188.965	84.74	188.965	84.4636	188.965	84.5903	188.965	84.3006	188.965	84.4366	188.965	84.1447	188.965	84.2819	188.965	83.9997	188.965	84.1309	188.965	83.8695	188.965	83.9892	188.965	83.7587	188.965	83.8631	188.965	83.6714	188.965	83.7576	188.965	83.6101	188.965	83.6752	188.965	83.5754	188.965	83.6163	188.965	83.566	188.965	83.58
196.289	85.3499	196.289	85.3256	196.289	85.3436	196.289	85.2731	196.289	85.3062	196.289	85.1965	196.289	85.2391	196.289	85.1006	196.289	85.1457	196.289	84.9905	196.289	85.0303	196.289	84.8706	196.289	84.8977	196.289	84.7443	196.289	84.7524	196.289	84.6136	196.289	84.5979	196.289	84.4799	196.289	84.4372	196.289	84.3442	196.289	84.2727	196.289	84.2082	196.289	84.1083	196.289	84.0749	196.289	83.9493	196.289	83.9478	196.289	83.8038	196.289	83.8309	196.289	83.6809	196.289	83.7276	196.289	83.589	196.289	83.641	196.289	83.5335	196.289	83.5739	196.289	83.515	196.289	83.5302
203.613	85.4373	203.613	85.3991	203.613	85.4359	203.613	85.3234	203.613	85.395	203.613	85.215	203.613	85.3173	203.613	85.0803	203.613	85.2075	203.613	84.927	203.613	85.0716	203.613	84.7626	203.613	84.9161	203.613	84.5932	203.613	84.7476	203.613	84.4234	203.613	84.5721	203.613	84.256	203.613	84.3948	203.613	84.0937	203.613	84.2206	203.613	83.9399	203.613	84.0543	203.613	83.7999	203.613	83.9013	203.613	83.6797	203.613	83.767	203.613	83.5847	203.613	83.6562	203.613	83.5173	203.613	83.5712	203.613	83.476	203.613	83.5117	203.613	83.4572	203.613	83.4748	203.613	83.4573
210.938	85.5119	210.938	85.4793	210.938	85.5011	210.938	85.4034	210.938	85.4491	210.938	85.2869	210.938	85.3599	210.938	85.1343	210.938	85.2398	210.938	84.9522	210.938	85.0956	210.938	84.7481	210.938	84.9347	210.938	84.5309	210.938	84.764	210.938	84.3095	210.938	84.589	210.938	84.0936	210.938	84.4143	210.938	83.8929	210.938	84.2433	210.938	83.7172	210.938	84.0798	210.938	83.5751	210.938	83.9283	210.938	83.4724	210.938	83.7937	210.938	83.41	210.938	83.6804	210.938	83.3834	210.938	83.5904	210.938	83.384	210.938	83.5221	210.938	83.4025	210.938	83.4712	210.938	83.4322
218.262	85.4597	218.262	85.4401	218.262	85.4374	218.262	85.3796	218.262	85.3749	218.262	85.2811	218.262	85.2761	218.262	85.1495	218.262	85.1469	218.262	84.9906	218.262	84.9944	218.262	84.8105	218.262	84.8257	218.262	84.6152	218.262	84.6473	218.262	84.41	218.262	84.4644	218.262	84.2005	218.262	84.2809	218.262	83.9932	218.262	84.1004	218.262	83.7966	218.262	83.927	218.262	83.6209	218.262	83.7658	218.262	83.476	218.262	83.6231	218.262	83.3691	218.262	83.5044	218.262	83.3015	218.262	83.4125	218.262	83.2684	218.262	83.3463	218.262	83.2616	218.262	83.3015	218.262	83.2738
225.586	85.4546	225.586	85.4421	225.586	85.4187	225.586	85.3821	225.586	85.336	225.586	85.278	225.586	85.2111	225.586	85.1355	225.586	85.0512	225.586	84.9612	225.586	84.8657	225.586	84.7628	225.586	84.6653	225.586	84.5481	225.586	84.461	225.586	84.3251	225.586	84.2629	225.586	84.1019	225.586	84.0794	225.586	83.8883	225.586	83.9165	225.586	83.6956	225.586	83.7782	225.586	83.5359	225.586	83.6664	225.586	83.4193	225.586	83.5812	225.586	83.3502	225.586	83.52	225.586	83.3249	225.586	83.4776	225.586	83.3324	225.586	83.4464	225.586	83.358	225.586	83.4186	225.586	83.3891
232.91	85.6093	232.91	85.5891	232.91	85.5763	232.91	85.5179	232.91	85.4903	232.91	85.4005	232.91	85.3542	232.91	85.2438	232.91	85.173	232.91	85.0558	232.91	84.9538	232.91	84.8447	232.91	84.7049	232.91	84.6188	232.91	84.436	232.91	84.3857	232.91	84.1579	232.91	84.153	232.91	83.883	232.91	83.9293	232.91	83.6263	232.91	83.7249	232.91	83.4041	232.91	83.5511	232.91	83.2322	232.91	83.4173	232.91	83.121	232.91	83.3269	232.91	83.0714	232.91	83.274	232.91	83.0731	232.91	83.2448	232.91	83.1071	232.91	83.2223	232.91	83.1525	232.91	83.1931
241.699	85.6262	241.699	85.5882	241.699	85.6089	241.699	85.4971	241.699	85.5365	241.699	85.3574	241.699	85.4121	241.699	85.1754	241.699	85.2409	241.699	84.9584	241.699	85.03	241.699	84.7138	241.699	84.7874	241.699	84.4489	241.699	84.5212	241.699	84.1709	241.699	84.2391	241.699	83.888	241.699	83.9492	241.699	83.6114	241.699	83.6613	241.699	83.3558	241.699	83.3883	241.699	83.1386	241.699	83.1472	241.699	82.9748	241.699	82.9555	241.699	82.8702	241.699	82.8257	241.699	82.8169	241.699	82.7588	241.699	82.7962	241.699	82.742	241.699	82.7865	241.699	82.7539	241.699	82.7729
250.488	85.4702	250.488	85.4282	250.488	85.453	250.488	85.3293	250.488	85.3767	250.488	85.1786	250.488	85.2447	250.488	84.9829	250.488	85.0633	250.488	84.7505	250.488	84.8411	250.488	84.49	250.488	84.5881	250.488	84.21	250.488	84.3143	250.488	83.9182	250.488	84.0291	250.488	83.6229	250.488	83.7413	250.488	83.3336	250.488	83.4603	250.488	83.0632	250.488	83.1978	250.488	82.8284	250.488	82.9679	250.488	82.6462	250.488	82.7845	250.488	82.5279	250.488	82.6558	250.488	82.4723	250.488	82.5793	250.488	82.4643	250.488	82.5411	250.488	82.4813	250.488	82.5213	250.488	82.5033
259.277	85.8254	259.277	85.7763	259.277	85.8168	259.277	85.6731	259.277	85.7496	259.277	85.5215	259.277	85.625	259.277	85.3292	259.277	85.4468	259.277	85.1049	259.277	85.2211	259.277	84.8576	259.277	84.956	259.277	84.5956	259.277	84.6608	259.277	84.3257	259.277	84.3459	259.277	84.0535	259.277	84.0225	259.277	83.7847	259.277	83.7028	259.277	83.5267	259.277	83.4017	259.277	83.2897	259.277	83.1365	259.277	83.086	259.277	82.9244	259.277	82.9262	259.277	82.7771	259.277	82.8143	259.277	82.6941	259.277	82.7446	259.277	82.6626	259.277	82.704	259.277	82.663	259.277	82.6788
268.066	85.5339	268.066	85.4592	268.066	85.5439	268.066	85.3236	268.066	85.489	268.066	85.1343	268.066	85.3716	268.066	84.9018	268.066	85.1968	268.066	84.6393	268.066	84.9722	268.066	84.362	268.066	84.7074	268.066	84.0849	268.066	84.4138	268.066	83.822	268.066	84.1043	268.066	83.585	268.066	83.794	268.066	83.383	268.066	83.4995	268.066	83.2233	268.066	83.2405	268.066	83.1108	268.066	83.0369	268.066	83.0465	268.066	82.9053	268.066	83.0249	268.066	82.8511	268.066	83.0322	268.066	82.8636	268.066	83.0486	268.066	82.9178	268.066	83.0534	268.066	82.9825	268.066	83.0321
276.855	85.7142	276.855	85.6601	276.855	85.7066	276.855	85.5418	276.855	85.641	276.855	85.3588	276.855	85.5219	276.855	85.1135	276.855	85.3535	276.855	84.8116	276.855	85.1402	276.855	84.4622	276.855	84.8871	276.855	84.0785	276.855	84.6008	276.855	83.6783	276.855	84.2905	276.855	83.2845	276.855	83.9679	276.855	82.9245	276.855	83.6472	276.855	82.6275	276.855	83.3441	276.855	82.4176	276.855	83.0754	276.855	82.3057	276.855	82.8573	276.855	82.2831	276.855	82.7011	276.855	82.3237	276.855	82.6069	276.855	82.3932	276.855	82.5605	276.855	82.4607	276.855	82.5364	276.855	82.5086
287.109	86.1197	287.109	86.1092	287.109	86.0594	287.109	86.0289	287.109	85.9315	287.109	85.8827	287.109	85.7436	287.109	85.6769	287.109	85.5062	287.109	85.4182	287.109	85.2308	287.109	85.1135	287.109	84.9272	287.109	84.7698	287.109	84.6016	287.109	84.3951	287.109	84.2581	287.109	84.0017	287.109	83.9025	287.109	83.6089	287.109	83.5477	287.109	83.2452	287.109	83.2162	287.109	82.944	287.109	82.9375	287.109	82.7333	287.109	82.7373	287.109	82.6217	287.109	82.6254	287.109	82.5917	287.109	82.5896	287.109	82.6081	287.109	82.6014	287.109	82.6333	287.109	82.6276	287.109	82.6421
297.363	86.1479	297.363	86.0649	297.363	86.1463	297.363	85.9072	297.363	86.0545	297.363	85.6879	297.363	85.8719	297.363	85.4224	297.363	85.6038	297.363	85.1268	297.363	85.261	297.363	84.8163	297.363	84.8594	297.363	84.503	297.363	84.4181	297.363	84.1958	297.363	83.9584	297.363	83.9017	297.363	83.5041	297.363	83.6285	297.363	83.0844	297.363	83.3878	297.363	82.7348	297.363	83.1957	297.363	82.4928	297.363	83.0672	297.363	82.3845	297.363	83.0069	297.363	82.4088	297.363	83.0006	297.363	82.5319	297.363	83.0166	297.363	82.6994	297.363	83.0158	297.363	82.8568	297.363	82.9666
307.617	86.4475	307.617	86.3697	307.617	86.4601	307.617	86.2247	307.617	86.4097	307.617	86.0119	307.617	86.2975	307.617	85.7337	307.617	86.1245	307.617	85.3964	307.617	85.8916	307.617	85.0111	307.617	85.6008	307.617	84.5939	307.617	85.2555	307.617	84.1665	307.617	84.8605	307.617	83.7557	307.617	84.4232	307.617	83.3927	307.617	83.9577	307.617	83.1087	307.617	83.4913	307.617	82.9267	307.617	83.0689	307.617	82.8501	307.617	82.7469	307.617	82.8578	307.617	82.5711	307.617	82.9088	307.617	82.5491	307.617	82.9555	307.617	82.6407	307.617	82.9583	307.617	82.7779	307.617	82.8966
319.336	86.1791	319.336	86.136	319.336	86.1474	319.336	86.0183	319.336	86.0438	319.336	85.8279	319.336	85.8737	319.336	85.5686	319.336	85.6446	319.336	85.2451	319.336	85.3656	319.336	84.8638	319.336	85.0459	319.336	84.433	319.336	84.6954	319.336	83.9668	319.336	84.3249	319.336	83.4887	319.336	83.9481	319.336	83.0355	319.336	83.5841	319.336	82.6576	319.336	83.259	319.336	82.408	319.336	83.0034	319.336	82.319	319.336	82.8434	319.336	82.3801	319.336	82.7868	319.336	82.5376	319.336	82.8138	319.336	82.7198	319.336	82.8809	319.336	82.8652	319.336	82.9369	319.336	82.9391
329.59	86.5117	329.59	86.4788	329.59	86.4682	329.59	86.3702	329.59	86.3498	329.59	86.1886	329.59	86.1601	329.59	85.9376	329.59	85.9048	329.59	85.6205	329.59	85.5908	329.59	85.2402	329.59	85.2246	329.59	84.799	329.59	84.8127	329.59	84.3017	329.59	84.3618	329.59	83.7616	329.59	83.8828	329.59	83.209	329.59	83.3961	329.59	82.6973	329.59	82.9374	329.59	82.2977	329.59	82.5577	329.59	82.0725	329.59	82.3086	329.59	82.0362	329.59	82.2151	329.59	82.1407	329.59	82.2539	329.59	82.3009	329.59	82.3603	329.59	82.4352	329.59	82.459	329.59	82.4923
341.309	86.2721	341.309	86.2272	341.309	86.2313	341.309	86.1011	341.309	86.106	341.309	85.9027	341.309	85.9031	341.309	85.644	341.309	85.6349	341.309	85.3377	341.309	85.3172	341.309	84.995	341.309	84.9666	341.309	84.6242	341.309	84.5974	341.309	84.2311	341.309	84.22	341.309	83.8226	341.309	83.8428	341.309	83.414	341.309	83.478	341.309	83.0363	341.309	83.1483	341.309	82.7371	341.309	82.8876	341.309	82.5648	341.309	82.7315	341.309	82.5403	341.309	82.6955	341.309	82.6356	341.309	82.7582	341.309	82.7847	341.309	82.8658	341.309	82.9156	341.309	82.955	341.309	82.9779
353.027	86.3819	353.027	86.3107	353.027	86.3576	353.027	86.1502	353.027	86.2341	353.027	85.9089	353.027	86.0105	353.027	85.5969	353.027	85.6889	353.027	85.2246	353.027	85.275	353.027	84.8011	353.027	84.7784	353.027	84.3338	353.027	84.213	353.027	83.83	353.027	83.5988	353.027	83.3027	353.027	82.9644	353.027	82.7801	353.027	82.3527	353.027	82.3125	353.027	81.8266	353.027	81.9673	353.027	81.4621	353.027	81.8009	353.027	81.3197	353.027	81.8196	353.027	81.4019	353.027	81.9661	353.027	81.6395	353.027	82.1464	353.027	81.9254	353.027	82.2718	353.027	82.1609	353.027	82.2833
366.211	86.4908	366.211	86.3705	366.211	86.5191	366.211	86.1622	366.211	86.4542	366.211	85.8733	366.211	86.2965	366.211	85.5147	366.211	86.0475	366.211	85.0993	366.211	85.7085	366.211	84.6401	366.211	85.2797	366.211	84.1485	366.211	84.7598	366.211	83.6336	366.211	84.1471	366.211	83.107	366.211	83.4461	366.211	82.5928	366.211	82.6805	366.211	82.1367	366.211	81.9145	366.211	81.8036	366.211	81.2676	366.211	81.6483	366.211	80.8875	366.211	81.6735	366.211	80.8544	366.211	81.8155	366.211	81.1029	366.211	81.9745	366.211	81.4698	366.211	82.0586	366.211	81.8016	366.211	82.0074
379.395	87.0444	379.395	86.9831	379.395	87.0242	379.395	86.8373	379.395	86.9279	379.395	86.6063	379.395	86.7625	379.395	86.292	379.395	86.535	379.395	85.8985	379.395	86.25	379.395	85.4317	379.395	85.9075	379.395	84.8985	379.395	85.5016	379.395	84.3078	379.395	85.0223	379.395	83.674	379.395	84.4606	379.395	83.0265	379.395	83.8175	379.395	82.4218	379.395	83.1177	379.395	81.9447	379.395	82.425	379.395	81.6769	379.395	81.8461	379.395	81.6384	379.395	81.4969	379.395	81.7584	379.395	81.4262	379.395	81.9147	379.395	81.5684	379.395	81.9989	379.395	81.7867	379.395	81.9541
392.578	86.5856	392.578	86.5543	392.578	86.534	392.578	86.4399	392.578	86.4033	392.578	86.2457	392.578	86.2019	392.578	85.9762	392.578	85.942	392.578	85.6357	392.578	85.6376	392.578	85.2259	392.578	85.2995	392.578	84.7458	392.578	84.9307	392.578	84.1935	392.578	84.5236	392.578	83.5743	392.578	84.0641	392.578	82.9151	392.578	83.5441	392.578	82.2811	392.578	82.981	392.578	81.78	392.578	82.4359	392.578	81.5236	392.578	82.0128	392.578	81.5485	392.578	81.8109	392.578	81.7734	392.578	81.847	392.578	82.0526	392.578	82.0304	392.578	82.2577	392.578	82.2241	392.578	82.3177
405.762	86.3894	405.762	86.3005	405.762	86.3638	405.762	86.1021	405.762	86.2255	405.762	85.8063	405.762	85.9834	405.762	85.4307	405.762	85.6526	405.762	84.9954	405.762	85.2518	405.762	84.5186	405.762	84.8	405.762	84.0122	405.762	84.3105	405.762	83.4814	405.762	83.7883	405.762	82.9318	405.762	83.233	405.762	82.3838	405.762	82.6524	405.762	81.8894	405.762	82.0835	405.762	81.5319	405.762	81.6063	405.762	81.3896	405.762	81.3258	405.762	81.475	405.762	81.305	405.762	81.7105	405.762	81.5037	405.762	81.9729	405.762	81.7981	405.762	82.1529	405.762	82.0553	405.762	82.1855
420.41	86.8511	420.41	86.7289	420.41	86.8698	420.41	86.5061	420.41	86.786	420.41	86.1891	420.41	86.6039	420.41	85.7871	420.41	86.3295	420.41	85.3104	420.41	85.9688	420.41	84.7679	420.41	85.5253	420.41	84.163	420.41	84.9966	420.41	83.493	420.41	84.3722	420.41	82.7544	420.41	83.6344	420.41	81.9642	420.41	82.769	420.41	81.1956	420.41	81.7942	420.41	80.6016	420.41	80.8105	420.41	80.3569	420.41	80.0432	420.41	80.5008	420.41	79.7569	420.41	80.8721	420.41	80.0002	420.41	81.2396	420.41	80.5297	420.41	81.4338	420.41	81.0482	420.41	81.3729
435.059	86.5214	435.059	86.4946	435.059	86.453	435.059	86.3719	435.059	86.2954	435.059	86.1558	435.059	86.0613	435.059	85.8493	435.059	85.7703	435.059	85.4534	435.059	85.4438	435.059	84.9653	435.059	85.0975	435.059	84.3778	435.059	84.7327	435.059	83.6832	435.059	84.3326	435.059	82.8823	435.059	83.867	435.059	82.0059	435.059	83.3076	435.059	81.1469	435.059	82.6519	435.059	80.4825	435.059	81.9545	435.059	80.2124	435.059	81.3486	435.059	80.3881	435.059	81.0073	435.059	80.8375	435.059	81.0133	435.059	81.3099	435.059	81.2635	435.059	81.6245	435.059	81.5517	435.059	81.7024
451.172	86.9645	451.172	86.9421	451.172	86.8753	451.172	86.8106	451.172	86.6801	451.172	86.58	451.172	86.3922	451.172	86.2647	451.172	86.031	451.172	85.8777	451.172	85.6193	451.172	85.4216	451.172	85.1754	451.172	84.8801	451.172	84.7043	451.172	84.2166	451.172	84.1914	451.172	83.3858	451.172	83.605	451.172	82.3625	451.172	82.9132	451.172	81.1996	451.172	82.1151	451.172	80.1174	451.172	81.2878	451.172	79.5114	451.172	80.6239	451.172	79.6287	451.172	80.3601	451.172	80.2363	451.172	80.5529	451.172	80.9091	451.172	80.9876	451.172	81.3759	451.172	81.3774	451.172	81.5333
465.82	86.6949	465.82	86.6222	465.82	86.6451	465.82	86.436	465.82	86.4724	465.82	86.1533	465.82	86.1867	465.82	85.7982	465.82	85.8093	465.82	85.3985	465.82	85.3725	465.82	84.9771	465.82	84.9127	465.82	84.5367	465.82	84.4555	465.82	84.0465	465.82	83.997	465.82	83.4437	465.82	83.4977	465.82	82.6567	465.82	82.8982	465.82	81.6527	465.82	82.1559	465.82	80.5208	465.82	81.2947	465.82	79.5747	465.82	80.4601	465.82	79.2512	465.82	79.9164	465.82	79.6112	465.82	79.862	465.82	80.226	465.82	80.1933	465.82	80.6828	465.82	80.5978	465.82	80.8062
483.398	86.8838	483.398	86.7921	483.398	86.8503	483.398	86.5899	483.398	86.6859	483.398	86.2992	483.398	86.3959	483.398	85.9467	483.398	85.9985	483.398	85.5574	483.398	85.5266	483.398	85.1456	483.398	85.0235	483.398	84.7045	483.398	84.5287	483.398	84.1999	483.398	84.0534	483.398	83.5752	483.398	83.5629	483.398	82.7712	483.398	82.9871	483.398	81.767	483.398	82.2611	483.398	80.6516	483.398	81.3885	483.398	79.7078	483.398	80.5149	483.398	79.3295	483.398	79.9406	483.398	79.6066	483.398	79.8978	483.398	80.1814	483.398	80.2556	483.398	80.6558	483.398	80.656	483.398	80.8257
499.512	86.9654	499.512	86.8682	499.512	86.8997	499.512	86.6145	499.512	86.6745	499.512	86.2255	499.512	86.3043	499.512	85.7438	499.512	85.8195	499.512	85.2336	499.512	85.2724	499.512	84.7631	499.512	84.7347	499.512	84.3653	499.512	84.2738	499.512	84.0054	499.512	83.9089	499.512	83.5889	499.512	83.5829	499.512	83.0071	499.512	83.1861	499.512	82.1924	499.512	82.6145	499.512	81.184	499.512	81.8354	499.512	80.2172	499.512	80.9551	499.512	79.7058	499.512	80.2563	499.512	79.8533	499.512	80.0422	499.512	80.3546	499.512	80.2953	499.512	80.7769	499.512	80.6839	499.512	80.8937
517.09	87.8762	517.09	87.7387	517.09	87.8235	517.09	87.4184	517.09	87.5819	517.09	86.9337	517.09	87.1636	517.09	86.3226	517.09	86.5981	517.09	85.6528	517.09	85.9415	517.09	85.0229	517.09	85.2819	517.09	84.5272	517.09	84.7216	517.09	84.1827	517.09	84.3221	517.09	83.887	517.09	84.0428	517.09	83.4655	517.09	83.748	517.09	82.7654	517.09	83.2818	517.09	81.7437	517.09	82.5523	517.09	80.5771	517.09	81.6094	517.09	79.7494	517.09	80.7255	517.09	79.7111	517.09	80.3121	517.09	80.2498	517.09	80.4762	517.09	80.7979	517.09	80.8475	517.09	81.0156
536.133	88.6897	536.133	88.5201	536.133	88.6076	536.133	88.0951	536.133	88.2696	536.133	87.4072	536.133	87.6622	536.133	86.4551	536.133	86.7651	536.133	85.2709	536.133	85.5642	536.133	83.9755	536.133	84.0947	536.133	82.8375	536.133	82.5523	536.133	82.1774	536.133	81.4164	536.133	82.0278	536.133	81.1538	536.133	82.0464	536.133	81.54	536.133	81.8584	536.133	81.9465	536.133	81.2789	536.133	81.9901	536.133	80.3584	536.133	81.601	536.133	79.4556	536.133	80.9518	536.133	79.136	536.133	80.4089	536.133	79.521	536.133	80.2671	536.133	80.0987	536.133	80.3971	536.133	80.4184
555.176	89.8272	555.176	89.6614	555.176	89.8465	555.176	89.3414	555.176	89.7122	555.176	88.8449	555.176	89.4023	555.176	88.1381	555.176	88.8811	555.176	87.1807	555.176	88.1006	555.176	85.9405	555.176	87.0044	555.176	84.4264	555.176	85.5353	555.176	82.7594	555.176	83.6619	555.176	81.2557	555.176	81.4645	555.176	80.3014	555.176	79.341	555.176	79.9017	555.176	78.0541	555.176	79.6436	555.176	77.839	555.176	79.1916	555.176	78.0217	555.176	78.5263	555.176	78.0871	555.176	77.8937	555.176	77.9869	555.176	77.5693	555.176	77.8544	555.176	77.5618	555.176	77.7615	555.176	77.6695
574.219	89.4842	574.219	89.3912	574.219	89.4749	574.219	89.1942	574.219	89.3549	574.219	88.8778	574.219	89.108	574.219	88.4125	574.219	88.7131	574.219	87.7571	574.219	88.145	574.219	86.8677	574.219	87.3762	574.219	85.7161	574.219	86.3817	574.219	84.325	574.219	85.1537	574.219	82.8204	574.219	83.7304	574.219	81.4596	574.219	82.2388	574.219	80.5058	574.219	80.9063	574.219	79.9892	574.219	79.9497	574.219	79.7314	574.219	79.3981	574.219	79.5966	574.219	79.1287	574.219	79.5614	574.219	79.0558	574.219	79.6034	574.219	79.1573	574.219	79.6336	574.219	79.3674	574.219	79.558
594.727	88.4915	594.727	88.4428	594.727	88.4732	594.727	88.3143	594.727	88.3881	594.727	88.0834	594.727	88.2214	594.727	87.7211	594.727	87.9432	594.727	87.1936	594.727	87.5115	594.727	86.4679	594.727	86.8798	594.727	85.5227	594.727	86.0069	594.727	84.3719	594.727	84.8739	594.727	83.0989	594.727	83.5126	594.727	81.8819	594.727	82.0492	594.727	80.9353	594.727	80.7345	594.727	80.355	594.727	79.86	594.727	80.0705	594.727	79.5442	594.727	79.9921	594.727	79.6616	594.727	80.0929	594.727	80.0024	594.727	80.3319	594.727	80.3816	594.727	80.5904	594.727	80.6531	594.727	80.7256
615.234	88.5559	615.234	88.4866	615.234	88.5439	615.234	88.3449	615.234	88.4407	615.234	88.1302	615.234	88.2383	615.234	87.824	615.234	87.9253	615.234	87.3849	615.234	87.4798	615.234	86.753	615.234	86.8638	615.234	85.8614	615.234	86.0293	615.234	84.6585	615.234	84.9352	615.234	83.1439	615.234	83.5759	615.234	81.4361	615.234	82.0259	615.234	79.8626	615.234	80.4987	615.234	78.9061	615.234	79.3533	615.234	78.7902	615.234	78.8955	615.234	79.2474	615.234	79.0909	615.234	79.8845	615.234	79.6334	615.234	80.444	615.234	80.2215	615.234	80.7915	615.234	80.6656	615.234	80.8681
637.207	88.6086	637.207	88.5369	637.207	88.6041	637.207	88.3921	637.207	88.5209	637.207	88.1762	637.207	88.3546	637.207	87.8839	637.207	88.0969	637.207	87.4935	637.207	87.7313	637.207	86.9644	637.207	87.2284	637.207	86.2435	637.207	86.5448	637.207	85.2799	637.207	85.6328	637.207	84.0447	637.207	84.4664	637.207	82.5634	637.207	83.0838	637.207	80.9833	637.207	81.6392	637.207	79.6791	637.207	80.4197	637.207	79.1778	637.207	79.7406	637.207	79.607	637.207	79.7368	637.207	80.4884	637.207	80.2621	637.207	81.3138	637.207	80.9944	637.207	81.8227	637.207	81.6168	637.207	81.9231
659.18	88.7544	659.18	88.6845	659.18	88.7316	659.18	88.5113	659.18	88.6277	659.18	88.2279	659.18	88.447	659.18	87.828	659.18	88.1756	659.18	87.299	659.18	87.7778	659.18	86.6161	659.18	87.2021	659.18	85.7421	659.18	86.3913	659.18	84.6382	659.18	85.292	659.18	83.2906	659.18	83.8672	659.18	81.7538	659.18	82.132	659.18	80.2051	659.18	80.2519	659.18	78.9676	659.18	78.697	659.18	78.4031	659.18	78.0979	659.18	78.6429	659.18	78.5108	659.18	79.4219	659.18	79.3857	659.18	80.2887	659.18	80.2523	659.18	80.9015	659.18	80.8671	659.18	81.1027
682.617	88.4242	682.617	88.3455	682.617	88.449	682.617	88.2212	682.617	88.4076	682.617	88.0459	682.617	88.2906	682.617	87.7939	682.617	88.09	682.617	87.4165	682.617	87.7853	682.617	86.846	682.617	87.3274	682.617	86.008	682.617	86.6367	682.617	84.8413	682.617	85.6188	682.617	83.3277	682.617	84.1913	682.617	81.5436	682.617	82.3273	682.617	79.7374	682.617	80.1548	682.617	78.3473	682.617	78.1526	682.617	77.769	682.617	77.1269	682.617	78.0216	682.617	77.3455	682.617	78.7702	682.617	78.2269	682.617	79.5861	682.617	79.193	682.617	80.1413	682.617	79.9285	682.617	80.2672
707.52	88.3085	707.52	88.3296	707.52	88.3026	707.52	88.3588	707.52	88.323	707.52	88.3879	707.52	88.3702	707.52	88.3884	707.52	88.4149	707.52	88.2987	707.52	88.3921	707.52	88.028	707.52	88.2101	707.52	87.4693	707.52	87.7635	707.52	86.5157	707.52	86.9488	707.52	85.0793	707.52	85.6843	707.52	83.1317	707.52	83.94	707.52	80.796	707.52	81.7947	707.52	78.4822	707.52	79.5293	707.52	76.8051	707.52	77.6576	707.52	76.077	707.52	76.6436	707.52	76.1668	707.52	76.5103	707.52	76.7297	707.52	76.9022	707.52	77.303	707.52	77.363	707.52	77.5445
732.422	87.6421	732.422	87.6112	732.422	87.633	732.422	87.5903	732.422	87.6161	732.422	87.672	732.422	87.6836	732.422	87.8983	732.422	87.9012	732.422	88.1773	732.422	88.214	732.422	88.3048	732.422	88.448	732.422	88.0561	732.422	88.3931	732.422	87.2473	732.422	87.8619	732.422	85.7571	732.422	86.6969	732.422	83.6083	732.422	84.7824	732.422	81.3468	732.422	82.2152	732.422	80.3985	732.422	80.0225	732.422	81.0404	732.422	79.9701	732.422	81.9112	732.422	81.1583	732.422	82.4052	732.422	82.0907	732.422	82.5863	732.422	82.5377	732.422	82.6427	732.422	82.6746	732.422	82.6764
757.324	88.7529	757.324	88.53	757.324	88.6387	757.324	88.0303	757.324	88.2374	757.324	87.4857	757.324	87.7301	757.324	87.3144	757.324	87.4687	757.324	87.7736	757.324	87.7717	757.324	88.5696	757.324	88.5088	757.324	89.1652	757.324	89.1958	757.324	89.1507	757.324	89.403	757.324	88.2169	757.324	88.8308	757.324	85.9704	757.324	87.1683	757.324	81.5711	757.324	83.8376	757.324	73.9784	757.324	77.3483	757.324	78.5088	757.324	74.8331	757.324	83.4902	757.324	81.7125	757.324	85.963	757.324	85.1102	757.324	87.206	757.324	86.8053	757.324	87.7645	757.324	87.6074	757.324	87.882
785.156	90.8345	785.156	90.5652	785.156	90.7071	785.156	89.915	785.156	90.1739	785.156	88.9207	785.156	89.2506	785.156	87.7345	785.156	88.0455	785.156	86.83	785.156	86.9302	785.156	86.869	785.156	86.5883	785.156	87.7345	785.156	87.2457	785.156	88.5851	785.156	88.2026	785.156	88.7971	785.156	88.7309	785.156	88.0144	785.156	88.4206	785.156	85.8221	785.156	86.9291	785.156	81.1641	785.156	83.602	785.156	68.3775	785.156	76.0153	785.156	77.0683	785.156	70.8887	785.156	83.0848	785.156	81.1195	785.156	85.6758	785.156	84.8159	785.156	86.821	785.156	86.4865	785.156	87.0635
811.523	90.6797	811.523	90.5127	811.523	90.5478	811.523	90.0197	811.523	90.1147	811.523	89.1577	811.523	89.3559	811.523	87.9199	811.523	88.2586	811.523	86.4827	811.523	86.919	811.523	85.4622	811.523	85.7567	811.523	85.5808	811.523	85.5137	811.523	86.4683	811.523	86.2589	811.523	87.1543	811.523	87.115	811.523	87.0396	811.523	87.3387	811.523	85.7512	811.523	86.5119	811.523	82.7386	811.523	84.1975	811.523	76.4508	811.523	79.3353	811.523	71.4525	811.523	67.9862	811.523	79.4851	811.523	76.2721	811.523	83.0888	811.523	81.6539	811.523	84.6136	811.523	84.0009	811.523	84.8683
840.82	90.7828	840.82	90.6066	840.82	90.6879	840.82	90.1541	840.82	90.3208	840.82	89.4063	840.82	89.6696	840.82	88.3335	840.82	88.7015	840.82	86.9619	840.82	87.3969	840.82	85.5844	840.82	85.9164	840.82	84.9404	840.82	84.8936	840.82	85.3973	840.82	85.019	840.82	86.1627	840.82	85.797	840.82	86.3563	840.82	86.2316	840.82	85.4648	840.82	85.7367	840.82	82.9593	840.82	83.8717	840.82	77.5092	840.82	79.7407	840.82	66.5662	840.82	69.3995	840.82	77.0545	840.82	73.7924	840.82	81.6345	840.82	80.4501	840.82	83.5669	840.82	83.1288	840.82	84.0119
870.117	90.4614	870.117	90.3193	870.117	90.4163	870.117	89.9787	870.117	90.1634	870.117	89.3998	870.117	89.657	870.117	88.5215	870.117	88.8437	870.117	87.2932	870.117	87.6887	870.117	85.8104	870.117	86.2434	870.117	84.6226	870.117	84.8548	870.117	84.558	870.117	84.314	870.117	85.3256	870.117	84.8886	870.117	85.8359	870.117	85.657	870.117	85.4091	870.117	85.7419	870.117	83.6104	870.117	84.6499	870.117	79.6922	870.117	81.8085	870.117	71.7099	870.117	75.5951	870.117	73.8653	870.117	67.7151	870.117	79.5943	870.117	77.4465	870.117	81.95	870.117	81.1724	870.117	82.4098
900.879	90.6648	900.879	90.5294	900.879	90.5845	900.879	90.1808	900.879	90.2983	900.879	89.6124	900.879	89.8163	900.879	88.7814	900.879	89.1144	900.879	87.6142	900.879	88.1217	900.879	86.0836	900.879	86.7658	900.879	84.4543	900.879	85.1282	900.879	83.5848	900.879	83.7646	900.879	83.9771	900.879	83.555	900.879	84.6518	900.879	84.2191	900.879	84.5747	900.879	84.5895	900.879	83.1726	900.879	83.9099	900.879	79.7671	900.879	81.6294	900.879	73.1402	900.879	76.7528	900.879	74.1907	900.879	71.5943	900.879	79.6113	900.879	77.6033	900.879	81.9904	900.879	81.1828	900.879	82.4456
933.105	90.4556	933.105	90.3412	933.105	90.3964	933.105	90.0532	933.105	90.1445	933.105	89.5659	933.105	89.6797	933.105	88.8306	933.105	88.9888	933.105	87.7868	933.105	88.0494	933.105	86.4261	933.105	86.8307	933.105	84.9921	933.105	85.4076	933.105	84.1802	933.105	84.2331	933.105	84.3983	933.105	84.0095	933.105	84.8846	933.105	84.5309	933.105	84.7069	933.105	84.7951	933.105	83.285	933.105	84.0519	933.105	79.9625	933.105	81.7173	933.105	73.1882	933.105	76.6761	933.105	71.2027	933.105	68.7721	933.105	77.5919	933.105	75.7939	933.105	80.3225	933.105	79.7378	933.105	80.9578
965.332	90.497	965.332	90.351	965.332	90.434	965.332	90.0148	965.332	90.1653	965.332	89.5091	965.332	89.7008	965.332	88.815	965.332	89.031	965.332	87.8549	965.332	88.1171	965.332	86.5302	965.332	86.9026	965.332	84.8606	965.332	85.3773	965.332	83.3233	965.332	83.8079	965.332	82.8769	965.332	83.0074	965.332	83.4071	965.332	83.359	965.332	83.6684	965.332	83.8431	965.332	82.7946	965.332	83.4381	965.332	80.1623	965.332	81.533	965.332	74.8626	965.332	77.3873	965.332	72.7151	965.332	72.1377	965.332	78.0624	965.332	76.243	965.332	80.7355	965.332	79.9066	965.332	81.2547
1,000.49	90.6449	1,000.49	90.4975	1,000.49	90.5907	1,000.49	90.1693	1,000.49	90.3405	1,000.49	89.6834	1,000.49	89.9265	1,000.49	89.039	1,000.49	89.3674	1,000.49	88.1878	1,000.49	88.6184	1,000.49	87.0266	1,000.49	87.5697	1,000.49	85.4882	1,000.49	86.1368	1,000.49	83.8669	1,000.49	84.4814	1,000.49	83.13	1,000.49	83.2911	1,000.49	83.5691	1,000.49	83.1732	1,000.49	83.9227	1,000.49	83.4419	1,000.49	83.1346	1,000.49	83.0211	1,000.49	80.5195	1,000.49	81.1653	1,000.49	75.1439	1,000.49	76.9778	1,000.49	73.1684	1,000.49	71.9818	1,000.49	78.6276	1,000.49	77.0759	1,000.49	81.3704	1,000.49	80.754	1,000.49	82.0008
1,035.64	90.3679	1,035.64	90.1533	1,035.64	90.3421	1,035.64	89.7293	1,035.64	90.0723	1,035.64	89.1495	1,035.64	89.5873	1,035.64	88.4636	1,035.64	88.9418	1,035.64	87.6589	1,035.64	88.1674	1,035.64	86.6266	1,035.64	87.2077	1,035.64	85.2349	1,035.64	85.9253	1,035.64	83.5677	1,035.64	84.2671	1,035.64	82.3369	1,035.64	82.6781	1,035.64	82.3416	1,035.64	82.2039	1,035.64	82.7767	1,035.64	82.6829	1,035.64	82.3215	1,035.64	82.6568	1,035.64	80.0883	1,035.64	81.0653	1,035.64	75.0596	1,035.64	76.8102	1,035.64	72.9296	1,035.64	70.8667	1,035.64	78.6516	1,035.64	77.0753	1,035.64	81.6038	1,035.64	81.0341	1,035.64	82.3227
1,072.27	90.5245	1,072.27	90.3328	1,072.27	90.4265	1,072.27	89.8828	1,072.27	90.0395	1,072.27	89.2224	1,072.27	89.405	1,072.27	88.398	1,072.27	88.604	1,072.27	87.4617	1,072.27	87.7126	1,072.27	86.452	1,072.27	86.7216	1,072.27	85.3068	1,072.27	85.5298	1,072.27	83.9267	1,072.27	84.086	1,072.27	82.6154	1,072.27	82.6648	1,072.27	82.1888	1,072.27	81.9656	1,072.27	82.3878	1,072.27	82.0678	1,072.27	81.8353	1,072.27	81.8965	1,072.27	79.3999	1,072.27	80.3443	1,072.27	73.5108	1,072.27	76.1111	1,072.27	70.6329	1,072.27	66.6635	1,072.27	77.6083	1,072.27	74.4887	1,072.27	80.569	1,072.27	79.4002	1,072.27	81.0716
1,108.89	90.0749	1,108.89	89.9286	1,108.89	89.9515	1,108.89	89.5089	1,108.89	89.5564	1,108.89	88.8333	1,108.89	88.8962	1,108.89	87.9646	1,108.89	88.0163	1,108.89	86.9844	1,108.89	86.9912	1,108.89	85.9191	1,108.89	85.8662	1,108.89	84.6968	1,108.89	84.6063	1,108.89	83.2571	1,108.89	83.1533	1,108.89	81.8771	1,108.89	81.6922	1,108.89	81.2799	1,108.89	80.9298	1,108.89	81.4233	1,108.89	81.1285	1,108.89	81.1136	1,108.89	81.2058	1,108.89	79.2508	1,108.89	80.0266	1,108.89	74.7592	1,108.89	76.5413	1,108.89	70.7964	1,108.89	68.7675	1,108.89	76.2076	1,108.89	72.5267	1,108.89	79.2652	1,108.89	77.9402	1,108.89	79.7884
1,148.44	89.6187	1,148.44	89.4366	1,148.44	89.5053	1,148.44	88.9726	1,148.44	89.107	1,148.44	88.2632	1,148.44	88.4486	1,148.44	87.3646	1,148.44	87.5724	1,148.44	86.3641	1,148.44	86.5476	1,148.44	85.3346	1,148.44	85.4417	1,148.44	84.2199	1,148.44	84.262	1,148.44	82.9357	1,148.44	82.9525	1,148.44	81.795	1,148.44	81.5889	1,148.44	81.381	1,148.44	80.6915	1,148.44	81.3224	1,148.44	80.6272	1,148.44	80.5316	1,148.44	80.5608	1,148.44	78.0376	1,148.44	79.2907	1,148.44	72.1778	1,148.44	75.4748	1,148.44	68.419	1,148.44	65.5779	1,148.44	76.2565	1,148.44	72.8097	1,148.44	79.5205	1,148.44	78.3023	1,148.44	80.1084
1,189.45	89.3494	1,189.45	89.1077	1,189.45	89.2854	1,189.45	88.5935	1,189.45	88.9085	1,189.45	87.854	1,189.45	88.2392	1,189.45	86.9194	1,189.45	87.3363	1,189.45	85.8017	1,189.45	86.2748	1,189.45	84.514	1,189.45	85.0837	1,189.45	83.0624	1,189.45	83.7338	1,189.45	81.5021	1,189.45	82.2183	1,189.45	80.2269	1,189.45	80.7284	1,189.45	79.9708	1,189.45	79.8867	1,189.45	80.4396	1,189.45	80.0688	1,189.45	80.2945	1,189.45	80.302	1,189.45	78.3656	1,189.45	79.3252	1,189.45	73.0091	1,189.45	76.0553	1,189.45	67.8773	1,189.45	68.1103	1,189.45	75.5544	1,189.45	70.3417	1,189.45	78.5912	1,189.45	76.6061	1,189.45	78.8435
1,230.47	89.2769	1,230.47	89.0503	1,230.47	89.2267	1,230.47	88.566	1,230.47	88.903	1,230.47	87.861	1,230.47	88.3147	1,230.47	86.9851	1,230.47	87.4687	1,230.47	85.9828	1,230.47	86.4033	1,230.47	84.8458	1,230.47	85.1984	1,230.47	83.5109	1,230.47	83.8925	1,230.47	81.9648	1,230.47	82.4285	1,230.47	80.4971	1,230.47	80.8911	1,230.47	79.8979	1,230.47	79.9305	1,230.47	80.2452	1,230.47	80.0176	1,230.47	80.1604	1,230.47	80.169	1,230.47	78.3235	1,230.47	79.1556	1,230.47	73.19	1,230.47	75.8948	1,230.47	63.7359	1,230.47	68.3203	1,230.47	73.4569	1,230.47	71.032	1,230.47	77.4059	1,230.47	76.52	1,230.47	78.2372
1,274.41	88.9451	1,274.41	88.7842	1,274.41	88.8201	1,274.41	88.3459	1,274.41	88.4049	1,274.41	87.6691	1,274.41	87.7211	1,274.41	86.8107	1,274.41	86.858	1,274.41	85.8142	1,274.41	85.9024	1,274.41	84.7141	1,274.41	84.8307	1,274.41	83.4645	1,274.41	83.5516	1,274.41	81.8496	1,274.41	81.9992	1,274.41	79.8918	1,274.41	80.2576	1,274.41	78.9101	1,274.41	79.1195	1,274.41	79.7027	1,274.41	79.5228	1,274.41	80.1698	1,274.41	80.1778	1,274.41	78.7867	1,274.41	79.484	1,274.41	74.3187	1,274.41	76.3915	1,274.41	66.7135	1,274.41	68.5759	1,274.41	74.5628	1,274.41	71.0817	1,274.41	78.4817	1,274.41	77.1968	1,274.41	79.1933
1,319.82	88.4955	1,319.82	88.38	1,319.82	88.3333	1,319.82	87.9205	1,319.82	87.9397	1,319.82	87.1557	1,319.82	87.2721	1,319.82	86.2464	1,319.82	86.3087	1,319.82	85.3594	1,319.82	85.2128	1,319.82	84.5015	1,319.82	84.2657	1,319.82	83.4279	1,319.82	83.4377	1,319.82	81.7402	1,319.82	82.2198	1,319.82	79.3863	1,319.82	80.1952	1,319.82	77.9854	1,319.82	78.2852	1,319.82	78.8394	1,319.82	78.7277	1,319.82	79.4695	1,319.82	79.8294	1,319.82	78.2248	1,319.82	79.3455	1,319.82	73.6866	1,319.82	76.1691	1,319.82	65.0461	1,319.82	66.7692	1,319.82	74.3673	1,319.82	69.88	1,319.82	78.2426	1,319.82	76.7105	1,319.82	78.8413
1,366.7	88.0667	1,366.7	87.9267	1,366.7	87.8697	1,366.7	87.4188	1,366.7	87.403	1,366.7	86.5875	1,366.7	86.7115	1,366.7	85.5754	1,366.7	85.7962	1,366.7	84.5866	1,366.7	84.7153	1,366.7	83.7106	1,366.7	83.674	1,366.7	82.7281	1,366.7	82.7549	1,366.7	81.2164	1,366.7	81.5803	1,366.7	79.1455	1,366.7	79.6615	1,366.7	77.8728	1,366.7	77.499	1,366.7	78.5892	1,366.7	77.6446	1,366.7	79.2972	1,366.7	79.0391	1,366.7	78.2489	1,366.7	78.9063	1,366.7	73.814	1,366.7	76.1233	1,366.7	55.9104	1,366.7	67.5329	1,366.7	73.373	1,366.7	66.3869	1,366.7	77.6688	1,366.7	75.4065	1,366.7	78.088
1,413.57	88.2536	1,413.57	88.0367	1,413.57	88.0943	1,413.57	87.4569	1,413.57	87.5314	1,413.57	86.4913	1,413.57	86.6101	1,413.57	85.1892	1,413.57	85.4747	1,413.57	83.8691	1,413.57	84.3182	1,413.57	82.9348	1,413.57	83.3524	1,413.57	82.2082	1,413.57	82.6069	1,413.57	81.0964	1,413.57	81.7431	1,413.57	79.2809	1,413.57	80.2673	1,413.57	77.3055	1,413.57	78.0481	1,413.57	77.462	1,413.57	77.1336	1,413.57	79.0627	1,413.57	78.6933	1,413.57	78.9214	1,413.57	79.4311	1,413.57	75.3957	1,413.57	77.6342	1,413.57	66.5609	1,413.57	71.6689	1,413.57	73.2333	1,413.57	70.3685	1,413.57	77.8173	1,413.57	76.8262	1,413.57	78.8488
1,463.38	88.9937	1,463.38	88.8494	1,463.38	88.7719	1,463.38	88.3169	1,463.38	88.1675	1,463.38	87.3764	1,463.38	87.184	1,463.38	85.9836	1,463.38	85.9265	1,463.38	84.1926	1,463.38	84.4763	1,463.38	82.5643	1,463.38	82.8741	1,463.38	81.6991	1,463.38	81.5549	1,463.38	80.9401	1,463.38	80.8658	1,463.38	79.2961	1,463.38	79.853	1,463.38	76.7661	1,463.38	77.4386	1,463.38	76.7923	1,463.38	75.9559	1,463.38	78.7959	1,463.38	78.0441	1,463.38	78.481	1,463.38	79.0447	1,463.38	74.2109	1,463.38	76.7711	1,463.38	61.859	1,463.38	67.7095	1,463.38	74.56	1,463.38	71.4672	1,463.38	79.2591	1,463.38	78.2567	1,463.38	80.2726
1,516.11	89.1341	1,516.11	89.016	1,516.11	88.8768	1,516.11	88.5078	1,516.11	88.4108	1,516.11	87.7655	1,516.11	87.7887	1,516.11	86.8062	1,516.11	86.895	1,516.11	85.4401	1,516.11	85.6417	1,516.11	83.8507	1,516.11	84.0122	1,516.11	82.7757	1,516.11	82.3657	1,516.11	82.1482	1,516.11	81.3837	1,516.11	80.8647	1,516.11	80.3051	1,516.11	78.1161	1,516.11	77.4573	1,516.11	75.7714	1,516.11	74.3533	1,516.11	77.4645	1,516.11	76.669	1,516.11	77.9435	1,516.11	78.3152	1,516.11	74.1655	1,516.11	76.514	1,516.11	57.5722	1,516.11	68.8776	1,516.11	73.6476	1,516.11	68.7484	1,516.11	78.6499	1,516.11	77.6002	1,516.11	79.9065
1,568.85	89.0686	1,568.85	88.8639	1,568.85	88.9316	1,568.85	88.3295	1,568.85	88.4864	1,568.85	87.5556	1,568.85	87.727	1,568.85	86.5643	1,568.85	86.6717	1,568.85	85.3297	1,568.85	85.3289	1,568.85	83.9967	1,568.85	83.6714	1,568.85	82.9208	1,568.85	82.2037	1,568.85	82.2062	1,568.85	81.5866	1,568.85	81.2361	1,568.85	80.7473	1,568.85	79.1572	1,568.85	78.1933	1,568.85	76.9678	1,568.85	74.4413	1,568.85	78.0279	1,568.85	75.4595	1,568.85	78.9773	1,568.85	78.2032	1,568.85	77.1644	1,568.85	77.6958	1,568.85	69.7925	1,568.85	72.5669	1,568.85	65.9304	1,568.85	56.4475	1,568.85	75.5643	1,568.85	73.9345	1,568.85	77.1198
1,624.51	88.4502	1,624.51	88.1302	1,624.51	88.2486	1,624.51	87.4606	1,624.51	87.7694	1,624.51	86.6848	1,624.51	87.1247	1,624.51	85.7117	1,624.51	85.9942	1,624.51	84.4023	1,624.51	84.2705	1,624.51	82.757	1,624.51	82.363	1,624.51	81.3716	1,624.51	80.8104	1,624.51	81.0443	1,624.51	80.0592	1,624.51	80.7257	1,624.51	79.4274	1,624.51	78.756	1,624.51	77.3466	1,624.51	75.6955	1,624.51	73.7403	1,624.51	76.6177	1,624.51	73.782	1,624.51	78.2355	1,624.51	76.7406	1,624.51	76.6657	1,624.51	76.1788	1,624.51	69.9772	1,624.51	71.8226	1,624.51	65.4393	1,624.51	54.5046	1,624.51	73.9354	1,624.51	71.9098	1,624.51	75.7925
1,681.64	89.0206	1,681.64	88.6564	1,681.64	88.8221	1,681.64	88.0277	1,681.64	88.2905	1,681.64	87.2689	1,681.64	87.7065	1,681.64	86.2832	1,681.64	86.6365	1,681.64	85.0784	1,681.64	85.006	1,681.64	83.384	1,681.64	83.6855	1,681.64	81.3811	1,681.64	82.5157	1,681.64	80.8248	1,681.64	81.012	1,681.64	80.8369	1,681.64	80.611	1,681.64	78.6635	1,681.64	80.054	1,681.64	74.3752	1,681.64	76.9563	1,681.64	74.6539	1,681.64	72.1614	1,681.64	77.4674	1,681.64	75.1893	1,681.64	76.3377	1,681.64	75.8264	1,681.64	68.3744	1,681.64	72.495	1,681.64	65.996	1,681.64	56.5208	1,681.64	73.6876	1,681.64	73.019	1,681.64	75.7961
1,741.7	89.8382	1,741.7	89.5888	1,741.7	89.7182	1,741.7	88.9868	1,741.7	89.1737	1,741.7	87.8647	1,741.7	88.3919	1,741.7	86.4957	1,741.7	87.332	1,741.7	85.4516	1,741.7	85.921	1,741.7	84.3493	1,741.7	84.8253	1,741.7	82.6861	1,741.7	83.8307	1,741.7	81.4295	1,741.7	81.8878	1,741.7	80.8022	1,741.7	80.6484	1,741.7	79.1246	1,741.7	80.5221	1,741.7	76.2781	1,741.7	78.3754	1,741.7	75.0541	1,741.7	74.3973	1,741.7	78.105	1,741.7	75.0182	1,741.7	78.0199	1,741.7	76.2319	1,741.7	70.9583	1,741.7	73.6829	1,741.7	65.2975	1,741.7	49.1001	1,741.7	74.562	1,741.7	73.1577	1,741.7	76.3234
1,803.22	89.3299	1,803.22	89.1301	1,803.22	89.0551	1,803.22	88.4661	1,803.22	88.3201	1,803.22	87.3607	1,803.22	87.2275	1,803.22	86.0406	1,803.22	85.8238	1,803.22	84.7235	1,803.22	84.3698	1,803.22	83.3584	1,803.22	83.36	1,803.22	82.032	1,803.22	82.2457	1,803.22	81.2805	1,803.22	80.5061	1,803.22	80.9909	1,803.22	79.9928	1,803.22	79.5307	1,803.22	80.4748	1,803.22	76.6966	1,803.22	78.2305	1,803.22	75.7497	1,803.22	73.2082	1,803.22	78.4442	1,803.22	74.6257	1,803.22	78.3924	1,803.22	76.1105	1,803.22	72.9977	1,803.22	74.0497	1,803.22	61.4825	1,803.22	57.9884	1,803.22	73.8351	1,803.22	72.1099	1,803.22	75.7313
1,866.21	89.5888	1,866.21	89.5201	1,866.21	89.25	1,866.21	88.9263	1,866.21	88.5369	1,866.21	87.6521	1,866.21	87.5376	1,866.21	86.1449	1,866.21	86.143	1,866.21	84.8853	1,866.21	84.7439	1,866.21	83.6691	1,866.21	83.9295	1,866.21	82.2223	1,866.21	82.8129	1,866.21	80.4872	1,866.21	80.7357	1,866.21	80.2461	1,866.21	79.841	1,866.21	80.4955	1,866.21	80.7821	1,866.21	78.4597	1,866.21	79.3029	1,866.21	75.9421	1,866.21	73.4829	1,866.21	79.2454	1,866.21	74.2303	1,866.21	78.9303	1,866.21	78.2939	1,866.21	73.2978	1,866.21	76.6304	1,866.21	62.8674	1,866.21	65.5761	1,866.21	75.2018	1,866.21	68.7269	1,866.21	75.1792
1,932.13	89.3414	1,932.13	88.8299	1,932.13	89.4145	1,932.13	88.5094	1,932.13	88.832	1,932.13	87.665	1,932.13	88.0344	1,932.13	85.8904	1,932.13	87.0616	1,932.13	84.6218	1,932.13	85.7627	1,932.13	84.2577	1,932.13	84.2154	1,932.13	83.4608	1,932.13	82.7294	1,932.13	81.5518	1,932.13	81.5705	1,932.13	79.6293	1,932.13	80.787	1,932.13	79.9358	1,932.13	80.1213	1,932.13	79.1387	1,932.13	78.7515	1,932.13	73.9183	1,932.13	74.8229	1,932.13	76.473	1,932.13	73.858	1,932.13	77.8657	1,932.13	79.5167	1,932.13	74.8708	1,932.13	78.8498	1,932.13	54.7391	1,932.13	70.0021	1,932.13	73.5549	1,932.13	64.3518	1,932.13	73.6748
1,999.51	89.3601	1,999.51	88.8104	1,999.51	89.6722	1,999.51	88.6169	1,999.51	89.0813	1,999.51	87.9966	1,999.51	87.8921	1,999.51	86.4231	1,999.51	86.9432	1,999.51	85.0823	1,999.51	85.7036	1,999.51	84.3873	1,999.51	83.5174	1,999.51	83.158	1,999.51	82.3723	1,999.51	81.1019	1,999.51	82.1265	1,999.51	78.691	1,999.51	80.0763	1,999.51	78.586	1,999.51	77.864	1,999.51	79.2289	1,999.51	77.7243	1,999.51	73.5506	1,999.51	76.4866	1,999.51	72.2692	1,999.51	72.5057	1,999.51	76.9458	1,999.51	77.8544	1,999.51	75.9355	1,999.51	77.9844	1,999.51	66.0007	1,999.51	71.8462	1,999.51	65.946	1,999.51	61.8737	1,999.51	69.3999
2,069.82	88.6905	2,069.82	88.5155	2,069.82	88.5347	2,069.82	87.8673	2,069.82	88.0299	2,069.82	87.1076	2,069.82	87.0188	2,069.82	86.0486	2,069.82	86.5267	2,069.82	84.8223	2,069.82	85.5424	2,069.82	83.1597	2,069.82	82.8963	2,069.82	81.3772	2,069.82	81.1297	2,069.82	80.4261	2,069.82	80.6115	2,069.82	79.8899	2,069.82	77.7829	2,069.82	79.819	2,069.82	74.7706	2,069.82	79.2988	2,069.82	76.3227	2,069.82	76.1701	2,069.82	76.5974	2,069.82	71.4307	2,069.82	71.8806	2,069.82	71.6923	2,069.82	73.1135	2,069.82	71.6246	2,069.82	73.7346	2,069.82	67.4778	2,069.82	71.2712	2,069.82	68.4635	2,069.82	69.9495	2,069.82	74.5429
2,143.07	88.8624	2,143.07	88.7714	2,143.07	88.4619	2,143.07	87.9201	2,143.07	87.7415	2,143.07	86.4771	2,143.07	87.0268	2,143.07	85.8841	2,143.07	85.521	2,143.07	85.3836	2,143.07	84.0995	2,143.07	83.0732	2,143.07	83.777	2,143.07	80.8486	2,143.07	82.0632	2,143.07	79.5788	2,143.07	79.2938	2,143.07	78.3895	2,143.07	78.2689	2,143.07	79.3968	2,143.07	78.598	2,143.07	79.2021	2,143.07	78.9039	2,143.07	76.648	2,143.07	76.7617	2,143.07	76.1621	2,143.07	73.6391	2,143.07	78.4139	2,143.07	76.2083	2,143.07	77.0538	2,143.07	78.4266	2,143.07	72.7006	2,143.07	74.7082	2,143.07	66.2501	2,143.07	58.861	2,143.07	65.9989
2,219.24	88.6418	2,219.24	88.46	2,219.24	88.6554	2,219.24	88.0098	2,219.24	87.7956	2,219.24	87.1462	2,219.24	86.459	2,219.24	85.9457	2,219.24	85.1793	2,219.24	84.2231	2,219.24	83.4635	2,219.24	82.627	2,219.24	82.2286	2,219.24	81.7527	2,219.24	80.8141	2,219.24	79.9326	2,219.24	79.4282	2,219.24	77.0663	2,219.24	79.5313	2,219.24	76.7187	2,219.24	78.912	2,219.24	77.3704	2,219.24	77.8108	2,219.24	75.9952	2,219.24	76.2279	2,219.24	74.7815	2,219.24	73.8792	2,219.24	77.3906	2,219.24	77.3962	2,219.24	76.3935	2,219.24	79.2864	2,219.24	72.9079	2,219.24	75.7739	2,219.24	72.7019	2,219.24	69.2559	2,219.24	71.6692
2,296.88	87.1829	2,296.88	87.2755	2,296.88	86.3471	2,296.88	86.1539	2,296.88	85.2934	2,296.88	84.9806	2,296.88	84.4323	2,296.88	84.5252	2,296.88	82.9033	2,296.88	83.2633	2,296.88	81.5549	2,296.88	81.3035	2,296.88	80.9528	2,296.88	79.3452	2,296.88	79.2426	2,296.88	78.5651	2,296.88	78.7578	2,296.88	77.875	2,296.88	78.3079	2,296.88	76.1621	2,296.88	75.6975	2,296.88	76.6888	2,296.88	76.5092	2,296.88	76.2852	2,296.88	76.5894	2,296.88	76.6593	2,296.88	71.0141	2,296.88	78.3355	2,296.88	72.897	2,296.88	76.6643	2,296.88	76.372	2,296.88	73.5248	2,296.88	73.7274	2,296.88	73.3999	2,296.88	70.0302	2,296.88	72.1332
2,378.91	86.2095	2,378.91	86.0405	2,378.91	85.9181	2,378.91	85.1076	2,378.91	84.956	2,378.91	83.8866	2,378.91	83.2977	2,378.91	83.3287	2,378.91	82.3831	2,378.91	82.3827	2,378.91	82.2796	2,378.91	81.0071	2,378.91	80.9949	2,378.91	79.1658	2,378.91	77.7645	2,378.91	77.6534	2,378.91	75.9832	2,378.91	77.3023	2,378.91	77.3462	2,378.91	75.8681	2,378.91	75.6168	2,378.91	77.9532	2,378.91	73.4476	2,378.91	78.1258	2,378.91	76.8044	2,378.91	72.032	2,378.91	75.3308	2,378.91	77.3411	2,378.91	71.1728	2,378.91	76.6566	2,378.91	76.5564	2,378.91	70.0226	2,378.91	75.5264	2,378.91	69.5712	2,378.91	68.657	2,378.91	71.2448
2,462.4	84.5416	2,462.4	84.3173	2,462.4	84.1967	2,462.4	83.6133	2,462.4	83.2559	2,462.4	82.5193	2,462.4	81.5252	2,462.4	81.2368	2,462.4	79.7423	2,462.4	80.814	2,462.4	78.8224	2,462.4	80.9278	2,462.4	78.8453	2,462.4	79.5649	2,462.4	78.2954	2,462.4	77.7401	2,462.4	75.7732	2,462.4	78.3237	2,462.4	75.8751	2,462.4	76.9629	2,462.4	76.4547	2,462.4	75.4765	2,462.4	72.6995	2,462.4	78.0333	2,462.4	76.0179	2,462.4	74.4281	2,462.4	75.8774	2,462.4	73.6888	2,462.4	69.6808	2,462.4	77.7013	2,462.4	76.9479	2,462.4	75.5692	2,462.4	77.2282	2,462.4	71.6441	2,462.4	72.422	2,462.4	70.8513
2,548.83	83.484	2,548.83	82.9138	2,548.83	83.2435	2,548.83	82.0309	2,548.83	81.7634	2,548.83	80.9044	2,548.83	79.9539	2,548.83	79.6754	2,548.83	78.5093	2,548.83	78.4764	2,548.83	76.6942	2,548.83	78.6255	2,548.83	75.7406	2,548.83	78.8732	2,548.83	77.2695	2,548.83	76.463	2,548.83	77.1461	2,548.83	75.394	2,548.83	74.5004	2,548.83	76.2361	2,548.83	76.3304	2,548.83	73.3271	2,548.83	75.0316	2,548.83	75.8792	2,548.83	73.2795	2,548.83	75.4452	2,548.83	76.7887	2,548.83	72.3143	2,548.83	72.1818	2,548.83	76.107	2,548.83	73.7993	2,548.83	75.3812	2,548.83	75.3768	2,548.83	72.729	2,548.83	74.6233	2,548.83	73.3505
2,639.65	83.584	2,639.65	82.841	2,639.65	83.2279	2,639.65	81.5399	2,639.65	81.5929	2,639.65	80.2073	2,639.65	79.4782	2,639.65	79.1933	2,639.65	77.582	2,639.65	78.5104	2,639.65	76.6228	2,639.65	78.2844	2,639.65	75.8213	2,639.65	78.8351	2,639.65	76.6361	2,639.65	77.9946	2,639.65	77.5923	2,639.65	76.084	2,639.65	76.0809	2,639.65	76.5969	2,639.65	75.6652	2,639.65	74.4444	2,639.65	76.0488	2,639.65	73.6502	2,639.65	73.6842	2,639.65	75.2526	2,639.65	75.9523	2,639.65	72.2528	2,639.65	74.6247	2,639.65	74.7859	2,639.65	74.1252	2,639.65	74.6225	2,639.65	75.4511	2,639.65	74.9606	2,639.65	74.8077	2,639.65	76.1966
2,731.93	83.0118	2,731.93	82.109	2,731.93	82.4061	2,731.93	80.3869	2,731.93	80.6449	2,731.93	78.7436	2,731.93	78.9688	2,731.93	78.0749	2,731.93	76.8444	2,731.93	78.0959	2,731.93	75.9837	2,731.93	77.7364	2,731.93	76.128	2,731.93	77.9019	2,731.93	76.2834	2,731.93	78.0158	2,731.93	77.3254	2,731.93	76.8436	2,731.93	76.5138	2,731.93	76.7834	2,731.93	75.3608	2,731.93	75.8497	2,731.93	75.9172	2,731.93	74.0796	2,731.93	73.3568	2,731.93	75.9038	2,731.93	74.1569	2,731.93	73.957	2,731.93	73.8101	2,731.93	74.5942	2,731.93	72.9863	2,731.93	74.1114	2,731.93	74.4764	2,731.93	74.7694	2,731.93	73.2014	2,731.93	75.6355
2,828.61	82.3746	2,828.61	81.5147	2,828.61	82.1262	2,828.61	79.6973	2,828.61	80.7028	2,828.61	77.8529	2,828.61	78.4493	2,828.61	76.7277	2,828.61	76.6851	2,828.61	77.6246	2,828.61	76.342	2,828.61	78.1859	2,828.61	77.228	2,828.61	77.8268	2,828.61	77.0259	2,828.61	77.8851	2,828.61	76.9211	2,828.61	77.0155	2,828.61	77.0988	2,828.61	75.7156	2,828.61	75.5282	2,828.61	75.4017	2,828.61	75.6102	2,828.61	73.6491	2,828.61	74.7949	2,828.61	74.8838	2,828.61	73.406	2,828.61	73.7643	2,828.61	73.6556	2,828.61	74.5021	2,828.61	72.8997	2,828.61	73.382	2,828.61	74.4191	2,828.61	73.8085	2,828.61	72.9714	2,828.61	74.6864
2,928.22	83.884	2,928.22	83.0808	2,928.22	83.5743	2,928.22	81.569	2,928.22	82.1086	2,928.22	79.6427	2,928.22	80.2438	2,928.22	78.3297	2,928.22	78.7591	2,928.22	78.3158	2,928.22	77.9305	2,928.22	79.037	2,928.22	78.3431	2,928.22	78.9857	2,928.22	78.5704	2,928.22	78.6825	2,928.22	78.6429	2,928.22	78.0012	2,928.22	78.3323	2,928.22	76.5975	2,928.22	76.9943	2,928.22	75.9829	2,928.22	76.3292	2,928.22	73.5169	2,928.22	74.9263	2,928.22	74.4822	2,928.22	74.405	2,928.22	73.9834	2,928.22	74.5379	2,928.22	74.6606	2,928.22	73.9604	2,928.22	73.709	2,928.22	73.9375	2,928.22	73.09	2,928.22	71.9497	2,928.22	73.7522
3,030.76	86.0747	3,030.76	85.4426	3,030.76	85.6284	3,030.76	83.9717	3,030.76	84.437	3,030.76	82.2868	3,030.76	82.6695	3,030.76	81.0196	3,030.76	80.9873	3,030.76	80.3273	3,030.76	79.7691	3,030.76	80.5984	3,030.76	80.0037	3,030.76	80.0303	3,030.76	79.8632	3,030.76	79.3995	3,030.76	78.9953	3,030.76	78.6423	3,030.76	78.6954	3,030.76	76.6435	3,030.76	76.8586	3,030.76	76.3457	3,030.76	76.2271	3,030.76	74.4715	3,030.76	74.9791	3,030.76	75.0182	3,030.76	73.9386	3,030.76	73.5326	3,030.76	75.1326	3,030.76	74.1186	3,030.76	72.9216	3,030.76	73.1827	3,030.76	74.3485	3,030.76	71.9625	3,030.76	72.3727	3,030.76	73.0354
3,137.7	87.7945	3,137.7	87.0721	3,137.7	87.3974	3,137.7	85.4534	3,137.7	85.9993	3,137.7	83.542	3,137.7	83.7818	3,137.7	82.6806	3,137.7	82.5721	3,137.7	81.6295	3,137.7	81.5548	3,137.7	80.82	3,137.7	80.4598	3,137.7	80.2193	3,137.7	80.0941	3,137.7	78.7464	3,137.7	78.8868	3,137.7	77.9747	3,137.7	78.014	3,137.7	75.4373	3,137.7	76.3104	3,137.7	75.0055	3,137.7	74.2894	3,137.7	73.8083	3,137.7	74.6424	3,137.7	72.4238	3,137.7	69.5099	3,137.7	75.3359	3,137.7	72.9444	3,137.7	74.1313	3,137.7	72.93	3,137.7	72.8726	3,137.7	72.3289	3,137.7	74.655	3,137.7	71.4501	3,137.7	75.7771
3,249.02	87.3002	3,249.02	86.3898	3,249.02	86.7087	3,249.02	84.6702	3,249.02	84.9495	3,249.02	82.588	3,249.02	82.6954	3,249.02	81.5771	3,249.02	81.153	3,249.02	81.3501	3,249.02	80.9289	3,249.02	80.2945	3,249.02	80.1898	3,249.02	79.012	3,249.02	78.7482	3,249.02	78.1649	3,249.02	77.6458	3,249.02	76.6833	3,249.02	76.7515	3,249.02	75.9208	3,249.02	75.5387	3,249.02	74.0239	3,249.02	74.1455	3,249.02	73.1403	3,249.02	72.4958	3,249.02	72.8831	3,249.02	73.5346	3,249.02	72.5232	3,249.02	71.5316	3,249.02	75.9558	3,249.02	74.1722	3,249.02	73.245	3,249.02	74.9845	3,249.02	71.4406	3,249.02	69.7693	3,249.02	73.4824
3,363.28	85.2006	3,363.28	84.3908	3,363.28	84.4148	3,363.28	82.3644	3,363.28	82.7019	3,363.28	80.5299	3,363.28	79.821	3,363.28	79.5381	3,363.28	78.285	3,363.28	80.2177	3,363.28	78.7558	3,363.28	80.829	3,363.28	79.1093	3,363.28	79.7431	3,363.28	78.3229	3,363.28	78.4836	3,363.28	77.2611	3,363.28	78.0466	3,363.28	77.2822	3,363.28	76.4786	3,363.28	76.1417	3,363.28	76.2366	3,363.28	75.3957	3,363.28	75.2892	3,363.28	73.9135	3,363.28	73.2728	3,363.28	72.2678	3,363.28	72.6252	3,363.28	72.9794	3,363.28	75.797	3,363.28	72.6037	3,363.28	76.2738	3,363.28	76.1017	3,363.28	73.4672	3,363.28	73.4714	3,363.28	73.65
3,481.93	83.5777	3,481.93	82.9064	3,481.93	82.7331	3,481.93	80.9598	3,481.93	81.1288	3,481.93	79.2764	3,481.93	77.912	3,481.93	78.7631	3,481.93	76.901	3,481.93	79.7294	3,481.93	76.6316	3,481.93	80.6682	3,481.93	77.9255	3,481.93	80.4706	3,481.93	78.8336	3,481.93	78.8913	3,481.93	77.7399	3,481.93	78.4806	3,481.93	77.0976	3,481.93	77.2542	3,481.93	76.5087	3,481.93	75.4305	3,481.93	74.953	3,481.93	74.7236	3,481.93	75.4299	3,481.93	75.0146	3,481.93	74.2713	3,481.93	74.7501	3,481.93	73.729	3,481.93	75.6211	3,481.93	73.0121	3,481.93	74.4575	3,481.93	75.501	3,481.93	72.085	3,481.93	72.8555	3,481.93	74.0406
3,604.98	81.9947	3,604.98	80.9554	3,604.98	81.9397	3,604.98	79.8369	3,604.98	78.9412	3,604.98	77.5383	3,604.98	75.5178	3,604.98	79.3767	3,604.98	75.5463	3,604.98	80.191	3,604.98	76.8652	3,604.98	80.6793	3,604.98	78.5679	3,604.98	80.3615	3,604.98	79.0893	3,604.98	79.3015	3,604.98	79.0718	3,604.98	79.0753	3,604.98	78.0154	3,604.98	78.1581	3,604.98	77.59	3,604.98	75.5997	3,604.98	76.2623	3,604.98	74.9653	3,604.98	75.3293	3,604.98	74.5757	3,604.98	75.4266	3,604.98	74.5381	3,604.98	74.6128	3,604.98	75.494	3,604.98	73.5971	3,604.98	74.6847	3,604.98	76.1889	3,604.98	72.8377	3,604.98	72.0764	3,604.98	74.8105
3,732.42	81.9302	3,732.42	80.5342	3,732.42	81.2639	3,732.42	79.1031	3,732.42	78.7029	3,732.42	78.6784	3,732.42	76.9525	3,732.42	78.2721	3,732.42	76.4364	3,732.42	80.4344	3,732.42	77.5201	3,732.42	81.4398	3,732.42	78.7393	3,732.42	80.4929	3,732.42	79.0631	3,732.42	79.8007	3,732.42	79.3363	3,732.42	78.6928	3,732.42	79.0489	3,732.42	77.2937	3,732.42	78.526	3,732.42	75.9508	3,732.42	77.6485	3,732.42	74.3259	3,732.42	74.5589	3,732.42	72.3997	3,732.42	72.6878	3,732.42	73.4337	3,732.42	74.0578	3,732.42	74.9547	3,732.42	74.4869	3,732.42	75.671	3,732.42	76.6716	3,732.42	72.3112	3,732.42	73.5214	3,732.42	75.0328
3,864.26	84.0011	3,864.26	82.9621	3,864.26	82.697	3,864.26	81.3062	3,864.26	82.3152	3,864.26	81.4011	3,864.26	80.4384	3,864.26	81.1417	3,864.26	80.0805	3,864.26	82.9405	3,864.26	80.2536	3,864.26	82.6247	3,864.26	81.0065	3,864.26	82.1117	3,864.26	81.5344	3,864.26	81.4658	3,864.26	81.1972	3,864.26	79.9555	3,864.26	79.9225	3,864.26	78.3559	3,864.26	79.448	3,864.26	77.4931	3,864.26	78.2249	3,864.26	76.3822	3,864.26	77.3914	3,864.26	73.7606	3,864.26	76.0333	3,864.26	72.8033	3,864.26	73.5791	3,864.26	75.9651	3,864.26	74.1173	3,864.26	78.0099	3,864.26	77.959	3,864.26	72.4367	3,864.26	73.999	3,864.26	73.7507
4,000.49	84.652	4,000.49	84.4078	4,000.49	84.7424	4,000.49	83.5384	4,000.49	83.6804	4,000.49	82.4857	4,000.49	82.5182	4,000.49	83.5545	4,000.49	82.7623	4,000.49	83.211	4,000.49	83.278	4,000.49	83.1627	4,000.49	83.5667	4,000.49	83.1889	4,000.49	83.1341	4,000.49	81.9312	4,000.49	82.0653	4,000.49	80.4218	4,000.49	80.3993	4,000.49	79.2641	4,000.49	79.2165	4,000.49	76.9721	4,000.49	77.4253	4,000.49	75.6981	4,000.49	76.4555	4,000.49	74.6927	4,000.49	75.5328	4,000.49	72.5536	4,000.49	74.6971	4,000.49	74.4394	4,000.49	71.9798	4,000.49	75.5916	4,000.49	74.9335	4,000.49	68.4404	4,000.49	71.93	4,000.49	71.1751
4,141.11	83.9876	4,141.11	83.55	4,141.11	84.3903	4,141.11	83.9795	4,141.11	82.63	4,141.11	82.967	4,141.11	82.258	4,141.11	83.7111	4,141.11	83.1685	4,141.11	84.5313	4,141.11	84.1776	4,141.11	84.4982	4,141.11	84.21	4,141.11	83.504	4,141.11	83.601	4,141.11	82.4975	4,141.11	82.3226	4,141.11	80.8892	4,141.11	80.3604	4,141.11	79.2236	4,141.11	78.5798	4,141.11	77.5827	4,141.11	76.9848	4,141.11	75.6725	4,141.11	75.9433	4,141.11	74.1588	4,141.11	74.3395	4,141.11	74.0353	4,141.11	73.4308	4,141.11	72.8929	4,141.11	71.7547	4,141.11	75.5772	4,141.11	74.5736	4,141.11	71.0869	4,141.11	72.1886	4,141.11	70.7176
4,287.6	82.7926	4,287.6	83.1877	4,287.6	81.817	4,287.6	82.9236	4,287.6	82.1677	4,287.6	84.5451	4,287.6	82.2137	4,287.6	84.3349	4,287.6	82.6165	4,287.6	85.5362	4,287.6	83.9208	4,287.6	85.3583	4,287.6	84.1442	4,287.6	84.2725	4,287.6	83.406	4,287.6	81.7662	4,287.6	82.2008	4,287.6	80.0795	4,287.6	80.5083	4,287.6	78.0766	4,287.6	78.9208	4,287.6	76.042	4,287.6	77.2073	4,287.6	75.053	4,287.6	74.3318	4,287.6	73.7097	4,287.6	73.1127	4,287.6	72.3022	4,287.6	72.835	4,287.6	73.1743	4,287.6	72.1779	4,287.6	75.7155	4,287.6	75.2428	4,287.6	70.5416	4,287.6	73.3611	4,287.6	72.9362
4,438.48	81.0694	4,438.48	81.3962	4,438.48	80.7743	4,438.48	81.839	4,438.48	81.8772	4,438.48	83.3289	4,438.48	81.9647	4,438.48	84.9485	4,438.48	83.1212	4,438.48	84.9183	4,438.48	83.6419	4,438.48	85.0371	4,438.48	84.5351	4,438.48	83.9492	4,438.48	84.2096	4,438.48	82.5285	4,438.48	82.9076	4,438.48	80.362	4,438.48	80.582	4,438.48	78.4682	4,438.48	78.6482	4,438.48	77.0943	4,438.48	76.2721	4,438.48	75.8725	4,438.48	75.1372	4,438.48	73.1243	4,438.48	73.9058	4,438.48	73.0001	4,438.48	73.5001	4,438.48	72.8105	4,438.48	73.0448	4,438.48	76.2603	4,438.48	75.651	4,438.48	64.1487	4,438.48	74.1575	4,438.48	70.1
4,595.21	79.2524	4,595.21	79.9281	4,595.21	80.8532	4,595.21	82.6643	4,595.21	79.6543	4,595.21	82.0831	4,595.21	81.275	4,595.21	83.1142	4,595.21	83.3792	4,595.21	85.4726	4,595.21	85.3503	4,595.21	84.73	4,595.21	84.586	4,595.21	83.3021	4,595.21	83.436	4,595.21	82.6028	4,595.21	82.0956	4,595.21	80.3689	4,595.21	80.1593	4,595.21	78.4861	4,595.21	78.251	4,595.21	77.0881	4,595.21	76.5511	4,595.21	74.6732	4,595.21	74.4667	4,595.21	75.3818	4,595.21	72.3255	4,595.21	74.7474	4,595.21	72.8659	4,595.21	72.913	4,595.21	71.5605	4,595.21	76.3028	4,595.21	74.8259	4,595.21	70.3706	4,595.21	73.0638	4,595.21	70.0048
4,756.35	78.7535	4,756.35	82.1051	4,756.35	77.7317	4,756.35	83.2162	4,756.35	81.7475	4,756.35	85.2168	4,756.35	82.4419	4,756.35	85.7843	4,756.35	83.3315	4,756.35	85.8323	4,756.35	83.4335	4,756.35	85.1567	4,756.35	84.6677	4,756.35	84.1762	4,756.35	83.9991	4,756.35	80.8891	4,756.35	81.967	4,756.35	79.407	4,756.35	79.3209	4,756.35	77.8999	4,756.35	78.0052	4,756.35	76.2389	4,756.35	76.3324	4,756.35	74.8111	4,756.35	76.1819	4,756.35	73.6505	4,756.35	74.0693	4,756.35	74.152	4,756.35	73.1439	4,756.35	71.7116	4,756.35	74.4306	4,756.35	77.2894	4,756.35	74.6752	4,756.35	68.9543	4,756.35	74.579	4,756.35	69.9121
4,924.8	79.6646	4,924.8	81.286	4,924.8	81.7467	4,924.8	84.0505	4,924.8	82.9613	4,924.8	83.455	4,924.8	84.3102	4,924.8	84.2832	4,924.8	84.0998	4,924.8	84.5586	4,924.8	84.9902	4,924.8	84.1947	4,924.8	84.5758	4,924.8	82.4802	4,924.8	83.1684	4,924.8	81.6468	4,924.8	82.0803	4,924.8	79.6146	4,924.8	80.2765	4,924.8	77.4844	4,924.8	78.9038	4,924.8	76.8805	4,924.8	77.4375	4,924.8	75.5637	4,924.8	75.6268	4,924.8	71.3292	4,924.8	75.4199	4,924.8	73.5465	4,924.8	73.4294	4,924.8	73.0961	4,924.8	73.5463	4,924.8	76.3983	4,924.8	74.1507	4,924.8	66.7805	4,924.8	73.8552	4,924.8	50.4704
5,097.66	80.2877	5,097.66	83.5004	5,097.66	81.1905	5,097.66	84.416	5,097.66	84.5957	5,097.66	85.3443	5,097.66	84.6245	5,097.66	85.0138	5,097.66	84.8551	5,097.66	85.8078	5,097.66	84.6522	5,097.66	84.3537	5,097.66	84.0832	5,097.66	83.6673	5,097.66	83.0932	5,097.66	81.7794	5,097.66	81.7865	5,097.66	80.1951	5,097.66	79.7908	5,097.66	78.6507	5,097.66	78.5492	5,097.66	76.9437	5,097.66	76.7587	5,097.66	74.5837	5,097.66	75.7183	5,097.66	74.0774	5,097.66	74.6918	5,097.66	72.9714	5,097.66	72.1777	5,097.66	72.089	5,097.66	73.3646	5,097.66	74.779	5,097.66	72.4933	5,097.66	70.4705	5,097.66	74.6816	5,097.66	65.8355
5,277.83	81.0401	5,277.83	83.0599	5,277.83	82.6634	5,277.83	85.7303	5,277.83	84.0546	5,277.83	85.3987	5,277.83	85.0979	5,277.83	85.6405	5,277.83	84.418	5,277.83	85.3846	5,277.83	84.6273	5,277.83	84.9226	5,277.83	84.6278	5,277.83	83.9049	5,277.83	83.7434	5,277.83	82.2058	5,277.83	82.1294	5,277.83	80.6163	5,277.83	80.7473	5,277.83	78.6479	5,277.83	78.808	5,277.83	75.8305	5,277.83	78.0083	5,277.83	73.5054	5,277.83	74.6169	5,277.83	72.8482	5,277.83	73.5687	5,277.83	71.4323	5,277.83	71.7121	5,277.83	73.0668	5,277.83	72.1864	5,277.83	74.8724	5,277.83	72.0585	5,277.83	68.9013	5,277.83	71.8484	5,277.83	61.1886
5,463.87	82.567	5,463.87	84.2574	5,463.87	83.2286	5,463.87	85.0145	5,463.87	85.481	5,463.87	85.1412	5,463.87	85.526	5,463.87	84.6967	5,463.87	85.0396	5,463.87	85.1054	5,463.87	84.6828	5,463.87	84.5435	5,463.87	84.4852	5,463.87	83.4051	5,463.87	83.4451	5,463.87	82.0445	5,463.87	82.5087	5,463.87	80.6075	5,463.87	81.0516	5,463.87	77.8696	5,463.87	79.1406	5,463.87	75.825	5,463.87	76.6263	5,463.87	72.4444	5,463.87	72.9437	5,463.87	71.3062	5,463.87	69.9883	5,463.87	71.083	5,463.87	69.1051	5,463.87	73.0526	5,463.87	70.7913	5,463.87	74.547	5,463.87	72.4976	5,463.87	68.5875	5,463.87	72.6455	5,463.87	57.5777
5,657.23	84.2476	5,657.23	84.9104	5,657.23	85.3956	5,657.23	85.9965	5,657.23	86.1043	5,657.23	85.6201	5,657.23	85.9364	5,657.23	84.7331	5,657.23	85.1033	5,657.23	85.1931	5,657.23	84.8848	5,657.23	84.6336	5,657.23	84.7944	5,657.23	83.588	5,657.23	83.8263	5,657.23	81.9193	5,657.23	82.4427	5,657.23	79.551	5,657.23	80.1132	5,657.23	76.9593	5,657.23	78.4189	5,657.23	75.5477	5,657.23	76.1174	5,657.23	71.1612	5,657.23	72.5253	5,657.23	71.6996	5,657.23	72.1146	5,657.23	70.4462	5,657.23	68.7236	5,657.23	72.3194	5,657.23	72.4815	5,657.23	74.9447	5,657.23	72.3545	5,657.23	71.2303	5,657.23	74.1093	5,657.23	55.5667
5,856.45	85.8459	5,856.45	86.4872	5,856.45	86.1207	5,856.45	86.5589	5,856.45	87.1733	5,856.45	85.9157	5,856.45	87.0632	5,856.45	84.9433	5,856.45	85.8437	5,856.45	84.977	5,856.45	85.098	5,856.45	84.0372	5,856.45	84.6677	5,856.45	82.6399	5,856.45	83.4862	5,856.45	81.0498	5,856.45	81.3983	5,856.45	79.2782	5,856.45	79.8433	5,856.45	77.1436	5,856.45	77.5943	5,856.45	75.703	5,856.45	76.8877	5,856.45	73.5191	5,856.45	74.5609	5,856.45	71.8989	5,856.45	72.682	5,856.45	70.4709	5,856.45	69.1444	5,856.45	73.9801	5,856.45	71.2124	5,856.45	75.6152	5,856.45	72.6793	5,856.45	69.8453	5,856.45	73.8426	5,856.45	56.8718
6,062.99	86.6475	6,062.99	86.8066	6,062.99	86.8875	6,062.99	87.2912	6,062.99	87.3803	6,062.99	86.9798	6,062.99	87.3716	6,062.99	85.6731	6,062.99	85.9303	6,062.99	85.0133	6,062.99	84.8317	6,062.99	83.5018	6,062.99	84.1913	6,062.99	82.4778	6,062.99	82.3869	6,062.99	80.0276	6,062.99	80.8751	6,062.99	78.6408	6,062.99	78.5135	6,062.99	76.7757	6,062.99	77.0112	6,062.99	74.3311	6,062.99	76.1789	6,062.99	72.8399	6,062.99	73.2694	6,062.99	71.8346	6,062.99	72.3537	6,062.99	69.4894	6,062.99	70.1456	6,062.99	73.1578	6,062.99	70.8154	6,062.99	75.5497	6,062.99	72.882	6,062.99	69.8312	6,062.99	73.1597	6,062.99	45.2417
6,276.86	87.1514	6,276.86	87.6392	6,276.86	87.1864	6,276.86	87.9124	6,276.86	88.0478	6,276.86	87.5421	6,276.86	87.8683	6,276.86	85.8345	6,276.86	86.4612	6,276.86	85.0051	6,276.86	84.819	6,276.86	83.6592	6,276.86	83.7995	6,276.86	81.7882	6,276.86	82.0295	6,276.86	80.0238	6,276.86	80.8956	6,276.86	78.6032	6,276.86	79.7118	6,276.86	77.0816	6,276.86	77.8205	6,276.86	75.4612	6,276.86	76.7029	6,276.86	73.3137	6,276.86	73.5727	6,276.86	71.6381	6,276.86	70.7683	6,276.86	68.956	6,276.86	68.8734	6,276.86	73.3072	6,276.86	70.3217	6,276.86	75.2783	6,276.86	73.2115	6,276.86	71.3145	6,276.86	73.9287	6,276.86	55.2598
6,498.05	87.9452	6,498.05	88.0952	6,498.05	88.0962	6,498.05	88.2661	6,498.05	88.3149	6,498.05	87.7803	6,498.05	88.0772	6,498.05	85.9155	6,498.05	86.2943	6,498.05	84.5193	6,498.05	84.1831	6,498.05	82.9309	6,498.05	83.3328	6,498.05	81.9803	6,498.05	81.9944	6,498.05	80.5911	6,498.05	81.3087	6,498.05	78.5632	6,498.05	79.701	6,498.05	77.0577	6,498.05	78.0313	6,498.05	75.0615	6,498.05	75.9744	6,498.05	72.4103	6,498.05	73.1947	6,498.05	70.9413	6,498.05	71.1361	6,498.05	67.7632	6,498.05	68.1385	6,498.05	72.1078	6,498.05	69.5329	6,498.05	74.1975	6,498.05	72.4932	6,498.05	71.2822	6,498.05	74.515	6,498.05	59.4456
6,726.56	88.6272	6,726.56	88.5878	6,726.56	88.4663	6,726.56	88.6042	6,726.56	88.5074	6,726.56	87.9218	6,726.56	88.1159	6,726.56	85.6248	6,726.56	86.0834	6,726.56	83.7705	6,726.56	83.7958	6,726.56	83.1939	6,726.56	83.078	6,726.56	82.1479	6,726.56	82.1924	6,726.56	80.4405	6,726.56	81.2587	6,726.56	78.9847	6,726.56	80.3605	6,726.56	77.5337	6,726.56	78.408	6,726.56	75.3074	6,726.56	76.0706	6,726.56	72.553	6,726.56	72.753	6,726.56	70.9594	6,726.56	71.6021	6,726.56	68.1887	6,726.56	68.5488	6,726.56	71.1976	6,726.56	68.7583	6,726.56	74.2219	6,726.56	71.849	6,726.56	71.6268	6,726.56	74.1656	6,726.56	63.5178
6,963.87	89.2218	6,963.87	88.8744	6,963.87	88.8736	6,963.87	88.7059	6,963.87	88.2713	6,963.87	87.9265	6,963.87	87.8651	6,963.87	85.3811	6,963.87	85.7558	6,963.87	83.6921	6,963.87	83.4782	6,963.87	83.0106	6,963.87	82.4212	6,963.87	81.969	6,963.87	82.0883	6,963.87	81.2972	6,963.87	81.5329	6,963.87	79.819	6,963.87	80.4519	6,963.87	78.1091	6,963.87	78.6171	6,963.87	75.5362	6,963.87	75.4602	6,963.87	73.1462	6,963.87	73.3299	6,963.87	71.0169	6,963.87	71.1264	6,963.87	68.7053	6,963.87	68.6239	6,963.87	70.0625	6,963.87	66.8004	6,963.87	73.2017	6,963.87	70.5618	6,963.87	71.6954	6,963.87	73.4331	6,963.87	63.0905
7,209.96	89.8099	7,209.96	89.0766	7,209.96	89.2035	7,209.96	88.9404	7,209.96	88.3017	7,209.96	87.9774	7,209.96	87.6833	7,209.96	85.2286	7,209.96	85.4016	7,209.96	83.8497	7,209.96	83.3193	7,209.96	83.3056	7,209.96	82.8824	7,209.96	82.8827	7,209.96	82.9369	7,209.96	82.2657	7,209.96	82.798	7,209.96	80.1884	7,209.96	81.201	7,209.96	78.5843	7,209.96	78.8166	7,209.96	75.7917	7,209.96	75.9341	7,209.96	73.2362	7,209.96	73.2831	7,209.96	70.2184	7,209.96	69.9445	7,209.96	67.653	7,209.96	68.4301	7,209.96	69.4648	7,209.96	66.2592	7,209.96	72.6446	7,209.96	69.9066	7,209.96	71.1403	7,209.96	73.2219	7,209.96	62.9879
7,464.84	89.8707	7,464.84	89.2744	7,464.84	89.3048	7,464.84	88.8021	7,464.84	88.1898	7,464.84	87.7608	7,464.84	87.2753	7,464.84	85.2144	7,464.84	85.1822	7,464.84	84.2126	7,464.84	83.4452	7,464.84	84.279	7,464.84	83.7344	7,464.84	83.492	7,464.84	83.7716	7,464.84	82.5596	7,464.84	83.0251	7,464.84	80.27	7,464.84	81.0035	7,464.84	78.4729	7,464.84	78.5026	7,464.84	75.6312	7,464.84	74.866	7,464.84	73.1107	7,464.84	72.5294	7,464.84	69.3656	7,464.84	67.9289	7,464.84	66.8407	7,464.84	67.4908	7,464.84	69.151	7,464.84	65.7536	7,464.84	71.9086	7,464.84	68.6096	7,464.84	70.4573	7,464.84	72.6276	7,464.84	62.7423
7,727.05	89.6483	7,727.05	89.138	7,727.05	88.9248	7,727.05	88.4898	7,727.05	88.0714	7,727.05	87.2788	7,727.05	86.8623	7,727.05	85.2139	7,727.05	85.2629	7,727.05	84.2499	7,727.05	84.3446	7,727.05	84.5176	7,727.05	84.3267	7,727.05	84.2683	7,727.05	84.208	7,727.05	82.803	7,727.05	82.8468	7,727.05	79.6986	7,727.05	80.6513	7,727.05	77.422	7,727.05	78.6101	7,727.05	74.2373	7,727.05	74.9836	7,727.05	71.4543	7,727.05	71.8515	7,727.05	67.7616	7,727.05	68.7891	7,727.05	66.6736	7,727.05	65.5923	7,727.05	67.6822	7,727.05	61.1498	7,727.05	70.2112	7,727.05	66.3385	7,727.05	67.9909	7,727.05	71.1566	7,727.05	61.9951
7,999.51	89.3378	7,999.51	89.1514	7,999.51	88.8475	7,999.51	88.0639	7,999.51	87.5067	7,999.51	86.6111	7,999.51	86.2484	7,999.51	85.8028	7,999.51	85.3693	7,999.51	84.5436	7,999.51	85.4029	7,999.51	84.3328	7,999.51	84.4314	7,999.51	83.5198	7,999.51	83.7935	7,999.51	82.1872	7,999.51	82.0591	7,999.51	79.5196	7,999.51	80.1008	7,999.51	76.2164	7,999.51	77.0652	7,999.51	73.7887	7,999.51	73.1638	7,999.51	70.6586	7,999.51	70.2088	7,999.51	66.4986	7,999.51	68.0543	7,999.51	64.8167	7,999.51	64.146	7,999.51	67.0951	7,999.51	62.6215	7,999.51	69.1899	7,999.51	68.0246	7,999.51	66.8354	7,999.51	69.7208	7,999.51	55.1757
8,282.23	89.1643	8,282.23	88.7857	8,282.23	89.0324	8,282.23	87.3958	8,282.23	87.0044	8,282.23	86.1582	8,282.23	85.6768	8,282.23	85.7251	8,282.23	85.5381	8,282.23	84.4119	8,282.23	85.6277	8,282.23	84.1957	8,282.23	83.629	8,282.23	82.7772	8,282.23	83.0043	8,282.23	81.5695	8,282.23	81.3078	8,282.23	78.4557	8,282.23	78.9544	8,282.23	75.6169	8,282.23	75.3264	8,282.23	72.3755	8,282.23	72.1174	8,282.23	69.4161	8,282.23	69.9712	8,282.23	68.395	8,282.23	68.4836	8,282.23	64.4195	8,282.23	64.5269	8,282.23	66.0996	8,282.23	63.0918	8,282.23	67.6757	8,282.23	66.4089	8,282.23	65.1053	8,282.23	68.808	8,282.23	49.6022
8,573.73	89.1857	8,573.73	88.129	8,573.73	89.1605	8,573.73	86.6852	8,573.73	86.8342	8,573.73	85.9704	8,573.73	85.5837	8,573.73	85.4168	8,573.73	86.0722	8,573.73	84.8449	8,573.73	85.7478	8,573.73	83.8096	8,573.73	83.4683	8,573.73	82.0328	8,573.73	82.07	8,573.73	81.0852	8,573.73	79.985	8,573.73	77.2157	8,573.73	77.0059	8,573.73	75.3315	8,573.73	74.0741	8,573.73	72.2764	8,573.73	72.6024	8,573.73	69.7208	8,573.73	69.2505	8,573.73	65.9655	8,573.73	68.258	8,573.73	64.0807	8,573.73	64.1666	8,573.73	66.7075	8,573.73	63.4841	8,573.73	66.9542	8,573.73	66.1116	8,573.73	63.0864	8,573.73	68.9647	8,573.73	45.9728
8,876.95	89.2057	8,876.95	87.9738	8,876.95	88.545	8,876.95	85.9477	8,876.95	86.5439	8,876.95	86.094	8,876.95	85.9081	8,876.95	86.2991	8,876.95	86.4477	8,876.95	85.1693	8,876.95	85.3894	8,876.95	83.7245	8,876.95	83.1243	8,876.95	81.8066	8,876.95	81.8058	8,876.95	80.6219	8,876.95	78.569	8,876.95	76.9228	8,876.95	77.7345	8,876.95	74.7397	8,876.95	74.7347	8,876.95	71.9022	8,876.95	71.1719	8,876.95	68.1453	8,876.95	68.9844	8,876.95	65.6961	8,876.95	68.3828	8,876.95	62.8878	8,876.95	62.4931	8,876.95	64.3462	8,876.95	60.5678	8,876.95	66.5427	8,876.95	67.2175	8,876.95	61.4286	8,876.95	67.2569	8,876.95	54.1644
9,188.96	88.9021	9,188.96	87.6221	9,188.96	88.0576	9,188.96	85.7783	9,188.96	86.2876	9,188.96	86.1716	9,188.96	86.146	9,188.96	86.5122	9,188.96	86.2321	9,188.96	84.7273	9,188.96	84.6985	9,188.96	82.631	9,188.96	81.7094	9,188.96	80.4554	9,188.96	79.9949	9,188.96	79.2708	9,188.96	77.7894	9,188.96	76.3374	9,188.96	76.6204	9,188.96	74.9477	9,188.96	73.5881	9,188.96	72.0163	9,188.96	72.359	9,188.96	69.1563	9,188.96	70.4795	9,188.96	66.1896	9,188.96	67.8157	9,188.96	64.2451	9,188.96	62.9313	9,188.96	61.981	9,188.96	60.8148	9,188.96	64.9614	9,188.96	64.7366	9,188.96	57.4937	9,188.96	65.5775	9,188.96	43.7631
9,514.16	88.1704	9,514.16	86.6986	9,514.16	87.3048	9,514.16	85.4642	9,514.16	85.6697	9,514.16	86.0032	9,514.16	85.8483	9,514.16	86.2194	9,514.16	85.5725	9,514.16	84.3353	9,514.16	84.3004	9,514.16	81.8281	9,514.16	81.2779	9,514.16	79.4729	9,514.16	79.726	9,514.16	78.5386	9,514.16	78.5746	9,514.16	76.2027	9,514.16	77.7533	9,514.16	74.8866	9,514.16	75.6557	9,514.16	71.8406	9,514.16	73.4713	9,514.16	69.0133	9,514.16	71.1791	9,514.16	65.767	9,514.16	66.9328	9,514.16	64.3608	9,514.16	63.3668	9,514.16	61.4061	9,514.16	63.2121	9,514.16	63.8463	9,514.16	64.8381	9,514.16	52.4335	9,514.16	64.9752	9,514.16	54.3015
9,849.61	87.6582	9,849.61	85.5338	9,849.61	86.8015	9,849.61	85.2612	9,849.61	85.0084	9,849.61	85.9606	9,849.61	85.6095	9,849.61	86.079	9,849.61	85.3006	9,849.61	83.651	9,849.61	83.9491	9,849.61	80.7505	9,849.61	80.8797	9,849.61	78.8944	9,849.61	79.733	9,849.61	78.6236	9,849.61	78.7684	9,849.61	76.5131	9,849.61	78.6005	9,849.61	74.3268	9,849.61	76.3247	9,849.61	71.1505	9,849.61	72.135	9,849.61	68.5226	9,849.61	70.6609	9,849.61	65.9835	9,849.61	67.009	9,849.61	62.6992	9,849.61	63.3821	9,849.61	60.222	9,849.61	62.4342	9,849.61	64.8416	9,849.61	65.1236	9,849.61	56.798	9,849.61	63.651	9,849.61	54.9339
10,196.8	87.2895	10,196.8	85.1632	10,196.8	86.7449	10,196.8	85.5603	10,196.8	85.2899	10,196.8	86.2238	10,196.8	85.9808	10,196.8	85.5585	10,196.8	85.6497	10,196.8	82.5841	10,196.8	83.7392	10,196.8	79.6289	10,196.8	80.104	10,196.8	78.8609	10,196.8	79.7841	10,196.8	78.5561	10,196.8	79.2474	10,196.8	76.1513	10,196.8	78.2564	10,196.8	74.2686	10,196.8	75.4693	10,196.8	69.6886	10,196.8	71.4881	10,196.8	67.3239	10,196.8	70.5163	10,196.8	65.4219	10,196.8	65.6953	10,196.8	62.0332	10,196.8	64.6074	10,196.8	59.0004	10,196.8	62.4559	10,196.8	61.9623	10,196.8	63.071	10,196.8	51.7657	10,196.8	60.9609	10,196.8	53.5413
10,555.7	86.9234	10,555.7	85.5582	10,555.7	86.2798	10,555.7	85.6153	10,555.7	85.5222	10,555.7	85.9095	10,555.7	85.7465	10,555.7	84.9256	10,555.7	85.2783	10,555.7	81.5984	10,555.7	83.1409	10,555.7	78.6703	10,555.7	79.2658	10,555.7	78.2022	10,555.7	79.23	10,555.7	77.6572	10,555.7	78.4195	10,555.7	75.1645	10,555.7	76.2693	10,555.7	73.6253	10,555.7	73.9708	10,555.7	70.7427	10,555.7	71.7846	10,555.7	67.7179	10,555.7	68.748	10,555.7	64.0919	10,555.7	64.4398	10,555.7	60.8764	10,555.7	62.5625	10,555.7	56.8329	10,555.7	62.7614	10,555.7	58.9835	10,555.7	60.9924	10,555.7	55.7394	10,555.7	59.6537	10,555.7	51.4974
10,927.7	86.2097	10,927.7	85.6432	10,927.7	85.6757	10,927.7	86.1012	10,927.7	85.8378	10,927.7	85.7681	10,927.7	85.9826	10,927.7	84.1207	10,927.7	84.621	10,927.7	81.0985	10,927.7	81.9286	10,927.7	79.4274	10,927.7	80.6594	10,927.7	79.6001	10,927.7	79.9238	10,927.7	78.7122	10,927.7	78.5682	10,927.7	76.0602	10,927.7	77.5156	10,927.7	72.895	10,927.7	74.7139	10,927.7	69.9025	10,927.7	70.7569	10,927.7	66.4291	10,927.7	66.6505	10,927.7	65.717	10,927.7	63.7994	10,927.7	59.7316	10,927.7	62.9308	10,927.7	57.7959	10,927.7	61.9657	10,927.7	62.6839	10,927.7	60.9661	10,927.7	55.7317	10,927.7	57.517	10,927.7	51.0214
11,313	85.5247	11,313	85.9813	11,313	85.6499	11,313	86.4977	11,313	86.2558	11,313	85.6272	11,313	85.9036	11,313	83.0465	11,313	83.9678	11,313	81.1728	11,313	82.3574	11,313	79.4808	11,313	80.6908	11,313	79.4842	11,313	79.2108	11,313	78.0982	11,313	77.8392	11,313	75.9853	11,313	76.6427	11,313	72.5259	11,313	72.9262	11,313	68.2259	11,313	69.4883	11,313	65.2049	11,313	68.4371	11,313	61.8687	11,313	60.2508	11,313	55.1661	11,313	62.3192	11,313	57.8946	11,313	60.8326	11,313	62.3504	11,313	60.6688	11,313	55.8568	11,313	58.1315	11,313	54.422
11,712.9	84.648	11,712.9	86.21	11,712.9	85.5339	11,712.9	86.6198	11,712.9	86.956	11,712.9	84.9919	11,712.9	85.7269	11,712.9	82.2	11,712.9	83.5591	11,712.9	81.7334	11,712.9	82.8347	11,712.9	80.5918	11,712.9	80.6146	11,712.9	78.3199	11,712.9	79.2728	11,712.9	76.3021	11,712.9	77.3932	11,712.9	75.0124	11,712.9	75.3257	11,712.9	71.8123	11,712.9	73.049	11,712.9	69.4017	11,712.9	70.0142	11,712.9	65.0815	11,712.9	66.315	11,712.9	60.0701	11,712.9	64.2455	11,712.9	56.3969	11,712.9	60.8367	11,712.9	43.4738	11,712.9	56.8532	11,712.9	61.4943	11,712.9	60.6384	11,712.9	56.0257	11,712.9	59.6648	11,712.9	52.5893
12,126	84.735	12,126	86.865	12,126	86.3719	12,126	86.8643	12,126	87.5476	12,126	83.844	12,126	85.6056	12,126	83.4486	12,126	83.0889	12,126	83.2779	12,126	82.8929	12,126	80.7577	12,126	81.7253	12,126	79.0906	12,126	79.5188	12,126	77.1124	12,126	76.6285	12,126	75.0832	12,126	76.5254	12,126	71.6152	12,126	73.6479	12,126	61.0206	12,126	68.5151	12,126	62.4723	12,126	66.0907	12,126	59.7262	12,126	64.0517	12,126	59.9134	12,126	64.0195	12,126	54.2729	12,126	55.7652	12,126	61.2173	12,126	57.1701	12,126	53.8777	12,126	58.2599	12,126	56.8082
12,553.7	86.3823	12,553.7	87.9719	12,553.7	87.4279	12,553.7	86.8812	12,553.7	87.6408	12,553.7	84.2765	12,553.7	84.9947	12,553.7	84.1154	12,553.7	83.5468	12,553.7	82.9783	12,553.7	84.0183	12,553.7	80.3907	12,553.7	81.1066	12,553.7	76.9949	12,553.7	77.5698	12,553.7	76.1337	12,553.7	74.837	12,553.7	73.7732	12,553.7	73.8444	12,553.7	72.098	12,553.7	72.3552	12,553.7	67.2179	12,553.7	68.1414	12,553.7	64.7737	12,553.7	64.429	12,553.7	58.7638	12,553.7	64.8412	12,553.7	60.7955	12,553.7	63.9862	12,553.7	57.1626	12,553.7	52.8328	12,553.7	59.4969	12,553.7	55.7862	12,553.7	49.8871	12,553.7	60.7993	12,553.7	57.5416
12,996.1	88.2984	12,996.1	88.6791	12,996.1	88.6216	12,996.1	86.9055	12,996.1	87.4938	12,996.1	84.6428	12,996.1	84.4395	12,996.1	84.6282	12,996.1	83.8331	12,996.1	83.108	12,996.1	83.4393	12,996.1	79.4102	12,996.1	79.0567	12,996.1	77.3713	12,996.1	75.7491	12,996.1	76.2458	12,996.1	74.5726	12,996.1	74.0183	12,996.1	72.8181	12,996.1	72.279	12,996.1	71.4095	12,996.1	66.824	12,996.1	67.7863	12,996.1	65.0546	12,996.1	62.0533	12,996.1	59.7516	12,996.1	63.0281	12,996.1	60.5845	12,996.1	61.6796	12,996.1	57.2227	12,996.1	50.8752	12,996.1	56.5168	12,996.1	49.9785	12,996.1	46.106	12,996.1	61.0769	12,996.1	58.1064
13,454.6	89.529	13,454.6	88.7762	13,454.6	89.2977	13,454.6	86.6995	13,454.6	87.1672	13,454.6	85.039	13,454.6	85.196	13,454.6	84.6067	13,454.6	84.2949	13,454.6	82.4354	13,454.6	82.9934	13,454.6	78.1393	13,454.6	78.7896	13,454.6	76.5235	13,454.6	76.022	13,454.6	75.0895	13,454.6	74.2597	13,454.6	72.9866	13,454.6	72.4402	13,454.6	71.0293	13,454.6	71.1673	13,454.6	67.1724	13,454.6	67.4413	13,454.6	64.4655	13,454.6	60.2852	13,454.6	62.0109	13,454.6	62.5115	13,454.6	59.6991	13,454.6	61.2339	13,454.6	56.5227	13,454.6	47.5393	13,454.6	55.6361	13,454.6	44.2666	13,454.6	52.1492	13,454.6	59.7772	13,454.6	56.6124
13,929.2	90.105	13,929.2	88.2368	13,929.2	89.5372	13,929.2	86.7087	13,929.2	87.0326	13,929.2	85.1131	13,929.2	85.8442	13,929.2	83.9625	13,929.2	84.2423	13,929.2	80.9427	13,929.2	82.4528	13,929.2	76.5937	13,929.2	77.8031	13,929.2	74.8455	13,929.2	74.4065	13,929.2	73.4898	13,929.2	72.7127	13,929.2	71.5738	13,929.2	69.8725	13,929.2	69.555	13,929.2	68.0698	13,929.2	66.936	13,929.2	65.5568	13,929.2	63.0885	13,929.2	55.9837	13,929.2	60.5966	13,929.2	59.6419	13,929.2	55.7096	13,929.2	56.9966	13,929.2	53.8909	13,929.2	45.3538	13,929.2	52.9778	13,929.2	48.1915	13,929.2	52.2081	13,929.2	56.3118	13,929.2	52.0136
14,419.9	90.3387	14,419.9	88.3049	14,419.9	89.7081	14,419.9	87.0225	14,419.9	87.4805	14,419.9	84.9139	14,419.9	85.8797	14,419.9	83.0268	14,419.9	83.7936	14,419.9	79.1104	14,419.9	81.0647	14,419.9	74.5904	14,419.9	75.4133	14,419.9	72.8777	14,419.9	71.4319	14,419.9	71.3133	14,419.9	70.3454	14,419.9	69.5578	14,419.9	66.9437	14,419.9	66.8812	14,419.9	63.1631	14,419.9	62.4787	14,419.9	61.0156	14,419.9	59.3019	14,419.9	47.8026	14,419.9	56.0118	14,419.9	49.6833	14,419.9	49.4356	14,419.9	49.647	14,419.9	48.9488	14,419.9	45.69	14,419.9	50.2651	14,419.9	47.1284	14,419.9	48.4463	14,419.9	52.7539	14,419.9	49.9847
14,928.2	90.6443	14,928.2	88.8241	14,928.2	89.9927	14,928.2	87.2736	14,928.2	88.0334	14,928.2	84.7505	14,928.2	85.9255	14,928.2	82.1365	14,928.2	83.0764	14,928.2	78.4171	14,928.2	78.9083	14,928.2	73.1936	14,928.2	73.14	14,928.2	71.5032	14,928.2	69.1754	14,928.2	68.92	14,928.2	68.0402	14,928.2	65.5384	14,928.2	63.9768	14,928.2	60.8271	14,928.2	58.3875	14,928.2	57.6453	14,928.2	55.1839	14,928.2	53.0404	14,928.2	49.4339	14,928.2	49.1681	14,928.2	46.8065	14,928.2	45.9652	14,928.2	43.7796	14,928.2	47.5833	14,928.2	46.8743	14,928.2	49.4981	14,928.2	46.9311	14,928.2	47.5206	14,928.2	50.2352	14,928.2	46.968
15,455.6	90.596	15,455.6	88.9592	15,455.6	90.0027	15,455.6	87.2693	15,455.6	88.0337	15,455.6	84.1379	15,455.6	85.5284	15,455.6	80.7887	15,455.6	81.6896	15,455.6	77.0659	15,455.6	77.383	15,455.6	71.4333	15,455.6	72.2697	15,455.6	68.3078	15,455.6	66.5943	15,455.6	65.4595	15,455.6	64.2635	15,455.6	60.6574	15,455.6	59.3746	15,455.6	57.6094	15,455.6	55.7584	15,455.6	52.2552	15,455.6	49.7629	15,455.6	42.7582	15,455.6	52.2322	15,455.6	49.6679	15,455.6	47.837	15,455.6	47.0726	15,455.6	46.7181	15,455.6	39.5488	15,455.6	40.856	15,455.6	49.5748	15,455.6	45.5522	15,455.6	44.6899	15,455.6	47.896	15,455.6	48.2075
16,000.5	89.955	16,000.5	88.3531	16,000.5	89.3732	16,000.5	86.5426	16,000.5	87.4637	16,000.5	82.8035	16,000.5	84.4097	16,000.5	79.2032	16,000.5	80.0833	16,000.5	75.0172	16,000.5	76.053	16,000.5	69.2243	16,000.5	70.3743	16,000.5	66.0331	16,000.5	64.8235	16,000.5	60.9143	16,000.5	58.3433	16,000.5	54.7241	16,000.5	52.2302	16,000.5	52.8517	16,000.5	48.8689	16,000.5	51.9035	16,000.5	49.3167	16,000.5	45.175	16,000.5	50.9852	16,000.5	50.1897	16,000.5	47.0201	16,000.5	47.7665	16,000.5	44.9367	16,000.5	28.7205	16,000.5	33.0778	16,000.5	47.2308	16,000.5	47.6444	16,000.5	37.5207	16,000.5	39.5285	16,000.5	46.7106
16,564.5	88.7545	16,564.5	87.2863	16,564.5	88.4434	16,564.5	85.3898	16,564.5	86.6627	16,564.5	81.2349	16,564.5	83.1538	16,564.5	77.0077	16,564.5	78.7934	16,564.5	73.2667	16,564.5	74.9871	16,564.5	69.6142	16,564.5	69.5401	16,564.5	65.7737	16,564.5	62.3047	16,564.5	59.512	16,564.5	58.7795	16,564.5	56.4378	16,564.5	56.5424	16,564.5	52.8976	16,564.5	52.1516	16,564.5	49.9079	16,564.5	48.1529	16,564.5	48.1758	16,564.5	50.2088	16,564.5	50.2814	16,564.5	41.5753	16,564.5	44.414	16,564.5	46.1551	16,564.5	38.4722	16,564.5	39.5561	16,564.5	48.0515	16,564.5	47.9798	16,564.5	38.901	16,564.5	32.9227	16,564.5	45.6909
17,148.9	87.2726	17,148.9	86.088	17,148.9	87.4131	17,148.9	84.1754	17,148.9	85.6757	17,148.9	79.4992	17,148.9	82.0962	17,148.9	75.5315	17,148.9	77.9114	17,148.9	73.6167	17,148.9	74.2962	17,148.9	68.7532	17,148.9	68.2398	17,148.9	64.1315	17,148.9	59.6081	17,148.9	59.9095	17,148.9	55.9189	17,148.9	56.1716	17,148.9	57.0336	17,148.9	53.3818	17,148.9	51.6478	17,148.9	49.9154	17,148.9	44.8317	17,148.9	48.6602	17,148.9	48.2075	17,148.9	49.4634	17,148.9	40.7919	17,148.9	39.5082	17,148.9	42.8057	17,148.9	38.8267	17,148.9	42.1589	17,148.9	47.1691	17,148.9	49.5631	17,148.9	41.8176	17,148.9	39.9402	17,148.9	44.5845
17,752.4	86.4248	17,752.4	85.5769	17,752.4	86.6554	17,752.4	83.5754	17,752.4	84.7153	17,752.4	78.8143	17,752.4	81.4445	17,752.4	75.355	17,752.4	77.2023	17,752.4	72.6126	17,752.4	72.4419	17,752.4	66.1512	17,752.4	64.4367	17,752.4	59.912	17,752.4	53.7437	17,752.4	55.8699	17,752.4	53.5709	17,752.4	50.4256	17,752.4	56.3287	17,752.4	50.0498	17,752.4	52.1275	17,752.4	51.3298	17,752.4	43.5685	17,752.4	42.5805	17,752.4	35.0921	17,752.4	42.5921	17,752.4	43.4114	17,752.4	34.8023	17,752.4	43.7322	17,752.4	47.3055	17,752.4	39.5587	17,752.4	46.9434	17,752.4	50.2404	17,752.4	41.0302	17,752.4	48.1035	17,752.4	45.3082
18,379.4	86.0225	18,379.4	85.345	18,379.4	85.8907	18,379.4	83.1605	18,379.4	84.0619	18,379.4	78.4628	18,379.4	80.6842	18,379.4	75.3267	18,379.4	75.8545	18,379.4	70.0967	18,379.4	69.5733	18,379.4	62.258	18,379.4	59.7177	18,379.4	55.2301	18,379.4	48.1911	18,379.4	49.1023	18,379.4	48.8597	18,379.4	41.806	18,379.4	52.2393	18,379.4	49.6988	18,379.4	50.1689	18,379.4	49.4745	18,379.4	44.8412	18,379.4	36.796	18,379.4	36.6165	18,379.4	43.765	18,379.4	40.6328	18,379.4	43.4277	18,379.4	41.9001	18,379.4	49.8112	18,379.4	28.8621	18,379.4	52.1096	18,379.4	48.4132	18,379.4	45.9407	18,379.4	49.3818	18,379.4	50.3781
19,026.9	85.4105	19,026.9	84.7946	19,026.9	85.1437	19,026.9	82.6982	19,026.9	83.285	19,026.9	78.0985	19,026.9	79.4636	19,026.9	74.4974	19,026.9	74.0931	19,026.9	66.9112	19,026.9	66.3095	19,026.9	59.1073	19,026.9	53.1227	19,026.9	50.8126	19,026.9	46.463	19,026.9	44.5188	19,026.9	46.1751	19,026.9	49.7546	19,026.9	44.2931	19,026.9	51.3935	19,026.9	43.0863	19,026.9	46.2054	19,026.9	41.169	19,026.9	45.4706	19,026.9	41.0281	19,026.9	47.8712	19,026.9	42.7822	19,026.9	43.318	19,026.9	34.8333	19,026.9	49.2193	19,026.9	40.1899	19,026.9	52.4622	19,026.9	39.4565	19,026.9	51.1106	19,026.9	33.184	19,026.9	48.4428
19,697.8	84.7691	19,697.8	84.0575	19,697.8	84.389	19,697.8	82.1482	19,697.8	82.2108	19,697.8	77.4694	19,697.8	78.1315	19,697.8	72.9619	19,697.8	71.1078	19,697.8	62.2035	19,697.8	60.5063	19,697.8	57.8526	19,697.8	56.0941	19,697.8	49.6981	19,697.8	54.7795	19,697.8	51.6021	19,697.8	54.1714	19,697.8	52.9331	19,697.8	53.3197	19,697.8	53.9576	19,697.8	54.8387	19,697.8	51.9317	19,697.8	35.2222	19,697.8	49.7867	19,697.8	47.1764	19,697.8	50.5396	19,697.8	48.966	19,697.8	40.1631	19,697.8	45.532	19,697.8	50.2821	19,697.8	40.3406	19,697.8	51.3071	19,697.8	38.3629	19,697.8	49.1889	19,697.8	42.8653	19,697.8	46.7745
19,999.5	84.3906	19,999.5	83.7962	19,999.5	84.0291	19,999.5	81.9052	19,999.5	81.7647	19,999.5	76.8088	19,999.5	77.5581	19,999.5	71.4373	19,999.5	68.7895	19,999.5	57.999	19,999.5	54.8098	19,999.5	59.3018	19,999.5	57.6156	19,999.5	42.363	19,999.5	55.1901	19,999.5	50.965	19,999.5	53.2534	19,999.5	52.6192	19,999.5	54.8306	19,999.5	52.6505	19,999.5	57.6936	19,999.5	53.0094	19,999.5	42.5675	19,999.5	53.6277	19,999.5	47.9523	19,999.5	47.6969	19,999.5	43.7271	19,999.5	45.1744	19,999.5	48.8677	19,999.5	44.4233	19,999.5	48.3177	19,999.5	45.049	19,999.5	52.931	19,999.5	53.03	19,999.5	46.4458	19,999.5	48.8754
