"Early Reflections"											
"Floor Bounce"		"Ceiling Bounce"		"Front Wall Bounce"		"Side Wall Bounce"		"Rear Wall Bounce"		"Total Early Reflection"	
"Frequency [Hz]"	"Sound Pessure Level [dB]  / [2.83V 1m] "	"Frequency [Hz]"	"Sound Pessure Level [dB]  / [2.83V 1m] "	"Frequency [Hz]"	"Sound Pessure Level [dB]  / [2.83V 1m] "	"Frequency [Hz]"	"Sound Pessure Level [dB]  / [2.83V 1m] "	"Frequency [Hz]"	"Sound Pessure Level [dB]  / [2.83V 1m] "	"Frequency [Hz]"	"Sound Pessure Level [dB]  / [2.83V 1m] "
20.5078	52.0265	20.5078	46.9788	20.5078	52.4553	20.5078	47.8183	20.5078	58.2809	20.5078	52.3674
21.9727	55.1283	21.9727	50.2372	21.9727	55.1714	21.9727	51.0333	21.9727	59.2495	21.9727	54.5363
23.4375	57.1957	23.4375	53.3906	23.4375	57.2311	23.4375	53.8754	23.4375	60.4797	23.4375	56.5392
24.9023	59.4889	24.9023	56.3918	24.9023	59.5095	24.9023	56.7036	24.9023	61.3747	24.9023	58.6434
26.3672	61.1542	26.3672	58.5448	26.3672	61.1793	26.3672	58.7612	26.3672	62.5547	26.3672	60.3472
27.832	62.6622	27.832	60.4284	27.832	62.6729	27.832	60.6161	27.832	63.8816	27.832	61.9419
29.2969	63.8883	29.2969	62.0752	29.2969	63.9097	29.2969	62.2152	29.2969	65.2867	29.2969	63.347
30.7617	65.4826	30.7617	63.9291	30.7617	65.486	30.7617	64.0557	30.7617	66.551	30.7617	64.9764
32.2266	66.5271	32.2266	65.3314	32.2266	66.5584	32.2266	65.3902	32.2266	67.7894	32.2266	66.1862
33.6914	67.9297	33.6914	66.902	33.6914	67.9519	33.6914	66.9535	33.6914	68.9982	33.6914	67.6231
35.1563	69.1951	35.1563	68.3002	35.1563	69.2124	35.1563	68.3508	35.1563	70.1249	35.1563	68.9226
36.6211	70.2016	36.6211	69.4488	36.6211	70.2241	36.6211	69.476	36.6211	71.1395	36.6211	69.9865
38.0859	71.1455	38.0859	70.5548	38.0859	71.1795	38.0859	70.5434	38.0859	72.1337	38.0859	71.0003
39.5508	72.3696	39.5508	71.748	39.5508	72.3728	39.5508	71.7114	39.5508	73.0022	39.5508	72.1414
41.0156	73.3332	41.0156	72.9038	41.0156	73.3443	41.0156	72.8536	41.0156	74.1231	41.0156	73.2127
42.4805	74.3329	42.4805	73.9787	42.4805	74.3684	42.4805	73.8724	42.4805	74.9899	42.4805	74.2155
43.9453	75.163	43.9453	74.8664	43.9453	75.2071	43.9453	74.7643	43.9453	75.7346	43.9453	75.0647
45.4102	75.9977	45.4102	75.7483	45.4102	76.0411	45.4102	75.6475	45.4102	76.5643	45.4102	75.9212
46.875	76.7562	46.875	76.5363	46.875	76.8016	46.875	76.4451	46.875	77.3475	46.875	76.701
48.3398	77.4382	48.3398	77.3432	48.3398	77.4722	48.3398	77.262	48.3398	78.2079	48.3398	77.4672
51.2695	78.9344	51.2695	78.9403	51.2695	78.9855	51.2695	78.8312	51.2695	79.5631	51.2695	78.9875
52.7344	79.5624	52.7344	79.6295	52.7344	79.6245	52.7344	79.5022	52.7344	80.1646	52.7344	79.6379
54.1992	80.1927	54.1992	80.3195	54.1992	80.2637	54.1992	80.1794	54.1992	80.8009	54.1992	80.2958
55.6641	80.7841	55.6641	80.9739	55.6641	80.8666	55.6641	80.8163	55.6641	81.3839	55.6641	80.9136
58.5938	81.8508	58.5938	82.1022	58.5938	81.944	58.5938	81.9332	58.5938	82.3934	58.5938	82.002
60.0586	82.3216	60.0586	82.5847	60.0586	82.4142	60.0586	82.4208	60.0586	82.8262	60.0586	82.4757
62.9883	83.1371	62.9883	83.4482	62.9883	83.2331	62.9883	83.28	62.9883	83.6203	62.9883	83.3117
64.4531	83.5191	64.4531	83.8965	64.4531	83.6278	64.4531	83.7079	64.4531	84.0231	64.4531	83.7252
67.3828	84.0698	67.3828	84.4851	67.3828	84.1818	67.3828	84.2941	67.3828	84.5493	67.3828	84.2919
68.8477	84.2827	68.8477	84.7079	68.8477	84.3958	68.8477	84.5177	68.8477	84.7377	68.8477	84.5074
71.7773	84.7173	71.7773	85.1706	71.7773	84.8306	71.7773	84.9822	71.7773	85.1631	71.7773	84.9559
74.707	85.1335	74.707	85.626	74.707	85.2559	74.707	85.4171	74.707	85.5409	74.707	85.3819
77.6367	85.3538	77.6367	85.8944	77.6367	85.4897	77.6367	85.6697	77.6367	85.75	77.6367	85.6228
79.1016	85.4237	79.1016	85.9767	79.1016	85.5659	79.1016	85.7467	79.1016	85.7956	79.1016	85.6957
82.0313	85.6273	82.0313	86.2016	82.0313	85.7794	82.0313	85.9549	82.0313	85.937	82.0313	85.899
84.9609	85.793	84.9609	86.3598	84.9609	85.9329	84.9609	86.1257	84.9609	86.0968	84.9609	86.062
87.8906	85.8037	87.8906	86.3537	87.8906	85.9239	87.8906	86.1532	87.8906	86.1622	87.8906	86.0784
90.8203	85.5569	90.8203	86.1564	90.8203	85.6617	90.8203	85.9894	90.8203	86.1514	90.8203	85.8946
95.2148	86.0698	95.2148	86.8054	95.2148	86.3209	95.2148	86.4247	95.2148	86.0881	95.2148	86.3659
98.1445	85.8342	98.1445	86.5059	98.1445	86.0133	98.1445	86.2383	98.1445	86.104	98.1445	86.1504
101.074	85.7864	101.074	86.5021	101.074	85.9923	101.074	86.1854	101.074	86.0004	101.074	86.1069
105.469	85.6998	105.469	86.4506	105.469	85.9133	105.469	86.1255	105.469	85.9751	105.469	86.0441
108.398	85.8069	108.398	86.5666	108.398	86.0432	108.398	86.2094	108.398	85.9652	108.398	86.1361
112.793	86.0273	112.793	86.731	112.793	86.2402	112.793	86.3905	112.793	86.1409	112.793	86.3229
117.188	86.0556	117.188	86.7261	117.188	86.2558	117.188	86.3791	117.188	86.1328	117.188	86.3241
120.117	86.3311	120.117	87.0895	120.117	86.5955	120.117	86.6277	120.117	86.2628	120.117	86.6017
124.512	86.2156	124.512	86.9293	124.512	86.4926	124.512	86.5569	124.512	86.081	124.512	86.4942
128.906	86.038	128.906	86.6801	128.906	86.278	128.906	86.2891	128.906	85.683	128.906	86.2396
133.301	86.0243	133.301	86.7269	133.301	86.249	133.301	86.31	133.301	85.7853	133.301	86.2549
139.16	85.548	139.16	86.2614	139.16	85.7508	139.16	85.9448	139.16	85.6933	139.16	85.8588
143.555	85.4456	143.555	86.1693	143.555	85.682	143.555	85.8141	143.555	85.5987	143.555	85.7564
147.949	85.4539	147.949	86.0414	147.949	85.678	147.949	85.6991	147.949	85.3868	147.949	85.6722
153.809	85.6847	153.809	86.1389	153.809	85.907	153.809	85.7755	153.809	85.124	153.809	85.775
159.668	85.7564	159.668	86.1787	159.668	85.9551	159.668	85.8268	159.668	85.0256	159.668	85.8117
165.527	85.4853	165.527	86.0564	165.527	85.7235	165.527	85.6871	165.527	85.0643	165.527	85.6516
171.387	84.9429	171.387	85.7437	171.387	85.2513	171.387	85.2694	171.387	84.9454	171.387	85.25
177.246	84.4764	177.246	85.2276	177.246	84.7548	177.246	84.7396	177.246	84.7275	177.246	84.7723
183.105	84.5449	183.105	84.9447	183.105	84.8067	183.105	84.4415	183.105	84.4085	183.105	84.6106
188.965	84.9094	188.965	85.21	188.965	85.2642	188.965	84.7171	188.965	83.9874	188.965	84.8765
196.289	85.1314	196.289	85.6153	196.289	85.5299	196.289	84.963	196.289	84.1147	196.289	85.1347
203.613	84.9226	203.613	85.2186	203.613	85.286	203.613	84.5994	203.613	83.6625	203.613	84.8126
210.938	84.9781	210.938	85.153	210.938	85.3143	210.938	84.5677	210.938	83.4301	210.938	84.7878
218.262	84.861	218.262	85.098	218.262	85.2063	218.262	84.4779	218.262	83.3468	218.262	84.6942
225.586	84.72	225.586	84.8725	225.586	85.0732	225.586	84.225	225.586	83.2093	225.586	84.5045
232.91	84.9681	232.91	84.9732	232.91	85.3363	232.91	84.2558	232.91	82.7854	232.91	84.6069
241.699	85.0946	241.699	84.973	241.699	85.3812	241.699	84.4109	241.699	82.8541	241.699	84.6977
250.488	85.0715	250.488	84.7542	250.488	85.3249	250.488	84.265	250.488	82.5678	250.488	84.5766
259.277	85.1066	259.277	84.8861	259.277	85.3861	259.277	84.4005	259.277	82.6733	259.277	84.673
268.066	84.6866	268.066	84.4587	268.066	84.9248	268.066	83.9627	268.066	82.4105	268.066	84.2443
276.855	84.6137	276.855	84.431	276.855	84.9805	276.855	83.9638	276.855	82.105	276.855	84.2274
287.109	84.4311	287.109	84.4152	287.109	84.8716	287.109	83.7079	287.109	81.9955	287.109	84.068
297.363	84.4029	297.363	84.1549	297.363	84.7728	297.363	83.3214	297.363	81.3779	297.363	83.8223
307.617	84.615	307.617	84.3262	307.617	84.9654	307.617	83.945	307.617	81.7442	307.617	84.1786
319.336	84.2948	319.336	84.0877	319.336	84.7116	319.336	83.4981	319.336	81.4386	319.336	83.8453
329.59	84.5505	329.59	84.2175	329.59	84.9124	329.59	83.7868	329.59	81.5404	329.59	84.0695
341.309	84.1139	341.309	83.7046	341.309	84.3335	341.309	83.3076	341.309	81.5307	341.309	83.5916
353.027	83.9774	353.027	83.3049	353.027	84.358	353.027	82.8449	353.027	80.6708	353.027	83.3139
366.211	84.0429	366.211	83.2409	366.211	84.4521	366.211	83.0246	366.211	80.6219	366.211	83.4073
379.395	84.4837	379.395	83.9193	379.395	85.0072	379.395	83.8075	379.395	81.1309	379.395	84.0401
392.578	84.0468	392.578	83.3911	392.578	84.4032	392.578	83.3577	392.578	81.1319	392.578	83.5602
405.762	83.493	405.762	82.6024	405.762	83.9308	405.762	82.5674	405.762	80.7366	405.762	82.9335
420.41	84.0029	420.41	82.814	420.41	84.508	420.41	82.9664	420.41	80.2766	420.41	83.335
435.059	83.7055	435.059	82.9282	435.059	84.2522	435.059	83.1549	435.059	81.0874	435.059	83.3395
451.172	83.9173	451.172	82.3764	451.172	84.5689	451.172	82.8116	451.172	80.3342	451.172	83.2514
465.82	84.1479	465.82	82.9446	465.82	84.8373	465.82	83.3419	465.82	80.6894	465.82	83.6413
483.398	83.5005	483.398	82.3084	483.398	84.1304	483.398	82.8698	483.398	80.7684	483.398	83.0835
499.512	83.9687	499.512	82.4737	499.512	84.6436	499.512	83.109	499.512	80.8849	499.512	83.4328
517.09	83.9951	517.09	82.5862	517.09	84.743	517.09	83.2988	517.09	81.1991	517.09	83.5706
536.133	83.5497	536.133	81.8194	536.133	84.6894	536.133	82.7203	536.133	81.075	536.133	83.2153
555.176	83.8633	555.176	82.0413	555.176	84.9384	555.176	83.0972	555.176	80.9326	555.176	83.4882
574.219	83.6695	574.219	81.5308	574.219	84.5456	574.219	82.6228	574.219	81.011	574.219	83.1149
594.727	83.387	594.727	81.6188	594.727	84.4386	594.727	82.2956	594.727	81.5097	594.727	82.9737
615.234	84.2853	615.234	81.7291	615.234	85.2464	615.234	81.3875	615.234	80.3811	615.234	83.0915
637.207	84.61	637.207	82.1949	637.207	85.763	637.207	82.1631	637.207	79.2292	637.207	83.5588
659.18	85.4513	659.18	83.3645	659.18	86.8213	659.18	83.5223	659.18	79.5245	659.18	84.6524
682.617	84.7721	682.617	83.8391	682.617	86.6189	682.617	84.0689	682.617	80.5123	682.617	84.7318
707.52	84.8114	707.52	84.1965	707.52	86.5151	707.52	83.5764	707.52	79.3352	707.52	84.5251
732.422	84.2986	732.422	84.5441	732.422	86.2835	732.422	83.7367	732.422	78.9473	732.422	84.445
757.324	83.5254	757.324	83.694	757.324	85.6547	757.324	83.3254	757.324	78.958	757.324	83.8699
785.156	83.5796	785.156	83.891	785.156	85.3304	785.156	82.8601	785.156	78.038	785.156	83.5812
811.523	83.5135	811.523	83.6129	811.523	85.1884	811.523	82.3568	811.523	77.7844	811.523	83.3131
840.82	83.1329	840.82	83.1392	840.82	85.1936	840.82	81.8164	840.82	77.0544	840.82	83.0281
870.117	83.0595	870.117	83.2427	870.117	84.9107	870.117	81.7462	870.117	77.0501	870.117	82.8878
900.879	83.0855	900.879	82.881	900.879	85.4035	900.879	81.5482	900.879	76.0751	900.879	82.9867
933.105	83.2678	933.105	82.1521	933.105	85.1914	933.105	81.9899	933.105	75.9437	933.105	82.9612
965.332	83.7894	965.332	82.2039	965.332	85.7194	965.332	82.7992	965.332	75.9396	965.332	83.5229
1,000.49	83.6692	1,000.49	81.1579	1,000.49	85.4316	1,000.49	82.0789	1,000.49	75.5847	1,000.49	83.0579
1,035.64	83.1822	1,035.64	82.2056	1,035.64	85.1857	1,035.64	81.9529	1,035.64	74.1756	1,035.64	82.9083
1,072.27	84.0357	1,072.27	82.353	1,072.27	85.0333	1,072.27	82.6734	1,072.27	76.2714	1,072.27	83.2412
1,108.89	85.4167	1,108.89	83.1327	1,108.89	85.7584	1,108.89	81.7392	1,108.89	78.0209	1,108.89	83.6173
1,148.44	85.5045	1,148.44	83.1974	1,148.44	86.0571	1,148.44	81.9154	1,148.44	77.258	1,148.44	83.7948
1,189.45	85.1427	1,189.45	83.3577	1,189.45	85.646	1,189.45	81.7609	1,189.45	76.6071	1,189.45	83.5117
1,230.47	85.7504	1,230.47	83.4558	1,230.47	85.7335	1,230.47	81.8552	1,230.47	77.0519	1,230.47	83.7024
1,274.41	85.8247	1,274.41	83.1575	1,274.41	85.9707	1,274.41	82.019	1,274.41	76.5255	1,274.41	83.8177
1,319.82	85.4581	1,319.82	82.6305	1,319.82	85.2084	1,319.82	81.3693	1,319.82	76.2948	1,319.82	83.1941
1,366.7	85.5526	1,366.7	81.1028	1,366.7	84.9287	1,366.7	80.9935	1,366.7	75.461	1,366.7	82.8436
1,413.57	84.9822	1,413.57	80.8453	1,413.57	84.7851	1,413.57	80.6758	1,413.57	74.7252	1,413.57	82.5466
1,463.38	84.268	1,463.38	81.1389	1,463.38	84.8837	1,463.38	80.7568	1,463.38	74.4806	1,463.38	82.4977
1,516.11	84.0873	1,516.11	81.5795	1,516.11	84.8688	1,516.11	81.1028	1,516.11	74.9918	1,516.11	82.6007
1,568.85	83.8561	1,568.85	79.8659	1,568.85	84.7004	1,568.85	81.0724	1,568.85	74.9945	1,568.85	82.3443
1,624.51	84.1742	1,624.51	78.9371	1,624.51	85.3131	1,624.51	80.8202	1,624.51	74.0749	1,624.51	82.5554
1,681.64	83.8771	1,681.64	78.8742	1,681.64	84.8521	1,681.64	80.4981	1,681.64	73.8909	1,681.64	82.1835
1,741.7	82.4467	1,741.7	77.8917	1,741.7	84.6462	1,741.7	79.7173	1,741.7	72.9837	1,741.7	81.589
1,803.22	81.9806	1,803.22	77.1078	1,803.22	85.3355	1,803.22	80.312	1,803.22	73.0448	1,803.22	82.0348
1,866.21	80.7031	1,866.21	77.0047	1,866.21	85.2561	1,866.21	80.2202	1,866.21	72.4232	1,866.21	81.8225
1,932.13	80.4542	1,932.13	73.9191	1,932.13	84.5176	1,932.13	79.3736	1,932.13	70.6992	1,932.13	81.0207
1,999.51	79.3973	1,999.51	73.4796	1,999.51	84.4663	1,999.51	79.4276	1,999.51	71.1361	1,999.51	80.9032
2,069.82	78.0444	2,069.82	74.2721	2,069.82	85.2707	2,069.82	80.2815	2,069.82	72.402	2,069.82	81.5866
2,143.07	77.1955	2,143.07	74.6038	2,143.07	85.6223	2,143.07	80.1172	2,143.07	72.463	2,143.07	81.7372
2,219.24	76.8148	2,219.24	73.8587	2,219.24	84.6881	2,219.24	79.3055	2,219.24	69.8508	2,219.24	80.8449
2,296.88	75.4822	2,296.88	72.8806	2,296.88	84.755	2,296.88	79.1358	2,296.88	71.4422	2,296.88	80.7887
2,378.91	75.0326	2,378.91	75.9533	2,378.91	86.1729	2,378.91	80.0462	2,378.91	71.8738	2,378.91	82.0522
2,462.4	75.4396	2,462.4	76.4573	2,462.4	85.8448	2,462.4	80.0423	2,462.4	71.9402	2,462.4	81.8526
2,548.83	75.8743	2,548.83	76.3617	2,548.83	85.0521	2,548.83	79.6818	2,548.83	72.0821	2,548.83	81.246
2,639.65	76.2113	2,639.65	77.09	2,639.65	85.0943	2,639.65	79.8914	2,639.65	72.0394	2,639.65	81.3701
2,731.93	76.15	2,731.93	76.7321	2,731.93	85.3107	2,731.93	80.0615	2,731.93	71.6735	2,731.93	81.5336
2,828.61	76.7436	2,828.61	76.2831	2,828.61	85.2901	2,828.61	80.612	2,828.61	72.4422	2,828.61	81.6932
2,928.22	77.1813	2,928.22	77.3374	2,928.22	85.3619	2,928.22	80.4341	2,928.22	72.2617	2,928.22	81.7395
3,030.76	78.1127	3,030.76	78.1596	3,030.76	84.8808	3,030.76	79.2294	3,030.76	70.9932	3,030.76	81.1898
3,137.7	79.28	3,137.7	79.3885	3,137.7	85.0259	3,137.7	79.1768	3,137.7	70.2989	3,137.7	81.4146
3,249.02	79.5426	3,249.02	80.3776	3,249.02	84.4667	3,249.02	78.5641	3,249.02	69.9539	3,249.02	81.0396
3,363.28	79.5264	3,363.28	81.8514	3,363.28	84.3447	3,363.28	78.4896	3,363.28	70.1215	3,363.28	81.1255
3,481.93	80.2017	3,481.93	82.5698	3,481.93	83.9477	3,481.93	79.1949	3,481.93	71.2221	3,481.93	81.2463
3,604.98	80.5738	3,604.98	81.5392	3,604.98	83.7631	3,604.98	80.3379	3,604.98	72.316	3,604.98	81.3733
3,732.42	80.6446	3,732.42	80.9978	3,732.42	83.8856	3,732.42	79.8793	3,732.42	71.2795	3,732.42	81.2297
3,864.26	80.9028	3,864.26	80.8366	3,864.26	84.4976	3,864.26	79.9354	3,864.26	71.0318	3,864.26	81.5652
4,000.49	81.0686	4,000.49	80.62	4,000.49	84.6241	4,000.49	79.9864	4,000.49	71.474	4,000.49	81.6467
4,141.11	81.8462	4,141.11	80.7726	4,141.11	85.4328	4,141.11	80.3029	4,141.11	71.493	4,141.11	82.2625
4,287.6	82.4634	4,287.6	81.1789	4,287.6	85.5821	4,287.6	80.3359	4,287.6	71.3493	4,287.6	82.4542
4,438.48	82.439	4,438.48	81.1777	4,438.48	86.5646	4,438.48	79.8269	4,438.48	68.9921	4,438.48	82.9071
4,595.21	82.217	4,595.21	81.1273	4,595.21	87.2878	4,595.21	79.5575	4,595.21	69.8056	4,595.21	83.3082
4,756.35	82.0172	4,756.35	81.6699	4,756.35	87.5752	4,756.35	78.6197	4,756.35	68.8728	4,756.35	83.3892
4,924.8	81.6663	4,924.8	81.5084	4,924.8	86.9036	4,924.8	78.4616	4,924.8	68.913	4,924.8	82.8584
5,097.66	81.5727	5,097.66	81.0477	5,097.66	86.1286	5,097.66	78.118	5,097.66	69.5293	5,097.66	82.2436
5,277.83	82.1239	5,277.83	80.8125	5,277.83	85.2883	5,277.83	78.5821	5,277.83	69.387	5,277.83	81.8316
5,463.87	82.5224	5,463.87	80.6587	5,463.87	84.7355	5,463.87	78.6806	5,463.87	69.3426	5,463.87	81.5697
5,657.23	82.0653	5,657.23	80.507	5,657.23	84.805	5,657.23	78.4713	5,657.23	68.7806	5,657.23	81.4876
5,856.45	82.0259	5,856.45	80.6875	5,856.45	84.7915	5,856.45	79.0354	5,856.45	69.0465	5,856.45	81.6074
6,062.99	82.8444	6,062.99	80.798	6,062.99	84.5971	6,062.99	79.771	6,062.99	68.0677	6,062.99	81.7869
6,276.86	82.8896	6,276.86	80.8502	6,276.86	84.8219	6,276.86	80.1978	6,276.86	68.5061	6,276.86	82.0212
6,498.05	83.2278	6,498.05	80.8914	6,498.05	85.1006	6,498.05	79.8166	6,498.05	69.4218	6,498.05	82.1337
6,726.56	82.8916	6,726.56	80.8802	6,726.56	84.9128	6,726.56	79.5074	6,726.56	70.0129	6,726.56	81.918
6,963.87	82.6671	6,963.87	80.8677	6,963.87	84.4193	6,963.87	79.2885	6,963.87	69.2967	6,963.87	81.5694
7,209.96	82.6278	7,209.96	81.2375	7,209.96	84.4897	7,209.96	79.0205	7,209.96	68.7321	7,209.96	81.5755
7,464.84	82.2524	7,464.84	80.9913	7,464.84	84.0538	7,464.84	78.9251	7,464.84	69.0808	7,464.84	81.2487
7,727.05	81.8521	7,727.05	80.9572	7,727.05	83.8855	7,727.05	78.6686	7,727.05	68.1722	7,727.05	81.0377
7,999.51	81.6086	7,999.51	81.0124	7,999.51	84.0326	7,999.51	78.5365	7,999.51	67.5507	7,999.51	81.0561
8,282.23	81.9166	8,282.23	80.9111	8,282.23	84.2882	8,282.23	78.8655	8,282.23	67.8333	8,282.23	81.2956
8,573.73	81.9799	8,573.73	80.8758	8,573.73	84.514	8,573.73	79.3292	8,573.73	68.2997	8,573.73	81.5284
8,876.95	82.2131	8,876.95	81.1217	8,876.95	84.6266	8,876.95	79.2128	8,876.95	68.2012	8,876.95	81.6172
9,188.96	82.0416	9,188.96	81.2374	9,188.96	84.4879	9,188.96	78.6427	9,188.96	67.0126	9,188.96	81.4048
9,514.16	81.9333	9,514.16	81.5812	9,514.16	84.6688	9,514.16	78.2035	9,514.16	66.4978	9,514.16	81.4441
9,849.61	81.8907	9,849.61	81.8148	9,849.61	84.8125	9,849.61	77.742	9,849.61	65.7567	9,849.61	81.4675
10,196.8	82.0379	10,196.8	81.5584	10,196.8	85.1373	10,196.8	77.5287	10,196.8	64.4314	10,196.8	81.6116
10,555.7	82.0018	10,555.7	81.0021	10,555.7	85.6705	10,555.7	77.6722	10,555.7	63.8027	10,555.7	81.9022
10,927.7	82.0964	10,927.7	80.5763	10,927.7	86.1851	10,927.7	77.8014	10,927.7	64.1827	10,927.7	82.2326
11,313	82.1811	11,313	80.3956	11,313	86.3539	11,313	77.4335	11,313	63.1199	11,313	82.2923
11,712.9	81.8415	11,712.9	80.339	11,712.9	86.0446	11,712.9	76.8366	11,712.9	62.2305	11,712.9	81.9633
12,126	81.1492	12,126	79.7547	12,126	85.8958	12,126	76.3053	12,126	61.5149	12,126	81.6783
12,553.7	80.5518	12,553.7	78.727	12,553.7	86.3487	12,553.7	76.3773	12,553.7	61.1339	12,553.7	81.895
12,996.1	79.8037	12,996.1	77.6658	12,996.1	86.6105	12,996.1	76.1197	12,996.1	59.096	12,996.1	81.958
13,454.6	79.0564	13,454.6	76.466	13,454.6	86.4217	13,454.6	75.1638	13,454.6	57.326	13,454.6	81.6198
13,929.2	78.646	13,929.2	75.2584	13,929.2	86.0578	13,929.2	73.4412	13,929.2	53.9046	13,929.2	81.1215
14,419.9	78.0827	14,419.9	74.1636	14,419.9	85.7478	14,419.9	71.5329	14,419.9	44.4227	14,419.9	80.6834
14,928.2	77.2335	14,928.2	73.1608	14,928.2	85.6405	14,928.2	69.5396	14,928.2	54.351	14,928.2	80.4395
15,455.6	76.3096	15,455.6	71.6083	15,455.6	85.3967	15,455.6	67.5915	15,455.6	56.3376	15,455.6	80.0921
16,000.5	76.5212	16,000.5	71.7166	16,000.5	84.7612	16,000.5	68.3041	16,000.5	59.8323	16,000.5	79.5516
16,564.5	77.6955	16,564.5	74.2639	16,564.5	84.7233	16,564.5	68.5936	16,564.5	59.6157	16,564.5	79.6679
17,148.9	77.6488	17,148.9	74.2259	17,148.9	84.8949	17,148.9	68.1596	17,148.9	56.8557	17,148.9	79.7975
17,752.4	76.7041	17,752.4	72.7799	17,752.4	84.9291	17,752.4	66.8896	17,752.4	57.7045	17,752.4	79.6987
18,379.4	75.6764	18,379.4	72.0225	18,379.4	84.3516	18,379.4	67.399	18,379.4	58.4327	18,379.4	79.1183
19,026.9	74.8353	19,026.9	72.3068	19,026.9	83.4037	19,026.9	67.8483	19,026.9	58.8546	19,026.9	78.2516
19,697.8	74.5885	19,697.8	71.6021	19,697.8	82.6854	19,697.8	68.8531	19,697.8	57.3715	19,697.8	77.632
19,999.5	74.8536	19,999.5	71.1006	19,999.5	82.2187	19,999.5	69.1718	19,999.5	57.2393	19,999.5	77.2532
