"SPL Vertical"																																																																							
"On-Axis"		"10°"		"-10°"		"20°"		"-20°"		"30°"		"-30°"		"40°"		"-40°"		"50°"		"-50°"		"60°"		"-60°"		"70°"		"-70°"		"80°"		"-80°"		"90°"		"-90°"		"100°"		"-100°"		"110°"		"-110°"		"120°"		"-120°"		"130°"		"-130°"		"140°"		"-140°"		"150°"		"-150°"		"160°"		"-160°"		"170°"		"-170°"		"180°"	
"Frequency [Hz]"	"Sound Pessure Level [dB]  / [2.83V 1m] "	"Frequency [Hz]"	"Sound Pessure Level [dB]  / [2.83V 1m] "	"Frequency [Hz]"	"Sound Pessure Level [dB]  / [2.83V 1m] "	"Frequency [Hz]"	"Sound Pessure Level [dB]  / [2.83V 1m] "	"Frequency [Hz]"	"Sound Pessure Level [dB]  / [2.83V 1m] "	"Frequency [Hz]"	"Sound Pessure Level [dB]  / [2.83V 1m] "	"Frequency [Hz]"	"Sound Pessure Level [dB]  / [2.83V 1m] "	"Frequency [Hz]"	"Sound Pessure Level [dB]  / [2.83V 1m] "	"Frequency [Hz]"	"Sound Pessure Level [dB]  / [2.83V 1m] "	"Frequency [Hz]"	"Sound Pessure Level [dB]  / [2.83V 1m] "	"Frequency [Hz]"	"Sound Pessure Level [dB]  / [2.83V 1m] "	"Frequency [Hz]"	"Sound Pessure Level [dB]  / [2.83V 1m] "	"Frequency [Hz]"	"Sound Pessure Level [dB]  / [2.83V 1m] "	"Frequency [Hz]"	"Sound Pessure Level [dB]  / [2.83V 1m] "	"Frequency [Hz]"	"Sound Pessure Level [dB]  / [2.83V 1m] "	"Frequency [Hz]"	"Sound Pessure Level [dB]  / [2.83V 1m] "	"Frequency [Hz]"	"Sound Pessure Level [dB]  / [2.83V 1m] "	"Frequency [Hz]"	"Sound Pessure Level [dB]  / [2.83V 1m] "	"Frequency [Hz]"	"Sound Pessure Level [dB]  / [2.83V 1m] "	"Frequency [Hz]"	"Sound Pessure Level [dB]  / [2.83V 1m] "	"Frequency [Hz]"	"Sound Pessure Level [dB]  / [2.83V 1m] "	"Frequency [Hz]"	"Sound Pessure Level [dB]  / [2.83V 1m] "	"Frequency [Hz]"	"Sound Pessure Level [dB]  / [2.83V 1m] "	"Frequency [Hz]"	"Sound Pessure Level [dB]  / [2.83V 1m] "	"Frequency [Hz]"	"Sound Pessure Level [dB]  / [2.83V 1m] "	"Frequency [Hz]"	"Sound Pessure Level [dB]  / [2.83V 1m] "	"Frequency [Hz]"	"Sound Pessure Level [dB]  / [2.83V 1m] "	"Frequency [Hz]"	"Sound Pessure Level [dB]  / [2.83V 1m] "	"Frequency [Hz]"	"Sound Pessure Level [dB]  / [2.83V 1m] "	"Frequency [Hz]"	"Sound Pessure Level [dB]  / [2.83V 1m] "	"Frequency [Hz]"	"Sound Pessure Level [dB]  / [2.83V 1m] "	"Frequency [Hz]"	"Sound Pessure Level [dB]  / [2.83V 1m] "	"Frequency [Hz]"	"Sound Pessure Level [dB]  / [2.83V 1m] "	"Frequency [Hz]"	"Sound Pessure Level [dB]  / [2.83V 1m] "	"Frequency [Hz]"	"Sound Pessure Level [dB]  / [2.83V 1m] "	"Frequency [Hz]"	"Sound Pessure Level [dB]  / [2.83V 1m] "
20.5078	53.1173	20.5078	52.7441	20.5078	53.1333	20.5078	51.9687	20.5078	52.8023	20.5078	50.7047	20.5078	52.1037	20.5078	48.8294	20.5078	50.9835	20.5078	46.369	20.5078	49.3621	20.5078	44.7583	20.5078	47.2339	20.5078	46.8271	20.5078	45.2981	20.5078	50.3925	20.5078	45.8596	20.5078	53.4744	20.5078	48.8056	20.5078	55.9251	20.5078	51.8731	20.5078	57.8686	20.5078	54.437	20.5078	59.4066	20.5078	56.5209	20.5078	60.6038	20.5078	58.2141	20.5078	61.5002	20.5078	59.5844	20.5078	62.1207	20.5078	60.675	20.5078	62.4821	20.5078	61.5116	20.5078	62.5957	20.5078	62.108	20.5078	62.4695
21.9727	55.7191	21.9727	55.3113	21.9727	55.828	21.9727	54.5655	21.9727	55.6557	21.9727	53.4194	21.9727	55.2006	21.9727	51.8078	21.9727	54.4434	21.9727	49.8199	21.9727	53.3519	21.9727	48.4057	21.9727	51.9059	21.9727	49.4993	21.9727	50.2206	21.9727	52.345	21.9727	48.9534	21.9727	55.166	21.9727	49.4221	21.9727	57.5122	21.9727	51.5834	21.9727	59.3963	21.9727	54.1182	21.9727	60.8846	21.9727	56.3993	21.9727	62.0291	21.9727	58.3215	21.9727	62.8641	21.9727	59.9074	21.9727	63.4115	21.9727	61.1926	21.9727	63.6857	21.9727	62.203	21.9727	63.6968	21.9727	62.9538	21.9727	63.4516
23.4375	57.6995	23.4375	57.3501	23.4375	57.7945	23.4375	56.7235	23.4375	57.6471	23.4375	55.7923	23.4375	57.2583	23.4375	54.553	23.4375	56.6206	23.4375	53.141	23.4375	55.7246	23.4375	52.135	23.4375	54.5846	23.4375	52.5566	23.4375	53.3192	23.4375	54.4262	23.4375	52.3396	23.4375	56.7177	23.4375	52.3938	23.4375	58.8252	23.4375	53.745	23.4375	60.5975	23.4375	55.7367	23.4375	62.0292	23.4375	57.7486	23.4375	63.1428	23.4375	59.5414	23.4375	63.96	23.4375	61.0621	23.4375	64.4971	23.4375	62.312	23.4375	64.7662	23.4375	63.3024	23.4375	64.7759	23.4375	64.0416	23.4375	64.5331
24.9023	59.8969	24.9023	59.6055	24.9023	59.9785	24.9023	59.0908	24.9023	59.859	24.9023	58.3405	24.9023	59.5416	24.9023	57.3637	24.9023	59.0256	24.9023	56.2519	24.9023	58.3117	24.9023	55.3177	24.9023	57.4177	24.9023	55.1668	24.9023	56.4188	24.9023	56.1652	24.9023	55.5298	24.9023	57.8866	24.9023	55.1673	24.9023	59.7277	24.9023	55.7093	24.9023	61.3867	24.9023	57.0361	24.9023	62.7708	24.9023	58.6873	24.9023	63.864	24.9023	60.3163	24.9023	64.6716	24.9023	61.7697	24.9023	65.2028	24.9023	62.9961	24.9023	65.4667	24.9023	63.982	24.9023	65.4708	24.9023	64.7244	24.9023	65.2218
26.3672	61.5209	26.3672	61.2661	26.3672	61.591	26.3672	60.8188	26.3672	61.483	26.3672	60.1757	26.3672	61.2009	26.3672	59.3557	26.3672	60.7473	26.3672	58.4433	26.3672	60.1288	26.3672	57.6713	26.3672	59.3684	26.3672	57.4538	26.3672	58.5342	26.3672	58.1043	26.3672	57.7896	26.3672	59.4424	26.3672	57.4248	26.3672	61.0223	26.3672	57.7302	26.3672	62.531	26.3672	58.7119	26.3672	63.8317	26.3672	60.0786	26.3672	64.878	26.3672	61.5244	26.3672	65.6591	26.3672	62.8696	26.3672	66.1757	26.3672	64.0333	26.3672	66.4325	26.3672	64.9829	26.3672	66.4355	26.3672	65.7045	26.3672	66.1908
27.832	62.9753	27.832	62.7455	27.832	63.0417	27.832	62.349	27.832	62.9496	27.832	61.7895	27.832	62.7037	27.832	61.0941	27.832	62.3093	27.832	60.3466	27.832	61.7776	27.832	59.7378	27.832	61.1354	27.832	59.5705	27.832	60.4468	27.832	60.0756	27.832	59.8437	27.832	61.1642	27.832	59.5393	27.832	62.5214	27.832	59.7472	27.832	63.8743	27.832	60.5078	27.832	65.0744	27.832	61.6425	27.832	66.0572	27.832	62.9103	27.832	66.7983	27.832	64.1362	27.832	67.2907	27.832	65.2243	27.832	67.5344	27.832	66.1271	27.832	67.5332	27.832	66.8212	27.832	67.293
29.2969	64.1766	29.2969	63.9764	29.2969	64.2323	29.2969	63.6326	29.2969	64.1466	29.2969	63.1568	29.2969	63.9246	29.2969	62.5851	29.2969	63.5746	29.2969	62.0038	29.2969	63.1127	29.2969	61.5774	29.2969	62.5721	29.2969	61.5294	29.2969	62.0193	29.2969	62.0097	29.2969	61.5724	29.2969	62.9526	29.2969	61.3976	29.2969	64.134	29.2969	61.6427	29.2969	65.3383	29.2969	62.328	29.2969	66.4293	29.2969	63.3248	29.2969	67.3373	29.2969	64.4508	29.2969	68.0297	29.2969	65.5595	29.2969	68.4931	29.2969	66.5594	29.2969	68.7236	29.2969	67.3993	29.2969	68.7226	29.2969	68.0505	29.2969	68.4955
30.7617	65.7153	30.7617	65.5373	30.7617	65.7691	30.7617	65.2385	30.7617	65.7005	30.7617	64.8322	30.7617	65.5143	30.7617	64.3531	30.7617	65.2194	30.7617	63.8736	30.7617	64.8318	30.7617	63.52	30.7617	64.3814	30.7617	63.457	30.7617	63.9227	30.7617	63.8064	30.7617	63.5457	30.7617	64.549	30.7617	63.3724	30.7617	65.5349	30.7617	63.5182	30.7617	66.5866	30.7617	64.0233	30.7617	67.5711	30.7617	64.819	30.7617	68.4084	30.7617	65.7723	30.7617	69.0557	30.7617	66.7524	30.7617	69.4919	30.7617	67.664	30.7617	69.7085	30.7617	68.446	30.7617	69.7048	30.7617	69.061	30.7617	69.4857
32.2266	66.7578	32.2266	66.6121	32.2266	66.7956	32.2266	66.3641	32.2266	66.7261	32.2266	66.0304	32.2266	66.5542	32.2266	65.6473	32.2266	66.2899	32.2266	65.2826	32.2266	65.9509	32.2266	65.0429	32.2266	65.5688	32.2266	65.0541	32.2266	65.196	32.2266	65.4027	32.2266	64.9122	32.2266	66.0723	32.2266	64.8172	32.2266	66.9505	32.2266	64.9982	32.2266	67.8959	32.2266	65.4817	32.2266	68.7929	32.2266	66.2126	32.2266	69.565	32.2266	67.0845	32.2266	70.1671	32.2266	67.9877	32.2266	70.5744	32.2266	68.8361	32.2266	70.7758	32.2266	69.5707	32.2266	70.7689	32.2266	70.1531	32.2266	70.558
33.6914	68.125	33.6914	67.9971	33.6914	68.1595	33.6914	67.7816	33.6914	68.1007	33.6914	67.4947	33.6914	67.9533	33.6914	67.1691	33.6914	67.727	33.6914	66.8621	33.6914	67.4386	33.6914	66.6596	33.6914	67.1161	33.6914	66.662	33.6914	66.8038	33.6914	66.9421	33.6914	66.5656	33.6914	67.4989	33.6914	66.4794	33.6914	68.2529	33.6914	66.6158	33.6914	69.0886	33.6914	67.0042	33.6914	69.9006	33.6914	67.6133	33.6914	70.6119	33.6914	68.3646	33.6914	71.1733	33.6914	69.1656	33.6914	71.556	33.6914	69.9355	33.6914	71.7458	33.6914	70.6135	33.6914	71.7388	33.6914	71.1576	33.6914	71.5389
35.1563	69.3639	35.1563	69.2503	35.1563	69.3955	35.1563	69.0607	35.1563	69.3448	35.1563	68.8106	35.1563	69.216	35.1563	68.5293	35.1563	69.0183	35.1563	68.2665	35.1563	68.7673	35.1563	68.0935	35.1563	68.4878	35.1563	68.0925	35.1563	68.2177	35.1563	68.3258	35.1563	68.0103	35.1563	68.7999	35.1563	67.9295	35.1563	69.4572	35.1563	68.0348	35.1563	70.2028	35.1563	68.356	35.1563	70.9418	35.1563	68.8759	35.1563	71.5991	35.1563	69.5349	35.1563	72.1234	35.1563	70.2545	35.1563	72.4831	35.1563	70.9597	35.1563	72.6616	35.1563	71.5902	35.1563	72.6536	35.1563	72.1016	35.1563	72.463
36.6211	70.3591	36.6211	70.2599	36.6211	70.3852	36.6211	70.0942	36.6211	70.3377	36.6211	69.8773	36.6211	70.2203	36.6211	69.637	36.6211	70.0419	36.6211	69.4183	36.6211	69.8172	36.6211	69.2837	36.6211	69.5696	36.6211	69.3027	36.6211	69.3337	36.6211	69.5274	36.6211	69.1564	36.6211	69.9645	36.6211	69.0936	36.6211	70.5667	36.6211	69.1966	36.6211	71.2534	36.6211	69.4928	36.6211	71.9394	36.6211	69.97	36.6211	72.5539	36.6211	70.5787	36.6211	73.0465	36.6211	71.2499	36.6211	73.3847	36.6211	71.9142	36.6211	73.5509	36.6211	72.5135	36.6211	73.5389	36.6211	73.0035	36.6211	73.3524
38.0859	71.2986	38.0859	71.2164	38.0859	71.3169	38.0859	71.0772	38.0859	71.2701	38.0859	70.896	38.0859	71.1618	38.0859	70.6992	38.0859	71.0006	38.0859	70.5271	38.0859	70.8006	38.0859	70.4338	38.0859	70.5841	38.0859	70.4771	38.0859	70.3828	38.0859	70.6998	38.0859	70.2388	38.0859	71.1071	38.0859	70.2005	38.0859	71.6607	38.0859	70.3119	38.0859	72.2923	38.0859	70.596	38.0859	72.9269	38.0859	71.043	38.0859	73.499	38.0859	71.611	38.0859	73.9598	38.0859	72.2394	38.0859	74.2766	38.0859	72.8651	38.0859	74.4311	38.0859	73.4332	38.0859	74.4162	38.0859	73.9004	38.0859	74.2353
39.5508	72.4902	39.5508	72.4023	39.5508	72.5176	39.5508	72.2615	39.5508	72.4825	39.5508	72.0824	39.5508	72.3867	39.5508	71.8899	39.5508	72.2361	39.5508	71.7219	39.5508	72.0413	39.5508	71.628	39.5508	71.8191	39.5508	71.6614	39.5508	71.5946	39.5508	71.8616	39.5508	71.4028	39.5508	72.2349	39.5508	71.2878	39.5508	72.7468	39.5508	71.296	39.5508	73.3336	39.5508	71.4634	39.5508	73.923	39.5508	71.8005	39.5508	74.4501	39.5508	72.2842	39.5508	74.8649	39.5508	72.8636	39.5508	75.1339	39.5508	73.4754	39.5508	75.2381	39.5508	74.0579	39.5508	75.1715	39.5508	74.5593	39.5508	74.9397
41.0156	73.4385	41.0156	73.3699	41.0156	73.4587	41.0156	73.2609	41.0156	73.4278	41.0156	73.1258	41.0156	73.3471	41.0156	72.9879	41.0156	73.222	41.0156	72.8799	41.0156	73.0625	41.0156	72.8421	41.0156	72.8841	41.0156	72.9156	41.0156	72.7096	41.0156	73.1287	41.0156	72.5691	41.0156	73.484	41.0156	72.4993	41.0156	73.953	41.0156	72.5375	41.0156	74.4845	41.0156	72.712	41.0156	75.0176	41.0156	73.0307	41.0156	75.4956	41.0156	73.4753	41.0156	75.8726	41.0156	74.0045	41.0156	76.1165	41.0156	74.5647	41.0156	76.2083	41.0156	75.1014	41.0156	76.1419	41.0156	75.5667	41.0156	75.9226
42.4805	74.4596	42.4805	74.4033	42.4805	74.4701	42.4805	74.3082	42.4805	74.432	42.4805	74.1873	42.4805	74.3463	42.4805	74.061	42.4805	74.2176	42.4805	73.9584	42.4805	74.0549	42.4805	73.9155	42.4805	73.8722	42.4805	73.9699	42.4805	73.6904	42.4805	74.1497	42.4805	73.5379	42.4805	74.4614	42.4805	73.4499	42.4805	74.8834	42.4805	73.4633	42.4805	75.3706	42.4805	73.608	42.4805	75.8666	42.4805	73.8953	42.4805	76.3159	42.4805	74.3106	42.4805	76.6722	42.4805	74.8156	42.4805	76.9018	42.4805	75.3577	42.4805	76.9848	42.4805	75.8823	42.4805	76.9137	42.4805	76.3405	42.4805	76.6935
43.9453	75.2886	43.9453	75.2426	43.9453	75.2933	43.9453	75.1614	43.9453	75.2549	43.9453	75.056	43.9453	75.1746	43.9453	74.9438	43.9453	75.0571	43.9453	74.8496	43.9453	74.9107	43.9453	74.8048	43.9453	74.7484	43.9453	74.8426	43.9453	74.5885	43.9453	74.9896	43.9453	74.4556	43.9453	75.2553	43.9453	74.3793	43.9453	75.6246	43.9453	74.3907	43.9453	76.06	43.9453	74.5153	43.9453	76.5109	43.9453	74.7642	43.9453	76.9249	43.9453	75.1274	43.9453	77.2566	43.9453	75.5745	43.9453	77.4722	43.9453	76.0608	43.9453	77.5513	43.9453	76.5369	43.9453	77.4864	43.9453	76.9569	43.9453	77.2827
45.4102	76.1145	45.4102	76.0744	45.4102	76.1177	45.4102	76.0028	45.4102	76.0818	45.4102	75.9102	45.4102	76.0082	45.4102	75.8126	45.4102	75.9011	45.4102	75.7327	45.4102	75.7681	45.4102	75.6987	45.4102	75.6211	45.4102	75.7406	45.4102	75.477	45.4102	75.8822	45.4102	75.3579	45.4102	76.1324	45.4102	75.2905	45.4102	76.4783	45.4102	75.3031	45.4102	76.8865	45.4102	75.4191	45.4102	77.3104	45.4102	75.6498	45.4102	77.7009	45.4102	75.9877	45.4102	78.0145	45.4102	76.4061	45.4102	78.218	45.4102	76.8644	45.4102	78.2913	45.4102	77.3162	45.4102	78.227	45.4102	77.7172	45.4102	78.03
46.875	76.8695	46.875	76.8336	46.875	76.8707	46.875	76.7682	46.875	76.8357	46.875	76.6832	46.875	76.7657	46.875	76.5937	46.875	76.6654	46.875	76.5214	46.875	76.5423	46.875	76.4931	46.875	76.408	46.875	76.537	46.875	76.2785	46.875	76.6759	46.875	76.1746	46.875	76.9182	46.875	76.1209	46.875	77.2521	46.875	76.1431	46.875	77.6464	46.875	76.2623	46.875	78.0569	46.875	76.4883	46.875	78.4363	46.875	76.8141	46.875	78.7423	46.875	77.2153	46.875	78.9425	46.875	77.654	46.875	79.0168	46.875	78.0867	46.875	78.9577	46.875	78.4708	46.875	78.7702
48.3398	77.5194	48.3398	77.4951	48.3398	77.5201	48.3398	77.4525	48.3398	77.4951	48.3398	77.4008	48.3398	77.4451	48.3398	77.3536	48.3398	77.3735	48.3398	77.3287	48.3398	77.287	48.3398	77.3472	48.3398	77.1953	48.3398	77.4302	48.3398	77.112	48.3398	77.5932	48.3398	77.0541	48.3398	77.8406	48.3398	77.0414	48.3398	78.1611	48.3398	77.0938	48.3398	78.5285	48.3398	77.2275	48.3398	78.9057	48.3398	77.4499	48.3398	79.2524	48.3398	77.7552	48.3398	79.5312	48.3398	78.1238	48.3398	79.7129	48.3398	78.5244	48.3398	79.7788	48.3398	78.9197	48.3398	79.7222	48.3398	79.272	48.3398	79.548
51.2695	79.0203	51.2695	79.0122	51.2695	79.0115	51.2695	78.991	51.2695	78.9843	51.2695	78.9634	51.2695	78.9393	51.2695	78.9388	51.2695	78.8791	51.2695	78.93	51.2695	78.8086	51.2695	78.9522	51.2695	78.7348	51.2695	79.021	51.2695	78.6676	51.2695	79.1488	51.2695	78.6194	51.2695	79.3409	51.2695	78.6048	51.2695	79.5912	51.2695	78.6392	51.2695	79.8817	51.2695	78.7362	51.2695	80.1841	51.2695	78.9041	51.2695	80.4649	51.2695	79.1422	51.2695	80.6911	51.2695	79.4384	51.2695	80.8358	51.2695	79.7697	51.2695	80.881	51.2695	80.1054	51.2695	80.8204	51.2695	80.4121	51.2695	80.6588
52.7344	79.653	52.7344	79.6536	52.7344	79.6388	52.7344	79.6439	52.7344	79.6097	52.7344	79.6293	52.7344	79.5663	52.7344	79.618	52.7344	79.5106	52.7344	79.6206	52.7344	79.4467	52.7344	79.6498	52.7344	79.3808	52.7344	79.7186	52.7344	79.3212	52.7344	79.8378	52.7344	79.2786	52.7344	80.0122	52.7344	79.2656	52.7344	80.2372	52.7344	79.296	52.7344	80.4977	52.7344	79.3823	52.7344	80.7689	52.7344	79.5328	52.7344	81.0209	52.7344	79.748	52.7344	81.2232	52.7344	80.0185	52.7344	81.3502	52.7344	80.3243	52.7344	81.3848	52.7344	80.6376	52.7344	81.3207	52.7344	80.9272	52.7344	81.163
54.1992	80.2855	54.1992	80.2945	54.1992	80.2665	54.1992	80.2961	54.1992	80.2363	54.1992	80.2947	54.1992	80.1954	54.1992	80.297	54.1992	80.1458	54.1992	80.3118	54.1992	80.0908	54.1992	80.3494	54.1992	80.0357	54.1992	80.4208	54.1992	79.9875	54.1992	80.5349	54.1992	79.9554	54.1992	80.696	54.1992	79.9502	54.1992	80.9007	54.1992	79.9836	54.1992	81.1365	54.1992	80.0667	54.1992	81.3819	54.1992	80.2071	54.1992	81.6101	54.1992	80.4058	54.1992	81.7931	54.1992	80.6552	54.1992	81.9069	54.1992	80.938	54.1992	81.9352	54.1992	81.2291	54.1992	81.8719	54.1992	81.4997	54.1992	81.7217
55.6641	80.8821	55.6641	80.9002	55.6641	80.8573	55.6641	80.9135	55.6641	80.8251	55.6641	80.9255	55.6641	80.7858	55.6641	80.9413	55.6641	80.7411	55.6641	80.9676	55.6641	80.6937	55.6641	81.0124	55.6641	80.6478	55.6641	81.0846	55.6641	80.6093	55.6641	81.1914	55.6641	80.5856	55.6641	81.3367	55.6641	80.5857	55.6641	81.5183	55.6641	80.6197	55.6641	81.7262	55.6641	80.697	55.6641	81.9422	55.6641	80.8246	55.6641	82.1431	55.6641	81.0043	55.6641	82.3036	55.6641	81.2303	55.6641	82.4014	55.6641	81.4879	55.6641	82.4212	55.6641	81.7552	55.6641	82.3572	55.6641	82.006	55.6641	82.214
58.5938	81.9512	58.5938	81.9798	58.5938	81.9202	58.5938	82.0066	58.5938	81.8867	58.5938	82.0333	58.5938	81.851	58.5938	82.0626	58.5938	81.8144	58.5938	82.0982	58.5938	81.7784	58.5938	82.1455	58.5938	81.7458	58.5938	82.2102	58.5938	81.7203	58.5938	82.298	58.5938	81.7068	58.5938	82.4128	58.5938	81.7114	58.5938	82.5543	58.5938	81.7415	58.5938	82.7161	58.5938	81.8043	58.5938	82.8855	58.5938	81.9063	58.5938	83.0438	58.5938	82.0501	58.5938	83.1699	58.5938	82.233	58.5938	83.2445	58.5938	82.445	58.5938	83.2535	58.5938	82.6688	58.5938	83.1918	58.5938	82.8828	58.5938	83.0638
60.0586	82.4175	60.0586	82.4485	60.0586	82.3858	60.0586	82.4792	60.0586	82.3537	60.0586	82.5103	60.0586	82.3214	60.0586	82.5435	60.0586	82.2897	60.0586	82.5816	60.0586	82.2599	60.0586	82.6284	60.0586	82.2338	60.0586	82.6887	60.0586	82.214	60.0586	82.7674	60.0586	82.2042	60.0586	82.868	60.0586	82.2095	60.0586	82.9909	60.0586	82.2358	60.0586	83.1314	60.0586	82.2897	60.0586	83.2787	60.0586	82.3774	60.0586	83.4166	60.0586	82.5021	60.0586	83.5262	60.0586	82.6626	60.0586	83.5895	60.0586	82.8508	60.0586	83.5936	60.0586	83.0521	60.0586	83.5335	60.0586	83.2469	60.0586	83.4136
62.9883	83.2288	62.9883	83.2673	62.9883	83.1937	62.9883	83.3085	62.9883	83.1625	62.9883	83.3521	62.9883	83.1356	62.9883	83.3979	62.9883	83.1132	62.9883	83.4465	62.9883	83.0956	62.9883	83.4995	62.9883	83.0833	62.9883	83.5595	62.9883	83.0772	62.9883	83.6293	62.9883	83.0792	62.9883	83.7118	62.9883	83.0918	62.9883	83.8079	62.9883	83.1191	62.9883	83.9151	62.9883	83.1659	62.9883	84.0261	62.9883	83.237	62.9883	84.1292	62.9883	83.3362	62.9883	84.2094	62.9883	83.4638	62.9883	84.2523	62.9883	83.6152	62.9883	84.2469	62.9883	83.7797	62.9883	84.1895	62.9883	83.9418	62.9883	84.0839
64.4531	83.6174	64.4531	83.6652	64.4531	83.576	64.4531	83.7183	64.4531	83.5422	64.4531	83.7752	64.4531	83.5164	64.4531	83.8345	64.4531	83.4985	64.4531	83.8956	64.4531	83.4881	64.4531	83.9586	64.4531	83.4849	64.4531	84.0245	64.4531	83.4885	64.4531	84.0953	64.4531	83.4993	64.4531	84.173	64.4531	83.5186	64.4531	84.2585	64.4531	83.5489	64.4531	84.35	64.4531	83.5938	64.4531	84.442	64.4531	83.6576	64.4531	84.5244	64.4531	83.7441	64.4531	84.5845	64.4531	83.855	64.4531	84.6098	64.4531	83.9879	64.4531	84.5912	64.4531	84.1354	64.4531	84.5264	64.4531	84.2848	64.4531	84.4203
67.3828	84.165	67.3828	84.2192	67.3828	84.1207	67.3828	84.281	67.3828	84.0876	67.3828	84.3478	67.3828	84.066	67.3828	84.4167	67.3828	84.0557	67.3828	84.4854	67.3828	84.0554	67.3828	84.552	67.3828	84.0634	67.3828	84.6158	67.3828	84.0781	67.3828	84.6774	67.3828	84.0981	67.3828	84.7381	67.3828	84.123	67.3828	84.7992	67.3828	84.1535	67.3828	84.8608	67.3828	84.1916	67.3828	84.9199	67.3828	84.2407	67.3828	84.9706	67.3828	84.3045	67.3828	85.0038	67.3828	84.3861	67.3828	85.0102	67.3828	84.4856	67.3828	84.9832	67.3828	84.599	67.3828	84.9213	67.3828	84.7176	67.3828	84.8294
68.8477	84.3769	68.8477	84.4329	68.8477	84.3316	68.8477	84.4973	68.8477	84.2987	68.8477	84.567	68.8477	84.2786	68.8477	84.6386	68.8477	84.2707	68.8477	84.7088	68.8477	84.2734	68.8477	84.7753	68.8477	84.2847	68.8477	84.8366	68.8477	84.3023	68.8477	84.8926	68.8477	84.3242	68.8477	84.9445	68.8477	84.3492	68.8477	84.9937	68.8477	84.3774	68.8477	85.0407	68.8477	84.4103	68.8477	85.0841	68.8477	84.4509	68.8477	85.1194	68.8477	84.5031	68.8477	85.1394	68.8477	84.5704	68.8477	85.1363	68.8477	84.654	68.8477	85.1046	68.8477	84.7517	68.8477	85.0434	68.8477	84.8563	68.8477	84.9574
71.7773	84.8062	71.7773	84.8668	71.7773	84.7593	71.7773	84.9379	71.7773	84.7278	71.7773	85.0156	71.7773	84.7123	71.7773	85.0952	71.7773	84.7117	71.7773	85.1723	71.7773	84.7238	71.7773	85.2429	71.7773	84.7457	71.7773	85.3043	71.7773	84.7737	71.7773	85.355	71.7773	84.8047	71.7773	85.3954	71.7773	84.836	71.7773	85.4269	71.7773	84.8662	71.7773	85.4511	71.7773	84.8958	71.7773	85.4686	71.7773	84.9267	71.7773	85.4779	71.7773	84.9627	71.7773	85.4756	71.7773	85.0076	71.7773	85.4571	71.7773	85.0644	71.7773	85.4193	71.7773	85.1334	71.7773	85.3622	71.7773	85.211	71.7773	85.2902
74.707	85.229	74.707	85.296	74.707	85.1774	74.707	85.3747	74.707	85.1435	74.707	85.4602	74.707	85.1278	74.707	85.5468	74.707	85.1292	74.707	85.6288	74.707	85.1449	74.707	85.701	74.707	85.1712	74.707	85.7594	74.707	85.2037	74.707	85.8016	74.707	85.238	74.707	85.8273	74.707	85.2703	74.707	85.8379	74.707	85.2982	74.707	85.8361	74.707	85.321	74.707	85.8245	74.707	85.3399	74.707	85.8046	74.707	85.3585	74.707	85.7763	74.707	85.3812	74.707	85.7384	74.707	85.4125	74.707	85.69	74.707	85.4553	74.707	85.6325	74.707	85.5091	74.707	85.5702
77.6367	85.459	77.6367	85.5336	77.6367	85.4017	77.6367	85.6209	77.6367	85.3642	77.6367	85.7153	77.6367	85.3473	77.6367	85.81	77.6367	85.3498	77.6367	85.8982	77.6367	85.3685	77.6367	85.9736	77.6367	85.3991	77.6367	86.0311	77.6367	85.4365	77.6367	86.0674	77.6367	85.4752	77.6367	86.0815	77.6367	85.5104	77.6367	86.0747	77.6367	85.5384	77.6367	86.0506	77.6367	85.5576	77.6367	86.0132	77.6367	85.5684	77.6367	85.9667	77.6367	85.5736	77.6367	85.9142	77.6367	85.5783	77.6367	85.8576	77.6367	85.5881	77.6367	85.7987	77.6367	85.6081	77.6367	85.7401	77.6367	85.6409	77.6367	85.686
79.1016	85.5347	79.1016	85.6114	79.1016	85.4752	79.1016	85.7007	79.1016	85.4357	79.1016	85.7966	79.1016	85.4172	79.1016	85.8924	79.1016	85.4183	79.1016	85.9808	79.1016	85.4361	79.1016	86.0552	79.1016	85.4661	79.1016	86.1102	79.1016	85.5029	79.1016	86.1419	79.1016	85.5408	79.1016	86.1492	79.1016	85.5745	79.1016	86.1333	79.1016	85.6	79.1016	86.0977	79.1016	85.615	79.1016	86.0473	79.1016	85.6198	79.1016	85.9874	79.1016	85.617	79.1016	85.9224	79.1016	85.6119	79.1016	85.856	79.1016	85.6107	79.1016	85.7911	79.1016	85.6196	79.1016	85.7312	79.1016	85.6425	79.1016	85.6804
82.0313	85.748	82.0313	85.8291	82.0313	85.6844	82.0313	85.9225	82.0313	85.6415	82.0313	86.0217	82.0313	85.6204	82.0313	86.1191	82.0313	85.62	82.0313	86.2069	82.0313	85.6372	82.0313	86.2774	82.0313	85.6672	82.0313	86.3245	82.0313	85.704	82.0313	86.3438	82.0313	85.7411	82.0313	86.3335	82.0313	85.7723	82.0313	86.295	82.0313	85.7926	82.0313	86.2328	82.0313	85.799	82.0313	86.1535	82.0313	85.7908	82.0313	86.0652	82.0313	85.7706	82.0313	85.9755	82.0313	85.7438	82.0313	85.8911	82.0313	85.7178	82.0313	85.8173	82.0313	85.701	82.0313	85.7588	82.0313	85.7	82.0313	85.719
84.9609	85.8983	84.9609	85.9787	84.9609	85.8376	84.9609	86.0732	84.9609	85.7997	84.9609	86.1747	84.9609	85.7856	84.9609	86.275	84.9609	85.7937	84.9609	86.3654	84.9609	85.8202	84.9609	86.4374	84.9609	85.8595	84.9609	86.4842	84.9609	85.9048	84.9609	86.5008	84.9609	85.9487	84.9609	86.4852	84.9609	85.9845	84.9609	86.439	84.9609	86.0064	84.9609	86.3672	84.9609	86.0108	84.9609	86.2774	84.9609	85.9969	84.9609	86.1791	84.9609	85.9673	84.9609	86.0815	84.9609	85.9276	84.9609	85.9929	84.9609	85.8861	84.9609	85.9199	84.9609	85.8522	84.9609	85.8674	84.9609	85.8344	84.9609	85.8387
87.8906	85.8841	87.8906	85.9606	87.8906	85.8296	87.8906	86.0537	87.8906	85.8	87.8906	86.1567	87.8906	85.7959	87.8906	86.2611	87.8906	85.8153	87.8906	86.3583	87.8906	85.8542	87.8906	86.4397	87.8906	85.9064	87.8906	86.4976	87.8906	85.9646	87.8906	86.5262	87.8906	86.0209	87.8906	86.5226	87.8906	86.0678	87.8906	86.4871	87.8906	86.0992	87.8906	86.4236	87.8906	86.1109	87.8906	86.3393	87.8906	86.1016	87.8906	86.2435	87.8906	86.0734	87.8906	86.1466	87.8906	86.032	87.8906	86.0582	87.8906	85.9856	87.8906	85.9865	87.8906	85.9446	87.8906	85.9376	87.8906	85.9185	87.8906	85.9149
90.8203	85.6089	90.8203	85.6877	90.8203	85.558	90.8203	85.7895	90.8203	85.5375	90.8203	85.9077	90.8203	85.5475	90.8203	86.034	90.8203	85.5857	90.8203	86.159	90.8203	85.6475	90.8203	86.2729	90.8203	85.7265	90.8203	86.3665	90.8203	85.8146	90.8203	86.4322	90.8203	85.9032	90.8203	86.4646	90.8203	85.984	90.8203	86.4623	90.8203	86.0498	90.8203	86.4277	90.8203	86.0953	90.8203	86.3672	90.8203	86.118	90.8203	86.2906	90.8203	86.1186	90.8203	86.2089	90.8203	86.1013	90.8203	86.1333	90.8203	86.0732	90.8203	86.0726	90.8203	86.0435	90.8203	86.033	90.8203	86.0219	90.8203	86.0166
95.2148	86.297	95.2148	86.4106	95.2148	86.1969	95.2148	86.5293	95.2148	86.1169	95.2148	86.6435	95.2148	86.0611	95.2148	86.7428	95.2148	86.031	95.2148	86.8169	95.2148	86.0252	95.2148	86.8558	95.2148	86.039	95.2148	86.8513	95.2148	86.0653	95.2148	86.7975	95.2148	86.0949	95.2148	86.6924	95.2148	86.1177	95.2148	86.5385	95.2148	86.1236	95.2148	86.3442	95.2148	86.104	95.2148	86.1241	95.2148	86.0532	95.2148	85.8979	95.2148	85.9694	95.2148	85.6885	95.2148	85.8563	95.2148	85.5186	95.2148	85.7235	95.2148	85.4065	95.2148	85.587	95.2148	85.3625	95.2148	85.4673	95.2148	85.3863
98.1445	85.9727	98.1445	86.0686	98.1445	85.8977	98.1445	86.179	98.1445	85.8478	98.1445	86.2961	98.1445	85.8252	98.1445	86.4108	98.1445	85.8296	98.1445	86.5129	98.1445	85.8582	98.1445	86.5921	98.1445	85.9051	98.1445	86.6388	98.1445	85.9626	98.1445	86.6449	98.1445	86.021	98.1445	86.6057	98.1445	86.0704	98.1445	86.5205	98.1445	86.1011	98.1445	86.3941	98.1445	86.1055	98.1445	86.2372	98.1445	86.079	98.1445	86.0654	98.1445	86.0211	98.1445	85.8978	98.1445	85.9368	98.1445	85.7539	98.1445	85.8363	98.1445	85.6505	98.1445	85.7347	98.1445	85.5983	98.1445	85.6502	98.1445	85.6002
101.074	85.9572	101.074	86.0611	101.074	85.8723	101.074	86.1771	101.074	85.8113	101.074	86.2971	101.074	85.7773	101.074	86.4116	101.074	85.7705	101.074	86.5103	101.074	85.7888	101.074	86.5828	101.074	85.827	101.074	86.6193	101.074	85.8773	101.074	86.612	101.074	85.9303	101.074	86.5562	101.074	85.9754	101.074	86.4518	101.074	86.0024	101.074	86.3043	101.074	86.0031	101.074	86.1255	101.074	85.9721	101.074	85.9328	101.074	85.9084	101.074	85.7473	101.074	85.8164	101.074	85.5905	101.074	85.7062	101.074	85.4807	101.074	85.5934	101.074	85.4291	101.074	85.4972	101.074	85.4372
105.469	85.8762	105.469	85.9831	105.469	85.7888	105.469	86.1033	105.469	85.7258	105.469	86.2288	105.469	85.6903	105.469	86.3505	105.469	85.6831	105.469	86.4582	105.469	85.7026	105.469	86.541	105.469	85.7441	105.469	86.5887	105.469	85.8003	105.469	86.5924	105.469	85.8614	105.469	86.5465	105.469	85.9166	105.469	86.45	105.469	85.955	105.469	86.3079	105.469	85.9675	105.469	86.1316	105.469	85.9478	105.469	85.9389	105.469	85.8941	105.469	85.7518	105.469	85.81	105.469	85.5932	105.469	85.7054	105.469	85.4823	105.469	85.5956	105.469	85.4308	105.469	85.5003	105.469	85.4398
108.398	86.0126	108.398	86.122	108.398	85.9193	108.398	86.2411	108.398	85.8467	108.398	86.3625	108.398	85.7983	108.398	86.4772	108.398	85.7754	108.398	86.5752	108.398	85.7768	108.398	86.6458	108.398	85.7989	108.398	86.6785	108.398	85.8349	108.398	86.6646	108.398	85.8758	108.398	86.5984	108.398	85.9113	108.398	86.479	108.398	85.931	108.398	86.3117	108.398	85.9257	108.398	86.1087	108.398	85.8893	108.398	85.8893	108.398	85.8201	108.398	85.6771	108.398	85.7218	108.398	85.4971	108.398	85.6044	108.398	85.3706	108.398	85.4839	108.398	85.3101	108.398	85.3808	108.398	85.3168
112.793	86.2136	112.793	86.3148	112.793	86.1277	112.793	86.4257	112.793	86.0618	112.793	86.5393	112.793	86.019	112.793	86.6471	112.793	86.001	112.793	86.7393	112.793	86.0068	112.793	86.805	112.793	86.0331	112.793	86.8336	112.793	86.0731	112.793	86.8157	112.793	86.118	112.793	86.7452	112.793	86.1569	112.793	86.6208	112.793	86.1788	112.793	86.4478	112.793	86.1742	112.793	86.2393	112.793	86.1361	112.793	86.0155	112.793	86.0621	112.793	85.8019	112.793	85.9554	112.793	85.6251	112.793	85.8257	112.793	85.5071	112.793	85.6894	112.793	85.4604	112.793	85.568	112.793	85.4848
117.188	86.2354	117.188	86.3307	117.188	86.1539	117.188	86.4349	117.188	86.0904	117.188	86.542	117.188	86.0479	117.188	86.6446	117.188	86.0283	117.188	86.7336	117.188	86.0312	117.188	86.7988	117.188	86.0536	117.188	86.8296	117.188	86.0895	117.188	86.8163	117.188	86.1301	117.188	86.7521	117.188	86.1649	117.188	86.6348	117.188	86.1832	117.188	86.469	117.188	86.1753	117.188	86.2664	117.188	86.1345	117.188	86.0464	117.188	86.0588	117.188	85.8339	117.188	85.9518	117.188	85.6553	117.188	85.8236	117.188	85.533	117.188	85.6907	117.188	85.4802	117.188	85.5744	117.188	85.4977
120.117	86.5865	120.117	86.7008	120.117	86.4814	120.117	86.8172	120.117	86.3918	120.117	86.9284	120.117	86.3228	120.117	87.0258	120.117	86.278	120.117	87.1002	120.117	86.2583	120.117	87.1418	120.117	86.2613	120.117	87.141	120.117	86.2811	120.117	87.0897	120.117	86.3085	120.117	86.9832	120.117	86.3325	120.117	86.8219	120.117	86.3415	120.117	86.613	120.117	86.3253	120.117	86.3716	120.117	86.2766	120.117	86.1201	120.117	86.1925	120.117	85.886	120.117	86.076	120.117	85.6972	120.117	85.9365	120.117	85.5756	120.117	85.79	120.117	85.5324	120.117	85.6581	120.117	85.5648
124.512	86.4756	124.512	86.5871	124.512	86.3708	124.512	86.6981	124.512	86.2794	124.512	86.8005	124.512	86.2074	124.512	86.8853	124.512	86.1593	124.512	86.9422	124.512	86.1373	124.512	86.9601	124.512	86.14	124.512	86.9283	124.512	86.1618	124.512	86.838	124.512	86.1933	124.512	86.6844	124.512	86.2219	124.512	86.4688	124.512	86.2338	124.512	86.2014	124.512	86.2158	124.512	85.9021	124.512	86.1574	124.512	85.6006	124.512	86.0526	124.512	85.3329	124.512	85.9016	124.512	85.1346	124.512	85.7128	124.512	85.0319	124.512	85.5033	124.512	85.0342	124.512	85.2989	124.512	85.1316
128.906	86.2697	128.906	86.3658	128.906	86.1797	128.906	86.4631	128.906	86.0996	128.906	86.5557	128.906	86.0326	128.906	86.6353	128.906	85.981	128.906	86.6917	128.906	85.9457	128.906	86.7127	128.906	85.9248	128.906	86.6856	128.906	85.9137	128.906	86.5988	128.906	85.9043	128.906	86.4445	128.906	85.8861	128.906	86.2208	128.906	85.8476	128.906	85.9346	128.906	85.7777	128.906	85.6037	128.906	85.6682	128.906	85.2568	128.906	85.5153	128.906	84.9316	128.906	85.3221	128.906	84.6688	128.906	85.1002	128.906	84.5025	128.906	84.8704	128.906	84.4512	128.906	84.6626	128.906	84.5118
133.301	86.2333	133.301	86.334	133.301	86.1446	133.301	86.4421	133.301	86.0716	133.301	86.5514	133.301	86.0174	133.301	86.6534	133.301	85.9834	133.301	86.737	133.301	85.9694	133.301	86.7893	133.301	85.9719	133.301	86.7962	133.301	85.9842	133.301	86.745	133.301	85.9961	133.301	86.6263	133.301	85.9955	133.301	86.4365	133.301	85.9696	133.301	86.1806	133.301	85.9072	133.301	85.8737	133.301	85.801	133.301	85.5417	133.301	85.6489	133.301	85.2197	133.301	85.4567	133.301	84.9471	133.301	85.2392	133.301	84.7592	133.301	85.0204	133.301	84.6784	133.301	84.8318	133.301	84.708
139.16	85.7196	139.16	85.8182	139.16	85.6372	139.16	85.9287	139.16	85.5754	139.16	86.0458	139.16	85.5384	139.16	86.1624	139.16	85.5299	139.16	86.2684	139.16	85.5511	139.16	86.3514	139.16	85.5994	139.16	86.3971	139.16	85.6674	139.16	86.3922	139.16	85.7432	139.16	86.3264	139.16	85.8117	139.16	86.1956	139.16	85.8572	139.16	86.0042	139.16	85.8655	139.16	85.7663	139.16	85.8266	139.16	85.5066	139.16	85.7363	139.16	85.2572	139.16	85.5984	139.16	85.053	139.16	85.4253	139.16	84.9236	139.16	85.2382	139.16	84.8856	139.16	85.0655	139.16	84.9386
143.555	85.6654	143.555	85.7689	143.555	85.5713	143.555	85.877	143.555	85.4924	143.555	85.9853	143.555	85.4357	143.555	86.088	143.555	85.4083	143.555	86.177	143.555	85.4152	143.555	86.2416	143.555	85.4569	143.555	86.2694	143.555	85.5278	143.555	86.2486	143.555	85.6162	143.555	86.1704	143.555	85.7054	143.555	86.0325	143.555	85.7773	143.555	85.8408	143.555	85.8146	143.555	85.6112	143.555	85.8044	143.555	85.3691	143.555	85.7399	143.555	85.1463	143.555	85.6224	143.555	84.9752	143.555	85.4625	143.555	84.8815	143.555	85.2794	143.555	84.8769	143.555	85.1004	143.555	84.9566
147.949	85.6792	147.949	85.7669	147.949	85.5925	147.949	85.8519	147.949	85.5123	147.949	85.9306	147.949	85.4461	147.949	85.9989	147.949	85.4026	147.949	86.0501	147.949	85.3891	147.949	86.0747	147.949	85.4092	147.949	86.0617	147.949	85.4604	147.949	86	147.949	85.5331	147.949	85.8823	147.949	85.6117	147.949	85.7075	147.949	85.6772	147.949	85.4839	147.949	85.7108	147.949	85.2306	147.949	85.6969	147.949	84.9766	147.949	85.6261	147.949	84.7568	147.949	85.4973	147.949	84.6048	147.949	85.3187	147.949	84.5442	147.949	85.1085	147.949	84.5821	147.949	84.8936	147.949	84.7072
153.809	85.924	153.809	85.9932	153.809	85.8469	153.809	86.053	153.809	85.7646	153.809	86.1018	153.809	85.6821	153.809	86.1361	153.809	85.6058	153.809	86.1493	153.809	85.5429	153.809	86.1312	153.809	85.4986	153.809	86.0697	153.809	85.4741	153.809	85.9526	153.809	85.4648	153.809	85.7711	153.809	85.4604	153.809	85.5238	153.809	85.446	153.809	85.2199	153.809	85.4054	153.809	84.8812	153.809	85.3239	153.809	84.5422	153.809	85.1923	153.809	84.245	153.809	85.0088	153.809	84.0308	153.809	84.7817	153.809	83.929	153.809	84.5299	153.809	83.9485	153.809	84.2826	153.809	84.0763
159.668	85.9706	159.668	86.0319	159.668	85.9027	159.668	86.0864	159.668	85.8299	159.668	86.1333	159.668	85.7553	159.668	86.1696	159.668	85.6827	159.668	86.1883	159.668	85.6157	159.668	86.1783	159.668	85.5553	159.668	86.1254	159.668	85.499	159.668	86.0148	159.668	85.4403	159.668	85.835	159.668	85.3694	159.668	85.5815	159.668	85.2753	159.668	85.2603	159.668	85.1478	159.668	84.89	159.668	84.98	159.668	84.5021	159.668	84.7709	159.668	84.1377	159.668	84.5268	159.668	83.8405	159.668	84.2628	159.668	83.6465	159.668	84.003	159.668	83.5754	159.668	83.7792	159.668	83.6262
165.527	85.7299	165.527	85.8145	165.527	85.642	165.527	85.8931	165.527	85.5559	165.527	85.9639	165.527	85.4792	165.527	86.0236	165.527	85.4196	165.527	86.0658	165.527	85.3829	165.527	86.0796	165.527	85.3695	165.527	86.051	165.527	85.3734	165.527	85.9652	165.527	85.3823	165.527	85.811	165.527	85.3799	165.527	85.584	165.527	85.3494	165.527	85.2909	165.527	85.2765	165.527	84.9507	165.527	85.152	165.527	84.5949	165.527	84.9745	165.527	84.2637	165.527	84.751	165.527	83.9986	165.527	84.4983	165.527	83.8331	165.527	84.242	165.527	83.785	165.527	84.0148	165.527	83.8521
171.387	85.2593	171.387	85.374	171.387	85.1413	171.387	85.4821	171.387	85.0279	171.387	85.5826	171.387	84.9318	171.387	85.6741	171.387	84.8677	171.387	85.7514	171.387	84.8481	171.387	85.8046	171.387	84.8783	171.387	85.8193	171.387	84.9524	171.387	85.7802	171.387	85.0536	171.387	85.6752	171.387	85.1579	171.387	85.4996	171.387	85.2395	171.387	85.26	171.387	85.2755	171.387	84.9757	171.387	85.2504	171.387	84.6781	171.387	85.1576	171.387	84.406	171.387	85.001	171.387	84.198	171.387	84.7954	171.387	84.084	171.387	84.5659	171.387	84.0771	171.387	84.3459	171.387	84.1718
177.246	84.7876	177.246	84.888	177.246	84.6784	177.246	84.9799	177.246	84.5668	177.246	85.0663	177.246	84.4659	177.246	85.1503	177.246	84.3949	177.246	85.2308	177.246	84.3736	177.246	85.3006	177.246	84.4161	177.246	85.3469	177.246	84.5231	177.246	85.3542	177.246	84.6799	177.246	85.3086	177.246	84.8589	177.246	85.2028	177.246	85.0271	177.246	85.0396	177.246	85.1537	177.246	84.8344	177.246	85.2156	177.246	84.6141	177.246	85.2006	177.246	84.414	177.246	85.1083	177.246	84.2696	177.246	84.9506	177.246	84.2081	177.246	84.7509	177.246	84.2409	177.246	84.5418	177.246	84.3603
183.105	84.8836	183.105	84.9319	183.105	84.8016	183.105	84.9529	183.105	84.6861	183.105	84.9567	183.105	84.5456	183.105	84.9525	183.105	84.3983	183.105	84.9459	183.105	84.2701	183.105	84.9358	183.105	84.1894	183.105	84.9152	183.105	84.1786	183.105	84.8738	183.105	84.2455	183.105	84.803	183.105	84.3783	183.105	84.7008	183.105	84.5489	183.105	84.5746	183.105	84.7215	183.105	84.4414	183.105	84.8624	183.105	84.3242	183.105	84.9468	183.105	84.246	183.105	84.962	183.105	84.2236	183.105	84.9085	183.105	84.2631	183.105	84.798	183.105	84.3593	183.105	84.6519	183.105	84.4966
188.965	85.3459	188.965	85.3982	188.965	85.244	188.965	85.4038	188.965	85.0959	188.965	85.3699	188.965	84.9125	188.965	85.3052	188.965	84.7114	188.965	85.2166	188.965	84.5154	188.965	85.106	188.965	84.3479	188.965	84.97	188.965	84.227	188.965	84.8016	188.965	84.16	188.965	84.595	188.965	84.1406	188.965	84.3509	188.965	84.1508	188.965	84.0814	188.965	84.1668	188.965	83.8106	188.965	84.1659	188.965	83.5711	188.965	84.1313	188.965	83.3946	188.965	84.0555	188.965	83.3016	188.965	83.9401	188.965	83.2953	188.965	83.7952	188.965	83.3636	188.965	83.6368	188.965	83.4854
196.289	85.6177	196.289	85.6944	196.289	85.4959	196.289	85.7285	196.289	85.3315	196.289	85.7257	196.289	85.1337	196.289	85.691	196.289	84.9192	196.289	85.626	196.289	84.71	196.289	85.5274	196.289	84.5303	196.289	85.3868	196.289	84.3995	196.289	85.1948	196.289	84.3255	196.289	84.9455	196.289	84.3008	196.289	84.6421	196.289	84.304	196.289	84.3015	196.289	84.307	196.289	83.954	196.289	84.283	196.289	83.6392	196.289	84.214	196.289	83.3951	196.289	84.0937	196.289	83.2471	196.289	83.9287	196.289	83.2017	196.289	83.7366	196.289	83.2491	196.289	83.5415	196.289	83.3703
203.613	85.3903	203.613	85.4362	203.613	85.2894	203.613	85.4333	203.613	85.1334	203.613	85.3912	203.613	84.9297	203.613	85.3199	203.613	84.6936	203.613	85.2255	203.613	84.4479	203.613	85.1078	203.613	84.2188	203.613	84.9598	203.613	84.0311	203.613	84.7707	203.613	83.8998	203.613	84.5319	203.613	83.8247	203.613	84.2433	203.613	83.7899	203.613	83.9185	203.613	83.7695	203.613	83.5856	203.613	83.7369	203.613	83.2823	203.613	83.6724	203.613	83.0451	203.613	83.5677	203.613	82.8972	203.613	83.4275	203.613	82.8432	203.613	83.2664	203.613	82.8725	203.613	83.1053	203.613	82.9668
210.938	85.4234	210.938	85.4583	210.938	85.3321	210.938	85.442	210.938	85.1844	210.938	85.3827	210.938	84.9866	210.938	85.288	210.938	84.7524	210.938	85.1623	210.938	84.5015	210.938	85.0038	210.938	84.2574	210.938	84.8052	210.938	84.0422	210.938	84.557	210.938	83.8706	210.938	84.2537	210.938	83.7442	210.938	83.9	210.938	83.6511	210.938	83.516	210.938	83.5702	210.938	83.1367	210.938	83.4789	210.938	82.8051	210.938	83.3608	210.938	82.5584	210.938	83.2103	210.938	82.4149	210.938	83.0334	210.938	82.3716	210.938	82.8457	210.938	82.4118	210.938	82.6668	210.938	82.5163
218.262	85.3141	218.262	85.3535	218.262	85.2192	218.262	85.3437	218.262	85.0684	218.262	85.2943	218.262	84.8687	218.262	85.2141	218.262	84.6352	218.262	85.107	218.262	84.3892	218.262	84.9694	218.262	84.1556	218.262	84.7902	218.262	83.9568	218.262	84.5555	218.262	83.8052	218.262	84.2555	218.262	83.6986	218.262	83.8925	218.262	83.6202	218.262	83.4867	218.262	83.5449	218.262	83.0768	218.262	83.4481	218.262	82.7123	218.262	83.3139	218.262	82.437	218.262	83.1397	218.262	82.2735	218.262	82.936	218.262	82.2191	218.262	82.7233	218.262	82.2559	218.262	82.5255	218.262	82.3638
225.586	85.2034	225.586	85.2301	225.586	85.11	225.586	85.1981	225.586	84.9493	225.586	85.1204	225.586	84.7294	225.586	85.0106	225.586	84.4681	225.586	84.8781	225.586	84.1918	225.586	84.724	225.586	83.9324	225.586	84.5402	225.586	83.7198	225.586	84.3138	225.586	83.5732	225.586	84.0348	225.586	83.4935	225.586	83.705	225.586	83.4619	225.586	83.3445	225.586	83.4483	225.586	82.9923	225.586	83.4214	225.586	82.6961	225.586	83.3592	225.586	82.4948	225.586	83.253	225.586	82.4027	225.586	83.1085	225.586	82.408	225.586	82.9409	225.586	82.4858	225.586	82.7696	225.586	82.6125
232.91	85.4862	232.91	85.4955	232.91	85.399	232.91	85.4369	232.91	85.2302	232.91	85.3234	232.91	84.9837	232.91	85.1684	232.91	84.6724	232.91	84.9806	232.91	84.3193	232.91	84.7609	232.91	83.9559	232.91	84.5018	232.91	83.6179	232.91	84.1911	232.91	83.3356	232.91	83.8201	232.91	83.1238	232.91	83.3931	232.91	82.9758	232.91	82.9357	232.91	82.8685	232.91	82.4961	232.91	82.773	232.91	82.1339	232.91	82.667	232.91	81.8957	232.91	82.5415	232.91	81.7922	232.91	82.4	232.91	81.7979	232.91	82.2534	232.91	81.8722	232.91	82.112	232.91	81.9825
241.699	85.5119	241.699	85.5	241.699	85.4533	241.699	85.4277	241.699	85.3191	241.699	85.3086	241.699	85.1115	241.699	85.1562	241.699	84.84	241.699	84.9788	241.699	84.5223	241.699	84.7758	241.699	84.1835	241.699	84.5373	241.699	83.8525	241.699	84.2476	241.699	83.5549	241.699	83.8941	241.699	83.3045	241.699	83.4772	241.699	83.0984	241.699	83.0184	241.699	82.9194	241.699	82.5625	241.699	82.7451	241.699	82.1669	241.699	82.5594	241.699	81.8788	241.699	82.3602	241.699	81.7131	241.699	82.1597	241.699	81.6517	241.699	81.9776	241.699	81.6633	241.699	81.8305	241.699	81.7253
250.488	85.4652	250.488	85.4302	250.488	85.4218	250.488	85.3273	250.488	85.2958	250.488	85.1712	250.488	85.0902	250.488	84.9776	250.488	84.8152	250.488	84.758	250.488	84.4894	250.488	84.5146	250.488	84.1389	250.488	84.2387	250.488	83.7934	250.488	83.9142	250.488	83.4799	250.488	83.5274	250.488	83.2132	250.488	83.0776	250.488	82.9901	250.488	82.5879	250.488	82.7913	250.488	82.1077	250.488	82.5916	250.488	81.6999	250.488	82.3728	250.488	81.4148	250.488	82.1329	250.488	81.2642	250.488	81.8873	250.488	81.2233	250.488	81.6612	250.488	81.2565	250.488	81.4766	250.488	81.3422
259.277	85.509	259.277	85.4927	259.277	85.4539	259.277	85.4126	259.277	85.3245	259.277	85.2796	259.277	85.1233	259.277	85.1045	259.277	84.8595	259.277	84.8941	259.277	84.5492	259.277	84.6476	259.277	84.2154	259.277	84.3554	259.277	83.8854	259.277	84.003	259.277	83.5844	259.277	83.58	259.277	83.3276	259.277	83.0903	259.277	83.1133	259.277	82.5627	259.277	82.9242	259.277	82.0537	259.277	82.7359	259.277	81.6344	259.277	82.5292	259.277	81.3602	259.277	82.2995	259.277	81.2419	259.277	82.0583	259.277	81.2467	259.277	81.827	259.277	81.3287	259.277	81.624	259.277	81.4576
268.066	85.0541	268.066	85.0263	268.066	85.0109	268.066	84.9378	268.066	84.8931	268.066	84.8041	268.066	84.7036	268.066	84.6416	268.066	84.4521	268.066	84.4618	268.066	84.1545	268.066	84.2646	268.066	83.8325	268.066	84.0374	268.066	83.5106	268.066	83.7599	268.066	83.2111	268.066	83.4149	268.066	82.9467	268.066	83.0012	268.066	82.7164	268.066	82.5438	268.066	82.5072	268.066	82.0955	268.066	82.3028	268.066	81.7226	268.066	82.0943	268.066	81.4745	268.066	81.8876	268.066	81.3558	268.066	81.7011	268.066	81.3301	268.066	81.5546	268.066	81.3512	268.066	81.4551	268.066	81.3925
276.855	85.1099	276.855	85.1173	276.855	85.0208	276.855	85.0448	276.855	84.8555	276.855	84.9005	276.855	84.6252	276.855	84.6959	276.855	84.3454	276.855	84.4407	276.855	84.0344	276.855	84.1385	276.855	83.7121	276.855	83.7849	276.855	83.3988	276.855	83.3719	276.855	83.1111	276.855	82.897	276.855	82.8572	276.855	82.3745	276.855	82.6314	276.855	81.8421	276.855	82.4145	276.855	81.357	276.855	82.1811	276.855	80.9758	276.855	81.9121	276.855	80.7266	276.855	81.607	276.855	80.5972	276.855	81.289	276.855	80.5524	276.855	80.9988	276.855	80.565	276.855	80.7751	276.855	80.6338
287.109	85.0441	287.109	85.064	287.109	84.9311	287.109	84.9979	287.109	84.7269	287.109	84.8595	287.109	84.4432	287.109	84.6646	287.109	84.1005	287.109	84.4246	287.109	83.7273	287.109	84.1407	287.109	83.356	287.109	83.8021	287.109	83.0169	287.109	83.3909	287.109	82.7299	287.109	82.8947	287.109	82.4984	287.109	82.3218	287.109	82.309	287.109	81.7153	287.109	82.1382	287.109	81.1554	287.109	81.9631	287.109	80.7363	287.109	81.7708	287.109	80.5162	287.109	81.563	287.109	80.4814	287.109	81.354	287.109	80.5645	287.109	81.1607	287.109	80.6964	287.109	80.9913	287.109	80.8401
297.363	84.9644	297.363	84.9431	297.363	84.8852	297.363	84.8342	297.363	84.7018	297.363	84.6559	297.363	84.4211	297.363	84.4274	297.363	84.0624	297.363	84.1611	297.363	83.6566	297.363	83.8574	297.363	83.2428	297.363	83.5026	297.363	82.859	297.363	83.0762	297.363	82.5304	297.363	82.563	297.363	82.2597	297.363	81.9707	297.363	82.0291	297.363	81.346	297.363	81.8119	297.363	80.7789	297.363	81.5886	297.363	80.3767	297.363	81.3581	297.363	80.202	297.363	81.1378	297.363	80.2271	297.363	80.9531	297.363	80.3594	297.363	80.8176	297.363	80.5081	297.363	80.7199	297.363	80.6273
307.617	85.0641	307.617	85.027	307.617	85.017	307.617	84.921	307.617	84.8757	307.617	84.7635	307.617	84.6382	307.617	84.5678	307.617	84.3128	307.617	84.3368	307.617	83.9206	307.617	84.0591	307.617	83.496	307.617	83.7126	307.617	83.082	307.617	83.2749	307.617	82.7162	307.617	82.7364	307.617	82.414	307.617	82.1142	307.617	82.1587	307.617	81.4618	307.617	81.9119	307.617	80.8669	307.617	81.6362	307.617	80.423	307.617	81.3183	307.617	80.1796	307.617	80.9803	307.617	80.1106	307.617	80.6728	307.617	80.1389	307.617	80.4451	307.617	80.1923	307.617	80.3118	307.617	80.2428
319.336	84.8696	319.336	84.8408	319.336	84.7931	319.336	84.7227	319.336	84.6064	319.336	84.5408	319.336	84.3155	319.336	84.3233	319.336	83.9365	319.336	84.0893	319.336	83.4966	319.336	83.837	319.336	83.0332	319.336	83.5408	319.336	82.5894	319.336	83.1622	319.336	82.2029	319.336	82.6695	319.336	81.8904	319.336	82.0601	319.336	81.6394	319.336	81.3812	319.336	81.416	319.336	80.7381	319.336	81.1864	319.336	80.265	319.336	80.9394	319.336	80.0451	319.336	80.6958	319.336	80.0456	319.336	80.4982	319.336	80.151	319.336	80.3792	319.336	80.2537	319.336	80.3316	319.336	80.3077
329.59	85.0528	329.59	85.002	329.59	85.0025	329.59	84.8687	329.59	84.8426	329.59	84.6787	329.59	84.5748	329.59	84.4581	329.59	84.2109	329.59	84.2207	329.59	83.7739	329.59	83.9593	329.59	83.2984	329.59	83.645	329.59	82.8274	329.59	83.2393	329.59	82.4018	329.59	82.7135	329.59	82.0425	329.59	82.0679	329.59	81.7381	329.59	81.35	329.59	81.4501	329.59	80.6618	329.59	81.1367	329.59	80.1329	329.59	80.7822	329.59	79.847	329.59	80.4153	329.59	79.7772	329.59	80.1031	329.59	79.814	329.59	79.91	329.59	79.8518	329.59	79.845	329.59	79.8509
341.309	84.4891	341.309	84.4091	341.309	84.472	341.309	84.2535	341.309	84.3519	341.309	84.0587	341.309	84.1356	341.309	83.8652	341.309	83.839	341.309	83.6973	341.309	83.4847	341.309	83.5454	341.309	83.1015	341.309	83.3648	341.309	82.7212	341.309	83.0962	341.309	82.373	341.309	82.694	341.309	82.0724	341.309	82.1497	341.309	81.8131	341.309	81.5098	341.309	81.5692	341.309	80.8797	341.309	81.3102	341.309	80.3938	341.309	81.0224	341.309	80.1379	341.309	80.7248	341.309	80.0868	341.309	80.4659	341.309	80.136	341.309	80.2951	341.309	80.1879	341.309	80.2227	341.309	80.2071
353.027	84.5618	353.027	84.4719	353.027	84.511	353.027	84.2575	353.027	84.3196	353.027	83.9537	353.027	84.0008	353.027	83.6118	353.027	83.5803	353.027	83.284	353.027	83.0965	353.027	82.997	353.027	82.6002	353.027	82.7324	353.027	82.1458	353.027	82.4332	353.027	81.7746	353.027	82.0354	353.027	81.493	353.027	81.506	353.027	81.2659	353.027	80.8751	353.027	81.0352	353.027	80.2548	353.027	80.7526	353.027	79.8106	353.027	80.4125	353.027	79.6518	353.027	80.0689	353.027	79.7291	353.027	79.8196	353.027	79.8802	353.027	79.7395	353.027	79.9613	353.027	79.8094	353.027	79.9215
366.211	84.6506	366.211	84.5473	366.211	84.6031	366.211	84.3106	366.211	84.4041	366.211	83.9766	366.211	84.0677	366.211	83.5963	366.211	83.6217	366.211	83.2206	366.211	83.1081	366.211	82.876	366.211	82.5814	366.211	82.5467	366.211	82.0985	366.211	82.1822	366.211	81.699	366.211	81.7285	366.211	81.384	366.211	81.1637	366.211	81.1115	366.211	80.5277	366.211	80.817	366.211	79.9332	366.211	80.4498	366.211	79.5271	366.211	80.0081	366.211	79.3875	366.211	79.5619	366.211	79.4469	366.211	79.2393	366.211	79.5486	366.211	79.1445	366.211	79.561	366.211	79.2573	366.211	79.4431
379.395	85.1378	379.395	85.0767	379.395	85.0636	379.395	84.8944	379.395	84.8518	379.395	84.6173	379.395	84.5096	379.395	84.2802	379.395	84.0531	379.395	83.9143	379.395	83.51	379.395	83.5313	379.395	82.9228	379.395	83.1135	379.395	82.3502	379.395	82.6197	379.395	81.8561	379.395	82.0042	379.395	81.4818	379.395	81.2422	379.395	81.2167	379.395	80.3613	379.395	80.9955	379.395	79.4725	379.395	80.7308	379.395	78.7658	379.395	80.3577	379.395	78.4006	379.395	79.8709	379.395	78.3549	379.395	79.3433	379.395	78.4508	379.395	78.9045	379.395	78.5312	379.395	78.6535	379.395	78.5683
392.578	84.5569	392.578	84.4551	392.578	84.5281	392.578	84.2416	392.578	84.3651	392.578	83.9561	392.578	84.0747	392.578	83.6527	392.578	83.673	392.578	83.3759	392.578	83.1891	392.578	83.1289	392.578	82.6709	392.578	82.8637	392.578	82.1826	392.578	82.5062	392.578	81.7852	392.578	81.9957	392.578	81.5027	392.578	81.3171	392.578	81.3005	392.578	80.5235	392.578	81.1023	392.578	79.7496	392.578	80.8347	392.578	79.182	392.578	80.4708	392.578	78.9492	392.578	80.0549	392.578	79.0109	392.578	79.6918	392.578	79.1991	392.578	79.4792	392.578	79.3556	392.578	79.4198	392.578	79.4157
405.762	84.1577	405.762	84.0416	405.762	84.0984	405.762	83.7625	405.762	83.8749	405.762	83.3658	405.762	83.5138	405.762	82.9319	405.762	83.0515	405.762	82.556	405.762	82.5328	405.762	82.2957	405.762	82.0114	405.762	82.1255	405.762	81.5486	405.762	81.9485	405.762	81.1993	405.762	81.6586	405.762	80.984	405.762	81.1999	405.762	80.8653	405.762	80.6039	405.762	80.7589	405.762	80.0037	405.762	80.577	405.762	79.5922	405.762	80.2786	405.762	79.4833	405.762	79.9059	405.762	79.6007	405.762	79.5849	405.762	79.7555	405.762	79.4521	405.762	79.7997	405.762	79.5299	405.762	79.6976
420.41	84.7244	420.41	84.5905	420.41	84.6731	420.41	84.2841	420.41	84.4393	420.41	83.8396	420.41	84.0352	420.41	83.3154	420.41	83.4813	420.41	82.7809	420.41	82.8093	420.41	82.2846	420.41	82.0696	420.41	81.8216	420.41	81.3374	420.41	81.3332	420.41	80.7047	420.41	80.7457	420.41	80.2427	420.41	80.0223	420.41	79.9494	420.41	79.2143	420.41	79.7396	420.41	78.5011	420.41	79.5009	420.41	78.1384	420.41	79.1714	420.41	78.2357	420.41	78.7957	420.41	78.6103	420.41	78.5261	420.41	78.9673	420.41	78.5129	420.41	79.1129	420.41	78.7364	420.41	79.0039
435.059	84.4399	435.059	84.3339	435.059	84.3671	435.059	84.0623	435.059	84.1237	435.059	83.6726	435.059	83.7301	435.059	83.2488	435.059	83.215	435.059	82.8851	435.059	82.6217	435.059	82.6282	435.059	82.0179	435.059	82.4345	435.059	81.4973	435.059	82.1949	435.059	81.15	435.059	81.7969	435.059	81.0011	435.059	81.1752	435.059	80.9725	435.059	80.3443	435.059	80.9192	435.059	79.4323	435.059	80.7033	435.059	78.6862	435.059	80.2526	435.059	78.3368	435.059	79.6014	435.059	78.3687	435.059	78.9223	435.059	78.5354	435.059	78.4745	435.059	78.6056	435.059	78.3877	435.059	78.5142
451.172	84.8107	451.172	84.6466	451.172	84.7401	451.172	84.2523	451.172	84.4473	451.172	83.6655	451.172	83.9512	451.172	82.9726	451.172	83.274	451.172	82.3026	451.172	82.4484	451.172	81.7701	451.172	81.5372	451.172	81.3894	451.172	80.6603	451.172	81.0555	451.172	79.9974	451.172	80.626	451.172	79.7005	451.172	80.0216	451.172	79.75	451.172	79.3012	451.172	79.9468	451.172	78.7002	451.172	80.0663	451.172	78.5147	451.172	79.9837	451.172	78.7904	451.172	79.7151	451.172	79.2552	451.172	79.4119	451.172	79.6132	451.172	79.276	451.172	79.724	451.172	79.383	451.172	79.6015
465.82	85.0795	465.82	84.9783	465.82	84.966	465.82	84.6609	465.82	84.656	465.82	84.1551	465.82	84.1741	465.82	83.5289	465.82	83.5423	465.82	82.8876	465.82	82.7766	465.82	82.3351	465.82	81.8931	465.82	81.9032	465.82	80.932	465.82	81.5131	465.82	79.9946	465.82	81.0171	465.82	79.2601	465.82	80.2801	465.82	78.8918	465.82	79.2583	465.82	78.8587	465.82	78.1019	465.82	78.9283	465.82	77.2471	465.82	78.867	465.82	77.1353	465.82	78.594	465.82	77.6069	465.82	78.2227	465.82	78.1237	465.82	77.9959	465.82	78.3562	465.82	78.0592	465.82	78.2733
483.398	84.3384	483.398	84.2224	483.398	84.2417	483.398	83.8927	483.398	83.9569	483.398	83.3875	483.398	83.52	483.398	82.7947	483.398	82.9683	483.398	82.2416	483.398	82.3359	483.398	81.8353	483.398	81.6562	483.398	81.5821	483.398	80.973	483.398	81.3733	483.398	80.3496	483.398	81.0578	483.398	79.8586	483.398	80.524	483.398	79.5402	483.398	79.757	483.398	79.3624	483.398	78.8993	483.398	79.2389	483.398	78.2792	483.398	79.1016	483.398	78.2021	483.398	78.9627	483.398	78.5861	483.398	78.9093	483.398	79.0649	483.398	79.0126	483.398	79.3607	483.398	79.2248	483.398	79.3921
499.512	84.9309	499.512	84.8099	499.512	84.8114	499.512	84.4383	499.512	84.4829	499.512	83.844	499.512	83.9862	499.512	83.1131	499.512	83.3651	499.512	82.3903	499.512	82.664	499.512	81.8208	499.512	81.9307	499.512	81.4424	499.512	81.2227	499.512	81.1513	499.512	80.606	499.512	80.7934	499.512	80.1332	499.512	80.2688	499.512	79.8018	499.512	79.5834	499.512	79.5343	499.512	78.8799	499.512	79.2193	499.512	78.4272	499.512	78.7968	499.512	78.4399	499.512	78.3485	499.512	78.8234	499.512	78.1178	499.512	79.2494	499.512	78.3104	499.512	79.4354	499.512	78.8063	499.512	79.266
517.09	85.0203	517.09	84.891	517.09	84.8961	517.09	84.5099	517.09	84.5445	517.09	83.9187	517.09	84.0102	517.09	83.2097	517.09	83.3484	517.09	82.5138	517.09	82.618	517.09	81.9418	517.09	81.878	517.09	81.506	517.09	81.1879	517.09	81.1101	517.09	80.6082	517.09	80.6225	517.09	80.1828	517.09	79.9594	517.09	79.902	517.09	79.1505	517.09	79.6816	517.09	78.4074	517.09	79.3993	517.09	78.0952	517.09	78.9797	517.09	78.3932	517.09	78.4948	517.09	79.0234	517.09	78.212	517.09	79.5592	517.09	78.3973	517.09	79.741	517.09	78.9542	517.09	79.503
536.133	85.0747	536.133	84.9331	536.133	84.8619	536.133	84.424	536.133	84.334	536.133	83.5855	536.133	83.5497	536.133	82.5597	536.133	82.5918	536.133	81.6384	536.133	81.5778	536.133	81.1389	536.133	80.6684	536.133	81.0713	536.133	80.0415	536.133	81.1027	536.133	79.7997	536.133	80.8908	536.133	79.8773	536.133	80.2653	536.133	80.0706	536.133	79.2529	536.133	80.1566	536.133	78.1571	536.133	79.9797	536.133	77.6006	536.133	79.5024	536.133	77.9689	536.133	78.8788	536.133	78.837	536.133	78.4961	536.133	79.5947	536.133	78.6882	536.133	79.9383	536.133	79.2786	536.133	79.7998
555.176	85.2902	555.176	85.1898	555.176	85.089	555.176	84.7618	555.176	84.6149	555.176	84.0054	555.176	83.8891	555.176	82.9849	555.176	82.9218	555.176	81.8891	555.176	81.7215	555.176	81.0271	555.176	80.332	555.176	80.6025	555.176	78.9248	555.176	80.459	555.176	77.906	555.176	80.2416	555.176	77.7039	555.176	79.6949	555.176	78.1728	555.176	78.7701	555.176	78.7131	555.176	77.6935	555.176	78.8688	555.176	77.0318	555.176	78.478	555.176	77.2663	555.176	77.6946	555.176	78.1001	555.176	77.1192	555.176	78.8913	555.176	77.4137	555.176	79.2515	555.176	78.3018	555.176	79.0389
574.219	84.9518	574.219	84.8717	574.219	84.7541	574.219	84.4631	574.219	84.3245	574.219	83.695	574.219	83.6927	574.219	82.6025	574.219	82.87	574.219	81.3621	574.219	81.8562	574.219	80.3287	574.219	80.6616	574.219	79.7997	574.219	79.3604	574.219	79.6334	574.219	78.1878	574.219	79.4098	574.219	77.5492	574.219	78.845	574.219	77.6349	574.219	77.942	574.219	78.0719	574.219	77.0642	574.219	78.3202	574.219	76.8363	574.219	78.0764	574.219	77.4383	574.219	77.3708	574.219	78.3365	574.219	76.7061	574.219	78.9938	574.219	76.8645	574.219	79.149	574.219	77.7976	574.219	78.7177
594.727	84.9414	594.727	84.8813	594.727	84.6856	594.727	84.4709	594.727	84.1563	594.727	83.7012	594.727	83.3962	594.727	82.6296	594.727	82.4401	594.727	81.4513	594.727	81.3076	594.727	80.5163	594.727	80.0096	594.727	80.0678	594.727	78.5981	594.727	79.903	594.727	77.2924	594.727	79.5642	594.727	76.5724	594.727	78.7041	594.727	76.7602	594.727	77.2272	594.727	77.4436	594.727	75.5605	594.727	77.9539	594.727	75.0073	594.727	77.9202	594.727	76.0637	594.727	77.3255	594.727	77.4488	594.727	76.5922	594.727	78.342	594.727	76.518	594.727	78.5684	594.727	77.2784	594.727	78.1504
615.234	85.8073	615.234	85.7204	615.234	85.5662	615.234	85.2484	615.234	85.0513	615.234	84.3502	615.234	84.3018	615.234	83.0418	615.234	83.3339	615.234	81.4965	615.234	82.1389	615.234	80.1754	615.234	80.6962	615.234	79.5829	615.234	79.0341	615.234	79.5428	615.234	77.4077	615.234	79.3634	615.234	76.4809	615.234	78.515	615.234	76.6692	615.234	76.7495	615.234	77.2877	615.234	74.3735	615.234	77.4568	615.234	73.5405	615.234	76.7444	615.234	75.4959	615.234	75.2029	615.234	77.6822	615.234	74.108	615.234	79.0228	615.234	75.3506	615.234	79.4399	615.234	77.4823	615.234	78.9335
637.207	86.1633	637.207	86.1193	637.207	85.8808	637.207	85.6871	637.207	85.3395	637.207	84.8162	637.207	84.6079	637.207	83.5035	637.207	83.7354	637.207	81.9267	637.207	82.7202	637.207	80.6966	637.207	81.4886	637.207	80.5406	637.207	79.9169	637.207	81.0955	637.207	77.9559	637.207	81.3924	637.207	76.0656	637.207	80.8539	637.207	75.6186	637.207	79.1654	637.207	76.7205	637.207	75.9998	637.207	77.715	637.207	71.5696	637.207	77.6926	637.207	71.4262	637.207	76.4093	637.207	74.9491	637.207	74.2639	637.207	77.1273	637.207	73.6675	637.207	77.8635	637.207	75.6087	637.207	77.3261
659.18	87.1438	659.18	87.2269	659.18	86.7724	659.18	86.9533	659.18	86.1791	659.18	86.2435	659.18	85.4334	659.18	85.0064	659.18	84.5983	659.18	83.186	659.18	83.7013	659.18	81.0048	659.18	82.7019	659.18	79.5691	659.18	81.4833	659.18	79.9733	659.18	79.9042	659.18	81.0407	659.18	78.0126	659.18	81.497	659.18	76.6324	659.18	80.9065	659.18	76.9794	659.18	79.0419	659.18	78.108	659.18	75.7464	659.18	78.4541	659.18	72.6821	659.18	77.3084	659.18	74.3338	659.18	74.305	659.18	76.7617	659.18	71.3353	659.18	77.6077	659.18	73.9336	659.18	76.7128
682.617	86.859	682.617	87.0704	682.617	86.3434	682.617	86.9288	682.617	85.5928	682.617	86.3789	682.617	84.7139	682.617	85.3429	682.617	83.8318	682.617	83.7441	682.617	83.0249	682.617	81.6772	682.617	82.2542	682.617	79.9465	682.617	81.3603	682.617	79.8968	682.617	80.1505	682.617	80.9208	682.617	78.6071	682.617	81.5432	682.617	77.3506	682.617	81.1533	682.617	77.5018	682.617	79.5343	682.617	78.5716	682.617	76.6992	682.617	79.1391	682.617	74.1079	682.617	78.4911	682.617	74.7804	682.617	76.3137	682.617	76.36	682.617	73.042	682.617	76.6475	682.617	72.745	682.617	75.2853
707.52	86.8278	707.52	87.0069	707.52	86.3548	707.52	86.8568	707.52	85.6434	707.52	86.35	707.52	84.7727	707.52	85.4561	707.52	83.83	707.52	84.1504	707.52	82.8752	707.52	82.4835	707.52	81.9043	707.52	80.8036	707.52	80.8378	707.52	79.9469	707.52	79.5634	707.52	80.2764	707.52	78.1023	707.52	80.871	707.52	77.0279	707.52	80.8076	707.52	77.349	707.52	79.6358	707.52	78.6344	707.52	77.1779	707.52	79.5404	707.52	74.1953	707.52	79.3874	707.52	74.0042	707.52	77.9957	707.52	75.8224	707.52	75.8364	707.52	76.6401	707.52	74.9987	707.52	76.0509
732.422	86.5123	732.422	86.8212	732.422	85.9307	732.422	86.8273	732.422	85.1365	732.422	86.4998	732.422	84.2329	732.422	85.7752	732.422	83.3412	732.422	84.5561	732.422	82.5338	732.422	82.8017	732.422	81.7642	732.422	80.8783	732.422	80.855	732.422	79.9968	732.422	79.5607	732.422	80.6227	732.422	77.742	732.422	81.3903	732.422	76.0022	732.422	81.3315	732.422	76.1765	732.422	80.1141	732.422	77.8284	732.422	77.5741	732.422	78.8814	732.422	74.1166	732.422	78.5417	732.422	73.0994	732.422	76.5364	732.422	75.0201	732.422	73.2808	732.422	75.9799	732.422	72.8085	732.422	75.08
757.324	85.8975	757.324	86.1983	757.324	85.2947	757.324	86.1798	757.324	84.438	757.324	85.8112	757.324	83.4412	757.324	85.0179	757.324	82.476	757.324	83.6903	757.324	81.6958	757.324	81.7858	757.324	81.1195	757.324	79.7005	757.324	80.5643	757.324	78.7469	757.324	79.6951	757.324	79.4422	757.324	78.1533	757.324	80.3686	757.324	75.9209	757.324	80.5584	757.324	74.722	757.324	79.7143	757.324	76.3614	757.324	77.7736	757.324	78.1457	757.324	75.1665	757.324	78.4836	757.324	73.799	757.324	77.0063	757.324	74.3652	757.324	73.5145	757.324	74.4247	757.324	70.4582	757.324	72.6585
785.156	85.6626	785.156	85.9912	785.156	85.1046	785.156	86.0607	785.156	84.3654	785.156	85.818	785.156	83.5271	785.156	85.1558	785.156	82.6843	785.156	83.9289	785.156	81.909	785.156	82.041	785.156	81.2151	785.156	79.7254	785.156	80.5089	785.156	78.1645	785.156	79.5477	785.156	78.5026	785.156	77.9586	785.156	79.4934	785.156	75.4183	785.156	79.8255	785.156	73.0612	785.156	79.0852	785.156	74.5802	785.156	77.1686	785.156	77.2405	785.156	74.4081	785.156	78.4358	785.156	73.0388	785.156	77.9253	785.156	74.3061	785.156	75.9526	785.156	75.1975	785.156	74.1828	785.156	74.669
811.523	85.6193	811.523	85.8697	811.523	85.1163	811.523	85.8555	811.523	84.383	811.523	85.551	811.523	83.471	811.523	84.8765	811.523	82.4793	811.523	83.6702	811.523	81.552	811.523	81.7353	811.523	80.824	811.523	79.0695	811.523	80.2863	811.523	76.7721	811.523	79.6818	811.523	77.0705	811.523	78.5712	811.523	78.6188	811.523	76.4771	811.523	79.4416	811.523	73.5098	811.523	79.1609	811.523	73.3289	811.523	77.8303	811.523	76.2718	811.523	75.7002	811.523	77.9621	811.523	73.6832	811.523	77.6405	811.523	72.973	811.523	75.2665	811.523	72.5659	811.523	71.7184	811.523	71.2233
840.82	85.6545	840.82	85.9269	840.82	85.0074	840.82	85.8178	840.82	84.0678	840.82	85.3333	840.82	83.022	840.82	84.4549	840.82	82.0815	840.82	83.129	840.82	81.3385	840.82	81.2583	840.82	80.7363	840.82	78.7321	840.82	80.1745	840.82	75.8704	840.82	79.5568	840.82	74.9136	840.82	78.7109	840.82	76.6626	840.82	77.3275	840.82	78.1703	840.82	75.1498	840.82	78.3271	840.82	73.1185	840.82	76.9982	840.82	74.0293	840.82	74.389	840.82	76.058	840.82	72.2673	840.82	76.751	840.82	72.8095	840.82	75.8055	840.82	73.5157	840.82	74.0128	840.82	73.3455
870.117	85.3188	870.117	85.5918	870.117	84.7354	870.117	85.5437	870.117	83.9262	870.117	85.1933	870.117	83.0057	870.117	84.4928	870.117	82.0438	870.117	83.2917	870.117	81.0655	870.117	81.4058	870.117	80.1466	870.117	78.7243	870.117	79.4504	870.117	75.5678	870.117	79.0399	870.117	73.9766	870.117	78.6437	870.117	75.3567	870.117	77.7619	870.117	77.1029	870.117	76.0077	870.117	77.9323	870.117	73.8402	870.117	77.7028	870.117	73.5118	870.117	76.5707	870.117	74.7116	870.117	75.1728	870.117	75.0085	870.117	74.474	870.117	74.0345	870.117	74.2106	870.117	73.0883	870.117	73.5288
900.879	85.9134	900.879	86.1284	900.879	85.2077	900.879	85.8204	900.879	84.1554	900.879	85.0681	900.879	82.9678	900.879	84.0207	900.879	81.8208	900.879	82.8084	900.879	80.7528	900.879	81.4332	900.879	79.6782	900.879	79.7162	900.879	78.5423	900.879	77.3511	900.879	77.5009	900.879	74.3346	900.879	76.8244	900.879	72.7374	900.879	76.4225	900.879	74.0778	900.879	75.9275	900.879	75.2069	900.879	75.5018	900.879	75.0414	900.879	75.8263	900.879	74.2083	900.879	76.4713	900.879	74.1732	900.879	76.1578	900.879	75.0241	900.879	74.3283	900.879	75.1824	900.879	72.6456	900.879	73.8896
933.105	85.5906	933.105	85.4837	933.105	85.1802	933.105	84.9146	933.105	84.3247	933.105	84.0702	933.105	83.1866	933.105	83.1428	933.105	81.9778	933.105	82.136	933.105	80.8924	933.105	80.888	933.105	80.0109	933.105	79.3029	933.105	79.2391	933.105	77.5293	933.105	78.4047	933.105	75.8262	933.105	77.3939	933.105	74.3331	933.105	76.1668	933.105	73.7177	933.105	74.8673	933.105	74.313	933.105	74.3391	933.105	74.732	933.105	75.3759	933.105	74.0566	933.105	76.6799	933.105	72.6481	933.105	76.8664	933.105	72.2141	933.105	75.6218	933.105	72.807	933.105	73.7778	933.105	73.0314
965.332	86.1151	965.332	85.9699	965.332	85.6378	965.332	85.2139	965.332	84.7274	965.332	84.0778	965.332	83.6901	965.332	82.9653	965.332	82.7189	965.332	82.1368	965.332	81.7532	965.332	81.3615	965.332	80.6081	965.332	80.1665	965.332	79.1746	965.332	78.3602	965.332	77.607	965.332	76.433	965.332	76.3796	965.332	75.259	965.332	75.6515	965.332	74.695	965.332	74.8156	965.332	74.0877	965.332	74.176	965.332	73.2576	965.332	75.679	965.332	72.5237	965.332	77.8354	965.332	72.9017	965.332	78.4505	965.332	74.2467	965.332	77.1537	965.332	74.9528	965.332	75.0022	965.332	74.578
1,000.49	85.9143	1,000.49	85.7104	1,000.49	85.558	1,000.49	84.9408	1,000.49	84.7521	1,000.49	83.7302	1,000.49	83.6234	1,000.49	82.3148	1,000.49	82.2864	1,000.49	80.9949	1,000.49	80.9694	1,000.49	79.8006	1,000.49	79.9834	1,000.49	78.2426	1,000.49	79.3043	1,000.49	75.7846	1,000.49	78.5333	1,000.49	72.5983	1,000.49	77.3226	1,000.49	71.2562	1,000.49	75.4876	1,000.49	72.9538	1,000.49	72.8148	1,000.49	74.5189	1,000.49	69.9853	1,000.49	74.7301	1,000.49	71.7765	1,000.49	73.2819	1,000.49	75.0513	1,000.49	70.6932	1,000.49	76.1936	1,000.49	70.292	1,000.49	75.3166	1,000.49	72.0273	1,000.49	73.7174	1,000.49	72.9438
1,035.64	85.6884	1,035.64	85.8714	1,035.64	85.0556	1,035.64	85.5334	1,035.64	84.1462	1,035.64	84.685	1,035.64	83.1386	1,035.64	83.4483	1,035.64	81.9986	1,035.64	82.0592	1,035.64	80.6038	1,035.64	80.6681	1,035.64	79.0937	1,035.64	79.2338	1,035.64	77.8883	1,035.64	77.8991	1,035.64	77.318	1,035.64	76.9852	1,035.64	77.2569	1,035.64	76.0681	1,035.64	77.1309	1,035.64	74.6331	1,035.64	76.2574	1,035.64	73.7335	1,035.64	74.3555	1,035.64	74.0606	1,035.64	72.8791	1,035.64	74.0106	1,035.64	73.7521	1,035.64	72.8805	1,035.64	74.1911	1,035.64	71.8679	1,035.64	72.6409	1,035.64	72.2838	1,035.64	71.3039	1,035.64	72.2048
1,072.27	85.6485	1,072.27	85.7994	1,072.27	85.2482	1,072.27	85.5322	1,072.27	84.7634	1,072.27	84.8108	1,072.27	84.105	1,072.27	83.6825	1,072.27	83.0749	1,072.27	82.2411	1,072.27	81.6532	1,072.27	80.5959	1,072.27	79.9771	1,072.27	79.0054	1,072.27	78.249	1,072.27	78.3169	1,072.27	76.9133	1,072.27	78.727	1,072.27	76.5666	1,072.27	78.5931	1,072.27	76.7097	1,072.27	76.8524	1,072.27	75.9552	1,072.27	74.3086	1,072.27	73.6317	1,072.27	73.7818	1,072.27	72.5153	1,072.27	74.4228	1,072.27	75.1145	1,072.27	74.211	1,072.27	76.5531	1,072.27	73.9512	1,072.27	75.7038	1,072.27	74.3238	1,072.27	73.9884	1,072.27	74.0534
1,108.89	86.6528	1,108.89	86.6915	1,108.89	86.494	1,108.89	86.4721	1,108.89	86.1434	1,108.89	85.7544	1,108.89	85.4687	1,108.89	84.4431	1,108.89	84.4789	1,108.89	82.8846	1,108.89	83.355	1,108.89	81.6042	1,108.89	82.2504	1,108.89	80.1019	1,108.89	80.9243	1,108.89	77.1741	1,108.89	78.7648	1,108.89	74.6226	1,108.89	75.9088	1,108.89	76.5597	1,108.89	75.7657	1,108.89	77.6469	1,108.89	77.2532	1,108.89	76.9	1,108.89	76.6375	1,108.89	75.7451	1,108.89	73.4731	1,108.89	75.5438	1,108.89	74.3415	1,108.89	75.6898	1,108.89	77.0651	1,108.89	76.2529	1,108.89	76.2032	1,108.89	77.1934	1,108.89	74.7482	1,108.89	76.6206
1,148.44	86.6527	1,148.44	86.6688	1,148.44	86.3718	1,148.44	86.2834	1,148.44	86.0277	1,148.44	85.533	1,148.44	85.5956	1,148.44	84.5112	1,148.44	84.8026	1,148.44	83.1655	1,148.44	83.563	1,148.44	81.3536	1,148.44	82.2563	1,148.44	79.3412	1,148.44	81.292	1,148.44	77.6056	1,148.44	80.2496	1,148.44	75.8336	1,148.44	78.2692	1,148.44	74.5133	1,148.44	75.7916	1,148.44	74.6547	1,148.44	75.6416	1,148.44	74.9639	1,148.44	76.4035	1,148.44	74.5333	1,148.44	75.8156	1,148.44	74.1235	1,148.44	75.5802	1,148.44	74.105	1,148.44	76.4013	1,148.44	73.9626	1,148.44	75.0715	1,148.44	73.8202	1,148.44	71.7997	1,148.44	72.5658
1,189.45	86.0764	1,189.45	86.0993	1,189.45	85.9929	1,189.45	85.971	1,189.45	85.7991	1,189.45	85.5532	1,189.45	85.2609	1,189.45	84.6876	1,189.45	84.2236	1,189.45	83.2938	1,189.45	82.9003	1,189.45	81.5288	1,189.45	81.7701	1,189.45	79.5767	1,189.45	80.9331	1,189.45	77.1166	1,189.45	79.7023	1,189.45	73.5765	1,189.45	77.2667	1,189.45	72.013	1,189.45	74.3839	1,189.45	75.5663	1,189.45	74.859	1,189.45	78.0521	1,189.45	76.1289	1,189.45	78.1816	1,189.45	75.5807	1,189.45	75.9614	1,189.45	75.7015	1,189.45	73.2129	1,189.45	76.9216	1,189.45	73.4917	1,189.45	75.5339	1,189.45	73.6355	1,189.45	70.9248	1,189.45	71.1924
1,230.47	86.2499	1,230.47	86.0936	1,230.47	86.3884	1,230.47	85.9854	1,230.47	86.3444	1,230.47	85.7387	1,230.47	85.896	1,230.47	84.9427	1,230.47	84.8851	1,230.47	83.3646	1,230.47	83.4033	1,230.47	81.3266	1,230.47	81.7971	1,230.47	79.3819	1,230.47	80.545	1,230.47	77.5658	1,230.47	79.7928	1,230.47	75.449	1,230.47	78.6517	1,230.47	72.0369	1,230.47	76.03	1,230.47	70.0156	1,230.47	72.5039	1,230.47	74.3687	1,230.47	72.7837	1,230.47	76.5232	1,230.47	74.2894	1,230.47	75.6837	1,230.47	74.7148	1,230.47	73.386	1,230.47	76.05	1,230.47	73.0368	1,230.47	75.9013	1,230.47	72.8229	1,230.47	72.4251	1,230.47	70.5668
1,274.41	86.5462	1,274.41	86.3575	1,274.41	86.5617	1,274.41	85.9034	1,274.41	86.4551	1,274.41	85.2622	1,274.41	85.9805	1,274.41	84.4024	1,274.41	84.895	1,274.41	83.1075	1,274.41	83.2534	1,274.41	81.4795	1,274.41	81.3539	1,274.41	79.9348	1,274.41	79.6733	1,274.41	78.5479	1,274.41	78.5229	1,274.41	77.6123	1,274.41	77.4372	1,274.41	76.5076	1,274.41	75.7288	1,274.41	72.695	1,274.41	73.7553	1,274.41	68.8852	1,274.41	73.9033	1,274.41	74.1846	1,274.41	75.1368	1,274.41	75.0758	1,274.41	75.1916	1,274.41	72.1035	1,274.41	74.9282	1,274.41	70.976	1,274.41	74.2562	1,274.41	71.0273	1,274.41	71.6515	1,274.41	69.1709
1,319.82	85.673	1,319.82	85.3111	1,319.82	86.0704	1,319.82	84.9143	1,319.82	86.2075	1,319.82	84.3965	1,319.82	85.6527	1,319.82	83.8213	1,319.82	84.2994	1,319.82	82.7758	1,319.82	82.5297	1,319.82	80.7631	1,319.82	80.9008	1,319.82	78.8097	1,319.82	79.6363	1,319.82	76.9706	1,319.82	78.6254	1,319.82	73.8364	1,319.82	77.5989	1,319.82	75.063	1,319.82	75.8156	1,319.82	76.1328	1,319.82	72.8773	1,319.82	73.7837	1,319.82	71.7883	1,319.82	74.1711	1,319.82	73.4983	1,319.82	75.2658	1,319.82	73.9728	1,319.82	70.8617	1,319.82	74.4251	1,319.82	65.1531	1,319.82	73.6895	1,319.82	68.3008	1,319.82	70.9223	1,319.82	68.9629
1,366.7	85.5109	1,366.7	84.5356	1,366.7	85.9468	1,366.7	83.783	1,366.7	85.9517	1,366.7	83.45	1,366.7	85.7231	1,366.7	82.7029	1,366.7	84.9163	1,366.7	81.0011	1,366.7	83.2691	1,366.7	78.7193	1,366.7	80.7706	1,366.7	77.5866	1,366.7	77.9721	1,366.7	77.9226	1,366.7	76.5321	1,366.7	77.0165	1,366.7	75.8992	1,366.7	75.1759	1,366.7	74.3475	1,366.7	74.0885	1,366.7	71.7448	1,366.7	71.2647	1,366.7	70.2144	1,366.7	73.2922	1,366.7	70.3504	1,366.7	74.1823	1,366.7	72.9801	1,366.7	67.866	1,366.7	75.6446	1,366.7	57.8292	1,366.7	75.2723	1,366.7	66.2348	1,366.7	71.5635	1,366.7	68.2269
1,413.57	85.4904	1,413.57	84.6077	1,413.57	85.8414	1,413.57	83.7607	1,413.57	85.6985	1,413.57	83.3704	1,413.57	85.0777	1,413.57	82.4526	1,413.57	84.0047	1,413.57	80.5273	1,413.57	82.5112	1,413.57	78.7885	1,413.57	80.1555	1,413.57	78.7553	1,413.57	77.0477	1,413.57	79.4104	1,413.57	75.7751	1,413.57	77.7187	1,413.57	76.425	1,413.57	75.0481	1,413.57	75.5624	1,413.57	75.4437	1,413.57	71.3017	1,413.57	72.6627	1,413.57	70.106	1,413.57	68.6861	1,413.57	72.7353	1,413.57	71.9028	1,413.57	71.4357	1,413.57	70.8269	1,413.57	74.7075	1,413.57	65.9789	1,413.57	75.524	1,413.57	63.9976	1,413.57	71.2352	1,413.57	65.1182
1,463.38	85.54	1,463.38	84.2431	1,463.38	85.7085	1,463.38	82.8776	1,463.38	85.0561	1,463.38	82.6508	1,463.38	84.266	1,463.38	82.4939	1,463.38	83.307	1,463.38	81.3193	1,463.38	81.5555	1,463.38	78.8578	1,463.38	78.5386	1,463.38	75.9124	1,463.38	74.0464	1,463.38	76.2014	1,463.38	69.5172	1,463.38	75.9391	1,463.38	70.3706	1,463.38	75.1549	1,463.38	72.021	1,463.38	76.4405	1,463.38	70.59	1,463.38	74.9075	1,463.38	69.8259	1,463.38	69.3773	1,463.38	70.8946	1,463.38	70.4449	1,463.38	64.6781	1,463.38	69.7109	1,463.38	71.4572	1,463.38	65.1382	1,463.38	73.8803	1,463.38	52.0913	1,463.38	70.3601	1,463.38	62.0745
1,516.11	85.3817	1,516.11	84.2175	1,516.11	85.6365	1,516.11	82.1382	1,516.11	85.4054	1,516.11	81.3094	1,516.11	84.2139	1,516.11	82.0873	1,516.11	81.9817	1,516.11	81.9021	1,516.11	79.6123	1,516.11	80.6041	1,516.11	77.8404	1,516.11	78.3042	1,516.11	75.854	1,516.11	75.6641	1,516.11	71.648	1,516.11	74.0364	1,516.11	68.2617	1,516.11	69.4986	1,516.11	72.4784	1,516.11	73.9604	1,516.11	72.0154	1,516.11	75.1355	1,516.11	62.7454	1,516.11	70.2777	1,516.11	68.525	1,516.11	70.6254	1,516.11	67.6774	1,516.11	72.6052	1,516.11	65.0062	1,516.11	69.1608	1,516.11	71.8533	1,516.11	62.8303	1,516.11	72.1283	1,516.11	66.9069
1,568.85	85.3787	1,568.85	84.0558	1,568.85	86.2014	1,568.85	82.9128	1,568.85	85.5022	1,568.85	81.412	1,568.85	83.5634	1,568.85	80.4271	1,568.85	81.6686	1,568.85	79.9152	1,568.85	79.8817	1,568.85	79.1633	1,568.85	77.3795	1,568.85	78.6418	1,568.85	74.8997	1,568.85	77.5843	1,568.85	72.9363	1,568.85	76.5167	1,568.85	69.9343	1,568.85	73.4736	1,568.85	68.0266	1,568.85	69.0114	1,568.85	70.4108	1,568.85	74.8083	1,568.85	69.4437	1,568.85	71.9794	1,568.85	64.5964	1,568.85	67.8032	1,568.85	65.3791	1,568.85	71.1603	1,568.85	64.7277	1,568.85	69.3502	1,568.85	69.3424	1,568.85	62.3176	1,568.85	71.6563	1,568.85	66.8884
1,624.51	85.992	1,624.51	84.4877	1,624.51	86.6723	1,624.51	83.2358	1,624.51	85.8432	1,624.51	81.7208	1,624.51	84.0575	1,624.51	79.3619	1,624.51	81.6399	1,624.51	78.7132	1,624.51	78.7752	1,624.51	78.7029	1,624.51	76.4952	1,624.51	76.8146	1,624.51	75.8738	1,624.51	75.7878	1,624.51	75.5777	1,624.51	77.4662	1,624.51	74.4201	1,624.51	76.9832	1,624.51	71.0488	1,624.51	70.9685	1,624.51	64.8775	1,624.51	71.1105	1,624.51	62.411	1,624.51	70.781	1,624.51	66.256	1,624.51	66.0352	1,624.51	69.5947	1,624.51	68.1009	1,624.51	66.9311	1,624.51	65.1931	1,624.51	68.9768	1,624.51	59.3109	1,624.51	73.0685	1,624.51	67.0026
1,681.64	85.3216	1,681.64	84.8266	1,681.64	85.653	1,681.64	82.8974	1,681.64	85.6873	1,681.64	80.7245	1,681.64	83.98	1,681.64	80.4357	1,681.64	80.4945	1,681.64	79.0435	1,681.64	76.2098	1,681.64	76.0971	1,681.64	73.6196	1,681.64	75.6268	1,681.64	73.8931	1,681.64	75.0213	1,681.64	74.6156	1,681.64	75.2422	1,681.64	74.7113	1,681.64	75.9386	1,681.64	73.5101	1,681.64	72.5605	1,681.64	70.9601	1,681.64	71.8255	1,681.64	67.3528	1,681.64	71.4481	1,681.64	63.7643	1,681.64	64.823	1,681.64	68.4129	1,681.64	63.2225	1,681.64	62.1631	1,681.64	66.0903	1,681.64	68.621	1,681.64	65.3869	1,681.64	71.0205	1,681.64	66.9925
1,741.7	85.6143	1,741.7	84.3726	1,741.7	85.7925	1,741.7	82.4523	1,741.7	84.5141	1,741.7	80.0904	1,741.7	81.9466	1,741.7	78.0537	1,741.7	79.4283	1,741.7	78.3295	1,741.7	77.5189	1,741.7	77.2159	1,741.7	74.7273	1,741.7	72.4189	1,741.7	71.0838	1,741.7	67.9557	1,741.7	71.9572	1,741.7	69.8424	1,741.7	72.2177	1,741.7	70.5789	1,741.7	69.0314	1,741.7	67.8704	1,741.7	71.8583	1,741.7	65.1731	1,741.7	74.9753	1,741.7	70.4375	1,741.7	70.5645	1,741.7	71.4571	1,741.7	59.966	1,741.7	69.1926	1,741.7	64.1398	1,741.7	65.6029	1,741.7	62.9093	1,741.7	64.9851	1,741.7	68.892	1,741.7	67.038
1,803.22	85.9856	1,803.22	84.7355	1,803.22	85.2967	1,803.22	82.2698	1,803.22	83.6656	1,803.22	80.4835	1,803.22	82.0498	1,803.22	78.3405	1,803.22	79.0555	1,803.22	76.2834	1,803.22	75.8408	1,803.22	76.3749	1,803.22	75.5347	1,803.22	77.2753	1,803.22	74.0924	1,803.22	76.799	1,803.22	72.2174	1,803.22	73.1426	1,803.22	72.1069	1,803.22	74.9002	1,803.22	72.1435	1,803.22	75.3759	1,803.22	70.8156	1,803.22	71.6044	1,803.22	69.8396	1,803.22	69.2846	1,803.22	64.2675	1,803.22	65.3531	1,803.22	63.9149	1,803.22	64.9582	1,803.22	67.463	1,803.22	63.5663	1,803.22	62.6569	1,803.22	60.5381	1,803.22	69.2165	1,803.22	65.9823
1,866.21	86.113	1,866.21	85.1986	1,866.21	85.4546	1,866.21	82.3601	1,866.21	83.3163	1,866.21	78.4061	1,866.21	79.7307	1,866.21	77.804	1,866.21	76.448	1,866.21	77.472	1,866.21	75.0099	1,866.21	75.3572	1,866.21	73.7677	1,866.21	75.9103	1,866.21	72.355	1,866.21	77.6525	1,866.21	71.1865	1,866.21	76.1316	1,866.21	72.6912	1,866.21	74.0914	1,866.21	73.4357	1,866.21	74.8643	1,866.21	71.7022	1,866.21	70.9311	1,866.21	72.1635	1,866.21	67.3689	1,866.21	68.3188	1,866.21	68.4092	1,866.21	61.2861	1,866.21	64.7241	1,866.21	68.7361	1,866.21	58.8993	1,866.21	58.7778	1,866.21	54.5569	1,866.21	67.5283	1,866.21	62.6206
1,932.13	85.1206	1,932.13	84.4146	1,932.13	84.7846	1,932.13	82.9059	1,932.13	83.006	1,932.13	78.9451	1,932.13	79.8523	1,932.13	72.5374	1,932.13	75.6371	1,932.13	74.8585	1,932.13	73.7593	1,932.13	74.0519	1,932.13	72.9897	1,932.13	72.0409	1,932.13	70.6298	1,932.13	73.7262	1,932.13	68.8811	1,932.13	74.9286	1,932.13	70.1722	1,932.13	70.722	1,932.13	67.756	1,932.13	70.2905	1,932.13	68.4078	1,932.13	71.3508	1,932.13	73.1053	1,932.13	67.5095	1,932.13	72.4923	1,932.13	65.3161	1,932.13	57.6122	1,932.13	67.3239	1,932.13	68.7693	1,932.13	62.6041	1,932.13	57.5471	1,932.13	64.2716	1,932.13	66.9248	1,932.13	67.2314
1,999.51	85.0426	1,999.51	84.7983	1,999.51	83.9638	1,999.51	82.5876	1,999.51	82.2309	1,999.51	78.5358	1,999.51	78.5807	1,999.51	71.7823	1,999.51	73.3966	1,999.51	72.8216	1,999.51	74.026	1,999.51	75.1352	1,999.51	73.0267	1,999.51	74.8467	1,999.51	70.4674	1,999.51	72.9688	1,999.51	70.4133	1,999.51	69.1386	1,999.51	71.7728	1,999.51	69.097	1,999.51	69.6763	1,999.51	66.7656	1,999.51	68.8814	1,999.51	69.8793	1,999.51	70.9295	1,999.51	68.9866	1,999.51	67.7529	1,999.51	62.3296	1,999.51	61.9193	1,999.51	57.189	1,999.51	69.0985	1,999.51	60.5916	1,999.51	63.2051	1,999.51	64.9964	1,999.51	66.8724	1,999.51	65.8508
2,069.82	85.889	2,069.82	85.5486	2,069.82	84.1966	2,069.82	82.4527	2,069.82	81.1211	2,069.82	76.6405	2,069.82	76.124	2,069.82	69.8738	2,069.82	73.1845	2,069.82	73.7136	2,069.82	73.8358	2,069.82	76.721	2,069.82	72.5488	2,069.82	75.6799	2,069.82	71.0183	2,069.82	72.0364	2,069.82	70.6403	2,069.82	66.7162	2,069.82	70.3012	2,069.82	72.2361	2,069.82	70.314	2,069.82	70.8429	2,069.82	67.0397	2,069.82	61.0724	2,069.82	71.5658	2,069.82	69.0113	2,069.82	71.4254	2,069.82	65.2532	2,069.82	59.5129	2,069.82	63.3973	2,069.82	67.5924	2,069.82	55.086	2,069.82	57.2547	2,069.82	67.4853	2,069.82	66.1419	2,069.82	67.6937
2,143.07	86.3723	2,143.07	85.8036	2,143.07	84.7074	2,143.07	83.0603	2,143.07	80.6815	2,143.07	76.3035	2,143.07	74.0081	2,143.07	68.7464	2,143.07	71.7964	2,143.07	75.1139	2,143.07	73.7029	2,143.07	76.6876	2,143.07	74.2978	2,143.07	74.4585	2,143.07	72.6196	2,143.07	73.1027	2,143.07	71.3383	2,143.07	70.6598	2,143.07	71.579	2,143.07	69.6458	2,143.07	68.6271	2,143.07	69.2505	2,143.07	68.5952	2,143.07	64.2868	2,143.07	68.6922	2,143.07	66.0434	2,143.07	65.3196	2,143.07	60.7136	2,143.07	63.4778	2,143.07	58.3413	2,143.07	64.9455	2,143.07	54.5065	2,143.07	63.1979	2,143.07	66.6365	2,143.07	62.014	2,143.07	67.1963
2,219.24	85.4832	2,219.24	85.4262	2,219.24	84.1867	2,219.24	83.1809	2,219.24	80.1326	2,219.24	75.6502	2,219.24	73.598	2,219.24	68.3404	2,219.24	72.5717	2,219.24	74.2031	2,219.24	72.7765	2,219.24	75.9988	2,219.24	75.1926	2,219.24	72.6761	2,219.24	75.0272	2,219.24	71.7951	2,219.24	69.628	2,219.24	73.4131	2,219.24	69.5449	2,219.24	71.0499	2,219.24	65.9366	2,219.24	70.1432	2,219.24	66.3619	2,219.24	66.4327	2,219.24	71.5859	2,219.24	67.987	2,219.24	66.0333	2,219.24	64.4843	2,219.24	65.1769	2,219.24	52.4029	2,219.24	60.7656	2,219.24	58.9352	2,219.24	54.1101	2,219.24	64.7567	2,219.24	65.7998	2,219.24	65.5389
2,296.88	85.5911	2,296.88	85.6095	2,296.88	83.3524	2,296.88	82.2127	2,296.88	78.9055	2,296.88	74.5307	2,296.88	71.8058	2,296.88	67.0948	2,296.88	71.1823	2,296.88	75.2296	2,296.88	74.8228	2,296.88	72.9605	2,296.88	77.535	2,296.88	75.1356	2,296.88	77.0294	2,296.88	76.0673	2,296.88	71.3786	2,296.88	74.1591	2,296.88	68.6687	2,296.88	73.7297	2,296.88	67.7217	2,296.88	72.3451	2,296.88	69.7628	2,296.88	68.8532	2,296.88	72.1985	2,296.88	67.4745	2,296.88	61.7183	2,296.88	60.5472	2,296.88	67.7922	2,296.88	56.0859	2,296.88	59.5727	2,296.88	54.4881	2,296.88	54.7451	2,296.88	66.8688	2,296.88	67.0082	2,296.88	68.0557
2,378.91	86.9658	2,378.91	86.7713	2,378.91	84.327	2,378.91	82.6495	2,378.91	77.9131	2,378.91	71.9718	2,378.91	68.1898	2,378.91	69.04	2,378.91	74.3372	2,378.91	75.3586	2,378.91	78.2933	2,378.91	78.7963	2,378.91	78.2261	2,378.91	78.0284	2,378.91	75.8375	2,378.91	74.9743	2,378.91	72.5382	2,378.91	73.9715	2,378.91	67.7146	2,378.91	70.3736	2,378.91	64.3672	2,378.91	69.5708	2,378.91	62.1714	2,378.91	70.0902	2,378.91	71.3918	2,378.91	69.1044	2,378.91	67.5104	2,378.91	63.6377	2,378.91	65.2732	2,378.91	50.8197	2,378.91	53.3963	2,378.91	55.0361	2,378.91	62.1424	2,378.91	65.7413	2,378.91	63.7082	2,378.91	67.996
2,462.4	86.7463	2,462.4	86.082	2,462.4	84.5386	2,462.4	82.4664	2,462.4	78.235	2,462.4	70.9938	2,462.4	62.8445	2,462.4	72.0536	2,462.4	75.6165	2,462.4	77.5904	2,462.4	79.3827	2,462.4	77.7256	2,462.4	78.9539	2,462.4	74.3663	2,462.4	75.4535	2,462.4	73.1354	2,462.4	70.9495	2,462.4	71.1888	2,462.4	70.3822	2,462.4	68.6341	2,462.4	72.523	2,462.4	68.8877	2,462.4	72.1173	2,462.4	67.085	2,462.4	69.8631	2,462.4	66.8046	2,462.4	70.8885	2,462.4	66.3017	2,462.4	70.5973	2,462.4	57.3817	2,462.4	60.739	2,462.4	61.4013	2,462.4	56.5051	2,462.4	66.4511	2,462.4	57.5701	2,462.4	66.9353
2,548.83	85.8099	2,548.83	85.4378	2,548.83	83.7715	2,548.83	82.0727	2,548.83	76.726	2,548.83	68.2547	2,548.83	67.5294	2,548.83	75.2698	2,548.83	78.0147	2,548.83	77.3132	2,548.83	80.1968	2,548.83	76.2621	2,548.83	80.0393	2,548.83	75.8567	2,548.83	77.4396	2,548.83	73.3329	2,548.83	73.5853	2,548.83	69.4486	2,548.83	71.2178	2,548.83	69.4427	2,548.83	71.3444	2,548.83	69.7471	2,548.83	71.5872	2,548.83	68.5474	2,548.83	71.719	2,548.83	67.9874	2,548.83	69.583	2,548.83	66.3683	2,548.83	70.4467	2,548.83	63.6368	2,548.83	61.4823	2,548.83	57.6689	2,548.83	57.3777	2,548.83	67.3406	2,548.83	56.0499	2,548.83	66.4791
2,639.65	86.0363	2,639.65	85.7363	2,639.65	83.3202	2,639.65	81.1263	2,639.65	75.3616	2,639.65	70.8253	2,639.65	70.5481	2,639.65	75.5294	2,639.65	79.0131	2,639.65	77.8438	2,639.65	80.4868	2,639.65	77.5522	2,639.65	80.5276	2,639.65	76.8255	2,639.65	78.8419	2,639.65	74.4614	2,639.65	75.3065	2,639.65	73.0427	2,639.65	70.2095	2,639.65	70.4458	2,639.65	69.2397	2,639.65	69.8901	2,639.65	69.2484	2,639.65	68.7897	2,639.65	70.8533	2,639.65	67.7485	2,639.65	70.1884	2,639.65	66.5415	2,639.65	66.9673	2,639.65	65.1514	2,639.65	63.4894	2,639.65	64.4334	2,639.65	58.2925	2,639.65	63.0686	2,639.65	42.8018	2,639.65	66.3477
2,731.93	86.2636	2,731.93	85.7882	2,731.93	83.3993	2,731.93	80.9987	2,731.93	74.3175	2,731.93	71.0633	2,731.93	72.1009	2,731.93	74.5668	2,731.93	79.0516	2,731.93	77.7728	2,731.93	79.909	2,731.93	77.2314	2,731.93	79.3935	2,731.93	75.6691	2,731.93	77.6727	2,731.93	73.1206	2,731.93	74.3748	2,731.93	71.185	2,731.93	65.3869	2,731.93	68.8755	2,731.93	66.0006	2,731.93	68.7934	2,731.93	70.3158	2,731.93	66.3283	2,731.93	68.9418	2,731.93	64.9378	2,731.93	70.2102	2,731.93	64.5808	2,731.93	67.0942	2,731.93	64.0032	2,731.93	63.9587	2,731.93	65.5299	2,731.93	60.1219	2,731.93	66.8173	2,731.93	52.4036	2,731.93	63.1821
2,828.61	85.9131	2,828.61	85.3102	2,828.61	83.0124	2,828.61	80.4487	2,828.61	74.3194	2,828.61	71.0015	2,828.61	73.3837	2,828.61	75.9552	2,828.61	79.6804	2,828.61	76.8763	2,828.61	79.8995	2,828.61	75.9509	2,828.61	77.5125	2,828.61	74.5626	2,828.61	75.8721	2,828.61	72.8417	2,828.61	75.4237	2,828.61	70.5097	2,828.61	69.0446	2,828.61	69.7618	2,828.61	61.8291	2,828.61	68.6759	2,828.61	66.7071	2,828.61	68.0724	2,828.61	67.5523	2,828.61	64.78	2,828.61	68.9217	2,828.61	64.5471	2,828.61	66.9331	2,828.61	64.107	2,828.61	65.8667	2,828.61	66.3648	2,828.61	62.149	2,828.61	66.4392	2,828.61	57.8826	2,828.61	64.7253
2,928.22	86.0862	2,928.22	85.3754	2,928.22	82.2344	2,928.22	79.8486	2,928.22	72.1973	2,928.22	74.0812	2,928.22	75.6524	2,928.22	75.9705	2,928.22	80.1465	2,928.22	78.1226	2,928.22	80.0703	2,928.22	77.6386	2,928.22	77.1456	2,928.22	75.963	2,928.22	74.3219	2,928.22	74.7229	2,928.22	72.2943	2,928.22	72.8743	2,928.22	67.9462	2,928.22	70.6603	2,928.22	64.9623	2,928.22	69.2082	2,928.22	58.4333	2,928.22	66.5885	2,928.22	66.1481	2,928.22	66.2731	2,928.22	64.6499	2,928.22	63.5854	2,928.22	65.7417	2,928.22	59.3105	2,928.22	65.5426	2,928.22	63.9113	2,928.22	58.3973	2,928.22	66.2745	2,928.22	61.2328	2,928.22	64.8146
3,030.76	85.8749	3,030.76	84.8573	3,030.76	82.4015	3,030.76	79.9192	3,030.76	72.9159	3,030.76	73.6874	3,030.76	77.085	3,030.76	76.3708	3,030.76	80.9197	3,030.76	78.9361	3,030.76	81.4629	3,030.76	78.7356	3,030.76	80.1801	3,030.76	77.1731	3,030.76	77.3129	3,030.76	73.955	3,030.76	72.7735	3,030.76	69.793	3,030.76	67.5951	3,030.76	68.3363	3,030.76	61.8259	3,030.76	67.8146	3,030.76	64.9083	3,030.76	67.088	3,030.76	68.1658	3,030.76	62.7238	3,030.76	67.9922	3,030.76	64.4062	3,030.76	63.7138	3,030.76	61.6754	3,030.76	65.1366	3,030.76	63.1806	3,030.76	58.4066	3,030.76	65.9233	3,030.76	58.4624	3,030.76	64.8145
3,137.7	86.1387	3,137.7	85.324	3,137.7	82.4671	3,137.7	80.5321	3,137.7	75.2195	3,137.7	73.8678	3,137.7	79.3114	3,137.7	78.2952	3,137.7	81.3216	3,137.7	79.9843	3,137.7	81.3663	3,137.7	79.7048	3,137.7	80.4097	3,137.7	76.6294	3,137.7	77.875	3,137.7	74.0279	3,137.7	73.4877	3,137.7	71.9998	3,137.7	70.2954	3,137.7	70.4667	3,137.7	63.7723	3,137.7	68.4299	3,137.7	66.5565	3,137.7	67.1369	3,137.7	68.7793	3,137.7	63.7371	3,137.7	66.5264	3,137.7	63.3328	3,137.7	62.3124	3,137.7	61.1673	3,137.7	62.7635	3,137.7	60.8129	3,137.7	58.2721	3,137.7	63.7938	3,137.7	57.4469	3,137.7	61.7431
3,249.02	85.6467	3,249.02	85.1881	3,249.02	81.8256	3,249.02	80.7219	3,249.02	75.4736	3,249.02	75.973	3,249.02	80.0334	3,249.02	80.3233	3,249.02	81.2703	3,249.02	81.2051	3,249.02	80.723	3,249.02	79.422	3,249.02	79.9298	3,249.02	76.8215	3,249.02	78.1383	3,249.02	74.8903	3,249.02	74.8859	3,249.02	70.1251	3,249.02	71.8208	3,249.02	68.3077	3,249.02	64.691	3,249.02	67.2782	3,249.02	64.5833	3,249.02	65.2163	3,249.02	66.1826	3,249.02	61.5772	3,249.02	65.8699	3,249.02	64.4826	3,249.02	60.5332	3,249.02	58.5601	3,249.02	62.3446	3,249.02	60.8444	3,249.02	55.7452	3,249.02	63.4658	3,249.02	54.0241	3,249.02	61.7615
3,363.28	85.341	3,363.28	85.7689	3,363.28	80.9719	3,363.28	81.3497	3,363.28	77.0636	3,363.28	77.2823	3,363.28	79.9533	3,363.28	82.0539	3,363.28	80.7635	3,363.28	82.4295	3,363.28	80.2585	3,363.28	80.9357	3,363.28	79.2879	3,363.28	78.1786	3,363.28	78.3031	3,363.28	74.5702	3,363.28	75.9823	3,363.28	71.5284	3,363.28	72.7416	3,363.28	69.602	3,363.28	65.2897	3,363.28	68.8926	3,363.28	66.3472	3,363.28	67.6698	3,363.28	66.0156	3,363.28	63.4736	3,363.28	63.3265	3,363.28	66.0823	3,363.28	57.7543	3,363.28	61.2194	3,363.28	59.5378	3,363.28	61.1256	3,363.28	58.0769	3,363.28	64.8499	3,363.28	56.1515	3,363.28	61.5775
3,481.93	84.8962	3,481.93	85.2286	3,481.93	79.4719	3,481.93	80.4214	3,481.93	77.1771	3,481.93	79.5276	3,481.93	81.4983	3,481.93	82.8201	3,481.93	80.8229	3,481.93	82.8726	3,481.93	79.1559	3,481.93	81.9573	3,481.93	79.4521	3,481.93	78.1695	3,481.93	77.9184	3,481.93	75.2227	3,481.93	75.7946	3,481.93	73.0759	3,481.93	73.5815	3,481.93	68.6319	3,481.93	66.382	3,481.93	67.5621	3,481.93	68.2836	3,481.93	66.7892	3,481.93	66.3583	3,481.93	62.4301	3,481.93	64.2341	3,481.93	66.3426	3,481.93	57.7608	3,481.93	63.0164	3,481.93	56.1167	3,481.93	59.844	3,481.93	58.2436	3,481.93	65.097	3,481.93	56.1389	3,481.93	63.0539
3,604.98	84.1805	3,604.98	84.7103	3,604.98	80.0161	3,604.98	80.4003	3,604.98	77.4065	3,604.98	79.8214	3,604.98	81.5039	3,604.98	82.6489	3,604.98	81.6423	3,604.98	81.9186	3,604.98	80.2999	3,604.98	79.4464	3,604.98	78.8846	3,604.98	75.7577	3,604.98	77.1207	3,604.98	72.6024	3,604.98	75.5357	3,604.98	66.8042	3,604.98	72.6111	3,604.98	66.5847	3,604.98	65.6674	3,604.98	64.3982	3,604.98	69.8647	3,604.98	65.1332	3,604.98	68.1088	3,604.98	60.6592	3,604.98	65.9682	3,604.98	64.3104	3,604.98	47.3108	3,604.98	61.2234	3,604.98	54.1607	3,604.98	58.9346	3,604.98	57.1324	3,604.98	62.0741	3,604.98	56.4318	3,604.98	63.6891
3,732.42	84.0715	3,732.42	85.2409	3,732.42	79.0036	3,732.42	79.6928	3,732.42	79.1534	3,732.42	80.8778	3,732.42	81.5066	3,732.42	82.2205	3,732.42	80.9429	3,732.42	81.4899	3,732.42	78.6578	3,732.42	78.4395	3,732.42	78.7095	3,732.42	75.5272	3,732.42	77.7067	3,732.42	71.8671	3,732.42	74.3232	3,732.42	72.0315	3,732.42	70.7481	3,732.42	66.8876	3,732.42	67.5667	3,732.42	66.0342	3,732.42	69.8129	3,732.42	63.9566	3,732.42	66.1128	3,732.42	62.5194	3,732.42	68.1019	3,732.42	63.4867	3,732.42	57.3873	3,732.42	61.0152	3,732.42	48.7986	3,732.42	60.5015	3,732.42	61.0366	3,732.42	61.8325	3,732.42	56.9614	3,732.42	61.1153
3,864.26	84.7895	3,864.26	85.0563	3,864.26	78.6381	3,864.26	79.5024	3,864.26	80.2515	3,864.26	81.3126	3,864.26	82.1238	3,864.26	82.4805	3,864.26	80.0125	3,864.26	80.7879	3,864.26	78.1365	3,864.26	78.2484	3,864.26	78.572	3,864.26	75.5453	3,864.26	77.0989	3,864.26	75.0102	3,864.26	74.6484	3,864.26	69.6413	3,864.26	69.3855	3,864.26	67.8406	3,864.26	64.6279	3,864.26	67.2385	3,864.26	71.5083	3,864.26	65.0308	3,864.26	66.0619	3,864.26	60.4581	3,864.26	67.3526	3,864.26	62.0274	3,864.26	56.4974	3,864.26	60.0034	3,864.26	55.1458	3,864.26	61.4966	3,864.26	60.8245	3,864.26	61.3463	3,864.26	55.2971	3,864.26	61.9241
4,000.49	84.9285	4,000.49	84.7845	4,000.49	79.1871	4,000.49	80.3037	4,000.49	81.0037	4,000.49	81.877	4,000.49	82.4677	4,000.49	82.3849	4,000.49	79.0946	4,000.49	80.4367	4,000.49	77.8474	4,000.49	77.9435	4,000.49	77.5416	4,000.49	76.3556	4,000.49	76.6118	4,000.49	71.5486	4,000.49	74.9353	4,000.49	71.2593	4,000.49	71.5598	4,000.49	66.9804	4,000.49	60.785	4,000.49	66.47	4,000.49	68.9979	4,000.49	65.5339	4,000.49	65.6718	4,000.49	63.3516	4,000.49	65.7082	4,000.49	59.3839	4,000.49	58.0725	4,000.49	59.6946	4,000.49	50.0618	4,000.49	58.7435	4,000.49	59.5482	4,000.49	59.2569	4,000.49	56.8484	4,000.49	61.1753
4,141.11	85.6093	4,141.11	85.3684	4,141.11	79.6477	4,141.11	80.6163	4,141.11	81.8536	4,141.11	82.5949	4,141.11	83.0073	4,141.11	82.3752	4,141.11	80.2459	4,141.11	80.1239	4,141.11	77.6051	4,141.11	79.1763	4,141.11	78.2524	4,141.11	75.0756	4,141.11	75.305	4,141.11	75.0586	4,141.11	71.8914	4,141.11	68.8632	4,141.11	68.9568	4,141.11	66.9196	4,141.11	53.385	4,141.11	65.6818	4,141.11	65.6405	4,141.11	63.6489	4,141.11	64.1346	4,141.11	62.3568	4,141.11	65.6726	4,141.11	54.9369	4,141.11	55.2438	4,141.11	58.1307	4,141.11	46.0881	4,141.11	58.0474	4,141.11	59.2744	4,141.11	54.8494	4,141.11	47.3253	4,141.11	59.8449
4,287.6	85.8823	4,287.6	85.5997	4,287.6	79.1385	4,287.6	81.8203	4,287.6	82.4831	4,287.6	83.1617	4,287.6	84.127	4,287.6	82.6891	4,287.6	79.6952	4,287.6	81.2451	4,287.6	77.0108	4,287.6	78.7281	4,287.6	78.5001	4,287.6	76.5493	4,287.6	75.2566	4,287.6	72.0648	4,287.6	69.3639	4,287.6	72.5084	4,287.6	63.3772	4,287.6	68.1672	4,287.6	57.8061	4,287.6	67.2621	4,287.6	68.4978	4,287.6	66.2522	4,287.6	67.2189	4,287.6	64.2011	4,287.6	65.7911	4,287.6	61.2144	4,287.6	56.3306	4,287.6	60.4148	4,287.6	53.7429	4,287.6	57.1434	4,287.6	56.3706	4,287.6	59.2619	4,287.6	55.7316	4,287.6	61.5927
4,438.48	86.9151	4,438.48	86.4511	4,438.48	80.0154	4,438.48	80.6365	4,438.48	82.892	4,438.48	83.0129	4,438.48	84.0376	4,438.48	83.3728	4,438.48	78.9236	4,438.48	80.4331	4,438.48	76.1725	4,438.48	78.166	4,438.48	77.5302	4,438.48	75.8004	4,438.48	73.0492	4,438.48	75.8847	4,438.48	71.1988	4,438.48	71.3613	4,438.48	69.1422	4,438.48	65.5598	4,438.48	54.6606	4,438.48	66.6832	4,438.48	69.4421	4,438.48	65.236	4,438.48	68.4528	4,438.48	63.904	4,438.48	66.5269	4,438.48	60.2381	4,438.48	57.568	4,438.48	60.688	4,438.48	49.5135	4,438.48	59.1127	4,438.48	58.9491	4,438.48	58.9375	4,438.48	55.786	4,438.48	59.4024
4,595.21	88.1604	4,595.21	85.9493	4,595.21	81.2525	4,595.21	79.7477	4,595.21	82.1123	4,595.21	85.1269	4,595.21	84.0929	4,595.21	83.2978	4,595.21	79.0616	4,595.21	79.5456	4,595.21	76.2738	4,595.21	79.3024	4,595.21	76.5361	4,595.21	78.2386	4,595.21	72.0192	4,595.21	74.1318	4,595.21	71.1567	4,595.21	73.0933	4,595.21	70.0793	4,595.21	66.6581	4,595.21	51.5142	4,595.21	66.3675	4,595.21	67.9723	4,595.21	63.6862	4,595.21	67.3163	4,595.21	62.719	4,595.21	67.0945	4,595.21	60.6409	4,595.21	54.9385	4,595.21	57.2362	4,595.21	45.8715	4,595.21	58.1942	4,595.21	58.1377	4,595.21	59.6389	4,595.21	55.4705	4,595.21	56.1951
4,756.35	88.8275	4,756.35	84.7449	4,756.35	83.8977	4,756.35	81.8273	4,756.35	81.1612	4,756.35	85.2952	4,756.35	84.227	4,756.35	82.5437	4,756.35	79.1403	4,756.35	81.3474	4,756.35	73.8489	4,756.35	80.9575	4,756.35	74.7134	4,756.35	78.4652	4,756.35	71.9728	4,756.35	75.2925	4,756.35	69.9853	4,756.35	69.7937	4,756.35	71.4164	4,756.35	64.5984	4,756.35	63.5432	4,756.35	65.3091	4,756.35	62.0828	4,756.35	63.8436	4,756.35	65.583	4,756.35	64.1	4,756.35	66.3148	4,756.35	60.861	4,756.35	57.1907	4,756.35	60.6072	4,756.35	55.2149	4,756.35	58.667	4,756.35	60.2285	4,756.35	55.4779	4,756.35	54.0866	4,756.35	58.5204
4,924.8	88.2285	4,924.8	82.4628	4,924.8	85.3255	4,924.8	83.7236	4,924.8	80.7411	4,924.8	84.6904	4,924.8	83.5143	4,924.8	82.627	4,924.8	79.8717	4,924.8	81.7716	4,924.8	72.5027	4,924.8	79.5957	4,924.8	73.2819	4,924.8	75.4022	4,924.8	75.0924	4,924.8	72.5816	4,924.8	73.3973	4,924.8	72.1433	4,924.8	69.7704	4,924.8	65.8302	4,924.8	61.0446	4,924.8	64.4806	4,924.8	61.9692	4,924.8	62.174	4,924.8	62.6528	4,924.8	62.0336	4,924.8	67.0558	4,924.8	54.608	4,924.8	56.3376	4,924.8	59.5903	4,924.8	57.9866	4,924.8	56.7898	4,924.8	61.3548	4,924.8	55.1511	4,924.8	48.1696	4,924.8	52.5116
5,097.66	87.3974	5,097.66	82.5337	5,097.66	85.9802	5,097.66	84.2553	5,097.66	81.3385	5,097.66	83.6298	5,097.66	82.9714	5,097.66	82.6794	5,097.66	79.8499	5,097.66	81.1408	5,097.66	74.1834	5,097.66	78.227	5,097.66	75.0691	5,097.66	75.5115	5,097.66	77.3987	5,097.66	72.8853	5,097.66	75.6512	5,097.66	70.7747	5,097.66	71.4338	5,097.66	67.6571	5,097.66	65.2783	5,097.66	64.8622	5,097.66	56.1367	5,097.66	63.2265	5,097.66	56.852	5,097.66	62.0225	5,097.66	67.0593	5,097.66	53.8534	5,097.66	56.3712	5,097.66	58.6983	5,097.66	55.1462	5,097.66	51.4773	5,097.66	60.4386	5,097.66	56.4534	5,097.66	52.2106	5,097.66	54.7441
5,277.83	86.4342	5,277.83	83.8312	5,277.83	86.1969	5,277.83	83.9204	5,277.83	82.5193	5,277.83	83.9827	5,277.83	82.6664	5,277.83	82.3018	5,277.83	80.998	5,277.83	81.2188	5,277.83	74.0624	5,277.83	77.7397	5,277.83	76.0144	5,277.83	76.8012	5,277.83	79.1133	5,277.83	74.3669	5,277.83	75.3307	5,277.83	72.307	5,277.83	71.7531	5,277.83	68.3491	5,277.83	66.6755	5,277.83	66.4081	5,277.83	63.3756	5,277.83	64.7346	5,277.83	60.1473	5,277.83	64.2708	5,277.83	62.7785	5,277.83	52.1064	5,277.83	52.8162	5,277.83	60.1889	5,277.83	54.7251	5,277.83	51.988	5,277.83	57.1318	5,277.83	50.1621	5,277.83	52.7187	5,277.83	51.3569
5,463.87	85.7638	5,463.87	84.0582	5,463.87	85.5165	5,463.87	83.7472	5,463.87	83.3794	5,463.87	83.5667	5,463.87	82.7594	5,463.87	81.7901	5,463.87	81.1304	5,463.87	80.6376	5,463.87	75.3814	5,463.87	79.1545	5,463.87	75.9881	5,463.87	75.9371	5,463.87	77.7289	5,463.87	74.0335	5,463.87	72.2832	5,463.87	70.646	5,463.87	71.6028	5,463.87	69.2918	5,463.87	65.3153	5,463.87	64.3171	5,463.87	63.9354	5,463.87	65.3983	5,463.87	60.4573	5,463.87	62.8319	5,463.87	60.6198	5,463.87	53.3448	5,463.87	53.0767	5,463.87	60.5597	5,463.87	54.9535	5,463.87	55.0514	5,463.87	58.2262	5,463.87	56.307	5,463.87	50.0514	5,463.87	58.6443
5,657.23	86.4173	5,657.23	84.7117	5,657.23	85.1354	5,657.23	84.3792	5,657.23	83.2141	5,657.23	83.0578	5,657.23	82.0349	5,657.23	81.1114	5,657.23	80.542	5,657.23	81.0187	5,657.23	77.5894	5,657.23	79.1143	5,657.23	76.1373	5,657.23	75.2656	5,657.23	76.7828	5,657.23	74.2029	5,657.23	68.9868	5,657.23	69.5803	5,657.23	65.6635	5,657.23	68.05	5,657.23	65.6929	5,657.23	65.1761	5,657.23	61.9585	5,657.23	64.0453	5,657.23	57.5534	5,657.23	61.8302	5,657.23	63.2241	5,657.23	52.9852	5,657.23	52.3205	5,657.23	57.0436	5,657.23	57.1107	5,657.23	50.8973	5,657.23	57.9606	5,657.23	45.9009	5,657.23	50.408	5,657.23	56.5924
5,856.45	86.7143	5,856.45	85.4517	5,856.45	84.2794	5,856.45	84.9854	5,856.45	82.34	5,856.45	82.1609	5,856.45	82.1613	5,856.45	81.7982	5,856.45	81.5361	5,856.45	80.7773	5,856.45	77.8033	5,856.45	79.0614	5,856.45	76.0954	5,856.45	75.3279	5,856.45	77.8762	5,856.45	71.8391	5,856.45	71.2557	5,856.45	68.1326	5,856.45	68.0237	5,856.45	65.2356	5,856.45	68.2739	5,856.45	59.8124	5,856.45	61.318	5,856.45	61.8866	5,856.45	52.1522	5,856.45	59.927	5,856.45	60.5894	5,856.45	54.4703	5,856.45	56.5382	5,856.45	57.4684	5,856.45	47.6187	5,856.45	50.4538	5,856.45	56.7903	5,856.45	53.5759	5,856.45	39.9139	5,856.45	58.0333
6,062.99	86.2286	6,062.99	85.9821	6,062.99	83.9529	6,062.99	85.5584	6,062.99	82.5536	6,062.99	83.0656	6,062.99	82.9392	6,062.99	82.8144	6,062.99	83.026	6,062.99	80.5416	6,062.99	79.1646	6,062.99	77.4862	6,062.99	75.4531	6,062.99	74.468	6,062.99	76.5422	6,062.99	68.8374	6,062.99	73.1339	6,062.99	67.4869	6,062.99	70.0439	6,062.99	64.1055	6,062.99	68.6041	6,062.99	60.0157	6,062.99	61.0081	6,062.99	58.5933	6,062.99	45.7751	6,062.99	58.0041	6,062.99	56.7083	6,062.99	55.8091	6,062.99	55.8957	6,062.99	50.9935	6,062.99	49.733	6,062.99	54.8239	6,062.99	52.3707	6,062.99	53.5398	6,062.99	45.219	6,062.99	56.285
6,276.86	86.0604	6,276.86	85.7539	6,276.86	84.5078	6,276.86	85.5147	6,276.86	83.1385	6,276.86	84.3603	6,276.86	82.6489	6,276.86	83.3105	6,276.86	82.8675	6,276.86	79.6464	6,276.86	79.4793	6,276.86	77.6626	6,276.86	73.0992	6,276.86	74.9898	6,276.86	74.3312	6,276.86	69.9567	6,276.86	72.4774	6,276.86	67.767	6,276.86	67.9167	6,276.86	63.1485	6,276.86	68.4592	6,276.86	62.4766	6,276.86	49.6083	6,276.86	60.8135	6,276.86	45.8937	6,276.86	59.6496	6,276.86	58.0339	6,276.86	57.4527	6,276.86	51.1741	6,276.86	50.4022	6,276.86	52.3026	6,276.86	55.8316	6,276.86	52.1624	6,276.86	53.2024	6,276.86	49.1496	6,276.86	56.5603
6,498.05	86.2155	6,498.05	85.2479	6,498.05	85.1775	6,498.05	85.2953	6,498.05	84.3405	6,498.05	84.0998	6,498.05	83.444	6,498.05	82.5266	6,498.05	81.403	6,498.05	80.7281	6,498.05	77.0752	6,498.05	78.5234	6,498.05	70.9326	6,498.05	76.7495	6,498.05	72.9	6,498.05	72.8333	6,498.05	72.7523	6,498.05	70.2475	6,498.05	67.3777	6,498.05	64.911	6,498.05	65.9645	6,498.05	64.2217	6,498.05	53.6026	6,498.05	62.0647	6,498.05	56.7766	6,498.05	62.0327	6,498.05	64.1487	6,498.05	56.0167	6,498.05	57.8478	6,498.05	58.1667	6,498.05	58.6945	6,498.05	59.1149	6,498.05	52.4892	6,498.05	56.8937	6,498.05	45.1803	6,498.05	52.9962
6,726.56	85.9813	6,726.56	85.1965	6,726.56	85.3644	6,726.56	85.0339	6,726.56	84.4855	6,726.56	83.306	6,726.56	82.9426	6,726.56	82.2576	6,726.56	80.2537	6,726.56	80.9642	6,726.56	76.1017	6,726.56	78.7137	6,726.56	71.2506	6,726.56	76.3725	6,726.56	71.6467	6,726.56	71.6825	6,726.56	73.1032	6,726.56	68.9429	6,726.56	68.6501	6,726.56	65.0003	6,726.56	65.988	6,726.56	64.2345	6,726.56	61.6847	6,726.56	62.7355	6,726.56	61.8831	6,726.56	62.0841	6,726.56	61.5422	6,726.56	55.4721	6,726.56	58.0702	6,726.56	58.0895	6,726.56	50.575	6,726.56	57.2806	6,726.56	54.0613	6,726.56	55.7311	6,726.56	47.5217	6,726.56	54.0626
6,963.87	85.3613	6,963.87	85.2535	6,963.87	85.107	6,963.87	84.6385	6,963.87	84.1464	6,963.87	82.8135	6,963.87	82.6016	6,963.87	82.0416	6,963.87	80.5145	6,963.87	81.2967	6,963.87	75.9669	6,963.87	78.5454	6,963.87	71.7273	6,963.87	75.2949	6,963.87	73.8514	6,963.87	72.2195	6,963.87	70.1957	6,963.87	68.234	6,963.87	63.0916	6,963.87	65.351	6,963.87	66.5793	6,963.87	61.2676	6,963.87	64.408	6,963.87	62.1659	6,963.87	62.4374	6,963.87	59.2197	6,963.87	61.7	6,963.87	56.4062	6,963.87	53.1897	6,963.87	58.3434	6,963.87	47.5951	6,963.87	56.6437	6,963.87	50.4922	6,963.87	52.8929	6,963.87	35.8397	6,963.87	53.6967
7,209.96	85.4327	7,209.96	85.3333	7,209.96	85.19	7,209.96	84.4395	7,209.96	84.3973	7,209.96	83.1283	7,209.96	82.2604	7,209.96	82.8198	7,209.96	80.2484	7,209.96	81.2876	7,209.96	77.7705	7,209.96	78.6323	7,209.96	73.921	7,209.96	75.2123	7,209.96	67.8469	7,209.96	72.3125	7,209.96	68.8227	7,209.96	68.7002	7,209.96	66.5367	7,209.96	66.0825	7,209.96	66.8206	7,209.96	62.2025	7,209.96	65.7668	7,209.96	64.8155	7,209.96	63.7963	7,209.96	59.559	7,209.96	58.8161	7,209.96	58.6178	7,209.96	55.1606	7,209.96	60.5318	7,209.96	43.167	7,209.96	53.7585	7,209.96	53.3778	7,209.96	51.0271	7,209.96	43.1284	7,209.96	51.7822
7,464.84	84.7871	7,464.84	84.8406	7,464.84	84.3918	7,464.84	84.3241	7,464.84	83.868	7,464.84	83.2473	7,464.84	82.0487	7,464.84	82.5315	7,464.84	79.9991	7,464.84	80.9313	7,464.84	77.7492	7,464.84	78.6854	7,464.84	70.8339	7,464.84	75.1877	7,464.84	61.4517	7,464.84	72.6805	7,464.84	73.2896	7,464.84	69.1716	7,464.84	67.9424	7,464.84	65.0247	7,464.84	62.4165	7,464.84	61.3776	7,464.84	65.7341	7,464.84	63.0852	7,464.84	61.8344	7,464.84	59.0754	7,464.84	53.6805	7,464.84	57.4604	7,464.84	53.7037	7,464.84	58.4965	7,464.84	54.0343	7,464.84	53.5673	7,464.84	49.9038	7,464.84	38.3843	7,464.84	46.9536	7,464.84	49.6156
7,727.05	84.5831	7,727.05	84.5733	7,727.05	84.0025	7,727.05	84.3241	7,727.05	83.4111	7,727.05	83.2117	7,727.05	81.7928	7,727.05	82.2188	7,727.05	79.4993	7,727.05	81.3497	7,727.05	76.3649	7,727.05	78.5032	7,727.05	70.1557	7,727.05	75.669	7,727.05	69.8147	7,727.05	70.885	7,727.05	75.3614	7,727.05	68.3614	7,727.05	70.2317	7,727.05	64.8426	7,727.05	49.2748	7,727.05	60.0734	7,727.05	60.7092	7,727.05	63.0214	7,727.05	57.6921	7,727.05	57.9018	7,727.05	58.7175	7,727.05	56.6492	7,727.05	56.8736	7,727.05	58.4838	7,727.05	53.968	7,727.05	52.6777	7,727.05	52.473	7,727.05	41.9962	7,727.05	45.5844	7,727.05	48.4143
7,999.51	84.7565	7,999.51	84.8846	7,999.51	84.2497	7,999.51	84.9996	7,999.51	83.4775	7,999.51	83.1187	7,999.51	81.4182	7,999.51	82.4772	7,999.51	78.6426	7,999.51	81.376	7,999.51	75.0393	7,999.51	78.1011	7,999.51	73.5091	7,999.51	75.4562	7,999.51	73.4828	7,999.51	70.7935	7,999.51	75.8551	7,999.51	68.5557	7,999.51	70.4038	7,999.51	64.9441	7,999.51	61.7933	7,999.51	60.8574	7,999.51	54.3876	7,999.51	61.7422	7,999.51	55.7544	7,999.51	58.0572	7,999.51	57.7216	7,999.51	56.9545	7,999.51	53.8408	7,999.51	56.7713	7,999.51	53.4836	7,999.51	53.0388	7,999.51	53.9346	7,999.51	34.5929	7,999.51	33.6757	7,999.51	51.5311
8,282.23	84.8286	8,282.23	85.5208	8,282.23	84.5127	8,282.23	85.2988	8,282.23	83.5526	8,282.23	83.5895	8,282.23	81.5902	8,282.23	82.2426	8,282.23	79.8049	8,282.23	81.113	8,282.23	76.623	8,282.23	78.6465	8,282.23	75.482	8,282.23	75.5051	8,282.23	73.7772	8,282.23	71.5992	8,282.23	73.993	8,282.23	67.6072	8,282.23	69.2638	8,282.23	65.1528	8,282.23	60.8289	8,282.23	60.7598	8,282.23	57.6709	8,282.23	61.3221	8,282.23	54.1427	8,282.23	57.4273	8,282.23	48.2115	8,282.23	56.4662	8,282.23	52.716	8,282.23	59.2359	8,282.23	47.2265	8,282.23	52.6948	8,282.23	50.1163	8,282.23	38.6662	8,282.23	36.539	8,282.23	45.969
8,573.73	84.7297	8,573.73	85.4239	8,573.73	84.9752	8,573.73	85.4047	8,573.73	83.8456	8,573.73	83.7269	8,573.73	81.3495	8,573.73	81.7673	8,573.73	79.7501	8,573.73	81.4621	8,573.73	76.3249	8,573.73	78.8527	8,573.73	75.4469	8,573.73	74.9341	8,573.73	72.1615	8,573.73	70.7612	8,573.73	71.975	8,573.73	66.6566	8,573.73	66.7031	8,573.73	64.3124	8,573.73	63.3677	8,573.73	58.2063	8,573.73	60.4938	8,573.73	61.2229	8,573.73	55.0645	8,573.73	54.2045	8,573.73	51.6603	8,573.73	54.0793	8,573.73	49.7498	8,573.73	57.8662	8,573.73	50.5177	8,573.73	43.4915	8,573.73	51.7557	8,573.73	50.1414	8,573.73	32.6879	8,573.73	46.2505
8,876.95	85.0118	8,876.95	85.3862	8,876.95	84.7763	8,876.95	85.4719	8,876.95	83.8437	8,876.95	84.222	8,876.95	82.2045	8,876.95	82.3166	8,876.95	79.5878	8,876.95	81.6096	8,876.95	75.4908	8,876.95	78.6376	8,876.95	74.0876	8,876.95	74.6981	8,876.95	69.2514	8,876.95	71.1581	8,876.95	66.2763	8,876.95	66.7167	8,876.95	61.0058	8,876.95	64.4787	8,876.95	62.0563	8,876.95	57.9592	8,876.95	60.1162	8,876.95	61.3692	8,876.95	53.1789	8,876.95	56.3265	8,876.95	46.9369	8,876.95	55.3455	8,876.95	47.9783	8,876.95	58.7978	8,876.95	40.3116	8,876.95	46.7968	8,876.95	52.6227	8,876.95	54.7142	8,876.95	29.9244	8,876.95	48.5661
9,188.96	85.1359	9,188.96	85.0595	9,188.96	84.6536	9,188.96	85.6041	9,188.96	83.415	9,188.96	84.4973	9,188.96	82.1888	9,188.96	82.7391	9,188.96	79.7762	9,188.96	81.3592	9,188.96	76.7428	9,188.96	78.7075	9,188.96	72.881	9,188.96	73.9653	9,188.96	64.091	9,188.96	70.6213	9,188.96	67.1125	9,188.96	66.1101	9,188.96	62.7374	9,188.96	64.0303	9,188.96	60.1233	9,188.96	57.6489	9,188.96	57.2592	9,188.96	59.5129	9,188.96	51.8552	9,188.96	55.4884	9,188.96	33.5144	9,188.96	56.9379	9,188.96	48.9662	9,188.96	57.9304	9,188.96	48.4391	9,188.96	47.962	9,188.96	51.9072	9,188.96	55.9982	9,188.96	41.7706	9,188.96	50.4359
9,514.16	85.2912	9,514.16	85.2919	9,514.16	84.8338	9,514.16	85.9391	9,514.16	83.3778	9,514.16	84.7639	9,514.16	82.0419	9,514.16	83.4068	9,514.16	79.5682	9,514.16	81.8119	9,514.16	76.1495	9,514.16	77.8439	9,514.16	71.8521	9,514.16	73.4709	9,514.16	65.222	9,514.16	70.3565	9,514.16	67.5405	9,514.16	66.5863	9,514.16	62.7764	9,514.16	63.6629	9,514.16	59.0582	9,514.16	57.8633	9,514.16	56.2491	9,514.16	58.9649	9,514.16	51.5199	9,514.16	52.6583	9,514.16	44.2778	9,514.16	56.1806	9,514.16	45.9415	9,514.16	57.271	9,514.16	50.3806	9,514.16	49.7636	9,514.16	51.5644	9,514.16	54.2976	9,514.16	42.8622	9,514.16	49.2511
9,849.61	85.497	9,849.61	85.7348	9,849.61	84.9306	9,849.61	86.226	9,849.61	83.758	9,849.61	84.9257	9,849.61	81.8988	9,849.61	83.6103	9,849.61	78.527	9,849.61	82.1096	9,849.61	75.7578	9,849.61	78.0246	9,849.61	73.0594	9,849.61	73.6206	9,849.61	67.2332	9,849.61	70.3401	9,849.61	67.574	9,849.61	67.1835	9,849.61	59.1268	9,849.61	62.9935	9,849.61	54.7529	9,849.61	57.5822	9,849.61	54.4635	9,849.61	56.5074	9,849.61	50.9379	9,849.61	52.4371	9,849.61	48.3541	9,849.61	53.8675	9,849.61	47.1832	9,849.61	55.2899	9,849.61	50.4478	9,849.61	51.3888	9,849.61	50.7567	9,849.61	53.6769	9,849.61	37.457	9,849.61	45.8216
10,196.8	85.958	10,196.8	86.2321	10,196.8	85.0415	10,196.8	86.5362	10,196.8	83.9522	10,196.8	84.8367	10,196.8	81.9295	10,196.8	83.3434	10,196.8	78.7656	10,196.8	81.613	10,196.8	76.9121	10,196.8	78.3619	10,196.8	72.308	10,196.8	73.3726	10,196.8	68.4166	10,196.8	69.8828	10,196.8	67.0073	10,196.8	66.2619	10,196.8	55.906	10,196.8	62.2973	10,196.8	56.8269	10,196.8	55.9641	10,196.8	51.4516	10,196.8	55.1429	10,196.8	49.6935	10,196.8	53.2987	10,196.8	47.1259	10,196.8	52.3147	10,196.8	47.5385	10,196.8	54.4105	10,196.8	45.9212	10,196.8	51.0521	10,196.8	50.0671	10,196.8	54.7443	10,196.8	34.5164	10,196.8	46.2557
10,555.7	86.5158	10,555.7	86.8035	10,555.7	85.3555	10,555.7	86.5524	10,555.7	84.2023	10,555.7	85.1615	10,555.7	81.4535	10,555.7	82.5266	10,555.7	78.6178	10,555.7	81.139	10,555.7	76.5831	10,555.7	78.3852	10,555.7	70.9633	10,555.7	73.2285	10,555.7	69.1075	10,555.7	68.3072	10,555.7	66.2817	10,555.7	64.9062	10,555.7	56.3891	10,555.7	61.1215	10,555.7	56.4686	10,555.7	54.775	10,555.7	45.6292	10,555.7	55.8762	10,555.7	47.5731	10,555.7	51.1766	10,555.7	49.9715	10,555.7	51.2142	10,555.7	46.6105	10,555.7	53.2083	10,555.7	48.0434	10,555.7	48.9624	10,555.7	48.2056	10,555.7	55.7613	10,555.7	40.9079	10,555.7	43.1362
10,927.7	87.188	10,927.7	86.7999	10,927.7	85.5806	10,927.7	86.5634	10,927.7	84.5253	10,927.7	85.3889	10,927.7	81.43	10,927.7	82.0907	10,927.7	78.0391	10,927.7	80.7687	10,927.7	75.2742	10,927.7	77.8798	10,927.7	70.9956	10,927.7	72.1406	10,927.7	69.3608	10,927.7	67.5255	10,927.7	65.3402	10,927.7	64.3751	10,927.7	56.1796	10,927.7	60.7114	10,927.7	50.8243	10,927.7	54.2843	10,927.7	53.8498	10,927.7	57.1698	10,927.7	45.4922	10,927.7	46.5042	10,927.7	46.6119	10,927.7	53.2543	10,927.7	43.9406	10,927.7	52.4264	10,927.7	50.0168	10,927.7	49.7909	10,927.7	48.8632	10,927.7	56.3968	10,927.7	41.0953	10,927.7	45.9598
11,313	87.4065	11,313	87.0115	11,313	85.9666	11,313	86.6935	11,313	84.8096	11,313	85.7226	11,313	81.2146	11,313	82.3222	11,313	77.8377	11,313	80.4028	11,313	75.4809	11,313	76.8301	11,313	70.1875	11,313	70.6721	11,313	66.76	11,313	67.1857	11,313	57.3501	11,313	63.9874	11,313	49.796	11,313	59.0129	11,313	50.829	11,313	53.2367	11,313	53.8693	11,313	57.9162	11,313	44.7456	11,313	46.2731	11,313	42.1324	11,313	53.6668	11,313	40.3234	11,313	52.8016	11,313	47.4228	11,313	51.5324	11,313	40.0395	11,313	56.3021	11,313	41.1072	11,313	43.3778
11,712.9	87.0891	11,712.9	87.2829	11,712.9	86.1671	11,712.9	87.0654	11,712.9	84.2684	11,712.9	85.6724	11,712.9	81.1235	11,712.9	82.7074	11,712.9	77.903	11,712.9	80.0969	11,712.9	74.7401	11,712.9	75.5106	11,712.9	66.2913	11,712.9	69.0148	11,712.9	66.6585	11,712.9	64.617	11,712.9	52.5805	11,712.9	62.1734	11,712.9	43.5998	11,712.9	56.5843	11,712.9	49.0232	11,712.9	52.4703	11,712.9	51.7555	11,712.9	57.1579	11,712.9	42.0128	11,712.9	46.879	11,712.9	45.7544	11,712.9	53.8395	11,712.9	43.9351	11,712.9	52.3413	11,712.9	41.6478	11,712.9	46.6273	11,712.9	46.33	11,712.9	56.7849	11,712.9	27.0522	11,712.9	46.3749
12,126	87.1386	12,126	87.6863	12,126	86.1105	12,126	87.193	12,126	83.5965	12,126	85.2766	12,126	80.7501	12,126	82.3553	12,126	76.3468	12,126	79.1239	12,126	71.4097	12,126	74.7412	12,126	64.6252	12,126	66.6574	12,126	62.9157	12,126	61.4752	12,126	47.1919	12,126	59.79	12,126	46.4366	12,126	53.0089	12,126	48.9086	12,126	51.771	12,126	47.0529	12,126	52.5224	12,126	42.7155	12,126	47.8354	12,126	49.1707	12,126	52.1538	12,126	46.725	12,126	47.4906	12,126	45.8795	12,126	33.6393	12,126	45.3116	12,126	53.8825	12,126	33.8447	12,126	43.2139
12,553.7	87.7202	12,553.7	87.9256	12,553.7	86.179	12,553.7	87.0009	12,553.7	83.4399	12,553.7	84.8531	12,553.7	79.772	12,553.7	81.6752	12,553.7	73.9723	12,553.7	77.7603	12,553.7	68.8831	12,553.7	72.3048	12,553.7	62.4987	12,553.7	62.9538	12,553.7	58.8642	12,553.7	55.6283	12,553.7	51.3543	12,553.7	53.9056	12,553.7	50.8811	12,553.7	48.2457	12,553.7	39.3882	12,553.7	48.6448	12,553.7	55.0415	12,553.7	47.5533	12,553.7	47.1922	12,553.7	45.0436	12,553.7	44.9653	12,553.7	48.7926	12,553.7	42.6046	12,553.7	39.5443	12,553.7	49.4551	12,553.7	41.1887	12,553.7	42.6584	12,553.7	51.8897	12,553.7	38.0757	12,553.7	37.4083
12,996.1	88.0866	12,996.1	87.8615	12,996.1	86.4644	12,996.1	86.8674	12,996.1	83.1356	12,996.1	84.5902	12,996.1	78.2871	12,996.1	80.8109	12,996.1	71.297	12,996.1	76.6676	12,996.1	64.0246	12,996.1	69.1968	12,996.1	58.4128	12,996.1	61.9944	12,996.1	58.5408	12,996.1	57.6261	12,996.1	56.4289	12,996.1	55.6841	12,996.1	50.5674	12,996.1	50.4662	12,996.1	39.2998	12,996.1	48.3006	12,996.1	53.3528	12,996.1	47.4457	12,996.1	47.2124	12,996.1	45.8989	12,996.1	34.1267	12,996.1	45.9018	12,996.1	32.5621	12,996.1	43.9845	12,996.1	48.5904	12,996.1	45.7379	12,996.1	41.0968	12,996.1	49.0461	12,996.1	43.5766	12,996.1	38.9669
13,454.6	88.0338	13,454.6	87.9733	13,454.6	86.4576	13,454.6	86.9247	13,454.6	82.7345	13,454.6	84.197	13,454.6	76.7168	13,454.6	79.6473	13,454.6	68.3035	13,454.6	75.4127	13,454.6	56.791	13,454.6	67.7715	13,454.6	59.0522	13,454.6	61.5966	13,454.6	61.6882	13,454.6	53.819	13,454.6	55.2299	13,454.6	54.5825	13,454.6	52.478	13,454.6	44.6046	13,454.6	53.2863	13,454.6	45.1788	13,454.6	57.2727	13,454.6	46.0054	13,454.6	48.5404	13,454.6	42.0515	13,454.6	47.2513	13,454.6	43.0023	13,454.6	41.4448	13,454.6	39.9691	13,454.6	45.6896	13,454.6	46.4062	13,454.6	41.0577	13,454.6	46.5957	13,454.6	42.6944	13,454.6	38.6934
13,929.2	87.8622	13,929.2	88.1466	13,929.2	86.0923	13,929.2	86.9626	13,929.2	82.5825	13,929.2	83.8433	13,929.2	75.5519	13,929.2	78.6806	13,929.2	63.9772	13,929.2	73.673	13,929.2	55.4529	13,929.2	65.5449	13,929.2	65.6795	13,929.2	57.676	13,929.2	64.0076	13,929.2	53.6077	13,929.2	51.538	13,929.2	51.354	13,929.2	53.8572	13,929.2	48.1713	13,929.2	58.2442	13,929.2	47.5755	13,929.2	62.7428	13,929.2	41.8876	13,929.2	55.4814	13,929.2	40.3675	13,929.2	50.2043	13,929.2	44.5922	13,929.2	42.9641	13,929.2	41.8734	13,929.2	42.6325	13,929.2	43.5578	13,929.2	32.6738	13,929.2	41.9893	13,929.2	42.0983	13,929.2	41.6278
14,419.9	87.7572	14,419.9	88.0083	14,419.9	85.7553	14,419.9	86.7608	14,419.9	82.207	14,419.9	83.3758	14,419.9	74.2279	14,419.9	77.9636	14,419.9	53.5658	14,419.9	71.6139	14,419.9	65.9643	14,419.9	60.7159	14,419.9	67.0785	14,419.9	57.4587	14,419.9	58.9228	14,419.9	54.5233	14,419.9	48.9838	14,419.9	48.6247	14,419.9	50.9172	14,419.9	47.1533	14,419.9	57.3165	14,419.9	46.5544	14,419.9	63.0096	14,419.9	36.6682	14,419.9	57.6439	14,419.9	44.9479	14,419.9	50.4462	14,419.9	46.5192	14,419.9	40.8703	14,419.9	42.3378	14,419.9	40.6305	14,419.9	42.6076	14,419.9	30.9827	14,419.9	46.8672	14,419.9	40.8661	14,419.9	37.6104
14,928.2	87.7541	14,928.2	87.6666	14,928.2	85.6405	14,928.2	86.6017	14,928.2	81.5303	14,928.2	82.8022	14,928.2	71.9018	14,928.2	77.0802	14,928.2	59.6557	14,928.2	69.6738	14,928.2	68.8018	14,928.2	62.522	14,928.2	65.2486	14,928.2	59.3095	14,928.2	57.6566	14,928.2	58.3259	14,928.2	52.1013	14,928.2	55.2091	14,928.2	50.2567	14,928.2	51.5121	14,928.2	59.0918	14,928.2	47.9043	14,928.2	65.4602	14,928.2	39.4245	14,928.2	58.8082	14,928.2	45.9187	14,928.2	46.3149	14,928.2	47.4919	14,928.2	24.6166	14,928.2	43.6001	14,928.2	40.1304	14,928.2	38.6485	14,928.2	33.2076	14,928.2	44.0555	14,928.2	41.5544	14,928.2	41.6149
15,455.6	87.6067	15,455.6	87.4798	15,455.6	85.4575	15,455.6	86.216	15,455.6	80.5208	15,455.6	81.9326	15,455.6	68.9326	15,455.6	75.1001	15,455.6	68.8625	15,455.6	68.2728	15,455.6	70.4484	15,455.6	66.402	15,455.6	70.8043	15,455.6	64.1168	15,455.6	61.0685	15,455.6	61.6836	15,455.6	50.334	15,455.6	56.9783	15,455.6	51.9385	15,455.6	54.0068	15,455.6	62.6534	15,455.6	48.5133	15,455.6	69.1437	15,455.6	39.4775	15,455.6	62.4092	15,455.6	47.1661	15,455.6	51.3324	15,455.6	49.6898	15,455.6	46.2836	15,455.6	45.9404	15,455.6	48.3677	15,455.6	42.3731	15,455.6	39.7824	15,455.6	49.7298	15,455.6	46.6014	15,455.6	47.0413
16,000.5	87.1327	16,000.5	87.1128	16,000.5	85.1195	16,000.5	85.5807	16,000.5	79.9848	16,000.5	81.5012	16,000.5	71.0935	16,000.5	73.4098	16,000.5	73.4532	16,000.5	71.1487	16,000.5	73.7967	16,000.5	69.8174	16,000.5	72.9556	16,000.5	67.1822	16,000.5	53.7245	16,000.5	63.5637	16,000.5	58.3727	16,000.5	56.7514	16,000.5	54.0068	16,000.5	56.318	16,000.5	63.2752	16,000.5	47.9638	16,000.5	71.4098	16,000.5	44.4066	16,000.5	64.1538	16,000.5	45.7938	16,000.5	56.7172	16,000.5	50.5537	16,000.5	53.147	16,000.5	46.1413	16,000.5	52.6216	16,000.5	39.1743	16,000.5	43.1866	16,000.5	48.6798	16,000.5	46.6047	16,000.5	46.0816
16,564.5	87.0727	16,564.5	87.4282	16,564.5	85.1554	16,564.5	85.6806	16,564.5	80.953	16,564.5	82.5499	16,564.5	73.3864	16,564.5	76.7452	16,564.5	74.7892	16,564.5	73.0405	16,564.5	73.6259	16,564.5	71.0297	16,564.5	71.2092	16,564.5	66.7808	16,564.5	63.0426	16,564.5	63.6433	16,564.5	59.5946	16,564.5	54.7581	16,564.5	53.3023	16,564.5	56.3597	16,564.5	61.791	16,564.5	46.3759	16,564.5	71.2135	16,564.5	43.967	16,564.5	63.1877	16,564.5	46.794	16,564.5	57.6604	16,564.5	51.3221	16,564.5	55.1051	16,564.5	47.1557	16,564.5	51.5598	16,564.5	39.4386	16,564.5	44.0139	16,564.5	50.4238	16,564.5	45.0548	16,564.5	50.186
17,148.9	87.364	17,148.9	87.7686	17,148.9	84.9031	17,148.9	85.9862	17,148.9	80.8561	17,148.9	82.8334	17,148.9	74.2021	17,148.9	77.4813	17,148.9	74.2293	17,148.9	71.8326	17,148.9	73.8657	17,148.9	69.1053	17,148.9	71.5897	17,148.9	64.4448	17,148.9	65.1644	17,148.9	61.5765	17,148.9	52.8562	17,148.9	52.5864	17,148.9	48.6492	17,148.9	54.1642	17,148.9	60.133	17,148.9	42.9986	17,148.9	71.6116	17,148.9	46.5059	17,148.9	63.2879	17,148.9	43.7675	17,148.9	58.3496	17,148.9	49.5625	17,148.9	52.8601	17,148.9	45.0613	17,148.9	51.6814	17,148.9	39.8907	17,148.9	43.5091	17,148.9	44.0049	17,148.9	45.9567	17,148.9	45.8892
17,752.4	87.5628	17,752.4	88.0544	17,752.4	84.8662	17,752.4	86.079	17,752.4	79.9145	17,752.4	82.238	17,752.4	73.72	17,752.4	76.4356	17,752.4	72.7535	17,752.4	69.5223	17,752.4	72.3061	17,752.4	65.9446	17,752.4	71.7329	17,752.4	62.7642	17,752.4	64.1965	17,752.4	61.3721	17,752.4	57.1414	17,752.4	54.9739	17,752.4	49.842	17,752.4	50.4413	17,752.4	59.2953	17,752.4	43.7355	17,752.4	71.0063	17,752.4	44.9854	17,752.4	63.3414	17,752.4	42.5182	17,752.4	58.7503	17,752.4	47.9272	17,752.4	50.295	17,752.4	47.7155	17,752.4	51.5436	17,752.4	40.157	17,752.4	44.1878	17,752.4	30.093	17,752.4	46.2665	17,752.4	44.489
18,379.4	87.1144	18,379.4	88.0295	18,379.4	84.5054	18,379.4	85.9323	18,379.4	78.6275	18,379.4	81.4877	18,379.4	72.5069	18,379.4	75.4169	18,379.4	73.0409	18,379.4	69.3788	18,379.4	71.8543	18,379.4	66.3528	18,379.4	71.1827	18,379.4	64.1013	18,379.4	56.0575	18,379.4	61.688	18,379.4	58.0954	18,379.4	55.1088	18,379.4	46.4361	18,379.4	46.5839	18,379.4	58.3359	18,379.4	45.2754	18,379.4	71.0021	18,379.4	47.5057	18,379.4	64.4834	18,379.4	43.6792	18,379.4	56.9331	18,379.4	45.9001	18,379.4	48.5796	18,379.4	47.8459	18,379.4	49.7178	18,379.4	40.8929	18,379.4	34.1604	18,379.4	39.8533	18,379.4	45.3234	18,379.4	42.9234
19,026.9	86.2394	19,026.9	87.3342	19,026.9	83.4714	19,026.9	85.416	19,026.9	77.4352	19,026.9	80.8423	19,026.9	71.1402	19,026.9	74.7195	19,026.9	73.6049	19,026.9	72.1338	19,026.9	73.0632	19,026.9	67.0226	19,026.9	66.5156	19,026.9	64.0279	19,026.9	62.1062	19,026.9	61.4986	19,026.9	56.4659	19,026.9	52.5555	19,026.9	39.0242	19,026.9	46.564	19,026.9	57.2115	19,026.9	45.9626	19,026.9	70.9971	19,026.9	48.6111	19,026.9	64.9604	19,026.9	41.4656	19,026.9	53.2248	19,026.9	41.6008	19,026.9	42.6747	19,026.9	47.3884	19,026.9	52.7904	19,026.9	38.8161	19,026.9	43.4308	19,026.9	45.75	19,026.9	46.4925	19,026.9	36.1099
19,697.8	85.8002	19,697.8	86.7102	19,697.8	81.8508	19,697.8	84.606	19,697.8	75.4794	19,697.8	80.1713	19,697.8	73.6815	19,697.8	73.6294	19,697.8	74.4147	19,697.8	71.7128	19,697.8	73.9059	19,697.8	67.392	19,697.8	66.8821	19,697.8	62.5656	19,697.8	64.9537	19,697.8	60.0451	19,697.8	56.5513	19,697.8	51.4729	19,697.8	42.8127	19,697.8	46.1583	19,697.8	54.4018	19,697.8	47.0862	19,697.8	70.5461	19,697.8	46.0173	19,697.8	64.8213	19,697.8	39.4101	19,697.8	51.6141	19,697.8	38.6081	19,697.8	45.4717	19,697.8	46.8448	19,697.8	52.8458	19,697.8	42.5893	19,697.8	48.6625	19,697.8	52.0291	19,697.8	47.5691	19,697.8	41.0818
19,999.5	85.3547	19,999.5	86.229	19,999.5	81.1378	19,999.5	83.9664	19,999.5	75.0171	19,999.5	79.6786	19,999.5	74.3427	19,999.5	73.064	19,999.5	75.158	19,999.5	70.9665	19,999.5	73.1328	19,999.5	67.7168	19,999.5	66.9322	19,999.5	63.1753	19,999.5	61.7895	19,999.5	60.2782	19,999.5	57.972	19,999.5	54.1168	19,999.5	44.45	19,999.5	46.4058	19,999.5	52.5393	19,999.5	49.0909	19,999.5	70.2106	19,999.5	47.4414	19,999.5	64.0732	19,999.5	45.7088	19,999.5	54.1385	19,999.5	42.3811	19,999.5	46.1382	19,999.5	45.9215	19,999.5	50.9359	19,999.5	44.1564	19,999.5	52.671	19,999.5	54.7211	19,999.5	49.4148	19,999.5	48.2304
